Potential V vs RHE, Current mA cm-2
0.013299999999999867,0.03548095940061512
0.012299999999999978,-0.015321323377538347
0.011299999999999866,-0.036117579485554385
0.010299999999999976,-0.048269949551395054
0.009299999999999864,-0.0598564350972897
0.008299999999999974,-0.07254639545707908
0.007299999999999862,-0.08469876552291973
0.006299999999999972,-0.09181476336124088
0.00529999999999986,-0.09753019701269564
0.0042999999999999705,-0.10478766598100327
0.0032999999999998586,-0.11302128574621777
0.0022999999999999687,-0.12098611036445794
0.0012999999999998568,-0.12781916594280607
0.00029999999999996696,-0.1324311247803661
-0.000700000000000145,-0.13800508730183433
-0.0017000000000000348,-0.14387613919627423
-0.0027000000000001467,-0.1496764555257209
-0.0037000000000000366,-0.1551938295951945
-0.0047000000000001485,-0.15929649236480314
-0.005700000000000038,-0.1617015015745737
-0.00670000000000015,-0.16792623129397988
-0.00770000000000004,-0.17499978779330505
-0.008700000000000152,-0.1769803836131161
-0.009700000000000042,-0.18150745977268423
-0.010700000000000154,-0.18688336271217135
-0.011700000000000044,-0.1899957275718744
-0.012700000000000156,-0.19636192842126707
-0.013700000000000045,-0.19862546650105112
-0.014700000000000157,-0.20060606232086217
-0.015700000000000047,-0.20187930249074074
-0.01670000000000016,-0.2073966765602144
-0.01770000000000005,-0.21305552175967452
-0.01870000000000016,-0.21333846401964754
-0.01970000000000005,-0.21390434853959353
-0.020700000000000163,-0.21744112678925615
-0.021700000000000053,-0.22055349164895924
-0.022700000000000164,-0.22691969249835187
-0.023700000000000054,-0.2276270481482844
-0.024700000000000166,-0.2273441058883114
-0.025700000000000056,-0.23059794187800098
-0.026700000000000168,-0.23385177786769054
-0.027700000000000058,-0.2368226715974071
-0.02870000000000017,-0.23795444063729917
-0.02970000000000006,-0.2392276808071777
-0.03070000000000017,-0.24163269001694826
-0.03170000000000006,-0.24403769922671883
-0.03270000000000017,-0.2468671218264489
-0.03370000000000006,-0.24969654442617895
-0.034700000000000175,-0.24799889086634092
-0.035700000000000065,-0.24941360216620592
-0.03670000000000018,-0.25535538962563914
-0.03770000000000007,-0.2557798030155986
-0.03870000000000018,-0.2580433410953827
-0.03970000000000007,-0.2583262833553557
-0.04070000000000018,-0.26002393691519377
-0.04170000000000007,-0.2653998398546809
-0.04270000000000018,-0.26384365742482935
-0.04370000000000007,-0.2620045327350048
-0.044700000000000184,-0.2695025026242895
-0.045700000000000074,-0.26780484906445146
-0.046700000000000186,-0.2726148674839926
-0.047700000000000076,-0.2724733963540061
-0.04870000000000019,-0.27586870347368214
-0.04970000000000008,-0.27601017460366867
-0.05070000000000019,-0.2764345879936282
-0.05170000000000008,-0.2812446064131693
-0.05270000000000019,-0.2816690198031288
-0.05370000000000008,-0.2816690198031288
-0.05470000000000019,-0.28350814449295336
-0.05570000000000008,-0.2844984424028589
-0.056700000000000195,-0.287893749522535
-0.057700000000000085,-0.289025518562427
-0.058700000000000196,-0.289874345342346
-0.059700000000000086,-0.2891669896924135
-0.0607000000000002,-0.29058170099227854
-0.06170000000000009,-0.29708937297165766
-0.0627000000000002,-0.2973723152316307
-0.06370000000000009,-0.29878702653149575
-0.0647000000000002,-0.2966649595816982
-0.06570000000000009,-0.30034320896134725
-0.0667000000000002,-0.3013335068712528
-0.0677000000000001,-0.3033141026910639
-0.0687000000000002,-0.3050117562509019
-0.0697000000000001,-0.3050117562509019
-0.07070000000000021,-0.3038799872110099
-0.0717000000000001,-0.3071338232006995
-0.07270000000000021,-0.3091144190205105
-0.0737000000000001,-0.31123648597030806
-0.07470000000000021,-0.31151942823028106
-0.0757000000000001,-0.31095354371033507
-0.07670000000000021,-0.31533914873991664
-0.0777000000000001,-0.31548061986990317
-0.07870000000000021,-0.3159050332598627
-0.0797000000000001,-0.3178856290796737
-0.08070000000000022,-0.3177441579496872
-0.0817000000000001,-0.3211394650693633
-0.08270000000000022,-0.3214224073293363
-0.08370000000000011,-0.3211394650693633
-0.08470000000000022,-0.3246762433190259
-0.08570000000000011,-0.3231200608891744
-0.08670000000000022,-0.3252421278389719
-0.08770000000000011,-0.329203319478594
-0.08870000000000022,-0.3287789060886345
-0.08970000000000011,-0.3290618483486075
-0.09070000000000022,-0.3300521462585131
-0.09170000000000011,-0.329203319478594
-0.09270000000000023,-0.3345792224180812
-0.09370000000000012,-0.3348621646780542
-0.09470000000000023,-0.3341548090281217
-0.09570000000000012,-0.3351451069380272
-0.09670000000000023,-0.3362768759779193
-0.09770000000000012,-0.3416527789174064
-0.09870000000000023,-0.3393892408376223
-0.09970000000000012,-0.3386818851876898
-0.10070000000000023,-0.34363337473721745
-0.10170000000000012,-0.3426430768273119
-0.10270000000000024,-0.3458969128170015
-0.10370000000000013,-0.3467457395969205
-0.10470000000000024,-0.34518955716706895
-0.10570000000000013,-0.347453095246853
-0.10670000000000024,-0.3494336910666641
-0.10770000000000013,-0.3509898734965156
-0.10870000000000024,-0.3532534115762997
-0.10970000000000013,-0.3502825178465831
-0.11070000000000024,-0.3528289981863401
-0.11170000000000013,-0.3545266517461782
-0.11270000000000002,-0.35763901660588127
-0.11370000000000013,-0.3591951990357328
-0.11470000000000002,-0.35735607434590827
-0.11570000000000014,-0.36046843920561134
-0.11670000000000003,-0.3614587371155169
-0.11770000000000014,-0.3637222751953009
-0.11870000000000003,-0.36358080406531446
-0.11970000000000014,-0.36414668858526045
-0.12070000000000003,-0.365702871015112
-0.12170000000000014,-0.3675419957049365
-0.12270000000000003,-0.36909817813478807
-0.12370000000000014,-0.3700884760446936
-0.12470000000000003,-0.36810788022488256
-0.12570000000000014,-0.37136171621457215
-0.12670000000000003,-0.37362525429435617
-0.12770000000000015,-0.3747570233342482
-0.12870000000000004,-0.37588879237414025
-0.12970000000000015,-0.37390819655432916
-0.13070000000000004,-0.3750399655942212
-0.13170000000000015,-0.37857674384388385
-0.13270000000000004,-0.3799914551437488
-0.13370000000000015,-0.3806988107936814
-0.13470000000000004,-0.3787182149738703
-0.13570000000000015,-0.3818305798335734
-0.13670000000000004,-0.38197205096355985
-0.13770000000000016,-0.384518531303317
-0.13870000000000005,-0.38664059825311453
-0.13970000000000016,-0.3828208777434789
-0.14070000000000005,-0.38763089616302
-0.14170000000000016,-0.38763089616302
-0.14270000000000005,-0.3904603187627501
-0.14370000000000016,-0.3917335589326287
-0.14470000000000005,-0.38918707859287155
-0.14570000000000016,-0.39385562588242623
-0.14670000000000005,-0.3930067991025072
-0.14770000000000016,-0.3951288660523047
-0.14870000000000005,-0.3954118083122777
-0.14970000000000017,-0.3937141547524397
-0.15070000000000006,-0.3978168175220483
-0.15170000000000017,-0.3992315288219133
-0.15270000000000006,-0.4010706535117379
-0.15370000000000017,-0.4023438936816164
-0.15470000000000006,-0.3992315288219133
-0.15570000000000017,-0.4020609514216434
-0.15670000000000006,-0.40573920080129255
-0.15770000000000017,-0.40630508532123855
-0.15870000000000006,-0.40701244097117106
-0.15970000000000018,-0.40573920080129255
-0.16070000000000007,-0.4080027388810766
-0.16170000000000018,-0.4116809882607257
-0.16270000000000007,-0.4115395171307392
-0.16370000000000018,-0.4125298150406447
-0.16470000000000007,-0.41366158408053677
-0.16570000000000018,-0.41436893973046923
-0.16670000000000007,-0.4190374870200239
-0.16770000000000018,-0.4186130736300644
-0.16870000000000007,-0.41748130459017235
-0.16970000000000018,-0.4186130736300644
-0.17070000000000007,-0.4204521983198889
-0.17170000000000019,-0.4237060343095785
-0.17270000000000008,-0.4254036878694165
-0.1737000000000002,-0.4228572075296595
-0.17470000000000008,-0.4231401497896325
-0.1757000000000002,-0.4273842836892276
-0.17670000000000008,-0.4293648795090386
-0.1777000000000002,-0.4334675422786472
-0.17870000000000008,-0.4280916393391601
-0.1797000000000002,-0.4313454753288497
-0.18070000000000008,-0.4344578401885528
-0.1817000000000002,-0.43573108035843133
-0.18270000000000008,-0.4385605029581614
-0.1837000000000002,-0.4371457916582963
-0.1847000000000001,-0.43813608956820194
-0.1857000000000002,-0.4405410987779724
-0.1867000000000001,-0.44393640589764854
-0.1877000000000002,-0.44662435736739203
-0.1887000000000001,-0.444926703807554
-0.1897000000000002,-0.44619994397743257
-0.1907000000000001,-0.4494537799671222
-0.1917000000000001,-0.45383938499670373
-0.19269999999999998,-0.4542637983866633
-0.1937000000000001,-0.4549711540365957
-0.19469999999999998,-0.45596145194650134
-0.1957000000000001,-0.4570932209863934
-0.19669999999999999,-0.46232765279589394
-0.1977000000000001,-0.46444971974569155
-0.1987,-0.462610595055867
-0.1997000000000001,-0.46657178669548904
-0.2007,-0.4678450268653676
-0.2017000000000001,-0.4720891607649627
-0.2027,-0.47548446788463883
-0.2037000000000001,-0.4723721030249357
-0.2047,-0.4776065348344364
-0.2057000000000001,-0.47859683274434195
-0.2067,-0.4826994955139505
-0.2077000000000001,-0.4866606871535727
-0.2087,-0.4858118603736536
-0.2097000000000001,-0.4907633499231812
-0.2107,-0.49302688800296524
-0.2117000000000001,-0.4944415993028303
-0.2127,-0.502505453712061
-0.2137000000000001,-0.5020810403221014
-0.2147,-0.5057592897017505
-0.2157000000000001,-0.5129743173310622
-0.2167,-0.5139646152409678
-0.21770000000000012,-0.5194819893104415
-0.2187,-0.520189344960374
-0.21970000000000012,-0.5237261232100366
-0.2207,-0.5283946704995912
-0.22170000000000012,-0.5315070353592943
-0.2227,-0.5380147073386735
-0.22370000000000012,-0.538722062988606
-0.2247,-0.5429661968882011
-0.22570000000000012,-0.5491909266076073
-0.2267,-0.5523032914673103
-0.22770000000000012,-0.5585280211867165
-0.22870000000000001,-0.5640453952561902
-0.22970000000000013,-0.5648942220361092
-0.23070000000000002,-0.5735239609652859
-0.23170000000000013,-0.5790413350347595
-0.23270000000000002,-0.5839928245842871
-0.23370000000000013,-0.5888028430038282
-0.23470000000000002,-0.5923396212534908
-0.23570000000000013,-0.5994131777528161
-0.23670000000000002,-0.6062037919921682
-0.2376999999999999,-0.6125699928415609
-0.23870000000000002,-0.6176629535210749
-0.2396999999999999,-0.6216241451606972
-0.24070000000000003,-0.6284147594000492
-0.24169999999999991,-0.6395909786689831
-0.24270000000000003,-0.6444009970885242
-0.24369999999999992,-0.6507671979379168
-0.24470000000000003,-0.6562845720073905
-0.24569999999999992,-0.6630751862467427
-0.24670000000000003,-0.6731196364757845
-0.24769999999999992,-0.6813249620150017
-0.24870000000000003,-0.6875496917344079
-0.24969999999999992,-0.6950476616236926
-0.25070000000000003,-0.7029700449029368
-0.2516999999999999,-0.7138633219118975
-0.25270000000000004,-0.7219271763211282
-0.2536999999999999,-0.7312642709002375
-0.25470000000000004,-0.7380548851395896
-0.2556999999999999,-0.7472505085887123
-0.25670000000000004,-0.7577193722077137
-0.25769999999999993,-0.769037062606634
-0.25870000000000004,-0.7771009170158646
-0.25969999999999993,-0.7858721270750278
-0.26070000000000004,-0.7970483463439616
-0.26169999999999993,-0.809497805782774
-0.26270000000000004,-0.8213813807016404
-0.26369999999999993,-0.8293037639808845
-0.26470000000000005,-0.8413288100297374
-0.26569999999999994,-0.8533538560785902
-0.26670000000000005,-0.8689156803771056
-0.26769999999999994,-0.8792430728661204
-0.26870000000000005,-0.8915510611749462
-0.26969999999999994,-0.9023028670539204
-0.27070000000000005,-0.9168743934425302
-0.27169999999999994,-0.9313044487011536
-0.27270000000000005,-0.9448856771798579
-0.27369999999999994,-0.9580424922686028
-0.27470000000000006,-0.9686528270175907
-0.27569999999999995,-0.9832243534062003
-0.27670000000000006,-1.0023229559543785
-0.27769999999999995,-1.0166115400830154
-0.27870000000000006,-1.0293439417818007
-0.27969999999999995,-1.0456131217302487
-0.28070000000000006,-1.06174083054871
-0.28169999999999995,-1.0812638464868474
-0.28270000000000006,-1.0934303636656868
-0.28369999999999995,-1.1092751302241752
-0.28470000000000006,-1.1283737327723533
-0.28569999999999995,-1.1456332106307068
-0.28670000000000007,-1.1668538801286823
-0.28769999999999996,-1.1828401178171573
-0.28870000000000007,-1.1995337111555648
-0.28969999999999996,-1.2186323137037425
-0.29070000000000007,-1.2382968007718667
-0.29169999999999996,-1.2595174702698424
-0.29270000000000007,-1.2803137263778581
-0.29369999999999996,-1.2984220310161307
-0.2947000000000001,-1.3169547490443627
-0.29569999999999996,-1.3378924762823652
-0.2967000000000001,-1.3622255106400438
-0.29769999999999996,-1.3845779491779113
-0.2987000000000001,-1.4031106672061433
-0.29969999999999997,-1.426028990263957
-0.3007000000000001,-1.4500790823616625
-0.30169999999999997,-1.4755438857592333
-0.3027000000000001,-1.498179266557074
-0.30369999999999997,-1.5193999360550492
-0.3047000000000001,-1.546279450752485
-0.30569999999999997,-1.5717442541500557
-0.3067000000000001,-1.6000384801473564
-0.3077,-1.6226738609451972
-0.3087000000000001,-1.6481386643427678
-0.3097,-1.6750181790402037
-0.3107000000000001,-1.701897693737639
-0.3117,-1.7330213423346699
-0.3127000000000001,-1.7584861457322407
-0.3137,-1.7853656604296764
-0.3147000000000001,-1.815074597726842
-0.3157,-1.8447835350240078
-0.3167000000000001,-1.8773218949209036
-0.3177,-1.9070308322180693
-0.3187000000000001,-1.9367397695152353
-0.3197,-1.967863418112266
-0.3207000000000001,-2.0004017780091616
-0.3217,-2.0357695605057877
-0.3227000000000001,-2.0654784978029537
-0.3237,-2.0980168576998492
-0.3247000000000001,-2.13196992889661
-0.3257,-2.1687524226931014
-0.3267000000000001,-2.202705493889862
-0.3277,-2.238073276386488
-0.3287000000000001,-2.272026347583249
-0.3297,-2.30880884137974
-0.3307000000000001,-2.349835469075826
-0.3317,-2.386617962872317
-0.3327000000000001,-2.424815167968673
-0.3337,-2.4587682391654337
-0.3347000000000001,-2.49979486686152
-0.3357,-2.542236205857471
-0.3367000000000001,-2.581848122253692
-0.3377,-2.624289461249643
-0.3387000000000001,-2.662486666345999
-0.3397,-2.7035132940420854
-0.3407000000000001,-2.7501987669376318
-0.3417,-2.791225394633717
-0.3427000000000001,-2.8350814449295334
-0.3437,-2.8789374952253497
-0.3447000000000001,-2.9213788342213007
-0.3457,-2.972308441016442
-0.3467000000000001,-3.0147497800123935
-0.3477,-3.0628499642078046
-0.3487000000000001,-3.1081207258034858
-0.3497,-3.1548061986990317
-0.3507000000000001,-3.208565228093903
-0.3517,-3.2552507009894494
-0.3527000000000001,-3.3061803077845906
-0.3537,-3.355695203279867
-0.3547000000000001,-3.402380676175413
-0.3557,-3.4575544168701495
-0.35670000000000013,-3.509898734965156
-0.3577,-3.5650724756598926
-0.35870000000000013,-3.6174167937548987
-0.3597,-3.669761111849905
-0.36070000000000013,-3.7291789864442366
-0.3617,-3.784352727138973
-0.3626999999999999,-3.840941179133574
-0.3637,-3.896114919828311
-0.3646999999999999,-3.9541180831227782
-0.3657,-4.014950669016974
-0.3666999999999999,-4.074368543611305
-0.3677,-4.133786418205637
-0.3686999999999999,-4.197448426699564
-0.36970000000000003,-4.25828101259376
-0.3706999999999999,-4.3205283097878215
-0.37170000000000003,-4.382775606981883
-0.3726999999999999,-4.447852326775675
-0.37370000000000003,-4.511514335269602
-0.3746999999999999,-4.573761632463664
-0.37570000000000003,-4.6416677748571855
-0.3766999999999999,-4.709573917250707
-0.37770000000000004,-4.776065348344364
-0.3786999999999999,-4.839727356838291
-0.37970000000000004,-4.907633499231812
-0.3806999999999999,-4.979783775524929
-0.38170000000000004,-5.050519340518181
-0.38269999999999993,-5.1212549055114325
-0.38370000000000004,-5.190575759204819
-0.38469999999999993,-5.261311324198071
-0.38570000000000004,-5.334876311791054
-0.38669999999999993,-5.408441299384036
-0.38770000000000004,-5.480591575677152
-0.38869999999999993,-5.556985985869864
-0.38970000000000005,-5.629136262162981
-0.39069999999999994,-5.705530672355693
-0.39170000000000005,-5.781925082548405
-0.39269999999999994,-5.858319492741117
-0.39370000000000005,-5.937543325533559
-0.39469999999999994,-6.015352447026135
-0.39570000000000005,-6.094576279818578
-0.39669999999999994,-6.178044246510615
-0.39770000000000005,-6.2558533680031925
-0.39869999999999994,-6.336491912095499
-0.39970000000000006,-6.4199598787875365
-0.40069999999999995,-6.504842556779439
-0.40170000000000006,-6.592554657371071
-0.40269999999999995,-6.674607912763243
-0.40370000000000006,-6.759490590755146
-0.40469999999999995,-6.848617402646643
-0.40570000000000006,-6.934914791938409
-0.40669999999999995,-7.025456315129772
-0.40770000000000006,-7.1145831270212705
-0.40869999999999995,-7.2022952276129
-0.40970000000000006,-7.295666173403994
-0.41069999999999995,-7.390451830494952
-0.41170000000000007,-7.497969889284694
-0.41269999999999996,-7.587096701176192
-0.41370000000000007,-7.679052935667419
-0.41469999999999996,-7.776668015358106
-0.41570000000000007,-7.871453672449064
-0.41669999999999996,-7.970483463439617
-0.41770000000000007,-8.068098543130306
-0.41869999999999996,-8.162884200221262
-0.4197000000000001,-8.264743413811544
-0.42069999999999996,-8.369432050001556
-0.4217000000000001,-8.46846184099211
-0.42269999999999996,-8.570321054582392
-0.4237000000000001,-8.669350845572946
-0.42469999999999997,-8.772624770463093
-0.4257000000000001,-8.878728117952969
-0.42669999999999997,-8.983416754142983
-0.4277000000000001,-9.08952010163286
-0.42869999999999997,-9.195623449122737
-0.4297000000000001,-9.304556219212346
-0.43069999999999997,-9.416318411901685
-0.4317000000000001,-9.526665893291156
-0.4327,-9.641257508580225
-0.4337000000000001,-9.753019701269562
-0.4347,-9.8647818939589
-0.4357000000000001,-9.979373509247969
-0.4367,-10.095379835836901
-0.4377000000000001,-10.208556739826104
-0.4387,-10.323148355115173
-0.4397000000000001,-10.439154681704105
-0.4407,-10.559405142192633
-0.4417000000000001,-10.679655602681162
-0.4427,-10.79990606316969
-0.4437000000000001,-10.917327101058488
-0.4447,-11.041821695446613
-0.4457000000000001,-11.169145712434466
-0.4467,-11.295055018122452
-0.4477000000000001,-11.418134901210712
-0.4487,-11.539800072999105
-0.4497000000000001,-11.678441780385876
-0.4507,-11.808595219973462
-0.4517000000000001,-11.938748659561044
-0.4527,-12.070316810448494
-0.4537000000000001,-12.196226116136481
-0.4547,-12.33062368962366
-0.4557000000000001,-12.462191840511109
-0.4567,-12.599418836598016
-0.4577000000000001,-12.736645832684927
-0.4587,-12.871043406172104
-0.4597000000000001,-13.012514536158609
-0.4607,-13.158229800044706
-0.4617000000000001,-13.29404208483175
-0.4627,-13.439757348717848
-0.4637000000000001,-13.579813767404486
-0.4647,-13.726943742590452
-0.4657000000000001,-13.87548842907628
-0.4667,-14.019788981662511
-0.4677000000000001,-14.161260111649016
-0.4687,-14.316878354634172
-0.4697000000000001,-14.458349484620674
-0.4707,-14.642261953603128
-0.4717000000000001,-14.783733083589633
-0.4727,-14.939351326574789
-0.4737000000000001,-15.094969569559943
-0.4747,-15.250587812545096
-0.4757000000000001,-15.4203531685289
-0.4767,-15.575971411514052
-0.4777000000000001,-15.759883880496508
-0.4787,-15.91550212348166
-0.4797000000000001,-16.085267479465468
-0.4807,-16.25503283544927
-0.48170000000000013,-16.438945304431726
-0.4827,-16.59456354741688
-0.48370000000000013,-16.764328903400685
-0.4847,-16.94824137238314
-0.48570000000000013,-17.118006728366943
-0.4867,-17.28777208435075
-0.4876999999999999,-17.471684553333205
-0.4887,-17.641449909317007
-0.4896999999999999,-17.839509491298113
-0.4907,-18.02342196028057
-0.4916999999999999,-18.207334429263025
-0.4927,-18.40539401124413
-0.4936999999999999,-18.589306480226583
-0.49470000000000003,-18.78736606220769
-0.4956999999999999,-18.985425644188794
-0.49670000000000003,-19.1834852261699
-0.4976999999999999,-19.381544808151002
-0.49870000000000003,-19.579604390132108
-0.4996999999999999,-19.791811085111863
