Potential V vs RHE, Current mA cm-2
0.013299999999999867,-0.26384365742482935
0.012299999999999978,-1.6156003044458718
0.011299999999999866,-2.706342716641815
0.010299999999999976,-3.623075638954359
0.009299999999999864,-4.450681749375406
0.008299999999999974,-5.149549131508733
0.007299999999999862,-5.759289701750564
0.006299999999999972,-6.282732882700628
0.00529999999999986,-6.762320013354876
0.0042999999999999705,-7.199465805013171
0.0032999999999998586,-7.5474847847799715
0.0022999999999999687,-7.896918475846635
0.0012999999999998568,-8.246352166913299
0.00029999999999996696,-8.508073757388331
-0.000700000000000145,-8.769795347863363
-0.0017000000000000348,-9.031516938338395
-0.0027000000000001467,-9.293238528813426
-0.0037000000000000366,-9.467248018696827
-0.0047000000000001485,-9.641257508580225
-0.005700000000000038,-9.81668170976349
-0.00670000000000015,-9.946835149351072
-0.00770000000000004,-10.120844639234473
-0.008700000000000152,-10.208556739826104
-0.009700000000000042,-10.382566229709504
-0.010700000000000154,-10.557990430892769
-0.011700000000000044,-10.644287820184536
-0.012700000000000156,-10.775855971071984
-0.013700000000000045,-10.863568071663616
-0.014700000000000157,-10.993721511251199
-0.015700000000000047,-11.081433611842833
-0.01670000000000016,-11.211587051430415
-0.01770000000000005,-11.299299152022046
-0.01870000000000016,-11.385596541313816
-0.01970000000000005,-11.517164692201263
-0.020700000000000163,-11.604876792792895
-0.021700000000000053,-11.691174182084664
-0.022700000000000164,-11.778886282676295
-0.023700000000000054,-11.86659838326793
-0.024700000000000166,-11.952895772559694
-0.025700000000000056,-12.040607873151327
-0.026700000000000168,-12.12831997374296
-0.027700000000000058,-12.214617363034726
-0.02870000000000017,-12.302329463626359
-0.02970000000000006,-12.346185513922174
-0.03070000000000017,-12.432482903213943
-0.03170000000000006,-12.476338953509758
-0.03270000000000017,-12.56405105410139
-0.03370000000000006,-12.607907104397206
-0.034700000000000175,-12.694204493688973
-0.035700000000000065,-12.73806054398479
-0.03670000000000018,-12.781916594280606
-0.03770000000000007,-12.869628694872238
-0.03870000000000018,-12.913484745168056
-0.03970000000000007,-12.955926084164007
-0.04070000000000018,-12.99978213445982
-0.04170000000000007,-13.043638184755638
-0.04270000000000018,-13.087494235051453
-0.04370000000000007,-13.13135028534727
-0.044700000000000184,-13.217647674639037
-0.045700000000000074,-13.217647674639037
-0.046700000000000186,-13.30535977523067
-0.047700000000000076,-13.349215825526485
-0.04870000000000019,-13.3930718758223
-0.04970000000000008,-13.436927926118118
-0.05070000000000019,-13.47936926511407
-0.05170000000000008,-13.523225315409885
-0.05270000000000019,-13.523225315409885
-0.05370000000000008,-13.567081365705702
-0.05470000000000019,-13.610937416001518
-0.05570000000000008,-13.654793466297335
-0.056700000000000195,-13.654793466297335
-0.057700000000000085,-13.698649516593148
-0.058700000000000196,-13.741090855589102
-0.059700000000000086,-13.784946905884919
-0.0607000000000002,-13.828802956180734
-0.06170000000000009,-13.872659006476551
-0.0627000000000002,-13.916515056772363
-0.06370000000000009,-13.916515056772363
-0.0647000000000002,-13.960371107068182
-0.06570000000000009,-13.960371107068182
-0.0667000000000002,-14.002812446064135
-0.0677000000000001,-14.046668496359947
-0.0687000000000002,-14.046668496359947
-0.0697000000000001,-14.046668496359947
-0.07070000000000021,-14.090524546655764
-0.0717000000000001,-14.090524546655764
-0.07270000000000021,-14.13438059695158
-0.0737000000000001,-14.13438059695158
-0.07470000000000021,-14.175407224647667
-0.0757000000000001,-14.217848563643619
-0.07670000000000021,-14.217848563643619
-0.0777000000000001,-14.26028990263957
-0.07870000000000021,-14.26028990263957
-0.0797000000000001,-14.30273124163552
-0.08070000000000022,-14.30273124163552
-0.0817000000000001,-14.345172580631472
-0.08270000000000022,-14.30273124163552
-0.08370000000000011,-14.345172580631472
-0.08470000000000022,-14.345172580631472
-0.08570000000000011,-14.401761032626075
-0.08670000000000022,-14.401761032626075
-0.08770000000000011,-14.444202371622024
-0.08870000000000022,-14.444202371622024
-0.08970000000000011,-14.486643710617974
-0.09070000000000022,-14.486643710617974
-0.09170000000000011,-14.486643710617974
-0.09270000000000023,-14.529085049613924
-0.09370000000000012,-14.529085049613924
-0.09470000000000023,-14.57152638860988
-0.09570000000000012,-14.57152638860988
-0.09670000000000023,-14.61396772760583
-0.09770000000000012,-14.57152638860988
-0.09870000000000023,-14.57152638860988
-0.09970000000000012,-14.61396772760583
-0.10070000000000023,-14.65640906660178
-0.10170000000000012,-14.61396772760583
-0.10270000000000024,-14.65640906660178
-0.10370000000000013,-14.65640906660178
-0.10470000000000024,-14.65640906660178
-0.10570000000000013,-14.69885040559773
-0.10670000000000024,-14.69885040559773
-0.10770000000000013,-14.69885040559773
-0.10870000000000024,-14.741291744593681
-0.10970000000000013,-14.741291744593681
-0.11070000000000024,-14.741291744593681
-0.11170000000000013,-14.783733083589633
-0.11270000000000002,-14.783733083589633
-0.11370000000000013,-14.783733083589633
-0.11470000000000002,-14.826174422585586
-0.11570000000000014,-14.868615761581536
-0.11670000000000003,-14.868615761581536
-0.11770000000000014,-14.925204213576137
-0.11870000000000003,-14.868615761581536
-0.11970000000000014,-14.925204213576137
-0.12070000000000003,-14.925204213576137
-0.12170000000000014,-14.967645552572087
-0.12270000000000003,-14.967645552572087
-0.12370000000000014,-15.01008689156804
-0.12470000000000003,-15.01008689156804
-0.12570000000000014,-15.05252823056399
-0.12670000000000003,-15.05252823056399
-0.12770000000000015,-15.05252823056399
-0.12870000000000004,-15.094969569559943
-0.12970000000000015,-15.137410908555893
-0.13070000000000004,-15.137410908555893
-0.13170000000000015,-15.137410908555893
-0.13270000000000004,-15.179852247551842
-0.13370000000000015,-15.222293586547794
-0.13470000000000004,-15.222293586547794
-0.13570000000000015,-15.264734925543747
-0.13670000000000004,-15.264734925543747
-0.13770000000000016,-15.307176264539699
-0.13870000000000005,-15.349617603535648
-0.13970000000000016,-15.349617603535648
-0.14070000000000005,-15.349617603535648
-0.14170000000000016,-15.349617603535648
-0.14270000000000005,-15.3920589425316
-0.14370000000000016,-15.3920589425316
-0.14470000000000005,-15.448647394526201
-0.14570000000000016,-15.491088733522153
-0.14670000000000005,-15.491088733522153
-0.14770000000000016,-15.533530072518102
-0.14870000000000005,-15.575971411514052
-0.14970000000000017,-15.575971411514052
-0.15070000000000006,-15.618412750510005
-0.15170000000000017,-15.618412750510005
-0.15270000000000006,-15.618412750510005
-0.15370000000000017,-15.660854089505953
-0.15470000000000006,-15.660854089505953
-0.15570000000000017,-15.70329542850191
-0.15670000000000006,-15.74573676749786
-0.15770000000000017,-15.70329542850191
-0.15870000000000006,-15.74573676749786
-0.15970000000000018,-15.78817810649381
-0.16070000000000007,-15.87306078448571
-0.16170000000000018,-15.87306078448571
-0.16270000000000007,-15.91550212348166
-0.16370000000000018,-15.91550212348166
-0.16470000000000007,-15.972090575476265
-0.16570000000000018,-15.972090575476265
-0.16670000000000007,-16.014531914472215
-0.16770000000000018,-16.056973253468165
-0.16870000000000007,-16.099414592464115
-0.16970000000000018,-16.099414592464115
-0.17070000000000007,-16.141855931460068
-0.17170000000000019,-16.184297270456018
-0.17270000000000008,-16.22673860945197
-0.1737000000000002,-16.22673860945197
-0.17470000000000008,-16.269179948447924
-0.1757000000000002,-16.269179948447924
-0.17670000000000008,-16.311621287443874
-0.1777000000000002,-16.354062626439823
-0.17870000000000008,-16.396503965435777
-0.1797000000000002,-16.438945304431726
-0.18070000000000008,-16.438945304431726
-0.1817000000000002,-16.438945304431726
-0.18270000000000008,-16.438945304431726
-0.1837000000000002,-16.438945304431726
-0.1847000000000001,-16.438945304431726
-0.1857000000000002,-16.438945304431726
-0.1867000000000001,-16.438945304431726
-0.1877000000000002,-16.495533756426326
-0.1887000000000001,-16.495533756426326
-0.1897000000000002,-16.53797509542228
-0.1907000000000001,-16.53797509542228
-0.1917000000000001,-16.53797509542228
-0.19269999999999998,-16.580416434418233
-0.1937000000000001,-16.580416434418233
-0.19469999999999998,-16.622857773414182
-0.1957000000000001,-16.665299112410132
-0.19669999999999999,-16.750181790402035
-0.1977000000000001,-16.792623129397985
-0.1987,-16.835064468393938
-0.1997000000000001,-16.877505807389888
-0.2007,-16.877505807389888
-0.2017000000000001,-16.962388485381787
-0.2027,-16.962388485381787
-0.2037000000000001,-17.061418276372343
-0.2047,-17.146300954364243
-0.2057000000000001,-17.188742293360193
-0.2067,-17.2736249713521
-0.2077000000000001,-17.358507649344002
-0.2087,-17.40094898833995
-0.2097000000000001,-17.48583166633185
-0.2107,-17.542420118326454
-0.2117000000000001,-17.627302796318357
-0.2127,-17.669744135314307
-0.2137000000000001,-17.75462681330621
-0.2147,-17.839509491298113
-0.2157000000000001,-17.924392169290012
-0.2167,-17.966833508285966
-0.21770000000000012,-17.966833508285966
-0.2187,-18.06586329927652
-0.21970000000000012,-18.15074597726842
-0.2207,-18.23562865526032
-0.22170000000000012,-18.27806999425627
-0.2227,-18.320511333252224
-0.22370000000000012,-18.362952672248177
-0.2247,-18.362952672248177
-0.22570000000000012,-18.40539401124413
-0.2267,-18.53271802823198
-0.22770000000000012,-18.674189158218486
-0.22870000000000001,-18.716630497214435
-0.22970000000000013,-18.80151317520634
-0.23070000000000002,-18.80151317520634
-0.23170000000000013,-18.843954514202288
-0.23270000000000002,-18.88639585319824
-0.23370000000000013,-18.97127853119014
-0.23470000000000002,-19.01371987018609
-0.23570000000000013,-19.155191000172596
-0.23670000000000002,-19.197632339168546
-0.2376999999999999,-19.2400736781645
-0.23870000000000002,-19.28251501716045
-0.2396999999999999,-19.3249563561564
-0.24070000000000003,-19.409839034148305
-0.24169999999999991,-19.49472171214021
-0.24270000000000003,-19.636192842126707
-0.24369999999999992,-19.636192842126707
-0.24470000000000003,-19.678634181122664
-0.24569999999999992,-19.721075520118614
-0.24670000000000003,-19.763516859114564
-0.24769999999999992,-19.805958198110513
-0.24870000000000003,-19.848399537106463
-0.24969999999999992,-19.93328221509837
-0.25070000000000003,-19.97572355409432
-0.2516999999999999,-19.97572355409432
-0.25270000000000004,-20.01816489309027
-0.2536999999999999,-20.06060623208622
-0.25470000000000004,-20.10304757108217
-0.2556999999999999,-20.10304757108217
-0.25670000000000004,-20.159636023076775
-0.25769999999999993,-20.202077362072725
-0.25870000000000004,-20.286960040064624
-0.25969999999999993,-20.329401379060574
-0.26070000000000004,-20.329401379060574
-0.26169999999999993,-20.371842718056527
-0.26270000000000004,-20.329401379060574
-0.26369999999999993,-20.329401379060574
-0.26470000000000005,-20.371842718056527
-0.26569999999999994,-20.456725396048434
-0.26670000000000005,-20.499166735044383
-0.26769999999999994,-20.584049413036283
-0.26870000000000005,-20.584049413036283
-0.26969999999999994,-20.626490752032236
-0.27070000000000005,-20.626490752032236
-0.27169999999999994,-20.541608074040333
-0.27270000000000005,-20.499166735044383
-0.27369999999999994,-20.414284057052477
-0.27470000000000006,-20.456725396048434
-0.27569999999999995,-20.499166735044383
-0.27670000000000006,-20.499166735044383
-0.27769999999999995,-20.541608074040333
-0.27870000000000006,-20.541608074040333
-0.27969999999999995,-20.584049413036283
-0.28070000000000006,-20.584049413036283
-0.28169999999999995,-20.584049413036283
-0.28270000000000006,-20.626490752032236
-0.28369999999999995,-20.626490752032236
-0.28470000000000006,-20.683079204026836
-0.28569999999999995,-20.683079204026836
-0.28670000000000007,-20.72552054302279
-0.28769999999999996,-20.72552054302279
-0.28870000000000007,-20.72552054302279
-0.28969999999999996,-20.683079204026836
-0.29070000000000007,-20.683079204026836
-0.29169999999999996,-20.683079204026836
-0.29270000000000007,-20.626490752032236
-0.29369999999999996,-20.584049413036283
-0.2947000000000001,-20.541608074040333
-0.29569999999999996,-20.499166735044383
-0.2967000000000001,-20.456725396048434
-0.29769999999999996,-20.456725396048434
-0.2987000000000001,-20.414284057052477
-0.29969999999999997,-20.371842718056527
-0.3007000000000001,-20.371842718056527
-0.30169999999999997,-20.286960040064624
-0.3027000000000001,-20.286960040064624
-0.30369999999999997,-20.202077362072725
-0.3047000000000001,-20.202077362072725
-0.30569999999999997,-20.10304757108217
-0.3067000000000001,-20.10304757108217
-0.3077,-20.01816489309027
-0.3087000000000001,-19.97572355409432
-0.3097,-19.93328221509837
-0.3107000000000001,-19.890840876102416
-0.3117,-19.890840876102416
-0.3127000000000001,-19.848399537106463
-0.3137,-19.805958198110513
-0.3147000000000001,-19.763516859114564
-0.3157,-19.721075520118614
-0.3167000000000001,-19.721075520118614
-0.3177,-19.678634181122664
-0.3187000000000001,-19.636192842126707
-0.3197,-19.636192842126707
-0.3207000000000001,-19.579604390132108
-0.3217,-19.579604390132108
-0.3227000000000001,-19.537163051136158
-0.3237,-19.537163051136158
-0.3247000000000001,-19.537163051136158
-0.3257,-19.49472171214021
-0.3267000000000001,-19.49472171214021
-0.3277,-19.49472171214021
-0.3287000000000001,-19.49472171214021
-0.3297,-19.537163051136158
-0.3307000000000001,-19.537163051136158
-0.3317,-19.537163051136158
-0.3327000000000001,-19.579604390132108
-0.3337,-19.579604390132108
-0.3347000000000001,-19.636192842126707
-0.3357,-19.678634181122664
-0.3367000000000001,-19.678634181122664
-0.3377,-19.721075520118614
-0.3387000000000001,-19.721075520118614
-0.3397,-19.805958198110513
-0.3407000000000001,-19.848399537106463
-0.3417,-19.890840876102416
-0.3427000000000001,-19.97572355409432
-0.3437,-20.01816489309027
-0.3447000000000001,-20.10304757108217
-0.3457,-20.202077362072725
-0.3467000000000001,-20.286960040064624
-0.3477,-20.371842718056527
-0.3487000000000001,-20.456725396048434
-0.3497,-20.541608074040333
-0.3507000000000001,-20.626490752032236
-0.3517,-20.76796188201874
-0.3527000000000001,-20.85284456001064
-0.3537,-20.980168576998494
-0.3547000000000001,-21.065051254990397
-0.3557,-21.248963723972853
-0.35670000000000013,-21.376287740960702
-0.3577,-21.503611757948562
-0.35870000000000013,-21.67337711393236
-0.3597,-21.772406904922917
-0.36070000000000013,-21.94217226090672
-0.3617,-22.15437895588647
-0.3626999999999999,-22.33829142486893
-0.3637,-22.508056780852733
-0.3646999999999999,-22.67782213683654
-0.3657,-22.861734605818995
-0.3666999999999999,-23.073941300798747
-0.3677,-23.24370665678255
-0.3686999999999999,-23.427619125765005
-0.36970000000000003,-23.682267159740714
-0.3706999999999999,-23.908620967719123
-0.37170000000000003,-24.120827662698876
-0.3726999999999999,-24.389622809673234
-0.37370000000000003,-24.601829504652986
-0.3746999999999999,-24.870624651627345
-0.37570000000000003,-25.12527268560305
-0.3766999999999999,-25.39406783257741
-0.37770000000000004,-25.73359854454502
-0.3786999999999999,-26.002393691519377
-0.37970000000000004,-26.29948306449103
-0.3806999999999999,-26.61071955046134
-0.38170000000000004,-26.907808923433
-0.38269999999999993,-27.219045409403304
-0.38370000000000004,-27.530281895373616
-0.38469999999999993,-27.827371268345274
-0.38570000000000004,-28.13860775431558
-0.38669999999999993,-27.38881076538711
-0.38570000000000004,-25.0828313466071
-0.38469999999999993,-23.300295108777156
-0.38370000000000004,-21.899730921910766
-0.38269999999999993,-20.683079204026836
-0.38170000000000004,-19.636192842126707
-0.3806999999999999,-18.759071836210385
-0.37970000000000004,-17.924392169290012
-0.3786999999999999,-17.188742293360193
-0.37770000000000004,-16.53797509542228
-0.3766999999999999,-15.87306078448571
-0.37570000000000003,-15.307176264539699
-0.3746999999999999,-14.741291744593681
-0.37370000000000003,-14.217848563643619
-0.3726999999999999,-13.698649516593148
-0.37170000000000003,-13.175206335643086
-0.3706999999999999,-12.694204493688973
-0.36970000000000003,-12.214617363034726
-0.3686999999999999,-11.778886282676295
-0.3677,-11.343155202317865
-0.3666999999999999,-10.949865460955383
-0.3657,-10.514134380596953
-0.3646999999999999,-10.120844639234473
-0.3637,-9.728969609171857
-0.3626999999999999,-9.379535918105192
-0.3617,-8.987660888042578
-0.36070000000000013,-8.638227196975913
-0.3597,-8.288793505909249
-0.35870000000000013,-7.896918475846635
-0.3577,-7.591340835075788
-0.35670000000000013,-7.243321855308987
-0.3557,-6.93774421453814
-0.3547000000000001,-6.632166573767292
-0.3537,-6.282732882700628
-0.3527000000000001,-5.977155241929781
-0.3517,-5.672992312458796
-0.3507000000000001,-5.411270721983764
-0.3497,-5.105693081212917
-0.3487000000000001,-4.800115440442069
-0.3477,-4.538393849967037
-0.3467000000000001,-4.3205283097878215
-0.3457,-4.014950669016974
-0.3447000000000001,-3.7093730282461257
-0.3437,-3.4915074880669104
-0.3427000000000001,-3.2297858975918787
-0.3417,-2.968064307116847
-0.3407000000000001,-2.7501987669376318
-0.3397,-2.4884771764625997
-0.3387000000000001,-2.3144676865791998
-0.3377,-2.052746096104168
-0.3367000000000001,-1.8334658446250875
-0.3357,-1.6594563547416883
-0.3347000000000001,-1.4415908145624723
-0.3337,-1.2234423321232837
-0.3327000000000001,-1.0054353208140816
-0.3317,-0.7872868383748929
-0.3307000000000001,-0.6564260431373771
-0.3297,-0.4384190318281749
-0.3287000000000001,-0.2202705493889862
-0.3277,-0.04582249900262853
-0.3267000000000001,0.12863969849672777
-0.3257,0.3031726315610774
-0.3247000000000001,0.43403342679859325
-0.3237,0.6084673300719523
-0.3227000000000001,0.7829012333453113
-0.3217,0.9137620285828272
-0.3207000000000001,1.0446228238203432
-0.3197,1.219056727093702
-0.3187000000000001,1.349917522331218
-0.3177,1.4812027309586933
-0.3167000000000001,1.655212220842093
-0.3157,1.7867803717295414
-0.3147000000000001,1.9607898616129409
-0.3137,2.048501962204573
-0.3127000000000001,2.2225114520879723
-0.3117,2.352664891675556
-0.3107000000000001,2.4403769922671885
-0.3097,2.5705304318547717
-0.3087000000000001,2.70209858274222
-0.3077,2.8322520223298033
-0.3067000000000001,2.919964122921436
-0.30569999999999997,3.0515322738088844
-0.3047000000000001,3.1378296631006513
-0.30369999999999997,3.2693978139880997
-0.3027000000000001,3.355695203279867
-0.30169999999999997,3.4872633541673155
-0.3007000000000001,3.6174167937548987
-0.29969999999999997,3.7051288943465317
-0.2987000000000001,3.7928409949381634
-0.29769999999999996,3.8791383842299307
-0.2967000000000001,4.01070653511738
-0.29569999999999996,4.054562585413195
-0.2947000000000001,4.184716025000778
-0.29369999999999996,4.2285720752965945
-0.29270000000000007,4.316284175888227
-0.29169999999999996,4.44643761547581
-0.29070000000000007,4.490293665771627
-0.28969999999999996,4.578005766363259
-0.28870000000000007,4.664303155655026
-0.28769999999999996,4.708159205950842
-0.28670000000000007,4.839727356838291
-0.28569999999999995,4.883583407134107
-0.28470000000000006,4.9698807964258735
-0.28369999999999995,5.057592897017507
-0.28270000000000006,5.101448947313322
-0.28169999999999995,5.18774633660509
-0.28070000000000006,5.231602386900906
-0.27969999999999995,5.319314487492538
-0.27870000000000006,5.405611876784305
-0.27769999999999995,5.405611876784305
-0.27670000000000006,5.537180027671754
-0.27569999999999995,5.537180027671754
-0.27470000000000006,5.624892128263387
-0.27369999999999994,5.667333467259336
-0.27270000000000005,5.75504556785097
-0.27169999999999994,5.798901618146785
-0.27070000000000005,5.886613718738418
-0.26969999999999994,5.9729111080301855
-0.26870000000000005,6.016767158326001
