Sept. 7, 2024   04:06:55
Cyclic Voltammetry
File: c:/users/guazh/data/20240903_batch_252_500/2024-09-03-exp285\exp285-2024-09-07t04_01_26-arkoh\exp285_cv_sr_50mvs_efin_-1400mv.bin
Data Source:  Experiment
Instrument Model:  CHI760E
Header: CV ran at 50 mVs
Note: 

Init E (V) = -1
High E (V) = -1
Low E (V) = -1.4
Final E (V) = -1
Init P/N = N
Scan Rate (V/s) = 0.05
Segment = 3
Sample Interval (V) = 0.001
Quiet Time (sec) = 2
Sensitivity (A/V) = 0.01
Comp R (ohm) = 1.8

Results:

Channel 1:
Segment 1:

Segment 2:

Segment 3:

Potential/V, Current/A

-1.000, -8.504e-7
-1.001, 2.333e-5
-1.002, 3.171e-5
-1.003, 3.715e-5
-1.004, 4.148e-5
-1.005, 4.392e-5
-1.006, 4.693e-5
-1.007, 5.005e-5
-1.008, 5.245e-5
-1.009, 5.466e-5
-1.010, 5.678e-5
-1.011, 5.868e-5
-1.012, 6.031e-5
-1.013, 6.173e-5
-1.014, 6.354e-5
-1.015, 6.513e-5
-1.016, 6.618e-5
-1.017, 6.761e-5
-1.018, 6.883e-5
-1.019, 6.916e-5
-1.020, 6.966e-5
-1.021, 7.129e-5
-1.022, 7.306e-5
-1.023, 7.466e-5
-1.024, 7.515e-5
-1.025, 7.666e-5
-1.026, 7.730e-5
-1.027, 7.760e-5
-1.028, 7.867e-5
-1.029, 7.938e-5
-1.030, 8.024e-5
-1.031, 8.105e-5
-1.032, 8.145e-5
-1.033, 8.119e-5
-1.034, 8.116e-5
-1.035, 8.262e-5
-1.036, 8.404e-5
-1.037, 8.503e-5
-1.038, 8.764e-5
-1.039, 8.723e-5
-1.040, 8.725e-5
-1.041, 8.740e-5
-1.042, 8.784e-5
-1.043, 8.862e-5
-1.044, 8.928e-5
-1.045, 8.954e-5
-1.046, 8.994e-5
-1.047, 9.054e-5
-1.048, 9.038e-5
-1.049, 9.040e-5
-1.050, 9.132e-5
-1.051, 9.175e-5
-1.052, 9.254e-5
-1.053, 9.259e-5
-1.054, 9.401e-5
-1.055, 9.405e-5
-1.056, 9.409e-5
-1.057, 9.405e-5
-1.058, 9.498e-5
-1.059, 9.514e-5
-1.060, 9.542e-5
-1.061, 9.537e-5
-1.062, 9.469e-5
-1.063, 9.348e-5
-1.064, 9.516e-5
-1.065, 9.632e-5
-1.066, 9.770e-5
-1.067, 9.856e-5
-1.068, 9.776e-5
-1.069, 9.849e-5
-1.070, 9.812e-5
-1.071, 9.821e-5
-1.072, 9.806e-5
-1.073, 9.848e-5
-1.074, 9.882e-5
-1.075, 9.897e-5
-1.076, 9.901e-5
-1.077, 9.863e-5
-1.078, 9.668e-5
-1.079, 9.775e-5
-1.080, 9.886e-5
-1.081, 1.000e-4
-1.082, 1.013e-4
-1.083, 1.001e-4
-1.084, 1.006e-4
-1.085, 1.001e-4
-1.086, 9.987e-5
-1.087, 1.002e-4
-1.088, 1.003e-4
-1.089, 1.002e-4
-1.090, 1.007e-4
-1.091, 1.001e-4
-1.092, 9.891e-5
-1.093, 9.857e-5
-1.094, 9.986e-5
-1.095, 1.009e-4
-1.096, 1.005e-4
-1.097, 9.990e-5
-1.098, 1.011e-4
-1.099, 1.008e-4
-1.100, 1.007e-4
-1.101, 1.003e-4
-1.102, 1.003e-4
-1.103, 1.007e-4
-1.104, 1.005e-4
-1.105, 1.003e-4
-1.106, 1.002e-4
-1.107, 9.807e-5
-1.108, 9.883e-5
-1.109, 9.991e-5
-1.110, 1.006e-4
-1.111, 9.998e-5
-1.112, 9.985e-5
-1.113, 1.003e-4
-1.114, 1.003e-4
-1.115, 9.981e-5
-1.116, 9.976e-5
-1.117, 9.964e-5
-1.118, 9.914e-5
-1.119, 9.981e-5
-1.120, 9.891e-5
-1.121, 9.707e-5
-1.122, 9.771e-5
-1.123, 9.861e-5
-1.124, 9.941e-5
-1.125, 9.985e-5
-1.126, 1.000e-4
-1.127, 9.967e-5
-1.128, 9.915e-5
-1.129, 9.908e-5
-1.130, 9.905e-5
-1.131, 9.860e-5
-1.132, 9.870e-5
-1.133, 9.867e-5
-1.134, 9.859e-5
-1.135, 9.858e-5
-1.136, 9.774e-5
-1.137, 9.756e-5
-1.138, 9.783e-5
-1.139, 9.775e-5
-1.140, 9.877e-5
-1.141, 9.808e-5
-1.142, 9.815e-5
-1.143, 9.836e-5
-1.144, 9.815e-5
-1.145, 9.815e-5
-1.146, 9.792e-5
-1.147, 9.787e-5
-1.148, 9.810e-5
-1.149, 9.737e-5
-1.150, 9.706e-5
-1.151, 9.769e-5
-1.152, 9.771e-5
-1.153, 9.756e-5
-1.154, 9.877e-5
-1.155, 9.833e-5
-1.156, 9.819e-5
-1.157, 9.818e-5
-1.158, 9.826e-5
-1.159, 9.882e-5
-1.160, 9.806e-5
-1.161, 9.850e-5
-1.162, 9.831e-5
-1.163, 9.679e-5
-1.164, 9.678e-5
-1.165, 9.795e-5
-1.166, 9.920e-5
-1.167, 9.998e-5
-1.168, 9.901e-5
-1.169, 9.953e-5
-1.170, 9.928e-5
-1.171, 9.914e-5
-1.172, 9.956e-5
-1.173, 9.944e-5
-1.174, 9.967e-5
-1.175, 9.990e-5
-1.176, 1.001e-4
-1.177, 9.952e-5
-1.178, 9.840e-5
-1.179, 9.987e-5
-1.180, 1.005e-4
-1.181, 1.003e-4
-1.182, 1.006e-4
-1.183, 1.013e-4
-1.184, 1.010e-4
-1.185, 1.012e-4
-1.186, 1.013e-4
-1.187, 1.013e-4
-1.188, 1.018e-4
-1.189, 1.018e-4
-1.190, 1.017e-4
-1.191, 1.014e-4
-1.192, 1.000e-4
-1.193, 1.015e-4
-1.194, 1.027e-4
-1.195, 1.031e-4
-1.196, 1.027e-4
-1.197, 1.033e-4
-1.198, 1.034e-4
-1.199, 1.037e-4
-1.200, 1.034e-4
-1.201, 1.038e-4
-1.202, 1.039e-4
-1.203, 1.041e-4
-1.204, 1.045e-4
-1.205, 1.037e-4
-1.206, 1.031e-4
-1.207, 1.045e-4
-1.208, 1.053e-4
-1.209, 1.053e-4
-1.210, 1.054e-4
-1.211, 1.060e-4
-1.212, 1.062e-4
-1.213, 1.062e-4
-1.214, 1.065e-4
-1.215, 1.070e-4
-1.216, 1.067e-4
-1.217, 1.068e-4
-1.218, 1.076e-4
-1.219, 1.065e-4
-1.220, 1.057e-4
-1.221, 1.070e-4
-1.222, 1.081e-4
-1.223, 1.098e-4
-1.224, 1.088e-4
-1.225, 1.095e-4
-1.226, 1.098e-4
-1.227, 1.095e-4
-1.228, 1.103e-4
-1.229, 1.109e-4
-1.230, 1.106e-4
-1.231, 1.109e-4
-1.232, 1.111e-4
-1.233, 1.111e-4
-1.234, 1.101e-4
-1.235, 1.106e-4
-1.236, 1.120e-4
-1.237, 1.127e-4
-1.238, 1.129e-4
-1.239, 1.132e-4
-1.240, 1.140e-4
-1.241, 1.139e-4
-1.242, 1.142e-4
-1.243, 1.147e-4
-1.244, 1.154e-4
-1.245, 1.152e-4
-1.246, 1.157e-4
-1.247, 1.162e-4
-1.248, 1.163e-4
-1.249, 1.160e-4
-1.250, 1.165e-4
-1.251, 1.173e-4
-1.252, 1.181e-4
-1.253, 1.184e-4
-1.254, 1.200e-4
-1.255, 1.205e-4
-1.256, 1.204e-4
-1.257, 1.211e-4
-1.258, 1.219e-4
-1.259, 1.224e-4
-1.260, 1.230e-4
-1.261, 1.234e-4
-1.262, 1.238e-4
-1.263, 1.237e-4
-1.264, 1.249e-4
-1.265, 1.263e-4
-1.266, 1.273e-4
-1.267, 1.275e-4
-1.268, 1.298e-4
-1.269, 1.305e-4
-1.270, 1.312e-4
-1.271, 1.323e-4
-1.272, 1.332e-4
-1.273, 1.344e-4
-1.274, 1.355e-4
-1.275, 1.367e-4
-1.276, 1.380e-4
-1.277, 1.378e-4
-1.278, 1.382e-4
-1.279, 1.414e-4
-1.280, 1.445e-4
-1.281, 1.459e-4
-1.282, 1.468e-4
-1.283, 1.495e-4
-1.284, 1.514e-4
-1.285, 1.527e-4
-1.286, 1.546e-4
-1.287, 1.571e-4
-1.288, 1.593e-4
-1.289, 1.616e-4
-1.290, 1.640e-4
-1.291, 1.653e-4
-1.292, 1.650e-4
-1.293, 1.697e-4
-1.294, 1.737e-4
-1.295, 1.780e-4
-1.296, 1.817e-4
-1.297, 1.847e-4
-1.298, 1.877e-4
-1.299, 1.912e-4
-1.300, 1.951e-4
-1.301, 1.988e-4
-1.302, 2.027e-4
-1.303, 2.072e-4
-1.304, 2.117e-4
-1.305, 2.163e-4
-1.306, 2.205e-4
-1.307, 2.247e-4
-1.308, 2.311e-4
-1.309, 2.369e-4
-1.310, 2.421e-4
-1.311, 2.511e-4
-1.312, 2.571e-4
-1.313, 2.639e-4
-1.314, 2.715e-4
-1.315, 2.792e-4
-1.316, 2.877e-4
-1.317, 2.961e-4
-1.318, 3.061e-4
-1.319, 3.152e-4
-1.320, 3.207e-4
-1.321, 3.334e-4
-1.322, 3.466e-4
-1.323, 3.580e-4
-1.324, 3.728e-4
-1.325, 3.864e-4
-1.326, 4.002e-4
-1.327, 4.153e-4
-1.328, 4.313e-4
-1.329, 4.485e-4
-1.330, 4.665e-4
-1.331, 4.838e-4
-1.332, 5.036e-4
-1.333, 5.227e-4
-1.334, 5.419e-4
-1.335, 5.652e-4
-1.336, 5.876e-4
-1.337, 6.100e-4
-1.338, 6.412e-4
-1.339, 6.672e-4
-1.340, 6.945e-4
-1.341, 7.224e-4
-1.342, 7.530e-4
-1.343, 7.844e-4
-1.344, 8.146e-4
-1.345, 8.480e-4
-1.346, 8.769e-4
-1.347, 8.937e-4
-1.348, 9.291e-4
-1.349, 9.640e-4
-1.350, 9.998e-4
-1.351, 1.038e-3
-1.352, 1.078e-3
-1.353, 1.115e-3
-1.354, 1.154e-3
-1.355, 1.196e-3
-1.356, 1.234e-3
-1.357, 1.273e-3
-1.358, 1.312e-3
-1.359, 1.354e-3
-1.360, 1.391e-3
-1.361, 1.416e-3
-1.362, 1.457e-3
-1.363, 1.501e-3
-1.364, 1.542e-3
-1.365, 1.602e-3
-1.366, 1.648e-3
-1.367, 1.698e-3
-1.368, 1.748e-3
-1.369, 1.796e-3
-1.370, 1.847e-3
-1.371, 1.891e-3
-1.372, 1.945e-3
-1.373, 1.990e-3
-1.374, 2.018e-3
-1.375, 2.045e-3
-1.376, 2.101e-3
-1.377, 2.153e-3
-1.378, 2.194e-3
-1.379, 2.270e-3
-1.380, 2.332e-3
-1.381, 2.390e-3
-1.382, 2.453e-3
-1.383, 2.520e-3
-1.384, 2.587e-3
-1.385, 2.642e-3
-1.386, 2.707e-3
-1.387, 2.755e-3
-1.388, 2.716e-3
-1.389, 2.735e-3
-1.390, 2.790e-3
-1.391, 2.897e-3
-1.392, 2.980e-3
-1.393, 3.050e-3
-1.394, 3.152e-3
-1.395, 3.228e-3
-1.396, 3.301e-3
-1.397, 3.374e-3
-1.398, 3.448e-3
-1.399, 3.526e-3
-1.400, 3.543e-3
-1.399, 3.488e-3
-1.398, 3.343e-3
-1.397, 3.197e-3
-1.396, 3.126e-3
-1.395, 3.099e-3
-1.394, 3.091e-3
-1.393, 3.037e-3
-1.392, 3.004e-3
-1.391, 2.971e-3
-1.390, 2.919e-3
-1.389, 2.869e-3
-1.388, 2.820e-3
-1.387, 2.776e-3
-1.386, 2.737e-3
-1.385, 2.680e-3
-1.384, 2.613e-3
-1.383, 2.542e-3
-1.382, 2.462e-3
-1.381, 2.402e-3
-1.380, 2.340e-3
-1.379, 2.313e-3
-1.378, 2.275e-3
-1.377, 2.230e-3
-1.376, 2.186e-3
-1.375, 2.148e-3
-1.374, 2.108e-3
-1.373, 2.063e-3
-1.372, 2.012e-3
-1.371, 1.969e-3
-1.370, 1.916e-3
-1.369, 1.854e-3
-1.368, 1.810e-3
-1.367, 1.770e-3
-1.366, 1.723e-3
-1.365, 1.699e-3
-1.364, 1.658e-3
-1.363, 1.619e-3
-1.362, 1.583e-3
-1.361, 1.548e-3
-1.360, 1.517e-3
-1.359, 1.482e-3
-1.358, 1.442e-3
-1.357, 1.401e-3
-1.356, 1.339e-3
-1.355, 1.299e-3
-1.354, 1.270e-3
-1.353, 1.246e-3
-1.352, 1.209e-3
-1.351, 1.186e-3
-1.350, 1.155e-3
-1.349, 1.125e-3
-1.348, 1.097e-3
-1.347, 1.069e-3
-1.346, 1.042e-3
-1.345, 1.013e-3
-1.344, 9.826e-4
-1.343, 9.459e-4
-1.342, 9.109e-4
-1.341, 8.880e-4
-1.340, 8.649e-4
-1.339, 8.371e-4
-1.338, 8.116e-4
-1.337, 7.925e-4
-1.336, 7.662e-4
-1.335, 7.424e-4
-1.334, 7.226e-4
-1.333, 7.035e-4
-1.332, 6.834e-4
-1.331, 6.619e-4
-1.330, 6.400e-4
-1.329, 6.127e-4
-1.328, 5.920e-4
-1.327, 5.762e-4
-1.326, 5.617e-4
-1.325, 5.441e-4
-1.324, 5.245e-4
-1.323, 5.117e-4
-1.322, 4.948e-4
-1.321, 4.787e-4
-1.320, 4.638e-4
-1.319, 4.494e-4
-1.318, 4.352e-4
-1.317, 4.227e-4
-1.316, 4.082e-4
-1.315, 3.936e-4
-1.314, 3.759e-4
-1.313, 3.631e-4
-1.312, 3.525e-4
-1.311, 3.412e-4
-1.310, 3.275e-4
-1.309, 3.174e-4
-1.308, 3.045e-4
-1.307, 2.929e-4
-1.306, 2.830e-4
-1.305, 2.737e-4
-1.304, 2.644e-4
-1.303, 2.531e-4
-1.302, 2.430e-4
-1.301, 2.326e-4
-1.300, 2.223e-4
-1.299, 2.122e-4
-1.298, 2.043e-4
-1.297, 1.962e-4
-1.296, 1.891e-4
-1.295, 1.809e-4
-1.294, 1.736e-4
-1.293, 1.670e-4
-1.292, 1.606e-4
-1.291, 1.542e-4
-1.290, 1.480e-4
-1.289, 1.410e-4
-1.288, 1.343e-4
-1.287, 1.273e-4
-1.286, 1.213e-4
-1.285, 1.169e-4
-1.284, 1.117e-4
-1.283, 1.058e-4
-1.282, 1.011e-4
-1.281, 9.546e-5
-1.280, 9.023e-5
-1.279, 8.620e-5
-1.278, 8.178e-5
-1.277, 7.815e-5
-1.276, 7.400e-5
-1.275, 6.997e-5
-1.274, 6.545e-5
-1.273, 6.024e-5
-1.272, 5.703e-5
-1.271, 5.332e-5
-1.270, 4.975e-5
-1.269, 4.632e-5
-1.268, 4.293e-5
-1.267, 3.949e-5
-1.266, 3.659e-5
-1.265, 3.345e-5
-1.264, 3.063e-5
-1.263, 2.781e-5
-1.262, 2.529e-5
-1.261, 2.315e-5
-1.260, 2.077e-5
-1.259, 1.755e-5
-1.258, 1.483e-5
-1.257, 1.222e-5
-1.256, 1.003e-5
-1.255, 7.980e-6
-1.254, 5.355e-6
-1.253, 2.899e-6
-1.252, 8.662e-7
-1.251, -5.841e-7
-1.250, -1.206e-6
-1.249, -2.863e-6
-1.248, -4.452e-6
-1.247, -6.326e-6
-1.246, -9.306e-6
-1.245, -1.111e-5
-1.244, -1.314e-5
-1.243, -1.460e-5
-1.242, -1.566e-5
-1.241, -1.747e-5
-1.240, -1.913e-5
-1.239, -2.064e-5
-1.238, -2.221e-5
-1.237, -2.310e-5
-1.236, -2.407e-5
-1.235, -2.536e-5
-1.234, -2.621e-5
-1.233, -2.756e-5
-1.232, -2.825e-5
-1.231, -2.922e-5
-1.230, -3.104e-5
-1.229, -3.297e-5
-1.228, -3.385e-5
-1.227, -3.470e-5
-1.226, -3.608e-5
-1.225, -3.736e-5
-1.224, -3.805e-5
-1.223, -3.900e-5
-1.222, -3.975e-5
-1.221, -3.997e-5
-1.220, -4.049e-5
-1.219, -4.163e-5
-1.218, -4.213e-5
-1.217, -4.305e-5
-1.216, -4.414e-5
-1.215, -4.542e-5
-1.214, -4.683e-5
-1.213, -4.691e-5
-1.212, -4.804e-5
-1.211, -4.907e-5
-1.210, -4.982e-5
-1.209, -5.069e-5
-1.208, -5.086e-5
-1.207, -5.144e-5
-1.206, -5.171e-5
-1.205, -5.172e-5
-1.204, -5.246e-5
-1.203, -5.260e-5
-1.202, -5.362e-5
-1.201, -5.512e-5
-1.200, -5.583e-5
-1.199, -5.648e-5
-1.198, -5.725e-5
-1.197, -5.782e-5
-1.196, -5.837e-5
-1.195, -5.900e-5
-1.194, -5.928e-5
-1.193, -5.996e-5
-1.192, -5.983e-5
-1.191, -5.983e-5
-1.190, -6.035e-5
-1.189, -6.008e-5
-1.188, -6.109e-5
-1.187, -6.241e-5
-1.186, -6.329e-5
-1.185, -6.392e-5
-1.184, -6.390e-5
-1.183, -6.533e-5
-1.182, -6.576e-5
-1.181, -6.561e-5
-1.180, -6.603e-5
-1.179, -6.651e-5
-1.178, -6.692e-5
-1.177, -6.720e-5
-1.176, -6.732e-5
-1.175, -6.777e-5
-1.174, -6.756e-5
-1.173, -6.834e-5
-1.172, -6.954e-5
-1.171, -7.063e-5
-1.170, -7.024e-5
-1.169, -7.179e-5
-1.168, -7.201e-5
-1.167, -7.233e-5
-1.166, -7.257e-5
-1.165, -7.273e-5
-1.164, -7.322e-5
-1.163, -7.363e-5
-1.162, -7.390e-5
-1.161, -7.365e-5
-1.160, -7.292e-5
-1.159, -7.440e-5
-1.158, -7.556e-5
-1.157, -7.603e-5
-1.156, -7.760e-5
-1.155, -7.770e-5
-1.154, -7.837e-5
-1.153, -7.896e-5
-1.152, -7.891e-5
-1.151, -7.903e-5
-1.150, -7.960e-5
-1.149, -7.968e-5
-1.148, -8.015e-5
-1.147, -8.020e-5
-1.146, -8.025e-5
-1.145, -8.089e-5
-1.144, -8.201e-5
-1.143, -8.260e-5
-1.142, -8.311e-5
-1.141, -8.349e-5
-1.140, -8.482e-5
-1.139, -8.533e-5
-1.138, -8.575e-5
-1.137, -8.595e-5
-1.136, -8.598e-5
-1.135, -8.646e-5
-1.134, -8.708e-5
-1.133, -8.744e-5
-1.132, -8.729e-5
-1.131, -8.688e-5
-1.130, -8.851e-5
-1.129, -9.043e-5
-1.128, -9.040e-5
-1.127, -9.094e-5
-1.126, -9.226e-5
-1.125, -9.231e-5
-1.124, -9.296e-5
-1.123, -9.352e-5
-1.122, -9.386e-5
-1.121, -9.467e-5
-1.120, -9.450e-5
-1.119, -9.471e-5
-1.118, -9.546e-5
-1.117, -9.584e-5
-1.116, -9.651e-5
-1.115, -9.786e-5
-1.114, -9.853e-5
-1.113, -9.928e-5
-1.112, -9.913e-5
-1.111, -9.951e-5
-1.110, -1.000e-4
-1.109, -1.002e-4
-1.108, -1.013e-4
-1.107, -1.020e-4
-1.106, -1.029e-4
-1.105, -1.038e-4
-1.104, -1.040e-4
-1.103, -1.044e-4
-1.102, -1.048e-4
-1.101, -1.052e-4
-1.100, -1.065e-4
-1.099, -1.070e-4
-1.098, -1.059e-4
-1.097, -1.066e-4
-1.096, -1.084e-4
-1.095, -1.098e-4
-1.094, -1.100e-4
-1.093, -1.119e-4
-1.092, -1.124e-4
-1.091, -1.125e-4
-1.090, -1.131e-4
-1.089, -1.139e-4
-1.088, -1.144e-4
-1.087, -1.147e-4
-1.086, -1.160e-4
-1.085, -1.164e-4
-1.084, -1.146e-4
-1.083, -1.146e-4
-1.082, -1.169e-4
-1.081, -1.189e-4
-1.080, -1.210e-4
-1.079, -1.212e-4
-1.078, -1.223e-4
-1.077, -1.228e-4
-1.076, -1.237e-4
-1.075, -1.243e-4
-1.074, -1.249e-4
-1.073, -1.259e-4
-1.072, -1.262e-4
-1.071, -1.265e-4
-1.070, -1.277e-4
-1.069, -1.265e-4
-1.068, -1.249e-4
-1.067, -1.279e-4
-1.066, -1.297e-4
-1.065, -1.344e-4
-1.064, -1.330e-4
-1.063, -1.347e-4
-1.062, -1.355e-4
-1.061, -1.360e-4
-1.060, -1.366e-4
-1.059, -1.375e-4
-1.058, -1.381e-4
-1.057, -1.389e-4
-1.056, -1.388e-4
-1.055, -1.394e-4
-1.054, -1.402e-4
-1.053, -1.406e-4
-1.052, -1.429e-4
-1.051, -1.432e-4
-1.050, -1.460e-4
-1.049, -1.469e-4
-1.048, -1.474e-4
-1.047, -1.483e-4
-1.046, -1.491e-4
-1.045, -1.495e-4
-1.044, -1.506e-4
-1.043, -1.519e-4
-1.042, -1.520e-4
-1.041, -1.519e-4
-1.040, -1.525e-4
-1.039, -1.547e-4
-1.038, -1.556e-4
-1.037, -1.582e-4
-1.036, -1.592e-4
-1.035, -1.600e-4
-1.034, -1.609e-4
-1.033, -1.620e-4
-1.032, -1.622e-4
-1.031, -1.635e-4
-1.030, -1.646e-4
-1.029, -1.659e-4
-1.028, -1.658e-4
-1.027, -1.647e-4
-1.026, -1.659e-4
-1.025, -1.690e-4
-1.024, -1.707e-4
-1.023, -1.716e-4
-1.022, -1.749e-4
-1.021, -1.752e-4
-1.020, -1.762e-4
-1.019, -1.776e-4
-1.018, -1.787e-4
-1.017, -1.803e-4
-1.016, -1.807e-4
-1.015, -1.826e-4
-1.014, -1.823e-4
-1.013, -1.776e-4
-1.012, -1.817e-4
-1.011, -1.873e-4
-1.010, -1.901e-4
-1.009, -1.912e-4
-1.008, -1.932e-4
-1.007, -1.945e-4
-1.006, -1.958e-4
-1.005, -1.968e-4
-1.004, -1.984e-4
-1.003, -2.003e-4
-1.002, -2.016e-4
-1.001, -2.032e-4
