Aug. 4, 2024   00:25:20
Cyclic Voltammetry
File: c:/users/guazh/data/20240802_batch_500/2024-08-02-exp11\exp11-2024-08-04t00_11_17-arkoh\exp11_cv_sr_200mvs_efin_-1600mv.bin
Data Source:  Experiment
Instrument Model:  CHI760E
Header: CV ran at 200 mVs
Note: 

Init E (V) = -1
High E (V) = -1
Low E (V) = -1.6
Final E (V) = -1
Init P/N = N
Scan Rate (V/s) = 0.2
Segment = 3
Sample Interval (V) = 0.001
Quiet Time (sec) = 2
Sensitivity (A/V) = 0.01
Comp R (ohm) = 1.8

Results:

Channel 1:
Segment 1:

Segment 2:

Segment 3:

Potential/V, Current/A

-1.000, 1.978e-5
-1.001, 2.816e-5
-1.002, 3.829e-5
-1.003, 3.917e-5
-1.004, 3.490e-5
-1.005, 3.979e-5
-1.006, 4.515e-5
-1.007, 3.953e-5
-1.008, 4.045e-5
-1.009, 4.746e-5
-1.010, 4.458e-5
-1.011, 4.082e-5
-1.012, 4.848e-5
-1.013, 4.830e-5
-1.014, 4.254e-5
-1.015, 4.720e-5
-1.016, 5.124e-5
-1.017, 4.518e-5
-1.018, 4.630e-5
-1.019, 5.242e-5
-1.020, 4.910e-5
-1.021, 4.517e-5
-1.022, 5.233e-5
-1.023, 5.206e-5
-1.024, 4.655e-5
-1.025, 5.029e-5
-1.026, 5.465e-5
-1.027, 4.813e-5
-1.028, 4.909e-5
-1.029, 5.514e-5
-1.030, 5.138e-5
-1.031, 4.788e-5
-1.032, 5.459e-5
-1.033, 5.394e-5
-1.034, 4.823e-5
-1.035, 5.192e-5
-1.036, 5.630e-5
-1.037, 4.991e-5
-1.038, 5.047e-5
-1.039, 5.678e-5
-1.040, 5.263e-5
-1.041, 4.914e-5
-1.042, 5.581e-5
-1.043, 5.496e-5
-1.044, 4.953e-5
-1.045, 5.313e-5
-1.046, 5.721e-5
-1.047, 5.085e-5
-1.048, 5.119e-5
-1.049, 5.755e-5
-1.050, 5.373e-5
-1.051, 4.968e-5
-1.052, 5.673e-5
-1.053, 5.560e-5
-1.054, 4.978e-5
-1.055, 5.407e-5
-1.056, 5.764e-5
-1.057, 5.103e-5
-1.058, 5.225e-5
-1.059, 5.744e-5
-1.060, 5.396e-5
-1.061, 5.026e-5
-1.062, 5.673e-5
-1.063, 5.616e-5
-1.064, 5.006e-5
-1.065, 5.402e-5
-1.066, 5.797e-5
-1.067, 5.123e-5
-1.068, 5.238e-5
-1.069, 5.800e-5
-1.070, 5.412e-5
-1.071, 5.063e-5
-1.072, 5.680e-5
-1.073, 5.640e-5
-1.074, 5.074e-5
-1.075, 5.440e-5
-1.076, 5.828e-5
-1.077, 5.186e-5
-1.078, 5.230e-5
-1.079, 5.846e-5
-1.080, 5.424e-5
-1.081, 5.074e-5
-1.082, 5.743e-5
-1.083, 5.646e-5
-1.084, 5.112e-5
-1.085, 5.485e-5
-1.086, 5.876e-5
-1.087, 5.204e-5
-1.088, 5.282e-5
-1.089, 5.870e-5
-1.090, 5.482e-5
-1.091, 5.117e-5
-1.092, 5.813e-5
-1.093, 5.704e-5
-1.094, 5.171e-5
-1.095, 5.548e-5
-1.096, 5.907e-5
-1.097, 5.253e-5
-1.098, 5.371e-5
-1.099, 5.948e-5
-1.100, 5.550e-5
-1.101, 5.225e-5
-1.102, 5.846e-5
-1.103, 5.817e-5
-1.104, 5.220e-5
-1.105, 5.626e-5
-1.106, 5.991e-5
-1.107, 5.370e-5
-1.108, 5.449e-5
-1.109, 6.023e-5
-1.110, 5.669e-5
-1.111, 5.328e-5
-1.112, 5.978e-5
-1.113, 5.892e-5
-1.114, 5.364e-5
-1.115, 5.689e-5
-1.116, 6.135e-5
-1.117, 5.484e-5
-1.118, 5.552e-5
-1.119, 6.178e-5
-1.120, 5.764e-5
-1.121, 5.427e-5
-1.122, 6.094e-5
-1.123, 6.020e-5
-1.124, 5.470e-5
-1.125, 5.820e-5
-1.126, 6.212e-5
-1.127, 5.622e-5
-1.128, 5.638e-5
-1.129, 6.272e-5
-1.130, 5.910e-5
-1.131, 5.529e-5
-1.132, 6.188e-5
-1.133, 6.107e-5
-1.134, 5.535e-5
-1.135, 5.956e-5
-1.136, 6.303e-5
-1.137, 5.688e-5
-1.138, 5.763e-5
-1.139, 6.340e-5
-1.140, 5.980e-5
-1.141, 5.629e-5
-1.142, 6.256e-5
-1.143, 6.202e-5
-1.144, 5.633e-5
-1.145, 6.003e-5
-1.146, 6.404e-5
-1.147, 5.749e-5
-1.148, 5.830e-5
-1.149, 6.386e-5
-1.150, 6.026e-5
-1.151, 5.689e-5
-1.152, 6.281e-5
-1.153, 6.254e-5
-1.154, 5.681e-5
-1.155, 6.027e-5
-1.156, 6.441e-5
-1.157, 5.798e-5
-1.158, 5.826e-5
-1.159, 6.452e-5
-1.160, 6.051e-5
-1.161, 5.677e-5
-1.162, 6.349e-5
-1.163, 6.253e-5
-1.164, 5.675e-5
-1.165, 6.067e-5
-1.166, 6.424e-5
-1.167, 5.803e-5
-1.168, 5.830e-5
-1.169, 6.408e-5
-1.170, 6.030e-5
-1.171, 5.652e-5
-1.172, 6.335e-5
-1.173, 6.212e-5
-1.174, 5.647e-5
-1.175, 6.029e-5
-1.176, 6.372e-5
-1.177, 5.775e-5
-1.178, 5.828e-5
-1.179, 6.351e-5
-1.180, 5.995e-5
-1.181, 5.624e-5
-1.182, 6.259e-5
-1.183, 6.208e-5
-1.184, 5.607e-5
-1.185, 5.958e-5
-1.186, 6.347e-5
-1.187, 5.661e-5
-1.188, 5.739e-5
-1.189, 6.328e-5
-1.190, 5.907e-5
-1.191, 5.583e-5
-1.192, 6.196e-5
-1.193, 6.087e-5
-1.194, 5.579e-5
-1.195, 5.893e-5
-1.196, 6.271e-5
-1.197, 5.639e-5
-1.198, 5.679e-5
-1.199, 6.255e-5
-1.200, 5.851e-5
-1.201, 5.502e-5
-1.202, 6.128e-5
-1.203, 6.041e-5
-1.204, 5.500e-5
-1.205, 5.846e-5
-1.206, 6.185e-5
-1.207, 5.569e-5
-1.208, 5.618e-5
-1.209, 6.167e-5
-1.210, 5.798e-5
-1.211, 5.425e-5
-1.212, 6.072e-5
-1.213, 5.972e-5
-1.214, 5.406e-5
-1.215, 5.790e-5
-1.216, 6.126e-5
-1.217, 5.470e-5
-1.218, 5.579e-5
-1.219, 6.095e-5
-1.220, 5.722e-5
-1.221, 5.394e-5
-1.222, 6.019e-5
-1.223, 5.895e-5
-1.224, 5.317e-5
-1.225, 5.741e-5
-1.226, 6.092e-5
-1.227, 5.428e-5
-1.228, 5.548e-5
-1.229, 6.133e-5
-1.230, 5.691e-5
-1.231, 5.355e-5
-1.232, 5.979e-5
-1.233, 5.877e-5
-1.234, 5.337e-5
-1.235, 5.682e-5
-1.236, 6.053e-5
-1.237, 5.405e-5
-1.238, 5.472e-5
-1.239, 6.029e-5
-1.240, 5.629e-5
-1.241, 5.286e-5
-1.242, 5.962e-5
-1.243, 5.828e-5
-1.244, 5.332e-5
-1.245, 5.674e-5
-1.246, 6.009e-5
-1.247, 5.392e-5
-1.248, 5.441e-5
-1.249, 6.021e-5
-1.250, 5.631e-5
-1.251, 5.261e-5
-1.252, 5.910e-5
-1.253, 5.810e-5
-1.254, 5.285e-5
-1.255, 5.666e-5
-1.256, 5.978e-5
-1.257, 5.372e-5
-1.258, 5.468e-5
-1.259, 6.007e-5
-1.260, 5.634e-5
-1.261, 5.285e-5
-1.262, 5.905e-5
-1.263, 5.813e-5
-1.264, 5.270e-5
-1.265, 5.677e-5
-1.266, 6.022e-5
-1.267, 5.373e-5
-1.268, 5.499e-5
-1.269, 6.036e-5
-1.270, 5.636e-5
-1.271, 5.338e-5
-1.272, 5.964e-5
-1.273, 5.867e-5
-1.274, 5.340e-5
-1.275, 5.713e-5
-1.276, 6.082e-5
-1.277, 5.436e-5
-1.278, 5.547e-5
-1.279, 6.118e-5
-1.280, 5.736e-5
-1.281, 5.390e-5
-1.282, 6.068e-5
-1.283, 5.923e-5
-1.284, 5.442e-5
-1.285, 5.818e-5
-1.286, 6.146e-5
-1.287, 5.567e-5
-1.288, 5.634e-5
-1.289, 6.218e-5
-1.290, 5.814e-5
-1.291, 5.476e-5
-1.292, 6.167e-5
-1.293, 6.058e-5
-1.294, 5.553e-5
-1.295, 5.966e-5
-1.296, 6.264e-5
-1.297, 5.695e-5
-1.298, 5.815e-5
-1.299, 6.351e-5
-1.300, 5.996e-5
-1.301, 5.671e-5
-1.302, 6.287e-5
-1.303, 6.228e-5
-1.304, 5.749e-5
-1.305, 6.093e-5
-1.306, 6.503e-5
-1.307, 5.876e-5
-1.308, 6.033e-5
-1.309, 6.548e-5
-1.310, 6.196e-5
-1.311, 5.932e-5
-1.312, 6.567e-5
-1.313, 6.472e-5
-1.314, 6.009e-5
-1.315, 6.390e-5
-1.316, 6.770e-5
-1.317, 6.148e-5
-1.318, 6.309e-5
-1.319, 6.871e-5
-1.320, 6.497e-5
-1.321, 6.243e-5
-1.322, 6.908e-5
-1.323, 6.775e-5
-1.324, 6.378e-5
-1.325, 6.754e-5
-1.326, 7.111e-5
-1.327, 6.568e-5
-1.328, 6.703e-5
-1.329, 7.256e-5
-1.330, 6.948e-5
-1.331, 6.642e-5
-1.332, 7.330e-5
-1.333, 7.250e-5
-1.334, 6.798e-5
-1.335, 7.253e-5
-1.336, 7.580e-5
-1.337, 7.043e-5
-1.338, 7.201e-5
-1.339, 7.748e-5
-1.340, 7.461e-5
-1.341, 7.197e-5
-1.342, 7.874e-5
-1.343, 7.831e-5
-1.344, 7.408e-5
-1.345, 7.835e-5
-1.346, 8.242e-5
-1.347, 7.717e-5
-1.348, 7.895e-5
-1.349, 8.460e-5
-1.350, 8.162e-5
-1.351, 7.978e-5
-1.352, 8.651e-5
-1.353, 8.598e-5
-1.354, 8.220e-5
-1.355, 8.666e-5
-1.356, 9.075e-5
-1.357, 8.556e-5
-1.358, 8.757e-5
-1.359, 9.389e-5
-1.360, 9.084e-5
-1.361, 8.905e-5
-1.362, 9.630e-5
-1.363, 9.599e-5
-1.364, 9.257e-5
-1.365, 9.694e-5
-1.366, 1.012e-4
-1.367, 9.701e-5
-1.368, 9.895e-5
-1.369, 1.054e-4
-1.370, 1.029e-4
-1.371, 1.014e-4
-1.372, 1.087e-4
-1.373, 1.087e-4
-1.374, 1.055e-4
-1.375, 1.107e-4
-1.376, 1.151e-4
-1.377, 1.109e-4
-1.378, 1.136e-4
-1.379, 1.198e-4
-1.380, 1.182e-4
-1.381, 1.170e-4
-1.382, 1.246e-4
-1.383, 1.255e-4
-1.384, 1.225e-4
-1.385, 1.279e-4
-1.386, 1.331e-4
-1.387, 1.293e-4
-1.388, 1.322e-4
-1.389, 1.395e-4
-1.390, 1.379e-4
-1.391, 1.375e-4
-1.392, 1.451e-4
-1.393, 1.465e-4
-1.394, 1.445e-4
-1.395, 1.503e-4
-1.396, 1.559e-4
-1.397, 1.528e-4
-1.398, 1.562e-4
-1.399, 1.639e-4
-1.400, 1.630e-4
-1.401, 1.633e-4
-1.402, 1.718e-4
-1.403, 1.735e-4
-1.404, 1.722e-4
-1.405, 1.785e-4
-1.406, 1.852e-4
-1.407, 1.828e-4
-1.408, 1.869e-4
-1.409, 1.952e-4
-1.410, 1.959e-4
-1.411, 1.962e-4
-1.412, 2.056e-4
-1.413, 2.084e-4
-1.414, 2.081e-4
-1.415, 2.154e-4
-1.416, 2.220e-4
-1.417, 2.210e-4
-1.418, 2.261e-4
-1.419, 2.353e-4
-1.420, 2.365e-4
-1.421, 2.383e-4
-1.422, 2.483e-4
-1.423, 2.524e-4
-1.424, 2.527e-4
-1.425, 2.610e-4
-1.426, 2.693e-4
-1.427, 2.695e-4
-1.428, 2.758e-4
-1.429, 2.861e-4
-1.430, 2.885e-4
-1.431, 2.918e-4
-1.432, 3.028e-4
-1.433, 3.089e-4
-1.434, 3.110e-4
-1.435, 3.202e-4
-1.436, 3.305e-4
-1.437, 3.319e-4
-1.438, 3.395e-4
-1.439, 3.515e-4
-1.440, 3.560e-4
-1.441, 3.603e-4
-1.442, 3.738e-4
-1.443, 3.812e-4
-1.444, 3.850e-4
-1.445, 3.959e-4
-1.446, 4.078e-4
-1.447, 4.117e-4
-1.448, 4.205e-4
-1.449, 4.346e-4
-1.450, 4.411e-4
-1.451, 4.477e-4
-1.452, 4.634e-4
-1.453, 4.734e-4
-1.454, 4.794e-4
-1.455, 4.928e-4
-1.456, 5.071e-4
-1.457, 5.138e-4
-1.458, 5.255e-4
-1.459, 5.424e-4
-1.460, 5.525e-4
-1.461, 5.615e-4
-1.462, 5.796e-4
-1.463, 5.933e-4
-1.464, 6.019e-4
-1.465, 6.178e-4
-1.466, 6.366e-4
-1.467, 6.464e-4
-1.468, 6.616e-4
-1.469, 6.823e-4
-1.470, 6.967e-4
-1.471, 7.100e-4
-1.472, 7.318e-4
-1.473, 7.506e-4
-1.474, 7.645e-4
-1.475, 7.849e-4
-1.476, 8.087e-4
-1.477, 8.246e-4
-1.478, 8.448e-4
-1.479, 8.711e-4
-1.480, 8.907e-4
-1.481, 9.090e-4
-1.482, 9.369e-4
-1.483, 9.613e-4
-1.484, 9.810e-4
-1.485, 1.008e-3
-1.486, 1.037e-3
-1.487, 1.060e-3
-1.488, 1.085e-3
-1.489, 1.118e-3
-1.490, 1.146e-3
-1.491, 1.170e-3
-1.492, 1.204e-3
-1.493, 1.235e-3
-1.494, 1.262e-3
-1.495, 1.296e-3
-1.496, 1.333e-3
-1.497, 1.363e-3
-1.498, 1.396e-3
-1.499, 1.436e-3
-1.500, 1.472e-3
-1.501, 1.503e-3
-1.502, 1.545e-3
-1.503, 1.587e-3
-1.504, 1.621e-3
-1.505, 1.662e-3
-1.506, 1.709e-3
-1.507, 1.745e-3
-1.508, 1.786e-3
-1.509, 1.837e-3
-1.510, 1.882e-3
-1.511, 1.921e-3
-1.512, 1.971e-3
-1.513, 2.020e-3
-1.514, 2.062e-3
-1.515, 2.110e-3
-1.516, 2.165e-3
-1.517, 2.209e-3
-1.518, 2.255e-3
-1.519, 2.312e-3
-1.520, 2.363e-3
-1.521, 2.408e-3
-1.522, 2.464e-3
-1.523, 2.518e-3
-1.524, 2.564e-3
-1.525, 2.617e-3
-1.526, 2.679e-3
-1.527, 2.729e-3
-1.528, 2.779e-3
-1.529, 2.839e-3
-1.530, 2.897e-3
-1.531, 2.948e-3
-1.532, 3.010e-3
-1.533, 3.073e-3
-1.534, 3.126e-3
-1.535, 3.186e-3
-1.536, 3.253e-3
-1.537, 3.310e-3
-1.538, 3.367e-3
-1.539, 3.435e-3
-1.540, 3.500e-3
-1.541, 3.555e-3
-1.542, 3.622e-3
-1.543, 3.690e-3
-1.544, 3.749e-3
-1.545, 3.812e-3
-1.546, 3.887e-3
-1.547, 3.948e-3
-1.548, 4.007e-3
-1.549, 4.080e-3
-1.550, 4.147e-3
-1.551, 4.205e-3
-1.552, 4.273e-3
-1.553, 4.343e-3
-1.554, 4.400e-3
-1.555, 4.463e-3
-1.556, 4.536e-3
-1.557, 4.598e-3
-1.558, 4.661e-3
-1.559, 4.738e-3
-1.560, 4.811e-3
-1.561, 4.872e-3
-1.562, 4.944e-3
-1.563, 5.020e-3
-1.564, 5.087e-3
-1.565, 5.158e-3
-1.566, 5.237e-3
-1.567, 5.302e-3
-1.568, 5.364e-3
-1.569, 5.443e-3
-1.570, 5.519e-3
-1.571, 5.585e-3
-1.572, 5.662e-3
-1.573, 5.740e-3
-1.574, 5.809e-3
-1.575, 5.883e-3
-1.576, 5.967e-3
-1.577, 6.041e-3
-1.578, 6.111e-3
-1.579, 6.193e-3
-1.580, 6.274e-3
-1.581, 6.343e-3
-1.582, 6.423e-3
-1.583, 6.506e-3
-1.584, 6.577e-3
-1.585, 6.648e-3
-1.586, 6.728e-3
-1.587, 6.800e-3
-1.588, 6.873e-3
-1.589, 6.955e-3
-1.590, 7.029e-3
-1.591, 7.089e-3
-1.592, 7.168e-3
-1.593, 7.255e-3
-1.594, 7.326e-3
-1.595, 7.403e-3
-1.596, 7.495e-3
-1.597, 7.572e-3
-1.598, 7.649e-3
-1.599, 7.738e-3
-1.600, 7.747e-3
-1.599, 7.670e-3
-1.598, 7.601e-3
-1.597, 7.538e-3
-1.596, 7.459e-3
-1.595, 7.385e-3
-1.594, 7.324e-3
-1.593, 7.251e-3
-1.592, 7.172e-3
-1.591, 7.105e-3
-1.590, 7.033e-3
-1.589, 6.941e-3
-1.588, 6.862e-3
-1.587, 6.788e-3
-1.586, 6.705e-3
-1.585, 6.625e-3
-1.584, 6.554e-3
-1.583, 6.471e-3
-1.582, 6.386e-3
-1.581, 6.316e-3
-1.580, 6.243e-3
-1.579, 6.157e-3
-1.578, 6.090e-3
-1.577, 6.024e-3
-1.576, 5.946e-3
-1.575, 5.876e-3
-1.574, 5.816e-3
-1.573, 5.745e-3
-1.572, 5.668e-3
-1.571, 5.608e-3
-1.570, 5.546e-3
-1.569, 5.474e-3
-1.568, 5.413e-3
-1.567, 5.351e-3
-1.566, 5.275e-3
-1.565, 5.204e-3
-1.564, 5.144e-3
-1.563, 5.072e-3
-1.562, 4.995e-3
-1.561, 4.931e-3
-1.560, 4.864e-3
-1.559, 4.785e-3
-1.558, 4.719e-3
-1.557, 4.657e-3
-1.556, 4.584e-3
-1.555, 4.516e-3
-1.554, 4.460e-3
-1.553, 4.393e-3
-1.552, 4.330e-3
-1.551, 4.278e-3
-1.550, 4.219e-3
-1.549, 4.154e-3
-1.548, 4.098e-3
-1.547, 4.040e-3
-1.546, 3.974e-3
-1.545, 3.915e-3
-1.544, 3.866e-3
-1.543, 3.805e-3
-1.542, 3.744e-3
-1.541, 3.694e-3
-1.540, 3.639e-3
-1.539, 3.577e-3
-1.538, 3.526e-3
-1.537, 3.476e-3
-1.536, 3.417e-3
-1.535, 3.363e-3
-1.534, 3.316e-3
-1.533, 3.259e-3
-1.532, 3.202e-3
-1.531, 3.155e-3
-1.530, 3.105e-3
-1.529, 3.046e-3
-1.528, 3.001e-3
-1.527, 2.956e-3
-1.526, 2.902e-3
-1.525, 2.854e-3
-1.524, 2.813e-3
-1.523, 2.761e-3
-1.522, 2.710e-3
-1.521, 2.669e-3
-1.520, 2.624e-3
-1.519, 2.573e-3
-1.518, 2.532e-3
-1.517, 2.492e-3
-1.516, 2.442e-3
-1.515, 2.399e-3
-1.514, 2.362e-3
-1.513, 2.315e-3
-1.512, 2.272e-3
-1.511, 2.236e-3
-1.510, 2.195e-3
-1.509, 2.148e-3
-1.508, 2.111e-3
-1.507, 2.073e-3
-1.506, 2.028e-3
-1.505, 1.990e-3
-1.504, 1.957e-3
-1.503, 1.913e-3
-1.502, 1.872e-3
-1.501, 1.841e-3
-1.500, 1.806e-3
-1.499, 1.765e-3
-1.498, 1.733e-3
-1.497, 1.701e-3
-1.496, 1.661e-3
-1.495, 1.629e-3
-1.494, 1.600e-3
-1.493, 1.564e-3
-1.492, 1.530e-3
-1.491, 1.504e-3
-1.490, 1.472e-3
-1.489, 1.436e-3
-1.488, 1.411e-3
-1.487, 1.383e-3
-1.486, 1.348e-3
-1.485, 1.320e-3
-1.484, 1.296e-3
-1.483, 1.264e-3
-1.482, 1.235e-3
-1.481, 1.213e-3
-1.480, 1.187e-3
-1.479, 1.157e-3
-1.478, 1.135e-3
-1.477, 1.111e-3
-1.476, 1.082e-3
-1.475, 1.058e-3
-1.474, 1.039e-3
-1.473, 1.011e-3
-1.472, 9.867e-4
-1.471, 9.689e-4
-1.470, 9.445e-4
-1.469, 9.189e-4
-1.468, 9.018e-4
-1.467, 8.818e-4
-1.466, 8.566e-4
-1.465, 8.373e-4
-1.464, 8.214e-4
-1.463, 7.971e-4
-1.462, 7.767e-4
-1.461, 7.634e-4
-1.460, 7.428e-4
-1.459, 7.207e-4
-1.458, 7.081e-4
-1.457, 6.913e-4
-1.456, 6.698e-4
-1.455, 6.554e-4
-1.454, 6.426e-4
-1.453, 6.225e-4
-1.452, 6.065e-4
-1.451, 5.961e-4
-1.450, 5.796e-4
-1.449, 5.617e-4
-1.448, 5.523e-4
-1.447, 5.381e-4
-1.446, 5.197e-4
-1.445, 5.088e-4
-1.444, 4.992e-4
-1.443, 4.820e-4
-1.442, 4.692e-4
-1.441, 4.616e-4
-1.440, 4.473e-4
-1.439, 4.326e-4
-1.438, 4.258e-4
-1.437, 4.150e-4
-1.436, 3.999e-4
-1.435, 3.916e-4
-1.434, 3.847e-4
-1.433, 3.695e-4
-1.432, 3.600e-4
-1.431, 3.548e-4
-1.430, 3.425e-4
-1.429, 3.303e-4
-1.428, 3.266e-4
-1.427, 3.169e-4
-1.426, 3.045e-4
-1.425, 2.983e-4
-1.424, 2.934e-4
-1.423, 2.806e-4
-1.422, 2.733e-4
-1.421, 2.703e-4
-1.420, 2.599e-4
-1.419, 2.497e-4
-1.418, 2.480e-4
-1.417, 2.407e-4
-1.416, 2.297e-4
-1.415, 2.257e-4
-1.414, 2.225e-4
-1.413, 2.117e-4
-1.412, 2.064e-4
-1.411, 2.044e-4
-1.410, 1.958e-4
-1.409, 1.875e-4
-1.408, 1.868e-4
-1.407, 1.809e-4
-1.406, 1.715e-4
-1.405, 1.694e-4
-1.404, 1.671e-4
-1.403, 1.574e-4
-1.402, 1.530e-4
-1.401, 1.527e-4
-1.400, 1.455e-4
-1.399, 1.383e-4
-1.398, 1.389e-4
-1.397, 1.340e-4
-1.396, 1.256e-4
-1.395, 1.247e-4
-1.394, 1.235e-4
-1.393, 1.146e-4
-1.392, 1.120e-4
-1.391, 1.127e-4
-1.390, 1.056e-4
-1.389, 9.997e-5
-1.388, 1.017e-4
-1.387, 9.734e-5
-1.386, 9.007e-5
-1.385, 8.991e-5
-1.384, 8.976e-5
-1.383, 8.148e-5
-1.382, 7.919e-5
-1.381, 8.126e-5
-1.380, 7.503e-5
-1.379, 6.988e-5
-1.378, 7.277e-5
-1.377, 6.846e-5
-1.376, 6.234e-5
-1.375, 6.290e-5
-1.374, 6.317e-5
-1.373, 5.579e-5
-1.372, 5.444e-5
-1.371, 5.636e-5
-1.370, 5.137e-5
-1.369, 4.622e-5
-1.368, 4.962e-5
-1.367, 4.635e-5
-1.366, 4.016e-5
-1.365, 4.187e-5
-1.364, 4.238e-5
-1.363, 3.520e-5
-1.362, 3.444e-5
-1.361, 3.706e-5
-1.360, 3.194e-5
-1.359, 2.793e-5
-1.358, 3.149e-5
-1.357, 2.866e-5
-1.356, 2.304e-5
-1.355, 2.448e-5
-1.354, 2.587e-5
-1.353, 1.911e-5
-1.352, 1.904e-5
-1.351, 2.197e-5
-1.350, 1.700e-5
-1.349, 1.344e-5
-1.348, 1.754e-5
-1.347, 1.479e-5
-1.346, 9.519e-6
-1.345, 1.148e-5
-1.344, 1.308e-5
-1.343, 6.934e-6
-1.342, 6.322e-6
-1.341, 1.001e-5
-1.340, 5.503e-6
-1.339, 1.882e-6
-1.338, 6.618e-6
-1.337, 4.033e-6
-1.336, -8.208e-7
-1.335, 1.281e-6
-1.334, 2.731e-6
-1.333, -2.991e-6
-1.332, -2.616e-6
-1.331, 7.577e-7
-1.330, -3.573e-6
-1.329, -6.928e-6
-1.328, -2.311e-6
-1.327, -4.392e-6
-1.326, -9.424e-6
-1.325, -6.661e-6
-1.324, -4.866e-6
-1.323, -1.109e-5
-1.322, -1.046e-5
-1.321, -6.701e-6
-1.320, -1.065e-5
-1.319, -1.387e-5
-1.318, -9.483e-6
-1.317, -1.096e-5
-1.316, -1.575e-5
-1.315, -1.302e-5
-1.314, -1.111e-5
-1.313, -1.706e-5
-1.312, -1.648e-5
-1.311, -1.237e-5
-1.310, -1.663e-5
-1.309, -1.940e-5
-1.308, -1.461e-5
-1.307, -1.631e-5
-1.306, -2.069e-5
-1.305, -1.827e-5
-1.304, -1.592e-5
-1.303, -2.153e-5
-1.302, -2.109e-5
-1.301, -1.679e-5
-1.300, -2.071e-5
-1.299, -2.395e-5
-1.298, -1.869e-5
-1.297, -2.043e-5
-1.296, -2.472e-5
-1.295, -2.189e-5
-1.294, -2.001e-5
-1.293, -2.529e-5
-1.292, -2.508e-5
-1.291, -2.057e-5
-1.290, -2.450e-5
-1.289, -2.758e-5
-1.288, -2.207e-5
-1.287, -2.366e-5
-1.286, -2.836e-5
-1.285, -2.532e-5
-1.284, -2.289e-5
-1.283, -2.868e-5
-1.282, -2.793e-5
-1.281, -2.381e-5
-1.280, -2.769e-5
-1.279, -3.050e-5
-1.278, -2.548e-5
-1.277, -2.668e-5
-1.276, -3.132e-5
-1.275, -2.826e-5
-1.274, -2.536e-5
-1.273, -3.147e-5
-1.272, -3.072e-5
-1.271, -2.628e-5
-1.270, -3.020e-5
-1.269, -3.273e-5
-1.268, -2.748e-5
-1.267, -2.930e-5
-1.266, -3.401e-5
-1.265, -3.078e-5
-1.264, -2.804e-5
-1.263, -3.350e-5
-1.262, -3.310e-5
-1.261, -2.852e-5
-1.260, -3.190e-5
-1.259, -3.513e-5
-1.258, -2.984e-5
-1.257, -3.115e-5
-1.256, -3.567e-5
-1.255, -3.274e-5
-1.254, -2.993e-5
-1.253, -3.567e-5
-1.252, -3.480e-5
-1.251, -3.019e-5
-1.250, -3.369e-5
-1.249, -3.701e-5
-1.248, -3.124e-5
-1.247, -3.262e-5
-1.246, -3.759e-5
-1.245, -3.424e-5
-1.244, -3.110e-5
-1.243, -3.717e-5
-1.242, -3.646e-5
-1.241, -3.204e-5
-1.240, -3.551e-5
-1.239, -3.848e-5
-1.238, -3.312e-5
-1.237, -3.395e-5
-1.236, -3.899e-5
-1.235, -3.570e-5
-1.234, -3.290e-5
-1.233, -3.886e-5
-1.232, -3.785e-5
-1.231, -3.301e-5
-1.230, -3.709e-5
-1.229, -4.076e-5
-1.228, -3.449e-5
-1.227, -3.600e-5
-1.226, -4.061e-5
-1.225, -3.751e-5
-1.224, -3.435e-5
-1.223, -3.992e-5
-1.222, -3.981e-5
-1.221, -3.429e-5
-1.220, -3.846e-5
-1.219, -4.159e-5
-1.218, -3.550e-5
-1.217, -3.694e-5
-1.216, -4.164e-5
-1.215, -3.833e-5
-1.214, -3.558e-5
-1.213, -4.113e-5
-1.212, -4.049e-5
-1.211, -3.561e-5
-1.210, -3.910e-5
-1.209, -4.234e-5
-1.208, -3.650e-5
-1.207, -3.753e-5
-1.206, -4.308e-5
-1.205, -3.928e-5
-1.204, -3.618e-5
-1.203, -4.227e-5
-1.202, -4.160e-5
-1.201, -3.656e-5
-1.200, -4.006e-5
-1.199, -4.340e-5
-1.198, -3.781e-5
-1.197, -3.883e-5
-1.196, -4.411e-5
-1.195, -4.025e-5
-1.194, -3.719e-5
-1.193, -4.327e-5
-1.192, -4.236e-5
-1.191, -3.734e-5
-1.190, -4.126e-5
-1.189, -4.430e-5
-1.188, -3.875e-5
-1.187, -3.971e-5
-1.186, -4.468e-5
-1.185, -4.149e-5
-1.184, -3.817e-5
-1.183, -4.415e-5
-1.182, -4.392e-5
-1.181, -3.849e-5
-1.180, -4.236e-5
-1.179, -4.545e-5
-1.178, -3.991e-5
-1.177, -4.087e-5
-1.176, -4.572e-5
-1.175, -4.279e-5
-1.174, -3.956e-5
-1.173, -4.554e-5
-1.172, -4.466e-5
-1.171, -3.977e-5
-1.170, -4.334e-5
-1.169, -4.664e-5
-1.168, -4.081e-5
-1.167, -4.147e-5
-1.166, -4.712e-5
-1.165, -4.378e-5
-1.164, -4.040e-5
-1.163, -4.644e-5
-1.162, -4.567e-5
-1.161, -4.084e-5
-1.160, -4.407e-5
-1.159, -4.762e-5
-1.158, -4.183e-5
-1.157, -4.277e-5
-1.156, -4.782e-5
-1.155, -4.458e-5
-1.154, -4.117e-5
-1.153, -4.759e-5
-1.152, -4.666e-5
-1.151, -4.161e-5
-1.150, -4.534e-5
-1.149, -4.881e-5
-1.148, -4.286e-5
-1.147, -4.381e-5
-1.146, -4.873e-5
-1.145, -4.593e-5
-1.144, -4.227e-5
-1.143, -4.836e-5
-1.142, -4.804e-5
-1.141, -4.264e-5
-1.140, -4.630e-5
-1.139, -5.002e-5
-1.138, -4.394e-5
-1.137, -4.507e-5
-1.136, -4.985e-5
-1.135, -4.685e-5
-1.134, -4.372e-5
-1.133, -4.948e-5
-1.132, -4.905e-5
-1.131, -4.391e-5
-1.130, -4.730e-5
-1.129, -5.111e-5
-1.128, -4.503e-5
-1.127, -4.594e-5
-1.126, -5.151e-5
-1.125, -4.783e-5
-1.124, -4.469e-5
-1.123, -5.081e-5
-1.122, -5.019e-5
-1.121, -4.495e-5
-1.120, -4.862e-5
-1.119, -5.221e-5
-1.118, -4.655e-5
-1.117, -4.703e-5
-1.116, -5.277e-5
-1.115, -4.916e-5
-1.114, -4.571e-5
-1.113, -5.212e-5
-1.112, -5.147e-5
-1.111, -4.624e-5
-1.110, -4.992e-5
-1.109, -5.315e-5
-1.108, -4.753e-5
-1.107, -4.855e-5
-1.106, -5.374e-5
-1.105, -5.084e-5
-1.104, -4.697e-5
-1.103, -5.319e-5
-1.102, -5.309e-5
-1.101, -4.743e-5
-1.100, -5.159e-5
-1.099, -5.508e-5
-1.098, -4.900e-5
-1.097, -4.973e-5
-1.096, -5.541e-5
-1.095, -5.214e-5
-1.094, -4.906e-5
-1.093, -5.479e-5
-1.092, -5.453e-5
-1.091, -4.917e-5
-1.090, -5.285e-5
-1.089, -5.660e-5
-1.088, -5.054e-5
-1.087, -5.121e-5
-1.086, -5.714e-5
-1.085, -5.351e-5
-1.084, -5.036e-5
-1.083, -5.658e-5
-1.082, -5.595e-5
-1.081, -5.092e-5
-1.080, -5.445e-5
-1.079, -5.836e-5
-1.078, -5.230e-5
-1.077, -5.266e-5
-1.076, -5.881e-5
-1.075, -5.577e-5
-1.074, -5.218e-5
-1.073, -5.847e-5
-1.072, -5.820e-5
-1.071, -5.254e-5
-1.070, -5.661e-5
-1.069, -6.041e-5
-1.068, -5.443e-5
-1.067, -5.530e-5
-1.066, -6.092e-5
-1.065, -5.792e-5
-1.064, -5.420e-5
-1.063, -6.062e-5
-1.062, -6.061e-5
-1.061, -5.481e-5
-1.060, -5.869e-5
-1.059, -6.298e-5
-1.058, -5.667e-5
-1.057, -5.782e-5
-1.056, -6.340e-5
-1.055, -6.022e-5
-1.054, -5.669e-5
-1.053, -6.299e-5
-1.052, -6.317e-5
-1.051, -5.783e-5
-1.050, -6.150e-5
-1.049, -6.599e-5
-1.048, -5.964e-5
-1.047, -6.021e-5
-1.046, -6.666e-5
-1.045, -6.356e-5
-1.044, -5.985e-5
-1.043, -6.655e-5
-1.042, -6.644e-5
-1.041, -6.087e-5
-1.040, -6.466e-5
-1.039, -6.918e-5
-1.038, -6.311e-5
-1.037, -6.386e-5
-1.036, -7.014e-5
-1.035, -6.698e-5
-1.034, -6.324e-5
-1.033, -7.039e-5
-1.032, -7.042e-5
-1.031, -6.473e-5
-1.030, -6.889e-5
-1.029, -7.301e-5
-1.028, -6.722e-5
-1.027, -6.807e-5
-1.026, -7.442e-5
-1.025, -7.171e-5
-1.024, -6.807e-5
-1.023, -7.469e-5
-1.022, -7.545e-5
-1.021, -6.945e-5
-1.020, -7.353e-5
-1.019, -7.840e-5
-1.018, -7.242e-5
-1.017, -7.318e-5
-1.016, -7.972e-5
-1.015, -7.679e-5
-1.014, -7.315e-5
-1.013, -8.011e-5
-1.012, -8.096e-5
-1.011, -7.522e-5
-1.010, -7.955e-5
-1.009, -8.440e-5
-1.008, -7.859e-5
-1.007, -7.927e-5
-1.006, -8.673e-5
-1.005, -8.347e-5
-1.004, -7.979e-5
-1.003, -8.725e-5
-1.002, -8.806e-5
-1.001, -8.236e-5
