Potential V vs RHE, Current mA cm-2
0.013299999999999867,0.3221297629792688
0.012299999999999978,0.2273441058883114
0.011299999999999866,0.1734436053634535
0.010299999999999976,0.1351332233631083
0.009299999999999864,0.10065670898539736
0.008299999999999974,0.07469675663287394
0.007299999999999862,0.05180672780105764
0.006299999999999972,0.03129341395301461
0.00529999999999986,0.014401761032626074
0.0042999999999999705,-0.0029029875873230553
0.0032999999999998586,-0.01769803836131161
0.0022999999999999687,-0.032637389687886396
0.0012999999999998568,-0.04770406503144904
0.00029999999999996696,-0.058597342040409825
-0.000700000000000145,-0.06947647193637195
-0.0017000000000000348,-0.08358114359602638
-0.0027000000000001467,-0.0944602734919885
-0.0037000000000000366,-0.10354272003712203
-0.0047000000000001485,-0.11401158365612331
-0.005700000000000038,-0.1257253932190058
-0.00670000000000015,-0.13647719909798006
-0.00770000000000004,-0.14812027309586934
-0.008700000000000152,-0.15901355010483012
-0.009700000000000042,-0.17103859615368294
-0.010700000000000154,-0.18631747819222533
-0.011700000000000044,-0.20004017780091618
-0.012700000000000156,-0.21475317531951257
-0.013700000000000045,-0.2281929326682304
-0.014700000000000157,-0.24446211261667833
-0.015700000000000047,-0.2614386482150588
-0.01670000000000016,-0.27898106833338526
-0.01770000000000005,-0.2958161328017792
-0.01870000000000016,-0.310104716930416
-0.01970000000000005,-0.32269564749921487
-0.020700000000000163,-0.3392477697076358
-0.021700000000000053,-0.35127281575648867
-0.022700000000000164,-0.366268755535058
-0.023700000000000054,-0.37772791706396475
-0.024700000000000166,-0.38918707859287155
-0.025700000000000056,-0.4024853648116029
-0.026700000000000168,-0.4133786418205638
-0.027700000000000058,-0.4263939857793221
-0.02870000000000017,-0.4408240410379454
-0.02970000000000006,-0.45171731804690624
-0.03070000000000017,-0.46756208460539456
-0.03170000000000006,-0.48340685116388304
-0.03270000000000017,-0.4991101465923849
-0.03370000000000006,-0.5146719708909003
-0.034700000000000175,-0.5315070353592943
-0.035700000000000065,-0.5489079843476343
-0.03670000000000018,-0.5697042404556503
-0.03770000000000007,-0.5871051894439903
-0.03870000000000018,-0.6047890806923032
-0.03970000000000007,-0.6214826740307106
-0.04070000000000018,-0.6419959878787537
-0.04170000000000007,-0.659821350257053
-0.04270000000000018,-0.6784955394152716
-0.04370000000000007,-0.694906190493706
-0.044700000000000184,-0.7124486106120325
-0.045700000000000074,-0.7280104349105478
-0.046700000000000186,-0.7454113838988878
-0.047700000000000076,-0.7615390927173492
-0.04870000000000019,-0.7763935613659322
-0.04970000000000008,-0.7913895011445016
-0.05070000000000019,-0.8041219028432868
-0.05170000000000008,-0.8189763714918699
-0.05270000000000019,-0.8331234844905201
-0.05370000000000008,-0.8442997037594538
-0.05470000000000019,-0.8561832786783202
-0.05570000000000008,-0.8662277289073619
-0.056700000000000195,-0.8795260151260933
-0.057700000000000085,-0.8911266477849867
-0.058700000000000196,-0.8991905021942173
-0.059700000000000086,-0.9073958277334346
-0.0607000000000002,-0.9211185273421254
-0.06170000000000009,-0.9293238528813426
-0.0627000000000002,-0.9399341876303302
-0.06370000000000009,-0.94601744621975
-0.0647000000000002,-0.9537983583690077
-0.06570000000000009,-0.9617207416482519
-0.0667000000000002,-0.9683698847576176
-0.0677000000000001,-0.9760093257768889
-0.0687000000000002,-0.9829414111462275
-0.0697000000000001,-0.9869026027858494
-0.07070000000000021,-0.9945420438051207
-0.0717000000000001,-1.0006253023945404
-0.07270000000000021,-1.0055767919440681
-0.0737000000000001,-1.013357704093326
-0.07470000000000021,-1.0178847802528939
-0.0757000000000001,-1.023543625452354
-0.07670000000000021,-1.0296268840417737
-0.0777000000000001,-1.036134556021153
-0.07870000000000021,-1.0416519300906264
-0.0797000000000001,-1.0441984104303836
-0.08070000000000022,-1.0484425443299785
-0.0817000000000001,-1.0552331585693309
-0.08270000000000022,-1.0607505326388047
-0.08370000000000011,-1.0662679067082783
-0.08470000000000022,-1.0698046849579408
-0.08570000000000011,-1.0716438096477652
-0.08670000000000022,-1.0781514816271445
-0.08770000000000011,-1.0835273845666316
-0.08870000000000022,-1.0864982782963482
-0.08970000000000011,-1.0911668255859028
-0.09070000000000022,-1.0956939017454708
-0.09170000000000011,-1.099655093385093
-0.09270000000000023,-1.1058798231044993
-0.09370000000000012,-1.1087092457042291
-0.09470000000000023,-1.1104068992640672
-0.09570000000000012,-1.115075446553622
-0.09670000000000023,-1.1188951670632574
-0.09770000000000012,-1.1255443101726232
-0.09870000000000023,-1.1269590214724883
-0.09970000000000012,-1.1290810884222857
-0.10070000000000023,-1.136154644921611
-0.10170000000000012,-1.1379937696114355
-0.10270000000000024,-1.1450673261107607
-0.10370000000000013,-1.1473308641905449
-0.10470000000000024,-1.14832116210045
-0.10570000000000013,-1.152989709390005
-0.10670000000000024,-1.156667958769654
-0.10770000000000013,-1.1616194483191815
-0.10870000000000024,-1.1655806399588036
-0.10970000000000013,-1.1658635822187766
-0.11070000000000024,-1.1716638985482233
-0.11170000000000013,-1.174917734537913
-0.11270000000000002,-1.179444810697481
-0.11370000000000013,-1.1855280692869008
-0.11470000000000002,-1.1870842517167524
-0.11570000000000014,-1.1921772123962666
-0.11670000000000003,-1.1971287019457941
-0.11770000000000014,-1.1999581245455242
-0.11870000000000003,-1.2036363739251732
-0.11970000000000014,-1.2068902099148628
-0.12070000000000003,-1.210851401554485
-0.12170000000000014,-1.2143881798041476
-0.12270000000000003,-1.2196226116136482
-0.12370000000000014,-1.2191981982236886
-0.12470000000000003,-1.2227349764733513
-0.12570000000000014,-1.2278279371528653
-0.12670000000000003,-1.23249648444242
-0.12770000000000015,-1.2368820894720016
-0.12870000000000004,-1.2394285698117586
-0.12970000000000015,-1.2419750501515157
-0.13070000000000004,-1.2452288861412053
-0.13170000000000015,-1.2486241932608813
-0.13270000000000004,-1.2565465765401254
-0.13370000000000015,-1.2603662970497613
-0.13470000000000004,-1.2617810083496264
-0.13570000000000015,-1.2677227958090596
-0.13670000000000004,-1.2726742853585868
-0.13770000000000016,-1.2769184192581822
-0.13870000000000005,-1.280030784117885
-0.13970000000000016,-1.2856896293173452
-0.14070000000000005,-1.2910655322568325
-0.14170000000000016,-1.2944608393765085
-0.14270000000000005,-1.2992708577960497
-0.14370000000000016,-1.3032320494356717
-0.14470000000000005,-1.3059200009054155
-0.14570000000000016,-1.3138423841846596
-0.14670000000000005,-1.3204915272940252
-0.14770000000000016,-1.3224721231138363
-0.14870000000000005,-1.3240283055436879
-0.14970000000000017,-1.328838323963229
-0.15070000000000006,-1.333365400122797
-0.15170000000000017,-1.3411463122720548
-0.15270000000000006,-1.3444001482617445
-0.15370000000000017,-1.3494931089412585
-0.15470000000000006,-1.3534543005808806
-0.15570000000000017,-1.3579813767404485
-0.15670000000000006,-1.365054933239774
-0.15770000000000017,-1.369299067139369
-0.15870000000000006,-1.3766555658986672
-0.15970000000000018,-1.3794849884983973
-0.16070000000000007,-1.3848608914378844
-0.16170000000000018,-1.3929247458471152
-0.16270000000000007,-1.3971688797467103
-0.16370000000000018,-1.4035350805961027
-0.16470000000000007,-1.411174521615374
-0.16570000000000018,-1.4189554337646317
-0.16670000000000007,-1.426028990263957
-0.16770000000000018,-1.431687835463417
-0.16870000000000007,-1.4373466806628774
-0.16970000000000018,-1.4444202371622026
-0.17070000000000007,-1.4514937936615278
-0.17170000000000019,-1.4585673501608527
-0.17270000000000008,-1.4670556179600431
-0.1737000000000002,-1.471299751859638
-0.17470000000000008,-1.4783733083589634
-0.1757000000000002,-1.4854468648582886
-0.17670000000000008,-1.4939351326574788
-0.1777000000000002,-1.5038381117565338
-0.17870000000000008,-1.5094969569559942
-0.1797000000000002,-1.5193999360550492
-0.18070000000000008,-1.5293029151541047
-0.1817000000000002,-1.53920589425316
-0.18270000000000008,-1.55052358465208
-0.1837000000000002,-1.5561824298515403
-0.1847000000000001,-1.5632559863508655
-0.1857000000000002,-1.5759883880496508
-0.1867000000000001,-1.584476655848841
-0.1877000000000002,-1.5957943462477613
-0.1887000000000001,-1.6056973253468165
-0.1897000000000002,-1.6156003044458718
-0.1907000000000001,-1.6255032835449272
-0.1917000000000001,-1.6368209739438475
-0.19269999999999998,-1.6467239530429028
-0.1937000000000001,-1.658041643441823
-0.19469999999999998,-1.6651151999411482
-0.1957000000000001,-1.6778476016399335
-0.19669999999999999,-1.690580003338719
-0.1977000000000001,-1.7033124050375041
-0.1987,-1.7160448067362895
-0.1997000000000001,-1.7259477858353447
-0.2007,-1.7443390327335901
-0.2017000000000001,-1.7570714344323757
-0.2027,-1.771218547431026
-0.2037000000000001,-1.781121526530081
-0.2047,-1.7952686395287314
-0.2057000000000001,-1.8108304638272468
-0.2067,-1.823562865526032
-0.2077000000000001,-1.8391246898245475
-0.2087,-1.8518570915233332
-0.2097000000000001,-1.8674189158218486
-0.2107,-1.882980740120364
-0.2117000000000001,-1.8985425644188794
-0.2127,-1.9183485226169896
-0.2137000000000001,-1.9324956356156402
-0.2147,-1.9508868825138854
-0.2157000000000001,-1.972107552011861
-0.2167,-1.9876693763103765
-0.21770000000000012,-2.007475334508487
-0.2187,-2.0244518701068674
-0.21970000000000012,-2.042843117005113
-0.2207,-2.0612343639033583
-0.22170000000000012,-2.081040322101469
-0.2227,-2.10367570289931
-0.22370000000000012,-2.122066949797555
-0.2247,-2.1432876192955304
-0.22570000000000012,-2.1659230000933714
-0.2267,-2.1857289582914814
-0.22770000000000012,-2.2111937616890525
-0.22870000000000001,-2.230999719887163
-0.22970000000000013,-2.2550498119848683
-0.23070000000000002,-2.280514615382439
-0.23170000000000013,-2.30314999618028
-0.23270000000000002,-2.330029510877715
-0.23370000000000013,-2.352664891675556
-0.23470000000000002,-2.380959117672857
-0.23570000000000013,-2.407838632370292
-0.23670000000000002,-2.436132858367593
-0.2376999999999999,-2.465841795664759
-0.23870000000000002,-2.49413602166206
-0.2396999999999999,-2.5280890928588207
-0.24070000000000003,-2.5592127414558514
-0.24169999999999991,-2.588921678753017
-0.24270000000000003,-2.6200453273500477
-0.24369999999999992,-2.6511689759470785
-0.24470000000000003,-2.6865367584437045
-0.24569999999999992,-2.719075118340601
-0.24670000000000003,-2.7586870347368215
-0.24769999999999992,-2.794054817233447
-0.24870000000000003,-2.8294225997300737
-0.24969999999999992,-2.8690345161262942
-0.25070000000000003,-2.9072317212226504
-0.2516999999999999,-2.9468436376188714
-0.25270000000000004,-2.989284976614823
-0.2536999999999999,-3.0260674704113137
-0.25470000000000004,-3.0713382320069944
-0.2556999999999999,-3.119438416202406
-0.25670000000000004,-3.164709177798087
-0.25769999999999993,-3.211394650693633
-0.25870000000000004,-3.2552507009894494
-0.25969999999999993,-3.303350885184861
-0.26070000000000004,-3.355695203279867
-0.26169999999999993,-3.4066248100750083
-0.26270000000000004,-3.4632132620696097
-0.26369999999999993,-3.5113134462650213
-0.26470000000000005,-3.566487186959758
-0.26569999999999994,-3.6216609276544935
-0.26670000000000005,-3.686737647448285
-0.26769999999999994,-3.744740810742752
-0.26870000000000005,-3.8055733966369485
-0.26969999999999994,-3.8649912712312804
-0.27070000000000005,-3.9300679910250715
-0.27169999999999994,-3.9909005769192687
-0.27270000000000005,-4.060221430612655
-0.27369999999999994,-4.121054016506851
-0.27470000000000006,-4.191789581500104
-0.27569999999999995,-4.259695723893626
-0.27670000000000006,-4.3332607114866075
-0.27769999999999995,-4.405410987779724
-0.27870000000000006,-4.481805397972437
-0.27969999999999995,-4.558199808165148
-0.28070000000000006,-4.63742364095759
-0.28169999999999995,-4.712403339850438
-0.28270000000000006,-4.791627172642879
-0.28369999999999995,-4.872265716735186
-0.28470000000000006,-4.947245415628033
-0.28569999999999995,-5.034957516219666
-0.28670000000000007,-5.1198401942115686
-0.28769999999999996,-5.214625851302525
-0.28870000000000007,-5.305167374493887
-0.28969999999999996,-5.397123608985115
-0.29070000000000007,-5.480591575677152
-0.29169999999999996,-5.582450789267434
-0.29270000000000007,-5.681480580257988
-0.29369999999999996,-5.776266237348945
-0.2947000000000001,-5.873881317039633
-0.29569999999999996,-5.977155241929781
-0.2967000000000001,-6.080429166819927
-0.29769999999999996,-6.189361936909536
-0.2987000000000001,-6.291221150499819
-0.29969999999999997,-6.40156863188929
-0.3007000000000001,-6.517574958478224
-0.30169999999999997,-6.630751862467427
-0.3027000000000001,-6.74958761165609
-0.30369999999999997,-6.851446825246373
-0.3047000000000001,-6.973111997034766
-0.30569999999999997,-7.090533034923564
-0.3067000000000001,-7.215027629311687
-0.3077,-7.340936934999675
-0.3087000000000001,-7.471090374587258
-0.3097,-7.588511412476056
-0.3107000000000001,-7.711591295564315
-0.3117,-7.845988869051494
-0.3127000000000001,-7.9888747103378615
-0.3137,-8.127516417724635
-0.3147000000000001,-8.26615812511141
-0.3157,-8.403385121198317
-0.3167000000000001,-8.537782694685495
-0.3177,-8.662277289073618
-0.3187000000000001,-8.81931024335864
-0.3197,-8.960781373345142
-0.3207000000000001,-9.11781432763016
-0.3217,-9.257870746316799
-0.3227000000000001,-9.419147834501414
-0.3237,-9.571936654886837
-0.3247000000000001,-9.727554897871993
-0.3257,-9.870440739158362
-0.3267000000000001,-10.03313253864284
-0.3277,-10.19299491552759
-0.3287000000000001,-10.36983382801072
-0.3297,-10.579211100390744
-0.3307000000000001,-10.73765876597563
-0.3317,-10.884788741161593
-0.3327000000000001,-11.070115921443913
-0.3337,-11.229978298328662
-0.3347000000000001,-11.409646633411523
-0.3357,-11.58082670069519
-0.3367000000000001,-11.739274366280075
-0.3377,-11.94299279346064
-0.3387000000000001,-12.108514015544849
-0.3397,-12.302329463626359
-0.3407000000000001,-12.472094819610163
-0.3417,-12.674398535490864
-0.3427000000000001,-12.845578602774532
-0.3437,-13.045052896055504
-0.3447000000000001,-13.233209498937551
-0.3457,-13.435513214818254
-0.3467000000000001,-13.610937416001518
-0.3477,-13.792020462384242
-0.3487000000000001,-13.998568312164537
-0.3497,-14.189554337646317
-0.3507000000000001,-14.387613919627421
-0.3517,-14.585673501608527
-0.3527000000000001,-14.812027309586934
-0.3537,-15.02423400456669
-0.3547000000000001,-15.278882038542395
-0.3557,-15.4769416205235
-0.35670000000000013,-15.70329542850191
-0.3577,-15.901355010483012
-0.35870000000000013,-16.099414592464115
-0.3597,-16.29747417444522
-0.36070000000000013,-16.50968086942498
-0.3617,-16.736034677403385
-0.3626999999999999,-16.962388485381787
-0.3637,-17.188742293360193
-0.3646999999999999,-17.4150961013386
-0.3657,-17.627302796318357
-0.3666999999999999,-17.825362378299463
-0.3677,-18.09415752527382
-0.3686999999999999,-18.320511333252224
-0.36970000000000003,-18.53271802823198
-0.3706999999999999,-18.759071836210385
-0.37170000000000003,-18.95713141819149
-0.3726999999999999,-19.22592656516585
-0.37370000000000003,-19.466427486142905
-0.3746999999999999,-19.678634181122664
-0.37570000000000003,-19.919135102099716
-0.3766999999999999,-20.159636023076775
-0.37770000000000004,-20.400136944053827
-0.3786999999999999,-20.626490752032236
-0.37970000000000004,-20.881138786007945
-0.3806999999999999,-21.13578681998365
-0.38170000000000004,-21.376287740960702
-0.38269999999999993,-21.744112678925614
-0.38370000000000004,-21.97046648690402
-0.38469999999999993,-22.182673181883775
-0.38570000000000004,-22.46561544185678
-0.38669999999999993,-22.691969249835186
-0.38770000000000004,-23.017352848804148
-0.38869999999999993,-23.314442221775803
-0.38970000000000005,-23.55494314275286
-0.39069999999999994,-23.781296950731264
-0.39170000000000005,-24.021797871708326
-0.39269999999999994,-24.31888724467998
-0.39370000000000005,-24.587682391654337
-0.39469999999999994,-25.04039000761115
-0.39570000000000005,-25.295038041586857
-0.39669999999999994,-25.521391849565262
-0.39770000000000005,-25.81848122253692
-0.39869999999999994,-26.073129256512626
-0.39970000000000006,-26.34192440348698
-0.40069999999999995,-26.61071955046134
-0.40170000000000006,-26.9643973754276
-0.40269999999999995,-27.261486748399253
-0.40370000000000006,-27.65760591236147
-0.40469999999999995,-27.883959720339874
-0.40570000000000006,-28.11031352831828
-0.40669999999999995,-28.350814449295335
-0.40770000000000006,-28.633756709268344
-0.40869999999999995,-28.91669896924135
-0.40970000000000006,-29.539171941181966
-0.41069999999999995,-29.751378636161718
-0.41170000000000007,-30.03432089613473
-0.41269999999999996,-30.402145834099635
-0.41370000000000007,-30.741676546067247
-0.41469999999999996,-31.29341395301461
-0.41570000000000007,-31.618797551983565
-0.41669999999999996,-31.85929847296063
-0.41770000000000007,-32.21297629792688
-0.41869999999999996,-32.48177144490124
-0.4197000000000001,-32.84959638286615
-0.42069999999999996,-33.11839152984051
-0.4217000000000001,-33.42962801581082
-0.42269999999999996,-33.783305840777075
-0.4237000000000001,-34.221866343735236
-0.42469999999999997,-34.47651437771095
-0.4257000000000001,-34.90092776767045
-0.42669999999999997,-35.12728157564886
-0.4277000000000001,-35.53754785260972
-0.42869999999999997,-35.82049011258273
-0.4297000000000001,-36.16002082455034
-0.43069999999999997,-36.49955153651795
-0.4317000000000001,-36.98055337847206
-0.4327,-37.235201412447765
-0.4337000000000001,-37.54643789841808
-0.4347,-37.801085932393775
-0.4357000000000001,-38.18305798335734
-0.4367,-38.43770601733305
-0.4377000000000001,-38.791383842299304
-0.4387,-39.046031876275016
-0.4397000000000001,-39.48459237923317
-0.4407,-39.78168175220483
-0.4417000000000001,-40.220242255162994
-0.4427,-40.545625854131956
-0.4437000000000001,-40.95589213109281
-0.4447,-41.32371706905772
-0.4457000000000001,-41.74813045901723
-0.4467,-42.39889765695515
-0.4477000000000001,-42.766722594920054
-0.4487,-43.34675422786472
-0.4497000000000001,-43.643843600836384
-0.4507,-44.096551216793195
-0.4517000000000001,-44.36534636376755
-0.4527,-44.81805397972436
-0.4537000000000001,-45.242467369683865
-0.4547,-45.75176343763528
-0.4557000000000001,-46.162029714596144
-0.4567,-46.37423640957591
-0.4577000000000001,-46.75620846053947
-0.4587,-47.01085649451517
-0.4597000000000001,-47.435269884474685
-0.4607,-47.76065348344364
-0.4617000000000001,-48.2558024383964
-0.4627,-48.567038924366706
-0.4637000000000001,-48.920716749332975
-0.4647,-49.18951189630732
-0.4657000000000001,-49.628072399265484
-0.4667,-49.95345599823444
-0.4677000000000001,-50.50519340518181
-0.4687,-50.915459682142675
-0.4697000000000001,-51.31157884610488
-0.4707,-51.665256671071134
-0.4717000000000001,-52.033081609036046
-0.4727,-52.44334788599691
-0.4737000000000001,-52.83946704995912
-0.4747,-53.476087134898386
-0.4757000000000001,-53.815617846866
-0.4767,-54.38150236681201
-0.4777000000000001,-54.876651321764776
-0.4787,-55.032269564749924
-0.4797000000000001,-55.385947389716186
-0.4807,-55.76791944067975
-0.48170000000000013,-56.22062705663656
-0.4827,-56.67333467259337
-0.48370000000000013,-57.550455678509685
-0.4847,-57.86169216448
-0.48570000000000013,-58.07389885945976
-0.4867,-57.819250825484055
-0.48570000000000013,-57.06945383655558
-0.4847,-56.37624529962171
-0.48370000000000013,-55.68303676268785
-0.4827,-55.018122451751275
-0.48170000000000013,-54.35320814081471
-0.4807,-53.84391207286329
-0.4797000000000001,-53.20729198792403
-0.4787,-52.514083450990164
-0.4777000000000001,-52.00478738303875
-0.4767,-51.26913750710893
-0.4757000000000001,-50.75984143915752
-0.4747,-50.43445784018856
-0.4737000000000001,-49.95345599823444
-0.4727,-49.373424365289786
-0.4717000000000001,-48.75095139334916
-0.4707,-48.2275082123991
-0.4697000000000001,-47.73235925744634
-0.4687,-47.29379875448818
-0.4677000000000001,-46.61473733055296
