Potential V vs RHE, Current mA cm-2
0.05339999999999995,5.131157884610488
0.05239999999999995,5.01939569192115
0.051399999999999946,4.870851005435322
0.050399999999999945,4.730794586748683
0.049399999999999944,4.599226435861234
0.04839999999999994,4.473317130173245
0.04739999999999994,4.354481380984582
0.04639999999999994,4.238475054395651
0.04539999999999994,4.125298150406447
0.04439999999999994,4.01636538031684
0.04339999999999994,3.910262032826961
0.04239999999999994,3.8055733966369485
0.04139999999999994,3.7037141830466664
0.040399999999999936,3.6018549694563835
0.039399999999999935,3.502825178465831
0.038399999999999934,3.405210098775143
0.03739999999999993,3.307595019084456
0.03639999999999993,3.214224073293363
0.03539999999999993,3.120853127502271
0.03439999999999993,3.0274821817111786
0.03339999999999993,2.9369406585198163
0.03239999999999993,2.8478138466283185
0.03139999999999993,2.7586870347368215
0.030399999999999927,2.6723896454450546
0.029399999999999926,2.584677544853422
0.028399999999999925,2.49979486686152
0.027399999999999924,2.4163269001694827
0.026399999999999924,2.3328589334774454
0.025399999999999923,2.250805678085273
0.024399999999999922,2.1701671339929662
0.02339999999999992,2.0895285899006595
0.02239999999999992,2.011719468408082
0.02139999999999992,1.933910346915505
0.020399999999999918,1.8561012254229279
0.019399999999999917,1.781121526530081
0.018399999999999916,1.7047271163373692
0.017399999999999916,1.6311621287443874
0.016399999999999915,1.5590118524512704
0.015399999999999914,1.4854468648582886
0.014399999999999913,1.4144283576050638
0.013399999999999912,1.3438342637417984
0.012399999999999911,1.2743719389184252
0.01139999999999991,1.2058999120049574
0.01039999999999991,1.138135240741422
0.009399999999999908,1.0712193962578058
0.008399999999999908,1.005293849684095
0.007399999999999907,0.9406415432802627
0.006399999999999906,0.8764136502663903
0.005399999999999905,0.8126101706424771
0.004399999999999904,0.7497969889284695
0.003399999999999903,0.6883985185143269
0.002399999999999902,0.6275659326201303
0.0013999999999999013,0.5674407023758662
0.00039999999999990044,0.5077398855215616
-0.0006000000000001005,0.4491708377071491
-0.0016000000000001013,0.3915920878026421
-0.0026000000000001022,0.3345792224180812
-0.003600000000000103,0.27855665494342574
-0.004600000000000104,0.2232414431187028
-0.005600000000000105,0.16792623129397988
-0.006600000000000106,0.11435111436809091
-0.007600000000000107,0.061440911753138545
-0.008600000000000108,0.009160255666626113
-0.009600000000000108,-0.042568663012938955
-0.01060000000000011,-0.09386609474604518
-0.01160000000000011,-0.14430055258623375
-0.012600000000000111,-0.19480574599141554
-0.013600000000000112,-0.2443206414866918
-0.014600000000000113,-0.2921378834221301
-0.015600000000000114,-0.34009659648755486
-0.016600000000000115,-0.386499127123128
-0.017600000000000116,-0.4320528309787822
-0.018600000000000116,-0.47803094822439585
-0.019600000000000117,-0.5231602386900907
-0.020600000000000118,-0.5671577601158931
-0.02160000000000012,-0.6108723392817229
-0.02260000000000012,-0.6535966205376469
-0.02360000000000012,-0.6964623729235576
-0.024600000000000122,-0.7384792985295492
-0.025600000000000123,-0.7799303396155948
-0.026600000000000124,-0.8210984384416673
-0.027600000000000124,-0.8609932970978613
-0.028600000000000125,-0.9004637423640959
-0.029600000000000126,-0.9399341876303302
-0.030600000000000127,-0.9784143349866592
-0.03160000000000013,-1.0168944823429882
-0.03260000000000013,-1.0546672740493848
-0.03360000000000013,-1.0915912389758624
-0.03460000000000002,-1.1285152039023398
-0.03560000000000002,-1.164590342048898
-0.03660000000000002,-1.2003825379354838
-0.03760000000000002,-1.2363162049520557
-0.03860000000000002,-1.2709766317987488
-0.039600000000000024,-1.305495587515456
-0.040600000000000025,-1.3398730721021763
-0.041600000000000026,-1.373260258778991
-0.04260000000000003,-1.4065059743258195
-0.04360000000000003,-1.4401761032626073
-0.04460000000000003,-1.472714463159503
-0.04560000000000003,-1.5038381117565338
-0.04660000000000003,-1.5349617603535646
-0.04760000000000003,-1.5675001202504606
-0.04860000000000003,-1.5986237688474914
-0.04960000000000003,-1.6283327061446573
-0.050600000000000034,-1.6594563547416883
-0.051600000000000035,-1.6891652920388538
-0.052600000000000036,-1.7188742293360195
-0.053600000000000037,-1.7485831666331852
-0.05460000000000004,-1.776877392630486
-0.05560000000000004,-1.8065863299276517
-0.05660000000000004,-1.8348805559249526
-0.05760000000000004,-1.8631747819222533
-0.05860000000000004,-1.891469007919554
-0.05960000000000004,-1.9197632339168547
-0.06060000000000004,-1.9466427486142908
-0.061600000000000044,-1.9735222633117262
-0.06260000000000004,-2.0004017780091616
-0.06360000000000005,-2.0272812927065975
-0.06460000000000005,-2.054160807404033
-0.06560000000000005,-2.081040322101469
-0.06660000000000005,-2.1065051254990395
-0.06760000000000005,-2.13196992889661
-0.06860000000000005,-2.1574347322941807
-0.06960000000000005,-2.1828995356917518
-0.07060000000000005,-2.208364339089322
-0.07160000000000005,-2.2338291424868926
-0.07260000000000005,-2.2592939458844636
-0.07360000000000005,-2.283344037982169
-0.07460000000000006,-2.30880884137974
-0.07560000000000006,-2.3328589334774454
-0.07660000000000006,-2.3569090255751513
-0.07760000000000006,-2.380959117672857
-0.07860000000000006,-2.4050092097705624
-0.07960000000000006,-2.4290593018682682
-0.08060000000000006,-2.4531093939659736
-0.08160000000000006,-2.475744774763814
-0.08260000000000006,-2.49979486686152
-0.08360000000000006,-2.5224302476593605
-0.08460000000000006,-2.546480339757066
-0.08560000000000006,-2.5691157205549064
-0.08660000000000007,-2.5931658126526123
-0.08760000000000007,-2.615801193450453
-0.08860000000000007,-2.6384365742482934
-0.08960000000000007,-2.661071955046134
-0.09060000000000007,-2.6837073358439745
-0.09160000000000007,-2.706342716641815
-0.09260000000000007,-2.7289780974396556
-0.09360000000000007,-2.7516134782374966
-0.09460000000000007,-2.7742488590353367
-0.09560000000000007,-2.7968842398331777
-0.09660000000000007,-2.819519620631018
-0.09760000000000008,-2.840740290128994
-0.09860000000000008,-2.863375670926834
-0.09960000000000008,-2.8860110517246746
-0.10060000000000008,-2.9086464325225156
-0.10160000000000008,-2.9312818133203558
-0.10260000000000008,-2.9525024828183315
-0.10360000000000008,-2.975137863616172
-0.10460000000000008,-2.997773244414013
-0.10560000000000008,-3.0204086252118536
-0.10660000000000008,-3.041629294709829
-0.10760000000000008,-3.0642646755076695
-0.10860000000000009,-3.0854853450056448
-0.10960000000000009,-3.1081207258034858
-0.11060000000000009,-3.1307561066013263
-0.11160000000000009,-3.153391487399167
-0.11260000000000009,-3.1760268681970074
-0.11360000000000009,-3.1972475376949827
-0.11460000000000009,-3.2212976297926885
-0.11560000000000009,-3.2453477218903943
-0.11660000000000009,-3.2665683913883696
-0.1176000000000001,-3.2892037721862106
-0.1186000000000001,-3.3118391529840507
-0.1196000000000001,-3.3344745337818917
-0.1206000000000001,-3.357109914579732
-0.1216000000000001,-3.379745295377573
-0.1226000000000001,-3.402380676175413
-0.1236000000000001,-3.4250160569732535
-0.1246000000000001,-3.447651437771094
-0.1256000000000001,-3.4702868185689346
-0.1266000000000001,-3.492922199366775
-0.1276000000000001,-3.515557580164616
-0.1286000000000001,-3.539607672262322
-0.1296000000000001,-3.562243053060162
-0.1306000000000001,-3.586293145157868
-0.1316000000000001,-3.608928525955709
-0.1326000000000001,-3.6315639067535495
-0.1336000000000001,-3.6556139988512544
-0.1346000000000001,-3.678249379649095
-0.1356000000000001,-3.702299471746801
-0.1366000000000001,-3.7263495638445066
-0.1376000000000001,-3.748984944642347
-0.1386000000000001,-3.7730350367400525
-0.1396000000000001,-3.7970851288377587
-0.1406000000000001,-3.821135220935464
-0.14160000000000011,-3.84518531303317
-0.14260000000000012,-3.869235405130875
-0.14360000000000012,-3.8918707859287163
-0.14460000000000012,-3.9173355893262864
-0.14560000000000012,-3.9413856814239923
-0.14660000000000012,-3.965435773521698
-0.14760000000000012,-3.9894858656194034
-0.14860000000000012,-4.013535957717109
-0.14960000000000012,-4.03900076111468
-0.15060000000000012,-4.06163614191252
-0.15160000000000012,-4.08710094531009
-0.15260000000000012,-4.111151037407797
-0.15360000000000013,-4.136615840805367
-0.15460000000000013,-4.160665932903073
-0.15560000000000013,-4.184716025000778
-0.15660000000000013,-4.21018082839835
-0.15760000000000013,-4.234230920496055
-0.15860000000000013,-4.259695723893626
-0.15960000000000002,-4.285160527291196
-0.16060000000000002,-4.309210619388901
-0.16160000000000002,-4.334675422786473
-0.16260000000000002,-4.358725514884178
-0.16360000000000002,-4.384190318281749
-0.16460000000000002,-4.40965512167932
-0.16560000000000002,-4.436534636376755
-0.16660000000000003,-4.4648288623740555
-0.16760000000000003,-4.490293665771627
-0.16860000000000003,-4.514343757869332
-0.16960000000000003,-4.539808561266903
-0.17060000000000003,-4.565273364664473
-0.17160000000000003,-4.590738168062044
-0.17260000000000003,-4.61478826015975
-0.17360000000000003,-4.6416677748571855
-0.17460000000000003,-4.665717866954891
-0.17560000000000003,-4.691182670352461
-0.17660000000000003,-4.716647473750032
-0.17760000000000004,-4.742112277147603
-0.17860000000000004,-4.767577080545174
-0.17960000000000004,-4.793041883942744
-0.18060000000000004,-4.818506687340315
-0.18160000000000004,-4.8453862020377505
-0.18260000000000004,-4.869436294135457
-0.18360000000000004,-4.894901097533027
-0.18460000000000004,-4.921780612230462
-0.18560000000000004,-4.947245415628033
-0.18660000000000004,-4.972710219025604
-0.18760000000000004,-4.998175022423175
-0.18860000000000005,-5.023639825820745
-0.18960000000000005,-5.0491046292183155
-0.19060000000000005,-5.0745694326158866
-0.19160000000000005,-5.100034236013457
-0.19260000000000005,-5.125499039411029
-0.19360000000000005,-5.150963842808599
-0.19460000000000005,-5.17642864620617
-0.19560000000000005,-5.201893449603739
-0.19660000000000005,-5.22735825300131
-0.19760000000000005,-5.252823056398881
-0.19860000000000005,-5.276873148496587
-0.19960000000000006,-5.302337951894157
-0.20060000000000006,-5.327802755291728
-0.20160000000000006,-5.351852847389433
-0.20260000000000006,-5.377317650787004
-0.20360000000000006,-5.4027824541845755
-0.20460000000000006,-5.426832546282281
-0.20560000000000006,-5.452297349679851
-0.20660000000000006,-5.476347441777556
-0.20760000000000006,-5.5003975338752635
-0.20860000000000006,-5.524447625972968
-0.20960000000000006,-5.548497718070673
-0.21060000000000006,-5.572547810168379
-0.21160000000000007,-5.59801261356595
-0.21260000000000007,-5.62064799436379
-0.21360000000000007,-5.644698086461496
-0.21460000000000007,-5.668748178559202
-0.21560000000000007,-5.6913835593570425
-0.21660000000000007,-5.715433651454749
-0.21760000000000007,-5.739483743552454
-0.21860000000000007,-5.762119124350295
-0.21960000000000007,-5.784754505148135
-0.22060000000000007,-5.807389885945976
-0.22160000000000007,-5.830025266743816
-0.22260000000000008,-5.851245936241792
-0.22360000000000008,-5.873881317039633
-0.22460000000000008,-5.8951019865376075
-0.22560000000000008,-5.916322656035583
-0.22660000000000008,-5.938958036833425
-0.22760000000000008,-5.9601787063314
-0.22860000000000008,-5.97998466452951
-0.22960000000000008,-6.001205334027486
-0.23060000000000008,-6.021011292225596
-0.23160000000000008,-6.042231961723571
-0.23260000000000008,-6.062037919921682
-0.23360000000000009,-6.080429166819927
-0.2346000000000001,-6.100235125018038
-0.2356000000000001,-6.120041083216149
-0.2366000000000001,-6.138432330114394
-0.2376000000000001,-6.15682357701264
-0.2386000000000001,-6.175214823910885
-0.2396000000000001,-6.193606070809131
-0.2406000000000001,-6.210582606407511
-0.2416000000000001,-6.227559142005892
-0.2426000000000001,-6.244535677604272
-0.2436000000000001,-6.261512213202653
-0.2446000000000001,-6.278488748801033
-0.2456000000000001,-6.2954652843994126
-0.2466000000000001,-6.311027108697928
-0.2476000000000001,-6.326588932996443
-0.2486000000000001,-6.342150757294959
-0.2496000000000001,-6.357712581593474
-0.2506000000000001,-6.371859694592125
-0.2516000000000001,-6.386006807590776
-0.2526000000000001,-6.40156863188929
-0.2536000000000001,-6.414301033588076
-0.2546000000000001,-6.428448146586726
-0.2556000000000001,-6.442595259585377
-0.2566000000000001,-6.455327661284162
-0.2576000000000001,-6.468060062982947
-0.2586000000000001,-6.480792464681733
-0.2596000000000001,-6.492110155080653
-0.2606000000000001,-6.503427845479574
-0.2616000000000001,-6.516160247178359
-0.2626000000000001,-6.526063226277413
-0.2636000000000001,-6.537380916676335
-0.2646000000000001,-6.54728389577539
-0.2656000000000001,-6.557186874874445
-0.2666000000000001,-6.568504565273366
-0.2676000000000001,-6.5769928330725556
-0.2686000000000001,-6.586895812171611
-0.2696000000000001,-6.595384079970801
-0.2706000000000001,-6.603872347769991
-0.2716000000000001,-6.612360615569181
-0.2726000000000001,-6.620848883368372
-0.2736000000000001,-6.627922439867697
-0.2746000000000001,-6.634995996367022
-0.2756000000000001,-6.642069552866347
-0.2766000000000001,-6.6491431093656725
-0.2776000000000001,-6.654801954565133
-0.2786000000000001,-6.660460799764593
-0.2796000000000001,-6.666119644964053
-0.2806000000000001,-6.671778490163514
-0.28160000000000013,-6.677437335362973
-0.28260000000000013,-6.681681469262568
-0.28360000000000013,-6.685925603162163
-0.2846,-6.690169737061758
-0.2856,-6.692999159661489
-0.2866,-6.697243293561083
-0.2876,-6.700072716160815
-0.2886,-6.702902138760544
-0.2896,-6.705731561360274
-0.2906,-6.7085609839600036
-0.2916,-6.709975695259868
-0.2926,-6.711390406559734
-0.2936,-6.712805117859599
-0.29460000000000003,-6.714219829159464
-0.29560000000000003,-6.714219829159464
-0.29660000000000003,-6.715634540459329
-0.29760000000000003,-6.715634540459329
-0.29860000000000003,-6.715634540459329
-0.29960000000000003,-6.714219829159464
-0.30060000000000003,-6.714219829159464
-0.30160000000000003,-6.712805117859599
-0.30260000000000004,-6.711390406559734
-0.30360000000000004,-6.709975695259868
-0.30460000000000004,-6.7085609839600036
-0.30560000000000004,-6.705731561360274
-0.30660000000000004,-6.704316850060409
-0.30760000000000004,-6.701487427460679
-0.30860000000000004,-6.698658004860949
-0.30960000000000004,-6.6958285822612185
-0.31060000000000004,-6.692999159661489
-0.31160000000000004,-6.6887550257618935
-0.31260000000000004,-6.685925603162163
-0.31360000000000005,-6.681681469262568
-0.31460000000000005,-6.677437335362973
-0.31560000000000005,-6.673193201463377
-0.31660000000000005,-6.6689490675637835
-0.31760000000000005,-6.6632902223643224
-0.31860000000000005,-6.657631377164862
-0.31960000000000005,-6.653387243265268
-0.32060000000000005,-6.6491431093656725
-0.32160000000000005,-6.643484264166212
-0.32260000000000005,-6.637825418966753
-0.32360000000000005,-6.630751862467427
-0.32460000000000006,-6.6236783059681015
-0.32560000000000006,-6.618019460768641
-0.32660000000000006,-6.6109459042693155
-0.32760000000000006,-6.603872347769991
-0.32860000000000006,-6.5967987912706665
-0.32960000000000006,-6.589725234771341
-0.33060000000000006,-6.582651678272015
-0.33160000000000006,-6.574163410472826
-0.33260000000000006,-6.5670898539735
-0.33360000000000006,-6.55860158617431
-0.33460000000000006,-6.5515280296749845
-0.33560000000000006,-6.543039761875795
-0.33660000000000007,-6.534551494076605
-0.33760000000000007,-6.526063226277413
-0.33860000000000007,-6.517574958478224
-0.33960000000000007,-6.509086690679034
-0.34060000000000007,-6.499183711579978
-0.34160000000000007,-6.490695443780789
-0.34260000000000007,-6.480792464681733
-0.34360000000000007,-6.472304196882543
-0.3446000000000001,-6.462401217783487
-0.3456000000000001,-6.453912949984297
-0.3466000000000001,-6.444009970885243
-0.34759999999999996,-6.434106991786186
-0.3486000000000001,-6.424204012687131
-0.34959999999999997,-6.414301033588076
-0.3506000000000001,-6.404398054489021
-0.35159999999999997,-6.394495075389965
-0.3526000000000001,-6.384592096290911
-0.35359999999999997,-6.37327440589199
-0.3546000000000001,-6.363371426792935
-0.35559999999999997,-6.352053736394015
-0.3566000000000001,-6.342150757294959
-0.3576,-6.332247778195904
-0.3586000000000001,-6.320930087796984
-0.3596,-6.311027108697928
-0.3606000000000001,-6.299709418299008
-0.3616,-6.2883917279000885
-0.3626000000000001,-6.278488748801033
-0.3636,-6.267171058402113
-0.3646000000000001,-6.2558533680031925
-0.3656,-6.244535677604272
-0.3666000000000001,-6.233217987205351
-0.3676,-6.2233150081062965
-0.3686000000000001,-6.211997317707376
-0.3696,-6.200679627308456
-0.3706000000000001,-6.1907766482094
-0.3716,-6.17945895781048
-0.3726000000000001,-6.16814126741156
-0.3736,-6.15682357701264
-0.3746000000000001,-6.145505886613719
-0.3756,-6.134188196214799
-0.3766000000000001,-6.122870505815879
-0.3776,-6.111552815416958
-0.3786000000000001,-6.100235125018038
-0.3796,-6.088917434619118
-0.3806000000000001,-6.077599744220197
-0.3816,-6.066282053821277
-0.3826000000000001,-6.054964363422357
-0.3836,-6.043646673023436
-0.3846000000000001,-6.033743693924381
-0.3856,-6.022426003525461
-0.3866000000000001,-6.011108313126541
-0.3876,-5.9997906227276205
-0.3886000000000001,-5.9884729323287
-0.3896,-5.977155241929781
-0.3906000000000001,-5.967252262830725
-0.3916,-5.955934572431804
-0.3926000000000001,-5.944616882032884
-0.3936,-5.933299191633965
-0.3946000000000001,-5.923396212534908
-0.3956,-5.912078522135989
-0.3966000000000001,-5.902175543036933
-0.3976,-5.890857852638012
-0.3986000000000001,-5.880954873538958
-0.3996,-5.869637183140037
-0.4006000000000001,-5.859734204040981
-0.4016,-5.849831224941926
-0.4026000000000001,-5.839928245842872
-0.4036,-5.828610555443951
-0.4046000000000001,-5.818707576344896
-0.4056,-5.808804597245841
-0.40660000000000013,-5.798901618146785
-0.4076,-5.788998639047731
-0.40860000000000013,-5.77768094864881
-0.4096,-5.769192680849619
-0.41060000000000013,-5.759289701750564
-0.4116,-5.74938672265151
-0.41260000000000013,-5.739483743552454
-0.4136,-5.729580764453398
-0.41460000000000014,-5.721092496654209
-0.4156,-5.7111895175551535
-0.41660000000000014,-5.702701249755963
-0.4176,-5.692798270656908
-0.41860000000000014,-5.684310002857718
-0.41960000000000003,-5.674407023758662
-0.42060000000000014,-5.665918755959472
-0.42160000000000003,-5.658845199460147
-0.42260000000000014,-5.651771642960822
-0.42360000000000003,-5.641868663861766
-0.42460000000000014,-5.6333803960625755
-0.42560000000000003,-5.624892128263387
-0.42660000000000015,-5.617818571764061
-0.42760000000000004,-5.609330303964871
-0.42860000000000015,-5.600842036165679
-0.42960000000000004,-5.593768479666355
-0.43060000000000015,-5.585280211867165
-0.43160000000000004,-5.57820665536784
-0.43260000000000015,-5.571133098868514
-0.43360000000000004,-5.564059542369189
-0.43460000000000015,-5.556985985869864
-0.43560000000000004,-5.549912429370539
-0.43660000000000015,-5.542838872871213
-0.43760000000000004,-5.537180027671754
-0.43860000000000016,-5.530106471172428
-0.43960000000000005,-5.524447625972968
-0.44060000000000016,-5.518788780773508
-0.44160000000000005,-5.511715224274183
-0.44260000000000016,-5.506056379074723
-0.44360000000000005,-5.5003975338752635
-0.44460000000000016,-5.4947386886758025
-0.44560000000000005,-5.490494554776207
-0.44660000000000016,-5.484835709576747
-0.44760000000000005,-5.480591575677152
-0.44860000000000017,-5.474932730477692
-0.44960000000000006,-5.470688596578097
-0.45060000000000017,-5.466444462678503
-0.45160000000000006,-5.4622003287789065
-0.45260000000000017,-5.457956194879311
-0.45360000000000006,-5.4551267722795815
-0.45460000000000017,-5.450882638379986
-0.45560000000000006,-5.448053215780256
-0.4566000000000002,-5.445223793180525
-0.45760000000000006,-5.4423943705807964
