Aug. 10, 2024   07:31:20
Cyclic Voltammetry
File: c:/users/guazh/data/20240802_batch_500/2024-08-02-exp71\exp71-2024-08-10t07_22_42-arkoh\exp71_cv_50mvs_efin_-1500mv.bin
Data Source:  Experiment
Instrument Model:  CHI760E
Header: CV ran at 50 mVs
Note: 

Init E (V) = -1
High E (V) = -1
Low E (V) = -1.5
Final E (V) = -1
Init P/N = N
Scan Rate (V/s) = 0.05
Segment = 7
Sample Interval (V) = 0.001
Quiet Time (sec) = 60
Sensitivity (A/V) = 0.001
Comp R (ohm) = 1.8

Results:

Channel 1:
Segment 1:

Segment 2:

Segment 3:

Segment 4:

Segment 5:

Segment 6:

Segment 7:

Potential/V, Current/A

-1.000, 7.444e-6
-1.001, 9.339e-6
-1.002, 8.799e-6
-1.003, 8.342e-6
-1.004, 8.823e-6
-1.005, 9.868e-6
-1.006, 1.022e-5
-1.007, 9.406e-6
-1.008, 8.878e-6
-1.009, 9.356e-6
-1.010, 1.029e-5
-1.011, 1.050e-5
-1.012, 9.675e-6
-1.013, 9.222e-6
-1.014, 9.604e-6
-1.015, 1.060e-5
-1.016, 1.078e-5
-1.017, 9.958e-6
-1.018, 9.517e-6
-1.019, 9.830e-6
-1.020, 1.072e-5
-1.021, 1.104e-5
-1.022, 1.009e-5
-1.023, 9.641e-6
-1.024, 1.009e-5
-1.025, 1.084e-5
-1.026, 1.118e-5
-1.027, 1.022e-5
-1.028, 9.765e-6
-1.029, 1.022e-5
-1.030, 1.103e-5
-1.031, 1.118e-5
-1.032, 1.031e-5
-1.033, 9.790e-6
-1.034, 1.034e-5
-1.035, 1.105e-5
-1.036, 1.126e-5
-1.037, 1.043e-5
-1.038, 9.910e-6
-1.039, 1.045e-5
-1.040, 1.112e-5
-1.041, 1.124e-5
-1.042, 1.050e-5
-1.043, 9.892e-6
-1.044, 1.045e-5
-1.045, 1.122e-5
-1.046, 1.128e-5
-1.047, 1.053e-5
-1.048, 1.001e-5
-1.049, 1.039e-5
-1.050, 1.135e-5
-1.051, 1.126e-5
-1.052, 1.054e-5
-1.053, 1.002e-5
-1.054, 1.047e-5
-1.055, 1.138e-5
-1.056, 1.130e-5
-1.057, 1.052e-5
-1.058, 1.010e-5
-1.059, 1.044e-5
-1.060, 1.133e-5
-1.061, 1.135e-5
-1.062, 1.050e-5
-1.063, 1.014e-5
-1.064, 1.050e-5
-1.065, 1.135e-5
-1.066, 1.133e-5
-1.067, 1.054e-5
-1.068, 1.005e-5
-1.069, 1.058e-5
-1.070, 1.136e-5
-1.071, 1.137e-5
-1.072, 1.053e-5
-1.073, 1.008e-5
-1.074, 1.064e-5
-1.075, 1.143e-5
-1.076, 1.130e-5
-1.077, 1.059e-5
-1.078, 1.011e-5
-1.079, 1.059e-5
-1.080, 1.141e-5
-1.081, 1.126e-5
-1.082, 1.067e-5
-1.083, 1.008e-5
-1.084, 1.058e-5
-1.085, 1.149e-5
-1.086, 1.132e-5
-1.087, 1.063e-5
-1.088, 1.014e-5
-1.089, 1.058e-5
-1.090, 1.158e-5
-1.091, 1.131e-5
-1.092, 1.061e-5
-1.093, 1.023e-5
-1.094, 1.065e-5
-1.095, 1.155e-5
-1.096, 1.135e-5
-1.097, 1.060e-5
-1.098, 1.028e-5
-1.099, 1.073e-5
-1.100, 1.148e-5
-1.101, 1.152e-5
-1.102, 1.060e-5
-1.103, 1.033e-5
-1.104, 1.071e-5
-1.105, 1.161e-5
-1.106, 1.153e-5
-1.107, 1.062e-5
-1.108, 1.031e-5
-1.109, 1.086e-5
-1.110, 1.167e-5
-1.111, 1.163e-5
-1.112, 1.068e-5
-1.113, 1.038e-5
-1.114, 1.100e-5
-1.115, 1.166e-5
-1.116, 1.161e-5
-1.117, 1.086e-5
-1.118, 1.041e-5
-1.119, 1.107e-5
-1.120, 1.184e-5
-1.121, 1.165e-5
-1.122, 1.098e-5
-1.123, 1.048e-5
-1.124, 1.117e-5
-1.125, 1.190e-5
-1.126, 1.170e-5
-1.127, 1.108e-5
-1.128, 1.060e-5
-1.129, 1.117e-5
-1.130, 1.210e-5
-1.131, 1.188e-5
-1.132, 1.106e-5
-1.133, 1.068e-5
-1.134, 1.131e-5
-1.135, 1.222e-5
-1.136, 1.196e-5
-1.137, 1.109e-5
-1.138, 1.090e-5
-1.139, 1.142e-5
-1.140, 1.233e-5
-1.141, 1.206e-5
-1.142, 1.123e-5
-1.143, 1.099e-5
-1.144, 1.161e-5
-1.145, 1.235e-5
-1.146, 1.229e-5
-1.147, 1.140e-5
-1.148, 1.112e-5
-1.149, 1.181e-5
-1.150, 1.256e-5
-1.151, 1.246e-5
-1.152, 1.158e-5
-1.153, 1.129e-5
-1.154, 1.203e-5
-1.155, 1.273e-5
-1.156, 1.262e-5
-1.157, 1.177e-5
-1.158, 1.153e-5
-1.159, 1.232e-5
-1.160, 1.299e-5
-1.161, 1.281e-5
-1.162, 1.215e-5
-1.163, 1.166e-5
-1.164, 1.261e-5
-1.165, 1.336e-5
-1.166, 1.303e-5
-1.167, 1.241e-5
-1.168, 1.197e-5
-1.169, 1.283e-5
-1.170, 1.371e-5
-1.171, 1.338e-5
-1.172, 1.268e-5
-1.173, 1.240e-5
-1.174, 1.322e-5
-1.175, 1.413e-5
-1.176, 1.384e-5
-1.177, 1.311e-5
-1.178, 1.297e-5
-1.179, 1.368e-5
-1.180, 1.451e-5
-1.181, 1.430e-5
-1.182, 1.353e-5
-1.183, 1.339e-5
-1.184, 1.425e-5
-1.185, 1.501e-5
-1.186, 1.490e-5
-1.187, 1.405e-5
-1.188, 1.392e-5
-1.189, 1.480e-5
-1.190, 1.562e-5
-1.191, 1.550e-5
-1.192, 1.473e-5
-1.193, 1.459e-5
-1.194, 1.564e-5
-1.195, 1.628e-5
-1.196, 1.616e-5
-1.197, 1.554e-5
-1.198, 1.536e-5
-1.199, 1.650e-5
-1.200, 1.712e-5
-1.201, 1.703e-5
-1.202, 1.652e-5
-1.203, 1.629e-5
-1.204, 1.741e-5
-1.205, 1.818e-5
-1.206, 1.804e-5
-1.207, 1.755e-5
-1.208, 1.746e-5
-1.209, 1.845e-5
-1.210, 1.941e-5
-1.211, 1.921e-5
-1.212, 1.865e-5
-1.213, 1.875e-5
-1.214, 1.984e-5
-1.215, 2.073e-5
-1.216, 2.061e-5
-1.217, 2.010e-5
-1.218, 2.025e-5
-1.219, 2.139e-5
-1.220, 2.221e-5
-1.221, 2.221e-5
-1.222, 2.169e-5
-1.223, 2.195e-5
-1.224, 2.316e-5
-1.225, 2.406e-5
-1.226, 2.416e-5
-1.227, 2.364e-5
-1.228, 2.409e-5
-1.229, 2.532e-5
-1.230, 2.616e-5
-1.231, 2.632e-5
-1.232, 2.586e-5
-1.233, 2.624e-5
-1.234, 2.765e-5
-1.235, 2.871e-5
-1.236, 2.878e-5
-1.237, 2.849e-5
-1.238, 2.899e-5
-1.239, 3.048e-5
-1.240, 3.149e-5
-1.241, 3.175e-5
-1.242, 3.161e-5
-1.243, 3.204e-5
-1.244, 3.362e-5
-1.245, 3.496e-5
-1.246, 3.513e-5
-1.247, 3.515e-5
-1.248, 3.572e-5
-1.249, 3.731e-5
-1.250, 3.885e-5
-1.251, 3.910e-5
-1.252, 3.906e-5
-1.253, 4.008e-5
-1.254, 4.173e-5
-1.255, 4.325e-5
-1.256, 4.363e-5
-1.257, 4.376e-5
-1.258, 4.499e-5
-1.259, 4.659e-5
-1.260, 4.834e-5
-1.261, 4.902e-5
-1.262, 4.920e-5
-1.263, 5.048e-5
-1.264, 5.237e-5
-1.265, 5.417e-5
-1.266, 5.509e-5
-1.267, 5.535e-5
-1.268, 5.686e-5
-1.269, 5.891e-5
-1.270, 6.092e-5
-1.271, 6.197e-5
-1.272, 6.248e-5
-1.273, 6.412e-5
-1.274, 6.652e-5
-1.275, 6.860e-5
-1.276, 6.977e-5
-1.277, 7.057e-5
-1.278, 7.242e-5
-1.279, 7.499e-5
-1.280, 7.748e-5
-1.281, 7.876e-5
-1.282, 7.986e-5
-1.283, 8.181e-5
-1.284, 8.468e-5
-1.285, 8.727e-5
-1.286, 8.885e-5
-1.287, 9.018e-5
-1.288, 9.240e-5
-1.289, 9.543e-5
-1.290, 9.834e-5
-1.291, 1.002e-4
-1.292, 1.017e-4
-1.293, 1.043e-4
-1.294, 1.075e-4
-1.295, 1.107e-4
-1.296, 1.127e-4
-1.297, 1.145e-4
-1.298, 1.174e-4
-1.299, 1.209e-4
-1.300, 1.243e-4
-1.301, 1.267e-4
-1.302, 1.287e-4
-1.303, 1.319e-4
-1.304, 1.357e-4
-1.305, 1.394e-4
-1.306, 1.421e-4
-1.307, 1.445e-4
-1.308, 1.479e-4
-1.309, 1.521e-4
-1.310, 1.560e-4
-1.311, 1.591e-4
-1.312, 1.618e-4
-1.313, 1.654e-4
-1.314, 1.699e-4
-1.315, 1.742e-4
-1.316, 1.775e-4
-1.317, 1.806e-4
-1.318, 1.846e-4
-1.319, 1.894e-4
-1.320, 1.939e-4
-1.321, 1.974e-4
-1.322, 2.009e-4
-1.323, 2.052e-4
-1.324, 2.103e-4
-1.325, 2.153e-4
-1.326, 2.190e-4
-1.327, 2.230e-4
-1.328, 2.275e-4
-1.329, 2.330e-4
-1.330, 2.384e-4
-1.331, 2.424e-4
-1.332, 2.466e-4
-1.333, 2.516e-4
-1.334, 2.574e-4
-1.335, 2.632e-4
-1.336, 2.676e-4
-1.337, 2.720e-4
-1.338, 2.775e-4
-1.339, 2.836e-4
-1.340, 2.895e-4
-1.341, 2.943e-4
-1.342, 2.991e-4
-1.343, 3.050e-4
-1.344, 3.115e-4
-1.345, 3.178e-4
-1.346, 3.232e-4
-1.347, 3.281e-4
-1.348, 3.345e-4
-1.349, 3.413e-4
-1.350, 3.480e-4
-1.351, 3.536e-4
-1.352, 3.590e-4
-1.353, 3.657e-4
-1.354, 3.729e-4
-1.355, 3.798e-4
-1.356, 3.859e-4
-1.357, 3.919e-4
-1.358, 3.987e-4
-1.359, 4.066e-4
-1.360, 4.138e-4
-1.361, 4.201e-4
-1.362, 4.266e-4
-1.363, 4.338e-4
-1.364, 4.420e-4
-1.365, 4.497e-4
-1.366, 4.563e-4
-1.367, 4.631e-4
-1.368, 4.710e-4
-1.369, 4.795e-4
-1.370, 4.877e-4
-1.371, 4.945e-4
-1.372, 5.018e-4
-1.373, 5.101e-4
-1.374, 5.189e-4
-1.375, 5.276e-4
-1.376, 5.349e-4
-1.377, 5.425e-4
-1.378, 5.514e-4
-1.379, 5.606e-4
-1.380, 5.697e-4
-1.381, 5.777e-4
-1.382, 5.859e-4
-1.383, 5.950e-4
-1.384, 6.046e-4
-1.385, 6.142e-4
-1.386, 6.226e-4
-1.387, 6.310e-4
-1.388, 6.408e-4
-1.389, 6.509e-4
-1.390, 6.609e-4
-1.391, 6.698e-4
-1.392, 6.785e-4
-1.393, 6.888e-4
-1.394, 6.998e-4
-1.395, 7.102e-4
-1.396, 7.195e-4
-1.397, 7.290e-4
-1.398, 7.393e-4
-1.399, 7.508e-4
-1.400, 7.616e-4
-1.401, 7.714e-4
-1.402, 7.816e-4
-1.403, 7.924e-4
-1.404, 8.043e-4
-1.405, 8.157e-4
-1.406, 8.263e-4
-1.407, 8.371e-4
-1.408, 8.483e-4
-1.409, 8.606e-4
-1.410, 8.727e-4
-1.411, 8.836e-4
-1.412, 8.948e-4
-1.413, 9.068e-4
-1.414, 9.196e-4
-1.415, 9.323e-4
-1.416, 9.439e-4
-1.417, 9.555e-4
-1.418, 9.680e-4
-1.419, 9.812e-4
-1.420, 9.946e-4
-1.421, 1.007e-3
-1.422, 1.019e-3
-1.423, 1.032e-3
-1.424, 1.046e-3
-1.425, 1.060e-3
-1.426, 1.073e-3
-1.427, 1.085e-3
-1.428, 1.099e-3
-1.429, 1.114e-3
-1.430, 1.128e-3
-1.431, 1.142e-3
-1.432, 1.155e-3
-1.433, 1.170e-3
-1.434, 1.186e-3
-1.435, 1.201e-3
-1.436, 1.215e-3
-1.437, 1.229e-3
-1.438, 1.244e-3
-1.439, 1.261e-3
-1.440, 1.276e-3
-1.441, 1.291e-3
-1.442, 1.306e-3
-1.443, 1.322e-3
-1.444, 1.339e-3
-1.445, 1.355e-3
-1.446, 1.371e-3
-1.447, 1.386e-3
-1.448, 1.403e-3
-1.449, 1.421e-3
-1.450, 1.439e-3
-1.451, 1.455e-3
-1.452, 1.471e-3
-1.453, 1.489e-3
-1.454, 1.509e-3
-1.455, 1.527e-3
-1.456, 1.544e-3
-1.457, 1.560e-3
-1.458, 1.578e-3
-1.459, 1.596e-3
-1.460, 1.616e-3
-1.461, 1.634e-3
-1.462, 1.653e-3
-1.463, 1.672e-3
-1.464, 1.692e-3
-1.465, 1.712e-3
-1.466, 1.731e-3
-1.467, 1.750e-3
-1.468, 1.770e-3
-1.469, 1.792e-3
-1.470, 1.812e-3
-1.471, 1.833e-3
-1.472, 1.853e-3
-1.473, 1.875e-3
-1.474, 1.897e-3
-1.475, 1.919e-3
-1.476, 1.941e-3
-1.477, 1.963e-3
-1.478, 1.986e-3
-1.479, 2.009e-3
-1.480, 2.032e-3
-1.481, 2.055e-3
-1.482, 2.077e-3
-1.483, 2.102e-3
-1.484, 2.127e-3
-1.485, 2.153e-3
-1.486, 2.175e-3
-1.487, 2.199e-3
-1.488, 2.225e-3
-1.489, 2.252e-3
-1.490, 2.278e-3
-1.491, 2.302e-3
-1.492, 2.328e-3
-1.493, 2.355e-3
-1.494, 2.382e-3
-1.495, 2.410e-3
-1.496, 2.437e-3
-1.497, 2.464e-3
-1.498, 2.493e-3
-1.499, 2.522e-3
-1.500, 2.509e-3
-1.499, 2.465e-3
-1.498, 2.425e-3
-1.497, 2.387e-3
-1.496, 2.350e-3
-1.495, 2.314e-3
-1.494, 2.277e-3
-1.493, 2.241e-3
-1.492, 2.206e-3
-1.491, 2.171e-3
-1.490, 2.136e-3
-1.489, 2.103e-3
-1.488, 2.070e-3
-1.487, 2.039e-3
-1.486, 2.009e-3
-1.485, 1.978e-3
-1.484, 1.947e-3
-1.483, 1.917e-3
-1.482, 1.889e-3
-1.481, 1.860e-3
-1.480, 1.832e-3
-1.479, 1.803e-3
-1.478, 1.776e-3
-1.477, 1.750e-3
-1.476, 1.725e-3
-1.475, 1.699e-3
-1.474, 1.673e-3
-1.473, 1.647e-3
-1.472, 1.623e-3
-1.471, 1.599e-3
-1.470, 1.575e-3
-1.469, 1.551e-3
-1.468, 1.528e-3
-1.467, 1.506e-3
-1.466, 1.484e-3
-1.465, 1.462e-3
-1.464, 1.439e-3
-1.463, 1.418e-3
-1.462, 1.397e-3
-1.461, 1.378e-3
-1.460, 1.357e-3
-1.459, 1.335e-3
-1.458, 1.315e-3
-1.457, 1.296e-3
-1.456, 1.278e-3
-1.455, 1.260e-3
-1.454, 1.240e-3
-1.453, 1.222e-3
-1.452, 1.204e-3
-1.451, 1.187e-3
-1.450, 1.169e-3
-1.449, 1.151e-3
-1.448, 1.134e-3
-1.447, 1.118e-3
-1.446, 1.101e-3
-1.445, 1.085e-3
-1.444, 1.068e-3
-1.443, 1.052e-3
-1.442, 1.037e-3
-1.441, 1.022e-3
-1.440, 1.007e-3
-1.439, 9.908e-4
-1.438, 9.753e-4
-1.437, 9.616e-4
-1.436, 9.481e-4
-1.435, 9.336e-4
-1.434, 9.185e-4
-1.433, 9.045e-4
-1.432, 8.915e-4
-1.431, 8.787e-4
-1.430, 8.650e-4
-1.429, 8.513e-4
-1.428, 8.381e-4
-1.427, 8.258e-4
-1.426, 8.132e-4
-1.425, 7.994e-4
-1.424, 7.858e-4
-1.423, 7.737e-4
-1.422, 7.626e-4
-1.421, 7.517e-4
-1.420, 7.397e-4
-1.419, 7.271e-4
-1.418, 7.155e-4
-1.417, 7.046e-4
-1.416, 6.941e-4
-1.415, 6.826e-4
-1.414, 6.707e-4
-1.413, 6.601e-4
-1.412, 6.502e-4
-1.411, 6.404e-4
-1.410, 6.298e-4
-1.409, 6.186e-4
-1.408, 6.085e-4
-1.407, 5.992e-4
-1.406, 5.900e-4
-1.405, 5.800e-4
-1.404, 5.695e-4
-1.403, 5.600e-4
-1.402, 5.515e-4
-1.401, 5.429e-4
-1.400, 5.335e-4
-1.399, 5.238e-4
-1.398, 5.148e-4
-1.397, 5.069e-4
-1.396, 4.987e-4
-1.395, 4.898e-4
-1.394, 4.807e-4
-1.393, 4.724e-4
-1.392, 4.650e-4
-1.391, 4.576e-4
-1.390, 4.491e-4
-1.389, 4.406e-4
-1.388, 4.331e-4
-1.387, 4.261e-4
-1.386, 4.194e-4
-1.385, 4.114e-4
-1.384, 4.034e-4
-1.383, 3.961e-4
-1.382, 3.896e-4
-1.381, 3.833e-4
-1.380, 3.759e-4
-1.379, 3.681e-4
-1.378, 3.616e-4
-1.377, 3.558e-4
-1.376, 3.498e-4
-1.375, 3.430e-4
-1.374, 3.356e-4
-1.373, 3.296e-4
-1.372, 3.241e-4
-1.371, 3.185e-4
-1.370, 3.121e-4
-1.369, 3.053e-4
-1.368, 2.995e-4
-1.367, 2.945e-4
-1.366, 2.894e-4
-1.365, 2.834e-4
-1.364, 2.769e-4
-1.363, 2.714e-4
-1.362, 2.668e-4
-1.361, 2.620e-4
-1.360, 2.563e-4
-1.359, 2.503e-4
-1.358, 2.452e-4
-1.357, 2.411e-4
-1.356, 2.368e-4
-1.355, 2.313e-4
-1.354, 2.259e-4
-1.353, 2.212e-4
-1.352, 2.169e-4
-1.351, 2.130e-4
-1.350, 2.079e-4
-1.349, 2.028e-4
-1.348, 1.985e-4
-1.347, 1.950e-4
-1.346, 1.913e-4
-1.345, 1.865e-4
-1.344, 1.815e-4
-1.343, 1.778e-4
-1.342, 1.745e-4
-1.341, 1.712e-4
-1.340, 1.666e-4
-1.339, 1.620e-4
-1.338, 1.587e-4
-1.337, 1.557e-4
-1.336, 1.527e-4
-1.335, 1.485e-4
-1.334, 1.441e-4
-1.333, 1.411e-4
-1.332, 1.386e-4
-1.331, 1.355e-4
-1.330, 1.318e-4
-1.329, 1.278e-4
-1.328, 1.250e-4
-1.327, 1.227e-4
-1.326, 1.201e-4
-1.325, 1.166e-4
-1.324, 1.129e-4
-1.323, 1.102e-4
-1.322, 1.083e-4
-1.321, 1.060e-4
-1.320, 1.026e-4
-1.319, 9.930e-5
-1.318, 9.692e-5
-1.317, 9.514e-5
-1.316, 9.313e-5
-1.315, 8.980e-5
-1.314, 8.683e-5
-1.313, 8.458e-5
-1.312, 8.314e-5
-1.311, 8.132e-5
-1.310, 7.815e-5
-1.309, 7.544e-5
-1.308, 7.361e-5
-1.307, 7.217e-5
-1.306, 7.059e-5
-1.305, 6.769e-5
-1.304, 6.507e-5
-1.303, 6.351e-5
-1.302, 6.226e-5
-1.301, 6.093e-5
-1.300, 5.831e-5
-1.299, 5.582e-5
-1.298, 5.450e-5
-1.297, 5.351e-5
-1.296, 5.232e-5
-1.295, 4.979e-5
-1.294, 4.754e-5
-1.293, 4.637e-5
-1.292, 4.569e-5
-1.291, 4.445e-5
-1.290, 4.216e-5
-1.289, 4.010e-5
-1.288, 3.919e-5
-1.287, 3.862e-5
-1.286, 3.749e-5
-1.285, 3.543e-5
-1.284, 3.363e-5
-1.283, 3.264e-5
-1.282, 3.232e-5
-1.281, 3.127e-5
-1.280, 2.929e-5
-1.279, 2.777e-5
-1.278, 2.697e-5
-1.277, 2.677e-5
-1.276, 2.588e-5
-1.275, 2.395e-5
-1.274, 2.254e-5
-1.273, 2.186e-5
-1.272, 2.179e-5
-1.271, 2.112e-5
-1.270, 1.918e-5
-1.269, 1.791e-5
-1.268, 1.748e-5
-1.267, 1.737e-5
-1.266, 1.678e-5
-1.265, 1.508e-5
-1.264, 1.384e-5
-1.263, 1.357e-5
-1.262, 1.356e-5
-1.261, 1.297e-5
-1.260, 1.152e-5
-1.259, 1.013e-5
-1.258, 1.013e-5
-1.257, 1.020e-5
-1.256, 9.649e-6
-1.255, 8.323e-6
-1.254, 7.016e-6
-1.253, 6.997e-6
-1.252, 7.320e-6
-1.251, 6.719e-6
-1.250, 5.459e-6
-1.249, 4.332e-6
-1.248, 4.324e-6
-1.247, 4.733e-6
-1.246, 4.132e-6
-1.245, 2.979e-6
-1.244, 2.036e-6
-1.243, 1.979e-6
-1.242, 2.460e-6
-1.241, 1.943e-6
-1.240, 8.167e-7
-1.239, -4.459e-8
-1.238, -7.617e-8
-1.237, 5.405e-7
-1.236, 7.182e-8
-1.235, -1.142e-6
-1.234, -1.925e-6
-1.233, -1.799e-6
-1.232, -1.176e-6
-1.231, -1.597e-6
-1.230, -2.785e-6
-1.229, -3.627e-6
-1.228, -3.273e-6
-1.227, -2.748e-6
-1.226, -3.070e-6
-1.225, -4.130e-6
-1.224, -4.739e-6
-1.223, -4.557e-6
-1.222, -4.066e-6
-1.221, -4.299e-6
-1.220, -5.254e-6
-1.219, -6.091e-6
-1.218, -5.660e-6
-1.217, -5.176e-6
-1.216, -5.374e-6
-1.215, -6.383e-6
-1.214, -7.149e-6
-1.213, -6.646e-6
-1.212, -6.000e-6
-1.211, -6.355e-6
-1.210, -7.259e-6
-1.209, -7.942e-6
-1.208, -7.441e-6
-1.207, -6.842e-6
-1.206, -7.102e-6
-1.205, -8.064e-6
-1.204, -8.562e-6
-1.203, -8.304e-6
-1.202, -7.580e-6
-1.201, -7.893e-6
-1.200, -8.692e-6
-1.199, -9.327e-6
-1.198, -8.971e-6
-1.197, -8.145e-6
-1.196, -8.349e-6
-1.195, -9.452e-6
-1.194, -9.783e-6
-1.193, -9.416e-6
-1.192, -8.703e-6
-1.191, -8.959e-6
-1.190, -9.902e-6
-1.189, -1.034e-5
-1.188, -9.784e-6
-1.187, -9.265e-6
-1.186, -9.407e-6
-1.185, -1.041e-5
-1.184, -1.081e-5
-1.183, -1.037e-5
-1.182, -9.837e-6
-1.181, -9.910e-6
-1.180, -1.085e-5
-1.179, -1.128e-5
-1.178, -1.082e-5
-1.177, -1.001e-5
-1.176, -1.022e-5
-1.175, -1.107e-5
-1.174, -1.163e-5
-1.173, -1.095e-5
-1.172, -1.021e-5
-1.171, -1.063e-5
-1.170, -1.143e-5
-1.169, -1.187e-5
-1.168, -1.117e-5
-1.167, -1.045e-5
-1.166, -1.089e-5
-1.165, -1.164e-5
-1.164, -1.206e-5
-1.163, -1.150e-5
-1.162, -1.071e-5
-1.161, -1.107e-5
-1.160, -1.188e-5
-1.159, -1.230e-5
-1.158, -1.166e-5
-1.157, -1.082e-5
-1.156, -1.126e-5
-1.155, -1.221e-5
-1.154, -1.242e-5
-1.153, -1.184e-5
-1.152, -1.109e-5
-1.151, -1.137e-5
-1.150, -1.243e-5
-1.149, -1.263e-5
-1.148, -1.193e-5
-1.147, -1.139e-5
-1.146, -1.156e-5
-1.145, -1.254e-5
-1.144, -1.282e-5
-1.143, -1.206e-5
-1.142, -1.151e-5
-1.141, -1.169e-5
-1.140, -1.266e-5
-1.139, -1.308e-5
-1.138, -1.216e-5
-1.137, -1.172e-5
-1.136, -1.198e-5
-1.135, -1.282e-5
-1.134, -1.330e-5
-1.133, -1.235e-5
-1.132, -1.174e-5
-1.131, -1.214e-5
-1.130, -1.303e-5
-1.129, -1.331e-5
-1.128, -1.245e-5
-1.127, -1.187e-5
-1.126, -1.232e-5
-1.125, -1.315e-5
-1.124, -1.336e-5
-1.123, -1.269e-5
-1.122, -1.202e-5
-1.121, -1.251e-5
-1.120, -1.323e-5
-1.119, -1.358e-5
-1.118, -1.273e-5
-1.117, -1.213e-5
-1.116, -1.256e-5
-1.115, -1.355e-5
-1.114, -1.362e-5
-1.113, -1.296e-5
-1.112, -1.233e-5
-1.111, -1.274e-5
-1.110, -1.369e-5
-1.109, -1.377e-5
-1.108, -1.303e-5
-1.107, -1.264e-5
-1.106, -1.289e-5
-1.105, -1.384e-5
-1.104, -1.396e-5
-1.103, -1.314e-5
-1.102, -1.272e-5
-1.101, -1.308e-5
-1.100, -1.404e-5
-1.099, -1.414e-5
-1.098, -1.331e-5
-1.097, -1.285e-5
-1.096, -1.331e-5
-1.095, -1.411e-5
-1.094, -1.430e-5
-1.093, -1.353e-5
-1.092, -1.292e-5
-1.091, -1.355e-5
-1.090, -1.433e-5
-1.089, -1.440e-5
-1.088, -1.375e-5
-1.087, -1.313e-5
-1.086, -1.370e-5
-1.085, -1.456e-5
-1.084, -1.455e-5
-1.083, -1.393e-5
-1.082, -1.333e-5
-1.081, -1.390e-5
-1.080, -1.479e-5
-1.079, -1.473e-5
-1.078, -1.410e-5
-1.077, -1.350e-5
-1.076, -1.409e-5
-1.075, -1.509e-5
-1.074, -1.493e-5
-1.073, -1.434e-5
-1.072, -1.369e-5
-1.071, -1.430e-5
-1.070, -1.533e-5
-1.069, -1.518e-5
-1.068, -1.448e-5
-1.067, -1.410e-5
-1.066, -1.450e-5
-1.065, -1.557e-5
-1.064, -1.544e-5
-1.063, -1.476e-5
-1.062, -1.432e-5
-1.061, -1.481e-5
-1.060, -1.577e-5
-1.059, -1.586e-5
-1.058, -1.507e-5
-1.057, -1.460e-5
-1.056, -1.520e-5
-1.055, -1.607e-5
-1.054, -1.621e-5
-1.053, -1.539e-5
-1.052, -1.488e-5
-1.051, -1.557e-5
-1.050, -1.652e-5
-1.049, -1.651e-5
-1.048, -1.573e-5
-1.047, -1.529e-5
-1.046, -1.608e-5
-1.045, -1.689e-5
-1.044, -1.684e-5
-1.043, -1.631e-5
-1.042, -1.569e-5
-1.041, -1.649e-5
-1.040, -1.736e-5
-1.039, -1.735e-5
-1.038, -1.667e-5
-1.037, -1.621e-5
-1.036, -1.690e-5
-1.035, -1.802e-5
-1.034, -1.782e-5
-1.033, -1.726e-5
-1.032, -1.677e-5
-1.031, -1.747e-5
-1.030, -1.855e-5
-1.029, -1.839e-5
-1.028, -1.772e-5
-1.027, -1.742e-5
-1.026, -1.801e-5
-1.025, -1.910e-5
-1.024, -1.909e-5
-1.023, -1.827e-5
-1.022, -1.803e-5
-1.021, -1.866e-5
-1.020, -1.959e-5
-1.019, -1.969e-5
-1.018, -1.893e-5
-1.017, -1.866e-5
-1.016, -1.929e-5
-1.015, -2.024e-5
-1.014, -2.033e-5
-1.013, -1.954e-5
-1.012, -1.918e-5
-1.011, -2.007e-5
-1.010, -2.095e-5
-1.009, -2.098e-5
-1.008, -2.016e-5
-1.007, -1.987e-5
-1.006, -2.076e-5
-1.005, -2.164e-5
-1.004, -2.159e-5
-1.003, -2.091e-5
-1.002, -2.056e-5
-1.001, -2.154e-5
-1.000, -4.986e-6
-1.001, -3.966e-8
-1.002, 2.236e-6
-1.003, 3.653e-6
-1.004, 3.651e-6
-1.005, 3.605e-6
-1.006, 4.280e-6
-1.007, 5.834e-6
-1.008, 6.584e-6
-1.009, 6.251e-6
-1.010, 5.902e-6
-1.011, 6.483e-6
-1.012, 7.646e-6
-1.013, 8.337e-6
-1.014, 7.849e-6
-1.015, 7.415e-6
-1.016, 7.786e-6
-1.017, 8.867e-6
-1.018, 9.575e-6
-1.019, 8.886e-6
-1.020, 8.287e-6
-1.021, 8.832e-6
-1.022, 9.790e-6
-1.023, 1.046e-5
-1.024, 9.689e-6
-1.025, 8.989e-6
-1.026, 9.505e-6
-1.027, 1.040e-5
-1.028, 1.100e-5
-1.029, 1.020e-5
-1.030, 9.512e-6
-1.031, 1.007e-5
-1.032, 1.098e-5
-1.033, 1.130e-5
-1.034, 1.060e-5
-1.035, 9.969e-6
-1.036, 1.035e-5
-1.037, 1.126e-5
-1.038, 1.168e-5
-1.039, 1.094e-5
-1.040, 1.020e-5
-1.041, 1.061e-5
-1.042, 1.161e-5
-1.043, 1.191e-5
-1.044, 1.100e-5
-1.045, 1.049e-5
-1.046, 1.068e-5
-1.047, 1.182e-5
-1.048, 1.201e-5
-1.049, 1.102e-5
-1.050, 1.069e-5
-1.051, 1.096e-5
-1.052, 1.185e-5
-1.053, 1.209e-5
-1.054, 1.118e-5
-1.055, 1.073e-5
-1.056, 1.100e-5
-1.057, 1.185e-5
-1.058, 1.220e-5
-1.059, 1.120e-5
-1.060, 1.071e-5
-1.061, 1.108e-5
-1.062, 1.190e-5
-1.063, 1.218e-5
-1.064, 1.124e-5
-1.065, 1.070e-5
-1.066, 1.109e-5
-1.067, 1.201e-5
-1.068, 1.203e-5
-1.069, 1.125e-5
-1.070, 1.063e-5
-1.071, 1.115e-5
-1.072, 1.198e-5
-1.073, 1.201e-5
-1.074, 1.129e-5
-1.075, 1.071e-5
-1.076, 1.109e-5
-1.077, 1.201e-5
-1.078, 1.197e-5
-1.079, 1.129e-5
-1.080, 1.051e-5
-1.081, 1.105e-5
-1.082, 1.199e-5
-1.083, 1.189e-5
-1.084, 1.112e-5
-1.085, 1.060e-5
-1.086, 1.103e-5
-1.087, 1.192e-5
-1.088, 1.184e-5
-1.089, 1.105e-5
-1.090, 1.065e-5
-1.091, 1.097e-5
-1.092, 1.187e-5
-1.093, 1.182e-5
-1.094, 1.103e-5
-1.095, 1.053e-5
-1.096, 1.102e-5
-1.097, 1.182e-5
-1.098, 1.178e-5
-1.099, 1.102e-5
-1.100, 1.043e-5
-1.101, 1.101e-5
-1.102, 1.185e-5
-1.103, 1.178e-5
-1.104, 1.098e-5
-1.105, 1.041e-5
-1.106, 1.104e-5
-1.107, 1.184e-5
-1.108, 1.176e-5
-1.109, 1.102e-5
-1.110, 1.046e-5
-1.111, 1.107e-5
-1.112, 1.178e-5
-1.113, 1.174e-5
-1.114, 1.104e-5
-1.115, 1.045e-5
-1.116, 1.100e-5
-1.117, 1.188e-5
-1.118, 1.178e-5
-1.119, 1.100e-5
-1.120, 1.054e-5
-1.121, 1.101e-5
-1.122, 1.198e-5
-1.123, 1.172e-5
-1.124, 1.101e-5
-1.125, 1.058e-5
-1.126, 1.108e-5
-1.127, 1.199e-5
-1.128, 1.178e-5
-1.129, 1.098e-5
-1.130, 1.064e-5
-1.131, 1.112e-5
-1.132, 1.197e-5
-1.133, 1.191e-5
-1.134, 1.104e-5
-1.135, 1.068e-5
-1.136, 1.123e-5
-1.137, 1.197e-5
-1.138, 1.196e-5
-1.139, 1.107e-5
-1.140, 1.067e-5
-1.141, 1.135e-5
-1.142, 1.210e-5
-1.143, 1.203e-5
-1.144, 1.113e-5
-1.145, 1.071e-5
-1.146, 1.146e-5
-1.147, 1.213e-5
-1.148, 1.200e-5
-1.149, 1.120e-5
-1.150, 1.080e-5
-1.151, 1.154e-5
-1.152, 1.231e-5
-1.153, 1.211e-5
-1.154, 1.138e-5
-1.155, 1.090e-5
-1.156, 1.163e-5
-1.157, 1.240e-5
-1.158, 1.223e-5
-1.159, 1.142e-5
-1.160, 1.106e-5
-1.161, 1.168e-5
-1.162, 1.263e-5
-1.163, 1.230e-5
-1.164, 1.150e-5
-1.165, 1.119e-5
-1.166, 1.191e-5
-1.167, 1.275e-5
-1.168, 1.249e-5
-1.169, 1.158e-5
-1.170, 1.146e-5
-1.171, 1.202e-5
-1.172, 1.294e-5
-1.173, 1.272e-5
-1.174, 1.182e-5
-1.175, 1.163e-5
-1.176, 1.233e-5
-1.177, 1.315e-5
-1.178, 1.294e-5
-1.179, 1.209e-5
-1.180, 1.181e-5
-1.181, 1.268e-5
-1.182, 1.334e-5
-1.183, 1.327e-5
-1.184, 1.230e-5
-1.185, 1.206e-5
-1.186, 1.307e-5
-1.187, 1.358e-5
-1.188, 1.348e-5
-1.189, 1.276e-5
-1.190, 1.238e-5
-1.191, 1.341e-5
-1.192, 1.401e-5
-1.193, 1.379e-5
-1.194, 1.319e-5
-1.195, 1.283e-5
-1.196, 1.374e-5
-1.197, 1.453e-5
-1.198, 1.424e-5
-1.199, 1.364e-5
-1.200, 1.327e-5
-1.201, 1.420e-5
-1.202, 1.510e-5
-1.203, 1.478e-5
-1.204, 1.408e-5
-1.205, 1.387e-5
-1.206, 1.486e-5
-1.207, 1.562e-5
-1.208, 1.529e-5
-1.209, 1.470e-5
-1.210, 1.460e-5
-1.211, 1.549e-5
-1.212, 1.625e-5
-1.213, 1.610e-5
-1.214, 1.535e-5
-1.215, 1.540e-5
-1.216, 1.629e-5
-1.217, 1.696e-5
-1.218, 1.693e-5
-1.219, 1.621e-5
-1.220, 1.618e-5
-1.221, 1.731e-5
-1.222, 1.800e-5
-1.223, 1.786e-5
-1.224, 1.713e-5
-1.225, 1.724e-5
-1.226, 1.843e-5
-1.227, 1.907e-5
-1.228, 1.912e-5
-1.229, 1.836e-5
-1.230, 1.848e-5
-1.231, 1.964e-5
-1.232, 2.034e-5
-1.233, 2.015e-5
-1.234, 1.972e-5
-1.235, 1.983e-5
-1.236, 2.101e-5
-1.237, 2.184e-5
-1.238, 2.167e-5
-1.239, 2.125e-5
-1.240, 2.143e-5
-1.241, 2.259e-5
-1.242, 2.355e-5
-1.243, 2.343e-5
-1.244, 2.295e-5
-1.245, 2.328e-5
-1.246, 2.450e-5
-1.247, 2.545e-5
-1.248, 2.542e-5
-1.249, 2.490e-5
-1.250, 2.551e-5
-1.251, 2.663e-5
-1.252, 2.762e-5
-1.253, 2.768e-5
-1.254, 2.731e-5
-1.255, 2.794e-5
-1.256, 2.906e-5
-1.257, 3.017e-5
-1.258, 3.035e-5
-1.259, 2.994e-5
-1.260, 3.058e-5
-1.261, 3.201e-5
-1.262, 3.306e-5
-1.263, 3.331e-5
-1.264, 3.292e-5
-1.265, 3.373e-5
-1.266, 3.518e-5
-1.267, 3.638e-5
-1.268, 3.666e-5
-1.269, 3.651e-5
-1.270, 3.729e-5
-1.271, 3.890e-5
-1.272, 4.011e-5
-1.273, 4.045e-5
-1.274, 4.043e-5
-1.275, 4.137e-5
-1.276, 4.294e-5
-1.277, 4.435e-5
-1.278, 4.477e-5
-1.279, 4.487e-5
-1.280, 4.598e-5
-1.281, 4.759e-5
-1.282, 4.930e-5
-1.283, 4.970e-5
-1.284, 4.982e-5
-1.285, 5.114e-5
-1.286, 5.292e-5
-1.287, 5.475e-5
-1.288, 5.521e-5
-1.289, 5.560e-5
-1.290, 5.703e-5
-1.291, 5.897e-5
-1.292, 6.070e-5
-1.293, 6.159e-5
-1.294, 6.203e-5
-1.295, 6.360e-5
-1.296, 6.571e-5
-1.297, 6.767e-5
-1.298, 6.872e-5
-1.299, 6.928e-5
-1.300, 7.099e-5
-1.301, 7.337e-5
-1.302, 7.550e-5
-1.303, 7.675e-5
-1.304, 7.752e-5
-1.305, 7.939e-5
-1.306, 8.215e-5
-1.307, 8.434e-5
-1.308, 8.557e-5
-1.309, 8.687e-5
-1.310, 8.881e-5
-1.311, 9.177e-5
-1.312, 9.420e-5
-1.313, 9.576e-5
-1.314, 9.721e-5
-1.315, 9.944e-5
-1.316, 1.025e-4
-1.317, 1.053e-4
-1.318, 1.070e-4
-1.319, 1.088e-4
-1.320, 1.113e-4
-1.321, 1.146e-4
-1.322, 1.177e-4
-1.323, 1.196e-4
-1.324, 1.216e-4
-1.325, 1.245e-4
-1.326, 1.281e-4
-1.327, 1.315e-4
-1.328, 1.336e-4
-1.329, 1.359e-4
-1.330, 1.392e-4
-1.331, 1.430e-4
-1.332, 1.467e-4
-1.333, 1.492e-4
-1.334, 1.519e-4
-1.335, 1.555e-4
-1.336, 1.596e-4
-1.337, 1.637e-4
-1.338, 1.666e-4
-1.339, 1.694e-4
-1.340, 1.735e-4
-1.341, 1.781e-4
-1.342, 1.824e-4
-1.343, 1.856e-4
-1.344, 1.889e-4
-1.345, 1.932e-4
-1.346, 1.982e-4
-1.347, 2.029e-4
-1.348, 2.064e-4
-1.349, 2.100e-4
-1.350, 2.148e-4
-1.351, 2.201e-4
-1.352, 2.252e-4
-1.353, 2.291e-4
-1.354, 2.333e-4
-1.355, 2.383e-4
-1.356, 2.440e-4
-1.357, 2.495e-4
-1.358, 2.537e-4
-1.359, 2.584e-4
-1.360, 2.638e-4
-1.361, 2.700e-4
-1.362, 2.758e-4
-1.363, 2.803e-4
-1.364, 2.854e-4
-1.365, 2.912e-4
-1.366, 2.978e-4
-1.367, 3.039e-4
-1.368, 3.089e-4
-1.369, 3.143e-4
-1.370, 3.209e-4
-1.371, 3.277e-4
-1.372, 3.344e-4
-1.373, 3.399e-4
-1.374, 3.457e-4
-1.375, 3.526e-4
-1.376, 3.599e-4
-1.377, 3.668e-4
-1.378, 3.730e-4
-1.379, 3.792e-4
-1.380, 3.864e-4
-1.381, 3.943e-4
-1.382, 4.019e-4
-1.383, 4.084e-4
-1.384, 4.150e-4
-1.385, 4.226e-4
-1.386, 4.311e-4
-1.387, 4.389e-4
-1.388, 4.458e-4
-1.389, 4.529e-4
-1.390, 4.611e-4
-1.391, 4.700e-4
-1.392, 4.781e-4
-1.393, 4.857e-4
-1.394, 4.934e-4
-1.395, 5.020e-4
-1.396, 5.114e-4
-1.397, 5.202e-4
-1.398, 5.281e-4
-1.399, 5.364e-4
-1.400, 5.454e-4
-1.401, 5.553e-4
-1.402, 5.646e-4
-1.403, 5.730e-4
-1.404, 5.817e-4
-1.405, 5.913e-4
-1.406, 6.018e-4
-1.407, 6.115e-4
-1.408, 6.205e-4
-1.409, 6.297e-4
-1.410, 6.402e-4
-1.411, 6.510e-4
-1.412, 6.612e-4
-1.413, 6.707e-4
-1.414, 6.805e-4
-1.415, 6.915e-4
-1.416, 7.029e-4
-1.417, 7.138e-4
-1.418, 7.241e-4
-1.419, 7.342e-4
-1.420, 7.458e-4
-1.421, 7.580e-4
-1.422, 7.698e-4
-1.423, 7.808e-4
-1.424, 7.911e-4
-1.425, 8.029e-4
-1.426, 8.155e-4
-1.427, 8.276e-4
-1.428, 8.393e-4
-1.429, 8.511e-4
-1.430, 8.637e-4
-1.431, 8.774e-4
-1.432, 8.900e-4
-1.433, 9.024e-4
-1.434, 9.151e-4
-1.435, 9.286e-4
-1.436, 9.429e-4
-1.437, 9.563e-4
-1.438, 9.694e-4
-1.439, 9.828e-4
-1.440, 9.969e-4
-1.441, 1.012e-3
-1.442, 1.027e-3
-1.443, 1.041e-3
-1.444, 1.055e-3
-1.445, 1.070e-3
-1.446, 1.086e-3
-1.447, 1.102e-3
-1.448, 1.116e-3
-1.449, 1.131e-3
-1.450, 1.147e-3
-1.451, 1.164e-3
-1.452, 1.181e-3
-1.453, 1.197e-3
-1.454, 1.213e-3
-1.455, 1.230e-3
-1.456, 1.247e-3
-1.457, 1.265e-3
-1.458, 1.282e-3
-1.459, 1.299e-3
-1.460, 1.318e-3
-1.461, 1.337e-3
-1.462, 1.356e-3
-1.463, 1.374e-3
-1.464, 1.392e-3
-1.465, 1.412e-3
-1.466, 1.432e-3
-1.467, 1.452e-3
-1.468, 1.471e-3
-1.469, 1.490e-3
-1.470, 1.511e-3
-1.471, 1.533e-3
-1.472, 1.554e-3
-1.473, 1.575e-3
-1.474, 1.596e-3
-1.475, 1.618e-3
-1.476, 1.641e-3
-1.477, 1.663e-3
-1.478, 1.685e-3
-1.479, 1.707e-3
-1.480, 1.730e-3
-1.481, 1.754e-3
-1.482, 1.779e-3
-1.483, 1.803e-3
-1.484, 1.827e-3
-1.485, 1.852e-3
-1.486, 1.877e-3
-1.487, 1.903e-3
-1.488, 1.928e-3
-1.489, 1.954e-3
-1.490, 1.981e-3
-1.491, 2.008e-3
-1.492, 2.035e-3
-1.493, 2.062e-3
-1.494, 2.088e-3
-1.495, 2.116e-3
-1.496, 2.146e-3
-1.497, 2.174e-3
-1.498, 2.201e-3
-1.499, 2.230e-3
-1.500, 2.222e-3
-1.499, 2.187e-3
-1.498, 2.153e-3
-1.497, 2.118e-3
-1.496, 2.086e-3
-1.495, 2.054e-3
-1.494, 2.023e-3
-1.493, 1.992e-3
-1.492, 1.960e-3
-1.491, 1.929e-3
-1.490, 1.900e-3
-1.489, 1.871e-3
-1.488, 1.842e-3
-1.487, 1.813e-3
-1.486, 1.785e-3
-1.485, 1.757e-3
-1.484, 1.731e-3
-1.483, 1.703e-3
-1.482, 1.677e-3
-1.481, 1.650e-3
-1.480, 1.625e-3
-1.479, 1.601e-3
-1.478, 1.576e-3
-1.477, 1.551e-3
-1.476, 1.527e-3
-1.475, 1.504e-3
-1.474, 1.481e-3
-1.473, 1.458e-3
-1.472, 1.435e-3
-1.471, 1.412e-3
-1.470, 1.391e-3
-1.469, 1.370e-3
-1.468, 1.349e-3
-1.467, 1.327e-3
-1.466, 1.305e-3
-1.465, 1.284e-3
-1.464, 1.264e-3
-1.463, 1.244e-3
-1.462, 1.224e-3
-1.461, 1.205e-3
-1.460, 1.186e-3
-1.459, 1.168e-3
-1.458, 1.149e-3
-1.457, 1.130e-3
-1.456, 1.112e-3
-1.455, 1.095e-3
-1.454, 1.077e-3
-1.453, 1.060e-3
-1.452, 1.042e-3
-1.451, 1.025e-3
-1.450, 1.010e-3
-1.449, 9.943e-4
-1.448, 9.780e-4
-1.447, 9.614e-4
-1.446, 9.455e-4
-1.445, 9.309e-4
-1.444, 9.165e-4
-1.443, 9.012e-4
-1.442, 8.858e-4
-1.441, 8.712e-4
-1.440, 8.578e-4
-1.439, 8.445e-4
-1.438, 8.305e-4
-1.437, 8.161e-4
-1.436, 8.025e-4
-1.435, 7.900e-4
-1.434, 7.775e-4
-1.433, 7.642e-4
-1.432, 7.509e-4
-1.431, 7.386e-4
-1.430, 7.266e-4
-1.429, 7.151e-4
-1.428, 7.028e-4
-1.427, 6.902e-4
-1.426, 6.788e-4
-1.425, 6.680e-4
-1.424, 6.576e-4
-1.423, 6.460e-4
-1.422, 6.341e-4
-1.421, 6.234e-4
-1.420, 6.134e-4
-1.419, 6.035e-4
-1.418, 5.928e-4
-1.417, 5.818e-4
-1.416, 5.718e-4
-1.415, 5.628e-4
-1.414, 5.533e-4
-1.413, 5.434e-4
-1.412, 5.331e-4
-1.411, 5.237e-4
-1.410, 5.153e-4
-1.409, 5.068e-4
-1.408, 4.973e-4
-1.407, 4.874e-4
-1.406, 4.785e-4
-1.405, 4.709e-4
-1.404, 4.631e-4
-1.403, 4.541e-4
-1.402, 4.452e-4
-1.401, 4.371e-4
-1.400, 4.300e-4
-1.399, 4.226e-4
-1.398, 4.140e-4
-1.397, 4.058e-4
-1.396, 3.982e-4
-1.395, 3.914e-4
-1.394, 3.845e-4
-1.393, 3.764e-4
-1.392, 3.685e-4
-1.391, 3.615e-4
-1.390, 3.552e-4
-1.389, 3.491e-4
-1.388, 3.415e-4
-1.387, 3.340e-4
-1.386, 3.278e-4
-1.385, 3.220e-4
-1.384, 3.161e-4
-1.383, 3.091e-4
-1.382, 3.019e-4
-1.381, 2.961e-4
-1.380, 2.908e-4
-1.379, 2.853e-4
-1.378, 2.788e-4
-1.377, 2.722e-4
-1.376, 2.669e-4
-1.375, 2.621e-4
-1.374, 2.570e-4
-1.373, 2.509e-4
-1.372, 2.448e-4
-1.371, 2.396e-4
-1.370, 2.352e-4
-1.369, 2.304e-4
-1.368, 2.248e-4
-1.367, 2.193e-4
-1.366, 2.144e-4
-1.365, 2.106e-4
-1.364, 2.064e-4
-1.363, 2.007e-4
-1.362, 1.956e-4
-1.361, 1.913e-4
-1.360, 1.877e-4
-1.359, 1.839e-4
-1.358, 1.786e-4
-1.357, 1.739e-4
-1.356, 1.700e-4
-1.355, 1.666e-4
-1.354, 1.632e-4
-1.353, 1.584e-4
-1.352, 1.539e-4
-1.351, 1.505e-4
-1.350, 1.475e-4
-1.349, 1.443e-4
-1.348, 1.399e-4
-1.347, 1.358e-4
-1.346, 1.328e-4
-1.345, 1.301e-4
-1.344, 1.273e-4
-1.343, 1.232e-4
-1.342, 1.194e-4
-1.341, 1.168e-4
-1.340, 1.146e-4
-1.339, 1.118e-4
-1.338, 1.082e-4
-1.337, 1.047e-4
-1.336, 1.024e-4
-1.335, 1.005e-4
-1.334, 9.788e-5
-1.333, 9.455e-5
-1.332, 9.147e-5
-1.331, 8.927e-5
-1.330, 8.763e-5
-1.329, 8.546e-5
-1.328, 8.235e-5
-1.327, 7.938e-5
-1.326, 7.750e-5
-1.325, 7.625e-5
-1.324, 7.426e-5
-1.323, 7.124e-5
-1.322, 6.868e-5
-1.321, 6.699e-5
-1.320, 6.595e-5
-1.319, 6.420e-5
-1.318, 6.140e-5
-1.317, 5.916e-5
-1.316, 5.778e-5
-1.315, 5.678e-5
-1.314, 5.516e-5
-1.313, 5.263e-5
-1.312, 5.062e-5
-1.311, 4.944e-5
-1.310, 4.864e-5
-1.309, 4.729e-5
-1.308, 4.502e-5
-1.307, 4.296e-5
-1.306, 4.204e-5
-1.305, 4.146e-5
-1.304, 4.021e-5
-1.303, 3.810e-5
-1.302, 3.625e-5
-1.301, 3.550e-5
-1.300, 3.510e-5
-1.299, 3.372e-5
-1.298, 3.196e-5
-1.297, 3.031e-5
-1.296, 2.970e-5
-1.295, 2.948e-5
-1.294, 2.827e-5
-1.293, 2.661e-5
-1.292, 2.513e-5
-1.291, 2.448e-5
-1.290, 2.446e-5
-1.289, 2.348e-5
-1.288, 2.179e-5
-1.287, 2.045e-5
-1.286, 2.000e-5
-1.285, 2.010e-5
-1.284, 1.920e-5
-1.283, 1.745e-5
-1.282, 1.638e-5
-1.281, 1.603e-5
-1.280, 1.608e-5
-1.279, 1.532e-5
-1.278, 1.385e-5
-1.277, 1.282e-5
-1.276, 1.253e-5
-1.275, 1.271e-5
-1.274, 1.199e-5
-1.273, 1.046e-5
-1.272, 9.549e-6
-1.271, 9.634e-6
-1.270, 9.626e-6
-1.269, 9.092e-6
-1.268, 7.747e-6
-1.267, 6.722e-6
-1.266, 6.907e-6
-1.265, 7.059e-6
-1.264, 6.557e-6
-1.263, 5.144e-6
-1.262, 4.233e-6
-1.261, 4.514e-6
-1.260, 4.880e-6
-1.259, 4.127e-6
-1.258, 3.011e-6
-1.257, 2.127e-6
-1.256, 2.474e-6
-1.255, 2.807e-6
-1.254, 2.191e-6
-1.253, 1.035e-6
-1.252, 3.796e-7
-1.251, 4.990e-7
-1.250, 1.059e-6
-1.249, 4.477e-7
-1.248, -6.385e-7
-1.247, -1.292e-6
-1.246, -1.107e-6
-1.245, -4.895e-7
-1.244, -9.582e-7
-1.243, -2.216e-6
-1.242, -2.761e-6
-1.241, -2.529e-6
-1.240, -1.828e-6
-1.239, -2.298e-6
-1.238, -3.508e-6
-1.237, -4.060e-6
-1.236, -3.542e-6
-1.235, -3.125e-6
-1.234, -3.504e-6
-1.233, -4.745e-6
-1.232, -5.095e-6
-1.231, -4.506e-6
-1.230, -4.226e-6
-1.229, -4.720e-6
-1.228, -5.624e-6
-1.227, -6.199e-6
-1.226, -5.544e-6
-1.225, -5.180e-6
-1.224, -5.455e-6
-1.223, -6.498e-6
-1.222, -7.034e-6
-1.221, -6.322e-6
-1.220, -5.789e-6
-1.219, -6.270e-6
-1.218, -7.166e-6
-1.217, -7.758e-6
-1.216, -7.011e-6
-1.215, -6.491e-6
-1.214, -6.999e-6
-1.213, -7.845e-6
-1.212, -8.338e-6
-1.211, -7.632e-6
-1.210, -7.091e-6
-1.209, -7.566e-6
-1.208, -8.407e-6
-1.207, -8.915e-6
-1.206, -8.208e-6
-1.205, -7.602e-6
-1.204, -8.004e-6
-1.203, -9.066e-6
-1.202, -9.362e-6
-1.201, -8.671e-6
-1.200, -8.084e-6
-1.199, -8.506e-6
-1.198, -9.548e-6
-1.197, -9.709e-6
-1.196, -8.994e-6
-1.195, -8.626e-6
-1.194, -8.878e-6
-1.193, -9.967e-6
-1.192, -1.012e-5
-1.191, -9.367e-6
-1.190, -8.929e-6
-1.189, -9.287e-6
-1.188, -1.018e-5
-1.187, -1.056e-5
-1.186, -9.759e-6
-1.185, -9.214e-6
-1.184, -9.645e-6
-1.183, -1.051e-5
-1.182, -1.087e-5
-1.181, -9.976e-6
-1.180, -9.480e-6
-1.179, -1.002e-5
-1.178, -1.094e-5
-1.177, -1.114e-5
-1.176, -1.027e-5
-1.175, -9.724e-6
-1.174, -1.032e-5
-1.173, -1.110e-5
-1.172, -1.124e-5
-1.171, -1.066e-5
-1.170, -9.973e-6
-1.169, -1.058e-5
-1.168, -1.139e-5
-1.167, -1.149e-5
-1.166, -1.092e-5
-1.165, -1.015e-5
-1.164, -1.075e-5
-1.163, -1.168e-5
-1.162, -1.171e-5
-1.161, -1.110e-5
-1.160, -1.046e-5
-1.159, -1.101e-5
-1.158, -1.206e-5
-1.157, -1.193e-5
-1.156, -1.118e-5
-1.155, -1.071e-5
-1.154, -1.114e-5
-1.153, -1.210e-5
-1.152, -1.211e-5
-1.151, -1.140e-5
-1.150, -1.095e-5
-1.149, -1.133e-5
-1.148, -1.229e-5
-1.147, -1.230e-5
-1.146, -1.150e-5
-1.145, -1.108e-5
-1.144, -1.146e-5
-1.143, -1.244e-5
-1.142, -1.241e-5
-1.141, -1.166e-5
-1.140, -1.118e-5
-1.139, -1.177e-5
-1.138, -1.261e-5
-1.137, -1.269e-5
-1.136, -1.182e-5
-1.135, -1.130e-5
-1.134, -1.192e-5
-1.133, -1.278e-5
-1.132, -1.268e-5
-1.131, -1.213e-5
-1.130, -1.147e-5
-1.129, -1.210e-5
-1.128, -1.287e-5
-1.127, -1.285e-5
-1.126, -1.222e-5
-1.125, -1.163e-5
-1.124, -1.222e-5
-1.123, -1.317e-5
-1.122, -1.298e-5
-1.121, -1.238e-5
-1.120, -1.181e-5
-1.119, -1.240e-5
-1.118, -1.334e-5
-1.117, -1.315e-5
-1.116, -1.245e-5
-1.115, -1.208e-5
-1.114, -1.259e-5
-1.113, -1.353e-5
-1.112, -1.343e-5
-1.111, -1.259e-5
-1.110, -1.231e-5
-1.109, -1.271e-5
-1.108, -1.360e-5
-1.107, -1.370e-5
-1.106, -1.283e-5
-1.105, -1.246e-5
-1.104, -1.304e-5
-1.103, -1.393e-5
-1.102, -1.391e-5
-1.101, -1.296e-5
-1.100, -1.254e-5
-1.099, -1.330e-5
-1.098, -1.411e-5
-1.097, -1.399e-5
-1.096, -1.318e-5
-1.095, -1.272e-5
-1.094, -1.356e-5
-1.093, -1.425e-5
-1.092, -1.415e-5
-1.091, -1.344e-5
-1.090, -1.293e-5
-1.089, -1.371e-5
-1.088, -1.444e-5
-1.087, -1.433e-5
-1.086, -1.375e-5
-1.085, -1.312e-5
-1.084, -1.389e-5
-1.083, -1.486e-5
-1.082, -1.461e-5
-1.081, -1.391e-5
-1.080, -1.343e-5
-1.079, -1.405e-5
-1.078, -1.513e-5
-1.077, -1.481e-5
-1.076, -1.411e-5
-1.075, -1.378e-5
-1.074, -1.446e-5
-1.073, -1.537e-5
-1.072, -1.505e-5
-1.071, -1.437e-5
-1.070, -1.403e-5
-1.069, -1.469e-5
-1.068, -1.560e-5
-1.067, -1.553e-5
-1.066, -1.466e-5
-1.065, -1.433e-5
-1.064, -1.504e-5
-1.063, -1.598e-5
-1.062, -1.590e-5
-1.061, -1.495e-5
-1.060, -1.467e-5
-1.059, -1.555e-5
-1.058, -1.635e-5
-1.057, -1.627e-5
-1.056, -1.546e-5
-1.055, -1.502e-5
-1.054, -1.599e-5
-1.053, -1.679e-5
-1.052, -1.656e-5
-1.051, -1.595e-5
-1.050, -1.553e-5
-1.049, -1.653e-5
-1.048, -1.732e-5
-1.047, -1.702e-5
-1.046, -1.645e-5
-1.045, -1.605e-5
-1.044, -1.697e-5
-1.043, -1.782e-5
-1.042, -1.762e-5
-1.041, -1.699e-5
-1.040, -1.658e-5
-1.039, -1.752e-5
-1.038, -1.840e-5
-1.037, -1.824e-5
-1.036, -1.746e-5
-1.035, -1.726e-5
-1.034, -1.818e-5
-1.033, -1.908e-5
-1.032, -1.886e-5
-1.031, -1.811e-5
-1.030, -1.797e-5
-1.029, -1.880e-5
-1.028, -1.966e-5
-1.027, -1.956e-5
-1.026, -1.884e-5
-1.025, -1.856e-5
-1.024, -1.975e-5
-1.023, -2.037e-5
-1.022, -2.027e-5
-1.021, -1.948e-5
-1.020, -1.924e-5
-1.019, -2.041e-5
-1.018, -2.112e-5
-1.017, -2.105e-5
-1.016, -2.025e-5
-1.015, -2.000e-5
-1.014, -2.119e-5
-1.013, -2.186e-5
-1.012, -2.166e-5
-1.011, -2.107e-5
-1.010, -2.083e-5
-1.009, -2.192e-5
-1.008, -2.260e-5
-1.007, -2.247e-5
-1.006, -2.189e-5
-1.005, -2.158e-5
-1.004, -2.266e-5
-1.003, -2.356e-5
-1.002, -2.333e-5
-1.001, -2.270e-5
-1.000, -4.505e-6
-1.001, -3.189e-7
-1.002, 6.993e-7
-1.003, 2.104e-6
-1.004, 3.924e-6
-1.005, 4.878e-6
-1.006, 4.601e-6
-1.007, 4.659e-6
-1.008, 5.466e-6
-1.009, 6.851e-6
-1.010, 7.533e-6
-1.011, 6.946e-6
-1.012, 6.768e-6
-1.013, 7.438e-6
-1.014, 8.658e-6
-1.015, 9.247e-6
-1.016, 8.466e-6
-1.017, 8.120e-6
-1.018, 8.854e-6
-1.019, 9.907e-6
-1.020, 1.025e-5
-1.021, 9.600e-6
-1.022, 9.120e-6
-1.023, 9.848e-6
-1.024, 1.084e-5
-1.025, 1.099e-5
-1.026, 1.047e-5
-1.027, 9.842e-6
-1.028, 1.049e-5
-1.029, 1.154e-5
-1.030, 1.160e-5
-1.031, 1.101e-5
-1.032, 1.042e-5
-1.033, 1.096e-5
-1.034, 1.203e-5
-1.035, 1.206e-5
-1.036, 1.136e-5
-1.037, 1.083e-5
-1.038, 1.130e-5
-1.039, 1.245e-5
-1.040, 1.238e-5
-1.041, 1.157e-5
-1.042, 1.118e-5
-1.043, 1.155e-5
-1.044, 1.263e-5
-1.045, 1.259e-5
-1.046, 1.178e-5
-1.047, 1.142e-5
-1.048, 1.173e-5
-1.049, 1.272e-5
-1.050, 1.275e-5
-1.051, 1.185e-5
-1.052, 1.144e-5
-1.053, 1.193e-5
-1.054, 1.287e-5
-1.055, 1.280e-5
-1.056, 1.192e-5
-1.057, 1.136e-5
-1.058, 1.207e-5
-1.059, 1.284e-5
-1.060, 1.284e-5
-1.061, 1.190e-5
-1.062, 1.145e-5
-1.063, 1.203e-5
-1.064, 1.289e-5
-1.065, 1.277e-5
-1.066, 1.193e-5
-1.067, 1.145e-5
-1.068, 1.201e-5
-1.069, 1.281e-5
-1.070, 1.278e-5
-1.071, 1.200e-5
-1.072, 1.137e-5
-1.073, 1.200e-5
-1.074, 1.286e-5
-1.075, 1.280e-5
-1.076, 1.183e-5
-1.077, 1.142e-5
-1.078, 1.198e-5
-1.079, 1.283e-5
-1.080, 1.261e-5
-1.081, 1.170e-5
-1.082, 1.145e-5
-1.083, 1.190e-5
-1.084, 1.271e-5
-1.085, 1.257e-5
-1.086, 1.166e-5
-1.087, 1.140e-5
-1.088, 1.193e-5
-1.089, 1.262e-5
-1.090, 1.257e-5
-1.091, 1.155e-5
-1.092, 1.121e-5
-1.093, 1.191e-5
-1.094, 1.253e-5
-1.095, 1.251e-5
-1.096, 1.150e-5
-1.097, 1.110e-5
-1.098, 1.188e-5
-1.099, 1.257e-5
-1.100, 1.238e-5
-1.101, 1.149e-5
-1.102, 1.103e-5
-1.103, 1.186e-5
-1.104, 1.255e-5
-1.105, 1.227e-5
-1.106, 1.144e-5
-1.107, 1.106e-5
-1.108, 1.174e-5
-1.109, 1.255e-5
-1.110, 1.228e-5
-1.111, 1.140e-5
-1.112, 1.106e-5
-1.113, 1.170e-5
-1.114, 1.260e-5
-1.115, 1.221e-5
-1.116, 1.139e-5
-1.117, 1.101e-5
-1.118, 1.181e-5
-1.119, 1.262e-5
-1.120, 1.221e-5
-1.121, 1.129e-5
-1.122, 1.114e-5
-1.123, 1.169e-5
-1.124, 1.256e-5
-1.125, 1.223e-5
-1.126, 1.135e-5
-1.127, 1.113e-5
-1.128, 1.184e-5
-1.129, 1.244e-5
-1.130, 1.229e-5
-1.131, 1.140e-5
-1.132, 1.105e-5
-1.133, 1.200e-5
-1.134, 1.249e-5
-1.135, 1.231e-5
-1.136, 1.133e-5
-1.137, 1.104e-5
-1.138, 1.197e-5
-1.139, 1.261e-5
-1.140, 1.227e-5
-1.141, 1.147e-5
-1.142, 1.102e-5
-1.143, 1.212e-5
-1.144, 1.260e-5
-1.145, 1.223e-5
-1.146, 1.154e-5
-1.147, 1.117e-5
-1.148, 1.210e-5
-1.149, 1.276e-5
-1.150, 1.230e-5
-1.151, 1.149e-5
-1.152, 1.125e-5
-1.153, 1.215e-5
-1.154, 1.281e-5
-1.155, 1.233e-5
-1.156, 1.156e-5
-1.157, 1.135e-5
-1.158, 1.225e-5
-1.159, 1.286e-5
-1.160, 1.241e-5
-1.161, 1.153e-5
-1.162, 1.152e-5
-1.163, 1.232e-5
-1.164, 1.284e-5
-1.165, 1.259e-5
-1.166, 1.164e-5
-1.167, 1.167e-5
-1.168, 1.238e-5
-1.169, 1.295e-5
-1.170, 1.268e-5
-1.171, 1.177e-5
-1.172, 1.163e-5
-1.173, 1.259e-5
-1.174, 1.308e-5
-1.175, 1.282e-5
-1.176, 1.182e-5
-1.177, 1.192e-5
-1.178, 1.280e-5
-1.179, 1.326e-5
-1.180, 1.289e-5
-1.181, 1.209e-5
-1.182, 1.207e-5
-1.183, 1.297e-5
-1.184, 1.348e-5
-1.185, 1.304e-5
-1.186, 1.231e-5
-1.187, 1.228e-5
-1.188, 1.311e-5
-1.189, 1.377e-5
-1.190, 1.319e-5
-1.191, 1.258e-5
-1.192, 1.258e-5
-1.193, 1.336e-5
-1.194, 1.412e-5
-1.195, 1.354e-5
-1.196, 1.271e-5
-1.197, 1.293e-5
-1.198, 1.374e-5
-1.199, 1.437e-5
-1.200, 1.381e-5
-1.201, 1.301e-5
-1.202, 1.335e-5
-1.203, 1.404e-5
-1.204, 1.468e-5
-1.205, 1.421e-5
-1.206, 1.346e-5
-1.207, 1.378e-5
-1.208, 1.447e-5
-1.209, 1.514e-5
-1.210, 1.475e-5
-1.211, 1.388e-5
-1.212, 1.425e-5
-1.213, 1.504e-5
-1.214, 1.564e-5
-1.215, 1.534e-5
-1.216, 1.447e-5
-1.217, 1.471e-5
-1.218, 1.570e-5
-1.219, 1.619e-5
-1.220, 1.584e-5
-1.221, 1.518e-5
-1.222, 1.540e-5
-1.223, 1.641e-5
-1.224, 1.689e-5
-1.225, 1.659e-5
-1.226, 1.590e-5
-1.227, 1.621e-5
-1.228, 1.727e-5
-1.229, 1.791e-5
-1.230, 1.737e-5
-1.231, 1.688e-5
-1.232, 1.704e-5
-1.233, 1.805e-5
-1.234, 1.880e-5
-1.235, 1.832e-5
-1.236, 1.780e-5
-1.237, 1.818e-5
-1.238, 1.911e-5
-1.239, 1.996e-5
-1.240, 1.944e-5
-1.241, 1.890e-5
-1.242, 1.948e-5
-1.243, 2.035e-5
-1.244, 2.115e-5
-1.245, 2.086e-5
-1.246, 2.026e-5
-1.247, 2.086e-5
-1.248, 2.182e-5
-1.249, 2.261e-5
-1.250, 2.238e-5
-1.251, 2.185e-5
-1.252, 2.246e-5
-1.253, 2.356e-5
-1.254, 2.442e-5
-1.255, 2.415e-5
-1.256, 2.363e-5
-1.257, 2.427e-5
-1.258, 2.556e-5
-1.259, 2.628e-5
-1.260, 2.609e-5
-1.261, 2.573e-5
-1.262, 2.641e-5
-1.263, 2.776e-5
-1.264, 2.855e-5
-1.265, 2.826e-5
-1.266, 2.817e-5
-1.267, 2.878e-5
-1.268, 3.020e-5
-1.269, 3.111e-5
-1.270, 3.095e-5
-1.271, 3.080e-5
-1.272, 3.146e-5
-1.273, 3.295e-5
-1.274, 3.406e-5
-1.275, 3.384e-5
-1.276, 3.377e-5
-1.277, 3.466e-5
-1.278, 3.608e-5
-1.279, 3.732e-5
-1.280, 3.723e-5
-1.281, 3.717e-5
-1.282, 3.826e-5
-1.283, 3.975e-5
-1.284, 4.091e-5
-1.285, 4.094e-5
-1.286, 4.100e-5
-1.287, 4.215e-5
-1.288, 4.379e-5
-1.289, 4.500e-5
-1.290, 4.521e-5
-1.291, 4.537e-5
-1.292, 4.658e-5
-1.293, 4.841e-5
-1.294, 4.975e-5
-1.295, 4.997e-5
-1.296, 5.024e-5
-1.297, 5.162e-5
-1.298, 5.356e-5
-1.299, 5.497e-5
-1.300, 5.529e-5
-1.301, 5.577e-5
-1.302, 5.726e-5
-1.303, 5.935e-5
-1.304, 6.085e-5
-1.305, 6.137e-5
-1.306, 6.206e-5
-1.307, 6.358e-5
-1.308, 6.583e-5
-1.309, 6.758e-5
-1.310, 6.817e-5
-1.311, 6.902e-5
-1.312, 7.078e-5
-1.313, 7.311e-5
-1.314, 7.513e-5
-1.315, 7.579e-5
-1.316, 7.686e-5
-1.317, 7.896e-5
-1.318, 8.139e-5
-1.319, 8.359e-5
-1.320, 8.441e-5
-1.321, 8.570e-5
-1.322, 8.805e-5
-1.323, 9.070e-5
-1.324, 9.302e-5
-1.325, 9.409e-5
-1.326, 9.567e-5
-1.327, 9.821e-5
-1.328, 1.011e-4
-1.329, 1.036e-4
-1.330, 1.050e-4
-1.331, 1.067e-4
-1.332, 1.096e-4
-1.333, 1.127e-4
-1.334, 1.154e-4
-1.335, 1.172e-4
-1.336, 1.191e-4
-1.337, 1.222e-4
-1.338, 1.258e-4
-1.339, 1.287e-4
-1.340, 1.308e-4
-1.341, 1.331e-4
-1.342, 1.364e-4
-1.343, 1.403e-4
-1.344, 1.435e-4
-1.345, 1.459e-4
-1.346, 1.487e-4
-1.347, 1.523e-4
-1.348, 1.566e-4
-1.349, 1.601e-4
-1.350, 1.629e-4
-1.351, 1.659e-4
-1.352, 1.700e-4
-1.353, 1.746e-4
-1.354, 1.786e-4
-1.355, 1.817e-4
-1.356, 1.852e-4
-1.357, 1.896e-4
-1.358, 1.946e-4
-1.359, 1.990e-4
-1.360, 2.025e-4
-1.361, 2.062e-4
-1.362, 2.112e-4
-1.363, 2.167e-4
-1.364, 2.214e-4
-1.365, 2.253e-4
-1.366, 2.294e-4
-1.367, 2.349e-4
-1.368, 2.407e-4
-1.369, 2.458e-4
-1.370, 2.504e-4
-1.371, 2.550e-4
-1.372, 2.608e-4
-1.373, 2.670e-4
-1.374, 2.725e-4
-1.375, 2.775e-4
-1.376, 2.826e-4
-1.377, 2.888e-4
-1.378, 2.955e-4
-1.379, 3.014e-4
-1.380, 3.069e-4
-1.381, 3.125e-4
-1.382, 3.193e-4
-1.383, 3.266e-4
-1.384, 3.330e-4
-1.385, 3.389e-4
-1.386, 3.451e-4
-1.387, 3.520e-4
-1.388, 3.598e-4
-1.389, 3.668e-4
-1.390, 3.730e-4
-1.391, 3.798e-4
-1.392, 3.872e-4
-1.393, 3.955e-4
-1.394, 4.031e-4
-1.395, 4.098e-4
-1.396, 4.169e-4
-1.397, 4.250e-4
-1.398, 4.336e-4
-1.399, 4.417e-4
-1.400, 4.489e-4
-1.401, 4.565e-4
-1.402, 4.652e-4
-1.403, 4.743e-4
-1.404, 4.827e-4
-1.405, 4.907e-4
-1.406, 4.988e-4
-1.407, 5.079e-4
-1.408, 5.176e-4
-1.409, 5.266e-4
-1.410, 5.351e-4
-1.411, 5.437e-4
-1.412, 5.535e-4
-1.413, 5.637e-4
-1.414, 5.736e-4
-1.415, 5.826e-4
-1.416, 5.912e-4
-1.417, 6.010e-4
-1.418, 6.119e-4
-1.419, 6.223e-4
-1.420, 6.320e-4
-1.421, 6.417e-4
-1.422, 6.524e-4
-1.423, 6.638e-4
-1.424, 6.743e-4
-1.425, 6.844e-4
-1.426, 6.951e-4
-1.427, 7.067e-4
-1.428, 7.188e-4
-1.429, 7.301e-4
-1.430, 7.407e-4
-1.431, 7.521e-4
-1.432, 7.640e-4
-1.433, 7.768e-4
-1.434, 7.891e-4
-1.435, 8.005e-4
-1.436, 8.126e-4
-1.437, 8.256e-4
-1.438, 8.389e-4
-1.439, 8.520e-4
-1.440, 8.641e-4
-1.441, 8.768e-4
-1.442, 8.906e-4
-1.443, 9.051e-4
-1.444, 9.188e-4
-1.445, 9.317e-4
-1.446, 9.452e-4
-1.447, 9.600e-4
-1.448, 9.752e-4
-1.449, 9.897e-4
-1.450, 1.004e-3
-1.451, 1.018e-3
-1.452, 1.034e-3
-1.453, 1.050e-3
-1.454, 1.066e-3
-1.455, 1.080e-3
-1.456, 1.096e-3
-1.457, 1.112e-3
-1.458, 1.129e-3
-1.459, 1.146e-3
-1.460, 1.162e-3
-1.461, 1.179e-3
-1.462, 1.196e-3
-1.463, 1.215e-3
-1.464, 1.232e-3
-1.465, 1.250e-3
-1.466, 1.268e-3
-1.467, 1.286e-3
-1.468, 1.305e-3
-1.469, 1.324e-3
-1.470, 1.343e-3
-1.471, 1.362e-3
-1.472, 1.382e-3
-1.473, 1.402e-3
-1.474, 1.422e-3
-1.475, 1.442e-3
-1.476, 1.462e-3
-1.477, 1.484e-3
-1.478, 1.506e-3
-1.479, 1.528e-3
-1.480, 1.549e-3
-1.481, 1.570e-3
-1.482, 1.593e-3
-1.483, 1.617e-3
-1.484, 1.640e-3
-1.485, 1.663e-3
-1.486, 1.686e-3
-1.487, 1.710e-3
-1.488, 1.736e-3
-1.489, 1.760e-3
-1.490, 1.784e-3
-1.491, 1.809e-3
-1.492, 1.834e-3
-1.493, 1.861e-3
-1.494, 1.887e-3
-1.495, 1.914e-3
-1.496, 1.940e-3
-1.497, 1.968e-3
-1.498, 1.996e-3
-1.499, 2.023e-3
-1.500, 2.014e-3
-1.499, 1.981e-3
-1.498, 1.951e-3
-1.497, 1.921e-3
-1.496, 1.890e-3
-1.495, 1.859e-3
-1.494, 1.830e-3
-1.493, 1.801e-3
-1.492, 1.774e-3
-1.491, 1.745e-3
-1.490, 1.717e-3
-1.489, 1.690e-3
-1.488, 1.664e-3
-1.487, 1.638e-3
-1.486, 1.612e-3
-1.485, 1.586e-3
-1.484, 1.560e-3
-1.483, 1.536e-3
-1.482, 1.512e-3
-1.481, 1.488e-3
-1.480, 1.465e-3
-1.479, 1.441e-3
-1.478, 1.419e-3
-1.477, 1.397e-3
-1.476, 1.375e-3
-1.475, 1.352e-3
-1.474, 1.330e-3
-1.473, 1.310e-3
-1.472, 1.291e-3
-1.471, 1.270e-3
-1.470, 1.248e-3
-1.469, 1.226e-3
-1.468, 1.207e-3
-1.467, 1.188e-3
-1.466, 1.169e-3
-1.465, 1.150e-3
-1.464, 1.131e-3
-1.463, 1.113e-3
-1.462, 1.096e-3
-1.461, 1.078e-3
-1.460, 1.059e-3
-1.459, 1.042e-3
-1.458, 1.025e-3
-1.457, 1.009e-3
-1.456, 9.922e-4
-1.455, 9.750e-4
-1.454, 9.589e-4
-1.453, 9.440e-4
-1.452, 9.290e-4
-1.451, 9.130e-4
-1.450, 8.972e-4
-1.449, 8.823e-4
-1.448, 8.681e-4
-1.447, 8.538e-4
-1.446, 8.388e-4
-1.445, 8.241e-4
-1.444, 8.103e-4
-1.443, 7.973e-4
-1.442, 7.846e-4
-1.441, 7.708e-4
-1.440, 7.571e-4
-1.439, 7.443e-4
-1.438, 7.324e-4
-1.437, 7.207e-4
-1.436, 7.079e-4
-1.435, 6.942e-4
-1.434, 6.824e-4
-1.433, 6.714e-4
-1.432, 6.607e-4
-1.431, 6.490e-4
-1.430, 6.366e-4
-1.429, 6.254e-4
-1.428, 6.151e-4
-1.427, 6.052e-4
-1.426, 5.944e-4
-1.425, 5.828e-4
-1.424, 5.729e-4
-1.423, 5.634e-4
-1.422, 5.538e-4
-1.421, 5.436e-4
-1.420, 5.330e-4
-1.419, 5.214e-4
-1.418, 5.089e-4
-1.417, 5.001e-4
-1.416, 4.906e-4
-1.415, 4.807e-4
-1.414, 4.716e-4
-1.413, 4.637e-4
-1.412, 4.556e-4
-1.411, 4.468e-4
-1.410, 4.374e-4
-1.409, 4.289e-4
-1.408, 4.215e-4
-1.407, 4.141e-4
-1.406, 4.055e-4
-1.405, 3.968e-4
-1.404, 3.889e-4
-1.403, 3.821e-4
-1.402, 3.752e-4
-1.401, 3.673e-4
-1.400, 3.592e-4
-1.399, 3.520e-4
-1.398, 3.456e-4
-1.397, 3.393e-4
-1.396, 3.319e-4
-1.395, 3.242e-4
-1.394, 3.177e-4
-1.393, 3.118e-4
-1.392, 3.061e-4
-1.391, 2.992e-4
-1.390, 2.920e-4
-1.389, 2.861e-4
-1.388, 2.810e-4
-1.387, 2.754e-4
-1.386, 2.690e-4
-1.385, 2.620e-4
-1.384, 2.564e-4
-1.383, 2.514e-4
-1.382, 2.464e-4
-1.381, 2.404e-4
-1.380, 2.343e-4
-1.379, 2.290e-4
-1.378, 2.246e-4
-1.377, 2.199e-4
-1.376, 2.144e-4
-1.375, 2.085e-4
-1.374, 2.036e-4
-1.373, 1.997e-4
-1.372, 1.954e-4
-1.371, 1.901e-4
-1.370, 1.849e-4
-1.369, 1.805e-4
-1.368, 1.770e-4
-1.367, 1.732e-4
-1.366, 1.682e-4
-1.365, 1.634e-4
-1.364, 1.595e-4
-1.363, 1.562e-4
-1.362, 1.529e-4
-1.361, 1.485e-4
-1.360, 1.439e-4
-1.359, 1.405e-4
-1.358, 1.376e-4
-1.357, 1.346e-4
-1.356, 1.306e-4
-1.355, 1.265e-4
-1.354, 1.234e-4
-1.353, 1.210e-4
-1.352, 1.183e-4
-1.351, 1.146e-4
-1.350, 1.109e-4
-1.349, 1.082e-4
-1.348, 1.061e-4
-1.347, 1.036e-4
-1.346, 1.004e-4
-1.345, 9.678e-5
-1.344, 9.453e-5
-1.343, 9.279e-5
-1.342, 9.059e-5
-1.341, 8.753e-5
-1.340, 8.437e-5
-1.339, 8.224e-5
-1.338, 8.080e-5
-1.337, 7.886e-5
-1.336, 7.606e-5
-1.335, 7.322e-5
-1.334, 7.132e-5
-1.333, 7.016e-5
-1.332, 6.861e-5
-1.331, 6.578e-5
-1.330, 6.330e-5
-1.329, 6.166e-5
-1.328, 6.070e-5
-1.327, 5.936e-5
-1.326, 5.673e-5
-1.325, 5.446e-5
-1.324, 5.311e-5
-1.323, 5.221e-5
-1.322, 5.114e-5
-1.321, 4.876e-5
-1.320, 4.667e-5
-1.319, 4.551e-5
-1.318, 4.474e-5
-1.317, 4.390e-5
-1.316, 4.179e-5
-1.315, 3.960e-5
-1.314, 3.882e-5
-1.313, 3.822e-5
-1.312, 3.741e-5
-1.311, 3.547e-5
-1.310, 3.354e-5
-1.309, 3.288e-5
-1.308, 3.241e-5
-1.307, 3.163e-5
-1.306, 2.985e-5
-1.305, 2.810e-5
-1.304, 2.739e-5
-1.303, 2.725e-5
-1.302, 2.661e-5
-1.301, 2.494e-5
-1.300, 2.334e-5
-1.299, 2.268e-5
-1.298, 2.267e-5
-1.297, 2.216e-5
-1.296, 2.053e-5
-1.295, 1.911e-5
-1.294, 1.853e-5
-1.293, 1.862e-5
-1.292, 1.821e-5
-1.291, 1.663e-5
-1.290, 1.521e-5
-1.289, 1.493e-5
-1.288, 1.510e-5
-1.287, 1.468e-5
-1.286, 1.313e-5
-1.285, 1.199e-5
-1.284, 1.172e-5
-1.283, 1.176e-5
-1.282, 1.168e-5
-1.281, 1.014e-5
-1.280, 8.920e-6
-1.279, 8.836e-6
-1.278, 9.043e-6
-1.277, 8.879e-6
-1.276, 7.517e-6
-1.275, 6.344e-6
-1.274, 6.328e-6
-1.273, 6.521e-6
-1.272, 6.545e-6
-1.271, 5.205e-6
-1.270, 4.108e-6
-1.269, 4.084e-6
-1.268, 4.500e-6
-1.267, 4.299e-6
-1.266, 3.092e-6
-1.265, 2.086e-6
-1.264, 2.155e-6
-1.263, 2.597e-6
-1.262, 2.405e-6
-1.261, 1.307e-6
-1.260, 3.510e-7
-1.259, 3.836e-7
-1.258, 9.568e-7
-1.257, 7.713e-7
-1.256, -3.544e-7
-1.255, -1.195e-6
-1.254, -1.159e-6
-1.253, -5.339e-7
-1.252, -6.129e-7
-1.251, -1.834e-6
-1.250, -2.517e-6
-1.249, -2.464e-6
-1.248, -1.867e-6
-1.247, -1.813e-6
-1.246, -3.014e-6
-1.245, -3.711e-6
-1.244, -3.657e-6
-1.243, -3.139e-6
-1.242, -3.055e-6
-1.241, -4.115e-6
-1.240, -4.739e-6
-1.239, -4.576e-6
-1.238, -4.024e-6
-1.237, -3.983e-6
-1.236, -5.014e-6
-1.235, -5.778e-6
-1.234, -5.417e-6
-1.233, -4.859e-6
-1.232, -4.818e-6
-1.231, -5.808e-6
-1.230, -6.622e-6
-1.229, -6.365e-6
-1.228, -5.536e-6
-1.227, -5.761e-6
-1.226, -6.503e-6
-1.225, -7.294e-6
-1.224, -6.918e-6
-1.223, -6.196e-6
-1.222, -6.282e-6
-1.221, -7.231e-6
-1.220, -7.737e-6
-1.219, -7.556e-6
-1.218, -6.801e-6
-1.217, -6.851e-6
-1.216, -7.764e-6
-1.215, -8.350e-6
-1.214, -8.062e-6
-1.213, -7.301e-6
-1.212, -7.324e-6
-1.211, -8.355e-6
-1.210, -8.842e-6
-1.209, -8.551e-6
-1.208, -7.828e-6
-1.207, -7.813e-6
-1.206, -8.747e-6
-1.205, -9.279e-6
-1.204, -8.940e-6
-1.203, -8.186e-6
-1.202, -8.247e-6
-1.201, -9.153e-6
-1.200, -9.754e-6
-1.199, -9.249e-6
-1.198, -8.621e-6
-1.197, -8.667e-6
-1.196, -9.400e-6
-1.195, -1.014e-5
-1.194, -9.630e-6
-1.193, -8.932e-6
-1.192, -8.978e-6
-1.191, -9.724e-6
-1.190, -1.051e-5
-1.189, -9.927e-6
-1.188, -9.164e-6
-1.187, -9.318e-6
-1.186, -1.010e-5
-1.185, -1.072e-5
-1.184, -1.020e-5
-1.183, -9.505e-6
-1.182, -9.670e-6
-1.181, -1.032e-5
-1.180, -1.085e-5
-1.179, -1.052e-5
-1.178, -9.820e-6
-1.177, -9.948e-6
-1.176, -1.068e-5
-1.175, -1.116e-5
-1.174, -1.083e-5
-1.173, -9.896e-6
-1.172, -1.008e-5
-1.171, -1.099e-5
-1.170, -1.142e-5
-1.169, -1.102e-5
-1.168, -1.015e-5
-1.167, -1.029e-5
-1.166, -1.123e-5
-1.165, -1.162e-5
-1.164, -1.115e-5
-1.163, -1.044e-5
-1.162, -1.051e-5
-1.161, -1.136e-5
-1.160, -1.183e-5
-1.159, -1.138e-5
-1.158, -1.065e-5
-1.157, -1.063e-5
-1.156, -1.153e-5
-1.155, -1.205e-5
-1.154, -1.156e-5
-1.153, -1.081e-5
-1.152, -1.093e-5
-1.151, -1.163e-5
-1.150, -1.229e-5
-1.149, -1.170e-5
-1.148, -1.087e-5
-1.147, -1.116e-5
-1.146, -1.196e-5
-1.145, -1.244e-5
-1.144, -1.192e-5
-1.143, -1.102e-5
-1.142, -1.136e-5
-1.141, -1.200e-5
-1.140, -1.252e-5
-1.139, -1.219e-5
-1.138, -1.124e-5
-1.137, -1.153e-5
-1.136, -1.222e-5
-1.135, -1.268e-5
-1.134, -1.232e-5
-1.133, -1.141e-5
-1.132, -1.161e-5
-1.131, -1.246e-5
-1.130, -1.287e-5
-1.129, -1.248e-5
-1.128, -1.158e-5
-1.127, -1.173e-5
-1.126, -1.275e-5
-1.125, -1.306e-5
-1.124, -1.248e-5
-1.123, -1.184e-5
-1.122, -1.198e-5
-1.121, -1.288e-5
-1.120, -1.319e-5
-1.119, -1.268e-5
-1.118, -1.208e-5
-1.117, -1.206e-5
-1.116, -1.303e-5
-1.115, -1.357e-5
-1.114, -1.290e-5
-1.113, -1.220e-5
-1.112, -1.229e-5
-1.111, -1.312e-5
-1.110, -1.368e-5
-1.109, -1.306e-5
-1.108, -1.232e-5
-1.107, -1.256e-5
-1.106, -1.340e-5
-1.105, -1.383e-5
-1.104, -1.323e-5
-1.103, -1.246e-5
-1.102, -1.280e-5
-1.101, -1.365e-5
-1.100, -1.399e-5
-1.099, -1.351e-5
-1.098, -1.272e-5
-1.097, -1.293e-5
-1.096, -1.374e-5
-1.095, -1.421e-5
-1.094, -1.375e-5
-1.093, -1.287e-5
-1.092, -1.308e-5
-1.091, -1.407e-5
-1.090, -1.448e-5
-1.089, -1.390e-5
-1.088, -1.312e-5
-1.087, -1.330e-5
-1.086, -1.442e-5
-1.085, -1.462e-5
-1.084, -1.404e-5
-1.083, -1.346e-5
-1.082, -1.355e-5
-1.081, -1.470e-5
-1.080, -1.499e-5
-1.079, -1.435e-5
-1.078, -1.374e-5
-1.077, -1.385e-5
-1.076, -1.494e-5
-1.075, -1.539e-5
-1.074, -1.465e-5
-1.073, -1.398e-5
-1.072, -1.421e-5
-1.071, -1.518e-5
-1.070, -1.564e-5
-1.069, -1.493e-5
-1.068, -1.422e-5
-1.067, -1.463e-5
-1.066, -1.547e-5
-1.065, -1.599e-5
-1.064, -1.528e-5
-1.063, -1.463e-5
-1.062, -1.505e-5
-1.061, -1.591e-5
-1.060, -1.634e-5
-1.059, -1.572e-5
-1.058, -1.498e-5
-1.057, -1.546e-5
-1.056, -1.631e-5
-1.055, -1.681e-5
-1.054, -1.621e-5
-1.053, -1.542e-5
-1.052, -1.579e-5
-1.051, -1.689e-5
-1.050, -1.723e-5
-1.049, -1.677e-5
-1.048, -1.598e-5
-1.047, -1.632e-5
-1.046, -1.742e-5
-1.045, -1.778e-5
-1.044, -1.710e-5
-1.043, -1.665e-5
-1.042, -1.689e-5
-1.041, -1.794e-5
-1.040, -1.837e-5
-1.039, -1.768e-5
-1.038, -1.722e-5
-1.037, -1.752e-5
-1.036, -1.850e-5
-1.035, -1.918e-5
-1.034, -1.835e-5
-1.033, -1.783e-5
-1.032, -1.820e-5
-1.031, -1.921e-5
-1.030, -1.978e-5
-1.029, -1.904e-5
-1.028, -1.845e-5
-1.027, -1.895e-5
-1.026, -1.990e-5
-1.025, -2.050e-5
-1.024, -1.981e-5
-1.023, -1.924e-5
-1.022, -1.970e-5
-1.021, -2.066e-5
-1.020, -2.120e-5
-1.019, -2.063e-5
-1.018, -1.996e-5
-1.017, -2.042e-5
-1.016, -2.152e-5
-1.015, -2.193e-5
-1.014, -2.138e-5
-1.013, -2.075e-5
-1.012, -2.115e-5
-1.011, -2.239e-5
-1.010, -2.284e-5
-1.009, -2.214e-5
-1.008, -2.158e-5
-1.007, -2.204e-5
-1.006, -2.325e-5
-1.005, -2.368e-5
-1.004, -2.290e-5
-1.003, -2.251e-5
-1.002, -2.297e-5
-1.001, -2.415e-5
