Potential V vs RHE, Current mA cm-2
0.013299999999999867,-0.08943804837746762
0.012299999999999978,-0.3511313446265021
0.011299999999999866,-0.48199213986401795
0.010299999999999976,-0.5692798270656908
0.009299999999999864,-0.6564260431373771
0.008299999999999974,-0.7437137303390498
0.007299999999999862,-0.7872868383748929
0.006299999999999972,-0.8308599464107361
0.00529999999999986,-0.8745745255765657
0.0042999999999999705,-0.9181476336124089
0.0032999999999998586,-0.9617207416482519
0.0022999999999999687,-0.9617207416482519
0.0012999999999998568,-1.0054353208140816
0.00029999999999996696,-1.0490084288499246
-0.000700000000000145,-1.0925815368857679
-0.0017000000000000348,-1.1362961160515976
-0.0027000000000001467,-1.1798692240874404
-0.0037000000000000366,-1.1798692240874404
-0.0047000000000001485,-1.2234423321232837
-0.005700000000000038,-1.2234423321232837
-0.00670000000000015,-1.2671569112891135
-0.00770000000000004,-1.3107300193249565
-0.008700000000000152,-1.3107300193249565
-0.009700000000000042,-1.3543031273607997
-0.010700000000000154,-1.3980177065266295
-0.011700000000000044,-1.4415908145624723
-0.012700000000000156,-1.4415908145624723
-0.013700000000000045,-1.4854468648582886
-0.014700000000000157,-1.5293029151541047
-0.015700000000000047,-1.5717442541500557
-0.01670000000000016,-1.5717442541500557
-0.01770000000000005,-1.6156003044458718
-0.01870000000000016,-1.6594563547416883
-0.01970000000000005,-1.6594563547416883
-0.020700000000000163,-1.7033124050375041
-0.021700000000000053,-1.7471684553333202
-0.022700000000000164,-1.7910245056291363
-0.023700000000000054,-1.7910245056291363
-0.024700000000000166,-1.8334658446250875
-0.025700000000000056,-1.8773218949209036
-0.026700000000000168,-1.92117794521672
-0.027700000000000058,-1.9650339955125358
-0.02870000000000017,-2.008890045808352
-0.02970000000000006,-2.052746096104168
-0.03070000000000017,-2.052746096104168
-0.03170000000000006,-2.095187435100119
-0.03270000000000017,-2.1390434853959355
-0.03370000000000006,-2.226755585987568
-0.034700000000000175,-2.226755585987568
-0.035700000000000065,-2.2706116362833835
-0.03670000000000018,-2.3144676865791998
-0.03770000000000007,-2.3569090255751513
-0.03870000000000018,-2.3569090255751513
-0.03970000000000007,-2.4007650758709675
-0.04070000000000018,-2.4446211261667834
-0.04170000000000007,-2.4884771764625997
-0.04270000000000018,-2.532333226758415
-0.04370000000000007,-2.576189277054232
-0.044700000000000184,-2.576189277054232
-0.045700000000000074,-2.618630616050183
-0.046700000000000186,-2.706342716641815
-0.047700000000000076,-2.706342716641815
-0.04870000000000019,-2.7501987669376318
-0.04970000000000008,-2.794054817233447
-0.05070000000000019,-2.8379108675292635
-0.05170000000000008,-2.8803522065252145
-0.05270000000000019,-2.924208256821031
-0.05370000000000008,-2.968064307116847
-0.05470000000000019,-3.0119203574126634
-0.05570000000000008,-3.0119203574126634
-0.056700000000000195,-3.055776407708479
-0.057700000000000085,-3.055776407708479
-0.058700000000000196,-3.0996324580042955
-0.059700000000000086,-3.1420737970002466
-0.0607000000000002,-3.1859298472960624
-0.06170000000000009,-3.1859298472960624
-0.0627000000000002,-3.2297858975918787
-0.06370000000000009,-3.2297858975918787
-0.0647000000000002,-3.273641947887695
-0.06570000000000009,-3.273641947887695
-0.0667000000000002,-3.317497998183511
-0.0677000000000001,-3.361354048479327
-0.0687000000000002,-3.361354048479327
-0.0697000000000001,-3.361354048479327
-0.07070000000000021,-3.403795387475278
-0.0717000000000001,-3.403795387475278
-0.07270000000000021,-3.447651437771094
-0.0737000000000001,-3.447651437771094
-0.07470000000000021,-3.4915074880669104
-0.0757000000000001,-3.4915074880669104
-0.07670000000000021,-3.4915074880669104
-0.0777000000000001,-3.4915074880669104
-0.07870000000000021,-3.4915074880669104
-0.0797000000000001,-3.4915074880669104
-0.08070000000000022,-3.4915074880669104
-0.0817000000000001,-3.4915074880669104
-0.08270000000000022,-3.5353635383627267
-0.08370000000000011,-3.5353635383627267
-0.08470000000000022,-3.579219588658543
-0.08570000000000011,-3.579219588658543
-0.08670000000000022,-3.579219588658543
-0.08770000000000011,-3.579219588658543
-0.08870000000000022,-3.5353635383627267
-0.08970000000000011,-3.5353635383627267
-0.09070000000000022,-3.5353635383627267
-0.09170000000000011,-3.5353635383627267
-0.09270000000000023,-3.5353635383627267
-0.09370000000000012,-3.5353635383627267
-0.09470000000000023,-3.4915074880669104
-0.09570000000000012,-3.4915074880669104
-0.09670000000000023,-3.4915074880669104
-0.09770000000000012,-3.4915074880669104
-0.09870000000000023,-3.447651437771094
-0.09970000000000012,-3.4915074880669104
-0.10070000000000023,-3.4915074880669104
-0.10170000000000012,-3.447651437771094
-0.10270000000000024,-3.447651437771094
-0.10370000000000013,-3.447651437771094
-0.10470000000000024,-3.403795387475278
-0.10570000000000013,-3.361354048479327
-0.10670000000000024,-3.317497998183511
-0.10770000000000013,-3.317497998183511
-0.10870000000000024,-3.317497998183511
-0.10970000000000013,-3.273641947887695
-0.11070000000000024,-3.273641947887695
-0.11170000000000013,-3.2297858975918787
-0.11270000000000002,-3.2297858975918787
-0.11370000000000013,-3.1859298472960624
-0.11470000000000002,-3.1420737970002466
-0.11570000000000014,-3.1420737970002466
-0.11670000000000003,-3.1420737970002466
-0.11770000000000014,-3.0996324580042955
-0.11870000000000003,-3.0996324580042955
-0.11970000000000014,-3.055776407708479
-0.12070000000000003,-3.055776407708479
-0.12170000000000014,-3.0119203574126634
-0.12270000000000003,-2.968064307116847
-0.12370000000000014,-2.924208256821031
-0.12470000000000003,-2.8803522065252145
-0.12570000000000014,-2.8803522065252145
-0.12670000000000003,-2.8379108675292635
-0.12770000000000015,-2.794054817233447
-0.12870000000000004,-2.7501987669376318
-0.12970000000000015,-2.7501987669376318
-0.13070000000000004,-2.706342716641815
-0.13170000000000015,-2.662486666345999
-0.13270000000000004,-2.618630616050183
-0.13370000000000015,-2.618630616050183
-0.13470000000000004,-2.618630616050183
-0.13570000000000015,-2.576189277054232
-0.13670000000000004,-2.532333226758415
-0.13770000000000016,-2.4884771764625997
-0.13870000000000005,-2.4884771764625997
-0.13970000000000016,-2.4446211261667834
-0.14070000000000005,-2.4446211261667834
-0.14170000000000016,-2.4007650758709675
-0.14270000000000005,-2.4007650758709675
-0.14370000000000016,-2.3569090255751513
-0.14470000000000005,-2.3144676865791998
-0.14570000000000016,-2.2706116362833835
-0.14670000000000005,-2.226755585987568
-0.14770000000000016,-2.226755585987568
-0.14870000000000005,-2.1828995356917518
-0.14970000000000017,-2.1828995356917518
-0.15070000000000006,-2.1828995356917518
-0.15170000000000017,-2.1390434853959355
-0.15270000000000006,-2.1390434853959355
-0.15370000000000017,-2.095187435100119
-0.15470000000000006,-2.052746096104168
-0.15570000000000017,-2.052746096104168
-0.15670000000000006,-2.008890045808352
-0.15770000000000017,-2.008890045808352
-0.15870000000000006,-1.9650339955125358
-0.15970000000000018,-1.9650339955125358
-0.16070000000000007,-1.92117794521672
-0.16170000000000018,-1.8773218949209036
-0.16270000000000007,-1.8773218949209036
-0.16370000000000018,-1.8334658446250875
-0.16470000000000007,-1.7910245056291363
-0.16570000000000018,-1.7910245056291363
-0.16670000000000007,-1.7910245056291363
-0.16770000000000018,-1.7910245056291363
-0.16870000000000007,-1.7471684553333202
-0.16970000000000018,-1.7471684553333202
-0.17070000000000007,-1.7033124050375041
-0.17170000000000019,-1.7033124050375041
-0.17270000000000008,-1.6594563547416883
-0.1737000000000002,-1.6594563547416883
-0.17470000000000008,-1.6594563547416883
-0.1757000000000002,-1.6594563547416883
-0.17670000000000008,-1.6156003044458718
-0.1777000000000002,-1.6156003044458718
-0.17870000000000008,-1.6156003044458718
-0.1797000000000002,-1.5717442541500557
-0.18070000000000008,-1.5717442541500557
-0.1817000000000002,-1.5293029151541047
-0.18270000000000008,-1.5293029151541047
-0.1837000000000002,-1.5293029151541047
-0.1847000000000001,-1.5293029151541047
-0.1857000000000002,-1.4854468648582886
-0.1867000000000001,-1.4854468648582886
-0.1877000000000002,-1.4854468648582886
-0.1887000000000001,-1.4415908145624723
-0.1897000000000002,-1.4415908145624723
-0.1907000000000001,-1.4415908145624723
-0.1917000000000001,-1.4415908145624723
-0.19269999999999998,-1.4415908145624723
-0.1937000000000001,-1.4415908145624723
-0.19469999999999998,-1.4415908145624723
-0.1957000000000001,-1.3980177065266295
-0.19669999999999999,-1.3980177065266295
-0.1977000000000001,-1.3980177065266295
-0.1987,-1.3543031273607997
-0.1997000000000001,-1.3543031273607997
-0.2007,-1.3543031273607997
-0.2017000000000001,-1.3543031273607997
-0.2027,-1.3543031273607997
-0.2037000000000001,-1.3543031273607997
-0.2047,-1.3543031273607997
-0.2057000000000001,-1.3107300193249565
-0.2067,-1.3107300193249565
-0.2077000000000001,-1.3107300193249565
-0.2087,-1.3107300193249565
-0.2097000000000001,-1.3107300193249565
-0.2107,-1.3107300193249565
-0.2117000000000001,-1.2671569112891135
-0.2127,-1.2671569112891135
-0.2137000000000001,-1.2671569112891135
-0.2147,-1.2671569112891135
-0.2157000000000001,-1.2671569112891135
-0.2167,-1.2671569112891135
-0.21770000000000012,-1.2671569112891135
-0.2187,-1.2671569112891135
-0.21970000000000012,-1.2671569112891135
-0.2207,-1.2671569112891135
-0.22170000000000012,-1.2234423321232837
-0.2227,-1.2234423321232837
-0.22370000000000012,-1.2234423321232837
-0.2247,-1.2234423321232837
-0.22570000000000012,-1.2234423321232837
-0.2267,-1.2234423321232837
-0.22770000000000012,-1.2234423321232837
-0.22870000000000001,-1.1798692240874404
-0.22970000000000013,-1.2234423321232837
-0.23070000000000002,-1.2234423321232837
-0.23170000000000013,-1.2234423321232837
-0.23270000000000002,-1.2234423321232837
-0.23370000000000013,-1.2234423321232837
-0.23470000000000002,-1.2234423321232837
-0.23570000000000013,-1.1798692240874404
-0.23670000000000002,-1.1798692240874404
-0.2376999999999999,-1.1798692240874404
-0.23870000000000002,-1.1798692240874404
-0.2396999999999999,-1.1362961160515976
-0.24070000000000003,-1.1798692240874404
-0.24169999999999991,-1.1798692240874404
-0.24270000000000003,-1.1798692240874404
-0.24369999999999992,-1.1798692240874404
-0.24470000000000003,-1.1798692240874404
-0.24569999999999992,-1.1362961160515976
-0.24670000000000003,-1.1362961160515976
-0.24769999999999992,-1.1362961160515976
-0.24870000000000003,-1.1362961160515976
-0.24969999999999992,-1.1362961160515976
-0.25070000000000003,-1.1362961160515976
-0.2516999999999999,-1.1362961160515976
-0.25270000000000004,-1.1362961160515976
-0.2536999999999999,-1.1362961160515976
-0.25470000000000004,-1.1362961160515976
-0.2556999999999999,-1.1362961160515976
-0.25670000000000004,-1.1362961160515976
-0.25769999999999993,-1.1362961160515976
-0.25870000000000004,-1.1362961160515976
-0.25969999999999993,-1.1362961160515976
-0.26070000000000004,-1.0925815368857679
-0.26169999999999993,-1.0925815368857679
-0.26270000000000004,-1.0925815368857679
-0.26369999999999993,-1.0925815368857679
-0.26470000000000005,-1.0925815368857679
-0.26569999999999994,-1.1362961160515976
-0.26670000000000005,-1.1362961160515976
-0.26769999999999994,-1.1362961160515976
-0.26870000000000005,-1.1362961160515976
-0.26969999999999994,-1.0925815368857679
-0.27070000000000005,-1.1362961160515976
-0.27169999999999994,-1.0925815368857679
-0.27270000000000005,-1.0925815368857679
-0.27369999999999994,-1.0925815368857679
-0.27470000000000006,-1.0925815368857679
-0.27569999999999995,-1.1362961160515976
-0.27670000000000006,-1.0925815368857679
-0.27769999999999995,-1.0925815368857679
-0.27870000000000006,-1.0925815368857679
-0.27969999999999995,-1.0925815368857679
-0.28070000000000006,-1.0925815368857679
-0.28169999999999995,-1.0925815368857679
-0.28270000000000006,-1.0925815368857679
-0.28369999999999995,-1.0925815368857679
-0.28470000000000006,-1.1362961160515976
-0.28569999999999995,-1.0925815368857679
-0.28670000000000007,-1.0925815368857679
-0.28769999999999996,-1.0925815368857679
-0.28870000000000007,-1.0925815368857679
-0.28969999999999996,-1.0925815368857679
-0.29070000000000007,-1.1362961160515976
-0.29169999999999996,-1.0925815368857679
-0.29270000000000007,-1.1362961160515976
-0.29369999999999996,-1.0925815368857679
-0.2947000000000001,-1.0925815368857679
-0.29569999999999996,-1.0925815368857679
-0.2967000000000001,-1.0925815368857679
-0.29769999999999996,-1.0925815368857679
-0.2987000000000001,-1.0925815368857679
-0.29969999999999997,-1.0925815368857679
-0.3007000000000001,-1.1362961160515976
-0.30169999999999997,-1.1362961160515976
-0.3027000000000001,-1.1362961160515976
-0.30369999999999997,-1.1362961160515976
-0.3047000000000001,-1.1362961160515976
-0.30569999999999997,-1.1362961160515976
-0.3067000000000001,-1.1362961160515976
-0.3077,-1.1362961160515976
-0.3087000000000001,-1.1362961160515976
-0.3097,-1.1362961160515976
-0.3107000000000001,-1.1362961160515976
-0.3117,-1.1362961160515976
-0.3127000000000001,-1.1362961160515976
-0.3137,-1.1362961160515976
-0.3147000000000001,-1.1362961160515976
-0.3157,-1.1362961160515976
-0.3167000000000001,-1.1798692240874404
-0.3177,-1.1798692240874404
-0.3187000000000001,-1.1798692240874404
-0.3197,-1.1798692240874404
-0.3207000000000001,-1.1798692240874404
-0.3217,-1.1798692240874404
-0.3227000000000001,-1.1798692240874404
-0.3237,-1.1798692240874404
-0.3247000000000001,-1.2234423321232837
-0.3257,-1.2234423321232837
-0.3267000000000001,-1.2234423321232837
-0.3277,-1.2234423321232837
-0.3287000000000001,-1.2234423321232837
-0.3297,-1.2234423321232837
-0.3307000000000001,-1.2234423321232837
-0.3317,-1.2234423321232837
-0.3327000000000001,-1.2234423321232837
-0.3337,-1.2671569112891135
-0.3347000000000001,-1.2671569112891135
-0.3357,-1.2671569112891135
-0.3367000000000001,-1.2671569112891135
-0.3377,-1.2671569112891135
-0.3387000000000001,-1.3107300193249565
-0.3397,-1.3107300193249565
-0.3407000000000001,-1.3107300193249565
-0.3417,-1.3107300193249565
-0.3427000000000001,-1.3543031273607997
-0.3437,-1.3543031273607997
-0.3447000000000001,-1.3543031273607997
-0.3457,-1.3543031273607997
-0.3467000000000001,-1.3543031273607997
-0.3477,-1.3980177065266295
-0.3487000000000001,-1.3980177065266295
-0.3497,-1.3980177065266295
-0.3507000000000001,-1.4415908145624723
-0.3517,-1.4415908145624723
-0.3527000000000001,-1.4415908145624723
-0.3537,-1.4415908145624723
-0.3547000000000001,-1.4415908145624723
-0.3557,-1.4415908145624723
-0.35670000000000013,-1.4854468648582886
-0.3577,-1.4854468648582886
-0.35870000000000013,-1.5293029151541047
-0.3597,-1.5293029151541047
-0.36070000000000013,-1.5293029151541047
-0.3617,-1.5717442541500557
-0.3626999999999999,-1.5717442541500557
-0.3637,-1.5717442541500557
-0.3646999999999999,-1.6156003044458718
-0.3657,-1.6156003044458718
-0.3666999999999999,-1.6594563547416883
-0.3677,-1.6594563547416883
-0.3686999999999999,-1.6594563547416883
-0.36970000000000003,-1.7033124050375041
-0.3706999999999999,-1.7033124050375041
-0.37170000000000003,-1.7033124050375041
-0.3726999999999999,-1.7471684553333202
-0.37370000000000003,-1.7471684553333202
-0.3746999999999999,-1.7910245056291363
-0.37570000000000003,-1.7910245056291363
-0.3766999999999999,-1.8334658446250875
-0.37770000000000004,-1.8334658446250875
-0.3786999999999999,-1.8773218949209036
-0.37970000000000004,-1.8773218949209036
-0.3806999999999999,-1.92117794521672
-0.38170000000000004,-1.92117794521672
-0.38269999999999993,-1.9650339955125358
-0.38370000000000004,-2.008890045808352
-0.38469999999999993,-2.008890045808352
-0.38570000000000004,-2.052746096104168
-0.38669999999999993,-2.095187435100119
-0.38770000000000004,-2.095187435100119
-0.38869999999999993,-2.1390434853959355
-0.38970000000000005,-2.1390434853959355
-0.39069999999999994,-2.1828995356917518
-0.39170000000000005,-2.226755585987568
-0.39269999999999994,-2.2706116362833835
-0.39370000000000005,-2.3144676865791998
-0.39469999999999994,-2.3569090255751513
-0.39570000000000005,-2.3569090255751513
-0.39669999999999994,-2.4007650758709675
-0.39770000000000005,-2.4446211261667834
-0.39869999999999994,-2.532333226758415
-0.39970000000000006,-2.532333226758415
-0.40069999999999995,-2.618630616050183
-0.40170000000000006,-2.662486666345999
-0.40269999999999995,-2.706342716641815
-0.40370000000000006,-2.7501987669376318
-0.40469999999999995,-2.794054817233447
-0.40570000000000006,-2.8379108675292635
-0.40669999999999995,-2.924208256821031
-0.40770000000000006,-2.968064307116847
-0.40869999999999995,-3.055776407708479
-0.40970000000000006,-3.1420737970002466
-0.41069999999999995,-3.2297858975918787
-0.41170000000000007,-3.273641947887695
-0.41269999999999996,-3.361354048479327
-0.41370000000000007,-3.447651437771094
-0.41469999999999996,-3.5353635383627267
-0.41570000000000007,-3.6655169779503103
-0.41669999999999996,-3.7532290785419424
-0.41770000000000007,-3.884797229429391
-0.41869999999999996,-3.971094618721158
-0.4197000000000001,-4.102662769608606
-0.42069999999999996,-4.23281620919619
-0.4217000000000001,-4.364384360083638
-0.42269999999999996,-4.494537799671222
-0.4237000000000001,-4.626105950558669
-0.42469999999999997,-4.800115440442069
-0.4257000000000001,-5.017980980621284
-0.42669999999999997,-5.149549131508733
-0.4277000000000001,-5.367414671687949
-0.42869999999999997,-5.585280211867165
-0.4297000000000001,-5.80314575204638
-0.43069999999999997,-6.021011292225596
-0.4317000000000001,-6.238876832404812
-0.4327,-6.500598422879844
-0.4337000000000001,-6.850032113946507
-0.4347,-7.155609754717355
-0.4357000000000001,-7.461187395488204
-0.4367,-7.809206375255003
-0.4377000000000001,-8.202496116617484
-0.4387,-8.594371146680096
-0.4397000000000001,-8.987660888042578
-0.4407,-9.467248018696827
-0.4417000000000001,-9.946835149351072
-0.4427,-10.470278330301136
-0.4437000000000001,-11.037577561547016
-0.4447,-11.604876792792895
-0.4457000000000001,-12.214617363034726
-0.4467,-12.869628694872238
-0.4477000000000001,-13.567081365705702
-0.4487,-14.26028990263957
-0.4497000000000001,-15.01008689156804
-0.4507,-15.78817810649381
-0.4517000000000001,-16.580416434418233
-0.4527,-17.4433903273359
-0.4537000000000001,-18.320511333252224
-0.4547,-19.2400736781645
-0.4557000000000001,-20.159636023076775
-0.4567,-21.107492593986347
-0.4577000000000001,-22.111937616890522
-0.4587,-23.073941300798747
-0.4597000000000001,-24.120827662698876
-0.4607,-25.252596702590903
-0.4617000000000001,-26.34192440348698
-0.4627,-27.487840556377662
-0.4637000000000001,-28.619609596269694
-0.4647,-29.836261314153624
-0.4657000000000001,-31.010471693041605
-0.4667,-32.09979939393769
-0.4677000000000001,-33.41548090281216
-0.4687,-34.632132620696105
-0.4697000000000001,-35.90537279057463
-0.4707,-37.206907186450465
-0.4717000000000001,-38.33867622634249
-0.4727,-39.56947505722508
-0.4737000000000001,-40.87100945310091
-0.4747,-42.229132300971344
-0.4757000000000001,-43.57310803584313
-0.4767,-44.66243573673921
-0.4777000000000001,-46.062999923605595
-0.4787,-47.46356411047198
-0.4797000000000001,-48.80753984534376
-0.4807,-49.89686754623985
-0.48170000000000013,-51.29743173310623
-0.4827,-52.74043725896857
-0.48370000000000013,-54.16929567183226
-0.4847,-55.31521182472294
-0.48570000000000013,-56.57430488160282
-0.4867,-57.45142588751914
-0.48570000000000013,-57.05530672355693
-0.4847,-56.88554136757313
-0.48370000000000013,-56.61674622059877
-0.4827,-56.05086170065276
-0.48170000000000013,-55.6971838756865
-0.4807,-55.442535841710786
-0.4797000000000001,-55.088858016744524
-0.4787,-54.69273885278232
-0.4777000000000001,-54.26832546282281
-0.4767,-54.0419716548444
-0.4757000000000001,-53.433645795902436
-0.4747,-53.16485064892808
-0.4737000000000001,-52.91020261495237
-0.4727,-52.25943541701445
-0.4717000000000001,-51.69355089706845
-0.4707,-51.33987307210218
-0.4697000000000001,-50.77398855215617
