Mar. 30, 2025   21:46:45
Cyclic Voltammetry
File: c:/users/guazh/data/banditlqround7_x0exp518_r20/2025-03-28-exp993\exp993-2025-03-30t21_35_44-arkoh\exp993_cv_sr_500mvs_efin_-1500mv.bin
Data Source:  Experiment
Instrument Model:  CHI760E
Header: CV ran at 500 mVs
Note: 

Init E (V) = -1
High E (V) = -1
Low E (V) = -1.5
Final E (V) = -1
Init P/N = N
Scan Rate (V/s) = 0.5
Segment = 3
Sample Interval (V) = 0.001
Quiet Time (sec) = 2
Sensitivity (A/V) = 0.01
Comp R (ohm) = 1.9

Results:

Channel 1:
Segment 1:

Segment 2:

Segment 3:

Potential/V, Current/A

-1.000, 6.322e-6
-1.001, 2.482e-5
-1.002, 3.407e-5
-1.003, 4.024e-5
-1.004, 4.640e-5
-1.005, 5.257e-5
-1.006, 5.565e-5
-1.007, 5.873e-5
-1.008, 6.182e-5
-1.009, 6.490e-5
-1.010, 6.798e-5
-1.011, 6.798e-5
-1.012, 7.107e-5
-1.013, 7.415e-5
-1.014, 7.723e-5
-1.015, 8.032e-5
-1.016, 8.340e-5
-1.017, 8.340e-5
-1.018, 8.648e-5
-1.019, 8.648e-5
-1.020, 8.957e-5
-1.021, 9.265e-5
-1.022, 9.265e-5
-1.023, 9.573e-5
-1.024, 9.882e-5
-1.025, 1.019e-4
-1.026, 1.019e-4
-1.027, 1.050e-4
-1.028, 1.081e-4
-1.029, 1.111e-4
-1.030, 1.111e-4
-1.031, 1.142e-4
-1.032, 1.173e-4
-1.033, 1.173e-4
-1.034, 1.204e-4
-1.035, 1.235e-4
-1.036, 1.266e-4
-1.037, 1.266e-4
-1.038, 1.296e-4
-1.039, 1.327e-4
-1.040, 1.358e-4
-1.041, 1.389e-4
-1.042, 1.420e-4
-1.043, 1.451e-4
-1.044, 1.451e-4
-1.045, 1.481e-4
-1.046, 1.512e-4
-1.047, 1.574e-4
-1.048, 1.574e-4
-1.049, 1.605e-4
-1.050, 1.636e-4
-1.051, 1.666e-4
-1.052, 1.666e-4
-1.053, 1.697e-4
-1.054, 1.728e-4
-1.055, 1.759e-4
-1.056, 1.790e-4
-1.057, 1.821e-4
-1.058, 1.821e-4
-1.059, 1.851e-4
-1.060, 1.913e-4
-1.061, 1.913e-4
-1.062, 1.944e-4
-1.063, 1.975e-4
-1.064, 2.006e-4
-1.065, 2.036e-4
-1.066, 2.067e-4
-1.067, 2.098e-4
-1.068, 2.129e-4
-1.069, 2.129e-4
-1.070, 2.160e-4
-1.071, 2.160e-4
-1.072, 2.191e-4
-1.073, 2.221e-4
-1.074, 2.252e-4
-1.075, 2.252e-4
-1.076, 2.283e-4
-1.077, 2.283e-4
-1.078, 2.314e-4
-1.079, 2.314e-4
-1.080, 2.345e-4
-1.081, 2.376e-4
-1.082, 2.376e-4
-1.083, 2.376e-4
-1.084, 2.406e-4
-1.085, 2.406e-4
-1.086, 2.437e-4
-1.087, 2.437e-4
-1.088, 2.468e-4
-1.089, 2.468e-4
-1.090, 2.468e-4
-1.091, 2.468e-4
-1.092, 2.468e-4
-1.093, 2.468e-4
-1.094, 2.468e-4
-1.095, 2.468e-4
-1.096, 2.499e-4
-1.097, 2.499e-4
-1.098, 2.530e-4
-1.099, 2.530e-4
-1.100, 2.530e-4
-1.101, 2.530e-4
-1.102, 2.499e-4
-1.103, 2.499e-4
-1.104, 2.499e-4
-1.105, 2.499e-4
-1.106, 2.499e-4
-1.107, 2.499e-4
-1.108, 2.468e-4
-1.109, 2.468e-4
-1.110, 2.468e-4
-1.111, 2.468e-4
-1.112, 2.437e-4
-1.113, 2.468e-4
-1.114, 2.468e-4
-1.115, 2.437e-4
-1.116, 2.437e-4
-1.117, 2.437e-4
-1.118, 2.406e-4
-1.119, 2.376e-4
-1.120, 2.345e-4
-1.121, 2.345e-4
-1.122, 2.345e-4
-1.123, 2.314e-4
-1.124, 2.314e-4
-1.125, 2.283e-4
-1.126, 2.283e-4
-1.127, 2.252e-4
-1.128, 2.221e-4
-1.129, 2.221e-4
-1.130, 2.221e-4
-1.131, 2.191e-4
-1.132, 2.191e-4
-1.133, 2.160e-4
-1.134, 2.160e-4
-1.135, 2.129e-4
-1.136, 2.098e-4
-1.137, 2.067e-4
-1.138, 2.036e-4
-1.139, 2.036e-4
-1.140, 2.006e-4
-1.141, 1.975e-4
-1.142, 1.944e-4
-1.143, 1.944e-4
-1.144, 1.913e-4
-1.145, 1.882e-4
-1.146, 1.851e-4
-1.147, 1.851e-4
-1.148, 1.851e-4
-1.149, 1.821e-4
-1.150, 1.790e-4
-1.151, 1.759e-4
-1.152, 1.759e-4
-1.153, 1.728e-4
-1.154, 1.728e-4
-1.155, 1.697e-4
-1.156, 1.697e-4
-1.157, 1.666e-4
-1.158, 1.636e-4
-1.159, 1.605e-4
-1.160, 1.574e-4
-1.161, 1.574e-4
-1.162, 1.543e-4
-1.163, 1.543e-4
-1.164, 1.543e-4
-1.165, 1.512e-4
-1.166, 1.512e-4
-1.167, 1.481e-4
-1.168, 1.451e-4
-1.169, 1.451e-4
-1.170, 1.420e-4
-1.171, 1.420e-4
-1.172, 1.389e-4
-1.173, 1.389e-4
-1.174, 1.358e-4
-1.175, 1.327e-4
-1.176, 1.327e-4
-1.177, 1.296e-4
-1.178, 1.266e-4
-1.179, 1.266e-4
-1.180, 1.266e-4
-1.181, 1.266e-4
-1.182, 1.235e-4
-1.183, 1.235e-4
-1.184, 1.204e-4
-1.185, 1.204e-4
-1.186, 1.173e-4
-1.187, 1.173e-4
-1.188, 1.173e-4
-1.189, 1.173e-4
-1.190, 1.142e-4
-1.191, 1.142e-4
-1.192, 1.142e-4
-1.193, 1.111e-4
-1.194, 1.111e-4
-1.195, 1.081e-4
-1.196, 1.081e-4
-1.197, 1.081e-4
-1.198, 1.081e-4
-1.199, 1.050e-4
-1.200, 1.050e-4
-1.201, 1.050e-4
-1.202, 1.019e-4
-1.203, 1.019e-4
-1.204, 1.019e-4
-1.205, 1.019e-4
-1.206, 1.019e-4
-1.207, 1.019e-4
-1.208, 1.019e-4
-1.209, 9.882e-5
-1.210, 9.882e-5
-1.211, 9.882e-5
-1.212, 9.573e-5
-1.213, 9.573e-5
-1.214, 9.573e-5
-1.215, 9.573e-5
-1.216, 9.573e-5
-1.217, 9.573e-5
-1.218, 9.573e-5
-1.219, 9.265e-5
-1.220, 9.265e-5
-1.221, 9.265e-5
-1.222, 9.265e-5
-1.223, 9.265e-5
-1.224, 9.265e-5
-1.225, 8.957e-5
-1.226, 8.957e-5
-1.227, 8.957e-5
-1.228, 8.957e-5
-1.229, 8.957e-5
-1.230, 8.957e-5
-1.231, 8.957e-5
-1.232, 8.957e-5
-1.233, 8.957e-5
-1.234, 8.957e-5
-1.235, 8.648e-5
-1.236, 8.648e-5
-1.237, 8.648e-5
-1.238, 8.648e-5
-1.239, 8.648e-5
-1.240, 8.648e-5
-1.241, 8.648e-5
-1.242, 8.340e-5
-1.243, 8.648e-5
-1.244, 8.648e-5
-1.245, 8.648e-5
-1.246, 8.648e-5
-1.247, 8.648e-5
-1.248, 8.648e-5
-1.249, 8.340e-5
-1.250, 8.340e-5
-1.251, 8.340e-5
-1.252, 8.340e-5
-1.253, 8.032e-5
-1.254, 8.340e-5
-1.255, 8.340e-5
-1.256, 8.340e-5
-1.257, 8.340e-5
-1.258, 8.340e-5
-1.259, 8.032e-5
-1.260, 8.032e-5
-1.261, 8.032e-5
-1.262, 8.032e-5
-1.263, 8.032e-5
-1.264, 8.032e-5
-1.265, 8.032e-5
-1.266, 8.032e-5
-1.267, 8.032e-5
-1.268, 8.032e-5
-1.269, 8.032e-5
-1.270, 8.032e-5
-1.271, 8.032e-5
-1.272, 8.032e-5
-1.273, 8.032e-5
-1.274, 7.723e-5
-1.275, 7.723e-5
-1.276, 7.723e-5
-1.277, 7.723e-5
-1.278, 7.723e-5
-1.279, 8.032e-5
-1.280, 8.032e-5
-1.281, 8.032e-5
-1.282, 8.032e-5
-1.283, 7.723e-5
-1.284, 8.032e-5
-1.285, 7.723e-5
-1.286, 7.723e-5
-1.287, 7.723e-5
-1.288, 7.723e-5
-1.289, 8.032e-5
-1.290, 7.723e-5
-1.291, 7.723e-5
-1.292, 7.723e-5
-1.293, 7.723e-5
-1.294, 7.723e-5
-1.295, 7.723e-5
-1.296, 7.723e-5
-1.297, 7.723e-5
-1.298, 8.032e-5
-1.299, 7.723e-5
-1.300, 7.723e-5
-1.301, 7.723e-5
-1.302, 7.723e-5
-1.303, 7.723e-5
-1.304, 8.032e-5
-1.305, 7.723e-5
-1.306, 8.032e-5
-1.307, 7.723e-5
-1.308, 7.723e-5
-1.309, 7.723e-5
-1.310, 7.723e-5
-1.311, 7.723e-5
-1.312, 7.723e-5
-1.313, 7.723e-5
-1.314, 8.032e-5
-1.315, 8.032e-5
-1.316, 8.032e-5
-1.317, 8.032e-5
-1.318, 8.032e-5
-1.319, 8.032e-5
-1.320, 8.032e-5
-1.321, 8.032e-5
-1.322, 8.032e-5
-1.323, 8.032e-5
-1.324, 8.032e-5
-1.325, 8.032e-5
-1.326, 8.032e-5
-1.327, 8.032e-5
-1.328, 8.032e-5
-1.329, 8.032e-5
-1.330, 8.340e-5
-1.331, 8.340e-5
-1.332, 8.340e-5
-1.333, 8.340e-5
-1.334, 8.340e-5
-1.335, 8.340e-5
-1.336, 8.340e-5
-1.337, 8.340e-5
-1.338, 8.648e-5
-1.339, 8.648e-5
-1.340, 8.648e-5
-1.341, 8.648e-5
-1.342, 8.648e-5
-1.343, 8.648e-5
-1.344, 8.648e-5
-1.345, 8.648e-5
-1.346, 8.648e-5
-1.347, 8.957e-5
-1.348, 8.957e-5
-1.349, 8.957e-5
-1.350, 8.957e-5
-1.351, 8.957e-5
-1.352, 9.265e-5
-1.353, 9.265e-5
-1.354, 9.265e-5
-1.355, 9.265e-5
-1.356, 9.573e-5
-1.357, 9.573e-5
-1.358, 9.573e-5
-1.359, 9.573e-5
-1.360, 9.573e-5
-1.361, 9.882e-5
-1.362, 9.882e-5
-1.363, 9.882e-5
-1.364, 1.019e-4
-1.365, 1.019e-4
-1.366, 1.019e-4
-1.367, 1.019e-4
-1.368, 1.019e-4
-1.369, 1.019e-4
-1.370, 1.050e-4
-1.371, 1.050e-4
-1.372, 1.081e-4
-1.373, 1.081e-4
-1.374, 1.081e-4
-1.375, 1.111e-4
-1.376, 1.111e-4
-1.377, 1.111e-4
-1.378, 1.142e-4
-1.379, 1.142e-4
-1.380, 1.173e-4
-1.381, 1.173e-4
-1.382, 1.173e-4
-1.383, 1.204e-4
-1.384, 1.204e-4
-1.385, 1.204e-4
-1.386, 1.235e-4
-1.387, 1.235e-4
-1.388, 1.266e-4
-1.389, 1.266e-4
-1.390, 1.296e-4
-1.391, 1.296e-4
-1.392, 1.327e-4
-1.393, 1.327e-4
-1.394, 1.358e-4
-1.395, 1.358e-4
-1.396, 1.389e-4
-1.397, 1.420e-4
-1.398, 1.420e-4
-1.399, 1.451e-4
-1.400, 1.481e-4
-1.401, 1.481e-4
-1.402, 1.512e-4
-1.403, 1.512e-4
-1.404, 1.543e-4
-1.405, 1.574e-4
-1.406, 1.605e-4
-1.407, 1.636e-4
-1.408, 1.666e-4
-1.409, 1.666e-4
-1.410, 1.697e-4
-1.411, 1.728e-4
-1.412, 1.790e-4
-1.413, 1.790e-4
-1.414, 1.851e-4
-1.415, 1.882e-4
-1.416, 1.913e-4
-1.417, 1.944e-4
-1.418, 1.975e-4
-1.419, 2.006e-4
-1.420, 2.067e-4
-1.421, 2.098e-4
-1.422, 2.160e-4
-1.423, 2.221e-4
-1.424, 2.283e-4
-1.425, 2.314e-4
-1.426, 2.376e-4
-1.427, 2.437e-4
-1.428, 2.499e-4
-1.429, 2.591e-4
-1.430, 2.653e-4
-1.431, 2.746e-4
-1.432, 2.807e-4
-1.433, 2.900e-4
-1.434, 2.992e-4
-1.435, 3.085e-4
-1.436, 3.177e-4
-1.437, 3.270e-4
-1.438, 3.393e-4
-1.439, 3.547e-4
-1.440, 3.640e-4
-1.441, 3.794e-4
-1.442, 3.948e-4
-1.443, 4.102e-4
-1.444, 4.256e-4
-1.445, 4.410e-4
-1.446, 4.595e-4
-1.447, 4.842e-4
-1.448, 5.058e-4
-1.449, 5.274e-4
-1.450, 5.520e-4
-1.451, 5.798e-4
-1.452, 6.075e-4
-1.453, 6.353e-4
-1.454, 6.692e-4
-1.455, 7.031e-4
-1.456, 7.401e-4
-1.457, 7.802e-4
-1.458, 8.203e-4
-1.459, 8.634e-4
-1.460, 9.097e-4
-1.461, 9.590e-4
-1.462, 1.008e-3
-1.463, 1.061e-3
-1.464, 1.116e-3
-1.465, 1.172e-3
-1.466, 1.233e-3
-1.467, 1.295e-3
-1.468, 1.360e-3
-1.469, 1.425e-3
-1.470, 1.492e-3
-1.471, 1.563e-3
-1.472, 1.631e-3
-1.473, 1.705e-3
-1.474, 1.785e-3
-1.475, 1.862e-3
-1.476, 1.943e-3
-1.477, 2.023e-3
-1.478, 2.109e-3
-1.479, 2.192e-3
-1.480, 2.269e-3
-1.481, 2.362e-3
-1.482, 2.448e-3
-1.483, 2.538e-3
-1.484, 2.630e-3
-1.485, 2.710e-3
-1.486, 2.797e-3
-1.487, 2.889e-3
-1.488, 2.985e-3
-1.489, 3.080e-3
-1.490, 3.157e-3
-1.491, 3.256e-3
-1.492, 3.355e-3
-1.493, 3.450e-3
-1.494, 3.527e-3
-1.495, 3.626e-3
-1.496, 3.728e-3
-1.497, 3.829e-3
-1.498, 3.910e-3
-1.499, 3.999e-3
-1.500, 4.061e-3
-1.499, 4.033e-3
-1.498, 4.021e-3
-1.497, 4.002e-3
-1.496, 3.962e-3
-1.495, 3.937e-3
-1.494, 3.919e-3
-1.493, 3.894e-3
-1.492, 3.866e-3
-1.491, 3.836e-3
-1.490, 3.820e-3
-1.489, 3.777e-3
-1.488, 3.758e-3
-1.487, 3.740e-3
-1.486, 3.694e-3
-1.485, 3.654e-3
-1.484, 3.629e-3
-1.483, 3.589e-3
-1.482, 3.543e-3
-1.481, 3.512e-3
-1.480, 3.478e-3
-1.479, 3.419e-3
-1.478, 3.385e-3
-1.477, 3.351e-3
-1.476, 3.321e-3
-1.475, 3.268e-3
-1.474, 3.234e-3
-1.473, 3.200e-3
-1.472, 3.163e-3
-1.471, 3.114e-3
-1.470, 3.071e-3
-1.469, 3.040e-3
-1.468, 3.006e-3
-1.467, 2.975e-3
-1.466, 2.920e-3
-1.465, 2.889e-3
-1.464, 2.855e-3
-1.463, 2.821e-3
-1.462, 2.766e-3
-1.461, 2.726e-3
-1.460, 2.692e-3
-1.459, 2.661e-3
-1.458, 2.627e-3
-1.457, 2.568e-3
-1.456, 2.531e-3
-1.455, 2.494e-3
-1.454, 2.457e-3
-1.453, 2.420e-3
-1.452, 2.365e-3
-1.451, 2.334e-3
-1.450, 2.297e-3
-1.449, 2.260e-3
-1.448, 2.226e-3
-1.447, 2.174e-3
-1.446, 2.140e-3
-1.445, 2.106e-3
-1.444, 2.075e-3
-1.443, 2.041e-3
-1.442, 2.001e-3
-1.441, 1.964e-3
-1.440, 1.933e-3
-1.439, 1.899e-3
-1.438, 1.869e-3
-1.437, 1.835e-3
-1.436, 1.788e-3
-1.435, 1.758e-3
-1.434, 1.727e-3
-1.433, 1.696e-3
-1.432, 1.662e-3
-1.431, 1.616e-3
-1.430, 1.582e-3
-1.429, 1.554e-3
-1.428, 1.523e-3
-1.427, 1.492e-3
-1.426, 1.462e-3
-1.425, 1.418e-3
-1.424, 1.397e-3
-1.423, 1.369e-3
-1.422, 1.341e-3
-1.421, 1.314e-3
-1.420, 1.283e-3
-1.419, 1.249e-3
-1.418, 1.224e-3
-1.417, 1.199e-3
-1.416, 1.175e-3
-1.415, 1.147e-3
-1.414, 1.119e-3
-1.413, 1.088e-3
-1.412, 1.061e-3
-1.411, 1.039e-3
-1.410, 1.014e-3
-1.409, 9.898e-4
-1.408, 9.652e-4
-1.407, 9.343e-4
-1.406, 9.158e-4
-1.405, 8.943e-4
-1.404, 8.727e-4
-1.403, 8.542e-4
-1.402, 8.326e-4
-1.401, 8.110e-4
-1.400, 7.863e-4
-1.399, 7.648e-4
-1.398, 7.432e-4
-1.397, 7.247e-4
-1.396, 7.062e-4
-1.395, 6.846e-4
-1.394, 6.661e-4
-1.393, 6.476e-4
-1.392, 6.229e-4
-1.391, 6.075e-4
-1.390, 5.921e-4
-1.389, 5.736e-4
-1.388, 5.582e-4
-1.387, 5.428e-4
-1.386, 5.243e-4
-1.385, 5.120e-4
-1.384, 4.965e-4
-1.383, 4.780e-4
-1.382, 4.657e-4
-1.381, 4.503e-4
-1.380, 4.349e-4
-1.379, 4.225e-4
-1.378, 4.102e-4
-1.377, 3.948e-4
-1.376, 3.825e-4
-1.375, 3.701e-4
-1.374, 3.578e-4
-1.373, 3.424e-4
-1.372, 3.331e-4
-1.371, 3.208e-4
-1.370, 3.115e-4
-1.369, 2.992e-4
-1.368, 2.900e-4
-1.367, 2.807e-4
-1.366, 2.684e-4
-1.365, 2.591e-4
-1.364, 2.499e-4
-1.363, 2.406e-4
-1.362, 2.314e-4
-1.361, 2.252e-4
-1.360, 2.160e-4
-1.359, 2.098e-4
-1.358, 2.006e-4
-1.357, 1.913e-4
-1.356, 1.821e-4
-1.355, 1.759e-4
-1.354, 1.697e-4
-1.353, 1.636e-4
-1.352, 1.574e-4
-1.351, 1.481e-4
-1.350, 1.420e-4
-1.349, 1.358e-4
-1.348, 1.327e-4
-1.347, 1.266e-4
-1.346, 1.204e-4
-1.345, 1.142e-4
-1.344, 1.111e-4
-1.343, 1.050e-4
-1.342, 9.882e-5
-1.341, 9.573e-5
-1.340, 8.957e-5
-1.339, 8.648e-5
-1.338, 8.032e-5
-1.337, 7.723e-5
-1.336, 7.415e-5
-1.335, 7.107e-5
-1.334, 6.490e-5
-1.333, 6.182e-5
-1.332, 5.873e-5
-1.331, 5.565e-5
-1.330, 4.949e-5
-1.329, 4.640e-5
-1.328, 4.640e-5
-1.327, 4.332e-5
-1.326, 4.024e-5
-1.325, 3.715e-5
-1.324, 3.407e-5
-1.323, 3.099e-5
-1.322, 2.790e-5
-1.321, 2.482e-5
-1.320, 2.482e-5
-1.319, 2.174e-5
-1.318, 1.865e-5
-1.317, 1.557e-5
-1.316, 1.557e-5
-1.315, 1.249e-5
-1.314, 9.405e-6
-1.313, 9.405e-6
-1.312, 6.322e-6
-1.311, 6.322e-6
-1.310, 3.239e-6
-1.309, 3.239e-6
-1.308, 1.559e-7
-1.307, 1.559e-7
-1.306, -2.927e-6
-1.305, -6.010e-6
-1.304, -6.010e-6
-1.303, -6.010e-6
-1.302, -6.010e-6
-1.301, -9.093e-6
-1.300, -9.093e-6
-1.299, -1.218e-5
-1.298, -1.218e-5
-1.297, -1.218e-5
-1.296, -1.218e-5
-1.295, -1.526e-5
-1.294, -1.526e-5
-1.293, -1.526e-5
-1.292, -1.834e-5
-1.291, -1.834e-5
-1.290, -1.834e-5
-1.289, -2.143e-5
-1.288, -2.143e-5
-1.287, -2.143e-5
-1.286, -2.143e-5
-1.285, -2.143e-5
-1.284, -2.143e-5
-1.283, -2.451e-5
-1.282, -2.451e-5
-1.281, -2.451e-5
-1.280, -2.451e-5
-1.279, -2.451e-5
-1.278, -2.451e-5
-1.277, -2.451e-5
-1.276, -2.451e-5
-1.275, -2.759e-5
-1.274, -2.759e-5
-1.273, -2.759e-5
-1.272, -2.759e-5
-1.271, -2.759e-5
-1.270, -2.759e-5
-1.269, -2.759e-5
-1.268, -3.068e-5
-1.267, -3.068e-5
-1.266, -3.068e-5
-1.265, -3.068e-5
-1.264, -3.068e-5
-1.263, -3.068e-5
-1.262, -3.068e-5
-1.261, -3.068e-5
-1.260, -3.068e-5
-1.259, -3.068e-5
-1.258, -3.068e-5
-1.257, -3.068e-5
-1.256, -3.376e-5
-1.255, -3.376e-5
-1.254, -3.376e-5
-1.253, -3.068e-5
-1.252, -3.376e-5
-1.251, -3.376e-5
-1.250, -3.684e-5
-1.249, -3.684e-5
-1.248, -3.684e-5
-1.247, -3.684e-5
-1.246, -3.684e-5
-1.245, -3.684e-5
-1.244, -3.376e-5
-1.243, -3.376e-5
-1.242, -3.376e-5
-1.241, -3.684e-5
-1.240, -3.684e-5
-1.239, -3.684e-5
-1.238, -3.684e-5
-1.237, -3.684e-5
-1.236, -3.684e-5
-1.235, -3.684e-5
-1.234, -3.684e-5
-1.233, -3.684e-5
-1.232, -3.684e-5
-1.231, -3.992e-5
-1.230, -3.992e-5
-1.229, -3.992e-5
-1.228, -3.992e-5
-1.227, -3.684e-5
-1.226, -3.992e-5
-1.225, -3.992e-5
-1.224, -3.992e-5
-1.223, -3.992e-5
-1.222, -3.992e-5
-1.221, -3.992e-5
-1.220, -3.992e-5
-1.219, -3.992e-5
-1.218, -3.992e-5
-1.217, -3.992e-5
-1.216, -3.992e-5
-1.215, -3.992e-5
-1.214, -3.992e-5
-1.213, -3.992e-5
-1.212, -3.992e-5
-1.211, -3.992e-5
-1.210, -3.992e-5
-1.209, -3.992e-5
-1.208, -3.992e-5
-1.207, -4.301e-5
-1.206, -4.301e-5
-1.205, -4.301e-5
-1.204, -4.301e-5
-1.203, -4.301e-5
-1.202, -4.301e-5
-1.201, -4.301e-5
-1.200, -4.301e-5
-1.199, -4.301e-5
-1.198, -4.301e-5
-1.197, -4.301e-5
-1.196, -4.609e-5
-1.195, -4.609e-5
-1.194, -4.301e-5
-1.193, -4.609e-5
-1.192, -4.609e-5
-1.191, -4.609e-5
-1.190, -4.609e-5
-1.189, -4.609e-5
-1.188, -4.609e-5
-1.187, -4.609e-5
-1.186, -4.609e-5
-1.185, -4.609e-5
-1.184, -4.609e-5
-1.183, -4.917e-5
-1.182, -4.917e-5
-1.181, -4.917e-5
-1.180, -4.917e-5
-1.179, -4.917e-5
-1.178, -4.917e-5
-1.177, -4.917e-5
-1.176, -4.917e-5
-1.175, -4.917e-5
-1.174, -4.917e-5
-1.173, -5.226e-5
-1.172, -5.226e-5
-1.171, -5.226e-5
-1.170, -5.226e-5
-1.169, -5.226e-5
-1.168, -5.226e-5
-1.167, -5.226e-5
-1.166, -5.534e-5
-1.165, -5.226e-5
-1.164, -5.534e-5
-1.163, -5.534e-5
-1.162, -5.534e-5
-1.161, -5.226e-5
-1.160, -5.534e-5
-1.159, -5.534e-5
-1.158, -5.534e-5
-1.157, -5.534e-5
-1.156, -5.842e-5
-1.155, -5.842e-5
-1.154, -5.842e-5
-1.153, -5.842e-5
-1.152, -5.842e-5
-1.151, -5.842e-5
-1.150, -5.842e-5
-1.149, -6.151e-5
-1.148, -6.151e-5
-1.147, -6.151e-5
-1.146, -6.151e-5
-1.145, -6.151e-5
-1.144, -6.151e-5
-1.143, -6.151e-5
-1.142, -6.459e-5
-1.141, -6.459e-5
-1.140, -6.459e-5
-1.139, -6.459e-5
-1.138, -6.459e-5
-1.137, -6.767e-5
-1.136, -6.459e-5
-1.135, -6.767e-5
-1.134, -6.767e-5
-1.133, -6.767e-5
-1.132, -6.767e-5
-1.131, -7.076e-5
-1.130, -7.076e-5
-1.129, -7.076e-5
-1.128, -7.076e-5
-1.127, -7.076e-5
-1.126, -7.076e-5
-1.125, -7.384e-5
-1.124, -7.384e-5
-1.123, -7.384e-5
-1.122, -7.692e-5
-1.121, -7.692e-5
-1.120, -7.692e-5
-1.119, -7.692e-5
-1.118, -7.692e-5
-1.117, -7.692e-5
-1.116, -8.000e-5
-1.115, -8.000e-5
-1.114, -8.309e-5
-1.113, -8.309e-5
-1.112, -8.309e-5
-1.111, -8.309e-5
-1.110, -8.309e-5
-1.109, -8.617e-5
-1.108, -8.617e-5
-1.107, -8.617e-5
-1.106, -8.925e-5
-1.105, -8.925e-5
-1.104, -8.925e-5
-1.103, -8.925e-5
-1.102, -8.925e-5
-1.101, -8.925e-5
-1.100, -9.234e-5
-1.099, -9.234e-5
-1.098, -9.542e-5
-1.097, -9.850e-5
-1.096, -9.850e-5
-1.095, -9.850e-5
-1.094, -9.850e-5
-1.093, -9.850e-5
-1.092, -1.016e-4
-1.091, -1.016e-4
-1.090, -1.047e-4
-1.089, -1.047e-4
-1.088, -1.047e-4
-1.087, -1.078e-4
-1.086, -1.078e-4
-1.085, -1.078e-4
-1.084, -1.078e-4
-1.083, -1.108e-4
-1.082, -1.139e-4
-1.081, -1.139e-4
-1.080, -1.170e-4
-1.079, -1.170e-4
-1.078, -1.170e-4
-1.077, -1.201e-4
-1.076, -1.201e-4
-1.075, -1.232e-4
-1.074, -1.232e-4
-1.073, -1.232e-4
-1.072, -1.263e-4
-1.071, -1.263e-4
-1.070, -1.263e-4
-1.069, -1.263e-4
-1.068, -1.293e-4
-1.067, -1.293e-4
-1.066, -1.324e-4
-1.065, -1.324e-4
-1.064, -1.355e-4
-1.063, -1.386e-4
-1.062, -1.417e-4
-1.061, -1.417e-4
-1.060, -1.448e-4
-1.059, -1.448e-4
-1.058, -1.478e-4
-1.057, -1.509e-4
-1.056, -1.509e-4
-1.055, -1.540e-4
-1.054, -1.540e-4
-1.053, -1.540e-4
-1.052, -1.571e-4
-1.051, -1.571e-4
-1.050, -1.602e-4
-1.049, -1.632e-4
-1.048, -1.663e-4
-1.047, -1.663e-4
-1.046, -1.694e-4
-1.045, -1.725e-4
-1.044, -1.756e-4
-1.043, -1.756e-4
-1.042, -1.787e-4
-1.041, -1.817e-4
-1.040, -1.848e-4
-1.039, -1.879e-4
-1.038, -1.910e-4
-1.037, -1.910e-4
-1.036, -1.941e-4
-1.035, -1.972e-4
-1.034, -2.002e-4
-1.033, -2.002e-4
-1.032, -2.033e-4
-1.031, -2.064e-4
-1.030, -2.095e-4
-1.029, -2.095e-4
-1.028, -2.126e-4
-1.027, -2.157e-4
-1.026, -2.187e-4
-1.025, -2.218e-4
-1.024, -2.280e-4
-1.023, -2.311e-4
-1.022, -2.372e-4
-1.021, -2.403e-4
-1.020, -2.434e-4
-1.019, -2.465e-4
-1.018, -2.496e-4
-1.017, -2.527e-4
-1.016, -2.557e-4
-1.015, -2.588e-4
-1.014, -2.619e-4
-1.013, -2.650e-4
-1.012, -2.681e-4
-1.011, -2.712e-4
-1.010, -2.742e-4
-1.009, -2.804e-4
-1.008, -2.866e-4
-1.007, -2.897e-4
-1.006, -2.958e-4
-1.005, -3.020e-4
-1.004, -3.051e-4
-1.003, -3.112e-4
-1.002, -3.143e-4
-1.001, -3.174e-4
