Potential V vs RHE, Current mA cm-2
0.013299999999999867,37.73035036740053
0.012299999999999978,35.806342999584075
0.011299999999999866,33.88233563176763
0.010299999999999976,32.09979939393769
0.009299999999999864,30.444587173095588
0.008299999999999974,28.789374952253496
0.007299999999999862,27.303928087395207
0.006299999999999972,25.73359854454502
0.00529999999999986,24.120827662698876
0.0042999999999999705,22.46561544185678
0.0032999999999998586,20.75381476902009
0.0022999999999999687,19.141043887173947
0.0012999999999998568,17.570714344323754
0.00029999999999996696,16.141855931460068
-0.000700000000000145,14.69885040559773
-0.0017000000000000348,13.257259591035258
-0.0027000000000001467,11.774642148776701
-0.0037000000000000366,10.248168656222326
-0.0047000000000001485,8.63398306307632
-0.005700000000000038,7.107509570521944
-0.00670000000000015,5.667333467259336
-0.00770000000000004,4.272428125592412
-0.008700000000000152,2.963820173217252
-0.009700000000000042,1.6113561705462767
-0.010700000000000154,0.2594580523952477
-0.011700000000000044,-1.1798692240874404
-0.012700000000000156,-2.618630616050183
-0.013700000000000045,-4.102662769608606
-0.014700000000000157,-5.5414241615713475
-0.015700000000000047,-6.850032113946507
-0.01670000000000016,-8.158640066321666
-0.01770000000000005,-9.335679867809377
-0.01870000000000016,-10.644287820184536
-0.01970000000000005,-11.996751822855511
-0.020700000000000163,-13.3930718758223
-0.021700000000000053,-14.783733083589633
-0.022700000000000164,-16.184297270456018
-0.023700000000000054,-17.48583166633185
-0.024700000000000166,-18.716630497214435
-0.025700000000000056,-19.890840876102416
-0.026700000000000168,-21.107492593986347
-0.027700000000000058,-22.33829142486893
-0.02870000000000017,-23.682267159740714
-0.02970000000000006,-25.04039000761115
-0.03070000000000017,-26.34192440348698
-0.03170000000000006,-27.615164573365515
-0.03270000000000017,-28.789374952253496
-0.03370000000000006,-29.96358533114148
-0.034700000000000175,-31.052913032037555
-0.035700000000000065,-32.283711862920136
-0.03670000000000018,-33.54280491980002
-0.03770000000000007,-34.8018979766799
-0.03870000000000018,-36.16002082455034
-0.03970000000000007,-37.376672542434264
-0.04070000000000018,-38.607471373316855
-0.04170000000000007,-39.696799074212926
-0.04270000000000018,-40.743685436113054
-0.04370000000000007,-41.87545447600508
-0.044700000000000184,-43.04966485489307
-0.045700000000000074,-44.28046368577565
-0.046700000000000186,-45.53955674265553
-0.047700000000000076,-46.75620846053947
-0.04870000000000019,-47.93041883942744
-0.04970000000000008,-49.03389365332217
-0.05070000000000019,-50.0807800152223
-0.05170000000000008,-51.17010771611838
-0.05270000000000019,-52.25943541701445
-0.05370000000000008,-53.476087134898386
-0.05470000000000019,-54.65029751378637
-0.05570000000000008,-55.881096344668954
-0.056700000000000195,-57.05530672355693
-0.057700000000000085,-58.14463442445301
-0.058700000000000196,-59.14907944735718
-0.059700000000000086,-60.19596580925731
-0.0607000000000002,-61.242852171157445
-0.06170000000000009,-62.33217987205352
-0.0627000000000002,-63.5063902509415
-0.06370000000000009,-64.72304196882543
-0.0647000000000002,-65.91139946071206
-0.06570000000000009,-66.9582858226122
-0.0667000000000002,-68.0051721845123
-0.0677000000000001,-68.91058741642594
-0.0687000000000002,-69.95747377832606
-0.0697000000000001,-71.0043601402262
-0.07070000000000021,-72.15027629311687
-0.0717000000000001,-73.32448667200485
-0.07270000000000021,-74.45625571189689
-0.0737000000000001,-75.54558341279296
-0.07470000000000021,-76.55002843569714
-0.0757000000000001,-77.51203211960537
-0.07670000000000021,-78.51647714250953
-0.0777000000000001,-79.52092216541372
-0.07870000000000021,-80.65269120530574
-0.0797000000000001,-81.74201890620182
-0.08070000000000022,-82.8313466070979
-0.0817000000000001,-83.87823296899803
-0.08270000000000022,-84.84023665290624
-0.08370000000000011,-85.75979899781852
-0.08470000000000022,-86.66521422973216
-0.08570000000000011,-87.62721791364037
-0.08670000000000022,-88.6741042755405
-0.08770000000000011,-89.76343197643658
-0.08870000000000022,-90.85275967733266
-0.08970000000000011,-91.94208737822873
-0.09070000000000022,-92.90409106213696
-0.09170000000000011,-93.86609474604518
-0.09270000000000023,-94.70077441296557
-0.09370000000000012,-95.56374830588322
-0.09470000000000023,-96.5681933287874
-0.09570000000000012,-97.61507969068752
-0.09670000000000023,-98.7044073915836
-0.09770000000000012,-99.75129375348374
-0.09870000000000023,-100.79818011538387
-0.09970000000000012,-101.76018379929208
-0.10070000000000023,-102.67974614420436
-0.10170000000000012,-103.59930848911664
-0.10270000000000024,-104.64619485101677
-0.10370000000000013,-105.69308121291688
-0.10470000000000024,-106.78240891381296
-0.10570000000000013,-107.8292952757131
-0.10670000000000024,-108.83374029861727
-0.10770000000000013,-109.73915553053091
-0.10870000000000024,-110.57383519745127
-0.10970000000000013,-111.4509562033676
-0.11070000000000024,-112.31393009628526
-0.11170000000000013,-113.36081645818538
-0.11270000000000002,-114.40770282008553
-0.11370000000000013,-115.4970305209816
-0.11470000000000002,-116.58635822187767
-0.11570000000000014,-117.54836190578591
-0.11670000000000003,-118.51036558969413
-0.11770000000000014,-119.38748659561045
-0.11870000000000003,-120.29290182752408
-0.11970000000000014,-121.2549055114323
-0.12070000000000003,-122.34423321232836
-0.12170000000000014,-123.43356091322445
-0.12270000000000003,-124.43800593612862
-0.12370000000000014,-125.44245095903281
-0.12470000000000003,-126.36201330394509
-0.12570000000000014,-127.19669297086547
-0.12670000000000003,-128.05966686378312
-0.12770000000000015,-128.9792292086954
-0.12870000000000004,-129.98367423159957
-0.12970000000000015,-131.03056059349967
-0.13070000000000004,-132.03500561640385
-0.13170000000000015,-133.03945063930803
-0.13270000000000004,-133.8599831932298
-0.13370000000000015,-134.69466286015015
-0.13470000000000004,-135.5576367530678
-0.13570000000000015,-136.43475775898415
-0.13670000000000004,-137.39676144289237
-0.13770000000000016,-138.44364780479248
-0.13870000000000005,-139.49053416669264
-0.13970000000000016,-140.53742052859275
-0.14070000000000005,-141.456982873505
-0.14170000000000016,-142.31995676642268
-0.14270000000000005,-143.16878354634173
-0.14370000000000016,-144.01761032626072
-0.14470000000000005,-145.00790823616626
-0.14570000000000016,-146.1396772760583
-0.14670000000000005,-147.1299751859638
-0.14770000000000016,-148.12027309586935
-0.14870000000000005,-149.1105710057749
-0.14970000000000017,-149.95939778569388
-0.15070000000000006,-150.8082245656129
-0.15170000000000017,-151.65705134553193
-0.15270000000000006,-152.64734925543743
-0.15370000000000017,-153.63764716534297
-0.15470000000000006,-154.6279450752485
-0.15570000000000017,-155.61824298515404
-0.15670000000000006,-156.60854089505958
-0.15770000000000017,-157.59883880496508
-0.15870000000000006,-158.4476655848841
-0.15970000000000018,-159.29649236480313
-0.16070000000000007,-160.28679027470866
-0.16170000000000018,-161.2770881846142
-0.16270000000000007,-162.2673860945197
-0.16370000000000018,-163.25768400442522
-0.16470000000000007,-164.38945304431726
-0.16570000000000018,-165.2382798242363
-0.16670000000000007,-166.22857773414182
-0.16770000000000018,-167.07740451406085
-0.16870000000000007,-167.92623129397984
-0.16970000000000018,-168.91652920388537
-0.17070000000000007,-170.0482982437774
-0.17170000000000019,-171.18006728366944
-0.17270000000000008,-172.17036519357498
-0.1737000000000002,-173.302134233467
-0.17470000000000008,-174.150961013386
-0.1757000000000002,-174.99978779330505
-0.17670000000000008,-175.84861457322407
-0.1777000000000002,-176.6974413531431
-0.17870000000000008,-177.54626813306209
-0.1797000000000002,-178.53656604296762
-0.18070000000000008,-179.38539282288664
-0.1817000000000002,-180.37569073279218
-0.18270000000000008,-181.2245175127112
-0.1837000000000002,-182.07334429263022
-0.1847000000000001,-183.06364220253573
-0.1857000000000002,-183.91246898245475
-0.1867000000000001,-185.0442380223468
-0.1877000000000002,-186.03453593225234
-0.1887000000000001,-187.16630497214436
-0.1897000000000002,-188.15660288204987
-0.1907000000000001,-189.0054296619689
-0.1917000000000001,-189.71278531190143
-0.19269999999999998,-190.56161209182042
-0.1937000000000001,-191.41043887173947
-0.19469999999999998,-192.2592656516585
-0.1957000000000001,-193.10809243157752
-0.19669999999999999,-193.81544808151003
-0.1977000000000001,-194.66427486142905
-0.1987,-195.51310164134807
-0.1997000000000001,-196.3619284212671
-0.2007,-197.35222633117263
-0.2017000000000001,-198.20105311109162
-0.2027,-199.04987989101065
-0.2037000000000001,-200.18164893090267
-0.2047,-201.31341797079472
-0.2057000000000001,-202.30371588070025
-0.2067,-203.29401379060576
-0.2077000000000001,-204.2843117005113
-0.2087,-204.9916673504438
-0.2097000000000001,-205.84049413036286
-0.2107,-206.54784978029537
-0.2117000000000001,-207.5381476902009
-0.2127,-208.6699167300929
-0.2137000000000001,-209.66021463999843
-0.2147,-210.79198367989048
-0.2157000000000001,-211.782281589796
-0.2167,-212.631108369715
-0.21770000000000012,-213.47993514963403
-0.2187,-214.32876192955305
-0.21970000000000012,-215.31905983945856
-0.2207,-216.1678866193776
-0.22170000000000012,-217.29965565926966
-0.2227,-218.28995356917517
-0.22370000000000012,-219.28025147908068
-0.2247,-220.2705493889862
-0.22570000000000012,-221.11937616890526
-0.2267,-221.96820294882426
-0.22770000000000012,-222.9585008587298
-0.22870000000000001,-224.09026989862178
-0.22970000000000013,-225.08056780852735
-0.23070000000000002,-226.21233684841937
-0.23170000000000013,-227.06116362833836
-0.23270000000000002,-228.0514615382439
-0.23370000000000013,-228.90028831816295
-0.23470000000000002,-229.74911509808197
-0.23570000000000013,-230.7394130079875
-0.23670000000000002,-231.729710917893
-0.2376999999999999,-232.72000882779852
-0.23870000000000002,-233.85177786769057
-0.2396999999999999,-234.84207577759608
-0.24070000000000003,-235.69090255751513
-0.24169999999999991,-236.6812004674206
-0.24270000000000003,-237.53002724733966
-0.24369999999999992,-238.37885402725868
-0.24470000000000003,-239.36915193716422
-0.24569999999999992,-240.35944984706975
-0.24670000000000003,-241.49121888696175
-0.24769999999999992,-242.48151679686728
-0.24870000000000003,-243.47181470677282
-0.24969999999999992,-244.32064148669184
-0.25070000000000003,-245.16946826661086
-0.2516999999999999,-246.01829504652986
-0.25270000000000004,-246.8671218264489
-0.2536999999999999,-247.85741973635444
-0.25470000000000004,-248.84771764625998
-0.2556999999999999,-249.83801555616546
-0.25670000000000004,-250.828313466071
-0.25769999999999993,-251.67714024599002
-0.25870000000000004,-252.52596702590907
-0.25969999999999993,-253.51626493581452
-0.26070000000000004,-254.36509171573357
-0.26169999999999993,-255.49686075562562
-0.26270000000000004,-256.62862979551767
-0.26369999999999993,-257.76039883540966
-0.26470000000000005,-258.60922561532874
-0.26569999999999994,-259.4580523952477
-0.26670000000000005,-260.3068791751668
-0.26769999999999994,-261.1557059550858
-0.26870000000000005,-262.0045327350048
-0.26969999999999994,-262.9948306449103
-0.27070000000000005,-263.98512855481584
-0.27169999999999994,-264.83395533473487
-0.27270000000000005,-265.82425324464043
-0.27369999999999994,-266.6730800245594
-0.27470000000000006,-267.5219068044785
-0.27569999999999995,-268.22926245441096
-0.27670000000000006,-269.2195603643164
-0.27769999999999995,-270.0683871442355
-0.27870000000000006,-271.05868505414105
-0.27969999999999995,-272.1904540940331
-0.28070000000000006,-273.1807520039386
-0.28169999999999995,-274.0295787838576
-0.28270000000000006,-275.0198766937631
-0.28369999999999995,-275.86870347368216
-0.28470000000000006,-276.7175302536012
-0.28569999999999995,-277.7078281635067
-0.28670000000000007,-278.6981260734122
-0.28769999999999996,-279.82989511330425
-0.28870000000000007,-280.9616641531963
-0.28969999999999996,-282.09343319308834
-0.29070000000000007,-283.08373110299385
-0.29169999999999996,-283.9325578829129
-0.29270000000000007,-284.7813846628319
-0.29369999999999996,-285.6302114427509
-0.2947000000000001,-286.47903822266994
-0.29569999999999996,-287.327865002589
-0.2967000000000001,-288.3181629124945
-0.29769999999999996,-289.3084608224
-0.2987000000000001,-290.29875873230554
-0.29969999999999997,-291.4305277721976
-0.3007000000000001,-292.2793545521166
-0.30169999999999997,-292.9867102020491
-0.3027000000000001,-293.55259472199515
-0.30369999999999997,-293.9770081119546
-0.3047000000000001,-294.8258348918736
-0.30569999999999997,-295.9576039317657
-0.3067000000000001,-297.6552574916037
-0.3077,-299.3529110514418
-0.3087000000000001,-301.1920357412663
-0.3097,-302.74821817111786
-0.3107000000000001,-304.1629294709828
-0.3117,-305.43616964086146
-0.3127000000000001,-306.4264675507669
-0.3137,-307.27529433068594
-0.3147000000000001,-308.124121110605
-0.3157,-308.8314767605375
-0.3167000000000001,-309.3973612804835
-0.3177,-310.10471693041603
-0.3187000000000001,-310.81207258034857
-0.3197,-311.80237049025413
-0.3207000000000001,-312.9341395301461
-0.3217,-314.20737970002466
-0.3227000000000001,-315.3391487399167
-0.3237,-316.47091777980876
-0.3247000000000001,-317.46121568971427
-0.3257,-318.4515135996198
-0.3267000000000001,-319.4418115095253
-0.3277,-320.2906382894443
-0.3287000000000001,-321.2809361993498
-0.3297,-322.2712341092554
-0.3307000000000001,-322.97858975918786
-0.3317,-323.8274165391069
-0.3327000000000001,-324.3933010590529
-0.3337,-324.81771444901244
-0.3347000000000001,-325.24212783897195
-0.3357,-325.80801235891795
-0.3367000000000001,-326.51536800885043
-0.3377,-327.0812525287965
-0.3387000000000001,-327.6471370487425
-0.3397,-328.2130215686885
-0.3407000000000001,-328.7789060886345
-0.3417,-329.20331947859404
-0.3427000000000001,-329.76920399854004
-0.3437,-330.4765596484726
-0.3447000000000001,-331.3253864283916
-0.3457,-332.1742132083106
-0.3467000000000001,-333.02303998822964
-0.3477,-334.01333789813515
-0.3487000000000001,-334.86216467805417
-0.3497,-335.71099145797325
-0.3507000000000001,-336.4183471079057
-0.3517,-337.12570275783827
-0.3527000000000001,-338.1160006677438
-0.3537,-339.1062985776493
-0.3547000000000001,-340.0965964875548
-0.3557,-341.22836552744684
-0.35670000000000013,-342.3601345673389
-0.3577,-343.3504324772444
-0.35870000000000013,-344.34073038714996
-0.3597,-345.33102829705547
-0.36070000000000013,-346.3213262069609
-0.3617,-347.3116241168665
-0.3626999999999999,-348.301922026772
-0.3637,-349.43369106666404
-0.3646999999999999,-350.2825178465831
-0.3657,-351.1313446265021
-0.3666999999999999,-351.8387002764346
-0.3677,-352.8289981863402
-0.3686999999999999,-353.8192960962457
-0.36970000000000003,-355.09253626612417
-0.3706999999999999,-356.2243053060162
-0.37170000000000003,-357.4975454758948
-0.3726999999999999,-358.7707856457733
-0.37370000000000003,-359.7610835556788
-0.3746999999999999,-360.89285259557084
-0.37570000000000003,-361.74167937548987
-0.3766999999999999,-362.87344841538186
-0.37770000000000004,-364.0052174552739
-0.3786999999999999,-365.13698649516596
-0.37970000000000004,-366.4102266650445
-0.3806999999999999,-367.5419957049365
-0.38170000000000004,-368.67376474482853
-0.38269999999999993,-369.5225915247476
-0.38370000000000004,-370.3714183046666
-0.38469999999999993,-371.3617162145721
-0.38570000000000004,-372.2105429944911
-0.38669999999999993,-371.78612960453165
-0.38570000000000004,-369.09817813478804
-0.38469999999999993,-366.551697795031
-0.38370000000000004,-364.0052174552739
-0.38269999999999993,-361.45873711551684
-0.38170000000000004,-358.7707856457733
-0.3806999999999999,-356.2243053060162
-0.37970000000000004,-353.5363538362726
-0.3786999999999999,-350.98987349651554
-0.37770000000000004,-348.72633541673156
-0.3766999999999999,-346.4627973369475
-0.37570000000000003,-344.34073038714996
-0.3746999999999999,-341.9357211773794
-0.37370000000000003,-339.6721830975953
-0.3726999999999999,-337.26717388782475
-0.37170000000000003,-335.00363580804066
-0.3706999999999999,-332.7400977282566
-0.36970000000000003,-330.4765596484726
-0.3686999999999999,-328.3544926986751
-0.3677,-326.090954618891
-0.3666999999999999,-323.9688876690934
-0.3657,-321.7053495893094
-0.3646999999999999,-319.30034037953874
-0.3637,-316.7538600397817
-0.3626999999999999,-314.34885083001114
-0.3617,-312.0853127502271
-0.36070000000000013,-309.9632458004295
-0.3597,-307.69970772064545
-0.35870000000000013,-305.57764077084795
-0.3577,-303.31410269106385
-0.35670000000000013,-300.9090934812933
-0.3557,-298.6455554015092
-0.3547000000000001,-296.3820173217252
-0.3537,-294.11847924194115
-0.3527000000000001,-291.85494116215705
-0.3517,-289.59140308237295
-0.3507000000000001,-287.1863938726024
-0.3497,-285.0643269228049
-0.3487000000000001,-282.65931771303434
-0.3477,-280.5372507632368
-0.3467000000000001,-278.4151838134392
-0.3457,-276.29311686364167
-0.3447000000000001,-274.1710499138441
-0.3437,-272.1904540940331
-0.3427000000000001,-270.0683871442355
-0.3417,-267.80484906445145
-0.3407000000000001,-265.5413109846674
-0.3397,-263.13630177489676
-0.3387000000000001,-261.01423482509927
-0.3377,-258.8921678753017
-0.3367000000000001,-256.77010092550415
-0.3357,-254.64803397570657
-0.3347000000000001,-252.66743815589555
-0.3337,-250.6868423360845
-0.3327000000000001,-248.42330425630044
-0.3317,-246.01829504652986
-0.3307000000000001,-243.75475696674582
-0.3297,-241.49121888696175
-0.3287000000000001,-239.5106230671507
-0.3277,-237.53002724733966
-0.3267000000000001,-235.69090255751513
-0.3257,-233.85177786769057
-0.3247000000000001,-231.8711820478795
-0.3237,-229.89058622806846
-0.3227000000000001,-227.9099904082574
-0.3217,-225.78792345845983
-0.3207000000000001,-223.6658565086623
-0.3197,-221.40231842887826
-0.3187000000000001,-219.28025147908068
-0.3177,-217.15818452928315
-0.3167000000000001,-215.31905983945856
-0.3157,-213.62140627962054
-0.3147000000000001,-211.782281589796
-0.3137,-210.08462802995794
-0.3127000000000001,-208.3869744701199
-0.3117,-206.83079204026836
-0.3107000000000001,-204.9916673504438
-0.3097,-203.01107153063276
-0.3087000000000001,-201.17194684080823
-0.3077,-199.04987989101065
-0.3067000000000001,-197.0692840711996
-0.30569999999999997,-194.80574599141553
-0.3047000000000001,-192.683679041618
-0.30369999999999997,-190.70308322180696
-0.3027000000000001,-188.8639585319824
-0.30169999999999997,-187.02483384215788
-0.3007000000000001,-185.3271802823198
-0.29969999999999997,-183.34658446250873
-0.2987000000000001,-181.36598864269772
-0.29769999999999996,-179.24392169290016
-0.2967000000000001,-177.1218547431026
-0.29569999999999996,-174.99978779330505
-0.2947000000000001,-172.87772084350746
-0.29369999999999996,-170.75565389370993
-0.29270000000000007,-168.63358694391238
-0.29169999999999996,-166.65299112410133
-0.29070000000000007,-164.67239530429026
-0.28969999999999996,-162.6917994844792
-0.28870000000000007,-160.8526747946547
-0.28769999999999996,-159.01355010483013
-0.28670000000000007,-157.17442541500557
-0.28569999999999995,-155.47677185516753
-0.28470000000000006,-153.77911829532948
-0.28369999999999995,-152.0814647354914
-0.28270000000000006,-150.24234004566688
-0.28169999999999995,-148.40321535584232
-0.28070000000000006,-146.5640906660178
-0.27969999999999995,-144.72496597619326
-0.27870000000000006,-143.0273124163552
-0.27769999999999995,-141.3155117435185
-0.27670000000000006,-139.6602995226764
-0.27569999999999995,-137.9626459628384
-0.27470000000000006,-136.13766838601245
-0.27369999999999994,-134.256102357192
-0.27270000000000005,-132.2896536503796
-0.27169999999999994,-130.46467607355368
-0.27070000000000005,-128.62555138372915
-0.26969999999999994,-126.88545648489513
-0.26870000000000005,-125.18780292505707
-0.26769999999999994,-123.43356091322445
