Potential V vs RHE, Current mA cm-2
0.013299999999999867,28.746933613257543
0.012299999999999978,26.822926245441096
0.011299999999999866,24.941360216620595
0.010299999999999976,23.073941300798747
0.009299999999999864,21.277257949970153
0.008299999999999974,19.537163051136158
0.007299999999999862,17.839509491298113
0.006299999999999972,16.22673860945197
0.00529999999999986,14.529085049613924
0.0042999999999999705,12.907825899968595
0.0032999999999998586,11.251198967826637
0.0022999999999999687,9.549301274088998
0.0012999999999998568,7.892674341947039
0.00029999999999996696,6.234632698505217
-0.000700000000000145,4.6218618166590755
-0.0017000000000000348,3.0076762235130676
-0.0027000000000001467,1.3934906303670611
-0.0037000000000000366,-0.1766974413531431
-0.0047000000000001485,-1.7033124050375041
-0.005700000000000038,-3.1420737970002466
-0.00670000000000015,-4.582249900262854
-0.00770000000000004,-6.064867342521412
-0.008700000000000152,-7.5474847847799715
-0.009700000000000042,-9.031516938338395
-0.010700000000000154,-10.514134380596953
-0.011700000000000044,-12.040607873151327
-0.012700000000000156,-13.610937416001518
-0.013700000000000045,-15.137410908555893
-0.014700000000000157,-16.622857773414182
-0.015700000000000047,-18.06586329927652
-0.01670000000000016,-19.537163051136158
-0.01770000000000005,-20.93772723800254
-0.01870000000000016,-22.33829142486893
-0.01970000000000005,-23.682267159740714
-0.020700000000000163,-24.997948668615198
-0.021700000000000053,-26.38436574248293
-0.022700000000000164,-27.742488590353368
-0.023700000000000054,-29.14305277721976
-0.024700000000000166,-30.529469851087494
-0.025700000000000056,-31.972475376949827
-0.026700000000000168,-33.41548090281216
-0.027700000000000058,-34.8018979766799
-0.02870000000000017,-36.20246216354629
-0.02970000000000006,-37.56058501141672
-0.03070000000000017,-38.86211940729255
-0.03170000000000006,-40.135359577171094
-0.03270000000000017,-41.43689397304693
-0.03370000000000006,-42.653545690930855
-0.034700000000000175,-43.92678586080939
-0.035700000000000065,-45.22832025668522
-0.03670000000000018,-46.586443104555656
-0.03770000000000007,-47.8879775004315
-0.03870000000000018,-49.24610034830193
-0.03970000000000007,-50.60422319617236
-0.04070000000000018,-51.948198931044146
-0.04170000000000007,-53.30632177891458
-0.04270000000000018,-54.60785617479041
-0.04370000000000007,-55.96597902266086
-0.044700000000000184,-57.182630740544774
-0.045700000000000074,-58.45587091042332
-0.046700000000000186,-59.67252262830725
-0.047700000000000076,-60.889174346191176
-0.04870000000000019,-62.16241451606972
-0.04970000000000008,-63.421507572949594
-0.05070000000000019,-64.68060062982947
-0.05170000000000008,-65.99628213870396
-0.05270000000000019,-67.21293385658788
-0.05370000000000008,-68.52861536546239
-0.05470000000000019,-69.78770842234226
-0.05570000000000008,-71.0043601402262
-0.056700000000000195,-72.19271763211282
-0.057700000000000085,-73.3669280110008
-0.058700000000000196,-74.54113838988879
-0.059700000000000086,-75.6729074297808
-0.0607000000000002,-76.86126492166746
-0.06170000000000009,-78.07791663955136
-0.0627000000000002,-79.25212701843935
-0.06370000000000009,-80.52536718831789
-0.0647000000000002,-81.78446024519776
-0.06570000000000009,-83.04355330207765
-0.0667000000000002,-84.31679347195619
-0.0677000000000001,-85.57588652883607
-0.0687000000000002,-86.80668535971866
-0.0697000000000001,-87.98089573860662
-0.07070000000000021,-89.11266477849867
-0.0717000000000001,-90.24443381839069
-0.07270000000000021,-91.37620285828272
-0.0737000000000001,-92.42308922018285
-0.07470000000000021,-93.51241692107894
-0.0757000000000001,-94.601744621975
-0.07670000000000021,-95.83254345285758
-0.0777000000000001,-97.04919517074151
-0.07870000000000021,-98.3082882276214
-0.0797000000000001,-99.53908705850398
-0.08070000000000022,-100.84062145437981
-0.0817000000000001,-102.07142028526239
-0.08270000000000022,-103.28807200314633
-0.08370000000000011,-104.41984104303836
-0.08470000000000022,-105.50916874393444
-0.08570000000000011,-106.59849644483052
-0.08670000000000022,-107.68782414572658
-0.08770000000000011,-108.77715184662266
-0.08870000000000022,-109.8240382085228
-0.08970000000000011,-110.96995436141347
-0.09070000000000022,-112.14416474030146
-0.09170000000000011,-113.27593378019348
-0.09270000000000023,-114.45014415908147
-0.09370000000000012,-115.62435453796945
-0.09470000000000023,-116.81271202985609
-0.09570000000000012,-117.94448106974811
-0.09670000000000023,-119.07625010964013
-0.09770000000000012,-120.16557781053622
-0.09870000000000023,-121.2549055114323
-0.09970000000000012,-122.30179187333242
-0.10070000000000023,-123.39111957422851
-0.10170000000000012,-124.48044727512458
-0.10270000000000024,-125.56977497602065
-0.10370000000000013,-126.71569112891132
-0.10470000000000024,-127.80501882980741
-0.10570000000000013,-128.89434653070347
-0.10670000000000024,-129.98367423159957
-0.10770000000000013,-131.1154432714916
-0.10870000000000024,-132.20477097238768
-0.10970000000000013,-133.29409867328377
-0.11070000000000024,-134.38342637417986
-0.11170000000000013,-135.43031273607997
-0.11270000000000002,-136.51964043697603
-0.11370000000000013,-137.52408545988024
-0.11470000000000002,-138.61341316077628
-0.11570000000000014,-139.70274086167237
-0.11670000000000003,-140.79206856256846
-0.11770000000000014,-142.03701450644968
-0.11870000000000003,-143.16878354634173
-0.11970000000000014,-144.30055258623375
-0.12070000000000003,-145.43232162612577
-0.12170000000000014,-146.4226195360313
-0.12270000000000003,-147.4129174459368
-0.12370000000000014,-148.54468648582886
-0.12470000000000003,-149.39351326574788
-0.12570000000000014,-150.38381117565342
-0.12670000000000003,-151.23263795557244
-0.12770000000000015,-152.22293586547795
-0.12870000000000004,-153.21323377538346
-0.12970000000000015,-154.3450028152755
-0.13070000000000004,-155.47677185516753
-0.13170000000000015,-156.60854089505958
-0.13270000000000004,-157.7403099349516
-0.13370000000000015,-158.87207897484362
-0.13470000000000004,-160.00384801473567
-0.13570000000000015,-160.99414592464117
-0.13670000000000004,-162.12591496453322
-0.13770000000000016,-163.11621287443873
-0.13870000000000005,-164.10651078434424
-0.13970000000000016,-164.9553375642633
-0.14070000000000005,-165.94563547416882
-0.14170000000000016,-166.93593338407433
-0.14270000000000005,-167.92623129397984
-0.14370000000000016,-169.0580003338719
-0.14470000000000005,-170.18976937376394
-0.14570000000000016,-171.32153841365593
-0.14670000000000005,-172.45330745354798
-0.14770000000000016,-173.58507649344
-0.14870000000000005,-174.71684553333202
-0.14970000000000017,-175.84861457322407
-0.15070000000000006,-176.8389124831296
-0.15170000000000017,-177.82921039303508
-0.15270000000000006,-178.81950830294062
-0.15370000000000017,-179.80980621284618
-0.15470000000000006,-180.8001041227517
-0.15570000000000017,-181.79040203265723
-0.15670000000000006,-182.78069994256273
-0.15770000000000017,-183.77099785246824
-0.15870000000000006,-184.9027668923603
-0.15970000000000018,-186.03453593225234
-0.16070000000000007,-187.16630497214436
-0.16170000000000018,-188.29807401203638
-0.16270000000000007,-189.2883719219419
-0.16370000000000018,-190.42014096183394
-0.16470000000000007,-191.41043887173947
-0.16570000000000018,-192.54220791163152
-0.16670000000000007,-193.3910346915505
-0.16770000000000018,-194.52280373144254
-0.16870000000000007,-195.51310164134807
-0.16970000000000018,-196.6448706812401
-0.17070000000000007,-197.63516859114563
-0.17170000000000019,-198.76693763103765
-0.17270000000000008,-199.89870667092967
-0.1737000000000002,-201.03047571082172
-0.17470000000000008,-202.16224475071377
-0.1757000000000002,-203.29401379060576
-0.17670000000000008,-204.42578283049778
-0.1777000000000002,-205.41608074040332
-0.17870000000000008,-206.40637865030885
-0.1797000000000002,-207.25520543022787
-0.18070000000000008,-208.24550334013338
-0.1817000000000002,-209.37727238002543
-0.18270000000000008,-210.50904141991748
-0.1837000000000002,-211.782281589796
-0.1847000000000001,-212.914050629688
-0.1857000000000002,-214.18729079956654
-0.1867000000000001,-215.4605309694451
-0.1877000000000002,-216.59230000933712
-0.1887000000000001,-217.72406904922914
-0.1897000000000002,-218.85583808912116
-0.1907000000000001,-219.8461359990267
-0.1917000000000001,-220.83643390893224
-0.19269999999999998,-221.82673181883774
-0.1937000000000001,-222.81702972874328
-0.19469999999999998,-223.9487987686353
-0.1957000000000001,-225.08056780852735
-0.19669999999999999,-226.35380797840588
-0.1977000000000001,-227.62704814828442
-0.1987,-228.75881718817644
-0.1997000000000001,-230.03205735805497
-0.2007,-231.3052975279335
-0.2017000000000001,-232.43706656782552
-0.2027,-233.56883560771757
-0.2037000000000001,-234.84207577759608
-0.2047,-235.83237368750162
-0.2057000000000001,-236.96414272739366
-0.2067,-237.9544406372992
-0.2077000000000001,-238.94473854720468
-0.2087,-239.7935653271237
-0.2097000000000001,-240.64239210704275
-0.2107,-241.6326900169483
-0.2117000000000001,-242.62298792685377
-0.2127,-243.6132858367593
-0.2137000000000001,-244.60358374666484
-0.2147,-245.59388165657037
-0.2157000000000001,-246.7256506964624
-0.2167,-247.71594860636796
-0.21770000000000012,-248.70624651627344
-0.2187,-249.69654442617897
-0.21970000000000012,-250.6868423360845
-0.2207,-251.67714024599002
-0.22170000000000012,-252.66743815589555
-0.2227,-253.65773606580112
-0.22370000000000012,-254.64803397570657
-0.2247,-255.63833188561213
-0.22570000000000012,-256.62862979551767
-0.2267,-257.4774565754367
-0.22770000000000012,-258.32628335535566
-0.22870000000000001,-259.3165812652612
-0.22970000000000013,-260.16540804518024
-0.23070000000000002,-260.8727636951128
-0.23170000000000013,-261.58011934504526
-0.23270000000000002,-262.57041725495077
-0.23370000000000013,-263.56071516485633
-0.23470000000000002,-264.40954194477536
-0.23570000000000013,-265.2583687246944
-0.23670000000000002,-266.2486666345999
-0.2376999999999999,-267.23896454450545
-0.23870000000000002,-268.22926245441096
-0.2396999999999999,-269.2195603643164
-0.24070000000000003,-270.0683871442355
-0.24169999999999991,-271.05868505414105
-0.24270000000000003,-271.9075118340601
-0.24369999999999992,-272.8978097439656
-0.24470000000000003,-273.60516539389806
-0.24569999999999992,-274.5954633038036
-0.24670000000000003,-275.30281895373616
-0.24769999999999992,-276.29311686364167
-0.24870000000000003,-277.1419436435607
-0.24969999999999992,-278.2737126834527
-0.25070000000000003,-279.40548172334474
-0.2516999999999999,-280.5372507632368
-0.25270000000000004,-281.8104909331153
-0.2536999999999999,-283.08373110299385
-0.25470000000000004,-284.2155001428859
-0.2556999999999999,-285.3472691827779
-0.25670000000000004,-286.33756709268346
-0.25769999999999993,-287.327865002589
-0.25870000000000004,-288.3181629124945
-0.25969999999999993,-289.1669896924135
-0.26070000000000004,-290.0158164723325
-0.26169999999999993,-290.86464325225154
-0.26270000000000004,-291.85494116215705
-0.26369999999999993,-292.8452390720626
-0.26470000000000005,-293.9770081119546
-0.26569999999999994,-295.10877715184665
-0.26670000000000005,-296.2405461917387
-0.26769999999999994,-297.23084410164427
-0.26870000000000005,-298.3626131415362
-0.26969999999999994,-299.49438218142825
-0.27070000000000005,-300.48468009133376
-0.27169999999999994,-301.47497800123926
-0.27270000000000005,-302.4652759111449
-0.27369999999999994,-303.31410269106385
-0.27470000000000006,-304.3044006009694
-0.27569999999999995,-305.43616964086146
-0.27670000000000006,-306.4264675507669
-0.27769999999999995,-307.4167654606725
-0.27870000000000006,-308.54853450056453
-0.27969999999999995,-309.53883241047004
-0.28070000000000006,-310.6706014503621
-0.28169999999999995,-311.6608993602676
-0.28270000000000006,-312.65119727017316
-0.28369999999999995,-313.6414951800786
-0.28470000000000006,-314.6317930899841
-0.28569999999999995,-315.4806198699032
-0.28670000000000007,-316.47091777980876
-0.28769999999999996,-317.3197445597277
-0.28870000000000007,-318.31004246963323
-0.28969999999999996,-319.30034037953874
-0.29070000000000007,-320.2906382894443
-0.29169999999999996,-321.2809361993498
-0.29270000000000007,-322.2712341092554
-0.29369999999999996,-323.2615320191609
-0.2947000000000001,-324.25182992906645
-0.29569999999999996,-325.24212783897195
-0.2967000000000001,-326.23242574887746
-0.29769999999999996,-327.222723658783
-0.2987000000000001,-328.071550438702
-0.29969999999999997,-329.0618483486075
-0.3007000000000001,-330.05214625851306
-0.30169999999999997,-331.0424441684186
-0.3027000000000001,-332.03274207832413
-0.30369999999999997,-333.02303998822964
-0.3047000000000001,-334.1548090281217
-0.30569999999999997,-335.1451069380272
-0.3067000000000001,-336.27687597791925
-0.3077,-337.40864501781124
-0.3087000000000001,-338.39894292771675
-0.3097,-339.5307119676088
-0.3107000000000001,-340.5210098775143
-0.3117,-341.51130778741987
-0.3127000000000001,-342.5016056973254
-0.3137,-343.49190360723094
-0.3147000000000001,-344.48220151713645
-0.3157,-345.6139705570285
-0.3167000000000001,-346.604268466934
-0.3177,-347.73603750682605
-0.3187000000000001,-348.86780654671804
-0.3197,-349.9995755866101
-0.3207000000000001,-351.2728157564886
-0.3217,-352.4045847963807
-0.3227000000000001,-353.5363538362726
-0.3237,-354.5266517461782
-0.3247000000000001,-355.51694965608374
-0.3257,-356.50724756598925
-0.3267000000000001,-357.4975454758948
-0.3277,-358.4878433858003
-0.3287000000000001,-359.61961242569237
-0.3297,-360.6099103355978
-0.3307000000000001,-361.74167937548987
-0.3317,-362.73197728539543
-0.3327000000000001,-363.58080406531445
-0.3337,-364.57110197521996
-0.3347000000000001,-365.2784576251525
-0.3357,-365.985813275085
-0.3367000000000001,-366.551697795031
-0.3377,-367.2590534449635
-0.3387000000000001,-368.10788022488254
-0.3397,-369.09817813478804
-0.3407000000000001,-369.9470049147071
-0.3417,-371.0787739545991
-0.3427000000000001,-372.49348525446413
-0.3437,-373.6252542943562
-0.3447000000000001,-374.61555220426175
-0.3457,-375.74732124415374
-0.3467000000000001,-377.16203254401876
-0.3477,-378.43527271389735
-0.3487000000000001,-379.28409949381637
-0.3497,-380.13292627373534
-0.3507000000000001,-380.98175305365436
-0.3517,-381.8305798335734
-0.3527000000000001,-382.537935483506
-0.3537,-382.96234887346543
-0.3547000000000001,-383.81117565338445
-0.3557,-384.80147356328996
-0.35670000000000013,-385.933242603182
-0.3577,-386.9235405130875
-0.35870000000000013,-388.05530955297957
-0.3597,-389.3285497228581
-0.36070000000000013,-390.60178989273663
-0.3617,-391.87503006261517
-0.3626999999999999,-393.00679910250716
-0.3637,-393.9970970124127
-0.3646999999999999,-394.84592379233175
-0.3657,-395.6947505722507
-0.3666999999999999,-396.5435773521698
-0.3677,-397.67534639206184
-0.3686999999999999,-398.52417317198086
-0.36970000000000003,-399.3729999518999
-0.3706999999999999,-400.36329786180534
-0.37170000000000003,-401.4950669016974
-0.3726999999999999,-402.62683594158943
-0.37370000000000003,-403.90007611146797
-0.3746999999999999,-404.89037402137353
-0.37570000000000003,-406.0221430612655
-0.3766999999999999,-407.1539121011575
-0.37770000000000004,-408.0027388810766
-0.3786999999999999,-408.85156566099556
-0.37970000000000004,-409.8418635709011
-0.3806999999999999,-410.69069035082015
-0.38170000000000004,-411.53951713073917
-0.38269999999999993,-412.5298150406447
-0.38370000000000004,-413.5201129505502
-0.38469999999999993,-414.3689397304692
-0.38570000000000004,-415.2177665103883
-0.38669999999999993,-414.7933531204288
-0.38570000000000004,-411.9639305206987
-0.38469999999999993,-409.4174501809416
-0.38370000000000004,-406.87096984118455
-0.38269999999999993,-404.183018371441
-0.38170000000000004,-401.77800916167047
-0.3806999999999999,-399.09005769192686
-0.37970000000000004,-396.5435773521698
-0.3786999999999999,-393.9970970124127
-0.37770000000000004,-391.30914554266917
-0.3766999999999999,-388.6211940729256
-0.37570000000000003,-386.0747137331685
-0.3746999999999999,-383.5282333934114
-0.37370000000000003,-380.98175305365436
-0.3726999999999999,-378.43527271389735
-0.37170000000000003,-376.0302635041267
-0.3706999999999999,-373.6252542943562
-0.36970000000000003,-371.3617162145721
-0.3686999999999999,-368.95670700480156
-0.3677,-366.69316892501746
-0.3666999999999999,-364.28815971524693
-0.3657,-362.16609276544943
-0.3646999999999999,-360.0440258156518
-0.3637,-357.7804877358678
-0.3626999999999999,-355.65842078607017
-0.3617,-353.3948827062862
-0.36070000000000013,-351.1313446265021
-0.3597,-349.0092776767046
-0.35870000000000013,-346.604268466934
-0.3577,-344.34073038714996
-0.35670000000000013,-341.9357211773794
-0.3557,-339.5307119676088
-0.3547000000000001,-337.26717388782475
-0.3537,-334.86216467805417
-0.3527000000000001,-332.59862659827013
-0.3517,-330.33508851848603
-0.3507000000000001,-328.2130215686885
-0.3497,-326.23242574887746
-0.3487000000000001,-324.25182992906645
-0.3477,-322.2712341092554
-0.3467000000000001,-320.4321094194308
-0.3457,-318.31004246963323
-0.3447000000000001,-316.47091777980876
-0.3437,-314.34885083001114
-0.3427000000000001,-312.36825501020013
-0.3417,-310.2461880604026
-0.3407000000000001,-307.98264998061853
-0.3397,-305.57764077084795
-0.3387000000000001,-303.5970449510368
-0.3377,-301.47497800123926
-0.3367000000000001,-299.6358533114148
-0.3357,-297.6552574916037
-0.3347000000000001,-295.53319054180616
-0.3337,-293.1281813320356
-0.3327000000000001,-290.5817009922785
-0.3317,-288.3181629124945
-0.3307000000000001,-286.0546248327104
-0.3297,-283.79108675292633
-0.3287000000000001,-281.52754867314235
-0.3277,-279.26401059335825
-0.3267000000000001,-276.8590013835877
-0.3257,-274.5954633038036
-0.3247000000000001,-272.47339635400607
-0.3237,-270.63427166418154
-0.3227000000000001,-268.93661810434344
-0.3217,-267.23896454450545
-0.3207000000000001,-265.6827821146539
-0.3197,-264.12659968480233
-0.3187000000000001,-262.42894612496434
-0.3177,-260.58982143513975
-0.3167000000000001,-258.60922561532874
-0.3157,-256.62862979551767
-0.3147000000000001,-254.64803397570657
-0.3137,-252.52596702590907
-0.3127000000000001,-250.4039000761115
-0.3117,-248.42330425630044
-0.3107000000000001,-246.15976617651637
-0.3097,-243.75475696674582
-0.3087000000000001,-241.49121888696175
-0.3077,-239.36915193716422
-0.3067000000000001,-237.24708498736666
-0.30569999999999997,-235.12501803756908
-0.3047000000000001,-233.00295108777152
-0.30369999999999997,-231.0223552679605
-0.3027000000000001,-229.04175944814943
-0.30169999999999997,-227.06116362833836
-0.3007000000000001,-225.22203893851383
-0.29969999999999997,-223.52438537867582
-0.2987000000000001,-221.82673181883774
-0.29769999999999996,-219.98760712901318
-0.2967000000000001,-218.14848243918865
-0.29569999999999996,-216.3093577493641
-0.2947000000000001,-214.32876192955305
-0.29369999999999996,-212.48963723972852
-0.29270000000000007,-210.79198367989048
-0.29169999999999996,-208.95285899006592
-0.29070000000000007,-207.1137343002414
-0.28969999999999996,-204.9916673504438
-0.28870000000000007,-203.01107153063276
-0.28769999999999996,-201.03047571082172
-0.28670000000000007,-199.04987989101065
-0.28569999999999995,-197.21075520118612
-0.28470000000000006,-195.37163051136156
-0.28369999999999995,-193.6739769515235
-0.28270000000000006,-191.83485226169896
-0.28169999999999995,-189.99572757187443
-0.28070000000000006,-188.29807401203638
-0.27969999999999995,-186.60042045219836
-0.27870000000000006,-184.6198246323873
-0.27769999999999995,-182.78069994256273
-0.27670000000000006,-180.8001041227517
-0.27569999999999995,-178.67803717295413
-0.27470000000000006,-176.55597022315658
-0.27369999999999994,-174.43390327335902
-0.27270000000000005,-172.45330745354798
-0.27169999999999994,-170.47271163373694
-0.27070000000000005,-168.49211581392586
-0.26969999999999994,-166.51151999411482
-0.26870000000000005,-164.81386643427678
