Potential V vs RHE, Current mA cm-2
0.013299999999999867,26.129717708507226
0.012299999999999978,24.24815167968673
0.011299999999999866,22.46561544185678
0.010299999999999976,20.668932091028186
0.009299999999999864,18.97127853119014
0.008299999999999974,17.316066310348052
0.007299999999999862,15.70329542850191
0.006299999999999972,14.042424362460354
0.00529999999999986,12.428238769314348
0.0042999999999999705,10.771611837172388
0.0032999999999998586,9.157426244026382
0.0022999999999999687,7.49938460058456
0.0012999999999998568,5.8427576684426015
0.00029999999999996696,4.184716025000778
-0.000700000000000145,2.5280890928588207
-0.0017000000000000348,0.9137620285828272
-0.0027000000000001467,-0.7001406223032067
-0.0037000000000000366,-2.2706116362833835
-0.0047000000000001485,-3.7970851288377587
-0.005700000000000038,-5.323558621392133
-0.00670000000000015,-6.762320013354876
-0.00770000000000004,-8.202496116617484
-0.008700000000000152,-9.685113558876042
-0.009700000000000042,-11.1677310011346
-0.010700000000000154,-12.651763154693022
-0.011700000000000044,-14.175407224647667
-0.012700000000000156,-15.660854089505953
-0.013700000000000045,-17.188742293360193
-0.014700000000000157,-18.716630497214435
-0.015700000000000047,-20.244518701068674
-0.01670000000000016,-21.772406904922917
-0.01770000000000005,-23.24370665678255
-0.01870000000000016,-24.686712182644893
-0.01970000000000005,-26.129717708507226
-0.020700000000000163,-27.530281895373616
-0.021700000000000053,-28.8742576302454
-0.022700000000000164,-30.232380478115836
-0.023700000000000054,-31.618797551983565
-0.024700000000000166,-32.97692039985401
-0.025700000000000056,-34.377484586720385
-0.026700000000000168,-35.763901660588125
-0.027700000000000058,-37.206907186450465
-0.02870000000000017,-38.6499127123128
-0.02970000000000006,-40.03632978618054
-0.03070000000000017,-41.47933531204288
-0.03170000000000006,-42.87989949890926
-0.03270000000000017,-44.28046368577565
-0.03370000000000006,-45.624439420647434
-0.034700000000000175,-46.982562268517874
-0.035700000000000065,-48.2840966643937
-0.03670000000000018,-49.59977817326819
-0.03770000000000007,-50.85887123014807
-0.03870000000000018,-52.11796428702795
-0.03970000000000007,-53.39120445690648
-0.04070000000000018,-54.69273885278232
-0.04170000000000007,-56.008420361656796
-0.04270000000000018,-57.352396096528594
-0.04370000000000007,-58.66807760540307
-0.044700000000000184,-60.02620045327351
-0.045700000000000074,-61.37017618814529
-0.046700000000000186,-62.68585769701977
-0.047700000000000076,-64.02983343189156
-0.04870000000000019,-65.3030736017701
-0.04970000000000008,-66.56216665864997
-0.05070000000000019,-67.7788183765339
-0.05170000000000008,-69.0096172074165
-0.05270000000000019,-70.22626892530042
-0.05370000000000008,-71.44292064318435
-0.05470000000000019,-72.71616081306288
-0.05570000000000008,-73.93281253094682
-0.056700000000000195,-75.2484940398213
-0.057700000000000085,-76.50758709670117
-0.058700000000000196,-77.80912149257702
-0.059700000000000086,-79.16724434044745
-0.0607000000000002,-80.46877873632329
-0.06170000000000009,-81.74201890620182
-0.0627000000000002,-83.0011119630817
-0.06370000000000009,-84.18946945496833
-0.0647000000000002,-85.36367983385631
-0.06570000000000009,-86.49544887374834
-0.0667000000000002,-87.62721791364037
-0.0677000000000001,-88.71654561453644
-0.0687000000000002,-89.84831465442848
-0.0697000000000001,-91.03667214631511
-0.07070000000000021,-92.2108825252031
-0.0717000000000001,-93.38509290409107
-0.07270000000000021,-94.70077441296557
-0.0737000000000001,-95.91742613084948
-0.07470000000000021,-97.17651918772938
-0.0757000000000001,-98.49220069660386
-0.07670000000000021,-99.66641107549184
-0.0777000000000001,-100.88306279337576
-0.07870000000000021,-102.07142028526239
-0.0797000000000001,-103.16074798615847
-0.08070000000000022,-104.33495836504645
-0.0817000000000001,-105.42428606594254
-0.08270000000000022,-106.4287310888467
-0.08370000000000011,-107.56050012873874
-0.08470000000000022,-108.64982782963483
-0.08570000000000011,-109.78159686952685
-0.08670000000000022,-110.96995436141347
-0.08770000000000011,-112.14416474030146
-0.08870000000000022,-113.31837511918944
-0.08970000000000011,-114.4925854980774
-0.09070000000000022,-115.72338432896
-0.09170000000000011,-116.89759470784797
-0.09270000000000023,-118.02936374774
-0.09370000000000012,-119.16113278763203
-0.09470000000000023,-120.29290182752408
-0.09570000000000012,-121.38222952842017
-0.09670000000000023,-122.48570434231489
-0.09770000000000012,-123.532590704215
-0.09870000000000023,-124.62191840511109
-0.09970000000000012,-125.6688047670112
-0.10070000000000023,-126.80057380690324
-0.10170000000000012,-127.88990150779931
-0.10270000000000024,-129.02167054769134
-0.10370000000000013,-130.1534395875834
-0.10470000000000024,-131.32764996647134
-0.10570000000000013,-132.55844879735392
-0.10670000000000024,-133.69021783724597
-0.10770000000000013,-134.86442821613394
-0.10870000000000024,-135.99619725602597
-0.10970000000000013,-137.08552495692206
-0.11070000000000024,-138.17485265781812
-0.11170000000000013,-139.22173901971826
-0.11270000000000002,-140.2686253816184
-0.11370000000000013,-141.3721001955131
-0.11470000000000002,-142.4614278964092
-0.11570000000000014,-143.4517258063147
-0.11670000000000003,-144.58349484620675
-0.11770000000000014,-145.85673501608528
-0.11870000000000003,-146.9885040559773
-0.11970000000000014,-148.12027309586935
-0.12070000000000003,-149.25204213576137
-0.12170000000000014,-150.38381117565342
-0.12270000000000003,-151.5155802155454
-0.12370000000000014,-152.50587812545095
-0.12470000000000003,-153.63764716534297
-0.12570000000000014,-154.6279450752485
-0.12670000000000003,-155.61824298515404
-0.12770000000000015,-156.60854089505958
-0.12870000000000004,-157.59883880496508
-0.12970000000000015,-158.73060784485713
-0.13070000000000004,-159.72090575476264
-0.13170000000000015,-160.71120366466818
-0.13270000000000004,-161.84297270456022
-0.13370000000000015,-162.97474174445222
-0.13470000000000004,-164.10651078434424
-0.13570000000000015,-165.3797509542228
-0.13670000000000004,-166.51151999411482
-0.13770000000000016,-167.6432890340068
-0.13870000000000005,-168.77505807389886
-0.13970000000000016,-169.9068271137909
-0.14070000000000005,-170.89712502369645
-0.14170000000000016,-171.88742293360195
-0.14270000000000005,-172.87772084350746
-0.14370000000000016,-173.86801875341303
-0.14470000000000005,-174.99978779330505
-0.14570000000000016,-175.84861457322407
-0.14670000000000005,-176.98038361311612
-0.14770000000000016,-178.1121526530081
-0.14870000000000005,-179.24392169290016
-0.14970000000000017,-180.37569073279218
-0.15070000000000006,-181.5074597726842
-0.15170000000000017,-182.63922881257625
-0.15270000000000006,-183.77099785246824
-0.15370000000000017,-184.9027668923603
-0.15470000000000006,-186.03453593225234
-0.15570000000000017,-187.16630497214436
-0.15670000000000006,-188.15660288204987
-0.15770000000000017,-189.1469007919554
-0.15870000000000006,-190.27866983184742
-0.15970000000000018,-191.41043887173947
-0.16070000000000007,-192.40073678164498
-0.16170000000000018,-193.3910346915505
-0.16270000000000007,-194.52280373144254
-0.16370000000000018,-195.65457277133459
-0.16470000000000007,-196.6448706812401
-0.16570000000000018,-197.77663972113214
-0.16670000000000007,-198.90840876102413
-0.16770000000000018,-199.89870667092967
-0.16870000000000007,-200.88900458083523
-0.16970000000000018,-201.87930249074074
-0.17070000000000007,-203.01107153063276
-0.17170000000000019,-204.0013694405383
-0.17270000000000008,-204.9916673504438
-0.1737000000000002,-205.98196526034934
-0.17470000000000008,-206.97226317025488
-0.1757000000000002,-208.1040322101469
-0.17670000000000008,-209.23580125003892
-0.1777000000000002,-210.36757028993094
-0.17870000000000008,-211.499339329823
-0.1797000000000002,-212.631108369715
-0.18070000000000008,-213.90434853959354
-0.1817000000000002,-214.89464644949908
-0.18270000000000008,-216.0264154893911
-0.1837000000000002,-217.15818452928315
-0.1847000000000001,-218.14848243918865
-0.1857000000000002,-219.28025147908068
-0.1867000000000001,-220.2705493889862
-0.1877000000000002,-221.11937616890526
-0.1887000000000001,-222.25114520879725
-0.1897000000000002,-223.2414431187028
-0.1907000000000001,-224.2317410286083
-0.1917000000000001,-225.22203893851383
-0.19269999999999998,-226.21233684841937
-0.1937000000000001,-227.2026347583249
-0.19469999999999998,-228.33440379821695
-0.1957000000000001,-229.32470170812243
-0.19669999999999999,-230.45647074801445
-0.1977000000000001,-231.44676865792
-0.1987,-232.43706656782552
-0.1997000000000001,-233.4273644777311
-0.2007,-234.4176623876366
-0.2017000000000001,-235.54943142752862
-0.2027,-236.53972933743412
-0.2037000000000001,-237.53002724733966
-0.2047,-238.5203251572452
-0.2057000000000001,-239.65209419713722
-0.2067,-240.78386323702924
-0.2077000000000001,-241.9156322769213
-0.2087,-243.04740131681334
-0.2097000000000001,-244.17917035670533
-0.2107,-245.45241052658386
-0.2117000000000001,-246.5841795664759
-0.2127,-247.71594860636796
-0.2137000000000001,-248.70624651627344
-0.2147,-249.69654442617897
-0.2157000000000001,-250.6868423360845
-0.2167,-251.67714024599002
-0.21770000000000012,-252.52596702590907
-0.2187,-253.51626493581452
-0.21970000000000012,-254.50656284572008
-0.2207,-255.49686075562562
-0.22170000000000012,-256.4871586655312
-0.2227,-257.6189277054232
-0.22370000000000012,-258.60922561532874
-0.2247,-259.7409946552208
-0.22570000000000012,-260.8727636951128
-0.2267,-261.8630616050183
-0.22770000000000012,-262.9948306449103
-0.22870000000000001,-264.12659968480233
-0.22970000000000013,-265.11689759470784
-0.23070000000000002,-266.1071955046134
-0.23170000000000013,-267.09749341451896
-0.23270000000000002,-268.0877913244245
-0.23370000000000013,-269.2195603643164
-0.23470000000000002,-270.0683871442355
-0.23570000000000013,-271.05868505414105
-0.23670000000000002,-272.1904540940331
-0.2376999999999999,-273.1807520039386
-0.23870000000000002,-274.1710499138441
-0.2396999999999999,-275.1613478237496
-0.24070000000000003,-276.29311686364167
-0.24169999999999991,-277.2834147735472
-0.24270000000000003,-278.2737126834527
-0.24369999999999992,-279.26401059335825
-0.24470000000000003,-280.11283737327733
-0.24569999999999992,-281.1031352831828
-0.24670000000000003,-282.09343319308834
-0.24769999999999992,-282.9422599730073
-0.24870000000000003,-283.9325578829129
-0.24969999999999992,-284.9228557928184
-0.25070000000000003,-285.7716825727374
-0.2516999999999999,-286.76198048264297
-0.25270000000000004,-287.893749522535
-0.2536999999999999,-288.8840474324405
-0.25470000000000004,-290.0158164723325
-0.2556999999999999,-291.14758551222457
-0.25670000000000004,-292.2793545521166
-0.25769999999999993,-293.26965246202207
-0.25870000000000004,-294.2599503719276
-0.25969999999999993,-295.3917194118196
-0.26070000000000004,-296.3820173217252
-0.26169999999999993,-297.23084410164427
-0.26270000000000004,-298.2211420115498
-0.26369999999999993,-299.06996879146874
-0.26470000000000005,-300.06026670137425
-0.26569999999999994,-301.0505646112798
-0.26670000000000005,-302.0408625211853
-0.26769999999999994,-303.0311604310908
-0.26870000000000005,-304.1629294709828
-0.26969999999999994,-305.1532273808884
-0.27070000000000005,-306.28499642078043
-0.27169999999999994,-307.4167654606725
-0.27270000000000005,-308.407063370578
-0.27369999999999994,-309.3973612804835
-0.27470000000000006,-310.38765919038906
-0.27569999999999995,-311.3779571002945
-0.27670000000000006,-312.36825501020013
-0.27769999999999995,-313.35855292010564
-0.27870000000000006,-314.34885083001114
-0.27969999999999995,-315.3391487399167
-0.28070000000000006,-316.3294466498222
-0.28169999999999995,-317.46121568971427
-0.28270000000000006,-318.4515135996198
-0.28369999999999995,-319.58328263951176
-0.28470000000000006,-320.71505167940376
-0.28569999999999995,-321.7053495893094
-0.28670000000000007,-322.83711862920137
-0.28769999999999996,-323.9688876690934
-0.28870000000000007,-325.1006567089854
-0.28969999999999996,-326.090954618891
-0.29070000000000007,-327.0812525287965
-0.29169999999999996,-328.071550438702
-0.29270000000000007,-328.92037721862107
-0.29369999999999996,-330.05214625851306
-0.2947000000000001,-331.0424441684186
-0.29569999999999996,-332.03274207832413
-0.2967000000000001,-333.02303998822964
-0.29769999999999996,-334.1548090281217
-0.2987000000000001,-335.2865780680136
-0.29969999999999997,-336.4183471079057
-0.3007000000000001,-337.5501161477977
-0.30169999999999997,-338.6818851876898
-0.3027000000000001,-339.6721830975953
-0.30369999999999997,-340.80395213748733
-0.3047000000000001,-341.7942500473929
-0.30569999999999997,-342.64307682731186
-0.3067000000000001,-343.63337473721737
-0.3077,-344.62367264712293
-0.3087000000000001,-345.47249942704195
-0.3097,-346.604268466934
-0.3107000000000001,-347.59456637683957
-0.3117,-348.44339315675853
-0.3127000000000001,-349.5751621966506
-0.3137,-350.5654601065561
-0.3147000000000001,-351.69722914644814
-0.3157,-352.68752705635364
-0.3167000000000001,-353.8192960962457
-0.3177,-354.95106513613774
-0.3187000000000001,-355.9413630460432
-0.3197,-357.07313208593524
-0.3207000000000001,-358.20490112582723
-0.3217,-359.3366701657193
-0.3227000000000001,-360.46843920561133
-0.3237,-361.74167937548987
-0.3247000000000001,-362.73197728539543
-0.3257,-363.72227519530094
-0.3267000000000001,-364.7125731052065
-0.3277,-365.8443421450985
-0.3287000000000001,-366.69316892501746
-0.3297,-367.8249379649095
-0.3307000000000001,-368.8152358748151
-0.3317,-369.8055337847206
-0.3327000000000001,-370.7958316946261
-0.3337,-371.78612960453165
-0.3347000000000001,-372.7764275144371
-0.3357,-373.90819655432915
-0.3367000000000001,-374.8984944642347
-0.3377,-375.8887923741402
-0.3387000000000001,-376.8790902840458
-0.3397,-378.0108593239378
-0.3407000000000001,-379.14262836382983
-0.3417,-380.2743974037219
-0.3427000000000001,-381.4061664436139
-0.3437,-382.537935483506
-0.3447000000000001,-383.5282333934114
-0.3457,-384.6600024333035
-0.3467000000000001,-385.5088292132225
-0.3477,-386.499127123128
-0.3487000000000001,-387.347953903047
-0.3497,-388.19678068296605
-0.3507000000000001,-389.0456074628851
-0.3517,-390.03590537279064
-0.3527000000000001,-391.02620328269614
-0.3537,-391.87503006261517
-0.3547000000000001,-393.00679910250716
-0.3557,-393.85562588242624
-0.35670000000000013,-394.84592379233175
-0.3577,-395.83622170223725
-0.35870000000000013,-396.82651961214276
-0.3597,-397.81681752204827
-0.36070000000000013,-398.9485865619403
-0.3617,-399.79741334185934
-0.3626999999999999,-400.78771125176496
-0.3637,-401.77800916167047
-0.3646999999999999,-402.7683070715759
-0.3657,-403.7586049814815
-0.3666999999999999,-404.6074317614005
-0.3677,-405.4562585413196
-0.3686999999999999,-406.44655645122504
-0.36970000000000003,-407.43685436113054
-0.3706999999999999,-408.4271522710361
-0.37170000000000003,-409.4174501809416
-0.3726999999999999,-410.54921922083366
-0.37370000000000003,-411.6809882607257
-0.3746999999999999,-412.8127573006177
-0.37570000000000003,-413.94452634050975
-0.3766999999999999,-415.0762953804018
-0.37770000000000004,-416.06659329030725
-0.3786999999999999,-417.05689120021276
-0.37970000000000004,-418.0471891101183
-0.3806999999999999,-418.8960158900374
-0.38170000000000004,-419.8863137999429
-0.38269999999999993,-420.7351405798619
-0.38370000000000004,-421.72543848976744
-0.38469999999999993,-422.71573639967295
-0.38570000000000004,-423.70603430957846
-0.38669999999999993,-423.28162091961894
-0.38570000000000004,-420.7351405798619
-0.38469999999999993,-418.0471891101183
-0.38370000000000004,-415.50070877036126
-0.38269999999999993,-412.9542284306042
-0.38170000000000004,-410.54921922083366
-0.3806999999999999,-408.1442100110631
-0.37970000000000004,-405.73920080129255
-0.3786999999999999,-403.1927204615355
-0.37770000000000004,-400.78771125176496
-0.3766999999999999,-398.3827020419943
-0.37570000000000003,-395.9776928322238
-0.3746999999999999,-393.5726836224532
-0.37370000000000003,-391.30914554266917
-0.3726999999999999,-388.9041363328986
-0.37170000000000003,-386.64059825311455
-0.3706999999999999,-384.23558904334396
-0.36970000000000003,-381.9720509635599
-0.3686999999999999,-379.7085128837758
-0.3677,-377.4449748039917
-0.3666999999999999,-375.18143672420774
-0.3657,-372.9178986444237
-0.3646999999999999,-370.6543605646396
-0.3637,-368.39082248485556
-0.3626999999999999,-365.985813275085
-0.3617,-363.72227519530094
-0.36070000000000013,-361.45873711551684
-0.3597,-359.1951990357328
-0.35870000000000013,-356.7901898259622
-0.3577,-354.3851806161917
-0.35670000000000013,-352.26311366639413
-0.3557,-349.9995755866101
-0.3547000000000001,-347.87750863681254
-0.3537,-345.6139705570285
-0.3527000000000001,-343.49190360723094
-0.3517,-341.22836552744684
-0.3507000000000001,-339.1062985776493
-0.3497,-336.84276049786524
-0.3487000000000001,-334.5792224180812
-0.3477,-332.45715546828364
-0.3467000000000001,-330.19361738849955
-0.3457,-327.9300793087155
-0.3447000000000001,-325.80801235891795
-0.3437,-323.68594540912045
-0.3427000000000001,-321.42240732933635
-0.3417,-319.30034037953874
-0.3407000000000001,-317.3197445597277
-0.3397,-315.19767760993017
-0.3387000000000001,-313.35855292010564
-0.3377,-311.2364859703081
-0.3367000000000001,-309.255890150497
-0.3357,-307.27529433068594
-0.3347000000000001,-305.1532273808884
-0.3337,-303.0311604310908
-0.3327000000000001,-301.0505646112798
-0.3317,-298.9284976614822
-0.3307000000000001,-296.94790184167124
-0.3297,-294.8258348918736
-0.3287000000000001,-292.70376794207607
-0.3277,-290.723172122265
-0.3267000000000001,-288.6011051724675
-0.3257,-286.6205093526564
-0.3247000000000001,-284.63991353284536
-0.3237,-282.65931771303434
-0.3227000000000001,-280.82019302320975
-0.3217,-278.8395972033987
-0.3207000000000001,-276.8590013835877
-0.3197,-274.7369344337901
-0.3187000000000001,-272.7563386139791
-0.3177,-270.63427166418154
-0.3167000000000001,-268.65367584437047
-0.3157,-266.5316088945729
-0.3147000000000001,-264.55101307476184
-0.3137,-262.57041725495077
-0.3127000000000001,-260.58982143513975
-0.3117,-258.4677544853422
-0.3107000000000001,-256.4871586655312
-0.3097,-254.64803397570657
-0.3087000000000001,-252.66743815589555
-0.3077,-250.828313466071
-0.3067000000000001,-248.84771764625998
-0.30569999999999997,-247.0085929564354
-0.3047000000000001,-244.8865260066378
-0.30369999999999997,-243.04740131681334
-0.3027000000000001,-240.92533436701575
-0.30169999999999997,-239.0862096771912
-0.3007000000000001,-237.10561385738015
-0.29969999999999997,-235.12501803756908
-0.2987000000000001,-233.1444222177581
-0.29769999999999996,-231.163826397947
-0.2967000000000001,-229.18323057813595
-0.29569999999999996,-227.34410588831142
-0.2947000000000001,-225.36351006850035
-0.29369999999999996,-223.52438537867582
-0.29270000000000007,-221.68526068885126
-0.29169999999999996,-219.7046648690402
-0.29070000000000007,-217.86554017921566
-0.28969999999999996,-216.0264154893911
-0.28870000000000007,-214.04581966958003
-0.28769999999999996,-212.065223849769
-0.28670000000000007,-210.08462802995794
-0.28569999999999995,-208.24550334013338
-0.28470000000000006,-206.26490752032234
-0.28369999999999995,-204.2843117005113
-0.28270000000000006,-202.44518701068677
-0.28169999999999995,-200.4645911908757
-0.28070000000000006,-198.62546650105114
-0.27969999999999995,-196.92781294121312
-0.27870000000000006,-195.08868825138856
-0.27769999999999995,-193.249563561564
-0.27670000000000006,-191.551910001726
-0.27569999999999995,-189.71278531190143
-0.27470000000000006,-187.73218949209036
-0.27369999999999994,-185.89306480226583
-0.27270000000000005,-184.05394011244127
-0.27169999999999994,-182.21481542261674
-0.27070000000000005,-180.23421960280567
-0.26969999999999994,-178.25362378299462
-0.26870000000000005,-176.4144990931701
-0.26769999999999994,-174.57537440334553
