Potential V vs RHE, Current mA cm-2
0.013299999999999867,27.997136624329073
0.012299999999999978,26.780484906445146
0.011299999999999866,25.662862979551768
0.010299999999999976,24.630123730650286
0.009299999999999864,23.66812004674206
0.008299999999999974,22.748557701829792
0.007299999999999862,21.828995356917517
0.006299999999999972,20.966021463999844
0.00529999999999986,20.13134179707947
0.0042999999999999705,19.3249563561564
0.0032999999999998586,18.546865141230633
0.0022999999999999687,17.76877392630486
0.0012999999999998568,17.00482982437774
0.00029999999999996696,16.28332706144657
-0.000700000000000145,15.590118524512702
-0.0017000000000000348,14.896909987578834
-0.0027000000000001467,14.217848563643619
-0.0037000000000000366,13.548690118807457
-0.0047000000000001485,12.903581766069
-0.005700000000000038,12.293841195827168
-0.00670000000000015,11.689759470784798
-0.00770000000000004,11.065871787544317
-0.008700000000000152,10.461790062501947
-0.009700000000000042,9.877514295657685
-0.010700000000000154,9.308800353111941
-0.011700000000000044,8.741501121866062
-0.012700000000000156,8.195422560118157
-0.013700000000000045,7.6592469774693095
-0.014700000000000157,7.132974373919516
-0.015700000000000047,6.6236783059681015
-0.01670000000000016,6.107308681517363
-0.01770000000000005,5.59518319096622
-0.01870000000000016,5.124084328111163
-0.01970000000000005,4.644497197456915
-0.020700000000000163,4.171983623301993
-0.021700000000000053,3.7065436056463965
-0.022700000000000164,3.2396888766909337
-0.023700000000000054,2.7827371268345273
-0.024700000000000166,2.3441766238763657
-0.025700000000000056,1.9098602548177994
-0.026700000000000168,1.4826174422585585
-0.027700000000000058,1.0467448907701407
-0.02870000000000017,0.6250194522803731
-0.02970000000000006,0.21970466486904017
-0.03070000000000017,-0.18292217107254924
-0.03170000000000006,-0.5909249099536259
-0.03270000000000017,-0.9996350044846349
-0.03370000000000006,-1.3922173901971826
-0.034700000000000175,-1.768389124831296
-0.035700000000000065,-2.1432876192955304
-0.03670000000000018,-2.5238449589592253
-0.03770000000000007,-2.9029875873230555
-0.03870000000000018,-3.27222723658783
-0.03970000000000007,-3.6202462163546287
-0.04070000000000018,-3.9767534639206183
-0.04170000000000007,-4.344578401885528
-0.04270000000000018,-4.672791423454216
-0.04370000000000007,-5.039201650119261
-0.044700000000000184,-5.3815617846866
-0.045700000000000074,-5.7111895175551535
-0.046700000000000186,-6.047890806923031
-0.047700000000000076,-6.39025094149037
-0.04870000000000019,-6.735440498657439
-0.04970000000000008,-7.063653520226129
-0.05070000000000019,-7.376304717496302
-0.05170000000000008,-7.697444182565665
-0.05270000000000019,-8.028486626734082
-0.05370000000000008,-8.360943782202368
-0.05470000000000019,-8.677839113372134
-0.05570000000000008,-8.982002042843117
-0.056700000000000195,-9.294653240113291
-0.057700000000000085,-9.621451550382114
-0.058700000000000196,-9.939761592851747
-0.059700000000000086,-10.250998078822057
-0.0607000000000002,-10.539599183994524
-0.06170000000000009,-10.855079803864427
-0.0627000000000002,-11.186122248032843
-0.06370000000000009,-11.497358734003152
-0.0647000000000002,-11.810009931273326
-0.06570000000000009,-12.107099304244983
-0.0667000000000002,-12.416921078915427
-0.0677000000000001,-12.714010451887084
-0.0687000000000002,-13.029491071756988
-0.0697000000000001,-13.31950688822932
-0.07070000000000021,-13.610937416001518
-0.0717000000000001,-13.909441500273042
-0.07270000000000021,-14.217848563643619
-0.0737000000000001,-14.514937936615278
-0.07470000000000021,-14.826174422585586
-0.0757000000000001,-15.123263795557243
-0.07670000000000021,-15.4203531685289
-0.0777000000000001,-15.717442541500558
-0.07870000000000021,-16.02867902747086
-0.0797000000000001,-16.311621287443874
-0.08070000000000022,-16.59456354741688
-0.0817000000000001,-16.891652920388537
-0.08270000000000022,-17.160448067362896
-0.08370000000000011,-17.45753744033455
-0.08470000000000022,-17.74047970030756
-0.08570000000000011,-18.02342196028057
-0.08670000000000022,-18.306364220253574
-0.08770000000000011,-18.631747819222536
-0.08870000000000022,-18.95713141819149
-0.08970000000000011,-19.25422079116315
-0.09070000000000022,-19.508868825138855
-0.09170000000000011,-19.820105311109163
-0.09270000000000023,-20.117194684080822
-0.09370000000000012,-20.414284057052477
-0.09470000000000023,-20.69722631702549
-0.09570000000000012,-20.994315689997144
-0.09670000000000023,-21.30555217596745
-0.09770000000000012,-21.602641548939108
-0.09870000000000023,-21.899730921910766
-0.09970000000000012,-22.225114520879725
-0.10070000000000023,-22.522203893851387
-0.10170000000000012,-22.80514615382439
-0.10270000000000024,-23.1163826397947
-0.10370000000000013,-23.399324899767706
-0.10470000000000024,-23.682267159740714
-0.10570000000000013,-23.97935653271237
-0.10670000000000024,-24.27644590568403
-0.10770000000000013,-24.57353527865569
-0.10870000000000024,-24.870624651627345
-0.10970000000000013,-25.167714024599
-0.11070000000000024,-25.46480339757066
-0.11170000000000013,-25.747745657543668
-0.11270000000000002,-26.058982143513976
-0.11370000000000013,-26.370218629484285
-0.11470000000000002,-26.69560222845324
-0.11570000000000014,-26.992691601424898
-0.11670000000000003,-27.275633861397907
-0.11770000000000014,-27.558576121370916
-0.11870000000000003,-27.883959720339874
-0.11970000000000014,-28.22349043230748
-0.12070000000000003,-28.506432692280487
-0.12170000000000014,-28.789374952253496
-0.12270000000000003,-29.100611438223805
-0.12370000000000014,-29.411847924194117
-0.12470000000000003,-29.72308441016442
-0.12570000000000014,-30.00602667013743
-0.12670000000000003,-30.303116043109085
-0.12770000000000015,-30.642646755076694
-0.12870000000000004,-30.939736128048356
-0.12970000000000015,-31.250972614018657
-0.13070000000000004,-31.54806198699032
-0.13170000000000015,-31.85929847296063
-0.13270000000000004,-32.184682071929586
-0.13370000000000015,-32.48177144490124
-0.13470000000000004,-32.79300793087155
-0.13570000000000015,-33.07595019084456
-0.13670000000000004,-33.38718667681487
-0.13770000000000016,-33.726717388782475
-0.13870000000000005,-34.02380676175414
-0.13970000000000016,-34.34919036072309
-0.14070000000000005,-34.6887210726907
-0.14170000000000016,-34.99995755866101
-0.14270000000000005,-35.32534115762997
-0.14370000000000016,-35.608283417602976
-0.14470000000000005,-35.97610835556789
-0.14570000000000016,-36.25905061554089
-0.14670000000000005,-36.570287101511205
-0.14770000000000016,-36.89567070048016
-0.14870000000000005,-37.221054299449115
-0.14970000000000017,-37.54643789841808
-0.15070000000000006,-37.90011572338433
-0.15170000000000017,-38.211352209354644
-0.15270000000000006,-38.5650300343209
-0.15370000000000017,-38.94700208528445
-0.15470000000000006,-39.272385684253415
-0.15570000000000017,-39.55532794422642
-0.15670000000000006,-39.88071154319538
-0.15770000000000017,-40.20609514216434
-0.15870000000000006,-40.5880671931279
-0.15970000000000018,-40.92759790509552
-0.16070000000000007,-41.210540165068515
-0.16170000000000018,-41.55007087703613
-0.16270000000000007,-41.90374870200238
-0.16370000000000018,-42.2715736399673
-0.16470000000000007,-42.59695723893625
-0.16570000000000018,-42.92234083790521
-0.16670000000000007,-43.26187154987282
-0.16770000000000018,-43.60140226184043
-0.16870000000000007,-43.95508008680669
-0.16970000000000018,-44.2946107987743
-0.17070000000000007,-44.619994397743255
-0.17170000000000019,-44.91708377071491
-0.17270000000000008,-45.32735004767578
-0.1737000000000002,-45.666880759643384
-0.17470000000000008,-46.02055858460964
-0.1757000000000002,-46.41667774857186
-0.17670000000000008,-46.75620846053947
-0.1777000000000002,-47.23721030249357
-0.17870000000000008,-47.619182353457134
-0.1797000000000002,-47.902124613430146
-0.18070000000000008,-48.156772647405845
-0.1817000000000002,-48.46800913337616
-0.18270000000000008,-48.75095139334916
-0.1837000000000002,-49.104629218315424
-0.1847000000000001,-49.514895495276285
-0.1857000000000002,-49.9110146592385
-0.1867000000000001,-50.26469248420475
-0.1877000000000002,-50.59007608317371
-0.1887000000000001,-50.943753908139975
-0.1897000000000002,-51.29743173310623
-0.1907000000000001,-51.679403784069784
-0.1917000000000001,-52.0189344960374
-0.19269999999999998,-52.41505365999961
-0.1937000000000001,-52.79702571096317
-0.19469999999999998,-53.16485064892808
-0.1957000000000001,-53.518528473894335
-0.19669999999999999,-53.91464763785655
-0.1977000000000001,-54.38150236681201
-0.1987,-54.791768643772876
-0.1997000000000001,-55.13129935574048
-0.2007,-55.442535841710786
-0.2017000000000001,-55.85280211867165
-0.2027,-56.26306839563251
-0.2037000000000001,-56.63089333359741
-0.2047,-57.04115961055828
-0.2057000000000001,-57.380690322525886
-0.2067,-57.7485152604908
-0.2077000000000001,-57.98901618146786
-0.2087,-58.35684111943277
-0.2097000000000001,-58.79540162239092
-0.2107,-59.23396212534908
-0.2117000000000001,-59.68666974130589
-0.2127,-60.01205334027486
-0.2137000000000001,-60.32328982624517
-0.2147,-60.761850329203334
-0.2157000000000001,-61.25699928415608
-0.2167,-61.72385401311155
-0.21770000000000012,-62.19070874206701
-0.2187,-62.55853368003192
-0.21970000000000012,-62.94050573099548
-0.2207,-63.30833066896038
-0.22170000000000012,-63.6761556069253
-0.2227,-64.17130456187807
-0.22370000000000012,-64.53912949984297
-0.2247,-64.9352486638052
-0.22570000000000012,-65.2747793757728
-0.2267,-65.76992833072556
-0.22770000000000012,-66.20848883368372
-0.22870000000000001,-66.64704933664189
-0.22970000000000013,-66.98658004860948
-0.23070000000000002,-67.43928766456631
-0.23170000000000013,-67.93443661951906
-0.23270000000000002,-68.30226155748396
-0.23370000000000013,-68.67008649544888
-0.23470000000000002,-69.08035277240974
-0.23570000000000013,-69.44817771037465
-0.23670000000000002,-69.8301497613382
-0.2376999999999999,-70.25456315129772
-0.23870000000000002,-70.59409386326533
-0.2396999999999999,-71.07509570521944
-0.24070000000000003,-71.45706775618301
-0.24169999999999991,-71.83903980714656
-0.24270000000000003,-72.17857051911416
-0.24369999999999992,-72.51810123108179
-0.24470000000000003,-72.90007328204534
-0.24569999999999992,-73.2820453330089
-0.24670000000000003,-73.76304717496302
-0.24769999999999992,-74.18746056492253
-0.24870000000000003,-74.55528550288744
-0.24969999999999992,-75.02214023184291
-0.25070000000000003,-75.31922960481455
-0.2516999999999999,-75.60217186478755
-0.25270000000000004,-75.92755546375653
-0.2536999999999999,-76.35196885371603
-0.25470000000000004,-76.64905822668769
-0.2556999999999999,-77.05932450364854
-0.25670000000000004,-77.4412965546121
-0.25769999999999993,-77.79497437957838
-0.25870000000000004,-78.20524065653922
-0.25969999999999993,-78.55891848150549
-0.26070000000000004,-78.94089053246904
-0.26169999999999993,-79.3228625834326
-0.26270000000000004,-79.7755701993894
-0.26369999999999993,-80.17168936335163
-0.26470000000000005,-80.53951430131653
-0.26569999999999994,-80.92148635228011
-0.26670000000000005,-81.3176055162423
-0.26769999999999994,-81.74201890620182
-0.26870000000000005,-82.13813807016405
-0.26969999999999994,-82.44937455613434
-0.27070000000000005,-82.70402259011003
-0.27169999999999994,-82.97281773708441
-0.27270000000000005,-83.34064267504931
-0.27369999999999994,-83.80749740400476
-0.27470000000000006,-84.17532234196969
-0.27569999999999995,-84.27435213296022
-0.27670000000000006,-84.59973573192919
-0.27769999999999995,-84.99585489589141
-0.27870000000000006,-85.36367983385631
-0.27969999999999995,-85.46270962484687
-0.28070000000000006,-85.78809322381582
-0.28169999999999995,-86.05688837079018
-0.28270000000000006,-86.36812485676049
-0.28369999999999995,-86.7642440207227
-0.28470000000000006,-87.06133339369435
-0.28569999999999995,-87.20280452368085
-0.28670000000000007,-87.49989389665252
-0.28769999999999996,-87.75454193062824
-0.28870000000000007,-88.05163130359989
-0.28969999999999996,-88.39116201556749
-0.29070000000000007,-88.53263314555399
-0.29169999999999996,-88.60336871054724
-0.29270000000000007,-88.82972251852566
-0.29369999999999996,-89.02778210050676
-0.2947000000000001,-89.31072436047977
-0.29569999999999996,-89.45219549046627
-0.2967000000000001,-89.57951950745412
-0.29769999999999996,-89.59366662045278
-0.2987000000000001,-89.77757908943524
-0.29969999999999997,-90.03222712341093
-0.3007000000000001,-90.14540402740013
-0.30169999999999997,-90.17369825339743
-0.3027000000000001,-90.20199247939475
-0.30369999999999997,-90.34346360938125
-0.3047000000000001,-90.5273760783637
-0.30569999999999997,-90.7254356603448
-0.3067000000000001,-90.68299432134886
-0.3077,-90.7820241123394
-0.3087000000000001,-90.838612564334
-0.3097,-90.838612564334
-0.3107000000000001,-90.98008369432051
-0.3117,-90.99423080731917
-0.3127000000000001,-91.31961440628812
-0.3137,-91.57426244026381
-0.3147000000000001,-91.46108553627462
-0.3157,-91.50352687527057
-0.3167000000000001,-91.51767398826922
-0.3177,-91.50352687527057
-0.3187000000000001,-91.51767398826922
-0.3197,-91.57426244026381
-0.3207000000000001,-91.54596821426652
-0.3217,-91.33376151928677
-0.3227000000000001,-91.20643750229891
-0.3237,-91.16399616330297
-0.3247000000000001,-91.27717306729218
-0.3257,-91.40449708428001
-0.3267000000000001,-91.44693842327598
-0.3277,-91.51767398826922
-0.3287000000000001,-91.56011532726518
-0.3297,-91.56011532726518
-0.3307000000000001,-91.60255666626112
-0.3317,-91.54596821426652
-0.3327000000000001,-91.58840955326248
-0.3337,-91.57426244026381
-0.3347000000000001,-91.64499800525708
-0.3357,-91.60255666626112
-0.3367000000000001,-91.63085089225844
-0.3377,-91.67329223125436
-0.3387000000000001,-91.70158645725168
-0.3397,-91.61670377925978
-0.3407000000000001,-91.56011532726518
-0.3417,-91.48937976227192
-0.3427000000000001,-91.58840955326248
-0.3437,-91.64499800525708
-0.3447000000000001,-91.72988068324898
-0.3457,-91.72988068324898
-0.3467000000000001,-91.74402779624764
-0.3477,-91.74402779624764
-0.3487000000000001,-91.67329223125436
-0.3497,-91.61670377925978
-0.3507000000000001,-91.67329223125436
-0.3517,-91.77232202224494
-0.3527000000000001,-91.94208737822873
-0.3537,-91.92794026523009
-0.3547000000000001,-91.99867583022333
-0.3557,-92.01282294322199
-0.35670000000000013,-92.18258829920579
-0.3577,-92.40894210718419
-0.35870000000000013,-92.29576520319499
-0.3597,-92.29576520319499
-0.36070000000000013,-92.42308922018285
-0.3617,-92.56456035016936
-0.3626999999999999,-92.6070016891653
-0.3637,-92.73432570615316
-0.3646999999999999,-92.83335549714371
-0.3657,-92.9748266271302
-0.3666999999999999,-93.03141507912481
-0.3677,-93.11629775711671
-0.3686999999999999,-93.46997558208298
-0.36970000000000003,-93.83780052004788
-0.3706999999999999,-93.97927165003438
-0.37170000000000003,-94.13488989301955
-0.3726999999999999,-94.4885677179858
-0.37370000000000003,-94.55930328297906
-0.3746999999999999,-94.64418596097094
-0.37570000000000003,-95.02615801193451
-0.3766999999999999,-95.71936654886838
-0.37770000000000004,-95.94572035684679
-0.3786999999999999,-96.11548571283059
-0.37970000000000004,-96.3701337468063
-0.3806999999999999,-96.7662529107685
-0.38170000000000004,-96.99260671874691
-0.38269999999999993,-97.09163650973747
-0.38370000000000004,-97.27554897871993
-0.38469999999999993,-97.69996236867944
-0.38570000000000004,-97.91216906365919
-0.38669999999999993,-96.92187115375367
-0.38570000000000004,-94.3753908139966
-0.38469999999999993,-91.91379315223143
-0.38370000000000004,-89.70684352444198
-0.38269999999999993,-87.64136502663902
-0.38170000000000004,-85.75979899781852
-0.3806999999999999,-83.96311564698992
-0.37970000000000004,-82.35034476514379
-0.3786999999999999,-80.6385440923071
-0.37770000000000004,-79.1530972274488
-0.3766999999999999,-77.49788500660672
-0.37570000000000003,-75.8992612377592
-0.3746999999999999,-74.41381437290093
-0.37370000000000003,-72.97080884703858
-0.3726999999999999,-71.49950909517896
-0.37170000000000003,-70.22626892530042
-0.3706999999999999,-68.91058741642594
-0.36970000000000003,-67.6090530205501
-0.3686999999999999,-66.29337151167562
-0.3677,-65.04842556779438
-0.3666999999999999,-63.74689117191855
-0.3657,-62.60097501902788
-0.3646999999999999,-61.35602907514664
-0.3637,-60.054494679270796
-0.3626999999999999,-58.82369584838823
-0.3617,-57.57874990450699
-0.36070000000000013,-56.489422203610914
-0.3597,-55.371800276717536
-0.35870000000000013,-54.28247257582146
-0.3577,-53.22143910092268
-0.35670000000000013,-52.16040562602391
-0.3557,-51.14181349012107
-0.3547000000000001,-49.98175022423175
-0.3537,-48.86412829733837
-0.3527000000000001,-47.94456595242609
-0.3517,-46.92597381652327
-0.3507000000000001,-45.82249900262854
-0.3497,-44.78975975372706
-0.3487000000000001,-43.88434452181344
-0.3477,-42.97892928989981
-0.3467000000000001,-42.115955396982145
-0.3457,-41.22468727806717
-0.3447000000000001,-40.31927204615355
-0.3437,-39.44215104023723
-0.3427000000000001,-38.5367358083236
-0.3417,-37.631320576409976
-0.3407000000000001,-36.78249379649095
-0.3397,-35.94781412957058
-0.3387000000000001,-35.12728157564886
-0.3377,-34.33504324772444
-0.3367000000000001,-33.50036358080407
-0.3357,-32.693978139881004
-0.3347000000000001,-31.94418115095253
-0.3337,-31.180237049025404
-0.3327000000000001,-30.416292947098288
-0.3317,-29.66649595816982
-0.3307000000000001,-28.91669896924135
-0.3297,-28.209343319308836
-0.3287000000000001,-27.544429008372262
-0.3277,-26.794632019443796
-0.3267000000000001,-26.058982143513976
-0.3257,-25.39406783257741
-0.3247000000000001,-24.757447747638142
-0.3237,-24.078386323702922
-0.3227000000000001,-23.44176623876366
-0.3217,-22.776851927827092
-0.3207000000000001,-22.111937616890522
-0.3197,-21.461170418952605
-0.3187000000000001,-20.838697447011988
-0.3177,-20.244518701068674
-0.3167000000000001,-19.65033995512536
-0.3157,-19.042014096183394
-0.3147000000000001,-18.44783535024008
-0.3137,-17.896097943292716
-0.3127000000000001,-17.3302134233467
-0.3117,-16.792623129397985
-0.3107000000000001,-16.21259149645332
-0.3097,-15.675001202504609
-0.3087000000000001,-15.151558021554543
-0.3077,-14.599820614607177
-0.3067000000000001,-14.093353969255496
-0.30569999999999997,-13.576984344804757
-0.3047000000000001,-13.073347122052803
-0.30369999999999997,-12.600833547897881
-0.3027000000000001,-12.104269881645255
-0.30169999999999997,-11.60629150409276
-0.3007000000000001,-11.118216105639322
-0.29969999999999997,-10.648531954084133
-0.2987000000000001,-10.202897894626645
-0.29769999999999996,-9.740287299570777
-0.2967000000000001,-9.276261993215044
-0.29569999999999996,-8.834872067657153
-0.2947000000000001,-8.404799832498183
-0.29369999999999996,-7.987459999037997
-0.29270000000000007,-7.550314207379701
-0.29169999999999996,-7.110338993121674
-0.29070000000000007,-6.691584448361623
-0.28969999999999996,-6.277074037501167
-0.28870000000000007,-5.883784296138688
-0.28769999999999996,-5.489079843476342
-0.28670000000000007,-5.085887123014808
-0.28569999999999995,-4.682694402553271
-0.28470000000000006,-4.2936487950903865
-0.28369999999999995,-3.9201650119260174
-0.28270000000000006,-3.541022383562187
-0.28169999999999995,-3.156220909998897
-0.28070000000000006,-2.7742488590353367
-0.27969999999999995,-2.4163269001694827
-0.27870000000000006,-2.0555755187038987
-0.27769999999999995,-1.701897693737639
-0.27670000000000006,-1.3360533515925408
-0.27569999999999995,-0.9734628454371318
-0.27470000000000006,-0.637327440589199
-0.27369999999999994,-0.288459634042481
-0.27270000000000005,0.057394837435524544
-0.27169999999999994,0.39965594221187284
-0.27070000000000005,0.7514946424883074
-0.26969999999999994,1.0816882598768072
-0.26870000000000005,1.4024033115562107
-0.26769999999999994,1.734436053634535
-0.26670000000000005,2.079625610801604
-0.26569999999999994,2.412082766269888
-0.26470000000000005,2.730392808739521
-0.26369999999999993,3.0359704495103688
