July 15, 2024   12:06:55
Cyclic Voltammetry
File: c:/users/guazh/data/20240709_batch67/2024-07-10-exp51\exp51-2024-07-15t11_59_40-h2koh\exp51_cv_sr_400mvs_efin_-1400mv.bin
Data Source:  Experiment
Instrument Model:  CHI760E
Header: CV ran at 400 mVs
Note: 

Init E (V) = -1
High E (V) = -1
Low E (V) = -1.4
Final E (V) = -1
Init P/N = N
Scan Rate (V/s) = 0.4
Segment = 3
Sample Interval (V) = 0.001
Quiet Time (sec) = 2
Sensitivity (A/V) = 0.01
Comp R (ohm) = 1.6

Results:

Channel 1:
Segment 1:

Segment 2:

Segment 3:

Potential/V, Current/A

-1.000, -5.610e-4
-1.001, -3.544e-4
-1.002, -1.910e-4
-1.003, -6.459e-5
-1.004, 2.790e-5
-1.005, 9.882e-5
-1.006, 1.790e-4
-1.007, 2.715e-4
-1.008, 3.609e-4
-1.009, 4.380e-4
-1.010, 4.873e-4
-1.011, 5.181e-4
-1.012, 5.551e-4
-1.013, 6.014e-4
-1.014, 6.599e-4
-1.015, 7.247e-4
-1.016, 7.709e-4
-1.017, 7.925e-4
-1.018, 8.018e-4
-1.019, 8.233e-4
-1.020, 8.665e-4
-1.021, 9.158e-4
-1.022, 9.590e-4
-1.023, 9.868e-4
-1.024, 9.960e-4
-1.025, 9.991e-4
-1.026, 1.018e-3
-1.027, 1.055e-3
-1.028, 1.098e-3
-1.029, 1.132e-3
-1.030, 1.144e-3
-1.031, 1.141e-3
-1.032, 1.144e-3
-1.033, 1.166e-3
-1.034, 1.196e-3
-1.035, 1.236e-3
-1.036, 1.258e-3
-1.037, 1.258e-3
-1.038, 1.255e-3
-1.039, 1.261e-3
-1.040, 1.286e-3
-1.041, 1.326e-3
-1.042, 1.357e-3
-1.043, 1.372e-3
-1.044, 1.372e-3
-1.045, 1.366e-3
-1.046, 1.375e-3
-1.047, 1.406e-3
-1.048, 1.446e-3
-1.049, 1.474e-3
-1.050, 1.480e-3
-1.051, 1.471e-3
-1.052, 1.474e-3
-1.053, 1.489e-3
-1.054, 1.520e-3
-1.055, 1.557e-3
-1.056, 1.576e-3
-1.057, 1.576e-3
-1.058, 1.566e-3
-1.059, 1.566e-3
-1.060, 1.591e-3
-1.061, 1.625e-3
-1.062, 1.653e-3
-1.063, 1.662e-3
-1.064, 1.662e-3
-1.065, 1.650e-3
-1.066, 1.656e-3
-1.067, 1.687e-3
-1.068, 1.724e-3
-1.069, 1.748e-3
-1.070, 1.754e-3
-1.071, 1.748e-3
-1.072, 1.745e-3
-1.073, 1.761e-3
-1.074, 1.791e-3
-1.075, 1.832e-3
-1.076, 1.853e-3
-1.077, 1.850e-3
-1.078, 1.844e-3
-1.079, 1.847e-3
-1.080, 1.869e-3
-1.081, 1.906e-3
-1.082, 1.933e-3
-1.083, 1.946e-3
-1.084, 1.946e-3
-1.085, 1.933e-3
-1.086, 1.943e-3
-1.087, 1.973e-3
-1.088, 2.007e-3
-1.089, 2.032e-3
-1.090, 2.035e-3
-1.091, 2.026e-3
-1.092, 2.026e-3
-1.093, 2.041e-3
-1.094, 2.072e-3
-1.095, 2.109e-3
-1.096, 2.128e-3
-1.097, 2.128e-3
-1.098, 2.121e-3
-1.099, 2.124e-3
-1.100, 2.149e-3
-1.101, 2.186e-3
-1.102, 2.220e-3
-1.103, 2.235e-3
-1.104, 2.235e-3
-1.105, 2.229e-3
-1.106, 2.242e-3
-1.107, 2.272e-3
-1.108, 2.312e-3
-1.109, 2.340e-3
-1.110, 2.346e-3
-1.111, 2.340e-3
-1.112, 2.343e-3
-1.113, 2.359e-3
-1.114, 2.390e-3
-1.115, 2.430e-3
-1.116, 2.451e-3
-1.117, 2.448e-3
-1.118, 2.439e-3
-1.119, 2.442e-3
-1.120, 2.467e-3
-1.121, 2.504e-3
-1.122, 2.534e-3
-1.123, 2.550e-3
-1.124, 2.553e-3
-1.125, 2.544e-3
-1.126, 2.559e-3
-1.127, 2.593e-3
-1.128, 2.633e-3
-1.129, 2.667e-3
-1.130, 2.676e-3
-1.131, 2.673e-3
-1.132, 2.679e-3
-1.133, 2.701e-3
-1.134, 2.738e-3
-1.135, 2.781e-3
-1.136, 2.803e-3
-1.137, 2.809e-3
-1.138, 2.806e-3
-1.139, 2.812e-3
-1.140, 2.843e-3
-1.141, 2.880e-3
-1.142, 2.914e-3
-1.143, 2.926e-3
-1.144, 2.929e-3
-1.145, 2.920e-3
-1.146, 2.932e-3
-1.147, 2.969e-3
-1.148, 3.009e-3
-1.149, 3.040e-3
-1.150, 3.052e-3
-1.151, 3.052e-3
-1.152, 3.059e-3
-1.153, 3.080e-3
-1.154, 3.120e-3
-1.155, 3.167e-3
-1.156, 3.197e-3
-1.157, 3.204e-3
-1.158, 3.207e-3
-1.159, 3.219e-3
-1.160, 3.253e-3
-1.161, 3.299e-3
-1.162, 3.342e-3
-1.163, 3.364e-3
-1.164, 3.373e-3
-1.165, 3.376e-3
-1.166, 3.395e-3
-1.167, 3.435e-3
-1.168, 3.478e-3
-1.169, 3.518e-3
-1.170, 3.530e-3
-1.171, 3.530e-3
-1.172, 3.540e-3
-1.173, 3.561e-3
-1.174, 3.601e-3
-1.175, 3.647e-3
-1.176, 3.678e-3
-1.177, 3.691e-3
-1.178, 3.694e-3
-1.179, 3.709e-3
-1.180, 3.743e-3
-1.181, 3.792e-3
-1.182, 3.839e-3
-1.183, 3.866e-3
-1.184, 3.879e-3
-1.185, 3.885e-3
-1.186, 3.913e-3
-1.187, 3.959e-3
-1.188, 4.014e-3
-1.189, 4.061e-3
-1.190, 4.082e-3
-1.191, 4.091e-3
-1.192, 4.104e-3
-1.193, 4.135e-3
-1.194, 4.181e-3
-1.195, 4.239e-3
-1.196, 4.280e-3
-1.197, 4.295e-3
-1.198, 4.304e-3
-1.199, 4.323e-3
-1.200, 4.363e-3
-1.201, 4.418e-3
-1.202, 4.468e-3
-1.203, 4.495e-3
-1.204, 4.508e-3
-1.205, 4.511e-3
-1.206, 4.542e-3
-1.207, 4.597e-3
-1.208, 4.656e-3
-1.209, 4.705e-3
-1.210, 4.733e-3
-1.211, 4.748e-3
-1.212, 4.776e-3
-1.213, 4.816e-3
-1.214, 4.878e-3
-1.215, 4.949e-3
-1.216, 4.998e-3
-1.217, 5.032e-3
-1.218, 5.053e-3
-1.219, 5.081e-3
-1.220, 5.137e-3
-1.221, 5.204e-3
-1.222, 5.266e-3
-1.223, 5.312e-3
-1.224, 5.340e-3
-1.225, 5.356e-3
-1.226, 5.393e-3
-1.227, 5.448e-3
-1.228, 5.516e-3
-1.229, 5.578e-3
-1.230, 5.611e-3
-1.231, 5.633e-3
-1.232, 5.661e-3
-1.233, 5.704e-3
-1.234, 5.762e-3
-1.235, 5.833e-3
-1.236, 5.889e-3
-1.237, 5.920e-3
-1.238, 5.951e-3
-1.239, 5.991e-3
-1.240, 6.055e-3
-1.241, 6.132e-3
-1.242, 6.203e-3
-1.243, 6.262e-3
-1.244, 6.305e-3
-1.245, 6.336e-3
-1.246, 6.388e-3
-1.247, 6.469e-3
-1.248, 6.552e-3
-1.249, 6.632e-3
-1.250, 6.681e-3
-1.251, 6.715e-3
-1.252, 6.758e-3
-1.253, 6.820e-3
-1.254, 6.894e-3
-1.255, 6.977e-3
-1.256, 7.042e-3
-1.257, 7.082e-3
-1.258, 7.116e-3
-1.259, 7.153e-3
-1.260, 7.218e-3
-1.261, 7.298e-3
-1.262, 7.369e-3
-1.263, 7.430e-3
-1.264, 7.477e-3
-1.265, 7.517e-3
-1.266, 7.572e-3
-1.267, 7.659e-3
-1.268, 7.754e-3
-1.269, 7.844e-3
-1.270, 7.914e-3
-1.271, 7.967e-3
-1.272, 8.022e-3
-1.273, 8.096e-3
-1.274, 8.183e-3
-1.275, 8.281e-3
-1.276, 8.358e-3
-1.277, 8.414e-3
-1.278, 8.466e-3
-1.279, 8.531e-3
-1.280, 8.621e-3
-1.281, 8.719e-3
-1.282, 8.812e-3
-1.283, 8.892e-3
-1.284, 8.960e-3
-1.285, 9.012e-3
-1.286, 9.086e-3
-1.287, 9.179e-3
-1.288, 9.283e-3
-1.289, 9.376e-3
-1.290, 9.444e-3
-1.291, 9.496e-3
-1.292, 9.558e-3
-1.293, 9.635e-3
-1.294, 9.737e-3
-1.295, 9.848e-3
-1.296, 9.937e-3
-1.297, 1.001e-2
-1.298, 1.007e-2
-1.299, 1.015e-2
-1.300, 1.025e-2
-1.301, 1.036e-2
-1.302, 1.047e-2
-1.303, 1.056e-2
-1.304, 1.063e-2
-1.305, 1.069e-2
-1.306, 1.077e-2
-1.307, 1.087e-2
-1.308, 1.097e-2
-1.309, 1.107e-2
-1.310, 1.115e-2
-1.311, 1.120e-2
-1.312, 1.126e-2
-1.313, 1.133e-2
-1.314, 1.142e-2
-1.315, 1.152e-2
-1.316, 1.162e-2
-1.317, 1.169e-2
-1.318, 1.177e-2
-1.319, 1.185e-2
-1.320, 1.195e-2
-1.321, 1.207e-2
-1.322, 1.219e-2
-1.323, 1.228e-2
-1.324, 1.237e-2
-1.325, 1.244e-2
-1.326, 1.253e-2
-1.327, 1.265e-2
-1.328, 1.277e-2
-1.329, 1.288e-2
-1.330, 1.297e-2
-1.331, 1.304e-2
-1.332, 1.312e-2
-1.333, 1.322e-2
-1.334, 1.334e-2
-1.335, 1.346e-2
-1.336, 1.356e-2
-1.337, 1.364e-2
-1.338, 1.370e-2
-1.339, 1.377e-2
-1.340, 1.385e-2
-1.341, 1.395e-2
-1.342, 1.404e-2
-1.343, 1.411e-2
-1.344, 1.417e-2
-1.345, 1.421e-2
-1.346, 1.428e-2
-1.347, 1.436e-2
-1.348, 1.447e-2
-1.349, 1.456e-2
-1.350, 1.463e-2
-1.351, 1.469e-2
-1.352, 1.476e-2
-1.353, 1.484e-2
-1.354, 1.494e-2
-1.355, 1.505e-2
-1.356, 1.515e-2
-1.357, 1.521e-2
-1.358, 1.527e-2
-1.359, 1.534e-2
-1.360, 1.542e-2
-1.361, 1.553e-2
-1.362, 1.563e-2
-1.363, 1.570e-2
-1.364, 1.575e-2
-1.365, 1.578e-2
-1.366, 1.582e-2
-1.367, 1.589e-2
-1.368, 1.596e-2
-1.369, 1.601e-2
-1.370, 1.602e-2
-1.371, 1.602e-2
-1.372, 1.601e-2
-1.373, 1.602e-2
-1.374, 1.605e-2
-1.375, 1.609e-2
-1.376, 1.611e-2
-1.377, 1.611e-2
-1.378, 1.610e-2
-1.379, 1.611e-2
-1.380, 1.614e-2
-1.381, 1.618e-2
-1.382, 1.621e-2
-1.383, 1.622e-2
-1.384, 1.620e-2
-1.385, 1.617e-2
-1.386, 1.616e-2
-1.387, 1.618e-2
-1.388, 1.620e-2
-1.389, 1.621e-2
-1.390, 1.620e-2
-1.391, 1.616e-2
-1.392, 1.612e-2
-1.393, 1.609e-2
-1.394, 1.608e-2
-1.395, 1.608e-2
-1.396, 1.604e-2
-1.397, 1.598e-2
-1.398, 1.592e-2
-1.399, 1.585e-2
-1.400, 1.563e-2
-1.399, 1.515e-2
-1.398, 1.475e-2
-1.397, 1.436e-2
-1.396, 1.399e-2
-1.395, 1.364e-2
-1.394, 1.332e-2
-1.393, 1.304e-2
-1.392, 1.279e-2
-1.391, 1.252e-2
-1.390, 1.225e-2
-1.389, 1.197e-2
-1.388, 1.170e-2
-1.387, 1.146e-2
-1.386, 1.124e-2
-1.385, 1.104e-2
-1.384, 1.082e-2
-1.383, 1.059e-2
-1.382, 1.035e-2
-1.381, 1.012e-2
-1.380, 9.922e-3
-1.379, 9.740e-3
-1.378, 9.558e-3
-1.377, 9.351e-3
-1.376, 9.135e-3
-1.375, 8.910e-3
-1.374, 8.713e-3
-1.373, 8.547e-3
-1.372, 8.386e-3
-1.371, 8.223e-3
-1.370, 8.038e-3
-1.369, 7.837e-3
-1.368, 7.656e-3
-1.367, 7.498e-3
-1.366, 7.356e-3
-1.365, 7.230e-3
-1.364, 7.091e-3
-1.363, 6.931e-3
-1.362, 6.761e-3
-1.361, 6.607e-3
-1.360, 6.481e-3
-1.359, 6.370e-3
-1.358, 6.253e-3
-1.357, 6.114e-3
-1.356, 5.969e-3
-1.355, 5.815e-3
-1.354, 5.682e-3
-1.353, 5.578e-3
-1.352, 5.479e-3
-1.351, 5.374e-3
-1.350, 5.241e-3
-1.349, 5.103e-3
-1.348, 4.964e-3
-1.347, 4.853e-3
-1.346, 4.751e-3
-1.345, 4.665e-3
-1.344, 4.560e-3
-1.343, 4.431e-3
-1.342, 4.301e-3
-1.341, 4.184e-3
-1.340, 4.088e-3
-1.339, 4.017e-3
-1.338, 3.937e-3
-1.337, 3.839e-3
-1.336, 3.731e-3
-1.335, 3.604e-3
-1.334, 3.509e-3
-1.333, 3.438e-3
-1.332, 3.373e-3
-1.331, 3.305e-3
-1.330, 3.210e-3
-1.329, 3.099e-3
-1.328, 2.997e-3
-1.327, 2.917e-3
-1.326, 2.855e-3
-1.325, 2.803e-3
-1.324, 2.729e-3
-1.323, 2.633e-3
-1.322, 2.531e-3
-1.321, 2.439e-3
-1.320, 2.374e-3
-1.319, 2.319e-3
-1.318, 2.263e-3
-1.317, 2.189e-3
-1.316, 2.097e-3
-1.315, 2.001e-3
-1.314, 1.927e-3
-1.313, 1.878e-3
-1.312, 1.844e-3
-1.311, 1.791e-3
-1.310, 1.721e-3
-1.309, 1.631e-3
-1.308, 1.554e-3
-1.307, 1.499e-3
-1.306, 1.462e-3
-1.305, 1.431e-3
-1.304, 1.384e-3
-1.303, 1.310e-3
-1.302, 1.233e-3
-1.301, 1.166e-3
-1.300, 1.122e-3
-1.299, 1.092e-3
-1.298, 1.058e-3
-1.297, 1.005e-3
-1.296, 9.374e-4
-1.295, 8.573e-4
-1.294, 7.987e-4
-1.293, 7.709e-4
-1.292, 7.463e-4
-1.291, 7.124e-4
-1.290, 6.569e-4
-1.289, 5.890e-4
-1.288, 5.243e-4
-1.287, 4.842e-4
-1.286, 4.595e-4
-1.285, 4.441e-4
-1.284, 4.102e-4
-1.283, 3.516e-4
-1.282, 2.838e-4
-1.281, 2.314e-4
-1.280, 2.006e-4
-1.279, 1.882e-4
-1.278, 1.697e-4
-1.277, 1.296e-4
-1.276, 7.415e-5
-1.275, 1.249e-5
-1.274, -3.068e-5
-1.273, -4.301e-5
-1.272, -4.917e-5
-1.271, -6.767e-5
-1.270, -1.139e-4
-1.269, -1.725e-4
-1.268, -2.218e-4
-1.267, -2.527e-4
-1.266, -2.681e-4
-1.265, -2.712e-4
-1.264, -2.927e-4
-1.263, -3.421e-4
-1.262, -3.976e-4
-1.261, -4.376e-4
-1.260, -4.561e-4
-1.259, -4.592e-4
-1.258, -4.685e-4
-1.257, -4.993e-4
-1.256, -5.456e-4
-1.255, -5.980e-4
-1.254, -6.319e-4
-1.253, -6.350e-4
-1.252, -6.380e-4
-1.251, -6.504e-4
-1.250, -6.843e-4
-1.249, -7.367e-4
-1.248, -7.799e-4
-1.247, -8.015e-4
-1.246, -8.076e-4
-1.245, -8.015e-4
-1.244, -8.200e-4
-1.243, -8.600e-4
-1.242, -9.094e-4
-1.241, -9.433e-4
-1.240, -9.525e-4
-1.239, -9.464e-4
-1.238, -9.464e-4
-1.237, -9.679e-4
-1.236, -1.008e-3
-1.235, -1.054e-3
-1.234, -1.082e-3
-1.233, -1.082e-3
-1.232, -1.073e-3
-1.231, -1.082e-3
-1.230, -1.113e-3
-1.229, -1.162e-3
-1.228, -1.196e-3
-1.227, -1.215e-3
-1.226, -1.212e-3
-1.225, -1.202e-3
-1.224, -1.215e-3
-1.223, -1.252e-3
-1.222, -1.295e-3
-1.221, -1.326e-3
-1.220, -1.335e-3
-1.219, -1.322e-3
-1.218, -1.322e-3
-1.217, -1.341e-3
-1.216, -1.375e-3
-1.215, -1.418e-3
-1.214, -1.440e-3
-1.213, -1.433e-3
-1.212, -1.424e-3
-1.211, -1.427e-3
-1.210, -1.452e-3
-1.209, -1.492e-3
-1.208, -1.523e-3
-1.207, -1.538e-3
-1.206, -1.535e-3
-1.205, -1.517e-3
-1.204, -1.532e-3
-1.203, -1.566e-3
-1.202, -1.609e-3
-1.201, -1.637e-3
-1.200, -1.643e-3
-1.199, -1.631e-3
-1.198, -1.631e-3
-1.197, -1.649e-3
-1.196, -1.686e-3
-1.195, -1.729e-3
-1.194, -1.748e-3
-1.193, -1.745e-3
-1.192, -1.733e-3
-1.191, -1.736e-3
-1.190, -1.760e-3
-1.189, -1.800e-3
-1.188, -1.834e-3
-1.187, -1.844e-3
-1.186, -1.840e-3
-1.185, -1.828e-3
-1.184, -1.840e-3
-1.183, -1.874e-3
-1.182, -1.914e-3
-1.181, -1.945e-3
-1.180, -1.948e-3
-1.179, -1.936e-3
-1.178, -1.933e-3
-1.177, -1.955e-3
-1.176, -1.985e-3
-1.175, -2.029e-3
-1.174, -2.047e-3
-1.173, -2.044e-3
-1.172, -2.035e-3
-1.171, -2.038e-3
-1.170, -2.066e-3
-1.169, -2.109e-3
-1.168, -2.143e-3
-1.167, -2.161e-3
-1.166, -2.161e-3
-1.165, -2.149e-3
-1.164, -2.164e-3
-1.163, -2.201e-3
-1.162, -2.247e-3
-1.161, -2.278e-3
-1.160, -2.288e-3
-1.159, -2.278e-3
-1.158, -2.281e-3
-1.157, -2.297e-3
-1.156, -2.340e-3
-1.155, -2.380e-3
-1.154, -2.405e-3
-1.153, -2.402e-3
-1.152, -2.392e-3
-1.151, -2.399e-3
-1.150, -2.426e-3
-1.149, -2.476e-3
-1.148, -2.516e-3
-1.147, -2.534e-3
-1.146, -2.537e-3
-1.145, -2.531e-3
-1.144, -2.553e-3
-1.143, -2.593e-3
-1.142, -2.642e-3
-1.141, -2.679e-3
-1.140, -2.694e-3
-1.139, -2.694e-3
-1.138, -2.704e-3
-1.137, -2.731e-3
-1.136, -2.778e-3
-1.135, -2.830e-3
-1.134, -2.864e-3
-1.133, -2.870e-3
-1.132, -2.873e-3
-1.131, -2.886e-3
-1.130, -2.920e-3
-1.129, -2.972e-3
-1.128, -3.015e-3
-1.127, -3.043e-3
-1.126, -3.049e-3
-1.125, -3.049e-3
-1.124, -3.071e-3
-1.123, -3.117e-3
-1.122, -3.172e-3
-1.121, -3.219e-3
-1.120, -3.240e-3
-1.119, -3.249e-3
-1.118, -3.262e-3
-1.117, -3.302e-3
-1.116, -3.357e-3
-1.115, -3.422e-3
-1.114, -3.471e-3
-1.113, -3.493e-3
-1.112, -3.512e-3
-1.111, -3.539e-3
-1.110, -3.592e-3
-1.109, -3.659e-3
-1.108, -3.727e-3
-1.107, -3.770e-3
-1.106, -3.801e-3
-1.105, -3.823e-3
-1.104, -3.869e-3
-1.103, -3.937e-3
-1.102, -4.014e-3
-1.101, -4.076e-3
-1.100, -4.116e-3
-1.099, -4.144e-3
-1.098, -4.177e-3
-1.097, -4.230e-3
-1.096, -4.295e-3
-1.095, -4.375e-3
-1.094, -4.430e-3
-1.093, -4.461e-3
-1.092, -4.492e-3
-1.091, -4.526e-3
-1.090, -4.591e-3
-1.089, -4.671e-3
-1.088, -4.742e-3
-1.087, -4.797e-3
-1.086, -4.831e-3
-1.085, -4.868e-3
-1.084, -4.924e-3
-1.083, -5.007e-3
-1.082, -5.096e-3
-1.081, -5.173e-3
-1.080, -5.226e-3
-1.079, -5.269e-3
-1.078, -5.321e-3
-1.077, -5.386e-3
-1.076, -5.466e-3
-1.075, -5.556e-3
-1.074, -5.623e-3
-1.073, -5.660e-3
-1.072, -5.685e-3
-1.071, -5.728e-3
-1.070, -5.799e-3
-1.069, -5.886e-3
-1.068, -5.959e-3
-1.067, -6.015e-3
-1.066, -6.049e-3
-1.065, -6.083e-3
-1.064, -6.132e-3
-1.063, -6.215e-3
-1.062, -6.302e-3
-1.061, -6.379e-3
-1.060, -6.437e-3
-1.059, -6.474e-3
-1.058, -6.524e-3
-1.057, -6.592e-3
-1.056, -6.672e-3
-1.055, -6.758e-3
-1.054, -6.826e-3
-1.053, -6.866e-3
-1.052, -6.906e-3
-1.051, -6.952e-3
-1.050, -7.023e-3
-1.049, -7.106e-3
-1.048, -7.183e-3
-1.047, -7.242e-3
-1.046, -7.282e-3
-1.045, -7.310e-3
-1.044, -7.359e-3
-1.043, -7.427e-3
-1.042, -7.507e-3
-1.041, -7.584e-3
-1.040, -7.637e-3
-1.039, -7.680e-3
-1.038, -7.723e-3
-1.037, -7.785e-3
-1.036, -7.849e-3
-1.035, -7.933e-3
-1.034, -7.997e-3
-1.033, -8.038e-3
-1.032, -8.075e-3
-1.031, -8.124e-3
-1.030, -8.195e-3
-1.029, -8.281e-3
-1.028, -8.364e-3
-1.027, -8.426e-3
-1.026, -8.469e-3
-1.025, -8.500e-3
-1.024, -8.559e-3
-1.023, -8.639e-3
-1.022, -8.719e-3
-1.021, -8.784e-3
-1.020, -8.821e-3
-1.019, -8.836e-3
-1.018, -8.855e-3
-1.017, -8.895e-3
-1.016, -8.950e-3
-1.015, -9.012e-3
-1.014, -9.055e-3
-1.013, -9.077e-3
-1.012, -9.095e-3
-1.011, -9.120e-3
-1.010, -9.172e-3
-1.009, -9.240e-3
-1.008, -9.299e-3
-1.007, -9.342e-3
-1.006, -9.369e-3
-1.005, -9.388e-3
-1.004, -9.425e-3
-1.003, -9.490e-3
-1.002, -9.561e-3
-1.001, -9.616e-3
