Dec. 30, 2024   00:19:04
Cyclic Voltammetry
File: c:/users/guazh/data/banditlqround7_x0exp136_r20/2024-12-24-exp782\exp782-2024-12-30t00_01_14-h2koh\exp782_cv_sr_100mvs_efin_-1700mv.bin
Data Source:  Experiment
Instrument Model:  CHI760E
Header: CV ran at 100 mVs
Note: 

Init E (V) = -1
High E (V) = -1
Low E (V) = -1.7
Final E (V) = -1
Init P/N = N
Scan Rate (V/s) = 0.1
Segment = 3
Sample Interval (V) = 0.001
Quiet Time (sec) = 2
Sensitivity (A/V) = 0.01
Comp R (ohm) = 1.4

Results:

Channel 1:
Segment 1:

Segment 2:

Segment 3:

Potential/V, Current/A

-1.000, 5.710e-6
-1.001, 1.162e-5
-1.002, 1.271e-5
-1.003, 2.102e-5
-1.004, 1.492e-5
-1.005, 2.306e-5
-1.006, 2.157e-5
-1.007, 2.083e-5
-1.008, 2.796e-5
-1.009, 2.098e-5
-1.010, 2.848e-5
-1.011, 2.677e-5
-1.012, 2.549e-5
-1.013, 3.245e-5
-1.014, 2.504e-5
-1.015, 3.246e-5
-1.016, 3.047e-5
-1.017, 2.873e-5
-1.018, 3.557e-5
-1.019, 2.809e-5
-1.020, 3.516e-5
-1.021, 3.317e-5
-1.022, 3.131e-5
-1.023, 3.840e-5
-1.024, 3.081e-5
-1.025, 3.787e-5
-1.026, 3.575e-5
-1.027, 3.372e-5
-1.028, 4.058e-5
-1.029, 3.293e-5
-1.030, 3.988e-5
-1.031, 3.773e-5
-1.032, 3.557e-5
-1.033, 4.264e-5
-1.034, 3.473e-5
-1.035, 4.170e-5
-1.036, 3.967e-5
-1.037, 3.745e-5
-1.038, 4.422e-5
-1.039, 3.670e-5
-1.040, 4.320e-5
-1.041, 4.124e-5
-1.042, 3.893e-5
-1.043, 4.581e-5
-1.044, 3.805e-5
-1.045, 4.488e-5
-1.046, 4.266e-5
-1.047, 4.034e-5
-1.048, 4.721e-5
-1.049, 3.942e-5
-1.050, 4.619e-5
-1.051, 4.398e-5
-1.052, 4.155e-5
-1.053, 4.837e-5
-1.054, 4.063e-5
-1.055, 4.738e-5
-1.056, 4.490e-5
-1.057, 4.274e-5
-1.058, 4.966e-5
-1.059, 4.155e-5
-1.060, 4.832e-5
-1.061, 4.590e-5
-1.062, 4.369e-5
-1.063, 5.066e-5
-1.064, 4.257e-5
-1.065, 4.910e-5
-1.066, 4.703e-5
-1.067, 4.472e-5
-1.068, 5.138e-5
-1.069, 4.336e-5
-1.070, 4.999e-5
-1.071, 4.805e-5
-1.072, 4.524e-5
-1.073, 5.214e-5
-1.074, 4.438e-5
-1.075, 5.097e-5
-1.076, 4.881e-5
-1.077, 4.626e-5
-1.078, 5.297e-5
-1.079, 4.497e-5
-1.080, 5.143e-5
-1.081, 4.934e-5
-1.082, 4.703e-5
-1.083, 5.385e-5
-1.084, 4.584e-5
-1.085, 5.220e-5
-1.086, 5.001e-5
-1.087, 4.751e-5
-1.088, 5.428e-5
-1.089, 4.642e-5
-1.090, 5.320e-5
-1.091, 5.090e-5
-1.092, 4.835e-5
-1.093, 5.534e-5
-1.094, 4.732e-5
-1.095, 5.404e-5
-1.096, 5.170e-5
-1.097, 4.889e-5
-1.098, 5.561e-5
-1.099, 4.777e-5
-1.100, 5.467e-5
-1.101, 5.241e-5
-1.102, 4.939e-5
-1.103, 5.638e-5
-1.104, 4.880e-5
-1.105, 5.551e-5
-1.106, 5.322e-5
-1.107, 5.028e-5
-1.108, 5.748e-5
-1.109, 4.930e-5
-1.110, 5.591e-5
-1.111, 5.395e-5
-1.112, 5.098e-5
-1.113, 5.781e-5
-1.114, 4.988e-5
-1.115, 5.648e-5
-1.116, 5.454e-5
-1.117, 5.150e-5
-1.118, 5.836e-5
-1.119, 5.035e-5
-1.120, 5.689e-5
-1.121, 5.495e-5
-1.122, 5.208e-5
-1.123, 5.895e-5
-1.124, 5.096e-5
-1.125, 5.724e-5
-1.126, 5.529e-5
-1.127, 5.253e-5
-1.128, 5.949e-5
-1.129, 5.128e-5
-1.130, 5.761e-5
-1.131, 5.542e-5
-1.132, 5.272e-5
-1.133, 5.962e-5
-1.134, 5.151e-5
-1.135, 5.790e-5
-1.136, 5.579e-5
-1.137, 5.280e-5
-1.138, 5.985e-5
-1.139, 5.149e-5
-1.140, 5.754e-5
-1.141, 5.565e-5
-1.142, 5.266e-5
-1.143, 5.997e-5
-1.144, 5.158e-5
-1.145, 5.757e-5
-1.146, 5.589e-5
-1.147, 5.257e-5
-1.148, 5.954e-5
-1.149, 5.148e-5
-1.150, 5.747e-5
-1.151, 5.572e-5
-1.152, 5.242e-5
-1.153, 5.927e-5
-1.154, 5.159e-5
-1.155, 5.712e-5
-1.156, 5.525e-5
-1.157, 5.221e-5
-1.158, 5.880e-5
-1.159, 5.096e-5
-1.160, 5.650e-5
-1.161, 5.492e-5
-1.162, 5.151e-5
-1.163, 5.837e-5
-1.164, 5.064e-5
-1.165, 5.630e-5
-1.166, 5.441e-5
-1.167, 5.121e-5
-1.168, 5.794e-5
-1.169, 5.005e-5
-1.170, 5.578e-5
-1.171, 5.395e-5
-1.172, 5.084e-5
-1.173, 5.742e-5
-1.174, 4.912e-5
-1.175, 5.515e-5
-1.176, 5.335e-5
-1.177, 5.024e-5
-1.178, 5.695e-5
-1.179, 4.853e-5
-1.180, 5.455e-5
-1.181, 5.318e-5
-1.182, 4.946e-5
-1.183, 5.624e-5
-1.184, 4.788e-5
-1.185, 5.362e-5
-1.186, 5.223e-5
-1.187, 4.866e-5
-1.188, 5.562e-5
-1.189, 4.769e-5
-1.190, 5.321e-5
-1.191, 5.179e-5
-1.192, 4.790e-5
-1.193, 5.488e-5
-1.194, 4.728e-5
-1.195, 5.244e-5
-1.196, 5.095e-5
-1.197, 4.752e-5
-1.198, 5.439e-5
-1.199, 4.650e-5
-1.200, 5.187e-5
-1.201, 5.059e-5
-1.202, 4.691e-5
-1.203, 5.370e-5
-1.204, 4.605e-5
-1.205, 5.130e-5
-1.206, 5.006e-5
-1.207, 4.644e-5
-1.208, 5.299e-5
-1.209, 4.526e-5
-1.210, 5.092e-5
-1.211, 4.942e-5
-1.212, 4.563e-5
-1.213, 5.243e-5
-1.214, 4.486e-5
-1.215, 5.029e-5
-1.216, 4.879e-5
-1.217, 4.517e-5
-1.218, 5.182e-5
-1.219, 4.428e-5
-1.220, 4.960e-5
-1.221, 4.839e-5
-1.222, 4.459e-5
-1.223, 5.152e-5
-1.224, 4.380e-5
-1.225, 4.911e-5
-1.226, 4.806e-5
-1.227, 4.408e-5
-1.228, 5.126e-5
-1.229, 4.381e-5
-1.230, 4.852e-5
-1.231, 4.779e-5
-1.232, 4.366e-5
-1.233, 5.072e-5
-1.234, 4.325e-5
-1.235, 4.808e-5
-1.236, 4.718e-5
-1.237, 4.326e-5
-1.238, 5.028e-5
-1.239, 4.291e-5
-1.240, 4.752e-5
-1.241, 4.681e-5
-1.242, 4.291e-5
-1.243, 4.973e-5
-1.244, 4.258e-5
-1.245, 4.735e-5
-1.246, 4.659e-5
-1.247, 4.255e-5
-1.248, 4.929e-5
-1.249, 4.210e-5
-1.250, 4.678e-5
-1.251, 4.624e-5
-1.252, 4.239e-5
-1.253, 4.915e-5
-1.254, 4.181e-5
-1.255, 4.675e-5
-1.256, 4.598e-5
-1.257, 4.186e-5
-1.258, 4.893e-5
-1.259, 4.175e-5
-1.260, 4.635e-5
-1.261, 4.589e-5
-1.262, 4.170e-5
-1.263, 4.886e-5
-1.264, 4.144e-5
-1.265, 4.609e-5
-1.266, 4.553e-5
-1.267, 4.169e-5
-1.268, 4.850e-5
-1.269, 4.146e-5
-1.270, 4.598e-5
-1.271, 4.566e-5
-1.272, 4.170e-5
-1.273, 4.862e-5
-1.274, 4.146e-5
-1.275, 4.610e-5
-1.276, 4.565e-5
-1.277, 4.155e-5
-1.278, 4.846e-5
-1.279, 4.165e-5
-1.280, 4.623e-5
-1.281, 4.564e-5
-1.282, 4.178e-5
-1.283, 4.873e-5
-1.284, 4.166e-5
-1.285, 4.635e-5
-1.286, 4.594e-5
-1.287, 4.200e-5
-1.288, 4.875e-5
-1.289, 4.183e-5
-1.290, 4.680e-5
-1.291, 4.635e-5
-1.292, 4.200e-5
-1.293, 4.894e-5
-1.294, 4.204e-5
-1.295, 4.690e-5
-1.296, 4.655e-5
-1.297, 4.241e-5
-1.298, 4.960e-5
-1.299, 4.295e-5
-1.300, 4.713e-5
-1.301, 4.705e-5
-1.302, 4.296e-5
-1.303, 5.022e-5
-1.304, 4.338e-5
-1.305, 4.767e-5
-1.306, 4.809e-5
-1.307, 4.361e-5
-1.308, 5.083e-5
-1.309, 4.413e-5
-1.310, 4.845e-5
-1.311, 4.879e-5
-1.312, 4.468e-5
-1.313, 5.161e-5
-1.314, 4.501e-5
-1.315, 4.925e-5
-1.316, 4.954e-5
-1.317, 4.562e-5
-1.318, 5.247e-5
-1.319, 4.616e-5
-1.320, 5.044e-5
-1.321, 5.069e-5
-1.322, 4.696e-5
-1.323, 5.382e-5
-1.324, 4.755e-5
-1.325, 5.188e-5
-1.326, 5.203e-5
-1.327, 4.826e-5
-1.328, 5.537e-5
-1.329, 4.890e-5
-1.330, 5.311e-5
-1.331, 5.378e-5
-1.332, 4.980e-5
-1.333, 5.688e-5
-1.334, 5.079e-5
-1.335, 5.517e-5
-1.336, 5.552e-5
-1.337, 5.171e-5
-1.338, 5.887e-5
-1.339, 5.272e-5
-1.340, 5.725e-5
-1.341, 5.770e-5
-1.342, 5.396e-5
-1.343, 6.104e-5
-1.344, 5.516e-5
-1.345, 5.948e-5
-1.346, 6.014e-5
-1.347, 5.678e-5
-1.348, 6.385e-5
-1.349, 5.796e-5
-1.350, 6.221e-5
-1.351, 6.319e-5
-1.352, 5.972e-5
-1.353, 6.680e-5
-1.354, 6.100e-5
-1.355, 6.534e-5
-1.356, 6.643e-5
-1.357, 6.291e-5
-1.358, 7.039e-5
-1.359, 6.499e-5
-1.360, 6.911e-5
-1.361, 7.025e-5
-1.362, 6.672e-5
-1.363, 7.411e-5
-1.364, 6.880e-5
-1.365, 7.310e-5
-1.366, 7.432e-5
-1.367, 7.144e-5
-1.368, 7.881e-5
-1.369, 7.355e-5
-1.370, 7.836e-5
-1.371, 7.986e-5
-1.372, 7.654e-5
-1.373, 8.414e-5
-1.374, 7.898e-5
-1.375, 8.379e-5
-1.376, 8.543e-5
-1.377, 8.220e-5
-1.378, 8.994e-5
-1.379, 8.524e-5
-1.380, 9.011e-5
-1.381, 9.195e-5
-1.382, 8.904e-5
-1.383, 9.706e-5
-1.384, 9.233e-5
-1.385, 9.759e-5
-1.386, 9.957e-5
-1.387, 9.683e-5
-1.388, 1.051e-4
-1.389, 1.008e-4
-1.390, 1.060e-4
-1.391, 1.083e-4
-1.392, 1.057e-4
-1.393, 1.142e-4
-1.394, 1.102e-4
-1.395, 1.156e-4
-1.396, 1.182e-4
-1.397, 1.158e-4
-1.398, 1.248e-4
-1.399, 1.216e-4
-1.400, 1.268e-4
-1.401, 1.298e-4
-1.402, 1.282e-4
-1.403, 1.370e-4
-1.404, 1.341e-4
-1.405, 1.402e-4
-1.406, 1.436e-4
-1.407, 1.423e-4
-1.408, 1.515e-4
-1.409, 1.491e-4
-1.410, 1.557e-4
-1.411, 1.593e-4
-1.412, 1.587e-4
-1.413, 1.684e-4
-1.414, 1.662e-4
-1.415, 1.736e-4
-1.416, 1.778e-4
-1.417, 1.780e-4
-1.418, 1.882e-4
-1.419, 1.868e-4
-1.420, 1.951e-4
-1.421, 2.000e-4
-1.422, 2.007e-4
-1.423, 2.121e-4
-1.424, 2.114e-4
-1.425, 2.201e-4
-1.426, 2.262e-4
-1.427, 2.277e-4
-1.428, 2.395e-4
-1.429, 2.395e-4
-1.430, 2.495e-4
-1.431, 2.568e-4
-1.432, 2.594e-4
-1.433, 2.727e-4
-1.434, 2.742e-4
-1.435, 2.854e-4
-1.436, 2.929e-4
-1.437, 2.974e-4
-1.438, 3.130e-4
-1.439, 3.150e-4
-1.440, 3.274e-4
-1.441, 3.370e-4
-1.442, 3.427e-4
-1.443, 3.582e-4
-1.444, 3.620e-4
-1.445, 3.759e-4
-1.446, 3.863e-4
-1.447, 3.932e-4
-1.448, 4.102e-4
-1.449, 4.149e-4
-1.450, 4.303e-4
-1.451, 4.420e-4
-1.452, 4.504e-4
-1.453, 4.678e-4
-1.454, 4.736e-4
-1.455, 4.912e-4
-1.456, 5.040e-4
-1.457, 5.136e-4
-1.458, 5.334e-4
-1.459, 5.410e-4
-1.460, 5.590e-4
-1.461, 5.724e-4
-1.462, 5.828e-4
-1.463, 6.041e-4
-1.464, 6.128e-4
-1.465, 6.313e-4
-1.466, 6.446e-4
-1.467, 6.573e-4
-1.468, 6.803e-4
-1.469, 6.891e-4
-1.470, 7.085e-4
-1.471, 7.241e-4
-1.472, 7.378e-4
-1.473, 7.611e-4
-1.474, 7.723e-4
-1.475, 7.936e-4
-1.476, 8.102e-4
-1.477, 8.247e-4
-1.478, 8.492e-4
-1.479, 8.626e-4
-1.480, 8.848e-4
-1.481, 9.023e-4
-1.482, 9.180e-4
-1.483, 9.423e-4
-1.484, 9.549e-4
-1.485, 9.824e-4
-1.486, 1.003e-3
-1.487, 1.021e-3
-1.488, 1.049e-3
-1.489, 1.063e-3
-1.490, 1.089e-3
-1.491, 1.114e-3
-1.492, 1.133e-3
-1.493, 1.160e-3
-1.494, 1.176e-3
-1.495, 1.204e-3
-1.496, 1.226e-3
-1.497, 1.247e-3
-1.498, 1.275e-3
-1.499, 1.293e-3
-1.500, 1.326e-3
-1.501, 1.351e-3
-1.502, 1.379e-3
-1.503, 1.409e-3
-1.504, 1.428e-3
-1.505, 1.460e-3
-1.506, 1.486e-3
-1.507, 1.512e-3
-1.508, 1.548e-3
-1.509, 1.572e-3
-1.510, 1.605e-3
-1.511, 1.630e-3
-1.512, 1.663e-3
-1.513, 1.702e-3
-1.514, 1.723e-3
-1.515, 1.759e-3
-1.516, 1.792e-3
-1.517, 1.826e-3
-1.518, 1.865e-3
-1.519, 1.889e-3
-1.520, 1.927e-3
-1.521, 1.960e-3
-1.522, 1.993e-3
-1.523, 2.027e-3
-1.524, 2.055e-3
-1.525, 2.101e-3
-1.526, 2.142e-3
-1.527, 2.179e-3
-1.528, 2.214e-3
-1.529, 2.237e-3
-1.530, 2.283e-3
-1.531, 2.322e-3
-1.532, 2.359e-3
-1.533, 2.402e-3
-1.534, 2.437e-3
-1.535, 2.483e-3
-1.536, 2.512e-3
-1.537, 2.547e-3
-1.538, 2.599e-3
-1.539, 2.645e-3
-1.540, 2.698e-3
-1.541, 2.734e-3
-1.542, 2.780e-3
-1.543, 2.835e-3
-1.544, 2.864e-3
-1.545, 2.902e-3
-1.546, 2.941e-3
-1.547, 2.985e-3
-1.548, 3.033e-3
-1.549, 3.072e-3
-1.550, 3.118e-3
-1.551, 3.163e-3
-1.552, 3.211e-3
-1.553, 3.254e-3
-1.554, 3.288e-3
-1.555, 3.353e-3
-1.556, 3.410e-3
-1.557, 3.459e-3
-1.558, 3.507e-3
-1.559, 3.538e-3
-1.560, 3.595e-3
-1.561, 3.645e-3
-1.562, 3.691e-3
-1.563, 3.730e-3
-1.564, 3.764e-3
-1.565, 3.836e-3
-1.566, 3.896e-3
-1.567, 3.942e-3
-1.568, 3.979e-3
-1.569, 4.035e-3
-1.570, 4.150e-3
-1.571, 4.211e-3
-1.572, 4.224e-3
-1.573, 4.214e-3
-1.574, 4.232e-3
-1.575, 4.315e-3
-1.576, 4.344e-3
-1.577, 4.360e-3
-1.578, 4.409e-3
-1.579, 4.470e-3
-1.580, 4.558e-3
-1.581, 4.627e-3
-1.582, 4.686e-3
-1.583, 4.757e-3
-1.584, 4.801e-3
-1.585, 4.856e-3
-1.586, 4.894e-3
-1.587, 4.926e-3
-1.588, 4.993e-3
-1.589, 5.081e-3
-1.590, 5.162e-3
-1.591, 5.211e-3
-1.592, 5.249e-3
-1.593, 5.286e-3
-1.594, 5.299e-3
-1.595, 5.357e-3
-1.596, 5.405e-3
-1.597, 5.439e-3
-1.598, 5.495e-3
-1.599, 5.561e-3
-1.600, 5.616e-3
-1.601, 5.658e-3
-1.602, 5.726e-3
-1.603, 5.793e-3
-1.604, 5.835e-3
-1.605, 5.884e-3
-1.606, 5.926e-3
-1.607, 5.982e-3
-1.608, 6.051e-3
-1.609, 6.086e-3
-1.610, 6.121e-3
-1.611, 6.167e-3
-1.612, 6.242e-3
-1.613, 6.315e-3
-1.614, 6.365e-3
-1.615, 6.424e-3
-1.616, 6.478e-3
-1.617, 6.520e-3
-1.618, 6.551e-3
-1.619, 6.586e-3
-1.620, 6.659e-3
-1.621, 6.687e-3
-1.622, 6.705e-3
-1.623, 6.770e-3
-1.624, 6.865e-3
-1.625, 6.967e-3
-1.626, 7.008e-3
-1.627, 7.012e-3
-1.628, 7.070e-3
-1.629, 7.121e-3
-1.630, 7.194e-3
-1.631, 7.222e-3
-1.632, 7.243e-3
-1.633, 7.320e-3
-1.634, 7.391e-3
-1.635, 7.434e-3
-1.636, 7.469e-3
-1.637, 7.516e-3
-1.638, 7.579e-3
-1.639, 7.622e-3
-1.640, 7.667e-3
-1.641, 7.711e-3
-1.642, 7.794e-3
-1.643, 7.874e-3
-1.644, 7.917e-3
-1.645, 7.943e-3
-1.646, 7.966e-3
-1.647, 8.018e-3
-1.648, 8.092e-3
-1.649, 8.123e-3
-1.650, 8.173e-3
-1.651, 8.238e-3
-1.652, 8.278e-3
-1.653, 8.323e-3
-1.654, 8.355e-3
-1.655, 8.425e-3
-1.656, 8.493e-3
-1.657, 8.530e-3
-1.658, 8.606e-3
-1.659, 8.753e-3
-1.660, 8.816e-3
-1.661, 8.786e-3
-1.662, 8.761e-3
-1.663, 8.800e-3
-1.664, 8.849e-3
-1.665, 8.922e-3
-1.666, 8.964e-3
-1.667, 9.063e-3
-1.668, 9.134e-3
-1.669, 9.159e-3
-1.670, 9.205e-3
-1.671, 9.233e-3
-1.672, 9.295e-3
-1.673, 9.371e-3
-1.674, 9.415e-3
-1.675, 9.452e-3
-1.676, 9.504e-3
-1.677, 9.596e-3
-1.678, 9.571e-3
-1.679, 9.591e-3
-1.680, 9.721e-3
-1.681, 9.762e-3
-1.682, 9.782e-3
-1.683, 9.817e-3
-1.684, 9.913e-3
-1.685, 1.004e-2
-1.686, 1.003e-2
-1.687, 1.000e-2
-1.688, 1.002e-2
-1.689, 1.009e-2
-1.690, 1.018e-2
-1.691, 1.026e-2
-1.692, 1.023e-2
-1.693, 1.031e-2
-1.694, 1.040e-2
-1.695, 1.048e-2
-1.696, 1.050e-2
-1.697, 1.050e-2
-1.698, 1.056e-2
-1.699, 1.061e-2
-1.700, 1.060e-2
-1.699, 1.053e-2
-1.698, 1.042e-2
-1.697, 1.035e-2
-1.696, 1.031e-2
-1.695, 1.024e-2
-1.694, 1.013e-2
-1.693, 1.008e-2
-1.692, 1.000e-2
-1.691, 9.890e-3
-1.690, 9.788e-3
-1.689, 9.693e-3
-1.688, 9.615e-3
-1.687, 9.446e-3
-1.686, 9.604e-3
-1.685, 9.731e-3
-1.684, 9.671e-3
-1.683, 9.564e-3
-1.682, 9.400e-3
-1.681, 9.269e-3
-1.680, 9.125e-3
-1.679, 8.937e-3
-1.678, 8.787e-3
-1.677, 8.788e-3
-1.676, 8.871e-3
-1.675, 8.881e-3
-1.674, 8.812e-3
-1.673, 8.733e-3
-1.672, 8.724e-3
-1.671, 8.704e-3
-1.670, 8.610e-3
-1.669, 8.499e-3
-1.668, 8.407e-3
-1.667, 8.336e-3
-1.666, 8.260e-3
-1.665, 8.195e-3
-1.664, 8.112e-3
-1.663, 7.988e-3
-1.662, 7.944e-3
-1.661, 7.881e-3
-1.660, 7.820e-3
-1.659, 7.738e-3
-1.658, 7.670e-3
-1.657, 7.643e-3
-1.656, 7.554e-3
-1.655, 7.444e-3
-1.654, 7.391e-3
-1.653, 7.343e-3
-1.652, 7.265e-3
-1.651, 7.246e-3
-1.650, 7.163e-3
-1.649, 7.140e-3
-1.648, 7.083e-3
-1.647, 7.048e-3
-1.646, 6.970e-3
-1.645, 6.883e-3
-1.644, 6.811e-3
-1.643, 6.783e-3
-1.642, 6.710e-3
-1.641, 6.628e-3
-1.640, 6.573e-3
-1.639, 6.540e-3
-1.638, 6.485e-3
-1.637, 6.447e-3
-1.636, 6.379e-3
-1.635, 6.329e-3
-1.634, 6.280e-3
-1.633, 6.206e-3
-1.632, 6.129e-3
-1.631, 6.071e-3
-1.630, 6.037e-3
-1.629, 5.977e-3
-1.628, 5.880e-3
-1.627, 5.833e-3
-1.626, 5.774e-3
-1.625, 5.780e-3
-1.624, 5.719e-3
-1.623, 5.646e-3
-1.622, 5.573e-3
-1.621, 5.518e-3
-1.620, 5.467e-3
-1.619, 5.454e-3
-1.618, 5.389e-3
-1.617, 5.304e-3
-1.616, 5.236e-3
-1.615, 5.182e-3
-1.614, 5.183e-3
-1.613, 5.123e-3
-1.612, 5.071e-3
-1.611, 5.019e-3
-1.610, 4.960e-3
-1.609, 4.891e-3
-1.608, 4.837e-3
-1.607, 4.789e-3
-1.606, 4.714e-3
-1.605, 4.679e-3
-1.604, 4.630e-3
-1.603, 4.596e-3
-1.602, 4.543e-3
-1.601, 4.462e-3
-1.600, 4.449e-3
-1.599, 4.417e-3
-1.598, 4.365e-3
-1.597, 4.293e-3
-1.596, 4.241e-3
-1.595, 4.205e-3
-1.594, 4.134e-3
-1.593, 4.068e-3
-1.592, 4.053e-3
-1.591, 4.021e-3
-1.590, 3.980e-3
-1.589, 3.943e-3
-1.588, 3.903e-3
-1.587, 3.879e-3
-1.586, 3.819e-3
-1.585, 3.754e-3
-1.584, 3.699e-3
-1.583, 3.674e-3
-1.582, 3.643e-3
-1.581, 3.587e-3
-1.580, 3.539e-3
-1.579, 3.491e-3
-1.578, 3.465e-3
-1.577, 3.459e-3
-1.576, 3.410e-3
-1.575, 3.357e-3
-1.574, 3.300e-3
-1.573, 3.265e-3
-1.572, 3.240e-3
-1.571, 3.179e-3
-1.570, 3.131e-3
-1.569, 3.085e-3
-1.568, 3.038e-3
-1.567, 2.991e-3
-1.566, 2.957e-3
-1.565, 2.958e-3
-1.564, 2.916e-3
-1.563, 2.859e-3
-1.562, 2.827e-3
-1.561, 2.783e-3
-1.560, 2.746e-3
-1.559, 2.692e-3
-1.558, 2.695e-3
-1.557, 2.654e-3
-1.556, 2.603e-3
-1.555, 2.549e-3
-1.554, 2.502e-3
-1.553, 2.471e-3
-1.552, 2.438e-3
-1.551, 2.388e-3
-1.550, 2.344e-3
-1.549, 2.307e-3
-1.548, 2.271e-3
-1.547, 2.237e-3
-1.546, 2.187e-3
-1.545, 2.160e-3
-1.544, 2.134e-3
-1.543, 2.097e-3
-1.542, 2.063e-3
-1.541, 2.041e-3
-1.540, 2.018e-3
-1.539, 1.980e-3
-1.538, 1.942e-3
-1.537, 1.914e-3
-1.536, 1.870e-3
-1.535, 1.836e-3
-1.534, 1.796e-3
-1.533, 1.760e-3
-1.532, 1.736e-3
-1.531, 1.703e-3
-1.530, 1.675e-3
-1.529, 1.641e-3
-1.528, 1.603e-3
-1.527, 1.585e-3
-1.526, 1.552e-3
-1.525, 1.522e-3
-1.524, 1.490e-3
-1.523, 1.460e-3
-1.522, 1.437e-3
-1.521, 1.401e-3
-1.520, 1.378e-3
-1.519, 1.352e-3
-1.518, 1.322e-3
-1.517, 1.302e-3
-1.516, 1.269e-3
-1.515, 1.245e-3
-1.514, 1.221e-3
-1.513, 1.191e-3
-1.512, 1.171e-3
-1.511, 1.143e-3
-1.510, 1.120e-3
-1.509, 1.098e-3
-1.508, 1.073e-3
-1.507, 1.056e-3
-1.506, 1.030e-3
-1.505, 1.012e-3
-1.504, 9.935e-4
-1.503, 9.683e-4
-1.502, 9.533e-4
-1.501, 9.294e-4
-1.500, 9.110e-4
-1.499, 8.932e-4
-1.498, 8.685e-4
-1.497, 8.538e-4
-1.496, 8.333e-4
-1.495, 8.124e-4
-1.494, 7.923e-4
-1.493, 7.737e-4
-1.492, 7.655e-4
-1.491, 7.427e-4
-1.490, 7.250e-4
-1.489, 7.083e-4
-1.488, 6.887e-4
-1.487, 6.812e-4
-1.486, 6.600e-4
-1.485, 6.440e-4
-1.484, 6.319e-4
-1.483, 6.125e-4
-1.482, 6.035e-4
-1.481, 5.853e-4
-1.480, 5.715e-4
-1.479, 5.605e-4
-1.478, 5.435e-4
-1.477, 5.371e-4
-1.476, 5.191e-4
-1.475, 5.069e-4
-1.474, 4.947e-4
-1.473, 4.771e-4
-1.472, 4.721e-4
-1.471, 4.554e-4
-1.470, 4.398e-4
-1.469, 4.329e-4
-1.468, 4.210e-4
-1.467, 4.159e-4
-1.466, 4.009e-4
-1.465, 3.909e-4
-1.464, 3.840e-4
-1.463, 3.683e-4
-1.462, 3.638e-4
-1.461, 3.514e-4
-1.460, 3.430e-4
-1.459, 3.371e-4
-1.458, 3.221e-4
-1.457, 3.183e-4
-1.456, 3.072e-4
-1.455, 2.999e-4
-1.454, 2.945e-4
-1.453, 2.816e-4
-1.452, 2.791e-4
-1.451, 2.681e-4
-1.450, 2.607e-4
-1.449, 2.570e-4
-1.448, 2.451e-4
-1.447, 2.436e-4
-1.446, 2.335e-4
-1.445, 2.271e-4
-1.444, 2.242e-4
-1.443, 2.127e-4
-1.442, 2.120e-4
-1.441, 2.027e-4
-1.440, 1.973e-4
-1.439, 1.953e-4
-1.438, 1.842e-4
-1.437, 1.843e-4
-1.436, 1.758e-4
-1.435, 1.707e-4
-1.434, 1.690e-4
-1.433, 1.586e-4
-1.432, 1.594e-4
-1.431, 1.518e-4
-1.430, 1.469e-4
-1.429, 1.462e-4
-1.428, 1.364e-4
-1.427, 1.379e-4
-1.426, 1.305e-4
-1.425, 1.264e-4
-1.424, 1.263e-4
-1.423, 1.170e-4
-1.422, 1.187e-4
-1.421, 1.122e-4
-1.420, 1.083e-4
-1.419, 1.087e-4
-1.418, 9.984e-5
-1.417, 1.020e-4
-1.416, 9.607e-5
-1.415, 9.223e-5
-1.414, 9.331e-5
-1.413, 8.491e-5
-1.412, 8.761e-5
-1.411, 8.160e-5
-1.410, 7.828e-5
-1.409, 7.995e-5
-1.408, 7.165e-5
-1.407, 7.465e-5
-1.406, 6.919e-5
-1.405, 6.607e-5
-1.404, 6.819e-5
-1.403, 5.983e-5
-1.402, 6.323e-5
-1.401, 5.831e-5
-1.400, 5.551e-5
-1.399, 5.763e-5
-1.398, 4.956e-5
-1.397, 5.341e-5
-1.396, 4.869e-5
-1.395, 4.577e-5
-1.394, 4.850e-5
-1.393, 4.065e-5
-1.392, 4.463e-5
-1.391, 4.014e-5
-1.390, 3.728e-5
-1.389, 4.031e-5
-1.388, 3.286e-5
-1.387, 3.666e-5
-1.386, 3.260e-5
-1.385, 2.993e-5
-1.384, 3.332e-5
-1.383, 2.584e-5
-1.382, 2.975e-5
-1.381, 2.600e-5
-1.380, 2.363e-5
-1.379, 2.675e-5
-1.378, 1.981e-5
-1.377, 2.372e-5
-1.376, 2.014e-5
-1.375, 1.798e-5
-1.374, 2.146e-5
-1.373, 1.449e-5
-1.372, 1.882e-5
-1.371, 1.511e-5
-1.370, 1.303e-5
-1.369, 1.653e-5
-1.368, 9.706e-6
-1.367, 1.411e-5
-1.366, 1.061e-5
-1.365, 8.572e-6
-1.364, 1.237e-5
-1.363, 5.572e-6
-1.362, 1.013e-5
-1.361, 6.638e-6
-1.360, 4.970e-6
-1.359, 8.720e-6
-1.358, 1.853e-6
-1.357, 6.283e-6
-1.356, 3.214e-6
-1.355, 1.123e-6
-1.354, 5.316e-6
-1.353, -1.344e-6
-1.352, 3.382e-6
-1.351, 2.743e-7
-1.350, -1.886e-6
-1.349, 2.455e-6
-1.348, -3.968e-6
-1.347, 5.900e-7
-1.346, -2.350e-6
-1.345, -4.363e-6
-1.344, -1.598e-7
-1.343, -6.435e-6
-1.342, -2.054e-6
-1.341, -4.649e-6
-1.340, -6.701e-6
-1.339, -2.380e-6
-1.338, -8.714e-6
-1.337, -4.323e-6
-1.336, -6.721e-6
-1.335, -8.645e-6
-1.334, -4.609e-6
-1.333, -1.058e-5
-1.332, -6.237e-6
-1.331, -8.595e-6
-1.330, -1.064e-5
-1.329, -6.267e-6
-1.328, -1.260e-5
-1.327, -8.033e-6
-1.326, -1.037e-5
-1.325, -1.229e-5
-1.324, -7.845e-6
-1.323, -1.412e-5
-1.322, -9.414e-6
-1.321, -1.196e-5
-1.320, -1.375e-5
-1.319, -9.473e-6
-1.318, -1.568e-5
-1.317, -1.110e-5
-1.316, -1.327e-5
-1.315, -1.533e-5
-1.314, -1.071e-5
-1.313, -1.689e-5
-1.312, -1.227e-5
-1.311, -1.440e-5
-1.310, -1.662e-5
-1.309, -1.194e-5
-1.308, -1.800e-5
-1.307, -1.362e-5
-1.306, -1.557e-5
-1.305, -1.782e-5
-1.304, -1.296e-5
-1.303, -1.914e-5
-1.302, -1.456e-5
-1.301, -1.659e-5
-1.300, -1.860e-5
-1.299, -1.410e-5
-1.298, -2.021e-5
-1.297, -1.562e-5
-1.296, -1.756e-5
-1.295, -1.949e-5
-1.294, -1.495e-5
-1.293, -2.118e-5
-1.292, -1.642e-5
-1.291, -1.859e-5
-1.290, -2.059e-5
-1.289, -1.601e-5
-1.288, -2.220e-5
-1.287, -1.716e-5
-1.286, -1.946e-5
-1.285, -2.137e-5
-1.284, -1.650e-5
-1.283, -2.300e-5
-1.282, -1.807e-5
-1.281, -1.996e-5
-1.280, -2.249e-5
-1.279, -1.753e-5
-1.278, -2.383e-5
-1.277, -1.911e-5
-1.276, -2.070e-5
-1.275, -2.317e-5
-1.274, -1.815e-5
-1.273, -2.442e-5
-1.272, -1.964e-5
-1.271, -2.142e-5
-1.270, -2.393e-5
-1.269, -1.878e-5
-1.268, -2.513e-5
-1.267, -2.056e-5
-1.266, -2.226e-5
-1.265, -2.467e-5
-1.264, -1.962e-5
-1.263, -2.584e-5
-1.262, -2.133e-5
-1.261, -2.272e-5
-1.260, -2.525e-5
-1.259, -2.039e-5
-1.258, -2.664e-5
-1.257, -2.197e-5
-1.256, -2.367e-5
-1.255, -2.592e-5
-1.254, -2.104e-5
-1.253, -2.723e-5
-1.252, -2.256e-5
-1.251, -2.434e-5
-1.250, -2.645e-5
-1.249, -2.176e-5
-1.248, -2.788e-5
-1.247, -2.308e-5
-1.246, -2.498e-5
-1.245, -2.734e-5
-1.244, -2.215e-5
-1.243, -2.865e-5
-1.242, -2.385e-5
-1.241, -2.581e-5
-1.240, -2.794e-5
-1.239, -2.293e-5
-1.238, -2.936e-5
-1.237, -2.437e-5
-1.236, -2.617e-5
-1.235, -2.877e-5
-1.234, -2.356e-5
-1.233, -3.012e-5
-1.232, -2.526e-5
-1.231, -2.686e-5
-1.230, -2.943e-5
-1.229, -2.456e-5
-1.228, -3.093e-5
-1.227, -2.597e-5
-1.226, -2.766e-5
-1.225, -3.023e-5
-1.224, -2.490e-5
-1.223, -3.146e-5
-1.222, -2.672e-5
-1.221, -2.822e-5
-1.220, -3.064e-5
-1.219, -2.583e-5
-1.218, -3.211e-5
-1.217, -2.735e-5
-1.216, -2.915e-5
-1.215, -3.148e-5
-1.214, -2.641e-5
-1.213, -3.285e-5
-1.212, -2.810e-5
-1.211, -2.987e-5
-1.210, -3.219e-5
-1.209, -2.727e-5
-1.208, -3.362e-5
-1.207, -2.868e-5
-1.206, -3.055e-5
-1.205, -3.291e-5
-1.204, -2.791e-5
-1.203, -3.444e-5
-1.202, -2.943e-5
-1.201, -3.128e-5
-1.200, -3.373e-5
-1.199, -2.843e-5
-1.198, -3.536e-5
-1.197, -3.018e-5
-1.196, -3.203e-5
-1.195, -3.456e-5
-1.194, -2.910e-5
-1.193, -3.616e-5
-1.192, -3.111e-5
-1.191, -3.296e-5
-1.190, -3.546e-5
-1.189, -2.993e-5
-1.188, -3.675e-5
-1.187, -3.205e-5
-1.186, -3.370e-5
-1.185, -3.635e-5
-1.184, -3.088e-5
-1.183, -3.769e-5
-1.182, -3.294e-5
-1.181, -3.456e-5
-1.180, -3.703e-5
-1.179, -3.174e-5
-1.178, -3.890e-5
-1.177, -3.365e-5
-1.176, -3.525e-5
-1.175, -3.808e-5
-1.174, -3.287e-5
-1.173, -3.952e-5
-1.172, -3.436e-5
-1.171, -3.648e-5
-1.170, -3.900e-5
-1.169, -3.370e-5
-1.168, -4.046e-5
-1.167, -3.544e-5
-1.166, -3.738e-5
-1.165, -3.997e-5
-1.164, -3.479e-5
-1.163, -4.178e-5
-1.162, -3.632e-5
-1.161, -3.827e-5
-1.160, -4.117e-5
-1.159, -3.529e-5
-1.158, -4.256e-5
-1.157, -3.687e-5
-1.156, -3.919e-5
-1.155, -4.234e-5
-1.154, -3.635e-5
-1.153, -4.337e-5
-1.152, -3.841e-5
-1.151, -4.048e-5
-1.150, -4.329e-5
-1.149, -3.750e-5
-1.148, -4.461e-5
-1.147, -3.954e-5
-1.146, -4.138e-5
-1.145, -4.423e-5
-1.144, -3.875e-5
-1.143, -4.574e-5
-1.142, -4.065e-5
-1.141, -4.258e-5
-1.140, -4.531e-5
-1.139, -3.986e-5
-1.138, -4.693e-5
-1.137, -4.193e-5
-1.136, -4.374e-5
-1.135, -4.667e-5
-1.134, -4.117e-5
-1.133, -4.836e-5
-1.132, -4.299e-5
-1.131, -4.507e-5
-1.130, -4.780e-5
-1.129, -4.247e-5
-1.128, -4.968e-5
-1.127, -4.433e-5
-1.126, -4.645e-5
-1.125, -4.935e-5
-1.124, -4.355e-5
-1.123, -5.119e-5
-1.122, -4.563e-5
-1.121, -4.798e-5
-1.120, -5.086e-5
-1.119, -4.521e-5
-1.118, -5.266e-5
-1.117, -4.710e-5
-1.116, -4.951e-5
-1.115, -5.259e-5
-1.114, -4.644e-5
-1.113, -5.424e-5
-1.112, -4.887e-5
-1.111, -5.125e-5
-1.110, -5.430e-5
-1.109, -4.822e-5
-1.108, -5.590e-5
-1.107, -5.061e-5
-1.106, -5.302e-5
-1.105, -5.600e-5
-1.104, -5.015e-5
-1.103, -5.789e-5
-1.102, -5.297e-5
-1.101, -5.504e-5
-1.100, -5.792e-5
-1.099, -5.225e-5
-1.098, -5.973e-5
-1.097, -5.477e-5
-1.096, -5.712e-5
-1.095, -6.019e-5
-1.094, -5.439e-5
-1.093, -6.209e-5
-1.092, -5.682e-5
-1.091, -5.934e-5
-1.090, -6.222e-5
-1.089, -5.659e-5
-1.088, -6.446e-5
-1.087, -5.912e-5
-1.086, -6.187e-5
-1.085, -6.505e-5
-1.084, -5.906e-5
-1.083, -6.724e-5
-1.082, -6.164e-5
-1.081, -6.450e-5
-1.080, -6.743e-5
-1.079, -6.172e-5
-1.078, -6.990e-5
-1.077, -6.429e-5
-1.076, -6.716e-5
-1.075, -7.056e-5
-1.074, -6.481e-5
-1.073, -7.317e-5
-1.072, -6.740e-5
-1.071, -7.003e-5
-1.070, -7.357e-5
-1.069, -6.767e-5
-1.068, -7.607e-5
-1.067, -7.063e-5
-1.066, -7.310e-5
-1.065, -7.699e-5
-1.064, -7.095e-5
-1.063, -7.945e-5
-1.062, -7.421e-5
-1.061, -7.713e-5
-1.060, -8.113e-5
-1.059, -7.458e-5
-1.058, -8.275e-5
-1.057, -7.724e-5
-1.056, -8.038e-5
-1.055, -8.387e-5
-1.054, -7.791e-5
-1.053, -8.618e-5
-1.052, -8.179e-5
-1.051, -8.501e-5
-1.050, -8.823e-5
-1.049, -8.234e-5
-1.048, -9.100e-5
-1.047, -8.564e-5
-1.046, -8.901e-5
-1.045, -9.220e-5
-1.044, -8.637e-5
-1.043, -9.567e-5
-1.042, -9.008e-5
-1.041, -9.309e-5
-1.040, -9.637e-5
-1.039, -9.074e-5
-1.038, -1.001e-4
-1.037, -9.413e-5
-1.036, -9.719e-5
-1.035, -1.010e-4
-1.034, -9.559e-5
-1.033, -1.047e-4
-1.032, -9.887e-5
-1.031, -1.024e-4
-1.030, -1.064e-4
-1.029, -1.002e-4
-1.028, -1.096e-4
-1.027, -1.041e-4
-1.026, -1.073e-4
-1.025, -1.112e-4
-1.024, -1.056e-4
-1.023, -1.144e-4
-1.022, -1.091e-4
-1.021, -1.127e-4
-1.020, -1.163e-4
-1.019, -1.108e-4
-1.018, -1.200e-4
-1.017, -1.147e-4
-1.016, -1.180e-4
-1.015, -1.219e-4
-1.014, -1.163e-4
-1.013, -1.256e-4
-1.012, -1.205e-4
-1.011, -1.237e-4
-1.010, -1.273e-4
-1.009, -1.223e-4
-1.008, -1.316e-4
-1.007, -1.260e-4
-1.006, -1.298e-4
-1.005, -1.334e-4
-1.004, -1.282e-4
-1.003, -1.376e-4
-1.002, -1.324e-4
-1.001, -1.365e-4
