Sept. 21, 2024   18:31:41
Linear Sweep Voltammetry
File: c:/users/guazh/data/20240903_batch_400_500/2024-09-20-exp410\1acid_1ac-2024-09-21t18_28_35-lsvinphos\1acid_1ac_lsv_50mvs_efin_-2100mv.bin
Data Source:  Experiment
Instrument Model:  CHI760E
Header: LSV ran at 50 mVs with Efin at -2100mV
Note: 

Init E (V) = -0.6
Final E (V) = -2.1
Scan Rate (V/s) = 0.05
Sample Interval (V) = 0.001
Quiet Time (sec) = 2
Sensitivity (A/V) = 1e-4
Comp R (ohm) = 9.9

Results:

Channel 1:
Ep = -1.865V
ip = 8.630e-4A
Ah = 1.168e-3C

Potential/V, Current/A

-0.600, 3.909e-6
-0.601, 4.009e-6
-0.602, 4.056e-6
-0.603, 4.091e-6
-0.604, 4.128e-6
-0.605, 4.161e-6
-0.606, 4.195e-6
-0.607, 4.228e-6
-0.608, 4.261e-6
-0.609, 4.296e-6
-0.610, 4.328e-6
-0.611, 4.363e-6
-0.612, 4.395e-6
-0.613, 4.428e-6
-0.614, 4.465e-6
-0.615, 4.499e-6
-0.616, 4.532e-6
-0.617, 4.566e-6
-0.618, 4.597e-6
-0.619, 4.632e-6
-0.620, 4.665e-6
-0.621, 4.699e-6
-0.622, 4.732e-6
-0.623, 4.763e-6
-0.624, 4.798e-6
-0.625, 4.832e-6
-0.626, 4.863e-6
-0.627, 4.897e-6
-0.628, 4.931e-6
-0.629, 4.964e-6
-0.630, 4.997e-6
-0.631, 5.031e-6
-0.632, 5.065e-6
-0.633, 5.098e-6
-0.634, 5.130e-6
-0.635, 5.162e-6
-0.636, 5.196e-6
-0.637, 5.230e-6
-0.638, 5.262e-6
-0.639, 5.296e-6
-0.640, 5.329e-6
-0.641, 5.364e-6
-0.642, 5.396e-6
-0.643, 5.428e-6
-0.644, 5.462e-6
-0.645, 5.493e-6
-0.646, 5.528e-6
-0.647, 5.561e-6
-0.648, 5.592e-6
-0.649, 5.626e-6
-0.650, 5.655e-6
-0.651, 5.688e-6
-0.652, 5.720e-6
-0.653, 5.753e-6
-0.654, 5.786e-6
-0.655, 5.818e-6
-0.656, 5.850e-6
-0.657, 5.881e-6
-0.658, 5.909e-6
-0.659, 5.939e-6
-0.660, 5.970e-6
-0.661, 6.001e-6
-0.662, 6.034e-6
-0.663, 6.062e-6
-0.664, 6.095e-6
-0.665, 6.126e-6
-0.666, 6.157e-6
-0.667, 6.185e-6
-0.668, 6.211e-6
-0.669, 6.240e-6
-0.670, 6.268e-6
-0.671, 6.298e-6
-0.672, 6.327e-6
-0.673, 6.356e-6
-0.674, 6.385e-6
-0.675, 6.413e-6
-0.676, 6.440e-6
-0.677, 6.468e-6
-0.678, 6.495e-6
-0.679, 6.524e-6
-0.680, 6.550e-6
-0.681, 6.577e-6
-0.682, 6.604e-6
-0.683, 6.629e-6
-0.684, 6.656e-6
-0.685, 6.680e-6
-0.686, 6.707e-6
-0.687, 6.729e-6
-0.688, 6.755e-6
-0.689, 6.780e-6
-0.690, 6.803e-6
-0.691, 6.828e-6
-0.692, 6.852e-6
-0.693, 6.873e-6
-0.694, 6.895e-6
-0.695, 6.917e-6
-0.696, 6.939e-6
-0.697, 6.960e-6
-0.698, 6.981e-6
-0.699, 7.003e-6
-0.700, 7.022e-6
-0.701, 7.041e-6
-0.702, 7.062e-6
-0.703, 7.080e-6
-0.704, 7.101e-6
-0.705, 7.119e-6
-0.706, 7.137e-6
-0.707, 7.156e-6
-0.708, 7.171e-6
-0.709, 7.189e-6
-0.710, 7.206e-6
-0.711, 7.221e-6
-0.712, 7.237e-6
-0.713, 7.250e-6
-0.714, 7.265e-6
-0.715, 7.280e-6
-0.716, 7.294e-6
-0.717, 7.307e-6
-0.718, 7.321e-6
-0.719, 7.333e-6
-0.720, 7.346e-6
-0.721, 7.358e-6
-0.722, 7.369e-6
-0.723, 7.379e-6
-0.724, 7.390e-6
-0.725, 7.398e-6
-0.726, 7.410e-6
-0.727, 7.418e-6
-0.728, 7.427e-6
-0.729, 7.436e-6
-0.730, 7.444e-6
-0.731, 7.453e-6
-0.732, 7.460e-6
-0.733, 7.466e-6
-0.734, 7.475e-6
-0.735, 7.479e-6
-0.736, 7.486e-6
-0.737, 7.491e-6
-0.738, 7.495e-6
-0.739, 7.500e-6
-0.740, 7.502e-6
-0.741, 7.507e-6
-0.742, 7.512e-6
-0.743, 7.513e-6
-0.744, 7.517e-6
-0.745, 7.520e-6
-0.746, 7.522e-6
-0.747, 7.522e-6
-0.748, 7.524e-6
-0.749, 7.524e-6
-0.750, 7.523e-6
-0.751, 7.523e-6
-0.752, 7.524e-6
-0.753, 7.522e-6
-0.754, 7.522e-6
-0.755, 7.521e-6
-0.756, 7.521e-6
-0.757, 7.518e-6
-0.758, 7.515e-6
-0.759, 7.513e-6
-0.760, 7.509e-6
-0.761, 7.507e-6
-0.762, 7.502e-6
-0.763, 7.499e-6
-0.764, 7.496e-6
-0.765, 7.491e-6
-0.766, 7.487e-6
-0.767, 7.481e-6
-0.768, 7.477e-6
-0.769, 7.473e-6
-0.770, 7.466e-6
-0.771, 7.462e-6
-0.772, 7.454e-6
-0.773, 7.448e-6
-0.774, 7.442e-6
-0.775, 7.433e-6
-0.776, 7.427e-6
-0.777, 7.420e-6
-0.778, 7.412e-6
-0.779, 7.405e-6
-0.780, 7.397e-6
-0.781, 7.390e-6
-0.782, 7.382e-6
-0.783, 7.374e-6
-0.784, 7.366e-6
-0.785, 7.356e-6
-0.786, 7.348e-6
-0.787, 7.340e-6
-0.788, 7.332e-6
-0.789, 7.323e-6
-0.790, 7.313e-6
-0.791, 7.303e-6
-0.792, 7.294e-6
-0.793, 7.284e-6
-0.794, 7.276e-6
-0.795, 7.265e-6
-0.796, 7.256e-6
-0.797, 7.247e-6
-0.798, 7.237e-6
-0.799, 7.227e-6
-0.800, 7.216e-6
-0.801, 7.207e-6
-0.802, 7.195e-6
-0.803, 7.185e-6
-0.804, 7.174e-6
-0.805, 7.164e-6
-0.806, 7.155e-6
-0.807, 7.144e-6
-0.808, 7.132e-6
-0.809, 7.122e-6
-0.810, 7.111e-6
-0.811, 7.101e-6
-0.812, 7.090e-6
-0.813, 7.079e-6
-0.814, 7.067e-6
-0.815, 7.057e-6
-0.816, 7.047e-6
-0.817, 7.035e-6
-0.818, 7.023e-6
-0.819, 7.017e-6
-0.820, 7.007e-6
-0.821, 6.995e-6
-0.822, 6.984e-6
-0.823, 6.973e-6
-0.824, 6.962e-6
-0.825, 6.951e-6
-0.826, 6.940e-6
-0.827, 6.930e-6
-0.828, 6.916e-6
-0.829, 6.908e-6
-0.830, 6.897e-6
-0.831, 6.887e-6
-0.832, 6.877e-6
-0.833, 6.867e-6
-0.834, 6.857e-6
-0.835, 6.845e-6
-0.836, 6.835e-6
-0.837, 6.824e-6
-0.838, 6.814e-6
-0.839, 6.809e-6
-0.840, 6.803e-6
-0.841, 6.793e-6
-0.842, 6.781e-6
-0.843, 6.769e-6
-0.844, 6.759e-6
-0.845, 6.747e-6
-0.846, 6.738e-6
-0.847, 6.727e-6
-0.848, 6.716e-6
-0.849, 6.707e-6
-0.850, 6.696e-6
-0.851, 6.685e-6
-0.852, 6.675e-6
-0.853, 6.665e-6
-0.854, 6.658e-6
-0.855, 6.647e-6
-0.856, 6.637e-6
-0.857, 6.628e-6
-0.858, 6.617e-6
-0.859, 6.609e-6
-0.860, 6.599e-6
-0.861, 6.589e-6
-0.862, 6.580e-6
-0.863, 6.571e-6
-0.864, 6.562e-6
-0.865, 6.553e-6
-0.866, 6.544e-6
-0.867, 6.535e-6
-0.868, 6.526e-6
-0.869, 6.519e-6
-0.870, 6.510e-6
-0.871, 6.502e-6
-0.872, 6.493e-6
-0.873, 6.484e-6
-0.874, 6.476e-6
-0.875, 6.467e-6
-0.876, 6.460e-6
-0.877, 6.452e-6
-0.878, 6.444e-6
-0.879, 6.436e-6
-0.880, 6.429e-6
-0.881, 6.422e-6
-0.882, 6.414e-6
-0.883, 6.405e-6
-0.884, 6.398e-6
-0.885, 6.390e-6
-0.886, 6.383e-6
-0.887, 6.375e-6
-0.888, 6.367e-6
-0.889, 6.361e-6
-0.890, 6.355e-6
-0.891, 6.348e-6
-0.892, 6.340e-6
-0.893, 6.331e-6
-0.894, 6.325e-6
-0.895, 6.318e-6
-0.896, 6.312e-6
-0.897, 6.305e-6
-0.898, 6.298e-6
-0.899, 6.293e-6
-0.900, 6.285e-6
-0.901, 6.279e-6
-0.902, 6.273e-6
-0.903, 6.267e-6
-0.904, 6.261e-6
-0.905, 6.255e-6
-0.906, 6.249e-6
-0.907, 6.243e-6
-0.908, 6.237e-6
-0.909, 6.232e-6
-0.910, 6.227e-6
-0.911, 6.222e-6
-0.912, 6.216e-6
-0.913, 6.211e-6
-0.914, 6.205e-6
-0.915, 6.201e-6
-0.916, 6.196e-6
-0.917, 6.190e-6
-0.918, 6.185e-6
-0.919, 6.180e-6
-0.920, 6.173e-6
-0.921, 6.171e-6
-0.922, 6.165e-6
-0.923, 6.160e-6
-0.924, 6.156e-6
-0.925, 6.152e-6
-0.926, 6.149e-6
-0.927, 6.143e-6
-0.928, 6.138e-6
-0.929, 6.134e-6
-0.930, 6.130e-6
-0.931, 6.127e-6
-0.932, 6.122e-6
-0.933, 6.116e-6
-0.934, 6.114e-6
-0.935, 6.108e-6
-0.936, 6.105e-6
-0.937, 6.101e-6
-0.938, 6.096e-6
-0.939, 6.093e-6
-0.940, 6.090e-6
-0.941, 6.085e-6
-0.942, 6.082e-6
-0.943, 6.076e-6
-0.944, 6.075e-6
-0.945, 6.072e-6
-0.946, 6.069e-6
-0.947, 6.066e-6
-0.948, 6.062e-6
-0.949, 6.058e-6
-0.950, 6.055e-6
-0.951, 6.051e-6
-0.952, 6.048e-6
-0.953, 6.045e-6
-0.954, 6.043e-6
-0.955, 6.040e-6
-0.956, 6.037e-6
-0.957, 6.035e-6
-0.958, 6.031e-6
-0.959, 6.028e-6
-0.960, 6.027e-6
-0.961, 6.024e-6
-0.962, 6.022e-6
-0.963, 6.019e-6
-0.964, 6.018e-6
-0.965, 6.015e-6
-0.966, 6.014e-6
-0.967, 6.011e-6
-0.968, 6.007e-6
-0.969, 6.007e-6
-0.970, 6.005e-6
-0.971, 6.003e-6
-0.972, 6.000e-6
-0.973, 5.999e-6
-0.974, 5.998e-6
-0.975, 5.995e-6
-0.976, 5.993e-6
-0.977, 5.992e-6
-0.978, 5.992e-6
-0.979, 5.990e-6
-0.980, 5.988e-6
-0.981, 5.987e-6
-0.982, 5.986e-6
-0.983, 5.984e-6
-0.984, 5.983e-6
-0.985, 5.983e-6
-0.986, 5.982e-6
-0.987, 5.981e-6
-0.988, 5.979e-6
-0.989, 5.979e-6
-0.990, 5.978e-6
-0.991, 5.978e-6
-0.992, 5.977e-6
-0.993, 5.976e-6
-0.994, 5.975e-6
-0.995, 5.975e-6
-0.996, 5.976e-6
-0.997, 5.975e-6
-0.998, 5.974e-6
-0.999, 5.975e-6
-1.000, 5.975e-6
-1.001, 5.975e-6
-1.002, 5.975e-6
-1.003, 5.975e-6
-1.004, 5.977e-6
-1.005, 5.976e-6
-1.006, 5.976e-6
-1.007, 5.977e-6
-1.008, 5.978e-6
-1.009, 5.980e-6
-1.010, 5.978e-6
-1.011, 5.982e-6
-1.012, 5.982e-6
-1.013, 5.982e-6
-1.014, 5.985e-6
-1.015, 5.985e-6
-1.016, 5.988e-6
-1.017, 5.988e-6
-1.018, 5.990e-6
-1.019, 5.992e-6
-1.020, 5.994e-6
-1.021, 5.996e-6
-1.022, 5.999e-6
-1.023, 6.001e-6
-1.024, 6.007e-6
-1.025, 6.009e-6
-1.026, 6.011e-6
-1.027, 6.014e-6
-1.028, 6.016e-6
-1.029, 6.020e-6
-1.030, 6.023e-6
-1.031, 6.027e-6
-1.032, 6.031e-6
-1.033, 6.034e-6
-1.034, 6.037e-6
-1.035, 6.042e-6
-1.036, 6.046e-6
-1.037, 6.051e-6
-1.038, 6.055e-6
-1.039, 6.060e-6
-1.040, 6.063e-6
-1.041, 6.070e-6
-1.042, 6.073e-6
-1.043, 6.080e-6
-1.044, 6.086e-6
-1.045, 6.091e-6
-1.046, 6.097e-6
-1.047, 6.100e-6
-1.048, 6.106e-6
-1.049, 6.115e-6
-1.050, 6.121e-6
-1.051, 6.129e-6
-1.052, 6.135e-6
-1.053, 6.140e-6
-1.054, 6.149e-6
-1.055, 6.155e-6
-1.056, 6.163e-6
-1.057, 6.169e-6
-1.058, 6.177e-6
-1.059, 6.185e-6
-1.060, 6.191e-6
-1.061, 6.199e-6
-1.062, 6.207e-6
-1.063, 6.215e-6
-1.064, 6.223e-6
-1.065, 6.233e-6
-1.066, 6.241e-6
-1.067, 6.250e-6
-1.068, 6.260e-6
-1.069, 6.269e-6
-1.070, 6.279e-6
-1.071, 6.288e-6
-1.072, 6.299e-6
-1.073, 6.309e-6
-1.074, 6.320e-6
-1.075, 6.332e-6
-1.076, 6.344e-6
-1.077, 6.355e-6
-1.078, 6.367e-6
-1.079, 6.379e-6
-1.080, 6.389e-6
-1.081, 6.401e-6
-1.082, 6.413e-6
-1.083, 6.425e-6
-1.084, 6.437e-6
-1.085, 6.448e-6
-1.086, 6.462e-6
-1.087, 6.473e-6
-1.088, 6.487e-6
-1.089, 6.501e-6
-1.090, 6.514e-6
-1.091, 6.528e-6
-1.092, 6.540e-6
-1.093, 6.554e-6
-1.094, 6.570e-6
-1.095, 6.583e-6
-1.096, 6.597e-6
-1.097, 6.611e-6
-1.098, 6.624e-6
-1.099, 6.641e-6
-1.100, 6.655e-6
-1.101, 6.671e-6
-1.102, 6.686e-6
-1.103, 6.701e-6
-1.104, 6.717e-6
-1.105, 6.731e-6
-1.106, 6.745e-6
-1.107, 6.761e-6
-1.108, 6.776e-6
-1.109, 6.792e-6
-1.110, 6.808e-6
-1.111, 6.824e-6
-1.112, 6.839e-6
-1.113, 6.855e-6
-1.114, 6.871e-6
-1.115, 6.885e-6
-1.116, 6.901e-6
-1.117, 6.916e-6
-1.118, 6.932e-6
-1.119, 6.948e-6
-1.120, 6.964e-6
-1.121, 6.980e-6
-1.122, 6.994e-6
-1.123, 7.010e-6
-1.124, 7.027e-6
-1.125, 7.042e-6
-1.126, 7.059e-6
-1.127, 7.077e-6
-1.128, 7.091e-6
-1.129, 7.110e-6
-1.130, 7.126e-6
-1.131, 7.142e-6
-1.132, 7.158e-6
-1.133, 7.174e-6
-1.134, 7.191e-6
-1.135, 7.205e-6
-1.136, 7.222e-6
-1.137, 7.239e-6
-1.138, 7.252e-6
-1.139, 7.269e-6
-1.140, 7.285e-6
-1.141, 7.300e-6
-1.142, 7.315e-6
-1.143, 7.329e-6
-1.144, 7.345e-6
-1.145, 7.361e-6
-1.146, 7.377e-6
-1.147, 7.392e-6
-1.148, 7.408e-6
-1.149, 7.425e-6
-1.150, 7.441e-6
-1.151, 7.455e-6
-1.152, 7.470e-6
-1.153, 7.487e-6
-1.154, 7.503e-6
-1.155, 7.517e-6
-1.156, 7.533e-6
-1.157, 7.546e-6
-1.158, 7.561e-6
-1.159, 7.575e-6
-1.160, 7.590e-6
-1.161, 7.606e-6
-1.162, 7.621e-6
-1.163, 7.636e-6
-1.164, 7.651e-6
-1.165, 7.664e-6
-1.166, 7.680e-6
-1.167, 7.695e-6
-1.168, 7.708e-6
-1.169, 7.725e-6
-1.170, 7.738e-6
-1.171, 7.754e-6
-1.172, 7.769e-6
-1.173, 7.782e-6
-1.174, 7.797e-6
-1.175, 7.809e-6
-1.176, 7.824e-6
-1.177, 7.838e-6
-1.178, 7.852e-6
-1.179, 7.867e-6
-1.180, 7.879e-6
-1.181, 7.893e-6
-1.182, 7.907e-6
-1.183, 7.919e-6
-1.184, 7.932e-6
-1.185, 7.947e-6
-1.186, 7.961e-6
-1.187, 7.974e-6
-1.188, 7.986e-6
-1.189, 8.000e-6
-1.190, 8.014e-6
-1.191, 8.029e-6
-1.192, 8.038e-6
-1.193, 8.051e-6
-1.194, 8.065e-6
-1.195, 8.077e-6
-1.196, 8.090e-6
-1.197, 8.104e-6
-1.198, 8.117e-6
-1.199, 8.128e-6
-1.200, 8.141e-6
-1.201, 8.155e-6
-1.202, 8.165e-6
-1.203, 8.177e-6
-1.204, 8.190e-6
-1.205, 8.203e-6
-1.206, 8.217e-6
-1.207, 8.229e-6
-1.208, 8.242e-6
-1.209, 8.258e-6
-1.210, 8.269e-6
-1.211, 8.281e-6
-1.212, 8.292e-6
-1.213, 8.304e-6
-1.214, 8.318e-6
-1.215, 8.329e-6
-1.216, 8.342e-6
-1.217, 8.353e-6
-1.218, 8.363e-6
-1.219, 8.378e-6
-1.220, 8.394e-6
-1.221, 8.406e-6
-1.222, 8.418e-6
-1.223, 8.428e-6
-1.224, 8.440e-6
-1.225, 8.452e-6
-1.226, 8.463e-6
-1.227, 8.474e-6
-1.228, 8.483e-6
-1.229, 8.499e-6
-1.230, 8.510e-6
-1.231, 8.521e-6
-1.232, 8.532e-6
-1.233, 8.544e-6
-1.234, 8.557e-6
-1.235, 8.569e-6
-1.236, 8.581e-6
-1.237, 8.592e-6
-1.238, 8.603e-6
-1.239, 8.614e-6
-1.240, 8.624e-6
-1.241, 8.635e-6
-1.242, 8.645e-6
-1.243, 8.654e-6
-1.244, 8.666e-6
-1.245, 8.677e-6
-1.246, 8.689e-6
-1.247, 8.698e-6
-1.248, 8.710e-6
-1.249, 8.720e-6
-1.250, 8.730e-6
-1.251, 8.743e-6
-1.252, 8.752e-6
-1.253, 8.761e-6
-1.254, 8.771e-6
-1.255, 8.780e-6
-1.256, 8.790e-6
-1.257, 8.799e-6
-1.258, 8.810e-6
-1.259, 8.824e-6
-1.260, 8.833e-6
-1.261, 8.842e-6
-1.262, 8.853e-6
-1.263, 8.862e-6
-1.264, 8.872e-6
-1.265, 8.879e-6
-1.266, 8.889e-6
-1.267, 8.898e-6
-1.268, 8.908e-6
-1.269, 8.916e-6
-1.270, 8.926e-6
-1.271, 8.938e-6
-1.272, 8.948e-6
-1.273, 8.957e-6
-1.274, 8.969e-6
-1.275, 8.978e-6
-1.276, 8.991e-6
-1.277, 9.003e-6
-1.278, 9.012e-6
-1.279, 9.023e-6
-1.280, 9.035e-6
-1.281, 9.046e-6
-1.282, 9.054e-6
-1.283, 9.065e-6
-1.284, 9.077e-6
-1.285, 9.085e-6
-1.286, 9.095e-6
-1.287, 9.104e-6
-1.288, 9.113e-6
-1.289, 9.124e-6
-1.290, 9.131e-6
-1.291, 9.140e-6
-1.292, 9.148e-6
-1.293, 9.155e-6
-1.294, 9.166e-6
-1.295, 9.173e-6
-1.296, 9.184e-6
-1.297, 9.191e-6
-1.298, 9.202e-6
-1.299, 9.213e-6
-1.300, 9.223e-6
-1.301, 9.232e-6
-1.302, 9.243e-6
-1.303, 9.250e-6
-1.304, 9.260e-6
-1.305, 9.271e-6
-1.306, 9.282e-6
-1.307, 9.291e-6
-1.308, 9.298e-6
-1.309, 9.309e-6
-1.310, 9.317e-6
-1.311, 9.327e-6
-1.312, 9.336e-6
-1.313, 9.345e-6
-1.314, 9.354e-6
-1.315, 9.361e-6
-1.316, 9.370e-6
-1.317, 9.377e-6
-1.318, 9.386e-6
-1.319, 9.394e-6
-1.320, 9.398e-6
-1.321, 9.406e-6
-1.322, 9.413e-6
-1.323, 9.421e-6
-1.324, 9.431e-6
-1.325, 9.436e-6
-1.326, 9.444e-6
-1.327, 9.452e-6
-1.328, 9.463e-6
-1.329, 9.473e-6
-1.330, 9.483e-6
-1.331, 9.496e-6
-1.332, 9.503e-6
-1.333, 9.509e-6
-1.334, 9.519e-6
-1.335, 9.527e-6
-1.336, 9.536e-6
-1.337, 9.545e-6
-1.338, 9.553e-6
-1.339, 9.560e-6
-1.340, 9.569e-6
-1.341, 9.579e-6
-1.342, 9.585e-6
-1.343, 9.593e-6
-1.344, 9.604e-6
-1.345, 9.612e-6
-1.346, 9.618e-6
-1.347, 9.630e-6
-1.348, 9.639e-6
-1.349, 9.648e-6
-1.350, 9.663e-6
-1.351, 9.667e-6
-1.352, 9.669e-6
-1.353, 9.673e-6
-1.354, 9.686e-6
-1.355, 9.695e-6
-1.356, 9.703e-6
-1.357, 9.714e-6
-1.358, 9.722e-6
-1.359, 9.728e-6
-1.360, 9.739e-6
-1.361, 9.749e-6
-1.362, 9.756e-6
-1.363, 9.764e-6
-1.364, 9.775e-6
-1.365, 9.782e-6
-1.366, 9.791e-6
-1.367, 9.797e-6
-1.368, 9.802e-6
-1.369, 9.811e-6
-1.370, 9.823e-6
-1.371, 9.832e-6
-1.372, 9.834e-6
-1.373, 9.841e-6
-1.374, 9.854e-6
-1.375, 9.861e-6
-1.376, 9.872e-6
-1.377, 9.883e-6
-1.378, 9.891e-6
-1.379, 9.901e-6
-1.380, 9.908e-6
-1.381, 9.917e-6
-1.382, 9.927e-6
-1.383, 9.939e-6
-1.384, 9.942e-6
-1.385, 9.952e-6
-1.386, 9.960e-6
-1.387, 9.972e-6
-1.388, 9.982e-6
-1.389, 9.991e-6
-1.390, 1.000e-5
-1.391, 1.001e-5
-1.392, 1.002e-5
-1.393, 1.003e-5
-1.394, 1.004e-5
-1.395, 1.004e-5
-1.396, 1.006e-5
-1.397, 1.007e-5
-1.398, 1.008e-5
-1.399, 1.008e-5
-1.400, 1.010e-5
-1.401, 1.011e-5
-1.402, 1.012e-5
-1.403, 1.013e-5
-1.404, 1.014e-5
-1.405, 1.015e-5
-1.406, 1.015e-5
-1.407, 1.016e-5
-1.408, 1.017e-5
-1.409, 1.018e-5
-1.410, 1.019e-5
-1.411, 1.021e-5
-1.412, 1.023e-5
-1.413, 1.026e-5
-1.414, 1.026e-5
-1.415, 1.026e-5
-1.416, 1.027e-5
-1.417, 1.028e-5
-1.418, 1.029e-5
-1.419, 1.030e-5
-1.420, 1.031e-5
-1.421, 1.033e-5
-1.422, 1.034e-5
-1.423, 1.035e-5
-1.424, 1.037e-5
-1.425, 1.038e-5
-1.426, 1.039e-5
-1.427, 1.041e-5
-1.428, 1.043e-5
-1.429, 1.044e-5
-1.430, 1.045e-5
-1.431, 1.046e-5
-1.432, 1.048e-5
-1.433, 1.049e-5
-1.434, 1.051e-5
-1.435, 1.053e-5
-1.436, 1.054e-5
-1.437, 1.056e-5
-1.438, 1.058e-5
-1.439, 1.058e-5
-1.440, 1.060e-5
-1.441, 1.062e-5
-1.442, 1.063e-5
-1.443, 1.064e-5
-1.444, 1.066e-5
-1.445, 1.067e-5
-1.446, 1.069e-5
-1.447, 1.070e-5
-1.448, 1.072e-5
-1.449, 1.074e-5
-1.450, 1.076e-5
-1.451, 1.078e-5
-1.452, 1.079e-5
-1.453, 1.081e-5
-1.454, 1.083e-5
-1.455, 1.084e-5
-1.456, 1.085e-5
-1.457, 1.087e-5
-1.458, 1.089e-5
-1.459, 1.091e-5
-1.460, 1.093e-5
-1.461, 1.095e-5
-1.462, 1.098e-5
-1.463, 1.099e-5
-1.464, 1.101e-5
-1.465, 1.103e-5
-1.466, 1.105e-5
-1.467, 1.107e-5
-1.468, 1.110e-5
-1.469, 1.112e-5
-1.470, 1.114e-5
-1.471, 1.117e-5
-1.472, 1.119e-5
-1.473, 1.122e-5
-1.474, 1.124e-5
-1.475, 1.126e-5
-1.476, 1.129e-5
-1.477, 1.132e-5
-1.478, 1.134e-5
-1.479, 1.137e-5
-1.480, 1.140e-5
-1.481, 1.142e-5
-1.482, 1.144e-5
-1.483, 1.148e-5
-1.484, 1.150e-5
-1.485, 1.153e-5
-1.486, 1.156e-5
-1.487, 1.159e-5
-1.488, 1.162e-5
-1.489, 1.165e-5
-1.490, 1.168e-5
-1.491, 1.172e-5
-1.492, 1.175e-5
-1.493, 1.178e-5
-1.494, 1.182e-5
-1.495, 1.185e-5
-1.496, 1.189e-5
-1.497, 1.192e-5
-1.498, 1.196e-5
-1.499, 1.199e-5
-1.500, 1.203e-5
-1.501, 1.206e-5
-1.502, 1.209e-5
-1.503, 1.213e-5
-1.504, 1.216e-5
-1.505, 1.221e-5
-1.506, 1.225e-5
-1.507, 1.230e-5
-1.508, 1.234e-5
-1.509, 1.238e-5
-1.510, 1.242e-5
-1.511, 1.246e-5
-1.512, 1.251e-5
-1.513, 1.255e-5
-1.514, 1.260e-5
-1.515, 1.265e-5
-1.516, 1.270e-5
-1.517, 1.275e-5
-1.518, 1.280e-5
-1.519, 1.285e-5
-1.520, 1.290e-5
-1.521, 1.296e-5
-1.522, 1.301e-5
-1.523, 1.306e-5
-1.524, 1.312e-5
-1.525, 1.318e-5
-1.526, 1.324e-5
-1.527, 1.329e-5
-1.528, 1.336e-5
-1.529, 1.342e-5
-1.530, 1.348e-5
-1.531, 1.355e-5
-1.532, 1.362e-5
-1.533, 1.368e-5
-1.534, 1.375e-5
-1.535, 1.381e-5
-1.536, 1.388e-5
-1.537, 1.395e-5
-1.538, 1.402e-5
-1.539, 1.410e-5
-1.540, 1.417e-5
-1.541, 1.425e-5
-1.542, 1.432e-5
-1.543, 1.440e-5
-1.544, 1.448e-5
-1.545, 1.456e-5
-1.546, 1.465e-5
-1.547, 1.474e-5
-1.548, 1.482e-5
-1.549, 1.491e-5
-1.550, 1.500e-5
-1.551, 1.510e-5
-1.552, 1.520e-5
-1.553, 1.529e-5
-1.554, 1.538e-5
-1.555, 1.548e-5
-1.556, 1.557e-5
-1.557, 1.568e-5
-1.558, 1.579e-5
-1.559, 1.589e-5
-1.560, 1.601e-5
-1.561, 1.612e-5
-1.562, 1.624e-5
-1.563, 1.636e-5
-1.564, 1.648e-5
-1.565, 1.661e-5
-1.566, 1.673e-5
-1.567, 1.686e-5
-1.568, 1.699e-5
-1.569, 1.712e-5
-1.570, 1.725e-5
-1.571, 1.739e-5
-1.572, 1.752e-5
-1.573, 1.766e-5
-1.574, 1.779e-5
-1.575, 1.794e-5
-1.576, 1.808e-5
-1.577, 1.823e-5
-1.578, 1.839e-5
-1.579, 1.855e-5
-1.580, 1.871e-5
-1.581, 1.887e-5
-1.582, 1.904e-5
-1.583, 1.921e-5
-1.584, 1.939e-5
-1.585, 1.957e-5
-1.586, 1.976e-5
-1.587, 1.995e-5
-1.588, 2.015e-5
-1.589, 2.034e-5
-1.590, 2.054e-5
-1.591, 2.074e-5
-1.592, 2.095e-5
-1.593, 2.117e-5
-1.594, 2.139e-5
-1.595, 2.161e-5
-1.596, 2.184e-5
-1.597, 2.206e-5
-1.598, 2.230e-5
-1.599, 2.253e-5
-1.600, 2.278e-5
-1.601, 2.303e-5
-1.602, 2.328e-5
-1.603, 2.352e-5
-1.604, 2.379e-5
-1.605, 2.407e-5
-1.606, 2.435e-5
-1.607, 2.463e-5
-1.608, 2.490e-5
-1.609, 2.519e-5
-1.610, 2.548e-5
-1.611, 2.578e-5
-1.612, 2.609e-5
-1.613, 2.641e-5
-1.614, 2.674e-5
-1.615, 2.706e-5
-1.616, 2.740e-5
-1.617, 2.774e-5
-1.618, 2.809e-5
-1.619, 2.847e-5
-1.620, 2.883e-5
-1.621, 2.921e-5
-1.622, 2.959e-5
-1.623, 2.998e-5
-1.624, 3.037e-5
-1.625, 3.078e-5
-1.626, 3.119e-5
-1.627, 3.161e-5
-1.628, 3.203e-5
-1.629, 3.246e-5
-1.630, 3.289e-5
-1.631, 3.333e-5
-1.632, 3.378e-5
-1.633, 3.424e-5
-1.634, 3.473e-5
-1.635, 3.522e-5
-1.636, 3.573e-5
-1.637, 3.623e-5
-1.638, 3.676e-5
-1.639, 3.729e-5
-1.640, 3.782e-5
-1.641, 3.838e-5
-1.642, 3.895e-5
-1.643, 3.953e-5
-1.644, 4.010e-5
-1.645, 4.069e-5
-1.646, 4.130e-5
-1.647, 4.192e-5
-1.648, 4.254e-5
-1.649, 4.317e-5
-1.650, 4.380e-5
-1.651, 4.444e-5
-1.652, 4.509e-5
-1.653, 4.576e-5
-1.654, 4.645e-5
-1.655, 4.716e-5
-1.656, 4.789e-5
-1.657, 4.863e-5
-1.658, 4.938e-5
-1.659, 5.015e-5
-1.660, 5.098e-5
-1.661, 5.178e-5
-1.662, 5.257e-5
-1.663, 5.334e-5
-1.664, 5.413e-5
-1.665, 5.497e-5
-1.666, 5.581e-5
-1.667, 5.669e-5
-1.668, 5.758e-5
-1.669, 5.851e-5
-1.670, 5.944e-5
-1.671, 6.035e-5
-1.672, 6.131e-5
-1.673, 6.223e-5
-1.674, 6.321e-5
-1.675, 6.424e-5
-1.676, 6.525e-5
-1.677, 6.630e-5
-1.678, 6.738e-5
-1.679, 6.853e-5
-1.680, 6.956e-5
-1.681, 7.058e-5
-1.682, 7.165e-5
-1.683, 7.274e-5
-1.684, 7.384e-5
-1.685, 7.500e-5
-1.686, 7.616e-5
-1.687, 7.736e-5
-1.688, 7.864e-5
-1.689, 7.985e-5
-1.690, 8.115e-5
-1.691, 8.243e-5
-1.692, 8.364e-5
-1.693, 8.495e-5
-1.694, 8.626e-5
-1.695, 8.773e-5
-1.696, 8.918e-5
-1.697, 9.051e-5
-1.698, 9.181e-5
-1.699, 9.320e-5
-1.700, 9.461e-5
-1.701, 9.609e-5
-1.702, 9.751e-5
-1.703, 9.893e-5
-1.704, 1.005e-4
-1.705, 1.021e-4
-1.706, 1.037e-4
-1.707, 1.053e-4
-1.708, 1.068e-4
-1.709, 1.084e-4
-1.710, 1.101e-4
-1.711, 1.117e-4
-1.712, 1.135e-4
-1.713, 1.152e-4
-1.714, 1.170e-4
-1.715, 1.187e-4
-1.716, 1.206e-4
-1.717, 1.225e-4
-1.718, 1.244e-4
-1.719, 1.264e-4
-1.720, 1.283e-4
-1.721, 1.304e-4
-1.722, 1.325e-4
-1.723, 1.347e-4
-1.724, 1.369e-4
-1.725, 1.391e-4
-1.726, 1.414e-4
-1.727, 1.437e-4
-1.728, 1.461e-4
-1.729, 1.486e-4
-1.730, 1.510e-4
-1.731, 1.535e-4
-1.732, 1.561e-4
-1.733, 1.588e-4
-1.734, 1.615e-4
-1.735, 1.643e-4
-1.736, 1.672e-4
-1.737, 1.702e-4
-1.738, 1.732e-4
-1.739, 1.762e-4
-1.740, 1.794e-4
-1.741, 1.826e-4
-1.742, 1.860e-4
-1.743, 1.894e-4
-1.744, 1.929e-4
-1.745, 1.966e-4
-1.746, 2.003e-4
-1.747, 2.041e-4
-1.748, 2.079e-4
-1.749, 2.118e-4
-1.750, 2.159e-4
-1.751, 2.201e-4
-1.752, 2.244e-4
-1.753, 2.288e-4
-1.754, 2.334e-4
-1.755, 2.380e-4
-1.756, 2.427e-4
-1.757, 2.475e-4
-1.758, 2.525e-4
-1.759, 2.575e-4
-1.760, 2.627e-4
-1.761, 2.679e-4
-1.762, 2.732e-4
-1.763, 2.787e-4
-1.764, 2.843e-4
-1.765, 2.899e-4
-1.766, 2.957e-4
-1.767, 3.015e-4
-1.768, 3.075e-4
-1.769, 3.137e-4
-1.770, 3.199e-4
-1.771, 3.262e-4
-1.772, 3.325e-4
-1.773, 3.390e-4
-1.774, 3.455e-4
-1.775, 3.522e-4
-1.776, 3.588e-4
-1.777, 3.654e-4
-1.778, 3.722e-4
-1.779, 3.789e-4
-1.780, 3.858e-4
-1.781, 3.927e-4
-1.782, 3.995e-4
-1.783, 4.063e-4
-1.784, 4.132e-4
-1.785, 4.201e-4
-1.786, 4.271e-4
-1.787, 4.340e-4
-1.788, 4.409e-4
-1.789, 4.479e-4
-1.790, 4.550e-4
-1.791, 4.620e-4
-1.792, 4.691e-4
-1.793, 4.762e-4
-1.794, 4.832e-4
-1.795, 4.903e-4
-1.796, 4.974e-4
-1.797, 5.045e-4
-1.798, 5.117e-4
-1.799, 5.188e-4
-1.800, 5.260e-4
-1.801, 5.332e-4
-1.802, 5.404e-4
-1.803, 5.477e-4
-1.804, 5.549e-4
-1.805, 5.623e-4
-1.806, 5.696e-4
-1.807, 5.770e-4
-1.808, 5.843e-4
-1.809, 5.916e-4
-1.810, 5.989e-4
-1.811, 6.062e-4
-1.812, 6.136e-4
-1.813, 6.210e-4
-1.814, 6.284e-4
-1.815, 6.358e-4
-1.816, 6.431e-4
-1.817, 6.505e-4
-1.818, 6.579e-4
-1.819, 6.654e-4
-1.820, 6.729e-4
-1.821, 6.804e-4
-1.822, 6.878e-4
-1.823, 6.953e-4
-1.824, 7.028e-4
-1.825, 7.103e-4
-1.826, 7.179e-4
-1.827, 7.255e-4
-1.828, 7.331e-4
-1.829, 7.406e-4
-1.830, 7.483e-4
-1.831, 7.559e-4
-1.832, 7.635e-4
-1.833, 7.711e-4
-1.834, 7.788e-4
-1.835, 7.864e-4
-1.836, 7.940e-4
-1.837, 8.018e-4
-1.838, 8.095e-4
-1.839, 8.171e-4
-1.840, 8.249e-4
-1.841, 8.326e-4
-1.842, 8.403e-4
-1.843, 8.481e-4
-1.844, 8.559e-4
-1.845, 8.637e-4
-1.846, 8.715e-4
-1.847, 8.794e-4
-1.848, 8.873e-4
-1.849, 8.951e-4
-1.850, 9.030e-4
-1.851, 9.109e-4
-1.852, 9.189e-4
-1.853, 9.268e-4
-1.854, 9.347e-4
-1.855, 9.426e-4
-1.856, 9.506e-4
-1.857, 9.584e-4
-1.858, 9.663e-4
-1.859, 9.742e-4
-1.860, 9.822e-4
-1.861, 9.901e-4
-1.862, 9.980e-4
-1.863, 1.006e-3
-1.864, 1.011e-3
-1.865, 1.011e-3
-1.866, 1.011e-3
-1.867, 1.011e-3
-1.868, 1.011e-3
-1.869, 1.011e-3
-1.870, 1.011e-3
-1.871, 1.011e-3
-1.872, 1.011e-3
-1.873, 1.011e-3
-1.874, 1.011e-3
-1.875, 1.011e-3
-1.876, 1.011e-3
-1.877, 1.011e-3
-1.878, 1.011e-3
-1.879, 1.011e-3
-1.880, 1.011e-3
-1.881, 1.011e-3
-1.882, 1.011e-3
-1.883, 1.011e-3
-1.884, 1.011e-3
-1.885, 1.011e-3
-1.886, 1.011e-3
-1.887, 1.011e-3
-1.888, 1.011e-3
-1.889, 1.011e-3
-1.890, 1.011e-3
-1.891, 1.011e-3
-1.892, 1.011e-3
-1.893, 1.011e-3
-1.894, 1.011e-3
-1.895, 1.011e-3
-1.896, 1.011e-3
-1.897, 1.011e-3
-1.898, 1.011e-3
-1.899, 1.011e-3
-1.900, 1.011e-3
-1.901, 1.011e-3
-1.902, 1.011e-3
-1.903, 1.011e-3
-1.904, 1.011e-3
-1.905, 1.011e-3
-1.906, 1.011e-3
-1.907, 1.011e-3
-1.908, 1.011e-3
-1.909, 1.011e-3
-1.910, 1.011e-3
-1.911, 1.011e-3
-1.912, 1.011e-3
-1.913, 1.011e-3
-1.914, 1.011e-3
-1.915, 1.011e-3
-1.916, 1.011e-3
-1.917, 1.011e-3
-1.918, 1.011e-3
-1.919, 1.011e-3
-1.920, 1.011e-3
-1.921, 1.011e-3
-1.922, 1.011e-3
-1.923, 1.011e-3
-1.924, 1.011e-3
-1.925, 1.011e-3
-1.926, 1.011e-3
-1.927, 1.011e-3
-1.928, 1.011e-3
-1.929, 1.011e-3
-1.930, 1.011e-3
-1.931, 1.011e-3
-1.932, 1.011e-3
-1.933, 1.011e-3
-1.934, 1.011e-3
-1.935, 1.011e-3
-1.936, 1.011e-3
-1.937, 1.011e-3
-1.938, 1.011e-3
-1.939, 1.011e-3
-1.940, 1.011e-3
-1.941, 1.011e-3
-1.942, 1.011e-3
-1.943, 1.011e-3
-1.944, 1.011e-3
-1.945, 1.011e-3
-1.946, 1.011e-3
-1.947, 1.011e-3
-1.948, 1.011e-3
-1.949, 1.011e-3
-1.950, 1.011e-3
-1.951, 1.011e-3
-1.952, 1.011e-3
-1.953, 1.011e-3
-1.954, 1.011e-3
-1.955, 1.011e-3
-1.956, 1.011e-3
-1.957, 1.011e-3
-1.958, 1.011e-3
-1.959, 1.011e-3
-1.960, 1.011e-3
-1.961, 1.011e-3
-1.962, 1.011e-3
-1.963, 1.011e-3
-1.964, 1.011e-3
-1.965, 1.011e-3
-1.966, 1.011e-3
-1.967, 1.011e-3
-1.968, 1.011e-3
-1.969, 1.011e-3
-1.970, 1.011e-3
-1.971, 1.011e-3
-1.972, 1.011e-3
-1.973, 1.011e-3
-1.974, 1.011e-3
-1.975, 1.011e-3
-1.976, 1.011e-3
-1.977, 1.011e-3
-1.978, 1.011e-3
-1.979, 1.011e-3
-1.980, 1.011e-3
-1.981, 1.011e-3
-1.982, 1.011e-3
-1.983, 1.011e-3
-1.984, 1.011e-3
-1.985, 1.011e-3
-1.986, 1.011e-3
-1.987, 1.011e-3
-1.988, 1.011e-3
-1.989, 1.011e-3
-1.990, 1.011e-3
-1.991, 1.011e-3
-1.992, 1.011e-3
-1.993, 1.011e-3
-1.994, 1.011e-3
-1.995, 1.011e-3
-1.996, 1.011e-3
-1.997, 1.011e-3
-1.998, 1.011e-3
-1.999, 1.011e-3
-2.000, 1.011e-3
-2.001, 1.011e-3
-2.002, 1.011e-3
-2.003, 1.011e-3
-2.004, 1.011e-3
-2.005, 1.011e-3
-2.006, 1.011e-3
-2.007, 1.011e-3
-2.008, 1.011e-3
-2.009, 1.011e-3
-2.010, 1.011e-3
-2.011, 1.011e-3
-2.012, 1.011e-3
-2.013, 1.011e-3
-2.014, 1.011e-3
-2.015, 1.011e-3
-2.016, 1.011e-3
-2.017, 1.011e-3
-2.018, 1.011e-3
-2.019, 1.011e-3
-2.020, 1.011e-3
-2.021, 1.011e-3
-2.022, 1.011e-3
-2.023, 1.011e-3
-2.024, 1.011e-3
-2.025, 1.011e-3
-2.026, 1.011e-3
-2.027, 1.011e-3
-2.028, 1.011e-3
-2.029, 1.011e-3
-2.030, 1.011e-3
-2.031, 1.011e-3
-2.032, 1.011e-3
-2.033, 1.011e-3
-2.034, 1.011e-3
-2.035, 1.011e-3
-2.036, 1.011e-3
-2.037, 1.011e-3
-2.038, 1.011e-3
-2.039, 1.011e-3
-2.040, 1.011e-3
-2.041, 1.011e-3
-2.042, 1.011e-3
-2.043, 1.011e-3
-2.044, 1.011e-3
-2.045, 1.011e-3
-2.046, 1.011e-3
-2.047, 1.011e-3
-2.048, 1.011e-3
-2.049, 1.011e-3
-2.050, 1.011e-3
-2.051, 1.011e-3
-2.052, 1.011e-3
-2.053, 1.011e-3
-2.054, 1.011e-3
-2.055, 1.011e-3
-2.056, 1.011e-3
-2.057, 1.011e-3
-2.058, 1.011e-3
-2.059, 1.011e-3
-2.060, 1.011e-3
-2.061, 1.011e-3
-2.062, 1.011e-3
-2.063, 1.011e-3
-2.064, 1.011e-3
-2.065, 1.011e-3
-2.066, 1.011e-3
-2.067, 1.011e-3
-2.068, 1.011e-3
-2.069, 1.011e-3
-2.070, 1.011e-3
-2.071, 1.011e-3
-2.072, 1.011e-3
-2.073, 1.011e-3
-2.074, 1.011e-3
-2.075, 1.011e-3
-2.076, 1.011e-3
-2.077, 1.011e-3
-2.078, 1.011e-3
-2.079, 1.011e-3
-2.080, 1.011e-3
-2.081, 1.011e-3
-2.082, 1.011e-3
-2.083, 1.011e-3
-2.084, 1.011e-3
-2.085, 1.011e-3
-2.086, 1.011e-3
-2.087, 1.011e-3
-2.088, 1.011e-3
-2.089, 1.011e-3
-2.090, 1.011e-3
-2.091, 1.011e-3
-2.092, 1.011e-3
-2.093, 1.011e-3
-2.094, 1.011e-3
-2.095, 1.011e-3
-2.096, 1.011e-3
-2.097, 1.011e-3
-2.098, 1.011e-3
-2.099, 1.011e-3
