Potential V vs RHE, Current mA cm-2
0.013299999999999867,-0.45907381680620446
0.012299999999999978,-1.5038381117565338
0.011299999999999866,-2.0357695605057877
0.010299999999999976,-2.3653972933743415
0.009299999999999864,-2.6200453273500477
0.008299999999999974,-2.8096166415319628
0.007299999999999862,-2.975137863616172
0.006299999999999972,-3.1081207258034858
0.00529999999999986,-3.211394650693633
0.0042999999999999705,-3.3274009772825663
0.0032999999999998586,-3.4518955716706894
0.0022999999999999687,-3.545266517461782
0.0012999999999998568,-3.6372227519530096
0.00029999999999996696,-3.716446584745451
-0.000700000000000145,-3.811232241836409
-0.0017000000000000348,-3.901773765027771
-0.0027000000000001467,-3.9852417317198086
-0.0037000000000000366,-4.0644655645122505
-0.0047000000000001485,-4.143689397304692
-0.005700000000000038,-4.215839673597809
-0.00670000000000015,-4.314869464588361
-0.00770000000000004,-4.413899255578914
-0.008700000000000152,-4.508684912669872
-0.009700000000000042,-4.597811724561368
-0.010700000000000154,-4.685523825153001
-0.011700000000000044,-4.773235925744634
-0.012700000000000156,-4.862362737636131
-0.013700000000000045,-4.924610034830192
-0.014700000000000157,-5.0094927128220945
-0.015700000000000047,-5.0943753908139975
-0.01670000000000016,-5.214625851302525
-0.01770000000000005,-5.324973332691998
-0.01870000000000016,-5.41268543328363
-0.01970000000000005,-5.518788780773508
-0.020700000000000163,-5.62064799436379
-0.021700000000000053,-5.729580764453398
-0.022700000000000164,-5.847001802342197
-0.023700000000000054,-5.953105149832074
-0.024700000000000166,-6.074770321620467
-0.025700000000000056,-6.192191359509266
-0.026700000000000168,-6.303953552198603
-0.027700000000000058,-6.408642188388616
-0.02870000000000017,-6.496354288980249
-0.02970000000000006,-6.629337151167562
-0.03070000000000017,-6.770808281154065
-0.03170000000000006,-6.90944998854084
-0.03270000000000017,-7.024041603829907
-0.03370000000000006,-7.135803796519245
-0.034700000000000175,-7.278689637805614
-0.035700000000000065,-7.4229901903918485
-0.03670000000000018,-7.565876031678216
-0.03770000000000007,-7.724323697263101
-0.03870000000000018,-7.848818291651225
-0.03970000000000007,-7.950677505241506
-0.04070000000000018,-8.107710459526524
-0.04170000000000007,-8.261913991211815
-0.04270000000000018,-8.416117522897103
-0.04370000000000007,-8.560418075483337
-0.044700000000000184,-8.690571515070921
-0.045700000000000074,-8.84477504675621
-0.046700000000000186,-9.023028670539205
-0.047700000000000076,-9.171573357025034
-0.04870000000000019,-9.330021022609918
-0.04970000000000008,-9.488468688194802
-0.05070000000000019,-9.63701337468063
-0.05170000000000008,-9.80536401936457
-0.05270000000000019,-9.98503235444743
-0.05370000000000008,-10.143480020032312
-0.05470000000000019,-10.277877593519491
-0.05570000000000008,-10.420763434805862
-0.056700000000000195,-10.62589657328629
-0.057700000000000085,-10.822541443967529
-0.058700000000000196,-10.97391555305309
-0.059700000000000086,-11.152169176836084
-0.0607000000000002,-11.31627568762043
-0.06170000000000009,-11.503017579202615
-0.0627000000000002,-11.70673600638318
-0.06370000000000009,-11.863768960668198
-0.0647000000000002,-12.039193161851461
-0.06570000000000009,-12.228764476033378
-0.0667000000000002,-12.411262233715968
-0.0677000000000001,-12.609321815697072
-0.0687000000000002,-12.793234284679526
-0.0697000000000001,-12.967243774562927
-0.07070000000000021,-13.173791624343222
-0.0717000000000001,-13.32516573342878
-0.07270000000000021,-13.534543005808807
-0.0737000000000001,-13.68733182619423
-0.07470000000000021,-13.854267759578304
-0.0757000000000001,-14.072133299757521
-0.07670000000000021,-14.274437015638219
-0.0777000000000001,-14.430055258623375
-0.07870000000000021,-14.642261953603128
-0.0797000000000001,-14.769585970590983
-0.08070000000000022,-14.953498439573437
-0.0817000000000001,-15.10911668255859
-0.08270000000000022,-15.349617603535648
-0.08370000000000011,-15.4769416205235
-0.08470000000000022,-15.70329542850191
-0.08570000000000011,-15.88720789748436
-0.08670000000000022,-16.085267479465468
-0.08770000000000011,-16.28332706144657
-0.08870000000000022,-16.46723953042903
-0.08970000000000011,-16.637004886412832
-0.09070000000000022,-16.835064468393938
-0.09170000000000011,-17.061418276372343
-0.09270000000000023,-17.2453307453548
-0.09370000000000012,-17.386801875341302
-0.09470000000000023,-17.599008570321057
-0.09570000000000012,-17.782921039303513
-0.09670000000000023,-17.980980621284615
-0.09770000000000012,-18.207334429263025
-0.09870000000000023,-18.320511333252224
-0.09970000000000012,-18.518570915233333
-0.10070000000000023,-18.716630497214435
-0.10170000000000012,-18.872248740199588
-0.10270000000000024,-19.070308322180697
-0.10370000000000013,-19.2400736781645
-0.10470000000000024,-19.423986147146955
-0.10570000000000013,-19.593751503130758
-0.10670000000000024,-19.77766397211321
-0.10770000000000013,-19.93328221509837
-0.10870000000000024,-20.10304757108217
-0.10970000000000013,-20.272812927065978
-0.11070000000000024,-20.48501962204573
-0.11170000000000013,-20.75381476902009
-0.11270000000000002,-20.90943301200524
-0.11370000000000013,-21.036757028993097
-0.11470000000000002,-21.13578681998365
-0.11570000000000014,-21.319699288966106
-0.11670000000000003,-21.489464644949905
-0.11770000000000014,-21.68752422693101
-0.11870000000000003,-21.899730921910766
-0.11970000000000014,-21.99876071290132
-0.12070000000000003,-22.182673181883775
-0.12170000000000014,-22.33829142486893
-0.12270000000000003,-22.46561544185678
-0.12370000000000014,-22.550498119848687
-0.12470000000000003,-22.72026347583249
-0.12570000000000014,-22.946617283810895
-0.12670000000000003,-23.144676865792
-0.12770000000000015,-23.300295108777156
-0.12870000000000004,-23.48420757775961
-0.12970000000000015,-23.639825820744765
-0.13070000000000004,-23.682267159740714
-0.13170000000000015,-23.823738289727217
-0.13270000000000004,-23.93691519371642
-0.13370000000000015,-24.078386323702922
-0.13470000000000004,-24.262298792685378
-0.13570000000000015,-24.389622809673234
-0.13670000000000004,-24.545241052658387
-0.13770000000000016,-24.686712182644893
-0.13870000000000005,-24.757447747638142
-0.13970000000000016,-24.870624651627345
-0.14070000000000005,-25.04039000761115
-0.14170000000000016,-25.12527268560305
-0.14270000000000005,-25.196008250596304
-0.14370000000000016,-25.280890928588207
-0.14470000000000005,-25.40821494557606
-0.14570000000000016,-25.507244736566612
-0.14670000000000005,-25.549686075562565
-0.14770000000000016,-25.634568753554465
-0.14870000000000005,-25.747745657543668
-0.14970000000000017,-25.81848122253692
-0.15070000000000006,-25.875069674531517
-0.15170000000000017,-25.959952352523427
-0.15270000000000006,-26.11557059550858
-0.15370000000000017,-26.17215904750318
-0.15470000000000006,-26.15801193450453
-0.15570000000000017,-26.257041725495082
-0.15670000000000006,-26.38436574248293
-0.15770000000000017,-26.412659968480234
-0.15870000000000006,-26.440954194477534
-0.15970000000000018,-26.469248420474838
-0.16070000000000007,-26.55413109846674
-0.16170000000000018,-26.61071955046134
-0.16270000000000007,-26.568278211465387
-0.16370000000000018,-26.55413109846674
-0.16470000000000007,-26.709749341451893
-0.16570000000000018,-26.752190680447846
-0.16670000000000007,-26.69560222845324
-0.16770000000000018,-26.709749341451893
-0.16870000000000007,-26.69560222845324
-0.16970000000000018,-26.723896454450543
-0.17070000000000007,-26.766337793446493
-0.17170000000000019,-26.780484906445146
-0.17270000000000008,-26.709749341451893
-0.1737000000000002,-26.61071955046134
-0.17470000000000008,-26.525836872469437
-0.1757000000000002,-26.455101307476184
-0.17670000000000008,-26.525836872469437
-0.1777000000000002,-26.55413109846674
-0.17870000000000008,-26.440954194477534
-0.1797000000000002,-26.412659968480234
-0.18070000000000008,-26.34192440348698
-0.1817000000000002,-26.313630177489685
-0.18270000000000008,-26.313630177489685
-0.1837000000000002,-26.17215904750318
-0.1847000000000001,-26.087276369511276
-0.1857000000000002,-26.030687917516673
-0.1867000000000001,-25.90336390052882
-0.1877000000000002,-25.86092256153287
-0.1887000000000001,-25.747745657543668
-0.1897000000000002,-25.662862979551768
-0.1907000000000001,-25.57798030155986
-0.1917000000000001,-25.535538962563912
-0.19269999999999998,-25.45065628457201
-0.1937000000000001,-25.295038041586857
-0.19469999999999998,-25.153566911600354
-0.1957000000000001,-25.09697845960575
-0.19669999999999999,-24.941360216620595
-0.1977000000000001,-24.771594860636792
-0.1987,-24.65841795664759
-0.1997000000000001,-24.57353527865569
-0.2007,-24.474505487665134
-0.2017000000000001,-24.34718147067728
-0.2027,-24.290593018682678
-0.2037000000000001,-24.191563227692125
-0.2047,-24.050092097705623
-0.2057000000000001,-23.88032674172182
-0.2067,-23.710561385738018
-0.2077000000000001,-23.51250180375691
-0.2087,-23.399324899767706
-0.2097000000000001,-23.215412430785253
-0.2107,-23.102235526796047
-0.2117000000000001,-23.031499961802798
-0.2127,-22.946617283810895
-0.2137000000000001,-22.890028831816295
-0.2147,-22.776851927827092
-0.2157000000000001,-22.592939458844636
-0.2167,-22.451468328858134
-0.21770000000000012,-22.38073276386488
-0.2187,-22.210967407881075
-0.21970000000000012,-21.99876071290132
-0.2207,-21.899730921910766
-0.22170000000000012,-21.828995356917517
-0.2227,-21.659230000933714
-0.22370000000000012,-21.503611757948562
-0.2247,-21.47531753195126
-0.22570000000000012,-21.362140627962056
-0.2267,-21.248963723972853
-0.22770000000000012,-21.19237527197825
-0.22870000000000001,-21.022609915994444
-0.22970000000000013,-20.85284456001064
-0.23070000000000002,-20.824550334013338
-0.23170000000000013,-20.810403221014692
-0.23270000000000002,-20.711373430024135
-0.23370000000000013,-20.668932091028186
-0.23470000000000002,-20.555755187038983
-0.23570000000000013,-20.456725396048434
-0.23670000000000002,-20.400136944053827
-0.2376999999999999,-20.414284057052477
-0.23870000000000002,-20.371842718056527
-0.2396999999999999,-20.286960040064624
-0.24070000000000003,-20.202077362072725
-0.24169999999999991,-20.202077362072725
-0.24270000000000003,-20.13134179707947
-0.24369999999999992,-20.10304757108217
-0.24470000000000003,-20.06060623208622
-0.24569999999999992,-20.00401778009162
-0.24670000000000003,-19.97572355409432
-0.24769999999999992,-20.01816489309027
-0.24870000000000003,-20.00401778009162
-0.24969999999999992,-20.00401778009162
-0.25070000000000003,-20.01816489309027
-0.2516999999999999,-20.01816489309027
-0.25270000000000004,-20.00401778009162
-0.2536999999999999,-19.947429328097016
-0.25470000000000004,-19.98987066709297
-0.2556999999999999,-20.03231200608892
-0.25670000000000004,-20.03231200608892
-0.25769999999999993,-20.07475334508487
-0.25870000000000004,-20.117194684080822
-0.25969999999999993,-20.117194684080822
-0.26070000000000004,-20.13134179707947
-0.26169999999999993,-20.13134179707947
-0.26270000000000004,-20.17378313607542
-0.26369999999999993,-20.286960040064624
-0.26470000000000005,-20.329401379060574
-0.26569999999999994,-20.357695605057877
-0.26670000000000005,-20.42843117005113
-0.26769999999999994,-20.48501962204573
-0.26870000000000005,-20.598196526034933
-0.26969999999999994,-20.683079204026836
-0.27070000000000005,-20.75381476902009
-0.27169999999999994,-20.73966765602144
-0.27270000000000005,-20.824550334013338
-0.27369999999999994,-20.95187435100119
-0.27470000000000006,-21.022609915994444
-0.27569999999999995,-21.079198367989047
-0.27670000000000006,-21.107492593986347
-0.27769999999999995,-21.1782281589796
-0.27870000000000006,-21.277257949970153
-0.27969999999999995,-21.376287740960702
-0.28070000000000006,-21.503611757948562
-0.28169999999999995,-21.63093577493641
-0.28270000000000006,-21.701671339929664
-0.28369999999999995,-21.729965565926964
-0.28470000000000006,-21.814848243918867
-0.28569999999999995,-21.94217226090672
-0.28670000000000007,-22.083643390893226
-0.28769999999999996,-22.168526068885125
-0.28870000000000007,-22.253408746877028
-0.28969999999999996,-22.352438537867577
-0.29070000000000007,-22.40902698986218
-0.29169999999999996,-22.437321215859484
-0.29270000000000007,-22.607086571843286
-0.29369999999999996,-22.706116362833843
-0.2947000000000001,-22.80514615382439
-0.29569999999999996,-22.904175944814945
-0.2967000000000001,-23.073941300798747
-0.29769999999999996,-23.229559543783903
-0.2987000000000001,-23.286147995778503
-0.29969999999999997,-23.41347201276636
-0.3007000000000001,-23.61153159474746
-0.30169999999999997,-23.653972933743415
-0.3027000000000001,-23.767149837732617
-0.30369999999999997,-23.908620967719123
-0.3047000000000001,-23.97935653271237
-0.30569999999999997,-24.078386323702922
-0.3067000000000001,-24.191563227692125
-0.3077,-24.33303435767863
-0.3087000000000001,-24.516946826661083
-0.3097,-24.601829504652986
-0.3107000000000001,-24.71500640864219
-0.3117,-24.884771764625995
-0.3127000000000001,-24.969654442617898
-0.3137,-25.09697845960575
-0.3147000000000001,-25.280890928588207
-0.3157,-25.43650917157336
-0.3167000000000001,-25.592127414558515
-0.3177,-25.719451431546364
-0.3187000000000001,-25.846775448534224
-0.3197,-25.988246578520723
-0.3207000000000001,-26.11557059550858
-0.3217,-26.242894612496432
-0.3227000000000001,-26.38436574248293
-0.3237,-26.483395533473487
-0.3247000000000001,-26.525836872469437
-0.3257,-26.65316088945729
-0.3267000000000001,-26.837073358439746
-0.3277,-27.00683871442355
-0.3287000000000001,-27.261486748399253
-0.3297,-27.289780974396557
-0.3307000000000001,-27.417104991384413
-0.3317,-27.65760591236147
-0.3327000000000001,-27.827371268345274
-0.3337,-27.997136624329073
-0.3347000000000001,-28.15275486731423
-0.3357,-28.32252022329803
-0.3367000000000001,-28.49228557928184
-0.3377,-28.690345161262943
-0.3387000000000001,-28.944993195238652
-0.3397,-29.25622968120896
-0.3407000000000001,-29.454289263190066
-0.3417,-29.609907506175215
-0.3427000000000001,-29.80796708815632
-0.3437,-30.06261512213203
-0.3447000000000001,-30.416292947098288
-0.3457,-30.71338232006995
-0.3467000000000001,-30.925589015049702
-0.3477,-31.27926684001596
-0.3487000000000001,-31.604650438984915
-0.3497,-31.94418115095253
-0.3507000000000001,-32.340300314914735
-0.3517,-32.67983102688235
-0.3527000000000001,-33.17497998183511
-0.3537,-33.670128936787876
-0.3547000000000001,-34.15113077874198
-0.3557,-34.632132620696105
-0.35670000000000013,-35.282899818634014
-0.3577,-35.862931451578675
-0.35870000000000013,-36.52784576251525
-0.3597,-37.164465847454515
-0.36070000000000013,-37.95670417537893
-0.3617,-38.90456074628851
-0.3626999999999999,-39.83827020419943
-0.3637,-40.88515656609956
-0.3646999999999999,-42.172543848976744
-0.3657,-43.36090134086337
-0.3666999999999999,-44.704877075735155
-0.3677,-46.37423640957591
-0.3686999999999999,-48.156772647405845
-0.36970000000000003,-50.109074241219595
-0.3706999999999999,-52.1038171740293
-0.37170000000000003,-54.2117370108282
-0.3726999999999999,-56.72992312458797
-0.37370000000000003,-59.60178706331399
-0.3746999999999999,-62.36047409805081
-0.37570000000000003,-65.23233803677684
-0.3766999999999999,-68.30226155748396
-0.37770000000000004,-71.3438908521938
-0.3786999999999999,-74.52699127689014
-0.37970000000000004,-77.99303396155948
-0.3806999999999999,-81.45907664622881
-0.38170000000000004,-84.8543837659049
-0.38269999999999993,-88.27798511157829
-0.38370000000000004,-91.77232202224494
-0.38469999999999993,-95.36568872390212
-0.38570000000000004,-99.07223232954851
-0.38669999999999993,-100.92550413237171
-0.38570000000000004,-101.30747618333527
-0.38469999999999993,-101.66115400830152
-0.38370000000000004,-102.11386162425833
-0.38269999999999993,-102.4392452232273
-0.38170000000000004,-102.63730480520842
-0.3806999999999999,-102.83536438718951
-0.37970000000000004,-102.90609995218277
-0.3786999999999999,-102.79292304819357
-0.37770000000000004,-102.4958336752219
-0.3766999999999999,-102.2694798672435
-0.37570000000000003,-102.17045007625295
-0.3746999999999999,-102.08556739826105
-0.37370000000000003,-101.50553576531638
-0.3726999999999999,-100.93965124537037
-0.37170000000000003,-100.2747369344338
-0.3706999999999999,-99.58152839749994
-0.36970000000000003,-98.98734965155661
-0.3686999999999999,-98.364876679616
-0.3677,-97.6575210296835
-0.3666999999999999,-97.02090094474423
-0.3657,-96.24280972981845
-0.3646999999999999,-95.60618964487918
-0.3637,-94.81395131695474
-0.3626999999999999,-94.12074278002089
-0.3617,-92.91823817513561
-0.36070000000000013,-91.68743934425302
-0.3597,-90.42834628737315
-0.35870000000000013,-89.21169456948921
-0.3577,-88.36286778957019
-0.35670000000000013,-87.40086410566198
-0.3557,-86.07103548378883
-0.3547000000000001,-84.8260895399076
-0.3537,-83.49626091803447
-0.3527000000000001,-82.19472652215863
-0.3517,-81.13369304725985
-0.3507000000000001,-79.98777689436918
-0.3497,-78.60135982050144
-0.3487000000000001,-77.21494274663371
-0.3477,-76.06902659374302
-0.3467000000000001,-74.78163931086584
-0.3457,-73.60742893197786
-0.3447000000000001,-72.48980700508447
-0.3437,-71.27315528720055
-0.3427000000000001,-69.9716208913247
-0.3417,-68.57105670445833
-0.3407000000000001,-67.22708096958654
-0.3397,-66.03872347769992
-0.3387000000000001,-64.73718908182407
-0.3377,-63.71859694592126
-0.3367000000000001,-62.61512213202652
-0.3357,-61.49750020513315
-0.3347000000000001,-60.25255426125191
-0.3337,-59.12078522135989
-0.3327000000000001,-57.9465748424719
-0.3317,-56.77236446358392
-0.3307000000000001,-55.59815408469595
-0.3297,-54.409796592809315
-0.3287000000000001,-53.20729198792403
-0.3277,-52.14625851302525
-0.3267000000000001,-51.05693081212917
-0.3257,-50.038338676226346
-0.3247000000000001,-48.86412829733837
-0.3237,-47.81724193543825
-0.3227000000000001,-46.713767121543505
-0.3217,-45.624439420647434
-0.3207000000000001,-44.506817493754056
-0.3197,-43.43163690585662
-0.3187000000000001,-42.4413389959511
-0.3177,-41.36615840805367
-0.3167000000000001,-40.37586049814815
-0.3157,-39.54118083122778
-0.3147000000000001,-38.5650300343209
-0.3137,-37.41911388143023
-0.3127000000000001,-36.4288159715247
-0.3117,-35.48095940061512
-0.3107000000000001,-34.47651437771095
-0.3097,-33.54280491980002
-0.3087000000000001,-32.6090954618891
-0.3077,-31.56220909998897
-0.3067000000000001,-30.741676546067247
-0.30569999999999997,-30.03432089613473
-0.3047000000000001,-29.114758551222454
-0.30369999999999997,-28.18104909331153
-0.3027000000000001,-27.332222313392506
-0.30169999999999997,-26.511689759470787
-0.3007000000000001,-25.719451431546364
-0.29969999999999997,-24.9130659906233
-0.2987000000000001,-24.134974775697525
-0.29769999999999996,-23.385177786769056
-0.2967000000000001,-22.66367502383789
-0.29569999999999996,-21.885583808912116
-0.2947000000000001,-21.149933932982297
-0.29369999999999996,-20.48501962204573
-0.29270000000000007,-19.763516859114564
-0.29169999999999996,-19.056161209182044
-0.29070000000000007,-18.419541124242777
-0.28969999999999996,-17.75462681330621
-0.28870000000000007,-17.07556538937099
-0.28769999999999996,-16.438945304431726
-0.28670000000000007,-15.816472332491113
-0.28569999999999995,-15.250587812545096
-0.28470000000000006,-14.65640906660178
-0.28369999999999995,-14.04949791895968
-0.28270000000000006,-13.497760512012315
-0.28169999999999995,-12.934705414666032
-0.28070000000000006,-12.426824058014482
-0.27969999999999995,-11.91752799006307
-0.27870000000000006,-11.353058181416921
-0.27769999999999995,-10.845176824765371
-0.27670000000000006,-10.372663250610449
-0.27569999999999995,-9.893076119956202
-0.27470000000000006,-9.429050813600469
-0.27369999999999994,-8.974928486343794
-0.27270000000000005,-8.536367983385631
-0.27169999999999994,-8.104881036926795
-0.27070000000000005,-7.6663205339686336
-0.26969999999999994,-7.250395411808314
-0.26870000000000005,-6.848617402646643
-0.26769999999999994,-6.424204012687131
