Potential V vs RHE, Current mA cm-2
0.013299999999999867,-0.1330535977523067
0.012299999999999978,-3.5353635383627267
0.011299999999999866,-6.588310523471475
0.010299999999999976,-9.55496011928846
0.009299999999999864,-12.214617363034726
0.008299999999999974,-14.69885040559773
0.007299999999999862,-17.146300954364243
0.006299999999999972,-19.452280373144255
0.00529999999999986,-21.67337711393236
0.0042999999999999705,-23.908620967719123
0.0032999999999998586,-26.002393691519377
0.0022999999999999687,-28.011283737327723
0.0012999999999998568,-29.96358533114148
0.00029999999999996696,-31.717827342974125
-0.000700000000000145,-33.41548090281216
-0.0017000000000000348,-35.02825178465831
-0.0027000000000001467,-36.47125731052064
-0.0037000000000000366,-37.85767438438838
-0.0047000000000001485,-39.173355893262865
-0.005700000000000038,-40.43244895014274
-0.00670000000000015,-41.70568912002128
-0.00770000000000004,-42.87989949890926
-0.008700000000000152,-44.181433894785094
-0.009700000000000042,-45.36979138667173
-0.010700000000000154,-46.544001765559706
-0.011700000000000044,-47.71821214444768
-0.012700000000000156,-48.68021582835591
-0.013700000000000045,-49.72710219025603
-0.014700000000000157,-50.60422319617236
-0.015700000000000047,-51.38231441109813
-0.01670000000000016,-52.2169940780185
-0.01770000000000005,-52.95264395394832
-0.01870000000000016,-53.64585249088219
-0.01970000000000005,-54.43809081880661
-0.020700000000000163,-55.046416677748574
-0.021700000000000053,-55.838655005673
-0.022700000000000164,-56.57430488160282
-0.023700000000000054,-57.26751341853669
-0.024700000000000166,-58.017310407465146
-0.025700000000000056,-58.66807760540307
-0.026700000000000168,-59.27640346434504
-0.027700000000000058,-59.842287984291055
-0.02870000000000017,-60.28084848724921
-0.02970000000000006,-60.761850329203334
-0.03070000000000017,-61.15796949316553
-0.03170000000000006,-61.455058866137186
-0.03270000000000017,-61.89361936909536
-0.03370000000000006,-62.28973853305756
-0.034700000000000175,-62.72829903601572
-0.035700000000000065,-63.251742216965795
-0.03670000000000018,-63.633714267929356
-0.03770000000000007,-64.11471610988345
-0.03870000000000018,-64.59571795183757
-0.03970000000000007,-64.99183711579978
-0.04070000000000018,-65.38795627976201
-0.04170000000000007,-65.64260431373769
-0.04270000000000018,-65.91139946071206
-0.04370000000000007,-66.16604749468777
-0.044700000000000184,-66.39240130266617
-0.045700000000000074,-66.56216665864997
-0.046700000000000186,-66.87340314462028
-0.047700000000000076,-67.08560983960004
-0.04870000000000019,-67.43928766456631
-0.04970000000000008,-67.73637703753796
-0.05070000000000019,-68.04761352350828
-0.05170000000000008,-68.44373268747047
-0.05270000000000019,-68.65593938245023
-0.05370000000000008,-68.91058741642594
-0.05470000000000019,-69.13694122440434
-0.05570000000000008,-69.26426524139221
-0.056700000000000195,-69.39158925838004
-0.057700000000000085,-69.4906190493706
-0.058700000000000196,-69.57550172736251
-0.059700000000000086,-69.74526708334632
-0.0607000000000002,-69.87259110033416
-0.06170000000000009,-70.09894490831257
-0.0627000000000002,-70.31115160329232
-0.06370000000000009,-70.53750541127073
-0.0647000000000002,-70.79215344524643
-0.06570000000000009,-70.96191880123024
-0.0667000000000002,-71.18827260920865
-0.0677000000000001,-71.31559662619651
-0.0687000000000002,-71.4004793041884
-0.0697000000000001,-71.48536198218031
-0.07070000000000021,-71.52780332117625
-0.0717000000000001,-71.52780332117625
-0.07270000000000021,-71.66927445116276
-0.0737000000000001,-71.7117157901587
-0.07470000000000021,-71.8814811461425
-0.0757000000000001,-72.10783495412092
-0.07670000000000021,-72.27760031010472
-0.0777000000000001,-72.44736566608852
-0.07870000000000021,-72.67371947406694
-0.0797000000000001,-72.75860215205884
-0.08070000000000022,-72.97080884703858
-0.0817000000000001,-72.97080884703858
-0.08270000000000022,-73.01325018603454
-0.08370000000000011,-73.0556915250305
-0.08470000000000022,-73.01325018603454
-0.08570000000000011,-73.09813286402644
-0.08670000000000022,-73.197162655017
-0.08770000000000011,-73.2820453330089
-0.08870000000000022,-73.45181068899271
-0.08970000000000011,-73.57913470598055
-0.09070000000000022,-73.72060583596706
-0.09170000000000011,-73.97525386994278
-0.09270000000000023,-74.06013654793468
-0.09370000000000012,-74.24404901691713
-0.09470000000000023,-74.28649035591307
-0.09570000000000012,-74.28649035591307
-0.09670000000000023,-74.28649035591307
-0.09770000000000012,-74.28649035591307
-0.09870000000000023,-74.24404901691713
-0.09970000000000012,-74.32893169490903
-0.10070000000000023,-74.32893169490903
-0.10170000000000012,-74.41381437290093
-0.10270000000000024,-74.54113838988879
-0.10370000000000013,-74.66846240687663
-0.10470000000000024,-74.89481621485504
-0.10570000000000013,-75.02214023184291
-0.10670000000000024,-75.1070229098348
-0.10770000000000013,-75.19190558782671
-0.10870000000000024,-75.19190558782671
-0.10970000000000013,-75.2484940398213
-0.11070000000000024,-75.29093537881725
-0.11170000000000013,-75.19190558782671
-0.11270000000000002,-75.29093537881725
-0.11370000000000013,-75.33337671781321
-0.11470000000000002,-75.4182593958051
-0.11570000000000014,-75.54558341279296
-0.11670000000000003,-75.6729074297808
-0.11770000000000014,-75.8992612377592
-0.11870000000000003,-76.06902659374302
-0.11970000000000014,-76.15390927173492
-0.12070000000000003,-76.29538040172143
-0.12170000000000014,-76.29538040172143
-0.12270000000000003,-76.33782174071737
-0.12370000000000014,-76.29538040172143
-0.12470000000000003,-76.23879194972683
-0.12570000000000014,-76.29538040172143
-0.12670000000000003,-76.33782174071737
-0.12770000000000015,-76.38026307971333
-0.12870000000000004,-76.50758709670117
-0.12970000000000015,-76.5924697746931
-0.13070000000000004,-76.7622351306769
-0.13170000000000015,-76.98858893865528
-0.13270000000000004,-77.03103027765125
-0.13370000000000015,-77.1583542946391
-0.13470000000000004,-77.20079563363505
-0.13570000000000015,-77.1583542946391
-0.13670000000000004,-77.1583542946391
-0.13770000000000016,-77.11591295564315
-0.13870000000000005,-77.11591295564315
-0.13970000000000016,-77.1583542946391
-0.14070000000000005,-77.20079563363505
-0.14170000000000016,-77.28567831162695
-0.14270000000000005,-77.46959078060941
-0.14370000000000016,-77.68179747558916
-0.14470000000000005,-77.86570994457162
-0.14570000000000016,-78.07791663955136
-0.14670000000000005,-78.20524065653922
-0.14770000000000016,-78.33256467352709
-0.14870000000000005,-78.29012333453113
-0.14970000000000017,-78.38915312552167
-0.15070000000000006,-78.38915312552167
-0.15170000000000017,-78.38915312552167
-0.15270000000000006,-78.47403580351359
-0.15370000000000017,-78.47403580351359
-0.15470000000000006,-78.60135982050144
-0.15570000000000017,-78.77112517648524
-0.15670000000000006,-78.9550376454677
-0.15770000000000017,-79.16724434044745
-0.15870000000000006,-79.37945103542721
-0.15970000000000018,-79.47848082641775
-0.16070000000000007,-79.69068752139752
-0.16170000000000018,-79.81801153838538
-0.16270000000000007,-79.90289421637728
-0.16370000000000018,-80.08680668535972
-0.16470000000000007,-80.17168936335163
-0.16570000000000018,-80.29901338033947
-0.16670000000000007,-80.46877873632329
-0.16770000000000018,-80.65269120530574
-0.16870000000000007,-80.86489790028548
-0.16970000000000018,-81.09125170826391
-0.17070000000000007,-81.30345840324367
-0.17170000000000019,-81.57225355021802
-0.17270000000000008,-81.65713622820991
-0.1737000000000002,-81.82690158419373
-0.17470000000000008,-81.95422560118158
-0.1757000000000002,-81.99666694017753
-0.17670000000000008,-82.03910827917348
-0.1777000000000002,-82.03910827917348
-0.17870000000000008,-82.09569673116808
-0.1797000000000002,-82.22302074815593
-0.18070000000000008,-82.26546208715187
-0.1817000000000002,-82.47766878213164
-0.18270000000000008,-82.6615812511141
-0.1837000000000002,-82.8313466070979
-0.1847000000000001,-83.08599464107361
-0.1857000000000002,-83.26990711005605
-0.1867000000000001,-83.43967246603985
-0.1877000000000002,-83.56699648302772
-0.1887000000000001,-83.60943782202366
-0.1897000000000002,-83.75090895201016
-0.1907000000000001,-83.83579163000208
-0.1917000000000001,-83.83579163000208
-0.19269999999999998,-84.00555698598588
-0.1937000000000001,-84.09043966397778
-0.19469999999999998,-84.31679347195619
-0.1957000000000001,-84.57144150593189
-0.19669999999999999,-84.7977953139103
-0.1977000000000001,-85.09488468688197
-0.1987,-85.44856251184822
-0.1997000000000001,-85.66076920682796
-0.2007,-86.01444703179425
-0.2017000000000001,-86.18421238777805
-0.2027,-86.36812485676049
-0.2037000000000001,-86.58033155174023
-0.2047,-86.7076555687281
-0.2057000000000001,-86.89156803771054
-0.2067,-87.06133339369435
-0.2077000000000001,-87.27354008867411
-0.2087,-87.62721791364037
-0.2097000000000001,-87.89601306061473
-0.2107,-88.19310243358639
-0.2117000000000001,-88.63166293654454
-0.2127,-88.8438696315243
-0.2137000000000001,-89.19754745649055
-0.2147,-89.42390126446898
-0.2157000000000001,-89.63610795944872
-0.2167,-89.84831465442848
-0.21770000000000012,-90.03222712341093
-0.2187,-90.15955114039879
-0.21970000000000012,-90.37175783537855
-0.2207,-90.55567030436099
-0.22170000000000012,-90.85275967733266
-0.2227,-91.12155482430701
-0.22370000000000012,-91.41864419727867
-0.2247,-91.81476336124088
-0.22570000000000012,-92.08355850821525
-0.2267,-92.3806478811869
-0.22770000000000012,-92.6070016891653
-0.22870000000000001,-92.81920838414506
-0.22970000000000013,-93.03141507912481
-0.23070000000000002,-93.25776888710321
-0.23170000000000013,-93.38509290409107
-0.23270000000000002,-93.69632939006138
-0.23370000000000013,-93.95097742403709
-0.23470000000000002,-94.30465524900335
-0.23570000000000013,-94.70077441296557
-0.23670000000000002,-95.04030512493317
-0.2376999999999999,-95.47886562789132
-0.23870000000000002,-95.87498479185354
-0.2396999999999999,-96.21451550382113
-0.24070000000000003,-96.65307600677932
-0.24169999999999991,-96.92187115375367
-0.24270000000000003,-97.21896052672531
-0.24369999999999992,-97.4877556736997
-0.24470000000000003,-97.74240370767538
-0.24569999999999992,-98.05364019364569
-0.24670000000000003,-98.364876679616
-0.24769999999999992,-98.7044073915836
-0.24870000000000003,-99.10052655554581
-0.24969999999999992,-99.58152839749994
-0.25070000000000003,-99.97764756146215
-0.2516999999999999,-100.5010907424122
-0.25270000000000004,-100.92550413237171
-0.2536999999999999,-101.3640646353299
-0.25470000000000004,-101.71774246029614
-0.2556999999999999,-101.97239049427183
-0.25670000000000004,-102.3260683192381
-0.25769999999999993,-102.63730480520842
-0.25870000000000004,-102.93439417818009
-0.25969999999999993,-103.28807200314633
-0.26070000000000004,-103.68419116710854
-0.26169999999999993,-104.16519300906265
-0.26270000000000004,-104.58960639902216
-0.26369999999999993,-105.07060824097626
-0.26470000000000005,-105.59405142192634
-0.26569999999999994,-106.07505326388046
-0.26670000000000005,-106.59849644483052
-0.26769999999999994,-107.03705694778867
-0.26870000000000005,-107.39073477275493
-0.26969999999999994,-107.78685393671715
-0.27070000000000005,-108.1688259876807
-0.27169999999999994,-108.52250381264696
-0.27270000000000005,-109.00350565460108
-0.27369999999999994,-109.39962481856328
-0.27470000000000006,-109.9655093385093
-0.27569999999999995,-110.53139385845533
-0.27670000000000006,-111.09727837840134
-0.27769999999999995,-111.74804557633925
-0.27870000000000006,-112.39881277427718
-0.27969999999999995,-112.96469729422319
-0.28070000000000006,-113.58717026616378
-0.28169999999999995,-114.11061344711386
-0.28270000000000006,-114.63405662806393
-0.28369999999999995,-115.10091135701937
-0.28470000000000006,-115.5819131989735
-0.28569999999999995,-116.10535637992358
-0.28670000000000007,-116.72782935186417
-0.28769999999999996,-117.33615521080614
-0.28870000000000007,-118.02936374774
-0.28969999999999996,-118.72257228467387
-0.29070000000000007,-119.47236927360234
-0.29169999999999996,-120.20801914953216
-0.29270000000000007,-120.9153747994647
-0.29369999999999996,-121.65102467539451
-0.2947000000000001,-122.25935053433648
-0.29569999999999996,-122.91011773227437
-0.2967000000000001,-123.57503204321095
-0.29769999999999996,-124.14091656315696
-0.2987000000000001,-124.7916837610949
-0.29969999999999997,-125.48489229802875
-0.3007000000000001,-126.09321815697072
-0.30169999999999997,-126.88545648489513
-0.3027000000000001,-127.62110636082497
-0.30369999999999997,-128.45578602774532
-0.3047000000000001,-129.27631858166706
-0.30569999999999997,-130.02611557059552
-0.3067000000000001,-130.8042067855213
-0.3077,-131.5964451134457
-0.3087000000000001,-132.24721231138363
-0.3097,-132.99700930031207
-0.3107000000000001,-133.64777649825
-0.3117,-134.29854369618792
-0.3127000000000001,-135.09078202411234
-0.3137,-135.82643190004217
-0.3147000000000001,-136.66111156696255
-0.3157,-137.56652679887617
-0.3167000000000001,-138.44364780479248
-0.3177,-139.36321014970477
-0.3187000000000001,-140.2686253816184
-0.3197,-141.18818772653066
-0.3207000000000001,-142.03701450644968
-0.3217,-142.8858412863687
-0.3227000000000001,-143.73466806628772
-0.3237,-144.58349484620675
-0.3247000000000001,-145.29085049613926
-0.3257,-146.1396772760583
-0.3267000000000001,-147.1299751859638
-0.3277,-147.97880196588284
-0.3287000000000001,-148.96909987578834
-0.3297,-149.8179266557074
-0.3307000000000001,-150.8082245656129
-0.3317,-151.93999360550492
-0.3327000000000001,-152.93029151541046
-0.3337,-154.0620605553025
-0.3347000000000001,-155.05235846520802
-0.3357,-156.04265637511355
-0.3367000000000001,-156.89148315503257
-0.3377,-157.88178106493808
-0.3387000000000001,-158.87207897484362
-0.3397,-159.86237688474912
-0.3407000000000001,-160.99414592464117
-0.3417,-162.12591496453322
-0.3427000000000001,-163.25768400442522
-0.3437,-164.53092417430375
-0.3447000000000001,-165.8041643441823
-0.3457,-166.93593338407433
-0.3467000000000001,-168.06770242396635
-0.3477,-169.19947146385837
-0.3487000000000001,-170.18976937376394
-0.3497,-171.32153841365593
-0.3507000000000001,-172.31183632356147
-0.3517,-173.44360536345349
-0.3527000000000001,-174.57537440334553
-0.3537,-175.70714344323756
-0.3547000000000001,-176.98038361311612
-0.3557,-178.25362378299462
-0.35670000000000013,-179.52686395287316
-0.3577,-180.94157525273818
-0.35870000000000013,-182.21481542261674
-0.3597,-183.48805559249527
-0.36070000000000013,-184.7612957623738
-0.3617,-186.03453593225234
-0.3626999999999999,-187.30777610213087
-0.3637,-188.4395451420229
-0.3646999999999999,-189.71278531190143
-0.3657,-190.98602548177996
-0.3666999999999999,-192.2592656516585
-0.3677,-193.532505821537
-0.3686999999999999,-194.94721712140205
-0.36970000000000003,-196.3619284212671
-0.3706999999999999,-197.77663972113214
-0.37170000000000003,-199.33282215098367
-0.3726999999999999,-200.7475334508487
-0.37370000000000003,-202.16224475071377
-0.3746999999999999,-203.57695605057876
-0.37570000000000003,-204.9916673504438
-0.3766999999999999,-206.26490752032234
-0.37770000000000004,-207.67961882018741
-0.3786999999999999,-208.95285899006592
-0.37970000000000004,-210.36757028993094
-0.3806999999999999,-211.782281589796
-0.38170000000000004,-213.33846401964755
-0.38269999999999993,-214.89464644949908
-0.38370000000000004,-216.4508288793506
-0.38469999999999993,-218.00701130920217
-0.38570000000000004,-219.5631937390537
-0.38669999999999993,-218.57289582914817
-0.38570000000000004,-213.19699288966103
-0.38469999999999993,-208.24550334013338
-0.38370000000000004,-203.57695605057876
-0.38269999999999993,-199.19135102099716
-0.38170000000000004,-195.08868825138856
-0.3806999999999999,-191.12749661176645
-0.37970000000000004,-187.44924723211736
-0.3786999999999999,-183.91246898245475
-0.37770000000000004,-180.5171618627787
-0.3766999999999999,-177.2633258730891
-0.37570000000000003,-174.0094898833995
-0.3746999999999999,-171.03859615368293
-0.37370000000000003,-168.06770242396635
-0.3726999999999999,-165.09680869424977
-0.37170000000000003,-162.12591496453322
-0.3706999999999999,-159.29649236480313
-0.36970000000000003,-156.32559863508658
-0.3686999999999999,-153.49617603535648
-0.3677,-150.8082245656129
-0.3666999999999999,-148.12027309586935
-0.3657,-145.57379275611228
-0.3646999999999999,-143.0273124163552
-0.3637,-140.4949791895968
-0.3626999999999999,-138.08996997982624
-0.3617,-135.78399056104624
-0.36070000000000013,-133.3365400122797
-0.3597,-131.07300193249566
-0.35870000000000013,-128.62555138372915
-0.3577,-126.23468928695722
-0.35670000000000013,-123.82968007718667
-0.3557,-121.48125931941068
-0.3547000000000001,-119.1186914486361
-0.3537,-116.89759470784797
-0.3527000000000001,-114.63405662806393
-0.3517,-112.48369545226906
-0.3507000000000001,-110.3050400504769
-0.3497,-108.2537086656726
-0.3487000000000001,-106.2589657328629
-0.3477,-104.16519300906265
-0.3467000000000001,-102.11386162425833
-0.3457,-99.97764756146215
-0.3447000000000001,-97.84143349866595
-0.3437,-95.74766077486568
-0.3427000000000001,-93.61144671206948
-0.3417,-91.46108553627462
-0.3407000000000001,-89.42390126446898
-0.3397,-87.41501121866061
-0.3387000000000001,-85.44856251184822
-0.3377,-83.60943782202366
-0.3367000000000001,-81.74201890620182
-0.3357,-79.90289421637728
-0.3347000000000001,-78.07791663955136
-0.3337,-76.23879194972683
-0.3327000000000001,-74.37137303390499
-0.3317,-72.48980700508447
-0.3307000000000001,-70.62238808926263
-0.3297,-68.65593938245023
-0.3287000000000001,-66.73193201463377
-0.3277,-64.94939577680383
-0.3267000000000001,-63.11027108697928
-0.3257,-61.37017618814529
-0.3247000000000001,-59.7149639673032
-0.3237,-58.017310407465146
-0.3227000000000001,-56.404539525619015
-0.3217,-54.791768643772876
-0.3207000000000001,-53.12240930993213
-0.3197,-51.509638428085985
-0.3187000000000001,-49.81198486824794
-0.3177,-48.071889969413945
-0.3167000000000001,-46.37423640957591
-0.3157,-44.66243573673921
-0.3147000000000001,-43.007223515897124
-0.3137,-41.352011295055014
-0.3127000000000001,-39.78168175220483
-0.3117,-38.253793548350586
-0.3107000000000001,-36.725905344496354
-0.3097,-35.282899818634014
-0.3087000000000001,-33.93892408376223
-0.3077,-32.41103587990799
-0.3067000000000001,-30.968030354045652
-0.30569999999999997,-29.482583489187363
-0.3047000000000001,-27.912253946337174
-0.30369999999999997,-26.440954194477534
-0.3027000000000001,-24.870624651627345
-0.30169999999999997,-23.342736447773106
-0.3007000000000001,-21.899730921910766
-0.29969999999999997,-20.456725396048434
-0.2987000000000001,-19.112749661176647
-0.29769999999999996,-17.71218547431026
-0.2967000000000001,-16.495533756426326
-0.29569999999999996,-15.264734925543747
-0.2947000000000001,-13.960371107068182
-0.29369999999999996,-12.651763154693022
-0.29270000000000007,-11.343155202317865
-0.29169999999999996,-9.99069119964689
-0.29070000000000007,-8.68208324727173
-0.28969999999999996,-7.243321855308987
-0.28870000000000007,-5.847001802342197
-0.28769999999999996,-4.626105950558669
-0.28670000000000007,-3.273641947887695
-0.28569999999999995,-2.095187435100119
-0.28470000000000006,-0.8745745255765657
-0.28369999999999995,0.21588494435940458
-0.28270000000000006,1.349917522331218
-0.28169999999999995,2.4403769922671885
-0.28070000000000006,3.5749754547589476
-0.27969999999999995,4.708159205950842
-0.27870000000000006,5.8427576684426015
-0.27769999999999995,7.063653520226129
-0.27670000000000006,8.284549372009655
-0.27569999999999995,9.506859935093045
-0.27470000000000006,10.683899736580756
-0.27369999999999994,11.774642148776701
-0.27270000000000005,12.907825899968595
-0.27169999999999994,13.91227092287277
-0.27070000000000005,14.953498439573437
-0.26969999999999994,15.91550212348166
-0.26870000000000005,16.835064468393938
-0.26769999999999994,17.881950830294063
-0.26670000000000005,18.88639585319824
-0.26569999999999994,19.848399537106463
-0.26470000000000005,20.93772723800254
