Potential V vs RHE, Current mA cm-2
0.013299999999999867,0.2594580523952477
0.012299999999999978,-2.618630616050183
0.011299999999999866,-4.9302688800296535
0.010299999999999976,-7.111753704421539
0.009299999999999864,-9.293238528813426
0.008299999999999974,-11.1677310011346
0.007299999999999862,-12.607907104397206
0.006299999999999972,-13.784946905884919
0.00529999999999986,-15.05252823056399
0.0042999999999999705,-16.354062626439823
0.0032999999999998586,-17.48583166633185
0.0022999999999999687,-18.320511333252224
0.0012999999999998568,-18.97127853119014
0.00029999999999996696,-19.721075520118614
-0.000700000000000145,-20.626490752032236
-0.0017000000000000348,-21.376287740960702
-0.0027000000000001467,-21.857289582914817
-0.0037000000000000366,-22.196820294882425
-0.0047000000000001485,-22.67782213683654
-0.005700000000000038,-23.385177786769056
-0.00670000000000015,-23.951062306715073
-0.00770000000000004,-24.20571034069078
-0.008700000000000152,-24.432064148669184
-0.009700000000000042,-24.729153521640843
-0.010700000000000154,-25.295038041586857
-0.011700000000000044,-25.73359854454502
-0.012700000000000156,-25.91751101352747
-0.013700000000000045,-26.002393691519377
-0.014700000000000157,-26.257041725495082
-0.015700000000000047,-26.65316088945729
-0.01670000000000016,-27.00683871442355
-0.01770000000000005,-27.134162731411404
-0.01870000000000016,-27.091721392415455
-0.01970000000000005,-27.303928087395207
-0.020700000000000163,-27.700047251357418
-0.021700000000000053,-28.011283737327723
-0.022700000000000164,-28.05372507632368
-0.023700000000000054,-28.011283737327723
-0.024700000000000166,-28.13860775431558
-0.025700000000000056,-28.478138466283188
-0.026700000000000168,-28.704492274261593
-0.027700000000000058,-28.746933613257543
-0.02870000000000017,-28.662050935265643
-0.02970000000000006,-28.789374952253496
-0.03070000000000017,-29.14305277721976
-0.03170000000000006,-29.35525947219951
-0.03270000000000017,-29.35525947219951
-0.03370000000000006,-29.22793545521166
-0.034700000000000175,-29.31281813320356
-0.035700000000000065,-29.66649595816982
-0.03670000000000018,-29.836261314153624
-0.03770000000000007,-29.836261314153624
-0.03870000000000018,-29.708937297165768
-0.03970000000000007,-29.793819975157668
-0.04070000000000018,-30.04846800913338
-0.04170000000000007,-30.274821817111786
-0.04270000000000018,-30.189939139119886
-0.04370000000000007,-30.10505646112798
-0.044700000000000184,-30.10505646112798
-0.045700000000000074,-30.359704495103685
-0.046700000000000186,-30.529469851087494
-0.047700000000000076,-30.444587173095588
-0.04870000000000019,-30.359704495103685
-0.04970000000000008,-30.402145834099635
-0.05070000000000019,-30.670940981073993
-0.05170000000000008,-30.8407063370578
-0.05270000000000019,-30.7558236590659
-0.05370000000000008,-30.614352529079397
-0.05470000000000019,-30.670940981073993
-0.05570000000000008,-30.925589015049702
-0.056700000000000195,-31.052913032037555
-0.057700000000000085,-31.010471693041605
-0.058700000000000196,-30.8407063370578
-0.059700000000000086,-30.88314767605375
-0.0607000000000002,-31.095354371033505
-0.06170000000000009,-31.321708179011907
-0.0627000000000002,-31.27926684001596
-0.06370000000000009,-31.137795710029454
-0.0647000000000002,-31.19438416202406
-0.06570000000000009,-31.449032195999767
-0.0667000000000002,-31.57635621298762
-0.0677000000000001,-31.49147353499572
-0.0687000000000002,-31.36414951800786
-0.0697000000000001,-31.36414951800786
-0.07070000000000021,-31.618797551983565
-0.0717000000000001,-31.76026868197007
-0.07270000000000021,-31.661238890979522
-0.0737000000000001,-31.49147353499572
-0.07470000000000021,-31.533914873991666
-0.0757000000000001,-31.76026868197007
-0.07670000000000021,-31.930034037953877
-0.0777000000000001,-31.84515135996197
-0.07870000000000021,-31.717827342974125
-0.0797000000000001,-31.76026868197007
-0.08070000000000022,-31.972475376949827
-0.0817000000000001,-32.09979939393769
-0.08270000000000022,-32.01491671594578
-0.08370000000000011,-31.84515135996197
-0.08470000000000022,-31.887592698957924
-0.08570000000000011,-32.09979939393769
-0.08670000000000022,-32.283711862920136
-0.08770000000000011,-32.14224073293363
-0.08870000000000022,-31.972475376949827
-0.08970000000000011,-32.01491671594578
-0.09070000000000022,-32.24127052392419
-0.09170000000000011,-32.45347721890394
-0.09270000000000023,-32.368594540912035
-0.09370000000000012,-32.24127052392419
-0.09470000000000023,-32.283711862920136
-0.09570000000000012,-32.49591855789989
-0.09670000000000023,-32.66568391388369
-0.09770000000000012,-32.58080123589179
-0.09870000000000023,-32.368594540912035
-0.09970000000000012,-32.41103587990799
-0.10070000000000023,-32.62324257488775
-0.10170000000000012,-32.807155043870196
-0.10270000000000024,-32.70812525287965
-0.10370000000000013,-32.58080123589179
-0.10470000000000024,-32.58080123589179
-0.10570000000000013,-32.807155043870196
-0.10670000000000024,-32.97692039985401
-0.10770000000000013,-32.93447906085806
-0.10870000000000024,-32.807155043870196
-0.10970000000000013,-32.84959638286615
-0.11070000000000024,-33.10424441684186
-0.11170000000000013,-33.231568433829715
-0.11270000000000002,-33.14668575583781
-0.11370000000000013,-32.97692039985401
-0.11470000000000002,-32.97692039985401
-0.11570000000000014,-33.231568433829715
-0.11670000000000003,-33.41548090281216
-0.11770000000000014,-33.288156885824314
-0.11870000000000003,-33.14668575583781
-0.11970000000000014,-33.14668575583781
-0.12070000000000003,-33.41548090281216
-0.12170000000000014,-33.58524625879597
-0.12270000000000003,-33.50036358080407
-0.12370000000000014,-33.41548090281216
-0.12470000000000003,-33.45792224180811
-0.12570000000000014,-33.670128936787876
-0.12670000000000003,-33.85404140577033
-0.12770000000000015,-33.81160006677438
-0.12870000000000004,-33.58524625879597
-0.12970000000000015,-33.627687597791926
-0.13070000000000004,-33.89648274476628
-0.13170000000000015,-34.10868943974604
-0.13270000000000004,-34.06624810075008
-0.13370000000000015,-33.93892408376223
-0.13470000000000004,-33.98136542275818
-0.13570000000000015,-34.193572117737936
-0.13670000000000004,-34.41992592571634
-0.13770000000000016,-34.33504324772444
-0.13870000000000005,-34.193572117737936
-0.13970000000000016,-34.236013456733886
-0.14070000000000005,-34.50480860370825
-0.14170000000000016,-34.67457395969205
-0.14270000000000005,-34.632132620696105
-0.14370000000000016,-34.462367264712285
-0.14470000000000005,-34.5472499427042
-0.14570000000000016,-34.8018979766799
-0.14670000000000005,-35.02825178465831
-0.14770000000000016,-34.98581044566235
-0.14870000000000005,-34.85848642867451
-0.14970000000000017,-34.90092776767045
-0.15070000000000006,-35.15557580164616
-0.15170000000000017,-35.32534115762997
-0.15270000000000006,-35.32534115762997
-0.15370000000000017,-35.240458479638065
-0.15470000000000006,-35.282899818634014
-0.15570000000000017,-35.594136304604326
-0.15670000000000006,-35.763901660588125
-0.15770000000000017,-35.721460321592176
-0.15870000000000006,-35.636577643600276
-0.15970000000000018,-35.679018982596226
-0.16070000000000007,-35.99025546856653
-0.16170000000000018,-36.16002082455034
-0.16270000000000007,-36.11757948555439
-0.16370000000000018,-36.11757948555439
-0.16470000000000007,-36.244903502542236
-0.16570000000000018,-36.5985813275085
-0.16670000000000007,-36.8532293614842
-0.16770000000000018,-36.8532293614842
-0.16870000000000007,-36.81078802248826
-0.16970000000000018,-36.89567070048016
-0.17070000000000007,-37.206907186450465
-0.17170000000000019,-37.41911388143023
-0.17270000000000008,-37.376672542434264
-0.1737000000000002,-37.291789864442364
-0.17470000000000008,-37.376672542434264
-0.1757000000000002,-37.645467689408626
-0.17670000000000008,-37.90011572338433
-0.1777000000000002,-37.90011572338433
-0.17870000000000008,-37.77279170639648
-0.1797000000000002,-37.90011572338433
-0.18070000000000008,-38.211352209354644
-0.1817000000000002,-38.522588695324956
-0.18270000000000008,-38.5650300343209
-0.1837000000000002,-38.46600024333035
-0.1847000000000001,-38.692354051308754
-0.1857000000000002,-39.046031876275016
-0.1867000000000001,-39.30067991025072
-0.1877000000000002,-39.34312124924667
-0.1887000000000001,-39.30067991025072
-0.1897000000000002,-39.34312124924667
-0.1907000000000001,-39.696799074212926
-0.1917000000000001,-39.95144710818864
-0.19269999999999998,-39.99388844718459
-0.1937000000000001,-39.99388844718459
-0.19469999999999998,-40.092918238175145
-0.1957000000000001,-40.51733162813464
-0.19669999999999999,-40.78612677510901
-0.1977000000000001,-40.87100945310091
-0.1987,-40.828568114104954
-0.1997000000000001,-40.99833347008877
-0.2007,-41.39445263405098
-0.2017000000000001,-41.74813045901723
-0.2027,-41.74813045901723
-0.2037000000000001,-41.79057179801318
-0.2047,-41.91789581500104
-0.2057000000000001,-42.3564563179592
-0.2067,-42.653545690930855
-0.2077000000000001,-42.71013414292546
-0.2087,-42.752575481921404
-0.2097000000000001,-42.92234083790521
-0.2107,-43.27601866287147
-0.2117000000000001,-43.657990713835034
-0.2127,-43.75702050482558
-0.2137000000000001,-43.75702050482558
-0.2147,-44.011668538801295
-0.2157000000000001,-44.535111719751356
-0.2167,-44.88878954471762
-0.21770000000000012,-45.05855490070142
-0.2187,-45.143437578693316
-0.21970000000000012,-45.412232725667685
-0.2207,-45.85079322862584
-0.22170000000000012,-46.2327652795894
-0.2227,-46.41667774857186
-0.22370000000000012,-46.501560426563756
-0.2247,-46.75620846053947
-0.22570000000000012,-47.19476896349763
-0.2267,-47.633329466455784
-0.22770000000000012,-47.80309482243959
-0.22870000000000001,-47.93041883942744
-0.22970000000000013,-48.24165532539775
-0.23070000000000002,-48.72265716735186
-0.23170000000000013,-49.16121767031002
-0.23270000000000002,-49.373424365289786
-0.23370000000000013,-49.458307043281685
-0.23470000000000002,-49.72710219025603
-0.23570000000000013,-50.2505453712061
-0.23670000000000002,-50.73154721316022
-0.2376999999999999,-50.90131256914402
-0.23870000000000002,-51.028636586131874
-0.2396999999999999,-51.33987307210218
-0.24070000000000003,-51.86331625305225
-0.24169999999999991,-52.386759434002315
-0.24270000000000003,-52.59896612898206
-0.24369999999999992,-52.78287859796452
-0.24470000000000003,-53.12240930993213
-0.24569999999999992,-53.68829382987814
-0.24670000000000003,-54.2117370108282
-0.24769999999999992,-54.52297349679851
-0.24870000000000003,-54.791768643772876
-0.24969999999999992,-55.17374069473642
-0.25070000000000003,-55.7820665536784
-0.2516999999999999,-56.30550973462846
-0.25270000000000004,-56.57430488160282
-0.2536999999999999,-56.82895291557852
-0.25470000000000004,-57.26751341853669
-0.2556999999999999,-57.87583927747865
-0.25670000000000004,-58.45587091042332
-0.25769999999999993,-58.75296028339497
-0.25870000000000004,-59.02175543036933
-0.25969999999999993,-59.44616882032884
-0.26070000000000004,-60.06864179226946
-0.26169999999999993,-60.71940899020737
-0.26270000000000004,-61.07308681517363
-0.26369999999999993,-61.28529351015339
-0.26470000000000005,-61.7662953521075
-0.26569999999999994,-62.37462121104946
-0.26670000000000005,-63.02538840898739
-0.26769999999999994,-63.37906623395363
-0.26870000000000005,-63.633714267929356
-0.26969999999999994,-64.15715744887942
-0.27070000000000005,-64.90695443780788
-0.27169999999999994,-65.5577216357458
-0.27270000000000005,-65.99628213870396
-0.27369999999999994,-66.34995996367022
-0.27470000000000006,-66.91584448361623
-0.27569999999999995,-67.65149435954605
-0.27670000000000006,-68.38714423547587
-0.27769999999999995,-68.86814607742998
-0.27870000000000006,-69.30670658038814
-0.27969999999999995,-69.87259110033416
-0.28070000000000006,-70.70727076725453
-0.28169999999999995,-71.4004793041884
-0.28270000000000006,-71.8814811461425
-0.28369999999999995,-72.36248298809663
-0.28470000000000006,-72.97080884703858
-0.28569999999999995,-73.80548851395896
-0.28670000000000007,-74.54113838988879
-0.28769999999999996,-75.06458157083884
-0.28870000000000007,-75.54558341279296
-0.28969999999999996,-76.23879194972683
-0.29070000000000007,-77.11591295564315
-0.29169999999999996,-77.95059262256353
-0.29270000000000007,-78.55891848150549
-0.29369999999999996,-79.1248030014515
-0.2947000000000001,-79.81801153838538
-0.29569999999999996,-80.61024986630979
-0.2967000000000001,-81.47322375922747
-0.29769999999999996,-82.13813807016405
-0.2987000000000001,-82.746463929106
-0.29969999999999997,-83.60943782202366
-0.3007000000000001,-84.6563241839238
-0.30169999999999997,-85.75979899781852
-0.3027000000000001,-86.5378902127443
-0.30369999999999997,-87.14621607168625
-0.3047000000000001,-87.93845439961068
-0.30569999999999997,-88.94289942251486
-0.3067000000000001,-89.80587331543254
-0.3077,-90.55567030436099
-0.3087000000000001,-91.12155482430701
-0.3097,-91.94208737822873
-0.3107000000000001,-92.98897374012887
-0.3117,-93.90853608504113
-0.3127000000000001,-94.601744621975
-0.3137,-95.22421759391563
-0.3147000000000001,-96.00230880884139
-0.3157,-97.04919517074151
-0.3167000000000001,-98.01119885464975
-0.3177,-98.83173140857146
-0.3187000000000001,-99.62396973649588
-0.3197,-100.670856098396
-0.3207000000000001,-101.88750781627995
-0.3217,-103.07586530816658
-0.3227000000000001,-103.98128054008019
-0.3237,-104.90084288499246
-0.3247000000000001,-105.90528790789664
-0.3257,-107.07949828678463
-0.3267000000000001,-108.21126732667666
-0.3277,-109.13082967158894
-0.3287000000000001,-110.05039201650122
-0.3297,-111.09727837840134
-0.3307000000000001,-112.31393009628526
-0.3317,-113.44569913617728
-0.3327000000000001,-114.3228201420936
-0.3337,-115.15749980901398
-0.3347000000000001,-116.20438617091412
-0.3357,-117.46347922779398
-0.3367000000000001,-118.72257228467387
-0.3377,-119.68457596858211
-0.3387000000000001,-120.68902099148629
-0.3397,-121.82079003137831
-0.3407000000000001,-123.09403020125686
-0.3417,-124.35312325813672
-0.3427000000000001,-125.35756828104091
-0.3437,-126.27713062595316
-0.3447000000000001,-127.4088996658452
-0.3457,-128.8094638527116
-0.3467000000000001,-130.11099824858744
-0.3477,-131.28520862747538
-0.3487000000000001,-132.24721231138363
-0.3497,-133.60533515925405
-0.3507000000000001,-135.09078202411234
-0.3517,-136.47719909798008
-0.3527000000000001,-137.70799792886265
-0.3537,-138.79732562975875
-0.3547000000000001,-140.0988600256346
-0.3557,-141.61260111649017
-0.35670000000000013,-143.16878354634173
-0.3577,-144.30055258623375
-0.35870000000000013,-145.43232162612577
-0.3597,-146.7055617960043
-0.36070000000000013,-148.26174422585584
-0.3617,-149.6764555257209
-0.3626999999999999,-150.94969569559944
-0.3637,-152.0814647354914
-0.3646999999999999,-153.49617603535648
-0.3657,-155.05235846520802
-0.3666999999999999,-156.60854089505958
-0.3677,-157.88178106493808
-0.3686999999999999,-159.15502123481662
-0.36970000000000003,-160.71120366466818
-0.3706999999999999,-162.40885722450622
-0.37170000000000003,-164.10651078434424
-0.3726999999999999,-165.5212220842093
-0.37370000000000003,-166.79446225408785
-0.3746999999999999,-168.20917355395284
-0.37570000000000003,-169.9068271137909
-0.3766999999999999,-171.46300954364247
-0.37770000000000004,-172.87772084350746
-0.3786999999999999,-174.0094898833995
-0.37970000000000004,-175.70714344323756
-0.3806999999999999,-177.4047970030756
-0.38170000000000004,-179.24392169290016
-0.38269999999999993,-180.65863299276518
-0.38370000000000004,-182.07334429263022
-0.38469999999999993,-183.62952672248176
-0.38570000000000004,-185.3271802823198
-0.38669999999999993,-184.6198246323873
-0.38570000000000004,-179.95127734283267
-0.38469999999999993,-175.84861457322407
-0.38370000000000004,-172.45330745354798
-0.38269999999999993,-169.48241372383137
-0.38170000000000004,-166.79446225408785
-0.3806999999999999,-163.96503965435775
-0.37970000000000004,-161.1356170546277
-0.3786999999999999,-158.5891367148706
-0.37770000000000004,-156.32559863508658
-0.3766999999999999,-154.0620605553025
-0.37570000000000003,-151.65705134553193
-0.3746999999999999,-149.39351326574788
-0.37370000000000003,-147.1299751859638
-0.3726999999999999,-145.00790823616626
-0.37170000000000003,-142.8858412863687
-0.3706999999999999,-140.5798618675887
-0.36970000000000003,-138.3163237878046
-0.3686999999999999,-136.26499240300032
-0.3677,-134.5107503911677
-0.3666999999999999,-132.55844879735392
-0.3657,-130.50711741254963
-0.3646999999999999,-128.37090334975343
-0.3637,-126.3195719649491
-0.3626999999999999,-124.62191840511109
-0.3617,-122.82523505428249
-0.36070000000000013,-120.77390366947817
-0.3597,-118.63768960668197
-0.35870000000000013,-116.72782935186417
-0.3577,-115.01602867902749
-0.35670000000000013,-113.19105110220158
-0.3557,-111.18216105639323
-0.3547000000000001,-109.13082967158894
-0.3537,-107.30585209476303
-0.3527000000000001,-105.63649276092228
-0.3517,-103.98128054008019
-0.3507000000000001,-102.07142028526239
-0.3497,-100.14741291744595
-0.3487000000000001,-98.40731801861195
-0.3477,-96.87942981475771
-0.3467000000000001,-95.39398294989942
-0.3457,-93.65388805106544
-0.3447000000000001,-91.81476336124088
-0.3437,-90.15955114039879
-0.3427000000000001,-88.71654561453644
-0.3417,-87.23109874967815
-0.3407000000000001,-85.44856251184822
-0.3397,-83.60943782202366
-0.3387000000000001,-81.95422560118158
-0.3377,-80.52536718831789
-0.3367000000000001,-79.0399203234596
-0.3357,-77.28567831162695
-0.3347000000000001,-75.50314207379701
-0.3337,-73.89037119195086
-0.3327000000000001,-72.57468968307639
-0.3317,-71.1458312702127
-0.3307000000000001,-69.53306038836655
-0.3297,-67.82125971552985
-0.3287000000000001,-66.29337151167562
-0.3277,-65.03427845479574
-0.3267000000000001,-63.732744058919906
-0.3257,-62.20485585506566
-0.3247000000000001,-60.67696765121143
-0.3237,-59.23396212534908
-0.3227000000000001,-58.05975174646111
-0.3217,-56.82895291557852
-0.3207000000000001,-55.400094502714836
-0.3197,-53.82976495986464
-0.3187000000000001,-52.471642111994214
-0.3177,-51.29743173310623
-0.3167000000000001,-50.0807800152223
-0.3157,-48.59533315036401
-0.3147000000000001,-47.15232762450167
-0.3137,-45.85079322862584
-0.3127000000000001,-44.84634820572166
-0.3117,-43.75702050482558
-0.3107000000000001,-42.4413389959511
-0.3097,-41.083216148080666
-0.3087000000000001,-39.86656443019674
-0.3077,-38.90456074628851
-0.3067000000000001,-37.81523304539243
-0.30569999999999997,-36.47125731052064
-0.3047000000000001,-35.07069312365426
-0.30369999999999997,-33.89648274476628
-0.3027000000000001,-32.892037721862096
-0.30169999999999997,-31.887592698957924
-0.3007000000000001,-30.614352529079397
-0.29969999999999997,-29.27037679420761
-0.2987000000000001,-28.18104909331153
-0.29769999999999996,-27.261486748399253
-0.2967000000000001,-26.29948306449103
-0.29569999999999996,-25.12527268560305
-0.2947000000000001,-23.823738289727217
-0.29369999999999996,-22.776851927827092
-0.29270000000000007,-21.94217226090672
-0.29169999999999996,-21.022609915994444
-0.29070000000000007,-19.93328221509837
-0.28969999999999996,-18.716630497214435
-0.28870000000000007,-17.71218547431026
-0.28769999999999996,-16.962388485381787
-0.28670000000000007,-16.141855931460068
-0.28569999999999995,-15.05252823056399
-0.28470000000000006,-13.960371107068182
-0.28369999999999995,-12.99978213445982
-0.28270000000000006,-12.258473413330542
-0.28169999999999995,-11.473308641905447
-0.28070000000000006,-10.42642228000532
-0.27969999999999995,-9.335679867809377
-0.27870000000000006,-8.464217707092514
-0.27769999999999995,-7.7653503249591855
-0.27670000000000006,-7.024041603829907
-0.27569999999999995,-6.064867342521412
-0.27470000000000006,-5.0618370309171015
-0.27369999999999994,-4.1889601589003735
-0.27270000000000005,-3.579219588658543
-0.27169999999999994,-2.8803522065252145
-0.27070000000000005,-1.9650339955125358
-0.26969999999999994,-1.0054353208140816
-0.26870000000000005,-0.1766974413531431
-0.26769999999999994,0.3903188476327636
-0.26670000000000005,1.0446228238203432
