Sept. 5, 2024   00:44:00
Cyclic Voltammetry
File: c:/users/guazh/data/20240903_batch_252_500/2024-09-03-exp266\exp266-2024-09-05t00_35_27-h2koh\exp266_cv_50mvs_efin_-1500mv.bin
Data Source:  Experiment
Instrument Model:  CHI760E
Header: CV ran at 50 mVs
Note: 

Init E (V) = -1
High E (V) = -1
Low E (V) = -1.5
Final E (V) = -1
Init P/N = N
Scan Rate (V/s) = 0.05
Segment = 7
Sample Interval (V) = 0.001
Quiet Time (sec) = 60
Sensitivity (A/V) = 0.001
Comp R (ohm) = 2.3

Results:

Channel 1:
Segment 1:

Segment 2:

Segment 3:

Segment 4:

Segment 5:

Segment 6:

Segment 7:

Potential/V, Current/A

-1.000, 2.925e-6
-1.001, 3.629e-6
-1.002, 4.037e-6
-1.003, 4.194e-6
-1.004, 4.403e-6
-1.005, 4.480e-6
-1.006, 4.572e-6
-1.007, 4.830e-6
-1.008, 4.803e-6
-1.009, 4.964e-6
-1.010, 5.008e-6
-1.011, 5.151e-6
-1.012, 5.248e-6
-1.013, 5.366e-6
-1.014, 5.464e-6
-1.015, 5.434e-6
-1.016, 5.540e-6
-1.017, 5.653e-6
-1.018, 5.718e-6
-1.019, 5.689e-6
-1.020, 5.800e-6
-1.021, 5.792e-6
-1.022, 5.983e-6
-1.023, 6.027e-6
-1.024, 6.105e-6
-1.025, 6.091e-6
-1.026, 6.165e-6
-1.027, 6.279e-6
-1.028, 6.242e-6
-1.029, 6.367e-6
-1.030, 6.301e-6
-1.031, 6.386e-6
-1.032, 6.512e-6
-1.033, 6.544e-6
-1.034, 6.601e-6
-1.035, 6.652e-6
-1.036, 6.734e-6
-1.037, 6.832e-6
-1.038, 6.845e-6
-1.039, 6.870e-6
-1.040, 6.857e-6
-1.041, 6.908e-6
-1.042, 7.055e-6
-1.043, 6.994e-6
-1.044, 7.111e-6
-1.045, 7.141e-6
-1.046, 7.238e-6
-1.047, 7.361e-6
-1.048, 7.390e-6
-1.049, 7.415e-6
-1.050, 7.451e-6
-1.051, 7.471e-6
-1.052, 7.614e-6
-1.053, 7.630e-6
-1.054, 7.734e-6
-1.055, 7.861e-6
-1.056, 7.819e-6
-1.057, 7.978e-6
-1.058, 8.004e-6
-1.059, 8.022e-6
-1.060, 8.081e-6
-1.061, 8.137e-6
-1.062, 8.293e-6
-1.063, 8.392e-6
-1.064, 8.437e-6
-1.065, 8.406e-6
-1.066, 8.535e-6
-1.067, 8.619e-6
-1.068, 8.635e-6
-1.069, 8.776e-6
-1.070, 8.832e-6
-1.071, 8.818e-6
-1.072, 8.915e-6
-1.073, 8.945e-6
-1.074, 9.100e-6
-1.075, 9.183e-6
-1.076, 9.288e-6
-1.077, 9.441e-6
-1.078, 9.466e-6
-1.079, 9.598e-6
-1.080, 9.560e-6
-1.081, 9.648e-6
-1.082, 9.837e-6
-1.083, 9.786e-6
-1.084, 9.939e-6
-1.085, 1.007e-5
-1.086, 1.007e-5
-1.087, 1.022e-5
-1.088, 1.031e-5
-1.089, 1.039e-5
-1.090, 1.038e-5
-1.091, 1.048e-5
-1.092, 1.061e-5
-1.093, 1.070e-5
-1.094, 1.081e-5
-1.095, 1.096e-5
-1.096, 1.098e-5
-1.097, 1.120e-5
-1.098, 1.127e-5
-1.099, 1.126e-5
-1.100, 1.137e-5
-1.101, 1.143e-5
-1.102, 1.152e-5
-1.103, 1.162e-5
-1.104, 1.173e-5
-1.105, 1.180e-5
-1.106, 1.193e-5
-1.107, 1.205e-5
-1.108, 1.210e-5
-1.109, 1.224e-5
-1.110, 1.230e-5
-1.111, 1.230e-5
-1.112, 1.245e-5
-1.113, 1.259e-5
-1.114, 1.273e-5
-1.115, 1.275e-5
-1.116, 1.287e-5
-1.117, 1.297e-5
-1.118, 1.297e-5
-1.119, 1.311e-5
-1.120, 1.317e-5
-1.121, 1.320e-5
-1.122, 1.339e-5
-1.123, 1.338e-5
-1.124, 1.371e-5
-1.125, 1.375e-5
-1.126, 1.369e-5
-1.127, 1.384e-5
-1.128, 1.390e-5
-1.129, 1.409e-5
-1.130, 1.411e-5
-1.131, 1.417e-5
-1.132, 1.431e-5
-1.133, 1.438e-5
-1.134, 1.443e-5
-1.135, 1.448e-5
-1.136, 1.459e-5
-1.137, 1.469e-5
-1.138, 1.487e-5
-1.139, 1.491e-5
-1.140, 1.491e-5
-1.141, 1.498e-5
-1.142, 1.501e-5
-1.143, 1.517e-5
-1.144, 1.522e-5
-1.145, 1.523e-5
-1.146, 1.533e-5
-1.147, 1.539e-5
-1.148, 1.555e-5
-1.149, 1.569e-5
-1.150, 1.573e-5
-1.151, 1.583e-5
-1.152, 1.593e-5
-1.153, 1.595e-5
-1.154, 1.603e-5
-1.155, 1.602e-5
-1.156, 1.606e-5
-1.157, 1.625e-5
-1.158, 1.632e-5
-1.159, 1.638e-5
-1.160, 1.639e-5
-1.161, 1.650e-5
-1.162, 1.655e-5
-1.163, 1.659e-5
-1.164, 1.668e-5
-1.165, 1.673e-5
-1.166, 1.677e-5
-1.167, 1.697e-5
-1.168, 1.691e-5
-1.169, 1.706e-5
-1.170, 1.701e-5
-1.171, 1.704e-5
-1.172, 1.734e-5
-1.173, 1.740e-5
-1.174, 1.739e-5
-1.175, 1.728e-5
-1.176, 1.739e-5
-1.177, 1.745e-5
-1.178, 1.759e-5
-1.179, 1.763e-5
-1.180, 1.759e-5
-1.181, 1.764e-5
-1.182, 1.771e-5
-1.183, 1.775e-5
-1.184, 1.775e-5
-1.185, 1.787e-5
-1.186, 1.795e-5
-1.187, 1.804e-5
-1.188, 1.808e-5
-1.189, 1.811e-5
-1.190, 1.808e-5
-1.191, 1.814e-5
-1.192, 1.820e-5
-1.193, 1.809e-5
-1.194, 1.828e-5
-1.195, 1.830e-5
-1.196, 1.837e-5
-1.197, 1.852e-5
-1.198, 1.857e-5
-1.199, 1.856e-5
-1.200, 1.852e-5
-1.201, 1.862e-5
-1.202, 1.874e-5
-1.203, 1.876e-5
-1.204, 1.882e-5
-1.205, 1.880e-5
-1.206, 1.890e-5
-1.207, 1.907e-5
-1.208, 1.907e-5
-1.209, 1.905e-5
-1.210, 1.917e-5
-1.211, 1.913e-5
-1.212, 1.916e-5
-1.213, 1.922e-5
-1.214, 1.935e-5
-1.215, 1.944e-5
-1.216, 1.951e-5
-1.217, 1.953e-5
-1.218, 1.957e-5
-1.219, 1.962e-5
-1.220, 1.970e-5
-1.221, 1.976e-5
-1.222, 1.977e-5
-1.223, 1.987e-5
-1.224, 2.001e-5
-1.225, 2.005e-5
-1.226, 2.014e-5
-1.227, 2.019e-5
-1.228, 2.028e-5
-1.229, 2.035e-5
-1.230, 2.040e-5
-1.231, 2.043e-5
-1.232, 2.054e-5
-1.233, 2.053e-5
-1.234, 2.054e-5
-1.235, 2.061e-5
-1.236, 2.075e-5
-1.237, 2.088e-5
-1.238, 2.098e-5
-1.239, 2.115e-5
-1.240, 2.112e-5
-1.241, 2.115e-5
-1.242, 2.129e-5
-1.243, 2.132e-5
-1.244, 2.139e-5
-1.245, 2.143e-5
-1.246, 2.148e-5
-1.247, 2.162e-5
-1.248, 2.173e-5
-1.249, 2.189e-5
-1.250, 2.204e-5
-1.251, 2.214e-5
-1.252, 2.220e-5
-1.253, 2.231e-5
-1.254, 2.234e-5
-1.255, 2.243e-5
-1.256, 2.248e-5
-1.257, 2.266e-5
-1.258, 2.293e-5
-1.259, 2.297e-5
-1.260, 2.302e-5
-1.261, 2.316e-5
-1.262, 2.334e-5
-1.263, 2.345e-5
-1.264, 2.354e-5
-1.265, 2.353e-5
-1.266, 2.371e-5
-1.267, 2.383e-5
-1.268, 2.394e-5
-1.269, 2.406e-5
-1.270, 2.426e-5
-1.271, 2.458e-5
-1.272, 2.463e-5
-1.273, 2.487e-5
-1.274, 2.491e-5
-1.275, 2.497e-5
-1.276, 2.510e-5
-1.277, 2.530e-5
-1.278, 2.538e-5
-1.279, 2.558e-5
-1.280, 2.586e-5
-1.281, 2.598e-5
-1.282, 2.616e-5
-1.283, 2.632e-5
-1.284, 2.645e-5
-1.285, 2.654e-5
-1.286, 2.677e-5
-1.287, 2.693e-5
-1.288, 2.726e-5
-1.289, 2.744e-5
-1.290, 2.761e-5
-1.291, 2.766e-5
-1.292, 2.788e-5
-1.293, 2.817e-5
-1.294, 2.835e-5
-1.295, 2.860e-5
-1.296, 2.876e-5
-1.297, 2.897e-5
-1.298, 2.920e-5
-1.299, 2.936e-5
-1.300, 2.955e-5
-1.301, 2.983e-5
-1.302, 3.008e-5
-1.303, 3.036e-5
-1.304, 3.045e-5
-1.305, 3.072e-5
-1.306, 3.096e-5
-1.307, 3.130e-5
-1.308, 3.178e-5
-1.309, 3.194e-5
-1.310, 3.209e-5
-1.311, 3.242e-5
-1.312, 3.280e-5
-1.313, 3.299e-5
-1.314, 3.328e-5
-1.315, 3.363e-5
-1.316, 3.403e-5
-1.317, 3.435e-5
-1.318, 3.469e-5
-1.319, 3.501e-5
-1.320, 3.522e-5
-1.321, 3.565e-5
-1.322, 3.587e-5
-1.323, 3.644e-5
-1.324, 3.683e-5
-1.325, 3.721e-5
-1.326, 3.761e-5
-1.327, 3.803e-5
-1.328, 3.835e-5
-1.329, 3.873e-5
-1.330, 3.912e-5
-1.331, 3.953e-5
-1.332, 3.997e-5
-1.333, 4.048e-5
-1.334, 4.083e-5
-1.335, 4.138e-5
-1.336, 4.187e-5
-1.337, 4.241e-5
-1.338, 4.313e-5
-1.339, 4.346e-5
-1.340, 4.385e-5
-1.341, 4.443e-5
-1.342, 4.491e-5
-1.343, 4.551e-5
-1.344, 4.602e-5
-1.345, 4.645e-5
-1.346, 4.718e-5
-1.347, 4.781e-5
-1.348, 4.856e-5
-1.349, 4.924e-5
-1.350, 4.975e-5
-1.351, 5.036e-5
-1.352, 5.093e-5
-1.353, 5.164e-5
-1.354, 5.231e-5
-1.355, 5.298e-5
-1.356, 5.376e-5
-1.357, 5.462e-5
-1.358, 5.542e-5
-1.359, 5.610e-5
-1.360, 5.678e-5
-1.361, 5.766e-5
-1.362, 5.831e-5
-1.363, 5.924e-5
-1.364, 6.019e-5
-1.365, 6.109e-5
-1.366, 6.197e-5
-1.367, 6.281e-5
-1.368, 6.372e-5
-1.369, 6.464e-5
-1.370, 6.557e-5
-1.371, 6.654e-5
-1.372, 6.730e-5
-1.373, 6.863e-5
-1.374, 6.962e-5
-1.375, 7.070e-5
-1.376, 7.166e-5
-1.377, 7.281e-5
-1.378, 7.395e-5
-1.379, 7.512e-5
-1.380, 7.622e-5
-1.381, 7.745e-5
-1.382, 7.863e-5
-1.383, 7.986e-5
-1.384, 8.107e-5
-1.385, 8.208e-5
-1.386, 8.370e-5
-1.387, 8.510e-5
-1.388, 8.643e-5
-1.389, 8.769e-5
-1.390, 8.911e-5
-1.391, 9.049e-5
-1.392, 9.191e-5
-1.393, 9.341e-5
-1.394, 9.486e-5
-1.395, 9.633e-5
-1.396, 9.807e-5
-1.397, 9.955e-5
-1.398, 1.013e-4
-1.399, 1.031e-4
-1.400, 1.046e-4
-1.401, 1.062e-4
-1.402, 1.080e-4
-1.403, 1.099e-4
-1.404, 1.116e-4
-1.405, 1.135e-4
-1.406, 1.149e-4
-1.407, 1.173e-4
-1.408, 1.193e-4
-1.409, 1.210e-4
-1.410, 1.230e-4
-1.411, 1.252e-4
-1.412, 1.273e-4
-1.413, 1.295e-4
-1.414, 1.315e-4
-1.415, 1.340e-4
-1.416, 1.363e-4
-1.417, 1.383e-4
-1.418, 1.408e-4
-1.419, 1.431e-4
-1.420, 1.457e-4
-1.421, 1.481e-4
-1.422, 1.506e-4
-1.423, 1.531e-4
-1.424, 1.557e-4
-1.425, 1.583e-4
-1.426, 1.611e-4
-1.427, 1.639e-4
-1.428, 1.670e-4
-1.429, 1.698e-4
-1.430, 1.726e-4
-1.431, 1.755e-4
-1.432, 1.784e-4
-1.433, 1.816e-4
-1.434, 1.850e-4
-1.435, 1.874e-4
-1.436, 1.911e-4
-1.437, 1.946e-4
-1.438, 1.980e-4
-1.439, 2.012e-4
-1.440, 2.044e-4
-1.441, 2.079e-4
-1.442, 2.117e-4
-1.443, 2.156e-4
-1.444, 2.195e-4
-1.445, 2.233e-4
-1.446, 2.269e-4
-1.447, 2.306e-4
-1.448, 2.345e-4
-1.449, 2.386e-4
-1.450, 2.426e-4
-1.451, 2.467e-4
-1.452, 2.513e-4
-1.453, 2.559e-4
-1.454, 2.608e-4
-1.455, 2.648e-4
-1.456, 2.697e-4
-1.457, 2.748e-4
-1.458, 2.796e-4
-1.459, 2.843e-4
-1.460, 2.891e-4
-1.461, 2.945e-4
-1.462, 2.999e-4
-1.463, 3.054e-4
-1.464, 3.108e-4
-1.465, 3.150e-4
-1.466, 3.209e-4
-1.467, 3.273e-4
-1.468, 3.324e-4
-1.469, 3.381e-4
-1.470, 3.440e-4
-1.471, 3.502e-4
-1.472, 3.563e-4
-1.473, 3.631e-4
-1.474, 3.699e-4
-1.475, 3.756e-4
-1.476, 3.828e-4
-1.477, 3.902e-4
-1.478, 3.968e-4
-1.479, 4.035e-4
-1.480, 4.102e-4
-1.481, 4.177e-4
-1.482, 4.257e-4
-1.483, 4.340e-4
-1.484, 4.414e-4
-1.485, 4.478e-4
-1.486, 4.558e-4
-1.487, 4.637e-4
-1.488, 4.716e-4
-1.489, 4.795e-4
-1.490, 4.882e-4
-1.491, 4.971e-4
-1.492, 5.073e-4
-1.493, 5.153e-4
-1.494, 5.242e-4
-1.495, 5.335e-4
-1.496, 5.415e-4
-1.497, 5.500e-4
-1.498, 5.600e-4
-1.499, 5.706e-4
-1.500, 5.704e-4
-1.499, 5.642e-4
-1.498, 5.577e-4
-1.497, 5.460e-4
-1.496, 5.390e-4
-1.495, 5.329e-4
-1.494, 5.253e-4
-1.493, 5.173e-4
-1.492, 5.099e-4
-1.491, 5.022e-4
-1.490, 4.940e-4
-1.489, 4.862e-4
-1.488, 4.790e-4
-1.487, 4.711e-4
-1.486, 4.630e-4
-1.485, 4.561e-4
-1.484, 4.499e-4
-1.483, 4.420e-4
-1.482, 4.346e-4
-1.481, 4.272e-4
-1.480, 4.204e-4
-1.479, 4.135e-4
-1.478, 4.069e-4
-1.477, 4.014e-4
-1.476, 3.948e-4
-1.475, 3.881e-4
-1.474, 3.819e-4
-1.473, 3.762e-4
-1.472, 3.699e-4
-1.471, 3.635e-4
-1.470, 3.570e-4
-1.469, 3.511e-4
-1.468, 3.455e-4
-1.467, 3.405e-4
-1.466, 3.353e-4
-1.465, 3.297e-4
-1.464, 3.226e-4
-1.463, 3.175e-4
-1.462, 3.131e-4
-1.461, 3.077e-4
-1.460, 3.032e-4
-1.459, 2.981e-4
-1.458, 2.929e-4
-1.457, 2.880e-4
-1.456, 2.830e-4
-1.455, 2.787e-4
-1.454, 2.744e-4
-1.453, 2.698e-4
-1.452, 2.650e-4
-1.451, 2.607e-4
-1.450, 2.561e-4
-1.449, 2.514e-4
-1.448, 2.470e-4
-1.447, 2.429e-4
-1.446, 2.390e-4
-1.445, 2.351e-4
-1.444, 2.310e-4
-1.443, 2.270e-4
-1.442, 2.236e-4
-1.441, 2.201e-4
-1.440, 2.162e-4
-1.439, 2.125e-4
-1.438, 2.092e-4
-1.437, 2.058e-4
-1.436, 2.024e-4
-1.435, 1.992e-4
-1.434, 1.952e-4
-1.433, 1.923e-4
-1.432, 1.896e-4
-1.431, 1.863e-4
-1.430, 1.830e-4
-1.429, 1.798e-4
-1.428, 1.770e-4
-1.427, 1.741e-4
-1.426, 1.715e-4
-1.425, 1.685e-4
-1.424, 1.660e-4
-1.423, 1.633e-4
-1.422, 1.607e-4
-1.421, 1.583e-4
-1.420, 1.556e-4
-1.419, 1.529e-4
-1.418, 1.503e-4
-1.417, 1.477e-4
-1.416, 1.455e-4
-1.415, 1.432e-4
-1.414, 1.407e-4
-1.413, 1.385e-4
-1.412, 1.364e-4
-1.411, 1.343e-4
-1.410, 1.321e-4
-1.409, 1.298e-4
-1.408, 1.276e-4
-1.407, 1.256e-4
-1.406, 1.237e-4
-1.405, 1.218e-4
-1.404, 1.194e-4
-1.403, 1.179e-4
-1.402, 1.157e-4
-1.401, 1.138e-4
-1.400, 1.117e-4
-1.399, 1.098e-4
-1.398, 1.079e-4
-1.397, 1.063e-4
-1.396, 1.044e-4
-1.395, 1.028e-4
-1.394, 1.012e-4
-1.393, 9.940e-5
-1.392, 9.796e-5
-1.391, 9.621e-5
-1.390, 9.452e-5
-1.389, 9.291e-5
-1.388, 9.133e-5
-1.387, 8.972e-5
-1.386, 8.828e-5
-1.385, 8.678e-5
-1.384, 8.533e-5
-1.383, 8.392e-5
-1.382, 8.246e-5
-1.381, 8.120e-5
-1.380, 7.981e-5
-1.379, 7.852e-5
-1.378, 7.719e-5
-1.377, 7.576e-5
-1.376, 7.453e-5
-1.375, 7.318e-5
-1.374, 7.196e-5
-1.373, 7.076e-5
-1.372, 6.954e-5
-1.371, 6.826e-5
-1.370, 6.726e-5
-1.369, 6.600e-5
-1.368, 6.493e-5
-1.367, 6.380e-5
-1.366, 6.260e-5
-1.365, 6.150e-5
-1.364, 6.039e-5
-1.363, 5.934e-5
-1.362, 5.825e-5
-1.361, 5.716e-5
-1.360, 5.624e-5
-1.359, 5.526e-5
-1.358, 5.427e-5
-1.357, 5.332e-5
-1.356, 5.229e-5
-1.355, 5.122e-5
-1.354, 5.028e-5
-1.353, 4.939e-5
-1.352, 4.853e-5
-1.351, 4.742e-5
-1.350, 4.656e-5
-1.349, 4.579e-5
-1.348, 4.504e-5
-1.347, 4.413e-5
-1.346, 4.327e-5
-1.345, 4.241e-5
-1.344, 4.149e-5
-1.343, 4.077e-5
-1.342, 3.994e-5
-1.341, 3.926e-5
-1.340, 3.836e-5
-1.339, 3.750e-5
-1.338, 3.688e-5
-1.337, 3.616e-5
-1.336, 3.550e-5
-1.335, 3.471e-5
-1.334, 3.396e-5
-1.333, 3.338e-5
-1.332, 3.257e-5
-1.331, 3.184e-5
-1.330, 3.120e-5
-1.329, 3.048e-5
-1.328, 2.987e-5
-1.327, 2.927e-5
-1.326, 2.866e-5
-1.325, 2.809e-5
-1.324, 2.746e-5
-1.323, 2.687e-5
-1.322, 2.624e-5
-1.321, 2.562e-5
-1.320, 2.500e-5
-1.319, 2.442e-5
-1.318, 2.386e-5
-1.317, 2.332e-5
-1.316, 2.281e-5
-1.315, 2.229e-5
-1.314, 2.185e-5
-1.313, 2.136e-5
-1.312, 2.075e-5
-1.311, 2.029e-5
-1.310, 1.969e-5
-1.309, 1.920e-5
-1.308, 1.875e-5
-1.307, 1.823e-5
-1.306, 1.782e-5
-1.305, 1.736e-5
-1.304, 1.695e-5
-1.303, 1.658e-5
-1.302, 1.611e-5
-1.301, 1.571e-5
-1.300, 1.514e-5
-1.299, 1.474e-5
-1.298, 1.436e-5
-1.297, 1.387e-5
-1.296, 1.349e-5
-1.295, 1.312e-5
-1.294, 1.274e-5
-1.293, 1.246e-5
-1.292, 1.209e-5
-1.291, 1.170e-5
-1.290, 1.130e-5
-1.289, 1.087e-5
-1.288, 1.058e-5
-1.287, 1.019e-5
-1.286, 9.843e-6
-1.285, 9.524e-6
-1.284, 9.200e-6
-1.283, 8.993e-6
-1.282, 8.745e-6
-1.281, 8.345e-6
-1.280, 7.986e-6
-1.279, 7.661e-6
-1.278, 7.357e-6
-1.277, 7.051e-6
-1.276, 6.803e-6
-1.275, 6.472e-6
-1.274, 6.238e-6
-1.273, 6.046e-6
-1.272, 5.783e-6
-1.271, 5.511e-6
-1.270, 5.152e-6
-1.269, 4.909e-6
-1.268, 4.685e-6
-1.267, 4.452e-6
-1.266, 4.165e-6
-1.265, 3.923e-6
-1.264, 3.693e-6
-1.263, 3.518e-6
-1.262, 3.201e-6
-1.261, 3.068e-6
-1.260, 2.843e-6
-1.259, 2.583e-6
-1.258, 2.444e-6
-1.257, 2.210e-6
-1.256, 2.018e-6
-1.255, 1.791e-6
-1.254, 1.512e-6
-1.253, 1.430e-6
-1.252, 1.294e-6
-1.251, 1.070e-6
-1.250, 8.256e-7
-1.249, 6.075e-7
-1.248, 5.385e-7
-1.247, 3.116e-7
-1.246, 8.761e-8
-1.245, 6.492e-8
-1.244, -1.699e-7
-1.243, -2.656e-7
-1.242, -3.573e-7
-1.241, -5.793e-7
-1.240, -7.747e-7
-1.239, -9.335e-7
-1.238, -1.098e-6
-1.237, -1.169e-6
-1.236, -1.370e-6
-1.235, -1.594e-6
-1.234, -1.709e-6
-1.233, -1.716e-6
-1.232, -1.847e-6
-1.231, -1.956e-6
-1.230, -2.134e-6
-1.229, -2.342e-6
-1.228, -2.444e-6
-1.227, -2.554e-6
-1.226, -2.620e-6
-1.225, -2.830e-6
-1.224, -2.980e-6
-1.223, -2.958e-6
-1.222, -3.086e-6
-1.221, -3.131e-6
-1.220, -3.286e-6
-1.219, -3.441e-6
-1.218, -3.480e-6
-1.217, -3.627e-6
-1.216, -3.725e-6
-1.215, -3.839e-6
-1.214, -3.965e-6
-1.213, -4.042e-6
-1.212, -4.121e-6
-1.211, -4.115e-6
-1.210, -4.250e-6
-1.209, -4.324e-6
-1.208, -4.375e-6
-1.207, -4.476e-6
-1.206, -4.624e-6
-1.205, -4.701e-6
-1.204, -4.793e-6
-1.203, -4.838e-6
-1.202, -4.891e-6
-1.201, -5.026e-6
-1.200, -5.070e-6
-1.199, -5.119e-6
-1.198, -5.227e-6
-1.197, -5.264e-6
-1.196, -5.336e-6
-1.195, -5.400e-6
-1.194, -5.495e-6
-1.193, -5.535e-6
-1.192, -5.609e-6
-1.191, -5.292e-6
-1.190, -5.765e-6
-1.189, -5.832e-6
-1.188, -5.928e-6
-1.187, -6.007e-6
-1.186, -5.945e-6
-1.185, -6.139e-6
-1.184, -6.105e-6
-1.183, -6.135e-6
-1.182, -6.263e-6
-1.181, -6.290e-6
-1.180, -6.392e-6
-1.179, -6.455e-6
-1.178, -6.505e-6
-1.177, -6.558e-6
-1.176, -6.548e-6
-1.175, -6.653e-6
-1.174, -6.719e-6
-1.173, -6.723e-6
-1.172, -6.767e-6
-1.171, -6.863e-6
-1.170, -6.904e-6
-1.169, -7.022e-6
-1.168, -6.953e-6
-1.167, -7.042e-6
-1.166, -7.114e-6
-1.165, -7.153e-6
-1.164, -7.227e-6
-1.163, -7.275e-6
-1.162, -7.278e-6
-1.161, -7.323e-6
-1.160, -7.384e-6
-1.159, -7.474e-6
-1.158, -7.495e-6
-1.157, -7.549e-6
-1.156, -7.568e-6
-1.155, -7.690e-6
-1.154, -7.725e-6
-1.153, -7.740e-6
-1.152, -7.756e-6
-1.151, -7.835e-6
-1.150, -7.899e-6
-1.149, -7.938e-6
-1.148, -7.990e-6
-1.147, -8.053e-6
-1.146, -8.050e-6
-1.145, -8.179e-6
-1.144, -8.174e-6
-1.143, -8.173e-6
-1.142, -8.281e-6
-1.141, -8.278e-6
-1.140, -8.368e-6
-1.139, -8.497e-6
-1.138, -8.482e-6
-1.137, -8.503e-6
-1.136, -8.542e-6
-1.135, -8.714e-6
-1.134, -8.747e-6
-1.133, -8.748e-6
-1.132, -8.742e-6
-1.131, -8.875e-6
-1.130, -8.875e-6
-1.129, -8.999e-6
-1.128, -8.970e-6
-1.127, -9.057e-6
-1.126, -9.148e-6
-1.125, -9.203e-6
-1.124, -9.182e-6
-1.123, -9.235e-6
-1.122, -9.353e-6
-1.121, -9.362e-6
-1.120, -9.509e-6
-1.119, -9.518e-6
-1.118, -9.517e-6
-1.117, -9.588e-6
-1.116, -9.677e-6
-1.115, -9.770e-6
-1.114, -9.750e-6
-1.113, -9.845e-6
-1.112, -9.845e-6
-1.111, -9.903e-6
-1.110, -1.007e-5
-1.109, -1.011e-5
-1.108, -1.008e-5
-1.107, -1.014e-5
-1.106, -1.022e-5
-1.105, -1.029e-5
-1.104, -1.037e-5
-1.103, -1.034e-5
-1.102, -1.043e-5
-1.101, -1.052e-5
-1.100, -1.064e-5
-1.099, -1.065e-5
-1.098, -1.066e-5
-1.097, -1.085e-5
-1.096, -1.074e-5
-1.095, -1.077e-5
-1.094, -1.092e-5
-1.093, -1.087e-5
-1.092, -1.094e-5
-1.091, -1.104e-5
-1.090, -1.114e-5
-1.089, -1.122e-5
-1.088, -1.118e-5
-1.087, -1.122e-5
-1.086, -1.135e-5
-1.085, -1.143e-5
-1.084, -1.149e-5
-1.083, -1.156e-5
-1.082, -1.161e-5
-1.081, -1.172e-5
-1.080, -1.170e-5
-1.079, -1.187e-5
-1.078, -1.187e-5
-1.077, -1.192e-5
-1.076, -1.205e-5
-1.075, -1.212e-5
-1.074, -1.227e-5
-1.073, -1.236e-5
-1.072, -1.239e-5
-1.071, -1.244e-5
-1.070, -1.251e-5
-1.069, -1.267e-5
-1.068, -1.270e-5
-1.067, -1.284e-5
-1.066, -1.295e-5
-1.065, -1.302e-5
-1.064, -1.309e-5
-1.063, -1.312e-5
-1.062, -1.329e-5
-1.061, -1.345e-5
-1.060, -1.360e-5
-1.059, -1.370e-5
-1.058, -1.367e-5
-1.057, -1.387e-5
-1.056, -1.397e-5
-1.055, -1.413e-5
-1.054, -1.423e-5
-1.053, -1.431e-5
-1.052, -1.445e-5
-1.051, -1.461e-5
-1.050, -1.480e-5
-1.049, -1.492e-5
-1.048, -1.498e-5
-1.047, -1.519e-5
-1.046, -1.540e-5
-1.045, -1.551e-5
-1.044, -1.564e-5
-1.043, -1.581e-5
-1.042, -1.590e-5
-1.041, -1.608e-5
-1.040, -1.624e-5
-1.039, -1.641e-5
-1.038, -1.659e-5
-1.037, -1.675e-5
-1.036, -1.695e-5
-1.035, -1.718e-5
-1.034, -1.735e-5
-1.033, -1.750e-5
-1.032, -1.765e-5
-1.031, -1.784e-5
-1.030, -1.805e-5
-1.029, -1.825e-5
-1.028, -1.834e-5
-1.027, -1.863e-5
-1.026, -1.877e-5
-1.025, -1.905e-5
-1.024, -1.929e-5
-1.023, -1.938e-5
-1.022, -1.964e-5
-1.021, -1.978e-5
-1.020, -2.003e-5
-1.019, -2.023e-5
-1.018, -2.047e-5
-1.017, -2.069e-5
-1.016, -2.087e-5
-1.015, -2.111e-5
-1.014, -2.142e-5
-1.013, -2.153e-5
-1.012, -2.175e-5
-1.011, -2.202e-5
-1.010, -2.222e-5
-1.009, -2.259e-5
-1.008, -2.265e-5
-1.007, -2.289e-5
-1.006, -2.314e-5
-1.005, -2.336e-5
-1.004, -2.357e-5
-1.003, -2.378e-5
-1.002, -2.408e-5
-1.001, -2.425e-5
-1.000, -1.954e-5
-1.001, -1.723e-5
-1.002, -1.590e-5
-1.003, -1.487e-5
-1.004, -1.395e-5
-1.005, -1.304e-5
-1.006, -1.224e-5
-1.007, -1.142e-5
-1.008, -1.074e-5
-1.009, -1.007e-5
-1.010, -9.436e-6
-1.011, -8.871e-6
-1.012, -8.233e-6
-1.013, -7.706e-6
-1.014, -7.146e-6
-1.015, -6.623e-6
-1.016, -6.206e-6
-1.017, -5.685e-6
-1.018, -5.201e-6
-1.019, -4.843e-6
-1.020, -4.452e-6
-1.021, -3.977e-6
-1.022, -3.577e-6
-1.023, -3.245e-6
-1.024, -2.844e-6
-1.025, -2.555e-6
-1.026, -2.149e-6
-1.027, -1.805e-6
-1.028, -1.539e-6
-1.029, -1.244e-6
-1.030, -9.513e-7
-1.031, -6.227e-7
-1.032, -3.366e-7
-1.033, -4.953e-8
-1.034, 2.021e-7
-1.035, 3.935e-7
-1.036, 6.806e-7
-1.037, 1.015e-6
-1.038, 1.191e-6
-1.039, 1.464e-6
-1.040, 1.606e-6
-1.041, 1.816e-6
-1.042, 2.146e-6
-1.043, 2.256e-6
-1.044, 2.513e-6
-1.045, 2.659e-6
-1.046, 2.842e-6
-1.047, 3.068e-6
-1.048, 3.186e-6
-1.049, 3.424e-6
-1.050, 3.543e-6
-1.051, 3.681e-6
-1.052, 3.891e-6
-1.053, 4.059e-6
-1.054, 4.181e-6
-1.055, 4.348e-6
-1.056, 4.414e-6
-1.057, 4.606e-6
-1.058, 4.772e-6
-1.059, 4.855e-6
-1.060, 4.911e-6
-1.061, 5.063e-6
-1.062, 5.228e-6
-1.063, 5.341e-6
-1.064, 5.414e-6
-1.065, 5.520e-6
-1.066, 5.593e-6
-1.067, 5.715e-6
-1.068, 5.783e-6
-1.069, 5.868e-6
-1.070, 5.983e-6
-1.071, 6.172e-6
-1.072, 6.226e-6
-1.073, 6.211e-6
-1.074, 6.310e-6
-1.075, 6.267e-6
-1.076, 6.362e-6
-1.077, 6.464e-6
-1.078, 6.473e-6
-1.079, 6.560e-6
-1.080, 6.569e-6
-1.081, 6.598e-6
-1.082, 6.710e-6
-1.083, 6.720e-6
-1.084, 6.807e-6
-1.085, 6.787e-6
-1.086, 6.810e-6
-1.087, 6.883e-6
-1.088, 6.890e-6
-1.089, 6.971e-6
-1.090, 6.912e-6
-1.091, 6.900e-6
-1.092, 6.989e-6
-1.093, 7.038e-6
-1.094, 6.994e-6
-1.095, 7.086e-6
-1.096, 7.023e-6
-1.097, 7.111e-6
-1.098, 7.132e-6
-1.099, 7.128e-6
-1.100, 7.103e-6
-1.101, 7.116e-6
-1.102, 7.095e-6
-1.103, 7.143e-6
-1.104, 7.130e-6
-1.105, 7.082e-6
-1.106, 7.080e-6
-1.107, 7.201e-6
-1.108, 7.212e-6
-1.109, 7.159e-6
-1.110, 7.161e-6
-1.111, 7.150e-6
-1.112, 7.160e-6
-1.113, 7.139e-6
-1.114, 7.166e-6
-1.115, 7.104e-6
-1.116, 7.108e-6
-1.117, 7.232e-6
-1.118, 7.181e-6
-1.119, 7.215e-6
-1.120, 7.181e-6
-1.121, 7.150e-6
-1.122, 7.230e-6
-1.123, 7.218e-6
-1.124, 7.211e-6
-1.125, 7.157e-6
-1.126, 7.155e-6
-1.127, 7.254e-6
-1.128, 7.207e-6
-1.129, 7.262e-6
-1.130, 7.245e-6
-1.131, 7.213e-6
-1.132, 7.289e-6
-1.133, 7.302e-6
-1.134, 7.251e-6
-1.135, 7.345e-6
-1.136, 7.308e-6
-1.137, 7.320e-6
-1.138, 7.365e-6
-1.139, 7.351e-6
-1.140, 7.318e-6
-1.141, 7.332e-6
-1.142, 7.370e-6
-1.143, 7.428e-6
-1.144, 7.394e-6
-1.145, 7.469e-6
-1.146, 7.503e-6
-1.147, 7.456e-6
-1.148, 7.467e-6
-1.149, 7.502e-6
-1.150, 7.497e-6
-1.151, 7.570e-6
-1.152, 7.567e-6
-1.153, 7.620e-6
-1.154, 7.668e-6
-1.155, 7.584e-6
-1.156, 7.636e-6
-1.157, 7.705e-6
-1.158, 7.739e-6
-1.159, 7.742e-6
-1.160, 7.750e-6
-1.161, 7.756e-6
-1.162, 7.792e-6
-1.163, 7.785e-6
-1.164, 7.862e-6
-1.165, 7.787e-6
-1.166, 7.858e-6
-1.167, 7.895e-6
-1.168, 7.886e-6
-1.169, 7.922e-6
-1.170, 7.985e-6
-1.171, 7.921e-6
-1.172, 8.072e-6
-1.173, 8.105e-6
-1.174, 8.074e-6
-1.175, 8.130e-6
-1.176, 8.120e-6
-1.177, 8.146e-6
-1.178, 8.265e-6
-1.179, 8.209e-6
-1.180, 8.239e-6
-1.181, 8.325e-6
-1.182, 8.386e-6
-1.183, 8.357e-6
-1.184, 8.407e-6
-1.185, 8.381e-6
-1.186, 8.373e-6
-1.187, 8.498e-6
-1.188, 8.472e-6
-1.189, 8.512e-6
-1.190, 8.492e-6
-1.191, 8.623e-6
-1.192, 8.630e-6
-1.193, 8.689e-6
-1.194, 8.709e-6
-1.195, 8.647e-6
-1.196, 8.698e-6
-1.197, 8.777e-6
-1.198, 8.732e-6
-1.199, 8.805e-6
-1.200, 8.805e-6
-1.201, 8.755e-6
-1.202, 8.952e-6
-1.203, 8.956e-6
-1.204, 8.958e-6
-1.205, 9.019e-6
-1.206, 9.003e-6
-1.207, 9.080e-6
-1.208, 9.185e-6
-1.209, 9.189e-6
-1.210, 9.247e-6
-1.211, 9.310e-6
-1.212, 9.240e-6
-1.213, 9.361e-6
-1.214, 9.392e-6
-1.215, 9.459e-6
-1.216, 9.434e-6
-1.217, 9.529e-6
-1.218, 9.587e-6
-1.219, 9.611e-6
-1.220, 9.675e-6
-1.221, 9.627e-6
-1.222, 9.755e-6
-1.223, 9.823e-6
-1.224, 9.837e-6
-1.225, 9.818e-6
-1.226, 9.960e-6
-1.227, 9.978e-6
-1.228, 1.013e-5
-1.229, 1.020e-5
-1.230, 1.015e-5
-1.231, 1.022e-5
-1.232, 1.030e-5
-1.233, 1.038e-5
-1.234, 1.048e-5
-1.235, 1.047e-5
-1.236, 1.054e-5
-1.237, 1.069e-5
-1.238, 1.070e-5
-1.239, 1.074e-5
-1.240, 1.080e-5
-1.241, 1.082e-5
-1.242, 1.099e-5
-1.243, 1.104e-5
-1.244, 1.108e-5
-1.245, 1.118e-5
-1.246, 1.127e-5
-1.247, 1.143e-5
-1.248, 1.154e-5
-1.249, 1.160e-5
-1.250, 1.163e-5
-1.251, 1.172e-5
-1.252, 1.177e-5
-1.253, 1.193e-5
-1.254, 1.198e-5
-1.255, 1.208e-5
-1.256, 1.221e-5
-1.257, 1.235e-5
-1.258, 1.250e-5
-1.259, 1.253e-5
-1.260, 1.264e-5
-1.261, 1.279e-5
-1.262, 1.292e-5
-1.263, 1.304e-5
-1.264, 1.309e-5
-1.265, 1.319e-5
-1.266, 1.337e-5
-1.267, 1.347e-5
-1.268, 1.374e-5
-1.269, 1.384e-5
-1.270, 1.400e-5
-1.271, 1.417e-5
-1.272, 1.427e-5
-1.273, 1.433e-5
-1.274, 1.452e-5
-1.275, 1.458e-5
-1.276, 1.476e-5
-1.277, 1.501e-5
-1.278, 1.514e-5
-1.279, 1.537e-5
-1.280, 1.561e-5
-1.281, 1.575e-5
-1.282, 1.592e-5
-1.283, 1.611e-5
-1.284, 1.624e-5
-1.285, 1.646e-5
-1.286, 1.662e-5
-1.287, 1.685e-5
-1.288, 1.703e-5
-1.289, 1.728e-5
-1.290, 1.748e-5
-1.291, 1.767e-5
-1.292, 1.792e-5
-1.293, 1.817e-5
-1.294, 1.837e-5
-1.295, 1.857e-5
-1.296, 1.884e-5
-1.297, 1.911e-5
-1.298, 1.937e-5
-1.299, 1.957e-5
-1.300, 1.979e-5
-1.301, 2.013e-5
-1.302, 2.044e-5
-1.303, 2.073e-5
-1.304, 2.095e-5
-1.305, 2.126e-5
-1.306, 2.152e-5
-1.307, 2.188e-5
-1.308, 2.212e-5
-1.309, 2.239e-5
-1.310, 2.269e-5
-1.311, 2.304e-5
-1.312, 2.334e-5
-1.313, 2.378e-5
-1.314, 2.416e-5
-1.315, 2.442e-5
-1.316, 2.484e-5
-1.317, 2.516e-5
-1.318, 2.552e-5
-1.319, 2.591e-5
-1.320, 2.617e-5
-1.321, 2.658e-5
-1.322, 2.702e-5
-1.323, 2.744e-5
-1.324, 2.780e-5
-1.325, 2.828e-5
-1.326, 2.869e-5
-1.327, 2.920e-5
-1.328, 2.957e-5
-1.329, 2.996e-5
-1.330, 3.080e-5
-1.331, 3.096e-5
-1.332, 3.143e-5
-1.333, 3.184e-5
-1.334, 3.221e-5
-1.335, 3.281e-5
-1.336, 3.339e-5
-1.337, 3.386e-5
-1.338, 3.434e-5
-1.339, 3.480e-5
-1.340, 3.523e-5
-1.341, 3.578e-5
-1.342, 3.633e-5
-1.343, 3.687e-5
-1.344, 3.740e-5
-1.345, 3.792e-5
-1.346, 3.855e-5
-1.347, 3.913e-5
-1.348, 3.981e-5
-1.349, 4.036e-5
-1.350, 4.092e-5
-1.351, 4.157e-5
-1.352, 4.216e-5
-1.353, 4.284e-5
-1.354, 4.350e-5
-1.355, 4.401e-5
-1.356, 4.480e-5
-1.357, 4.543e-5
-1.358, 4.612e-5
-1.359, 4.685e-5
-1.360, 4.753e-5
-1.361, 4.826e-5
-1.362, 4.900e-5
-1.363, 4.969e-5
-1.364, 5.046e-5
-1.365, 5.120e-5
-1.366, 5.197e-5
-1.367, 5.279e-5
-1.368, 5.338e-5
-1.369, 5.430e-5
-1.370, 5.516e-5
-1.371, 5.598e-5
-1.372, 5.683e-5
-1.373, 5.776e-5
-1.374, 5.855e-5
-1.375, 5.936e-5
-1.376, 6.016e-5
-1.377, 6.107e-5
-1.378, 6.198e-5
-1.379, 6.285e-5
-1.380, 6.364e-5
-1.381, 6.455e-5
-1.382, 6.563e-5
-1.383, 6.656e-5
-1.384, 6.750e-5
-1.385, 6.836e-5
-1.386, 6.924e-5
-1.387, 7.026e-5
-1.388, 7.133e-5
-1.389, 7.235e-5
-1.390, 7.330e-5
-1.391, 7.439e-5
-1.392, 7.566e-5
-1.393, 7.645e-5
-1.394, 7.759e-5
-1.395, 7.859e-5
-1.396, 7.975e-5
-1.397, 8.077e-5
-1.398, 8.230e-5
-1.399, 8.312e-5
-1.400, 8.427e-5
-1.401, 8.523e-5
-1.402, 8.658e-5
-1.403, 8.781e-5
-1.404, 8.908e-5
-1.405, 9.026e-5
-1.406, 9.170e-5
-1.407, 9.274e-5
-1.408, 9.414e-5
-1.409, 9.529e-5
-1.410, 9.662e-5
-1.411, 9.796e-5
-1.412, 9.933e-5
-1.413, 1.007e-4
-1.414, 1.024e-4
-1.415, 1.037e-4
-1.416, 1.053e-4
-1.417, 1.065e-4
-1.418, 1.081e-4
-1.419, 1.097e-4
-1.420, 1.111e-4
-1.421, 1.125e-4
-1.422, 1.142e-4
-1.423, 1.159e-4
-1.424, 1.174e-4
-1.425, 1.189e-4
-1.426, 1.205e-4
-1.427, 1.221e-4
-1.428, 1.240e-4
-1.429, 1.256e-4
-1.430, 1.275e-4
-1.431, 1.292e-4
-1.432, 1.310e-4
-1.433, 1.329e-4
-1.434, 1.347e-4
-1.435, 1.365e-4
-1.436, 1.385e-4
-1.437, 1.405e-4
-1.438, 1.425e-4
-1.439, 1.445e-4
-1.440, 1.467e-4
-1.441, 1.487e-4
-1.442, 1.508e-4
-1.443, 1.531e-4
-1.444, 1.552e-4
-1.445, 1.573e-4
-1.446, 1.593e-4
-1.447, 1.616e-4
-1.448, 1.641e-4
-1.449, 1.664e-4
-1.450, 1.687e-4
-1.451, 1.711e-4
-1.452, 1.737e-4
-1.453, 1.763e-4
-1.454, 1.785e-4
-1.455, 1.810e-4
-1.456, 1.837e-4
-1.457, 1.864e-4
-1.458, 1.893e-4
-1.459, 1.921e-4
-1.460, 1.949e-4
-1.461, 1.970e-4
-1.462, 2.002e-4
-1.463, 2.036e-4
-1.464, 2.062e-4
-1.465, 2.092e-4
-1.466, 2.123e-4
-1.467, 2.154e-4
-1.468, 2.186e-4
-1.469, 2.217e-4
-1.470, 2.253e-4
-1.471, 2.287e-4
-1.472, 2.321e-4
-1.473, 2.352e-4
-1.474, 2.390e-4
-1.475, 2.426e-4
-1.476, 2.459e-4
-1.477, 2.495e-4
-1.478, 2.532e-4
-1.479, 2.570e-4
-1.480, 2.610e-4
-1.481, 2.652e-4
-1.482, 2.696e-4
-1.483, 2.735e-4
-1.484, 2.781e-4
-1.485, 2.824e-4
-1.486, 2.864e-4
-1.487, 2.903e-4
-1.488, 2.947e-4
-1.489, 2.995e-4
-1.490, 3.042e-4
-1.491, 3.092e-4
-1.492, 3.144e-4
-1.493, 3.185e-4
-1.494, 3.232e-4
-1.495, 3.292e-4
-1.496, 3.340e-4
-1.497, 3.392e-4
-1.498, 3.443e-4
-1.499, 3.499e-4
-1.500, 3.476e-4
-1.499, 3.427e-4
-1.498, 3.387e-4
-1.497, 3.349e-4
-1.496, 3.306e-4
-1.495, 3.261e-4
-1.494, 3.218e-4
-1.493, 3.169e-4
-1.492, 3.125e-4
-1.491, 3.081e-4
-1.490, 3.041e-4
-1.489, 2.999e-4
-1.488, 2.962e-4
-1.487, 2.920e-4
-1.486, 2.882e-4
-1.485, 2.840e-4
-1.484, 2.800e-4
-1.483, 2.759e-4
-1.482, 2.716e-4
-1.481, 2.675e-4
-1.480, 2.638e-4
-1.479, 2.603e-4
-1.478, 2.564e-4
-1.477, 2.526e-4
-1.476, 2.492e-4
-1.475, 2.455e-4
-1.474, 2.416e-4
-1.473, 2.380e-4
-1.472, 2.345e-4
-1.471, 2.311e-4
-1.470, 2.277e-4
-1.469, 2.244e-4
-1.468, 2.211e-4
-1.467, 2.179e-4
-1.466, 2.149e-4
-1.465, 2.115e-4
-1.464, 2.080e-4
-1.463, 2.050e-4
-1.462, 2.017e-4
-1.461, 1.990e-4
-1.460, 1.961e-4
-1.459, 1.933e-4
-1.458, 1.906e-4
-1.457, 1.877e-4
-1.456, 1.853e-4
-1.455, 1.825e-4
-1.454, 1.796e-4
-1.453, 1.768e-4
-1.452, 1.741e-4
-1.451, 1.719e-4
-1.450, 1.693e-4
-1.449, 1.670e-4
-1.448, 1.643e-4
-1.447, 1.622e-4
-1.446, 1.595e-4
-1.445, 1.569e-4
-1.444, 1.545e-4
-1.443, 1.522e-4
-1.442, 1.499e-4
-1.441, 1.477e-4
-1.440, 1.457e-4
-1.439, 1.437e-4
-1.438, 1.415e-4
-1.437, 1.395e-4
-1.436, 1.376e-4
-1.435, 1.353e-4
-1.434, 1.331e-4
-1.433, 1.309e-4
-1.432, 1.290e-4
-1.431, 1.271e-4
-1.430, 1.253e-4
-1.429, 1.236e-4
-1.428, 1.218e-4
-1.427, 1.200e-4
-1.426, 1.183e-4
-1.425, 1.165e-4
-1.424, 1.148e-4
-1.423, 1.131e-4
-1.422, 1.113e-4
-1.421, 1.097e-4
-1.420, 1.080e-4
-1.419, 1.064e-4
-1.418, 1.049e-4
-1.417, 1.033e-4
-1.416, 1.019e-4
-1.415, 1.003e-4
-1.414, 9.881e-5
-1.413, 9.730e-5
-1.412, 9.576e-5
-1.411, 9.422e-5
-1.410, 9.278e-5
-1.409, 9.144e-5
-1.408, 9.006e-5
-1.407, 8.882e-5
-1.406, 8.740e-5
-1.405, 8.617e-5
-1.404, 8.506e-5
-1.403, 8.354e-5
-1.402, 8.235e-5
-1.401, 8.104e-5
-1.400, 7.974e-5
-1.399, 7.844e-5
-1.398, 7.737e-5
-1.397, 7.615e-5
-1.396, 7.507e-5
-1.395, 7.385e-5
-1.394, 7.262e-5
-1.393, 7.171e-5
-1.392, 7.061e-5
-1.391, 6.941e-5
-1.390, 6.833e-5
-1.389, 6.716e-5
-1.388, 6.613e-5
-1.387, 6.510e-5
-1.386, 6.412e-5
-1.385, 6.312e-5
-1.384, 6.209e-5
-1.383, 6.101e-5
-1.382, 6.011e-5
-1.381, 5.927e-5
-1.380, 5.826e-5
-1.379, 5.731e-5
-1.378, 5.639e-5
-1.377, 5.538e-5
-1.376, 5.454e-5
-1.375, 5.362e-5
-1.374, 5.266e-5
-1.373, 5.191e-5
-1.372, 5.107e-5
-1.371, 5.024e-5
-1.370, 4.946e-5
-1.369, 4.861e-5
-1.368, 4.783e-5
-1.367, 4.701e-5
-1.366, 4.620e-5
-1.365, 4.555e-5
-1.364, 4.470e-5
-1.363, 4.398e-5
-1.362, 4.319e-5
-1.361, 4.255e-5
-1.360, 4.184e-5
-1.359, 4.114e-5
-1.358, 4.033e-5
-1.357, 3.962e-5
-1.356, 3.901e-5
-1.355, 3.825e-5
-1.354, 3.758e-5
-1.353, 3.700e-5
-1.352, 3.638e-5
-1.351, 3.582e-5
-1.350, 3.517e-5
-1.349, 3.452e-5
-1.348, 3.396e-5
-1.347, 3.330e-5
-1.346, 3.262e-5
-1.345, 3.208e-5
-1.344, 3.154e-5
-1.343, 3.097e-5
-1.342, 3.043e-5
-1.341, 2.987e-5
-1.340, 2.920e-5
-1.339, 2.872e-5
-1.338, 2.818e-5
-1.337, 2.765e-5
-1.336, 2.714e-5
-1.335, 2.655e-5
-1.334, 2.603e-5
-1.333, 2.567e-5
-1.332, 2.511e-5
-1.331, 2.458e-5
-1.330, 2.418e-5
-1.329, 2.359e-5
-1.328, 2.323e-5
-1.327, 2.277e-5
-1.326, 2.224e-5
-1.325, 2.197e-5
-1.324, 2.130e-5
-1.323, 2.089e-5
-1.322, 2.050e-5
-1.321, 2.010e-5
-1.320, 1.968e-5
-1.319, 1.928e-5
-1.318, 1.887e-5
-1.317, 1.845e-5
-1.316, 1.808e-5
-1.315, 1.759e-5
-1.314, 1.723e-5
-1.313, 1.683e-5
-1.312, 1.646e-5
-1.311, 1.612e-5
-1.310, 1.576e-5
-1.309, 1.546e-5
-1.308, 1.520e-5
-1.307, 1.480e-5
-1.306, 1.441e-5
-1.305, 1.400e-5
-1.304, 1.371e-5
-1.303, 1.342e-5
-1.302, 1.305e-5
-1.301, 1.266e-5
-1.300, 1.244e-5
-1.299, 1.207e-5
-1.298, 1.184e-5
-1.297, 1.156e-5
-1.296, 1.130e-5
-1.295, 1.092e-5
-1.294, 1.061e-5
-1.293, 1.037e-5
-1.292, 1.006e-5
-1.291, 9.770e-6
-1.290, 9.451e-6
-1.289, 9.164e-6
-1.288, 9.091e-6
-1.287, 8.828e-6
-1.286, 8.445e-6
-1.285, 8.294e-6
-1.284, 7.958e-6
-1.283, 7.774e-6
-1.282, 7.543e-6
-1.281, 7.223e-6
-1.280, 6.995e-6
-1.279, 6.762e-6
-1.278, 6.580e-6
-1.277, 6.412e-6
-1.276, 6.260e-6
-1.275, 5.940e-6
-1.274, 5.808e-6
-1.273, 5.589e-6
-1.272, 5.358e-6
-1.271, 5.179e-6
-1.270, 4.859e-6
-1.269, 4.745e-6
-1.268, 4.557e-6
-1.267, 4.304e-6
-1.266, 4.215e-6
-1.265, 4.028e-6
-1.264, 3.891e-6
-1.263, 3.702e-6
-1.262, 3.494e-6
-1.261, 3.314e-6
-1.260, 3.147e-6
-1.259, 2.929e-6
-1.258, 2.787e-6
-1.257, 2.620e-6
-1.256, 2.487e-6
-1.255, 2.338e-6
-1.254, 2.148e-6
-1.253, 2.039e-6
-1.252, 1.961e-6
-1.251, 1.795e-6
-1.250, 1.573e-6
-1.249, 1.480e-6
-1.248, 1.352e-6
-1.247, 1.195e-6
-1.246, 1.061e-6
-1.245, 9.233e-7
-1.244, 8.345e-7
-1.243, 7.703e-7
-1.242, 6.302e-7
-1.241, 4.240e-7
-1.240, 3.619e-7
-1.239, 2.050e-7
-1.238, 8.662e-8
-1.237, 2.052e-8
-1.236, -1.531e-7
-1.235, -2.991e-7
-1.234, -3.445e-7
-1.233, -4.807e-7
-1.232, -5.093e-7
-1.231, -5.665e-7
-1.230, -8.072e-7
-1.229, -9.414e-7
-1.228, -9.424e-7
-1.227, -1.058e-6
-1.226, -1.104e-6
-1.225, -1.317e-6
-1.224, -1.385e-6
-1.223, -1.376e-6
-1.222, -1.547e-6
-1.221, -1.563e-6
-1.220, -1.661e-6
-1.219, -1.827e-6
-1.218, -1.749e-6
-1.217, -1.939e-6
-1.216, -2.015e-6
-1.215, -2.072e-6
-1.214, -2.218e-6
-1.213, -2.193e-6
-1.212, -2.228e-6
-1.211, -2.378e-6
-1.210, -2.410e-6
-1.209, -2.513e-6
-1.208, -2.560e-6
-1.207, -2.622e-6
-1.206, -2.732e-6
-1.205, -2.799e-6
-1.204, -2.871e-6
-1.203, -2.898e-6
-1.202, -2.929e-6
-1.201, -2.994e-6
-1.200, -3.077e-6
-1.199, -3.161e-6
-1.198, -3.155e-6
-1.197, -3.299e-6
-1.196, -3.296e-6
-1.195, -3.453e-6
-1.194, -3.511e-6
-1.193, -3.528e-6
-1.192, -3.552e-6
-1.191, -3.600e-6
-1.190, -3.705e-6
-1.189, -3.732e-6
-1.188, -3.760e-6
-1.187, -3.863e-6
-1.186, -3.916e-6
-1.185, -4.015e-6
-1.184, -4.009e-6
-1.183, -4.026e-6
-1.182, -4.081e-6
-1.181, -4.128e-6
-1.180, -4.236e-6
-1.179, -4.310e-6
-1.178, -4.345e-6
-1.177, -4.380e-6
-1.176, -4.375e-6
-1.175, -4.496e-6
-1.174, -4.536e-6
-1.173, -4.528e-6
-1.172, -4.571e-6
-1.171, -4.683e-6
-1.170, -4.691e-6
-1.169, -4.795e-6
-1.168, -4.762e-6
-1.167, -4.806e-6
-1.166, -4.908e-6
-1.165, -4.923e-6
-1.164, -4.981e-6
-1.163, -5.045e-6
-1.162, -5.019e-6
-1.161, -5.139e-6
-1.160, -5.181e-6
-1.159, -5.169e-6
-1.158, -5.261e-6
-1.157, -5.292e-6
-1.156, -5.304e-6
-1.155, -5.460e-6
-1.154, -5.389e-6
-1.153, -5.460e-6
-1.152, -5.503e-6
-1.151, -5.472e-6
-1.150, -5.644e-6
-1.149, -5.681e-6
-1.148, -5.621e-6
-1.147, -5.747e-6
-1.146, -5.797e-6
-1.145, -5.893e-6
-1.144, -5.887e-6
-1.143, -5.907e-6
-1.142, -5.908e-6
-1.141, -5.985e-6
-1.140, -6.060e-6
-1.139, -6.132e-6
-1.138, -6.132e-6
-1.137, -6.191e-6
-1.136, -6.216e-6
-1.135, -6.308e-6
-1.134, -6.371e-6
-1.133, -6.397e-6
-1.132, -6.424e-6
-1.131, -6.451e-6
-1.130, -6.559e-6
-1.129, -6.575e-6
-1.128, -6.608e-6
-1.127, -6.671e-6
-1.126, -6.738e-6
-1.125, -6.758e-6
-1.124, -6.830e-6
-1.123, -6.922e-6
-1.122, -6.856e-6
-1.121, -6.984e-6
-1.120, -7.015e-6
-1.119, -7.099e-6
-1.118, -7.140e-6
-1.117, -7.157e-6
-1.116, -7.205e-6
-1.115, -7.348e-6
-1.114, -7.372e-6
-1.113, -7.413e-6
-1.112, -7.440e-6
-1.111, -7.432e-6
-1.110, -7.612e-6
-1.109, -7.578e-6
-1.108, -7.638e-6
-1.107, -7.740e-6
-1.106, -7.694e-6
-1.105, -7.853e-6
-1.104, -7.860e-6
-1.103, -7.880e-6
-1.102, -7.929e-6
-1.101, -8.020e-6
-1.100, -8.076e-6
-1.099, -8.148e-6
-1.098, -8.171e-6
-1.097, -8.199e-6
-1.096, -8.276e-6
-1.095, -8.337e-6
-1.094, -8.404e-6
-1.093, -8.440e-6
-1.092, -8.443e-6
-1.091, -8.464e-6
-1.090, -8.626e-6
-1.089, -8.615e-6
-1.088, -8.639e-6
-1.087, -8.741e-6
-1.086, -8.801e-6
-1.085, -8.889e-6
-1.084, -8.954e-6
-1.083, -9.010e-6
-1.082, -9.084e-6
-1.081, -9.124e-6
-1.080, -9.160e-6
-1.079, -9.223e-6
-1.078, -9.342e-6
-1.077, -9.287e-6
-1.076, -9.426e-6
-1.075, -9.509e-6
-1.074, -9.586e-6
-1.073, -9.609e-6
-1.072, -9.670e-6
-1.071, -9.710e-6
-1.070, -9.845e-6
-1.069, -9.902e-6
-1.068, -1.000e-5
-1.067, -1.010e-5
-1.066, -1.011e-5
-1.065, -1.029e-5
-1.064, -1.034e-5
-1.063, -1.042e-5
-1.062, -1.057e-5
-1.061, -1.066e-5
-1.060, -1.071e-5
-1.059, -1.078e-5
-1.058, -1.087e-5
-1.057, -1.094e-5
-1.056, -1.109e-5
-1.055, -1.119e-5
-1.054, -1.131e-5
-1.053, -1.138e-5
-1.052, -1.144e-5
-1.051, -1.154e-5
-1.050, -1.173e-5
-1.049, -1.188e-5
-1.048, -1.197e-5
-1.047, -1.207e-5
-1.046, -1.220e-5
-1.045, -1.227e-5
-1.044, -1.243e-5
-1.043, -1.257e-5
-1.042, -1.268e-5
-1.041, -1.283e-5
-1.040, -1.295e-5
-1.039, -1.308e-5
-1.038, -1.325e-5
-1.037, -1.331e-5
-1.036, -1.348e-5
-1.035, -1.370e-5
-1.034, -1.373e-5
-1.033, -1.398e-5
-1.032, -1.405e-5
-1.031, -1.419e-5
-1.030, -1.442e-5
-1.029, -1.451e-5
-1.028, -1.466e-5
-1.027, -1.490e-5
-1.026, -1.502e-5
-1.025, -1.519e-5
-1.024, -1.537e-5
-1.023, -1.547e-5
-1.022, -1.566e-5
-1.021, -1.584e-5
-1.020, -1.601e-5
-1.019, -1.618e-5
-1.018, -1.637e-5
-1.017, -1.653e-5
-1.016, -1.670e-5
-1.015, -1.685e-5
-1.014, -1.703e-5
-1.013, -1.725e-5
-1.012, -1.733e-5
-1.011, -1.751e-5
-1.010, -1.779e-5
-1.009, -1.797e-5
-1.008, -1.806e-5
-1.007, -1.826e-5
-1.006, -1.845e-5
-1.005, -1.863e-5
-1.004, -1.881e-5
-1.003, -1.901e-5
-1.002, -1.919e-5
-1.001, -1.940e-5
-1.000, -1.515e-5
-1.001, -1.328e-5
-1.002, -1.225e-5
-1.003, -1.139e-5
-1.004, -1.067e-5
-1.005, -9.971e-6
-1.006, -9.334e-6
-1.007, -8.822e-6
-1.008, -8.239e-6
-1.009, -7.680e-6
-1.010, -7.264e-6
-1.011, -6.796e-6
-1.012, -6.315e-6
-1.013, -5.891e-6
-1.014, -5.447e-6
-1.015, -5.110e-6
-1.016, -4.747e-6
-1.017, -4.399e-6
-1.018, -4.018e-6
-1.019, -3.709e-6
-1.020, -3.422e-6
-1.021, -3.126e-6
-1.022, -2.768e-6
-1.023, -2.502e-6
-1.024, -2.185e-6
-1.025, -1.937e-6
-1.026, -1.645e-6
-1.027, -1.438e-6
-1.028, -1.137e-6
-1.029, -9.355e-7
-1.030, -7.658e-7
-1.031, -4.895e-7
-1.032, -2.626e-7
-1.033, -4.854e-8
-1.034, 2.307e-7
-1.035, 3.076e-7
-1.036, 5.414e-7
-1.037, 7.378e-7
-1.038, 8.907e-7
-1.039, 1.159e-6
-1.040, 1.240e-6
-1.041, 1.459e-6
-1.042, 1.628e-6
-1.043, 1.777e-6
-1.044, 1.964e-6
-1.045, 2.109e-6
-1.046, 2.308e-6
-1.047, 2.453e-6
-1.048, 2.583e-6
-1.049, 2.691e-6
-1.050, 2.779e-6
-1.051, 2.965e-6
-1.052, 3.089e-6
-1.053, 3.263e-6
-1.054, 3.365e-6
-1.055, 3.469e-6
-1.056, 3.601e-6
-1.057, 3.714e-6
-1.058, 3.848e-6
-1.059, 3.902e-6
-1.060, 4.018e-6
-1.061, 4.122e-6
-1.062, 4.236e-6
-1.063, 4.365e-6
-1.064, 4.423e-6
-1.065, 4.481e-6
-1.066, 4.600e-6
-1.067, 4.666e-6
-1.068, 4.797e-6
-1.069, 4.854e-6
-1.070, 4.877e-6
-1.071, 5.027e-6
-1.072, 5.063e-6
-1.073, 5.177e-6
-1.074, 5.234e-6
-1.075, 5.313e-6
-1.076, 5.405e-6
-1.077, 5.471e-6
-1.078, 5.565e-6
-1.079, 5.671e-6
-1.080, 5.688e-6
-1.081, 5.647e-6
-1.082, 5.769e-6
-1.083, 5.799e-6
-1.084, 5.855e-6
-1.085, 5.907e-6
-1.086, 5.942e-6
-1.087, 5.978e-6
-1.088, 6.093e-6
-1.089, 6.144e-6
-1.090, 6.204e-6
-1.091, 6.156e-6
-1.092, 6.096e-6
-1.093, 6.174e-6
-1.094, 6.186e-6
-1.095, 6.180e-6
-1.096, 6.232e-6
-1.097, 6.260e-6
-1.098, 6.342e-6
-1.099, 6.390e-6
-1.100, 6.311e-6
-1.101, 6.354e-6
-1.102, 6.361e-6
-1.103, 6.349e-6
-1.104, 6.383e-6
-1.105, 6.350e-6
-1.106, 6.326e-6
-1.107, 6.384e-6
-1.108, 6.454e-6
-1.109, 6.431e-6
-1.110, 6.475e-6
-1.111, 6.431e-6
-1.112, 6.417e-6
-1.113, 6.447e-6
-1.114, 6.461e-6
-1.115, 6.384e-6
-1.116, 6.441e-6
-1.117, 6.444e-6
-1.118, 6.472e-6
-1.119, 6.535e-6
-1.120, 6.424e-6
-1.121, 6.488e-6
-1.122, 6.507e-6
-1.123, 6.445e-6
-1.124, 6.507e-6
-1.125, 6.457e-6
-1.126, 6.491e-6
-1.127, 6.525e-6
-1.128, 6.483e-6
-1.129, 6.501e-6
-1.130, 6.569e-6
-1.131, 6.555e-6
-1.132, 6.540e-6
-1.133, 6.641e-6
-1.134, 6.568e-6
-1.135, 6.601e-6
-1.136, 6.582e-6
-1.137, 6.571e-6
-1.138, 6.649e-6
-1.139, 6.675e-6
-1.140, 6.632e-6
-1.141, 6.719e-6
-1.142, 6.740e-6
-1.143, 6.750e-6
-1.144, 6.777e-6
-1.145, 6.711e-6
-1.146, 6.714e-6
-1.147, 6.828e-6
-1.148, 6.827e-6
-1.149, 6.868e-6
-1.150, 6.842e-6
-1.151, 6.857e-6
-1.152, 6.895e-6
-1.153, 6.935e-6
-1.154, 6.892e-6
-1.155, 6.887e-6
-1.156, 6.953e-6
-1.157, 6.971e-6
-1.158, 7.088e-6
-1.159, 7.141e-6
-1.160, 7.028e-6
-1.161, 7.077e-6
-1.162, 7.131e-6
-1.163, 7.115e-6
-1.164, 7.191e-6
-1.165, 7.121e-6
-1.166, 7.160e-6
-1.167, 7.272e-6
-1.168, 7.261e-6
-1.169, 7.293e-6
-1.170, 7.335e-6
-1.171, 7.304e-6
-1.172, 7.351e-6
-1.173, 7.438e-6
-1.174, 7.388e-6
-1.175, 7.422e-6
-1.176, 7.459e-6
-1.177, 7.591e-6
-1.178, 7.603e-6
-1.179, 7.585e-6
-1.180, 7.507e-6
-1.181, 7.618e-6
-1.182, 7.634e-6
-1.183, 7.670e-6
-1.184, 7.726e-6
-1.185, 7.701e-6
-1.186, 7.724e-6
-1.187, 7.777e-6
-1.188, 7.785e-6
-1.189, 7.825e-6
-1.190, 7.887e-6
-1.191, 7.916e-6
-1.192, 7.955e-6
-1.193, 7.980e-6
-1.194, 8.023e-6
-1.195, 7.956e-6
-1.196, 8.043e-6
-1.197, 8.140e-6
-1.198, 8.193e-6
-1.199, 8.285e-6
-1.200, 8.200e-6
-1.201, 8.285e-6
-1.202, 8.341e-6
-1.203, 8.294e-6
-1.204, 8.394e-6
-1.205, 8.423e-6
-1.206, 8.386e-6
-1.207, 8.517e-6
-1.208, 8.489e-6
-1.209, 8.580e-6
-1.210, 8.564e-6
-1.211, 8.593e-6
-1.212, 8.704e-6
-1.213, 8.780e-6
-1.214, 8.840e-6
-1.215, 8.856e-6
-1.216, 8.888e-6
-1.217, 8.925e-6
-1.218, 9.038e-6
-1.219, 9.078e-6
-1.220, 9.084e-6
-1.221, 9.106e-6
-1.222, 9.151e-6
-1.223, 9.300e-6
-1.224, 9.335e-6
-1.225, 9.397e-6
-1.226, 9.460e-6
-1.227, 9.542e-6
-1.228, 9.577e-6
-1.229, 9.647e-6
-1.230, 9.726e-6
-1.231, 9.713e-6
-1.232, 9.774e-6
-1.233, 9.898e-6
-1.234, 9.993e-6
-1.235, 1.003e-5
-1.236, 1.019e-5
-1.237, 1.023e-5
-1.238, 1.035e-5
-1.239, 1.039e-5
-1.240, 1.040e-5
-1.241, 1.059e-5
-1.242, 1.070e-5
-1.243, 1.073e-5
-1.244, 1.081e-5
-1.245, 1.078e-5
-1.246, 1.086e-5
-1.247, 1.101e-5
-1.248, 1.104e-5
-1.249, 1.119e-5
-1.250, 1.125e-5
-1.251, 1.126e-5
-1.252, 1.146e-5
-1.253, 1.160e-5
-1.254, 1.163e-5
-1.255, 1.177e-5
-1.256, 1.185e-5
-1.257, 1.200e-5
-1.258, 1.220e-5
-1.259, 1.225e-5
-1.260, 1.225e-5
-1.261, 1.249e-5
-1.262, 1.260e-5
-1.263, 1.277e-5
-1.264, 1.293e-5
-1.265, 1.294e-5
-1.266, 1.305e-5
-1.267, 1.318e-5
-1.268, 1.335e-5
-1.269, 1.349e-5
-1.270, 1.356e-5
-1.271, 1.372e-5
-1.272, 1.393e-5
-1.273, 1.409e-5
-1.274, 1.437e-5
-1.275, 1.448e-5
-1.276, 1.456e-5
-1.277, 1.468e-5
-1.278, 1.490e-5
-1.279, 1.501e-5
-1.280, 1.522e-5
-1.281, 1.529e-5
-1.282, 1.554e-5
-1.283, 1.573e-5
-1.284, 1.602e-5
-1.285, 1.613e-5
-1.286, 1.637e-5
-1.287, 1.658e-5
-1.288, 1.669e-5
-1.289, 1.694e-5
-1.290, 1.709e-5
-1.291, 1.726e-5
-1.292, 1.751e-5
-1.293, 1.789e-5
-1.294, 1.802e-5
-1.295, 1.832e-5
-1.296, 1.845e-5
-1.297, 1.868e-5
-1.298, 1.894e-5
-1.299, 1.915e-5
-1.300, 1.943e-5
-1.301, 1.969e-5
-1.302, 1.988e-5
-1.303, 2.024e-5
-1.304, 2.051e-5
-1.305, 2.076e-5
-1.306, 2.111e-5
-1.307, 2.132e-5
-1.308, 2.157e-5
-1.309, 2.192e-5
-1.310, 2.210e-5
-1.311, 2.250e-5
-1.312, 2.278e-5
-1.313, 2.305e-5
-1.314, 2.339e-5
-1.315, 2.370e-5
-1.316, 2.403e-5
-1.317, 2.448e-5
-1.318, 2.480e-5
-1.319, 2.514e-5
-1.320, 2.549e-5
-1.321, 2.574e-5
-1.322, 2.619e-5
-1.323, 2.649e-5
-1.324, 2.683e-5
-1.325, 2.729e-5
-1.326, 2.765e-5
-1.327, 2.808e-5
-1.328, 2.847e-5
-1.329, 2.889e-5
-1.330, 2.926e-5
-1.331, 2.968e-5
-1.332, 3.007e-5
-1.333, 3.049e-5
-1.334, 3.093e-5
-1.335, 3.142e-5
-1.336, 3.181e-5
-1.337, 3.229e-5
-1.338, 3.270e-5
-1.339, 3.319e-5
-1.340, 3.362e-5
-1.341, 3.404e-5
-1.342, 3.456e-5
-1.343, 3.505e-5
-1.344, 3.557e-5
-1.345, 3.607e-5
-1.346, 3.654e-5
-1.347, 3.708e-5
-1.348, 3.758e-5
-1.349, 3.809e-5
-1.350, 3.859e-5
-1.351, 3.912e-5
-1.352, 3.968e-5
-1.353, 4.026e-5
-1.354, 4.081e-5
-1.355, 4.140e-5
-1.356, 4.230e-5
-1.357, 4.263e-5
-1.358, 4.319e-5
-1.359, 4.381e-5
-1.360, 4.428e-5
-1.361, 4.495e-5
-1.362, 4.560e-5
-1.363, 4.619e-5
-1.364, 4.682e-5
-1.365, 4.742e-5
-1.366, 4.813e-5
-1.367, 4.888e-5
-1.368, 4.946e-5
-1.369, 5.017e-5
-1.370, 5.077e-5
-1.371, 5.139e-5
-1.372, 5.217e-5
-1.373, 5.285e-5
-1.374, 5.357e-5
-1.375, 5.424e-5
-1.376, 5.496e-5
-1.377, 5.581e-5
-1.378, 5.655e-5
-1.379, 5.718e-5
-1.380, 5.797e-5
-1.381, 5.868e-5
-1.382, 5.954e-5
-1.383, 6.044e-5
-1.384, 6.114e-5
-1.385, 6.188e-5
-1.386, 6.248e-5
-1.387, 6.347e-5
-1.388, 6.449e-5
-1.389, 6.522e-5
-1.390, 6.600e-5
-1.391, 6.680e-5
-1.392, 6.765e-5
-1.393, 6.856e-5
-1.394, 6.952e-5
-1.395, 7.035e-5
-1.396, 7.126e-5
-1.397, 7.221e-5
-1.398, 7.319e-5
-1.399, 7.420e-5
-1.400, 7.516e-5
-1.401, 7.605e-5
-1.402, 7.703e-5
-1.403, 7.790e-5
-1.404, 7.892e-5
-1.405, 7.995e-5
-1.406, 8.087e-5
-1.407, 8.210e-5
-1.408, 8.315e-5
-1.409, 8.424e-5
-1.410, 8.526e-5
-1.411, 8.617e-5
-1.412, 8.734e-5
-1.413, 8.861e-5
-1.414, 8.979e-5
-1.415, 9.095e-5
-1.416, 9.205e-5
-1.417, 9.298e-5
-1.418, 9.449e-5
-1.419, 9.579e-5
-1.420, 9.681e-5
-1.421, 9.799e-5
-1.422, 9.935e-5
-1.423, 1.005e-4
-1.424, 1.018e-4
-1.425, 1.032e-4
-1.426, 1.046e-4
-1.427, 1.058e-4
-1.428, 1.073e-4
-1.429, 1.088e-4
-1.430, 1.102e-4
-1.431, 1.115e-4
-1.432, 1.129e-4
-1.433, 1.143e-4
-1.434, 1.158e-4
-1.435, 1.173e-4
-1.436, 1.190e-4
-1.437, 1.205e-4
-1.438, 1.220e-4
-1.439, 1.235e-4
-1.440, 1.252e-4
-1.441, 1.267e-4
-1.442, 1.284e-4
-1.443, 1.301e-4
-1.444, 1.312e-4
-1.445, 1.333e-4
-1.446, 1.350e-4
-1.447, 1.371e-4
-1.448, 1.387e-4
-1.449, 1.406e-4
-1.450, 1.424e-4
-1.451, 1.441e-4
-1.452, 1.460e-4
-1.453, 1.480e-4
-1.454, 1.502e-4
-1.455, 1.523e-4
-1.456, 1.542e-4
-1.457, 1.558e-4
-1.458, 1.583e-4
-1.459, 1.602e-4
-1.460, 1.623e-4
-1.461, 1.643e-4
-1.462, 1.666e-4
-1.463, 1.688e-4
-1.464, 1.713e-4
-1.465, 1.739e-4
-1.466, 1.762e-4
-1.467, 1.784e-4
-1.468, 1.806e-4
-1.469, 1.834e-4
-1.470, 1.857e-4
-1.471, 1.881e-4
-1.472, 1.906e-4
-1.473, 1.932e-4
-1.474, 1.960e-4
-1.475, 1.987e-4
-1.476, 2.017e-4
-1.477, 2.046e-4
-1.478, 2.075e-4
-1.479, 2.101e-4
-1.480, 2.133e-4
-1.481, 2.162e-4
-1.482, 2.191e-4
-1.483, 2.221e-4
-1.484, 2.255e-4
-1.485, 2.286e-4
-1.486, 2.321e-4
-1.487, 2.358e-4
-1.488, 2.392e-4
-1.489, 2.425e-4
-1.490, 2.458e-4
-1.491, 2.490e-4
-1.492, 2.524e-4
-1.493, 2.561e-4
-1.494, 2.597e-4
-1.495, 2.638e-4
-1.496, 2.680e-4
-1.497, 2.724e-4
-1.498, 2.766e-4
-1.499, 2.805e-4
-1.500, 2.779e-4
-1.499, 2.732e-4
-1.498, 2.691e-4
-1.497, 2.652e-4
-1.496, 2.613e-4
-1.495, 2.573e-4
-1.494, 2.536e-4
-1.493, 2.504e-4
-1.492, 2.473e-4
-1.491, 2.438e-4
-1.490, 2.400e-4
-1.489, 2.367e-4
-1.488, 2.334e-4
-1.487, 2.299e-4
-1.486, 2.259e-4
-1.485, 2.226e-4
-1.484, 2.194e-4
-1.483, 2.161e-4
-1.482, 2.128e-4
-1.481, 2.097e-4
-1.480, 2.071e-4
-1.479, 2.043e-4
-1.478, 2.012e-4
-1.477, 1.979e-4
-1.476, 1.949e-4
-1.475, 1.923e-4
-1.474, 1.897e-4
-1.473, 1.865e-4
-1.472, 1.841e-4
-1.471, 1.813e-4
-1.470, 1.786e-4
-1.469, 1.757e-4
-1.468, 1.729e-4
-1.467, 1.704e-4
-1.466, 1.679e-4
-1.465, 1.656e-4
-1.464, 1.630e-4
-1.463, 1.610e-4
-1.462, 1.586e-4
-1.461, 1.559e-4
-1.460, 1.532e-4
-1.459, 1.510e-4
-1.458, 1.487e-4
-1.457, 1.467e-4
-1.456, 1.447e-4
-1.455, 1.427e-4
-1.454, 1.405e-4
-1.453, 1.381e-4
-1.452, 1.362e-4
-1.451, 1.345e-4
-1.450, 1.322e-4
-1.449, 1.303e-4
-1.448, 1.284e-4
-1.447, 1.266e-4
-1.446, 1.247e-4
-1.445, 1.230e-4
-1.444, 1.211e-4
-1.443, 1.195e-4
-1.442, 1.179e-4
-1.441, 1.164e-4
-1.440, 1.145e-4
-1.439, 1.129e-4
-1.438, 1.112e-4
-1.437, 1.097e-4
-1.436, 1.082e-4
-1.435, 1.066e-4
-1.434, 1.049e-4
-1.433, 1.034e-4
-1.432, 1.019e-4
-1.431, 1.003e-4
-1.430, 9.867e-5
-1.429, 9.722e-5
-1.428, 9.590e-5
-1.427, 9.449e-5
-1.426, 9.319e-5
-1.425, 9.180e-5
-1.424, 9.051e-5
-1.423, 8.888e-5
-1.422, 8.775e-5
-1.421, 8.662e-5
-1.420, 8.521e-5
-1.419, 8.389e-5
-1.418, 8.263e-5
-1.417, 8.150e-5
-1.416, 8.029e-5
-1.415, 7.913e-5
-1.414, 7.803e-5
-1.413, 7.697e-5
-1.412, 7.580e-5
-1.411, 7.474e-5
-1.410, 7.367e-5
-1.409, 7.256e-5
-1.408, 7.147e-5
-1.407, 7.028e-5
-1.406, 6.929e-5
-1.405, 6.835e-5
-1.404, 6.739e-5
-1.403, 6.636e-5
-1.402, 6.533e-5
-1.401, 6.440e-5
-1.400, 6.348e-5
-1.399, 6.251e-5
-1.398, 6.154e-5
-1.397, 6.070e-5
-1.396, 5.971e-5
-1.395, 5.884e-5
-1.394, 5.807e-5
-1.393, 5.709e-5
-1.392, 5.632e-5
-1.391, 5.541e-5
-1.390, 5.458e-5
-1.389, 5.375e-5
-1.388, 5.287e-5
-1.387, 5.214e-5
-1.386, 5.144e-5
-1.385, 5.057e-5
-1.384, 4.981e-5
-1.383, 4.900e-5
-1.382, 4.820e-5
-1.381, 4.742e-5
-1.380, 4.661e-5
-1.379, 4.592e-5
-1.378, 4.523e-5
-1.377, 4.454e-5
-1.376, 4.390e-5
-1.375, 4.312e-5
-1.374, 4.248e-5
-1.373, 4.189e-5
-1.372, 4.122e-5
-1.371, 4.052e-5
-1.370, 3.987e-5
-1.369, 3.918e-5
-1.368, 3.865e-5
-1.367, 3.801e-5
-1.366, 3.739e-5
-1.365, 3.683e-5
-1.364, 3.624e-5
-1.363, 3.566e-5
-1.362, 3.521e-5
-1.361, 3.456e-5
-1.360, 3.393e-5
-1.359, 3.339e-5
-1.358, 3.282e-5
-1.357, 3.232e-5
-1.356, 3.176e-5
-1.355, 3.119e-5
-1.354, 3.065e-5
-1.353, 3.016e-5
-1.352, 2.970e-5
-1.351, 2.932e-5
-1.350, 2.870e-5
-1.349, 2.824e-5
-1.348, 2.779e-5
-1.347, 2.727e-5
-1.346, 2.690e-5
-1.345, 2.635e-5
-1.344, 2.601e-5
-1.343, 2.553e-5
-1.342, 2.514e-5
-1.341, 2.476e-5
-1.340, 2.430e-5
-1.339, 2.387e-5
-1.338, 2.337e-5
-1.337, 2.297e-5
-1.336, 2.251e-5
-1.335, 2.208e-5
-1.334, 2.164e-5
-1.333, 2.123e-5
-1.332, 2.088e-5
-1.331, 2.045e-5
-1.330, 2.003e-5
-1.329, 1.973e-5
-1.328, 1.938e-5
-1.327, 1.903e-5
-1.326, 1.862e-5
-1.325, 1.824e-5
-1.324, 1.787e-5
-1.323, 1.760e-5
-1.322, 1.721e-5
-1.321, 1.689e-5
-1.320, 1.649e-5
-1.319, 1.614e-5
-1.318, 1.588e-5
-1.317, 1.567e-5
-1.316, 1.533e-5
-1.315, 1.496e-5
-1.314, 1.454e-5
-1.313, 1.429e-5
-1.312, 1.407e-5
-1.311, 1.372e-5
-1.310, 1.337e-5
-1.309, 1.320e-5
-1.308, 1.290e-5
-1.307, 1.261e-5
-1.306, 1.237e-5
-1.305, 1.202e-5
-1.304, 1.185e-5
-1.303, 1.156e-5
-1.302, 1.126e-5
-1.301, 1.101e-5
-1.300, 1.074e-5
-1.299, 1.046e-5
-1.298, 1.025e-5
-1.297, 9.998e-6
-1.296, 9.737e-6
-1.295, 9.496e-6
-1.294, 9.238e-6
-1.293, 9.040e-6
-1.292, 8.790e-6
-1.291, 8.568e-6
-1.290, 8.334e-6
-1.289, 8.057e-6
-1.288, 7.922e-6
-1.287, 7.810e-6
-1.286, 7.570e-6
-1.285, 7.346e-6
-1.284, 7.152e-6
-1.283, 6.924e-6
-1.282, 6.722e-6
-1.281, 6.529e-6
-1.280, 6.239e-6
-1.279, 6.082e-6
-1.278, 5.932e-6
-1.277, 5.809e-6
-1.276, 5.677e-6
-1.275, 5.408e-6
-1.274, 5.190e-6
-1.273, 5.076e-6
-1.272, 4.889e-6
-1.271, 4.682e-6
-1.270, 4.486e-6
-1.269, 4.349e-6
-1.268, 4.222e-6
-1.267, 4.108e-6
-1.266, 3.949e-6
-1.265, 3.718e-6
-1.264, 3.622e-6
-1.263, 3.493e-6
-1.262, 3.330e-6
-1.261, 3.167e-6
-1.260, 2.961e-6
-1.259, 2.794e-6
-1.258, 2.745e-6
-1.257, 2.619e-6
-1.256, 2.539e-6
-1.255, 2.330e-6
-1.254, 2.148e-6
-1.253, 2.076e-6
-1.252, 1.960e-6
-1.251, 1.794e-6
-1.250, 1.713e-6
-1.249, 1.536e-6
-1.248, 1.440e-6
-1.247, 1.343e-6
-1.246, 1.259e-6
-1.245, 1.111e-6
-1.244, 1.008e-6
-1.243, 8.473e-7
-1.242, 8.562e-7
-1.241, 6.529e-7
-1.240, 5.661e-7
-1.239, 4.428e-7
-1.238, 2.879e-7
-1.237, 3.234e-7
-1.236, 2.129e-7
-1.235, 7.577e-8
-1.234, -1.302e-8
-1.233, -8.800e-8
-1.232, -1.314e-7
-1.231, -2.163e-7
-1.230, -4.363e-7
-1.229, -5.053e-7
-1.228, -5.191e-7
-1.227, -6.040e-7
-1.226, -6.602e-7
-1.225, -8.082e-7
-1.224, -8.704e-7
-1.223, -9.444e-7
-1.222, -1.007e-6
-1.221, -1.094e-6
-1.220, -1.158e-6
-1.219, -1.330e-6
-1.218, -1.346e-6
-1.217, -1.342e-6
-1.216, -1.430e-6
-1.215, -1.553e-6
-1.214, -1.616e-6
-1.213, -1.676e-6
-1.212, -1.716e-6
-1.211, -1.775e-6
-1.210, -1.920e-6
-1.209, -2.004e-6
-1.208, -2.017e-6
-1.207, -2.060e-6
-1.206, -2.111e-6
-1.205, -2.164e-6
-1.204, -2.255e-6
-1.203, -2.344e-6
-1.202, -2.344e-6
-1.201, -2.484e-6
-1.200, -2.476e-6
-1.199, -2.609e-6
-1.198, -2.656e-6
-1.197, -2.622e-6
-1.196, -2.696e-6
-1.195, -2.794e-6
-1.194, -2.800e-6
-1.193, -2.921e-6
-1.192, -2.869e-6
-1.191, -2.975e-6
-1.190, -3.097e-6
-1.189, -3.120e-6
-1.188, -3.189e-6
-1.187, -3.216e-6
-1.186, -3.198e-6
-1.185, -3.319e-6
-1.184, -3.339e-6
-1.183, -3.383e-6
-1.182, -3.465e-6
-1.181, -3.473e-6
-1.180, -3.585e-6
-1.179, -3.649e-6
-1.178, -3.652e-6
-1.177, -3.651e-6
-1.176, -3.729e-6
-1.175, -3.741e-6
-1.174, -3.880e-6
-1.173, -3.841e-6
-1.172, -3.883e-6
-1.171, -3.974e-6
-1.170, -4.004e-6
-1.169, -4.093e-6
-1.168, -4.163e-6
-1.167, -4.083e-6
-1.166, -4.144e-6
-1.165, -4.224e-6
-1.164, -4.238e-6
-1.163, -4.313e-6
-1.162, -4.324e-6
-1.161, -4.371e-6
-1.160, -4.454e-6
-1.159, -4.468e-6
-1.158, -4.538e-6
-1.157, -4.529e-6
-1.156, -4.566e-6
-1.155, -4.607e-6
-1.154, -4.668e-6
-1.153, -4.741e-6
-1.152, -4.746e-6
-1.151, -4.795e-6
-1.150, -4.815e-6
-1.149, -4.906e-6
-1.148, -4.942e-6
-1.147, -4.965e-6
-1.146, -4.980e-6
-1.145, -5.026e-6
-1.144, -5.100e-6
-1.143, -5.138e-6
-1.142, -5.129e-6
-1.141, -5.204e-6
-1.140, -5.232e-6
-1.139, -5.310e-6
-1.138, -5.338e-6
-1.137, -5.304e-6
-1.136, -5.429e-6
-1.135, -5.454e-6
-1.134, -5.535e-6
-1.133, -5.530e-6
-1.132, -5.588e-6
-1.131, -5.623e-6
-1.130, -5.617e-6
-1.129, -5.773e-6
-1.128, -5.746e-6
-1.127, -5.820e-6
-1.126, -5.826e-6
-1.125, -5.889e-6
-1.124, -5.955e-6
-1.123, -5.996e-6
-1.122, -6.044e-6
-1.121, -6.134e-6
-1.120, -6.157e-6
-1.119, -6.204e-6
-1.118, -6.254e-6
-1.117, -6.213e-6
-1.116, -6.325e-6
-1.115, -6.344e-6
-1.114, -6.440e-6
-1.113, -6.495e-6
-1.112, -6.460e-6
-1.111, -6.535e-6
-1.110, -6.606e-6
-1.109, -6.608e-6
-1.108, -6.730e-6
-1.107, -6.743e-6
-1.106, -6.750e-6
-1.105, -6.849e-6
-1.104, -6.898e-6
-1.103, -6.942e-6
-1.102, -7.032e-6
-1.101, -7.044e-6
-1.100, -7.070e-6
-1.099, -7.191e-6
-1.098, -7.144e-6
-1.097, -7.251e-6
-1.096, -7.263e-6
-1.095, -7.306e-6
-1.094, -7.450e-6
-1.093, -7.447e-6
-1.092, -7.511e-6
-1.091, -7.597e-6
-1.090, -7.584e-6
-1.089, -7.653e-6
-1.088, -7.706e-6
-1.087, -7.723e-6
-1.086, -7.774e-6
-1.085, -7.848e-6
-1.084, -7.884e-6
-1.083, -7.962e-6
-1.082, -7.948e-6
-1.081, -8.076e-6
-1.080, -8.116e-6
-1.079, -8.133e-6
-1.078, -8.205e-6
-1.077, -8.266e-6
-1.076, -8.326e-6
-1.075, -8.389e-6
-1.074, -8.459e-6
-1.073, -8.508e-6
-1.072, -8.527e-6
-1.071, -8.643e-6
-1.070, -8.704e-6
-1.069, -8.786e-6
-1.068, -8.821e-6
-1.067, -8.879e-6
-1.066, -9.012e-6
-1.065, -9.029e-6
-1.064, -9.113e-6
-1.063, -9.197e-6
-1.062, -9.254e-6
-1.061, -9.318e-6
-1.060, -9.434e-6
-1.059, -9.604e-6
-1.058, -9.588e-6
-1.057, -9.671e-6
-1.056, -9.713e-6
-1.055, -9.810e-6
-1.054, -9.971e-6
-1.053, -9.980e-6
-1.052, -1.011e-5
-1.051, -1.022e-5
-1.050, -1.026e-5
-1.049, -1.046e-5
-1.048, -1.050e-5
-1.047, -1.055e-5
-1.046, -1.071e-5
-1.045, -1.078e-5
-1.044, -1.088e-5
-1.043, -1.104e-5
-1.042, -1.105e-5
-1.041, -1.124e-5
-1.040, -1.131e-5
-1.039, -1.143e-5
-1.038, -1.160e-5
-1.037, -1.169e-5
-1.036, -1.175e-5
-1.035, -1.191e-5
-1.034, -1.211e-5
-1.033, -1.220e-5
-1.032, -1.226e-5
-1.031, -1.236e-5
-1.030, -1.246e-5
-1.029, -1.266e-5
-1.028, -1.285e-5
-1.027, -1.294e-5
-1.026, -1.303e-5
-1.025, -1.327e-5
-1.024, -1.333e-5
-1.023, -1.354e-5
-1.022, -1.365e-5
-1.021, -1.370e-5
-1.020, -1.387e-5
-1.019, -1.410e-5
-1.018, -1.417e-5
-1.017, -1.433e-5
-1.016, -1.446e-5
-1.015, -1.458e-5
-1.014, -1.478e-5
-1.013, -1.495e-5
-1.012, -1.499e-5
-1.011, -1.523e-5
-1.010, -1.535e-5
-1.009, -1.553e-5
-1.008, -1.566e-5
-1.007, -1.577e-5
-1.006, -1.596e-5
-1.005, -1.611e-5
-1.004, -1.627e-5
-1.003, -1.648e-5
-1.002, -1.661e-5
-1.001, -1.671e-5
