Apr. 5, 2025   13:41:40
Cyclic Voltammetry
File: c:/users/guazh/data/banditlqround7_x0exp994_r5/2025-03-28-exp990\exp990-2025-04-05t13_32_59-arkoh\exp990_cv_50mvs_efin_-1600mv.bin
Data Source:  Experiment
Instrument Model:  CHI760E
Header: CV ran at 50 mVs
Note: 

Init E (V) = -1
High E (V) = -1
Low E (V) = -1.6
Final E (V) = -1
Init P/N = N
Scan Rate (V/s) = 0.05
Segment = 7
Sample Interval (V) = 0.001
Quiet Time (sec) = 60
Sensitivity (A/V) = 0.001
Comp R (ohm) = 1.8

Results:

Channel 1:
Segment 1:

Segment 2:

Segment 3:

Segment 4:

Segment 5:

Segment 6:

Segment 7:

Potential/V, Current/A

-1.000, 2.386e-6
-1.001, 2.953e-6
-1.002, 3.143e-6
-1.003, 3.340e-6
-1.004, 3.545e-6
-1.005, 3.618e-6
-1.006, 3.555e-6
-1.007, 3.617e-6
-1.008, 3.752e-6
-1.009, 3.921e-6
-1.010, 3.979e-6
-1.011, 3.821e-6
-1.012, 3.869e-6
-1.013, 4.087e-6
-1.014, 4.165e-6
-1.015, 4.218e-6
-1.016, 4.111e-6
-1.017, 4.125e-6
-1.018, 4.312e-6
-1.019, 4.404e-6
-1.020, 4.386e-6
-1.021, 4.285e-6
-1.022, 4.333e-6
-1.023, 4.465e-6
-1.024, 4.628e-6
-1.025, 4.548e-6
-1.026, 4.534e-6
-1.027, 4.530e-6
-1.028, 4.688e-6
-1.029, 4.796e-6
-1.030, 4.764e-6
-1.031, 4.697e-6
-1.032, 4.671e-6
-1.033, 4.821e-6
-1.034, 5.012e-6
-1.035, 4.895e-6
-1.036, 4.790e-6
-1.037, 4.834e-6
-1.038, 5.001e-6
-1.039, 5.131e-6
-1.040, 5.003e-6
-1.041, 4.925e-6
-1.042, 4.971e-6
-1.043, 5.156e-6
-1.044, 5.221e-6
-1.045, 5.199e-6
-1.046, 5.078e-6
-1.047, 5.126e-6
-1.048, 5.271e-6
-1.049, 5.339e-6
-1.050, 5.345e-6
-1.051, 5.198e-6
-1.052, 5.226e-6
-1.053, 5.434e-6
-1.054, 5.464e-6
-1.055, 5.490e-6
-1.056, 5.313e-6
-1.057, 5.357e-6
-1.058, 5.537e-6
-1.059, 5.607e-6
-1.060, 5.574e-6
-1.061, 5.452e-6
-1.062, 5.458e-6
-1.063, 5.699e-6
-1.064, 5.749e-6
-1.065, 5.690e-6
-1.066, 5.607e-6
-1.067, 5.627e-6
-1.068, 5.787e-6
-1.069, 5.926e-6
-1.070, 5.796e-6
-1.071, 5.734e-6
-1.072, 5.750e-6
-1.073, 5.885e-6
-1.074, 6.034e-6
-1.075, 5.976e-6
-1.076, 5.820e-6
-1.077, 5.921e-6
-1.078, 6.028e-6
-1.079, 6.181e-6
-1.080, 6.093e-6
-1.081, 5.958e-6
-1.082, 6.058e-6
-1.083, 6.118e-6
-1.084, 6.275e-6
-1.085, 6.223e-6
-1.086, 6.076e-6
-1.087, 6.223e-6
-1.088, 6.269e-6
-1.089, 6.428e-6
-1.090, 6.383e-6
-1.091, 6.203e-6
-1.092, 6.294e-6
-1.093, 6.443e-6
-1.094, 6.567e-6
-1.095, 6.457e-6
-1.096, 6.364e-6
-1.097, 6.435e-6
-1.098, 6.593e-6
-1.099, 6.675e-6
-1.100, 6.600e-6
-1.101, 6.568e-6
-1.102, 6.533e-6
-1.103, 6.758e-6
-1.104, 6.771e-6
-1.105, 6.739e-6
-1.106, 6.686e-6
-1.107, 6.704e-6
-1.108, 6.821e-6
-1.109, 6.984e-6
-1.110, 6.862e-6
-1.111, 6.808e-6
-1.112, 6.789e-6
-1.113, 6.961e-6
-1.114, 7.142e-6
-1.115, 7.000e-6
-1.116, 6.897e-6
-1.117, 6.926e-6
-1.118, 7.101e-6
-1.119, 7.247e-6
-1.120, 7.131e-6
-1.121, 7.027e-6
-1.122, 7.137e-6
-1.123, 7.233e-6
-1.124, 7.372e-6
-1.125, 7.259e-6
-1.126, 7.168e-6
-1.127, 7.273e-6
-1.128, 7.392e-6
-1.129, 7.477e-6
-1.130, 7.378e-6
-1.131, 7.344e-6
-1.132, 7.340e-6
-1.133, 7.539e-6
-1.134, 7.598e-6
-1.135, 7.580e-6
-1.136, 7.414e-6
-1.137, 7.457e-6
-1.138, 7.677e-6
-1.139, 7.774e-6
-1.140, 7.631e-6
-1.141, 7.609e-6
-1.142, 7.633e-6
-1.143, 7.829e-6
-1.144, 7.927e-6
-1.145, 7.802e-6
-1.146, 7.772e-6
-1.147, 7.740e-6
-1.148, 7.932e-6
-1.149, 8.039e-6
-1.150, 7.931e-6
-1.151, 7.882e-6
-1.152, 7.943e-6
-1.153, 8.062e-6
-1.154, 8.202e-6
-1.155, 8.063e-6
-1.156, 7.971e-6
-1.157, 8.121e-6
-1.158, 8.199e-6
-1.159, 8.371e-6
-1.160, 8.212e-6
-1.161, 8.133e-6
-1.162, 8.252e-6
-1.163, 8.366e-6
-1.164, 8.470e-6
-1.165, 8.398e-6
-1.166, 8.306e-6
-1.167, 8.404e-6
-1.168, 8.524e-6
-1.169, 8.633e-6
-1.170, 8.486e-6
-1.171, 8.420e-6
-1.172, 8.534e-6
-1.173, 8.726e-6
-1.174, 8.733e-6
-1.175, 8.672e-6
-1.176, 8.556e-6
-1.177, 8.716e-6
-1.178, 8.844e-6
-1.179, 8.906e-6
-1.180, 8.818e-6
-1.181, 8.764e-6
-1.182, 8.803e-6
-1.183, 9.046e-6
-1.184, 9.080e-6
-1.185, 8.937e-6
-1.186, 8.953e-6
-1.187, 8.967e-6
-1.188, 9.131e-6
-1.189, 9.245e-6
-1.190, 9.107e-6
-1.191, 9.095e-6
-1.192, 9.149e-6
-1.193, 9.265e-6
-1.194, 9.450e-6
-1.195, 9.257e-6
-1.196, 9.243e-6
-1.197, 9.324e-6
-1.198, 9.508e-6
-1.199, 9.606e-6
-1.200, 9.443e-6
-1.201, 9.421e-6
-1.202, 9.550e-6
-1.203, 9.635e-6
-1.204, 9.742e-6
-1.205, 9.665e-6
-1.206, 9.598e-6
-1.207, 9.709e-6
-1.208, 9.885e-6
-1.209, 9.958e-6
-1.210, 9.825e-6
-1.211, 9.793e-6
-1.212, 9.925e-6
-1.213, 1.010e-5
-1.214, 1.014e-5
-1.215, 1.005e-5
-1.216, 1.003e-5
-1.217, 1.015e-5
-1.218, 1.030e-5
-1.219, 1.041e-5
-1.220, 1.027e-5
-1.221, 1.027e-5
-1.222, 1.040e-5
-1.223, 1.057e-5
-1.224, 1.061e-5
-1.225, 1.051e-5
-1.226, 1.055e-5
-1.227, 1.060e-5
-1.228, 1.092e-5
-1.229, 1.086e-5
-1.230, 1.081e-5
-1.231, 1.079e-5
-1.232, 1.094e-5
-1.233, 1.107e-5
-1.234, 1.117e-5
-1.235, 1.107e-5
-1.236, 1.110e-5
-1.237, 1.119e-5
-1.238, 1.137e-5
-1.239, 1.145e-5
-1.240, 1.134e-5
-1.241, 1.140e-5
-1.242, 1.155e-5
-1.243, 1.171e-5
-1.244, 1.180e-5
-1.245, 1.172e-5
-1.246, 1.170e-5
-1.247, 1.189e-5
-1.248, 1.202e-5
-1.249, 1.210e-5
-1.250, 1.211e-5
-1.251, 1.208e-5
-1.252, 1.224e-5
-1.253, 1.250e-5
-1.254, 1.252e-5
-1.255, 1.248e-5
-1.256, 1.247e-5
-1.257, 1.264e-5
-1.258, 1.292e-5
-1.259, 1.288e-5
-1.260, 1.291e-5
-1.261, 1.297e-5
-1.262, 1.313e-5
-1.263, 1.338e-5
-1.264, 1.334e-5
-1.265, 1.335e-5
-1.266, 1.345e-5
-1.267, 1.358e-5
-1.268, 1.386e-5
-1.269, 1.392e-5
-1.270, 1.392e-5
-1.271, 1.400e-5
-1.272, 1.418e-5
-1.273, 1.441e-5
-1.274, 1.453e-5
-1.275, 1.444e-5
-1.276, 1.452e-5
-1.277, 1.477e-5
-1.278, 1.502e-5
-1.279, 1.517e-5
-1.280, 1.517e-5
-1.281, 1.522e-5
-1.282, 1.548e-5
-1.283, 1.573e-5
-1.284, 1.581e-5
-1.285, 1.581e-5
-1.286, 1.594e-5
-1.287, 1.623e-5
-1.288, 1.645e-5
-1.289, 1.661e-5
-1.290, 1.663e-5
-1.291, 1.675e-5
-1.292, 1.698e-5
-1.293, 1.732e-5
-1.294, 1.739e-5
-1.295, 1.751e-5
-1.296, 1.761e-5
-1.297, 1.792e-5
-1.298, 1.819e-5
-1.299, 1.835e-5
-1.300, 1.838e-5
-1.301, 1.861e-5
-1.302, 1.889e-5
-1.303, 1.923e-5
-1.304, 1.938e-5
-1.305, 1.945e-5
-1.306, 1.965e-5
-1.307, 1.999e-5
-1.308, 2.031e-5
-1.309, 2.054e-5
-1.310, 2.060e-5
-1.311, 2.082e-5
-1.312, 2.116e-5
-1.313, 2.153e-5
-1.314, 2.178e-5
-1.315, 2.179e-5
-1.316, 2.209e-5
-1.317, 2.252e-5
-1.318, 2.289e-5
-1.319, 2.310e-5
-1.320, 2.323e-5
-1.321, 2.351e-5
-1.322, 2.398e-5
-1.323, 2.435e-5
-1.324, 2.458e-5
-1.325, 2.478e-5
-1.326, 2.506e-5
-1.327, 2.556e-5
-1.328, 2.591e-5
-1.329, 2.623e-5
-1.330, 2.647e-5
-1.331, 2.676e-5
-1.332, 2.725e-5
-1.333, 2.775e-5
-1.334, 2.797e-5
-1.335, 2.829e-5
-1.336, 2.863e-5
-1.337, 2.913e-5
-1.338, 2.965e-5
-1.339, 2.999e-5
-1.340, 3.027e-5
-1.341, 3.064e-5
-1.342, 3.122e-5
-1.343, 3.177e-5
-1.344, 3.208e-5
-1.345, 3.242e-5
-1.346, 3.286e-5
-1.347, 3.341e-5
-1.348, 3.402e-5
-1.349, 3.443e-5
-1.350, 3.477e-5
-1.351, 3.524e-5
-1.352, 3.587e-5
-1.353, 3.638e-5
-1.354, 3.691e-5
-1.355, 3.723e-5
-1.356, 3.774e-5
-1.357, 3.851e-5
-1.358, 3.907e-5
-1.359, 3.956e-5
-1.360, 3.997e-5
-1.361, 4.055e-5
-1.362, 4.124e-5
-1.363, 4.187e-5
-1.364, 4.239e-5
-1.365, 4.288e-5
-1.366, 4.346e-5
-1.367, 4.427e-5
-1.368, 4.483e-5
-1.369, 4.539e-5
-1.370, 4.602e-5
-1.371, 4.659e-5
-1.372, 4.735e-5
-1.373, 4.811e-5
-1.374, 4.868e-5
-1.375, 4.928e-5
-1.376, 4.997e-5
-1.377, 5.076e-5
-1.378, 5.159e-5
-1.379, 5.214e-5
-1.380, 5.273e-5
-1.381, 5.347e-5
-1.382, 5.437e-5
-1.383, 5.524e-5
-1.384, 5.586e-5
-1.385, 5.645e-5
-1.386, 5.731e-5
-1.387, 5.817e-5
-1.388, 5.904e-5
-1.389, 5.979e-5
-1.390, 6.042e-5
-1.391, 6.134e-5
-1.392, 6.220e-5
-1.393, 6.316e-5
-1.394, 6.387e-5
-1.395, 6.456e-5
-1.396, 6.552e-5
-1.397, 6.652e-5
-1.398, 6.746e-5
-1.399, 6.831e-5
-1.400, 6.905e-5
-1.401, 7.003e-5
-1.402, 7.109e-5
-1.403, 7.208e-5
-1.404, 7.297e-5
-1.405, 7.374e-5
-1.406, 7.474e-5
-1.407, 7.583e-5
-1.408, 7.691e-5
-1.409, 7.776e-5
-1.410, 7.864e-5
-1.411, 7.969e-5
-1.412, 8.083e-5
-1.413, 8.200e-5
-1.414, 8.292e-5
-1.415, 8.390e-5
-1.416, 8.493e-5
-1.417, 8.615e-5
-1.418, 8.737e-5
-1.419, 8.827e-5
-1.420, 8.927e-5
-1.421, 9.048e-5
-1.422, 9.171e-5
-1.423, 9.301e-5
-1.424, 9.396e-5
-1.425, 9.503e-5
-1.426, 9.631e-5
-1.427, 9.756e-5
-1.428, 9.882e-5
-1.429, 9.993e-5
-1.430, 1.010e-4
-1.431, 1.023e-4
-1.432, 1.036e-4
-1.433, 1.050e-4
-1.434, 1.062e-4
-1.435, 1.074e-4
-1.436, 1.088e-4
-1.437, 1.102e-4
-1.438, 1.116e-4
-1.439, 1.128e-4
-1.440, 1.141e-4
-1.441, 1.154e-4
-1.442, 1.170e-4
-1.443, 1.184e-4
-1.444, 1.197e-4
-1.445, 1.211e-4
-1.446, 1.225e-4
-1.447, 1.241e-4
-1.448, 1.255e-4
-1.449, 1.270e-4
-1.450, 1.284e-4
-1.451, 1.298e-4
-1.452, 1.314e-4
-1.453, 1.330e-4
-1.454, 1.343e-4
-1.455, 1.358e-4
-1.456, 1.374e-4
-1.457, 1.392e-4
-1.458, 1.409e-4
-1.459, 1.425e-4
-1.460, 1.440e-4
-1.461, 1.458e-4
-1.462, 1.476e-4
-1.463, 1.494e-4
-1.464, 1.510e-4
-1.465, 1.526e-4
-1.466, 1.545e-4
-1.467, 1.563e-4
-1.468, 1.583e-4
-1.469, 1.600e-4
-1.470, 1.617e-4
-1.471, 1.637e-4
-1.472, 1.656e-4
-1.473, 1.676e-4
-1.474, 1.693e-4
-1.475, 1.712e-4
-1.476, 1.732e-4
-1.477, 1.753e-4
-1.478, 1.773e-4
-1.479, 1.793e-4
-1.480, 1.813e-4
-1.481, 1.834e-4
-1.482, 1.857e-4
-1.483, 1.879e-4
-1.484, 1.900e-4
-1.485, 1.920e-4
-1.486, 1.942e-4
-1.487, 1.965e-4
-1.488, 1.988e-4
-1.489, 2.009e-4
-1.490, 2.032e-4
-1.491, 2.056e-4
-1.492, 2.082e-4
-1.493, 2.106e-4
-1.494, 2.128e-4
-1.495, 2.152e-4
-1.496, 2.177e-4
-1.497, 2.203e-4
-1.498, 2.229e-4
-1.499, 2.253e-4
-1.500, 2.278e-4
-1.501, 2.304e-4
-1.502, 2.331e-4
-1.503, 2.358e-4
-1.504, 2.383e-4
-1.505, 2.409e-4
-1.506, 2.436e-4
-1.507, 2.464e-4
-1.508, 2.493e-4
-1.509, 2.520e-4
-1.510, 2.549e-4
-1.511, 2.578e-4
-1.512, 2.607e-4
-1.513, 2.634e-4
-1.514, 2.662e-4
-1.515, 2.690e-4
-1.516, 2.722e-4
-1.517, 2.755e-4
-1.518, 2.787e-4
-1.519, 2.819e-4
-1.520, 2.851e-4
-1.521, 2.885e-4
-1.522, 2.921e-4
-1.523, 2.955e-4
-1.524, 2.987e-4
-1.525, 3.021e-4
-1.526, 3.056e-4
-1.527, 3.093e-4
-1.528, 3.130e-4
-1.529, 3.167e-4
-1.530, 3.204e-4
-1.531, 3.244e-4
-1.532, 3.284e-4
-1.533, 3.323e-4
-1.534, 3.360e-4
-1.535, 3.399e-4
-1.536, 3.441e-4
-1.537, 3.484e-4
-1.538, 3.526e-4
-1.539, 3.567e-4
-1.540, 3.609e-4
-1.541, 3.653e-4
-1.542, 3.694e-4
-1.543, 3.734e-4
-1.544, 3.777e-4
-1.545, 3.822e-4
-1.546, 3.871e-4
-1.547, 3.919e-4
-1.548, 3.964e-4
-1.549, 4.012e-4
-1.550, 4.066e-4
-1.551, 4.115e-4
-1.552, 4.166e-4
-1.553, 4.216e-4
-1.554, 4.267e-4
-1.555, 4.321e-4
-1.556, 4.376e-4
-1.557, 4.433e-4
-1.558, 4.488e-4
-1.559, 4.537e-4
-1.560, 4.587e-4
-1.561, 4.644e-4
-1.562, 4.705e-4
-1.563, 4.764e-4
-1.564, 4.834e-4
-1.565, 4.892e-4
-1.566, 4.951e-4
-1.567, 5.013e-4
-1.568, 5.074e-4
-1.569, 5.137e-4
-1.570, 5.200e-4
-1.571, 5.267e-4
-1.572, 5.336e-4
-1.573, 5.404e-4
-1.574, 5.474e-4
-1.575, 5.543e-4
-1.576, 5.616e-4
-1.577, 5.692e-4
-1.578, 5.766e-4
-1.579, 5.839e-4
-1.580, 5.913e-4
-1.581, 5.989e-4
-1.582, 6.065e-4
-1.583, 6.145e-4
-1.584, 6.224e-4
-1.585, 6.303e-4
-1.586, 6.388e-4
-1.587, 6.472e-4
-1.588, 6.553e-4
-1.589, 6.635e-4
-1.590, 6.719e-4
-1.591, 6.809e-4
-1.592, 6.904e-4
-1.593, 6.997e-4
-1.594, 7.089e-4
-1.595, 7.180e-4
-1.596, 7.266e-4
-1.597, 7.362e-4
-1.598, 7.464e-4
-1.599, 7.559e-4
-1.600, 7.515e-4
-1.599, 7.384e-4
-1.598, 7.255e-4
-1.597, 7.111e-4
-1.596, 6.968e-4
-1.595, 6.826e-4
-1.594, 6.653e-4
-1.593, 6.534e-4
-1.592, 6.429e-4
-1.591, 6.296e-4
-1.590, 6.168e-4
-1.589, 6.045e-4
-1.588, 5.926e-4
-1.587, 5.809e-4
-1.586, 5.691e-4
-1.585, 5.571e-4
-1.584, 5.459e-4
-1.583, 5.345e-4
-1.582, 5.229e-4
-1.581, 5.097e-4
-1.580, 4.994e-4
-1.579, 4.893e-4
-1.578, 4.795e-4
-1.577, 4.699e-4
-1.576, 4.606e-4
-1.575, 4.517e-4
-1.574, 4.430e-4
-1.573, 4.346e-4
-1.572, 4.263e-4
-1.571, 4.180e-4
-1.570, 4.100e-4
-1.569, 4.025e-4
-1.568, 3.949e-4
-1.567, 3.874e-4
-1.566, 3.802e-4
-1.565, 3.730e-4
-1.564, 3.660e-4
-1.563, 3.592e-4
-1.562, 3.525e-4
-1.561, 3.456e-4
-1.560, 3.392e-4
-1.559, 3.329e-4
-1.558, 3.265e-4
-1.557, 3.201e-4
-1.556, 3.138e-4
-1.555, 3.076e-4
-1.554, 3.018e-4
-1.553, 2.962e-4
-1.552, 2.913e-4
-1.551, 2.850e-4
-1.550, 2.797e-4
-1.549, 2.748e-4
-1.548, 2.699e-4
-1.547, 2.650e-4
-1.546, 2.601e-4
-1.545, 2.553e-4
-1.544, 2.508e-4
-1.543, 2.462e-4
-1.542, 2.414e-4
-1.541, 2.368e-4
-1.540, 2.324e-4
-1.539, 2.282e-4
-1.538, 2.241e-4
-1.537, 2.200e-4
-1.536, 2.158e-4
-1.535, 2.119e-4
-1.534, 2.081e-4
-1.533, 2.044e-4
-1.532, 2.005e-4
-1.531, 1.967e-4
-1.530, 1.930e-4
-1.529, 1.896e-4
-1.528, 1.862e-4
-1.527, 1.828e-4
-1.526, 1.792e-4
-1.525, 1.760e-4
-1.524, 1.728e-4
-1.523, 1.697e-4
-1.522, 1.666e-4
-1.521, 1.632e-4
-1.520, 1.602e-4
-1.519, 1.574e-4
-1.518, 1.545e-4
-1.517, 1.517e-4
-1.516, 1.487e-4
-1.515, 1.459e-4
-1.514, 1.434e-4
-1.513, 1.409e-4
-1.512, 1.382e-4
-1.511, 1.355e-4
-1.510, 1.330e-4
-1.509, 1.308e-4
-1.508, 1.284e-4
-1.507, 1.260e-4
-1.506, 1.236e-4
-1.505, 1.212e-4
-1.504, 1.192e-4
-1.503, 1.170e-4
-1.502, 1.148e-4
-1.501, 1.127e-4
-1.500, 1.106e-4
-1.499, 1.086e-4
-1.498, 1.068e-4
-1.497, 1.047e-4
-1.496, 1.026e-4
-1.495, 1.008e-4
-1.494, 9.908e-5
-1.493, 9.743e-5
-1.492, 9.551e-5
-1.491, 9.359e-5
-1.490, 9.191e-5
-1.489, 9.026e-5
-1.488, 8.874e-5
-1.487, 8.702e-5
-1.486, 8.524e-5
-1.485, 8.371e-5
-1.484, 8.225e-5
-1.483, 8.087e-5
-1.482, 7.924e-5
-1.481, 7.773e-5
-1.480, 7.635e-5
-1.479, 7.502e-5
-1.478, 7.370e-5
-1.477, 7.224e-5
-1.476, 7.084e-5
-1.475, 6.954e-5
-1.474, 6.838e-5
-1.473, 6.715e-5
-1.472, 6.582e-5
-1.471, 6.453e-5
-1.470, 6.335e-5
-1.469, 6.233e-5
-1.468, 6.122e-5
-1.467, 5.999e-5
-1.466, 5.882e-5
-1.465, 6.233e-5
-1.464, 5.770e-5
-1.463, 5.647e-5
-1.462, 5.527e-5
-1.461, 5.412e-5
-1.460, 5.321e-5
-1.459, 5.221e-5
-1.458, 5.137e-5
-1.457, 5.040e-5
-1.456, 4.930e-5
-1.455, 4.846e-5
-1.454, 4.761e-5
-1.453, 4.688e-5
-1.452, 4.591e-5
-1.451, 4.485e-5
-1.450, 4.413e-5
-1.449, 4.337e-5
-1.448, 4.268e-5
-1.447, 4.179e-5
-1.446, 4.083e-5
-1.445, 4.017e-5
-1.444, 3.958e-5
-1.443, 3.885e-5
-1.442, 3.812e-5
-1.441, 3.724e-5
-1.440, 3.664e-5
-1.439, 3.607e-5
-1.438, 3.542e-5
-1.437, 3.470e-5
-1.436, 3.392e-5
-1.435, 3.333e-5
-1.434, 3.281e-5
-1.433, 3.231e-5
-1.432, 3.156e-5
-1.431, 3.090e-5
-1.430, 3.030e-5
-1.429, 2.992e-5
-1.428, 2.941e-5
-1.427, 2.867e-5
-1.426, 2.811e-5
-1.425, 2.752e-5
-1.424, 2.722e-5
-1.423, 2.673e-5
-1.422, 2.609e-5
-1.421, 2.555e-5
-1.420, 2.508e-5
-1.419, 2.468e-5
-1.418, 2.436e-5
-1.417, 2.372e-5
-1.416, 2.322e-5
-1.415, 2.280e-5
-1.414, 2.241e-5
-1.413, 2.217e-5
-1.412, 2.160e-5
-1.411, 2.102e-5
-1.410, 2.069e-5
-1.409, 2.042e-5
-1.408, 2.014e-5
-1.407, 1.959e-5
-1.406, 1.909e-5
-1.405, 1.881e-5
-1.404, 1.856e-5
-1.403, 1.824e-5
-1.402, 1.778e-5
-1.401, 1.731e-5
-1.400, 1.703e-5
-1.399, 1.682e-5
-1.398, 1.651e-5
-1.397, 1.614e-5
-1.396, 1.570e-5
-1.395, 1.537e-5
-1.394, 1.523e-5
-1.393, 1.498e-5
-1.392, 1.456e-5
-1.391, 1.415e-5
-1.390, 1.391e-5
-1.389, 1.376e-5
-1.388, 1.355e-5
-1.387, 1.309e-5
-1.386, 1.279e-5
-1.385, 1.252e-5
-1.384, 1.248e-5
-1.383, 1.225e-5
-1.382, 1.178e-5
-1.381, 1.149e-5
-1.380, 1.136e-5
-1.379, 1.116e-5
-1.378, 1.103e-5
-1.377, 1.062e-5
-1.376, 1.035e-5
-1.375, 1.012e-5
-1.374, 1.000e-5
-1.373, 9.924e-6
-1.372, 9.517e-6
-1.371, 9.225e-6
-1.370, 9.080e-6
-1.369, 8.982e-6
-1.368, 8.849e-6
-1.367, 8.493e-6
-1.366, 8.238e-6
-1.365, 8.134e-6
-1.364, 8.013e-6
-1.363, 7.881e-6
-1.362, 7.531e-6
-1.361, 7.287e-6
-1.360, 7.182e-6
-1.359, 7.162e-6
-1.358, 7.010e-6
-1.357, 6.696e-6
-1.356, 6.499e-6
-1.355, 6.334e-6
-1.354, 6.307e-6
-1.353, 6.144e-6
-1.352, 5.917e-6
-1.351, 5.689e-6
-1.350, 5.575e-6
-1.349, 5.541e-6
-1.348, 5.457e-6
-1.347, 5.098e-6
-1.346, 4.949e-6
-1.345, 4.841e-6
-1.344, 4.829e-6
-1.343, 4.742e-6
-1.342, 4.377e-6
-1.341, 4.269e-6
-1.340, 4.159e-6
-1.339, 4.165e-6
-1.338, 4.074e-6
-1.337, 3.760e-6
-1.336, 3.617e-6
-1.335, 3.575e-6
-1.334, 3.545e-6
-1.333, 3.463e-6
-1.332, 3.150e-6
-1.331, 2.935e-6
-1.330, 2.972e-6
-1.329, 2.930e-6
-1.328, 2.829e-6
-1.327, 2.602e-6
-1.326, 2.392e-6
-1.325, 2.443e-6
-1.324, 2.451e-6
-1.323, 2.252e-6
-1.322, 2.061e-6
-1.321, 1.895e-6
-1.320, 1.877e-6
-1.319, 1.911e-6
-1.318, 1.764e-6
-1.317, 1.583e-6
-1.316, 1.400e-6
-1.315, 1.347e-6
-1.314, 1.428e-6
-1.313, 1.273e-6
-1.312, 1.099e-6
-1.311, 9.677e-7
-1.310, 8.739e-7
-1.309, 9.973e-7
-1.308, 8.522e-7
-1.307, 5.829e-7
-1.306, 4.951e-7
-1.305, 4.665e-7
-1.304, 5.237e-7
-1.303, 4.635e-7
-1.302, 1.794e-7
-1.301, 8.761e-8
-1.300, 4.617e-8
-1.299, 1.271e-7
-1.298, 9.669e-9
-1.297, -1.965e-7
-1.296, -3.475e-7
-1.295, -3.149e-7
-1.294, -3.120e-7
-1.293, -4.412e-7
-1.292, -5.961e-7
-1.291, -7.618e-7
-1.290, -6.977e-7
-1.289, -7.175e-7
-1.288, -7.609e-7
-1.287, -9.759e-7
-1.286, -1.117e-6
-1.285, -1.084e-6
-1.284, -9.858e-7
-1.283, -1.196e-6
-1.282, -1.274e-6
-1.281, -1.469e-6
-1.280, -1.444e-6
-1.279, -1.395e-6
-1.278, -1.530e-6
-1.277, -1.649e-6
-1.276, -1.819e-6
-1.275, -1.848e-6
-1.274, -1.721e-6
-1.273, -1.846e-6
-1.272, -2.007e-6
-1.271, -2.107e-6
-1.270, -2.147e-6
-1.269, -2.082e-6
-1.268, -2.166e-6
-1.267, -2.379e-6
-1.266, -2.505e-6
-1.265, -2.467e-6
-1.264, -2.370e-6
-1.263, -2.486e-6
-1.262, -2.696e-6
-1.261, -2.769e-6
-1.260, -2.821e-6
-1.259, -2.724e-6
-1.258, -2.776e-6
-1.257, -3.025e-6
-1.256, -3.101e-6
-1.255, -3.101e-6
-1.254, -3.033e-6
-1.253, -3.129e-6
-1.252, -3.332e-6
-1.251, -3.437e-6
-1.250, -3.366e-6
-1.249, -3.352e-6
-1.248, -3.414e-6
-1.247, -3.641e-6
-1.246, -3.719e-6
-1.245, -3.694e-6
-1.244, -3.615e-6
-1.243, -3.747e-6
-1.242, -3.888e-6
-1.241, -4.020e-6
-1.240, -3.989e-6
-1.239, -3.934e-6
-1.238, -4.091e-6
-1.237, -4.149e-6
-1.236, -4.322e-6
-1.235, -4.323e-6
-1.234, -4.220e-6
-1.233, -4.320e-6
-1.232, -4.493e-6
-1.231, -4.604e-6
-1.230, -4.624e-6
-1.229, -4.592e-6
-1.228, -4.639e-6
-1.227, -4.812e-6
-1.226, -4.891e-6
-1.225, -4.932e-6
-1.224, -4.792e-6
-1.223, -4.913e-6
-1.222, -5.139e-6
-1.221, -5.233e-6
-1.220, -5.153e-6
-1.219, -5.149e-6
-1.218, -5.192e-6
-1.217, -5.422e-6
-1.216, -5.474e-6
-1.215, -5.437e-6
-1.214, -5.416e-6
-1.213, -5.479e-6
-1.212, -5.665e-6
-1.211, -5.751e-6
-1.210, -5.684e-6
-1.209, -5.689e-6
-1.208, -5.712e-6
-1.207, -5.924e-6
-1.206, -6.047e-6
-1.205, -6.017e-6
-1.204, -5.937e-6
-1.203, -6.083e-6
-1.202, -6.258e-6
-1.201, -6.302e-6
-1.200, -6.793e-6
-1.199, -6.332e-6
-1.198, -6.407e-6
-1.197, -6.597e-6
-1.196, -6.683e-6
-1.195, -6.687e-6
-1.194, -6.590e-6
-1.193, -6.697e-6
-1.192, -6.948e-6
-1.191, -6.999e-6
-1.190, -7.001e-6
-1.189, -6.914e-6
-1.188, -7.018e-6
-1.187, -7.244e-6
-1.186, -7.325e-6
-1.185, -7.335e-6
-1.184, -7.223e-6
-1.183, -7.337e-6
-1.182, -7.558e-6
-1.181, -7.642e-6
-1.180, -7.541e-6
-1.179, -7.598e-6
-1.178, -7.693e-6
-1.177, -7.941e-6
-1.176, -7.989e-6
-1.175, -7.979e-6
-1.174, -7.929e-6
-1.173, -7.976e-6
-1.172, -8.222e-6
-1.171, -8.351e-6
-1.170, -8.264e-6
-1.169, -8.232e-6
-1.168, -8.356e-6
-1.167, -8.539e-6
-1.166, -8.691e-6
-1.165, -8.608e-6
-1.164, -8.592e-6
-1.163, -8.755e-6
-1.162, -8.904e-6
-1.161, -9.047e-6
-1.160, -8.991e-6
-1.159, -8.902e-6
-1.158, -9.135e-6
-1.157, -9.246e-6
-1.156, -9.361e-6
-1.155, -9.336e-6
-1.154, -9.287e-6
-1.153, -9.435e-6
-1.152, -9.685e-6
-1.151, -9.749e-6
-1.150, -9.711e-6
-1.149, -9.624e-6
-1.148, -9.834e-6
-1.147, -1.008e-5
-1.146, -1.011e-5
-1.145, -1.009e-5
-1.144, -1.005e-5
-1.143, -1.019e-5
-1.142, -1.042e-5
-1.141, -1.050e-5
-1.140, -1.047e-5
-1.139, -1.051e-5
-1.138, -1.056e-5
-1.137, -1.084e-5
-1.136, -1.091e-5
-1.135, -1.085e-5
-1.134, -1.087e-5
-1.133, -1.098e-5
-1.132, -1.120e-5
-1.131, -1.140e-5
-1.130, -1.128e-5
-1.129, -1.128e-5
-1.128, -1.140e-5
-1.127, -1.164e-5
-1.126, -1.182e-5
-1.125, -1.168e-5
-1.124, -1.166e-5
-1.123, -1.190e-5
-1.122, -1.210e-5
-1.121, -1.222e-5
-1.120, -1.214e-5
-1.119, -1.214e-5
-1.118, -1.235e-5
-1.117, -1.253e-5
-1.116, -1.267e-5
-1.115, -1.265e-5
-1.114, -1.261e-5
-1.113, -1.279e-5
-1.112, -1.305e-5
-1.111, -1.315e-5
-1.110, -1.314e-5
-1.109, -1.310e-5
-1.108, -1.328e-5
-1.107, -1.354e-5
-1.106, -1.365e-5
-1.105, -1.363e-5
-1.104, -1.361e-5
-1.103, -1.381e-5
-1.102, -1.406e-5
-1.101, -1.413e-5
-1.100, -1.407e-5
-1.099, -1.417e-5
-1.098, -1.434e-5
-1.097, -1.460e-5
-1.096, -1.470e-5
-1.095, -1.464e-5
-1.094, -1.473e-5
-1.093, -1.484e-5
-1.092, -1.513e-5
-1.091, -1.527e-5
-1.090, -1.524e-5
-1.089, -1.529e-5
-1.088, -1.548e-5
-1.087, -1.574e-5
-1.086, -1.588e-5
-1.085, -1.581e-5
-1.084, -1.588e-5
-1.083, -1.609e-5
-1.082, -1.635e-5
-1.081, -1.648e-5
-1.080, -1.645e-5
-1.079, -1.654e-5
-1.078, -1.672e-5
-1.077, -1.701e-5
-1.076, -1.712e-5
-1.075, -1.717e-5
-1.074, -1.714e-5
-1.073, -1.740e-5
-1.072, -1.765e-5
-1.071, -1.777e-5
-1.070, -1.786e-5
-1.069, -1.781e-5
-1.068, -1.804e-5
-1.067, -1.836e-5
-1.066, -1.849e-5
-1.065, -1.850e-5
-1.064, -1.853e-5
-1.063, -1.875e-5
-1.062, -1.907e-5
-1.061, -1.920e-5
-1.060, -1.916e-5
-1.059, -1.930e-5
-1.058, -1.947e-5
-1.057, -1.979e-5
-1.056, -1.991e-5
-1.055, -1.992e-5
-1.054, -2.002e-5
-1.053, -2.024e-5
-1.052, -2.050e-5
-1.051, -2.068e-5
-1.050, -2.071e-5
-1.049, -2.082e-5
-1.048, -2.101e-5
-1.047, -2.130e-5
-1.046, -2.146e-5
-1.045, -2.147e-5
-1.044, -2.151e-5
-1.043, -2.180e-5
-1.042, -2.205e-5
-1.041, -2.222e-5
-1.040, -2.223e-5
-1.039, -2.230e-5
-1.038, -2.255e-5
-1.037, -2.285e-5
-1.036, -2.301e-5
-1.035, -2.307e-5
-1.034, -2.312e-5
-1.033, -2.340e-5
-1.032, -2.366e-5
-1.031, -2.382e-5
-1.030, -2.392e-5
-1.029, -2.390e-5
-1.028, -2.419e-5
-1.027, -2.457e-5
-1.026, -2.467e-5
-1.025, -2.475e-5
-1.024, -2.481e-5
-1.023, -2.505e-5
-1.022, -2.545e-5
-1.021, -2.553e-5
-1.020, -2.560e-5
-1.019, -2.570e-5
-1.018, -2.596e-5
-1.017, -2.636e-5
-1.016, -2.640e-5
-1.015, -2.648e-5
-1.014, -2.668e-5
-1.013, -2.690e-5
-1.012, -2.722e-5
-1.011, -2.741e-5
-1.010, -2.747e-5
-1.009, -2.764e-5
-1.008, -2.787e-5
-1.007, -2.825e-5
-1.006, -2.843e-5
-1.005, -2.849e-5
-1.004, -2.865e-5
-1.003, -2.898e-5
-1.002, -2.929e-5
-1.001, -2.951e-5
-1.000, -2.200e-5
-1.001, -1.859e-5
-1.002, -1.682e-5
-1.003, -1.547e-5
-1.004, -1.409e-5
-1.005, -1.277e-5
-1.006, -1.162e-5
-1.007, -1.066e-5
-1.008, -1.000e-5
-1.009, -9.091e-6
-1.010, -8.221e-6
-1.011, -7.383e-6
-1.012, -6.825e-6
-1.013, -6.383e-6
-1.014, -5.801e-6
-1.015, -5.045e-6
-1.016, -4.517e-6
-1.017, -4.176e-6
-1.018, -3.847e-6
-1.019, -3.341e-6
-1.020, -2.810e-6
-1.021, -2.357e-6
-1.022, -2.112e-6
-1.023, -1.895e-6
-1.024, -1.491e-6
-1.025, -1.104e-6
-1.026, -6.928e-7
-1.027, -5.566e-7
-1.028, -4.600e-7
-1.029, -6.235e-8
-1.030, 1.981e-7
-1.031, 6.204e-7
-1.032, 6.174e-7
-1.033, 7.644e-7
-1.034, 9.953e-7
-1.035, 1.334e-6
-1.036, 1.561e-6
-1.037, 1.654e-6
-1.038, 1.715e-6
-1.039, 1.928e-6
-1.040, 2.158e-6
-1.041, 2.396e-6
-1.042, 2.468e-6
-1.043, 2.457e-6
-1.044, 2.590e-6
-1.045, 2.901e-6
-1.046, 3.105e-6
-1.047, 3.089e-6
-1.048, 3.082e-6
-1.049, 3.213e-6
-1.050, 3.511e-6
-1.051, 3.641e-6
-1.052, 3.615e-6
-1.053, 3.627e-6
-1.054, 3.710e-6
-1.055, 3.996e-6
-1.056, 4.145e-6
-1.057, 4.067e-6
-1.058, 4.082e-6
-1.059, 4.173e-6
-1.060, 4.425e-6
-1.061, 4.537e-6
-1.062, 4.454e-6
-1.063, 4.468e-6
-1.064, 4.561e-6
-1.065, 4.759e-6
-1.066, 4.915e-6
-1.067, 4.813e-6
-1.068, 4.812e-6
-1.069, 4.908e-6
-1.070, 5.082e-6
-1.071, 5.223e-6
-1.072, 5.141e-6
-1.073, 5.056e-6
-1.074, 5.213e-6
-1.075, 5.373e-6
-1.076, 5.495e-6
-1.077, 5.414e-6
-1.078, 5.336e-6
-1.079, 5.441e-6
-1.080, 5.596e-6
-1.081, 5.709e-6
-1.082, 5.662e-6
-1.083, 5.530e-6
-1.084, 5.634e-6
-1.085, 5.897e-6
-1.086, 5.929e-6
-1.087, 5.851e-6
-1.088, 5.766e-6
-1.089, 5.893e-6
-1.090, 6.047e-6
-1.091, 6.098e-6
-1.092, 6.047e-6
-1.093, 5.966e-6
-1.094, 6.033e-6
-1.095, 6.266e-6
-1.096, 6.306e-6
-1.097, 6.193e-6
-1.098, 6.151e-6
-1.099, 6.241e-6
-1.100, 6.396e-6
-1.101, 6.502e-6
-1.102, 6.361e-6
-1.103, 6.326e-6
-1.104, 6.393e-6
-1.105, 6.503e-6
-1.106, 6.659e-6
-1.107, 6.478e-6
-1.108, 6.447e-6
-1.109, 6.529e-6
-1.110, 6.647e-6
-1.111, 6.847e-6
-1.112, 6.610e-6
-1.113, 6.573e-6
-1.114, 6.725e-6
-1.115, 6.803e-6
-1.116, 6.925e-6
-1.117, 6.810e-6
-1.118, 6.727e-6
-1.119, 6.810e-6
-1.120, 6.941e-6
-1.121, 7.080e-6
-1.122, 6.902e-6
-1.123, 6.817e-6
-1.124, 6.929e-6
-1.125, 7.082e-6
-1.126, 7.170e-6
-1.127, 7.064e-6
-1.128, 6.950e-6
-1.129, 7.070e-6
-1.130, 7.260e-6
-1.131, 7.325e-6
-1.132, 7.118e-6
-1.133, 7.088e-6
-1.134, 7.203e-6
-1.135, 7.382e-6
-1.136, 7.384e-6
-1.137, 7.200e-6
-1.138, 7.237e-6
-1.139, 7.283e-6
-1.140, 7.506e-6
-1.141, 7.524e-6
-1.142, 7.352e-6
-1.143, 7.358e-6
-1.144, 7.386e-6
-1.145, 7.571e-6
-1.146, 7.652e-6
-1.147, 7.494e-6
-1.148, 7.446e-6
-1.149, 7.542e-6
-1.150, 7.668e-6
-1.151, 7.757e-6
-1.152, 7.601e-6
-1.153, 7.553e-6
-1.154, 7.670e-6
-1.155, 7.783e-6
-1.156, 7.833e-6
-1.157, 7.720e-6
-1.158, 7.652e-6
-1.159, 7.811e-6
-1.160, 7.907e-6
-1.161, 7.939e-6
-1.162, 7.841e-6
-1.163, 7.723e-6
-1.164, 7.882e-6
-1.165, 8.039e-6
-1.166, 8.061e-6
-1.167, 7.957e-6
-1.168, 7.863e-6
-1.169, 7.998e-6
-1.170, 8.133e-6
-1.171, 8.148e-6
-1.172, 8.072e-6
-1.173, 8.005e-6
-1.174, 8.053e-6
-1.175, 8.268e-6
-1.176, 8.232e-6
-1.177, 8.182e-6
-1.178, 8.155e-6
-1.179, 8.241e-6
-1.180, 8.330e-6
-1.181, 8.382e-6
-1.182, 8.243e-6
-1.183, 8.226e-6
-1.184, 8.365e-6
-1.185, 8.457e-6
-1.186, 8.486e-6
-1.187, 8.380e-6
-1.188, 8.334e-6
-1.189, 8.447e-6
-1.190, 8.552e-6
-1.191, 8.656e-6
-1.192, 8.464e-6
-1.193, 8.438e-6
-1.194, 8.617e-6
-1.195, 8.657e-6
-1.196, 8.701e-6
-1.197, 8.632e-6
-1.198, 8.560e-6
-1.199, 8.714e-6
-1.200, 8.818e-6
-1.201, 8.828e-6
-1.202, 8.713e-6
-1.203, 8.665e-6
-1.204, 8.808e-6
-1.205, 8.994e-6
-1.206, 8.977e-6
-1.207, 8.870e-6
-1.208, 8.786e-6
-1.209, 8.927e-6
-1.210, 9.159e-6
-1.211, 9.077e-6
-1.212, 8.994e-6
-1.213, 8.955e-6
-1.214, 9.100e-6
-1.215, 9.241e-6
-1.216, 9.208e-6
-1.217, 9.102e-6
-1.218, 9.164e-6
-1.219, 9.234e-6
-1.220, 9.382e-6
-1.221, 9.384e-6
-1.222, 9.240e-6
-1.223, 9.297e-6
-1.224, 9.362e-6
-1.225, 9.492e-6
-1.226, 9.578e-6
-1.227, 9.424e-6
-1.228, 9.502e-6
-1.229, 9.559e-6
-1.230, 9.668e-6
-1.231, 9.726e-6
-1.232, 9.624e-6
-1.233, 9.605e-6
-1.234, 9.733e-6
-1.235, 9.820e-6
-1.236, 9.872e-6
-1.237, 9.767e-6
-1.238, 9.742e-6
-1.239, 9.905e-6
-1.240, 1.005e-5
-1.241, 1.005e-5
-1.242, 9.981e-6
-1.243, 9.947e-6
-1.244, 1.006e-5
-1.245, 1.024e-5
-1.246, 1.021e-5
-1.247, 1.019e-5
-1.248, 1.016e-5
-1.249, 1.025e-5
-1.250, 1.045e-5
-1.251, 1.042e-5
-1.252, 1.035e-5
-1.253, 1.037e-5
-1.254, 1.042e-5
-1.255, 1.068e-5
-1.256, 1.064e-5
-1.257, 1.055e-5
-1.258, 1.056e-5
-1.259, 1.066e-5
-1.260, 1.089e-5
-1.261, 1.087e-5
-1.262, 1.076e-5
-1.263, 1.079e-5
-1.264, 1.090e-5
-1.265, 1.107e-5
-1.266, 1.113e-5
-1.267, 1.096e-5
-1.268, 1.101e-5
-1.269, 1.121e-5
-1.270, 1.134e-5
-1.271, 1.137e-5
-1.272, 1.125e-5
-1.273, 1.127e-5
-1.274, 1.146e-5
-1.275, 1.160e-5
-1.276, 1.157e-5
-1.277, 1.152e-5
-1.278, 1.150e-5
-1.279, 1.174e-5
-1.280, 1.191e-5
-1.281, 1.185e-5
-1.282, 1.183e-5
-1.283, 1.175e-5
-1.284, 1.197e-5
-1.285, 1.212e-5
-1.286, 1.213e-5
-1.287, 1.211e-5
-1.288, 1.206e-5
-1.289, 1.221e-5
-1.290, 1.249e-5
-1.291, 1.244e-5
-1.292, 1.237e-5
-1.293, 1.241e-5
-1.294, 1.260e-5
-1.295, 1.279e-5
-1.296, 1.280e-5
-1.297, 1.268e-5
-1.298, 1.279e-5
-1.299, 1.293e-5
-1.300, 1.308e-5
-1.301, 1.319e-5
-1.302, 1.304e-5
-1.303, 1.315e-5
-1.304, 1.331e-5
-1.305, 1.340e-5
-1.306, 1.349e-5
-1.307, 1.345e-5
-1.308, 1.350e-5
-1.309, 1.369e-5
-1.310, 1.385e-5
-1.311, 1.392e-5
-1.312, 1.385e-5
-1.313, 1.388e-5
-1.314, 1.413e-5
-1.315, 1.426e-5
-1.316, 1.429e-5
-1.317, 1.428e-5
-1.318, 1.430e-5
-1.319, 1.456e-5
-1.320, 1.470e-5
-1.321, 1.476e-5
-1.322, 1.481e-5
-1.323, 1.476e-5
-1.324, 1.497e-5
-1.325, 1.525e-5
-1.326, 1.525e-5
-1.327, 1.525e-5
-1.328, 1.528e-5
-1.329, 1.550e-5
-1.330, 1.579e-5
-1.331, 1.578e-5
-1.332, 1.579e-5
-1.333, 1.586e-5
-1.334, 1.607e-5
-1.335, 1.636e-5
-1.336, 1.638e-5
-1.337, 1.636e-5
-1.338, 1.647e-5
-1.339, 1.669e-5
-1.340, 1.696e-5
-1.341, 1.703e-5
-1.342, 1.697e-5
-1.343, 1.712e-5
-1.344, 1.737e-5
-1.345, 1.759e-5
-1.346, 1.770e-5
-1.347, 1.767e-5
-1.348, 1.786e-5
-1.349, 1.804e-5
-1.350, 1.833e-5
-1.351, 1.848e-5
-1.352, 1.841e-5
-1.353, 1.860e-5
-1.354, 1.894e-5
-1.355, 1.914e-5
-1.356, 1.921e-5
-1.357, 1.929e-5
-1.358, 1.945e-5
-1.359, 1.977e-5
-1.360, 2.002e-5
-1.361, 2.010e-5
-1.362, 2.027e-5
-1.363, 2.034e-5
-1.364, 2.067e-5
-1.365, 2.094e-5
-1.366, 2.112e-5
-1.367, 2.123e-5
-1.368, 2.138e-5
-1.369, 2.169e-5
-1.370, 2.205e-5
-1.371, 2.217e-5
-1.372, 2.228e-5
-1.373, 2.249e-5
-1.374, 2.279e-5
-1.375, 2.322e-5
-1.376, 2.335e-5
-1.377, 2.346e-5
-1.378, 2.375e-5
-1.379, 2.402e-5
-1.380, 2.444e-5
-1.381, 2.476e-5
-1.382, 2.478e-5
-1.383, 2.505e-5
-1.384, 2.538e-5
-1.385, 2.583e-5
-1.386, 2.607e-5
-1.387, 2.620e-5
-1.388, 2.648e-5
-1.389, 2.695e-5
-1.390, 2.729e-5
-1.391, 2.762e-5
-1.392, 2.776e-5
-1.393, 2.809e-5
-1.394, 2.855e-5
-1.395, 2.898e-5
-1.396, 2.926e-5
-1.397, 2.954e-5
-1.398, 2.982e-5
-1.399, 3.033e-5
-1.400, 3.077e-5
-1.401, 3.112e-5
-1.402, 3.140e-5
-1.403, 3.173e-5
-1.404, 3.225e-5
-1.405, 3.278e-5
-1.406, 3.308e-5
-1.407, 3.344e-5
-1.408, 3.375e-5
-1.409, 3.438e-5
-1.410, 3.492e-5
-1.411, 3.537e-5
-1.412, 3.566e-5
-1.413, 3.612e-5
-1.414, 3.668e-5
-1.415, 3.729e-5
-1.416, 3.771e-5
-1.417, 3.808e-5
-1.418, 3.865e-5
-1.419, 3.921e-5
-1.420, 3.989e-5
-1.421, 4.038e-5
-1.422, 4.098e-5
-1.423, 4.140e-5
-1.424, 4.204e-5
-1.425, 4.275e-5
-1.426, 4.327e-5
-1.427, 4.376e-5
-1.428, 4.432e-5
-1.429, 4.509e-5
-1.430, 4.583e-5
-1.431, 4.644e-5
-1.432, 4.694e-5
-1.433, 4.761e-5
-1.434, 4.846e-5
-1.435, 4.919e-5
-1.436, 4.986e-5
-1.437, 5.044e-5
-1.438, 5.117e-5
-1.439, 5.206e-5
-1.440, 5.293e-5
-1.441, 5.365e-5
-1.442, 5.432e-5
-1.443, 5.506e-5
-1.444, 5.603e-5
-1.445, 5.691e-5
-1.446, 5.769e-5
-1.447, 5.848e-5
-1.448, 5.927e-5
-1.449, 6.028e-5
-1.450, 6.130e-5
-1.451, 6.216e-5
-1.452, 6.294e-5
-1.453, 6.395e-5
-1.454, 6.496e-5
-1.455, 6.614e-5
-1.456, 6.704e-5
-1.457, 6.790e-5
-1.458, 6.906e-5
-1.459, 7.015e-5
-1.460, 7.135e-5
-1.461, 7.237e-5
-1.462, 7.337e-5
-1.463, 7.454e-5
-1.464, 7.580e-5
-1.465, 7.706e-5
-1.466, 7.826e-5
-1.467, 7.927e-5
-1.468, 8.056e-5
-1.469, 8.194e-5
-1.470, 8.330e-5
-1.471, 8.458e-5
-1.472, 8.577e-5
-1.473, 8.713e-5
-1.474, 8.871e-5
-1.475, 9.013e-5
-1.476, 9.150e-5
-1.477, 9.284e-5
-1.478, 9.430e-5
-1.479, 9.599e-5
-1.480, 9.758e-5
-1.481, 9.900e-5
-1.482, 1.005e-4
-1.483, 1.021e-4
-1.484, 1.039e-4
-1.485, 1.056e-4
-1.486, 1.074e-4
-1.487, 1.089e-4
-1.488, 1.106e-4
-1.489, 1.125e-4
-1.490, 1.144e-4
-1.491, 1.162e-4
-1.492, 1.179e-4
-1.493, 1.198e-4
-1.494, 1.219e-4
-1.495, 1.239e-4
-1.496, 1.258e-4
-1.497, 1.277e-4
-1.498, 1.298e-4
-1.499, 1.320e-4
-1.500, 1.342e-4
-1.501, 1.363e-4
-1.502, 1.382e-4
-1.503, 1.404e-4
-1.504, 1.427e-4
-1.505, 1.451e-4
-1.506, 1.474e-4
-1.507, 1.496e-4
-1.508, 1.520e-4
-1.509, 1.547e-4
-1.510, 1.573e-4
-1.511, 1.598e-4
-1.512, 1.622e-4
-1.513, 1.648e-4
-1.514, 1.675e-4
-1.515, 1.702e-4
-1.516, 1.729e-4
-1.517, 1.756e-4
-1.518, 1.784e-4
-1.519, 1.814e-4
-1.520, 1.845e-4
-1.521, 1.874e-4
-1.522, 1.902e-4
-1.523, 1.931e-4
-1.524, 1.963e-4
-1.525, 1.995e-4
-1.526, 2.027e-4
-1.527, 2.058e-4
-1.528, 2.090e-4
-1.529, 2.125e-4
-1.530, 2.160e-4
-1.531, 2.193e-4
-1.532, 2.226e-4
-1.533, 2.260e-4
-1.534, 2.297e-4
-1.535, 2.334e-4
-1.536, 2.369e-4
-1.537, 2.407e-4
-1.538, 2.444e-4
-1.539, 2.484e-4
-1.540, 2.523e-4
-1.541, 2.561e-4
-1.542, 2.600e-4
-1.543, 2.641e-4
-1.544, 2.682e-4
-1.545, 2.724e-4
-1.546, 2.767e-4
-1.547, 2.808e-4
-1.548, 2.849e-4
-1.549, 2.894e-4
-1.550, 2.940e-4
-1.551, 2.985e-4
-1.552, 3.029e-4
-1.553, 3.077e-4
-1.554, 3.126e-4
-1.555, 3.173e-4
-1.556, 3.222e-4
-1.557, 3.270e-4
-1.558, 3.320e-4
-1.559, 3.372e-4
-1.560, 3.424e-4
-1.561, 3.476e-4
-1.562, 3.529e-4
-1.563, 3.581e-4
-1.564, 3.634e-4
-1.565, 3.688e-4
-1.566, 3.743e-4
-1.567, 3.798e-4
-1.568, 3.856e-4
-1.569, 3.918e-4
-1.570, 3.980e-4
-1.571, 4.040e-4
-1.572, 4.101e-4
-1.573, 4.162e-4
-1.574, 4.224e-4
-1.575, 4.289e-4
-1.576, 4.352e-4
-1.577, 4.420e-4
-1.578, 4.489e-4
-1.579, 4.558e-4
-1.580, 4.631e-4
-1.581, 4.692e-4
-1.582, 4.753e-4
-1.583, 4.829e-4
-1.584, 4.908e-4
-1.585, 4.987e-4
-1.586, 5.092e-4
-1.587, 5.163e-4
-1.588, 5.239e-4
-1.589, 5.320e-4
-1.590, 5.405e-4
-1.591, 5.489e-4
-1.592, 5.573e-4
-1.593, 5.660e-4
-1.594, 5.753e-4
-1.595, 5.846e-4
-1.596, 5.939e-4
-1.597, 6.031e-4
-1.598, 6.124e-4
-1.599, 6.221e-4
-1.600, 6.187e-4
-1.599, 6.068e-4
-1.598, 5.945e-4
-1.597, 5.811e-4
-1.596, 5.693e-4
-1.595, 5.581e-4
-1.594, 5.466e-4
-1.593, 5.351e-4
-1.592, 5.244e-4
-1.591, 5.136e-4
-1.590, 5.033e-4
-1.589, 4.927e-4
-1.588, 4.820e-4
-1.587, 4.724e-4
-1.586, 4.628e-4
-1.585, 4.538e-4
-1.584, 4.442e-4
-1.583, 4.350e-4
-1.582, 4.259e-4
-1.581, 4.174e-4
-1.580, 4.089e-4
-1.579, 4.005e-4
-1.578, 3.922e-4
-1.577, 3.841e-4
-1.576, 3.765e-4
-1.575, 3.688e-4
-1.574, 3.611e-4
-1.573, 3.536e-4
-1.572, 3.464e-4
-1.571, 3.395e-4
-1.570, 3.384e-4
-1.569, 3.277e-4
-1.568, 3.210e-4
-1.567, 3.143e-4
-1.566, 3.080e-4
-1.565, 3.020e-4
-1.564, 2.956e-4
-1.563, 2.894e-4
-1.562, 2.835e-4
-1.561, 2.777e-4
-1.560, 2.723e-4
-1.559, 2.666e-4
-1.558, 2.612e-4
-1.557, 2.560e-4
-1.556, 2.509e-4
-1.555, 2.458e-4
-1.554, 2.409e-4
-1.553, 2.359e-4
-1.552, 2.310e-4
-1.551, 2.264e-4
-1.550, 2.218e-4
-1.549, 2.178e-4
-1.548, 2.131e-4
-1.547, 2.088e-4
-1.546, 2.048e-4
-1.545, 2.007e-4
-1.544, 1.967e-4
-1.543, 1.925e-4
-1.542, 1.887e-4
-1.541, 1.852e-4
-1.540, 1.816e-4
-1.539, 1.779e-4
-1.538, 1.743e-4
-1.537, 1.708e-4
-1.536, 1.676e-4
-1.535, 1.643e-4
-1.534, 1.610e-4
-1.533, 1.584e-4
-1.532, 1.549e-4
-1.531, 1.519e-4
-1.530, 1.490e-4
-1.529, 1.459e-4
-1.528, 1.429e-4
-1.527, 1.401e-4
-1.526, 1.374e-4
-1.525, 1.348e-4
-1.524, 1.321e-4
-1.523, 1.294e-4
-1.522, 1.269e-4
-1.521, 1.245e-4
-1.520, 1.221e-4
-1.519, 1.192e-4
-1.518, 1.167e-4
-1.517, 1.144e-4
-1.516, 1.133e-4
-1.515, 1.105e-4
-1.514, 1.082e-4
-1.513, 1.059e-4
-1.512, 1.040e-4
-1.511, 1.019e-4
-1.510, 9.992e-5
-1.509, 9.796e-5
-1.508, 9.586e-5
-1.507, 9.397e-5
-1.506, 9.228e-5
-1.505, 9.050e-5
-1.504, 8.871e-5
-1.503, 8.677e-5
-1.502, 8.506e-5
-1.501, 8.355e-5
-1.500, 8.206e-5
-1.499, 8.034e-5
-1.498, 7.862e-5
-1.497, 7.703e-5
-1.496, 7.564e-5
-1.495, 7.422e-5
-1.494, 7.264e-5
-1.493, 7.115e-5
-1.492, 6.973e-5
-1.491, 6.845e-5
-1.490, 6.720e-5
-1.489, 6.578e-5
-1.488, 6.438e-5
-1.487, 6.319e-5
-1.486, 6.203e-5
-1.485, 6.086e-5
-1.484, 5.964e-5
-1.483, 5.827e-5
-1.482, 5.721e-5
-1.481, 5.616e-5
-1.480, 5.527e-5
-1.479, 5.409e-5
-1.478, 5.288e-5
-1.477, 5.190e-5
-1.476, 5.100e-5
-1.475, 5.008e-5
-1.474, 4.907e-5
-1.473, 4.795e-5
-1.472, 4.701e-5
-1.471, 4.628e-5
-1.470, 4.539e-5
-1.469, 4.452e-5
-1.468, 4.353e-5
-1.467, 4.264e-5
-1.466, 4.195e-5
-1.465, 4.123e-5
-1.464, 4.033e-5
-1.463, 3.949e-5
-1.462, 3.870e-5
-1.461, 3.808e-5
-1.460, 3.740e-5
-1.459, 3.661e-5
-1.458, 3.590e-5
-1.457, 3.514e-5
-1.456, 3.461e-5
-1.455, 3.399e-5
-1.454, 3.326e-5
-1.453, 3.252e-5
-1.452, 3.191e-5
-1.451, 3.135e-5
-1.450, 3.090e-5
-1.449, 3.016e-5
-1.448, 2.951e-5
-1.447, 2.891e-5
-1.446, 2.848e-5
-1.445, 2.801e-5
-1.444, 2.737e-5
-1.443, 2.670e-5
-1.442, 2.625e-5
-1.441, 2.585e-5
-1.440, 2.550e-5
-1.439, 2.491e-5
-1.438, 2.423e-5
-1.437, 2.385e-5
-1.436, 2.353e-5
-1.435, 2.314e-5
-1.434, 2.263e-5
-1.433, 2.206e-5
-1.432, 2.165e-5
-1.431, 2.140e-5
-1.430, 2.095e-5
-1.429, 2.054e-5
-1.428, 2.000e-5
-1.427, 1.959e-5
-1.426, 1.936e-5
-1.425, 1.903e-5
-1.424, 1.857e-5
-1.423, 1.812e-5
-1.422, 1.771e-5
-1.421, 1.749e-5
-1.420, 1.725e-5
-1.419, 1.678e-5
-1.418, 1.639e-5
-1.417, 1.600e-5
-1.416, 1.585e-5
-1.415, 1.559e-5
-1.414, 1.517e-5
-1.413, 1.481e-5
-1.412, 1.455e-5
-1.411, 1.429e-5
-1.410, 1.411e-5
-1.409, 1.371e-5
-1.408, 1.334e-5
-1.407, 1.305e-5
-1.406, 1.290e-5
-1.405, 1.271e-5
-1.404, 1.240e-5
-1.403, 1.201e-5
-1.402, 1.175e-5
-1.401, 1.163e-5
-1.400, 1.148e-5
-1.399, 1.118e-5
-1.398, 1.079e-5
-1.397, 1.057e-5
-1.396, 1.049e-5
-1.395, 1.030e-5
-1.394, 1.001e-5
-1.393, 9.643e-6
-1.392, 9.504e-6
-1.391, 9.404e-6
-1.390, 9.216e-6
-1.389, 9.005e-6
-1.388, 8.673e-6
-1.387, 8.459e-6
-1.386, 8.407e-6
-1.385, 8.250e-6
-1.384, 8.045e-6
-1.383, 7.686e-6
-1.382, 7.517e-6
-1.381, 7.485e-6
-1.380, 7.412e-6
-1.379, 7.115e-6
-1.378, 6.846e-6
-1.377, 6.673e-6
-1.376, 6.682e-6
-1.375, 6.596e-6
-1.374, 6.290e-6
-1.373, 6.055e-6
-1.372, 5.912e-6
-1.371, 5.899e-6
-1.370, 5.831e-6
-1.369, 5.596e-6
-1.368, 5.303e-6
-1.367, 5.186e-6
-1.366, 5.147e-6
-1.365, 5.125e-6
-1.364, 4.906e-6
-1.363, 4.614e-6
-1.362, 4.512e-6
-1.361, 4.490e-6
-1.360, 4.507e-6
-1.359, 4.278e-6
-1.358, 3.943e-6
-1.357, 3.897e-6
-1.356, 3.923e-6
-1.355, 3.839e-6
-1.354, 3.653e-6
-1.353, 3.395e-6
-1.352, 3.347e-6
-1.351, 3.320e-6
-1.350, 3.272e-6
-1.349, 3.141e-6
-1.348, 2.872e-6
-1.347, 2.785e-6
-1.346, 2.829e-6
-1.345, 2.715e-6
-1.344, 2.595e-6
-1.343, 2.354e-6
-1.342, 2.261e-6
-1.341, 2.313e-6
-1.340, 2.352e-6
-1.339, 2.045e-6
-1.338, 1.879e-6
-1.337, 1.776e-6
-1.336, 1.822e-6
-1.335, 1.839e-6
-1.334, 1.635e-6
-1.333, 1.444e-6
-1.332, 1.388e-6
-1.331, 1.384e-6
-1.330, 1.407e-6
-1.329, 1.180e-6
-1.328, 1.001e-6
-1.327, 9.696e-7
-1.326, 9.341e-7
-1.325, 1.012e-6
-1.324, 7.960e-7
-1.323, 5.671e-7
-1.322, 5.849e-7
-1.321, 5.858e-7
-1.320, 6.016e-7
-1.319, 4.379e-7
-1.318, 1.794e-7
-1.317, 1.863e-7
-1.316, 2.247e-7
-1.315, 2.070e-7
-1.314, 5.604e-8
-1.313, -1.689e-7
-1.312, -1.837e-7
-1.311, -1.048e-7
-1.310, -1.689e-7
-1.309, -2.814e-7
-1.308, -4.600e-7
-1.307, -5.675e-7
-1.306, -4.925e-7
-1.305, -4.925e-7
-1.304, -6.346e-7
-1.303, -8.112e-7
-1.302, -8.901e-7
-1.301, -8.210e-7
-1.300, -7.845e-7
-1.299, -9.513e-7
-1.298, -1.177e-6
-1.297, -1.173e-6
-1.296, -1.141e-6
-1.295, -1.055e-6
-1.294, -1.290e-6
-1.293, -1.430e-6
-1.292, -1.507e-6
-1.291, -1.467e-6
-1.290, -1.404e-6
-1.289, -1.586e-6
-1.288, -1.780e-6
-1.287, -1.783e-6
-1.286, -1.750e-6
-1.285, -1.720e-6
-1.284, -1.799e-6
-1.283, -2.114e-6
-1.282, -2.091e-6
-1.281, -2.080e-6
-1.280, -2.011e-6
-1.279, -2.196e-6
-1.278, -2.360e-6
-1.277, -2.389e-6
-1.276, -2.327e-6
-1.275, -2.340e-6
-1.274, -2.431e-6
-1.273, -2.622e-6
-1.272, -2.674e-6
-1.271, -2.608e-6
-1.270, -2.602e-6
-1.269, -2.679e-6
-1.268, -2.940e-6
-1.267, -2.970e-6
-1.266, -2.922e-6
-1.265, -2.886e-6
-1.264, -3.039e-6
-1.263, -3.181e-6
-1.262, -3.244e-6
-1.261, -3.164e-6
-1.260, -3.140e-6
-1.259, -3.309e-6
-1.258, -3.506e-6
-1.257, -3.489e-6
-1.256, -3.460e-6
-1.255, -3.436e-6
-1.254, -3.620e-6
-1.253, -3.740e-6
-1.252, -3.775e-6
-1.251, -3.758e-6
-1.250, -3.682e-6
-1.249, -3.856e-6
-1.248, -4.007e-6
-1.247, -4.035e-6
-1.246, -4.048e-6
-1.245, -3.957e-6
-1.244, -4.122e-6
-1.243, -4.352e-6
-1.242, -4.343e-6
-1.241, -4.306e-6
-1.240, -4.252e-6
-1.239, -4.386e-6
-1.238, -4.615e-6
-1.237, -4.573e-6
-1.236, -4.542e-6
-1.235, -4.515e-6
-1.234, -4.694e-6
-1.233, -4.868e-6
-1.232, -4.862e-6
-1.231, -4.762e-6
-1.230, -4.817e-6
-1.229, -5.050e-6
-1.228, -5.159e-6
-1.227, -5.218e-6
-1.226, -5.091e-6
-1.225, -5.105e-6
-1.224, -5.238e-6
-1.223, -5.410e-6
-1.222, -5.493e-6
-1.221, -5.404e-6
-1.220, -5.352e-6
-1.219, -5.604e-6
-1.218, -5.702e-6
-1.217, -5.770e-6
-1.216, -5.714e-6
-1.215, -5.618e-6
-1.214, -5.856e-6
-1.213, -6.022e-6
-1.212, -6.037e-6
-1.211, -5.953e-6
-1.210, -5.980e-6
-1.209, -6.123e-6
-1.208, -6.316e-6
-1.207, -6.305e-6
-1.206, -6.307e-6
-1.205, -6.234e-6
-1.204, -6.382e-6
-1.203, -6.635e-6
-1.202, -6.625e-6
-1.201, -6.585e-6
-1.200, -6.543e-6
-1.199, -6.680e-6
-1.198, -6.927e-6
-1.197, -6.932e-6
-1.196, -6.895e-6
-1.195, -6.924e-6
-1.194, -7.009e-6
-1.193, -7.289e-6
-1.192, -7.260e-6
-1.191, -7.182e-6
-1.190, -7.201e-6
-1.189, -7.338e-6
-1.188, -7.559e-6
-1.187, -7.568e-6
-1.186, -7.518e-6
-1.185, -7.559e-6
-1.184, -7.630e-6
-1.183, -7.864e-6
-1.182, -7.918e-6
-1.181, -7.852e-6
-1.180, -7.806e-6
-1.179, -8.022e-6
-1.178, -8.246e-6
-1.177, -8.272e-6
-1.176, -8.216e-6
-1.175, -8.164e-6
-1.174, -8.397e-6
-1.173, -8.526e-6
-1.172, -8.585e-6
-1.171, -8.586e-6
-1.170, -8.541e-6
-1.169, -8.733e-6
-1.168, -8.940e-6
-1.167, -8.955e-6
-1.166, -8.953e-6
-1.165, -8.891e-6
-1.164, -9.048e-6
-1.163, -9.293e-6
-1.162, -9.356e-6
-1.161, -9.294e-6
-1.160, -9.264e-6
-1.159, -9.451e-6
-1.158, -9.684e-6
-1.157, -9.671e-6
-1.156, -9.682e-6
-1.155, -9.661e-6
-1.154, -9.815e-6
-1.153, -1.003e-5
-1.152, -1.007e-5
-1.151, -1.008e-5
-1.150, -1.010e-5
-1.149, -1.022e-5
-1.148, -1.045e-5
-1.147, -1.050e-5
-1.146, -1.048e-5
-1.145, -1.049e-5
-1.144, -1.063e-5
-1.143, -1.088e-5
-1.142, -1.092e-5
-1.141, -1.088e-5
-1.140, -1.089e-5
-1.139, -1.112e-5
-1.138, -1.127e-5
-1.137, -1.137e-5
-1.136, -1.132e-5
-1.135, -1.131e-5
-1.134, -1.154e-5
-1.133, -1.173e-5
-1.132, -1.182e-5
-1.131, -1.182e-5
-1.130, -1.174e-5
-1.129, -1.204e-5
-1.128, -1.218e-5
-1.127, -1.224e-5
-1.126, -1.226e-5
-1.125, -1.224e-5
-1.124, -1.246e-5
-1.123, -1.271e-5
-1.122, -1.275e-5
-1.121, -1.275e-5
-1.120, -1.272e-5
-1.119, -1.295e-5
-1.118, -1.323e-5
-1.117, -1.325e-5
-1.116, -1.322e-5
-1.115, -1.327e-5
-1.114, -1.349e-5
-1.113, -1.374e-5
-1.112, -1.377e-5
-1.111, -1.379e-5
-1.110, -1.381e-5
-1.109, -1.396e-5
-1.108, -1.424e-5
-1.107, -1.434e-5
-1.106, -1.432e-5
-1.105, -1.437e-5
-1.104, -1.454e-5
-1.103, -1.481e-5
-1.102, -1.491e-5
-1.101, -1.489e-5
-1.100, -1.496e-5
-1.099, -1.517e-5
-1.098, -1.540e-5
-1.097, -1.551e-5
-1.096, -1.553e-5
-1.095, -1.550e-5
-1.094, -1.580e-5
-1.093, -1.603e-5
-1.092, -1.610e-5
-1.091, -1.619e-5
-1.090, -1.614e-5
-1.089, -1.641e-5
-1.088, -1.668e-5
-1.087, -1.674e-5
-1.086, -1.679e-5
-1.085, -1.682e-5
-1.084, -1.706e-5
-1.083, -1.739e-5
-1.082, -1.742e-5
-1.081, -1.751e-5
-1.080, -1.748e-5
-1.079, -1.775e-5
-1.078, -1.808e-5
-1.077, -1.812e-5
-1.076, -1.821e-5
-1.075, -1.826e-5
-1.074, -1.847e-5
-1.073, -1.877e-5
-1.072, -1.888e-5
-1.071, -1.889e-5
-1.070, -1.901e-5
-1.069, -1.921e-5
-1.068, -1.948e-5
-1.067, -1.969e-5
-1.066, -1.968e-5
-1.065, -1.976e-5
-1.064, -2.000e-5
-1.063, -2.029e-5
-1.062, -2.045e-5
-1.061, -2.047e-5
-1.060, -2.054e-5
-1.059, -2.079e-5
-1.058, -2.111e-5
-1.057, -2.128e-5
-1.056, -2.131e-5
-1.055, -2.132e-5
-1.054, -2.165e-5
-1.053, -2.194e-5
-1.052, -2.203e-5
-1.051, -2.211e-5
-1.050, -2.215e-5
-1.049, -2.247e-5
-1.048, -2.277e-5
-1.047, -2.289e-5
-1.046, -2.299e-5
-1.045, -2.307e-5
-1.044, -2.332e-5
-1.043, -2.370e-5
-1.042, -2.374e-5
-1.041, -2.390e-5
-1.040, -2.395e-5
-1.039, -2.421e-5
-1.038, -2.457e-5
-1.037, -2.469e-5
-1.036, -2.477e-5
-1.035, -2.487e-5
-1.034, -2.515e-5
-1.033, -2.549e-5
-1.032, -2.562e-5
-1.031, -2.572e-5
-1.030, -2.584e-5
-1.029, -2.607e-5
-1.028, -2.642e-5
-1.027, -2.659e-5
-1.026, -2.670e-5
-1.025, -2.675e-5
-1.024, -2.714e-5
-1.023, -2.747e-5
-1.022, -2.768e-5
-1.021, -2.771e-5
-1.020, -2.784e-5
-1.019, -2.820e-5
-1.018, -2.852e-5
-1.017, -2.878e-5
-1.016, -2.878e-5
-1.015, -2.895e-5
-1.014, -2.929e-5
-1.013, -2.962e-5
-1.012, -2.982e-5
-1.011, -3.002e-5
-1.010, -3.015e-5
-1.009, -3.048e-5
-1.008, -3.084e-5
-1.007, -3.107e-5
-1.006, -3.122e-5
-1.005, -3.137e-5
-1.004, -3.172e-5
-1.003, -3.218e-5
-1.002, -3.238e-5
-1.001, -3.256e-5
-1.000, -2.475e-5
-1.001, -2.125e-5
-1.002, -1.930e-5
-1.003, -1.760e-5
-1.004, -1.594e-5
-1.005, -1.447e-5
-1.006, -1.340e-5
-1.007, -1.241e-5
-1.008, -1.144e-5
-1.009, -1.037e-5
-1.010, -9.378e-6
-1.011, -8.755e-6
-1.012, -8.138e-6
-1.013, -7.373e-6
-1.014, -6.623e-6
-1.015, -5.917e-6
-1.016, -5.498e-6
-1.017, -5.076e-6
-1.018, -4.496e-6
-1.019, -3.984e-6
-1.020, -3.405e-6
-1.021, -3.077e-6
-1.022, -2.841e-6
-1.023, -2.410e-6
-1.024, -1.921e-6
-1.025, -1.495e-6
-1.026, -1.263e-6
-1.027, -1.121e-6
-1.028, -7.648e-7
-1.029, -3.495e-7
-1.030, -1.105e-8
-1.031, 1.586e-7
-1.032, 1.863e-7
-1.033, 4.931e-7
-1.034, 8.562e-7
-1.035, 1.150e-6
-1.036, 1.236e-6
-1.037, 1.314e-6
-1.038, 1.546e-6
-1.039, 1.854e-6
-1.040, 2.115e-6
-1.041, 2.108e-6
-1.042, 2.181e-6
-1.043, 2.341e-6
-1.044, 2.673e-6
-1.045, 2.855e-6
-1.046, 2.880e-6
-1.047, 2.938e-6
-1.048, 3.037e-6
-1.049, 3.271e-6
-1.050, 3.531e-6
-1.051, 3.454e-6
-1.052, 3.480e-6
-1.053, 3.650e-6
-1.054, 3.859e-6
-1.055, 4.098e-6
-1.056, 3.976e-6
-1.057, 3.984e-6
-1.058, 4.175e-6
-1.059, 4.315e-6
-1.060, 4.505e-6
-1.061, 4.447e-6
-1.062, 4.439e-6
-1.063, 4.547e-6
-1.064, 4.695e-6
-1.065, 4.840e-6
-1.066, 4.848e-6
-1.067, 4.756e-6
-1.068, 4.879e-6
-1.069, 5.117e-6
-1.070, 5.188e-6
-1.071, 5.189e-6
-1.072, 5.058e-6
-1.073, 5.187e-6
-1.074, 5.390e-6
-1.075, 5.533e-6
-1.076, 5.427e-6
-1.077, 5.388e-6
-1.078, 5.445e-6
-1.079, 5.652e-6
-1.080, 5.757e-6
-1.081, 5.696e-6
-1.082, 5.638e-6
-1.083, 5.671e-6
-1.084, 5.902e-6
-1.085, 5.998e-6
-1.086, 5.876e-6
-1.087, 5.880e-6
-1.088, 5.894e-6
-1.089, 6.076e-6
-1.090, 6.210e-6
-1.091, 6.114e-6
-1.092, 6.001e-6
-1.093, 6.122e-6
-1.094, 6.246e-6
-1.095, 6.403e-6
-1.096, 6.282e-6
-1.097, 6.207e-6
-1.098, 6.310e-6
-1.099, 6.425e-6
-1.100, 6.572e-6
-1.101, 6.451e-6
-1.102, 6.386e-6
-1.103, 6.460e-6
-1.104, 6.608e-6
-1.105, 6.720e-6
-1.106, 6.651e-6
-1.107, 6.536e-6
-1.108, 6.552e-6
-1.109, 6.776e-6
-1.110, 6.853e-6
-1.111, 6.808e-6
-1.112, 6.674e-6
-1.113, 6.764e-6
-1.114, 6.896e-6
-1.115, 7.005e-6
-1.116, 6.873e-6
-1.117, 6.842e-6
-1.118, 6.900e-6
-1.119, 7.039e-6
-1.120, 7.090e-6
-1.121, 7.012e-6
-1.122, 7.039e-6
-1.123, 6.941e-6
-1.124, 7.188e-6
-1.125, 7.268e-6
-1.126, 7.127e-6
-1.127, 7.096e-6
-1.128, 7.051e-6
-1.129, 7.267e-6
-1.130, 7.402e-6
-1.131, 7.280e-6
-1.132, 7.173e-6
-1.133, 7.267e-6
-1.134, 7.438e-6
-1.135, 7.524e-6
-1.136, 7.394e-6
-1.137, 7.270e-6
-1.138, 7.397e-6
-1.139, 7.507e-6
-1.140, 7.587e-6
-1.141, 7.529e-6
-1.142, 7.414e-6
-1.143, 7.518e-6
-1.144, 7.610e-6
-1.145, 7.744e-6
-1.146, 7.612e-6
-1.147, 7.494e-6
-1.148, 7.613e-6
-1.149, 7.760e-6
-1.150, 7.810e-6
-1.151, 7.723e-6
-1.152, 7.667e-6
-1.153, 7.672e-6
-1.154, 7.883e-6
-1.155, 7.892e-6
-1.156, 7.833e-6
-1.157, 7.732e-6
-1.158, 7.783e-6
-1.159, 7.990e-6
-1.160, 8.057e-6
-1.161, 7.891e-6
-1.162, 7.852e-6
-1.163, 7.884e-6
-1.164, 8.041e-6
-1.165, 8.191e-6
-1.166, 8.005e-6
-1.167, 7.974e-6
-1.168, 7.975e-6
-1.169, 8.119e-6
-1.170, 8.293e-6
-1.171, 8.094e-6
-1.172, 8.036e-6
-1.173, 8.126e-6
-1.174, 8.279e-6
-1.175, 8.364e-6
-1.176, 8.229e-6
-1.177, 8.141e-6
-1.178, 8.287e-6
-1.179, 8.347e-6
-1.180, 8.485e-6
-1.181, 8.331e-6
-1.182, 8.227e-6
-1.183, 8.359e-6
-1.184, 8.461e-6
-1.185, 8.574e-6
-1.186, 8.438e-6
-1.187, 8.375e-6
-1.188, 8.404e-6
-1.189, 8.611e-6
-1.190, 8.679e-6
-1.191, 8.602e-6
-1.192, 8.495e-6
-1.193, 8.527e-6
-1.194, 8.703e-6
-1.195, 8.785e-6
-1.196, 8.671e-6
-1.197, 8.568e-6
-1.198, 8.637e-6
-1.199, 8.908e-6
-1.200, 8.897e-6
-1.201, 8.807e-6
-1.202, 8.696e-6
-1.203, 8.796e-6
-1.204, 8.939e-6
-1.205, 9.045e-6
-1.206, 8.898e-6
-1.207, 8.855e-6
-1.208, 8.967e-6
-1.209, 9.019e-6
-1.210, 9.178e-6
-1.211, 9.006e-6
-1.212, 8.932e-6
-1.213, 9.072e-6
-1.214, 9.197e-6
-1.215, 9.304e-6
-1.216, 9.146e-6
-1.217, 9.077e-6
-1.218, 9.226e-6
-1.219, 9.336e-6
-1.220, 9.438e-6
-1.221, 9.285e-6
-1.222, 9.229e-6
-1.223, 9.401e-6
-1.224, 9.452e-6
-1.225, 9.534e-6
-1.226, 9.488e-6
-1.227, 9.362e-6
-1.228, 9.537e-6
-1.229, 9.678e-6
-1.230, 9.759e-6
-1.231, 9.624e-6
-1.232, 9.519e-6
-1.233, 9.622e-6
-1.234, 9.827e-6
-1.235, 9.867e-6
-1.236, 9.705e-6
-1.237, 9.726e-6
-1.238, 9.828e-6
-1.239, 9.964e-6
-1.240, 1.003e-5
-1.241, 9.901e-6
-1.242, 9.877e-6
-1.243, 9.926e-6
-1.244, 1.011e-5
-1.245, 1.023e-5
-1.246, 1.005e-5
-1.247, 1.007e-5
-1.248, 1.014e-5
-1.249, 1.027e-5
-1.250, 1.041e-5
-1.251, 1.025e-5
-1.252, 1.022e-5
-1.253, 1.028e-5
-1.254, 1.048e-5
-1.255, 1.064e-5
-1.256, 1.044e-5
-1.257, 1.039e-5
-1.258, 1.057e-5
-1.259, 1.062e-5
-1.260, 1.076e-5
-1.261, 1.067e-5
-1.262, 1.064e-5
-1.263, 1.072e-5
-1.264, 1.086e-5
-1.265, 1.097e-5
-1.266, 1.087e-5
-1.267, 1.079e-5
-1.268, 1.093e-5
-1.269, 1.113e-5
-1.270, 1.111e-5
-1.271, 1.106e-5
-1.272, 1.104e-5
-1.273, 1.112e-5
-1.274, 1.131e-5
-1.275, 1.139e-5
-1.276, 1.130e-5
-1.277, 1.126e-5
-1.278, 1.138e-5
-1.279, 1.155e-5
-1.280, 1.166e-5
-1.281, 1.152e-5
-1.282, 1.152e-5
-1.283, 1.159e-5
-1.284, 1.176e-5
-1.285, 1.190e-5
-1.286, 1.171e-5
-1.287, 1.177e-5
-1.288, 1.183e-5
-1.289, 1.201e-5
-1.290, 1.213e-5
-1.291, 1.199e-5
-1.292, 1.198e-5
-1.293, 1.213e-5
-1.294, 1.228e-5
-1.295, 1.241e-5
-1.296, 1.227e-5
-1.297, 1.223e-5
-1.298, 1.245e-5
-1.299, 1.256e-5
-1.300, 1.266e-5
-1.301, 1.257e-5
-1.302, 1.253e-5
-1.303, 1.273e-5
-1.304, 1.280e-5
-1.305, 1.295e-5
-1.306, 1.290e-5
-1.307, 1.287e-5
-1.308, 1.298e-5
-1.309, 1.320e-5
-1.310, 1.326e-5
-1.311, 1.320e-5
-1.312, 1.318e-5
-1.313, 1.330e-5
-1.314, 1.351e-5
-1.315, 1.360e-5
-1.316, 1.353e-5
-1.317, 1.351e-5
-1.318, 1.368e-5
-1.319, 1.386e-5
-1.320, 1.396e-5
-1.321, 1.385e-5
-1.322, 1.393e-5
-1.323, 1.402e-5
-1.324, 1.418e-5
-1.325, 1.435e-5
-1.326, 1.425e-5
-1.327, 1.431e-5
-1.328, 1.439e-5
-1.329, 1.458e-5
-1.330, 1.473e-5
-1.331, 1.467e-5
-1.332, 1.466e-5
-1.333, 1.483e-5
-1.334, 1.505e-5
-1.335, 1.515e-5
-1.336, 1.509e-5
-1.337, 1.510e-5
-1.338, 1.531e-5
-1.339, 1.548e-5
-1.340, 1.563e-5
-1.341, 1.557e-5
-1.342, 1.559e-5
-1.343, 1.576e-5
-1.344, 1.602e-5
-1.345, 1.606e-5
-1.346, 1.612e-5
-1.347, 1.613e-5
-1.348, 1.626e-5
-1.349, 1.655e-5
-1.350, 1.664e-5
-1.351, 1.666e-5
-1.352, 1.664e-5
-1.353, 1.684e-5
-1.354, 1.713e-5
-1.355, 1.724e-5
-1.356, 1.722e-5
-1.357, 1.727e-5
-1.358, 1.749e-5
-1.359, 1.775e-5
-1.360, 1.788e-5
-1.361, 1.784e-5
-1.362, 1.798e-5
-1.363, 1.818e-5
-1.364, 1.838e-5
-1.365, 1.853e-5
-1.366, 1.860e-5
-1.367, 1.863e-5
-1.368, 1.886e-5
-1.369, 1.917e-5
-1.370, 1.934e-5
-1.371, 1.927e-5
-1.372, 1.946e-5
-1.373, 1.969e-5
-1.374, 2.000e-5
-1.375, 2.016e-5
-1.376, 2.015e-5
-1.377, 2.029e-5
-1.378, 2.057e-5
-1.379, 2.087e-5
-1.380, 2.098e-5
-1.381, 2.108e-5
-1.382, 2.127e-5
-1.383, 2.150e-5
-1.384, 2.176e-5
-1.385, 2.198e-5
-1.386, 2.211e-5
-1.387, 2.223e-5
-1.388, 2.250e-5
-1.389, 2.285e-5
-1.390, 2.309e-5
-1.391, 2.319e-5
-1.392, 2.331e-5
-1.393, 2.364e-5
-1.394, 2.408e-5
-1.395, 2.420e-5
-1.396, 2.439e-5
-1.397, 2.455e-5
-1.398, 2.488e-5
-1.399, 2.534e-5
-1.400, 2.554e-5
-1.401, 2.571e-5
-1.402, 2.596e-5
-1.403, 2.623e-5
-1.404, 2.666e-5
-1.405, 2.696e-5
-1.406, 2.715e-5
-1.407, 2.740e-5
-1.408, 2.773e-5
-1.409, 2.817e-5
-1.410, 2.851e-5
-1.411, 2.866e-5
-1.412, 2.896e-5
-1.413, 2.941e-5
-1.414, 2.982e-5
-1.415, 3.020e-5
-1.416, 3.043e-5
-1.417, 3.071e-5
-1.418, 3.120e-5
-1.419, 3.168e-5
-1.420, 3.202e-5
-1.421, 3.230e-5
-1.422, 3.261e-5
-1.423, 3.317e-5
-1.424, 3.371e-5
-1.425, 3.405e-5
-1.426, 3.443e-5
-1.427, 3.478e-5
-1.428, 3.530e-5
-1.429, 3.592e-5
-1.430, 3.633e-5
-1.431, 3.672e-5
-1.432, 3.719e-5
-1.433, 3.767e-5
-1.434, 3.836e-5
-1.435, 3.879e-5
-1.436, 3.922e-5
-1.437, 3.969e-5
-1.438, 4.029e-5
-1.439, 4.102e-5
-1.440, 4.145e-5
-1.441, 4.197e-5
-1.442, 4.252e-5
-1.443, 4.314e-5
-1.444, 4.389e-5
-1.445, 4.449e-5
-1.446, 4.500e-5
-1.447, 4.559e-5
-1.448, 4.629e-5
-1.449, 4.706e-5
-1.450, 4.769e-5
-1.451, 4.826e-5
-1.452, 4.896e-5
-1.453, 4.978e-5
-1.454, 5.057e-5
-1.455, 5.131e-5
-1.456, 5.190e-5
-1.457, 5.266e-5
-1.458, 5.353e-5
-1.459, 5.447e-5
-1.460, 5.521e-5
-1.461, 5.596e-5
-1.462, 5.674e-5
-1.463, 5.769e-5
-1.464, 5.871e-5
-1.465, 5.953e-5
-1.466, 6.036e-5
-1.467, 6.125e-5
-1.468, 6.228e-5
-1.469, 6.337e-5
-1.470, 6.431e-5
-1.471, 6.524e-5
-1.472, 6.618e-5
-1.473, 6.729e-5
-1.474, 6.857e-5
-1.475, 6.956e-5
-1.476, 7.058e-5
-1.477, 7.167e-5
-1.478, 7.293e-5
-1.479, 7.422e-5
-1.480, 7.537e-5
-1.481, 7.645e-5
-1.482, 7.774e-5
-1.483, 7.901e-5
-1.484, 8.056e-5
-1.485, 8.177e-5
-1.486, 8.304e-5
-1.487, 8.443e-5
-1.488, 8.585e-5
-1.489, 8.742e-5
-1.490, 8.890e-5
-1.491, 9.025e-5
-1.492, 9.169e-5
-1.493, 9.333e-5
-1.494, 9.501e-5
-1.495, 9.666e-5
-1.496, 9.812e-5
-1.497, 9.974e-5
-1.498, 1.016e-4
-1.499, 1.034e-4
-1.500, 1.052e-4
-1.501, 1.069e-4
-1.502, 1.086e-4
-1.503, 1.106e-4
-1.504, 1.126e-4
-1.505, 1.145e-4
-1.506, 1.164e-4
-1.507, 1.184e-4
-1.508, 1.206e-4
-1.509, 1.228e-4
-1.510, 1.248e-4
-1.511, 1.270e-4
-1.512, 1.290e-4
-1.513, 1.315e-4
-1.514, 1.339e-4
-1.515, 1.362e-4
-1.516, 1.385e-4
-1.517, 1.409e-4
-1.518, 1.435e-4
-1.519, 1.462e-4
-1.520, 1.487e-4
-1.521, 1.512e-4
-1.522, 1.539e-4
-1.523, 1.567e-4
-1.524, 1.597e-4
-1.525, 1.625e-4
-1.526, 1.653e-4
-1.527, 1.682e-4
-1.528, 1.713e-4
-1.529, 1.744e-4
-1.530, 1.776e-4
-1.531, 1.805e-4
-1.532, 1.838e-4
-1.533, 1.872e-4
-1.534, 1.907e-4
-1.535, 1.940e-4
-1.536, 1.973e-4
-1.537, 2.006e-4
-1.538, 2.043e-4
-1.539, 2.079e-4
-1.540, 2.116e-4
-1.541, 2.151e-4
-1.542, 2.189e-4
-1.543, 2.229e-4
-1.544, 2.269e-4
-1.545, 2.309e-4
-1.546, 2.350e-4
-1.547, 2.390e-4
-1.548, 2.433e-4
-1.549, 2.476e-4
-1.550, 2.519e-4
-1.551, 2.561e-4
-1.552, 2.605e-4
-1.553, 2.651e-4
-1.554, 2.698e-4
-1.555, 2.744e-4
-1.556, 2.789e-4
-1.557, 2.836e-4
-1.558, 2.885e-4
-1.559, 2.936e-4
-1.560, 2.984e-4
-1.561, 3.034e-4
-1.562, 3.085e-4
-1.563, 3.140e-4
-1.564, 3.196e-4
-1.565, 3.251e-4
-1.566, 3.305e-4
-1.567, 3.362e-4
-1.568, 3.420e-4
-1.569, 3.476e-4
-1.570, 3.535e-4
-1.571, 3.592e-4
-1.572, 3.653e-4
-1.573, 3.715e-4
-1.574, 3.779e-4
-1.575, 3.842e-4
-1.576, 3.905e-4
-1.577, 3.969e-4
-1.578, 4.033e-4
-1.579, 4.102e-4
-1.580, 4.173e-4
-1.581, 4.239e-4
-1.582, 4.308e-4
-1.583, 4.380e-4
-1.584, 4.450e-4
-1.585, 4.521e-4
-1.586, 4.592e-4
-1.587, 4.666e-4
-1.588, 4.741e-4
-1.589, 4.816e-4
-1.590, 4.874e-4
-1.591, 4.965e-4
-1.592, 5.045e-4
-1.593, 5.138e-4
-1.594, 5.225e-4
-1.595, 5.310e-4
-1.596, 5.407e-4
-1.597, 5.489e-4
-1.598, 5.582e-4
-1.599, 5.682e-4
-1.600, 5.667e-4
-1.599, 5.547e-4
-1.598, 5.444e-4
-1.597, 5.336e-4
-1.596, 5.234e-4
-1.595, 5.130e-4
-1.594, 5.017e-4
-1.593, 4.920e-4
-1.592, 4.813e-4
-1.591, 4.721e-4
-1.590, 4.618e-4
-1.589, 4.514e-4
-1.588, 4.402e-4
-1.587, 4.324e-4
-1.586, 4.228e-4
-1.585, 4.135e-4
-1.584, 4.045e-4
-1.583, 3.961e-4
-1.582, 3.879e-4
-1.581, 3.800e-4
-1.580, 3.718e-4
-1.579, 3.638e-4
-1.578, 3.561e-4
-1.577, 3.487e-4
-1.576, 3.417e-4
-1.575, 3.344e-4
-1.574, 3.272e-4
-1.573, 3.203e-4
-1.572, 3.137e-4
-1.571, 3.071e-4
-1.570, 3.005e-4
-1.569, 2.941e-4
-1.568, 2.879e-4
-1.567, 2.820e-4
-1.566, 2.762e-4
-1.565, 2.696e-4
-1.564, 2.631e-4
-1.563, 2.576e-4
-1.562, 2.524e-4
-1.561, 2.471e-4
-1.560, 2.420e-4
-1.559, 2.368e-4
-1.558, 2.317e-4
-1.557, 2.272e-4
-1.556, 2.226e-4
-1.555, 2.179e-4
-1.554, 2.133e-4
-1.553, 2.089e-4
-1.552, 2.048e-4
-1.551, 2.007e-4
-1.550, 1.965e-4
-1.549, 1.923e-4
-1.548, 1.924e-4
-1.547, 1.858e-4
-1.546, 1.821e-4
-1.545, 1.783e-4
-1.544, 1.745e-4
-1.543, 1.709e-4
-1.542, 1.674e-4
-1.541, 1.641e-4
-1.540, 1.607e-4
-1.539, 1.573e-4
-1.538, 1.540e-4
-1.537, 1.510e-4
-1.536, 1.480e-4
-1.535, 1.449e-4
-1.534, 1.417e-4
-1.533, 1.389e-4
-1.532, 1.361e-4
-1.531, 1.334e-4
-1.530, 1.306e-4
-1.529, 1.277e-4
-1.528, 1.251e-4
-1.527, 1.226e-4
-1.526, 1.202e-4
-1.525, 1.177e-4
-1.524, 1.151e-4
-1.523, 1.127e-4
-1.522, 1.106e-4
-1.521, 1.083e-4
-1.520, 1.060e-4
-1.519, 1.037e-4
-1.518, 1.016e-4
-1.517, 9.962e-5
-1.516, 9.764e-5
-1.515, 9.551e-5
-1.514, 9.341e-5
-1.513, 9.152e-5
-1.512, 8.971e-5
-1.511, 8.797e-5
-1.510, 8.612e-5
-1.509, 8.428e-5
-1.508, 8.256e-5
-1.507, 8.091e-5
-1.506, 7.938e-5
-1.505, 7.764e-5
-1.504, 7.592e-5
-1.503, 7.443e-5
-1.502, 7.297e-5
-1.501, 7.167e-5
-1.500, 7.010e-5
-1.499, 6.847e-5
-1.498, 6.721e-5
-1.497, 6.591e-5
-1.496, 6.469e-5
-1.495, 6.325e-5
-1.494, 6.182e-5
-1.493, 6.064e-5
-1.492, 5.956e-5
-1.491, 5.838e-5
-1.490, 5.720e-5
-1.489, 5.579e-5
-1.488, 5.482e-5
-1.487, 5.391e-5
-1.486, 5.284e-5
-1.485, 5.164e-5
-1.484, 5.057e-5
-1.483, 4.954e-5
-1.482, 4.870e-5
-1.481, 4.780e-5
-1.480, 4.678e-5
-1.479, 4.573e-5
-1.478, 4.484e-5
-1.477, 4.410e-5
-1.476, 4.332e-5
-1.475, 4.235e-5
-1.474, 4.138e-5
-1.473, 4.060e-5
-1.472, 3.992e-5
-1.471, 3.924e-5
-1.470, 3.827e-5
-1.469, 3.747e-5
-1.468, 3.675e-5
-1.467, 3.613e-5
-1.466, 3.552e-5
-1.465, 3.465e-5
-1.464, 3.392e-5
-1.463, 3.331e-5
-1.462, 3.267e-5
-1.461, 3.218e-5
-1.460, 3.150e-5
-1.459, 3.071e-5
-1.458, 3.014e-5
-1.457, 2.967e-5
-1.456, 2.916e-5
-1.455, 2.844e-5
-1.454, 2.779e-5
-1.453, 2.730e-5
-1.452, 2.687e-5
-1.451, 2.636e-5
-1.450, 2.579e-5
-1.449, 2.513e-5
-1.448, 2.471e-5
-1.447, 2.434e-5
-1.446, 2.391e-5
-1.445, 2.334e-5
-1.444, 2.276e-5
-1.443, 2.232e-5
-1.442, 2.202e-5
-1.441, 2.163e-5
-1.440, 2.110e-5
-1.439, 2.061e-5
-1.438, 2.016e-5
-1.437, 1.994e-5
-1.436, 1.959e-5
-1.435, 1.903e-5
-1.434, 1.857e-5
-1.433, 1.822e-5
-1.432, 1.802e-5
-1.431, 1.772e-5
-1.430, 1.716e-5
-1.429, 1.680e-5
-1.428, 1.651e-5
-1.427, 1.626e-5
-1.426, 1.602e-5
-1.425, 1.550e-5
-1.424, 1.514e-5
-1.423, 1.487e-5
-1.422, 1.466e-5
-1.421, 1.446e-5
-1.420, 1.404e-5
-1.419, 1.358e-5
-1.418, 1.341e-5
-1.417, 1.325e-5
-1.416, 1.302e-5
-1.415, 1.263e-5
-1.414, 1.222e-5
-1.413, 1.209e-5
-1.412, 1.192e-5
-1.411, 1.169e-5
-1.410, 1.135e-5
-1.409, 1.099e-5
-1.408, 1.080e-5
-1.407, 1.071e-5
-1.406, 1.052e-5
-1.405, 1.019e-5
-1.404, 9.861e-6
-1.403, 9.653e-6
-1.402, 9.600e-6
-1.401, 9.408e-6
-1.400, 9.117e-6
-1.399, 8.789e-6
-1.398, 8.644e-6
-1.397, 8.623e-6
-1.396, 8.484e-6
-1.395, 8.075e-6
-1.394, 7.806e-6
-1.393, 7.719e-6
-1.392, 7.648e-6
-1.391, 7.533e-6
-1.390, 7.198e-6
-1.389, 6.924e-6
-1.388, 6.874e-6
-1.387, 6.803e-6
-1.386, 6.683e-6
-1.385, 6.310e-6
-1.384, 6.223e-6
-1.383, 6.014e-6
-1.382, 6.001e-6
-1.381, 5.929e-6
-1.380, 5.632e-6
-1.379, 5.380e-6
-1.378, 5.318e-6
-1.377, 5.286e-6
-1.376, 5.176e-6
-1.375, 4.950e-6
-1.374, 4.663e-6
-1.373, 4.657e-6
-1.372, 4.646e-6
-1.371, 4.528e-6
-1.370, 4.249e-6
-1.369, 4.036e-6
-1.368, 4.011e-6
-1.367, 4.054e-6
-1.366, 3.849e-6
-1.365, 3.648e-6
-1.364, 3.507e-6
-1.363, 3.399e-6
-1.362, 3.468e-6
-1.361, 3.354e-6
-1.360, 3.099e-6
-1.359, 2.969e-6
-1.358, 2.890e-6
-1.357, 2.929e-6
-1.356, 2.834e-6
-1.355, 2.570e-6
-1.354, 2.437e-6
-1.353, 2.388e-6
-1.352, 2.427e-6
-1.351, 2.353e-6
-1.350, 2.080e-6
-1.349, 1.934e-6
-1.348, 1.935e-6
-1.347, 1.944e-6
-1.346, 1.913e-6
-1.345, 1.641e-6
-1.344, 1.484e-6
-1.343, 1.504e-6
-1.342, 1.528e-6
-1.341, 1.473e-6
-1.340, 1.228e-6
-1.339, 1.104e-6
-1.338, 1.080e-6
-1.337, 1.151e-6
-1.336, 1.070e-6
-1.335, 8.729e-7
-1.334, 6.658e-7
-1.333, 7.476e-7
-1.332, 7.911e-7
-1.331, 6.588e-7
-1.330, 4.645e-7
-1.329, 3.431e-7
-1.328, 3.787e-7
-1.327, 4.063e-7
-1.326, 2.958e-7
-1.325, 1.330e-7
-1.324, -5.130e-9
-1.323, 3.749e-9
-1.322, 7.577e-8
-1.321, -4.065e-8
-1.320, -2.301e-7
-1.319, -3.386e-7
-1.318, -3.425e-7
-1.317, -2.232e-7
-1.316, -3.613e-7
-1.315, -4.974e-7
-1.314, -6.602e-7
-1.313, -6.198e-7
-1.312, -6.218e-7
-1.311, -6.760e-7
-1.310, -8.605e-7
-1.309, -9.641e-7
-1.308, -9.187e-7
-1.307, -8.960e-7
-1.306, -9.838e-7
-1.305, -1.210e-6
-1.304, -1.278e-6
-1.303, -1.227e-6
-1.302, -1.211e-6
-1.301, -1.249e-6
-1.300, -1.432e-6
-1.299, -1.598e-6
-1.298, -1.528e-6
-1.297, -1.491e-6
-1.296, -1.554e-6
-1.295, -1.727e-6
-1.294, -1.898e-6
-1.293, -1.785e-6
-1.292, -1.706e-6
-1.291, -1.893e-6
-1.290, -2.012e-6
-1.289, -2.137e-6
-1.288, -2.090e-6
-1.287, -1.963e-6
-1.286, -2.153e-6
-1.285, -2.254e-6
-1.284, -2.362e-6
-1.283, -2.390e-6
-1.282, -2.293e-6
-1.281, -2.378e-6
-1.280, -2.537e-6
-1.279, -2.688e-6
-1.278, -2.656e-6
-1.277, -2.511e-6
-1.276, -2.634e-6
-1.275, -2.875e-6
-1.274, -2.947e-6
-1.273, -2.898e-6
-1.272, -2.758e-6
-1.271, -2.881e-6
-1.270, -3.122e-6
-1.269, -3.169e-6
-1.268, -3.105e-6
-1.267, -3.132e-6
-1.266, -3.157e-6
-1.265, -3.355e-6
-1.264, -3.443e-6
-1.263, -3.387e-6
-1.262, -3.369e-6
-1.261, -3.388e-6
-1.260, -3.609e-6
-1.259, -3.711e-6
-1.258, -3.666e-6
-1.257, -3.597e-6
-1.256, -3.683e-6
-1.255, -3.873e-6
-1.254, -4.000e-6
-1.253, -3.912e-6
-1.252, -3.827e-6
-1.251, -3.996e-6
-1.250, -4.123e-6
-1.249, -4.256e-6
-1.248, -4.179e-6
-1.247, -4.100e-6
-1.246, -4.212e-6
-1.245, -4.381e-6
-1.244, -4.476e-6
-1.243, -4.485e-6
-1.242, -4.384e-6
-1.241, -4.501e-6
-1.240, -4.672e-6
-1.239, -4.742e-6
-1.238, -4.706e-6
-1.237, -4.660e-6
-1.236, -4.713e-6
-1.235, -4.956e-6
-1.234, -5.062e-6
-1.233, -4.954e-6
-1.232, -4.909e-6
-1.231, -5.036e-6
-1.230, -5.252e-6
-1.229, -5.412e-6
-1.228, -5.288e-6
-1.227, -5.211e-6
-1.226, -5.310e-6
-1.225, -5.536e-6
-1.224, -5.594e-6
-1.223, -5.493e-6
-1.222, -5.484e-6
-1.221, -5.551e-6
-1.220, -5.753e-6
-1.219, -5.873e-6
-1.218, -5.751e-6
-1.217, -5.739e-6
-1.216, -5.856e-6
-1.215, -6.046e-6
-1.214, -6.159e-6
-1.213, -6.040e-6
-1.212, -6.073e-6
-1.211, -6.180e-6
-1.210, -6.271e-6
-1.209, -6.440e-6
-1.208, -6.332e-6
-1.207, -6.293e-6
-1.206, -6.462e-6
-1.205, -6.611e-6
-1.204, -6.702e-6
-1.203, -6.646e-6
-1.202, -6.634e-6
-1.201, -6.778e-6
-1.200, -6.888e-6
-1.199, -6.961e-6
-1.198, -6.971e-6
-1.197, -6.891e-6
-1.196, -7.025e-6
-1.195, -7.245e-6
-1.194, -7.329e-6
-1.193, -7.245e-6
-1.192, -7.214e-6
-1.191, -7.355e-6
-1.190, -7.579e-6
-1.189, -7.631e-6
-1.188, -7.513e-6
-1.187, -7.565e-6
-1.186, -7.684e-6
-1.185, -7.898e-6
-1.184, -7.939e-6
-1.183, -7.857e-6
-1.182, -7.902e-6
-1.181, -8.011e-6
-1.180, -8.223e-6
-1.179, -8.300e-6
-1.178, -8.266e-6
-1.177, -8.252e-6
-1.176, -8.359e-6
-1.175, -8.559e-6
-1.174, -8.671e-6
-1.173, -8.601e-6
-1.172, -8.583e-6
-1.171, -8.794e-6
-1.170, -8.906e-6
-1.169, -9.025e-6
-1.168, -8.903e-6
-1.167, -8.935e-6
-1.166, -9.124e-6
-1.165, -9.294e-6
-1.164, -9.384e-6
-1.163, -9.402e-6
-1.162, -9.300e-6
-1.161, -9.502e-6
-1.160, -9.716e-6
-1.159, -9.768e-6
-1.158, -9.753e-6
-1.157, -9.716e-6
-1.156, -9.895e-6
-1.155, -1.015e-5
-1.154, -1.009e-5
-1.153, -1.013e-5
-1.152, -1.012e-5
-1.151, -1.028e-5
-1.150, -1.056e-5
-1.149, -1.057e-5
-1.148, -1.052e-5
-1.147, -1.055e-5
-1.146, -1.071e-5
-1.145, -1.098e-5
-1.144, -1.095e-5
-1.143, -1.095e-5
-1.142, -1.099e-5
-1.141, -1.114e-5
-1.140, -1.140e-5
-1.139, -1.144e-5
-1.138, -1.142e-5
-1.137, -1.141e-5
-1.136, -1.159e-5
-1.135, -1.181e-5
-1.134, -1.194e-5
-1.133, -1.187e-5
-1.132, -1.185e-5
-1.131, -1.209e-5
-1.130, -1.229e-5
-1.129, -1.235e-5
-1.128, -1.232e-5
-1.127, -1.234e-5
-1.126, -1.255e-5
-1.125, -1.277e-5
-1.124, -1.286e-5
-1.123, -1.289e-5
-1.122, -1.287e-5
-1.121, -1.311e-5
-1.120, -1.329e-5
-1.119, -1.340e-5
-1.118, -1.339e-5
-1.117, -1.338e-5
-1.116, -1.360e-5
-1.115, -1.387e-5
-1.114, -1.393e-5
-1.113, -1.392e-5
-1.112, -1.393e-5
-1.111, -1.413e-5
-1.110, -1.446e-5
-1.109, -1.447e-5
-1.108, -1.443e-5
-1.107, -1.453e-5
-1.106, -1.469e-5
-1.105, -1.502e-5
-1.104, -1.506e-5
-1.103, -1.498e-5
-1.102, -1.514e-5
-1.101, -1.526e-5
-1.100, -1.558e-5
-1.099, -1.569e-5
-1.098, -1.563e-5
-1.097, -1.574e-5
-1.096, -1.594e-5
-1.095, -1.619e-5
-1.094, -1.631e-5
-1.093, -1.631e-5
-1.092, -1.632e-5
-1.091, -1.658e-5
-1.090, -1.688e-5
-1.089, -1.692e-5
-1.088, -1.699e-5
-1.087, -1.702e-5
-1.086, -1.734e-5
-1.085, -1.752e-5
-1.084, -1.760e-5
-1.083, -1.770e-5
-1.082, -1.768e-5
-1.081, -1.799e-5
-1.080, -1.821e-5
-1.079, -1.834e-5
-1.078, -1.840e-5
-1.077, -1.839e-5
-1.076, -1.872e-5
-1.075, -1.904e-5
-1.074, -1.907e-5
-1.073, -1.912e-5
-1.072, -1.916e-5
-1.071, -1.948e-5
-1.070, -1.979e-5
-1.069, -1.982e-5
-1.068, -1.988e-5
-1.067, -1.996e-5
-1.066, -2.024e-5
-1.065, -2.055e-5
-1.064, -2.059e-5
-1.063, -2.068e-5
-1.062, -2.078e-5
-1.061, -2.106e-5
-1.060, -2.132e-5
-1.059, -2.147e-5
-1.058, -2.150e-5
-1.057, -2.157e-5
-1.056, -2.189e-5
-1.055, -2.216e-5
-1.054, -2.225e-5
-1.053, -2.233e-5
-1.052, -2.241e-5
-1.051, -2.278e-5
-1.050, -2.299e-5
-1.049, -2.317e-5
-1.048, -2.321e-5
-1.047, -2.323e-5
-1.046, -2.370e-5
-1.045, -2.388e-5
-1.044, -2.398e-5
-1.043, -2.407e-5
-1.042, -2.415e-5
-1.041, -2.459e-5
-1.040, -2.478e-5
-1.039, -2.489e-5
-1.038, -2.502e-5
-1.037, -2.509e-5
-1.036, -2.543e-5
-1.035, -2.580e-5
-1.034, -2.584e-5
-1.033, -2.593e-5
-1.032, -2.603e-5
-1.031, -2.641e-5
-1.030, -2.674e-5
-1.029, -2.681e-5
-1.028, -2.688e-5
-1.027, -2.709e-5
-1.026, -2.738e-5
-1.025, -2.778e-5
-1.024, -2.787e-5
-1.023, -2.794e-5
-1.022, -2.816e-5
-1.021, -2.851e-5
-1.020, -2.880e-5
-1.019, -2.898e-5
-1.018, -2.906e-5
-1.017, -2.926e-5
-1.016, -2.966e-5
-1.015, -2.989e-5
-1.014, -3.017e-5
-1.013, -3.020e-5
-1.012, -3.042e-5
-1.011, -3.089e-5
-1.010, -3.118e-5
-1.009, -3.138e-5
-1.008, -3.148e-5
-1.007, -3.173e-5
-1.006, -3.217e-5
-1.005, -3.253e-5
-1.004, -3.269e-5
-1.003, -3.287e-5
-1.002, -3.313e-5
-1.001, -3.360e-5
