Apr. 5, 2025   13:52:06
Cyclic Voltammetry
File: c:/users/guazh/data/banditlqround7_x0exp994_r5/2025-03-28-exp990\exp990-2025-04-05t13_32_59-arkoh\exp990_cv_sr_300mvs_efin_-1800mv.bin
Data Source:  Experiment
Instrument Model:  CHI760E
Header: CV ran at 300 mVs
Note: 

Init E (V) = -1
High E (V) = -1
Low E (V) = -1.8
Final E (V) = -1
Init P/N = N
Scan Rate (V/s) = 0.3
Segment = 3
Sample Interval (V) = 0.001
Quiet Time (sec) = 2
Sensitivity (A/V) = 0.01
Comp R (ohm) = 1.8

Results:

Channel 1:
Segment 1:

Segment 2:

Segment 3:

Potential/V, Current/A

-1.000, 3.239e-6
-1.001, 1.865e-5
-1.002, 2.174e-5
-1.003, 2.174e-5
-1.004, 2.482e-5
-1.005, 2.482e-5
-1.006, 2.790e-5
-1.007, 3.099e-5
-1.008, 3.099e-5
-1.009, 3.099e-5
-1.010, 3.099e-5
-1.011, 3.407e-5
-1.012, 3.407e-5
-1.013, 3.407e-5
-1.014, 3.407e-5
-1.015, 3.407e-5
-1.016, 3.715e-5
-1.017, 3.715e-5
-1.018, 4.024e-5
-1.019, 3.715e-5
-1.020, 3.715e-5
-1.021, 4.024e-5
-1.022, 4.024e-5
-1.023, 4.024e-5
-1.024, 4.024e-5
-1.025, 4.024e-5
-1.026, 4.024e-5
-1.027, 4.332e-5
-1.028, 4.332e-5
-1.029, 4.332e-5
-1.030, 4.332e-5
-1.031, 4.640e-5
-1.032, 4.640e-5
-1.033, 4.640e-5
-1.034, 4.332e-5
-1.035, 4.640e-5
-1.036, 4.640e-5
-1.037, 4.949e-5
-1.038, 4.640e-5
-1.039, 4.640e-5
-1.040, 4.640e-5
-1.041, 4.949e-5
-1.042, 4.949e-5
-1.043, 4.949e-5
-1.044, 4.949e-5
-1.045, 4.949e-5
-1.046, 4.949e-5
-1.047, 5.257e-5
-1.048, 5.257e-5
-1.049, 4.949e-5
-1.050, 5.257e-5
-1.051, 5.257e-5
-1.052, 5.565e-5
-1.053, 5.257e-5
-1.054, 5.257e-5
-1.055, 5.257e-5
-1.056, 5.257e-5
-1.057, 5.565e-5
-1.058, 5.565e-5
-1.059, 5.565e-5
-1.060, 5.565e-5
-1.061, 5.565e-5
-1.062, 5.565e-5
-1.063, 5.565e-5
-1.064, 5.565e-5
-1.065, 5.565e-5
-1.066, 5.565e-5
-1.067, 5.873e-5
-1.068, 5.873e-5
-1.069, 5.565e-5
-1.070, 5.565e-5
-1.071, 5.873e-5
-1.072, 5.873e-5
-1.073, 5.873e-5
-1.074, 5.873e-5
-1.075, 5.873e-5
-1.076, 5.873e-5
-1.077, 5.873e-5
-1.078, 5.873e-5
-1.079, 5.873e-5
-1.080, 5.873e-5
-1.081, 6.182e-5
-1.082, 6.182e-5
-1.083, 6.182e-5
-1.084, 6.182e-5
-1.085, 5.873e-5
-1.086, 6.182e-5
-1.087, 6.182e-5
-1.088, 6.182e-5
-1.089, 5.873e-5
-1.090, 6.182e-5
-1.091, 6.182e-5
-1.092, 6.182e-5
-1.093, 6.182e-5
-1.094, 6.182e-5
-1.095, 6.182e-5
-1.096, 6.182e-5
-1.097, 6.182e-5
-1.098, 6.182e-5
-1.099, 6.182e-5
-1.100, 6.182e-5
-1.101, 6.182e-5
-1.102, 6.182e-5
-1.103, 6.182e-5
-1.104, 6.182e-5
-1.105, 6.182e-5
-1.106, 6.182e-5
-1.107, 6.490e-5
-1.108, 6.490e-5
-1.109, 6.182e-5
-1.110, 6.182e-5
-1.111, 6.182e-5
-1.112, 6.490e-5
-1.113, 6.182e-5
-1.114, 6.182e-5
-1.115, 6.182e-5
-1.116, 6.182e-5
-1.117, 6.490e-5
-1.118, 6.490e-5
-1.119, 6.490e-5
-1.120, 6.182e-5
-1.121, 6.182e-5
-1.122, 6.490e-5
-1.123, 6.182e-5
-1.124, 6.182e-5
-1.125, 6.182e-5
-1.126, 6.182e-5
-1.127, 6.490e-5
-1.128, 6.490e-5
-1.129, 6.182e-5
-1.130, 6.182e-5
-1.131, 6.182e-5
-1.132, 6.490e-5
-1.133, 6.182e-5
-1.134, 6.182e-5
-1.135, 6.182e-5
-1.136, 6.182e-5
-1.137, 6.490e-5
-1.138, 6.182e-5
-1.139, 6.182e-5
-1.140, 6.182e-5
-1.141, 6.182e-5
-1.142, 6.490e-5
-1.143, 6.490e-5
-1.144, 6.182e-5
-1.145, 6.182e-5
-1.146, 6.182e-5
-1.147, 6.182e-5
-1.148, 6.182e-5
-1.149, 6.182e-5
-1.150, 6.182e-5
-1.151, 6.182e-5
-1.152, 6.182e-5
-1.153, 6.182e-5
-1.154, 6.182e-5
-1.155, 6.182e-5
-1.156, 6.182e-5
-1.157, 6.182e-5
-1.158, 6.182e-5
-1.159, 6.182e-5
-1.160, 6.182e-5
-1.161, 6.182e-5
-1.162, 6.182e-5
-1.163, 6.490e-5
-1.164, 6.182e-5
-1.165, 6.182e-5
-1.166, 6.182e-5
-1.167, 6.182e-5
-1.168, 6.182e-5
-1.169, 6.182e-5
-1.170, 6.182e-5
-1.171, 6.182e-5
-1.172, 6.182e-5
-1.173, 6.182e-5
-1.174, 6.182e-5
-1.175, 6.182e-5
-1.176, 6.182e-5
-1.177, 6.182e-5
-1.178, 6.182e-5
-1.179, 5.873e-5
-1.180, 5.873e-5
-1.181, 6.182e-5
-1.182, 6.182e-5
-1.183, 6.182e-5
-1.184, 5.873e-5
-1.185, 5.873e-5
-1.186, 6.182e-5
-1.187, 6.182e-5
-1.188, 6.182e-5
-1.189, 6.182e-5
-1.190, 5.873e-5
-1.191, 5.873e-5
-1.192, 6.182e-5
-1.193, 6.182e-5
-1.194, 5.873e-5
-1.195, 5.873e-5
-1.196, 5.873e-5
-1.197, 5.873e-5
-1.198, 5.873e-5
-1.199, 5.873e-5
-1.200, 5.873e-5
-1.201, 5.873e-5
-1.202, 5.873e-5
-1.203, 5.873e-5
-1.204, 5.873e-5
-1.205, 5.873e-5
-1.206, 5.873e-5
-1.207, 5.873e-5
-1.208, 5.873e-5
-1.209, 5.873e-5
-1.210, 5.873e-5
-1.211, 5.873e-5
-1.212, 5.873e-5
-1.213, 5.873e-5
-1.214, 5.873e-5
-1.215, 5.873e-5
-1.216, 5.873e-5
-1.217, 5.873e-5
-1.218, 5.873e-5
-1.219, 5.565e-5
-1.220, 5.873e-5
-1.221, 5.873e-5
-1.222, 5.873e-5
-1.223, 5.873e-5
-1.224, 5.565e-5
-1.225, 5.565e-5
-1.226, 5.873e-5
-1.227, 5.873e-5
-1.228, 5.873e-5
-1.229, 5.873e-5
-1.230, 5.565e-5
-1.231, 5.565e-5
-1.232, 5.873e-5
-1.233, 5.873e-5
-1.234, 5.873e-5
-1.235, 5.873e-5
-1.236, 5.565e-5
-1.237, 5.873e-5
-1.238, 5.873e-5
-1.239, 5.565e-5
-1.240, 5.565e-5
-1.241, 5.565e-5
-1.242, 5.873e-5
-1.243, 5.565e-5
-1.244, 5.565e-5
-1.245, 5.565e-5
-1.246, 5.565e-5
-1.247, 5.565e-5
-1.248, 5.565e-5
-1.249, 5.565e-5
-1.250, 5.565e-5
-1.251, 5.565e-5
-1.252, 5.565e-5
-1.253, 5.565e-5
-1.254, 5.565e-5
-1.255, 5.565e-5
-1.256, 5.565e-5
-1.257, 5.873e-5
-1.258, 5.565e-5
-1.259, 5.565e-5
-1.260, 5.565e-5
-1.261, 5.565e-5
-1.262, 5.565e-5
-1.263, 5.565e-5
-1.264, 5.565e-5
-1.265, 5.565e-5
-1.266, 5.565e-5
-1.267, 5.565e-5
-1.268, 5.565e-5
-1.269, 5.565e-5
-1.270, 5.565e-5
-1.271, 5.565e-5
-1.272, 5.565e-5
-1.273, 5.565e-5
-1.274, 5.565e-5
-1.275, 5.565e-5
-1.276, 5.565e-5
-1.277, 5.565e-5
-1.278, 5.565e-5
-1.279, 5.565e-5
-1.280, 5.565e-5
-1.281, 5.565e-5
-1.282, 5.565e-5
-1.283, 5.565e-5
-1.284, 5.565e-5
-1.285, 5.565e-5
-1.286, 5.565e-5
-1.287, 5.565e-5
-1.288, 5.565e-5
-1.289, 5.565e-5
-1.290, 5.565e-5
-1.291, 5.565e-5
-1.292, 5.565e-5
-1.293, 5.565e-5
-1.294, 5.565e-5
-1.295, 5.565e-5
-1.296, 5.565e-5
-1.297, 5.565e-5
-1.298, 5.565e-5
-1.299, 5.565e-5
-1.300, 5.565e-5
-1.301, 5.565e-5
-1.302, 5.565e-5
-1.303, 5.565e-5
-1.304, 5.565e-5
-1.305, 5.257e-5
-1.306, 5.565e-5
-1.307, 5.565e-5
-1.308, 5.565e-5
-1.309, 5.565e-5
-1.310, 5.565e-5
-1.311, 5.565e-5
-1.312, 5.565e-5
-1.313, 5.565e-5
-1.314, 5.565e-5
-1.315, 5.565e-5
-1.316, 5.565e-5
-1.317, 5.565e-5
-1.318, 5.565e-5
-1.319, 5.565e-5
-1.320, 5.565e-5
-1.321, 5.565e-5
-1.322, 5.565e-5
-1.323, 5.565e-5
-1.324, 5.565e-5
-1.325, 5.565e-5
-1.326, 5.565e-5
-1.327, 5.565e-5
-1.328, 5.565e-5
-1.329, 5.565e-5
-1.330, 5.565e-5
-1.331, 5.565e-5
-1.332, 5.873e-5
-1.333, 5.565e-5
-1.334, 5.565e-5
-1.335, 5.565e-5
-1.336, 5.565e-5
-1.337, 5.873e-5
-1.338, 5.565e-5
-1.339, 5.565e-5
-1.340, 5.565e-5
-1.341, 5.565e-5
-1.342, 5.565e-5
-1.343, 5.873e-5
-1.344, 5.565e-5
-1.345, 5.565e-5
-1.346, 5.565e-5
-1.347, 5.565e-5
-1.348, 5.565e-5
-1.349, 5.565e-5
-1.350, 5.565e-5
-1.351, 5.565e-5
-1.352, 5.565e-5
-1.353, 5.565e-5
-1.354, 5.565e-5
-1.355, 5.565e-5
-1.356, 5.565e-5
-1.357, 5.873e-5
-1.358, 5.565e-5
-1.359, 5.565e-5
-1.360, 5.565e-5
-1.361, 5.565e-5
-1.362, 5.873e-5
-1.363, 5.565e-5
-1.364, 5.565e-5
-1.365, 5.565e-5
-1.366, 5.565e-5
-1.367, 5.873e-5
-1.368, 5.873e-5
-1.369, 5.565e-5
-1.370, 5.873e-5
-1.371, 5.873e-5
-1.372, 5.873e-5
-1.373, 5.873e-5
-1.374, 5.873e-5
-1.375, 5.873e-5
-1.376, 5.873e-5
-1.377, 5.873e-5
-1.378, 5.873e-5
-1.379, 5.565e-5
-1.380, 5.873e-5
-1.381, 5.873e-5
-1.382, 5.873e-5
-1.383, 5.873e-5
-1.384, 5.873e-5
-1.385, 5.873e-5
-1.386, 5.873e-5
-1.387, 5.873e-5
-1.388, 5.873e-5
-1.389, 5.873e-5
-1.390, 5.873e-5
-1.391, 5.873e-5
-1.392, 6.182e-5
-1.393, 5.873e-5
-1.394, 5.873e-5
-1.395, 5.873e-5
-1.396, 5.873e-5
-1.397, 6.182e-5
-1.398, 6.182e-5
-1.399, 6.182e-5
-1.400, 5.873e-5
-1.401, 6.182e-5
-1.402, 6.182e-5
-1.403, 6.182e-5
-1.404, 6.182e-5
-1.405, 5.873e-5
-1.406, 6.182e-5
-1.407, 6.182e-5
-1.408, 6.182e-5
-1.409, 6.182e-5
-1.410, 6.182e-5
-1.411, 6.182e-5
-1.412, 6.490e-5
-1.413, 6.182e-5
-1.414, 6.182e-5
-1.415, 6.182e-5
-1.416, 6.182e-5
-1.417, 6.490e-5
-1.418, 6.490e-5
-1.419, 6.490e-5
-1.420, 6.490e-5
-1.421, 6.490e-5
-1.422, 6.490e-5
-1.423, 6.490e-5
-1.424, 6.490e-5
-1.425, 6.490e-5
-1.426, 6.490e-5
-1.427, 6.798e-5
-1.428, 6.798e-5
-1.429, 6.798e-5
-1.430, 6.490e-5
-1.431, 6.798e-5
-1.432, 6.798e-5
-1.433, 6.798e-5
-1.434, 6.798e-5
-1.435, 6.798e-5
-1.436, 6.798e-5
-1.437, 6.798e-5
-1.438, 6.798e-5
-1.439, 6.798e-5
-1.440, 6.798e-5
-1.441, 7.107e-5
-1.442, 7.107e-5
-1.443, 7.107e-5
-1.444, 7.107e-5
-1.445, 7.107e-5
-1.446, 7.107e-5
-1.447, 7.415e-5
-1.448, 7.415e-5
-1.449, 7.415e-5
-1.450, 7.415e-5
-1.451, 7.415e-5
-1.452, 7.415e-5
-1.453, 7.415e-5
-1.454, 7.415e-5
-1.455, 7.723e-5
-1.456, 7.415e-5
-1.457, 7.723e-5
-1.458, 7.723e-5
-1.459, 7.723e-5
-1.460, 7.723e-5
-1.461, 8.032e-5
-1.462, 8.032e-5
-1.463, 8.032e-5
-1.464, 8.032e-5
-1.465, 8.032e-5
-1.466, 8.340e-5
-1.467, 8.340e-5
-1.468, 8.340e-5
-1.469, 8.340e-5
-1.470, 8.340e-5
-1.471, 8.648e-5
-1.472, 8.648e-5
-1.473, 8.957e-5
-1.474, 8.957e-5
-1.475, 8.957e-5
-1.476, 8.957e-5
-1.477, 9.265e-5
-1.478, 9.265e-5
-1.479, 9.265e-5
-1.480, 9.265e-5
-1.481, 9.573e-5
-1.482, 9.573e-5
-1.483, 9.573e-5
-1.484, 9.882e-5
-1.485, 9.882e-5
-1.486, 1.019e-4
-1.487, 1.019e-4
-1.488, 1.019e-4
-1.489, 1.019e-4
-1.490, 1.050e-4
-1.491, 1.050e-4
-1.492, 1.081e-4
-1.493, 1.081e-4
-1.494, 1.111e-4
-1.495, 1.111e-4
-1.496, 1.142e-4
-1.497, 1.173e-4
-1.498, 1.173e-4
-1.499, 1.173e-4
-1.500, 1.204e-4
-1.501, 1.235e-4
-1.502, 1.235e-4
-1.503, 1.266e-4
-1.504, 1.266e-4
-1.505, 1.296e-4
-1.506, 1.327e-4
-1.507, 1.327e-4
-1.508, 1.358e-4
-1.509, 1.389e-4
-1.510, 1.389e-4
-1.511, 1.420e-4
-1.512, 1.451e-4
-1.513, 1.481e-4
-1.514, 1.512e-4
-1.515, 1.512e-4
-1.516, 1.574e-4
-1.517, 1.574e-4
-1.518, 1.605e-4
-1.519, 1.636e-4
-1.520, 1.666e-4
-1.521, 1.697e-4
-1.522, 1.759e-4
-1.523, 1.790e-4
-1.524, 1.821e-4
-1.525, 1.821e-4
-1.526, 1.882e-4
-1.527, 1.913e-4
-1.528, 1.944e-4
-1.529, 2.006e-4
-1.530, 2.036e-4
-1.531, 2.067e-4
-1.532, 2.129e-4
-1.533, 2.160e-4
-1.534, 2.221e-4
-1.535, 2.252e-4
-1.536, 2.314e-4
-1.537, 2.345e-4
-1.538, 2.406e-4
-1.539, 2.437e-4
-1.540, 2.499e-4
-1.541, 2.561e-4
-1.542, 2.622e-4
-1.543, 2.684e-4
-1.544, 2.746e-4
-1.545, 2.776e-4
-1.546, 2.869e-4
-1.547, 2.931e-4
-1.548, 2.992e-4
-1.549, 3.054e-4
-1.550, 3.115e-4
-1.551, 3.208e-4
-1.552, 3.270e-4
-1.553, 3.362e-4
-1.554, 3.424e-4
-1.555, 3.485e-4
-1.556, 3.578e-4
-1.557, 3.670e-4
-1.558, 3.763e-4
-1.559, 3.825e-4
-1.560, 3.917e-4
-1.561, 4.010e-4
-1.562, 4.133e-4
-1.563, 4.195e-4
-1.564, 4.287e-4
-1.565, 4.380e-4
-1.566, 4.503e-4
-1.567, 4.626e-4
-1.568, 4.719e-4
-1.569, 4.811e-4
-1.570, 4.904e-4
-1.571, 5.027e-4
-1.572, 5.150e-4
-1.573, 5.274e-4
-1.574, 5.397e-4
-1.575, 5.520e-4
-1.576, 5.644e-4
-1.577, 5.767e-4
-1.578, 5.890e-4
-1.579, 6.014e-4
-1.580, 6.168e-4
-1.581, 6.291e-4
-1.582, 6.445e-4
-1.583, 6.569e-4
-1.584, 6.723e-4
-1.585, 6.846e-4
-1.586, 7.000e-4
-1.587, 7.154e-4
-1.588, 7.339e-4
-1.589, 7.494e-4
-1.590, 7.617e-4
-1.591, 7.802e-4
-1.592, 7.987e-4
-1.593, 8.141e-4
-1.594, 8.326e-4
-1.595, 8.511e-4
-1.596, 8.696e-4
-1.597, 8.850e-4
-1.598, 9.066e-4
-1.599, 9.251e-4
-1.600, 9.405e-4
-1.601, 9.621e-4
-1.602, 9.806e-4
-1.603, 1.002e-3
-1.604, 1.021e-3
-1.605, 1.039e-3
-1.606, 1.061e-3
-1.607, 1.085e-3
-1.608, 1.107e-3
-1.609, 1.125e-3
-1.610, 1.147e-3
-1.611, 1.172e-3
-1.612, 1.193e-3
-1.613, 1.215e-3
-1.614, 1.240e-3
-1.615, 1.261e-3
-1.616, 1.286e-3
-1.617, 1.314e-3
-1.618, 1.338e-3
-1.619, 1.363e-3
-1.620, 1.388e-3
-1.621, 1.412e-3
-1.622, 1.440e-3
-1.623, 1.468e-3
-1.624, 1.492e-3
-1.625, 1.520e-3
-1.626, 1.548e-3
-1.627, 1.576e-3
-1.628, 1.606e-3
-1.629, 1.634e-3
-1.630, 1.662e-3
-1.631, 1.693e-3
-1.632, 1.724e-3
-1.633, 1.754e-3
-1.634, 1.785e-3
-1.635, 1.816e-3
-1.636, 1.847e-3
-1.637, 1.881e-3
-1.638, 1.912e-3
-1.639, 1.943e-3
-1.640, 1.973e-3
-1.641, 2.007e-3
-1.642, 2.044e-3
-1.643, 2.078e-3
-1.644, 2.112e-3
-1.645, 2.146e-3
-1.646, 2.183e-3
-1.647, 2.220e-3
-1.648, 2.254e-3
-1.649, 2.291e-3
-1.650, 2.325e-3
-1.651, 2.359e-3
-1.652, 2.399e-3
-1.653, 2.439e-3
-1.654, 2.476e-3
-1.655, 2.513e-3
-1.656, 2.553e-3
-1.657, 2.593e-3
-1.658, 2.633e-3
-1.659, 2.667e-3
-1.660, 2.707e-3
-1.661, 2.744e-3
-1.662, 2.787e-3
-1.663, 2.827e-3
-1.664, 2.864e-3
-1.665, 2.904e-3
-1.666, 2.945e-3
-1.667, 2.988e-3
-1.668, 3.031e-3
-1.669, 3.068e-3
-1.670, 3.111e-3
-1.671, 3.151e-3
-1.672, 3.194e-3
-1.673, 3.241e-3
-1.674, 3.281e-3
-1.675, 3.321e-3
-1.676, 3.367e-3
-1.677, 3.413e-3
-1.678, 3.456e-3
-1.679, 3.503e-3
-1.680, 3.549e-3
-1.681, 3.592e-3
-1.682, 3.641e-3
-1.683, 3.688e-3
-1.684, 3.740e-3
-1.685, 3.777e-3
-1.686, 3.817e-3
-1.687, 3.866e-3
-1.688, 3.910e-3
-1.689, 3.950e-3
-1.690, 3.996e-3
-1.691, 4.045e-3
-1.692, 4.101e-3
-1.693, 4.156e-3
-1.694, 4.202e-3
-1.695, 4.255e-3
-1.696, 4.307e-3
-1.697, 4.360e-3
-1.698, 4.403e-3
-1.699, 4.452e-3
-1.700, 4.505e-3
-1.701, 4.557e-3
-1.702, 4.612e-3
-1.703, 4.665e-3
-1.704, 4.723e-3
-1.705, 4.779e-3
-1.706, 4.841e-3
-1.707, 4.890e-3
-1.708, 4.942e-3
-1.709, 4.995e-3
-1.710, 5.047e-3
-1.711, 5.093e-3
-1.712, 5.140e-3
-1.713, 5.183e-3
-1.714, 5.229e-3
-1.715, 5.282e-3
-1.716, 5.331e-3
-1.717, 5.389e-3
-1.718, 5.442e-3
-1.719, 5.494e-3
-1.720, 5.544e-3
-1.721, 5.590e-3
-1.722, 5.642e-3
-1.723, 5.695e-3
-1.724, 5.735e-3
-1.725, 5.775e-3
-1.726, 5.827e-3
-1.727, 5.883e-3
-1.728, 5.938e-3
-1.729, 5.988e-3
-1.730, 6.037e-3
-1.731, 6.086e-3
-1.732, 6.136e-3
-1.733, 6.182e-3
-1.734, 6.225e-3
-1.735, 6.271e-3
-1.736, 6.321e-3
-1.737, 6.367e-3
-1.738, 6.416e-3
-1.739, 6.475e-3
-1.740, 6.527e-3
-1.741, 6.598e-3
-1.742, 6.660e-3
-1.743, 6.712e-3
-1.744, 6.761e-3
-1.745, 6.811e-3
-1.746, 6.857e-3
-1.747, 6.903e-3
-1.748, 6.953e-3
-1.749, 7.005e-3
-1.750, 7.073e-3
-1.751, 7.128e-3
-1.752, 7.184e-3
-1.753, 7.239e-3
-1.754, 7.292e-3
-1.755, 7.353e-3
-1.756, 7.418e-3
-1.757, 7.474e-3
-1.758, 7.517e-3
-1.759, 7.560e-3
-1.760, 7.597e-3
-1.761, 7.643e-3
-1.762, 7.696e-3
-1.763, 7.773e-3
-1.764, 7.816e-3
-1.765, 7.865e-3
-1.766, 7.921e-3
-1.767, 7.988e-3
-1.768, 8.053e-3
-1.769, 8.112e-3
-1.770, 8.170e-3
-1.771, 8.214e-3
-1.772, 8.278e-3
-1.773, 8.349e-3
-1.774, 8.392e-3
-1.775, 8.432e-3
-1.776, 8.494e-3
-1.777, 8.547e-3
-1.778, 8.611e-3
-1.779, 8.682e-3
-1.780, 8.735e-3
-1.781, 8.793e-3
-1.782, 8.867e-3
-1.783, 8.923e-3
-1.784, 8.987e-3
-1.785, 9.049e-3
-1.786, 9.114e-3
-1.787, 9.175e-3
-1.788, 9.234e-3
-1.789, 9.311e-3
-1.790, 9.376e-3
-1.791, 9.428e-3
-1.792, 9.496e-3
-1.793, 9.561e-3
-1.794, 9.629e-3
-1.795, 9.684e-3
-1.796, 9.749e-3
-1.797, 9.857e-3
-1.798, 9.915e-3
-1.799, 9.974e-3
-1.800, 9.989e-3
-1.799, 9.919e-3
-1.798, 9.854e-3
-1.797, 9.777e-3
-1.796, 9.693e-3
-1.795, 9.610e-3
-1.794, 9.545e-3
-1.793, 9.475e-3
-1.792, 9.425e-3
-1.791, 9.351e-3
-1.790, 9.265e-3
-1.789, 9.182e-3
-1.788, 9.108e-3
-1.787, 9.049e-3
-1.786, 8.987e-3
-1.785, 8.913e-3
-1.784, 8.846e-3
-1.783, 8.790e-3
-1.782, 8.704e-3
-1.781, 8.614e-3
-1.780, 8.543e-3
-1.779, 8.488e-3
-1.778, 8.436e-3
-1.777, 8.371e-3
-1.776, 8.315e-3
-1.775, 8.269e-3
-1.774, 8.192e-3
-1.773, 8.127e-3
-1.772, 8.044e-3
-1.771, 7.964e-3
-1.770, 7.908e-3
-1.769, 7.837e-3
-1.768, 7.773e-3
-1.767, 7.726e-3
-1.766, 7.662e-3
-1.765, 7.594e-3
-1.764, 7.538e-3
-1.763, 7.471e-3
-1.762, 7.397e-3
-1.761, 7.344e-3
-1.760, 7.289e-3
-1.759, 7.245e-3
-1.758, 7.171e-3
-1.757, 7.110e-3
-1.756, 7.042e-3
-1.755, 6.974e-3
-1.754, 6.922e-3
-1.753, 6.860e-3
-1.752, 6.808e-3
-1.751, 6.755e-3
-1.750, 6.706e-3
-1.749, 6.663e-3
-1.748, 6.601e-3
-1.747, 6.536e-3
-1.746, 6.472e-3
-1.745, 6.404e-3
-1.744, 6.364e-3
-1.743, 6.308e-3
-1.742, 6.253e-3
-1.741, 6.200e-3
-1.740, 6.145e-3
-1.739, 6.086e-3
-1.738, 6.025e-3
-1.737, 5.969e-3
-1.736, 5.914e-3
-1.735, 5.852e-3
-1.734, 5.790e-3
-1.733, 5.744e-3
-1.732, 5.695e-3
-1.731, 5.642e-3
-1.730, 5.596e-3
-1.729, 5.547e-3
-1.728, 5.485e-3
-1.727, 5.420e-3
-1.726, 5.359e-3
-1.725, 5.312e-3
-1.724, 5.260e-3
-1.723, 5.204e-3
-1.722, 5.143e-3
-1.721, 5.087e-3
-1.720, 5.026e-3
-1.719, 4.973e-3
-1.718, 4.918e-3
-1.717, 4.862e-3
-1.716, 4.810e-3
-1.715, 4.757e-3
-1.714, 4.711e-3
-1.713, 4.653e-3
-1.712, 4.597e-3
-1.711, 4.551e-3
-1.710, 4.501e-3
-1.709, 4.452e-3
-1.708, 4.394e-3
-1.707, 4.347e-3
-1.706, 4.298e-3
-1.705, 4.252e-3
-1.704, 4.212e-3
-1.703, 4.162e-3
-1.702, 4.116e-3
-1.701, 4.067e-3
-1.700, 4.014e-3
-1.699, 3.959e-3
-1.698, 3.928e-3
-1.697, 3.882e-3
-1.696, 3.829e-3
-1.695, 3.777e-3
-1.694, 3.731e-3
-1.693, 3.703e-3
-1.692, 3.657e-3
-1.691, 3.610e-3
-1.690, 3.558e-3
-1.689, 3.512e-3
-1.688, 3.469e-3
-1.687, 3.422e-3
-1.686, 3.382e-3
-1.685, 3.336e-3
-1.684, 3.296e-3
-1.683, 3.253e-3
-1.682, 3.207e-3
-1.681, 3.163e-3
-1.680, 3.117e-3
-1.679, 3.086e-3
-1.678, 3.049e-3
-1.677, 3.006e-3
-1.676, 2.960e-3
-1.675, 2.917e-3
-1.674, 2.880e-3
-1.673, 2.837e-3
-1.672, 2.800e-3
-1.671, 2.760e-3
-1.670, 2.719e-3
-1.669, 2.682e-3
-1.668, 2.645e-3
-1.667, 2.608e-3
-1.666, 2.571e-3
-1.665, 2.531e-3
-1.664, 2.497e-3
-1.663, 2.460e-3
-1.662, 2.430e-3
-1.661, 2.393e-3
-1.660, 2.353e-3
-1.659, 2.319e-3
-1.658, 2.282e-3
-1.657, 2.251e-3
-1.656, 2.214e-3
-1.655, 2.180e-3
-1.654, 2.149e-3
-1.653, 2.115e-3
-1.652, 2.084e-3
-1.651, 2.054e-3
-1.650, 2.020e-3
-1.649, 1.989e-3
-1.648, 1.955e-3
-1.647, 1.924e-3
-1.646, 1.893e-3
-1.645, 1.862e-3
-1.644, 1.832e-3
-1.643, 1.804e-3
-1.642, 1.779e-3
-1.641, 1.748e-3
-1.640, 1.717e-3
-1.639, 1.690e-3
-1.638, 1.665e-3
-1.637, 1.640e-3
-1.636, 1.613e-3
-1.635, 1.582e-3
-1.634, 1.554e-3
-1.633, 1.529e-3
-1.632, 1.505e-3
-1.631, 1.477e-3
-1.630, 1.452e-3
-1.629, 1.428e-3
-1.628, 1.406e-3
-1.627, 1.381e-3
-1.626, 1.357e-3
-1.625, 1.332e-3
-1.624, 1.310e-3
-1.623, 1.289e-3
-1.622, 1.264e-3
-1.621, 1.243e-3
-1.620, 1.218e-3
-1.619, 1.199e-3
-1.618, 1.178e-3
-1.617, 1.156e-3
-1.616, 1.135e-3
-1.615, 1.113e-3
-1.614, 1.098e-3
-1.613, 1.079e-3
-1.612, 1.058e-3
-1.611, 1.036e-3
-1.610, 1.018e-3
-1.609, 1.005e-3
-1.608, 9.868e-4
-1.607, 9.683e-4
-1.606, 9.467e-4
-1.605, 9.313e-4
-1.604, 9.097e-4
-1.603, 8.943e-4
-1.602, 8.758e-4
-1.601, 8.603e-4
-1.600, 8.449e-4
-1.599, 8.295e-4
-1.598, 8.141e-4
-1.597, 7.987e-4
-1.596, 7.833e-4
-1.595, 7.679e-4
-1.594, 7.555e-4
-1.593, 7.401e-4
-1.592, 7.247e-4
-1.591, 7.185e-4
-1.590, 7.000e-4
-1.589, 6.846e-4
-1.588, 6.723e-4
-1.587, 6.599e-4
-1.586, 6.445e-4
-1.585, 6.322e-4
-1.584, 6.199e-4
-1.583, 6.106e-4
-1.582, 5.952e-4
-1.581, 5.829e-4
-1.580, 5.736e-4
-1.579, 5.613e-4
-1.578, 5.520e-4
-1.577, 5.397e-4
-1.576, 5.274e-4
-1.575, 5.181e-4
-1.574, 5.058e-4
-1.573, 4.965e-4
-1.572, 4.842e-4
-1.571, 4.750e-4
-1.570, 4.657e-4
-1.569, 4.565e-4
-1.568, 4.472e-4
-1.567, 4.380e-4
-1.566, 4.287e-4
-1.565, 4.195e-4
-1.564, 4.102e-4
-1.563, 4.040e-4
-1.562, 3.948e-4
-1.561, 3.855e-4
-1.560, 3.825e-4
-1.559, 3.701e-4
-1.558, 3.609e-4
-1.557, 3.547e-4
-1.556, 3.455e-4
-1.555, 3.393e-4
-1.554, 3.331e-4
-1.553, 3.239e-4
-1.552, 3.177e-4
-1.551, 3.085e-4
-1.550, 3.023e-4
-1.549, 2.992e-4
-1.548, 2.900e-4
-1.547, 2.838e-4
-1.546, 2.776e-4
-1.545, 2.715e-4
-1.544, 2.653e-4
-1.543, 2.622e-4
-1.542, 2.561e-4
-1.541, 2.499e-4
-1.540, 2.437e-4
-1.539, 2.376e-4
-1.538, 2.314e-4
-1.537, 2.283e-4
-1.536, 2.221e-4
-1.535, 2.160e-4
-1.534, 2.129e-4
-1.533, 2.067e-4
-1.532, 2.036e-4
-1.531, 1.975e-4
-1.530, 1.944e-4
-1.529, 1.882e-4
-1.528, 1.851e-4
-1.527, 1.821e-4
-1.526, 1.759e-4
-1.525, 1.728e-4
-1.524, 1.666e-4
-1.523, 1.636e-4
-1.522, 1.605e-4
-1.521, 1.543e-4
-1.520, 1.512e-4
-1.519, 1.481e-4
-1.518, 1.451e-4
-1.517, 1.420e-4
-1.516, 1.358e-4
-1.515, 1.358e-4
-1.514, 1.327e-4
-1.513, 1.296e-4
-1.512, 1.266e-4
-1.511, 1.204e-4
-1.510, 1.173e-4
-1.509, 1.173e-4
-1.508, 1.142e-4
-1.507, 1.111e-4
-1.506, 1.081e-4
-1.505, 1.050e-4
-1.504, 1.019e-4
-1.503, 1.019e-4
-1.502, 9.573e-5
-1.501, 9.882e-5
-1.500, 9.265e-5
-1.499, 8.957e-5
-1.498, 8.957e-5
-1.497, 8.648e-5
-1.496, 8.340e-5
-1.495, 8.032e-5
-1.494, 7.723e-5
-1.493, 7.723e-5
-1.492, 7.415e-5
-1.491, 7.107e-5
-1.490, 7.107e-5
-1.489, 7.107e-5
-1.488, 6.798e-5
-1.487, 6.490e-5
-1.486, 6.182e-5
-1.485, 6.182e-5
-1.484, 5.873e-5
-1.483, 5.873e-5
-1.482, 5.565e-5
-1.481, 5.565e-5
-1.480, 5.257e-5
-1.479, 5.257e-5
-1.478, 5.257e-5
-1.477, 4.949e-5
-1.476, 4.640e-5
-1.475, 4.640e-5
-1.474, 4.640e-5
-1.473, 4.332e-5
-1.472, 4.332e-5
-1.471, 4.024e-5
-1.470, 4.024e-5
-1.469, 4.024e-5
-1.468, 3.715e-5
-1.467, 3.715e-5
-1.466, 3.407e-5
-1.465, 3.407e-5
-1.464, 3.407e-5
-1.463, 3.099e-5
-1.462, 3.099e-5
-1.461, 2.790e-5
-1.460, 2.790e-5
-1.459, 2.790e-5
-1.458, 2.790e-5
-1.457, 2.482e-5
-1.456, 2.482e-5
-1.455, 2.174e-5
-1.454, 2.174e-5
-1.453, 2.174e-5
-1.452, 2.174e-5
-1.451, 1.865e-5
-1.450, 1.865e-5
-1.449, 1.865e-5
-1.448, 1.865e-5
-1.447, 1.557e-5
-1.446, 1.557e-5
-1.445, 1.557e-5
-1.444, 1.557e-5
-1.443, 1.557e-5
-1.442, 1.249e-5
-1.441, 1.249e-5
-1.440, 1.249e-5
-1.439, 1.249e-5
-1.438, 1.249e-5
-1.437, 9.405e-6
-1.436, 9.405e-6
-1.435, 9.405e-6
-1.434, 9.405e-6
-1.433, 9.405e-6
-1.432, 6.322e-6
-1.431, 6.322e-6
-1.430, 6.322e-6
-1.429, 6.322e-6
-1.428, 6.322e-6
-1.427, 3.239e-6
-1.426, 3.239e-6
-1.425, 3.239e-6
-1.424, 3.239e-6
-1.423, 3.239e-6
-1.422, 3.239e-6
-1.421, 3.239e-6
-1.420, 1.559e-7
-1.419, 3.239e-6
-1.418, 1.559e-7
-1.417, 1.559e-7
-1.416, 1.559e-7
-1.415, 1.559e-7
-1.414, 1.559e-7
-1.413, 1.559e-7
-1.412, -2.927e-6
-1.411, -2.927e-6
-1.410, -2.927e-6
-1.409, -2.927e-6
-1.408, -2.927e-6
-1.407, -2.927e-6
-1.406, -2.927e-6
-1.405, -2.927e-6
-1.404, -2.927e-6
-1.403, -2.927e-6
-1.402, -6.010e-6
-1.401, -6.010e-6
-1.400, -6.010e-6
-1.399, -6.010e-6
-1.398, -6.010e-6
-1.397, -6.010e-6
-1.396, -6.010e-6
-1.395, -6.010e-6
-1.394, -6.010e-6
-1.393, -6.010e-6
-1.392, -9.093e-6
-1.391, -9.093e-6
-1.390, -9.093e-6
-1.389, -6.010e-6
-1.388, -9.093e-6
-1.387, -9.093e-6
-1.386, -9.093e-6
-1.385, -9.093e-6
-1.384, -9.093e-6
-1.383, -9.093e-6
-1.382, -9.093e-6
-1.381, -1.218e-5
-1.380, -1.218e-5
-1.379, -9.093e-6
-1.378, -9.093e-6
-1.377, -1.218e-5
-1.376, -1.218e-5
-1.375, -1.218e-5
-1.374, -1.218e-5
-1.373, -9.093e-6
-1.372, -1.218e-5
-1.371, -1.218e-5
-1.370, -1.218e-5
-1.369, -1.218e-5
-1.368, -1.218e-5
-1.367, -1.218e-5
-1.366, -1.218e-5
-1.365, -1.526e-5
-1.364, -1.218e-5
-1.363, -1.218e-5
-1.362, -1.218e-5
-1.361, -1.526e-5
-1.360, -1.526e-5
-1.359, -1.218e-5
-1.358, -1.218e-5
-1.357, -1.526e-5
-1.356, -1.526e-5
-1.355, -1.526e-5
-1.354, -1.218e-5
-1.353, -1.526e-5
-1.352, -1.526e-5
-1.351, -1.526e-5
-1.350, -1.526e-5
-1.349, -1.526e-5
-1.348, -1.526e-5
-1.347, -1.526e-5
-1.346, -1.526e-5
-1.345, -1.526e-5
-1.344, -1.526e-5
-1.343, -1.526e-5
-1.342, -1.526e-5
-1.341, -1.526e-5
-1.340, -1.834e-5
-1.339, -1.526e-5
-1.338, -1.526e-5
-1.337, -1.834e-5
-1.336, -1.834e-5
-1.335, -1.834e-5
-1.334, -1.834e-5
-1.333, -1.526e-5
-1.332, -1.834e-5
-1.331, -1.834e-5
-1.330, -1.834e-5
-1.329, -1.834e-5
-1.328, -1.834e-5
-1.327, -1.834e-5
-1.326, -1.834e-5
-1.325, -1.834e-5
-1.324, -1.834e-5
-1.323, -1.834e-5
-1.322, -1.834e-5
-1.321, -1.834e-5
-1.320, -1.834e-5
-1.319, -1.834e-5
-1.318, -1.834e-5
-1.317, -1.834e-5
-1.316, -1.834e-5
-1.315, -2.143e-5
-1.314, -1.834e-5
-1.313, -1.834e-5
-1.312, -1.834e-5
-1.311, -2.143e-5
-1.310, -2.143e-5
-1.309, -2.143e-5
-1.308, -2.143e-5
-1.307, -2.143e-5
-1.306, -2.143e-5
-1.305, -2.143e-5
-1.304, -2.143e-5
-1.303, -2.143e-5
-1.302, -2.143e-5
-1.301, -2.143e-5
-1.300, -2.143e-5
-1.299, -2.143e-5
-1.298, -2.143e-5
-1.297, -2.143e-5
-1.296, -2.143e-5
-1.295, -2.143e-5
-1.294, -2.143e-5
-1.293, -2.143e-5
-1.292, -2.143e-5
-1.291, -2.143e-5
-1.290, -2.143e-5
-1.289, -2.451e-5
-1.288, -2.143e-5
-1.287, -2.451e-5
-1.286, -2.143e-5
-1.285, -2.451e-5
-1.284, -2.451e-5
-1.283, -2.451e-5
-1.282, -2.451e-5
-1.281, -2.451e-5
-1.280, -2.451e-5
-1.279, -2.451e-5
-1.278, -2.143e-5
-1.277, -2.451e-5
-1.276, -2.451e-5
-1.275, -2.451e-5
-1.274, -2.451e-5
-1.273, -2.451e-5
-1.272, -2.451e-5
-1.271, -2.451e-5
-1.270, -2.451e-5
-1.269, -2.451e-5
-1.268, -2.451e-5
-1.267, -2.451e-5
-1.266, -2.759e-5
-1.265, -2.759e-5
-1.264, -2.451e-5
-1.263, -2.451e-5
-1.262, -2.759e-5
-1.261, -2.759e-5
-1.260, -2.759e-5
-1.259, -2.759e-5
-1.258, -2.451e-5
-1.257, -2.759e-5
-1.256, -2.759e-5
-1.255, -2.759e-5
-1.254, -2.759e-5
-1.253, -2.759e-5
-1.252, -2.759e-5
-1.251, -2.759e-5
-1.250, -2.759e-5
-1.249, -2.759e-5
-1.248, -2.759e-5
-1.247, -2.759e-5
-1.246, -2.759e-5
-1.245, -2.759e-5
-1.244, -2.759e-5
-1.243, -2.759e-5
-1.242, -3.068e-5
-1.241, -3.068e-5
-1.240, -3.068e-5
-1.239, -2.759e-5
-1.238, -2.759e-5
-1.237, -3.068e-5
-1.236, -3.068e-5
-1.235, -3.068e-5
-1.234, -3.068e-5
-1.233, -3.068e-5
-1.232, -3.068e-5
-1.231, -3.376e-5
-1.230, -3.068e-5
-1.229, -3.068e-5
-1.228, -3.376e-5
-1.227, -3.376e-5
-1.226, -3.376e-5
-1.225, -3.376e-5
-1.224, -3.068e-5
-1.223, -3.376e-5
-1.222, -3.376e-5
-1.221, -3.376e-5
-1.220, -3.376e-5
-1.219, -3.376e-5
-1.218, -3.068e-5
-1.217, -3.376e-5
-1.216, -3.376e-5
-1.215, -3.376e-5
-1.214, -3.376e-5
-1.213, -3.376e-5
-1.212, -3.376e-5
-1.211, -3.684e-5
-1.210, -3.684e-5
-1.209, -3.376e-5
-1.208, -3.376e-5
-1.207, -3.684e-5
-1.206, -3.684e-5
-1.205, -3.684e-5
-1.204, -3.684e-5
-1.203, -3.684e-5
-1.202, -3.684e-5
-1.201, -3.992e-5
-1.200, -3.684e-5
-1.199, -3.684e-5
-1.198, -3.684e-5
-1.197, -3.992e-5
-1.196, -3.992e-5
-1.195, -3.992e-5
-1.194, -3.992e-5
-1.193, -3.992e-5
-1.192, -3.992e-5
-1.191, -3.992e-5
-1.190, -4.301e-5
-1.189, -3.992e-5
-1.188, -3.992e-5
-1.187, -3.992e-5
-1.186, -4.301e-5
-1.185, -4.301e-5
-1.184, -4.301e-5
-1.183, -4.301e-5
-1.182, -4.301e-5
-1.181, -4.301e-5
-1.180, -4.301e-5
-1.179, -4.301e-5
-1.178, -4.301e-5
-1.177, -4.609e-5
-1.176, -4.609e-5
-1.175, -4.609e-5
-1.174, -4.301e-5
-1.173, -4.609e-5
-1.172, -4.609e-5
-1.171, -4.609e-5
-1.170, -4.609e-5
-1.169, -4.609e-5
-1.168, -4.609e-5
-1.167, -4.917e-5
-1.166, -4.917e-5
-1.165, -4.917e-5
-1.164, -4.609e-5
-1.163, -4.609e-5
-1.162, -4.917e-5
-1.161, -4.917e-5
-1.160, -4.917e-5
-1.159, -4.917e-5
-1.158, -4.917e-5
-1.157, -5.226e-5
-1.156, -5.226e-5
-1.155, -5.226e-5
-1.154, -5.226e-5
-1.153, -5.226e-5
-1.152, -5.226e-5
-1.151, -5.226e-5
-1.150, -5.534e-5
-1.149, -5.226e-5
-1.148, -5.226e-5
-1.147, -5.534e-5
-1.146, -5.534e-5
-1.145, -5.534e-5
-1.144, -5.534e-5
-1.143, -5.534e-5
-1.142, -5.534e-5
-1.141, -5.842e-5
-1.140, -5.842e-5
-1.139, -5.534e-5
-1.138, -5.534e-5
-1.137, -5.842e-5
-1.136, -5.842e-5
-1.135, -5.842e-5
-1.134, -5.842e-5
-1.133, -5.842e-5
-1.132, -6.151e-5
-1.131, -6.151e-5
-1.130, -6.151e-5
-1.129, -6.151e-5
-1.128, -6.151e-5
-1.127, -6.151e-5
-1.126, -6.459e-5
-1.125, -6.459e-5
-1.124, -6.459e-5
-1.123, -6.459e-5
-1.122, -6.459e-5
-1.121, -6.459e-5
-1.120, -6.459e-5
-1.119, -6.767e-5
-1.118, -6.767e-5
-1.117, -6.767e-5
-1.116, -6.767e-5
-1.115, -6.767e-5
-1.114, -6.767e-5
-1.113, -6.767e-5
-1.112, -7.076e-5
-1.111, -7.076e-5
-1.110, -7.076e-5
-1.109, -7.076e-5
-1.108, -7.076e-5
-1.107, -7.384e-5
-1.106, -7.384e-5
-1.105, -7.384e-5
-1.104, -7.384e-5
-1.103, -7.384e-5
-1.102, -7.692e-5
-1.101, -7.692e-5
-1.100, -7.692e-5
-1.099, -7.692e-5
-1.098, -7.692e-5
-1.097, -8.000e-5
-1.096, -8.000e-5
-1.095, -8.000e-5
-1.094, -8.000e-5
-1.093, -8.000e-5
-1.092, -8.309e-5
-1.091, -8.309e-5
-1.090, -8.309e-5
-1.089, -8.309e-5
-1.088, -8.309e-5
-1.087, -8.617e-5
-1.086, -8.617e-5
-1.085, -8.617e-5
-1.084, -8.617e-5
-1.083, -8.925e-5
-1.082, -8.925e-5
-1.081, -8.925e-5
-1.080, -9.234e-5
-1.079, -9.234e-5
-1.078, -9.234e-5
-1.077, -9.234e-5
-1.076, -9.542e-5
-1.075, -9.542e-5
-1.074, -9.542e-5
-1.073, -9.542e-5
-1.072, -9.542e-5
-1.071, -9.850e-5
-1.070, -9.850e-5
-1.069, -9.850e-5
-1.068, -1.016e-4
-1.067, -1.016e-4
-1.066, -1.016e-4
-1.065, -1.047e-4
-1.064, -1.047e-4
-1.063, -1.047e-4
-1.062, -1.047e-4
-1.061, -1.078e-4
-1.060, -1.078e-4
-1.059, -1.078e-4
-1.058, -1.078e-4
-1.057, -1.108e-4
-1.056, -1.139e-4
-1.055, -1.139e-4
-1.054, -1.139e-4
-1.053, -1.139e-4
-1.052, -1.170e-4
-1.051, -1.170e-4
-1.050, -1.201e-4
-1.049, -1.201e-4
-1.048, -1.201e-4
-1.047, -1.201e-4
-1.046, -1.232e-4
-1.045, -1.232e-4
-1.044, -1.232e-4
-1.043, -1.232e-4
-1.042, -1.263e-4
-1.041, -1.293e-4
-1.040, -1.293e-4
-1.039, -1.293e-4
-1.038, -1.293e-4
-1.037, -1.324e-4
-1.036, -1.355e-4
-1.035, -1.355e-4
-1.034, -1.355e-4
-1.033, -1.355e-4
-1.032, -1.355e-4
-1.031, -1.386e-4
-1.030, -1.417e-4
-1.029, -1.417e-4
-1.028, -1.417e-4
-1.027, -1.448e-4
-1.026, -1.448e-4
-1.025, -1.448e-4
-1.024, -1.478e-4
-1.023, -1.478e-4
-1.022, -1.509e-4
-1.021, -1.509e-4
-1.020, -1.540e-4
-1.019, -1.540e-4
-1.018, -1.540e-4
-1.017, -1.571e-4
-1.016, -1.571e-4
-1.015, -1.602e-4
-1.014, -1.602e-4
-1.013, -1.602e-4
-1.012, -1.632e-4
-1.011, -1.632e-4
-1.010, -1.663e-4
-1.009, -1.663e-4
-1.008, -1.663e-4
-1.007, -1.694e-4
-1.006, -1.725e-4
-1.005, -1.725e-4
-1.004, -1.756e-4
-1.003, -1.756e-4
-1.002, -1.787e-4
-1.001, -1.787e-4
