Potential V vs RHE, Current mA cm-2
0.013299999999999867,0.2594580523952477
0.012299999999999978,-0.8745745255765657
0.011299999999999866,-1.8334658446250875
0.010299999999999976,-2.662486666345999
0.009299999999999864,-3.361354048479327
0.008299999999999974,-3.971094618721158
0.007299999999999862,-4.538393849967037
0.006299999999999972,-5.0618370309171015
0.00529999999999986,-5.5414241615713475
0.0042999999999999705,-6.064867342521412
0.0032999999999998586,-6.632166573767292
0.0022999999999999687,-7.155609754717355
0.0012999999999998568,-7.722908985963235
0.00029999999999996696,-8.11478401602585
-0.000700000000000145,-8.594371146680096
-0.0017000000000000348,-8.899948787450944
-0.0027000000000001467,-9.205526428221793
-0.0037000000000000366,-9.423391968401008
-0.0047000000000001485,-9.59740145828441
-0.005700000000000038,-9.85912304875944
-0.00670000000000015,-10.120844639234473
-0.00770000000000004,-10.382566229709504
-0.008700000000000152,-10.731999920776168
-0.009700000000000042,-11.037577561547016
-0.010700000000000154,-11.343155202317865
-0.011700000000000044,-11.56102074249708
-0.012700000000000156,-11.778886282676295
-0.013700000000000045,-11.909039722263879
-0.014700000000000157,-12.040607873151327
-0.015700000000000047,-12.084463923447142
-0.01670000000000016,-12.170761312738911
-0.01770000000000005,-12.258473413330542
-0.01870000000000016,-12.432482903213943
-0.01970000000000005,-12.607907104397206
-0.020700000000000163,-12.825772644576423
-0.021700000000000053,-13.043638184755638
-0.022700000000000164,-13.217647674639037
-0.023700000000000054,-13.436927926118118
-0.024700000000000166,-13.567081365705702
-0.025700000000000056,-13.610937416001518
-0.026700000000000168,-13.654793466297335
-0.027700000000000058,-13.654793466297335
-0.02870000000000017,-13.654793466297335
-0.02970000000000006,-13.698649516593148
-0.03070000000000017,-13.828802956180734
-0.03170000000000006,-13.960371107068182
-0.03270000000000017,-14.175407224647667
-0.03370000000000006,-14.345172580631472
-0.034700000000000175,-14.486643710617974
-0.035700000000000065,-14.57152638860988
-0.03670000000000018,-14.61396772760583
-0.03770000000000007,-14.61396772760583
-0.03870000000000018,-14.65640906660178
-0.03970000000000007,-14.57152638860988
-0.04070000000000018,-14.61396772760583
-0.04170000000000007,-14.61396772760583
-0.04270000000000018,-14.69885040559773
-0.04370000000000007,-14.826174422585586
-0.044700000000000184,-14.967645552572087
-0.045700000000000074,-15.094969569559943
-0.046700000000000186,-15.179852247551842
-0.047700000000000076,-15.264734925543747
-0.04870000000000019,-15.307176264539699
-0.04970000000000008,-15.264734925543747
-0.05070000000000019,-15.179852247551842
-0.05170000000000008,-15.137410908555893
-0.05270000000000019,-15.137410908555893
-0.05370000000000008,-15.179852247551842
-0.05470000000000019,-15.264734925543747
-0.05570000000000008,-15.3920589425316
-0.056700000000000195,-15.575971411514052
-0.057700000000000085,-15.660854089505953
-0.058700000000000196,-15.78817810649381
-0.059700000000000086,-15.830619445489761
-0.0607000000000002,-15.78817810649381
-0.06170000000000009,-15.78817810649381
-0.0627000000000002,-15.74573676749786
-0.06370000000000009,-15.70329542850191
-0.0647000000000002,-15.660854089505953
-0.06570000000000009,-15.70329542850191
-0.0667000000000002,-15.74573676749786
-0.0677000000000001,-15.830619445489761
-0.0687000000000002,-15.972090575476265
-0.0697000000000001,-16.014531914472215
-0.07070000000000021,-16.099414592464115
-0.0717000000000001,-16.056973253468165
-0.07270000000000021,-16.056973253468165
-0.0737000000000001,-16.014531914472215
-0.07470000000000021,-15.91550212348166
-0.0757000000000001,-15.91550212348166
-0.07670000000000021,-15.91550212348166
-0.0777000000000001,-16.056973253468165
-0.07870000000000021,-16.141855931460068
-0.0797000000000001,-16.269179948447924
-0.08070000000000022,-16.438945304431726
-0.0817000000000001,-16.495533756426326
-0.08270000000000022,-16.580416434418233
-0.08370000000000011,-16.580416434418233
-0.08470000000000022,-16.495533756426326
-0.08570000000000011,-16.396503965435777
-0.08670000000000022,-16.311621287443874
-0.08770000000000011,-16.269179948447924
-0.08870000000000022,-16.311621287443874
-0.08970000000000011,-16.354062626439823
-0.09070000000000022,-16.438945304431726
-0.09170000000000011,-16.53797509542228
-0.09270000000000023,-16.580416434418233
-0.09370000000000012,-16.622857773414182
-0.09470000000000023,-16.622857773414182
-0.09570000000000012,-16.495533756426326
-0.09670000000000023,-16.438945304431726
-0.09770000000000012,-16.311621287443874
-0.09870000000000023,-16.269179948447924
-0.09970000000000012,-16.22673860945197
-0.10070000000000023,-16.22673860945197
-0.10170000000000012,-16.269179948447924
-0.10270000000000024,-16.354062626439823
-0.10370000000000013,-16.495533756426326
-0.10470000000000024,-16.53797509542228
-0.10570000000000013,-16.580416434418233
-0.10670000000000024,-16.53797509542228
-0.10770000000000013,-16.53797509542228
-0.10870000000000024,-16.438945304431726
-0.10970000000000013,-16.396503965435777
-0.11070000000000024,-16.354062626439823
-0.11170000000000013,-16.354062626439823
-0.11270000000000002,-16.438945304431726
-0.11370000000000013,-16.53797509542228
-0.11470000000000002,-16.665299112410132
-0.11570000000000014,-16.750181790402035
-0.11670000000000003,-16.792623129397985
-0.11770000000000014,-16.835064468393938
-0.11870000000000003,-16.792623129397985
-0.11970000000000014,-16.750181790402035
-0.12070000000000003,-16.665299112410132
-0.12170000000000014,-16.580416434418233
-0.12270000000000003,-16.53797509542228
-0.12370000000000014,-16.53797509542228
-0.12470000000000003,-16.665299112410132
-0.12570000000000014,-16.70774045140608
-0.12670000000000003,-16.835064468393938
-0.12770000000000015,-16.919947146385837
-0.12870000000000004,-16.962388485381787
-0.12970000000000015,-16.962388485381787
-0.13070000000000004,-16.919947146385837
-0.13170000000000015,-16.919947146385837
-0.13270000000000004,-16.792623129397985
-0.13370000000000015,-16.792623129397985
-0.13470000000000004,-16.70774045140608
-0.13570000000000015,-16.750181790402035
-0.13670000000000004,-16.792623129397985
-0.13770000000000016,-16.877505807389888
-0.13870000000000005,-16.962388485381787
-0.13970000000000016,-17.061418276372343
-0.14070000000000005,-17.103859615368293
-0.14170000000000016,-17.103859615368293
-0.14270000000000005,-17.061418276372343
-0.14370000000000016,-17.018976937376394
-0.14470000000000005,-16.919947146385837
-0.14570000000000016,-16.919947146385837
-0.14670000000000005,-16.877505807389888
-0.14770000000000016,-16.919947146385837
-0.14870000000000005,-17.018976937376394
-0.14970000000000017,-17.103859615368293
-0.15070000000000006,-17.231183632356142
-0.15170000000000017,-17.2736249713521
-0.15270000000000006,-17.2736249713521
-0.15370000000000017,-17.231183632356142
-0.15470000000000006,-17.188742293360193
-0.15570000000000017,-17.146300954364243
-0.15670000000000006,-17.061418276372343
-0.15770000000000017,-17.018976937376394
-0.15870000000000006,-17.018976937376394
-0.15970000000000018,-17.061418276372343
-0.16070000000000007,-17.188742293360193
-0.16170000000000018,-17.2736249713521
-0.16270000000000007,-17.358507649344002
-0.16370000000000018,-17.40094898833995
-0.16470000000000007,-17.4433903273359
-0.16570000000000018,-17.40094898833995
-0.16670000000000007,-17.40094898833995
-0.16770000000000018,-17.2736249713521
-0.16870000000000007,-17.231183632356142
-0.16970000000000018,-17.188742293360193
-0.17070000000000007,-17.231183632356142
-0.17170000000000019,-17.2736249713521
-0.17270000000000008,-17.358507649344002
-0.1737000000000002,-17.48583166633185
-0.17470000000000008,-17.584861457322408
-0.1757000000000002,-17.627302796318357
-0.17670000000000008,-17.627302796318357
-0.1777000000000002,-17.584861457322408
-0.17870000000000008,-17.48583166633185
-0.1797000000000002,-17.4433903273359
-0.18070000000000008,-17.40094898833995
-0.1817000000000002,-17.358507649344002
-0.18270000000000008,-17.40094898833995
-0.1837000000000002,-17.40094898833995
-0.1847000000000001,-17.584861457322408
-0.1857000000000002,-17.669744135314307
-0.1867000000000001,-17.75462681330621
-0.1877000000000002,-17.797068152302163
-0.1887000000000001,-17.75462681330621
-0.1897000000000002,-17.75462681330621
-0.1907000000000001,-17.71218547431026
-0.1917000000000001,-17.669744135314307
-0.19269999999999998,-17.627302796318357
-0.1937000000000001,-17.627302796318357
-0.19469999999999998,-17.71218547431026
-0.1957000000000001,-17.797068152302163
-0.19669999999999999,-17.924392169290012
-0.1977000000000001,-17.966833508285966
-0.1987,-18.10830463827247
-0.1997000000000001,-18.10830463827247
-0.2007,-18.06586329927652
-0.2017000000000001,-18.009274847281915
-0.2027,-17.881950830294063
-0.2037000000000001,-17.839509491298113
-0.2047,-17.797068152302163
-0.2057000000000001,-17.839509491298113
-0.2067,-17.881950830294063
-0.2077000000000001,-17.966833508285966
-0.2087,-18.10830463827247
-0.2097000000000001,-18.15074597726842
-0.2107,-18.23562865526032
-0.2117000000000001,-18.27806999425627
-0.2127,-18.23562865526032
-0.2137000000000001,-18.19318731626437
-0.2147,-18.15074597726842
-0.2157000000000001,-18.10830463827247
-0.2167,-18.10830463827247
-0.21770000000000012,-18.15074597726842
-0.2187,-18.19318731626437
-0.21970000000000012,-18.27806999425627
-0.2207,-18.362952672248177
-0.22170000000000012,-18.40539401124413
-0.2227,-18.44783535024008
-0.22370000000000012,-18.44783535024008
-0.2247,-18.362952672248177
-0.22570000000000012,-18.320511333252224
-0.2267,-18.27806999425627
-0.22770000000000012,-18.23562865526032
-0.22870000000000001,-18.23562865526032
-0.22970000000000013,-18.362952672248177
-0.23070000000000002,-18.44783535024008
-0.23170000000000013,-18.589306480226583
-0.23270000000000002,-18.674189158218486
-0.23370000000000013,-18.759071836210385
-0.23470000000000002,-18.759071836210385
-0.23570000000000013,-18.759071836210385
-0.23670000000000002,-18.716630497214435
-0.2376999999999999,-18.631747819222536
-0.23870000000000002,-18.589306480226583
-0.2396999999999999,-18.53271802823198
-0.24070000000000003,-18.589306480226583
-0.24169999999999991,-18.674189158218486
-0.24270000000000003,-18.759071836210385
-0.24369999999999992,-18.88639585319824
-0.24470000000000003,-18.92883719219419
-0.24569999999999992,-19.01371987018609
-0.24670000000000003,-19.01371987018609
-0.24769999999999992,-19.01371987018609
-0.24870000000000003,-18.97127853119014
-0.24969999999999992,-18.92883719219419
-0.25070000000000003,-18.92883719219419
-0.2516999999999999,-18.92883719219419
-0.25270000000000004,-19.01371987018609
-0.2536999999999999,-19.112749661176647
-0.25470000000000004,-19.197632339168546
-0.2556999999999999,-19.28251501716045
-0.25670000000000004,-19.367397695152352
-0.25769999999999993,-19.452280373144255
-0.25870000000000004,-19.409839034148305
-0.25969999999999993,-19.367397695152352
-0.26070000000000004,-19.28251501716045
-0.26169999999999993,-19.2400736781645
-0.26270000000000004,-19.2400736781645
-0.26369999999999993,-19.2400736781645
-0.26470000000000005,-19.3249563561564
-0.26569999999999994,-19.409839034148305
-0.26670000000000005,-19.537163051136158
-0.26769999999999994,-19.636192842126707
-0.26870000000000005,-19.721075520118614
-0.26969999999999994,-19.721075520118614
-0.27070000000000005,-19.721075520118614
-0.27169999999999994,-19.721075520118614
-0.27270000000000005,-19.636192842126707
-0.27369999999999994,-19.636192842126707
-0.27470000000000006,-19.579604390132108
-0.27569999999999995,-19.636192842126707
-0.27670000000000006,-19.763516859114564
-0.27769999999999995,-19.848399537106463
-0.27870000000000006,-19.97572355409432
-0.27969999999999995,-20.06060623208622
-0.28070000000000006,-20.244518701068674
-0.28169999999999995,-20.244518701068674
-0.28270000000000006,-20.286960040064624
-0.28369999999999995,-20.244518701068674
-0.28470000000000006,-20.159636023076775
-0.28569999999999995,-20.159636023076775
-0.28670000000000007,-20.202077362072725
-0.28769999999999996,-20.244518701068674
-0.28870000000000007,-20.329401379060574
-0.28969999999999996,-20.456725396048434
-0.29070000000000007,-20.626490752032236
-0.29169999999999996,-20.72552054302279
-0.29270000000000007,-20.810403221014692
-0.29369999999999996,-20.810403221014692
-0.2947000000000001,-20.76796188201874
-0.29569999999999996,-20.72552054302279
-0.2967000000000001,-20.683079204026836
-0.29769999999999996,-20.683079204026836
-0.2987000000000001,-20.72552054302279
-0.29969999999999997,-20.810403221014692
-0.3007000000000001,-20.93772723800254
-0.30169999999999997,-21.107492593986347
-0.3027000000000001,-21.248963723972853
-0.30369999999999997,-21.333846401964752
-0.3047000000000001,-21.376287740960702
-0.30569999999999997,-21.418729079956652
-0.3067000000000001,-21.376287740960702
-0.3077,-21.376287740960702
-0.3087000000000001,-21.333846401964752
-0.3097,-21.376287740960702
-0.3107000000000001,-21.461170418952605
-0.3117,-21.54605309694451
-0.3127000000000001,-21.67337711393236
-0.3137,-21.899730921910766
-0.3147000000000001,-21.98461359990267
-0.3157,-22.111937616890522
-0.3167000000000001,-22.15437895588647
-0.3177,-22.15437895588647
-0.3187000000000001,-22.196820294882425
-0.3197,-22.196820294882425
-0.3207000000000001,-22.253408746877028
-0.3217,-22.295850085872978
-0.3227000000000001,-22.42317410286083
-0.3237,-22.550498119848687
-0.3247000000000001,-22.67782213683654
-0.3257,-22.861734605818995
-0.3267000000000001,-23.031499961802798
-0.3277,-23.1163826397947
-0.3287000000000001,-23.2012653177866
-0.3297,-23.2012653177866
-0.3307000000000001,-23.24370665678255
-0.3317,-23.24370665678255
-0.3327000000000001,-23.24370665678255
-0.3337,-23.300295108777156
-0.3347000000000001,-23.427619125765005
-0.3357,-23.51250180375691
-0.3367000000000001,-23.724708498736668
-0.3377,-23.908620967719123
-0.3387000000000001,-24.035944984706973
-0.3397,-24.16326900169483
-0.3407000000000001,-24.20571034069078
-0.3417,-24.290593018682678
-0.3427000000000001,-24.24815167968673
-0.3437,-24.290593018682678
-0.3447000000000001,-24.34718147067728
-0.3457,-24.432064148669184
-0.3467000000000001,-24.601829504652986
-0.3477,-24.814036199632742
-0.3487000000000001,-24.997948668615198
-0.3497,-25.167714024599
-0.3507000000000001,-25.295038041586857
-0.3517,-25.39406783257741
-0.3527000000000001,-25.478950510569312
-0.3537,-25.478950510569312
-0.3547000000000001,-25.521391849565262
-0.3557,-25.563833188561212
-0.35670000000000013,-25.648715866553115
-0.3577,-25.77603988354097
-0.35870000000000013,-25.959952352523427
-0.3597,-26.129717708507226
-0.36070000000000013,-26.29948306449103
-0.3617,-26.483395533473487
-0.3626999999999999,-26.65316088945729
-0.3637,-26.738043567449193
-0.3646999999999999,-26.86536758443705
-0.3657,-26.907808923433
-0.3666999999999999,-27.00683871442355
-0.3677,-27.134162731411404
-0.3686999999999999,-27.303928087395207
-0.36970000000000003,-27.530281895373616
-0.3706999999999999,-27.78492992934932
-0.37170000000000003,-28.05372507632368
-0.3726999999999999,-28.308373110299385
-0.37370000000000003,-28.478138466283188
-0.3746999999999999,-28.619609596269694
-0.37570000000000003,-28.662050935265643
-0.3766999999999999,-28.789374952253496
-0.37770000000000004,-28.8742576302454
-0.3786999999999999,-28.959140308237306
-0.37970000000000004,-29.100611438223805
-0.3806999999999999,-29.22793545521166
-0.38170000000000004,-29.440142150191413
-0.38269999999999993,-29.66649595816982
-0.38370000000000004,-29.921143992145527
-0.38469999999999993,-30.147497800123933
-0.38570000000000004,-30.402145834099635
-0.38669999999999993,-30.571911190083444
-0.38770000000000004,-30.71338232006995
-0.38869999999999993,-30.8407063370578
-0.38970000000000005,-30.925589015049702
-0.39069999999999994,-31.052913032037555
-0.39170000000000005,-31.23682550102001
-0.39269999999999994,-31.449032195999767
-0.39370000000000005,-31.76026868197007
-0.39469999999999994,-32.01491671594578
-0.39570000000000005,-32.32615320191609
-0.39669999999999994,-32.58080123589179
-0.39770000000000005,-32.84959638286615
-0.39869999999999994,-33.10424441684186
-0.39970000000000006,-33.288156885824314
-0.40069999999999995,-33.41548090281216
-0.40170000000000006,-33.58524625879597
-0.40269999999999995,-33.712570275783825
-0.40370000000000006,-33.98136542275818
-0.40469999999999995,-34.278454795729836
-0.40570000000000006,-34.58969128170015
-0.40669999999999995,-34.94336910666641
-0.40770000000000006,-35.198017140642115
-0.40869999999999995,-35.55169496560837
-0.40970000000000006,-35.806342999584075
-0.41069999999999995,-36.03269680756248
-0.41170000000000007,-36.244903502542236
-0.41269999999999996,-36.4288159715247
-0.41370000000000007,-36.725905344496354
-0.41469999999999996,-37.07958316946261
-0.41570000000000007,-37.376672542434264
-0.41669999999999996,-37.77279170639648
-0.41770000000000007,-38.211352209354644
-0.41869999999999996,-38.6499127123128
-0.4197000000000001,-38.94700208528445
-0.42069999999999996,-39.258238571254765
-0.4217000000000001,-39.51288660523048
-0.42269999999999996,-39.78168175220483
-0.4237000000000001,-39.99388844718459
-0.42469999999999997,-40.26268359415894
-0.4257000000000001,-40.616361419125205
-0.42669999999999997,-40.95589213109281
-0.4277000000000001,-41.352011295055014
-0.42869999999999997,-41.74813045901723
-0.4297000000000001,-42.130102509980794
-0.43069999999999997,-42.568663012938956
-0.4317000000000001,-43.007223515897124
-0.4327,-43.44578401885527
-0.4337000000000001,-43.75702050482558
-0.4347,-44.138992555789144
-0.4357000000000001,-44.45022904175945
-0.4367,-44.66243573673921
-0.4377000000000001,-44.97367222270952
-0.4387,-45.32735004767578
-0.4397000000000001,-45.75176343763528
-0.4407,-46.2327652795894
-0.4417000000000001,-46.713767121543505
-0.4427,-47.19476896349763
-0.4437000000000001,-47.633329466455784
-0.4447,-48.071889969413945
-0.4457000000000001,-48.45386202037751
-0.4467,-48.89242252333566
-0.4477000000000001,-49.20365900930597
-0.4487,-49.557336834272235
-0.4497000000000001,-49.939308885235796
-0.4507,-50.0807800152223
-0.4517000000000001,-50.60422319617236
-0.4527,-51.071077925127824
-0.4537000000000001,-51.594521106077885
-0.4547,-52.11796428702795
-0.4557000000000001,-52.59896612898206
-0.4567,-53.03752663194023
-0.4577000000000001,-53.433645795902436
-0.4587,-53.82976495986464
-0.4597000000000001,-54.2117370108282
-0.4607,-54.73518019177827
-0.4617000000000001,-55.21618203373238
-0.4627,-55.73962521468245
-0.4637000000000001,-56.30550973462846
-0.4647,-56.97042404556503
-0.4657000000000001,-57.493867226515086
-0.4667,-58.017310407465146
-0.4677000000000001,-58.54075358841522
-0.4687,-58.880284300382826
-0.4697000000000001,-59.27640346434504
-0.4707,-59.7149639673032
-0.4717000000000001,-60.15352447026136
-0.4727,-60.59208497321952
-0.4737000000000001,-61.01649836317903
-0.4747,-61.242852171157445
-0.4757000000000001,-61.7662953521075
-0.4767,-62.37462121104946
-0.4777000000000001,-62.94050573099548
-0.4787,-63.54883158993744
-0.4797000000000001,-64.11471610988345
-0.4807,-64.59571795183757
-0.48170000000000013,-65.16160247178358
-0.4827,-65.60016297474175
-0.48370000000000013,-66.16604749468777
-0.4847,-66.64704933664189
-0.48570000000000013,-67.21293385658788
-0.4867,-67.08560983960004
-0.48570000000000013,-65.76992833072556
-0.4847,-64.63815929083353
-0.48370000000000013,-63.59127292893339
-0.4827,-62.58682790602922
-0.48170000000000013,-61.28529351015339
-0.4807,-60.28084848724921
-0.4797000000000001,-59.36128614233694
-0.4787,-58.498312249419264
-0.4777000000000001,-57.66363258249889
-0.4767,-56.82895291557852
-0.4757000000000001,-56.05086170065276
-0.4747,-55.357653163718886
-0.4737000000000001,-54.65029751378637
-0.4727,-54.1268543328363
-0.4717000000000001,-53.518528473894335
-0.4707,-52.95264395394832
-0.4697000000000001,-52.30187675601041
-0.4687,-51.55207976708194
-0.4677000000000001,-50.547634744177756
-0.4667,-49.81198486824794
