Aug. 11, 2024   13:39:51
Cyclic Voltammetry
File: c:/users/guazh/data/20240802_batch_500/2024-08-02-exp83\exp83-2024-08-11t13_17_35-h2koh\exp83_cv_sr_50mvs_efin_-1900mv.bin
Data Source:  Experiment
Instrument Model:  CHI760E
Header: CV ran at 50 mVs
Note: 

Init E (V) = -1
High E (V) = -1
Low E (V) = -1.9
Final E (V) = -1
Init P/N = N
Scan Rate (V/s) = 0.05
Segment = 3
Sample Interval (V) = 0.001
Quiet Time (sec) = 2
Sensitivity (A/V) = 0.01
Comp R (ohm) = 2.1

Results:

Channel 1:
Segment 1:

Segment 2:

Segment 3:

Potential/V, Current/A

-1.000, -3.189e-6
-1.001, -2.153e-6
-1.002, -1.659e-6
-1.003, -1.235e-6
-1.004, -8.110e-7
-1.005, -6.827e-7
-1.006, -4.361e-7
-1.007, -4.361e-7
-1.008, 1.776e-8
-1.009, 1.953e-7
-1.010, 2.940e-7
-1.011, 4.124e-7
-1.012, 5.505e-7
-1.013, 7.478e-7
-1.014, 8.958e-7
-1.015, 1.054e-6
-1.016, 1.044e-6
-1.017, 1.093e-6
-1.018, 1.281e-6
-1.019, 1.448e-6
-1.020, 1.537e-6
-1.021, 1.498e-6
-1.022, 1.557e-6
-1.023, 1.794e-6
-1.024, 2.080e-6
-1.025, 2.129e-6
-1.026, 2.060e-6
-1.027, 2.070e-6
-1.028, 2.277e-6
-1.029, 2.346e-6
-1.030, 2.376e-6
-1.031, 2.356e-6
-1.032, 2.386e-6
-1.033, 2.701e-6
-1.034, 2.849e-6
-1.035, 2.721e-6
-1.036, 2.760e-6
-1.037, 2.820e-6
-1.038, 2.997e-6
-1.039, 3.076e-6
-1.040, 3.096e-6
-1.041, 2.948e-6
-1.042, 3.106e-6
-1.043, 3.214e-6
-1.044, 3.244e-6
-1.045, 3.274e-6
-1.046, 3.244e-6
-1.047, 3.185e-6
-1.048, 3.481e-6
-1.049, 3.560e-6
-1.050, 3.550e-6
-1.051, 3.599e-6
-1.052, 3.629e-6
-1.053, 3.698e-6
-1.054, 3.816e-6
-1.055, 3.757e-6
-1.056, 3.777e-6
-1.057, 3.816e-6
-1.058, 4.043e-6
-1.059, 4.053e-6
-1.060, 3.944e-6
-1.061, 3.974e-6
-1.062, 3.994e-6
-1.063, 4.171e-6
-1.064, 4.231e-6
-1.065, 4.240e-6
-1.066, 4.211e-6
-1.067, 4.201e-6
-1.068, 4.240e-6
-1.069, 4.438e-6
-1.070, 4.457e-6
-1.071, 4.398e-6
-1.072, 4.349e-6
-1.073, 4.507e-6
-1.074, 4.586e-6
-1.075, 4.576e-6
-1.076, 4.615e-6
-1.077, 4.566e-6
-1.078, 4.744e-6
-1.079, 4.842e-6
-1.080, 4.704e-6
-1.081, 4.714e-6
-1.082, 4.714e-6
-1.083, 4.990e-6
-1.084, 4.901e-6
-1.085, 4.961e-6
-1.086, 4.832e-6
-1.087, 4.882e-6
-1.088, 5.118e-6
-1.089, 5.148e-6
-1.090, 5.207e-6
-1.091, 5.000e-6
-1.092, 5.020e-6
-1.093, 5.168e-6
-1.094, 5.247e-6
-1.095, 5.207e-6
-1.096, 5.099e-6
-1.097, 5.197e-6
-1.098, 5.306e-6
-1.099, 5.336e-6
-1.100, 5.355e-6
-1.101, 5.375e-6
-1.102, 5.375e-6
-1.103, 5.454e-6
-1.104, 5.533e-6
-1.105, 5.444e-6
-1.106, 5.405e-6
-1.107, 5.434e-6
-1.108, 5.681e-6
-1.109, 5.661e-6
-1.110, 5.651e-6
-1.111, 5.533e-6
-1.112, 5.553e-6
-1.113, 5.760e-6
-1.114, 5.829e-6
-1.115, 5.691e-6
-1.116, 5.730e-6
-1.117, 5.770e-6
-1.118, 5.819e-6
-1.119, 5.878e-6
-1.120, 5.898e-6
-1.121, 5.819e-6
-1.122, 5.799e-6
-1.123, 6.016e-6
-1.124, 6.066e-6
-1.125, 5.967e-6
-1.126, 5.858e-6
-1.127, 5.997e-6
-1.128, 6.095e-6
-1.129, 6.115e-6
-1.130, 6.056e-6
-1.131, 5.918e-6
-1.132, 5.987e-6
-1.133, 6.164e-6
-1.134, 6.204e-6
-1.135, 6.105e-6
-1.136, 6.105e-6
-1.137, 6.184e-6
-1.138, 6.204e-6
-1.139, 6.362e-6
-1.140, 6.223e-6
-1.141, 6.273e-6
-1.142, 6.164e-6
-1.143, 6.352e-6
-1.144, 6.391e-6
-1.145, 6.302e-6
-1.146, 6.283e-6
-1.147, 6.283e-6
-1.148, 6.480e-6
-1.149, 6.608e-6
-1.150, 6.510e-6
-1.151, 6.381e-6
-1.152, 6.490e-6
-1.153, 6.677e-6
-1.154, 6.736e-6
-1.155, 6.569e-6
-1.156, 6.480e-6
-1.157, 6.490e-6
-1.158, 6.648e-6
-1.159, 6.835e-6
-1.160, 6.776e-6
-1.161, 6.658e-6
-1.162, 6.588e-6
-1.163, 6.717e-6
-1.164, 6.796e-6
-1.165, 6.815e-6
-1.166, 6.697e-6
-1.167, 6.697e-6
-1.168, 6.825e-6
-1.169, 6.835e-6
-1.170, 6.806e-6
-1.171, 6.855e-6
-1.172, 6.835e-6
-1.173, 6.973e-6
-1.174, 7.092e-6
-1.175, 7.003e-6
-1.176, 6.904e-6
-1.177, 7.013e-6
-1.178, 7.269e-6
-1.179, 7.200e-6
-1.180, 7.161e-6
-1.181, 7.111e-6
-1.182, 7.042e-6
-1.183, 7.210e-6
-1.184, 7.279e-6
-1.185, 7.250e-6
-1.186, 7.121e-6
-1.187, 7.171e-6
-1.188, 7.319e-6
-1.189, 7.368e-6
-1.190, 7.417e-6
-1.191, 7.417e-6
-1.192, 7.378e-6
-1.193, 7.338e-6
-1.194, 7.575e-6
-1.195, 7.417e-6
-1.196, 7.486e-6
-1.197, 7.397e-6
-1.198, 7.565e-6
-1.199, 7.684e-6
-1.200, 7.605e-6
-1.201, 7.595e-6
-1.202, 7.605e-6
-1.203, 7.792e-6
-1.204, 7.940e-6
-1.205, 7.960e-6
-1.206, 7.841e-6
-1.207, 7.881e-6
-1.208, 7.999e-6
-1.209, 7.999e-6
-1.210, 7.920e-6
-1.211, 7.871e-6
-1.212, 7.861e-6
-1.213, 7.999e-6
-1.214, 8.049e-6
-1.215, 8.029e-6
-1.216, 8.049e-6
-1.217, 8.098e-6
-1.218, 8.157e-6
-1.219, 8.236e-6
-1.220, 8.216e-6
-1.221, 8.197e-6
-1.222, 8.246e-6
-1.223, 8.443e-6
-1.224, 8.473e-6
-1.225, 8.532e-6
-1.226, 8.433e-6
-1.227, 8.552e-6
-1.228, 8.621e-6
-1.229, 8.828e-6
-1.230, 8.650e-6
-1.231, 8.670e-6
-1.232, 8.680e-6
-1.233, 8.769e-6
-1.234, 8.789e-6
-1.235, 8.818e-6
-1.236, 8.779e-6
-1.237, 8.759e-6
-1.238, 8.927e-6
-1.239, 9.045e-6
-1.240, 8.927e-6
-1.241, 9.006e-6
-1.242, 9.025e-6
-1.243, 9.124e-6
-1.244, 9.173e-6
-1.245, 9.223e-6
-1.246, 9.242e-6
-1.247, 9.331e-6
-1.248, 9.410e-6
-1.249, 9.450e-6
-1.250, 9.509e-6
-1.251, 9.371e-6
-1.252, 9.410e-6
-1.253, 9.479e-6
-1.254, 9.578e-6
-1.255, 9.617e-6
-1.256, 9.657e-6
-1.257, 9.538e-6
-1.258, 9.726e-6
-1.259, 9.815e-6
-1.260, 9.864e-6
-1.261, 9.933e-6
-1.262, 9.953e-6
-1.263, 1.016e-5
-1.264, 1.007e-5
-1.265, 1.016e-5
-1.266, 9.973e-6
-1.267, 1.017e-5
-1.268, 1.029e-5
-1.269, 1.033e-5
-1.270, 1.033e-5
-1.271, 1.039e-5
-1.272, 1.039e-5
-1.273, 1.060e-5
-1.274, 1.061e-5
-1.275, 1.063e-5
-1.276, 1.052e-5
-1.277, 1.060e-5
-1.278, 1.072e-5
-1.279, 1.090e-5
-1.280, 1.096e-5
-1.281, 1.096e-5
-1.282, 1.095e-5
-1.283, 1.109e-5
-1.284, 1.127e-5
-1.285, 1.124e-5
-1.286, 1.116e-5
-1.287, 1.125e-5
-1.288, 1.133e-5
-1.289, 1.141e-5
-1.290, 1.157e-5
-1.291, 1.155e-5
-1.292, 1.162e-5
-1.293, 1.177e-5
-1.294, 1.193e-5
-1.295, 1.176e-5
-1.296, 1.173e-5
-1.297, 1.184e-5
-1.298, 1.198e-5
-1.299, 1.208e-5
-1.300, 1.229e-5
-1.301, 1.227e-5
-1.302, 1.226e-5
-1.303, 1.250e-5
-1.304, 1.263e-5
-1.305, 1.274e-5
-1.306, 1.283e-5
-1.307, 1.277e-5
-1.308, 1.286e-5
-1.309, 1.304e-5
-1.310, 1.297e-5
-1.311, 1.292e-5
-1.312, 1.308e-5
-1.313, 1.325e-5
-1.314, 1.345e-5
-1.315, 1.356e-5
-1.316, 1.364e-5
-1.317, 1.371e-5
-1.318, 1.405e-5
-1.319, 1.411e-5
-1.320, 1.408e-5
-1.321, 1.407e-5
-1.322, 1.411e-5
-1.323, 1.443e-5
-1.324, 1.451e-5
-1.325, 1.467e-5
-1.326, 1.480e-5
-1.327, 1.474e-5
-1.328, 1.493e-5
-1.329, 1.518e-5
-1.330, 1.537e-5
-1.331, 1.544e-5
-1.332, 1.555e-5
-1.333, 1.576e-5
-1.334, 1.594e-5
-1.335, 1.597e-5
-1.336, 1.609e-5
-1.337, 1.613e-5
-1.338, 1.633e-5
-1.339, 1.644e-5
-1.340, 1.660e-5
-1.341, 1.666e-5
-1.342, 1.662e-5
-1.343, 1.703e-5
-1.344, 1.729e-5
-1.345, 1.734e-5
-1.346, 1.746e-5
-1.347, 1.759e-5
-1.348, 1.791e-5
-1.349, 1.807e-5
-1.350, 1.815e-5
-1.351, 1.835e-5
-1.352, 1.839e-5
-1.353, 1.870e-5
-1.354, 1.896e-5
-1.355, 1.899e-5
-1.356, 1.915e-5
-1.357, 1.930e-5
-1.358, 1.963e-5
-1.359, 1.973e-5
-1.360, 1.980e-5
-1.361, 2.005e-5
-1.362, 2.010e-5
-1.363, 2.061e-5
-1.364, 2.081e-5
-1.365, 2.075e-5
-1.366, 2.090e-5
-1.367, 2.096e-5
-1.368, 2.132e-5
-1.369, 2.155e-5
-1.370, 2.176e-5
-1.371, 2.183e-5
-1.372, 2.193e-5
-1.373, 2.224e-5
-1.374, 2.235e-5
-1.375, 2.250e-5
-1.376, 2.270e-5
-1.377, 2.281e-5
-1.378, 2.303e-5
-1.379, 2.330e-5
-1.380, 2.338e-5
-1.381, 2.343e-5
-1.382, 2.367e-5
-1.383, 2.390e-5
-1.384, 2.419e-5
-1.385, 2.420e-5
-1.386, 2.442e-5
-1.387, 2.446e-5
-1.388, 2.479e-5
-1.389, 2.502e-5
-1.390, 2.512e-5
-1.391, 2.527e-5
-1.392, 2.542e-5
-1.393, 2.568e-5
-1.394, 2.597e-5
-1.395, 2.610e-5
-1.396, 2.614e-5
-1.397, 2.626e-5
-1.398, 2.639e-5
-1.399, 2.670e-5
-1.400, 2.681e-5
-1.401, 2.684e-5
-1.402, 2.710e-5
-1.403, 2.721e-5
-1.404, 2.735e-5
-1.405, 2.764e-5
-1.406, 2.779e-5
-1.407, 2.793e-5
-1.408, 2.828e-5
-1.409, 2.854e-5
-1.410, 2.853e-5
-1.411, 2.855e-5
-1.412, 2.868e-5
-1.413, 2.899e-5
-1.414, 2.912e-5
-1.415, 2.926e-5
-1.416, 2.931e-5
-1.417, 2.942e-5
-1.418, 2.980e-5
-1.419, 3.003e-5
-1.420, 2.999e-5
-1.421, 3.020e-5
-1.422, 3.035e-5
-1.423, 3.059e-5
-1.424, 3.073e-5
-1.425, 3.088e-5
-1.426, 3.098e-5
-1.427, 3.130e-5
-1.428, 3.164e-5
-1.429, 3.187e-5
-1.430, 3.193e-5
-1.431, 3.198e-5
-1.432, 3.206e-5
-1.433, 3.253e-5
-1.434, 3.297e-5
-1.435, 3.319e-5
-1.436, 3.329e-5
-1.437, 3.328e-5
-1.438, 3.352e-5
-1.439, 3.365e-5
-1.440, 3.373e-5
-1.441, 3.387e-5
-1.442, 3.388e-5
-1.443, 3.437e-5
-1.444, 3.463e-5
-1.445, 3.449e-5
-1.446, 3.469e-5
-1.447, 3.505e-5
-1.448, 3.532e-5
-1.449, 3.558e-5
-1.450, 3.570e-5
-1.451, 3.566e-5
-1.452, 3.584e-5
-1.453, 3.612e-5
-1.454, 3.631e-5
-1.455, 3.646e-5
-1.456, 3.662e-5
-1.457, 3.666e-5
-1.458, 3.694e-5
-1.459, 3.718e-5
-1.460, 3.729e-5
-1.461, 3.736e-5
-1.462, 3.755e-5
-1.463, 3.784e-5
-1.464, 3.792e-5
-1.465, 3.796e-5
-1.466, 3.816e-5
-1.467, 3.819e-5
-1.468, 3.869e-5
-1.469, 3.880e-5
-1.470, 3.897e-5
-1.471, 3.902e-5
-1.472, 3.909e-5
-1.473, 3.948e-5
-1.474, 3.972e-5
-1.475, 3.982e-5
-1.476, 3.996e-5
-1.477, 3.991e-5
-1.478, 4.026e-5
-1.479, 4.064e-5
-1.480, 4.081e-5
-1.481, 4.091e-5
-1.482, 4.121e-5
-1.483, 4.161e-5
-1.484, 4.188e-5
-1.485, 4.187e-5
-1.486, 4.184e-5
-1.487, 4.211e-5
-1.488, 4.233e-5
-1.489, 4.240e-5
-1.490, 4.256e-5
-1.491, 4.268e-5
-1.492, 4.291e-5
-1.493, 4.335e-5
-1.494, 4.354e-5
-1.495, 4.367e-5
-1.496, 4.377e-5
-1.497, 4.426e-5
-1.498, 4.435e-5
-1.499, 4.434e-5
-1.500, 4.458e-5
-1.501, 4.471e-5
-1.502, 4.480e-5
-1.503, 4.524e-5
-1.504, 4.539e-5
-1.505, 4.550e-5
-1.506, 4.553e-5
-1.507, 4.566e-5
-1.508, 4.592e-5
-1.509, 4.617e-5
-1.510, 4.646e-5
-1.511, 4.665e-5
-1.512, 4.684e-5
-1.513, 4.715e-5
-1.514, 4.727e-5
-1.515, 4.736e-5
-1.516, 4.764e-5
-1.517, 4.793e-5
-1.518, 4.832e-5
-1.519, 4.869e-5
-1.520, 4.872e-5
-1.521, 4.898e-5
-1.522, 4.925e-5
-1.523, 4.967e-5
-1.524, 4.995e-5
-1.525, 5.019e-5
-1.526, 5.032e-5
-1.527, 5.058e-5
-1.528, 5.080e-5
-1.529, 5.116e-5
-1.530, 5.138e-5
-1.531, 5.164e-5
-1.532, 5.192e-5
-1.533, 5.231e-5
-1.534, 5.257e-5
-1.535, 5.290e-5
-1.536, 5.315e-5
-1.537, 5.338e-5
-1.538, 5.381e-5
-1.539, 5.397e-5
-1.540, 5.418e-5
-1.541, 5.459e-5
-1.542, 5.505e-5
-1.543, 5.555e-5
-1.544, 5.589e-5
-1.545, 5.616e-5
-1.546, 5.646e-5
-1.547, 5.660e-5
-1.548, 5.708e-5
-1.549, 5.740e-5
-1.550, 5.761e-5
-1.551, 5.769e-5
-1.552, 5.807e-5
-1.553, 5.877e-5
-1.554, 5.916e-5
-1.555, 5.953e-5
-1.556, 5.984e-5
-1.557, 6.013e-5
-1.558, 6.078e-5
-1.559, 6.106e-5
-1.560, 6.147e-5
-1.561, 6.180e-5
-1.562, 6.223e-5
-1.563, 6.280e-5
-1.564, 6.318e-5
-1.565, 6.347e-5
-1.566, 6.385e-5
-1.567, 6.413e-5
-1.568, 6.467e-5
-1.569, 6.494e-5
-1.570, 6.547e-5
-1.571, 6.579e-5
-1.572, 6.633e-5
-1.573, 6.668e-5
-1.574, 6.718e-5
-1.575, 6.744e-5
-1.576, 6.793e-5
-1.577, 6.873e-5
-1.578, 6.911e-5
-1.579, 6.956e-5
-1.580, 6.993e-5
-1.581, 7.032e-5
-1.582, 7.075e-5
-1.583, 7.112e-5
-1.584, 7.162e-5
-1.585, 7.222e-5
-1.586, 7.235e-5
-1.587, 7.293e-5
-1.588, 7.358e-5
-1.589, 7.396e-5
-1.590, 7.439e-5
-1.591, 7.489e-5
-1.592, 7.547e-5
-1.593, 7.618e-5
-1.594, 7.683e-5
-1.595, 7.712e-5
-1.596, 7.752e-5
-1.597, 7.802e-5
-1.598, 7.894e-5
-1.599, 7.933e-5
-1.600, 7.968e-5
-1.601, 8.023e-5
-1.602, 8.053e-5
-1.603, 8.134e-5
-1.604, 8.186e-5
-1.605, 8.238e-5
-1.606, 8.285e-5
-1.607, 8.350e-5
-1.608, 8.433e-5
-1.609, 8.507e-5
-1.610, 8.585e-5
-1.611, 8.619e-5
-1.612, 8.693e-5
-1.613, 8.787e-5
-1.614, 8.838e-5
-1.615, 8.902e-5
-1.616, 8.959e-5
-1.617, 9.026e-5
-1.618, 9.134e-5
-1.619, 9.214e-5
-1.620, 9.265e-5
-1.621, 9.335e-5
-1.622, 9.418e-5
-1.623, 9.502e-5
-1.624, 9.589e-5
-1.625, 9.669e-5
-1.626, 9.764e-5
-1.627, 9.854e-5
-1.628, 9.969e-5
-1.629, 1.006e-4
-1.630, 1.018e-4
-1.631, 1.024e-4
-1.632, 1.035e-4
-1.633, 1.052e-4
-1.634, 1.061e-4
-1.635, 1.071e-4
-1.636, 1.079e-4
-1.637, 1.089e-4
-1.638, 1.101e-4
-1.639, 1.113e-4
-1.640, 1.123e-4
-1.641, 1.134e-4
-1.642, 1.145e-4
-1.643, 1.157e-4
-1.644, 1.173e-4
-1.645, 1.184e-4
-1.646, 1.195e-4
-1.647, 1.207e-4
-1.648, 1.224e-4
-1.649, 1.235e-4
-1.650, 1.250e-4
-1.651, 1.265e-4
-1.652, 1.278e-4
-1.653, 1.295e-4
-1.654, 1.311e-4
-1.655, 1.327e-4
-1.656, 1.338e-4
-1.657, 1.354e-4
-1.658, 1.375e-4
-1.659, 1.390e-4
-1.660, 1.405e-4
-1.661, 1.426e-4
-1.662, 1.446e-4
-1.663, 1.460e-4
-1.664, 1.482e-4
-1.665, 1.500e-4
-1.666, 1.517e-4
-1.667, 1.532e-4
-1.668, 1.552e-4
-1.669, 1.571e-4
-1.670, 1.590e-4
-1.671, 1.614e-4
-1.672, 1.632e-4
-1.673, 1.658e-4
-1.674, 1.681e-4
-1.675, 1.704e-4
-1.676, 1.727e-4
-1.677, 1.752e-4
-1.678, 1.778e-4
-1.679, 1.805e-4
-1.680, 1.833e-4
-1.681, 1.854e-4
-1.682, 1.874e-4
-1.683, 1.901e-4
-1.684, 1.927e-4
-1.685, 1.960e-4
-1.686, 1.987e-4
-1.687, 2.018e-4
-1.688, 2.050e-4
-1.689, 2.077e-4
-1.690, 2.109e-4
-1.691, 2.134e-4
-1.692, 2.167e-4
-1.693, 2.196e-4
-1.694, 2.227e-4
-1.695, 2.256e-4
-1.696, 2.286e-4
-1.697, 2.320e-4
-1.698, 2.360e-4
-1.699, 2.399e-4
-1.700, 2.431e-4
-1.701, 2.467e-4
-1.702, 2.501e-4
-1.703, 2.537e-4
-1.704, 2.567e-4
-1.705, 2.605e-4
-1.706, 2.644e-4
-1.707, 2.682e-4
-1.708, 2.723e-4
-1.709, 2.758e-4
-1.710, 2.797e-4
-1.711, 2.840e-4
-1.712, 2.883e-4
-1.713, 2.926e-4
-1.714, 2.977e-4
-1.715, 3.019e-4
-1.716, 3.060e-4
-1.717, 3.108e-4
-1.718, 3.147e-4
-1.719, 3.199e-4
-1.720, 3.247e-4
-1.721, 3.288e-4
-1.722, 3.333e-4
-1.723, 3.394e-4
-1.724, 3.445e-4
-1.725, 3.488e-4
-1.726, 3.543e-4
-1.727, 3.602e-4
-1.728, 3.658e-4
-1.729, 3.705e-4
-1.730, 3.752e-4
-1.731, 3.819e-4
-1.732, 3.867e-4
-1.733, 3.928e-4
-1.734, 3.972e-4
-1.735, 4.039e-4
-1.736, 4.108e-4
-1.737, 4.170e-4
-1.738, 4.238e-4
-1.739, 4.292e-4
-1.740, 4.362e-4
-1.741, 4.417e-4
-1.742, 4.500e-4
-1.743, 4.577e-4
-1.744, 4.628e-4
-1.745, 4.667e-4
-1.746, 4.731e-4
-1.747, 4.818e-4
-1.748, 4.892e-4
-1.749, 4.976e-4
-1.750, 5.029e-4
-1.751, 5.102e-4
-1.752, 5.186e-4
-1.753, 5.252e-4
-1.754, 5.332e-4
-1.755, 5.425e-4
-1.756, 5.498e-4
-1.757, 5.602e-4
-1.758, 5.703e-4
-1.759, 5.797e-4
-1.760, 5.885e-4
-1.761, 5.929e-4
-1.762, 6.029e-4
-1.763, 6.085e-4
-1.764, 6.181e-4
-1.765, 6.247e-4
-1.766, 6.353e-4
-1.767, 6.407e-4
-1.768, 6.537e-4
-1.769, 6.641e-4
-1.770, 6.786e-4
-1.771, 6.900e-4
-1.772, 6.968e-4
-1.773, 7.002e-4
-1.774, 7.092e-4
-1.775, 7.236e-4
-1.776, 7.342e-4
-1.777, 7.469e-4
-1.778, 7.558e-4
-1.779, 7.621e-4
-1.780, 7.723e-4
-1.781, 7.848e-4
-1.782, 7.944e-4
-1.783, 8.074e-4
-1.784, 8.177e-4
-1.785, 8.319e-4
-1.786, 8.440e-4
-1.787, 8.552e-4
-1.788, 8.668e-4
-1.789, 8.823e-4
-1.790, 8.913e-4
-1.791, 9.041e-4
-1.792, 9.166e-4
-1.793, 9.306e-4
-1.794, 9.423e-4
-1.795, 9.555e-4
-1.796, 9.663e-4
-1.797, 9.846e-4
-1.798, 1.000e-3
-1.799, 1.014e-3
-1.800, 1.023e-3
-1.801, 1.033e-3
-1.802, 1.050e-3
-1.803, 1.068e-3
-1.804, 1.085e-3
-1.805, 1.097e-3
-1.806, 1.116e-3
-1.807, 1.132e-3
-1.808, 1.144e-3
-1.809, 1.161e-3
-1.810, 1.180e-3
-1.811, 1.195e-3
-1.812, 1.209e-3
-1.813, 1.226e-3
-1.814, 1.241e-3
-1.815, 1.255e-3
-1.816, 1.275e-3
-1.817, 1.293e-3
-1.818, 1.315e-3
-1.819, 1.330e-3
-1.820, 1.345e-3
-1.821, 1.365e-3
-1.822, 1.385e-3
-1.823, 1.407e-3
-1.824, 1.426e-3
-1.825, 1.443e-3
-1.826, 1.462e-3
-1.827, 1.481e-3
-1.828, 1.503e-3
-1.829, 1.519e-3
-1.830, 1.542e-3
-1.831, 1.562e-3
-1.832, 1.588e-3
-1.833, 1.606e-3
-1.834, 1.622e-3
-1.835, 1.646e-3
-1.836, 1.671e-3
-1.837, 1.689e-3
-1.838, 1.712e-3
-1.839, 1.738e-3
-1.840, 1.760e-3
-1.841, 1.780e-3
-1.842, 1.809e-3
-1.843, 1.834e-3
-1.844, 1.856e-3
-1.845, 1.883e-3
-1.846, 1.906e-3
-1.847, 1.932e-3
-1.848, 1.957e-3
-1.849, 1.988e-3
-1.850, 2.011e-3
-1.851, 2.034e-3
-1.852, 2.060e-3
-1.853, 2.083e-3
-1.854, 2.114e-3
-1.855, 2.141e-3
-1.856, 2.176e-3
-1.857, 2.195e-3
-1.858, 2.226e-3
-1.859, 2.252e-3
-1.860, 2.282e-3
-1.861, 2.312e-3
-1.862, 2.343e-3
-1.863, 2.370e-3
-1.864, 2.409e-3
-1.865, 2.441e-3
-1.866, 2.470e-3
-1.867, 2.497e-3
-1.868, 2.520e-3
-1.869, 2.551e-3
-1.870, 2.578e-3
-1.871, 2.602e-3
-1.872, 2.638e-3
-1.873, 2.669e-3
-1.874, 2.697e-3
-1.875, 2.729e-3
-1.876, 2.756e-3
-1.877, 2.787e-3
-1.878, 2.816e-3
-1.879, 2.850e-3
-1.880, 2.883e-3
-1.881, 2.913e-3
-1.882, 2.937e-3
-1.883, 2.962e-3
-1.884, 3.007e-3
-1.885, 3.038e-3
-1.886, 3.078e-3
-1.887, 3.111e-3
-1.888, 3.143e-3
-1.889, 3.177e-3
-1.890, 3.211e-3
-1.891, 3.247e-3
-1.892, 3.286e-3
-1.893, 3.322e-3
-1.894, 3.352e-3
-1.895, 3.385e-3
-1.896, 3.417e-3
-1.897, 3.448e-3
-1.898, 3.479e-3
-1.899, 3.509e-3
-1.900, 3.525e-3
-1.899, 3.498e-3
-1.898, 3.473e-3
-1.897, 3.447e-3
-1.896, 3.426e-3
-1.895, 3.406e-3
-1.894, 3.382e-3
-1.893, 3.352e-3
-1.892, 3.316e-3
-1.891, 3.299e-3
-1.890, 3.276e-3
-1.889, 3.248e-3
-1.888, 3.214e-3
-1.887, 3.196e-3
-1.886, 3.181e-3
-1.885, 3.145e-3
-1.884, 3.110e-3
-1.883, 3.082e-3
-1.882, 3.058e-3
-1.881, 3.032e-3
-1.880, 3.004e-3
-1.879, 2.975e-3
-1.878, 2.950e-3
-1.877, 2.917e-3
-1.876, 2.888e-3
-1.875, 2.864e-3
-1.874, 2.839e-3
-1.873, 2.811e-3
-1.872, 2.783e-3
-1.871, 2.762e-3
-1.870, 2.740e-3
-1.869, 2.717e-3
-1.868, 2.683e-3
-1.867, 2.660e-3
-1.866, 2.634e-3
-1.865, 2.599e-3
-1.864, 2.548e-3
-1.863, 2.532e-3
-1.862, 2.503e-3
-1.861, 2.490e-3
-1.860, 2.476e-3
-1.859, 2.453e-3
-1.858, 2.428e-3
-1.857, 2.403e-3
-1.856, 2.379e-3
-1.855, 2.357e-3
-1.854, 2.332e-3
-1.853, 2.307e-3
-1.852, 2.277e-3
-1.851, 2.253e-3
-1.850, 2.228e-3
-1.849, 2.214e-3
-1.848, 2.183e-3
-1.847, 2.151e-3
-1.846, 2.127e-3
-1.845, 2.109e-3
-1.844, 2.075e-3
-1.843, 2.059e-3
-1.842, 2.036e-3
-1.841, 2.022e-3
-1.840, 2.007e-3
-1.839, 1.990e-3
-1.838, 1.962e-3
-1.837, 1.938e-3
-1.836, 1.923e-3
-1.835, 1.902e-3
-1.834, 1.885e-3
-1.833, 1.867e-3
-1.832, 1.843e-3
-1.831, 1.826e-3
-1.830, 1.800e-3
-1.829, 1.788e-3
-1.828, 1.763e-3
-1.827, 1.745e-3
-1.826, 1.724e-3
-1.825, 1.706e-3
-1.824, 1.688e-3
-1.823, 1.671e-3
-1.822, 1.649e-3
-1.821, 1.635e-3
-1.820, 1.621e-3
-1.819, 1.603e-3
-1.818, 1.580e-3
-1.817, 1.565e-3
-1.816, 1.546e-3
-1.815, 1.522e-3
-1.814, 1.516e-3
-1.813, 1.505e-3
-1.812, 1.481e-3
-1.811, 1.467e-3
-1.810, 1.450e-3
-1.809, 1.437e-3
-1.808, 1.429e-3
-1.807, 1.410e-3
-1.806, 1.396e-3
-1.805, 1.380e-3
-1.804, 1.365e-3
-1.803, 1.349e-3
-1.802, 1.338e-3
-1.801, 1.325e-3
-1.800, 1.318e-3
-1.799, 1.300e-3
-1.798, 1.276e-3
-1.797, 1.264e-3
-1.796, 1.251e-3
-1.795, 1.237e-3
-1.794, 1.226e-3
-1.793, 1.212e-3
-1.792, 1.202e-3
-1.791, 1.189e-3
-1.790, 1.178e-3
-1.789, 1.164e-3
-1.788, 1.154e-3
-1.787, 1.145e-3
-1.786, 1.122e-3
-1.785, 1.107e-3
-1.784, 1.096e-3
-1.783, 1.086e-3
-1.782, 1.073e-3
-1.781, 1.061e-3
-1.780, 1.049e-3
-1.779, 1.035e-3
-1.778, 1.027e-3
-1.777, 1.012e-3
-1.776, 1.009e-3
-1.775, 1.001e-3
-1.774, 9.872e-4
-1.773, 9.722e-4
-1.772, 9.692e-4
-1.771, 9.606e-4
-1.770, 9.444e-4
-1.769, 9.330e-4
-1.768, 9.234e-4
-1.767, 9.128e-4
-1.766, 9.026e-4
-1.765, 8.910e-4
-1.764, 8.829e-4
-1.763, 8.731e-4
-1.762, 8.654e-4
-1.761, 8.536e-4
-1.760, 8.455e-4
-1.759, 8.348e-4
-1.758, 8.256e-4
-1.757, 8.188e-4
-1.756, 8.154e-4
-1.755, 7.970e-4
-1.754, 7.851e-4
-1.753, 7.784e-4
-1.752, 7.697e-4
-1.751, 7.584e-4
-1.750, 7.522e-4
-1.749, 7.458e-4
-1.748, 7.351e-4
-1.747, 7.338e-4
-1.746, 7.195e-4
-1.745, 7.116e-4
-1.744, 7.032e-4
-1.743, 6.951e-4
-1.742, 6.869e-4
-1.741, 6.778e-4
-1.740, 6.702e-4
-1.739, 6.605e-4
-1.738, 6.562e-4
-1.737, 6.471e-4
-1.736, 6.398e-4
-1.735, 6.329e-4
-1.734, 6.233e-4
-1.733, 6.161e-4
-1.732, 6.114e-4
-1.731, 6.056e-4
-1.730, 5.930e-4
-1.729, 5.837e-4
-1.728, 5.778e-4
-1.727, 5.702e-4
-1.726, 5.626e-4
-1.725, 5.554e-4
-1.724, 5.487e-4
-1.723, 5.449e-4
-1.722, 5.348e-4
-1.721, 5.273e-4
-1.720, 5.212e-4
-1.719, 5.163e-4
-1.718, 5.087e-4
-1.717, 5.002e-4
-1.716, 4.945e-4
-1.715, 4.906e-4
-1.714, 4.863e-4
-1.713, 4.794e-4
-1.712, 4.740e-4
-1.711, 4.699e-4
-1.710, 4.649e-4
-1.709, 4.569e-4
-1.708, 4.507e-4
-1.707, 4.466e-4
-1.706, 4.405e-4
-1.705, 4.364e-4
-1.704, 4.298e-4
-1.703, 4.228e-4
-1.702, 4.194e-4
-1.701, 4.126e-4
-1.700, 4.061e-4
-1.699, 4.011e-4
-1.698, 3.970e-4
-1.697, 3.918e-4
-1.696, 3.863e-4
-1.695, 3.810e-4
-1.694, 3.790e-4
-1.693, 3.736e-4
-1.692, 3.669e-4
-1.691, 3.628e-4
-1.690, 3.574e-4
-1.689, 3.530e-4
-1.688, 3.516e-4
-1.687, 3.442e-4
-1.686, 3.404e-4
-1.685, 3.352e-4
-1.684, 3.311e-4
-1.683, 3.280e-4
-1.682, 3.228e-4
-1.681, 3.175e-4
-1.680, 3.162e-4
-1.679, 3.098e-4
-1.678, 3.045e-4
-1.677, 3.014e-4
-1.676, 2.968e-4
-1.675, 2.924e-4
-1.674, 2.898e-4
-1.673, 2.861e-4
-1.672, 2.840e-4
-1.671, 2.779e-4
-1.670, 2.752e-4
-1.669, 2.713e-4
-1.668, 2.680e-4
-1.667, 2.645e-4
-1.666, 2.614e-4
-1.665, 2.567e-4
-1.664, 2.544e-4
-1.663, 2.510e-4
-1.662, 2.477e-4
-1.661, 2.458e-4
-1.660, 2.430e-4
-1.659, 2.393e-4
-1.658, 2.364e-4
-1.657, 2.320e-4
-1.656, 2.296e-4
-1.655, 2.259e-4
-1.654, 2.234e-4
-1.653, 2.213e-4
-1.652, 2.177e-4
-1.651, 2.153e-4
-1.650, 2.121e-4
-1.649, 2.104e-4
-1.648, 2.068e-4
-1.647, 2.048e-4
-1.646, 2.020e-4
-1.645, 1.989e-4
-1.644, 1.960e-4
-1.643, 1.934e-4
-1.642, 1.909e-4
-1.641, 1.894e-4
-1.640, 1.855e-4
-1.639, 1.834e-4
-1.638, 1.816e-4
-1.637, 1.786e-4
-1.636, 1.765e-4
-1.635, 1.737e-4
-1.634, 1.710e-4
-1.633, 1.686e-4
-1.632, 1.673e-4
-1.631, 1.645e-4
-1.630, 1.613e-4
-1.629, 1.591e-4
-1.628, 1.575e-4
-1.627, 1.551e-4
-1.626, 1.533e-4
-1.625, 1.510e-4
-1.624, 1.490e-4
-1.623, 1.465e-4
-1.622, 1.448e-4
-1.621, 1.429e-4
-1.620, 1.412e-4
-1.619, 1.396e-4
-1.618, 1.370e-4
-1.617, 1.350e-4
-1.616, 1.333e-4
-1.615, 1.317e-4
-1.614, 1.301e-4
-1.613, 1.284e-4
-1.612, 1.264e-4
-1.611, 1.245e-4
-1.610, 1.226e-4
-1.609, 1.216e-4
-1.608, 1.210e-4
-1.607, 1.194e-4
-1.606, 1.167e-4
-1.605, 1.149e-4
-1.604, 1.136e-4
-1.603, 1.117e-4
-1.602, 1.112e-4
-1.601, 1.092e-4
-1.600, 1.071e-4
-1.599, 1.055e-4
-1.598, 1.043e-4
-1.597, 1.026e-4
-1.596, 1.013e-4
-1.595, 9.979e-5
-1.594, 9.820e-5
-1.593, 9.703e-5
-1.592, 9.583e-5
-1.591, 9.432e-5
-1.590, 9.340e-5
-1.589, 9.288e-5
-1.588, 9.105e-5
-1.587, 8.974e-5
-1.586, 8.842e-5
-1.585, 8.710e-5
-1.584, 8.597e-5
-1.583, 8.458e-5
-1.582, 8.343e-5
-1.581, 8.226e-5
-1.580, 8.084e-5
-1.579, 7.994e-5
-1.578, 7.892e-5
-1.577, 7.763e-5
-1.576, 7.659e-5
-1.575, 7.536e-5
-1.574, 7.442e-5
-1.573, 7.348e-5
-1.572, 7.209e-5
-1.571, 7.118e-5
-1.570, 7.013e-5
-1.569, 6.925e-5
-1.568, 6.823e-5
-1.567, 6.728e-5
-1.566, 6.644e-5
-1.565, 6.532e-5
-1.564, 6.419e-5
-1.563, 6.348e-5
-1.562, 6.259e-5
-1.561, 6.160e-5
-1.560, 6.071e-5
-1.559, 5.958e-5
-1.558, 5.902e-5
-1.557, 5.833e-5
-1.556, 5.741e-5
-1.555, 5.651e-5
-1.554, 5.565e-5
-1.553, 5.491e-5
-1.552, 5.406e-5
-1.551, 5.330e-5
-1.550, 5.242e-5
-1.549, 5.174e-5
-1.548, 5.100e-5
-1.547, 5.028e-5
-1.546, 4.967e-5
-1.545, 4.866e-5
-1.544, 4.813e-5
-1.543, 4.742e-5
-1.542, 4.651e-5
-1.541, 4.591e-5
-1.540, 4.510e-5
-1.539, 4.439e-5
-1.538, 4.381e-5
-1.537, 4.333e-5
-1.536, 4.247e-5
-1.535, 4.167e-5
-1.534, 4.095e-5
-1.533, 4.051e-5
-1.532, 3.987e-5
-1.531, 3.937e-5
-1.530, 3.876e-5
-1.529, 3.803e-5
-1.528, 3.758e-5
-1.527, 3.697e-5
-1.526, 3.628e-5
-1.525, 3.578e-5
-1.524, 3.524e-5
-1.523, 3.460e-5
-1.522, 3.408e-5
-1.521, 3.359e-5
-1.520, 3.282e-5
-1.519, 3.226e-5
-1.518, 3.183e-5
-1.517, 3.142e-5
-1.516, 3.085e-5
-1.515, 3.029e-5
-1.514, 2.976e-5
-1.513, 2.955e-5
-1.512, 2.913e-5
-1.511, 2.847e-5
-1.510, 2.796e-5
-1.509, 2.742e-5
-1.508, 2.706e-5
-1.507, 2.663e-5
-1.506, 2.610e-5
-1.505, 2.561e-5
-1.504, 2.529e-5
-1.503, 2.496e-5
-1.502, 2.469e-5
-1.501, 2.415e-5
-1.500, 2.368e-5
-1.499, 2.319e-5
-1.498, 2.312e-5
-1.497, 2.253e-5
-1.496, 2.219e-5
-1.495, 2.170e-5
-1.494, 2.120e-5
-1.493, 2.099e-5
-1.492, 2.061e-5
-1.491, 2.012e-5
-1.490, 1.979e-5
-1.489, 1.934e-5
-1.488, 1.910e-5
-1.487, 1.890e-5
-1.486, 1.853e-5
-1.485, 1.798e-5
-1.484, 1.765e-5
-1.483, 1.748e-5
-1.482, 1.722e-5
-1.481, 1.690e-5
-1.480, 1.654e-5
-1.479, 1.618e-5
-1.478, 1.600e-5
-1.477, 1.583e-5
-1.476, 1.545e-5
-1.475, 1.502e-5
-1.474, 1.471e-5
-1.473, 1.451e-5
-1.472, 1.415e-5
-1.471, 1.389e-5
-1.470, 1.353e-5
-1.469, 1.332e-5
-1.468, 1.314e-5
-1.467, 1.300e-5
-1.466, 1.272e-5
-1.465, 1.238e-5
-1.464, 1.219e-5
-1.463, 1.200e-5
-1.462, 1.178e-5
-1.461, 1.138e-5
-1.460, 1.111e-5
-1.459, 1.088e-5
-1.458, 1.082e-5
-1.457, 1.058e-5
-1.456, 1.035e-5
-1.455, 9.943e-6
-1.454, 9.884e-6
-1.453, 9.746e-6
-1.452, 9.489e-6
-1.451, 9.154e-6
-1.450, 9.035e-6
-1.449, 8.828e-6
-1.448, 8.789e-6
-1.447, 8.463e-6
-1.446, 8.276e-6
-1.445, 7.940e-6
-1.444, 7.841e-6
-1.443, 7.980e-6
-1.442, 7.871e-6
-1.441, 7.575e-6
-1.440, 7.299e-6
-1.439, 7.082e-6
-1.438, 7.171e-6
-1.437, 6.914e-6
-1.436, 6.658e-6
-1.435, 6.440e-6
-1.434, 6.115e-6
-1.433, 6.095e-6
-1.432, 5.937e-6
-1.431, 5.602e-6
-1.430, 5.513e-6
-1.429, 5.355e-6
-1.428, 5.395e-6
-1.427, 5.158e-6
-1.426, 5.010e-6
-1.425, 4.882e-6
-1.424, 4.625e-6
-1.423, 4.674e-6
-1.422, 4.596e-6
-1.421, 4.418e-6
-1.420, 4.211e-6
-1.419, 4.122e-6
-1.418, 4.063e-6
-1.417, 3.915e-6
-1.416, 3.796e-6
-1.415, 3.530e-6
-1.414, 3.323e-6
-1.413, 3.500e-6
-1.412, 3.431e-6
-1.411, 3.165e-6
-1.410, 3.037e-6
-1.409, 2.938e-6
-1.408, 2.879e-6
-1.407, 2.731e-6
-1.406, 2.524e-6
-1.405, 2.465e-6
-1.404, 2.297e-6
-1.403, 2.455e-6
-1.402, 2.238e-6
-1.401, 2.050e-6
-1.400, 1.902e-6
-1.399, 1.932e-6
-1.398, 1.932e-6
-1.397, 1.754e-6
-1.396, 1.636e-6
-1.395, 1.478e-6
-1.394, 1.360e-6
-1.393, 1.468e-6
-1.392, 1.300e-6
-1.391, 1.202e-6
-1.390, 1.093e-6
-1.389, 9.748e-7
-1.388, 9.748e-7
-1.387, 9.649e-7
-1.386, 7.972e-7
-1.385, 6.196e-7
-1.384, 5.998e-7
-1.383, 5.012e-7
-1.382, 3.927e-7
-1.381, 3.039e-7
-1.380, 1.855e-7
-1.379, 8.682e-8
-1.378, 2.743e-7
-1.377, 2.052e-7
-1.376, -1.184e-8
-1.375, -1.500e-7
-1.374, -2.881e-7
-1.373, -2.289e-7
-1.372, -3.177e-7
-1.371, -4.755e-7
-1.370, -6.433e-7
-1.369, -5.939e-7
-1.368, -5.051e-7
-1.367, -6.827e-7
-1.366, -7.617e-7
-1.365, -8.110e-7
-1.364, -9.491e-7
-1.363, -9.294e-7
-1.362, -9.787e-7
-1.361, -9.984e-7
-1.360, -1.146e-6
-1.359, -1.255e-6
-1.358, -1.107e-6
-1.357, -1.265e-6
-1.356, -1.363e-6
-1.355, -1.502e-6
-1.354, -1.610e-6
-1.353, -1.511e-6
-1.352, -1.531e-6
-1.351, -1.600e-6
-1.350, -1.798e-6
-1.349, -1.857e-6
-1.348, -1.807e-6
-1.347, -1.817e-6
-1.346, -2.005e-6
-1.345, -2.113e-6
-1.344, -2.133e-6
-1.343, -2.054e-6
-1.342, -2.113e-6
-1.341, -2.222e-6
-1.340, -2.330e-6
-1.339, -2.340e-6
-1.338, -2.340e-6
-1.337, -2.409e-6
-1.336, -2.449e-6
-1.335, -2.656e-6
-1.334, -2.695e-6
-1.333, -2.508e-6
-1.332, -2.705e-6
-1.331, -2.784e-6
-1.330, -2.981e-6
-1.329, -2.843e-6
-1.328, -2.893e-6
-1.327, -2.853e-6
-1.326, -2.962e-6
-1.325, -3.110e-6
-1.324, -3.139e-6
-1.323, -3.060e-6
-1.322, -3.080e-6
-1.321, -3.169e-6
-1.320, -3.248e-6
-1.319, -3.406e-6
-1.318, -3.356e-6
-1.317, -3.327e-6
-1.316, -3.465e-6
-1.315, -3.544e-6
-1.314, -3.623e-6
-1.313, -3.465e-6
-1.312, -3.514e-6
-1.311, -3.613e-6
-1.310, -3.662e-6
-1.309, -3.741e-6
-1.308, -3.603e-6
-1.307, -3.583e-6
-1.306, -3.840e-6
-1.305, -3.929e-6
-1.304, -4.008e-6
-1.303, -3.840e-6
-1.302, -3.860e-6
-1.301, -3.998e-6
-1.300, -4.077e-6
-1.299, -4.165e-6
-1.298, -3.998e-6
-1.297, -4.126e-6
-1.296, -4.156e-6
-1.295, -4.313e-6
-1.294, -4.244e-6
-1.293, -4.195e-6
-1.292, -4.234e-6
-1.291, -4.264e-6
-1.290, -4.452e-6
-1.289, -4.432e-6
-1.288, -4.323e-6
-1.287, -4.402e-6
-1.286, -4.491e-6
-1.285, -4.530e-6
-1.284, -4.491e-6
-1.283, -4.521e-6
-1.282, -4.600e-6
-1.281, -4.609e-6
-1.280, -4.767e-6
-1.279, -4.757e-6
-1.278, -4.530e-6
-1.277, -4.609e-6
-1.276, -4.659e-6
-1.275, -4.817e-6
-1.274, -4.876e-6
-1.273, -4.817e-6
-1.272, -4.777e-6
-1.271, -4.866e-6
-1.270, -4.955e-6
-1.269, -5.004e-6
-1.268, -4.905e-6
-1.267, -4.955e-6
-1.266, -4.925e-6
-1.265, -5.004e-6
-1.264, -5.004e-6
-1.263, -4.965e-6
-1.262, -5.014e-6
-1.261, -5.093e-6
-1.260, -5.261e-6
-1.259, -5.251e-6
-1.258, -5.083e-6
-1.257, -5.182e-6
-1.256, -5.122e-6
-1.255, -5.330e-6
-1.254, -5.369e-6
-1.253, -5.182e-6
-1.252, -5.241e-6
-1.251, -5.399e-6
-1.250, -5.399e-6
-1.249, -5.468e-6
-1.248, -5.300e-6
-1.247, -5.330e-6
-1.246, -5.438e-6
-1.245, -5.537e-6
-1.244, -5.497e-6
-1.243, -5.330e-6
-1.242, -5.517e-6
-1.241, -5.527e-6
-1.240, -5.557e-6
-1.239, -5.626e-6
-1.238, -5.438e-6
-1.237, -5.448e-6
-1.236, -5.507e-6
-1.235, -5.734e-6
-1.234, -5.665e-6
-1.233, -5.566e-6
-1.232, -5.566e-6
-1.231, -5.665e-6
-1.230, -5.793e-6
-1.229, -5.882e-6
-1.228, -5.774e-6
-1.227, -5.783e-6
-1.226, -5.872e-6
-1.225, -6.010e-6
-1.224, -5.971e-6
-1.223, -5.862e-6
-1.222, -5.902e-6
-1.221, -5.922e-6
-1.220, -5.951e-6
-1.219, -6.050e-6
-1.218, -5.852e-6
-1.217, -5.912e-6
-1.216, -6.030e-6
-1.215, -6.099e-6
-1.214, -6.148e-6
-1.213, -6.109e-6
-1.212, -6.030e-6
-1.211, -6.129e-6
-1.210, -6.257e-6
-1.209, -6.139e-6
-1.208, -6.050e-6
-1.207, -6.139e-6
-1.206, -6.277e-6
-1.205, -6.336e-6
-1.204, -6.296e-6
-1.203, -6.296e-6
-1.202, -6.277e-6
-1.201, -6.385e-6
-1.200, -6.415e-6
-1.199, -6.464e-6
-1.198, -6.366e-6
-1.197, -6.415e-6
-1.196, -6.533e-6
-1.195, -6.454e-6
-1.194, -6.533e-6
-1.193, -6.474e-6
-1.192, -6.356e-6
-1.191, -6.553e-6
-1.190, -6.681e-6
-1.189, -6.750e-6
-1.188, -6.592e-6
-1.187, -6.573e-6
-1.186, -6.671e-6
-1.185, -6.869e-6
-1.184, -6.780e-6
-1.183, -6.652e-6
-1.182, -6.780e-6
-1.181, -6.770e-6
-1.180, -6.938e-6
-1.179, -7.027e-6
-1.178, -6.809e-6
-1.177, -6.997e-6
-1.176, -7.027e-6
-1.175, -7.125e-6
-1.174, -7.115e-6
-1.173, -7.027e-6
-1.172, -7.046e-6
-1.171, -7.175e-6
-1.170, -7.224e-6
-1.169, -7.283e-6
-1.168, -7.165e-6
-1.167, -7.342e-6
-1.166, -7.362e-6
-1.165, -7.470e-6
-1.164, -7.520e-6
-1.163, -7.461e-6
-1.162, -7.411e-6
-1.161, -7.618e-6
-1.160, -7.688e-6
-1.159, -7.609e-6
-1.158, -7.658e-6
-1.157, -7.707e-6
-1.156, -7.786e-6
-1.155, -7.845e-6
-1.154, -7.885e-6
-1.153, -7.875e-6
-1.152, -7.934e-6
-1.151, -8.151e-6
-1.150, -8.230e-6
-1.149, -8.240e-6
-1.148, -8.132e-6
-1.147, -8.250e-6
-1.146, -8.437e-6
-1.145, -8.497e-6
-1.144, -8.437e-6
-1.143, -8.388e-6
-1.142, -8.408e-6
-1.141, -8.575e-6
-1.140, -8.635e-6
-1.139, -8.793e-6
-1.138, -8.723e-6
-1.137, -8.753e-6
-1.136, -8.990e-6
-1.135, -9.089e-6
-1.134, -9.187e-6
-1.133, -9.118e-6
-1.132, -9.167e-6
-1.131, -9.286e-6
-1.130, -9.355e-6
-1.129, -9.444e-6
-1.128, -9.325e-6
-1.127, -9.582e-6
-1.126, -9.700e-6
-1.125, -9.848e-6
-1.124, -9.848e-6
-1.123, -9.789e-6
-1.122, -9.878e-6
-1.121, -1.005e-5
-1.120, -1.016e-5
-1.119, -1.025e-5
-1.118, -1.021e-5
-1.117, -1.026e-5
-1.116, -1.041e-5
-1.115, -1.056e-5
-1.114, -1.069e-5
-1.113, -1.062e-5
-1.112, -1.066e-5
-1.111, -1.091e-5
-1.110, -1.102e-5
-1.109, -1.109e-5
-1.108, -1.098e-5
-1.107, -1.118e-5
-1.106, -1.133e-5
-1.105, -1.154e-5
-1.104, -1.153e-5
-1.103, -1.146e-5
-1.102, -1.150e-5
-1.101, -1.173e-5
-1.100, -1.192e-5
-1.099, -1.203e-5
-1.098, -1.191e-5
-1.097, -1.203e-5
-1.096, -1.219e-5
-1.095, -1.230e-5
-1.094, -1.247e-5
-1.093, -1.232e-5
-1.092, -1.251e-5
-1.091, -1.265e-5
-1.090, -1.277e-5
-1.089, -1.285e-5
-1.088, -1.294e-5
-1.087, -1.305e-5
-1.086, -1.311e-5
-1.085, -1.327e-5
-1.084, -1.344e-5
-1.083, -1.336e-5
-1.082, -1.340e-5
-1.081, -1.355e-5
-1.080, -1.372e-5
-1.079, -1.373e-5
-1.078, -1.368e-5
-1.077, -1.376e-5
-1.076, -1.397e-5
-1.075, -1.422e-5
-1.074, -1.418e-5
-1.073, -1.412e-5
-1.072, -1.428e-5
-1.071, -1.442e-5
-1.070, -1.460e-5
-1.069, -1.467e-5
-1.068, -1.467e-5
-1.067, -1.478e-5
-1.066, -1.491e-5
-1.065, -1.515e-5
-1.064, -1.507e-5
-1.063, -1.509e-5
-1.062, -1.521e-5
-1.061, -1.538e-5
-1.060, -1.549e-5
-1.059, -1.549e-5
-1.058, -1.551e-5
-1.057, -1.559e-5
-1.056, -1.576e-5
-1.055, -1.590e-5
-1.054, -1.597e-5
-1.053, -1.590e-5
-1.052, -1.600e-5
-1.051, -1.617e-5
-1.050, -1.638e-5
-1.049, -1.660e-5
-1.048, -1.671e-5
-1.047, -1.670e-5
-1.046, -1.670e-5
-1.045, -1.680e-5
-1.044, -1.682e-5
-1.043, -1.680e-5
-1.042, -1.693e-5
-1.041, -1.704e-5
-1.040, -1.728e-5
-1.039, -1.724e-5
-1.038, -1.724e-5
-1.037, -1.739e-5
-1.036, -1.742e-5
-1.035, -1.769e-5
-1.034, -1.767e-5
-1.033, -1.762e-5
-1.032, -1.767e-5
-1.031, -1.787e-5
-1.030, -1.836e-5
-1.029, -1.822e-5
-1.028, -1.811e-5
-1.027, -1.816e-5
-1.026, -1.817e-5
-1.025, -1.831e-5
-1.024, -1.852e-5
-1.023, -1.842e-5
-1.022, -1.856e-5
-1.021, -1.865e-5
-1.020, -1.890e-5
-1.019, -1.887e-5
-1.018, -1.881e-5
-1.017, -1.895e-5
-1.016, -1.901e-5
-1.015, -1.900e-5
-1.014, -1.929e-5
-1.013, -1.912e-5
-1.012, -1.910e-5
-1.011, -1.924e-5
-1.010, -1.936e-5
-1.009, -1.936e-5
-1.008, -1.929e-5
-1.007, -1.939e-5
-1.006, -1.950e-5
-1.005, -1.953e-5
-1.004, -1.963e-5
-1.003, -1.950e-5
-1.002, -1.952e-5
-1.001, -1.966e-5
