Potential V vs RHE, Current mA cm-2
0.013299999999999867,0.8264743413811545
0.012299999999999978,0.3903188476327636
0.011299999999999866,0.04140859974704963
0.010299999999999976,-0.30755823659065895
0.009299999999999864,-0.6128529351015338
0.008299999999999974,-0.8745745255765657
0.007299999999999862,-1.0925815368857679
0.006299999999999972,-1.2671569112891135
0.00529999999999986,-1.3980177065266295
0.0042999999999999705,-1.5717442541500557
0.0032999999999998586,-1.7033124050375041
0.0022999999999999687,-1.8773218949209036
0.0012999999999998568,-2.052746096104168
0.00029999999999996696,-2.226755585987568
-0.000700000000000145,-2.3569090255751513
-0.0017000000000000348,-2.4446211261667834
-0.0027000000000001467,-2.576189277054232
-0.0037000000000000366,-2.618630616050183
-0.0047000000000001485,-2.706342716641815
-0.005700000000000038,-2.8379108675292635
-0.00670000000000015,-3.0119203574126634
-0.00770000000000004,-3.1420737970002466
-0.008700000000000152,-3.2297858975918787
-0.009700000000000042,-3.317497998183511
-0.010700000000000154,-3.361354048479327
-0.011700000000000044,-3.447651437771094
-0.012700000000000156,-3.4915074880669104
-0.013700000000000045,-3.579219588658543
-0.014700000000000157,-3.6655169779503103
-0.015700000000000047,-3.840941179133574
-0.01670000000000016,-3.884797229429391
-0.01770000000000005,-3.971094618721158
-0.01870000000000016,-4.014950669016974
-0.01970000000000005,-4.0588067193127895
-0.020700000000000163,-4.102662769608606
-0.021700000000000053,-4.146518819904423
-0.022700000000000164,-4.23281620919619
-0.023700000000000054,-4.3205283097878215
-0.024700000000000166,-4.450681749375406
-0.025700000000000056,-4.494537799671222
-0.026700000000000168,-4.538393849967037
-0.027700000000000058,-4.582249900262854
-0.02870000000000017,-4.582249900262854
-0.02970000000000006,-4.626105950558669
-0.03070000000000017,-4.712403339850438
-0.03170000000000006,-4.800115440442069
-0.03270000000000017,-4.843971490737885
-0.03370000000000006,-4.9302688800296535
-0.034700000000000175,-4.9302688800296535
-0.035700000000000065,-4.974124930325469
-0.03670000000000018,-4.974124930325469
-0.03770000000000007,-5.017980980621284
-0.03870000000000018,-5.0618370309171015
-0.03970000000000007,-5.149549131508733
-0.04070000000000018,-5.235846520800501
-0.04170000000000007,-5.279702571096316
-0.04270000000000018,-5.323558621392133
-0.04370000000000007,-5.367414671687949
-0.044700000000000184,-5.367414671687949
-0.045700000000000074,-5.411270721983764
-0.046700000000000186,-5.453712060979717
-0.047700000000000076,-5.453712060979717
-0.04870000000000019,-5.5414241615713475
-0.04970000000000008,-5.585280211867165
-0.05070000000000019,-5.629136262162981
-0.05170000000000008,-5.672992312458796
-0.05270000000000019,-5.672992312458796
-0.05370000000000008,-5.672992312458796
-0.05470000000000019,-5.672992312458796
-0.05570000000000008,-5.759289701750564
-0.056700000000000195,-5.80314575204638
-0.057700000000000085,-5.890857852638012
-0.058700000000000196,-5.9347139029338285
-0.059700000000000086,-5.9347139029338285
-0.0607000000000002,-5.977155241929781
-0.06170000000000009,-5.977155241929781
-0.0627000000000002,-5.977155241929781
-0.06370000000000009,-6.021011292225596
-0.0647000000000002,-6.108723392817228
-0.06570000000000009,-6.196435493408861
-0.0667000000000002,-6.238876832404812
-0.0677000000000001,-6.282732882700628
-0.0687000000000002,-6.282732882700628
-0.0697000000000001,-6.326588932996443
-0.07070000000000021,-6.326588932996443
-0.0717000000000001,-6.326588932996443
-0.07270000000000021,-6.414301033588076
-0.0737000000000001,-6.500598422879844
-0.07470000000000021,-6.54445447317566
-0.0757000000000001,-6.588310523471475
-0.07670000000000021,-6.632166573767292
-0.0777000000000001,-6.632166573767292
-0.07870000000000021,-6.632166573767292
-0.0797000000000001,-6.6760226240631075
-0.08070000000000022,-6.719878674358924
-0.0817000000000001,-6.762320013354876
-0.08270000000000022,-6.806176063650692
-0.08370000000000011,-6.893888164242324
-0.08470000000000022,-6.893888164242324
-0.08570000000000011,-6.981600264833956
-0.08670000000000022,-6.93774421453814
-0.08770000000000011,-6.93774421453814
-0.08870000000000022,-6.981600264833956
-0.08970000000000011,-7.067897654125724
-0.09070000000000022,-7.111753704421539
-0.09170000000000011,-7.199465805013171
-0.09270000000000023,-7.243321855308987
-0.09370000000000012,-7.243321855308987
-0.09470000000000023,-7.243321855308987
-0.09570000000000012,-7.28576319430494
-0.09670000000000023,-7.329619244600755
-0.09770000000000012,-7.37347529489657
-0.09870000000000023,-7.461187395488204
-0.09970000000000012,-7.5474847847799715
-0.10070000000000023,-7.591340835075788
-0.10170000000000012,-7.591340835075788
-0.10270000000000024,-7.635196885371603
-0.10370000000000013,-7.635196885371603
-0.10470000000000024,-7.679052935667419
-0.10570000000000013,-7.722908985963235
-0.10670000000000024,-7.809206375255003
-0.10770000000000013,-7.940774526142452
-0.10870000000000024,-7.984630576438266
-0.10970000000000013,-7.984630576438266
-0.11070000000000024,-7.984630576438266
-0.11170000000000013,-7.984630576438266
-0.11270000000000002,-7.984630576438266
-0.11370000000000013,-8.027071915434218
-0.11470000000000002,-8.070927965730034
-0.11570000000000014,-8.158640066321666
-0.11670000000000003,-8.202496116617484
-0.11770000000000014,-8.288793505909249
-0.11870000000000003,-8.246352166913299
-0.11970000000000014,-8.246352166913299
-0.12070000000000003,-8.288793505909249
-0.12170000000000014,-8.332649556205066
-0.12270000000000003,-8.376505606500881
-0.12370000000000014,-8.4203616567967
-0.12470000000000003,-8.464217707092514
-0.12570000000000014,-8.508073757388331
-0.12670000000000003,-8.508073757388331
-0.12770000000000015,-8.508073757388331
-0.12870000000000004,-8.464217707092514
-0.12970000000000015,-8.508073757388331
-0.13070000000000004,-8.594371146680096
-0.13170000000000015,-8.68208324727173
-0.13270000000000004,-8.769795347863363
-0.13370000000000015,-8.85609273715513
-0.13470000000000004,-8.85609273715513
-0.13570000000000015,-8.812236686859313
-0.13670000000000004,-8.812236686859313
-0.13770000000000016,-8.85609273715513
-0.13870000000000005,-8.899948787450944
-0.13970000000000016,-9.031516938338395
-0.14070000000000005,-9.11781432763016
-0.14170000000000016,-9.205526428221793
-0.14270000000000005,-9.205526428221793
-0.14370000000000016,-9.205526428221793
-0.14470000000000005,-9.161670377925978
-0.14570000000000016,-9.205526428221793
-0.14670000000000005,-9.24938247851761
-0.14770000000000016,-9.335679867809377
-0.14870000000000005,-9.423391968401008
-0.14970000000000017,-9.511104068992642
-0.15070000000000006,-9.59740145828441
-0.15170000000000017,-9.55496011928846
-0.15270000000000006,-9.59740145828441
-0.15370000000000017,-9.59740145828441
-0.15470000000000006,-9.641257508580225
-0.15570000000000017,-9.685113558876042
-0.15670000000000006,-9.772825659467674
-0.15770000000000017,-9.81668170976349
-0.15870000000000006,-9.902979099055257
-0.15970000000000018,-9.946835149351072
-0.16070000000000007,-9.99069119964689
-0.16170000000000018,-9.99069119964689
-0.16270000000000007,-10.034547249942705
-0.16370000000000018,-10.078403300238522
-0.16470000000000007,-10.120844639234473
-0.16570000000000018,-10.208556739826104
-0.16670000000000007,-10.25241279012192
-0.16770000000000018,-10.296268840417738
-0.16870000000000007,-10.296268840417738
-0.16970000000000018,-10.296268840417738
-0.17070000000000007,-10.42642228000532
-0.17170000000000019,-10.514134380596953
-0.17270000000000008,-10.557990430892769
-0.1737000000000002,-10.557990430892769
-0.17470000000000008,-10.644287820184536
-0.1757000000000002,-10.688143870480351
-0.17670000000000008,-10.731999920776168
-0.1777000000000002,-10.731999920776168
-0.17870000000000008,-10.731999920776168
-0.1797000000000002,-10.775855971071984
-0.18070000000000008,-10.819712021367803
-0.1817000000000002,-10.949865460955383
-0.18270000000000008,-11.037577561547016
-0.1837000000000002,-11.123874950838783
-0.1847000000000001,-11.123874950838783
-0.1857000000000002,-11.123874950838783
-0.1867000000000001,-11.123874950838783
-0.1877000000000002,-11.1677310011346
-0.1887000000000001,-11.211587051430415
-0.1897000000000002,-11.255443101726232
-0.1907000000000001,-11.299299152022046
-0.1917000000000001,-11.42945259160963
-0.19269999999999998,-11.385596541313816
-0.1937000000000001,-11.42945259160963
-0.19469999999999998,-11.42945259160963
-0.1957000000000001,-11.42945259160963
-0.19669999999999999,-11.473308641905447
-0.1977000000000001,-11.56102074249708
-0.1987,-11.691174182084664
-0.1997000000000001,-11.73503023238048
-0.2007,-11.778886282676295
-0.2017000000000001,-11.82274233297211
-0.2027,-11.82274233297211
-0.2037000000000001,-11.86659838326793
-0.2047,-11.86659838326793
-0.2057000000000001,-11.909039722263879
-0.2067,-11.996751822855511
-0.2077000000000001,-12.12831997374296
-0.2087,-12.214617363034726
-0.2097000000000001,-12.214617363034726
-0.2107,-12.258473413330542
-0.2117000000000001,-12.258473413330542
-0.2127,-12.258473413330542
-0.2137000000000001,-12.346185513922174
-0.2147,-12.390041564217992
-0.2157000000000001,-12.520195003805576
-0.2167,-12.56405105410139
-0.21770000000000012,-12.607907104397206
-0.2187,-12.607907104397206
-0.21970000000000012,-12.651763154693022
-0.2207,-12.694204493688973
-0.22170000000000012,-12.73806054398479
-0.2227,-12.781916594280606
-0.22370000000000012,-12.869628694872238
-0.2247,-12.913484745168056
-0.22570000000000012,-12.955926084164007
-0.2267,-12.99978213445982
-0.22770000000000012,-12.955926084164007
-0.22870000000000001,-12.99978213445982
-0.22970000000000013,-12.99978213445982
-0.23070000000000002,-13.087494235051453
-0.23170000000000013,-13.175206335643086
-0.23270000000000002,-13.261503724934855
-0.23370000000000013,-13.261503724934855
-0.23470000000000002,-13.261503724934855
-0.23570000000000013,-13.30535977523067
-0.23670000000000002,-13.349215825526485
-0.2376999999999999,-13.3930718758223
-0.23870000000000002,-13.3930718758223
-0.2396999999999999,-13.47936926511407
-0.24070000000000003,-13.654793466297335
-0.24169999999999991,-13.698649516593148
-0.24270000000000003,-13.741090855589102
-0.24369999999999992,-13.784946905884919
-0.24470000000000003,-13.828802956180734
-0.24569999999999992,-13.784946905884919
-0.24670000000000003,-13.828802956180734
-0.24769999999999992,-13.960371107068182
-0.24870000000000003,-14.002812446064135
-0.24969999999999992,-14.090524546655764
-0.25070000000000003,-14.13438059695158
-0.2516999999999999,-14.175407224647667
-0.25270000000000004,-14.217848563643619
-0.2536999999999999,-14.217848563643619
-0.25470000000000004,-14.26028990263957
-0.2556999999999999,-14.26028990263957
-0.25670000000000004,-14.26028990263957
-0.25769999999999993,-14.30273124163552
-0.25870000000000004,-14.345172580631472
-0.25969999999999993,-14.30273124163552
-0.26070000000000004,-14.345172580631472
-0.26169999999999993,-14.345172580631472
-0.26270000000000004,-14.345172580631472
-0.26369999999999993,-14.345172580631472
-0.26470000000000005,-14.401761032626075
-0.26569999999999994,-14.486643710617974
-0.26670000000000005,-14.529085049613924
-0.26769999999999994,-14.61396772760583
-0.26870000000000005,-14.65640906660178
-0.26969999999999994,-14.61396772760583
-0.27070000000000005,-14.65640906660178
-0.27169999999999994,-14.65640906660178
-0.27270000000000005,-14.741291744593681
-0.27369999999999994,-14.783733083589633
-0.27470000000000006,-14.826174422585586
-0.27569999999999995,-14.868615761581536
-0.27670000000000006,-14.925204213576137
-0.27769999999999995,-14.925204213576137
-0.27870000000000006,-14.967645552572087
-0.27969999999999995,-15.01008689156804
-0.28070000000000006,-15.137410908555893
-0.28169999999999995,-15.222293586547794
-0.28270000000000006,-15.307176264539699
-0.28369999999999995,-15.349617603535648
-0.28470000000000006,-15.307176264539699
-0.28569999999999995,-15.222293586547794
-0.28670000000000007,-15.179852247551842
-0.28769999999999996,-15.307176264539699
-0.28870000000000007,-15.349617603535648
-0.28969999999999996,-15.448647394526201
-0.29070000000000007,-15.3920589425316
-0.29169999999999996,-15.491088733522153
-0.29270000000000007,-15.491088733522153
-0.29369999999999996,-15.448647394526201
-0.2947000000000001,-15.3920589425316
-0.29569999999999996,-15.3920589425316
-0.2967000000000001,-15.448647394526201
-0.29769999999999996,-15.491088733522153
-0.2987000000000001,-15.575971411514052
-0.29969999999999997,-15.660854089505953
-0.3007000000000001,-15.70329542850191
-0.30169999999999997,-15.78817810649381
-0.3027000000000001,-15.830619445489761
-0.30369999999999997,-15.830619445489761
-0.3047000000000001,-15.91550212348166
-0.30569999999999997,-15.830619445489761
-0.3067000000000001,-15.830619445489761
-0.3077,-15.91550212348166
-0.3087000000000001,-15.91550212348166
-0.3097,-15.87306078448571
-0.3107000000000001,-15.87306078448571
-0.3117,-15.74573676749786
-0.3127000000000001,-15.660854089505953
-0.3137,-15.74573676749786
-0.3147000000000001,-15.830619445489761
-0.3157,-15.87306078448571
-0.3167000000000001,-15.87306078448571
-0.3177,-15.972090575476265
-0.3187000000000001,-16.141855931460068
-0.3197,-16.184297270456018
-0.3207000000000001,-16.22673860945197
-0.3217,-16.22673860945197
-0.3227000000000001,-16.22673860945197
-0.3237,-16.311621287443874
-0.3247000000000001,-16.396503965435777
-0.3257,-16.495533756426326
-0.3267000000000001,-16.495533756426326
-0.3277,-16.438945304431726
-0.3287000000000001,-16.396503965435777
-0.3297,-16.53797509542228
-0.3307000000000001,-16.580416434418233
-0.3317,-16.622857773414182
-0.3327000000000001,-16.665299112410132
-0.3337,-16.665299112410132
-0.3347000000000001,-16.70774045140608
-0.3357,-16.750181790402035
-0.3367000000000001,-16.665299112410132
-0.3377,-16.53797509542228
-0.3387000000000001,-16.622857773414182
-0.3397,-16.580416434418233
-0.3407000000000001,-16.622857773414182
-0.3417,-16.622857773414182
-0.3427000000000001,-16.665299112410132
-0.3437,-16.70774045140608
-0.3447000000000001,-16.750181790402035
-0.3457,-16.919947146385837
-0.3467000000000001,-16.919947146385837
-0.3477,-16.962388485381787
-0.3487000000000001,-17.061418276372343
-0.3497,-17.103859615368293
-0.3507000000000001,-17.188742293360193
-0.3517,-17.103859615368293
-0.3527000000000001,-17.188742293360193
-0.3537,-17.188742293360193
-0.3547000000000001,-17.231183632356142
-0.3557,-17.2736249713521
-0.35670000000000013,-17.358507649344002
-0.3577,-17.40094898833995
-0.35870000000000013,-17.40094898833995
-0.3597,-17.4433903273359
-0.36070000000000013,-17.40094898833995
-0.3617,-17.48583166633185
-0.3626999999999999,-17.48583166633185
-0.3637,-17.542420118326454
-0.3646999999999999,-17.4433903273359
-0.3657,-17.627302796318357
-0.3666999999999999,-17.669744135314307
-0.3677,-17.797068152302163
-0.3686999999999999,-17.881950830294063
-0.36970000000000003,-17.924392169290012
-0.3706999999999999,-18.009274847281915
-0.37170000000000003,-18.06586329927652
-0.3726999999999999,-18.15074597726842
-0.37370000000000003,-18.23562865526032
-0.3746999999999999,-18.320511333252224
-0.37570000000000003,-18.44783535024008
-0.3766999999999999,-18.362952672248177
-0.37770000000000004,-18.362952672248177
-0.3786999999999999,-18.40539401124413
-0.37970000000000004,-18.53271802823198
-0.3806999999999999,-18.674189158218486
-0.38170000000000004,-18.80151317520634
-0.38269999999999993,-18.716630497214435
-0.38370000000000004,-18.759071836210385
-0.38469999999999993,-18.88639585319824
-0.38570000000000004,-18.97127853119014
-0.38669999999999993,-19.112749661176647
-0.38770000000000004,-19.197632339168546
-0.38869999999999993,-19.3249563561564
-0.38970000000000005,-19.579604390132108
-0.39069999999999994,-19.848399537106463
-0.39170000000000005,-20.06060623208622
-0.39269999999999994,-20.244518701068674
-0.39370000000000005,-20.286960040064624
-0.39469999999999994,-20.329401379060574
-0.39570000000000005,-20.371842718056527
-0.39669999999999994,-20.329401379060574
-0.39770000000000005,-20.329401379060574
-0.39869999999999994,-20.286960040064624
-0.39970000000000006,-20.329401379060574
-0.40069999999999995,-20.414284057052477
-0.40170000000000006,-20.541608074040333
-0.40269999999999995,-20.626490752032236
-0.40370000000000006,-20.626490752032236
-0.40469999999999995,-20.76796188201874
-0.40570000000000006,-20.93772723800254
-0.40669999999999995,-21.107492593986347
-0.40770000000000006,-21.291405062968803
-0.40869999999999995,-21.418729079956652
-0.40970000000000006,-21.503611757948562
-0.41069999999999995,-21.58849443594046
-0.41170000000000007,-21.729965565926964
-0.41269999999999996,-21.899730921910766
-0.41370000000000007,-22.069496277894572
-0.41469999999999996,-22.196820294882425
-0.41570000000000007,-22.42317410286083
-0.41669999999999996,-22.550498119848687
-0.41770000000000007,-22.776851927827092
-0.41869999999999996,-22.819293266823045
-0.4197000000000001,-22.946617283810895
-0.42069999999999996,-23.073941300798747
-0.4217000000000001,-23.2012653177866
-0.42269999999999996,-23.385177786769056
-0.4237000000000001,-23.639825820744765
-0.42469999999999997,-23.724708498736668
-0.4257000000000001,-23.951062306715073
-0.42669999999999997,-24.078386323702922
-0.4277000000000001,-24.290593018682678
-0.42869999999999997,-24.474505487665134
-0.4297000000000001,-24.516946826661083
-0.43069999999999997,-24.559388165657033
-0.4317000000000001,-24.686712182644893
-0.4327,-25.0828313466071
-0.4337000000000001,-25.252596702590903
-0.4347,-25.478950510569312
-0.4357000000000001,-25.691157205549064
-0.4367,-25.86092256153287
-0.4377000000000001,-26.002393691519377
-0.4387,-26.38436574248293
-0.4397000000000001,-26.61071955046134
-0.4407,-26.738043567449193
-0.4417000000000001,-26.907808923433
-0.4427,-26.907808923433
-0.4437000000000001,-27.00683871442355
-0.4447,-27.00683871442355
-0.4457000000000001,-27.261486748399253
-0.4467,-27.530281895373616
-0.4477000000000001,-27.742488590353368
-0.4487,-27.912253946337174
-0.4497000000000001,-28.18104909331153
-0.4507,-28.478138466283188
-0.4517000000000001,-28.662050935265643
-0.4527,-28.746933613257543
-0.4537000000000001,-28.91669896924135
-0.4547,-29.100611438223805
-0.4557000000000001,-29.14305277721976
-0.4567,-29.31281813320356
-0.4577000000000001,-29.39770081119546
-0.4587,-29.708937297165768
-0.4597000000000001,-29.96358533114148
-0.4607,-30.232380478115836
-0.4617000000000001,-30.487028512091538
-0.4627,-31.052913032037555
-0.4637000000000001,-31.27926684001596
-0.4647,-31.449032195999767
-0.4657000000000001,-31.802710020966025
-0.4667,-31.930034037953877
-0.4677000000000001,-32.09979939393769
-0.4687,-32.184682071929586
-0.4697000000000001,-32.368594540912035
-0.4707,-32.58080123589179
-0.4717000000000001,-32.84959638286615
-0.4727,-33.01936173884996
-0.4737000000000001,-33.330598224820264
-0.4747,-33.54280491980002
-0.4757000000000001,-33.712570275783825
-0.4767,-34.02380676175414
-0.4777000000000001,-34.06624810075008
-0.4787,-34.278454795729836
-0.4797000000000001,-34.41992592571634
-0.4807,-34.462367264712285
-0.48170000000000013,-34.632132620696105
-0.4827,-35.02825178465831
-0.48370000000000013,-35.46681228761647
-0.4847,-35.679018982596226
-0.48570000000000013,-35.763901660588125
-0.4867,-35.848784338580025
-0.4876999999999999,-36.11757948555439
-0.4887,-36.47125731052064
-0.4896999999999999,-36.6834640055004
-0.4907,-36.89567070048016
-0.4916999999999999,-37.07958316946261
-0.4927,-37.291789864442364
-0.4936999999999999,-37.60302635041268
-0.49470000000000003,-37.90011572338433
-0.4956999999999999,-38.04158685337084
-0.49670000000000003,-38.29623488734655
-0.4976999999999999,-38.6499127123128
-0.49870000000000003,-38.86211940729255
-0.4996999999999999,-39.08847321527096
-0.5007,-39.30067991025072
-0.5016999999999999,-39.51288660523048
-0.5027,-39.61191639622103
-0.5036999999999999,-40.03632978618054
-0.5047,-40.34756627215084
-0.5056999999999999,-40.559772967130606
-0.5067,-40.87100945310091
-0.5076999999999999,-41.352011295055014
