Potential V vs RHE, Current mA cm-2
0.013299999999999867,-0.13011099824858743
0.012299999999999978,-0.3747570233342482
0.011299999999999866,-0.4957148394727089
0.010299999999999976,-0.5834269400643411
0.009299999999999864,-0.6589725234771341
0.008299999999999974,-0.6991503243933012
0.007299999999999862,-0.7205124650212632
0.006299999999999972,-0.7418746056492252
0.00529999999999986,-0.773564138766202
0.0042999999999999705,-0.8110539882126255
0.0032999999999998586,-0.8300111196308171
0.0022999999999999687,-0.8335478978804797
0.0012999999999998568,-0.8442997037594538
0.00029999999999996696,-0.865944786647389
-0.000700000000000145,-0.8959366662045278
-0.0017000000000000348,-0.9107911348531107
-0.0027000000000001467,-0.9085275967733266
-0.0037000000000000366,-0.9146108553627462
-0.0047000000000001485,-0.9363974093806677
-0.005700000000000038,-0.9607304437383465
-0.00670000000000015,-0.9711993073573477
-0.00770000000000004,-0.9695016537975096
-0.008700000000000152,-0.9737457876971048
-0.009700000000000042,-0.9948249860650937
-0.010700000000000154,-1.0174603668629343
-0.011700000000000044,-1.0270804037020165
-0.012700000000000156,-1.0241095099723
-0.013700000000000045,-1.0234021543223675
-0.014700000000000157,-1.0436325259104375
-0.015700000000000047,-1.0668337912282242
-0.01670000000000016,-1.0750391167674413
-0.01770000000000005,-1.0706535117378597
-0.01870000000000016,-1.075180587897428
-0.01970000000000005,-1.0921571234958085
-0.020700000000000163,-1.1160657444635274
-0.021700000000000053,-1.1244125411327313
-0.022700000000000164,-1.1204513494931092
-0.023700000000000054,-1.1221490030529473
-0.024700000000000166,-1.137852298481449
-0.025700000000000056,-1.1648732843088712
-0.026700000000000168,-1.174068907757994
-0.027700000000000058,-1.1725127253281424
-0.02870000000000017,-1.1725127253281424
-0.02970000000000006,-1.1901966165764555
-0.03070000000000017,-1.2180664291837966
-0.03170000000000006,-1.2207543806535404
-0.03270000000000017,-1.2180664291837966
-0.03370000000000006,-1.2241496877732163
-0.034700000000000175,-1.2452288861412053
-0.035700000000000065,-1.2685716225889785
-0.03670000000000018,-1.2750792945683578
-0.03770000000000007,-1.27295722761856
-0.03870000000000018,-1.277767246038101
-0.03970000000000007,-1.3022417515257663
-0.04070000000000018,-1.325443016843553
-0.04170000000000007,-1.3332239289928105
-0.04270000000000018,-1.326574785883445
-0.04370000000000007,-1.3309603909130265
-0.044700000000000184,-1.3534543005808806
-0.045700000000000074,-1.3803338152783162
-0.046700000000000186,-1.389529438727439
-0.047700000000000076,-1.3868414872576953
-0.04870000000000019,-1.3947638705369396
-0.04970000000000008,-1.4138624730851177
-0.05070000000000019,-1.4345172580631471
-0.05170000000000008,-1.4500790823616625
-0.05270000000000019,-1.4486643710617975
-0.05370000000000008,-1.4472496597619326
-0.05470000000000019,-1.4755438857592333
-0.05570000000000008,-1.501008689156804
-0.056700000000000195,-1.512326379555724
-0.057700000000000085,-1.5094969569559942
-0.058700000000000196,-1.5151558021554543
-0.059700000000000086,-1.540620605553025
-0.0607000000000002,-1.5604265637511354
-0.06170000000000009,-1.5745736767497858
-0.0627000000000002,-1.5759883880496508
-0.06370000000000009,-1.580232521949246
-0.0647000000000002,-1.5986237688474914
-0.06570000000000009,-1.6311621287443874
-0.0667000000000002,-1.6453092417430377
-0.0677000000000001,-1.6424798191433077
-0.0687000000000002,-1.655212220842093
-0.0697000000000001,-1.6835064468393939
-0.07070000000000021,-1.7118006728366943
-0.0717000000000001,-1.7202889406358846
-0.07270000000000021,-1.7231183632356148
-0.0737000000000001,-1.7372654762342652
-0.07470000000000021,-1.7599008570321055
-0.0757000000000001,-1.7867803717295414
-0.07670000000000021,-1.8037569073279218
-0.0777000000000001,-1.8037569073279218
-0.07870000000000021,-1.8094157525273817
-0.0797000000000001,-1.8391246898245475
-0.08070000000000022,-1.8773218949209036
-0.0817000000000001,-1.8858101627200938
-0.08270000000000022,-1.890054296619689
-0.08370000000000011,-1.9042014096183393
-0.08470000000000022,-1.925422079116315
-0.08570000000000011,-1.9551310164134805
-0.08670000000000022,-1.972107552011861
-0.08770000000000011,-1.9791811085111866
-0.08870000000000022,-1.9834252424107812
-0.08970000000000011,-2.011719468408082
-0.09070000000000022,-2.044257828304978
-0.09170000000000011,-2.054160807404033
-0.09270000000000023,-2.0569902300037635
-0.09370000000000012,-2.0753814769020087
-0.09470000000000023,-2.1008462802995793
-0.09570000000000012,-2.12914050629688
-0.09670000000000023,-2.1447023305953956
-0.09770000000000012,-2.156020020994316
-0.09870000000000023,-2.1701671339929662
-0.09970000000000012,-2.199876071290132
-0.10070000000000023,-2.2338291424868926
-0.10170000000000012,-2.2522203893851382
-0.10270000000000024,-2.2564645232847336
-0.10370000000000013,-2.2677822136836534
-0.10470000000000024,-2.3045647074801447
-0.10570000000000013,-2.3427619125765005
-0.10670000000000024,-2.355494314275286
-0.10770000000000013,-2.359738448174881
-0.10870000000000024,-2.379544406372992
-0.10970000000000013,-2.412082766269888
-0.11070000000000024,-2.4460358374666487
-0.11170000000000013,-2.463012373065029
-0.11270000000000002,-2.4743300634639493
-0.11370000000000013,-2.4842330425630044
-0.11470000000000002,-2.5238449589592253
-0.11570000000000014,-2.5677010092550416
-0.11670000000000003,-2.590336390052882
-0.11770000000000014,-2.587506967453152
-0.11870000000000003,-2.6129717708507227
-0.11970000000000014,-2.6497542646472136
-0.12070000000000003,-2.6766337793446495
-0.12170000000000014,-2.697854448842625
-0.12270000000000003,-2.706342716641815
-0.12370000000000014,-2.720489829640466
-0.12470000000000003,-2.7558576121370915
-0.12570000000000014,-2.7997136624329078
-0.12670000000000003,-2.8265931771303436
-0.12770000000000015,-2.8294225997300737
-0.12870000000000004,-2.846399135328454
-0.12970000000000015,-2.88742576302454
-0.13070000000000004,-2.919964122921436
-0.13170000000000015,-2.9397700811195464
-0.13270000000000004,-2.9595760393176564
-0.13370000000000015,-2.9836261314153627
-0.13470000000000004,-3.0175792026121235
-0.13570000000000015,-3.0487028512091543
-0.13670000000000004,-3.069923520707129
-0.13770000000000016,-3.08407063370578
-0.13870000000000005,-3.0996324580042955
-0.13970000000000016,-3.1392443744005165
-0.14070000000000005,-3.1873445585959277
-0.14170000000000016,-3.1901739811956578
-0.14270000000000005,-3.200076960294713
-0.14370000000000016,-3.2212976297926885
-0.14470000000000005,-3.2566654122893146
-0.14570000000000016,-3.2976920399854004
-0.14670000000000005,-3.3245715546828363
-0.14770000000000016,-3.3401333789813514
-0.14870000000000005,-3.355695203279867
-0.14970000000000017,-3.3967218309759533
-0.15070000000000006,-3.45472499427042
-0.15170000000000017,-3.4830192202677206
-0.15270000000000006,-3.4787750863681253
-0.15370000000000017,-3.5014104671659654
-0.15470000000000006,-3.5381929609624567
-0.15570000000000017,-3.5679018982596227
-0.15670000000000006,-3.579219588658543
-0.15770000000000017,-3.5976108355567886
-0.15870000000000006,-3.623075638954359
-0.15970000000000018,-3.641466885852605
-0.16070000000000007,-3.688152358748151
-0.16170000000000018,-3.713617162145721
-0.16270000000000007,-3.730593697744102
-0.16370000000000018,-3.7730350367400525
-0.16470000000000007,-3.818305798335734
-0.16570000000000018,-3.84235589043344
-0.16670000000000007,-3.8593324260318203
-0.16770000000000018,-3.8791383842299307
-0.16870000000000007,-3.9116767441268263
-0.16970000000000018,-3.9512886605230477
-0.17070000000000007,-3.9909005769192687
-0.17170000000000019,-4.017780091616704
-0.17270000000000008,-4.04183018371441
-0.1737000000000002,-4.03617133851495
-0.17470000000000008,-4.054562585413195
-0.1757000000000002,-4.106906903508202
-0.17670000000000008,-4.1295422843060425
-0.1777000000000002,-4.1564217990034775
-0.17870000000000008,-4.187545447600509
-0.1797000000000002,-4.220083807497405
-0.18070000000000008,-4.251207456094435
-0.1817000000000002,-4.287989949890926
-0.18270000000000008,-4.319113598487957
-0.1837000000000002,-4.336090134086337
-0.1847000000000001,-4.377116761782423
-0.1857000000000002,-4.413899255578914
-0.1867000000000001,-4.450681749375406
-0.1877000000000002,-4.449267038075541
-0.1887000000000001,-4.474731841473111
-0.1897000000000002,-4.531320293467712
-0.1907000000000001,-4.565273364664473
-0.1917000000000001,-4.573761632463664
-0.19269999999999998,-4.592152879361908
-0.1937000000000001,-4.626105950558669
-0.19469999999999998,-4.671376712154351
-0.1957000000000001,-4.7138180511503025
-0.19669999999999999,-4.735038720648277
-0.1977000000000001,-4.744941699747333
-0.1987,-4.759088812745984
-0.1997000000000001,-4.807188996941395
-0.2007,-4.852459758537076
-0.2017000000000001,-4.887827541033701
-0.2027,-4.906218787931947
-0.2037000000000001,-4.9302688800296535
-0.2047,-4.958563106026954
-0.2057000000000001,-4.995345599823445
-0.2067,-5.026469248420476
-0.2077000000000001,-5.03637222751953
-0.2087,-5.059007608317371
-0.2097000000000001,-5.101448947313322
-0.2107,-5.142475575009408
-0.2117000000000001,-5.169355089706844
-0.2127,-5.17642864620617
-0.2137000000000001,-5.204722872203471
-0.2147,-5.247164211199421
-0.2157000000000001,-5.286776127595641
-0.2167,-5.307996797093617
-0.21770000000000012,-5.319314487492538
-0.2187,-5.351852847389433
-0.21970000000000012,-5.3815617846866
-0.2207,-5.4169295671832245
-0.22170000000000012,-5.4423943705807964
-0.2227,-5.4622003287789065
-0.22370000000000012,-5.489079843476342
-0.2247,-5.523032914673103
-0.22570000000000012,-5.548497718070673
-0.2267,-5.5598154084695945
-0.22770000000000012,-5.57820665536784
-0.22870000000000001,-5.585280211867165
-0.22970000000000013,-5.6192332830639256
-0.23070000000000002,-5.62064799436379
-0.23170000000000013,-5.555571274569999
-0.23270000000000002,-5.565474253669055
-0.23370000000000013,-5.59235376836649
-0.23470000000000002,-5.641868663861766
-0.23570000000000013,-5.688554136757313
-0.23670000000000002,-5.702701249755963
-0.2376999999999999,-5.712604228855018
-0.23870000000000002,-5.704115961055828
-0.2396999999999999,-5.708360094955423
-0.24070000000000003,-5.7380690322525885
-0.24169999999999991,-5.760704413050429
-0.24270000000000003,-5.74938672265151
-0.24369999999999992,-5.746557300051779
-0.24470000000000003,-5.78051037124854
-0.24569999999999992,-5.79465748424719
-0.24670000000000003,-5.808804597245841
-0.24769999999999992,-5.786169216448
-0.24870000000000003,-5.798901618146785
-0.24969999999999992,-5.818707576344896
-0.25070000000000003,-5.830025266743816
-0.2516999999999999,-5.838513534543006
-0.25270000000000004,-5.8427576684426015
-0.2536999999999999,-5.814463442445301
-0.25470000000000004,-5.849831224941926
-0.2556999999999999,-5.882369584838822
-0.25670000000000004,-5.892272563937878
-0.25769999999999993,-5.863978337940577
-0.25870000000000004,-5.8752960283394975
-0.25969999999999993,-5.919152078635313
-0.26070000000000004,-5.930469769034234
-0.26169999999999993,-5.914907944735719
-0.26270000000000004,-5.920566789935179
-0.26369999999999993,-5.910663810836123
-0.26470000000000005,-5.923396212534908
-0.26569999999999994,-5.930469769034234
-0.26670000000000005,-5.958763995031535
-0.26769999999999994,-5.926225635134639
-0.26870000000000005,-5.919152078635313
-0.26969999999999994,-5.926225635134639
-0.27070000000000005,-5.940372748133289
-0.27169999999999994,-5.9347139029338285
-0.27270000000000005,-5.893687275237743
-0.27369999999999994,-5.902175543036933
-0.27470000000000006,-5.913493233435854
-0.27569999999999995,-5.905004965636663
-0.27670000000000006,-5.923396212534908
-0.27769999999999995,-5.919152078635313
-0.27870000000000006,-5.916322656035583
-0.27969999999999995,-5.913493233435854
-0.28070000000000006,-5.940372748133289
-0.28169999999999995,-5.967252262830725
-0.28270000000000006,-5.938958036833425
-0.28369999999999995,-5.940372748133289
-0.28470000000000006,-5.9997906227276205
-0.28569999999999995,-6.1044792589176335
-0.28670000000000007,-6.067696765121143
-0.28769999999999996,-6.039402539123842
-0.28870000000000007,-6.028084848724921
-0.28969999999999996,-6.029499560024787
-0.29070000000000007,-6.035158405224247
-0.29169999999999996,-6.050720229522762
-0.29270000000000007,-6.035158405224247
-0.29369999999999996,-6.0592084973219515
-0.2947000000000001,-6.108723392817228
-0.29569999999999996,-6.107308681517363
-0.2967000000000001,-6.095990991118443
-0.29769999999999996,-6.115796949316553
-0.2987000000000001,-6.132773484914934
-0.29969999999999997,-6.166726556111695
-0.3007000000000001,-6.199264916008591
-0.30169999999999997,-6.207753183807781
-0.3027000000000001,-6.250194522803732
-0.30369999999999997,-6.270000481001842
-0.3047000000000001,-6.289806439199953
-0.30569999999999997,-6.309612397398063
-0.3067000000000001,-6.316685953897389
-0.3077,-6.3407360459950945
-0.3087000000000001,-6.405812765788886
-0.3097,-6.451083527384568
-0.3107000000000001,-6.521819092377819
-0.3117,-6.616604749468776
-0.3127000000000001,-6.616604749468776
-0.3137,-6.620848883368372
-0.3147000000000001,-6.680266757962703
-0.3157,-6.701487427460679
-0.3167000000000001,-6.724122808258519
-0.3177,-6.753831745555685
-0.3187000000000001,-6.835885000947857
-0.3197,-6.882570473843404
-0.3207000000000001,-6.933500080638546
-0.3217,-7.025456315129772
-0.3227000000000001,-7.082044767124374
-0.3237,-7.120241972220731
-0.3247000000000001,-7.215027629311687
-0.3257,-7.309813286402645
-0.3267000000000001,-7.369231160996977
-0.3277,-7.37347529489657
-0.3287000000000001,-7.435722592090633
-0.3297,-7.537581805680916
-0.3307000000000001,-7.599829102874978
-0.3317,-7.652173420969983
-0.3327000000000001,-7.728567831162695
-0.3337,-7.837500601252304
-0.3347000000000001,-7.925212701843934
-0.3357,-8.012924802435567
-0.3367000000000001,-8.100636903027201
-0.3377,-8.164298911521126
-0.3387000000000001,-8.287378794609385
-0.3397,-8.406214543798049
-0.3407000000000001,-8.509488468688197
-0.3417,-8.600029991879557
-0.3427000000000001,-8.691986226370785
-0.3437,-8.751404100965116
-0.3447000000000001,-8.833457356357288
-0.3457,-8.92116945694892
-0.3467000000000001,-9.05273760783637
-0.3477,-9.22391767512004
-0.3487000000000001,-9.308800353111941
-0.3497,-9.453100905698175
-0.3507000000000001,-9.577595500086298
-0.3517,-9.683698847576176
-0.3527000000000001,-9.775655082067402
-0.3537,-9.944005726751344
-0.3547000000000001,-10.078403300238522
-0.3557,-10.24675394492246
-0.35670000000000013,-10.463204773801811
-0.3577,-10.682485025280892
-0.35870000000000013,-10.720682230377248
-0.3597,-10.906009410659568
-0.36070000000000013,-10.95693901745471
-0.3617,-11.177633980233654
-0.3626999999999999,-11.1960252271319
-0.3637,-11.377108273514626
-0.3646999999999999,-11.641659286589386
-0.3657,-11.781715705276024
-0.3666999999999999,-11.839718868570493
-0.3677,-12.063243253949167
-0.3686999999999999,-12.261302835930273
-0.36970000000000003,-12.33628253482312
-0.3706999999999999,-12.54424509590328
-0.37170000000000003,-12.774843037781283
-0.3726999999999999,-12.71825458578668
-0.37370000000000003,-13.14549739834592
-0.3746999999999999,-13.329409867328376
-0.37570000000000003,-13.415707256620143
-0.3766999999999999,-13.545860696207727
-0.37770000000000004,-13.683087692294635
-0.3786999999999999,-13.77787334938559
-0.37970000000000004,-14.161260111649016
-0.3806999999999999,-14.331025467632822
-0.38170000000000004,-14.458349484620674
-0.38269999999999993,-14.727144631595033
-0.38370000000000004,-14.65640906660178
-0.38469999999999993,-15.080822456561293
-0.38570000000000004,-15.293029151541045
-0.38669999999999993,-15.335470490536997
-0.38770000000000004,-15.717442541500558
-0.38869999999999993,-15.717442541500558
-0.38970000000000005,-16.04282614046952
-0.39069999999999994,-16.28332706144657
-0.39170000000000005,-16.29747417444522
-0.39269999999999994,-16.820917355395284
-0.39370000000000005,-16.891652920388537
-0.39469999999999994,-17.132153841365596
-0.39570000000000005,-17.316066310348052
-0.39669999999999994,-17.4150961013386
-0.39770000000000005,-17.782921039303513
-0.39869999999999994,-17.782921039303513
-0.39970000000000006,-18.23562865526032
-0.40069999999999995,-18.27806999425627
-0.40170000000000006,-18.603453593225233
-0.40269999999999995,-18.815660288204988
-0.40370000000000006,-18.985425644188794
-0.40469999999999995,-19.296662130159103
-0.40570000000000006,-19.423986147146955
-0.40669999999999995,-19.77766397211321
-0.40770000000000006,-19.98987066709297
-0.40869999999999995,-19.98987066709297
-0.40970000000000006,-20.38598983105518
-0.41069999999999995,-20.52746096104168
-0.41170000000000007,-20.78210899501739
-0.41269999999999996,-21.008462802995794
-0.41370000000000007,-21.149933932982297
-0.41469999999999996,-21.574347322941808
-0.41570000000000007,-21.645082887935057
-0.41669999999999996,-22.027054938898623
-0.41770000000000007,-22.253408746877028
-0.41869999999999996,-22.295850085872978
-0.4197000000000001,-22.748557701829792
-0.42069999999999996,-23.017352848804148
-0.4217000000000001,-22.974911509808198
-0.42269999999999996,-23.49835469075826
-0.4237000000000001,-23.56909025575151
-0.42469999999999997,-23.92276808071777
-0.4257000000000001,-24.290593018682678
-0.42669999999999997,-24.474505487665134
-0.4277000000000001,-24.67256506964624
-0.42869999999999997,-24.941360216620595
-0.4297000000000001,-25.266743815589557
-0.43069999999999997,-25.521391849565262
-0.4317000000000001,-25.549686075562565
-0.4327,-25.94580523952477
-0.4337000000000001,-26.398512855481584
-0.4347,-26.539983985468087
-0.4357000000000001,-26.69560222845324
-0.4367,-27.247339635400607
-0.4377000000000001,-27.756635703352025
-0.4387,-27.883959720339874
-0.4397000000000001,-27.968842398331773
-0.4407,-28.421550014288584
-0.4417000000000001,-28.619609596269694
-0.4427,-28.93084608224
-0.4437000000000001,-29.128905664221104
-0.4447,-29.525024828183312
-0.4457000000000001,-29.72308441016442
-0.4467,-29.864555540150924
-0.4477000000000001,-30.274821817111786
-0.4487,-30.55776407708479
-0.4497000000000001,-30.982177467044306
-0.4507,-31.250972614018657
-0.4517000000000001,-31.321708179011907
-0.4527,-31.85929847296063
-0.4537000000000001,-32.170534958930936
-0.4547,-32.49591855789989
-0.4557000000000001,-32.892037721862096
-0.4567,-33.11839152984051
-0.4577000000000001,-33.51451069380272
-0.4587,-33.98136542275818
-0.4597000000000001,-34.06624810075008
-0.4607,-34.39163169971904
-0.4617000000000001,-34.61798550769744
-0.4627,-35.12728157564886
-0.4637000000000001,-35.183870027643465
-0.4647,-35.52340073961108
-0.4657000000000001,-36.06099103355979
-0.4667,-36.315639067535486
-0.4677000000000001,-36.40052174552739
-0.4687,-36.92396492647745
-0.4697000000000001,-37.235201412447765
-0.4707,-37.702056141403226
-0.4717000000000001,-37.758644593397825
-0.4727,-38.154763757360044
-0.4737000000000001,-38.5367358083236
-0.4747,-38.6499127123128
-0.4757000000000001,-38.83382518129526
-0.4767,-39.51288660523048
-0.4777000000000001,-40.191948029165694
-0.4787,-40.30512493315489
-0.4797000000000001,-40.65880275812115
-0.4807,-40.92759790509552
-0.48170000000000013,-41.196393052069865
-0.4827,-41.649100668026676
-0.48370000000000013,-42.214985187972694
-0.4847,-42.25742652696865
-0.48570000000000013,-42.526221673943
-0.4867,-42.653545690930855
-0.48570000000000013,-42.158396735978094
-0.4847,-41.83301313700913
-0.48370000000000013,-41.53592376403748
-0.4827,-40.97003924409146
-0.48170000000000013,-41.01248058308742
-0.4807,-40.545625854131956
-0.4797000000000001,-40.5880671931279
-0.4787,-40.616361419125205
-0.4777000000000001,-39.99388844718459
-0.4767,-39.83827020419943
-0.4757000000000001,-39.314827023249364
-0.4747,-39.116767441268266
-0.4737000000000001,-38.83382518129526
-0.4727,-38.4518531303317
-0.4717000000000001,-38.23964643535194
-0.4707,-37.98499840137623
-0.4697000000000001,-37.91426283638298
-0.4687,-37.40496676843157
-0.4677000000000001,-37.122024508458566
-0.4667,-36.88152358748151
-0.4657000000000001,-36.78249379649095
-0.4647,-36.18831505054764
