Potential V vs RHE, Current mA cm-2
0.013299999999999867,-0.713155966261965
0.012299999999999978,-1.1662879956087364
0.011299999999999866,-1.4967645552572086
0.010299999999999976,-1.7570714344323757
0.009299999999999864,-1.9607898616129409
0.008299999999999974,-2.1192375271978254
0.007299999999999862,-2.2706116362833835
0.006299999999999972,-2.427644590568403
0.00529999999999986,-2.576189277054232
0.0042999999999999705,-2.6907808923433
0.0032999999999998586,-2.7770782816350668
0.0022999999999999687,-2.870449227426159
0.0012999999999998568,-2.9878702653149576
0.00029999999999996696,-3.08972947890524
-0.000700000000000145,-3.1731974455972773
-0.0017000000000000348,-3.2396888766909337
-0.0027000000000001467,-3.313253864283916
-0.0037000000000000366,-3.4136983665743337
-0.0047000000000001485,-3.4999957558661006
-0.005700000000000038,-3.5650724756598926
-0.00670000000000015,-3.6202462163546287
-0.00770000000000004,-3.6754199570493657
-0.008700000000000152,-3.7631320576409975
-0.009700000000000042,-3.8480147356329
-0.010700000000000154,-3.9074326102272314
-0.011700000000000044,-3.9498739492231825
-0.012700000000000156,-4.009291823817514
-0.013700000000000045,-4.084271522710361
-0.014700000000000157,-4.163495355502803
-0.015700000000000047,-4.218669096197539
-0.01670000000000016,-4.262525146493355
-0.01770000000000005,-4.296478217690116
-0.01870000000000016,-4.368628493983234
-0.01970000000000005,-4.453511171975136
-0.020700000000000163,-4.498781933570816
-0.021700000000000053,-4.534149716067443
-0.022700000000000164,-4.597811724561368
-0.023700000000000054,-4.6742061347540815
-0.024700000000000166,-4.723721030249357
-0.025700000000000056,-4.757674101446118
-0.026700000000000168,-4.80577428564153
-0.027700000000000058,-4.876509850634781
-0.02870000000000017,-4.952904260827493
-0.02970000000000006,-5.015151558021555
-0.03070000000000017,-5.0618370309171015
-0.03170000000000006,-5.097204813413727
-0.03270000000000017,-5.153793265408329
-0.03370000000000006,-5.237261232100366
-0.034700000000000175,-5.283946704995913
-0.035700000000000065,-5.333461600491188
-0.03670000000000018,-5.3815617846866
-0.03770000000000007,-5.443809081880661
-0.03870000000000018,-5.523032914673103
-0.03970000000000007,-5.58952434576676
-0.04070000000000018,-5.630550973462847
-0.04170000000000007,-5.651771642960822
-0.04270000000000018,-5.714018940154883
-0.04370000000000007,-5.798901618146785
-0.044700000000000184,-5.858319492741117
-0.045700000000000074,-5.909249099536258
-0.046700000000000186,-5.978569953229646
-0.047700000000000076,-6.037987827823977
-0.04870000000000019,-6.117211660616419
-0.04970000000000008,-6.197850204708726
-0.05070000000000019,-6.228973853305757
-0.05170000000000008,-6.264341635802381
-0.05270000000000019,-6.343565468594824
-0.05370000000000008,-6.429862857886591
-0.05470000000000019,-6.506257268079304
-0.05570000000000008,-6.55294274097485
-0.056700000000000195,-6.602457636470127
-0.057700000000000085,-6.681681469262568
-0.058700000000000196,-6.75807587945528
-0.059700000000000086,-6.851446825246373
-0.0607000000000002,-6.893888164242324
-0.06170000000000009,-6.960379595335981
-0.0627000000000002,-7.024041603829907
-0.06370000000000009,-7.069312365425588
-0.0647000000000002,-7.186733403314386
-0.06570000000000009,-7.247565989208583
-0.0667000000000002,-7.290007328204534
-0.0677000000000001,-7.346595780199135
-0.0687000000000002,-7.434307880790768
-0.0697000000000001,-7.4937257553851
-0.07070000000000021,-7.565876031678216
-0.0717000000000001,-7.635196885371603
-0.07270000000000021,-7.7186648520636405
-0.0737000000000001,-7.806376952655272
-0.07470000000000021,-7.867209538549469
-0.0757000000000001,-7.950677505241506
-0.07670000000000021,-7.995948266837187
-0.0777000000000001,-8.059610275331114
-0.07870000000000021,-8.17420189062018
-0.0797000000000001,-8.259084568612085
-0.08070000000000022,-8.326990711005607
-0.0817000000000001,-8.373676183901154
-0.08270000000000022,-8.437338192395078
-0.08370000000000011,-8.526465004286575
-0.08470000000000022,-8.578809322381582
-0.08570000000000011,-8.658033155174026
-0.08670000000000022,-8.748574678365387
-0.08770000000000011,-8.803748419060124
-0.08870000000000022,-8.916925323049327
-0.08970000000000011,-9.007466846240689
-0.09070000000000022,-9.09234952423259
-0.09170000000000011,-9.120643750229892
-0.09270000000000023,-9.158840955326248
-0.09370000000000012,-9.283335549714371
-0.09470000000000023,-9.405000721502764
-0.09570000000000012,-9.488468688194802
-0.09670000000000023,-9.523836470691428
-0.09770000000000012,-9.594572035684678
-0.09870000000000023,-9.703504805774287
-0.09970000000000012,-9.775655082067402
-0.10070000000000023,-9.832243534062004
-0.10170000000000012,-9.951079283250667
-0.10270000000000024,-10.041620806442031
-0.10370000000000013,-10.084062145437981
-0.10470000000000024,-10.157627133030964
-0.10570000000000013,-10.275048170919762
-0.10670000000000024,-10.325977777714902
-0.10770000000000013,-10.316074798615848
-0.10870000000000024,-10.392469208808558
-0.10970000000000013,-10.531110916195333
-0.11070000000000024,-10.61457888288737
-0.11170000000000013,-10.649946665383997
-0.11270000000000002,-10.722096941677114
-0.11370000000000013,-10.855079803864427
-0.11470000000000002,-10.939962481856329
-0.11570000000000014,-10.980989109552414
-0.11670000000000003,-11.053139385845531
-0.11770000000000014,-11.15924273333541
-0.11870000000000003,-11.258272524325962
-0.11970000000000014,-11.337496357118404
-0.12070000000000003,-11.467649796705988
-0.12170000000000014,-11.582241411995057
-0.12270000000000003,-11.644488709189117
-0.12370000000000014,-11.72937138718102
-0.12470000000000003,-11.845377713769953
-0.12570000000000014,-11.941578082160774
-0.12670000000000003,-11.962798751658749
-0.12770000000000015,-11.961384040358885
-0.12870000000000004,-12.135393530242286
-0.12970000000000015,-12.281108794128384
-0.13070000000000004,-12.334867823523254
-0.13170000000000015,-12.3815532964188
-0.13270000000000004,-12.494730200408004
-0.13370000000000015,-12.568295188000986
-0.13470000000000004,-12.660251422492214
-0.13570000000000015,-12.702692761488164
-0.13670000000000004,-12.798893129878989
-0.13770000000000016,-12.885190519170754
-0.13870000000000005,-12.996952711860093
-0.13970000000000016,-13.11154432714916
-0.14070000000000005,-13.175206335643086
-0.14170000000000016,-13.226135942438228
-0.14270000000000005,-13.298286218731345
-0.14370000000000016,-13.421366101819604
-0.14470000000000005,-13.521810604110021
-0.14570000000000016,-13.685917114894366
-0.14670000000000005,-13.804752864083028
-0.14770000000000016,-13.8868061194752
-0.14870000000000005,-13.977347642666562
-0.14970000000000017,-14.045253785060085
-0.15070000000000006,-14.189554337646317
-0.15170000000000017,-14.316878354634172
-0.15270000000000006,-14.387613919627421
-0.15370000000000017,-14.486643710617974
-0.15470000000000006,-14.57152638860988
-0.15570000000000017,-14.71299751859638
-0.15670000000000006,-14.71299751859638
-0.15770000000000017,-14.783733083589633
-0.15870000000000006,-14.797880196588284
-0.15970000000000018,-14.812027309586934
-0.16070000000000007,-14.882762874580186
-0.16170000000000018,-14.953498439573437
-0.16270000000000007,-15.06667534356264
-0.16370000000000018,-15.264734925543747
-0.16470000000000007,-15.448647394526201
-0.16570000000000018,-15.547677185516752
-0.16670000000000007,-15.675001202504609
-0.16770000000000018,-15.830619445489761
-0.16870000000000007,-15.957943462477614
-0.16970000000000018,-16.11356170546277
-0.17070000000000007,-16.056973253468165
-0.17170000000000019,-16.085267479465468
-0.17270000000000008,-16.325768400442524
-0.1737000000000002,-16.396503965435777
-0.17470000000000008,-16.481386643427676
-0.1757000000000002,-16.382356852437127
-0.17670000000000008,-16.50968086942498
-0.1777000000000002,-16.59456354741688
-0.17870000000000008,-16.622857773414182
-0.1797000000000002,-16.835064468393938
-0.18070000000000008,-17.160448067362896
-0.1817000000000002,-15.236440699546446
-0.18270000000000008,-13.756652679887615
-0.1837000000000002,-14.231995676642269
-0.1847000000000001,-14.62811484060448
-0.1857000000000002,-14.967645552572087
-0.1867000000000001,-15.02423400456669
-0.1877000000000002,-14.882762874580186
-0.1887000000000001,-15.137410908555893
-0.1897000000000002,-15.349617603535648
-0.1907000000000001,-15.547677185516752
-0.1917000000000001,-15.604265637511356
-0.19269999999999998,-15.87306078448571
-0.1937000000000001,-16.141855931460068
-0.19469999999999998,-16.28332706144657
-0.1957000000000001,-16.50968086942498
-0.19669999999999999,-16.764328903400685
-0.1977000000000001,-16.778476016399335
-0.1987,-16.806770242396635
-0.1997000000000001,-17.061418276372343
-0.2007,-17.20288940635885
-0.2017000000000001,-17.37265476234265
-0.2027,-17.4433903273359
-0.2037000000000001,-17.627302796318357
-0.2047,-17.995127734283265
-0.2057000000000001,-18.02342196028057
-0.2067,-17.924392169290012
-0.2077000000000001,-17.966833508285966
-0.2087,-18.249775768258974
-0.2097000000000001,-18.23562865526032
-0.2107,-18.391246898245473
-0.2117000000000001,-18.645894932221182
-0.2127,-18.843954514202288
-0.2137000000000001,-19.056161209182044
-0.2147,-19.155191000172596
-0.2157000000000001,-19.4381332601456
-0.2167,-19.579604390132108
-0.21770000000000012,-19.77766397211321
-0.2187,-20.07475334508487
-0.21970000000000012,-20.34354849205923
-0.2207,-20.456725396048434
-0.22170000000000012,-20.499166735044383
-0.2227,-20.72552054302279
-0.22370000000000012,-20.640637865030882
-0.2247,-20.79625610801604
-0.22570000000000012,-21.093345480987697
-0.2267,-21.390434853959356
-0.22770000000000012,-21.68752422693101
-0.22870000000000001,-21.899730921910766
-0.22970000000000013,-22.126084729889175
-0.23070000000000002,-22.451468328858134
-0.23170000000000013,-22.734410588831135
-0.23270000000000002,-22.932470170812245
-0.23370000000000013,-23.371030673770406
-0.23470000000000002,-23.51250180375691
-0.23570000000000013,-23.55494314275286
-0.23670000000000002,-23.597384481748815
-0.2376999999999999,-24.092533436701576
-0.23870000000000002,-24.432064148669184
-0.2396999999999999,-24.686712182644893
-0.24070000000000003,-24.927213103621945
-0.24169999999999991,-25.309185154585506
-0.24270000000000003,-25.478950510569312
-0.24369999999999992,-25.49309762356796
-0.24470000000000003,-25.73359854454502
-0.24569999999999992,-25.875069674531517
-0.24670000000000003,-26.101423482509926
-0.24769999999999992,-26.17215904750318
-0.24870000000000003,-26.483395533473487
-0.24969999999999992,-27.049280053419505
-0.25070000000000003,-27.162456957408708
-0.2516999999999999,-27.162456957408708
-0.25270000000000004,-27.62931168636417
-0.2536999999999999,-27.926401059335824
-0.25470000000000004,-28.05372507632368
-0.2556999999999999,-28.237637545306132
-0.25670000000000004,-28.44984424028589
-0.25769999999999993,-24.997948668615198
-0.25870000000000004,-22.890028831816295
-0.25969999999999993,-23.47006046476096
-0.26070000000000004,-23.54079602975421
-0.26169999999999993,-23.852032515724517
-0.26270000000000004,-24.31888724467998
-0.26369999999999993,-24.516946826661083
-0.26470000000000005,-24.488652600663784
-0.26569999999999994,-24.61597661765164
-0.26670000000000005,-24.757447747638142
-0.26769999999999994,-25.012095781613848
-0.26870000000000005,-25.49309762356796
-0.26969999999999994,-25.46480339757066
-0.27070000000000005,-25.832628335535567
-0.27169999999999994,-25.988246578520723
-0.27270000000000005,-26.17215904750318
-0.27369999999999994,-26.398512855481584
-0.27470000000000006,-26.65316088945729
-0.27569999999999995,-27.0209858274222
-0.27670000000000006,-27.176604070407354
-0.27769999999999995,-27.36051653938981
-0.27870000000000006,-27.770782816350668
-0.27969999999999995,-27.898106833338524
-0.28070000000000006,-27.883959720339874
-0.28169999999999995,-27.827371268345274
-0.28270000000000006,-27.544429008372262
-0.28369999999999995,-28.11031352831828
-0.28470000000000006,-28.308373110299385
-0.28569999999999995,-28.393255788291288
-0.28670000000000007,-28.435697127287238
-0.28769999999999996,-28.577168257273744
-0.28870000000000007,-29.539171941181966
-0.28969999999999996,-30.11920357412663
-0.29070000000000007,-30.387998721100992
-0.29169999999999996,-28.364961562293985
-0.29270000000000007,-28.039577963325023
-0.29369999999999996,-28.393255788291288
-0.2947000000000001,-28.831816291249446
-0.29569999999999996,-29.100611438223805
-0.2967000000000001,-28.831816291249446
-0.29769999999999996,-29.63820173217252
-0.2987000000000001,-30.03432089613473
-0.29969999999999997,-30.71338232006995
-0.3007000000000001,-31.038765919038905
-0.30169999999999997,-31.038765919038905
-0.3027000000000001,-31.12364859703081
-0.30369999999999997,-31.095354371033505
-0.3047000000000001,-31.052913032037555
-0.30569999999999997,-31.533914873991666
-0.3067000000000001,-32.05735805494172
-0.3077,-31.30756106601326
-0.3087000000000001,-30.62849964207804
-0.3097,-31.137795710029454
-0.3107000000000001,-31.703680229975475
-0.3117,-32.15638784593229
-0.3127000000000001,-31.930034037953877
-0.3137,-32.184682071929586
-0.3147000000000001,-32.45347721890394
-0.3157,-32.269564749921486
-0.3167000000000001,-32.15638784593229
-0.3177,-32.38274165391069
-0.3187000000000001,-32.65153680088505
-0.3197,-32.84959638286615
-0.3207000000000001,-32.99106751285265
-0.3217,-33.160832868836465
-0.3227000000000001,-28.166901980312883
-0.3237,-25.988246578520723
-0.3247000000000001,-26.29948306449103
-0.3257,-26.34192440348698
-0.3267000000000001,-23.97935653271237
-0.3277,-23.187118204787954
-0.3287000000000001,-23.399324899767706
-0.3297,-23.682267159740714
-0.3307000000000001,-24.00765075870967
-0.3317,-24.417917035670534
-0.3327000000000001,-24.33303435767863
-0.3337,-24.630123730650286
-0.3347000000000001,-24.927213103621945
-0.3357,-25.224302476593607
-0.3367000000000001,-25.43650917157336
-0.3377,-25.761892770542314
-0.3387000000000001,-26.002393691519377
-0.3397,-26.38436574248293
-0.3407000000000001,-26.62486666345999
-0.3417,-26.95025026242895
-0.3427000000000001,-27.233192522401957
-0.3437,-27.36051653938981
-0.3447000000000001,-27.544429008372262
-0.3457,-27.813224155346617
-0.3467000000000001,-28.06787218932233
-0.3477,-28.308373110299385
-0.3487000000000001,-28.619609596269694
-0.3497,-28.393255788291288
-0.3507000000000001,-27.968842398331773
-0.3517,-28.039577963325023
-0.3527000000000001,-28.13860775431558
-0.3537,-28.52057980527914
-0.3547000000000001,-28.944993195238652
-0.3557,-29.31281813320356
-0.35670000000000013,-29.496730602186016
-0.3577,-29.567466167179266
-0.35870000000000013,-30.02017378313608
-0.3597,-30.571911190083444
-0.36070000000000013,-31.23682550102001
-0.3617,-31.675386003978172
-0.3626999999999999,-32.170534958930936
-0.3637,-32.4676243319026
-0.3646999999999999,-32.39688876690934
-0.3657,-32.66568391388369
-0.3666999999999999,-32.93447906085806
-0.3677,-33.09009730384321
-0.3686999999999999,-32.8354492698675
-0.36970000000000003,-33.07595019084456
-0.3706999999999999,-33.358892450817564
-0.37170000000000003,-33.59939337179462
-0.3726999999999999,-33.99551253575683
-0.37370000000000003,-34.47651437771095
-0.3746999999999999,-34.4057788127177
-0.37570000000000003,-34.632132620696105
-0.3766999999999999,-34.6887210726907
-0.37770000000000004,-18.334658446250877
-0.3786999999999999,-19.763516859114564
-0.37970000000000004,-20.555755187038983
-0.3806999999999999,-18.91469007919554
-0.38170000000000004,-17.995127734283265
-0.38269999999999993,-19.1834852261699
-0.38370000000000004,-20.810403221014692
-0.38469999999999993,-21.758259791924264
-0.38570000000000004,-23.286147995778503
-0.38669999999999993,-24.61597661765164
-0.38570000000000004,-24.828183312631392
-0.38469999999999993,-24.799889086634096
-0.38370000000000004,-23.724708498736668
-0.38269999999999993,-17.542420118326454
-0.38170000000000004,-17.316066310348052
-0.3806999999999999,-17.160448067362896
-0.37970000000000004,-17.089712502369647
-0.3786999999999999,-17.103859615368293
-0.37770000000000004,-17.03312405037504
-0.3766999999999999,-16.56626932141958
-0.37570000000000003,-16.382356852437127
-0.3746999999999999,-16.28332706144657
-0.37370000000000003,-16.354062626439823
-0.3726999999999999,-16.099414592464115
-0.37170000000000003,-16.04282614046952
-0.3706999999999999,-15.462794507524851
-0.36970000000000003,-15.844766558488407
-0.3686999999999999,-15.4769416205235
-0.3677,-15.293029151541045
-0.3666999999999999,-15.06667534356264
-0.3657,-14.967645552572087
-0.3646999999999999,-14.62811484060448
-0.3637,-14.69885040559773
-0.3626999999999999,-14.69885040559773
-0.3617,-14.939351326574789
-0.36070000000000013,-14.486643710617974
-0.3597,-14.755438857592333
-0.35870000000000013,-14.529085049613924
-0.3577,-14.070718588457655
-0.35670000000000013,-14.30273124163552
-0.3557,-14.0325213833613
-0.3547000000000001,-13.755237968587751
-0.3537,-13.786361617184783
-0.3527000000000001,-14.24614278964092
-0.3517,-14.557379275611227
-0.3507000000000001,-13.66469644539639
-0.3497,-13.825973533581003
-0.3487000000000001,-13.612352127301383
-0.3477,-13.700064227893014
-0.3467000000000001,-13.953297550568857
-0.3457,-14.059400898058735
-0.3447000000000001,-13.70147893919288
-0.3437,-13.705723073092477
-0.3427000000000001,-13.3364834238277
-0.3417,-13.726943742590452
-0.3407000000000001,-13.69299067139369
-0.3397,-13.387413030622842
-0.3387000000000001,-12.87245811747197
-0.3377,-13.104470770649836
-0.3367000000000001,-12.913484745168056
-0.3357,-13.185109314742142
-0.3347000000000001,-13.156815088744843
-0.3337,-12.875287540071698
-0.3327000000000001,-12.759281213482765
-0.3317,-12.656007288592617
-0.3307000000000001,-12.37306502861961
-0.3297,-12.141052375441745
-0.3287000000000001,-12.138222952842016
-0.3277,-11.633171018790197
-0.3267000000000001,-11.487455754904099
-0.3257,-10.958353728754572
-0.3247000000000001,-10.930059502757274
-0.3237,-10.876300473362404
-0.3227000000000001,-10.751805878974281
-0.3217,-10.706535117378598
-0.3207000000000001,-10.59477292468926
-0.3197,-10.492913711098977
-0.3187000000000001,-10.065670898539736
-0.3177,-9.948249860650938
-0.3167000000000001,-9.595986746984543
-0.3157,-9.06405529823529
-0.3147000000000001,-8.567491631982662
-0.3137,-10.055767919440681
-0.3127000000000001,-10.20431260592651
-0.3117,-9.332850445209647
-0.3107000000000001,-8.46846184099211
-0.3097,-8.68491266987146
-0.3087000000000001,-9.327191600010188
-0.3077,-9.38378005200479
-0.3067000000000001,-8.27181697031087
-0.30569999999999997,-8.63398306307632
-0.3047000000000001,-9.150352687527057
-0.30369999999999997,-9.034346360938125
-0.3027000000000001,-8.754233523564846
-0.30169999999999997,-7.2999103073035885
-0.3007000000000001,-5.636209818662306
-0.29969999999999997,-4.947245415628033
-0.2987000000000001,-4.510099623969737
-0.29769999999999996,-7.546070073480105
-0.2967000000000001,-9.484224554295206
-0.29569999999999996,-6.329418355596174
-0.2947000000000001,-3.9725093300210226
-0.29369999999999996,-3.6513698649516595
-0.29270000000000007,-3.4575544168701495
-0.29169999999999996,-3.328815688582431
-0.29070000000000007,-3.214224073293363
-0.28969999999999996,-3.1420737970002466
-0.28870000000000007,-3.0402145834099636
-0.28769999999999996,-2.9298671020204905
-0.28670000000000007,-2.8265931771303436
-0.28569999999999995,-2.7487840556377665
-0.28470000000000006,-2.6865367584437045
-0.28369999999999995,-2.621460038649913
-0.28270000000000006,-2.515356691160035
-0.28169999999999995,-2.424815167968673
-0.28070000000000006,-2.3569090255751513
-0.27969999999999995,-2.3172971091789303
-0.27870000000000006,-2.2465615441856785
-0.27769999999999995,-2.1645082887935065
-0.27670000000000006,-2.095187435100119
-0.27569999999999995,-2.0343548492059225
-0.27470000000000006,-1.9961576441095665
-0.27369999999999994,-1.933910346915505
-0.27270000000000005,-1.8518570915233332
-0.27169999999999994,-1.774047970030756
-0.27070000000000005,-1.7160448067362895
-0.26969999999999994,-1.6764328903400685
-0.26870000000000005,-1.6339915513441174
-0.26769999999999994,-1.5618412750510005
