Potential V vs RHE, Current mA cm-2
0.05339999999999995,-0.030274821817111785
0.05239999999999995,-0.03149147353499571
0.051399999999999946,-0.03200076960294713
0.050399999999999945,-0.03235444742791339
0.049399999999999944,-0.032693978139880994
0.04839999999999994,-0.03301936173884996
0.04739999999999994,-0.03341548090281216
0.04639999999999994,-0.033726717388782475
0.04539999999999994,-0.03405210098775143
0.04439999999999994,-0.03436333747372174
0.04339999999999994,-0.0346604268466934
0.04239999999999994,-0.034999957558661005
0.04139999999999994,-0.035282899818634014
0.040399999999999936,-0.035579989191605675
0.039399999999999935,-0.03591951990357328
0.038399999999999934,-0.03624490350254224
0.03739999999999993,-0.036584434214509846
0.03639999999999993,-0.0369098178134788
0.03539999999999993,-0.03719276007345181
0.03439999999999993,-0.037503996559422124
0.03339999999999993,-0.03782938015839108
0.03239999999999993,-0.03818305798335734
0.03139999999999993,-0.03848014735632899
0.030399999999999927,-0.03879138384229931
0.029399999999999926,-0.039088473215270966
0.028399999999999925,-0.039428003927238574
0.027399999999999924,-0.03978168175220483
0.026399999999999924,-0.04010706535117379
0.025399999999999923,-0.04040415472414544
0.024399999999999922,-0.040729538323114406
0.02339999999999992,-0.04105492192208336
0.02239999999999992,-0.04139445263405097
0.02139999999999992,-0.04173398334601858
0.020399999999999918,-0.04207351405798619
0.019399999999999917,-0.04239889765695515
0.018399999999999916,-0.04272428125592411
0.017399999999999916,-0.043106253306887665
0.016399999999999915,-0.04344578401885528
0.015399999999999914,-0.043771167617824236
0.014399999999999913,-0.04411069832979184
0.013399999999999912,-0.044492670380755404
0.012399999999999911,-0.04484634820572166
0.01139999999999991,-0.04522832025668522
0.01039999999999991,-0.045624439420647436
0.009399999999999908,-0.04594982301961639
0.008399999999999908,-0.046275206618585356
0.007399999999999907,-0.04667132578254756
0.006399999999999906,-0.04702500360751381
0.005399999999999905,-0.04739282854547873
0.004399999999999904,-0.04776065348344364
0.003399999999999903,-0.04812847842140855
0.002399999999999902,-0.04852459758537076
0.0013999999999999013,-0.048892422523335664
0.00039999999999990044,-0.049260247461300574
-0.0006000000000001005,-0.04961392528626684
-0.0016000000000001013,-0.04998175022423174
-0.0026000000000001022,-0.050363722275195304
-0.003600000000000103,-0.050731547213160214
-0.004600000000000104,-0.05109937215112512
-0.005600000000000105,-0.051495491315087336
-0.006600000000000106,-0.051948198931044146
-0.007600000000000107,-0.052344318095006365
-0.008600000000000108,-0.05272629014596992
-0.009600000000000108,-0.05309411508393482
-0.01060000000000011,-0.05347608713489838
-0.01160000000000011,-0.053886353411859246
-0.012600000000000111,-0.05433906102781606
-0.013600000000000112,-0.05473518019177826
-0.014600000000000113,-0.05510300512974318
-0.015600000000000114,-0.055470830067708095
-0.016600000000000115,-0.0558952434576676
-0.017600000000000116,-0.0563196568476271
-0.018600000000000116,-0.056729923124587966
-0.019600000000000117,-0.057126042288550186
-0.020600000000000118,-0.05750801433951374
-0.02160000000000012,-0.05793242772947325
-0.02260000000000012,-0.05837098823243141
-0.02360000000000012,-0.058767107396393625
-0.024600000000000122,-0.05919152078635314
-0.025600000000000123,-0.059573492837316694
-0.026600000000000124,-0.05998375911427755
-0.027600000000000124,-0.060408172504237065
-0.028600000000000125,-0.06081843878119793
-0.029600000000000126,-0.06122870505815879
-0.030600000000000127,-0.0616531184481183
-0.03160000000000013,-0.06210582606407511
-0.03260000000000013,-0.06254438656703327
-0.03360000000000013,-0.06295465284399412
-0.03460000000000002,-0.06340736045995093
-0.03560000000000002,-0.06386006807590776
-0.03660000000000002,-0.06427033435286862
-0.03760000000000002,-0.06473718908182408
-0.03860000000000002,-0.06517574958478224
-0.039600000000000024,-0.06560016297474175
-0.040600000000000025,-0.06605287059069856
-0.041600000000000026,-0.06647728398065808
-0.04260000000000003,-0.06691584448361623
-0.04360000000000003,-0.0673544049865744
-0.04460000000000003,-0.06779296548953255
-0.04560000000000003,-0.06825982021848803
-0.04660000000000003,-0.06868423360844754
-0.04760000000000003,-0.069151088337403
-0.04860000000000003,-0.0695755017273625
-0.04960000000000003,-0.06999991511732201
-0.050600000000000034,-0.07045262273327882
-0.051600000000000035,-0.07093362457523293
-0.052600000000000036,-0.0713721850781911
-0.053600000000000037,-0.07182489269414791
-0.05460000000000004,-0.07224930608410743
-0.05560000000000004,-0.07267371947406694
-0.05660000000000004,-0.07312642709002375
-0.05760000000000004,-0.07360742893197786
-0.05860000000000004,-0.07403184232193737
-0.05960000000000004,-0.07447040282489553
-0.06060000000000004,-0.0749089633278537
-0.061600000000000044,-0.07536167094381051
-0.06260000000000004,-0.07582852567276598
-0.06360000000000005,-0.07629538040172142
-0.06460000000000005,-0.0767056466786823
-0.06560000000000005,-0.0771300600686418
-0.06660000000000005,-0.07759691479759726
-0.06760000000000005,-0.07807791663955138
-0.06860000000000005,-0.07850233002951089
-0.06960000000000005,-0.0789267434194704
-0.07060000000000005,-0.07936530392242855
-0.07160000000000005,-0.07980386442538671
-0.07260000000000005,-0.08022827781534624
-0.07360000000000005,-0.08063854409230709
-0.07460000000000006,-0.08106295748226659
-0.07560000000000006,-0.08150151798522477
-0.07660000000000006,-0.08196837271418023
-0.07760000000000006,-0.08242108033013704
-0.07860000000000006,-0.0828313466070979
-0.07960000000000006,-0.08322746577106012
-0.08060000000000006,-0.08360943782202368
-0.08160000000000006,-0.08400555698598587
-0.08260000000000006,-0.08444411748894404
-0.08360000000000006,-0.0848543837659049
-0.08460000000000006,-0.08525050292986712
-0.08560000000000006,-0.08566076920682797
-0.08660000000000007,-0.08608518259678749
-0.08760000000000007,-0.08649544887374834
-0.08860000000000007,-0.08689156803771056
-0.08960000000000007,-0.0872735400886741
-0.09060000000000007,-0.08761307080064172
-0.09160000000000007,-0.08799504285160528
-0.09260000000000007,-0.0883911620155675
-0.09360000000000007,-0.0887589869535324
-0.09460000000000007,-0.08914095900449596
-0.09560000000000007,-0.08949463682946222
-0.09660000000000007,-0.08990490310642309
-0.09760000000000008,-0.09028687515738665
-0.09860000000000008,-0.0906405529823529
-0.09960000000000008,-0.09100837792031781
-0.10060000000000008,-0.09134790863228542
-0.10160000000000008,-0.09174402779624763
-0.10260000000000008,-0.09208355850821524
-0.10360000000000008,-0.09247967767217745
-0.10460000000000008,-0.09281920838414506
-0.10560000000000008,-0.09313044487011536
-0.10660000000000008,-0.09346997558208296
-0.10760000000000008,-0.09383780052004788
-0.10860000000000009,-0.09413488989301955
-0.10960000000000009,-0.0944602734919885
-0.11060000000000009,-0.09475736286496016
-0.11160000000000009,-0.09506859935093047
-0.11260000000000009,-0.09540813006289808
-0.11360000000000009,-0.09569107232287108
-0.11460000000000009,-0.09601645592184005
-0.11560000000000009,-0.0962852510688144
-0.11660000000000009,-0.09658234044178605
-0.1176000000000001,-0.09687942981475771
-0.1186000000000001,-0.09716237207473072
-0.1196000000000001,-0.09740287299570777
-0.1206000000000001,-0.09764337391668483
-0.1216000000000001,-0.0979121690636592
-0.1226000000000001,-0.09818096421063353
-0.1236000000000001,-0.0984497593576079
-0.1246000000000001,-0.09869026027858496
-0.1256000000000001,-0.09890246697356471
-0.1266000000000001,-0.09915711500754042
-0.1276000000000001,-0.09939761592851748
-0.1286000000000001,-0.09960982262349724
-0.1296000000000001,-0.09980788220547833
-0.1306000000000001,-0.10000594178745945
-0.1316000000000001,-0.1002464427084365
-0.1326000000000001,-0.10045864940341626
-0.1336000000000001,-0.10064256187239871
-0.1346000000000001,-0.10081232722838251
-0.1356000000000001,-0.10099623969736496
-0.1366000000000001,-0.10119429927934608
-0.1376000000000001,-0.10136406463532988
-0.1386000000000001,-0.10154797710431233
-0.1396000000000001,-0.10170359534729749
-0.1406000000000001,-0.10181677225128669
-0.14160000000000011,-0.10200068472026914
-0.14260000000000012,-0.1021845971892516
-0.14360000000000012,-0.10228362698024217
-0.14460000000000012,-0.10242509811022867
-0.14560000000000012,-0.10253827501421786
-0.14660000000000012,-0.10265145191820706
-0.14760000000000012,-0.10279292304819357
-0.14860000000000012,-0.10289195283918412
-0.14960000000000012,-0.10297683551717601
-0.15060000000000012,-0.10304757108216928
-0.15160000000000012,-0.10316074798615847
-0.15260000000000012,-0.1032739248901477
-0.15360000000000013,-0.10334466045514094
-0.15460000000000013,-0.10340124890713552
-0.15560000000000013,-0.10347198447212877
-0.15660000000000013,-0.10355686715012069
-0.15760000000000013,-0.10364174982811258
-0.15860000000000013,-0.10368419116710853
-0.15960000000000002,-0.10372663250610449
-0.16060000000000002,-0.10376907384510045
-0.16160000000000002,-0.1038115151840964
-0.16260000000000002,-0.10389639786208829
-0.16360000000000002,-0.1039246920880856
-0.16460000000000002,-0.10393883920108424
-0.16560000000000002,-0.1039812805400802
-0.16660000000000003,-0.10405201610507345
-0.16760000000000003,-0.10405201610507345
-0.16860000000000003,-0.1040661632180721
-0.16960000000000003,-0.10405201610507345
-0.17060000000000003,-0.1040378689920748
-0.17160000000000003,-0.10405201610507345
-0.17260000000000003,-0.10405201610507345
-0.17360000000000003,-0.1040378689920748
-0.17460000000000003,-0.1040378689920748
-0.17560000000000003,-0.10400957476607749
-0.17660000000000003,-0.10399542765307884
-0.17760000000000004,-0.10396713342708154
-0.17860000000000004,-0.10393883920108424
-0.17960000000000004,-0.1039246920880856
-0.18060000000000004,-0.10385395652309233
-0.18160000000000004,-0.10385395652309233
-0.18260000000000004,-0.10382566229709504
-0.18360000000000004,-0.10375492673210178
-0.18460000000000004,-0.10372663250610449
-0.18560000000000004,-0.10362760271511394
-0.18660000000000004,-0.10359930848911664
-0.18760000000000004,-0.10357101426311933
-0.18860000000000005,-0.10350027869812609
-0.18960000000000005,-0.10344369024613147
-0.19060000000000005,-0.10335880756813957
-0.19160000000000005,-0.10333051334214227
-0.19260000000000005,-0.10330221911614497
-0.19360000000000005,-0.10318904221215577
-0.19460000000000005,-0.10313245376016117
-0.19560000000000005,-0.10304757108216928
-0.19660000000000005,-0.10294854129117871
-0.19760000000000005,-0.10292024706518142
-0.19860000000000005,-0.10280707016119221
-0.19960000000000006,-0.10273633459619896
-0.20060000000000006,-0.10263730480520841
-0.20160000000000006,-0.10253827501421786
-0.20260000000000006,-0.10248168656222324
-0.20360000000000006,-0.10239680388423136
-0.20460000000000006,-0.1023260683192381
-0.20560000000000006,-0.1022128914152489
-0.20660000000000006,-0.10214215585025564
-0.20760000000000006,-0.1020714202852624
-0.20860000000000006,-0.10195824338127318
-0.20960000000000006,-0.10183091936428534
-0.21060000000000006,-0.10173188957329479
-0.21160000000000007,-0.10164700689530289
-0.21260000000000007,-0.10156212421731098
-0.21360000000000007,-0.10146309442632043
-0.21460000000000007,-0.10136406463532988
-0.21560000000000007,-0.10125088773134068
-0.21660000000000007,-0.10116600505334877
-0.21760000000000007,-0.10109526948835552
-0.21860000000000007,-0.10095379835836901
-0.21960000000000007,-0.10085476856737846
-0.22060000000000007,-0.10071329743739196
-0.22160000000000007,-0.10064256187239871
-0.22260000000000008,-0.10054353208140815
-0.22360000000000008,-0.10041620806442031
-0.22460000000000008,-0.10031717827342976
-0.22560000000000008,-0.10018985425644189
-0.22660000000000008,-0.10009082446545134
-0.22760000000000008,-0.0999917946744608
-0.22860000000000008,-0.09985032354447429
-0.22960000000000008,-0.09975129375348374
-0.23060000000000008,-0.09963811684949454
-0.23160000000000008,-0.09955323417150262
-0.23260000000000008,-0.09946835149351073
-0.23360000000000009,-0.09932688036352423
-0.2346000000000001,-0.09921370345953502
-0.2356000000000001,-0.09910052655554581
-0.2366000000000001,-0.09902979099055256
-0.2376000000000001,-0.09894490831256067
-0.2386000000000001,-0.09880343718257417
-0.2396000000000001,-0.09869026027858496
-0.2406000000000001,-0.09857708337459577
-0.2416000000000001,-0.0984780535836052
-0.2426000000000001,-0.09840731801861195
-0.2436000000000001,-0.09829414111462276
-0.2446000000000001,-0.09816681709763489
-0.2456000000000001,-0.09809608153264164
-0.2466000000000001,-0.09798290462865245
-0.2476000000000001,-0.0978838748376619
-0.2486000000000001,-0.0977706979336727
-0.2496000000000001,-0.09768581525568078
-0.2506000000000001,-0.09757263835169158
-0.2516000000000001,-0.09748775567369967
-0.2526000000000001,-0.09741702010870643
-0.2536000000000001,-0.09731799031771587
-0.2546000000000001,-0.09721896052672531
-0.2556000000000001,-0.09714822496173206
-0.2566000000000001,-0.09706334228374017
-0.2576000000000001,-0.09697845960574826
-0.2586000000000001,-0.096907724040755
-0.2596000000000001,-0.0967945471367658
-0.2606000000000001,-0.0966813702327766
-0.2616000000000001,-0.096624781780782
-0.2626000000000001,-0.09655404621578875
-0.2636000000000001,-0.09644086931179956
-0.2646000000000001,-0.09637013374680631
-0.2656000000000001,-0.09627110395581574
-0.2666000000000001,-0.0962003683908225
-0.2676000000000001,-0.09617207416482519
-0.2686000000000001,-0.09610133859983194
-0.2696000000000001,-0.09601645592184005
-0.2706000000000001,-0.09590327901785084
-0.2716000000000001,-0.0958608376788549
-0.2726000000000001,-0.09580424922686027
-0.2736000000000001,-0.09569107232287108
-0.2746000000000001,-0.09560618964487919
-0.2756000000000001,-0.09552130696688728
-0.2766000000000001,-0.09549301274088996
-0.2776000000000001,-0.09543642428889539
-0.2786000000000001,-0.09535154161090346
-0.2796000000000001,-0.09525251181991291
-0.2806000000000001,-0.09519592336791832
-0.28160000000000013,-0.09515348202892236
-0.28260000000000013,-0.09509689357692777
-0.28360000000000013,-0.09504030512493315
-0.2846,-0.09494127533394262
-0.2856,-0.09485639265595071
-0.2866,-0.09484224554295206
-0.2876,-0.09481395131695476
-0.2886,-0.0947432157519615
-0.2896,-0.09467248018696825
-0.2906,-0.09461589173497365
-0.2916,-0.09455930328297905
-0.2926,-0.09451686194398311
-0.2936,-0.0944885677179858
-0.29460000000000003,-0.09441783215299256
-0.29560000000000003,-0.0943470965879993
-0.29660000000000003,-0.09431880236200199
-0.29760000000000003,-0.09429050813600469
-0.29860000000000003,-0.0942056254580128
-0.29960000000000003,-0.09414903700601819
-0.30060000000000003,-0.09407830144102494
-0.30160000000000003,-0.09405000721502763
-0.30260000000000004,-0.094035860102029
-0.30360000000000004,-0.09395097742403709
-0.30460000000000004,-0.0939226831980398
-0.30560000000000004,-0.09388024185904384
-0.30660000000000004,-0.09385194763304654
-0.30760000000000004,-0.09386609474604518
-0.30860000000000004,-0.09380950629405059
-0.30960000000000004,-0.09378121206805329
-0.31060000000000004,-0.09372462361605868
-0.31160000000000004,-0.09371047650306003
-0.31260000000000004,-0.09369632939006138
-0.31360000000000005,-0.09365388805106543
-0.31460000000000005,-0.09361144671206949
-0.31560000000000005,-0.09358315248607219
-0.31660000000000005,-0.09355485826007487
-0.31760000000000005,-0.09355485826007487
-0.31860000000000005,-0.09354071114707624
-0.31960000000000005,-0.09352656403407757
-0.32060000000000005,-0.09352656403407757
-0.32160000000000005,-0.09349826980808028
-0.32260000000000005,-0.09348412269508162
-0.32360000000000005,-0.09346997558208296
-0.32460000000000006,-0.09342753424308703
-0.32560000000000006,-0.09341338713008837
-0.32660000000000006,-0.09342753424308703
-0.32760000000000006,-0.09342753424308703
-0.32860000000000006,-0.09338509290409107
-0.32960000000000006,-0.09337094579109242
-0.33060000000000006,-0.09334265156509512
-0.33160000000000006,-0.09335679867809377
-0.33260000000000006,-0.09338509290409107
-0.33360000000000006,-0.09334265156509512
-0.33460000000000006,-0.09332850445209646
-0.33560000000000006,-0.09331435733909782
-0.33660000000000007,-0.09335679867809377
-0.33760000000000007,-0.09332850445209646
-0.33860000000000007,-0.09332850445209646
-0.33960000000000007,-0.09334265156509512
-0.34060000000000007,-0.09330021022609918
-0.34160000000000007,-0.09334265156509512
-0.34260000000000007,-0.09337094579109242
-0.34360000000000007,-0.09335679867809377
-0.3446000000000001,-0.09337094579109242
-0.3456000000000001,-0.09335679867809377
-0.3466000000000001,-0.09338509290409107
-0.34759999999999996,-0.09344168135608567
-0.3486000000000001,-0.09344168135608567
-0.34959999999999997,-0.09344168135608567
-0.3506000000000001,-0.09345582846908432
-0.35159999999999997,-0.09348412269508162
-0.3526000000000001,-0.09352656403407757
-0.35359999999999997,-0.09354071114707624
-0.3546000000000001,-0.09355485826007487
-0.35559999999999997,-0.09355485826007487
-0.3566000000000001,-0.09359729959907082
-0.3576,-0.09362559382506812
-0.3586000000000001,-0.09363974093806678
-0.3596,-0.09363974093806678
-0.3606000000000001,-0.09365388805106543
-0.3616,-0.09369632939006138
-0.3626000000000001,-0.09372462361605868
-0.3636,-0.09378121206805329
-0.3646000000000001,-0.09386609474604518
-0.3656,-0.09386609474604518
-0.3666000000000001,-0.09402171298903034
-0.3676,-0.09447442060498715
-0.3686000000000001,-0.09427636102300604
-0.3696,-0.09414903700601819
-0.3706000000000001,-0.09413488989301955
-0.3716,-0.09416318411901684
-0.3726000000000001,-0.0941773312320155
-0.3736,-0.0942056254580128
-0.3746000000000001,-0.09430465524900335
-0.3756,-0.09429050813600469
-0.3766000000000001,-0.0943470965879993
-0.3776,-0.09433294947500065
-0.3786000000000001,-0.0943470965879993
-0.3796,-0.0943753908139966
-0.3806000000000001,-0.0944036850399939
-0.3816,-0.0944885677179858
-0.3826000000000001,-0.09453100905698175
-0.3836,-0.09451686194398311
-0.3846000000000001,-0.09453100905698175
-0.3856,-0.0945451561699804
-0.3866000000000001,-0.09457345039597771
-0.3876,-0.0945451561699804
-0.3886000000000001,-0.09453100905698175
-0.3896,-0.0945451561699804
-0.3906000000000001,-0.09457345039597771
-0.3916,-0.0946583330739696
-0.3926000000000001,-0.09471492152596421
-0.3936,-0.0947432157519615
-0.3946000000000001,-0.0947715099779588
-0.3956,-0.09481395131695476
-0.3966000000000001,-0.09488468688194801
-0.3976,-0.09494127533394262
-0.3986000000000001,-0.09498371667293856
-0.3996,-0.09502615801193452
-0.4006000000000001,-0.09508274646392911
-0.4016,-0.0951110406899264
-0.4026000000000001,-0.09519592336791832
-0.4036,-0.09526665893291157
-0.4046000000000001,-0.09529495315890889
-0.4056,-0.09533739449790483
-0.40660000000000013,-0.09542227717589671
-0.4076,-0.09547886562789133
-0.40860000000000013,-0.09549301274088996
-0.4096,-0.09554960119288458
-0.41060000000000013,-0.09562033675787783
-0.4116,-0.09569107232287108
-0.41260000000000013,-0.09577595500086299
-0.4136,-0.09579010211386164
-0.41460000000000014,-0.0958608376788549
-0.4156,-0.09590327901785084
-0.41660000000000014,-0.09598816169584275
-0.4176,-0.09604475014783734
-0.41860000000000014,-0.0960871914868333
-0.41960000000000003,-0.09614377993882789
-0.42060000000000014,-0.09618622127782384
-0.42160000000000003,-0.09629939818181305
-0.42260000000000014,-0.09638428085980494
-0.42360000000000003,-0.09638428085980494
-0.42460000000000014,-0.09646916353779686
-0.42560000000000003,-0.09649745776379416
-0.42660000000000015,-0.0965964875547847
-0.42760000000000004,-0.0966813702327766
-0.42860000000000015,-0.09672381157177255
-0.42960000000000004,-0.09678040002376717
-0.43060000000000015,-0.09685113558876042
-0.43160000000000004,-0.09689357692775637
-0.43260000000000015,-0.09696431249274962
-0.43360000000000004,-0.0970209009447442
-0.43460000000000015,-0.09709163650973747
-0.43560000000000004,-0.09713407784873342
-0.43660000000000015,-0.09720481341372668
