Potential V vs RHE, Current mA cm-2
0.013299999999999867,0.04140859974704963
0.012299999999999978,-0.8308599464107361
0.011299999999999866,-1.6594563547416883
0.010299999999999976,-2.4446211261667834
0.009299999999999864,-3.1420737970002466
0.008299999999999974,-3.840941179133574
0.007299999999999862,-4.494537799671222
0.006299999999999972,-5.105693081212917
0.00529999999999986,-5.672992312458796
0.0042999999999999705,-6.196435493408861
0.0032999999999998586,-6.719878674358924
0.0022999999999999687,-7.243321855308987
0.0012999999999998568,-7.722908985963235
0.00029999999999996696,-8.158640066321666
-0.000700000000000145,-8.594371146680096
-0.0017000000000000348,-9.073958277334345
-0.0027000000000001467,-9.467248018696827
-0.0037000000000000366,-9.902979099055257
-0.0047000000000001485,-10.296268840417738
-0.005700000000000038,-10.688143870480351
-0.00670000000000015,-11.037577561547016
-0.00770000000000004,-11.343155202317865
-0.008700000000000152,-11.647318131788847
-0.009700000000000042,-11.952895772559694
-0.010700000000000154,-12.170761312738911
-0.011700000000000044,-12.476338953509758
-0.012700000000000156,-12.694204493688973
-0.013700000000000045,-12.913484745168056
-0.014700000000000157,-13.175206335643086
-0.015700000000000047,-13.436927926118118
-0.01670000000000016,-13.654793466297335
-0.01770000000000005,-13.916515056772363
-0.01870000000000016,-14.175407224647667
-0.01970000000000005,-14.444202371622024
-0.020700000000000163,-14.65640906660178
-0.021700000000000053,-14.868615761581536
-0.022700000000000164,-15.05252823056399
-0.023700000000000054,-15.264734925543747
-0.024700000000000166,-15.448647394526201
-0.025700000000000056,-15.660854089505953
-0.026700000000000168,-15.87306078448571
-0.027700000000000058,-16.099414592464115
-0.02870000000000017,-16.269179948447924
-0.02970000000000006,-16.438945304431726
-0.03070000000000017,-16.580416434418233
-0.03170000000000006,-16.70774045140608
-0.03270000000000017,-16.792623129397985
-0.03370000000000006,-16.877505807389888
-0.034700000000000175,-16.919947146385837
-0.035700000000000065,-16.962388485381787
-0.03670000000000018,-17.061418276372343
-0.03770000000000007,-17.103859615368293
-0.03870000000000018,-17.146300954364243
-0.03970000000000007,-17.231183632356142
-0.04070000000000018,-17.316066310348052
-0.04170000000000007,-17.40094898833995
-0.04270000000000018,-17.48583166633185
-0.04370000000000007,-17.584861457322408
-0.044700000000000184,-17.71218547431026
-0.045700000000000074,-17.839509491298113
-0.046700000000000186,-17.924392169290012
-0.047700000000000076,-18.06586329927652
-0.04870000000000019,-18.19318731626437
-0.04970000000000008,-18.320511333252224
-0.05070000000000019,-18.44783535024008
-0.05170000000000008,-18.589306480226583
-0.05270000000000019,-18.716630497214435
-0.05370000000000008,-18.80151317520634
-0.05470000000000019,-18.843954514202288
-0.05570000000000008,-18.88639585319824
-0.056700000000000195,-18.843954514202288
-0.057700000000000085,-18.80151317520634
-0.058700000000000196,-18.759071836210385
-0.059700000000000086,-18.716630497214435
-0.0607000000000002,-18.674189158218486
-0.06170000000000009,-18.631747819222536
-0.0627000000000002,-18.631747819222536
-0.06370000000000009,-18.631747819222536
-0.0647000000000002,-18.589306480226583
-0.06570000000000009,-18.53271802823198
-0.0667000000000002,-18.53271802823198
-0.0677000000000001,-18.53271802823198
-0.0687000000000002,-18.589306480226583
-0.0697000000000001,-18.674189158218486
-0.07070000000000021,-18.759071836210385
-0.0717000000000001,-18.88639585319824
-0.07270000000000021,-18.97127853119014
-0.0737000000000001,-19.056161209182044
-0.07470000000000021,-19.155191000172596
-0.0757000000000001,-19.2400736781645
-0.07670000000000021,-19.2400736781645
-0.0777000000000001,-19.28251501716045
-0.07870000000000021,-19.28251501716045
-0.0797000000000001,-19.2400736781645
-0.08070000000000022,-19.197632339168546
-0.0817000000000001,-19.112749661176647
-0.08270000000000022,-19.056161209182044
-0.08370000000000011,-19.056161209182044
-0.08470000000000022,-19.056161209182044
-0.08570000000000011,-19.112749661176647
-0.08670000000000022,-19.112749661176647
-0.08770000000000011,-19.112749661176647
-0.08870000000000022,-19.056161209182044
-0.08970000000000011,-19.01371987018609
-0.09070000000000022,-18.97127853119014
-0.09170000000000011,-18.92883719219419
-0.09270000000000023,-18.88639585319824
-0.09370000000000012,-18.80151317520634
-0.09470000000000023,-18.759071836210385
-0.09570000000000012,-18.759071836210385
-0.09670000000000023,-18.759071836210385
-0.09770000000000012,-18.759071836210385
-0.09870000000000023,-18.759071836210385
-0.09970000000000012,-18.759071836210385
-0.10070000000000023,-18.80151317520634
-0.10170000000000012,-18.80151317520634
-0.10270000000000024,-18.80151317520634
-0.10370000000000013,-18.759071836210385
-0.10470000000000024,-18.716630497214435
-0.10570000000000013,-18.674189158218486
-0.10670000000000024,-18.631747819222536
-0.10770000000000013,-18.631747819222536
-0.10870000000000024,-18.631747819222536
-0.10970000000000013,-18.631747819222536
-0.11070000000000024,-18.674189158218486
-0.11170000000000013,-18.759071836210385
-0.11270000000000002,-18.843954514202288
-0.11370000000000013,-18.88639585319824
-0.11470000000000002,-18.88639585319824
-0.11570000000000014,-18.843954514202288
-0.11670000000000003,-18.80151317520634
-0.11770000000000014,-18.716630497214435
-0.11870000000000003,-18.631747819222536
-0.11970000000000014,-18.53271802823198
-0.12070000000000003,-18.44783535024008
-0.12170000000000014,-18.362952672248177
-0.12270000000000003,-18.320511333252224
-0.12370000000000014,-18.27806999425627
-0.12470000000000003,-18.23562865526032
-0.12570000000000014,-18.19318731626437
-0.12670000000000003,-18.15074597726842
-0.12770000000000015,-18.10830463827247
-0.12870000000000004,-18.10830463827247
-0.12970000000000015,-18.15074597726842
-0.13070000000000004,-18.19318731626437
-0.13170000000000015,-18.19318731626437
-0.13270000000000004,-18.19318731626437
-0.13370000000000015,-18.23562865526032
-0.13470000000000004,-18.27806999425627
-0.13570000000000015,-18.320511333252224
-0.13670000000000004,-18.320511333252224
-0.13770000000000016,-18.320511333252224
-0.13870000000000005,-18.362952672248177
-0.13970000000000016,-18.40539401124413
-0.14070000000000005,-18.44783535024008
-0.14170000000000016,-18.49027668923603
-0.14270000000000005,-18.53271802823198
-0.14370000000000016,-18.53271802823198
-0.14470000000000005,-18.49027668923603
-0.14570000000000016,-18.40539401124413
-0.14670000000000005,-18.320511333252224
-0.14770000000000016,-18.23562865526032
-0.14870000000000005,-18.10830463827247
-0.14970000000000017,-18.009274847281915
-0.15070000000000006,-17.924392169290012
-0.15170000000000017,-17.881950830294063
-0.15270000000000006,-17.839509491298113
-0.15370000000000017,-17.797068152302163
-0.15470000000000006,-17.75462681330621
-0.15570000000000017,-17.75462681330621
-0.15670000000000006,-17.75462681330621
-0.15770000000000017,-17.797068152302163
-0.15870000000000006,-17.839509491298113
-0.15970000000000018,-17.839509491298113
-0.16070000000000007,-17.839509491298113
-0.16170000000000018,-17.881950830294063
-0.16270000000000007,-17.924392169290012
-0.16370000000000018,-17.966833508285966
-0.16470000000000007,-18.009274847281915
-0.16570000000000018,-18.06586329927652
-0.16670000000000007,-18.10830463827247
-0.16770000000000018,-18.19318731626437
-0.16870000000000007,-18.23562865526032
-0.16970000000000018,-18.23562865526032
-0.17070000000000007,-18.23562865526032
-0.17170000000000019,-18.19318731626437
-0.17270000000000008,-18.10830463827247
-0.1737000000000002,-18.009274847281915
-0.17470000000000008,-17.924392169290012
-0.1757000000000002,-17.881950830294063
-0.17670000000000008,-17.797068152302163
-0.1777000000000002,-17.75462681330621
-0.17870000000000008,-17.71218547431026
-0.1797000000000002,-17.71218547431026
-0.18070000000000008,-17.71218547431026
-0.1817000000000002,-17.669744135314307
-0.18270000000000008,-17.71218547431026
-0.1837000000000002,-17.627302796318357
-0.1847000000000001,-17.71218547431026
-0.1857000000000002,-17.71218547431026
-0.1867000000000001,-17.797068152302163
-0.1877000000000002,-17.839509491298113
-0.1887000000000001,-17.924392169290012
-0.1897000000000002,-18.009274847281915
-0.1907000000000001,-18.10830463827247
-0.1917000000000001,-18.19318731626437
-0.19269999999999998,-18.27806999425627
-0.1937000000000001,-18.320511333252224
-0.19469999999999998,-18.320511333252224
-0.1957000000000001,-18.27806999425627
-0.19669999999999999,-18.19318731626437
-0.1977000000000001,-18.15074597726842
-0.1987,-18.06586329927652
-0.1997000000000001,-17.966833508285966
-0.2007,-17.966833508285966
-0.2017000000000001,-17.881950830294063
-0.2027,-17.839509491298113
-0.2037000000000001,-17.797068152302163
-0.2047,-17.75462681330621
-0.2057000000000001,-17.71218547431026
-0.2067,-17.669744135314307
-0.2077000000000001,-17.669744135314307
-0.2087,-17.669744135314307
-0.2097000000000001,-17.71218547431026
-0.2107,-17.75462681330621
-0.2117000000000001,-17.881950830294063
-0.2127,-17.924392169290012
-0.2137000000000001,-18.009274847281915
-0.2147,-18.06586329927652
-0.2157000000000001,-18.15074597726842
-0.2167,-18.19318731626437
-0.21770000000000012,-18.19318731626437
-0.2187,-18.19318731626437
-0.21970000000000012,-18.19318731626437
-0.2207,-18.19318731626437
-0.22170000000000012,-18.19318731626437
-0.2227,-18.15074597726842
-0.22370000000000012,-18.15074597726842
-0.2247,-18.15074597726842
-0.22570000000000012,-18.19318731626437
-0.2267,-18.19318731626437
-0.22770000000000012,-18.19318731626437
-0.22870000000000001,-18.15074597726842
-0.22970000000000013,-18.10830463827247
-0.23070000000000002,-18.06586329927652
-0.23170000000000013,-18.009274847281915
-0.23270000000000002,-17.966833508285966
-0.23370000000000013,-17.924392169290012
-0.23470000000000002,-17.924392169290012
-0.23570000000000013,-17.881950830294063
-0.23670000000000002,-17.881950830294063
-0.2376999999999999,-17.881950830294063
-0.23870000000000002,-17.924392169290012
-0.2396999999999999,-17.881950830294063
-0.24070000000000003,-17.881950830294063
-0.24169999999999991,-17.881950830294063
-0.24270000000000003,-17.881950830294063
-0.24369999999999992,-17.924392169290012
-0.24470000000000003,-17.966833508285966
-0.24569999999999992,-17.966833508285966
-0.24670000000000003,-17.966833508285966
-0.24769999999999992,-18.06586329927652
-0.24870000000000003,-18.15074597726842
-0.24969999999999992,-18.23562865526032
-0.25070000000000003,-18.320511333252224
-0.2516999999999999,-18.320511333252224
-0.25270000000000004,-18.27806999425627
-0.2536999999999999,-18.19318731626437
-0.25470000000000004,-18.10830463827247
-0.2556999999999999,-18.009274847281915
-0.25670000000000004,-17.966833508285966
-0.25769999999999993,-17.881950830294063
-0.25870000000000004,-17.797068152302163
-0.25969999999999993,-17.75462681330621
-0.26070000000000004,-17.71218547431026
-0.26169999999999993,-17.669744135314307
-0.26270000000000004,-17.627302796318357
-0.26369999999999993,-17.627302796318357
-0.26470000000000005,-17.584861457322408
-0.26569999999999994,-17.627302796318357
-0.26670000000000005,-17.669744135314307
-0.26769999999999994,-17.71218547431026
-0.26870000000000005,-17.797068152302163
-0.26969999999999994,-17.839509491298113
-0.27070000000000005,-17.881950830294063
-0.27169999999999994,-17.924392169290012
-0.27270000000000005,-18.009274847281915
-0.27369999999999994,-18.06586329927652
-0.27470000000000006,-18.06586329927652
-0.27569999999999995,-18.06586329927652
-0.27670000000000006,-17.966833508285966
-0.27769999999999995,-17.966833508285966
-0.27870000000000006,-17.966833508285966
-0.27969999999999995,-18.009274847281915
-0.28070000000000006,-18.06586329927652
-0.28169999999999995,-18.06586329927652
-0.28270000000000006,-18.009274847281915
-0.28369999999999995,-18.009274847281915
-0.28470000000000006,-17.966833508285966
-0.28569999999999995,-17.924392169290012
-0.28670000000000007,-17.881950830294063
-0.28769999999999996,-17.839509491298113
-0.28870000000000007,-17.797068152302163
-0.28969999999999996,-17.75462681330621
-0.29070000000000007,-17.75462681330621
-0.29169999999999996,-17.71218547431026
-0.29270000000000007,-17.669744135314307
-0.29369999999999996,-17.627302796318357
-0.2947000000000001,-17.669744135314307
-0.29569999999999996,-17.669744135314307
-0.2967000000000001,-17.669744135314307
-0.29769999999999996,-17.71218547431026
-0.2987000000000001,-17.71218547431026
-0.29969999999999997,-17.71218547431026
-0.3007000000000001,-17.71218547431026
-0.30169999999999997,-17.75462681330621
-0.3027000000000001,-17.797068152302163
-0.30369999999999997,-17.839509491298113
-0.3047000000000001,-17.881950830294063
-0.30569999999999997,-17.924392169290012
-0.3067000000000001,-17.966833508285966
-0.3077,-18.06586329927652
-0.3087000000000001,-18.06586329927652
-0.3097,-18.009274847281915
-0.3107000000000001,-18.009274847281915
-0.3117,-17.924392169290012
-0.3127000000000001,-17.924392169290012
-0.3137,-17.797068152302163
-0.3147000000000001,-17.75462681330621
-0.3157,-17.669744135314307
-0.3167000000000001,-17.627302796318357
-0.3177,-17.584861457322408
-0.3187000000000001,-17.584861457322408
-0.3197,-17.48583166633185
-0.3207000000000001,-17.48583166633185
-0.3217,-17.48583166633185
-0.3227000000000001,-17.542420118326454
-0.3237,-17.584861457322408
-0.3247000000000001,-17.669744135314307
-0.3257,-17.75462681330621
-0.3267000000000001,-17.839509491298113
-0.3277,-17.924392169290012
-0.3287000000000001,-17.966833508285966
-0.3297,-18.009274847281915
-0.3307000000000001,-18.10830463827247
-0.3317,-18.15074597726842
-0.3327000000000001,-18.15074597726842
-0.3337,-18.15074597726842
-0.3347000000000001,-18.10830463827247
-0.3357,-18.10830463827247
-0.3367000000000001,-18.19318731626437
-0.3377,-18.27806999425627
-0.3387000000000001,-18.362952672248177
-0.3397,-18.40539401124413
-0.3407000000000001,-18.40539401124413
-0.3417,-18.40539401124413
-0.3427000000000001,-18.362952672248177
-0.3437,-18.362952672248177
-0.3447000000000001,-18.320511333252224
-0.3457,-18.27806999425627
-0.3467000000000001,-18.19318731626437
-0.3477,-18.19318731626437
-0.3487000000000001,-18.15074597726842
-0.3497,-18.19318731626437
-0.3507000000000001,-18.19318731626437
-0.3517,-18.27806999425627
-0.3527000000000001,-18.320511333252224
-0.3537,-18.362952672248177
-0.3547000000000001,-18.44783535024008
-0.3557,-18.53271802823198
-0.35670000000000013,-18.589306480226583
-0.3577,-18.631747819222536
-0.35870000000000013,-18.631747819222536
-0.3597,-18.716630497214435
-0.36070000000000013,-18.759071836210385
-0.3617,-18.88639585319824
-0.3626999999999999,-18.97127853119014
-0.3637,-19.056161209182044
-0.3646999999999999,-19.197632339168546
-0.3657,-19.3249563561564
-0.3666999999999999,-19.452280373144255
-0.3677,-19.49472171214021
-0.3686999999999999,-19.579604390132108
-0.36970000000000003,-19.579604390132108
-0.3706999999999999,-19.537163051136158
-0.37170000000000003,-19.537163051136158
-0.3726999999999999,-19.49472171214021
-0.37370000000000003,-19.452280373144255
-0.3746999999999999,-19.452280373144255
-0.37570000000000003,-19.49472171214021
-0.3766999999999999,-19.537163051136158
-0.37770000000000004,-19.579604390132108
-0.3786999999999999,-19.678634181122664
-0.37970000000000004,-19.763516859114564
-0.3806999999999999,-19.805958198110513
-0.38170000000000004,-19.93328221509837
-0.38269999999999993,-20.01816489309027
-0.38370000000000004,-20.159636023076775
-0.38469999999999993,-20.329401379060574
-0.38570000000000004,-20.456725396048434
-0.38669999999999993,-20.584049413036283
-0.38770000000000004,-20.76796188201874
-0.38869999999999993,-20.93772723800254
-0.38970000000000005,-21.107492593986347
-0.39069999999999994,-21.291405062968803
-0.39170000000000005,-21.461170418952605
-0.39269999999999994,-21.58849443594046
-0.39370000000000005,-21.63093577493641
-0.39469999999999994,-21.729965565926964
-0.39570000000000005,-21.772406904922917
-0.39669999999999994,-21.772406904922917
-0.39770000000000005,-21.857289582914817
-0.39869999999999994,-21.899730921910766
-0.39970000000000006,-21.94217226090672
-0.40069999999999995,-21.98461359990267
-0.40170000000000006,-22.069496277894572
-0.40269999999999995,-22.111937616890522
-0.40370000000000006,-22.15437895588647
-0.40469999999999995,-22.295850085872978
-0.40570000000000006,-22.38073276386488
-0.40669999999999995,-22.46561544185678
-0.40770000000000006,-22.63538079784059
-0.40869999999999995,-22.861734605818995
-0.40970000000000006,-23.073941300798747
-0.41069999999999995,-23.300295108777156
-0.41170000000000007,-23.55494314275286
-0.41269999999999996,-23.767149837732617
-0.41370000000000007,-23.993503645711023
-0.41469999999999996,-24.20571034069078
-0.41570000000000007,-24.474505487665134
-0.41669999999999996,-24.686712182644893
-0.41770000000000007,-24.95550732961925
-0.41869999999999996,-25.12527268560305
-0.4197000000000001,-25.252596702590903
-0.42069999999999996,-25.39406783257741
-0.4217000000000001,-25.478950510569312
-0.42269999999999996,-25.563833188561212
-0.4237000000000001,-25.648715866553115
-0.42469999999999997,-25.77603988354097
-0.4257000000000001,-25.81848122253692
-0.42669999999999997,-25.959952352523427
-0.4277000000000001,-26.044835030515326
-0.42869999999999997,-26.17215904750318
-0.4297000000000001,-26.29948306449103
-0.43069999999999997,-26.483395533473487
-0.4317000000000001,-26.65316088945729
-0.4327,-26.907808923433
-0.4337000000000001,-27.134162731411404
-0.4347,-27.487840556377662
-0.4357000000000001,-27.827371268345274
-0.4367,-28.18104909331153
-0.4377000000000001,-28.435697127287238
-0.4387,-28.746933613257543
-0.4397000000000001,-29.058170099227848
-0.4407,-29.31281813320356
-0.4417000000000001,-29.581613280177915
-0.4427,-29.836261314153624
-0.4437000000000001,-30.04846800913338
-0.4447,-30.317263156107735
-0.4457000000000001,-30.571911190083444
-0.4467,-30.925589015049702
-0.4477000000000001,-31.23682550102001
-0.4487,-31.49147353499572
-0.4497000000000001,-31.717827342974125
-0.4507,-31.887592698957924
-0.4517000000000001,-32.01491671594578
-0.4527,-32.184682071929586
-0.4537000000000001,-32.32615320191609
-0.4547,-32.49591855789989
-0.4557000000000001,-32.70812525287965
-0.4567,-33.01936173884996
-0.4577000000000001,-33.288156885824314
-0.4587,-33.627687597791926
-0.4597000000000001,-33.98136542275818
-0.4607,-34.33504324772444
-0.4617000000000001,-34.717015298688004
-0.4627,-35.11313446265021
-0.4637000000000001,-35.55169496560837
-0.4647,-35.99025546856653
-0.4657000000000001,-36.37222751953009
-0.4667,-36.725905344496354
-0.4677000000000001,-37.164465847454515
-0.4687,-37.645467689408626
-0.4697000000000001,-38.211352209354644
-0.4707,-38.777236729300654
-0.4717000000000001,-39.258238571254765
-0.4727,-39.654357735216976
-0.4737000000000001,-39.99388844718459
-0.4747,-40.30512493315489
-0.4757000000000001,-40.559772967130606
-0.4767,-40.87100945310091
-0.4777000000000001,-41.139804600075266
-0.4787,-41.39445263405098
-0.4797000000000001,-41.66324778102533
-0.4807,-41.96033715399699
-0.48170000000000013,-42.31401497896325
-0.4827,-42.71013414292546
-0.48370000000000013,-43.134547532884966
-0.4847,-43.657990713835034
-0.48570000000000013,-44.181433894785094
-0.4867,-44.138992555789144
-0.48570000000000013,-43.09210619388902
-0.4847,-42.2715736399673
-0.48370000000000013,-41.52177665103883
-0.4827,-40.828568114104954
-0.48170000000000013,-40.220242255162994
-0.4807,-39.696799074212926
-0.4797000000000001,-39.30067991025072
-0.4787,-38.81967806829661
-0.4777000000000001,-38.38111756533845
-0.4767,-37.90011572338433
-0.4757000000000001,-37.51814367242077
-0.4747,-37.122024508458566
-0.4737000000000001,-36.725905344496354
-0.4727,-36.37222751953009
-0.4717000000000001,-35.94781412957058
-0.4707,-35.50925362661242
-0.4697000000000001,-35.07069312365426
-0.4687,-34.632132620696105
-0.4677000000000001,-34.193572117737936
-0.4667,-33.81160006677438
