Potential V vs RHE, Current mA cm-2
0.013299999999999867,0.029892849766148224
0.012299999999999978,-0.7769594458858782
0.011299999999999866,-1.3859926604777764
0.010299999999999976,-1.8660042045219833
0.009299999999999864,-2.3130529752793345
0.008299999999999974,-2.7049280053419507
0.007299999999999862,-3.031726315610774
0.006299999999999972,-3.3245715546828363
0.00529999999999986,-3.5707313208593527
0.0042999999999999705,-3.7617173463411326
0.0032999999999998586,-3.9413856814239923
0.0022999999999999687,-4.177642468501453
0.0012999999999998568,-4.379946184382153
0.00029999999999996696,-4.5044407787702765
-0.000700000000000145,-4.604885281060694
-0.0017000000000000348,-4.691182670352461
-0.0027000000000001467,-4.742112277147603
-0.0037000000000000366,-4.896315808832893
-0.0047000000000001485,-5.03071338232007
-0.005700000000000038,-5.100034236013457
-0.00670000000000015,-5.1608668219076534
-0.00770000000000004,-5.177843357506034
-0.008700000000000152,-5.216040562602391
-0.009700000000000042,-5.276873148496587
-0.010700000000000154,-5.407026588084171
-0.011700000000000044,-5.491909266076072
-0.012700000000000156,-5.465029751378637
-0.013700000000000045,-5.415514855883361
-0.014700000000000157,-5.433906102781606
-0.015700000000000047,-5.487665132176478
-0.01670000000000016,-5.582450789267434
-0.01770000000000005,-5.661674622059877
-0.01870000000000016,-5.6715776011589325
-0.01970000000000005,-5.57537723276811
-0.020700000000000163,-5.517374069473643
-0.021700000000000053,-5.556985985869864
-0.022700000000000164,-5.643283375161632
-0.023700000000000054,-5.714018940154883
-0.024700000000000166,-5.728166053153534
-0.025700000000000056,-5.650356931660957
-0.026700000000000168,-5.6192332830639256
-0.027700000000000058,-5.590939057066626
-0.02870000000000017,-5.616403860464195
-0.02970000000000006,-5.643283375161632
-0.03070000000000017,-5.692798270656908
-0.03170000000000006,-5.677236446358393
-0.03270000000000017,-5.612159726564601
-0.03370000000000006,-5.636209818662306
-0.034700000000000175,-5.622062705663656
-0.035700000000000065,-5.579621366667705
-0.03670000000000018,-5.576791944067974
-0.03770000000000007,-5.614989149164331
-0.03870000000000018,-5.59518319096622
-0.03970000000000007,-5.5866949231670295
-0.04070000000000018,-5.654601065560552
-0.04170000000000007,-5.585280211867165
-0.04270000000000018,-5.482006286977017
-0.04370000000000007,-5.5003975338752635
-0.044700000000000184,-5.558400697169729
-0.045700000000000074,-5.544253584171079
-0.046700000000000186,-5.5018122451751275
-0.047700000000000076,-5.489079843476342
-0.04870000000000019,-5.5272770485726985
-0.04970000000000008,-5.498982822575398
-0.05070000000000019,-5.473518019177827
-0.05170000000000008,-5.457956194879311
-0.05270000000000019,-5.39287947508552
-0.05370000000000008,-5.394294186385385
-0.05470000000000019,-5.474932730477692
-0.05570000000000008,-5.496153399975667
-0.056700000000000195,-5.39570889768525
-0.057700000000000085,-5.337705734390783
-0.058700000000000196,-5.296679106694698
-0.059700000000000086,-5.316485064892808
-0.0607000000000002,-5.374488228187275
-0.06170000000000009,-5.431076680181876
-0.0627000000000002,-5.380147073386734
-0.06370000000000009,-5.268384880697396
-0.0647000000000002,-5.22452883040158
-0.06570000000000009,-5.244334788599692
-0.0667000000000002,-5.279702571096316
-0.0677000000000001,-5.329217466591594
-0.0687000000000002,-5.309411508393483
-0.0697000000000001,-5.19906402700401
-0.07070000000000021,-5.141060863709543
-0.0717000000000001,-5.167940378406978
-0.07270000000000021,-5.228772964301175
-0.0737000000000001,-5.244334788599692
-0.07470000000000021,-5.269799591997262
-0.0757000000000001,-5.190575759204819
-0.07670000000000021,-5.057592897017507
-0.0777000000000001,-5.087301834314672
-0.07870000000000021,-5.152378554108464
-0.0797000000000001,-5.158037399307924
-0.08070000000000022,-5.175013934906304
-0.0817000000000001,-5.165110955807249
-0.08270000000000022,-5.0618370309171015
-0.08370000000000011,-5.002419156322769
-0.08470000000000022,-5.053348763117911
-0.08570000000000011,-5.108522503812647
-0.08670000000000022,-5.122669616811298
-0.08770000000000011,-5.111351926412377
-0.08870000000000022,-5.034957516219666
-0.08970000000000011,-4.943001281728439
-0.09070000000000022,-4.9444159930283025
-0.09170000000000011,-5.0335428049198
-0.09270000000000023,-5.0943753908139975
-0.09370000000000012,-5.102863658613187
-0.09470000000000023,-5.0618370309171015
-0.09570000000000012,-4.914707055731138
-0.09670000000000023,-4.836897934238561
-0.09770000000000012,-4.948660126927899
-0.09870000000000023,-5.03637222751953
-0.09970000000000012,-5.015151558021555
-0.10070000000000023,-4.9826131981246595
-0.10170000000000012,-4.926024746130058
-0.10270000000000024,-4.904804076632082
-0.10370000000000013,-4.903389365332218
-0.10470000000000024,-4.951489549527628
-0.10570000000000013,-4.943001281728439
-0.10670000000000024,-4.910462921831542
-0.10770000000000013,-4.920365900930598
-0.10870000000000024,-4.909048210531677
-0.10970000000000013,-4.9175364783308675
-0.11070000000000024,-4.907633499231812
-0.11170000000000013,-4.873680428035052
-0.11270000000000002,-4.8581186037365365
-0.11370000000000013,-4.883583407134107
-0.11470000000000002,-4.920365900930598
-0.11570000000000014,-4.950074838227763
-0.11670000000000003,-4.899145231432622
-0.11770000000000014,-4.852459758537076
-0.11870000000000003,-4.811433130840991
-0.11970000000000014,-4.82275082123991
-0.12070000000000003,-4.886412829733837
-0.12170000000000014,-4.901974654032353
-0.12270000000000003,-4.901974654032353
-0.12370000000000014,-4.887827541033701
-0.12470000000000003,-4.83406851163883
-0.12570000000000014,-4.811433130840991
-0.12670000000000003,-4.846800913337615
-0.12770000000000015,-4.892071674933297
-0.12870000000000004,-4.876509850634781
-0.12970000000000015,-4.82558024383964
-0.13070000000000004,-4.835483222938696
-0.13170000000000015,-4.906218787931947
-0.13270000000000004,-4.879339273234511
-0.13370000000000015,-4.836897934238561
-0.13470000000000004,-4.846800913337615
-0.13570000000000015,-4.819921398640179
-0.13670000000000004,-4.80860370824126
-0.13770000000000016,-4.916121767031002
-0.13870000000000005,-4.955733683427223
-0.13970000000000016,-4.8453862020377505
-0.14070000000000005,-4.802944863041799
-0.14170000000000016,-4.787383038743283
-0.14270000000000005,-4.8128478421408545
-0.14370000000000016,-4.875095139334916
-0.14470000000000005,-4.952904260827493
-0.14570000000000016,-4.911877633131407
-0.14670000000000005,-4.802944863041799
-0.14770000000000016,-4.774650637044499
-0.14870000000000005,-4.81709197604045
-0.14970000000000017,-4.85387446983694
-0.15070000000000006,-4.926024746130058
-0.15170000000000017,-4.933098302629383
-0.15270000000000006,-4.829824377739236
-0.15370000000000017,-4.77748005964423
-0.15470000000000006,-4.843971490737885
-0.15570000000000017,-4.900559942732487
-0.15670000000000006,-4.920365900930598
-0.15770000000000017,-4.967051373826144
-0.15870000000000006,-4.882168695834241
-0.15970000000000018,-4.771821214444769
-0.16070000000000007,-4.832653800338965
-0.16170000000000018,-4.913292344431272
-0.16270000000000007,-4.937342436528978
-0.16370000000000018,-4.934513013929248
-0.16470000000000007,-4.931683591329518
-0.16570000000000018,-4.880753984534377
-0.16670000000000007,-4.81709197604045
-0.16770000000000018,-4.890656963633432
-0.16870000000000007,-4.967051373826144
-0.16970000000000018,-4.934513013929248
-0.17070000000000007,-4.955733683427223
-0.17170000000000019,-4.920365900930598
-0.17270000000000008,-4.818506687340315
-0.1737000000000002,-4.8312390890391
-0.17470000000000008,-4.945830704328168
-0.1757000000000002,-4.974124930325469
-0.17670000000000008,-4.950074838227763
-0.1777000000000002,-4.951489549527628
-0.17870000000000008,-4.923195323530328
-0.1797000000000002,-4.843971490737885
-0.18070000000000008,-4.889242252333567
-0.1817000000000002,-4.968466085126009
-0.18270000000000008,-4.958563106026954
-0.1837000000000002,-4.937342436528978
-0.1847000000000001,-4.955733683427223
-0.1857000000000002,-4.927439457429923
-0.1867000000000001,-4.865192160235861
-0.1877000000000002,-4.920365900930598
-0.1887000000000001,-4.972710219025604
-0.1897000000000002,-4.968466085126009
-0.1907000000000001,-4.992516177223715
-0.1917000000000001,-4.968466085126009
-0.19269999999999998,-4.877924561934646
-0.1937000000000001,-4.876509850634781
-0.19469999999999998,-4.967051373826144
-0.1957000000000001,-5.01656626932142
-0.19669999999999999,-5.006663290222365
-0.1977000000000001,-5.003833867622634
-0.1987,-4.916121767031002
-0.1997000000000001,-4.846800913337615
-0.2007,-4.9571483947270885
-0.2017000000000001,-5.067495876116562
-0.2027,-5.06466645351683
-0.2037000000000001,-5.03071338232007
-0.2047,-4.934513013929248
-0.2057000000000001,-4.841142068138156
-0.2067,-4.877924561934646
-0.2077000000000001,-5.026469248420476
-0.2087,-5.109937215112512
-0.2097000000000001,-5.084472411714942
-0.2107,-4.9896867546239845
-0.2117000000000001,-4.8849981184339715
-0.2127,-4.846800913337615
-0.2137000000000001,-4.976954352925199
-0.2147,-5.102863658613187
-0.2157000000000001,-5.088716545614537
-0.2167,-5.003833867622634
-0.21770000000000012,-5.002419156322769
-0.2187,-4.986857332024254
-0.21970000000000012,-4.967051373826144
-0.2207,-5.03071338232007
-0.22170000000000012,-5.0547634744177765
-0.2227,-5.01939569192115
-0.22370000000000012,-5.0292986710202054
-0.2247,-5.047689917918451
-0.22570000000000012,-4.986857332024254
-0.2267,-4.954318972127359
-0.22770000000000012,-5.026469248420476
-0.22870000000000001,-5.066081164816696
-0.22970000000000013,-5.051934051818047
-0.23070000000000002,-5.0816429891152115
-0.23170000000000013,-5.088716545614537
-0.23270000000000002,-5.012322135421825
-0.23370000000000013,-4.9896867546239845
-0.23470000000000002,-5.056178185717641
-0.23570000000000013,-5.078813566515482
-0.23670000000000002,-5.0420310727189905
-0.2376999999999999,-5.078813566515482
-0.23870000000000002,-5.114181349012108
-0.2396999999999999,-5.044860495318721
-0.24070000000000003,-5.040616361419126
-0.24169999999999991,-5.068910587416426
-0.24270000000000003,-5.075984143915751
-0.24369999999999992,-5.092960679514132
-0.24470000000000003,-5.150963842808599
-0.24569999999999992,-5.0943753908139975
-0.24670000000000003,-5.039201650119261
-0.24769999999999992,-5.075984143915751
-0.24870000000000003,-5.143890286309273
-0.24969999999999992,-5.135402018510083
-0.25070000000000003,-5.139646152409678
-0.2516999999999999,-5.173599223606439
-0.25270000000000004,-5.145304997609139
-0.2536999999999999,-5.108522503812647
-0.25470000000000004,-5.156622688008059
-0.2556999999999999,-5.18208749140563
-0.25670000000000004,-5.167940378406978
-0.25769999999999993,-5.2061375835033346
-0.25870000000000004,-5.231602386900906
-0.25969999999999993,-5.167940378406978
-0.26070000000000004,-5.159452110607789
-0.26169999999999993,-5.197649315704145
-0.26270000000000004,-5.241505365999961
-0.26369999999999993,-5.257067190298477
-0.26470000000000005,-5.307996797093617
-0.26569999999999994,-5.274043725896856
-0.26670000000000005,-5.201893449603739
-0.26769999999999994,-5.257067190298477
-0.26870000000000005,-5.302337951894157
-0.26969999999999994,-5.323558621392133
-0.27070000000000005,-5.3759029394871405
-0.27169999999999994,-5.373073516887409
-0.27270000000000005,-5.310826219693348
-0.27369999999999994,-5.279702571096316
-0.27470000000000006,-5.343364579590244
-0.27569999999999995,-5.443809081880661
-0.27670000000000006,-5.453712060979717
-0.27769999999999995,-5.450882638379986
-0.27870000000000006,-5.452297349679851
-0.27969999999999995,-5.414100144583495
-0.28070000000000006,-5.41834427848309
-0.28169999999999995,-5.467859173978367
-0.28270000000000006,-5.503226956474993
-0.28369999999999995,-5.511715224274183
-0.28470000000000006,-5.5541565632701335
-0.28569999999999995,-5.582450789267434
-0.28670000000000007,-5.544253584171079
-0.28769999999999996,-5.562644831069325
-0.28870000000000007,-5.59518319096622
-0.28969999999999996,-5.617818571764061
-0.29070000000000007,-5.694212981956773
-0.29169999999999996,-5.729580764453398
-0.29270000000000007,-5.719677785354343
-0.29369999999999996,-5.688554136757313
-0.2947000000000001,-5.7111895175551535
-0.29569999999999996,-5.746557300051779
-0.2967000000000001,-5.817292865045031
-0.29769999999999996,-5.8625636266407115
-0.2987000000000001,-5.841342957142737
-0.29969999999999997,-5.8682224718401725
-0.3007000000000001,-5.917737367335448
-0.30169999999999997,-5.903590254336798
-0.3027000000000001,-5.917737367335448
-0.30369999999999997,-5.977155241929781
-0.3047000000000001,-6.033743693924381
-0.30569999999999997,-6.088917434619118
-0.3067000000000001,-6.0790144555200625
-0.3077,-6.067696765121143
-0.3087000000000001,-6.093161568518712
-0.3097,-6.124285217115744
-0.3107000000000001,-6.251609234103598
-0.3117,-6.322344799096849
-0.3127000000000001,-6.322344799096849
-0.3137,-6.299709418299008
-0.3147000000000001,-6.305368263498468
-0.3157,-6.357712581593474
-0.3167000000000001,-6.4850365985813285
-0.3177,-6.574163410472826
-0.3187000000000001,-6.592554657371071
-0.3197,-6.586895812171611
-0.3207000000000001,-6.537380916676335
-0.3217,-6.55860158617431
-0.3227000000000001,-6.671778490163514
-0.3237,-6.809005486250422
-0.3247000000000001,-6.898132298141919
-0.3257,-6.908035277240974
-0.3267000000000001,-6.862764515645292
-0.3277,-6.851446825246373
-0.3287000000000001,-6.913694122440434
-0.3297,-7.024041603829907
-0.3307000000000001,-7.175415712915465
-0.3317,-7.2079540728123614
-0.3327000000000001,-7.172586290315736
-0.3337,-7.260298390907368
-0.3347000000000001,-7.342351646299541
-0.3357,-7.366401738397246
-0.3367000000000001,-7.444210859889823
-0.3377,-7.548899496079835
-0.3387000000000001,-7.587096701176192
-0.3397,-7.662076400069039
-0.3407000000000001,-7.729982542462561
-0.3417,-7.717250140763775
-0.3427000000000001,-7.748373789360806
-0.3437,-7.918139145344611
-0.3447000000000001,-8.068098543130306
-0.3457,-8.13741939682369
-0.3467000000000001,-8.177031313219912
-0.3477,-8.14873708722261
-0.3487000000000001,-8.186934292318968
-0.3497,-8.298696485008303
-0.3507000000000001,-8.50241491218887
-0.3517,-8.62549479527713
-0.3527000000000001,-8.67359497947254
-0.3537,-8.645300753475238
-0.3547000000000001,-8.646715464775104
-0.3557,-8.748574678365387
-0.35670000000000013,-8.967854929844465
-0.3577,-9.187135181323548
-0.35870000000000013,-9.298897374012885
-0.3597,-9.2861649723141
-0.36070000000000013,-9.219673541220443
-0.3617,-9.250797189817476
-0.3626999999999999,-9.43753908139966
-0.3637,-9.709163650973746
-0.3646999999999999,-9.860537760059307
-0.3657,-9.84497593576079
-0.3666999999999999,-9.84497593576079
-0.3677,-10.026058982143516
-0.3686999999999999,-10.18733607032813
-0.36970000000000003,-10.296268840417738
-0.3706999999999999,-10.43491054780451
-0.37170000000000003,-10.532525627495199
-0.3726999999999999,-10.59760234728899
-0.37370000000000003,-10.77727068237185
-0.3746999999999999,-10.89044758636105
-0.37570000000000003,-10.942791904456058
-0.3766999999999999,-11.043236406746477
-0.37770000000000004,-11.310616842420966
-0.3786999999999999,-11.508676424402074
-0.37970000000000004,-11.626097462290872
-0.3806999999999999,-11.80576579737373
-0.38170000000000004,-11.845377713769953
-0.38269999999999993,-11.882160207566443
-0.38370000000000004,-12.081634500847414
-0.38469999999999993,-12.360332626920826
-0.38570000000000004,-12.53009798290463
-0.38669999999999993,-12.722498719686275
-0.38770000000000004,-12.838505046275207
-0.38869999999999993,-12.807381397678178
-0.38970000000000005,-12.92055830166738
-0.39069999999999994,-13.316677465629589
-0.39170000000000005,-13.649134621097875
-0.39269999999999994,-13.793435173684106
-0.39370000000000005,-13.838705935279789
-0.39469999999999994,-14.059400898058735
-0.39570000000000005,-14.26028990263957
-0.39669999999999994,-14.430055258623375
-0.39770000000000005,-14.69885040559773
-0.39869999999999994,-14.939351326574789
-0.39970000000000006,-15.05252823056399
-0.40069999999999995,-15.37791182953295
-0.40170000000000006,-15.70329542850191
-0.40269999999999995,-15.78817810649381
-0.40370000000000006,-15.986237688474914
-0.40469999999999995,-16.29747417444522
-0.40570000000000006,-16.70774045140608
-0.40669999999999995,-16.99068271137909
-0.40770000000000006,-17.358507649344002
-0.40869999999999995,-17.556567231325104
-0.40970000000000006,-17.641449909317007
-0.41069999999999995,-18.009274847281915
-0.41170000000000007,-18.518570915233333
-0.41269999999999996,-18.94298430519284
-0.41370000000000007,-19.339103469155052
-0.41469999999999996,-19.763516859114564
-0.41570000000000007,-20.03231200608892
-0.41669999999999996,-20.301107153063278
-0.41770000000000007,-20.881138786007945
-0.41869999999999996,-21.58849443594046
-0.4197000000000001,-22.168526068885125
-0.42069999999999996,-22.80514615382439
-0.4217000000000001,-23.144676865792
-0.42269999999999996,-23.371030673770406
-0.4237000000000001,-23.92276808071777
-0.42469999999999997,-24.927213103621945
-0.4257000000000001,-25.832628335535567
-0.42669999999999997,-26.440954194477534
-0.4277000000000001,-26.97854448842625
-0.42869999999999997,-27.65760591236147
-0.4297000000000001,-28.647903822266994
-0.43069999999999997,-29.72308441016442
-0.4317000000000001,-30.670940981073993
-0.4327,-31.54806198699032
-0.4337000000000001,-32.439330105905285
-0.4347,-33.670128936787876
-0.4357000000000001,-35.08484023665291
-0.4367,-36.18831505054764
-0.4377000000000001,-37.34837831643697
-0.4387,-38.607471373316855
-0.4397000000000001,-40.20609514216434
-0.4407,-42.10180828398349
-0.4417000000000001,-43.70043205283099
-0.4427,-45.242467369683865
-0.4437000000000001,-47.30794586748683
-0.4447,-49.31683591329518
-0.4457000000000001,-51.071077925127824
-0.4467,-53.136556422930774
-0.4477000000000001,-55.25862337272834
-0.4487,-57.14018940154883
-0.4497000000000001,-59.417874594331536
-0.4507,-61.87947225609671
-0.4517000000000001,-63.59127292893339
-0.4527,-65.17574958478224
-0.4537000000000001,-67.08560983960004
-0.4547,-69.7735613093436
-0.4557000000000001,-72.39077721409393
-0.4567,-74.08843077393198
-0.4577000000000001,-76.12561504573763
-0.4587,-78.70038961149199
-0.4597000000000001,-80.58195564031249
-0.4607,-82.36449187814243
-0.4617000000000001,-84.18946945496833
-0.4627,-85.98615280579692
-0.4637000000000001,-88.32042645057423
-0.4647,-90.71128854734616
-0.4657000000000001,-92.36650076818825
-0.4667,-93.44168135608567
-0.4677000000000001,-94.61589173497366
-0.4687,-96.63892889378066
-0.4697000000000001,-98.93076119956201
-0.4707,-101.34991752233122
-0.4717000000000001,-102.3826567712327
-0.4727,-103.20318932515443
-0.4737000000000001,-104.53301794702756
-0.4747,-106.92388004379946
-0.4757000000000001,-109.00350565460108
-0.4767,-110.46065829346206
-0.4777000000000001,-112.21490030529472
-0.4787,-112.18660607929739
-0.4797000000000001,-112.48369545226906
-0.4807,-114.19549612510575
-0.48170000000000013,-116.37415152689792
-0.4827,-118.58110115468739
-0.48370000000000013,-119.58554617759155
-0.4847,-118.59524826768603
-0.48570000000000013,-117.94448106974811
-0.4867,-118.58110115468739
-0.48570000000000013,-119.55725195159425
-0.4847,-120.13728358453892
-0.48370000000000013,-119.52895772559695
-0.4827,-117.56250901878454
-0.48170000000000013,-115.03017579202613
-0.4807,-114.53502683707337
-0.4797000000000001,-115.11505847001803
-0.4787,-116.0912092669249
-0.4777000000000001,-115.59606031197214
-0.4767,-113.87011252613681
-0.4757000000000001,-111.5075446553622
-0.4747,-110.09283335549715
-0.4737000000000001,-110.23430448548366
-0.4727,-110.72945344043643
-0.4717000000000001,-110.54554097145396
-0.4707,-109.13082967158894
-0.4697000000000001,-107.64538280673065
-0.4687,-106.65508489682512
-0.4677000000000001,-106.2306715068656
-0.4667,-106.2023772808683
-0.4657000000000001,-105.83455234290338
-0.4647,-104.39154681704106
-0.4637000000000001,-103.7266325061045
-0.4627,-102.73633459619896
-0.4617000000000001,-101.33577040933257
-0.4607,-100.5293849684095
