Potential V vs RHE, Current mA cm-2
0.013299999999999867,11.862354249368334
0.012299999999999978,9.986447065747294
0.011299999999999866,8.284549372009655
0.010299999999999976,6.889644030342729
0.009299999999999864,5.581036077967569
0.008299999999999974,4.2285720752965945
0.007299999999999862,2.745954633038036
0.006299999999999972,1.4373466806628774
0.00529999999999986,0.3031726315610774
0.0042999999999999705,-0.7001406223032067
0.0032999999999998586,-1.8334658446250875
0.0022999999999999687,-3.0996324580042955
0.0012999999999998568,-4.276672259492005
0.00029999999999996696,-5.191990470504685
-0.000700000000000145,-6.064867342521412
-0.0017000000000000348,-7.024041603829907
-0.0027000000000001467,-8.11478401602585
-0.0037000000000000366,-9.11781432763016
-0.0047000000000001485,-9.946835149351072
-0.005700000000000038,-10.644287820184536
-0.00670000000000015,-11.517164692201263
-0.00770000000000004,-12.520195003805576
-0.008700000000000152,-13.436927926118118
-0.009700000000000042,-14.13438059695158
-0.010700000000000154,-14.783733083589633
-0.011700000000000044,-15.618412750510005
-0.012700000000000156,-16.580416434418233
-0.013700000000000045,-17.358507649344002
-0.014700000000000157,-18.009274847281915
-0.015700000000000047,-18.589306480226583
-0.01670000000000016,-19.3249563561564
-0.01770000000000005,-20.159636023076775
-0.01870000000000016,-20.89528589900659
-0.01970000000000005,-21.503611757948562
-0.020700000000000163,-22.027054938898623
-0.021700000000000053,-22.72026347583249
-0.022700000000000164,-23.55494314275286
-0.023700000000000054,-24.290593018682678
-0.024700000000000166,-24.870624651627345
-0.025700000000000056,-25.337479380582806
-0.026700000000000168,-25.91751101352747
-0.027700000000000058,-26.65316088945729
-0.02870000000000017,-27.303928087395207
-0.02970000000000006,-27.78492992934932
-0.03070000000000017,-28.22349043230748
-0.03170000000000006,-28.831816291249446
-0.03270000000000017,-29.62405461917387
-0.03370000000000006,-30.274821817111786
-0.034700000000000175,-30.71338232006995
-0.035700000000000065,-31.095354371033505
-0.03670000000000018,-31.57635621298762
-0.03770000000000007,-32.24127052392419
-0.03870000000000018,-32.892037721862096
-0.03970000000000007,-33.45792224180811
-0.04070000000000018,-34.15113077874198
-0.04170000000000007,-34.94336910666641
-0.04270000000000018,-35.763901660588125
-0.04370000000000007,-36.329786180534136
-0.044700000000000184,-36.5136986495166
-0.045700000000000074,-36.47125731052064
-0.046700000000000186,-36.64102266650445
-0.047700000000000076,-37.07958316946261
-0.04870000000000019,-37.60302635041268
-0.04970000000000008,-38.253793548350586
-0.05070000000000019,-39.046031876275016
-0.05170000000000008,-39.78168175220483
-0.05270000000000019,-40.43244895014274
-0.05370000000000008,-40.828568114104954
-0.05470000000000019,-40.95589213109281
-0.05570000000000008,-40.95589213109281
-0.056700000000000195,-41.083216148080666
-0.057700000000000085,-41.39445263405098
-0.058700000000000196,-41.91789581500104
-0.059700000000000086,-42.483780334947056
-0.0607000000000002,-43.17698887188092
-0.06170000000000009,-44.054109877797245
-0.0627000000000002,-45.05855490070142
-0.06370000000000009,-45.79420477663124
-0.0647000000000002,-46.2327652795894
-0.06570000000000009,-46.45911908756781
-0.0667000000000002,-46.75620846053947
-0.0677000000000001,-47.27965164148953
-0.0687000000000002,-47.80309482243959
-0.0697000000000001,-48.24165532539775
-0.07070000000000021,-48.80753984534376
-0.0717000000000001,-49.557336834272235
-0.07270000000000021,-50.42031072718991
-0.0737000000000001,-51.127666377122424
-0.07470000000000021,-51.46719708909004
-0.0757000000000001,-51.73599223606439
-0.07670000000000021,-52.075522948032
-0.0777000000000001,-52.55652478998611
-0.07870000000000021,-53.03752663194023
-0.0797000000000001,-53.433645795902436
-0.08070000000000022,-53.82976495986464
-0.0817000000000001,-54.43809081880661
-0.08270000000000022,-55.21618203373238
-0.08370000000000011,-55.96597902266086
-0.08470000000000022,-56.44698086461496
-0.08570000000000011,-56.82895291557852
-0.08670000000000022,-57.22507207954074
-0.08770000000000011,-57.66363258249889
-0.08870000000000022,-58.14463442445301
-0.08970000000000011,-58.45587091042332
-0.09070000000000022,-58.79540162239092
-0.09170000000000011,-59.36128614233694
-0.09270000000000023,-60.06864179226946
-0.09370000000000012,-60.761850329203334
-0.09470000000000023,-61.28529351015339
-0.09570000000000012,-61.6814126741156
-0.09670000000000023,-62.16241451606972
-0.09770000000000012,-62.72829903601572
-0.09870000000000023,-63.251742216965795
-0.09970000000000012,-63.54883158993744
-0.10070000000000023,-63.81762673691181
-0.10170000000000012,-64.38351125685783
-0.10270000000000024,-65.2464851497755
-0.10370000000000013,-66.03872347769992
-0.10470000000000024,-66.51972531965401
-0.10570000000000013,-66.9582858226122
-0.10670000000000024,-67.52417034255821
-0.10770000000000013,-68.13249620150016
-0.10870000000000024,-68.52861536546239
-0.10970000000000013,-68.78326339943808
-0.11070000000000024,-69.13694122440434
-0.11170000000000013,-69.74526708334632
-0.11270000000000002,-70.43847562028017
-0.11370000000000013,-71.1458312702127
-0.11470000000000002,-71.75415712915466
-0.11570000000000014,-72.23515897110877
-0.11670000000000003,-72.71616081306288
-0.11770000000000014,-73.2820453330089
-0.11870000000000003,-73.8479298529549
-0.11970000000000014,-74.20160767792116
-0.12070000000000003,-74.54113838988879
-0.12170000000000014,-75.02214023184291
-0.12270000000000003,-75.81437855976732
-0.12370000000000014,-76.55002843569714
-0.12470000000000003,-76.98858893865528
-0.12570000000000014,-77.34226676362155
-0.12670000000000003,-77.86570994457162
-0.12770000000000015,-78.51647714250953
-0.12870000000000004,-79.0399203234596
-0.12970000000000015,-79.25212701843935
-0.13070000000000004,-79.47848082641775
-0.13170000000000015,-80.04436534636378
-0.13270000000000004,-80.90733923928146
-0.13370000000000015,-81.69957756720586
-0.13470000000000004,-82.22302074815593
-0.13570000000000015,-82.61913991211814
-0.13670000000000004,-83.14258309306821
-0.13770000000000016,-83.60943782202366
-0.13870000000000005,-83.92067430799398
-0.13970000000000016,-84.00555698598588
-0.14070000000000005,-84.09043966397778
-0.14170000000000016,-84.57144150593189
-0.14270000000000005,-85.49100385084417
-0.14370000000000016,-86.45300753475239
-0.14470000000000005,-87.33012854066871
-0.14570000000000016,-88.02333707760259
-0.14670000000000005,-88.63166293654454
-0.14770000000000016,-89.15510611749461
-0.14870000000000005,-89.55122528145681
-0.14970000000000017,-89.72099063744062
-0.15070000000000006,-89.94734444541903
-0.15170000000000017,-90.15955114039879
-0.15270000000000006,-90.37175783537855
-0.15370000000000017,-90.7254356603448
-0.15470000000000006,-91.12155482430701
-0.15570000000000017,-91.89964603923279
-0.15670000000000006,-93.08800353111941
-0.15770000000000017,-94.55930328297906
-0.15870000000000006,-95.95986746984543
-0.15970000000000018,-96.83698847576176
-0.16070000000000007,-97.26140186572127
-0.16170000000000018,-97.6575210296835
-0.16270000000000007,-98.13852287163759
-0.16370000000000018,-98.40731801861195
-0.16470000000000007,-98.3082882276214
-0.16570000000000018,-98.09608153264163
-0.16670000000000007,-98.09608153264163
-0.16770000000000018,-98.364876679616
-0.16870000000000007,-98.7892900695755
-0.16970000000000018,-99.27029191152963
-0.17070000000000007,-99.7937350924797
-0.17170000000000019,-100.54353208140815
-0.17270000000000008,-101.32162329633393
-0.1737000000000002,-102.02897894626645
-0.17470000000000008,-102.45339233622596
-0.1757000000000002,-102.67974614420436
-0.17670000000000008,-103.07586530816658
-0.1777000000000002,-103.76907384510045
-0.17870000000000008,-104.46228238203432
-0.1797000000000002,-104.94328422398843
-0.18070000000000008,-105.46672740493848
-0.1817000000000002,-106.21652439386696
-0.18270000000000008,-106.99461560879273
-0.1837000000000002,-107.6029414677347
-0.1847000000000001,-107.914177953705
-0.1857000000000002,-108.2537086656726
-0.1867000000000001,-108.73471050762672
-0.1877000000000002,-109.25815368857677
-0.1887000000000001,-109.8240382085228
-0.1897000000000002,-110.34748138947285
-0.1907000000000001,-110.78604189243102
-0.1917000000000001,-111.3094850733811
-0.19269999999999998,-112.18660607929739
-0.1937000000000001,-113.06372708521374
-0.19469999999999998,-113.53058181416918
-0.1957000000000001,-113.84181830013951
-0.19669999999999999,-114.36526148108955
-0.1977000000000001,-115.15749980901398
-0.1987,-115.76582566795594
-0.1997000000000001,-116.10535637992358
-0.2007,-116.54391688288172
-0.2017000000000001,-117.19468408081964
-0.2027,-117.81715705276027
-0.2037000000000001,-118.3406002337103
-0.2047,-118.82160207566443
-0.2057000000000001,-119.38748659561045
-0.2067,-119.99581245455242
-0.2077000000000001,-120.60413831349437
-0.2087,-121.12758149444444
-0.2097000000000001,-121.43881798041474
-0.2107,-121.69346601439047
-0.2117000000000001,-122.08958517835266
-0.2127,-122.78279371528653
-0.2137000000000001,-123.57503204321095
-0.2147,-124.14091656315696
-0.2157000000000001,-124.62191840511109
-0.2167,-125.18780292505707
-0.21770000000000012,-125.92345280098691
-0.2187,-126.44689598193698
-0.21970000000000012,-126.6732497899154
-0.2207,-126.97033916288706
-0.22170000000000012,-127.76257749081147
-0.2227,-128.752875400717
-0.22370000000000012,-129.7148790846252
-0.2247,-130.42223473455772
-0.22570000000000012,-130.84664812451723
-0.2267,-131.07300193249566
-0.22770000000000012,-131.24276728847948
-0.22870000000000001,-131.37009130546733
-0.22970000000000013,-131.5115624354538
-0.23070000000000002,-131.72376913043357
-0.23170000000000013,-132.2896536503796
-0.23270000000000002,-133.3365400122797
-0.23370000000000013,-134.42586771317576
-0.23470000000000002,-135.2181060411002
-0.23570000000000013,-135.65666654405837
-0.23670000000000002,-136.08107993401788
-0.2376999999999999,-136.60452311496792
-0.23870000000000002,-137.00064227893017
-0.2396999999999999,-137.1845547479126
-0.24070000000000003,-137.39676144289237
-0.24169999999999991,-138.13241131882216
-0.24270000000000003,-139.09441500273041
-0.24369999999999992,-139.97153600864672
-0.24470000000000003,-140.66474454558062
-0.24569999999999992,-141.3721001955131
-0.24670000000000003,-142.17848563643616
-0.24769999999999992,-143.0273124163552
-0.24870000000000003,-143.5931969363012
-0.24969999999999992,-143.16878354634173
-0.25070000000000003,-142.03701450644968
-0.2516999999999999,-141.14574638753473
-0.25270000000000004,-141.27307040452254
-0.2536999999999999,-142.6028990263957
-0.25470000000000004,-144.44202371622026
-0.2556999999999999,-146.7055617960043
-0.25670000000000004,-148.96909987578834
-0.25769999999999993,-150.5252823056399
-0.25870000000000004,-151.37410908555893
-0.25969999999999993,-151.7985224755184
-0.26070000000000004,-152.22293586547795
-0.26169999999999993,-153.07176264539694
-0.26270000000000004,-153.77911829532948
-0.26369999999999993,-153.920589425316
-0.26470000000000005,-153.21323377538346
-0.26569999999999994,-152.50587812545095
-0.26670000000000005,-152.0814647354914
-0.26769999999999994,-152.22293586547795
-0.26870000000000005,-152.64734925543743
-0.26969999999999994,-153.63764716534297
-0.27070000000000005,-154.76941620523502
-0.27169999999999994,-155.90118524512707
-0.27270000000000005,-156.75001202504606
-0.27369999999999994,-157.31589654499206
-0.27470000000000006,-157.45736767497857
-0.27569999999999995,-157.17442541500557
-0.27670000000000006,-157.03295428501906
-0.27769999999999995,-157.59883880496508
-0.27870000000000006,-158.3061944548976
-0.27969999999999995,-159.15502123481662
-0.28070000000000006,-160.14531914472215
-0.28169999999999995,-161.2770881846142
-0.28270000000000006,-162.2673860945197
-0.28369999999999995,-162.97474174445222
-0.28470000000000006,-163.54062626439824
-0.28569999999999995,-163.96503965435775
-0.28670000000000007,-164.10651078434424
-0.28769999999999996,-164.67239530429026
-0.28870000000000007,-165.2382798242363
-0.28969999999999996,-165.8041643441823
-0.29070000000000007,-166.22857773414182
-0.29169999999999996,-166.79446225408785
-0.29270000000000007,-167.6432890340068
-0.29369999999999996,-168.49211581392586
-0.2947000000000001,-168.91652920388537
-0.29569999999999996,-169.19947146385837
-0.2967000000000001,-169.7653559838044
-0.29769999999999996,-170.61418276372342
-0.2987000000000001,-171.60448067362896
-0.29969999999999997,-172.17036519357498
-0.3007000000000001,-172.73624971352098
-0.30169999999999997,-173.302134233467
-0.3027000000000001,-174.0094898833995
-0.30369999999999997,-174.71684553333202
-0.3047000000000001,-175.14125892329156
-0.30569999999999997,-175.84861457322407
-0.3067000000000001,-176.55597022315658
-0.3077,-177.54626813306209
-0.3087000000000001,-178.1121526530081
-0.3097,-178.53656604296762
-0.3107000000000001,-178.81950830294062
-0.3117,-179.24392169290016
-0.3127000000000001,-179.80980621284618
-0.3137,-180.5171618627787
-0.3147000000000001,-181.08304638272472
-0.3157,-181.64893090267074
-0.3167000000000001,-182.35628655260325
-0.3177,-183.06364220253573
-0.3187000000000001,-183.77099785246824
-0.3197,-184.47835350240078
-0.3207000000000001,-185.0442380223468
-0.3217,-185.46865141230631
-0.3227000000000001,-186.17600706223882
-0.3237,-187.02483384215788
-0.3247000000000001,-187.59071836210387
-0.3257,-188.01513175206335
-0.3267000000000001,-188.72248740199586
-0.3277,-189.71278531190143
-0.3287000000000001,-190.27866983184742
-0.3297,-190.27866983184742
-0.3307000000000001,-190.27866983184742
-0.3317,-190.84455435179345
-0.3327000000000001,-191.12749661176645
-0.3337,-191.551910001726
-0.3347000000000001,-191.9763233916855
-0.3357,-192.82515017160452
-0.3367000000000001,-193.9569192114965
-0.3377,-194.94721712140205
-0.3387000000000001,-195.51310164134807
-0.3397,-196.2204572912806
-0.3407000000000001,-196.3619284212671
-0.3417,-196.3619284212671
-0.3427000000000001,-196.6448706812401
-0.3437,-197.49369746115914
-0.3447000000000001,-198.20105311109162
-0.3457,-198.76693763103765
-0.3467000000000001,-199.47429328097016
-0.3477,-200.3231200608892
-0.3487000000000001,-201.03047571082172
-0.3497,-201.4548891007812
-0.3507000000000001,-202.16224475071377
-0.3517,-203.29401379060576
-0.3527000000000001,-204.5672539604843
-0.3537,-205.41608074040332
-0.3547000000000001,-205.98196526034934
-0.3557,-206.40637865030885
-0.35670000000000013,-206.68932091028185
-0.3577,-206.83079204026836
-0.35870000000000013,-207.1137343002414
-0.3597,-207.5381476902009
-0.36070000000000013,-208.24550334013338
-0.3617,-209.0943301200524
-0.3626999999999999,-209.94315689997146
-0.3637,-210.93345480987696
-0.3646999999999999,-211.499339329823
-0.3657,-211.782281589796
-0.3666999999999999,-211.9237527197825
-0.3677,-212.065223849769
-0.3686999999999999,-212.065223849769
-0.36970000000000003,-211.782281589796
-0.3706999999999999,-211.9237527197825
-0.37170000000000003,-213.05552175967455
-0.3726999999999999,-214.18729079956654
-0.37370000000000003,-215.17758870947208
-0.3746999999999999,-215.6020020994316
-0.37570000000000003,-216.1678866193776
-0.3766999999999999,-216.4508288793506
-0.37770000000000004,-216.3093577493641
-0.3786999999999999,-216.1678866193776
-0.37970000000000004,-216.1678866193776
-0.3806999999999999,-216.3093577493641
-0.38170000000000004,-216.73377113932364
-0.38269999999999993,-217.58259791924263
-0.38370000000000004,-218.71436695913465
-0.38469999999999993,-219.5631937390537
-0.38570000000000004,-219.7046648690402
-0.38669999999999993,-218.57289582914817
-0.38570000000000004,-215.31905983945856
-0.38469999999999993,-212.34816610974204
-0.38370000000000004,-209.23580125003892
-0.38269999999999993,-206.12343639033585
-0.38170000000000004,-203.71842718056527
-0.3806999999999999,-201.73783136075423
-0.37970000000000004,-199.61576441095667
-0.3786999999999999,-197.21075520118612
-0.37770000000000004,-194.66427486142905
-0.3766999999999999,-192.11779452167198
-0.37570000000000003,-189.71278531190143
-0.3746999999999999,-187.02483384215788
-0.37370000000000003,-183.91246898245475
-0.3726999999999999,-180.94157525273818
-0.37170000000000003,-178.1121526530081
-0.3706999999999999,-175.70714344323756
-0.36970000000000003,-173.44360536345349
-0.3686999999999999,-171.32153841365593
-0.3677,-169.19947146385837
-0.3666999999999999,-167.07740451406085
-0.3657,-164.9553375642633
-0.3646999999999999,-162.5503283544927
-0.3637,-160.00384801473567
-0.3626999999999999,-157.31589654499206
-0.3617,-154.76941620523502
-0.36070000000000013,-152.36440699546444
-0.3597,-150.24234004566688
-0.35870000000000013,-148.12027309586935
-0.3577,-145.9982061460718
-0.35670000000000013,-143.73466806628772
-0.3557,-141.75407224647665
-0.3547000000000001,-139.84421199165885
-0.3537,-137.56652679887617
-0.3527000000000001,-135.09078202411234
-0.3517,-132.7706554923337
-0.3507000000000001,-130.59200009054155
-0.3497,-128.32846201075745
-0.3487000000000001,-125.92345280098691
-0.3477,-123.6174733822069
-0.3467000000000001,-121.56614199740261
-0.3457,-119.72701730757805
-0.3447000000000001,-117.98692240874406
-0.3437,-116.02047370193165
-0.3427000000000001,-114.0115836561233
-0.3417,-112.22904741829338
-0.3407000000000001,-110.57383519745127
-0.3397,-108.83374029861727
-0.3387000000000001,-106.99461560879273
-0.3377,-104.94328422398843
-0.3367000000000001,-103.01927685617197
-0.3357,-101.10941660135417
-0.3347000000000001,-99.14296789454177
-0.3337,-97.17651918772938
-0.3327000000000001,-95.35154161090348
-0.3317,-93.73877072905732
-0.3307000000000001,-92.33820654219093
-0.3297,-90.7254356603448
-0.3287000000000001,-88.80142829252836
-0.3277,-86.80668535971866
-0.3267000000000001,-84.8826779919022
-0.3257,-83.14258309306821
-0.3247000000000001,-81.3458997422396
-0.3237,-79.52092216541372
-0.3227000000000001,-77.7242388145851
-0.3217,-76.11146793273898
-0.3207000000000001,-74.66846240687663
-0.3197,-73.23960399401295
-0.3187000000000001,-71.58439177317086
-0.3177,-69.74526708334632
-0.3167000000000001,-68.0900548625042
-0.3157,-66.56216665864997
-0.3147000000000001,-65.03427845479574
-0.3137,-63.37906623395363
-0.3127000000000001,-61.72385401311155
-0.3117,-60.28084848724921
-0.3107000000000001,-58.880284300382826
-0.3097,-57.45142588751914
-0.3087000000000001,-55.881096344668954
-0.3077,-54.31076680181876
-0.3067000000000001,-52.82531993696047
-0.30569999999999997,-51.509638428085985
-0.3047000000000001,-50.1656626932142
-0.30369999999999997,-48.72265716735186
-0.3027000000000001,-47.19476896349763
-0.30169999999999997,-45.70932209863933
-0.3007000000000001,-44.36534636376755
-0.29969999999999997,-43.04966485489307
-0.2987000000000001,-41.606659329030734
-0.29769999999999996,-40.092918238175145
-0.2967000000000001,-38.777236729300654
-0.29569999999999996,-37.56058501141672
-0.2947000000000001,-36.37222751953009
-0.29369999999999996,-34.98581044566235
-0.29270000000000007,-33.50036358080407
-0.29169999999999996,-32.283711862920136
-0.29070000000000007,-31.23682550102001
-0.28969999999999996,-30.10505646112798
-0.28870000000000007,-28.746933613257543
-0.28769999999999996,-27.303928087395207
-0.28670000000000007,-26.087276369511276
-0.28569999999999995,-25.0828313466071
-0.28470000000000006,-24.035944984706973
-0.28369999999999995,-22.776851927827092
-0.28270000000000006,-21.461170418952605
-0.28169999999999995,-20.371842718056527
-0.28070000000000006,-19.409839034148305
-0.27969999999999995,-18.320511333252224
-0.27870000000000006,-17.103859615368293
-0.27769999999999995,-15.78817810649381
-0.27670000000000006,-14.69885040559773
-0.27569999999999995,-13.741090855589102
-0.27470000000000006,-12.781916594280606
-0.27369999999999994,-11.647318131788847
-0.27270000000000005,-10.42642228000532
-0.27169999999999994,-9.379535918105192
-0.27070000000000005,-8.464217707092514
-0.26969999999999994,-7.5474847847799715
-0.26870000000000005,-6.414301033588076
-0.26769999999999994,-5.235846520800501
