Potential V vs RHE, Current mA cm-2
0.013299999999999867,-0.1330535977523067
0.012299999999999978,-1.3107300193249565
0.011299999999999866,-2.4007650758709675
0.010299999999999976,-3.447651437771094
0.009299999999999864,-4.406825699079589
0.008299999999999974,-5.323558621392133
0.007299999999999862,-6.196435493408861
0.006299999999999972,-7.024041603829907
0.00529999999999986,-7.853062425550818
0.0042999999999999705,-8.55051509638428
0.0032999999999998586,-9.24938247851761
0.0022999999999999687,-9.902979099055257
0.0012999999999998568,-10.557990430892769
0.00029999999999996696,-11.1677310011346
-0.000700000000000145,-11.73503023238048
-0.0017000000000000348,-12.258473413330542
-0.0027000000000001467,-12.781916594280606
-0.0037000000000000366,-13.261503724934855
-0.0047000000000001485,-13.698649516593148
-0.005700000000000038,-14.175407224647667
-0.00670000000000015,-14.57152638860988
-0.00770000000000004,-14.967645552572087
-0.008700000000000152,-15.307176264539699
-0.009700000000000042,-15.660854089505953
-0.010700000000000154,-16.056973253468165
-0.011700000000000044,-16.354062626439823
-0.012700000000000156,-16.665299112410132
-0.013700000000000045,-16.962388485381787
-0.014700000000000157,-17.2736249713521
-0.015700000000000047,-17.542420118326454
-0.01670000000000016,-17.797068152302163
-0.01770000000000005,-18.06586329927652
-0.01870000000000016,-18.27806999425627
-0.01970000000000005,-18.49027668923603
-0.020700000000000163,-18.674189158218486
-0.021700000000000053,-18.88639585319824
-0.022700000000000164,-19.112749661176647
-0.023700000000000054,-19.28251501716045
-0.024700000000000166,-19.452280373144255
-0.025700000000000056,-19.636192842126707
-0.026700000000000168,-19.805958198110513
-0.027700000000000058,-19.93328221509837
-0.02870000000000017,-20.06060623208622
-0.02970000000000006,-20.202077362072725
-0.03070000000000017,-20.286960040064624
-0.03170000000000006,-20.414284057052477
-0.03270000000000017,-20.499166735044383
-0.03370000000000006,-20.626490752032236
-0.034700000000000175,-20.76796188201874
-0.035700000000000065,-20.89528589900659
-0.03670000000000018,-21.022609915994444
-0.03770000000000007,-21.107492593986347
-0.03870000000000018,-21.2065223849769
-0.03970000000000007,-21.248963723972853
-0.04070000000000018,-21.333846401964752
-0.04170000000000007,-21.418729079956652
-0.04270000000000018,-21.503611757948562
-0.04370000000000007,-21.58849443594046
-0.044700000000000184,-21.67337711393236
-0.045700000000000074,-21.772406904922917
-0.046700000000000186,-21.814848243918867
-0.047700000000000076,-21.899730921910766
-0.04870000000000019,-21.94217226090672
-0.04970000000000008,-22.027054938898623
-0.05070000000000019,-22.027054938898623
-0.05170000000000008,-22.027054938898623
-0.05270000000000019,-22.069496277894572
-0.05370000000000008,-22.111937616890522
-0.05470000000000019,-22.15437895588647
-0.05570000000000008,-22.196820294882425
-0.056700000000000195,-22.253408746877028
-0.057700000000000085,-22.295850085872978
-0.058700000000000196,-22.33829142486893
-0.059700000000000086,-22.42317410286083
-0.0607000000000002,-22.46561544185678
-0.06170000000000009,-22.508056780852733
-0.0627000000000002,-22.550498119848687
-0.06370000000000009,-22.550498119848687
-0.0647000000000002,-22.550498119848687
-0.06570000000000009,-22.550498119848687
-0.0667000000000002,-22.550498119848687
-0.0677000000000001,-22.63538079784059
-0.0687000000000002,-22.67782213683654
-0.0697000000000001,-22.72026347583249
-0.07070000000000021,-22.776851927827092
-0.0717000000000001,-22.776851927827092
-0.07270000000000021,-22.776851927827092
-0.0737000000000001,-22.776851927827092
-0.07470000000000021,-22.776851927827092
-0.0757000000000001,-22.819293266823045
-0.07670000000000021,-22.819293266823045
-0.0777000000000001,-22.819293266823045
-0.07870000000000021,-22.861734605818995
-0.0797000000000001,-22.861734605818995
-0.08070000000000022,-22.904175944814945
-0.0817000000000001,-22.946617283810895
-0.08270000000000022,-22.989058622806844
-0.08370000000000011,-23.031499961802798
-0.08470000000000022,-23.031499961802798
-0.08570000000000011,-23.031499961802798
-0.08670000000000022,-23.073941300798747
-0.08770000000000011,-23.073941300798747
-0.08870000000000022,-23.1163826397947
-0.08970000000000011,-23.15882397879065
-0.09070000000000022,-23.15882397879065
-0.09170000000000011,-23.15882397879065
-0.09270000000000023,-23.15882397879065
-0.09370000000000012,-23.2012653177866
-0.09470000000000023,-23.24370665678255
-0.09570000000000012,-23.24370665678255
-0.09670000000000023,-23.24370665678255
-0.09770000000000012,-23.24370665678255
-0.09870000000000023,-23.24370665678255
-0.09970000000000012,-23.24370665678255
-0.10070000000000023,-23.24370665678255
-0.10170000000000012,-23.300295108777156
-0.10270000000000024,-23.300295108777156
-0.10370000000000013,-23.300295108777156
-0.10470000000000024,-23.300295108777156
-0.10570000000000013,-23.300295108777156
-0.10670000000000024,-23.300295108777156
-0.10770000000000013,-23.300295108777156
-0.10870000000000024,-23.300295108777156
-0.10970000000000013,-23.300295108777156
-0.11070000000000024,-23.342736447773106
-0.11170000000000013,-23.342736447773106
-0.11270000000000002,-23.342736447773106
-0.11370000000000013,-23.342736447773106
-0.11470000000000002,-23.300295108777156
-0.11570000000000014,-23.342736447773106
-0.11670000000000003,-23.300295108777156
-0.11770000000000014,-23.342736447773106
-0.11870000000000003,-23.385177786769056
-0.11970000000000014,-23.427619125765005
-0.12070000000000003,-23.427619125765005
-0.12170000000000014,-23.427619125765005
-0.12270000000000003,-23.385177786769056
-0.12370000000000014,-23.385177786769056
-0.12470000000000003,-23.385177786769056
-0.12570000000000014,-23.385177786769056
-0.12670000000000003,-23.427619125765005
-0.12770000000000015,-23.47006046476096
-0.12870000000000004,-23.51250180375691
-0.12970000000000015,-23.51250180375691
-0.13070000000000004,-23.51250180375691
-0.13170000000000015,-23.51250180375691
-0.13270000000000004,-23.55494314275286
-0.13370000000000015,-23.597384481748815
-0.13470000000000004,-23.597384481748815
-0.13570000000000015,-23.597384481748815
-0.13670000000000004,-23.597384481748815
-0.13770000000000016,-23.639825820744765
-0.13870000000000005,-23.682267159740714
-0.13970000000000016,-23.682267159740714
-0.14070000000000005,-23.682267159740714
-0.14170000000000016,-23.682267159740714
-0.14270000000000005,-23.724708498736668
-0.14370000000000016,-23.724708498736668
-0.14470000000000005,-23.724708498736668
-0.14570000000000016,-23.724708498736668
-0.14670000000000005,-23.767149837732617
-0.14770000000000016,-23.823738289727217
-0.14870000000000005,-23.86617962872317
-0.14970000000000017,-23.86617962872317
-0.15070000000000006,-23.908620967719123
-0.15170000000000017,-23.86617962872317
-0.15270000000000006,-23.86617962872317
-0.15370000000000017,-23.908620967719123
-0.15470000000000006,-23.908620967719123
-0.15570000000000017,-23.951062306715073
-0.15670000000000006,-23.951062306715073
-0.15770000000000017,-23.993503645711023
-0.15870000000000006,-23.993503645711023
-0.15970000000000018,-23.993503645711023
-0.16070000000000007,-24.035944984706973
-0.16170000000000018,-24.078386323702922
-0.16270000000000007,-24.120827662698876
-0.16370000000000018,-24.16326900169483
-0.16470000000000007,-24.20571034069078
-0.16570000000000018,-24.16326900169483
-0.16670000000000007,-24.16326900169483
-0.16770000000000018,-24.120827662698876
-0.16870000000000007,-24.20571034069078
-0.16970000000000018,-24.24815167968673
-0.17070000000000007,-24.290593018682678
-0.17170000000000019,-24.34718147067728
-0.17270000000000008,-24.34718147067728
-0.1737000000000002,-24.389622809673234
-0.17470000000000008,-24.432064148669184
-0.1757000000000002,-24.474505487665134
-0.17670000000000008,-24.516946826661083
-0.1777000000000002,-24.516946826661083
-0.17870000000000008,-24.559388165657033
-0.1797000000000002,-24.601829504652986
-0.18070000000000008,-24.601829504652986
-0.1817000000000002,-24.601829504652986
-0.18270000000000008,-24.64427084364894
-0.1837000000000002,-24.686712182644893
-0.1847000000000001,-24.729153521640843
-0.1857000000000002,-24.729153521640843
-0.1867000000000001,-24.771594860636792
-0.1877000000000002,-24.870624651627345
-0.1887000000000001,-24.9130659906233
-0.1897000000000002,-24.997948668615198
-0.1907000000000001,-25.04039000761115
-0.1917000000000001,-25.04039000761115
-0.19269999999999998,-25.0828313466071
-0.1937000000000001,-25.0828313466071
-0.19469999999999998,-25.12527268560305
-0.1957000000000001,-25.210155363594954
-0.19669999999999999,-25.295038041586857
-0.1977000000000001,-25.337479380582806
-0.1987,-25.43650917157336
-0.1997000000000001,-25.478950510569312
-0.2007,-25.521391849565262
-0.2017000000000001,-25.563833188561212
-0.2027,-25.60627452755716
-0.2037000000000001,-25.691157205549064
-0.2047,-25.73359854454502
-0.2057000000000001,-25.77603988354097
-0.2067,-25.81848122253692
-0.2077000000000001,-25.86092256153287
-0.2087,-25.959952352523427
-0.2097000000000001,-26.002393691519377
-0.2107,-26.087276369511276
-0.2117000000000001,-26.17215904750318
-0.2127,-26.21460038649913
-0.2137000000000001,-26.29948306449103
-0.2147,-26.34192440348698
-0.2157000000000001,-26.483395533473487
-0.2167,-26.568278211465387
-0.21770000000000012,-26.61071955046134
-0.2187,-26.69560222845324
-0.21970000000000012,-26.822926245441096
-0.2207,-26.86536758443705
-0.22170000000000012,-26.907808923433
-0.2227,-27.00683871442355
-0.22370000000000012,-27.091721392415455
-0.2247,-27.176604070407354
-0.22570000000000012,-27.261486748399253
-0.2267,-27.34636942639116
-0.22770000000000012,-27.43125210438306
-0.22870000000000001,-27.530281895373616
-0.22970000000000013,-27.572723234369565
-0.23070000000000002,-27.65760591236147
-0.23170000000000013,-27.742488590353368
-0.23270000000000002,-27.827371268345274
-0.23370000000000013,-27.912253946337174
-0.23470000000000002,-28.05372507632368
-0.23570000000000013,-28.13860775431558
-0.23670000000000002,-28.22349043230748
-0.2376999999999999,-28.350814449295335
-0.23870000000000002,-28.478138466283188
-0.2396999999999999,-28.577168257273744
-0.24070000000000003,-28.704492274261593
-0.24169999999999991,-28.789374952253496
-0.24270000000000003,-28.91669896924135
-0.24369999999999992,-29.058170099227848
-0.24470000000000003,-29.18549411621571
-0.24569999999999992,-29.31281813320356
-0.24670000000000003,-29.440142150191413
-0.24769999999999992,-29.581613280177915
-0.24870000000000003,-29.66649595816982
-0.24969999999999992,-29.751378636161718
-0.25070000000000003,-29.878702653149578
-0.2516999999999999,-30.00602667013743
-0.25270000000000004,-30.189939139119886
-0.2536999999999999,-30.317263156107735
-0.25470000000000004,-30.402145834099635
-0.2556999999999999,-30.529469851087494
-0.25670000000000004,-30.670940981073993
-0.25769999999999993,-30.79826499806185
-0.25870000000000004,-30.968030354045652
-0.25969999999999993,-31.095354371033505
-0.26070000000000004,-31.23682550102001
-0.26169999999999993,-31.36414951800786
-0.26270000000000004,-31.49147353499572
-0.26369999999999993,-31.618797551983565
-0.26470000000000005,-31.717827342974125
-0.26569999999999994,-31.887592698957924
-0.26670000000000005,-32.05735805494172
-0.26769999999999994,-32.24127052392419
-0.26870000000000005,-32.45347721890394
-0.26969999999999994,-32.58080123589179
-0.27070000000000005,-32.70812525287965
-0.27169999999999994,-32.892037721862096
-0.27270000000000005,-33.01936173884996
-0.27369999999999994,-33.14668575583781
-0.27470000000000006,-33.330598224820264
-0.27569999999999995,-33.50036358080407
-0.27670000000000006,-33.712570275783825
-0.27769999999999995,-33.93892408376223
-0.27870000000000006,-34.10868943974604
-0.27969999999999995,-34.278454795729836
-0.28070000000000006,-34.462367264712285
-0.28169999999999995,-34.632132620696105
-0.28270000000000006,-34.75945663768395
-0.28369999999999995,-34.94336910666641
-0.28470000000000006,-35.15557580164616
-0.28569999999999995,-35.42437094862052
-0.28670000000000007,-35.594136304604326
-0.28769999999999996,-35.806342999584075
-0.28870000000000007,-35.99025546856653
-0.28969999999999996,-36.20246216354629
-0.29070000000000007,-36.47125731052064
-0.29169999999999996,-36.6834640055004
-0.29270000000000007,-36.95225915247476
-0.29369999999999996,-37.122024508458566
-0.2947000000000001,-37.334231203438314
-0.29569999999999996,-37.51814367242077
-0.2967000000000001,-37.687909028404576
-0.29769999999999996,-37.90011572338433
-0.2987000000000001,-38.16891087035869
-0.29969999999999997,-38.46600024333035
-0.3007000000000001,-38.734795390304704
-0.30169999999999997,-38.98944342428042
-0.3027000000000001,-39.258238571254765
-0.30369999999999997,-39.47044526623452
-0.3047000000000001,-39.739240413208876
-0.30569999999999997,-39.99388844718459
-0.3067000000000001,-40.30512493315489
-0.3077,-40.559772967130606
-0.3087000000000001,-40.87100945310091
-0.3097,-41.139804600075266
-0.3107000000000001,-41.39445263405098
-0.3117,-41.66324778102533
-0.3127000000000001,-41.96033715399699
-0.3137,-42.31401497896325
-0.3147000000000001,-42.653545690930855
-0.3157,-42.96478217690117
-0.3167000000000001,-43.27601866287147
-0.3177,-43.53066669684718
-0.3187000000000001,-43.79946184382153
-0.3197,-44.011668538801295
-0.3207000000000001,-44.3229050247716
-0.3217,-44.704877075735155
-0.3227000000000001,-45.143437578693316
-0.3237,-45.497115403659585
-0.3247000000000001,-45.85079322862584
-0.3257,-46.147882601597495
-0.3267000000000001,-46.41667774857186
-0.3277,-46.713767121543505
-0.3287000000000001,-47.02500360751382
-0.3297,-47.40697565847737
-0.3307000000000001,-47.80309482243959
-0.3317,-48.114331308409895
-0.3327000000000001,-48.36897934238561
-0.3337,-48.72265716735186
-0.3347000000000001,-49.076334992318124
-0.3357,-49.458307043281685
-0.3367000000000001,-49.939308885235796
-0.3377,-50.42031072718991
-0.3387000000000001,-50.81642989115212
-0.3397,-51.17010771611838
-0.3407000000000001,-51.509638428085985
-0.3417,-51.90575759204819
-0.3427000000000001,-52.34431809500636
-0.3437,-52.74043725896857
-0.3447000000000001,-53.079967970936174
-0.3457,-53.433645795902436
-0.3467000000000001,-53.82976495986464
-0.3477,-54.26832546282281
-0.3487000000000001,-54.791768643772876
-0.3497,-55.25862337272834
-0.3507000000000001,-55.65474253669055
-0.3517,-56.008420361656796
-0.3527000000000001,-56.44698086461496
-0.3537,-56.88554136757313
-0.3547000000000001,-57.26751341853669
-0.3557,-57.7485152604908
-0.35670000000000013,-58.18707576344896
-0.3577,-58.583194927411164
-0.35870000000000013,-58.92272563937878
-0.3597,-59.36128614233694
-0.36070000000000013,-59.842287984291055
-0.3617,-60.40817250423707
-0.3626999999999999,-60.889174346191176
-0.3637,-61.37017618814529
-0.3646999999999999,-61.80873669110345
-0.3657,-62.28973853305756
-0.3666999999999999,-62.77074037501168
-0.3677,-63.29418355596174
-0.3686999999999999,-63.81762673691181
-0.36970000000000003,-64.38351125685783
-0.3706999999999999,-64.94939577680383
-0.37170000000000003,-65.4728389577539
-0.3726999999999999,-66.03872347769992
-0.37370000000000003,-66.56216665864997
-0.3746999999999999,-67.128051178596
-0.37570000000000003,-67.65149435954605
-0.3766999999999999,-68.17493754049613
-0.37770000000000004,-68.65593938245023
-0.3786999999999999,-69.1793825634003
-0.37970000000000004,-69.70282574435035
-0.3806999999999999,-70.22626892530042
-0.38170000000000004,-70.79215344524643
-0.38269999999999993,-71.35803796519245
-0.38370000000000004,-71.92392248513846
-0.38469999999999993,-72.48980700508447
-0.38570000000000004,-73.0556915250305
-0.38669999999999993,-72.80104349105478
-0.38570000000000004,-70.96191880123024
-0.38469999999999993,-69.26426524139221
-0.38370000000000004,-67.65149435954605
-0.38269999999999993,-66.08116481669586
-0.38170000000000004,-64.72304196882543
-0.3806999999999999,-63.421507572949594
-0.37970000000000004,-62.20485585506566
-0.3786999999999999,-61.07308681517363
-0.37770000000000004,-59.884729323287
-0.3766999999999999,-58.75296028339497
-0.37570000000000003,-57.66363258249889
-0.3746999999999999,-56.489422203610914
-0.37370000000000003,-55.442535841710786
-0.3726999999999999,-54.43809081880661
-0.37170000000000003,-53.433645795902436
-0.3706999999999999,-52.471642111994214
-0.36970000000000003,-51.509638428085985
-0.3686999999999999,-50.60422319617236
-0.3677,-49.72710219025603
-0.3666999999999999,-48.84998118433972
-0.3657,-48.029448630417996
-0.3646999999999999,-47.15232762450167
-0.3637,-46.27520661858535
-0.3626999999999999,-45.412232725667685
-0.3617,-44.619994397743255
-0.36070000000000013,-43.84190318281749
-0.3597,-43.04966485489307
-0.35870000000000013,-42.229132300971344
-0.3577,-41.47933531204288
-0.35670000000000013,-40.701244097117105
-0.3557,-39.90900576919269
-0.3547000000000001,-39.130914554266916
-0.3537,-38.38111756533845
-0.3527000000000001,-37.687909028404576
-0.3517,-36.95225915247476
-0.3507000000000001,-36.20246216354629
-0.3497,-35.46681228761647
-0.3487000000000001,-34.67457395969205
-0.3477,-33.98136542275818
-0.3467000000000001,-33.288156885824314
-0.3457,-32.53835989689585
-0.3447000000000001,-31.887592698957924
-0.3437,-31.19438416202406
-0.3427000000000001,-30.487028512091538
-0.3417,-29.793819975157668
-0.3407000000000001,-29.100611438223805
-0.3397,-28.393255788291288
-0.3387000000000001,-27.742488590353368
-0.3377,-27.091721392415455
-0.3367000000000001,-26.440954194477534
-0.3357,-25.81848122253692
-0.3347000000000001,-25.167714024599
-0.3337,-24.516946826661083
-0.3327000000000001,-23.86617962872317
-0.3317,-23.2012653177866
-0.3307000000000001,-22.592939458844636
-0.3297,-21.98461359990267
-0.3287000000000001,-21.418729079956652
-0.3277,-20.810403221014692
-0.3267000000000001,-20.202077362072725
-0.3257,-19.579604390132108
-0.3247000000000001,-18.97127853119014
-0.3237,-18.362952672248177
-0.3227000000000001,-17.75462681330621
-0.3217,-17.231183632356142
-0.3207000000000001,-16.665299112410132
-0.3197,-16.141855931460068
-0.3187000000000001,-15.575971411514052
-0.3177,-15.01008689156804
-0.3167000000000001,-14.486643710617974
-0.3157,-13.872659006476551
-0.3147000000000001,-13.349215825526485
-0.3137,-12.781916594280606
-0.3127000000000001,-12.214617363034726
-0.3117,-11.691174182084664
-0.3107000000000001,-11.1677310011346
-0.3097,-10.644287820184536
-0.3087000000000001,-10.120844639234473
-0.3077,-9.59740145828441
-0.3067000000000001,-9.073958277334345
-0.30569999999999997,-8.594371146680096
-0.3047000000000001,-8.070927965730034
-0.30369999999999997,-7.591340835075788
-0.3027000000000001,-7.067897654125724
-0.30169999999999997,-6.54445447317566
-0.3007000000000001,-6.064867342521412
-0.29969999999999997,-5.629136262162981
-0.2987000000000001,-5.149549131508733
-0.29769999999999996,-4.626105950558669
-0.2967000000000001,-4.1889601589003735
-0.29569999999999996,-3.7093730282461257
-0.2947000000000001,-3.273641947887695
-0.29369999999999996,-2.794054817233447
-0.29270000000000007,-2.3569090255751513
-0.29169999999999996,-1.8773218949209036
-0.29070000000000007,-1.4415908145624723
-0.28969999999999996,-1.0054353208140816
-0.28870000000000007,-0.5255652478998613
-0.28769999999999996,-0.08943804837746762
-0.28670000000000007,0.3467457395969205
-0.28569999999999995,0.7393281253094681
-0.28470000000000006,1.175483619057859
-0.28369999999999995,1.5675001202504606
-0.28270000000000006,2.004645911908757
-0.28169999999999995,2.396520941971372
-0.28070000000000006,2.7898106833338523
-0.27969999999999995,3.225541763692284
-0.27870000000000006,3.6174167937548987
-0.27769999999999995,4.01070653511738
-0.27670000000000006,4.402581565179994
-0.27569999999999995,4.839727356838291
-0.27470000000000006,5.18774633660509
-0.27369999999999994,5.581036077967569
-0.27270000000000005,5.929055057734368
-0.27169999999999994,6.278488748801033
-0.27070000000000005,6.671778490163514
-0.26969999999999994,7.019797469930312
-0.26870000000000005,7.413087211292793
-0.26769999999999994,7.761106191059591
