Sept. 14, 2024   06:30:31
Cyclic Voltammetry
File: c:/users/guazh/data/20240903_batch_252_500/2024-09-03-exp349\exp349-2024-09-14t06_24_17-h2koh\exp349_cv_sr_200mvs_efin_-1400mv.bin
Data Source:  Experiment
Instrument Model:  CHI760E
Header: CV ran at 200 mVs
Note: 

Init E (V) = -1
High E (V) = -1
Low E (V) = -1.4
Final E (V) = -1
Init P/N = N
Scan Rate (V/s) = 0.2
Segment = 3
Sample Interval (V) = 0.001
Quiet Time (sec) = 2
Sensitivity (A/V) = 0.01
Comp R (ohm) = 2.2

Results:

Channel 1:
Segment 1:

Segment 2:

Segment 3:

Potential/V, Current/A

-1.000, 8.364e-6
-1.001, 8.072e-5
-1.002, 1.394e-4
-1.003, 1.903e-4
-1.004, 2.321e-4
-1.005, 2.651e-4
-1.006, 2.955e-4
-1.007, 3.216e-4
-1.008, 3.419e-4
-1.009, 3.600e-4
-1.010, 3.771e-4
-1.011, 3.902e-4
-1.012, 4.008e-4
-1.013, 4.130e-4
-1.014, 4.218e-4
-1.015, 4.295e-4
-1.016, 4.373e-4
-1.017, 4.446e-4
-1.018, 4.497e-4
-1.019, 4.544e-4
-1.020, 4.606e-4
-1.021, 4.633e-4
-1.022, 4.665e-4
-1.023, 4.716e-4
-1.024, 4.751e-4
-1.025, 4.773e-4
-1.026, 4.800e-4
-1.027, 4.828e-4
-1.028, 4.833e-4
-1.029, 4.854e-4
-1.030, 4.885e-4
-1.031, 4.899e-4
-1.032, 4.905e-4
-1.033, 4.937e-4
-1.034, 4.951e-4
-1.035, 4.950e-4
-1.036, 4.974e-4
-1.037, 4.993e-4
-1.038, 4.996e-4
-1.039, 5.007e-4
-1.040, 5.032e-4
-1.041, 5.038e-4
-1.042, 5.050e-4
-1.043, 5.065e-4
-1.044, 5.073e-4
-1.045, 5.070e-4
-1.046, 5.087e-4
-1.047, 5.099e-4
-1.048, 5.081e-4
-1.049, 5.090e-4
-1.050, 5.127e-4
-1.051, 5.125e-4
-1.052, 5.130e-4
-1.053, 5.148e-4
-1.054, 5.154e-4
-1.055, 5.134e-4
-1.056, 5.151e-4
-1.057, 5.159e-4
-1.058, 5.139e-4
-1.059, 5.141e-4
-1.060, 5.160e-4
-1.061, 5.153e-4
-1.062, 5.154e-4
-1.063, 5.171e-4
-1.064, 5.166e-4
-1.065, 5.160e-4
-1.066, 5.173e-4
-1.067, 5.183e-4
-1.068, 5.175e-4
-1.069, 5.163e-4
-1.070, 5.172e-4
-1.071, 5.175e-4
-1.072, 5.170e-4
-1.073, 5.194e-4
-1.074, 5.196e-4
-1.075, 5.199e-4
-1.076, 5.216e-4
-1.077, 5.224e-4
-1.078, 5.222e-4
-1.079, 5.218e-4
-1.080, 5.231e-4
-1.081, 5.224e-4
-1.082, 5.224e-4
-1.083, 5.238e-4
-1.084, 5.244e-4
-1.085, 5.232e-4
-1.086, 5.240e-4
-1.087, 5.252e-4
-1.088, 5.246e-4
-1.089, 5.253e-4
-1.090, 5.264e-4
-1.091, 5.261e-4
-1.092, 5.246e-4
-1.093, 5.258e-4
-1.094, 5.261e-4
-1.095, 5.246e-4
-1.096, 5.256e-4
-1.097, 5.268e-4
-1.098, 5.249e-4
-1.099, 5.268e-4
-1.100, 5.295e-4
-1.101, 5.279e-4
-1.102, 5.275e-4
-1.103, 5.301e-4
-1.104, 5.309e-4
-1.105, 5.292e-4
-1.106, 5.294e-4
-1.107, 5.296e-4
-1.108, 5.297e-4
-1.109, 5.298e-4
-1.110, 5.329e-4
-1.111, 5.311e-4
-1.112, 5.298e-4
-1.113, 5.312e-4
-1.114, 5.311e-4
-1.115, 5.294e-4
-1.116, 5.314e-4
-1.117, 5.332e-4
-1.118, 5.323e-4
-1.119, 5.320e-4
-1.120, 5.340e-4
-1.121, 5.342e-4
-1.122, 5.347e-4
-1.123, 5.361e-4
-1.124, 5.357e-4
-1.125, 5.368e-4
-1.126, 5.394e-4
-1.127, 5.423e-4
-1.128, 5.417e-4
-1.129, 5.434e-4
-1.130, 5.447e-4
-1.131, 5.449e-4
-1.132, 5.438e-4
-1.133, 5.456e-4
-1.134, 5.449e-4
-1.135, 5.437e-4
-1.136, 5.459e-4
-1.137, 5.462e-4
-1.138, 5.449e-4
-1.139, 5.464e-4
-1.140, 5.483e-4
-1.141, 5.489e-4
-1.142, 5.484e-4
-1.143, 5.493e-4
-1.144, 5.498e-4
-1.145, 5.496e-4
-1.146, 5.496e-4
-1.147, 5.506e-4
-1.148, 5.500e-4
-1.149, 5.531e-4
-1.150, 5.534e-4
-1.151, 5.537e-4
-1.152, 5.543e-4
-1.153, 5.576e-4
-1.154, 5.571e-4
-1.155, 5.597e-4
-1.156, 5.634e-4
-1.157, 5.632e-4
-1.158, 5.618e-4
-1.159, 5.615e-4
-1.160, 5.628e-4
-1.161, 5.625e-4
-1.162, 5.640e-4
-1.163, 5.676e-4
-1.164, 5.695e-4
-1.165, 5.688e-4
-1.166, 5.710e-4
-1.167, 5.731e-4
-1.168, 5.737e-4
-1.169, 5.751e-4
-1.170, 5.785e-4
-1.171, 5.789e-4
-1.172, 5.797e-4
-1.173, 5.833e-4
-1.174, 5.860e-4
-1.175, 5.880e-4
-1.176, 5.906e-4
-1.177, 5.945e-4
-1.178, 5.952e-4
-1.179, 5.970e-4
-1.180, 5.987e-4
-1.181, 5.990e-4
-1.182, 6.006e-4
-1.183, 6.028e-4
-1.184, 6.053e-4
-1.185, 6.063e-4
-1.186, 6.083e-4
-1.187, 6.117e-4
-1.188, 6.140e-4
-1.189, 6.162e-4
-1.190, 6.189e-4
-1.191, 6.202e-4
-1.192, 6.221e-4
-1.193, 6.258e-4
-1.194, 6.278e-4
-1.195, 6.299e-4
-1.196, 6.316e-4
-1.197, 6.361e-4
-1.198, 6.359e-4
-1.199, 6.386e-4
-1.200, 6.420e-4
-1.201, 6.448e-4
-1.202, 6.465e-4
-1.203, 6.507e-4
-1.204, 6.556e-4
-1.205, 6.571e-4
-1.206, 6.616e-4
-1.207, 6.655e-4
-1.208, 6.689e-4
-1.209, 6.734e-4
-1.210, 6.771e-4
-1.211, 6.796e-4
-1.212, 6.834e-4
-1.213, 6.877e-4
-1.214, 6.918e-4
-1.215, 6.950e-4
-1.216, 6.995e-4
-1.217, 7.049e-4
-1.218, 7.079e-4
-1.219, 7.121e-4
-1.220, 7.196e-4
-1.221, 7.230e-4
-1.222, 7.288e-4
-1.223, 7.347e-4
-1.224, 7.397e-4
-1.225, 7.425e-4
-1.226, 7.488e-4
-1.227, 7.530e-4
-1.228, 7.578e-4
-1.229, 7.656e-4
-1.230, 7.699e-4
-1.231, 7.751e-4
-1.232, 7.788e-4
-1.233, 7.841e-4
-1.234, 7.903e-4
-1.235, 7.962e-4
-1.236, 8.021e-4
-1.237, 8.078e-4
-1.238, 8.125e-4
-1.239, 8.197e-4
-1.240, 8.255e-4
-1.241, 8.323e-4
-1.242, 8.407e-4
-1.243, 8.457e-4
-1.244, 8.529e-4
-1.245, 8.561e-4
-1.246, 8.639e-4
-1.247, 8.705e-4
-1.248, 8.786e-4
-1.249, 8.852e-4
-1.250, 8.932e-4
-1.251, 8.988e-4
-1.252, 9.073e-4
-1.253, 9.143e-4
-1.254, 9.217e-4
-1.255, 9.294e-4
-1.256, 9.386e-4
-1.257, 9.477e-4
-1.258, 9.544e-4
-1.259, 9.643e-4
-1.260, 9.756e-4
-1.261, 9.837e-4
-1.262, 9.931e-4
-1.263, 1.005e-3
-1.264, 1.012e-3
-1.265, 1.022e-3
-1.266, 1.033e-3
-1.267, 1.045e-3
-1.268, 1.055e-3
-1.269, 1.066e-3
-1.270, 1.079e-3
-1.271, 1.090e-3
-1.272, 1.101e-3
-1.273, 1.115e-3
-1.274, 1.127e-3
-1.275, 1.138e-3
-1.276, 1.152e-3
-1.277, 1.162e-3
-1.278, 1.174e-3
-1.279, 1.186e-3
-1.280, 1.200e-3
-1.281, 1.213e-3
-1.282, 1.224e-3
-1.283, 1.240e-3
-1.284, 1.255e-3
-1.285, 1.265e-3
-1.286, 1.282e-3
-1.287, 1.296e-3
-1.288, 1.305e-3
-1.289, 1.323e-3
-1.290, 1.337e-3
-1.291, 1.348e-3
-1.292, 1.367e-3
-1.293, 1.382e-3
-1.294, 1.399e-3
-1.295, 1.415e-3
-1.296, 1.431e-3
-1.297, 1.446e-3
-1.298, 1.465e-3
-1.299, 1.484e-3
-1.300, 1.502e-3
-1.301, 1.521e-3
-1.302, 1.543e-3
-1.303, 1.561e-3
-1.304, 1.581e-3
-1.305, 1.602e-3
-1.306, 1.623e-3
-1.307, 1.641e-3
-1.308, 1.662e-3
-1.309, 1.681e-3
-1.310, 1.704e-3
-1.311, 1.722e-3
-1.312, 1.741e-3
-1.313, 1.765e-3
-1.314, 1.790e-3
-1.315, 1.812e-3
-1.316, 1.837e-3
-1.317, 1.859e-3
-1.318, 1.883e-3
-1.319, 1.907e-3
-1.320, 1.933e-3
-1.321, 1.955e-3
-1.322, 1.981e-3
-1.323, 2.008e-3
-1.324, 2.034e-3
-1.325, 2.057e-3
-1.326, 2.083e-3
-1.327, 2.108e-3
-1.328, 2.133e-3
-1.329, 2.160e-3
-1.330, 2.186e-3
-1.331, 2.212e-3
-1.332, 2.238e-3
-1.333, 2.265e-3
-1.334, 2.295e-3
-1.335, 2.321e-3
-1.336, 2.353e-3
-1.337, 2.385e-3
-1.338, 2.413e-3
-1.339, 2.447e-3
-1.340, 2.476e-3
-1.341, 2.507e-3
-1.342, 2.537e-3
-1.343, 2.572e-3
-1.344, 2.600e-3
-1.345, 2.633e-3
-1.346, 2.662e-3
-1.347, 2.694e-3
-1.348, 2.724e-3
-1.349, 2.760e-3
-1.350, 2.791e-3
-1.351, 2.825e-3
-1.352, 2.855e-3
-1.353, 2.891e-3
-1.354, 2.924e-3
-1.355, 2.958e-3
-1.356, 2.990e-3
-1.357, 3.027e-3
-1.358, 3.058e-3
-1.359, 3.094e-3
-1.360, 3.129e-3
-1.361, 3.162e-3
-1.362, 3.197e-3
-1.363, 3.240e-3
-1.364, 3.276e-3
-1.365, 3.313e-3
-1.366, 3.353e-3
-1.367, 3.392e-3
-1.368, 3.431e-3
-1.369, 3.467e-3
-1.370, 3.508e-3
-1.371, 3.541e-3
-1.372, 3.582e-3
-1.373, 3.628e-3
-1.374, 3.674e-3
-1.375, 3.710e-3
-1.376, 3.748e-3
-1.377, 3.788e-3
-1.378, 3.835e-3
-1.379, 3.867e-3
-1.380, 3.925e-3
-1.381, 3.957e-3
-1.382, 3.997e-3
-1.383, 4.047e-3
-1.384, 4.096e-3
-1.385, 4.120e-3
-1.386, 4.177e-3
-1.387, 4.214e-3
-1.388, 4.249e-3
-1.389, 4.283e-3
-1.390, 4.331e-3
-1.391, 4.363e-3
-1.392, 4.407e-3
-1.393, 4.447e-3
-1.394, 4.494e-3
-1.395, 4.536e-3
-1.396, 4.572e-3
-1.397, 4.611e-3
-1.398, 4.651e-3
-1.399, 4.701e-3
-1.400, 4.673e-3
-1.399, 4.571e-3
-1.398, 4.488e-3
-1.397, 4.412e-3
-1.396, 4.346e-3
-1.395, 4.279e-3
-1.394, 4.221e-3
-1.393, 4.171e-3
-1.392, 4.115e-3
-1.391, 4.069e-3
-1.390, 4.017e-3
-1.389, 3.969e-3
-1.388, 3.914e-3
-1.387, 3.866e-3
-1.386, 3.806e-3
-1.385, 3.759e-3
-1.384, 3.705e-3
-1.383, 3.656e-3
-1.382, 3.612e-3
-1.381, 3.559e-3
-1.380, 3.516e-3
-1.379, 3.469e-3
-1.378, 3.419e-3
-1.377, 3.376e-3
-1.376, 3.324e-3
-1.375, 3.269e-3
-1.374, 3.221e-3
-1.373, 3.166e-3
-1.372, 3.129e-3
-1.371, 3.088e-3
-1.370, 3.034e-3
-1.369, 2.985e-3
-1.368, 2.939e-3
-1.367, 2.891e-3
-1.366, 2.849e-3
-1.365, 2.811e-3
-1.364, 2.768e-3
-1.363, 2.724e-3
-1.362, 2.680e-3
-1.361, 2.639e-3
-1.360, 2.597e-3
-1.359, 2.551e-3
-1.358, 2.507e-3
-1.357, 2.465e-3
-1.356, 2.421e-3
-1.355, 2.378e-3
-1.354, 2.343e-3
-1.353, 2.308e-3
-1.352, 2.266e-3
-1.351, 2.222e-3
-1.350, 2.185e-3
-1.349, 2.145e-3
-1.348, 2.109e-3
-1.347, 2.071e-3
-1.346, 2.034e-3
-1.345, 1.998e-3
-1.344, 1.964e-3
-1.343, 1.929e-3
-1.342, 1.892e-3
-1.341, 1.857e-3
-1.340, 1.820e-3
-1.339, 1.786e-3
-1.338, 1.746e-3
-1.337, 1.713e-3
-1.336, 1.676e-3
-1.335, 1.638e-3
-1.334, 1.606e-3
-1.333, 1.571e-3
-1.332, 1.534e-3
-1.331, 1.498e-3
-1.330, 1.464e-3
-1.329, 1.429e-3
-1.328, 1.396e-3
-1.327, 1.363e-3
-1.326, 1.328e-3
-1.325, 1.296e-3
-1.324, 1.264e-3
-1.323, 1.237e-3
-1.322, 1.206e-3
-1.321, 1.179e-3
-1.320, 1.148e-3
-1.319, 1.117e-3
-1.318, 1.089e-3
-1.317, 1.059e-3
-1.316, 1.024e-3
-1.315, 9.924e-4
-1.314, 9.634e-4
-1.313, 9.339e-4
-1.312, 9.015e-4
-1.311, 8.755e-4
-1.310, 8.461e-4
-1.309, 8.161e-4
-1.308, 7.889e-4
-1.307, 7.637e-4
-1.306, 7.376e-4
-1.305, 7.104e-4
-1.304, 6.855e-4
-1.303, 6.611e-4
-1.302, 6.342e-4
-1.301, 6.092e-4
-1.300, 5.851e-4
-1.299, 5.601e-4
-1.298, 5.349e-4
-1.297, 5.113e-4
-1.296, 4.876e-4
-1.295, 4.627e-4
-1.294, 4.403e-4
-1.293, 4.173e-4
-1.292, 3.932e-4
-1.291, 3.711e-4
-1.290, 3.499e-4
-1.289, 3.266e-4
-1.288, 3.048e-4
-1.287, 2.839e-4
-1.286, 2.619e-4
-1.285, 2.401e-4
-1.284, 2.201e-4
-1.283, 2.000e-4
-1.282, 1.788e-4
-1.281, 1.592e-4
-1.280, 1.400e-4
-1.279, 1.200e-4
-1.278, 1.001e-4
-1.277, 8.299e-5
-1.276, 6.356e-5
-1.275, 4.488e-5
-1.274, 2.757e-5
-1.273, 9.627e-6
-1.272, -8.704e-6
-1.271, -2.586e-5
-1.270, -4.168e-5
-1.269, -5.879e-5
-1.268, -7.598e-5
-1.267, -9.086e-5
-1.266, -1.076e-4
-1.265, -1.239e-4
-1.264, -1.383e-4
-1.263, -1.529e-4
-1.262, -1.687e-4
-1.261, -1.819e-4
-1.260, -1.958e-4
-1.259, -2.104e-4
-1.258, -2.245e-4
-1.257, -2.371e-4
-1.256, -2.496e-4
-1.255, -2.631e-4
-1.254, -2.753e-4
-1.253, -2.865e-4
-1.252, -3.000e-4
-1.251, -3.109e-4
-1.250, -3.214e-4
-1.249, -3.333e-4
-1.248, -3.446e-4
-1.247, -3.543e-4
-1.246, -3.657e-4
-1.245, -3.758e-4
-1.244, -3.848e-4
-1.243, -3.946e-4
-1.242, -4.051e-4
-1.241, -4.142e-4
-1.240, -4.229e-4
-1.239, -4.324e-4
-1.238, -4.421e-4
-1.237, -4.497e-4
-1.236, -4.598e-4
-1.235, -4.693e-4
-1.234, -4.762e-4
-1.233, -4.853e-4
-1.232, -4.936e-4
-1.231, -5.013e-4
-1.230, -5.063e-4
-1.229, -5.163e-4
-1.228, -5.232e-4
-1.227, -5.280e-4
-1.226, -5.349e-4
-1.225, -5.409e-4
-1.224, -5.463e-4
-1.223, -5.519e-4
-1.222, -5.591e-4
-1.221, -5.644e-4
-1.220, -5.682e-4
-1.219, -5.746e-4
-1.218, -5.801e-4
-1.217, -5.841e-4
-1.216, -5.893e-4
-1.215, -5.954e-4
-1.214, -5.995e-4
-1.213, -6.030e-4
-1.212, -6.080e-4
-1.211, -6.110e-4
-1.210, -6.138e-4
-1.209, -6.198e-4
-1.208, -6.243e-4
-1.207, -6.282e-4
-1.206, -6.324e-4
-1.205, -6.379e-4
-1.204, -6.409e-4
-1.203, -6.444e-4
-1.202, -6.489e-4
-1.201, -6.530e-4
-1.200, -6.538e-4
-1.199, -6.580e-4
-1.198, -6.623e-4
-1.197, -6.645e-4
-1.196, -6.678e-4
-1.195, -6.718e-4
-1.194, -6.743e-4
-1.193, -6.777e-4
-1.192, -6.827e-4
-1.191, -6.859e-4
-1.190, -6.876e-4
-1.189, -6.916e-4
-1.188, -6.950e-4
-1.187, -6.957e-4
-1.186, -7.001e-4
-1.185, -7.044e-4
-1.184, -7.056e-4
-1.183, -7.079e-4
-1.182, -7.126e-4
-1.181, -7.146e-4
-1.180, -7.171e-4
-1.179, -7.206e-4
-1.178, -7.246e-4
-1.177, -7.248e-4
-1.176, -7.289e-4
-1.175, -7.313e-4
-1.174, -7.327e-4
-1.173, -7.325e-4
-1.172, -7.388e-4
-1.171, -7.395e-4
-1.170, -7.404e-4
-1.169, -7.436e-4
-1.168, -7.476e-4
-1.167, -7.478e-4
-1.166, -7.495e-4
-1.165, -7.517e-4
-1.164, -7.534e-4
-1.163, -7.545e-4
-1.162, -7.571e-4
-1.161, -7.595e-4
-1.160, -7.609e-4
-1.159, -7.641e-4
-1.158, -7.664e-4
-1.157, -7.672e-4
-1.156, -7.703e-4
-1.155, -7.718e-4
-1.154, -7.726e-4
-1.153, -7.756e-4
-1.152, -7.790e-4
-1.151, -7.788e-4
-1.150, -7.803e-4
-1.149, -7.829e-4
-1.148, -7.859e-4
-1.147, -7.872e-4
-1.146, -7.910e-4
-1.145, -7.937e-4
-1.144, -7.954e-4
-1.143, -7.962e-4
-1.142, -7.986e-4
-1.141, -7.994e-4
-1.140, -7.994e-4
-1.139, -8.007e-4
-1.138, -8.014e-4
-1.137, -7.998e-4
-1.136, -8.010e-4
-1.135, -8.022e-4
-1.134, -8.007e-4
-1.133, -8.001e-4
-1.132, -8.019e-4
-1.131, -8.014e-4
-1.130, -8.002e-4
-1.129, -8.005e-4
-1.128, -8.005e-4
-1.127, -7.987e-4
-1.126, -7.980e-4
-1.125, -7.978e-4
-1.124, -7.957e-4
-1.123, -7.939e-4
-1.122, -7.953e-4
-1.121, -7.939e-4
-1.120, -7.920e-4
-1.119, -7.942e-4
-1.118, -7.934e-4
-1.117, -7.910e-4
-1.116, -7.910e-4
-1.115, -7.901e-4
-1.114, -7.890e-4
-1.113, -7.878e-4
-1.112, -7.858e-4
-1.111, -7.850e-4
-1.110, -7.820e-4
-1.109, -7.813e-4
-1.108, -7.806e-4
-1.107, -7.772e-4
-1.106, -7.767e-4
-1.105, -7.766e-4
-1.104, -7.720e-4
-1.103, -7.718e-4
-1.102, -7.712e-4
-1.101, -7.694e-4
-1.100, -7.674e-4
-1.099, -7.657e-4
-1.098, -7.644e-4
-1.097, -7.603e-4
-1.096, -7.575e-4
-1.095, -7.561e-4
-1.094, -7.544e-4
-1.093, -7.533e-4
-1.092, -7.531e-4
-1.091, -7.520e-4
-1.090, -7.500e-4
-1.089, -7.500e-4
-1.088, -7.483e-4
-1.087, -7.458e-4
-1.086, -7.447e-4
-1.085, -7.443e-4
-1.084, -7.416e-4
-1.083, -7.397e-4
-1.082, -7.388e-4
-1.081, -7.384e-4
-1.080, -7.356e-4
-1.079, -7.365e-4
-1.078, -7.364e-4
-1.077, -7.342e-4
-1.076, -7.347e-4
-1.075, -7.368e-4
-1.074, -7.346e-4
-1.073, -7.340e-4
-1.072, -7.335e-4
-1.071, -7.321e-4
-1.070, -7.307e-4
-1.069, -7.312e-4
-1.068, -7.305e-4
-1.067, -7.296e-4
-1.066, -7.288e-4
-1.065, -7.280e-4
-1.064, -7.273e-4
-1.063, -7.263e-4
-1.062, -7.275e-4
-1.061, -7.272e-4
-1.060, -7.249e-4
-1.059, -7.260e-4
-1.058, -7.263e-4
-1.057, -7.246e-4
-1.056, -7.254e-4
-1.055, -7.246e-4
-1.054, -7.241e-4
-1.053, -7.250e-4
-1.052, -7.237e-4
-1.051, -7.233e-4
-1.050, -7.212e-4
-1.049, -7.255e-4
-1.048, -7.249e-4
-1.047, -7.232e-4
-1.046, -7.247e-4
-1.045, -7.238e-4
-1.044, -7.227e-4
-1.043, -7.226e-4
-1.042, -7.247e-4
-1.041, -7.247e-4
-1.040, -7.242e-4
-1.039, -7.251e-4
-1.038, -7.260e-4
-1.037, -7.247e-4
-1.036, -7.260e-4
-1.035, -7.288e-4
-1.034, -7.274e-4
-1.033, -7.293e-4
-1.032, -7.305e-4
-1.031, -7.317e-4
-1.030, -7.329e-4
-1.029, -7.352e-4
-1.028, -7.379e-4
-1.027, -7.391e-4
-1.026, -7.409e-4
-1.025, -7.436e-4
-1.024, -7.433e-4
-1.023, -7.446e-4
-1.022, -7.461e-4
-1.021, -7.468e-4
-1.020, -7.464e-4
-1.019, -7.493e-4
-1.018, -7.487e-4
-1.017, -7.518e-4
-1.016, -7.559e-4
-1.015, -7.591e-4
-1.014, -7.613e-4
-1.013, -7.610e-4
-1.012, -7.648e-4
-1.011, -7.661e-4
-1.010, -7.666e-4
-1.009, -7.697e-4
-1.008, -7.697e-4
-1.007, -7.703e-4
-1.006, -7.728e-4
-1.005, -7.739e-4
-1.004, -7.743e-4
-1.003, -7.755e-4
-1.002, -7.771e-4
-1.001, -7.804e-4
