Potential V vs RHE, Current mA cm-2
0.013299999999999867,-0.1330535977523067
0.012299999999999978,-1.3543031273607997
0.011299999999999866,-2.4446211261667834
0.010299999999999976,-3.4915074880669104
0.009299999999999864,-4.538393849967037
0.008299999999999974,-5.497568111275533
0.007299999999999862,-6.458157083883892
0.006299999999999972,-7.329619244600755
0.00529999999999986,-8.202496116617484
0.0042999999999999705,-8.987660888042578
0.0032999999999998586,-9.81668170976349
0.0022999999999999687,-10.514134380596953
0.0012999999999998568,-11.255443101726232
0.00029999999999996696,-11.909039722263879
-0.000700000000000145,-12.607907104397206
-0.0017000000000000348,-13.261503724934855
-0.0027000000000001467,-13.828802956180734
-0.0037000000000000366,-14.444202371622024
-0.0047000000000001485,-15.01008689156804
-0.005700000000000038,-15.533530072518102
-0.00670000000000015,-16.056973253468165
-0.00770000000000004,-16.53797509542228
-0.008700000000000152,-17.018976937376394
-0.009700000000000042,-17.4433903273359
-0.010700000000000154,-17.924392169290012
-0.011700000000000044,-18.362952672248177
-0.012700000000000156,-18.759071836210385
-0.013700000000000045,-19.197632339168546
-0.014700000000000157,-19.537163051136158
-0.015700000000000047,-19.890840876102416
-0.01670000000000016,-20.202077362072725
-0.01770000000000005,-20.541608074040333
-0.01870000000000016,-20.85284456001064
-0.01970000000000005,-21.2065223849769
-0.020700000000000163,-21.503611757948562
-0.021700000000000053,-21.814848243918867
-0.022700000000000164,-22.069496277894572
-0.023700000000000054,-22.33829142486893
-0.024700000000000166,-22.592939458844636
-0.025700000000000056,-22.861734605818995
-0.026700000000000168,-23.1163826397947
-0.027700000000000058,-23.385177786769056
-0.02870000000000017,-23.597384481748815
-0.02970000000000006,-23.823738289727217
-0.03070000000000017,-24.035944984706973
-0.03170000000000006,-24.24815167968673
-0.03270000000000017,-24.432064148669184
-0.03370000000000006,-24.601829504652986
-0.034700000000000175,-24.771594860636792
-0.035700000000000065,-24.95550732961925
-0.03670000000000018,-25.12527268560305
-0.03770000000000007,-25.295038041586857
-0.03870000000000018,-25.43650917157336
-0.03970000000000007,-25.563833188561212
-0.04070000000000018,-25.73359854454502
-0.04170000000000007,-25.86092256153287
-0.04270000000000018,-26.002393691519377
-0.04370000000000007,-26.129717708507226
-0.044700000000000184,-26.257041725495082
-0.045700000000000074,-26.38436574248293
-0.046700000000000186,-26.525836872469437
-0.047700000000000076,-26.61071955046134
-0.04870000000000019,-26.69560222845324
-0.04970000000000008,-26.780484906445146
-0.05070000000000019,-26.86536758443705
-0.05170000000000008,-26.9643973754276
-0.05270000000000019,-27.049280053419505
-0.05370000000000008,-27.176604070407354
-0.05470000000000019,-27.219045409403304
-0.05570000000000008,-27.34636942639116
-0.056700000000000195,-27.43125210438306
-0.057700000000000085,-27.487840556377662
-0.058700000000000196,-27.572723234369565
-0.059700000000000086,-27.615164573365515
-0.0607000000000002,-27.65760591236147
-0.06170000000000009,-27.742488590353368
-0.0627000000000002,-27.78492992934932
-0.06370000000000009,-27.869812607341224
-0.0647000000000002,-27.954695285333123
-0.06570000000000009,-28.011283737327723
-0.0667000000000002,-28.09616641531963
-0.0677000000000001,-28.13860775431558
-0.0687000000000002,-28.18104909331153
-0.0697000000000001,-28.22349043230748
-0.07070000000000021,-28.265931771303435
-0.0717000000000001,-28.265931771303435
-0.07270000000000021,-28.308373110299385
-0.0737000000000001,-28.350814449295335
-0.07470000000000021,-28.393255788291288
-0.0757000000000001,-28.435697127287238
-0.07670000000000021,-28.478138466283188
-0.0777000000000001,-28.53472691827779
-0.07870000000000021,-28.53472691827779
-0.0797000000000001,-28.577168257273744
-0.08070000000000022,-28.577168257273744
-0.0817000000000001,-28.619609596269694
-0.08270000000000022,-28.619609596269694
-0.08370000000000011,-28.662050935265643
-0.08470000000000022,-28.704492274261593
-0.08570000000000011,-28.746933613257543
-0.08670000000000022,-28.789374952253496
-0.08770000000000011,-28.831816291249446
-0.08870000000000022,-28.8742576302454
-0.08970000000000011,-28.91669896924135
-0.09070000000000022,-28.8742576302454
-0.09170000000000011,-28.8742576302454
-0.09270000000000023,-28.8742576302454
-0.09370000000000012,-28.8742576302454
-0.09470000000000023,-28.91669896924135
-0.09570000000000012,-28.91669896924135
-0.09670000000000023,-28.959140308237306
-0.09770000000000012,-29.001581647233255
-0.09870000000000023,-29.058170099227848
-0.09970000000000012,-29.058170099227848
-0.10070000000000023,-29.100611438223805
-0.10170000000000012,-29.100611438223805
-0.10270000000000024,-29.058170099227848
-0.10370000000000013,-29.058170099227848
-0.10470000000000024,-29.058170099227848
-0.10570000000000013,-29.058170099227848
-0.10670000000000024,-29.058170099227848
-0.10770000000000013,-29.100611438223805
-0.10870000000000024,-29.14305277721976
-0.10970000000000013,-29.14305277721976
-0.11070000000000024,-29.14305277721976
-0.11170000000000013,-29.14305277721976
-0.11270000000000002,-29.18549411621571
-0.11370000000000013,-29.22793545521166
-0.11470000000000002,-29.22793545521166
-0.11570000000000014,-29.22793545521166
-0.11670000000000003,-29.22793545521166
-0.11770000000000014,-29.27037679420761
-0.11870000000000003,-29.31281813320356
-0.11970000000000014,-29.27037679420761
-0.12070000000000003,-29.27037679420761
-0.12170000000000014,-29.27037679420761
-0.12270000000000003,-29.27037679420761
-0.12370000000000014,-29.27037679420761
-0.12470000000000003,-29.31281813320356
-0.12570000000000014,-29.35525947219951
-0.12670000000000003,-29.39770081119546
-0.12770000000000015,-29.440142150191413
-0.12870000000000004,-29.440142150191413
-0.12970000000000015,-29.440142150191413
-0.13070000000000004,-29.440142150191413
-0.13170000000000015,-29.440142150191413
-0.13270000000000004,-29.482583489187363
-0.13370000000000015,-29.525024828183312
-0.13470000000000004,-29.525024828183312
-0.13570000000000015,-29.581613280177915
-0.13670000000000004,-29.581613280177915
-0.13770000000000016,-29.62405461917387
-0.13870000000000005,-29.581613280177915
-0.13970000000000016,-29.581613280177915
-0.14070000000000005,-29.581613280177915
-0.14170000000000016,-29.581613280177915
-0.14270000000000005,-29.66649595816982
-0.14370000000000016,-29.66649595816982
-0.14470000000000005,-29.708937297165768
-0.14570000000000016,-29.751378636161718
-0.14670000000000005,-29.751378636161718
-0.14770000000000016,-29.793819975157668
-0.14870000000000005,-29.793819975157668
-0.14970000000000017,-29.793819975157668
-0.15070000000000006,-29.793819975157668
-0.15170000000000017,-29.836261314153624
-0.15270000000000006,-29.878702653149578
-0.15370000000000017,-29.878702653149578
-0.15470000000000006,-29.921143992145527
-0.15570000000000017,-29.921143992145527
-0.15670000000000006,-29.921143992145527
-0.15770000000000017,-29.921143992145527
-0.15870000000000006,-29.96358533114148
-0.15970000000000018,-29.96358533114148
-0.16070000000000007,-30.00602667013743
-0.16170000000000018,-30.04846800913338
-0.16270000000000007,-30.10505646112798
-0.16370000000000018,-30.147497800123933
-0.16470000000000007,-30.189939139119886
-0.16570000000000018,-30.232380478115836
-0.16670000000000007,-30.232380478115836
-0.16770000000000018,-30.274821817111786
-0.16870000000000007,-30.274821817111786
-0.16970000000000018,-30.317263156107735
-0.17070000000000007,-30.359704495103685
-0.17170000000000019,-30.359704495103685
-0.17270000000000008,-30.402145834099635
-0.1737000000000002,-30.444587173095588
-0.17470000000000008,-30.487028512091538
-0.1757000000000002,-30.529469851087494
-0.17670000000000008,-30.529469851087494
-0.1777000000000002,-30.571911190083444
-0.17870000000000008,-30.614352529079397
-0.1797000000000002,-30.670940981073993
-0.18070000000000008,-30.670940981073993
-0.1817000000000002,-30.71338232006995
-0.18270000000000008,-30.7558236590659
-0.1837000000000002,-30.7558236590659
-0.1847000000000001,-30.79826499806185
-0.1857000000000002,-30.8407063370578
-0.1867000000000001,-30.8407063370578
-0.1877000000000002,-30.925589015049702
-0.1887000000000001,-30.925589015049702
-0.1897000000000002,-30.968030354045652
-0.1907000000000001,-31.010471693041605
-0.1917000000000001,-31.052913032037555
-0.19269999999999998,-31.095354371033505
-0.1937000000000001,-31.137795710029454
-0.19469999999999998,-31.19438416202406
-0.1957000000000001,-31.19438416202406
-0.19669999999999999,-31.23682550102001
-0.1977000000000001,-31.27926684001596
-0.1987,-31.321708179011907
-0.1997000000000001,-31.36414951800786
-0.2007,-31.40659085700382
-0.2017000000000001,-31.449032195999767
-0.2027,-31.49147353499572
-0.2037000000000001,-31.533914873991666
-0.2047,-31.57635621298762
-0.2057000000000001,-31.618797551983565
-0.2067,-31.661238890979522
-0.2077000000000001,-31.76026868197007
-0.2087,-31.802710020966025
-0.2097000000000001,-31.887592698957924
-0.2107,-31.930034037953877
-0.2117000000000001,-32.01491671594578
-0.2127,-32.05735805494172
-0.2137000000000001,-32.09979939393769
-0.2147,-32.184682071929586
-0.2157000000000001,-32.24127052392419
-0.2167,-32.32615320191609
-0.21770000000000012,-32.41103587990799
-0.2187,-32.49591855789989
-0.21970000000000012,-32.53835989689585
-0.2207,-32.58080123589179
-0.22170000000000012,-32.66568391388369
-0.2227,-32.764713704874254
-0.22370000000000012,-32.84959638286615
-0.2247,-32.93447906085806
-0.22570000000000012,-32.97692039985401
-0.2267,-33.06180307784591
-0.22770000000000012,-33.14668575583781
-0.22870000000000001,-33.231568433829715
-0.22970000000000013,-33.330598224820264
-0.23070000000000002,-33.41548090281216
-0.23170000000000013,-33.50036358080407
-0.23270000000000002,-33.58524625879597
-0.23370000000000013,-33.712570275783825
-0.23470000000000002,-33.81160006677438
-0.23570000000000013,-33.93892408376223
-0.23670000000000002,-34.02380676175414
-0.2376999999999999,-34.06624810075008
-0.23870000000000002,-34.193572117737936
-0.2396999999999999,-34.278454795729836
-0.24070000000000003,-34.41992592571634
-0.24169999999999991,-34.5472499427042
-0.24270000000000003,-34.632132620696105
-0.24369999999999992,-34.75945663768395
-0.24470000000000003,-34.90092776767045
-0.24569999999999992,-34.98581044566235
-0.24670000000000003,-35.11313446265021
-0.24769999999999992,-35.240458479638065
-0.24870000000000003,-35.32534115762997
-0.24969999999999992,-35.42437094862052
-0.25070000000000003,-35.55169496560837
-0.2516999999999999,-35.679018982596226
-0.25270000000000004,-35.806342999584075
-0.2536999999999999,-35.94781412957058
-0.25470000000000004,-36.07513814655844
-0.2556999999999999,-36.16002082455034
-0.25670000000000004,-36.28734484153819
-0.25769999999999993,-36.37222751953009
-0.25870000000000004,-36.5136986495166
-0.25969999999999993,-36.6834640055004
-0.26070000000000004,-36.768346683492304
-0.26169999999999993,-36.89567070048016
-0.26270000000000004,-37.07958316946261
-0.26369999999999993,-37.206907186450465
-0.26470000000000005,-37.334231203438314
-0.26569999999999994,-37.51814367242077
-0.26670000000000005,-37.687909028404576
-0.26769999999999994,-37.81523304539243
-0.26870000000000005,-37.99914551437489
-0.26969999999999994,-38.12646953136274
-0.27070000000000005,-38.253793548350586
-0.27169999999999994,-38.42355890433439
-0.27270000000000005,-38.607471373316855
-0.27369999999999994,-38.734795390304704
-0.27470000000000006,-38.90456074628851
-0.27569999999999995,-39.08847321527096
-0.27670000000000006,-39.21579723225882
-0.27769999999999995,-39.38556258824262
-0.27870000000000006,-39.56947505722508
-0.27969999999999995,-39.739240413208876
-0.28070000000000006,-39.95144710818864
-0.28169999999999995,-40.135359577171094
-0.28270000000000006,-40.30512493315489
-0.28369999999999995,-40.4748902891387
-0.28470000000000006,-40.65880275812115
-0.28569999999999995,-40.828568114104954
-0.28670000000000007,-40.99833347008877
-0.28769999999999996,-41.182245939071215
-0.28870000000000007,-41.352011295055014
-0.28969999999999996,-41.52177665103883
-0.29070000000000007,-41.74813045901723
-0.29169999999999996,-42.00277849299294
-0.29270000000000007,-42.2715736399673
-0.29369999999999996,-42.483780334947056
-0.2947000000000001,-42.71013414292546
-0.29569999999999996,-42.92234083790521
-0.2967000000000001,-43.09210619388902
-0.29769999999999996,-43.36090134086337
-0.2987000000000001,-43.57310803584313
-0.29969999999999997,-43.79946184382153
-0.3007000000000001,-44.054109877797245
-0.30169999999999997,-44.28046368577565
-0.3027000000000001,-44.535111719751356
-0.30369999999999997,-44.74731841473111
-0.3047000000000001,-45.01611356170547
-0.30569999999999997,-45.22832025668522
-0.3067000000000001,-45.497115403659585
-0.3077,-45.75176343763528
-0.3087000000000001,-46.02055858460964
-0.3097,-46.27520661858535
-0.3107000000000001,-46.544001765559706
-0.3117,-46.79864979953541
-0.3127000000000001,-47.02500360751382
-0.3137,-47.27965164148953
-0.3147000000000001,-47.590888127459834
-0.3157,-47.8879775004315
-0.3167000000000001,-48.1992139864018
-0.3177,-48.51045047237211
-0.3187000000000001,-48.80753984534376
-0.3197,-49.118776331314066
-0.3207000000000001,-49.33098302629383
-0.3217,-49.642219512264134
-0.3227000000000001,-49.89686754623985
-0.3237,-50.20810403221015
-0.3247000000000001,-50.50519340518181
-0.3257,-50.81642989115212
-0.3267000000000001,-51.17010771611838
-0.3277,-51.509638428085985
-0.3287000000000001,-51.86331625305225
-0.3297,-52.2169940780185
-0.3307000000000001,-52.514083450990164
-0.3317,-52.86776127595642
-0.3327000000000001,-53.12240930993213
-0.3337,-53.476087134898386
-0.3347000000000001,-53.872206298860604
-0.3357,-54.26832546282281
-0.3367000000000001,-54.60785617479041
-0.3377,-55.046416677748574
-0.3387000000000001,-55.400094502714836
-0.3397,-55.7820665536784
-0.3407000000000001,-56.093303039648696
-0.3417,-56.489422203610914
-0.3427000000000001,-56.82895291557852
-0.3437,-57.22507207954074
-0.3447000000000001,-57.66363258249889
-0.3457,-58.05975174646111
-0.3467000000000001,-58.498312249419264
-0.3477,-58.83784296138688
-0.3487000000000001,-59.19152078635314
-0.3497,-59.54519861131939
-0.3507000000000001,-59.884729323287
-0.3517,-60.23840714825326
-0.3527000000000001,-60.63452631221547
-0.3537,-61.07308681517363
-0.3547000000000001,-61.49750020513315
-0.3557,-61.936060708091304
-0.35670000000000013,-62.41706255004542
-0.3577,-62.81318171400764
-0.35870000000000013,-63.251742216965795
-0.3597,-63.633714267929356
-0.36070000000000013,-64.02983343189156
-0.3617,-64.42595259585376
-0.3626999999999999,-64.86451309881193
-0.3637,-65.3030736017701
-0.3646999999999999,-65.76992833072556
-0.3657,-66.20848883368372
-0.3666999999999999,-66.68949067563783
-0.3677,-67.17049251759194
-0.3686999999999999,-67.65149435954605
-0.36970000000000003,-68.17493754049613
-0.3706999999999999,-68.61349804345427
-0.37170000000000003,-69.0944998854084
-0.3726999999999999,-69.53306038836655
-0.37370000000000003,-70.05650356931662
-0.3746999999999999,-70.53750541127073
-0.37570000000000003,-71.06094859222078
-0.3766999999999999,-71.58439177317086
-0.37770000000000004,-72.10783495412092
-0.3786999999999999,-72.57468968307639
-0.37970000000000004,-73.09813286402644
-0.3806999999999999,-73.53669336698461
-0.38170000000000004,-74.06013654793468
-0.38269999999999993,-74.58357972888473
-0.38370000000000004,-75.14946424883075
-0.38469999999999993,-75.71534876877676
-0.38570000000000004,-76.23879194972683
-0.38669999999999993,-75.94170257675518
-0.38570000000000004,-74.10257788693062
-0.38469999999999993,-72.36248298809663
-0.38370000000000004,-70.70727076725453
-0.38269999999999993,-69.0944998854084
-0.38170000000000004,-67.6090530205501
-0.3806999999999999,-66.12360615569182
-0.37970000000000004,-64.77963042082003
-0.3786999999999999,-63.421507572949594
-0.37770000000000004,-62.11997317707376
-0.3766999999999999,-60.889174346191176
-0.37570000000000003,-59.67252262830725
-0.3746999999999999,-58.498312249419264
-0.37370000000000003,-57.352396096528594
-0.3726999999999999,-56.22062705663656
-0.37170000000000003,-55.088858016744524
-0.3706999999999999,-54.0419716548444
-0.36970000000000003,-52.995085292944275
-0.3686999999999999,-51.948198931044146
-0.3677,-50.943753908139975
-0.3666999999999999,-49.98175022423175
-0.3657,-49.03389365332217
-0.3646999999999999,-48.071889969413945
-0.3637,-47.10988628550572
-0.3626999999999999,-46.19032394059345
-0.3617,-45.22832025668522
-0.36070000000000013,-44.3229050247716
-0.3597,-43.44578401885527
-0.35870000000000013,-42.568663012938956
-0.3577,-41.74813045901723
-0.35670000000000013,-40.91345079209687
-0.3557,-40.092918238175145
-0.3547000000000001,-39.258238571254765
-0.3537,-38.42355890433439
-0.3527000000000001,-37.645467689408626
-0.3517,-36.81078802248826
-0.3507000000000001,-35.99025546856653
-0.3497,-35.198017140642115
-0.3487000000000001,-34.41992592571634
-0.3477,-33.670128936787876
-0.3467000000000001,-32.892037721862096
-0.3457,-32.14224073293363
-0.3447000000000001,-31.36414951800786
-0.3437,-30.670940981073993
-0.3427000000000001,-29.921143992145527
-0.3417,-29.18549411621571
-0.3407000000000001,-28.478138466283188
-0.3397,-27.78492992934932
-0.3387000000000001,-27.091721392415455
-0.3377,-26.38436574248293
-0.3367000000000001,-25.691157205549064
-0.3357,-24.997948668615198
-0.3347000000000001,-24.290593018682678
-0.3337,-23.597384481748815
-0.3327000000000001,-22.904175944814945
-0.3317,-22.196820294882425
-0.3307000000000001,-21.58849443594046
-0.3297,-20.93772723800254
-0.3287000000000001,-20.286960040064624
-0.3277,-19.678634181122664
-0.3267000000000001,-19.056161209182044
-0.3257,-18.40539401124413
-0.3247000000000001,-17.797068152302163
-0.3237,-17.188742293360193
-0.3227000000000001,-16.580416434418233
-0.3217,-15.91550212348166
-0.3207000000000001,-15.307176264539699
-0.3197,-14.69885040559773
-0.3187000000000001,-14.090524546655764
-0.3177,-13.523225315409885
-0.3167000000000001,-12.913484745168056
-0.3157,-12.302329463626359
-0.3147000000000001,-11.73503023238048
-0.3137,-11.1677310011346
-0.3127000000000001,-10.601846481188586
-0.3117,-10.034547249942705
-0.3107000000000001,-9.467248018696827
-0.3097,-8.899948787450944
-0.3087000000000001,-8.376505606500881
-0.3077,-7.809206375255003
-0.3067000000000001,-7.243321855308987
-0.30569999999999997,-6.719878674358924
-0.3047000000000001,-6.108723392817228
-0.30369999999999997,-5.629136262162981
-0.3027000000000001,-5.105693081212917
-0.30169999999999997,-4.538393849967037
-0.3007000000000001,-4.0588067193127895
-0.29969999999999997,-3.5353635383627267
-0.2987000000000001,-3.0119203574126634
-0.29769999999999996,-2.532333226758415
-0.2967000000000001,-2.008890045808352
-0.29569999999999996,-1.4854468648582886
-0.2947000000000001,-1.0054353208140816
-0.29369999999999996,-0.5255652478998613
-0.29270000000000007,-0.002205534916489592
-0.29169999999999996,0.43403342679859325
-0.29070000000000007,0.9573351366186703
-0.28969999999999996,1.4373466806628774
-0.28870000000000007,1.8730777610213083
-0.28769999999999996,2.352664891675556
-0.28670000000000007,2.8322520223298033
-0.28569999999999995,3.2693978139880997
-0.28470000000000006,3.748984944642347
-0.28369999999999995,4.184716025000778
-0.28270000000000006,4.578005766363259
-0.28169999999999995,5.057592897017507
-0.28070000000000006,5.493323977375938
-0.27969999999999995,5.886613718738418
-0.27870000000000006,6.322344799096849
-0.27769999999999995,6.714219829159464
-0.27670000000000006,7.195221671113577
-0.27569999999999995,7.587096701176192
-0.27470000000000006,8.022827781534623
-0.27369999999999994,8.416117522897103
-0.27270000000000005,8.851848603255535
-0.27169999999999994,9.245138344618015
-0.27070000000000005,9.63701337468063
-0.26969999999999994,10.03030311604311
-0.26870000000000005,10.422178146105725
-0.26769999999999994,10.815467887468206
-0.26670000000000005,11.163486867235004
