Potential V vs RHE, Current mA cm-2
0.013299999999999867,5.319314487492538
0.012299999999999978,4.140859974704963
0.011299999999999866,3.0939736128048354
0.010299999999999976,2.1347993514963406
0.009299999999999864,1.219056727093702
0.008299999999999974,0.3903188476327636
0.007299999999999862,-0.3511313446265021
0.006299999999999972,-1.0490084288499246
0.00529999999999986,-1.7033124050375041
0.0042999999999999705,-2.3144676865791998
0.0032999999999998586,-2.924208256821031
0.0022999999999999687,-3.4915074880669104
0.0012999999999998568,-4.0588067193127895
0.00029999999999996696,-4.626105950558669
-0.000700000000000145,-5.149549131508733
-0.0017000000000000348,-5.629136262162981
-0.0027000000000001467,-6.108723392817228
-0.0037000000000000366,-6.54445447317566
-0.0047000000000001485,-6.981600264833956
-0.005700000000000038,-7.329619244600755
-0.00670000000000015,-7.7653503249591855
-0.00770000000000004,-8.11478401602585
-0.008700000000000152,-8.508073757388331
-0.009700000000000042,-8.899948787450944
-0.010700000000000154,-9.293238528813426
-0.011700000000000044,-9.641257508580225
-0.012700000000000156,-9.946835149351072
-0.013700000000000045,-10.296268840417738
-0.014700000000000157,-10.557990430892769
-0.015700000000000047,-10.863568071663616
-0.01670000000000016,-11.1677310011346
-0.01770000000000005,-11.42945259160963
-0.01870000000000016,-11.73503023238048
-0.01970000000000005,-12.040607873151327
-0.020700000000000163,-12.346185513922174
-0.021700000000000053,-12.651763154693022
-0.022700000000000164,-12.955926084164007
-0.023700000000000054,-13.175206335643086
-0.024700000000000166,-13.3930718758223
-0.025700000000000056,-13.654793466297335
-0.026700000000000168,-13.872659006476551
-0.027700000000000058,-14.13438059695158
-0.02870000000000017,-14.345172580631472
-0.02970000000000006,-14.61396772760583
-0.03070000000000017,-14.868615761581536
-0.03170000000000006,-15.094969569559943
-0.03270000000000017,-15.349617603535648
-0.03370000000000006,-15.533530072518102
-0.034700000000000175,-15.70329542850191
-0.035700000000000065,-15.87306078448571
-0.03670000000000018,-16.056973253468165
-0.03770000000000007,-16.269179948447924
-0.03870000000000018,-16.495533756426326
-0.03970000000000007,-16.665299112410132
-0.04070000000000018,-16.877505807389888
-0.04170000000000007,-17.103859615368293
-0.04270000000000018,-17.2736249713521
-0.04370000000000007,-17.4433903273359
-0.044700000000000184,-17.627302796318357
-0.045700000000000074,-17.797068152302163
-0.046700000000000186,-17.966833508285966
-0.047700000000000076,-18.15074597726842
-0.04870000000000019,-18.362952672248177
-0.04970000000000008,-18.589306480226583
-0.05070000000000019,-18.759071836210385
-0.05170000000000008,-18.92883719219419
-0.05270000000000019,-19.112749661176647
-0.05370000000000008,-19.28251501716045
-0.05470000000000019,-19.409839034148305
-0.05570000000000008,-19.537163051136158
-0.056700000000000195,-19.721075520118614
-0.057700000000000085,-19.848399537106463
-0.058700000000000196,-20.01816489309027
-0.059700000000000086,-20.244518701068674
-0.0607000000000002,-20.414284057052477
-0.06170000000000009,-20.626490752032236
-0.0627000000000002,-20.810403221014692
-0.06370000000000009,-20.93772723800254
-0.0647000000000002,-21.107492593986347
-0.06570000000000009,-21.248963723972853
-0.0667000000000002,-21.376287740960702
-0.0677000000000001,-21.54605309694451
-0.0687000000000002,-21.729965565926964
-0.0697000000000001,-21.899730921910766
-0.07070000000000021,-22.111937616890522
-0.0717000000000001,-22.295850085872978
-0.07270000000000021,-22.46561544185678
-0.0737000000000001,-22.592939458844636
-0.07470000000000021,-22.776851927827092
-0.0757000000000001,-22.946617283810895
-0.07670000000000021,-23.073941300798747
-0.0777000000000001,-23.24370665678255
-0.07870000000000021,-23.427619125765005
-0.0797000000000001,-23.639825820744765
-0.08070000000000022,-23.86617962872317
-0.0817000000000001,-24.035944984706973
-0.08270000000000022,-24.20571034069078
-0.08370000000000011,-24.389622809673234
-0.08470000000000022,-24.559388165657033
-0.08570000000000011,-24.686712182644893
-0.08670000000000022,-24.870624651627345
-0.08770000000000011,-25.0828313466071
-0.08870000000000022,-25.252596702590903
-0.08970000000000011,-25.478950510569312
-0.09070000000000022,-25.648715866553115
-0.09170000000000011,-25.86092256153287
-0.09270000000000023,-26.087276369511276
-0.09370000000000012,-26.21460038649913
-0.09470000000000023,-26.38436574248293
-0.09570000000000012,-26.525836872469437
-0.09670000000000023,-26.69560222845324
-0.09770000000000012,-26.86536758443705
-0.09870000000000023,-27.091721392415455
-0.09970000000000012,-27.303928087395207
-0.10070000000000023,-27.487840556377662
-0.10170000000000012,-27.700047251357418
-0.10270000000000024,-27.912253946337174
-0.10370000000000013,-28.13860775431558
-0.10470000000000024,-28.350814449295335
-0.10570000000000013,-28.53472691827779
-0.10670000000000024,-28.746933613257543
-0.10770000000000013,-28.91669896924135
-0.10870000000000024,-29.14305277721976
-0.10970000000000013,-29.35525947219951
-0.11070000000000024,-29.581613280177915
-0.11170000000000013,-29.793819975157668
-0.11270000000000002,-29.96358533114148
-0.11370000000000013,-30.189939139119886
-0.11470000000000002,-30.402145834099635
-0.11570000000000014,-30.614352529079397
-0.11670000000000003,-30.79826499806185
-0.11770000000000014,-31.010471693041605
-0.11870000000000003,-31.27926684001596
-0.11970000000000014,-31.533914873991666
-0.12070000000000003,-31.802710020966025
-0.12170000000000014,-32.01491671594578
-0.12270000000000003,-32.283711862920136
-0.12370000000000014,-32.49591855789989
-0.12470000000000003,-32.66568391388369
-0.12570000000000014,-32.84959638286615
-0.12670000000000003,-33.06180307784591
-0.12770000000000015,-33.288156885824314
-0.12870000000000004,-33.54280491980002
-0.12970000000000015,-33.81160006677438
-0.13070000000000004,-34.15113077874198
-0.13170000000000015,-34.41992592571634
-0.13270000000000004,-34.67457395969205
-0.13370000000000015,-34.94336910666641
-0.13470000000000004,-35.198017140642115
-0.13570000000000015,-35.42437094862052
-0.13670000000000004,-35.679018982596226
-0.13770000000000016,-35.94781412957058
-0.13870000000000005,-36.16002082455034
-0.13970000000000016,-36.4288159715247
-0.14070000000000005,-36.6834640055004
-0.14170000000000016,-36.95225915247476
-0.14270000000000005,-37.206907186450465
-0.14370000000000016,-37.41911388143023
-0.14470000000000005,-37.687909028404576
-0.14570000000000016,-37.90011572338433
-0.14670000000000005,-38.16891087035869
-0.14770000000000016,-38.42355890433439
-0.14870000000000005,-38.734795390304704
-0.14970000000000017,-39.046031876275016
-0.15070000000000006,-39.34312124924667
-0.15170000000000017,-39.654357735216976
-0.15270000000000006,-39.90900576919269
-0.15370000000000017,-40.177800916167044
-0.15470000000000006,-40.43244895014274
-0.15570000000000017,-40.65880275812115
-0.15670000000000006,-40.91345079209687
-0.15770000000000017,-41.182245939071215
-0.15870000000000006,-41.43689397304693
-0.15970000000000018,-41.70568912002128
-0.16070000000000007,-42.00277849299294
-0.16170000000000018,-42.31401497896325
-0.16270000000000007,-42.568663012938956
-0.16370000000000018,-42.79501682091736
-0.16470000000000007,-43.007223515897124
-0.16570000000000018,-43.27601866287147
-0.16670000000000007,-43.57310803584313
-0.16770000000000018,-43.79946184382153
-0.16870000000000007,-44.096551216793195
-0.16970000000000018,-44.36534636376755
-0.17070000000000007,-44.66243573673921
-0.17170000000000019,-44.97367222270952
-0.17270000000000008,-45.27076159568118
-0.1737000000000002,-45.581998081651484
-0.17470000000000008,-45.85079322862584
-0.1757000000000002,-46.147882601597495
-0.17670000000000008,-46.45911908756781
-0.1777000000000002,-46.79864979953541
-0.17870000000000008,-47.10988628550572
-0.1797000000000002,-47.46356411047198
-0.18070000000000008,-47.71821214444768
-0.1817000000000002,-48.071889969413945
-0.18270000000000008,-48.36897934238561
-0.1837000000000002,-48.68021582835591
-0.1847000000000001,-48.93486386233162
-0.1857000000000002,-49.24610034830193
-0.1867000000000001,-49.557336834272235
-0.1877000000000002,-49.85442620724389
-0.1887000000000001,-50.1656626932142
-0.1897000000000002,-50.46275206618586
-0.1907000000000001,-50.77398855215617
-0.1917000000000001,-51.028636586131874
-0.19269999999999998,-51.33987307210218
-0.1937000000000001,-51.594521106077885
-0.19469999999999998,-51.86331625305225
-0.1957000000000001,-52.11796428702795
-0.19669999999999999,-52.386759434002315
-0.1977000000000001,-52.64140746797801
-0.1987,-52.995085292944275
-0.1997000000000001,-53.348763117910536
-0.2007,-53.68829382987814
-0.2017000000000001,-54.1268543328363
-0.2027,-54.480532157802564
-0.2037000000000001,-54.834209982768826
-0.2047,-55.17374069473642
-0.2057000000000001,-55.484977180706736
-0.2067,-55.7820665536784
-0.2077000000000001,-56.13574437864466
-0.2087,-56.44698086461496
-0.2097000000000001,-56.786511576582576
-0.2107,-57.14018940154883
-0.2117000000000001,-57.493867226515086
-0.2127,-57.79095659948675
-0.2137000000000001,-58.05975174646111
-0.2147,-58.39928245842871
-0.2157000000000001,-58.79540162239092
-0.2167,-59.14907944735718
-0.21770000000000012,-59.502757272323436
-0.2187,-59.842287984291055
-0.21970000000000012,-60.23840714825326
-0.2207,-60.63452631221547
-0.22170000000000012,-61.07308681517363
-0.2227,-61.455058866137186
-0.22370000000000012,-61.7662953521075
-0.2247,-62.11997317707376
-0.22570000000000012,-62.41706255004542
-0.2267,-62.81318171400764
-0.22770000000000012,-63.20930087796983
-0.22870000000000001,-63.59127292893339
-0.22970000000000013,-63.98739209289561
-0.23070000000000002,-64.42595259585376
-0.23170000000000013,-64.82207175981598
-0.23270000000000002,-65.20404381077954
-0.23370000000000013,-65.60016297474175
-0.23470000000000002,-65.95384079970802
-0.23570000000000013,-66.34995996367022
-0.23670000000000002,-66.73193201463377
-0.2376999999999999,-67.17049251759194
-0.23870000000000002,-67.65149435954605
-0.2396999999999999,-68.04761352350828
-0.24070000000000003,-68.52861536546239
-0.24169999999999991,-68.96717586842054
-0.24270000000000003,-69.39158925838004
-0.24369999999999992,-69.78770842234226
-0.24470000000000003,-70.18382758630447
-0.24569999999999992,-70.57994675026669
-0.24670000000000003,-70.96191880123024
-0.24769999999999992,-71.4004793041884
-0.24870000000000003,-71.8814811461425
-0.24969999999999992,-72.32004164910067
-0.25070000000000003,-72.75860215205884
-0.2516999999999999,-73.15472131602105
-0.25270000000000004,-73.57913470598055
-0.2536999999999999,-74.0176952089387
-0.25470000000000004,-74.49869705089283
-0.2556999999999999,-74.97969889284694
-0.25670000000000004,-75.46070073480107
-0.25769999999999993,-75.98414391575112
-0.25870000000000004,-76.46514575770523
-0.25969999999999993,-76.98858893865528
-0.26070000000000004,-77.46959078060941
-0.26169999999999993,-77.95059262256353
-0.26270000000000004,-78.47403580351359
-0.26369999999999993,-78.9550376454677
-0.26470000000000005,-79.42189237442317
-0.26569999999999994,-79.86045287738132
-0.26670000000000005,-80.29901338033947
-0.26769999999999994,-80.73757388329766
-0.26870000000000005,-81.1761343862558
-0.26969999999999994,-81.65713622820991
-0.27070000000000005,-82.13813807016405
-0.27169999999999994,-82.56255146012353
-0.27270000000000005,-83.04355330207765
-0.27369999999999994,-83.56699648302772
-0.27470000000000006,-84.04799832498183
-0.27569999999999995,-84.48655882793999
-0.27670000000000006,-85.01000200889004
-0.27769999999999995,-85.53344518984011
-0.27870000000000006,-86.05688837079018
-0.27969999999999995,-86.6227728907362
-0.28070000000000006,-87.18865741068221
-0.28169999999999995,-87.71210059163228
-0.28270000000000006,-88.19310243358639
-0.28369999999999995,-88.71654561453644
-0.28470000000000006,-89.23998879548651
-0.28569999999999995,-89.72099063744062
-0.28670000000000007,-90.28687515738663
-0.28769999999999996,-90.81031833833671
-0.28870000000000007,-91.37620285828272
-0.28969999999999996,-91.94208737822873
-0.29070000000000007,-92.50797189817473
-0.29169999999999996,-93.08800353111941
-0.29270000000000007,-93.61144671206948
-0.29369999999999996,-94.17733123201549
-0.2947000000000001,-94.70077441296557
-0.29569999999999996,-95.18177625491967
-0.2967000000000001,-95.74766077486568
-0.29769999999999996,-96.21451550382113
-0.2987000000000001,-96.73795868477121
-0.29969999999999997,-97.31799031771587
-0.3007000000000001,-97.84143349866595
-0.30169999999999997,-98.40731801861195
-0.3027000000000001,-98.93076119956201
-0.30369999999999997,-99.45420438051207
-0.3047000000000001,-100.02008890045809
-0.30569999999999997,-100.670856098396
-0.3067000000000001,-101.32162329633393
-0.3077,-101.92994915527588
-0.3087000000000001,-102.59486346621246
-0.3097,-103.24563066415038
-0.3107000000000001,-103.89639786208829
-0.3117,-104.50472372103027
-0.3127000000000001,-105.02816690198033
-0.3137,-105.50916874393444
-0.3147000000000001,-105.99017058588855
-0.3157,-106.4287310888467
-0.3167000000000001,-106.90973293080083
-0.3177,-107.47561745074682
-0.3187000000000001,-108.04150197069285
-0.3197,-108.60738649063886
-0.3207000000000001,-109.21571234958083
-0.3217,-109.8240382085228
-0.3227000000000001,-110.4465111804634
-0.3237,-111.01239570040943
-0.3247000000000001,-111.6207215593514
-0.3257,-112.14416474030146
-0.3267000000000001,-112.75249059924342
-0.3277,-113.40325779718134
-0.3287000000000001,-113.96914231712736
-0.3297,-114.53502683707337
-0.3307000000000001,-115.15749980901398
-0.3317,-115.76582566795594
-0.3327000000000001,-116.37415152689792
-0.3337,-116.94003604684394
-0.3347000000000001,-117.50592056678994
-0.3357,-117.98692240874406
-0.3367000000000001,-118.51036558969413
-0.3377,-118.99136743164823
-0.3387000000000001,-119.51481061259831
-0.3397,-119.99581245455242
-0.3407000000000001,-120.51925563550247
-0.3417,-121.00025747745659
-0.3427000000000001,-121.52370065840667
-0.3437,-122.0471438393567
-0.3447000000000001,-122.57058702030677
-0.3457,-123.09403020125686
-0.3467000000000001,-123.65991472120285
-0.3477,-124.22579924114888
-0.3487000000000001,-124.87656643908679
-0.3497,-125.44245095903281
-0.3507000000000001,-126.05077681797478
-0.3517,-126.57421999892482
-0.3527000000000001,-127.05522184087894
-0.3537,-127.53622368283307
-0.3547000000000001,-128.01722552478716
-0.3557,-128.4982273667413
-0.35670000000000013,-128.89434653070347
-0.3577,-129.33290703366166
-0.35870000000000013,-129.8563502146117
-0.3597,-130.42223473455772
-0.36070000000000013,-130.90323657651186
-0.3617,-131.37009130546733
-0.3626999999999999,-131.8510931474214
-0.3637,-132.33209498937555
-0.3646999999999999,-132.7706554923337
-0.3657,-133.20921599529186
-0.3666999999999999,-133.64777649825
-0.3677,-134.04389566221224
-0.3686999999999999,-134.42586771317576
-0.36970000000000003,-134.86442821613394
-0.3706999999999999,-135.34543005808808
-0.37170000000000003,-135.78399056104624
-0.3726999999999999,-136.13766838601245
-0.37370000000000003,-136.43475775898415
-0.3746999999999999,-136.7884355839504
-0.37570000000000003,-137.12796629591801
-0.3766999999999999,-137.52408545988024
-0.37770000000000004,-137.83532194585052
-0.3786999999999999,-138.13241131882216
-0.37970000000000004,-138.48608914378846
-0.3806999999999999,-138.8397669687547
-0.38170000000000004,-139.1792976807223
-0.38269999999999993,-139.44809282769666
-0.38370000000000004,-139.70274086167237
-0.38469999999999993,-139.97153600864672
-0.38570000000000004,-140.0988600256346
-0.38669999999999993,-140.0988600256346
-0.38770000000000004,-140.18374270362645
-0.38869999999999993,-140.2686253816184
-0.38970000000000005,-140.45253785060083
-0.39069999999999994,-140.70718588457655
-0.39170000000000005,-141.14574638753473
-0.39269999999999994,-141.61260111649017
-0.39370000000000005,-142.03701450644968
-0.39469999999999994,-142.31995676642268
-0.39570000000000005,-142.6028990263957
-0.39669999999999994,-142.7443701563822
-0.39770000000000005,-143.0273124163552
-0.39869999999999994,-143.16878354634173
-0.39970000000000006,-143.3102546763282
-0.40069999999999995,-143.3102546763282
-0.40170000000000006,-143.3102546763282
-0.40269999999999995,-143.3102546763282
-0.40370000000000006,-143.3102546763282
-0.40469999999999995,-143.16878354634173
-0.40570000000000006,-143.0273124163552
-0.40669999999999995,-143.0273124163552
-0.40770000000000006,-142.8858412863687
-0.40869999999999995,-142.8858412863687
-0.40970000000000006,-142.8858412863687
-0.41069999999999995,-142.8858412863687
-0.41170000000000007,-142.7443701563822
-0.41269999999999996,-142.7443701563822
-0.41370000000000007,-142.4614278964092
-0.41469999999999996,-142.31995676642268
-0.41570000000000007,-142.03701450644968
-0.41669999999999996,-141.75407224647665
-0.41770000000000007,-141.41454153450906
-0.41869999999999996,-141.06086370954282
-0.4197000000000001,-140.70718588457655
-0.42069999999999996,-140.325213833613
-0.4217000000000001,-139.8866533306548
-0.42269999999999996,-139.49053416669264
-0.4237000000000001,-139.05197366373446
-0.42469999999999997,-138.6982958387682
-0.4257000000000001,-138.3163237878046
-0.42669999999999997,-137.9626459628384
-0.4277000000000001,-137.56652679887617
-0.42869999999999997,-137.12796629591801
-0.4297000000000001,-136.70355290595847
-0.43069999999999997,-136.2225510640044
-0.4317000000000001,-135.6991078830543
-0.4327,-135.1332233631083
-0.4337000000000001,-134.6097801821582
-0.4347,-134.04389566221224
-0.4357000000000001,-133.52045248126214
-0.4367,-132.89797950932152
-0.4377000000000001,-132.24721231138363
-0.4387,-131.63888645244168
-0.4397000000000001,-130.98811925450374
-0.4407,-130.42223473455772
-0.4417000000000001,-129.79976176261712
-0.4427,-129.19143590367514
-0.4437000000000001,-128.66799272272507
-0.4447,-128.18699088077096
-0.4457000000000001,-127.76257749081147
-0.4467,-127.28157564885734
-0.4477000000000001,-126.75813246790726
-0.4487,-126.19224794796128
-0.4497000000000001,-125.6688047670112
-0.4507,-125.10292024706521
-0.4517000000000001,-124.52288861412055
-0.4527,-123.91456275517855
-0.4537000000000001,-123.26379555724066
-0.4547,-122.61302835930273
-0.4557000000000001,-122.0471438393567
-0.4567,-121.52370065840667
-0.4577000000000001,-121.00025747745659
-0.4587,-120.47681429650652
-0.4597000000000001,-119.99581245455242
-0.4607,-119.5996932905902
-0.4617000000000001,-119.20357412662798
-0.4627,-118.86404341466037
-0.4637000000000001,-118.46792425069816
-0.4647,-118.11424642573192
-0.4657000000000001,-117.71812726176971
-0.4667,-117.46347922779398
-0.4677000000000001,-117.25127253281424
-0.4687,-117.02491872483584
-0.4697000000000001,-116.89759470784797
-0.4707,-116.81271202985609
-0.4717000000000001,-116.81271202985609
-0.4727,-116.85515336885203
-0.4737000000000001,-116.94003604684394
-0.4747,-117.02491872483584
-0.4757000000000001,-117.10980140282774
-0.4767,-117.25127253281424
-0.4777000000000001,-117.42103788879804
-0.4787,-117.67568592277377
-0.4797000000000001,-117.90203973075215
-0.4807,-118.02936374774
-0.48170000000000013,-118.1991291037238
-0.4827,-118.3406002337103
-0.48370000000000013,-118.55280692869007
-0.4847,-118.72257228467387
-0.48570000000000013,-118.90648475365633
-0.4867,-118.15668776472786
-0.48570000000000013,-115.93559102393975
-0.4847,-114.0115836561233
-0.48370000000000013,-112.27148875728932
-0.4827,-110.65871787544317
-0.48170000000000013,-109.17327101058488
-0.4807,-107.73026548472255
-0.4797000000000001,-106.38628974985076
-0.4787,-105.02816690198033
-0.4777000000000001,-103.68419116710854
-0.4767,-102.28362698024215
-0.4757000000000001,-100.84062145437981
-0.4747,-99.45420438051207
-0.4737000000000001,-98.05364019364569
-0.4727,-96.69551734577524
-0.4717000000000001,-95.35154161090348
-0.4707,-93.95097742403709
-0.4697000000000001,-92.64944302816124
-0.4687,-91.46108553627462
-0.4677000000000001,-90.32931649638259
-0.4667,-89.19754745649055
-0.4657000000000001,-88.15066109459043
-0.4647,-87.14621607168625
