Potential V vs RHE, Current mA cm-2
0.013299999999999867,3.666931689250175
0.012299999999999978,2.8124460641316933
0.011299999999999866,2.2748557701829792
0.010299999999999976,1.7980980621284617
0.009299999999999864,1.4246142789640919
0.008299999999999974,1.1088507168342159
0.007299999999999862,0.7905406743645824
0.006299999999999972,0.5654601065560552
0.00529999999999986,0.29454289263190064
0.0042999999999999705,0.08544856251184822
0.0032999999999998586,-0.11596388524993705
0.0022999999999999687,-0.34787750863681255
0.0012999999999998568,-0.4995345599823444
0.00029999999999996696,-0.7053750541127073
-0.000700000000000145,-0.8595785857979963
-0.0017000000000000348,-1.0197239049427183
-0.0027000000000001467,-1.1975531153357537
-0.0037000000000000366,-1.3064858854253614
-0.0047000000000001485,-1.4840321535584236
-0.005700000000000038,-1.5972090575476263
-0.00670000000000015,-1.7259477858353447
-0.00770000000000004,-1.8744924723211736
-0.008700000000000152,-1.9664487068124006
-0.009700000000000042,-2.1149933932982297
-0.010700000000000154,-2.225340874687703
-0.011700000000000044,-2.32861479957785
-0.012700000000000156,-2.451694682666109
-0.013700000000000045,-2.518186113759765
-0.014700000000000157,-2.6525836872469437
-0.015700000000000047,-2.7289780974396556
-0.01670000000000016,-2.822349043230748
-0.01770000000000005,-2.942599503719276
-0.01870000000000016,-2.994943821814283
-0.01970000000000005,-3.110950148403216
-0.020700000000000163,-3.1731974455972773
-0.021700000000000053,-3.2524212783897193
-0.022700000000000164,-3.3655981823789225
-0.023700000000000054,-3.3995512535756833
-0.024700000000000166,-3.508484023665291
-0.025700000000000056,-3.569316609559488
-0.026700000000000168,-3.6315639067535495
-0.027700000000000058,-3.7320084090439667
-0.02870000000000017,-3.7702056141403233
-0.02970000000000006,-3.8664059825311448
-0.03070000000000017,-3.922994434525747
-0.03170000000000006,-3.971094618721158
-0.03270000000000017,-4.070124409711711
-0.03370000000000006,-4.098418635709011
-0.034700000000000175,-4.187545447600509
-0.035700000000000065,-4.238475054395651
-0.03670000000000018,-4.303551774189442
-0.03770000000000007,-4.391263874781075
-0.03870000000000018,-4.413899255578914
-0.03970000000000007,-4.507270201370006
-0.04070000000000018,-4.538393849967037
-0.04170000000000007,-4.599226435861234
-0.04270000000000018,-4.691182670352461
-0.04370000000000007,-4.682694402553271
-0.044700000000000184,-4.77748005964423
-0.045700000000000074,-4.8453862020377505
-0.046700000000000186,-4.889242252333567
-0.047700000000000076,-4.959977817326819
-0.04870000000000019,-4.971295507725738
-0.04970000000000008,-5.06466645351683
-0.05070000000000019,-5.105693081212917
-0.05170000000000008,-5.158037399307924
-0.05270000000000019,-5.242920077299826
-0.05370000000000008,-5.268384880697396
-0.05470000000000019,-5.349023424789703
-0.05570000000000008,-5.37873236208687
-0.056700000000000195,-5.439564947981066
-0.057700000000000085,-5.520203492073373
-0.058700000000000196,-5.532935893772159
-0.059700000000000086,-5.6263068395632505
-0.0607000000000002,-5.663089333359742
-0.06170000000000009,-5.705530672355693
-0.0627000000000002,-5.7974869068469195
-0.06370000000000009,-5.8102193085457055
-0.0647000000000002,-5.890857852638012
-0.06570000000000009,-5.924810923834773
-0.0667000000000002,-5.970081685430455
-0.0677000000000001,-6.060623208621817
-0.0687000000000002,-6.097405702418309
-0.0697000000000001,-6.172385401311155
-0.07070000000000021,-6.207753183807781
-0.0717000000000001,-6.271415192301707
-0.07270000000000021,-6.35629787029361
-0.0737000000000001,-6.39025094149037
-0.07470000000000021,-6.483621887281464
-0.0757000000000001,-6.526063226277413
-0.07670000000000021,-6.55294274097485
-0.0777000000000001,-6.651972531965402
-0.07870000000000021,-6.678852046662837
-0.0797000000000001,-6.777881837653391
-0.08070000000000022,-6.824567310548938
-0.0817000000000001,-6.8853998964431335
-0.08270000000000022,-6.970282574435036
-0.08370000000000011,-7.014138624730852
-0.08470000000000022,-7.106094859222079
-0.08570000000000011,-7.135803796519245
-0.08670000000000022,-7.215027629311687
-0.08770000000000011,-7.301325018603455
-0.08870000000000022,-7.32254568810143
-0.08970000000000011,-7.421575479091982
-0.09070000000000022,-7.468260951987529
-0.09170000000000011,-7.53616709438105
-0.09270000000000023,-7.629538040172143
-0.09370000000000012,-7.655002843569713
-0.09470000000000023,-7.7512032119605365
-0.09570000000000012,-7.800718107455811
-0.09670000000000023,-7.875697806348659
-0.09770000000000012,-7.9747275973392115
-0.09870000000000023,-8.008680668535973
-0.09970000000000012,-8.117613438625579
-0.10070000000000023,-8.178446024519777
-0.10170000000000012,-8.246352166913299
-0.10270000000000024,-8.335478978804796
-0.10370000000000013,-8.368017338701693
-0.10470000000000024,-8.478364820091164
-0.10570000000000013,-8.517976736487388
-0.10670000000000024,-8.587297590180773
-0.10770000000000013,-8.69623036027038
-0.10870000000000024,-8.734427565366737
-0.10970000000000013,-8.837701490256883
-0.11070000000000024,-8.907022343950272
-0.11170000000000013,-8.973513775043926
-0.11270000000000002,-9.07537298863421
-0.11370000000000013,-9.112155482430701
-0.11470000000000002,-9.225332386419904
-0.11570000000000014,-9.28899439491383
-0.11670000000000003,-9.356900537307352
-0.11770000000000014,-9.461589173497366
-0.11870000000000003,-9.518177625491967
-0.11970000000000014,-9.638428085980495
-0.12070000000000003,-9.670966445877392
-0.12170000000000014,-9.77706979336727
-0.12270000000000003,-9.881758429557282
-0.12370000000000014,-9.932688036352424
-0.12470000000000003,-10.052938496840952
-0.12570000000000014,-10.116600505334876
-0.12670000000000003,-10.219874430225024
-0.12770000000000015,-10.328807200314634
-0.12870000000000004,-10.389639786208829
-0.12970000000000015,-10.546672740493849
-0.13070000000000004,-10.610334748987775
-0.13170000000000015,-10.683899736580756
-0.13270000000000004,-10.822541443967529
-0.13370000000000015,-10.859323937764021
-0.13470000000000004,-10.99655093385093
-0.13570000000000015,-11.074360055343508
-0.13670000000000004,-11.162072155935139
-0.13770000000000016,-11.285152039023398
-0.13870000000000005,-11.334666934518673
-0.13970000000000016,-11.493114600103558
-0.14070000000000005,-11.583656123294919
-0.14170000000000016,-11.691174182084664
-0.14270000000000005,-11.832645312071167
-0.14370000000000016,-11.930260391761854
-0.14470000000000005,-12.091537479946469
-0.14570000000000016,-12.197640827436347
-0.14670000000000005,-12.293841195827168
-0.14770000000000016,-12.440971171013134
-0.14870000000000005,-12.511706736006385
-0.14970000000000017,-12.671569112891135
-0.15070000000000006,-12.797478418579121
-0.15170000000000017,-12.938949548565626
-0.15270000000000006,-13.030905783056852
-0.15370000000000017,-13.141253264446325
-0.15470000000000006,-13.333654001227972
-0.15570000000000017,-13.441172060017713
-0.15670000000000006,-13.578399056104622
-0.15770000000000017,-13.748164412088427
-0.15870000000000006,-13.813241131882217
-0.15970000000000018,-14.00139773476427
-0.16070000000000007,-14.120233483952932
-0.16170000000000018,-14.274437015638219
-0.16270000000000007,-14.444202371622024
-0.16370000000000018,-14.57152638860988
-0.16470000000000007,-14.755438857592333
-0.16570000000000018,-14.868615761581536
-0.16670000000000007,-15.03838111756534
-0.16770000000000018,-15.222293586547794
-0.16870000000000007,-15.335470490536997
-0.16970000000000018,-15.533530072518102
-0.17070000000000007,-15.689148315503255
-0.17170000000000019,-15.844766558488407
-0.17270000000000008,-16.02867902747086
-0.1737000000000002,-16.15600304445872
-0.17470000000000008,-16.354062626439823
-0.1757000000000002,-16.495533756426326
-0.17670000000000008,-16.665299112410132
-0.1777000000000002,-16.891652920388537
-0.17870000000000008,-17.03312405037504
-0.1797000000000002,-17.231183632356142
-0.18070000000000008,-17.4150961013386
-0.1817000000000002,-17.584861457322408
-0.18270000000000008,-17.797068152302163
-0.1837000000000002,-17.952686395287316
-0.1847000000000001,-18.207334429263025
-0.1857000000000002,-18.362952672248177
-0.1867000000000001,-18.57515936722793
-0.1877000000000002,-18.78736606220769
-0.1887000000000001,-18.94298430519284
-0.1897000000000002,-19.141043887173947
-0.1907000000000001,-19.353250582153702
-0.1917000000000001,-19.565457277133458
-0.19269999999999998,-19.805958198110513
-0.1937000000000001,-19.97572355409432
-0.19469999999999998,-20.202077362072725
-0.1957000000000001,-20.38598983105518
-0.19669999999999999,-20.612343639033586
-0.1977000000000001,-20.86699167300929
-0.1987,-21.107492593986347
-0.1997000000000001,-21.347993514963402
-0.2007,-21.54605309694451
-0.2017000000000001,-21.744112678925614
-0.2027,-22.012907825899973
-0.2037000000000001,-22.225114520879725
-0.2047,-22.493909667854084
-0.2057000000000001,-22.748557701829792
-0.2067,-22.989058622806844
-0.2077000000000001,-23.229559543783903
-0.2087,-23.44176623876366
-0.2097000000000001,-23.696414272739364
-0.2107,-23.894473854720466
-0.2117000000000001,-24.16326900169483
-0.2127,-24.417917035670534
-0.2137000000000001,-24.64427084364894
-0.2147,-24.969654442617898
-0.2157000000000001,-25.238449589592253
-0.2167,-25.521391849565262
-0.21770000000000012,-25.832628335535567
-0.2187,-26.030687917516673
-0.21970000000000012,-26.27118883849373
-0.2207,-26.525836872469437
-0.22170000000000012,-26.86536758443705
-0.2227,-27.204898296404657
-0.22370000000000012,-27.40295787838576
-0.2247,-27.685900138358768
-0.22570000000000012,-27.997136624329073
-0.2267,-28.209343319308836
-0.22770000000000012,-28.49228557928184
-0.22870000000000001,-28.775227839254843
-0.22970000000000013,-29.14305277721976
-0.23070000000000002,-29.38355369819681
-0.23170000000000013,-29.708937297165768
-0.23270000000000002,-30.04846800913338
-0.23370000000000013,-30.246527591114486
-0.23470000000000002,-30.614352529079397
-0.23570000000000013,-30.953883241047
-0.23670000000000002,-31.19438416202406
-0.2376999999999999,-31.47732642199707
-0.23870000000000002,-31.717827342974125
-0.2396999999999999,-31.95832826395118
-0.24070000000000003,-32.31200608891744
-0.24169999999999991,-32.70812525287965
-0.24270000000000003,-33.10424441684186
-0.24369999999999992,-33.302303998822964
-0.24470000000000003,-33.51451069380272
-0.24569999999999992,-33.755011614779775
-0.24670000000000003,-34.193572117737936
-0.24769999999999992,-34.5755441687015
-0.24870000000000003,-34.8018979766799
-0.24969999999999992,-35.08484023665291
-0.25070000000000003,-35.41022383562187
-0.2516999999999999,-35.62243053060162
-0.25270000000000004,-35.91951990357328
-0.2536999999999999,-36.315639067535486
-0.25470000000000004,-36.55613998851254
-0.2556999999999999,-36.8532293614842
-0.25670000000000004,-37.136171621457216
-0.25769999999999993,-37.41911388143023
-0.25870000000000004,-37.687909028404576
-0.25969999999999993,-37.97085128837759
-0.26070000000000004,-38.253793548350586
-0.26169999999999993,-38.63576559931415
-0.26270000000000004,-38.91870785928716
-0.26369999999999993,-39.03188476327636
-0.26470000000000005,-39.272385684253415
-0.26569999999999994,-39.47044526623452
-0.26670000000000005,-39.739240413208876
-0.26769999999999994,-39.85241731719808
-0.26870000000000005,-40.00803556018324
-0.26969999999999994,-40.163653803168394
-0.27070000000000005,-40.36171338514949
-0.27169999999999994,-40.57392008012925
-0.27270000000000005,-40.743685436113054
-0.27369999999999994,-40.87100945310091
-0.27470000000000006,-41.02662769608606
-0.27569999999999995,-41.097363261079316
-0.27670000000000006,-41.39445263405098
-0.27769999999999995,-41.57836510303343
-0.27870000000000006,-41.52177665103883
-0.27969999999999995,-41.56421799003478
-0.28070000000000006,-41.649100668026676
-0.28169999999999995,-41.606659329030734
-0.28270000000000006,-41.677394894023976
-0.28369999999999995,-41.649100668026676
-0.28470000000000006,-41.649100668026676
-0.28569999999999995,-41.57836510303343
-0.28670000000000007,-41.50762953804018
-0.28769999999999996,-41.40859974704962
-0.28870000000000007,-41.196393052069865
-0.28969999999999996,-41.111510374077966
-0.29070000000000007,-40.95589213109281
-0.29169999999999996,-40.77197966211036
-0.29270000000000007,-40.644655645122505
-0.29369999999999996,-40.4183018371441
-0.2947000000000001,-40.20609514216434
-0.29569999999999996,-39.95144710818864
-0.2967000000000001,-39.68265196121428
-0.29769999999999996,-39.38556258824262
-0.2987000000000001,-39.060178989273666
-0.29969999999999997,-38.805530955297954
-0.3007000000000001,-38.4518531303317
-0.30169999999999997,-38.06988107936814
-0.3027000000000001,-37.702056141403226
-0.30369999999999997,-37.26349563844507
-0.3047000000000001,-36.89567070048016
-0.30569999999999997,-36.40052174552739
-0.3067000000000001,-35.93366701657193
-0.3077,-35.46681228761647
-0.3087000000000001,-34.9716633326637
-0.3097,-34.462367264712285
-0.3107000000000001,-33.89648274476628
-0.3117,-33.47206935480677
-0.3127000000000001,-32.87789060886345
-0.3137,-32.269564749921486
-0.3147000000000001,-31.74612156897142
-0.3157,-31.095354371033505
-0.3167000000000001,-30.55776407708479
-0.3177,-29.991879557138777
-0.3187000000000001,-29.34111235920086
-0.3197,-28.775227839254843
-0.3207000000000001,-28.12446064131693
-0.3217,-27.544429008372262
-0.3227000000000001,-26.992691601424898
-0.3237,-26.356071516485635
-0.3247000000000001,-25.761892770542314
-0.3257,-25.12527268560305
-0.3267000000000001,-24.545241052658387
-0.3277,-23.993503645711023
-0.3287000000000001,-23.385177786769056
-0.3297,-22.819293266823045
-0.3307000000000001,-22.281702972874328
-0.3317,-21.729965565926964
-0.3327000000000001,-21.22066949797555
-0.3337,-20.683079204026836
-0.3347000000000001,-20.230371588070028
-0.3357,-19.73522263311726
-0.3367000000000001,-19.339103469155052
-0.3377,-18.999572757187444
-0.3387000000000001,-18.645894932221182
-0.3397,-18.362952672248177
-0.3407000000000001,-18.08001041227517
-0.3417,-17.867803717295413
-0.3427000000000001,-17.71218547431026
-0.3437,-17.542420118326454
-0.3447000000000001,-17.429243214337255
-0.3457,-17.28777208435075
-0.3467000000000001,-17.28777208435075
-0.3477,-17.2453307453548
-0.3487000000000001,-17.188742293360193
-0.3497,-17.2736249713521
-0.3507000000000001,-17.386801875341302
-0.3517,-17.514125892329155
-0.3527000000000001,-17.627302796318357
-0.3537,-17.698038361311607
-0.3547000000000001,-17.938539282288666
-0.3557,-18.122451751271118
-0.35670000000000013,-18.362952672248177
-0.3577,-18.617600706223882
-0.35870000000000013,-18.829807401203638
-0.3597,-19.112749661176647
-0.36070000000000013,-19.367397695152352
-0.3617,-19.622045729128057
-0.3626999999999999,-19.919135102099716
-0.3637,-20.244518701068674
-0.3646999999999999,-20.569902300037633
-0.3657,-20.881138786007945
-0.3666999999999999,-21.2065223849769
-0.3677,-21.560200209943158
-0.3686999999999999,-21.871436695913467
-0.36970000000000003,-22.253408746877028
-0.3706999999999999,-22.66367502383789
-0.37170000000000003,-22.974911509808198
-0.3726999999999999,-23.300295108777156
-0.37370000000000003,-23.66812004674206
-0.3746999999999999,-24.064239210704276
-0.37570000000000003,-24.44621126166783
-0.3766999999999999,-24.856477538628695
-0.37770000000000004,-25.266743815589557
-0.3786999999999999,-25.648715866553115
-0.37970000000000004,-26.11557059550858
-0.3806999999999999,-26.469248420474838
-0.38170000000000004,-26.879514697435695
-0.38269999999999993,-27.36051653938981
-0.38370000000000004,-27.728341477354718
-0.38469999999999993,-28.09616641531963
-0.38570000000000004,-28.53472691827779
-0.38669999999999993,-29.001581647233255
-0.38770000000000004,-29.525024828183312
-0.38869999999999993,-29.96358533114148
-0.38970000000000005,-30.43044006009694
-0.39069999999999994,-30.8690005630551
-0.39170000000000005,-31.37829663100651
-0.39269999999999994,-31.802710020966025
-0.39370000000000005,-32.24127052392419
-0.39469999999999994,-32.7788608178729
-0.39570000000000005,-33.288156885824314
-0.39669999999999994,-33.755011614779775
-0.39770000000000005,-34.26430768273119
-0.39869999999999994,-34.702868185689354
-0.39970000000000006,-35.226311366639415
-0.40069999999999995,-35.693166095594876
-0.40170000000000006,-36.14587371155169
-0.40269999999999995,-36.7117582314977
-0.40370000000000006,-37.206907186450465
-0.40469999999999995,-37.744497480399176
-0.40570000000000006,-38.253793548350586
-0.40669999999999995,-38.84797229429391
-0.40770000000000006,-39.47044526623452
-0.40869999999999995,-39.92315288219133
-0.40970000000000006,-40.460743176140056
-0.41069999999999995,-40.99833347008877
-0.41170000000000007,-41.55007087703613
-0.41269999999999996,-42.10180828398349
-0.41370000000000007,-42.582810125937606
-0.41469999999999996,-43.23357732387552
-0.41570000000000007,-43.75702050482558
-0.41669999999999996,-44.3511992507689
-0.41770000000000007,-44.98781933570817
-0.41869999999999996,-45.581998081651484
-0.4197000000000001,-46.147882601597495
-0.42069999999999996,-46.72791423454216
-0.4217000000000001,-47.33624009348412
-0.42269999999999996,-47.94456595242609
-0.4237000000000001,-48.3406851163883
-0.42469999999999997,-49.019746540323524
-0.4257000000000001,-49.642219512264134
-0.42669999999999997,-50.1656626932142
-0.4277000000000001,-50.75984143915752
-0.42869999999999997,-51.325725959103536
-0.4297000000000001,-52.00478738303875
-0.43069999999999997,-52.42920077299826
-0.4317000000000001,-53.079967970936174
-0.4327,-53.70244094287679
-0.4337000000000001,-54.33906102781606
-0.4347,-55.21618203373238
-0.4357000000000001,-55.626448310693235
-0.4367,-56.20647994363791
-0.4377000000000001,-56.84310002857717
-0.4387,-57.493867226515086
-0.4397000000000001,-58.04560463346245
-0.4407,-58.569047814412514
-0.4417000000000001,-59.16322656035583
-0.4427,-60.04034756627216
-0.4437000000000001,-60.57793786022087
-0.4447,-61.25699928415608
-0.4457000000000001,-61.851178030099405
-0.4467,-62.37462121104946
-0.4477000000000001,-63.02538840898739
-0.4487,-63.6761556069253
-0.4497000000000001,-64.25618723986996
-0.4507,-64.72304196882543
-0.4517000000000001,-65.3596620537647
-0.4527,-66.05287059069857
-0.4537000000000001,-66.71778490163513
-0.4547,-67.3826992125717
-0.4557000000000001,-68.35885000947859
-0.4567,-68.78326339943808
-0.4577000000000001,-69.5189132753679
-0.4587,-70.28285737729502
-0.4597000000000001,-71.07509570521944
-0.4607,-71.86733403314386
-0.4617000000000001,-72.34833587509796
-0.4627,-72.92836750804264
-0.4637000000000001,-74.15916633892522
-0.4647,-74.9938460058456
-0.4657000000000001,-75.4182593958051
-0.4667,-75.92755546375653
-0.4677000000000001,-76.63491111368903
-0.4687,-77.28567831162695
-0.4697000000000001,-78.04962241355408
-0.4707,-78.70038961149199
-0.4717000000000001,-79.3228625834326
-0.4727,-80.08680668535972
-0.4737000000000001,-80.68098543130303
-0.4747,-81.43078242023151
-0.4757000000000001,-82.06740250517078
-0.4767,-82.6615812511141
-0.4777000000000001,-83.25575999705741
-0.4787,-83.92067430799398
-0.4797000000000001,-84.6563241839238
-0.4807,-85.12317891287925
-0.48170000000000013,-86.00029991879558
-0.4827,-86.86327381171324
-0.48370000000000013,-87.71210059163228
-0.4847,-88.29213222457693
-0.48570000000000013,-88.85801674452296
-0.4867,-88.49019180655806
-0.48570000000000013,-87.27354008867411
-0.4847,-86.21250661377533
-0.48370000000000013,-85.27879715586442
-0.4827,-84.40167614994809
-0.48170000000000013,-83.51040803103311
-0.4807,-82.7747581551033
-0.4797000000000001,-81.88349003618832
-0.4787,-80.96392769127604
-0.4777000000000001,-80.04436534636378
-0.4767,-79.08236166245555
-0.4757000000000001,-78.62965404649873
-0.4747,-77.83741571857432
-0.4737000000000001,-77.48373789360807
-0.4727,-76.38026307971333
-0.4717000000000001,-75.36167094381051
-0.4707,-74.80993353686314
-0.4697000000000001,-73.7064587229684
-0.4687,-72.98495596003725
-0.4677000000000001,-72.51810123108179
-0.4667,-71.6268331121668
-0.4657000000000001,-71.28730240019921
-0.4647,-70.39603428128423
-0.4637000000000001,-69.6886786313517
