Potential V vs RHE, Current mA cm-2
0.013299999999999867,-0.10647117242784265
0.012299999999999978,-0.36216609276544937
0.011299999999999866,-0.4815677264740585
0.010299999999999976,-0.5498982822575398
0.009299999999999864,-0.620775318380778
0.008299999999999974,-0.6770808281154066
0.007299999999999862,-0.7135803796519244
0.006299999999999972,-0.7602658525474707
0.00529999999999986,-0.8004436534636377
0.0042999999999999705,-0.829445235110871
0.0032999999999998586,-0.8584468167581043
0.0022999999999999687,-0.8940975415147032
0.0012999999999998568,-0.926918843671572
0.00029999999999996696,-0.9400756587603168
-0.000700000000000145,-0.9704919517074152
-0.0017000000000000348,-1.005010907424122
-0.0027000000000001467,-1.0118015216634741
-0.0037000000000000366,-1.038115151840964
-0.0047000000000001485,-1.0716438096477652
-0.005700000000000038,-1.0955524306154845
-0.00670000000000015,-1.1138022063837434
-0.00770000000000004,-1.1497358734003151
-0.008700000000000152,-1.1781715705276026
-0.009700000000000042,-1.205192556355025
-0.010700000000000154,-1.2360332626920827
-0.011700000000000044,-1.2682886803290054
-0.012700000000000156,-1.290075234346927
-0.013700000000000045,-1.3118617883648485
-0.014700000000000157,-1.3514737047610696
-0.015700000000000047,-1.3784946905884918
-0.01670000000000016,-1.4015544847762917
-0.01770000000000005,-1.4458349484620676
-0.01870000000000016,-1.4840321535584236
-0.01970000000000005,-1.5137410908555893
-0.020700000000000163,-1.5618412750510005
-0.021700000000000053,-1.6042826140469515
-0.022700000000000164,-1.6339915513441174
-0.023700000000000054,-1.6736034677403384
-0.024700000000000166,-1.7202889406358846
-0.025700000000000056,-1.7570714344323757
-0.026700000000000168,-1.776877392630486
-0.027700000000000058,-1.813659886426977
-0.02870000000000017,-1.8461982463238729
-0.02970000000000006,-1.8589306480226582
-0.03070000000000017,-1.8815660288204987
-0.03170000000000006,-1.9056161209182045
-0.03270000000000017,-1.9098602548177994
-0.03370000000000006,-1.92400736781645
-0.034700000000000175,-1.933910346915505
-0.035700000000000065,-1.9452280373144257
-0.03670000000000018,-1.9438133260145605
-0.03770000000000007,-1.9537163051136157
-0.03870000000000018,-1.9607898616129409
-0.03970000000000007,-1.9551310164134805
-0.04070000000000018,-1.9607898616129409
-0.04170000000000007,-1.9735222633117262
-0.04270000000000018,-1.9622045729128061
-0.04370000000000007,-1.9664487068124006
-0.044700000000000184,-1.972107552011861
-0.045700000000000074,-1.967863418112266
-0.046700000000000186,-1.9650339955125358
-0.047700000000000076,-1.9664487068124006
-0.04870000000000019,-1.9735222633117262
-0.04970000000000008,-1.9664487068124006
-0.05070000000000019,-1.9650339955125358
-0.05170000000000008,-1.9749369746115912
-0.05270000000000019,-1.967863418112266
-0.05370000000000008,-1.9622045729128061
-0.05470000000000019,-1.972107552011861
-0.05570000000000008,-1.972107552011861
-0.056700000000000195,-1.967863418112266
-0.057700000000000085,-1.972107552011861
-0.058700000000000196,-1.9706928407119961
-0.059700000000000086,-1.967863418112266
-0.0607000000000002,-1.9650339955125358
-0.06170000000000009,-1.9834252424107812
-0.0627000000000002,-1.972107552011861
-0.06370000000000009,-1.967863418112266
-0.0647000000000002,-1.9749369746115912
-0.06570000000000009,-1.980595819811051
-0.0667000000000002,-1.9650339955125358
-0.0677000000000001,-1.972107552011861
-0.0687000000000002,-1.9791811085111866
-0.0697000000000001,-1.9650339955125358
-0.07070000000000021,-1.9735222633117262
-0.0717000000000001,-1.9749369746115912
-0.07270000000000021,-1.9664487068124006
-0.0737000000000001,-1.9692781294121309
-0.07470000000000021,-1.980595819811051
-0.0757000000000001,-1.9749369746115912
-0.07670000000000021,-1.9692781294121309
-0.0777000000000001,-1.9749369746115912
-0.07870000000000021,-1.980595819811051
-0.0797000000000001,-1.9692781294121309
-0.08070000000000022,-1.9763516859114565
-0.0817000000000001,-1.9876693763103765
-0.08270000000000022,-1.9735222633117262
-0.08370000000000011,-1.9749369746115912
-0.08470000000000022,-1.9820105311109162
-0.08570000000000011,-1.9834252424107812
-0.08670000000000022,-1.9791811085111866
-0.08770000000000011,-1.9848399537106465
-0.08870000000000022,-1.9876693763103765
-0.08970000000000011,-1.9820105311109162
-0.09070000000000022,-1.9848399537106465
-0.09170000000000011,-1.9961576441095665
-0.09270000000000023,-1.9862546650105113
-0.09370000000000012,-1.9876693763103765
-0.09470000000000023,-1.9975723554094316
-0.09570000000000012,-1.9975723554094316
-0.09670000000000023,-1.9848399537106465
-0.09770000000000012,-1.9975723554094316
-0.09870000000000023,-1.9975723554094316
-0.09970000000000012,-1.993328221509837
-0.10070000000000023,-2.0004017780091616
-0.10170000000000012,-2.011719468408082
-0.10270000000000024,-2.0032312006088917
-0.10370000000000013,-2.001816489309027
-0.10470000000000024,-2.0103047571082175
-0.10570000000000013,-2.013134179707947
-0.10670000000000024,-2.004645911908757
-0.10770000000000013,-2.0159636023076772
-0.10870000000000024,-2.017378313607542
-0.10970000000000013,-2.008890045808352
-0.11070000000000024,-2.017378313607542
-0.11170000000000013,-2.0258665814067327
-0.11270000000000002,-2.014548891007812
-0.11370000000000013,-2.023037158807002
-0.11470000000000002,-2.0286960040064623
-0.11570000000000014,-2.0301107153063276
-0.11670000000000003,-2.0258665814067327
-0.11770000000000014,-2.0357695605057877
-0.11870000000000003,-2.045672539604843
-0.11970000000000014,-2.0343548492059225
-0.12070000000000003,-2.038598983105518
-0.12170000000000014,-2.054160807404033
-0.12270000000000003,-2.038598983105518
-0.12370000000000014,-2.044257828304978
-0.12470000000000003,-2.054160807404033
-0.12570000000000014,-2.0569902300037635
-0.12670000000000003,-2.052746096104168
-0.12770000000000015,-2.0569902300037635
-0.12870000000000004,-2.0612343639033583
-0.12970000000000015,-2.0584049413036287
-0.13070000000000004,-2.0584049413036287
-0.13170000000000015,-2.0697226317025486
-0.13270000000000004,-2.0654784978029537
-0.13370000000000015,-2.0654784978029537
-0.13470000000000004,-2.0753814769020087
-0.13570000000000015,-2.072552054302279
-0.13670000000000004,-2.0697226317025486
-0.13770000000000016,-2.085284456001064
-0.13870000000000005,-2.083869744701199
-0.13970000000000016,-2.079625610801604
-0.14070000000000005,-2.085284456001064
-0.14170000000000016,-2.095187435100119
-0.14270000000000005,-2.0881138786007942
-0.14370000000000016,-2.0909433012005243
-0.14470000000000005,-2.1008462802995793
-0.14570000000000016,-2.1079198367989047
-0.14670000000000005,-2.0980168576998492
-0.14770000000000016,-2.1093345480987695
-0.14870000000000005,-2.11782281589796
-0.14970000000000017,-2.1079198367989047
-0.15070000000000006,-2.1121639706984996
-0.15170000000000017,-2.12914050629688
-0.15270000000000006,-2.122066949797555
-0.15370000000000017,-2.127725794997015
-0.15470000000000006,-2.13196992889661
-0.15570000000000017,-2.13762877409607
-0.15670000000000006,-2.1347993514963406
-0.15770000000000017,-2.1475317531951257
-0.15870000000000006,-2.1546053096944506
-0.15970000000000018,-2.1432876192955304
-0.16070000000000007,-2.156020020994316
-0.16170000000000018,-2.171581845292831
-0.16270000000000007,-2.1602641548939108
-0.16370000000000018,-2.1701671339929662
-0.16470000000000007,-2.184314246991617
-0.16570000000000018,-2.1828995356917518
-0.16670000000000007,-2.1800701130920217
-0.16770000000000018,-2.194217226090672
-0.16870000000000007,-2.1984613599902674
-0.16970000000000018,-2.1956319373905373
-0.17070000000000007,-2.199876071290132
-0.17170000000000019,-2.215437895588648
-0.17270000000000008,-2.2111937616890525
-0.1737000000000002,-2.215437895588648
-0.17470000000000008,-2.229585008587298
-0.1757000000000002,-2.2338291424868926
-0.17670000000000008,-2.226755585987568
-0.1777000000000002,-2.2479762554855434
-0.17870000000000008,-2.250805678085273
-0.1797000000000002,-2.2451468328858133
-0.18070000000000008,-2.2592939458844636
-0.1817000000000002,-2.2748557701829792
-0.18270000000000008,-2.2691969249835187
-0.1837000000000002,-2.2748557701829792
-0.1847000000000001,-2.2904175944814944
-0.1857000000000002,-2.2946617283810897
-0.1867000000000001,-2.2918323057813597
-0.1877000000000002,-2.307394130079875
-0.1887000000000001,-2.3172971091789303
-0.1897000000000002,-2.3144676865791998
-0.1907000000000001,-2.3272000882779853
-0.1917000000000001,-2.3413472012766356
-0.19269999999999998,-2.3385177786769056
-0.1937000000000001,-2.3455913351762305
-0.19469999999999998,-2.359738448174881
-0.1957000000000001,-2.3696414272739363
-0.19669999999999999,-2.3682267159740715
-0.1977000000000001,-2.386617962872317
-0.1987,-2.396520941971372
-0.1997000000000001,-2.396520941971372
-0.2007,-2.4050092097705624
-0.2017000000000001,-2.426229879268538
-0.2027,-2.4191563227692128
-0.2037000000000001,-2.4347181470677284
-0.2047,-2.4474505487665135
-0.2057000000000001,-2.4531093939659736
-0.2067,-2.4545241052658384
-0.2077000000000001,-2.475744774763814
-0.2087,-2.4814036199632743
-0.2097000000000001,-2.4884771764625997
-0.2107,-2.4955507329619246
-0.2117000000000001,-2.5210155363594953
-0.2127,-2.5210155363594953
-0.2137000000000001,-2.5295038041586855
-0.2147,-2.5535538962563913
-0.2157000000000001,-2.5705304318547717
-0.2167,-2.5662862979551764
-0.21770000000000012,-2.588921678753017
-0.2187,-2.597409946552207
-0.21970000000000012,-2.6030687917516673
-0.2207,-2.6129717708507227
-0.22170000000000012,-2.6356071516485633
-0.2227,-2.6426807081478887
-0.22370000000000012,-2.6511689759470785
-0.2247,-2.6723896454450546
-0.22570000000000012,-2.6865367584437045
-0.2267,-2.6808779132442444
-0.22770000000000012,-2.7077574279416803
-0.22870000000000001,-2.7261486748399255
-0.22970000000000013,-2.7289780974396556
-0.23070000000000002,-2.744539921738171
-0.23170000000000013,-2.7714194364356066
-0.23270000000000002,-2.775663570335202
-0.23370000000000013,-2.7898106833338523
-0.23470000000000002,-2.813860775431558
-0.23570000000000013,-2.8308373110299385
-0.23670000000000002,-2.8379108675292635
-0.2376999999999999,-2.8577168257273744
-0.23870000000000002,-2.8831816291249446
-0.2396999999999999,-2.88742576302454
-0.24070000000000003,-2.9086464325225156
-0.24169999999999991,-2.942599503719276
-0.24270000000000003,-2.9468436376188714
-0.24369999999999992,-2.9624054619173865
-0.24470000000000003,-2.9878702653149576
-0.24569999999999992,-3.006261512213203
-0.24670000000000003,-3.013335068712528
-0.24769999999999992,-3.0402145834099636
-0.24870000000000003,-3.069923520707129
-0.24969999999999992,-3.07841178850632
-0.25070000000000003,-3.0968030354045655
-0.2516999999999999,-3.1307561066013263
-0.25270000000000004,-3.1378296631006513
-0.2536999999999999,-3.160465043898492
-0.25470000000000004,-3.1944181150952526
-0.2556999999999999,-3.214224073293363
-0.25670000000000004,-3.2269564749921487
-0.25769999999999993,-3.2637389687886396
-0.25870000000000004,-3.2892037721862106
-0.25969999999999993,-3.307595019084456
-0.26070000000000004,-3.328815688582431
-0.26169999999999993,-3.3698423162785174
-0.26270000000000004,-3.3839894292771677
-0.26369999999999993,-3.412283655274469
-0.26470000000000005,-3.4434073038714996
-0.26569999999999994,-3.4787750863681253
-0.26670000000000005,-3.4957516219665052
-0.26769999999999994,-3.539607672262322
-0.26870000000000005,-3.572146032159218
-0.26969999999999994,-3.586293145157868
-0.27070000000000005,-3.6216609276544935
-0.27169999999999994,-3.65702871015112
-0.27270000000000005,-3.67966409094896
-0.27369999999999994,-3.7122024508458558
-0.27470000000000006,-3.7546437898418072
-0.27569999999999995,-3.7871821497387033
-0.27670000000000006,-3.8069881079368133
-0.27769999999999995,-3.849429446932765
-0.27870000000000006,-3.8932854972285815
-0.27969999999999995,-3.915920878026421
-0.28070000000000006,-3.9555327944226426
-0.28169999999999995,-4.01070653511738
-0.28270000000000006,-4.03900076111468
-0.28369999999999995,-4.070124409711711
-0.28470000000000006,-4.1238834391065815
-0.28569999999999995,-4.164910066802668
-0.28670000000000007,-4.197448426699564
-0.28769999999999996,-4.24413389959511
-0.28870000000000007,-4.290819372490656
-0.28969999999999996,-4.331846000186743
-0.29070000000000007,-4.368628493983234
-0.29169999999999996,-4.436534636376755
-0.29270000000000007,-4.474731841473111
-0.29369999999999996,-4.518587891768927
-0.2947000000000001,-4.570932209863933
-0.29569999999999996,-4.623276527958939
-0.2967000000000001,-4.6614737330552956
-0.29769999999999996,-4.719476896349762
-0.2987000000000001,-4.771821214444769
-0.29969999999999997,-4.8128478421408545
-0.3007000000000001,-4.866606871535726
-0.30169999999999997,-4.927439457429923
-0.3027000000000001,-4.9840279094245235
-0.30369999999999997,-5.027883959720341
-0.3047000000000001,-5.0943753908139975
-0.30569999999999997,-5.155207976708193
-0.3067000000000001,-5.201893449603739
-0.3077,-5.2655554580976665
-0.3087000000000001,-5.340535156990514
-0.3097,-5.3900500524857895
-0.3107000000000001,-5.450882638379986
-0.3117,-5.530106471172428
-0.3127000000000001,-5.59235376836649
-0.3137,-5.650356931660957
-0.3147000000000001,-5.716848362754614
-0.3157,-5.7974869068469195
-0.3167000000000001,-5.854075358841522
-0.3177,-5.926225635134639
-0.3187000000000001,-6.01393773572627
-0.3197,-6.0719408990207375
-0.3207000000000001,-6.141261752714124
-0.3217,-6.230388564605621
-0.3227000000000001,-6.301124129598874
-0.3237,-6.374689117191855
-0.3247000000000001,-6.460986506483622
-0.3257,-6.543039761875795
-0.3267000000000001,-6.615190038168912
-0.3277,-6.694413870961354
-0.3287000000000001,-6.794858373251771
-0.3297,-6.859935093045563
-0.3307000000000001,-6.941988348437734
-0.3317,-7.043847562028017
-0.3327000000000001,-7.127315528720055
-0.3337,-7.200880516313037
-0.3347000000000001,-7.308398575102779
-0.3357,-7.406013654793467
-0.3367000000000001,-7.492311044085233
-0.3377,-7.591340835075788
-0.3387000000000001,-7.69037062606634
-0.3397,-7.779497437957836
-0.3407000000000001,-7.878527228948389
-0.3417,-7.9945335555373225
-0.3427000000000001,-8.089319212628281
-0.3437,-8.184104869719237
-0.3447000000000001,-8.29445235110871
-0.3457,-8.40904396639778
-0.3467000000000001,-8.484023665290625
-0.3477,-8.605688837079018
-0.3487000000000001,-8.723109874967816
-0.3497,-8.820724954658504
-0.3507000000000001,-8.929657724748111
-0.3517,-9.05839645303583
-0.3527000000000001,-9.171573357025034
-0.3537,-9.276261993215044
-0.3547000000000001,-9.403586010202897
-0.3557,-9.529495315890887
-0.35670000000000013,-9.635598663380765
-0.3577,-9.757263835169159
-0.35870000000000013,-9.895905542555932
-0.3597,-9.99635004484635
-0.36070000000000013,-10.120844639234473
-0.3617,-10.266559903120571
-0.3626999999999999,-10.385395652309235
-0.3637,-10.505646112797763
-0.3646999999999999,-10.65136137668386
-0.3657,-10.79990606316969
-0.3666999999999999,-10.921571234958083
-0.3677,-11.063042364944588
-0.3686999999999999,-11.225734164429067
-0.36970000000000003,-11.354472892716785
-0.3706999999999999,-11.476138064505177
-0.37170000000000003,-11.628926884890602
-0.3726999999999999,-11.761909747077915
-0.37370000000000003,-11.887819052765904
-0.3746999999999999,-12.053340274850113
-0.37570000000000003,-12.211787940434995
-0.3766999999999999,-12.346185513922174
-0.37770000000000004,-12.49048606650841
-0.3786999999999999,-12.637616041694372
-0.37970000000000004,-12.779087171680876
-0.3806999999999999,-12.92055830166738
-0.38170000000000004,-13.09173836895105
-0.38269999999999993,-13.245941900636339
-0.38370000000000004,-13.384583608023112
-0.38469999999999993,-13.555763675306782
-0.38570000000000004,-13.719870186091127
-0.38669999999999993,-13.857097182178034
-0.38770000000000004,-14.02403311556211
-0.38869999999999993,-14.189554337646317
-0.38970000000000005,-14.331025467632822
-0.39069999999999994,-14.486643710617974
-0.39170000000000005,-14.65640906660178
-0.39269999999999994,-14.826174422585586
-0.39370000000000005,-14.98179266557074
-0.39469999999999994,-15.165705134553193
-0.39570000000000005,-15.335470490536997
-0.39669999999999994,-15.491088733522153
-0.39770000000000005,-15.660854089505953
-0.39869999999999994,-15.844766558488407
-0.39970000000000006,-16.000384801473565
-0.40069999999999995,-16.170150157457368
-0.40170000000000006,-16.368209739438473
-0.40269999999999995,-16.52382798242363
-0.40370000000000006,-16.679446225408782
-0.40469999999999995,-16.863358694391238
-0.40570000000000006,-17.047271163373694
-0.40669999999999995,-17.20288940635885
-0.40770000000000006,-17.37265476234265
-0.40869999999999995,-17.570714344323754
-0.40970000000000006,-17.74047970030756
-0.41069999999999995,-17.910245056291366
-0.41170000000000007,-18.10830463827247
-0.41269999999999996,-18.27806999425627
-0.41370000000000007,-18.44783535024008
-0.41469999999999996,-18.660042045219836
-0.41570000000000007,-18.843954514202288
-0.41669999999999996,-19.01371987018609
-0.41770000000000007,-19.197632339168546
-0.41869999999999996,-19.409839034148305
-0.4197000000000001,-19.579604390132108
-0.42069999999999996,-19.763516859114564
-0.4217000000000001,-19.97572355409432
-0.42269999999999996,-20.159636023076775
-0.4237000000000001,-20.329401379060574
-0.42469999999999997,-20.541608074040333
-0.4257000000000001,-20.73966765602144
-0.42669999999999997,-20.93772723800254
-0.4277000000000001,-21.13578681998365
-0.42869999999999997,-21.347993514963402
-0.4297000000000001,-21.531905983945855
-0.43069999999999997,-21.729965565926964
-0.4317000000000001,-21.94217226090672
-0.4327,-22.140231842887825
-0.4337000000000001,-22.33829142486893
-0.4347,-22.550498119848687
-0.4357000000000001,-22.776851927827092
-0.4367,-22.960764396809545
-0.4377000000000001,-23.1729710917893
-0.4387,-23.41347201276636
-0.4397000000000001,-23.597384481748815
-0.4407,-23.809591176728567
-0.4417000000000001,-24.050092097705623
-0.4427,-24.262298792685378
-0.4437000000000001,-24.460358374666487
-0.4447,-24.70085929564354
-0.4457000000000001,-24.941360216620595
-0.4467,-25.1394197986017
-0.4477000000000001,-25.351626493581456
-0.4487,-25.57798030155986
-0.4497000000000001,-25.790186996539617
-0.4507,-26.002393691519377
-0.4517000000000001,-26.27118883849373
-0.4527,-26.511689759470787
-0.4537000000000001,-26.723896454450543
-0.4547,-26.97854448842625
-0.4557000000000001,-27.219045409403304
-0.4567,-27.445399217381713
-0.4577000000000001,-27.685900138358768
-0.4587,-27.940548172334477
-0.4597000000000001,-28.166901980312883
-0.4607,-28.379108675292635
-0.4617000000000001,-28.647903822266994
-0.4627,-28.88840474324405
-0.4637000000000001,-29.114758551222454
-0.4647,-29.369406585198163
-0.4657000000000001,-29.63820173217252
-0.4667,-29.878702653149578
-0.4677000000000001,-30.147497800123933
-0.4687,-30.416292947098288
-0.4697000000000001,-30.642646755076694
-0.4707,-30.897294789052403
-0.4717000000000001,-31.19438416202406
-0.4727,-31.449032195999767
-0.4737000000000001,-31.703680229975475
-0.4747,-31.986622489948477
-0.4757000000000001,-32.269564749921486
-0.4767,-32.52421278389719
-0.4777000000000001,-32.79300793087155
-0.4787,-33.09009730384321
-0.4797000000000001,-33.344745337818914
-0.4807,-33.61354048479327
-0.48170000000000013,-33.924776970763574
-0.4827,-34.193572117737936
-0.48370000000000013,-34.4906614907096
-0.4847,-34.773603750682604
-0.48570000000000013,-35.07069312365426
-0.4867,-35.353635383627264
-0.4876999999999999,-35.650724756598926
-0.4887,-35.97610835556789
-0.4896999999999999,-36.27319772853954
-0.4907,-36.584434214509855
-0.4916999999999999,-36.92396492647745
-0.4927,-37.235201412447765
-0.4936999999999999,-37.54643789841808
-0.49470000000000003,-37.88596861038568
-0.4956999999999999,-38.22549932235329
-0.49670000000000003,-38.522588695324956
-0.4976999999999999,-38.84797229429391
-0.49870000000000003,-39.187503006261515
-0.4996999999999999,-39.49873949223183
-0.5007,-39.79582886520348
-0.5016999999999999,-40.14950669016974
-0.5027,-40.4748902891387
-0.5036999999999999,-40.78612677510901
-0.5047,-41.12565748707661
-0.5056999999999999,-41.46518819904423
