Aug. 18, 2024   23:35:33
Cyclic Voltammetry
File: c:/users/guazh/data/20240813_batch_94_500/2024-08-15-exp126\exp126-2024-08-18t23_15_47-arkoh\exp126_cv_sr_400mvs_efin_-1800mv.bin
Data Source:  Experiment
Instrument Model:  CHI760E
Header: CV ran at 400 mVs
Note: 

Init E (V) = -1
High E (V) = -1
Low E (V) = -1.8
Final E (V) = -1
Init P/N = N
Scan Rate (V/s) = 0.4
Segment = 3
Sample Interval (V) = 0.001
Quiet Time (sec) = 2
Sensitivity (A/V) = 0.01
Comp R (ohm) = 1.6

Results:

Channel 1:
Segment 1:

Segment 2:

Segment 3:

Potential/V, Current/A

-1.000, 3.239e-6
-1.001, 3.239e-6
-1.002, 3.239e-6
-1.003, 3.239e-6
-1.004, 3.239e-6
-1.005, 3.239e-6
-1.006, 3.239e-6
-1.007, 3.239e-6
-1.008, 3.239e-6
-1.009, 6.322e-6
-1.010, 3.239e-6
-1.011, 3.239e-6
-1.012, 3.239e-6
-1.013, 3.239e-6
-1.014, 6.322e-6
-1.015, 3.239e-6
-1.016, 3.239e-6
-1.017, 6.322e-6
-1.018, 3.239e-6
-1.019, 3.239e-6
-1.020, 3.239e-6
-1.021, 6.322e-6
-1.022, 6.322e-6
-1.023, 6.322e-6
-1.024, 3.239e-6
-1.025, 6.322e-6
-1.026, 6.322e-6
-1.027, 6.322e-6
-1.028, 6.322e-6
-1.029, 6.322e-6
-1.030, 6.322e-6
-1.031, 6.322e-6
-1.032, 6.322e-6
-1.033, 6.322e-6
-1.034, 6.322e-6
-1.035, 6.322e-6
-1.036, 6.322e-6
-1.037, 6.322e-6
-1.038, 6.322e-6
-1.039, 6.322e-6
-1.040, 6.322e-6
-1.041, 6.322e-6
-1.042, 6.322e-6
-1.043, 6.322e-6
-1.044, 6.322e-6
-1.045, 6.322e-6
-1.046, 6.322e-6
-1.047, 6.322e-6
-1.048, 6.322e-6
-1.049, 6.322e-6
-1.050, 6.322e-6
-1.051, 6.322e-6
-1.052, 6.322e-6
-1.053, 6.322e-6
-1.054, 6.322e-6
-1.055, 6.322e-6
-1.056, 6.322e-6
-1.057, 6.322e-6
-1.058, 6.322e-6
-1.059, 6.322e-6
-1.060, 6.322e-6
-1.061, 6.322e-6
-1.062, 6.322e-6
-1.063, 6.322e-6
-1.064, 6.322e-6
-1.065, 6.322e-6
-1.066, 6.322e-6
-1.067, 6.322e-6
-1.068, 6.322e-6
-1.069, 6.322e-6
-1.070, 6.322e-6
-1.071, 6.322e-6
-1.072, 6.322e-6
-1.073, 6.322e-6
-1.074, 6.322e-6
-1.075, 6.322e-6
-1.076, 6.322e-6
-1.077, 6.322e-6
-1.078, 6.322e-6
-1.079, 6.322e-6
-1.080, 6.322e-6
-1.081, 6.322e-6
-1.082, 6.322e-6
-1.083, 6.322e-6
-1.084, 6.322e-6
-1.085, 6.322e-6
-1.086, 6.322e-6
-1.087, 6.322e-6
-1.088, 6.322e-6
-1.089, 6.322e-6
-1.090, 6.322e-6
-1.091, 6.322e-6
-1.092, 6.322e-6
-1.093, 6.322e-6
-1.094, 6.322e-6
-1.095, 6.322e-6
-1.096, 6.322e-6
-1.097, 6.322e-6
-1.098, 6.322e-6
-1.099, 6.322e-6
-1.100, 6.322e-6
-1.101, 6.322e-6
-1.102, 6.322e-6
-1.103, 6.322e-6
-1.104, 6.322e-6
-1.105, 6.322e-6
-1.106, 6.322e-6
-1.107, 6.322e-6
-1.108, 6.322e-6
-1.109, 6.322e-6
-1.110, 6.322e-6
-1.111, 6.322e-6
-1.112, 6.322e-6
-1.113, 6.322e-6
-1.114, 6.322e-6
-1.115, 6.322e-6
-1.116, 6.322e-6
-1.117, 6.322e-6
-1.118, 6.322e-6
-1.119, 6.322e-6
-1.120, 6.322e-6
-1.121, 6.322e-6
-1.122, 6.322e-6
-1.123, 6.322e-6
-1.124, 6.322e-6
-1.125, 6.322e-6
-1.126, 9.405e-6
-1.127, 6.322e-6
-1.128, 6.322e-6
-1.129, 6.322e-6
-1.130, 6.322e-6
-1.131, 9.405e-6
-1.132, 9.405e-6
-1.133, 9.405e-6
-1.134, 9.405e-6
-1.135, 6.322e-6
-1.136, 9.405e-6
-1.137, 9.405e-6
-1.138, 6.322e-6
-1.139, 9.405e-6
-1.140, 9.405e-6
-1.141, 9.405e-6
-1.142, 9.405e-6
-1.143, 9.405e-6
-1.144, 9.405e-6
-1.145, 9.405e-6
-1.146, 9.405e-6
-1.147, 9.405e-6
-1.148, 9.405e-6
-1.149, 9.405e-6
-1.150, 9.405e-6
-1.151, 9.405e-6
-1.152, 9.405e-6
-1.153, 9.405e-6
-1.154, 9.405e-6
-1.155, 9.405e-6
-1.156, 6.322e-6
-1.157, 9.405e-6
-1.158, 9.405e-6
-1.159, 9.405e-6
-1.160, 9.405e-6
-1.161, 9.405e-6
-1.162, 9.405e-6
-1.163, 9.405e-6
-1.164, 9.405e-6
-1.165, 9.405e-6
-1.166, 9.405e-6
-1.167, 9.405e-6
-1.168, 9.405e-6
-1.169, 9.405e-6
-1.170, 9.405e-6
-1.171, 9.405e-6
-1.172, 9.405e-6
-1.173, 9.405e-6
-1.174, 9.405e-6
-1.175, 9.405e-6
-1.176, 9.405e-6
-1.177, 9.405e-6
-1.178, 9.405e-6
-1.179, 9.405e-6
-1.180, 9.405e-6
-1.181, 9.405e-6
-1.182, 9.405e-6
-1.183, 9.405e-6
-1.184, 9.405e-6
-1.185, 9.405e-6
-1.186, 9.405e-6
-1.187, 9.405e-6
-1.188, 9.405e-6
-1.189, 9.405e-6
-1.190, 9.405e-6
-1.191, 9.405e-6
-1.192, 9.405e-6
-1.193, 9.405e-6
-1.194, 9.405e-6
-1.195, 9.405e-6
-1.196, 9.405e-6
-1.197, 9.405e-6
-1.198, 9.405e-6
-1.199, 9.405e-6
-1.200, 9.405e-6
-1.201, 9.405e-6
-1.202, 9.405e-6
-1.203, 9.405e-6
-1.204, 9.405e-6
-1.205, 9.405e-6
-1.206, 9.405e-6
-1.207, 9.405e-6
-1.208, 9.405e-6
-1.209, 9.405e-6
-1.210, 9.405e-6
-1.211, 9.405e-6
-1.212, 9.405e-6
-1.213, 9.405e-6
-1.214, 9.405e-6
-1.215, 9.405e-6
-1.216, 9.405e-6
-1.217, 9.405e-6
-1.218, 9.405e-6
-1.219, 9.405e-6
-1.220, 9.405e-6
-1.221, 9.405e-6
-1.222, 9.405e-6
-1.223, 9.405e-6
-1.224, 9.405e-6
-1.225, 9.405e-6
-1.226, 9.405e-6
-1.227, 9.405e-6
-1.228, 9.405e-6
-1.229, 9.405e-6
-1.230, 9.405e-6
-1.231, 1.249e-5
-1.232, 9.405e-6
-1.233, 1.249e-5
-1.234, 9.405e-6
-1.235, 9.405e-6
-1.236, 9.405e-6
-1.237, 9.405e-6
-1.238, 9.405e-6
-1.239, 9.405e-6
-1.240, 9.405e-6
-1.241, 9.405e-6
-1.242, 9.405e-6
-1.243, 1.249e-5
-1.244, 9.405e-6
-1.245, 9.405e-6
-1.246, 9.405e-6
-1.247, 9.405e-6
-1.248, 1.249e-5
-1.249, 9.405e-6
-1.250, 1.249e-5
-1.251, 9.405e-6
-1.252, 9.405e-6
-1.253, 1.249e-5
-1.254, 1.249e-5
-1.255, 1.249e-5
-1.256, 1.249e-5
-1.257, 1.249e-5
-1.258, 1.249e-5
-1.259, 1.249e-5
-1.260, 1.249e-5
-1.261, 1.249e-5
-1.262, 1.249e-5
-1.263, 1.249e-5
-1.264, 1.249e-5
-1.265, 1.249e-5
-1.266, 1.249e-5
-1.267, 1.249e-5
-1.268, 1.249e-5
-1.269, 1.249e-5
-1.270, 1.249e-5
-1.271, 1.249e-5
-1.272, 1.249e-5
-1.273, 1.249e-5
-1.274, 1.249e-5
-1.275, 1.249e-5
-1.276, 1.249e-5
-1.277, 1.249e-5
-1.278, 1.249e-5
-1.279, 1.249e-5
-1.280, 1.249e-5
-1.281, 1.249e-5
-1.282, 1.249e-5
-1.283, 1.249e-5
-1.284, 1.249e-5
-1.285, 1.249e-5
-1.286, 1.249e-5
-1.287, 1.249e-5
-1.288, 1.249e-5
-1.289, 1.249e-5
-1.290, 1.249e-5
-1.291, 1.249e-5
-1.292, 1.249e-5
-1.293, 1.249e-5
-1.294, 1.249e-5
-1.295, 1.249e-5
-1.296, 1.249e-5
-1.297, 1.249e-5
-1.298, 1.249e-5
-1.299, 1.557e-5
-1.300, 1.557e-5
-1.301, 1.557e-5
-1.302, 1.557e-5
-1.303, 1.557e-5
-1.304, 1.249e-5
-1.305, 1.557e-5
-1.306, 1.557e-5
-1.307, 1.557e-5
-1.308, 1.557e-5
-1.309, 1.557e-5
-1.310, 1.557e-5
-1.311, 1.557e-5
-1.312, 1.557e-5
-1.313, 1.557e-5
-1.314, 1.865e-5
-1.315, 1.865e-5
-1.316, 1.865e-5
-1.317, 1.865e-5
-1.318, 1.865e-5
-1.319, 1.865e-5
-1.320, 1.865e-5
-1.321, 1.865e-5
-1.322, 1.865e-5
-1.323, 1.865e-5
-1.324, 1.865e-5
-1.325, 1.865e-5
-1.326, 1.865e-5
-1.327, 1.865e-5
-1.328, 2.174e-5
-1.329, 2.174e-5
-1.330, 2.174e-5
-1.331, 2.174e-5
-1.332, 2.174e-5
-1.333, 2.174e-5
-1.334, 2.174e-5
-1.335, 2.174e-5
-1.336, 2.482e-5
-1.337, 2.174e-5
-1.338, 2.482e-5
-1.339, 2.482e-5
-1.340, 2.482e-5
-1.341, 2.482e-5
-1.342, 2.482e-5
-1.343, 2.790e-5
-1.344, 2.790e-5
-1.345, 2.790e-5
-1.346, 2.790e-5
-1.347, 2.790e-5
-1.348, 2.790e-5
-1.349, 2.790e-5
-1.350, 2.790e-5
-1.351, 3.099e-5
-1.352, 3.099e-5
-1.353, 3.099e-5
-1.354, 3.099e-5
-1.355, 3.099e-5
-1.356, 3.099e-5
-1.357, 3.099e-5
-1.358, 3.407e-5
-1.359, 3.407e-5
-1.360, 3.407e-5
-1.361, 3.407e-5
-1.362, 3.407e-5
-1.363, 3.715e-5
-1.364, 3.407e-5
-1.365, 3.715e-5
-1.366, 3.715e-5
-1.367, 3.715e-5
-1.368, 3.715e-5
-1.369, 3.715e-5
-1.370, 4.024e-5
-1.371, 4.024e-5
-1.372, 4.024e-5
-1.373, 4.024e-5
-1.374, 4.024e-5
-1.375, 4.332e-5
-1.376, 4.332e-5
-1.377, 4.332e-5
-1.378, 4.332e-5
-1.379, 4.332e-5
-1.380, 4.640e-5
-1.381, 4.640e-5
-1.382, 4.640e-5
-1.383, 4.640e-5
-1.384, 4.640e-5
-1.385, 4.640e-5
-1.386, 4.949e-5
-1.387, 4.949e-5
-1.388, 4.949e-5
-1.389, 5.257e-5
-1.390, 5.257e-5
-1.391, 5.257e-5
-1.392, 5.257e-5
-1.393, 5.565e-5
-1.394, 5.565e-5
-1.395, 5.565e-5
-1.396, 5.565e-5
-1.397, 5.565e-5
-1.398, 5.873e-5
-1.399, 5.873e-5
-1.400, 5.873e-5
-1.401, 5.873e-5
-1.402, 6.182e-5
-1.403, 6.182e-5
-1.404, 6.182e-5
-1.405, 6.182e-5
-1.406, 6.490e-5
-1.407, 6.490e-5
-1.408, 6.490e-5
-1.409, 6.490e-5
-1.410, 6.490e-5
-1.411, 6.798e-5
-1.412, 6.798e-5
-1.413, 6.798e-5
-1.414, 7.107e-5
-1.415, 7.107e-5
-1.416, 7.415e-5
-1.417, 7.415e-5
-1.418, 7.415e-5
-1.419, 7.723e-5
-1.420, 7.723e-5
-1.421, 7.723e-5
-1.422, 7.723e-5
-1.423, 8.032e-5
-1.424, 8.032e-5
-1.425, 8.032e-5
-1.426, 8.340e-5
-1.427, 8.340e-5
-1.428, 8.340e-5
-1.429, 8.648e-5
-1.430, 8.648e-5
-1.431, 8.648e-5
-1.432, 8.957e-5
-1.433, 8.957e-5
-1.434, 9.265e-5
-1.435, 9.265e-5
-1.436, 9.265e-5
-1.437, 9.573e-5
-1.438, 9.573e-5
-1.439, 9.573e-5
-1.440, 9.882e-5
-1.441, 9.882e-5
-1.442, 1.019e-4
-1.443, 1.019e-4
-1.444, 1.019e-4
-1.445, 1.050e-4
-1.446, 1.050e-4
-1.447, 1.050e-4
-1.448, 1.081e-4
-1.449, 1.111e-4
-1.450, 1.111e-4
-1.451, 1.111e-4
-1.452, 1.142e-4
-1.453, 1.142e-4
-1.454, 1.173e-4
-1.455, 1.173e-4
-1.456, 1.204e-4
-1.457, 1.204e-4
-1.458, 1.204e-4
-1.459, 1.204e-4
-1.460, 1.235e-4
-1.461, 1.266e-4
-1.462, 1.266e-4
-1.463, 1.266e-4
-1.464, 1.296e-4
-1.465, 1.296e-4
-1.466, 1.296e-4
-1.467, 1.296e-4
-1.468, 1.327e-4
-1.469, 1.358e-4
-1.470, 1.358e-4
-1.471, 1.389e-4
-1.472, 1.389e-4
-1.473, 1.389e-4
-1.474, 1.420e-4
-1.475, 1.420e-4
-1.476, 1.451e-4
-1.477, 1.451e-4
-1.478, 1.481e-4
-1.479, 1.481e-4
-1.480, 1.512e-4
-1.481, 1.512e-4
-1.482, 1.543e-4
-1.483, 1.543e-4
-1.484, 1.574e-4
-1.485, 1.574e-4
-1.486, 1.605e-4
-1.487, 1.605e-4
-1.488, 1.636e-4
-1.489, 1.636e-4
-1.490, 1.666e-4
-1.491, 1.666e-4
-1.492, 1.666e-4
-1.493, 1.697e-4
-1.494, 1.728e-4
-1.495, 1.728e-4
-1.496, 1.759e-4
-1.497, 1.759e-4
-1.498, 1.759e-4
-1.499, 1.821e-4
-1.500, 1.821e-4
-1.501, 1.821e-4
-1.502, 1.821e-4
-1.503, 1.882e-4
-1.504, 1.851e-4
-1.505, 1.882e-4
-1.506, 1.913e-4
-1.507, 1.913e-4
-1.508, 1.944e-4
-1.509, 1.944e-4
-1.510, 1.944e-4
-1.511, 1.975e-4
-1.512, 1.975e-4
-1.513, 2.006e-4
-1.514, 2.006e-4
-1.515, 2.067e-4
-1.516, 2.067e-4
-1.517, 2.098e-4
-1.518, 2.098e-4
-1.519, 2.129e-4
-1.520, 2.129e-4
-1.521, 2.160e-4
-1.522, 2.191e-4
-1.523, 2.221e-4
-1.524, 2.191e-4
-1.525, 2.221e-4
-1.526, 2.252e-4
-1.527, 2.283e-4
-1.528, 2.252e-4
-1.529, 2.283e-4
-1.530, 2.314e-4
-1.531, 2.345e-4
-1.532, 2.345e-4
-1.533, 2.376e-4
-1.534, 2.406e-4
-1.535, 2.437e-4
-1.536, 2.468e-4
-1.537, 2.468e-4
-1.538, 2.499e-4
-1.539, 2.499e-4
-1.540, 2.530e-4
-1.541, 2.561e-4
-1.542, 2.591e-4
-1.543, 2.591e-4
-1.544, 2.653e-4
-1.545, 2.622e-4
-1.546, 2.684e-4
-1.547, 2.776e-4
-1.548, 2.776e-4
-1.549, 2.807e-4
-1.550, 2.838e-4
-1.551, 2.838e-4
-1.552, 2.869e-4
-1.553, 2.900e-4
-1.554, 2.931e-4
-1.555, 2.931e-4
-1.556, 2.992e-4
-1.557, 2.961e-4
-1.558, 3.023e-4
-1.559, 3.054e-4
-1.560, 3.115e-4
-1.561, 3.085e-4
-1.562, 3.115e-4
-1.563, 3.146e-4
-1.564, 3.208e-4
-1.565, 3.208e-4
-1.566, 3.239e-4
-1.567, 3.300e-4
-1.568, 3.300e-4
-1.569, 3.331e-4
-1.570, 3.331e-4
-1.571, 3.362e-4
-1.572, 3.393e-4
-1.573, 3.455e-4
-1.574, 3.516e-4
-1.575, 3.516e-4
-1.576, 3.547e-4
-1.577, 3.640e-4
-1.578, 3.640e-4
-1.579, 3.732e-4
-1.580, 3.701e-4
-1.581, 3.763e-4
-1.582, 3.794e-4
-1.583, 3.825e-4
-1.584, 3.855e-4
-1.585, 3.886e-4
-1.586, 3.917e-4
-1.587, 3.948e-4
-1.588, 4.010e-4
-1.589, 4.102e-4
-1.590, 4.102e-4
-1.591, 4.164e-4
-1.592, 4.195e-4
-1.593, 4.195e-4
-1.594, 4.256e-4
-1.595, 4.225e-4
-1.596, 4.287e-4
-1.597, 4.318e-4
-1.598, 4.349e-4
-1.599, 4.380e-4
-1.600, 4.410e-4
-1.601, 4.441e-4
-1.602, 4.441e-4
-1.603, 4.534e-4
-1.604, 4.503e-4
-1.605, 4.534e-4
-1.606, 4.565e-4
-1.607, 4.657e-4
-1.608, 4.657e-4
-1.609, 4.688e-4
-1.610, 4.719e-4
-1.611, 4.750e-4
-1.612, 4.811e-4
-1.613, 4.811e-4
-1.614, 4.842e-4
-1.615, 4.904e-4
-1.616, 4.935e-4
-1.617, 4.935e-4
-1.618, 4.965e-4
-1.619, 4.996e-4
-1.620, 5.027e-4
-1.621, 5.058e-4
-1.622, 5.120e-4
-1.623, 5.058e-4
-1.624, 5.120e-4
-1.625, 5.150e-4
-1.626, 5.243e-4
-1.627, 5.243e-4
-1.628, 5.274e-4
-1.629, 5.305e-4
-1.630, 5.335e-4
-1.631, 5.366e-4
-1.632, 5.428e-4
-1.633, 5.459e-4
-1.634, 5.520e-4
-1.635, 5.520e-4
-1.636, 5.551e-4
-1.637, 5.582e-4
-1.638, 5.582e-4
-1.639, 5.674e-4
-1.640, 5.705e-4
-1.641, 5.767e-4
-1.642, 5.829e-4
-1.643, 5.859e-4
-1.644, 5.859e-4
-1.645, 5.921e-4
-1.646, 5.983e-4
-1.647, 6.014e-4
-1.648, 6.044e-4
-1.649, 6.044e-4
-1.650, 6.137e-4
-1.651, 6.106e-4
-1.652, 6.199e-4
-1.653, 6.260e-4
-1.654, 6.291e-4
-1.655, 6.384e-4
-1.656, 6.384e-4
-1.657, 6.476e-4
-1.658, 6.507e-4
-1.659, 6.599e-4
-1.660, 6.538e-4
-1.661, 6.569e-4
-1.662, 6.661e-4
-1.663, 6.661e-4
-1.664, 6.723e-4
-1.665, 6.815e-4
-1.666, 6.815e-4
-1.667, 6.877e-4
-1.668, 6.908e-4
-1.669, 7.000e-4
-1.670, 7.154e-4
-1.671, 7.124e-4
-1.672, 7.154e-4
-1.673, 7.216e-4
-1.674, 7.278e-4
-1.675, 7.339e-4
-1.676, 7.401e-4
-1.677, 7.463e-4
-1.678, 7.555e-4
-1.679, 7.494e-4
-1.680, 7.586e-4
-1.681, 7.617e-4
-1.682, 7.679e-4
-1.683, 7.709e-4
-1.684, 7.925e-4
-1.685, 8.079e-4
-1.686, 8.141e-4
-1.687, 8.203e-4
-1.688, 8.264e-4
-1.689, 8.326e-4
-1.690, 8.418e-4
-1.691, 8.449e-4
-1.692, 8.511e-4
-1.693, 8.573e-4
-1.694, 8.573e-4
-1.695, 8.696e-4
-1.696, 8.788e-4
-1.697, 8.819e-4
-1.698, 8.881e-4
-1.699, 9.004e-4
-1.700, 9.004e-4
-1.701, 9.097e-4
-1.702, 9.158e-4
-1.703, 9.220e-4
-1.704, 9.343e-4
-1.705, 9.313e-4
-1.706, 9.467e-4
-1.707, 9.559e-4
-1.708, 9.621e-4
-1.709, 9.683e-4
-1.710, 9.775e-4
-1.711, 9.868e-4
-1.712, 9.929e-4
-1.713, 9.991e-4
-1.714, 1.002e-3
-1.715, 1.014e-3
-1.716, 1.018e-3
-1.717, 1.021e-3
-1.718, 1.036e-3
-1.719, 1.039e-3
-1.720, 1.048e-3
-1.721, 1.067e-3
-1.722, 1.070e-3
-1.723, 1.076e-3
-1.724, 1.085e-3
-1.725, 1.092e-3
-1.726, 1.098e-3
-1.727, 1.110e-3
-1.728, 1.119e-3
-1.729, 1.132e-3
-1.730, 1.141e-3
-1.731, 1.150e-3
-1.732, 1.153e-3
-1.733, 1.159e-3
-1.734, 1.172e-3
-1.735, 1.184e-3
-1.736, 1.203e-3
-1.737, 1.206e-3
-1.738, 1.221e-3
-1.739, 1.227e-3
-1.740, 1.246e-3
-1.741, 1.255e-3
-1.742, 1.277e-3
-1.743, 1.277e-3
-1.744, 1.292e-3
-1.745, 1.304e-3
-1.746, 1.314e-3
-1.747, 1.335e-3
-1.748, 1.354e-3
-1.749, 1.357e-3
-1.750, 1.369e-3
-1.751, 1.388e-3
-1.752, 1.388e-3
-1.753, 1.415e-3
-1.754, 1.434e-3
-1.755, 1.443e-3
-1.756, 1.462e-3
-1.757, 1.468e-3
-1.758, 1.486e-3
-1.759, 1.492e-3
-1.760, 1.517e-3
-1.761, 1.529e-3
-1.762, 1.551e-3
-1.763, 1.566e-3
-1.764, 1.585e-3
-1.765, 1.597e-3
-1.766, 1.616e-3
-1.767, 1.643e-3
-1.768, 1.650e-3
-1.769, 1.671e-3
-1.770, 1.680e-3
-1.771, 1.705e-3
-1.772, 1.724e-3
-1.773, 1.736e-3
-1.774, 1.754e-3
-1.775, 1.788e-3
-1.776, 1.813e-3
-1.777, 1.847e-3
-1.778, 1.856e-3
-1.779, 1.881e-3
-1.780, 1.899e-3
-1.781, 1.912e-3
-1.782, 1.933e-3
-1.783, 1.964e-3
-1.784, 1.980e-3
-1.785, 1.998e-3
-1.786, 2.020e-3
-1.787, 2.047e-3
-1.788, 2.066e-3
-1.789, 2.087e-3
-1.790, 2.115e-3
-1.791, 2.140e-3
-1.792, 2.161e-3
-1.793, 2.186e-3
-1.794, 2.211e-3
-1.795, 2.238e-3
-1.796, 2.257e-3
-1.797, 2.288e-3
-1.798, 2.319e-3
-1.799, 2.334e-3
-1.800, 2.362e-3
-1.799, 2.353e-3
-1.798, 2.340e-3
-1.797, 2.340e-3
-1.796, 2.325e-3
-1.795, 2.312e-3
-1.794, 2.309e-3
-1.793, 2.291e-3
-1.792, 2.279e-3
-1.791, 2.266e-3
-1.790, 2.257e-3
-1.789, 2.238e-3
-1.788, 2.229e-3
-1.787, 2.217e-3
-1.786, 2.201e-3
-1.785, 2.195e-3
-1.784, 2.186e-3
-1.783, 2.168e-3
-1.782, 2.146e-3
-1.781, 2.137e-3
-1.780, 2.131e-3
-1.779, 2.106e-3
-1.778, 2.103e-3
-1.777, 2.094e-3
-1.776, 2.075e-3
-1.775, 2.057e-3
-1.774, 2.050e-3
-1.773, 2.035e-3
-1.772, 2.020e-3
-1.771, 2.007e-3
-1.770, 1.989e-3
-1.769, 1.980e-3
-1.768, 1.958e-3
-1.767, 1.943e-3
-1.766, 1.939e-3
-1.765, 1.921e-3
-1.764, 1.906e-3
-1.763, 1.893e-3
-1.762, 1.881e-3
-1.761, 1.865e-3
-1.760, 1.844e-3
-1.759, 1.835e-3
-1.758, 1.822e-3
-1.757, 1.810e-3
-1.756, 1.801e-3
-1.755, 1.779e-3
-1.754, 1.767e-3
-1.753, 1.754e-3
-1.752, 1.739e-3
-1.751, 1.727e-3
-1.750, 1.717e-3
-1.749, 1.690e-3
-1.748, 1.680e-3
-1.747, 1.668e-3
-1.746, 1.665e-3
-1.745, 1.647e-3
-1.744, 1.631e-3
-1.743, 1.619e-3
-1.742, 1.597e-3
-1.741, 1.585e-3
-1.740, 1.576e-3
-1.739, 1.563e-3
-1.738, 1.557e-3
-1.737, 1.536e-3
-1.736, 1.526e-3
-1.735, 1.511e-3
-1.734, 1.502e-3
-1.733, 1.489e-3
-1.732, 1.486e-3
-1.731, 1.471e-3
-1.730, 1.455e-3
-1.729, 1.446e-3
-1.728, 1.431e-3
-1.727, 1.406e-3
-1.726, 1.406e-3
-1.725, 1.391e-3
-1.724, 1.381e-3
-1.723, 1.366e-3
-1.722, 1.357e-3
-1.721, 1.341e-3
-1.720, 1.332e-3
-1.719, 1.320e-3
-1.718, 1.314e-3
-1.717, 1.298e-3
-1.716, 1.289e-3
-1.715, 1.273e-3
-1.714, 1.264e-3
-1.713, 1.273e-3
-1.712, 1.258e-3
-1.711, 1.249e-3
-1.710, 1.240e-3
-1.709, 1.227e-3
-1.708, 1.221e-3
-1.707, 1.209e-3
-1.706, 1.193e-3
-1.705, 1.190e-3
-1.704, 1.181e-3
-1.703, 1.172e-3
-1.702, 1.162e-3
-1.701, 1.150e-3
-1.700, 1.141e-3
-1.699, 1.129e-3
-1.698, 1.119e-3
-1.697, 1.104e-3
-1.696, 1.101e-3
-1.695, 1.085e-3
-1.694, 1.085e-3
-1.693, 1.070e-3
-1.692, 1.061e-3
-1.691, 1.058e-3
-1.690, 1.045e-3
-1.689, 1.033e-3
-1.688, 1.018e-3
-1.687, 1.021e-3
-1.686, 1.005e-3
-1.685, 9.960e-4
-1.684, 9.837e-4
-1.683, 9.744e-4
-1.682, 9.590e-4
-1.681, 9.528e-4
-1.680, 9.436e-4
-1.679, 9.343e-4
-1.678, 9.282e-4
-1.677, 9.220e-4
-1.676, 9.158e-4
-1.675, 9.004e-4
-1.674, 9.035e-4
-1.673, 8.881e-4
-1.672, 8.819e-4
-1.671, 8.727e-4
-1.670, 8.634e-4
-1.669, 8.573e-4
-1.668, 8.480e-4
-1.667, 8.418e-4
-1.666, 8.295e-4
-1.665, 8.264e-4
-1.664, 8.233e-4
-1.663, 8.141e-4
-1.662, 8.018e-4
-1.661, 7.925e-4
-1.660, 7.894e-4
-1.659, 7.740e-4
-1.658, 7.679e-4
-1.657, 7.586e-4
-1.656, 7.586e-4
-1.655, 7.524e-4
-1.654, 7.401e-4
-1.653, 7.370e-4
-1.652, 7.309e-4
-1.651, 7.247e-4
-1.650, 7.185e-4
-1.649, 7.062e-4
-1.648, 7.031e-4
-1.647, 6.969e-4
-1.646, 6.877e-4
-1.645, 6.877e-4
-1.644, 6.784e-4
-1.643, 6.723e-4
-1.642, 6.630e-4
-1.641, 6.538e-4
-1.640, 6.476e-4
-1.639, 6.476e-4
-1.638, 6.414e-4
-1.637, 6.291e-4
-1.636, 6.260e-4
-1.635, 6.199e-4
-1.634, 6.137e-4
-1.633, 6.106e-4
-1.632, 6.044e-4
-1.631, 5.952e-4
-1.630, 5.890e-4
-1.629, 5.859e-4
-1.628, 5.767e-4
-1.627, 5.705e-4
-1.626, 5.674e-4
-1.625, 5.613e-4
-1.624, 5.582e-4
-1.623, 5.489e-4
-1.622, 5.459e-4
-1.621, 5.428e-4
-1.620, 5.366e-4
-1.619, 5.243e-4
-1.618, 5.212e-4
-1.617, 5.181e-4
-1.616, 5.150e-4
-1.615, 5.120e-4
-1.614, 5.089e-4
-1.613, 5.089e-4
-1.612, 4.904e-4
-1.611, 4.904e-4
-1.610, 4.873e-4
-1.609, 4.811e-4
-1.608, 4.750e-4
-1.607, 4.688e-4
-1.606, 4.626e-4
-1.605, 4.595e-4
-1.604, 4.565e-4
-1.603, 4.503e-4
-1.602, 4.503e-4
-1.601, 4.441e-4
-1.600, 4.380e-4
-1.599, 4.318e-4
-1.598, 4.287e-4
-1.597, 4.287e-4
-1.596, 4.225e-4
-1.595, 4.225e-4
-1.594, 4.133e-4
-1.593, 4.133e-4
-1.592, 4.071e-4
-1.591, 4.071e-4
-1.590, 4.010e-4
-1.589, 3.948e-4
-1.588, 3.917e-4
-1.587, 3.855e-4
-1.586, 3.794e-4
-1.585, 3.763e-4
-1.584, 3.763e-4
-1.583, 3.701e-4
-1.582, 3.701e-4
-1.581, 3.670e-4
-1.580, 3.578e-4
-1.579, 3.547e-4
-1.578, 3.547e-4
-1.577, 3.516e-4
-1.576, 3.424e-4
-1.575, 3.455e-4
-1.574, 3.393e-4
-1.573, 3.393e-4
-1.572, 3.300e-4
-1.571, 3.300e-4
-1.570, 3.208e-4
-1.569, 3.208e-4
-1.568, 3.177e-4
-1.567, 3.146e-4
-1.566, 3.085e-4
-1.565, 3.085e-4
-1.564, 3.023e-4
-1.563, 2.992e-4
-1.562, 2.961e-4
-1.561, 2.992e-4
-1.560, 2.869e-4
-1.559, 2.900e-4
-1.558, 2.838e-4
-1.557, 2.838e-4
-1.556, 2.807e-4
-1.555, 2.746e-4
-1.554, 2.715e-4
-1.553, 2.684e-4
-1.552, 2.653e-4
-1.551, 2.684e-4
-1.550, 2.653e-4
-1.549, 2.591e-4
-1.548, 2.561e-4
-1.547, 2.530e-4
-1.546, 2.499e-4
-1.545, 2.468e-4
-1.544, 2.437e-4
-1.543, 2.406e-4
-1.542, 2.406e-4
-1.541, 2.406e-4
-1.540, 2.345e-4
-1.539, 2.345e-4
-1.538, 2.314e-4
-1.537, 2.252e-4
-1.536, 2.221e-4
-1.535, 2.221e-4
-1.534, 2.191e-4
-1.533, 2.160e-4
-1.532, 2.160e-4
-1.531, 2.129e-4
-1.530, 2.098e-4
-1.529, 2.067e-4
-1.528, 2.036e-4
-1.527, 2.006e-4
-1.526, 2.006e-4
-1.525, 2.006e-4
-1.524, 1.944e-4
-1.523, 1.944e-4
-1.522, 1.913e-4
-1.521, 1.944e-4
-1.520, 1.882e-4
-1.519, 1.851e-4
-1.518, 1.851e-4
-1.517, 1.821e-4
-1.516, 1.759e-4
-1.515, 1.790e-4
-1.514, 1.759e-4
-1.513, 1.728e-4
-1.512, 1.728e-4
-1.511, 1.666e-4
-1.510, 1.636e-4
-1.509, 1.666e-4
-1.508, 1.605e-4
-1.507, 1.605e-4
-1.506, 1.574e-4
-1.505, 1.543e-4
-1.504, 1.543e-4
-1.503, 1.543e-4
-1.502, 1.481e-4
-1.501, 1.481e-4
-1.500, 1.481e-4
-1.499, 1.451e-4
-1.498, 1.420e-4
-1.497, 1.420e-4
-1.496, 1.389e-4
-1.495, 1.389e-4
-1.494, 1.358e-4
-1.493, 1.327e-4
-1.492, 1.296e-4
-1.491, 1.327e-4
-1.490, 1.266e-4
-1.489, 1.266e-4
-1.488, 1.266e-4
-1.487, 1.235e-4
-1.486, 1.235e-4
-1.485, 1.204e-4
-1.484, 1.204e-4
-1.483, 1.173e-4
-1.482, 1.142e-4
-1.481, 1.142e-4
-1.480, 1.142e-4
-1.479, 1.081e-4
-1.478, 1.081e-4
-1.477, 1.081e-4
-1.476, 1.050e-4
-1.475, 1.050e-4
-1.474, 1.050e-4
-1.473, 1.019e-4
-1.472, 9.882e-5
-1.471, 9.882e-5
-1.470, 9.882e-5
-1.469, 9.573e-5
-1.468, 9.573e-5
-1.467, 9.573e-5
-1.466, 9.265e-5
-1.465, 8.957e-5
-1.464, 8.957e-5
-1.463, 8.957e-5
-1.462, 8.648e-5
-1.461, 8.648e-5
-1.460, 8.648e-5
-1.459, 8.340e-5
-1.458, 8.032e-5
-1.457, 8.032e-5
-1.456, 7.723e-5
-1.455, 8.032e-5
-1.454, 7.723e-5
-1.453, 7.723e-5
-1.452, 7.415e-5
-1.451, 7.415e-5
-1.450, 7.107e-5
-1.449, 7.107e-5
-1.448, 7.107e-5
-1.447, 7.107e-5
-1.446, 6.798e-5
-1.445, 6.798e-5
-1.444, 6.798e-5
-1.443, 6.798e-5
-1.442, 6.182e-5
-1.441, 6.490e-5
-1.440, 6.182e-5
-1.439, 6.182e-5
-1.438, 5.873e-5
-1.437, 5.873e-5
-1.436, 5.565e-5
-1.435, 5.873e-5
-1.434, 5.565e-5
-1.433, 5.565e-5
-1.432, 5.565e-5
-1.431, 5.257e-5
-1.430, 5.257e-5
-1.429, 5.257e-5
-1.428, 4.949e-5
-1.427, 4.949e-5
-1.426, 4.949e-5
-1.425, 4.640e-5
-1.424, 4.949e-5
-1.423, 4.640e-5
-1.422, 4.640e-5
-1.421, 4.332e-5
-1.420, 4.332e-5
-1.419, 4.332e-5
-1.418, 4.332e-5
-1.417, 4.024e-5
-1.416, 4.024e-5
-1.415, 4.024e-5
-1.414, 4.024e-5
-1.413, 3.715e-5
-1.412, 3.715e-5
-1.411, 3.715e-5
-1.410, 3.407e-5
-1.409, 3.407e-5
-1.408, 3.407e-5
-1.407, 3.407e-5
-1.406, 3.407e-5
-1.405, 3.099e-5
-1.404, 3.099e-5
-1.403, 3.099e-5
-1.402, 3.099e-5
-1.401, 3.099e-5
-1.400, 3.099e-5
-1.399, 2.790e-5
-1.398, 2.790e-5
-1.397, 2.790e-5
-1.396, 2.790e-5
-1.395, 2.482e-5
-1.394, 2.482e-5
-1.393, 2.482e-5
-1.392, 2.482e-5
-1.391, 2.482e-5
-1.390, 2.482e-5
-1.389, 2.482e-5
-1.388, 2.174e-5
-1.387, 2.174e-5
-1.386, 2.174e-5
-1.385, 1.865e-5
-1.384, 2.174e-5
-1.383, 1.865e-5
-1.382, 1.865e-5
-1.381, 1.865e-5
-1.380, 1.865e-5
-1.379, 1.865e-5
-1.378, 1.557e-5
-1.377, 1.557e-5
-1.376, 1.557e-5
-1.375, 1.557e-5
-1.374, 1.557e-5
-1.373, 1.557e-5
-1.372, 1.557e-5
-1.371, 1.557e-5
-1.370, 1.249e-5
-1.369, 1.557e-5
-1.368, 1.249e-5
-1.367, 1.249e-5
-1.366, 1.249e-5
-1.365, 1.249e-5
-1.364, 1.249e-5
-1.363, 1.249e-5
-1.362, 9.405e-6
-1.361, 9.405e-6
-1.360, 9.405e-6
-1.359, 9.405e-6
-1.358, 9.405e-6
-1.357, 9.405e-6
-1.356, 9.405e-6
-1.355, 9.405e-6
-1.354, 9.405e-6
-1.353, 9.405e-6
-1.352, 9.405e-6
-1.351, 9.405e-6
-1.350, 6.322e-6
-1.349, 6.322e-6
-1.348, 6.322e-6
-1.347, 6.322e-6
-1.346, 6.322e-6
-1.345, 6.322e-6
-1.344, 6.322e-6
-1.343, 6.322e-6
-1.342, 6.322e-6
-1.341, 6.322e-6
-1.340, 6.322e-6
-1.339, 6.322e-6
-1.338, 3.239e-6
-1.337, 6.322e-6
-1.336, 6.322e-6
-1.335, 3.239e-6
-1.334, 3.239e-6
-1.333, 3.239e-6
-1.332, 3.239e-6
-1.331, 3.239e-6
-1.330, 3.239e-6
-1.329, 3.239e-6
-1.328, 3.239e-6
-1.327, 3.239e-6
-1.326, 3.239e-6
-1.325, 3.239e-6
-1.324, 3.239e-6
-1.323, 3.239e-6
-1.322, 3.239e-6
-1.321, 3.239e-6
-1.320, 3.239e-6
-1.319, 3.239e-6
-1.318, 3.239e-6
-1.317, 1.559e-7
-1.316, 1.559e-7
-1.315, 3.239e-6
-1.314, 1.559e-7
-1.313, 1.559e-7
-1.312, 1.559e-7
-1.311, 1.559e-7
-1.310, 1.559e-7
-1.309, 1.559e-7
-1.308, 1.559e-7
-1.307, 1.559e-7
-1.306, 1.559e-7
-1.305, 1.559e-7
-1.304, 1.559e-7
-1.303, 1.559e-7
-1.302, 1.559e-7
-1.301, 1.559e-7
-1.300, 1.559e-7
-1.299, 1.559e-7
-1.298, 1.559e-7
-1.297, 1.559e-7
-1.296, 1.559e-7
-1.295, 1.559e-7
-1.294, 1.559e-7
-1.293, 1.559e-7
-1.292, 1.559e-7
-1.291, 1.559e-7
-1.290, 1.559e-7
-1.289, 1.559e-7
-1.288, 1.559e-7
-1.287, 1.559e-7
-1.286, 1.559e-7
-1.285, 1.559e-7
-1.284, 1.559e-7
-1.283, 1.559e-7
-1.282, -2.927e-6
-1.281, 1.559e-7
-1.280, 1.559e-7
-1.279, 1.559e-7
-1.278, -2.927e-6
-1.277, -2.927e-6
-1.276, -2.927e-6
-1.275, 1.559e-7
-1.274, 1.559e-7
-1.273, -2.927e-6
-1.272, -2.927e-6
-1.271, 1.559e-7
-1.270, -2.927e-6
-1.269, -2.927e-6
-1.268, -2.927e-6
-1.267, 1.559e-7
-1.266, -2.927e-6
-1.265, -2.927e-6
-1.264, 1.559e-7
-1.263, -2.927e-6
-1.262, 1.559e-7
-1.261, -2.927e-6
-1.260, -2.927e-6
-1.259, -2.927e-6
-1.258, 1.559e-7
-1.257, -2.927e-6
-1.256, -2.927e-6
-1.255, -2.927e-6
-1.254, 1.559e-7
-1.253, -2.927e-6
-1.252, -2.927e-6
-1.251, -2.927e-6
-1.250, -2.927e-6
-1.249, -2.927e-6
-1.248, 1.559e-7
-1.247, -2.927e-6
-1.246, -2.927e-6
-1.245, -2.927e-6
-1.244, 1.559e-7
-1.243, -2.927e-6
-1.242, -2.927e-6
-1.241, -2.927e-6
-1.240, -2.927e-6
-1.239, -2.927e-6
-1.238, -2.927e-6
-1.237, -2.927e-6
-1.236, -2.927e-6
-1.235, -2.927e-6
-1.234, -2.927e-6
-1.233, -2.927e-6
-1.232, -2.927e-6
-1.231, -2.927e-6
-1.230, -2.927e-6
-1.229, -2.927e-6
-1.228, -2.927e-6
-1.227, -2.927e-6
-1.226, -2.927e-6
-1.225, -2.927e-6
-1.224, -2.927e-6
-1.223, -2.927e-6
-1.222, -2.927e-6
-1.221, -2.927e-6
-1.220, -2.927e-6
-1.219, -2.927e-6
-1.218, -2.927e-6
-1.217, -2.927e-6
-1.216, -2.927e-6
-1.215, -2.927e-6
-1.214, -2.927e-6
-1.213, -2.927e-6
-1.212, -2.927e-6
-1.211, -2.927e-6
-1.210, -2.927e-6
-1.209, -2.927e-6
-1.208, -2.927e-6
-1.207, -2.927e-6
-1.206, -2.927e-6
-1.205, -2.927e-6
-1.204, -2.927e-6
-1.203, -2.927e-6
-1.202, -2.927e-6
-1.201, -2.927e-6
-1.200, -2.927e-6
-1.199, -2.927e-6
-1.198, -2.927e-6
-1.197, -2.927e-6
-1.196, -2.927e-6
-1.195, -2.927e-6
-1.194, -2.927e-6
-1.193, -2.927e-6
-1.192, -2.927e-6
-1.191, -2.927e-6
-1.190, -2.927e-6
-1.189, -2.927e-6
-1.188, -2.927e-6
-1.187, -2.927e-6
-1.186, -2.927e-6
-1.185, -2.927e-6
-1.184, -2.927e-6
-1.183, -2.927e-6
-1.182, -2.927e-6
-1.181, -2.927e-6
-1.180, -2.927e-6
-1.179, -2.927e-6
-1.178, -2.927e-6
-1.177, -2.927e-6
-1.176, -2.927e-6
-1.175, -2.927e-6
-1.174, -2.927e-6
-1.173, -2.927e-6
-1.172, -2.927e-6
-1.171, -2.927e-6
-1.170, -2.927e-6
-1.169, -2.927e-6
-1.168, -2.927e-6
-1.167, -2.927e-6
-1.166, -2.927e-6
-1.165, -2.927e-6
-1.164, -2.927e-6
-1.163, -2.927e-6
-1.162, -2.927e-6
-1.161, -2.927e-6
-1.160, -2.927e-6
-1.159, -2.927e-6
-1.158, -2.927e-6
-1.157, -2.927e-6
-1.156, -2.927e-6
-1.155, -2.927e-6
-1.154, -2.927e-6
-1.153, -2.927e-6
-1.152, -2.927e-6
-1.151, -2.927e-6
-1.150, -2.927e-6
-1.149, -2.927e-6
-1.148, -2.927e-6
-1.147, -2.927e-6
-1.146, -2.927e-6
-1.145, -2.927e-6
-1.144, -2.927e-6
-1.143, -2.927e-6
-1.142, -2.927e-6
-1.141, -2.927e-6
-1.140, -2.927e-6
-1.139, -2.927e-6
-1.138, -2.927e-6
-1.137, -2.927e-6
-1.136, -2.927e-6
-1.135, -2.927e-6
-1.134, -2.927e-6
-1.133, -2.927e-6
-1.132, -2.927e-6
-1.131, -2.927e-6
-1.130, -2.927e-6
-1.129, -2.927e-6
-1.128, -2.927e-6
-1.127, -2.927e-6
-1.126, -2.927e-6
-1.125, -2.927e-6
-1.124, -2.927e-6
-1.123, -2.927e-6
-1.122, -2.927e-6
-1.121, -2.927e-6
-1.120, -2.927e-6
-1.119, -2.927e-6
-1.118, -2.927e-6
-1.117, -2.927e-6
-1.116, -2.927e-6
-1.115, -2.927e-6
-1.114, -2.927e-6
-1.113, -2.927e-6
-1.112, -2.927e-6
-1.111, -2.927e-6
-1.110, -2.927e-6
-1.109, -2.927e-6
-1.108, -2.927e-6
-1.107, -2.927e-6
-1.106, -2.927e-6
-1.105, -2.927e-6
-1.104, -2.927e-6
-1.103, -2.927e-6
-1.102, -2.927e-6
-1.101, -2.927e-6
-1.100, -2.927e-6
-1.099, -2.927e-6
-1.098, -2.927e-6
-1.097, -2.927e-6
-1.096, -2.927e-6
-1.095, -2.927e-6
-1.094, -2.927e-6
-1.093, -2.927e-6
-1.092, -2.927e-6
-1.091, -2.927e-6
-1.090, -2.927e-6
-1.089, -2.927e-6
-1.088, -2.927e-6
-1.087, -2.927e-6
-1.086, -2.927e-6
-1.085, -2.927e-6
-1.084, -2.927e-6
-1.083, -2.927e-6
-1.082, -2.927e-6
-1.081, -2.927e-6
-1.080, -2.927e-6
-1.079, -2.927e-6
-1.078, -2.927e-6
-1.077, -2.927e-6
-1.076, -2.927e-6
-1.075, -2.927e-6
-1.074, -2.927e-6
-1.073, -2.927e-6
-1.072, -2.927e-6
-1.071, -2.927e-6
-1.070, -2.927e-6
-1.069, -2.927e-6
-1.068, -2.927e-6
-1.067, -2.927e-6
-1.066, -2.927e-6
-1.065, -2.927e-6
-1.064, -2.927e-6
-1.063, -2.927e-6
-1.062, -2.927e-6
-1.061, -2.927e-6
-1.060, -2.927e-6
-1.059, -2.927e-6
-1.058, -2.927e-6
-1.057, -2.927e-6
-1.056, -2.927e-6
-1.055, -2.927e-6
-1.054, -2.927e-6
-1.053, -2.927e-6
-1.052, -2.927e-6
-1.051, -2.927e-6
-1.050, -2.927e-6
-1.049, -2.927e-6
-1.048, -2.927e-6
-1.047, -2.927e-6
-1.046, -2.927e-6
-1.045, -2.927e-6
-1.044, -2.927e-6
-1.043, -2.927e-6
-1.042, -2.927e-6
-1.041, -2.927e-6
-1.040, -2.927e-6
-1.039, -2.927e-6
-1.038, -2.927e-6
-1.037, -2.927e-6
-1.036, -2.927e-6
-1.035, -2.927e-6
-1.034, -2.927e-6
-1.033, -2.927e-6
-1.032, -2.927e-6
-1.031, -2.927e-6
-1.030, -2.927e-6
-1.029, -2.927e-6
-1.028, -2.927e-6
-1.027, -2.927e-6
-1.026, -2.927e-6
-1.025, -2.927e-6
-1.024, -2.927e-6
-1.023, -2.927e-6
-1.022, -2.927e-6
-1.021, -2.927e-6
-1.020, -2.927e-6
-1.019, -2.927e-6
-1.018, -2.927e-6
-1.017, -2.927e-6
-1.016, -2.927e-6
-1.015, -2.927e-6
-1.014, -2.927e-6
-1.013, -2.927e-6
-1.012, -2.927e-6
-1.011, -2.927e-6
-1.010, -2.927e-6
-1.009, -2.927e-6
-1.008, -2.927e-6
-1.007, -2.927e-6
-1.006, -2.927e-6
-1.005, -2.927e-6
-1.004, -2.927e-6
-1.003, -2.927e-6
-1.002, -2.927e-6
-1.001, -2.927e-6
