Potential V vs RHE, Current mA cm-2
0.05339999999999995,-0.034193572117737936
0.05239999999999995,-0.03543851806161917
0.051399999999999946,-0.03597610835556788
0.050399999999999945,-0.036400521745527395
0.049399999999999944,-0.0368249351354869
0.04839999999999994,-0.037206907186450464
0.04739999999999994,-0.03761717346341132
0.04639999999999994,-0.037970851288377586
0.04539999999999994,-0.03832452911334384
0.04439999999999994,-0.038706501164307405
0.04339999999999994,-0.039074326102272315
0.04239999999999994,-0.03947044526623452
0.04139999999999994,-0.03983827020419943
0.040399999999999936,-0.04017780091616704
0.039399999999999935,-0.0405597729671306
0.038399999999999934,-0.04094174501809417
0.03739999999999993,-0.04132371706905772
0.03639999999999993,-0.04169154200702263
0.03539999999999993,-0.04204521983198889
0.03439999999999993,-0.04239889765695515
0.03339999999999993,-0.04279501682091736
0.03239999999999993,-0.043205283097878217
0.03139999999999993,-0.04358725514884178
0.030399999999999927,-0.04394093297380804
0.029399999999999926,-0.044308757911772946
0.028399999999999925,-0.04471902418873381
0.027399999999999924,-0.045100996239697363
0.026399999999999924,-0.04549711540365958
0.025399999999999923,-0.04587908745462314
0.024399999999999922,-0.04624691239258805
0.02339999999999992,-0.04664303155655026
0.02239999999999992,-0.04706744494650977
0.02139999999999992,-0.04744941699747333
0.020399999999999918,-0.04783138904843689
0.019399999999999917,-0.04824165532539775
0.018399999999999916,-0.04865192160235861
0.017399999999999916,-0.04909048210531677
0.016399999999999915,-0.049472454156280335
0.015399999999999914,-0.04986857332024254
0.014399999999999913,-0.0502505453712061
0.013399999999999912,-0.050660811648166965
0.012399999999999911,-0.051113519264123775
0.01139999999999991,-0.05150963842808598
0.01039999999999991,-0.051934051818045494
0.009399999999999908,-0.05233017098200771
0.008399999999999908,-0.052768731484965865
0.007399999999999907,-0.05320729198792403
0.006399999999999906,-0.053617558264884894
0.005399999999999905,-0.05402782454184575
0.004399999999999904,-0.05446638504480392
0.003399999999999903,-0.054876651321764766
0.002399999999999902,-0.05532935893772159
0.0013999999999999013,-0.05573962521468245
0.00039999999999990044,-0.056164038604641954
-0.0006000000000001005,-0.05658845199460146
-0.0016000000000001013,-0.05702701249755963
-0.0026000000000001022,-0.05746557300051779
-0.003600000000000103,-0.057904133503475945
-0.004600000000000104,-0.05831439978043681
-0.005600000000000105,-0.05873881317039633
-0.006600000000000106,-0.05917737367335448
-0.007600000000000107,-0.05961593417631265
-0.008600000000000108,-0.060026200453273504
-0.009600000000000108,-0.06045061384323301
-0.01060000000000011,-0.06087502723319253
-0.01160000000000011,-0.06134188196214799
-0.012600000000000111,-0.06182288380410209
-0.013600000000000112,-0.062247297194061614
-0.014600000000000113,-0.06268585769701977
-0.015600000000000114,-0.06312441819997792
-0.016600000000000115,-0.06360542004193205
-0.017600000000000116,-0.06405812765788886
-0.018600000000000116,-0.06452498238684433
-0.019600000000000117,-0.06496354288980248
-0.020600000000000118,-0.06538795627976199
-0.02160000000000012,-0.0658406638957188
-0.02260000000000012,-0.06630751862467427
-0.02360000000000012,-0.06674607912763245
-0.024600000000000122,-0.06718463963059058
-0.025600000000000123,-0.06762320013354876
-0.026600000000000124,-0.06809005486250422
-0.027600000000000124,-0.06855690959145967
-0.028600000000000125,-0.0689813229814192
-0.029600000000000126,-0.06941988348437735
-0.030600000000000127,-0.06987259110033416
-0.03160000000000013,-0.07033944582928962
-0.03260000000000013,-0.07080630055824509
-0.03360000000000013,-0.0712590081742019
-0.03460000000000002,-0.07168342156416141
-0.03560000000000002,-0.07213612918011822
-0.03660000000000002,-0.07257468968307638
-0.03760000000000002,-0.07304154441203185
-0.03860000000000002,-0.07349425202798866
-0.039600000000000024,-0.07391866541794817
-0.040600000000000025,-0.07435722592090632
-0.041600000000000026,-0.07478163931086583
-0.04260000000000003,-0.07524849403982131
-0.04360000000000003,-0.07570120165577811
-0.04460000000000003,-0.07611146793273897
-0.04560000000000003,-0.07652173420969983
-0.04660000000000003,-0.07696029471265799
-0.04760000000000003,-0.07741300232861481
-0.04860000000000003,-0.07785156283157296
-0.04960000000000003,-0.07826182910853383
-0.050600000000000034,-0.07870038961149198
-0.051600000000000035,-0.0791248030014515
-0.052600000000000036,-0.079549216391411
-0.053600000000000037,-0.07997362978137053
-0.05460000000000004,-0.08035560183233408
-0.05560000000000004,-0.08076586810929494
-0.05660000000000004,-0.08119028149925445
-0.05760000000000004,-0.08161469488921397
-0.05860000000000004,-0.08202496116617483
-0.05960000000000004,-0.0824352274431357
-0.06060000000000004,-0.0828030523811006
-0.061600000000000044,-0.08319917154506282
-0.06260000000000004,-0.08359529070902501
-0.06360000000000005,-0.08396311564698994
-0.06460000000000005,-0.08433094058495484
-0.06560000000000005,-0.08469876552291973
-0.06660000000000005,-0.08509488468688196
-0.06760000000000005,-0.08547685673784551
-0.06860000000000005,-0.08585882878880907
-0.06960000000000005,-0.08619835950077669
-0.07060000000000005,-0.08655203732574294
-0.07160000000000005,-0.0869057151507092
-0.07260000000000005,-0.0872735400886741
-0.07360000000000005,-0.08758477657464442
-0.07460000000000006,-0.08791016017361337
-0.07560000000000006,-0.08823554377258234
-0.07660000000000006,-0.0885609273715513
-0.07760000000000006,-0.08891460519651756
-0.07860000000000006,-0.08925413590848516
-0.07960000000000006,-0.08953707816845817
-0.08060000000000006,-0.08986246176742714
-0.08160000000000006,-0.09014540402740015
-0.08260000000000006,-0.09048493473936775
-0.08360000000000006,-0.0908103183383367
-0.08460000000000006,-0.09107911348531106
-0.08560000000000006,-0.09137620285828273
-0.08660000000000007,-0.09164499800525706
-0.08760000000000007,-0.09194208737822873
-0.08860000000000007,-0.09221088252520308
-0.08960000000000007,-0.09247967767217745
-0.09060000000000007,-0.0927484728191518
-0.09160000000000007,-0.09300312085312752
-0.09260000000000007,-0.09327191600010187
-0.09360000000000007,-0.09351241692107892
-0.09460000000000007,-0.09372462361605868
-0.09560000000000007,-0.09395097742403709
-0.09660000000000007,-0.0941773312320155
-0.09760000000000008,-0.09441783215299256
-0.09860000000000008,-0.09464418596097096
-0.09960000000000008,-0.09485639265595071
-0.10060000000000008,-0.09504030512493315
-0.10160000000000008,-0.09523836470691427
-0.10260000000000008,-0.09545057140189403
-0.10360000000000008,-0.09564863098387513
-0.10460000000000008,-0.09581839633985893
-0.10560000000000008,-0.09598816169584275
-0.10660000000000008,-0.09614377993882789
-0.10760000000000008,-0.09632769240781036
-0.10860000000000009,-0.0964833106507955
-0.10960000000000009,-0.096624781780782
-0.11060000000000009,-0.0967662529107685
-0.11160000000000009,-0.09689357692775637
-0.11260000000000009,-0.09704919517074152
-0.11360000000000009,-0.09716237207473072
-0.11460000000000009,-0.09730384320471722
-0.11560000000000009,-0.09740287299570777
-0.11660000000000009,-0.09747360856070103
-0.1176000000000001,-0.09758678546469024
-0.1186000000000001,-0.09771410948167808
-0.1196000000000001,-0.0977706979336727
-0.1206000000000001,-0.09785558061166459
-0.1216000000000001,-0.09792631617665784
-0.1226000000000001,-0.09802534596764839
-0.1236000000000001,-0.09809608153264164
-0.1246000000000001,-0.09813852287163759
-0.1256000000000001,-0.09818096421063353
-0.1266000000000001,-0.09823755266262815
-0.1276000000000001,-0.0983082882276214
-0.1286000000000001,-0.098364876679616
-0.1296000000000001,-0.09837902379261465
-0.1306000000000001,-0.09839317090561331
-0.1316000000000001,-0.0984214651316106
-0.1326000000000001,-0.0984497593576079
-0.1336000000000001,-0.0984780535836052
-0.1346000000000001,-0.0984780535836052
-0.1356000000000001,-0.09846390647060656
-0.1366000000000001,-0.0984497593576079
-0.1376000000000001,-0.0984780535836052
-0.1386000000000001,-0.0984780535836052
-0.1396000000000001,-0.09843561224460926
-0.1406000000000001,-0.09840731801861195
-0.14160000000000011,-0.09837902379261465
-0.14260000000000012,-0.09837902379261465
-0.14360000000000012,-0.09835072956661735
-0.14460000000000012,-0.09827999400162409
-0.14560000000000012,-0.09823755266262815
-0.14660000000000012,-0.09820925843663084
-0.14760000000000012,-0.09816681709763489
-0.14860000000000012,-0.09812437575863896
-0.14960000000000012,-0.09803949308064704
-0.15060000000000012,-0.09798290462865245
-0.15160000000000012,-0.09789802195066052
-0.15260000000000012,-0.09786972772466324
-0.15360000000000013,-0.09779899215966999
-0.15460000000000013,-0.09768581525568078
-0.15560000000000013,-0.09762922680368619
-0.15660000000000013,-0.09754434412569428
-0.15760000000000013,-0.09748775567369967
-0.15860000000000013,-0.09740287299570777
-0.15960000000000002,-0.09727554897871993
-0.16060000000000002,-0.09719066630072802
-0.16160000000000002,-0.09709163650973747
-0.16260000000000002,-0.0970209009447442
-0.16360000000000002,-0.09692187115375367
-0.16460000000000002,-0.09680869424976446
-0.16560000000000002,-0.09675210579776986
-0.16660000000000003,-0.09666722311977795
-0.16760000000000003,-0.09653989910279011
-0.16860000000000003,-0.0964267221988009
-0.16960000000000003,-0.0962852510688144
-0.17060000000000003,-0.09617207416482519
-0.17160000000000003,-0.09604475014783734
-0.17260000000000003,-0.09591742613084948
-0.17360000000000003,-0.09581839633985893
-0.17460000000000003,-0.09566277809687378
-0.17560000000000003,-0.09553545407988592
-0.17660000000000003,-0.09537983583690077
-0.17760000000000004,-0.09528080604591022
-0.17860000000000004,-0.09516762914192102
-0.17960000000000004,-0.09502615801193452
-0.18060000000000004,-0.09488468688194801
-0.18160000000000004,-0.0947432157519615
-0.18260000000000004,-0.0946300388479723
-0.18360000000000004,-0.09450271483098445
-0.18460000000000004,-0.0943470965879993
-0.18560000000000004,-0.09419147834501414
-0.18660000000000004,-0.09405000721502763
-0.18760000000000004,-0.09393683031103843
-0.18860000000000005,-0.09379535918105193
-0.18960000000000005,-0.09361144671206949
-0.19060000000000005,-0.09348412269508162
-0.19160000000000005,-0.09334265156509512
-0.19260000000000005,-0.09321532754810727
-0.19360000000000005,-0.09307385641812077
-0.19460000000000005,-0.09293238528813427
-0.19560000000000005,-0.09276261993215046
-0.19660000000000005,-0.09260700168916529
-0.19760000000000005,-0.09247967767217745
-0.19860000000000005,-0.0923523536551896
-0.19960000000000006,-0.09218258829920578
-0.20060000000000006,-0.09202697005622064
-0.20160000000000006,-0.09187135181323548
-0.20260000000000006,-0.09174402779624763
-0.20360000000000006,-0.09160255666626112
-0.20460000000000006,-0.09144693842327598
-0.20560000000000006,-0.09131961440628812
-0.20660000000000006,-0.09114984905030431
-0.20760000000000006,-0.09102252503331647
-0.20860000000000006,-0.09089520101632861
-0.20960000000000006,-0.0907254356603448
-0.21060000000000006,-0.09056981741735964
-0.21160000000000007,-0.0904141991743745
-0.21260000000000007,-0.09027272804438799
-0.21360000000000007,-0.09014540402740015
-0.21460000000000007,-0.08998978578441498
-0.21560000000000007,-0.08983416754142984
-0.21660000000000007,-0.08969269641144333
-0.21760000000000007,-0.08957951950745412
-0.21860000000000007,-0.08945219549046628
-0.21960000000000007,-0.08928243013448246
-0.22060000000000007,-0.0891268118914973
-0.22160000000000007,-0.08897119364851215
-0.22260000000000008,-0.08884386963152431
-0.22360000000000008,-0.08871654561453644
-0.22460000000000008,-0.08854678025855263
-0.22560000000000008,-0.0884194562415648
-0.22660000000000008,-0.08826383799857963
-0.22760000000000008,-0.08815066109459044
-0.22860000000000008,-0.08802333707760258
-0.22960000000000008,-0.08789601306061473
-0.23060000000000008,-0.08775454193062822
-0.23160000000000008,-0.08761307080064172
-0.23260000000000008,-0.08751404100965117
-0.23360000000000009,-0.08740086410566196
-0.2346000000000001,-0.08725939297567546
-0.2356000000000001,-0.08711792184568896
-0.2366000000000001,-0.08697645071570247
-0.2376000000000001,-0.0868491266987146
-0.2386000000000001,-0.08675009690772406
-0.2396000000000001,-0.08660862577773754
-0.2406000000000001,-0.0864813017607497
-0.2416000000000001,-0.08631153640476588
-0.2426000000000001,-0.08621250661377533
-0.2436000000000001,-0.08612762393578344
-0.2446000000000001,-0.08597200569279828
-0.2456000000000001,-0.08583053456281178
-0.2466000000000001,-0.08570321054582393
-0.2476000000000001,-0.08557588652883606
-0.2486000000000001,-0.08550515096384281
-0.2496000000000001,-0.08534953272085766
-0.2506000000000001,-0.08520806159087116
-0.2516000000000001,-0.0850807375738833
-0.2526000000000001,-0.0849675606698941
-0.2536000000000001,-0.08486853087890354
-0.2546000000000001,-0.0847412068619157
-0.2556000000000001,-0.08461388284492784
-0.2566000000000001,-0.08448655882793998
-0.2576000000000001,-0.08438752903694943
-0.2586000000000001,-0.08430264635895754
-0.2596000000000001,-0.08416117522897103
-0.2606000000000001,-0.08403385121198319
-0.2616000000000001,-0.08393482142099262
-0.2626000000000001,-0.08384993874300072
-0.2636000000000001,-0.08375090895201018
-0.2646000000000001,-0.08363773204802097
-0.2656000000000001,-0.08352455514403176
-0.2666000000000001,-0.08341137824004256
-0.2676000000000001,-0.08335478978804794
-0.2686000000000001,-0.08324161288405875
-0.2696000000000001,-0.08312843598006955
-0.2706000000000001,-0.083029406189079
-0.2716000000000001,-0.08293037639808845
-0.2726000000000001,-0.08284549372009656
-0.2736000000000001,-0.08276061104210465
-0.2746000000000001,-0.08264743413811544
-0.2756000000000001,-0.08252011012112759
-0.2766000000000001,-0.08240693321713838
-0.2776000000000001,-0.08232205053914649
-0.2786000000000001,-0.08225131497415322
-0.2796000000000001,-0.08212399095716538
-0.2806000000000001,-0.08202496116617483
-0.28160000000000013,-0.08191178426218561
-0.28260000000000013,-0.08181275447119508
-0.28360000000000013,-0.08175616601920047
-0.2846,-0.08162884200221261
-0.2856,-0.08152981221122206
-0.2866,-0.08144492953323015
-0.2876,-0.08136004685523826
-0.2886,-0.08128931129024501
-0.2896,-0.08117613438625582
-0.2906,-0.08107710459526525
-0.2916,-0.0809780748042747
-0.2926,-0.0808931921262828
-0.2936,-0.08085075078728685
-0.29460000000000003,-0.08073757388329764
-0.29560000000000003,-0.08063854409230709
-0.29660000000000003,-0.08053951430131655
-0.29760000000000003,-0.08045463162332463
-0.29860000000000003,-0.08039804317133004
-0.29960000000000003,-0.08031316049333813
-0.30060000000000003,-0.08019998358934893
-0.30160000000000003,-0.08011510091135703
-0.30260000000000004,-0.08005851245936244
-0.30360000000000004,-0.07998777689436919
-0.30460000000000004,-0.07988874710337862
-0.30560000000000004,-0.07980386442538671
-0.30660000000000004,-0.07974727597339212
-0.30760000000000004,-0.07967654040839886
-0.30860000000000004,-0.07960580484340561
-0.30960000000000004,-0.07953506927841236
-0.31060000000000004,-0.0794360394874218
-0.31160000000000004,-0.0793511568094299
-0.31260000000000004,-0.07930871547043396
-0.31360000000000005,-0.07922383279244205
-0.31460000000000005,-0.07913895011445016
-0.31560000000000005,-0.07906821454945691
-0.31660000000000005,-0.07899747898446366
-0.31760000000000005,-0.0789267434194704
-0.31860000000000005,-0.07888430208047445
-0.31960000000000005,-0.07882771362847985
-0.32060000000000005,-0.07877112517648524
-0.32160000000000005,-0.07867209538549469
-0.32260000000000005,-0.07860135982050144
-0.32360000000000005,-0.07855891848150548
-0.32460000000000006,-0.07847403580351359
-0.32560000000000006,-0.0783891531255217
-0.32660000000000006,-0.07831841756052843
-0.32760000000000006,-0.07826182910853383
-0.32860000000000006,-0.07820524065653922
-0.32960000000000006,-0.07812035797854733
-0.33060000000000006,-0.07803547530055543
-0.33160000000000006,-0.07799303396155947
-0.33260000000000006,-0.07792229839656621
-0.33360000000000006,-0.07789400417056892
-0.33460000000000006,-0.07780912149257702
-0.33560000000000006,-0.07772423881458512
-0.33660000000000007,-0.07768179747558916
-0.33760000000000007,-0.07761106191059591
-0.33860000000000007,-0.07755447345860131
-0.33960000000000007,-0.0774978850066067
-0.34060000000000007,-0.07739885521561615
-0.34160000000000007,-0.0773564138766202
-0.34260000000000007,-0.0772998254246256
-0.34360000000000007,-0.07725738408562965
-0.3446000000000001,-0.07720079563363505
-0.3456000000000001,-0.0771017658426445
-0.3466000000000001,-0.07704517739064991
-0.34759999999999996,-0.07701688316465259
-0.3486000000000001,-0.07696029471265799
-0.34959999999999997,-0.0769037062606634
-0.3506000000000001,-0.07681882358267149
-0.35159999999999997,-0.0767622351306769
-0.3526000000000001,-0.07671979379168092
-0.35359999999999997,-0.07669149956568365
-0.3546000000000001,-0.0766207640006904
-0.35559999999999997,-0.07657832266169443
-0.3566000000000001,-0.07649343998370253
-0.3576,-0.07646514575770523
-0.3586000000000001,-0.07645099864470659
-0.3596,-0.07638026307971334
-0.3606000000000001,-0.07632367462771873
-0.3616,-0.07625293906272547
-0.3626000000000001,-0.07621049772372954
-0.3636,-0.07619635061073088
-0.3646000000000001,-0.07613976215873627
-0.3656,-0.07609732081974033
-0.3666000000000001,-0.07606902659374302
-0.3676,-0.07605487948074438
-0.3686000000000001,-0.07605487948074438
-0.3696,-0.07599829102874978
-0.3706000000000001,-0.07594170257675517
-0.3716,-0.07585681989876326
-0.3726000000000001,-0.07577193722077137
-0.3736,-0.07574364299477407
-0.3746000000000001,-0.07572949588177541
-0.3756,-0.0756446132037835
-0.3766000000000001,-0.0756163189777862
-0.3776,-0.07558802475178891
-0.3786000000000001,-0.07554558341279295
-0.3796,-0.075503142073797
-0.3806000000000001,-0.0754182593958051
-0.3816,-0.07538996516980781
-0.3826000000000001,-0.07537581805680914
-0.3836,-0.0753333767178132
-0.3846000000000001,-0.07529093537881726
-0.3856,-0.07522019981382401
-0.3866000000000001,-0.07516361136182939
-0.3876,-0.07514946424883075
-0.3886000000000001,-0.0751070229098348
-0.3896,-0.0750787286838375
-0.3906000000000001,-0.07503628734484155
-0.3916,-0.07499384600584559
-0.3926000000000001,-0.07497969889284695
-0.3936,-0.074937257553851
-0.3946000000000001,-0.0749089633278537
-0.3956,-0.07485237487585908
-0.3966000000000001,-0.07480993353686313
-0.3976,-0.07478163931086583
-0.3986000000000001,-0.07476749219786719
-0.3996,-0.07472505085887124
-0.4006000000000001,-0.07468260951987529
-0.4016,-0.07464016818087933
-0.4026000000000001,-0.07459772684188339
-0.4036,-0.07459772684188339
-0.4046000000000001,-0.07454113838988878
-0.4056,-0.07451284416389148
-0.40660000000000013,-0.07448454993789419
-0.4076,-0.07442796148589957
-0.40860000000000013,-0.07444210859889823
-0.4096,-0.07441381437290093
-0.41060000000000013,-0.07437137303390498
-0.4116,-0.07432893169490903
-0.41260000000000013,-0.07430063746891173
-0.4136,-0.07430063746891173
-0.41460000000000014,-0.07428649035591307
-0.4156,-0.07422990190391847
-0.41660000000000014,-0.07420160767792117
-0.4176,-0.07415916633892522
-0.41860000000000014,-0.07415916633892522
-0.41960000000000003,-0.07411672499992927
-0.42060000000000014,-0.07408843077393197
-0.42160000000000003,-0.07410257788693062
-0.42260000000000014,-0.07408843077393197
-0.42360000000000003,-0.07404598943493602
-0.42460000000000014,-0.07403184232193737
-0.42560000000000003,-0.07397525386994278
-0.42660000000000015,-0.07397525386994278
-0.42760000000000004,-0.07396110675694412
-0.42860000000000015,-0.07397525386994278
-0.42960000000000004,-0.07394695964394547
-0.43060000000000015,-0.07391866541794817
-0.43160000000000004,-0.07389037119195085
-0.43260000000000015,-0.07389037119195085
-0.43360000000000004,-0.07386207696595355
-0.43460000000000015,-0.07386207696595355
-0.43560000000000004,-0.07384792985295491
-0.43660000000000015,-0.07380548851395898
