Potential V vs RHE, Current mA cm-2
0.013299999999999867,-0.4280916393391601
0.012299999999999978,-0.9863367182659035
0.011299999999999866,-1.2582442300999634
0.010299999999999976,-1.431687835463417
0.009299999999999864,-1.5618412750510005
0.008299999999999974,-1.6665299112410132
0.007299999999999862,-1.772633258730891
0.006299999999999972,-1.8815660288204987
0.00529999999999986,-1.9664487068124006
0.0042999999999999705,-2.047087250904708
0.0032999999999998586,-2.12914050629688
0.0022999999999999687,-2.2196820294882422
0.0012999999999998568,-2.3229559543783904
0.00029999999999996696,-2.407838632370292
-0.000700000000000145,-2.4870624651627344
-0.0017000000000000348,-2.586092256153287
-0.0027000000000001467,-2.6879514697435702
-0.0037000000000000366,-2.8039577963325026
-0.0047000000000001485,-2.9100611438223805
-0.005700000000000038,-3.0175792026121235
-0.00670000000000015,-3.1364149518007864
-0.00770000000000004,-3.2693978139880997
-0.008700000000000152,-3.4136983665743337
-0.009700000000000042,-3.555169496560837
-0.010700000000000154,-3.693811203947611
-0.011700000000000044,-3.8466000243330347
-0.012700000000000156,-4.013535957717109
-0.013700000000000045,-4.191789581500104
-0.014700000000000157,-4.377116761782423
-0.015700000000000047,-4.546882117766228
-0.01670000000000016,-4.739282854547873
-0.01770000000000005,-4.9571483947270885
-0.01870000000000016,-5.1792580688059
-0.01970000000000005,-5.394294186385385
-0.020700000000000163,-5.612159726564601
-0.021700000000000053,-5.83143997804368
-0.022700000000000164,-6.0790144555200625
-0.023700000000000054,-6.332247778195904
-0.024700000000000166,-6.57274869917296
-0.025700000000000056,-6.830226155748398
-0.026700000000000168,-7.0763859219249134
-0.027700000000000058,-7.345181068899271
-0.02870000000000017,-7.642270441870928
-0.02970000000000006,-7.916724434044746
-0.03070000000000017,-8.186934292318968
-0.03170000000000006,-8.469876552291973
-0.03270000000000017,-8.779698326962418
-0.03370000000000006,-9.061225875635559
-0.034700000000000175,-9.324362177410457
-0.035700000000000065,-9.590327901785084
-0.03670000000000018,-9.871855450458227
-0.03770000000000007,-10.153382999131368
-0.03870000000000018,-10.453301794702757
-0.03970000000000007,-10.710779251278193
-0.04070000000000018,-10.983818532152144
-0.04170000000000007,-11.259687235625828
-0.04270000000000018,-11.528482382600183
-0.04370000000000007,-11.814254065172921
-0.044700000000000184,-12.057584408749708
-0.045700000000000074,-12.286767639327845
-0.046700000000000186,-12.51878029250571
-0.047700000000000076,-12.73240169878533
-0.04870000000000019,-12.992708577960498
-0.04970000000000008,-13.206329984240117
-0.05070000000000019,-13.373265917624192
-0.05170000000000008,-13.586887323903813
-0.05270000000000019,-13.765140947686808
-0.05370000000000008,-13.951882839268992
-0.05470000000000019,-14.12306290655266
-0.05570000000000008,-14.274437015638219
-0.056700000000000195,-14.430055258623375
-0.057700000000000085,-14.585673501608527
-0.058700000000000196,-14.727144631595033
-0.059700000000000086,-14.868615761581536
-0.0607000000000002,-15.01008689156804
-0.06170000000000009,-15.10911668255859
-0.0627000000000002,-15.236440699546446
-0.06370000000000009,-15.37791182953295
-0.0647000000000002,-15.519382959519453
-0.06570000000000009,-15.618412750510005
-0.0667000000000002,-15.70329542850191
-0.0677000000000001,-15.816472332491113
-0.0687000000000002,-15.91550212348166
-0.0697000000000001,-15.986237688474914
-0.07070000000000021,-16.085267479465468
-0.0717000000000001,-16.170150157457368
-0.07270000000000021,-16.24088572245062
-0.0737000000000001,-16.311621287443874
-0.07470000000000021,-16.382356852437127
-0.0757000000000001,-16.424798191433077
-0.07670000000000021,-16.46723953042903
-0.0777000000000001,-16.52382798242363
-0.07870000000000021,-16.56626932141958
-0.0797000000000001,-16.59456354741688
-0.08070000000000022,-16.52382798242363
-0.0817000000000001,-16.651151999411482
-0.08270000000000022,-16.679446225408782
-0.08370000000000011,-16.651151999411482
-0.08470000000000022,-16.580416434418233
-0.08570000000000011,-16.53797509542228
-0.08670000000000022,-16.453092417430376
-0.08770000000000011,-16.396503965435777
-0.08870000000000022,-16.382356852437127
-0.08970000000000011,-16.28332706144657
-0.09070000000000022,-16.170150157457368
-0.09170000000000011,-16.04282614046952
-0.09270000000000023,-15.957943462477614
-0.09370000000000012,-15.87306078448571
-0.09470000000000023,-15.74573676749786
-0.09570000000000012,-15.575971411514052
-0.09670000000000023,-15.406206055530248
-0.09770000000000012,-15.250587812545096
-0.09870000000000023,-15.080822456561293
-0.09970000000000012,-14.896909987578834
-0.10070000000000023,-14.71299751859638
-0.10170000000000012,-14.486643710617974
-0.10270000000000024,-14.274437015638219
-0.10370000000000013,-14.142868864750772
-0.10470000000000024,-13.8868061194752
-0.10570000000000013,-13.649134621097875
-0.10670000000000024,-13.398730721021762
-0.10770000000000013,-13.148326820945652
-0.10870000000000024,-12.91207003386819
-0.10970000000000013,-12.648933732093294
-0.11070000000000024,-12.37306502861961
-0.11170000000000013,-12.13963766414188
-0.11270000000000002,-11.896307320565093
-0.11370000000000013,-11.66287995608736
-0.11470000000000002,-11.415305478610982
-0.11570000000000014,-11.135192641237705
-0.11670000000000003,-10.873471050762673
-0.11770000000000014,-10.634384841085481
-0.11870000000000003,-10.408031033107076
-0.11970000000000014,-10.160456555630693
-0.12070000000000003,-9.918540923353772
-0.12170000000000014,-9.680869424976446
-0.12270000000000003,-9.467248018696827
-0.12370000000000014,-9.26635901411599
-0.12470000000000003,-9.04424934003718
-0.12570000000000014,-8.815066109459044
-0.12670000000000003,-8.601444703179425
-0.12770000000000015,-8.400555698598588
-0.12870000000000004,-8.218057940915998
-0.12970000000000015,-8.017168936335162
-0.13070000000000004,-7.826182910853383
-0.13170000000000015,-7.642270441870928
-0.13270000000000004,-7.464016818087933
-0.13370000000000015,-7.301325018603455
-0.13470000000000004,-7.12873024001992
-0.13570000000000015,-6.95189132753679
-0.13670000000000004,-6.794858373251771
-0.13770000000000016,-6.6364107076668875
-0.13870000000000005,-6.480792464681733
-0.13970000000000016,-6.336491912095499
-0.14070000000000005,-6.169555978711425
-0.14170000000000016,-6.018181869625866
-0.14270000000000005,-5.882369584838822
-0.14370000000000016,-5.7437278774520495
-0.14470000000000005,-5.609330303964871
-0.14570000000000016,-5.459370906179177
-0.14670000000000005,-5.3178997761926725
-0.14770000000000016,-5.208967006103065
-0.14870000000000005,-5.0943753908139975
-0.14970000000000017,-4.971295507725738
-0.15070000000000006,-4.84821562463748
-0.15170000000000017,-4.729379875448817
-0.15270000000000006,-4.633179507057995
-0.15370000000000017,-4.5369791386671725
-0.15470000000000006,-4.41814338947851
-0.15570000000000017,-4.313454753288497
-0.15670000000000006,-4.215839673597809
-0.15770000000000017,-4.130956995605907
-0.15870000000000006,-4.060221430612655
-0.15970000000000018,-3.969679907421293
-0.16070000000000007,-3.884797229429391
-0.16170000000000018,-3.821135220935464
-0.16270000000000007,-3.7603026350412674
-0.16370000000000018,-3.7122024508458558
-0.16470000000000007,-3.647125731052064
-0.16570000000000018,-3.5749754547589476
-0.16670000000000007,-3.5282899818634013
-0.16770000000000018,-3.4915074880669104
-0.16870000000000007,-3.4575544168701495
-0.16970000000000018,-3.4207719230736586
-0.17070000000000007,-3.3641834710790572
-0.17170000000000019,-3.3274009772825663
-0.17270000000000008,-3.3090097303843207
-0.1737000000000002,-3.28354492698675
-0.17470000000000008,-3.2580801235891794
-0.1757000000000002,-3.2128093619934983
-0.17670000000000008,-3.1901739811956578
-0.1777000000000002,-3.1845151359961976
-0.17870000000000008,-3.164709177798087
-0.1797000000000002,-3.1449032195999767
-0.18070000000000008,-3.1279266840015962
-0.1817000000000002,-3.0996324580042955
-0.18270000000000008,-3.08690005630551
-0.1837000000000002,-3.082655922405915
-0.1847000000000001,-3.0600205416080746
-0.1857000000000002,-3.047288139909289
-0.1867000000000001,-3.0274821817111786
-0.1877000000000002,-3.024652759111448
-0.1887000000000001,-3.0260674704113137
-0.1897000000000002,-3.0161644913122583
-0.1907000000000001,-2.997773244414013
-0.1917000000000001,-2.9850408427152275
-0.19269999999999998,-2.9822114201154974
-0.1937000000000001,-2.9935291105144173
-0.19469999999999998,-2.973723152316307
-0.1957000000000001,-2.9525024828183315
-0.19669999999999999,-2.9482583489187366
-0.1977000000000001,-2.9510877715184667
-0.1987,-2.9694790184167124
-0.1997000000000001,-2.9539171941181968
-0.2007,-2.941184792419411
-0.2017000000000001,-2.942599503719276
-0.2027,-2.942599503719276
-0.2037000000000001,-2.9539171941181968
-0.2047,-2.9468436376188714
-0.2057000000000001,-2.932696524620221
-0.2067,-2.942599503719276
-0.2077000000000001,-2.9341112359200863
-0.2087,-2.941184792419411
-0.2097000000000001,-2.9482583489187366
-0.2107,-2.925622968120896
-0.2117000000000001,-2.925622968120896
-0.2127,-2.9440142150191413
-0.2137000000000001,-2.9539171941181968
-0.2147,-2.9609907506175217
-0.2157000000000001,-2.963820173217252
-0.2167,-2.9482583489187366
-0.21770000000000012,-2.9595760393176564
-0.2187,-2.9609907506175217
-0.21970000000000012,-2.9595760393176564
-0.2207,-2.9553319054180616
-0.22170000000000012,-2.9510877715184667
-0.2227,-2.9666495958169823
-0.22370000000000012,-2.975137863616172
-0.2247,-2.9836261314153627
-0.22570000000000012,-2.976552574916037
-0.2267,-2.972308441016442
-0.22770000000000012,-2.999187955713878
-0.22870000000000001,-3.004846800913338
-0.22970000000000013,-3.006261512213203
-0.23070000000000002,-3.002017378313608
-0.23170000000000013,-2.997773244414013
-0.23270000000000002,-3.013335068712528
-0.23370000000000013,-3.0359704495103688
-0.23470000000000002,-3.028896893011044
-0.23570000000000013,-3.0232380478115832
-0.23670000000000002,-3.0331410269106387
-0.2376999999999999,-3.047288139909289
-0.23870000000000002,-3.0727529433068597
-0.2396999999999999,-3.0685088094072643
-0.24070000000000003,-3.0586058303082093
-0.24169999999999991,-3.069923520707129
-0.24270000000000003,-3.07841178850632
-0.24369999999999992,-3.0968030354045655
-0.24470000000000003,-3.0911441902051053
-0.24569999999999992,-3.07841178850632
-0.24670000000000003,-3.0968030354045655
-0.24769999999999992,-3.1123648597030806
-0.24870000000000003,-3.120853127502271
-0.24969999999999992,-3.123682550102001
-0.25070000000000003,-3.1180237049025408
-0.2516999999999999,-3.125097261401866
-0.25270000000000004,-3.1449032195999767
-0.2536999999999999,-3.156220909998897
-0.25470000000000004,-3.1576356212987617
-0.2556999999999999,-3.1491473534995715
-0.25670000000000004,-3.1548061986990317
-0.25769999999999993,-3.166123889097952
-0.25870000000000004,-3.1901739811956578
-0.25969999999999993,-3.1831004246963324
-0.26070000000000004,-3.1802710020966023
-0.26169999999999993,-3.174612156897142
-0.26270000000000004,-3.1915886924955226
-0.26369999999999993,-3.204321094194308
-0.26470000000000005,-3.2099799393937682
-0.26569999999999994,-3.204321094194308
-0.26670000000000005,-3.211394650693633
-0.26769999999999994,-3.2198829184928233
-0.26870000000000005,-3.232615320191609
-0.26969999999999994,-3.2212976297926885
-0.27070000000000005,-3.217053495893093
-0.27169999999999994,-3.2156387845932284
-0.27270000000000005,-3.232615320191609
-0.27369999999999994,-3.235444742791339
-0.27470000000000006,-3.2524212783897193
-0.27569999999999995,-3.246762433190259
-0.27670000000000006,-3.2425182992906643
-0.27769999999999995,-3.253835989689584
-0.27870000000000006,-3.27505665918756
-0.27969999999999995,-3.2623242574887747
-0.28070000000000006,-3.2665683913883696
-0.28169999999999995,-3.276471370487425
-0.28270000000000006,-3.28637434958648
-0.28369999999999995,-3.2976920399854004
-0.28470000000000006,-3.3005214625851305
-0.28569999999999995,-3.2906184834860754
-0.28670000000000007,-3.3019361738849957
-0.28769999999999996,-3.316083286883646
-0.28870000000000007,-3.3387186676814866
-0.28969999999999996,-3.3443775128809468
-0.29070000000000007,-3.3387186676814866
-0.29169999999999996,-3.352865780680137
-0.29270000000000007,-3.3698423162785174
-0.29369999999999996,-3.3839894292771677
-0.2947000000000001,-3.3967218309759533
-0.29569999999999996,-3.392477697076358
-0.2967000000000001,-3.4108689439746036
-0.29769999999999996,-3.4335043247724437
-0.2987000000000001,-3.4518955716706894
-0.29969999999999997,-3.4589691281700143
-0.3007000000000001,-3.46887210726907
-0.30169999999999997,-3.4816045089678553
-0.3027000000000001,-3.507069312365426
-0.30369999999999997,-3.5297046931632665
-0.3047000000000001,-3.536778249662592
-0.30569999999999997,-3.548095940061512
-0.3067000000000001,-3.562243053060162
-0.3077,-3.590537279057463
-0.3087000000000001,-3.6202462163546287
-0.3097,-3.6315639067535495
-0.3107000000000001,-3.647125731052064
-0.3117,-3.661272844050715
-0.3127000000000001,-3.6923964926477457
-0.3137,-3.7263495638445066
-0.3147000000000001,-3.733423120343832
-0.3157,-3.748984944642347
-0.3167000000000001,-3.7772791706396474
-0.3177,-3.8069881079368133
-0.3187000000000001,-3.840941179133574
-0.3197,-3.85084415823263
-0.3207000000000001,-3.8664059825311448
-0.3217,-3.8989443424280408
-0.3227000000000001,-3.9300679910250715
-0.3237,-3.962606350921967
-0.3247000000000001,-3.986656443019674
-0.3257,-3.9979741334185936
-0.3267000000000001,-4.033341915915219
-0.3277,-4.0644655645122505
-0.3287000000000001,-4.101248058308742
-0.3297,-4.122468727806717
-0.3307000000000001,-4.138030552105232
-0.3317,-4.171983623301993
-0.3327000000000001,-4.215839673597809
-0.3337,-4.24413389959511
-0.3347000000000001,-4.272428125592412
-0.3357,-4.292234083790521
-0.3367000000000001,-4.330431288886877
-0.3377,-4.375702050482558
-0.3387000000000001,-4.406825699079589
-0.3397,-4.43511992507689
-0.3407000000000001,-4.4648288623740555
-0.3417,-4.503026067470412
-0.3427000000000001,-4.5497115403659585
-0.3437,-4.587908745462314
-0.3447000000000001,-4.6162029714596144
-0.3457,-4.6614737330552956
-0.3467000000000001,-4.694012092952192
-0.3477,-4.744941699747333
-0.3487000000000001,-4.787383038743283
-0.3497,-4.814262553440719
-0.3507000000000001,-4.856703892436671
-0.3517,-4.890656963633432
-0.3527000000000001,-4.947245415628033
-0.3537,-4.99958973372304
-0.3547000000000001,-5.03071338232007
-0.3557,-5.071740010016156
-0.35670000000000013,-5.125499039411029
-0.3577,-5.17642864620617
-0.35870000000000013,-5.22735825300131
-0.3597,-5.269799591997262
-0.36070000000000013,-5.307996797093617
-0.3617,-5.368829382987815
-0.3626999999999999,-5.428247257582146
-0.3637,-5.482006286977017
-0.3646999999999999,-5.525862337272833
-0.3657,-5.57820665536784
-0.3666999999999999,-5.657430488160282
-0.3677,-5.705530672355693
-0.3686999999999999,-5.767777969549755
-0.36970000000000003,-5.827195844144086
-0.3706999999999999,-5.849831224941926
-0.37170000000000003,-5.929055057734368
-0.3726999999999999,-5.998375911427756
-0.37370000000000003,-6.0592084973219515
-0.3746999999999999,-6.127114639715473
-0.37570000000000003,-6.180873669110345
-0.3766999999999999,-6.254438656703328
-0.37770000000000004,-6.328003644296309
-0.3786999999999999,-6.398739209289561
-0.37970000000000004,-6.460986506483622
-0.3806999999999999,-6.526063226277413
-0.38170000000000004,-6.591139946071206
-0.38269999999999993,-6.690169737061758
-0.38370000000000004,-6.776467126353525
-0.38469999999999993,-6.837299712247723
-0.38570000000000004,-6.9122794111405685
-0.38669999999999993,-6.999991511732201
-0.38770000000000004,-7.086288901023969
-0.38869999999999993,-7.165512733816411
-0.38970000000000005,-7.247565989208583
-0.39069999999999994,-7.33952222369981
-0.39170000000000005,-7.428649035591308
-0.39269999999999994,-7.529093537881726
-0.39370000000000005,-7.621049772372953
-0.39469999999999994,-7.703103027765124
-0.39570000000000005,-7.809206375255003
-0.39669999999999994,-7.90682145494569
-0.39770000000000005,-8.008680668535973
-0.39869999999999994,-8.121857572525176
-0.39970000000000006,-8.216643229616132
-0.40069999999999995,-8.328405422305472
-0.40170000000000006,-8.437338192395078
-0.40269999999999995,-8.557588652883606
-0.40370000000000006,-8.68491266987146
-0.40469999999999995,-8.803748419060124
-0.40570000000000006,-8.914095900449595
-0.40669999999999995,-9.040005206137584
-0.40770000000000006,-9.168743934425303
-0.40869999999999995,-9.32011804351086
-0.40970000000000006,-9.453100905698175
-0.41069999999999995,-9.576180788786434
-0.41170000000000007,-9.727554897871993
-0.41269999999999996,-9.886002563456877
-0.41370000000000007,-10.034547249942705
-0.41469999999999996,-10.191580204227723
-0.41570000000000007,-10.338710179413688
-0.41669999999999996,-10.511304957997222
-0.41770000000000007,-10.689558581780219
-0.41869999999999996,-10.872056339462807
-0.4197000000000001,-11.051724674545666
-0.42069999999999996,-11.238466566127851
-0.4217000000000001,-11.42945259160963
-0.42269999999999996,-11.643073997889251
-0.4237000000000001,-11.863768960668198
-0.42469999999999997,-12.067487387848763
-0.4257000000000001,-12.298085329726765
-0.42669999999999997,-12.53009798290463
-0.4277000000000001,-12.779087171680876
-0.42869999999999997,-13.046467607355368
-0.4297000000000001,-13.309603909130265
-0.43069999999999997,-13.584057901304082
-0.4317000000000001,-13.87548842907628
-0.4327,-14.231995676642269
-0.4337000000000001,-14.57152638860988
-0.4347,-14.882762874580186
-0.4357000000000001,-15.264734925543747
-0.4367,-15.646706976507305
-0.4377000000000001,-16.071120366466815
-0.4387,-16.52382798242363
-0.4397000000000001,-16.962388485381787
-0.4407,-17.45753744033455
-0.4417000000000001,-17.980980621284615
-0.4427,-18.53271802823198
-0.4437000000000001,-19.126896774175293
-0.4447,-19.749369746115914
-0.4457000000000001,-20.414284057052477
-0.4467,-21.1782281589796
-0.4477000000000001,-21.94217226090672
-0.4487,-22.80514615382439
-0.4497000000000001,-23.696414272739364
-0.4507,-24.67256506964624
-0.4517000000000001,-25.719451431546364
-0.4527,-26.851220471438396
-0.4537000000000001,-28.09616641531963
-0.4547,-29.411847924194117
-0.4557000000000001,-30.7841178850632
-0.4567,-32.31200608891744
-0.4577000000000001,-33.924776970763574
-0.4587,-35.693166095594876
-0.4597000000000001,-37.57473212441538
-0.4607,-39.640210622218326
-0.4617000000000001,-41.80471891101183
-0.4627,-44.238022346779694
-0.4637000000000001,-46.84109113853137
-0.4647,-49.52904260827494
-0.4657000000000001,-52.30187675601041
-0.4667,-55.07471090374588
-0.4677000000000001,-57.98901618146786
-0.4687,-60.988204137181725
-0.4697000000000001,-63.6761556069253
-0.4707,-66.74607912763243
-0.4717000000000001,-69.74526708334632
-0.4727,-72.37663010109527
-0.4737000000000001,-75.20605270082535
-0.4747,-77.7525330405824
-0.4757000000000001,-80.38389605833139
-0.4767,-83.1991715450628
-0.4777000000000001,-86.19835950077669
-0.4787,-89.12681189149731
-0.4797000000000001,-91.98452871722468
-0.4807,-94.89883399494667
-0.48170000000000013,-97.99705174165109
-0.4827,-100.62841475940007
-0.48370000000000013,-103.57101426311934
-0.4847,-107.02290983479001
-0.48570000000000013,-110.1918631464877
-0.4867,-112.27148875728932
-0.48570000000000013,-112.32807720928389
-0.4847,-112.79493193823936
-0.48370000000000013,-113.45984624917594
-0.4827,-113.64375871815841
-0.48170000000000013,-113.75693562214758
-0.4807,-113.81352407414221
-0.4797000000000001,-113.78522984814491
-0.4787,-113.55887604016648
-0.4777000000000001,-113.54472892716784
-0.4767,-113.6154644921611
-0.4757000000000001,-113.29008089319213
-0.4747,-113.07787419821238
-0.4737000000000001,-112.93640306822589
-0.4727,-112.69590214724884
-0.4717000000000001,-112.39881277427718
-0.4707,-111.91781093232305
-0.4697000000000001,-111.54998599435814
-0.4687,-111.15386683039593
-0.4677000000000001,-110.46065829346206
-0.4667,-109.8806266605174
-0.4657000000000001,-109.30059502757274
-0.4647,-108.57909226464157
