June 28, 2026   09:33:00
Cyclic Voltammetry
File: c:/users/guazh/data/20260623_doe_duplica2/2026-06-24-exp31\exp31-2026-06-28t09_21_40-arkoh\exp31_cv_sr_600mvs_efin_-1500mv.bin
Data Source:  Experiment
Instrument Model:  CHI760E
Header: CV ran at 600 mVs
Note: 

Init E (V) = -1
High E (V) = -1
Low E (V) = -1.5
Final E (V) = -1
Init P/N = N
Scan Rate (V/s) = 0.6
Segment = 3
Sample Interval (V) = 0.001
Quiet Time (sec) = 2
Sensitivity (A/V) = 0.01
Comp R (ohm) = 2.5

Results:

Channel 1:
Segment 1:

Segment 2:

Segment 3:

Potential/V, Current/A

-1.000, 3.715e-5
-1.001, 1.512e-4
-1.002, 2.283e-4
-1.003, 2.838e-4
-1.004, 3.239e-4
-1.005, 3.547e-4
-1.006, 3.794e-4
-1.007, 3.948e-4
-1.008, 4.102e-4
-1.009, 4.195e-4
-1.010, 4.287e-4
-1.011, 4.349e-4
-1.012, 4.441e-4
-1.013, 4.472e-4
-1.014, 4.534e-4
-1.015, 4.565e-4
-1.016, 4.595e-4
-1.017, 4.626e-4
-1.018, 4.657e-4
-1.019, 4.688e-4
-1.020, 4.719e-4
-1.021, 4.750e-4
-1.022, 4.750e-4
-1.023, 4.780e-4
-1.024, 4.811e-4
-1.025, 4.842e-4
-1.026, 4.842e-4
-1.027, 4.842e-4
-1.028, 4.873e-4
-1.029, 4.873e-4
-1.030, 4.873e-4
-1.031, 4.904e-4
-1.032, 4.904e-4
-1.033, 4.935e-4
-1.034, 4.965e-4
-1.035, 4.965e-4
-1.036, 4.996e-4
-1.037, 4.965e-4
-1.038, 4.996e-4
-1.039, 4.996e-4
-1.040, 4.996e-4
-1.041, 5.027e-4
-1.042, 5.027e-4
-1.043, 5.027e-4
-1.044, 5.058e-4
-1.045, 5.058e-4
-1.046, 5.058e-4
-1.047, 5.089e-4
-1.048, 5.058e-4
-1.049, 5.089e-4
-1.050, 5.089e-4
-1.051, 5.089e-4
-1.052, 5.120e-4
-1.053, 5.120e-4
-1.054, 5.120e-4
-1.055, 5.150e-4
-1.056, 5.150e-4
-1.057, 5.150e-4
-1.058, 5.150e-4
-1.059, 5.150e-4
-1.060, 5.181e-4
-1.061, 5.181e-4
-1.062, 5.181e-4
-1.063, 5.181e-4
-1.064, 5.181e-4
-1.065, 5.181e-4
-1.066, 5.181e-4
-1.067, 5.212e-4
-1.068, 5.212e-4
-1.069, 5.212e-4
-1.070, 5.212e-4
-1.071, 5.212e-4
-1.072, 5.212e-4
-1.073, 5.243e-4
-1.074, 5.243e-4
-1.075, 5.274e-4
-1.076, 5.274e-4
-1.077, 5.274e-4
-1.078, 5.274e-4
-1.079, 5.274e-4
-1.080, 5.243e-4
-1.081, 5.274e-4
-1.082, 5.274e-4
-1.083, 5.274e-4
-1.084, 5.274e-4
-1.085, 5.274e-4
-1.086, 5.274e-4
-1.087, 5.305e-4
-1.088, 5.305e-4
-1.089, 5.305e-4
-1.090, 5.305e-4
-1.091, 5.305e-4
-1.092, 5.305e-4
-1.093, 5.305e-4
-1.094, 5.305e-4
-1.095, 5.305e-4
-1.096, 5.305e-4
-1.097, 5.305e-4
-1.098, 5.305e-4
-1.099, 5.305e-4
-1.100, 5.305e-4
-1.101, 5.335e-4
-1.102, 5.335e-4
-1.103, 5.335e-4
-1.104, 5.335e-4
-1.105, 5.335e-4
-1.106, 5.335e-4
-1.107, 5.335e-4
-1.108, 5.335e-4
-1.109, 5.335e-4
-1.110, 5.335e-4
-1.111, 5.335e-4
-1.112, 5.335e-4
-1.113, 5.335e-4
-1.114, 5.335e-4
-1.115, 5.335e-4
-1.116, 5.366e-4
-1.117, 5.335e-4
-1.118, 5.335e-4
-1.119, 5.366e-4
-1.120, 5.335e-4
-1.121, 5.335e-4
-1.122, 5.366e-4
-1.123, 5.335e-4
-1.124, 5.366e-4
-1.125, 5.335e-4
-1.126, 5.366e-4
-1.127, 5.366e-4
-1.128, 5.335e-4
-1.129, 5.335e-4
-1.130, 5.335e-4
-1.131, 5.335e-4
-1.132, 5.335e-4
-1.133, 5.335e-4
-1.134, 5.335e-4
-1.135, 5.335e-4
-1.136, 5.335e-4
-1.137, 5.335e-4
-1.138, 5.335e-4
-1.139, 5.335e-4
-1.140, 5.335e-4
-1.141, 5.305e-4
-1.142, 5.305e-4
-1.143, 5.305e-4
-1.144, 5.305e-4
-1.145, 5.305e-4
-1.146, 5.335e-4
-1.147, 5.305e-4
-1.148, 5.305e-4
-1.149, 5.305e-4
-1.150, 5.305e-4
-1.151, 5.274e-4
-1.152, 5.305e-4
-1.153, 5.305e-4
-1.154, 5.305e-4
-1.155, 5.305e-4
-1.156, 5.305e-4
-1.157, 5.274e-4
-1.158, 5.305e-4
-1.159, 5.274e-4
-1.160, 5.274e-4
-1.161, 5.274e-4
-1.162, 5.274e-4
-1.163, 5.274e-4
-1.164, 5.274e-4
-1.165, 5.274e-4
-1.166, 5.274e-4
-1.167, 5.274e-4
-1.168, 5.243e-4
-1.169, 5.274e-4
-1.170, 5.243e-4
-1.171, 5.243e-4
-1.172, 5.243e-4
-1.173, 5.274e-4
-1.174, 5.274e-4
-1.175, 5.243e-4
-1.176, 5.243e-4
-1.177, 5.274e-4
-1.178, 5.274e-4
-1.179, 5.243e-4
-1.180, 5.243e-4
-1.181, 5.243e-4
-1.182, 5.243e-4
-1.183, 5.243e-4
-1.184, 5.243e-4
-1.185, 5.243e-4
-1.186, 5.243e-4
-1.187, 5.243e-4
-1.188, 5.243e-4
-1.189, 5.243e-4
-1.190, 5.243e-4
-1.191, 5.243e-4
-1.192, 5.243e-4
-1.193, 5.243e-4
-1.194, 5.243e-4
-1.195, 5.243e-4
-1.196, 5.243e-4
-1.197, 5.243e-4
-1.198, 5.243e-4
-1.199, 5.243e-4
-1.200, 5.243e-4
-1.201, 5.243e-4
-1.202, 5.274e-4
-1.203, 5.274e-4
-1.204, 5.274e-4
-1.205, 5.274e-4
-1.206, 5.274e-4
-1.207, 5.274e-4
-1.208, 5.274e-4
-1.209, 5.274e-4
-1.210, 5.274e-4
-1.211, 5.305e-4
-1.212, 5.305e-4
-1.213, 5.305e-4
-1.214, 5.305e-4
-1.215, 5.305e-4
-1.216, 5.335e-4
-1.217, 5.335e-4
-1.218, 5.335e-4
-1.219, 5.335e-4
-1.220, 5.335e-4
-1.221, 5.335e-4
-1.222, 5.366e-4
-1.223, 5.366e-4
-1.224, 5.366e-4
-1.225, 5.397e-4
-1.226, 5.397e-4
-1.227, 5.397e-4
-1.228, 5.428e-4
-1.229, 5.459e-4
-1.230, 5.459e-4
-1.231, 5.459e-4
-1.232, 5.489e-4
-1.233, 5.489e-4
-1.234, 5.520e-4
-1.235, 5.520e-4
-1.236, 5.520e-4
-1.237, 5.551e-4
-1.238, 5.551e-4
-1.239, 5.582e-4
-1.240, 5.582e-4
-1.241, 5.582e-4
-1.242, 5.613e-4
-1.243, 5.644e-4
-1.244, 5.644e-4
-1.245, 5.674e-4
-1.246, 5.705e-4
-1.247, 5.705e-4
-1.248, 5.736e-4
-1.249, 5.736e-4
-1.250, 5.767e-4
-1.251, 5.798e-4
-1.252, 5.829e-4
-1.253, 5.829e-4
-1.254, 5.890e-4
-1.255, 5.890e-4
-1.256, 5.921e-4
-1.257, 5.952e-4
-1.258, 5.952e-4
-1.259, 5.983e-4
-1.260, 6.014e-4
-1.261, 6.044e-4
-1.262, 6.075e-4
-1.263, 6.106e-4
-1.264, 6.137e-4
-1.265, 6.168e-4
-1.266, 6.199e-4
-1.267, 6.229e-4
-1.268, 6.260e-4
-1.269, 6.291e-4
-1.270, 6.353e-4
-1.271, 6.384e-4
-1.272, 6.414e-4
-1.273, 6.476e-4
-1.274, 6.507e-4
-1.275, 6.538e-4
-1.276, 6.569e-4
-1.277, 6.630e-4
-1.278, 6.661e-4
-1.279, 6.723e-4
-1.280, 6.784e-4
-1.281, 6.815e-4
-1.282, 6.846e-4
-1.283, 6.908e-4
-1.284, 6.969e-4
-1.285, 7.031e-4
-1.286, 7.062e-4
-1.287, 7.124e-4
-1.288, 7.154e-4
-1.289, 7.216e-4
-1.290, 7.278e-4
-1.291, 7.339e-4
-1.292, 7.432e-4
-1.293, 7.494e-4
-1.294, 7.555e-4
-1.295, 7.648e-4
-1.296, 7.679e-4
-1.297, 7.771e-4
-1.298, 7.802e-4
-1.299, 7.894e-4
-1.300, 7.956e-4
-1.301, 8.048e-4
-1.302, 8.110e-4
-1.303, 8.203e-4
-1.304, 8.295e-4
-1.305, 8.357e-4
-1.306, 8.449e-4
-1.307, 8.542e-4
-1.308, 8.634e-4
-1.309, 8.696e-4
-1.310, 8.819e-4
-1.311, 8.912e-4
-1.312, 8.973e-4
-1.313, 9.097e-4
-1.314, 9.189e-4
-1.315, 9.282e-4
-1.316, 9.405e-4
-1.317, 9.498e-4
-1.318, 9.621e-4
-1.319, 9.713e-4
-1.320, 9.806e-4
-1.321, 9.929e-4
-1.322, 1.005e-3
-1.323, 1.018e-3
-1.324, 1.030e-3
-1.325, 1.042e-3
-1.326, 1.055e-3
-1.327, 1.067e-3
-1.328, 1.079e-3
-1.329, 1.095e-3
-1.330, 1.107e-3
-1.331, 1.119e-3
-1.332, 1.135e-3
-1.333, 1.150e-3
-1.334, 1.162e-3
-1.335, 1.178e-3
-1.336, 1.193e-3
-1.337, 1.209e-3
-1.338, 1.221e-3
-1.339, 1.236e-3
-1.340, 1.252e-3
-1.341, 1.267e-3
-1.342, 1.286e-3
-1.343, 1.304e-3
-1.344, 1.323e-3
-1.345, 1.341e-3
-1.346, 1.360e-3
-1.347, 1.378e-3
-1.348, 1.394e-3
-1.349, 1.412e-3
-1.350, 1.431e-3
-1.351, 1.452e-3
-1.352, 1.471e-3
-1.353, 1.492e-3
-1.354, 1.511e-3
-1.355, 1.532e-3
-1.356, 1.554e-3
-1.357, 1.573e-3
-1.358, 1.597e-3
-1.359, 1.619e-3
-1.360, 1.640e-3
-1.361, 1.665e-3
-1.362, 1.690e-3
-1.363, 1.711e-3
-1.364, 1.736e-3
-1.365, 1.758e-3
-1.366, 1.782e-3
-1.367, 1.810e-3
-1.368, 1.832e-3
-1.369, 1.859e-3
-1.370, 1.884e-3
-1.371, 1.909e-3
-1.372, 1.936e-3
-1.373, 1.964e-3
-1.374, 1.992e-3
-1.375, 2.020e-3
-1.376, 2.047e-3
-1.377, 2.075e-3
-1.378, 2.103e-3
-1.379, 2.131e-3
-1.380, 2.161e-3
-1.381, 2.189e-3
-1.382, 2.220e-3
-1.383, 2.251e-3
-1.384, 2.282e-3
-1.385, 2.312e-3
-1.386, 2.343e-3
-1.387, 2.374e-3
-1.388, 2.405e-3
-1.389, 2.439e-3
-1.390, 2.473e-3
-1.391, 2.504e-3
-1.392, 2.538e-3
-1.393, 2.571e-3
-1.394, 2.602e-3
-1.395, 2.639e-3
-1.396, 2.673e-3
-1.397, 2.707e-3
-1.398, 2.744e-3
-1.399, 2.778e-3
-1.400, 2.815e-3
-1.401, 2.849e-3
-1.402, 2.886e-3
-1.403, 2.923e-3
-1.404, 2.957e-3
-1.405, 2.994e-3
-1.406, 3.031e-3
-1.407, 3.068e-3
-1.408, 3.105e-3
-1.409, 3.142e-3
-1.410, 3.179e-3
-1.411, 3.216e-3
-1.412, 3.256e-3
-1.413, 3.293e-3
-1.414, 3.336e-3
-1.415, 3.376e-3
-1.416, 3.413e-3
-1.417, 3.453e-3
-1.418, 3.490e-3
-1.419, 3.533e-3
-1.420, 3.570e-3
-1.421, 3.610e-3
-1.422, 3.651e-3
-1.423, 3.694e-3
-1.424, 3.734e-3
-1.425, 3.780e-3
-1.426, 3.820e-3
-1.427, 3.863e-3
-1.428, 3.906e-3
-1.429, 3.947e-3
-1.430, 3.990e-3
-1.431, 4.033e-3
-1.432, 4.076e-3
-1.433, 4.119e-3
-1.434, 4.162e-3
-1.435, 4.206e-3
-1.436, 4.252e-3
-1.437, 4.295e-3
-1.438, 4.338e-3
-1.439, 4.381e-3
-1.440, 4.428e-3
-1.441, 4.474e-3
-1.442, 4.517e-3
-1.443, 4.563e-3
-1.444, 4.609e-3
-1.445, 4.653e-3
-1.446, 4.699e-3
-1.447, 4.745e-3
-1.448, 4.791e-3
-1.449, 4.838e-3
-1.450, 4.884e-3
-1.451, 4.933e-3
-1.452, 4.989e-3
-1.453, 5.041e-3
-1.454, 5.093e-3
-1.455, 5.143e-3
-1.456, 5.192e-3
-1.457, 5.241e-3
-1.458, 5.291e-3
-1.459, 5.340e-3
-1.460, 5.389e-3
-1.461, 5.439e-3
-1.462, 5.491e-3
-1.463, 5.541e-3
-1.464, 5.593e-3
-1.465, 5.648e-3
-1.466, 5.701e-3
-1.467, 5.753e-3
-1.468, 5.809e-3
-1.469, 5.861e-3
-1.470, 5.917e-3
-1.471, 5.969e-3
-1.472, 6.025e-3
-1.473, 6.080e-3
-1.474, 6.136e-3
-1.475, 6.191e-3
-1.476, 6.247e-3
-1.477, 6.302e-3
-1.478, 6.354e-3
-1.479, 6.413e-3
-1.480, 6.472e-3
-1.481, 6.530e-3
-1.482, 6.592e-3
-1.483, 6.654e-3
-1.484, 6.715e-3
-1.485, 6.774e-3
-1.486, 6.832e-3
-1.487, 6.894e-3
-1.488, 6.949e-3
-1.489, 7.014e-3
-1.490, 7.073e-3
-1.491, 7.134e-3
-1.492, 7.196e-3
-1.493, 7.258e-3
-1.494, 7.319e-3
-1.495, 7.381e-3
-1.496, 7.443e-3
-1.497, 7.508e-3
-1.498, 7.569e-3
-1.499, 7.634e-3
-1.500, 7.597e-3
-1.499, 7.424e-3
-1.498, 7.295e-3
-1.497, 7.184e-3
-1.496, 7.082e-3
-1.495, 6.990e-3
-1.494, 6.903e-3
-1.493, 6.817e-3
-1.492, 6.737e-3
-1.491, 6.654e-3
-1.490, 6.570e-3
-1.489, 6.484e-3
-1.488, 6.404e-3
-1.487, 6.321e-3
-1.486, 6.240e-3
-1.485, 6.163e-3
-1.484, 6.083e-3
-1.483, 6.009e-3
-1.482, 5.932e-3
-1.481, 5.855e-3
-1.480, 5.781e-3
-1.479, 5.707e-3
-1.478, 5.633e-3
-1.477, 5.562e-3
-1.476, 5.491e-3
-1.475, 5.420e-3
-1.474, 5.349e-3
-1.473, 5.275e-3
-1.472, 5.208e-3
-1.471, 5.140e-3
-1.470, 5.072e-3
-1.469, 5.010e-3
-1.468, 4.945e-3
-1.467, 4.884e-3
-1.466, 4.816e-3
-1.465, 4.751e-3
-1.464, 4.690e-3
-1.463, 4.628e-3
-1.462, 4.566e-3
-1.461, 4.508e-3
-1.460, 4.446e-3
-1.459, 4.387e-3
-1.458, 4.329e-3
-1.457, 4.270e-3
-1.456, 4.215e-3
-1.455, 4.159e-3
-1.454, 4.104e-3
-1.453, 4.048e-3
-1.452, 3.993e-3
-1.451, 3.937e-3
-1.450, 3.888e-3
-1.449, 3.836e-3
-1.448, 3.783e-3
-1.447, 3.731e-3
-1.446, 3.678e-3
-1.445, 3.629e-3
-1.444, 3.580e-3
-1.443, 3.533e-3
-1.442, 3.487e-3
-1.441, 3.441e-3
-1.440, 3.395e-3
-1.439, 3.345e-3
-1.438, 3.299e-3
-1.437, 3.256e-3
-1.436, 3.210e-3
-1.435, 3.167e-3
-1.434, 3.120e-3
-1.433, 3.074e-3
-1.432, 3.031e-3
-1.431, 2.991e-3
-1.430, 2.948e-3
-1.429, 2.911e-3
-1.428, 2.864e-3
-1.427, 2.824e-3
-1.426, 2.784e-3
-1.425, 2.747e-3
-1.424, 2.707e-3
-1.423, 2.670e-3
-1.422, 2.630e-3
-1.421, 2.593e-3
-1.420, 2.556e-3
-1.419, 2.519e-3
-1.418, 2.482e-3
-1.417, 2.448e-3
-1.416, 2.411e-3
-1.415, 2.377e-3
-1.414, 2.343e-3
-1.413, 2.309e-3
-1.412, 2.272e-3
-1.411, 2.238e-3
-1.410, 2.205e-3
-1.409, 2.171e-3
-1.408, 2.140e-3
-1.407, 2.109e-3
-1.406, 2.078e-3
-1.405, 2.047e-3
-1.404, 2.013e-3
-1.403, 1.983e-3
-1.402, 1.952e-3
-1.401, 1.921e-3
-1.400, 1.890e-3
-1.399, 1.862e-3
-1.398, 1.832e-3
-1.397, 1.804e-3
-1.396, 1.773e-3
-1.395, 1.748e-3
-1.394, 1.721e-3
-1.393, 1.690e-3
-1.392, 1.665e-3
-1.391, 1.634e-3
-1.390, 1.610e-3
-1.389, 1.582e-3
-1.388, 1.554e-3
-1.387, 1.529e-3
-1.386, 1.505e-3
-1.385, 1.480e-3
-1.384, 1.458e-3
-1.383, 1.431e-3
-1.382, 1.406e-3
-1.381, 1.381e-3
-1.380, 1.357e-3
-1.379, 1.332e-3
-1.378, 1.307e-3
-1.377, 1.286e-3
-1.376, 1.264e-3
-1.375, 1.240e-3
-1.374, 1.218e-3
-1.373, 1.196e-3
-1.372, 1.175e-3
-1.371, 1.153e-3
-1.370, 1.132e-3
-1.369, 1.110e-3
-1.368, 1.088e-3
-1.367, 1.067e-3
-1.366, 1.045e-3
-1.365, 1.027e-3
-1.364, 1.005e-3
-1.363, 9.868e-4
-1.362, 9.652e-4
-1.361, 9.467e-4
-1.360, 9.251e-4
-1.359, 9.066e-4
-1.358, 8.881e-4
-1.357, 8.696e-4
-1.356, 8.511e-4
-1.355, 8.326e-4
-1.354, 8.141e-4
-1.353, 7.956e-4
-1.352, 7.771e-4
-1.351, 7.586e-4
-1.350, 7.432e-4
-1.349, 7.216e-4
-1.348, 7.062e-4
-1.347, 6.908e-4
-1.346, 6.723e-4
-1.345, 6.569e-4
-1.344, 6.414e-4
-1.343, 6.229e-4
-1.342, 6.075e-4
-1.341, 5.921e-4
-1.340, 5.767e-4
-1.339, 5.613e-4
-1.338, 5.459e-4
-1.337, 5.305e-4
-1.336, 5.150e-4
-1.335, 4.996e-4
-1.334, 4.873e-4
-1.333, 4.719e-4
-1.332, 4.565e-4
-1.331, 4.410e-4
-1.330, 4.287e-4
-1.329, 4.133e-4
-1.328, 4.010e-4
-1.327, 3.886e-4
-1.326, 3.732e-4
-1.325, 3.609e-4
-1.324, 3.455e-4
-1.323, 3.331e-4
-1.322, 3.239e-4
-1.321, 3.085e-4
-1.320, 2.961e-4
-1.319, 2.838e-4
-1.318, 2.715e-4
-1.317, 2.591e-4
-1.316, 2.468e-4
-1.315, 2.376e-4
-1.314, 2.252e-4
-1.313, 2.160e-4
-1.312, 2.006e-4
-1.311, 1.882e-4
-1.310, 1.790e-4
-1.309, 1.697e-4
-1.308, 1.574e-4
-1.307, 1.481e-4
-1.306, 1.389e-4
-1.305, 1.266e-4
-1.304, 1.173e-4
-1.303, 1.081e-4
-1.302, 9.573e-5
-1.301, 8.957e-5
-1.300, 7.723e-5
-1.299, 7.107e-5
-1.298, 5.873e-5
-1.297, 5.257e-5
-1.296, 4.332e-5
-1.295, 3.099e-5
-1.294, 2.482e-5
-1.293, 1.557e-5
-1.292, 6.322e-6
-1.291, -2.927e-6
-1.290, -1.218e-5
-1.289, -1.834e-5
-1.288, -2.759e-5
-1.287, -3.376e-5
-1.286, -4.301e-5
-1.285, -4.917e-5
-1.284, -5.842e-5
-1.283, -6.459e-5
-1.282, -7.384e-5
-1.281, -8.000e-5
-1.280, -8.925e-5
-1.279, -9.542e-5
-1.278, -1.016e-4
-1.277, -1.078e-4
-1.276, -1.139e-4
-1.275, -1.201e-4
-1.274, -1.263e-4
-1.273, -1.324e-4
-1.272, -1.386e-4
-1.271, -1.448e-4
-1.270, -1.509e-4
-1.269, -1.571e-4
-1.268, -1.632e-4
-1.267, -1.694e-4
-1.266, -1.725e-4
-1.265, -1.787e-4
-1.264, -1.817e-4
-1.263, -1.910e-4
-1.262, -1.941e-4
-1.261, -2.002e-4
-1.260, -2.064e-4
-1.259, -2.095e-4
-1.258, -2.157e-4
-1.257, -2.187e-4
-1.256, -2.249e-4
-1.255, -2.280e-4
-1.254, -2.342e-4
-1.253, -2.372e-4
-1.252, -2.434e-4
-1.251, -2.465e-4
-1.250, -2.496e-4
-1.249, -2.557e-4
-1.248, -2.588e-4
-1.247, -2.619e-4
-1.246, -2.650e-4
-1.245, -2.681e-4
-1.244, -2.742e-4
-1.243, -2.773e-4
-1.242, -2.804e-4
-1.241, -2.835e-4
-1.240, -2.866e-4
-1.239, -2.897e-4
-1.238, -2.958e-4
-1.237, -2.989e-4
-1.236, -3.020e-4
-1.235, -3.020e-4
-1.234, -3.051e-4
-1.233, -3.082e-4
-1.232, -3.112e-4
-1.231, -3.174e-4
-1.230, -3.205e-4
-1.229, -3.236e-4
-1.228, -3.297e-4
-1.227, -3.297e-4
-1.226, -3.297e-4
-1.225, -3.328e-4
-1.224, -3.328e-4
-1.223, -3.359e-4
-1.222, -3.390e-4
-1.221, -3.421e-4
-1.220, -3.452e-4
-1.219, -3.452e-4
-1.218, -3.482e-4
-1.217, -3.513e-4
-1.216, -3.544e-4
-1.215, -3.544e-4
-1.214, -3.575e-4
-1.213, -3.606e-4
-1.212, -3.637e-4
-1.211, -3.637e-4
-1.210, -3.667e-4
-1.209, -3.667e-4
-1.208, -3.667e-4
-1.207, -3.698e-4
-1.206, -3.729e-4
-1.205, -3.729e-4
-1.204, -3.760e-4
-1.203, -3.760e-4
-1.202, -3.791e-4
-1.201, -3.821e-4
-1.200, -3.821e-4
-1.199, -3.821e-4
-1.198, -3.821e-4
-1.197, -3.852e-4
-1.196, -3.883e-4
-1.195, -3.883e-4
-1.194, -3.883e-4
-1.193, -3.914e-4
-1.192, -3.914e-4
-1.191, -3.945e-4
-1.190, -3.976e-4
-1.189, -3.976e-4
-1.188, -3.976e-4
-1.187, -4.006e-4
-1.186, -4.006e-4
-1.185, -4.006e-4
-1.184, -4.037e-4
-1.183, -4.037e-4
-1.182, -4.068e-4
-1.181, -4.068e-4
-1.180, -4.099e-4
-1.179, -4.068e-4
-1.178, -4.130e-4
-1.177, -4.130e-4
-1.176, -4.130e-4
-1.175, -4.130e-4
-1.174, -4.130e-4
-1.173, -4.161e-4
-1.172, -4.161e-4
-1.171, -4.161e-4
-1.170, -4.191e-4
-1.169, -4.191e-4
-1.168, -4.222e-4
-1.167, -4.222e-4
-1.166, -4.222e-4
-1.165, -4.253e-4
-1.164, -4.253e-4
-1.163, -4.253e-4
-1.162, -4.253e-4
-1.161, -4.284e-4
-1.160, -4.284e-4
-1.159, -4.315e-4
-1.158, -4.315e-4
-1.157, -4.315e-4
-1.156, -4.315e-4
-1.155, -4.346e-4
-1.154, -4.346e-4
-1.153, -4.346e-4
-1.152, -4.346e-4
-1.151, -4.376e-4
-1.150, -4.376e-4
-1.149, -4.376e-4
-1.148, -4.376e-4
-1.147, -4.407e-4
-1.146, -4.407e-4
-1.145, -4.407e-4
-1.144, -4.407e-4
-1.143, -4.438e-4
-1.142, -4.438e-4
-1.141, -4.469e-4
-1.140, -4.469e-4
-1.139, -4.469e-4
-1.138, -4.500e-4
-1.137, -4.500e-4
-1.136, -4.500e-4
-1.135, -4.500e-4
-1.134, -4.500e-4
-1.133, -4.531e-4
-1.132, -4.531e-4
-1.131, -4.561e-4
-1.130, -4.561e-4
-1.129, -4.561e-4
-1.128, -4.592e-4
-1.127, -4.592e-4
-1.126, -4.592e-4
-1.125, -4.623e-4
-1.124, -4.623e-4
-1.123, -4.623e-4
-1.122, -4.623e-4
-1.121, -4.654e-4
-1.120, -4.654e-4
-1.119, -4.685e-4
-1.118, -4.685e-4
-1.117, -4.685e-4
-1.116, -4.685e-4
-1.115, -4.716e-4
-1.114, -4.716e-4
-1.113, -4.746e-4
-1.112, -4.746e-4
-1.111, -4.777e-4
-1.110, -4.777e-4
-1.109, -4.777e-4
-1.108, -4.808e-4
-1.107, -4.808e-4
-1.106, -4.839e-4
-1.105, -4.839e-4
-1.104, -4.839e-4
-1.103, -4.870e-4
-1.102, -4.870e-4
-1.101, -4.870e-4
-1.100, -4.901e-4
-1.099, -4.901e-4
-1.098, -4.931e-4
-1.097, -4.931e-4
-1.096, -4.931e-4
-1.095, -4.962e-4
-1.094, -4.962e-4
-1.093, -4.962e-4
-1.092, -4.993e-4
-1.091, -4.993e-4
-1.090, -5.024e-4
-1.089, -5.055e-4
-1.088, -5.055e-4
-1.087, -5.086e-4
-1.086, -5.086e-4
-1.085, -5.086e-4
-1.084, -5.116e-4
-1.083, -5.147e-4
-1.082, -5.147e-4
-1.081, -5.178e-4
-1.080, -5.178e-4
-1.079, -5.209e-4
-1.078, -5.209e-4
-1.077, -5.240e-4
-1.076, -5.240e-4
-1.075, -5.271e-4
-1.074, -5.301e-4
-1.073, -5.301e-4
-1.072, -5.301e-4
-1.071, -5.332e-4
-1.070, -5.363e-4
-1.069, -5.363e-4
-1.068, -5.394e-4
-1.067, -5.394e-4
-1.066, -5.425e-4
-1.065, -5.456e-4
-1.064, -5.456e-4
-1.063, -5.486e-4
-1.062, -5.517e-4
-1.061, -5.517e-4
-1.060, -5.548e-4
-1.059, -5.548e-4
-1.058, -5.579e-4
-1.057, -5.610e-4
-1.056, -5.610e-4
-1.055, -5.641e-4
-1.054, -5.671e-4
-1.053, -5.671e-4
-1.052, -5.733e-4
-1.051, -5.733e-4
-1.050, -5.764e-4
-1.049, -5.795e-4
-1.048, -5.826e-4
-1.047, -5.826e-4
-1.046, -5.856e-4
-1.045, -5.856e-4
-1.044, -5.887e-4
-1.043, -5.918e-4
-1.042, -5.980e-4
-1.041, -5.980e-4
-1.040, -6.011e-4
-1.039, -6.041e-4
-1.038, -6.072e-4
-1.037, -6.072e-4
-1.036, -6.103e-4
-1.035, -6.134e-4
-1.034, -6.165e-4
-1.033, -6.195e-4
-1.032, -6.226e-4
-1.031, -6.257e-4
-1.030, -6.288e-4
-1.029, -6.288e-4
-1.028, -6.319e-4
-1.027, -6.350e-4
-1.026, -6.380e-4
-1.025, -6.411e-4
-1.024, -6.442e-4
-1.023, -6.473e-4
-1.022, -6.504e-4
-1.021, -6.535e-4
-1.020, -6.565e-4
-1.019, -6.565e-4
-1.018, -6.596e-4
-1.017, -6.627e-4
-1.016, -6.658e-4
-1.015, -6.689e-4
-1.014, -6.720e-4
-1.013, -6.750e-4
-1.012, -6.781e-4
-1.011, -6.812e-4
-1.010, -6.843e-4
-1.009, -6.874e-4
-1.008, -6.905e-4
-1.007, -6.935e-4
-1.006, -6.966e-4
-1.005, -6.966e-4
-1.004, -6.997e-4
-1.003, -7.028e-4
-1.002, -7.059e-4
-1.001, -7.090e-4
