Potential V vs RHE, Current mA cm-2
0.013299999999999867,3.8791383842299307
0.012299999999999978,2.8322520223298033
0.011299999999999866,2.0909433012005243
0.010299999999999976,1.4373466806628774
0.009299999999999864,0.9573351366186703
0.008299999999999974,0.5647527509061226
0.007299999999999862,0.21588494435940458
0.006299999999999972,-0.04582249900262853
0.00529999999999986,-0.3947044526623452
0.0042999999999999705,-0.7001406223032067
0.0032999999999998586,-1.0925815368857679
0.0022999999999999687,-1.4854468648582886
0.0012999999999998568,-1.8773218949209036
0.00029999999999996696,-2.2706116362833835
-0.000700000000000145,-2.618630616050183
-0.0017000000000000348,-2.8803522065252145
-0.0027000000000001467,-3.0996324580042955
-0.0037000000000000366,-3.273641947887695
-0.0047000000000001485,-3.447651437771094
-0.005700000000000038,-3.579219588658543
-0.00670000000000015,-3.7970851288377587
-0.00770000000000004,-4.0588067193127895
-0.008700000000000152,-4.364384360083638
-0.009700000000000042,-4.668547289554621
-0.010700000000000154,-5.017980980621284
-0.011700000000000044,-5.323558621392133
-0.012700000000000156,-5.629136262162981
-0.013700000000000045,-5.80314575204638
-0.014700000000000157,-6.021011292225596
-0.015700000000000047,-6.108723392817228
-0.01670000000000016,-6.282732882700628
-0.01770000000000005,-6.458157083883892
-0.01870000000000016,-6.588310523471475
-0.01970000000000005,-6.893888164242324
-0.020700000000000163,-7.155609754717355
-0.021700000000000053,-7.50504344578402
-0.022700000000000164,-7.853062425550818
-0.023700000000000054,-8.11478401602585
-0.024700000000000166,-8.376505606500881
-0.025700000000000056,-8.594371146680096
-0.026700000000000168,-8.725939297567548
-0.027700000000000058,-8.899948787450944
-0.02870000000000017,-9.031516938338395
-0.02970000000000006,-9.24938247851761
-0.03070000000000017,-9.467248018696827
-0.03170000000000006,-9.728969609171857
-0.03270000000000017,-10.034547249942705
-0.03370000000000006,-10.382566229709504
-0.034700000000000175,-10.731999920776168
-0.035700000000000065,-10.993721511251199
-0.03670000000000018,-11.299299152022046
-0.03770000000000007,-11.517164692201263
-0.03870000000000018,-11.691174182084664
-0.03970000000000007,-11.82274233297211
-0.04070000000000018,-11.996751822855511
-0.04170000000000007,-12.214617363034726
-0.04270000000000018,-12.432482903213943
-0.04370000000000007,-12.73806054398479
-0.044700000000000184,-13.087494235051453
-0.045700000000000074,-13.436927926118118
-0.046700000000000186,-13.784946905884919
-0.047700000000000076,-14.090524546655764
-0.04870000000000019,-14.401761032626075
-0.04970000000000008,-14.61396772760583
-0.05070000000000019,-14.783733083589633
-0.05170000000000008,-14.967645552572087
-0.05270000000000019,-15.179852247551842
-0.05370000000000008,-15.3920589425316
-0.05470000000000019,-15.70329542850191
-0.05570000000000008,-16.056973253468165
-0.056700000000000195,-16.396503965435777
-0.057700000000000085,-16.792623129397985
-0.058700000000000196,-17.188742293360193
-0.059700000000000086,-17.542420118326454
-0.0607000000000002,-17.797068152302163
-0.06170000000000009,-17.966833508285966
-0.0627000000000002,-18.23562865526032
-0.06370000000000009,-18.40539401124413
-0.0647000000000002,-18.674189158218486
-0.06570000000000009,-18.88639585319824
-0.0667000000000002,-19.2400736781645
-0.0677000000000001,-19.636192842126707
-0.0687000000000002,-20.01816489309027
-0.0697000000000001,-20.414284057052477
-0.07070000000000021,-20.76796188201874
-0.0717000000000001,-21.065051254990397
-0.07270000000000021,-21.333846401964752
-0.0737000000000001,-21.58849443594046
-0.07470000000000021,-21.814848243918867
-0.0757000000000001,-22.027054938898623
-0.07670000000000021,-22.295850085872978
-0.0777000000000001,-22.63538079784059
-0.07870000000000021,-23.031499961802798
-0.0797000000000001,-23.427619125765005
-0.08070000000000022,-23.86617962872317
-0.0817000000000001,-24.290593018682678
-0.08270000000000022,-24.686712182644893
-0.08370000000000011,-24.997948668615198
-0.08470000000000022,-25.295038041586857
-0.08570000000000011,-25.521391849565262
-0.08670000000000022,-25.691157205549064
-0.08770000000000011,-25.91751101352747
-0.08870000000000022,-26.21460038649913
-0.08970000000000011,-26.568278211465387
-0.09070000000000022,-27.00683871442355
-0.09170000000000011,-27.43125210438306
-0.09270000000000023,-27.912253946337174
-0.09370000000000012,-28.308373110299385
-0.09470000000000023,-28.746933613257543
-0.09570000000000012,-29.058170099227848
-0.09670000000000023,-29.31281813320356
-0.09770000000000012,-29.581613280177915
-0.09870000000000023,-29.751378636161718
-0.09970000000000012,-30.04846800913338
-0.10070000000000023,-30.359704495103685
-0.10170000000000012,-30.7558236590659
-0.10270000000000024,-31.19438416202406
-0.10370000000000013,-31.661238890979522
-0.10470000000000024,-32.184682071929586
-0.10570000000000013,-32.58080123589179
-0.10670000000000024,-32.97692039985401
-0.10770000000000013,-33.330598224820264
-0.10870000000000024,-33.58524625879597
-0.10970000000000013,-33.85404140577033
-0.11070000000000024,-34.06624810075008
-0.11170000000000013,-34.41992592571634
-0.11270000000000002,-34.717015298688004
-0.11370000000000013,-35.11313446265021
-0.11470000000000002,-35.594136304604326
-0.11570000000000014,-36.03269680756248
-0.11670000000000003,-36.5136986495166
-0.11770000000000014,-36.95225915247476
-0.11870000000000003,-37.334231203438314
-0.11970000000000014,-37.687909028404576
-0.12070000000000003,-37.94255706238028
-0.12170000000000014,-38.211352209354644
-0.12270000000000003,-38.522588695324956
-0.12370000000000014,-38.81967806829661
-0.12470000000000003,-39.173355893262865
-0.12570000000000014,-39.51288660523048
-0.12670000000000003,-39.99388844718459
-0.12770000000000015,-40.51733162813464
-0.12870000000000004,-40.91345079209687
-0.12970000000000015,-41.352011295055014
-0.13070000000000004,-41.70568912002128
-0.13170000000000015,-42.00277849299294
-0.13270000000000004,-42.31401497896325
-0.13370000000000015,-42.526221673943
-0.13470000000000004,-42.87989949890926
-0.13570000000000015,-43.134547532884966
-0.13670000000000004,-43.57310803584313
-0.13770000000000016,-44.054109877797245
-0.13870000000000005,-44.535111719751356
-0.13970000000000016,-45.05855490070142
-0.14070000000000005,-45.45467406466363
-0.14170000000000016,-45.85079322862584
-0.14270000000000005,-46.19032394059345
-0.14370000000000016,-46.45911908756781
-0.14470000000000005,-46.713767121543505
-0.14570000000000016,-46.982562268517874
-0.14670000000000005,-47.27965164148953
-0.14770000000000016,-47.71821214444768
-0.14870000000000005,-48.156772647405845
-0.14970000000000017,-48.63777448935996
-0.15070000000000006,-49.118776331314066
-0.15170000000000017,-49.59977817326819
-0.15270000000000006,-50.024191563227696
-0.15370000000000017,-50.42031072718991
-0.15470000000000006,-50.73154721316022
-0.15570000000000017,-51.028636586131874
-0.15670000000000006,-51.29743173310623
-0.15770000000000017,-51.594521106077885
-0.15870000000000006,-51.948198931044146
-0.15970000000000018,-52.34431809500636
-0.16070000000000007,-52.78287859796452
-0.16170000000000018,-53.26388043991864
-0.16270000000000007,-53.7873236208687
-0.16370000000000018,-54.26832546282281
-0.16470000000000007,-54.69273885278232
-0.16570000000000018,-55.003975338752625
-0.16670000000000007,-55.31521182472294
-0.16770000000000018,-55.612301197694585
-0.16870000000000007,-55.838655005673
-0.16970000000000018,-56.13574437864466
-0.17070000000000007,-56.489422203610914
-0.17170000000000019,-56.927982706569075
-0.17270000000000008,-57.408984548523186
-0.1737000000000002,-57.8333979384827
-0.17470000000000008,-58.31439978043681
-0.1757000000000002,-58.71051894439902
-0.17670000000000008,-59.10663810836124
-0.1777000000000002,-59.403727481332886
-0.17870000000000008,-59.67252262830725
-0.1797000000000002,-59.92717066228296
-0.18070000000000008,-60.11108313126541
-0.1817000000000002,-60.45061384323302
-0.18270000000000008,-60.80429166819927
-0.1837000000000002,-61.20041083216149
-0.1847000000000001,-61.72385401311155
-0.1857000000000002,-62.16241451606972
-0.1867000000000001,-62.64341635802381
-0.1877000000000002,-63.06782974798333
-0.1887000000000001,-63.421507572949594
-0.1897000000000002,-63.732744058919906
-0.1907000000000001,-63.98739209289561
-0.1917000000000001,-64.15715744887942
-0.19269999999999998,-64.42595259585376
-0.1937000000000001,-64.68060062982947
-0.19469999999999998,-64.99183711579978
-0.1957000000000001,-65.38795627976201
-0.19669999999999999,-65.82651678272015
-0.1977000000000001,-66.29337151167562
-0.1987,-66.68949067563783
-0.1997000000000001,-67.128051178596
-0.2007,-67.43928766456631
-0.2017000000000001,-67.65149435954605
-0.2027,-67.86370105452582
-0.2037000000000001,-68.0900548625042
-0.2047,-68.34470289647993
-0.2057000000000001,-68.61349804345427
-0.2067,-69.0096172074165
-0.2077000000000001,-69.43403059737601
-0.2087,-69.8301497613382
-0.2097000000000001,-70.26871026429637
-0.2107,-70.57994675026669
-0.2117000000000001,-70.91947746223428
-0.2127,-71.1458312702127
-0.2137000000000001,-71.31559662619651
-0.2147,-71.48536198218031
-0.2157000000000001,-71.66927445116276
-0.2167,-71.92392248513846
-0.21770000000000012,-72.19271763211282
-0.2187,-72.57468968307639
-0.21970000000000012,-72.97080884703858
-0.2207,-73.3669280110008
-0.22170000000000012,-73.76304717496302
-0.2227,-74.10257788693062
-0.22370000000000012,-74.37137303390499
-0.2247,-74.58357972888473
-0.22570000000000012,-74.80993353686314
-0.2267,-74.97969889284694
-0.22770000000000012,-75.14946424883075
-0.22870000000000001,-75.33337671781321
-0.22970000000000013,-75.5880247517889
-0.23070000000000002,-75.8992612377592
-0.23170000000000013,-76.19635061073087
-0.23270000000000002,-76.50758709670117
-0.23370000000000013,-76.71979379168094
-0.23470000000000002,-77.03103027765125
-0.23570000000000013,-77.20079563363505
-0.23670000000000002,-77.28567831162695
-0.2376999999999999,-77.42714944161345
-0.23870000000000002,-77.46959078060941
-0.2396999999999999,-77.59691479759726
-0.24070000000000003,-77.76668015358106
-0.24169999999999991,-78.12035797854733
-0.24270000000000003,-78.43159446451764
-0.24369999999999992,-78.72868383748929
-0.24470000000000003,-79.1248030014515
-0.24569999999999992,-79.42189237442317
-0.24670000000000003,-79.69068752139752
-0.24769999999999992,-79.81801153838538
-0.24870000000000003,-80.00192400736783
-0.24969999999999992,-80.21413070234757
-0.25070000000000003,-80.29901338033947
-0.2516999999999999,-80.52536718831789
-0.25270000000000004,-80.69513254430169
-0.2536999999999999,-80.9497805782774
-0.25470000000000004,-81.1761343862558
-0.2556999999999999,-81.38834108123557
-0.25670000000000004,-81.61469488921396
-0.25769999999999993,-81.74201890620182
-0.25870000000000004,-81.82690158419373
-0.25969999999999993,-81.86934292318966
-0.26070000000000004,-81.91178426218562
-0.26169999999999993,-81.86934292318966
-0.26270000000000004,-81.99666694017753
-0.26369999999999993,-82.09569673116808
-0.26470000000000005,-82.35034476514379
-0.26569999999999994,-82.56255146012353
-0.26670000000000005,-82.95867062408576
-0.26769999999999994,-83.31234844905201
-0.26870000000000005,-83.56699648302772
-0.26969999999999994,-83.75090895201016
-0.27070000000000005,-83.87823296899803
-0.27169999999999994,-83.92067430799398
-0.27270000000000005,-83.96311564698992
-0.27369999999999994,-84.00555698598588
-0.27470000000000006,-84.09043966397778
-0.27569999999999995,-84.13288100297372
-0.27670000000000006,-84.18946945496833
-0.27769999999999995,-84.18946945496833
-0.27870000000000006,-84.23191079396429
-0.27969999999999995,-84.18946945496833
-0.28070000000000006,-84.13288100297372
-0.28169999999999995,-84.18946945496833
-0.28270000000000006,-84.27435213296022
-0.28369999999999995,-84.31679347195619
-0.28470000000000006,-84.40167614994809
-0.28569999999999995,-84.44411748894404
-0.28670000000000007,-84.52900016693594
-0.28769999999999996,-84.61388284492786
-0.28870000000000007,-84.75535397491434
-0.28969999999999996,-84.92511933089816
-0.29070000000000007,-85.13732602587791
-0.29169999999999996,-85.32123849486035
-0.29270000000000007,-85.44856251184822
-0.29369999999999996,-85.44856251184822
-0.2947000000000001,-85.36367983385631
-0.29569999999999996,-85.13732602587791
-0.2967000000000001,-84.92511933089816
-0.29769999999999996,-84.7129126359184
-0.2987000000000001,-84.48655882793999
-0.29969999999999997,-84.44411748894404
-0.3007000000000001,-84.35923481095215
-0.30169999999999997,-84.40167614994809
-0.3027000000000001,-84.57144150593189
-0.30369999999999997,-84.7129126359184
-0.3047000000000001,-84.8826779919022
-0.30569999999999997,-84.8826779919022
-0.3067000000000001,-84.8826779919022
-0.3077,-84.92511933089816
-0.3087000000000001,-84.7977953139103
-0.3097,-84.7129126359184
-0.3107000000000001,-84.61388284492786
-0.3117,-84.61388284492786
-0.3127000000000001,-84.6563241839238
-0.3137,-84.6563241839238
-0.3147000000000001,-84.7977953139103
-0.3157,-84.75535397491434
-0.3167000000000001,-84.6563241839238
-0.3177,-84.57144150593189
-0.3187000000000001,-84.35923481095215
-0.3197,-84.18946945496833
-0.3207000000000001,-84.00555698598588
-0.3217,-83.92067430799398
-0.3227000000000001,-83.96311564698992
-0.3237,-84.09043966397778
-0.3247000000000001,-84.27435213296022
-0.3257,-84.48655882793999
-0.3267000000000001,-84.7129126359184
-0.3277,-84.75535397491434
-0.3287000000000001,-84.57144150593189
-0.3297,-84.48655882793999
-0.3307000000000001,-84.23191079396429
-0.3317,-84.04799832498183
-0.3327000000000001,-83.87823296899803
-0.3337,-83.79335029100612
-0.3347000000000001,-83.79335029100612
-0.3357,-83.79335029100612
-0.3367000000000001,-83.79335029100612
-0.3377,-83.87823296899803
-0.3387000000000001,-83.75090895201016
-0.3397,-83.66602627401826
-0.3407000000000001,-83.52455514403178
-0.3417,-83.35478978804795
-0.3427000000000001,-83.26990711005605
-0.3437,-83.04355330207765
-0.3447000000000001,-82.95867062408576
-0.3457,-82.87378794609386
-0.3467000000000001,-82.87378794609386
-0.3477,-82.9162292850898
-0.3487000000000001,-82.9162292850898
-0.3497,-83.0011119630817
-0.3507000000000001,-82.9162292850898
-0.3517,-82.9162292850898
-0.3527000000000001,-82.78890526810196
-0.3537,-82.6615812511141
-0.3547000000000001,-82.56255146012353
-0.3557,-82.39278610413973
-0.35670000000000013,-82.26546208715187
-0.3577,-82.22302074815593
-0.35870000000000013,-82.26546208715187
-0.3597,-82.30790342614785
-0.36070000000000013,-82.43522744313569
-0.3617,-82.52011012112759
-0.3626999999999999,-82.56255146012353
-0.3637,-82.56255146012353
-0.3646999999999999,-82.47766878213164
-0.3657,-82.26546208715187
-0.3666999999999999,-82.13813807016405
-0.3677,-82.03910827917348
-0.3686999999999999,-81.95422560118158
-0.36970000000000003,-81.95422560118158
-0.3706999999999999,-82.13813807016405
-0.37170000000000003,-82.30790342614785
-0.3726999999999999,-82.47766878213164
-0.37370000000000003,-82.6615812511141
-0.3746999999999999,-82.70402259011003
-0.37570000000000003,-82.52011012112759
-0.3766999999999999,-82.30790342614785
-0.37770000000000004,-82.09569673116808
-0.3786999999999999,-81.86934292318966
-0.37970000000000004,-81.78446024519776
-0.3806999999999999,-81.78446024519776
-0.38170000000000004,-81.99666694017753
-0.38269999999999993,-82.22302074815593
-0.38370000000000004,-82.35034476514379
-0.38469999999999993,-82.56255146012353
-0.38570000000000004,-82.6615812511141
-0.38669999999999993,-82.6615812511141
-0.38770000000000004,-82.61913991211814
-0.38869999999999993,-82.52011012112759
-0.38970000000000005,-82.52011012112759
-0.39069999999999994,-82.39278610413973
-0.39170000000000005,-82.39278610413973
-0.39269999999999994,-82.39278610413973
-0.39370000000000005,-82.43522744313569
-0.39469999999999994,-82.47766878213164
-0.39570000000000005,-82.56255146012353
-0.39669999999999994,-82.6615812511141
-0.39770000000000005,-82.746463929106
-0.39869999999999994,-82.87378794609386
-0.39970000000000006,-82.95867062408576
-0.40069999999999995,-83.0011119630817
-0.40170000000000006,-82.95867062408576
-0.40269999999999995,-82.9162292850898
-0.40370000000000006,-82.8313466070979
-0.40469999999999995,-82.87378794609386
-0.40570000000000006,-82.9162292850898
-0.40669999999999995,-83.04355330207765
-0.40770000000000006,-83.22746577106011
-0.40869999999999995,-83.31234844905201
-0.40970000000000006,-83.43967246603985
-0.41069999999999995,-83.56699648302772
-0.41170000000000007,-83.66602627401826
-0.41269999999999996,-83.70846761301424
-0.41370000000000007,-83.66602627401826
-0.41469999999999996,-83.70846761301424
-0.41570000000000007,-83.66602627401826
-0.41669999999999996,-83.75090895201016
-0.41770000000000007,-83.83579163000208
-0.41869999999999996,-84.00555698598588
-0.4197000000000001,-84.18946945496833
-0.42069999999999996,-84.35923481095215
-0.4217000000000001,-84.52900016693594
-0.42269999999999996,-84.61388284492786
-0.4237000000000001,-84.6563241839238
-0.42469999999999997,-84.6563241839238
-0.4257000000000001,-84.6563241839238
-0.42669999999999997,-84.6563241839238
-0.4277000000000001,-84.6563241839238
-0.42869999999999997,-84.7977953139103
-0.4297000000000001,-85.052443347886
-0.43069999999999997,-85.32123849486035
-0.4317000000000001,-85.61832786783202
-0.4327,-85.84468167581042
-0.4337000000000001,-86.05688837079018
-0.4347,-86.09932970978613
-0.4357000000000001,-86.09932970978613
-0.4367,-85.97200569279828
-0.4377000000000001,-85.92956435380233
-0.4387,-85.84468167581042
-0.4397000000000001,-85.92956435380233
-0.4407,-86.14177104878208
-0.4417000000000001,-86.41056619575643
-0.4427,-86.75009690772404
-0.4437000000000001,-87.01889205469841
-0.4447,-87.23109874967815
-0.4457000000000001,-87.33012854066871
-0.4467,-87.27354008867411
-0.4477000000000001,-87.18865741068221
-0.4487,-87.10377473269031
-0.4497000000000001,-87.23109874967815
-0.4507,-87.33012854066871
-0.4517000000000001,-87.49989389665252
-0.4527,-87.75454193062824
-0.4537000000000001,-88.02333707760259
-0.4547,-88.27798511157829
-0.4557000000000001,-88.4194562415648
-0.4567,-88.5043389195567
-0.4577000000000001,-88.5043389195567
-0.4587,-88.5043389195567
-0.4597000000000001,-88.54678025855264
-0.4607,-88.5892215975486
-0.4617000000000001,-88.6741042755405
-0.4627,-88.8438696315243
-0.4637000000000001,-89.07022343950271
-0.4647,-89.32487147347842
-0.4657000000000001,-89.55122528145681
-0.4667,-89.76343197643658
-0.4677000000000001,-89.98978578441499
-0.4687,-90.07466846240689
-0.4697000000000001,-90.15955114039879
-0.4707,-90.20199247939475
-0.4717000000000001,-90.20199247939475
-0.4727,-90.24443381839069
-0.4737000000000001,-90.32931649638259
-0.4747,-90.41419917437449
-0.4757000000000001,-90.6405529823529
-0.4767,-90.89520101632861
-0.4777000000000001,-91.16399616330297
-0.4787,-91.33376151928677
-0.4797000000000001,-91.56011532726518
-0.4807,-91.60255666626112
-0.48170000000000013,-91.56011532726518
-0.4827,-91.51767398826922
-0.48370000000000013,-91.46108553627462
-0.4847,-91.51767398826922
-0.48570000000000013,-91.60255666626112
-0.4867,-90.81031833833671
-0.48570000000000013,-88.54678025855264
-0.4847,-86.6227728907362
-0.48370000000000013,-85.01000200889004
-0.4827,-83.43967246603985
-0.48170000000000013,-81.91178426218562
-0.4807,-80.42633739732734
-0.4797000000000001,-78.91259630647174
-0.4787,-77.51203211960537
-0.4777000000000001,-76.11146793273898
-0.4767,-74.8523748758591
-0.4757000000000001,-73.6781644969711
-0.4747,-72.53224834408043
-0.4737000000000001,-71.52780332117625
-0.4727,-70.53750541127073
-0.4717000000000001,-69.53306038836655
-0.4707,-68.48617402646643
-0.4697000000000001,-67.39684632557035
-0.4687,-66.29337151167562
-0.4677000000000001,-65.20404381077954
-0.4667,-64.0722747708875
-0.4657000000000001,-62.98294706999144
-0.4647,-61.936060708091304
-0.4637000000000001,-61.01649836317903
-0.4627,-60.15352447026136
-0.4617000000000001,-59.36128614233694
-0.4607,-58.62563626640712
-0.4597000000000001,-57.79095659948675
-0.4587,-57.097748062552874
