Potential V vs RHE, Current mA cm-2
0.013299999999999867,3.748984944642347
0.012299999999999978,2.70209858274222
0.011299999999999866,1.8292217107254924
0.010299999999999976,1.0881959318561862
0.009299999999999864,0.5211796428702795
0.008299999999999974,-0.04582249900262853
0.007299999999999862,-0.48199213986401795
0.006299999999999972,-0.8745745255765657
0.00529999999999986,-1.2671569112891135
0.0042999999999999705,-1.5717442541500557
0.0032999999999998586,-1.8773218949209036
0.0022999999999999687,-2.1828995356917518
0.0012999999999998568,-2.4884771764625997
0.00029999999999996696,-2.794054817233447
-0.000700000000000145,-3.1420737970002466
-0.0017000000000000348,-3.4915074880669104
-0.0027000000000001467,-3.884797229429391
-0.0037000000000000366,-4.23281620919619
-0.0047000000000001485,-4.626105950558669
-0.005700000000000038,-4.887827541033701
-0.00670000000000015,-5.191990470504685
-0.00770000000000004,-5.411270721983764
-0.008700000000000152,-5.629136262162981
-0.009700000000000042,-5.847001802342197
-0.010700000000000154,-6.064867342521412
-0.011700000000000044,-6.238876832404812
-0.012700000000000156,-6.458157083883892
-0.013700000000000045,-6.6760226240631075
-0.014700000000000157,-6.893888164242324
-0.015700000000000047,-7.199465805013171
-0.01670000000000016,-7.50504344578402
-0.01770000000000005,-7.853062425550818
-0.01870000000000016,-8.158640066321666
-0.01970000000000005,-8.508073757388331
-0.020700000000000163,-8.769795347863363
-0.021700000000000053,-9.073958277334345
-0.022700000000000164,-9.293238528813426
-0.023700000000000054,-9.511104068992642
-0.024700000000000166,-9.685113558876042
-0.025700000000000056,-9.902979099055257
-0.026700000000000168,-10.034547249942705
-0.027700000000000058,-10.25241279012192
-0.02870000000000017,-10.470278330301136
-0.02970000000000006,-10.731999920776168
-0.03070000000000017,-10.993721511251199
-0.03170000000000006,-11.343155202317865
-0.03270000000000017,-11.647318131788847
-0.03370000000000006,-12.040607873151327
-0.034700000000000175,-12.390041564217992
-0.035700000000000065,-12.651763154693022
-0.03670000000000018,-12.99978213445982
-0.03770000000000007,-13.217647674639037
-0.03870000000000018,-13.47936926511407
-0.03970000000000007,-13.698649516593148
-0.04070000000000018,-13.916515056772363
-0.04170000000000007,-14.046668496359947
-0.04270000000000018,-14.345172580631472
-0.04370000000000007,-14.57152638860988
-0.044700000000000184,-14.826174422585586
-0.045700000000000074,-15.094969569559943
-0.046700000000000186,-15.491088733522153
-0.047700000000000076,-15.830619445489761
-0.04870000000000019,-16.184297270456018
-0.04970000000000008,-16.580416434418233
-0.05070000000000019,-16.877505807389888
-0.05170000000000008,-17.188742293360193
-0.05270000000000019,-17.4433903273359
-0.05370000000000008,-17.71218547431026
-0.05470000000000019,-18.009274847281915
-0.05570000000000008,-18.23562865526032
-0.056700000000000195,-18.44783535024008
-0.057700000000000085,-18.716630497214435
-0.058700000000000196,-18.97127853119014
-0.059700000000000086,-19.28251501716045
-0.0607000000000002,-19.636192842126707
-0.06170000000000009,-20.01816489309027
-0.0627000000000002,-20.371842718056527
-0.06370000000000009,-20.76796188201874
-0.0647000000000002,-21.2065223849769
-0.06570000000000009,-21.54605309694451
-0.0667000000000002,-21.94217226090672
-0.0677000000000001,-22.253408746877028
-0.0687000000000002,-22.550498119848687
-0.0697000000000001,-22.819293266823045
-0.07070000000000021,-23.073941300798747
-0.0717000000000001,-23.342736447773106
-0.07270000000000021,-23.639825820744765
-0.0737000000000001,-23.951062306715073
-0.07470000000000021,-24.20571034069078
-0.0757000000000001,-24.601829504652986
-0.07670000000000021,-25.04039000761115
-0.0777000000000001,-25.478950510569312
-0.07870000000000021,-25.91751101352747
-0.0797000000000001,-26.38436574248293
-0.08070000000000022,-26.780484906445146
-0.0817000000000001,-27.219045409403304
-0.08270000000000022,-27.487840556377662
-0.08370000000000011,-27.869812607341224
-0.08470000000000022,-28.18104909331153
-0.08570000000000011,-28.435697127287238
-0.08670000000000022,-28.704492274261593
-0.08770000000000011,-29.001581647233255
-0.08870000000000022,-29.31281813320356
-0.08970000000000011,-29.62405461917387
-0.09070000000000022,-30.00602667013743
-0.09170000000000011,-30.487028512091538
-0.09270000000000023,-30.88314767605375
-0.09370000000000012,-31.36414951800786
-0.09470000000000023,-31.887592698957924
-0.09570000000000012,-32.283711862920136
-0.09670000000000023,-32.70812525287965
-0.09770000000000012,-33.06180307784591
-0.09870000000000023,-33.41548090281216
-0.09970000000000012,-33.755011614779775
-0.10070000000000023,-34.06624810075008
-0.10170000000000012,-34.33504324772444
-0.10270000000000024,-34.717015298688004
-0.10370000000000013,-35.02825178465831
-0.10470000000000024,-35.38192960962457
-0.10570000000000013,-35.763901660588125
-0.10670000000000024,-36.244903502542236
-0.10770000000000013,-36.6834640055004
-0.10870000000000024,-37.122024508458566
-0.10970000000000013,-37.687909028404576
-0.11070000000000024,-38.12646953136274
-0.11170000000000013,-38.522588695324956
-0.11270000000000002,-38.90456074628851
-0.11370000000000013,-39.258238571254765
-0.11470000000000002,-39.56947505722508
-0.11570000000000014,-39.90900576919269
-0.11670000000000003,-40.220242255162994
-0.11770000000000014,-40.559772967130606
-0.11870000000000003,-40.95589213109281
-0.11970000000000014,-41.30956995605907
-0.12070000000000003,-41.74813045901723
-0.12170000000000014,-42.229132300971344
-0.12270000000000003,-42.653545690930855
-0.12370000000000014,-43.134547532884966
-0.12470000000000003,-43.657990713835034
-0.12570000000000014,-44.054109877797245
-0.12670000000000003,-44.4926703807554
-0.12770000000000015,-44.80390686672572
-0.12870000000000004,-45.18587891768927
-0.12970000000000015,-45.581998081651484
-0.13070000000000004,-45.89323456762179
-0.13170000000000015,-46.19032394059345
-0.13270000000000004,-46.586443104555656
-0.13370000000000015,-46.982562268517874
-0.13470000000000004,-47.40697565847737
-0.13570000000000015,-47.80309482243959
-0.13670000000000004,-48.2840966643937
-0.13770000000000016,-48.76509850634781
-0.13870000000000005,-49.20365900930597
-0.13970000000000016,-49.72710219025603
-0.14070000000000005,-50.1656626932142
-0.14170000000000016,-50.64666453516831
-0.14270000000000005,-51.071077925127824
-0.14370000000000016,-51.509638428085985
-0.14470000000000005,-51.90575759204819
-0.14570000000000016,-52.25943541701445
-0.14670000000000005,-52.514083450990164
-0.14770000000000016,-52.91020261495237
-0.14870000000000005,-53.26388043991864
-0.14970000000000017,-53.64585249088219
-0.15070000000000006,-53.999530315848446
-0.15170000000000017,-54.43809081880661
-0.15270000000000006,-54.876651321764776
-0.15370000000000017,-55.357653163718886
-0.15470000000000006,-55.881096344668954
-0.15570000000000017,-56.30550973462846
-0.15670000000000006,-56.786511576582576
-0.15770000000000017,-57.182630740544774
-0.15870000000000006,-57.57874990450699
-0.15970000000000018,-57.974869068469204
-0.16070000000000007,-58.35684111943277
-0.16170000000000018,-58.71051894439902
-0.16270000000000007,-59.10663810836124
-0.16370000000000018,-59.54519861131939
-0.16470000000000007,-59.9696120012789
-0.16570000000000018,-60.36573116524111
-0.16670000000000007,-60.889174346191176
-0.16770000000000018,-61.327734849149344
-0.16870000000000007,-61.80873669110345
-0.16970000000000018,-62.33217987205352
-0.17070000000000007,-62.72829903601572
-0.17170000000000019,-63.20930087796983
-0.17270000000000008,-63.54883158993744
-0.1737000000000002,-63.944950753899654
-0.17470000000000008,-64.25618723986996
-0.1757000000000002,-64.55327661284163
-0.17670000000000008,-64.86451309881193
-0.1777000000000002,-65.20404381077954
-0.17870000000000008,-65.51528029674984
-0.1797000000000002,-65.91139946071206
-0.18070000000000008,-66.29337151167562
-0.1817000000000002,-66.77437335362974
-0.18270000000000008,-67.25537519558385
-0.1837000000000002,-67.73637703753796
-0.1847000000000001,-68.25982021848802
-0.1857000000000002,-68.69838072144618
-0.1867000000000001,-69.13694122440434
-0.1877000000000002,-69.53306038836655
-0.1887000000000001,-69.91503243933012
-0.1897000000000002,-70.26871026429637
-0.1907000000000001,-70.62238808926263
-0.1917000000000001,-70.87703612323833
-0.19269999999999998,-71.27315528720055
-0.1937000000000001,-71.58439177317086
-0.19469999999999998,-71.8814811461425
-0.1957000000000001,-72.27760031010472
-0.19669999999999999,-72.75860215205884
-0.1977000000000001,-73.197162655017
-0.1987,-73.57913470598055
-0.1997000000000001,-74.10257788693062
-0.2007,-74.58357972888473
-0.2017000000000001,-75.06458157083884
-0.2027,-75.4182593958051
-0.2037000000000001,-75.81437855976732
-0.2047,-76.11146793273898
-0.2057000000000001,-76.46514575770523
-0.2067,-76.67735245268499
-0.2077000000000001,-76.98858893865528
-0.2087,-77.28567831162695
-0.2097000000000001,-77.59691479759726
-0.2107,-77.90815128356756
-0.2117000000000001,-78.33256467352709
-0.2127,-78.77112517648524
-0.2137000000000001,-79.20968567944341
-0.2147,-79.73312886039348
-0.2157000000000001,-80.25657204134353
-0.2167,-80.65269120530574
-0.21770000000000012,-80.99222191727335
-0.2187,-81.43078242023151
-0.21970000000000012,-81.74201890620182
-0.2207,-82.03910827917348
-0.22170000000000012,-82.18057940915998
-0.2227,-82.47766878213164
-0.22370000000000012,-82.70402259011003
-0.2247,-83.0011119630817
-0.22570000000000012,-83.31234844905201
-0.2267,-83.70846761301424
-0.22770000000000012,-84.13288100297372
-0.22870000000000001,-84.57144150593189
-0.22970000000000013,-85.09488468688197
-0.23070000000000002,-85.49100385084417
-0.23170000000000013,-85.84468167581042
-0.23270000000000002,-86.14177104878208
-0.23370000000000013,-86.45300753475239
-0.23470000000000002,-86.66521422973216
-0.23570000000000013,-86.84912669871461
-0.23670000000000002,-86.97645071570246
-0.2376999999999999,-87.27354008867411
-0.23870000000000002,-87.58477657464444
-0.2396999999999999,-87.89601306061473
-0.24070000000000003,-88.23554377258235
-0.24169999999999991,-88.6741042755405
-0.24270000000000003,-89.11266477849867
-0.24369999999999992,-89.46634260346492
-0.24470000000000003,-89.89075599342443
-0.24569999999999992,-90.20199247939475
-0.24670000000000003,-90.55567030436099
-0.24769999999999992,-90.7254356603448
-0.24870000000000003,-90.93764235532454
-0.24969999999999992,-91.12155482430701
-0.25070000000000003,-91.24887884129487
-0.2516999999999999,-91.37620285828272
-0.25270000000000004,-91.60255666626112
-0.2536999999999999,-91.81476336124088
-0.25470000000000004,-92.04111716921928
-0.2556999999999999,-92.33820654219093
-0.25670000000000004,-92.6918843671572
-0.25769999999999993,-92.98897374012887
-0.25870000000000004,-93.34265156509512
-0.25969999999999993,-93.65388805106544
-0.26070000000000004,-93.90853608504113
-0.26169999999999993,-94.26221391000739
-0.26270000000000004,-94.4319792659912
-0.26369999999999993,-94.6583330739696
-0.26470000000000005,-94.8280984299534
-0.26569999999999994,-94.95542244694126
-0.26670000000000005,-95.04030512493317
-0.26769999999999994,-95.26665893291157
-0.26870000000000005,-95.43642428889537
-0.26969999999999994,-95.64863098387512
-0.27070000000000005,-95.83254345285758
-0.27169999999999994,-96.12963282582925
-0.27270000000000005,-96.3984279728036
-0.27369999999999994,-96.65307600677932
-0.27470000000000006,-96.96431249274961
-0.27569999999999995,-97.13407784873341
-0.27670000000000006,-97.36043165671182
-0.27769999999999995,-97.4877556736997
-0.27870000000000006,-97.57263835169158
-0.27969999999999995,-97.6575210296835
-0.28070000000000006,-97.74240370767538
-0.28169999999999995,-97.6575210296835
-0.28270000000000006,-97.74240370767538
-0.28369999999999995,-97.78484504667132
-0.28470000000000006,-97.88387483766188
-0.28569999999999995,-98.01119885464975
-0.28670000000000007,-98.18096421063355
-0.28769999999999996,-98.40731801861195
-0.28870000000000007,-98.57708337459576
-0.28969999999999996,-98.88831986056607
-0.29070000000000007,-99.10052655554581
-0.29169999999999996,-99.22785057253368
-0.29270000000000007,-99.27029191152963
-0.29369999999999996,-99.35517458952152
-0.2947000000000001,-99.41176304151614
-0.29569999999999996,-99.49664571950804
-0.2967000000000001,-99.41176304151614
-0.29769999999999996,-99.45420438051207
-0.2987000000000001,-99.49664571950804
-0.29969999999999997,-99.49664571950804
-0.3007000000000001,-99.58152839749994
-0.30169999999999997,-99.7937350924797
-0.3027000000000001,-99.93520622246619
-0.30369999999999997,-100.06253023945405
-0.3047000000000001,-100.2747369344338
-0.30569999999999997,-100.40206095142165
-0.3067000000000001,-100.5010907424122
-0.3077,-100.5010907424122
-0.3087000000000001,-100.5010907424122
-0.3097,-100.40206095142165
-0.3107000000000001,-100.31717827342976
-0.3117,-100.18985425644189
-0.3127000000000001,-100.10497157844999
-0.3137,-100.14741291744595
-0.3147000000000001,-100.06253023945405
-0.3157,-100.14741291744595
-0.3167000000000001,-100.31717827342976
-0.3177,-100.5010907424122
-0.3187000000000001,-100.71329743739196
-0.3197,-100.92550413237171
-0.3207000000000001,-100.98209258436633
-0.3217,-101.06697526235823
-0.3227000000000001,-101.10941660135417
-0.3237,-101.10941660135417
-0.3247000000000001,-100.92550413237171
-0.3257,-100.79818011538387
-0.3267000000000001,-100.670856098396
-0.3277,-100.5010907424122
-0.3287000000000001,-100.35961961242569
-0.3297,-100.23229559543785
-0.3307000000000001,-100.2747369344338
-0.3317,-100.40206095142165
-0.3327000000000001,-100.5010907424122
-0.3337,-100.670856098396
-0.3347000000000001,-101.02453392336226
-0.3357,-101.19429927934607
-0.3367000000000001,-101.40650597432582
-0.3377,-101.50553576531638
-0.3387000000000001,-101.50553576531638
-0.3397,-101.3640646353299
-0.3407000000000001,-101.23674061834203
-0.3417,-101.06697526235823
-0.3427000000000001,-100.88306279337576
-0.3437,-100.71329743739196
-0.3447000000000001,-100.45864940341626
-0.3457,-100.31717827342976
-0.3467000000000001,-100.23229559543785
-0.3477,-100.23229559543785
-0.3487000000000001,-100.18985425644189
-0.3497,-100.18985425644189
-0.3507000000000001,-100.23229559543785
-0.3517,-100.31717827342976
-0.3527000000000001,-100.31717827342976
-0.3537,-100.40206095142165
-0.3547000000000001,-100.40206095142165
-0.3557,-100.35961961242569
-0.35670000000000013,-100.35961961242569
-0.3577,-100.35961961242569
-0.35870000000000013,-100.35961961242569
-0.3597,-100.2747369344338
-0.36070000000000013,-100.40206095142165
-0.3617,-100.54353208140815
-0.3626999999999999,-100.54353208140815
-0.3637,-100.670856098396
-0.3646999999999999,-100.79818011538387
-0.3657,-100.84062145437981
-0.3666999999999999,-100.92550413237171
-0.3677,-100.84062145437981
-0.3686999999999999,-100.71329743739196
-0.36970000000000003,-100.58597342040412
-0.3706999999999999,-100.45864940341626
-0.37170000000000003,-100.23229559543785
-0.3726999999999999,-100.10497157844999
-0.37370000000000003,-99.97764756146215
-0.3746999999999999,-99.87861777047159
-0.37570000000000003,-99.83617643147564
-0.3766999999999999,-99.93520622246619
-0.37770000000000004,-99.97764756146215
-0.3786999999999999,-100.02008890045809
-0.37970000000000004,-100.23229559543785
-0.3806999999999999,-100.35961961242569
-0.38170000000000004,-100.40206095142165
-0.38269999999999993,-100.5010907424122
-0.38370000000000004,-100.45864940341626
-0.38469999999999993,-100.31717827342976
-0.38570000000000004,-100.2747369344338
-0.38669999999999993,-100.14741291744595
-0.38770000000000004,-100.10497157844999
-0.38869999999999993,-100.06253023945405
-0.38970000000000005,-99.97764756146215
-0.39069999999999994,-100.02008890045809
-0.39170000000000005,-100.06253023945405
-0.39269999999999994,-100.10497157844999
-0.39370000000000005,-100.10497157844999
-0.39469999999999994,-100.18985425644189
-0.39570000000000005,-100.14741291744595
-0.39669999999999994,-100.06253023945405
-0.39770000000000005,-99.93520622246619
-0.39869999999999994,-99.7937350924797
-0.39970000000000006,-99.66641107549184
-0.40069999999999995,-99.58152839749994
-0.40170000000000006,-99.49664571950804
-0.40269999999999995,-99.45420438051207
-0.40370000000000006,-99.45420438051207
-0.40469999999999995,-99.45420438051207
-0.40570000000000006,-99.49664571950804
-0.40669999999999995,-99.62396973649588
-0.40770000000000006,-99.70885241448778
-0.40869999999999995,-99.83617643147564
-0.40970000000000006,-100.06253023945405
-0.41069999999999995,-100.14741291744595
-0.41170000000000007,-100.31717827342976
-0.41269999999999996,-100.35961961242569
-0.41370000000000007,-100.54353208140815
-0.41469999999999996,-100.58597342040412
-0.41570000000000007,-100.670856098396
-0.41669999999999996,-100.71329743739196
-0.41770000000000007,-100.670856098396
-0.41869999999999996,-100.670856098396
-0.4197000000000001,-100.62841475940007
-0.42069999999999996,-100.58597342040412
-0.4217000000000001,-100.62841475940007
-0.42269999999999996,-100.62841475940007
-0.4237000000000001,-100.71329743739196
-0.42469999999999997,-100.92550413237171
-0.4257000000000001,-101.06697526235823
-0.42669999999999997,-101.23674061834203
-0.4277000000000001,-101.32162329633393
-0.42869999999999997,-101.40650597432582
-0.4297000000000001,-101.50553576531638
-0.43069999999999997,-101.54797710431234
-0.4317000000000001,-101.50553576531638
-0.4327,-101.59041844330828
-0.4337000000000001,-101.6753011213002
-0.4347,-101.71774246029614
-0.4357000000000001,-101.84506647728399
-0.4367,-102.02897894626645
-0.4377000000000001,-102.1563029632543
-0.4387,-102.3260683192381
-0.4397000000000001,-102.5524221272165
-0.4407,-102.72218748320032
-0.4417000000000001,-102.84951150018817
-0.4427,-102.93439417818009
-0.4437000000000001,-102.97683551717601
-0.4447,-103.01927685617197
-0.4457000000000001,-103.01927685617197
-0.4467,-102.93439417818009
-0.4477000000000001,-102.97683551717601
-0.4487,-103.01927685617197
-0.4497000000000001,-103.07586530816658
-0.4507,-103.20318932515443
-0.4517000000000001,-103.45783735913014
-0.4527,-103.7266325061045
-0.4537000000000001,-103.93883920108425
-0.4547,-104.2925170260505
-0.4557000000000001,-104.50472372103027
-0.4567,-104.73107752900866
-0.4577000000000001,-104.81596020700057
-0.4587,-104.85840154599651
-0.4597000000000001,-104.85840154599651
-0.4607,-104.85840154599651
-0.4617000000000001,-104.77351886800463
-0.4627,-104.81596020700057
-0.4637000000000001,-104.85840154599651
-0.4647,-104.90084288499246
-0.4657000000000001,-105.11304957997223
-0.4667,-105.33940338795064
-0.4677000000000001,-105.59405142192634
-0.4687,-105.82040522990474
-0.4697000000000001,-106.07505326388046
-0.4707,-106.2589657328629
-0.4717000000000001,-106.38628974985076
-0.4727,-106.38628974985076
-0.4737000000000001,-106.38628974985076
-0.4747,-106.4287310888467
-0.4757000000000001,-106.47117242784265
-0.4767,-106.4287310888467
-0.4777000000000001,-106.55605510583456
-0.4787,-106.73996757481702
-0.4797000000000001,-106.82485025280893
-0.4807,-107.07949828678463
-0.48170000000000013,-107.39073477275493
-0.4827,-107.6029414677347
-0.48370000000000013,-107.8292952757131
-0.4847,-108.0839433096888
-0.48570000000000013,-108.1688259876807
-0.4867,-107.34829343375898
-0.48570000000000013,-104.81596020700057
-0.4847,-102.59486346621246
-0.48370000000000013,-100.58597342040412
-0.4827,-98.7044073915836
-0.48170000000000013,-96.87942981475771
-0.4807,-95.22421759391563
-0.4797000000000001,-93.69632939006138
-0.4787,-92.29576520319499
-0.4777000000000001,-90.89520101632861
-0.4767,-89.67854929844468
-0.4757000000000001,-88.4194562415648
-0.4747,-87.23109874967815
-0.4737000000000001,-86.09932970978613
-0.4727,-84.92511933089816
-0.4717000000000001,-83.75090895201016
-0.4707,-82.47766878213164
-0.4697000000000001,-81.30345840324367
-0.4687,-80.08680668535972
-0.4677000000000001,-78.85600785447714
-0.4667,-77.59691479759726
-0.4657000000000001,-76.42270441870929
-0.4647,-75.29093537881725
-0.4637000000000001,-74.10257788693062
