Dec. 26, 2024   05:05:43
Cyclic Voltammetry
File: c:/users/guazh/data/banditlqround7_x0exp136_r20/2024-12-24-exp744\exp744-2024-12-26t04_49_30-arkoh\exp744_cv_sr_700mvs_efin_-1700mv.bin
Data Source:  Experiment
Instrument Model:  CHI760E
Header: CV ran at 700 mVs
Note: 

Init E (V) = -1
High E (V) = -1
Low E (V) = -1.7
Final E (V) = -1
Init P/N = N
Scan Rate (V/s) = 0.7
Segment = 3
Sample Interval (V) = 0.001
Quiet Time (sec) = 2
Sensitivity (A/V) = 0.01
Comp R (ohm) = 1.5

Results:

Channel 1:
Segment 1:

Segment 2:

Segment 3:

Potential/V, Current/A

-1.000, 2.482e-5
-1.001, 4.332e-5
-1.002, 4.640e-5
-1.003, 4.640e-5
-1.004, 4.949e-5
-1.005, 4.949e-5
-1.006, 5.257e-5
-1.007, 5.257e-5
-1.008, 5.257e-5
-1.009, 5.257e-5
-1.010, 5.257e-5
-1.011, 5.257e-5
-1.012, 5.257e-5
-1.013, 5.257e-5
-1.014, 5.257e-5
-1.015, 5.257e-5
-1.016, 5.565e-5
-1.017, 5.565e-5
-1.018, 5.565e-5
-1.019, 5.565e-5
-1.020, 5.565e-5
-1.021, 5.565e-5
-1.022, 5.565e-5
-1.023, 5.565e-5
-1.024, 5.257e-5
-1.025, 5.565e-5
-1.026, 5.565e-5
-1.027, 5.565e-5
-1.028, 5.873e-5
-1.029, 5.873e-5
-1.030, 5.873e-5
-1.031, 5.873e-5
-1.032, 5.873e-5
-1.033, 5.565e-5
-1.034, 5.565e-5
-1.035, 5.565e-5
-1.036, 5.565e-5
-1.037, 5.565e-5
-1.038, 5.565e-5
-1.039, 5.565e-5
-1.040, 5.873e-5
-1.041, 5.873e-5
-1.042, 5.873e-5
-1.043, 5.873e-5
-1.044, 5.873e-5
-1.045, 5.565e-5
-1.046, 5.565e-5
-1.047, 5.873e-5
-1.048, 5.565e-5
-1.049, 5.565e-5
-1.050, 5.565e-5
-1.051, 5.873e-5
-1.052, 5.873e-5
-1.053, 5.873e-5
-1.054, 5.873e-5
-1.055, 5.873e-5
-1.056, 5.873e-5
-1.057, 5.873e-5
-1.058, 5.873e-5
-1.059, 5.565e-5
-1.060, 5.565e-5
-1.061, 5.565e-5
-1.062, 5.873e-5
-1.063, 6.182e-5
-1.064, 5.873e-5
-1.065, 6.182e-5
-1.066, 5.873e-5
-1.067, 5.873e-5
-1.068, 5.873e-5
-1.069, 5.873e-5
-1.070, 5.565e-5
-1.071, 5.873e-5
-1.072, 5.565e-5
-1.073, 5.873e-5
-1.074, 5.873e-5
-1.075, 6.182e-5
-1.076, 6.182e-5
-1.077, 6.182e-5
-1.078, 6.182e-5
-1.079, 6.182e-5
-1.080, 5.873e-5
-1.081, 5.873e-5
-1.082, 5.873e-5
-1.083, 5.873e-5
-1.084, 5.873e-5
-1.085, 5.873e-5
-1.086, 6.182e-5
-1.087, 6.182e-5
-1.088, 6.182e-5
-1.089, 6.182e-5
-1.090, 6.182e-5
-1.091, 5.873e-5
-1.092, 5.873e-5
-1.093, 5.873e-5
-1.094, 5.873e-5
-1.095, 5.873e-5
-1.096, 5.873e-5
-1.097, 5.873e-5
-1.098, 6.182e-5
-1.099, 5.873e-5
-1.100, 6.182e-5
-1.101, 5.873e-5
-1.102, 5.873e-5
-1.103, 5.873e-5
-1.104, 5.873e-5
-1.105, 5.873e-5
-1.106, 5.873e-5
-1.107, 5.873e-5
-1.108, 5.873e-5
-1.109, 5.873e-5
-1.110, 5.873e-5
-1.111, 6.182e-5
-1.112, 5.873e-5
-1.113, 5.873e-5
-1.114, 5.873e-5
-1.115, 5.873e-5
-1.116, 5.873e-5
-1.117, 5.873e-5
-1.118, 5.873e-5
-1.119, 5.873e-5
-1.120, 5.873e-5
-1.121, 5.873e-5
-1.122, 5.873e-5
-1.123, 6.182e-5
-1.124, 5.873e-5
-1.125, 6.182e-5
-1.126, 5.873e-5
-1.127, 5.873e-5
-1.128, 5.873e-5
-1.129, 5.565e-5
-1.130, 5.873e-5
-1.131, 5.873e-5
-1.132, 5.873e-5
-1.133, 5.873e-5
-1.134, 5.873e-5
-1.135, 6.182e-5
-1.136, 5.873e-5
-1.137, 5.873e-5
-1.138, 5.873e-5
-1.139, 5.873e-5
-1.140, 5.873e-5
-1.141, 5.873e-5
-1.142, 5.873e-5
-1.143, 5.873e-5
-1.144, 5.873e-5
-1.145, 5.873e-5
-1.146, 6.182e-5
-1.147, 6.182e-5
-1.148, 6.182e-5
-1.149, 5.873e-5
-1.150, 5.873e-5
-1.151, 5.873e-5
-1.152, 5.873e-5
-1.153, 5.873e-5
-1.154, 5.873e-5
-1.155, 5.873e-5
-1.156, 5.873e-5
-1.157, 5.873e-5
-1.158, 6.182e-5
-1.159, 5.873e-5
-1.160, 5.873e-5
-1.161, 5.873e-5
-1.162, 5.873e-5
-1.163, 5.873e-5
-1.164, 5.873e-5
-1.165, 5.873e-5
-1.166, 5.873e-5
-1.167, 5.873e-5
-1.168, 5.873e-5
-1.169, 5.873e-5
-1.170, 6.182e-5
-1.171, 5.873e-5
-1.172, 5.873e-5
-1.173, 5.873e-5
-1.174, 5.873e-5
-1.175, 5.873e-5
-1.176, 5.565e-5
-1.177, 5.873e-5
-1.178, 5.873e-5
-1.179, 5.873e-5
-1.180, 5.873e-5
-1.181, 5.873e-5
-1.182, 6.182e-5
-1.183, 5.873e-5
-1.184, 5.873e-5
-1.185, 5.873e-5
-1.186, 5.873e-5
-1.187, 5.565e-5
-1.188, 5.873e-5
-1.189, 5.873e-5
-1.190, 5.873e-5
-1.191, 5.873e-5
-1.192, 5.873e-5
-1.193, 5.873e-5
-1.194, 5.873e-5
-1.195, 5.873e-5
-1.196, 5.873e-5
-1.197, 5.873e-5
-1.198, 5.873e-5
-1.199, 5.565e-5
-1.200, 5.565e-5
-1.201, 5.873e-5
-1.202, 5.873e-5
-1.203, 5.873e-5
-1.204, 5.873e-5
-1.205, 6.182e-5
-1.206, 5.873e-5
-1.207, 5.873e-5
-1.208, 5.873e-5
-1.209, 5.565e-5
-1.210, 5.873e-5
-1.211, 5.565e-5
-1.212, 5.565e-5
-1.213, 5.565e-5
-1.214, 5.873e-5
-1.215, 5.873e-5
-1.216, 5.873e-5
-1.217, 5.873e-5
-1.218, 5.873e-5
-1.219, 5.873e-5
-1.220, 5.565e-5
-1.221, 5.565e-5
-1.222, 5.565e-5
-1.223, 5.873e-5
-1.224, 5.565e-5
-1.225, 5.873e-5
-1.226, 5.873e-5
-1.227, 5.873e-5
-1.228, 5.873e-5
-1.229, 5.873e-5
-1.230, 5.873e-5
-1.231, 5.565e-5
-1.232, 5.565e-5
-1.233, 5.565e-5
-1.234, 5.565e-5
-1.235, 5.565e-5
-1.236, 5.565e-5
-1.237, 5.565e-5
-1.238, 5.873e-5
-1.239, 5.873e-5
-1.240, 5.873e-5
-1.241, 5.565e-5
-1.242, 5.565e-5
-1.243, 5.565e-5
-1.244, 5.565e-5
-1.245, 5.565e-5
-1.246, 5.565e-5
-1.247, 5.565e-5
-1.248, 5.565e-5
-1.249, 5.565e-5
-1.250, 5.565e-5
-1.251, 5.873e-5
-1.252, 5.873e-5
-1.253, 5.565e-5
-1.254, 5.565e-5
-1.255, 5.565e-5
-1.256, 5.565e-5
-1.257, 5.565e-5
-1.258, 5.565e-5
-1.259, 5.565e-5
-1.260, 5.565e-5
-1.261, 5.565e-5
-1.262, 5.565e-5
-1.263, 5.873e-5
-1.264, 5.565e-5
-1.265, 5.565e-5
-1.266, 5.565e-5
-1.267, 5.565e-5
-1.268, 5.565e-5
-1.269, 5.257e-5
-1.270, 5.565e-5
-1.271, 5.565e-5
-1.272, 5.565e-5
-1.273, 5.565e-5
-1.274, 5.565e-5
-1.275, 5.873e-5
-1.276, 5.565e-5
-1.277, 5.565e-5
-1.278, 5.565e-5
-1.279, 5.565e-5
-1.280, 5.257e-5
-1.281, 5.565e-5
-1.282, 5.565e-5
-1.283, 5.565e-5
-1.284, 5.565e-5
-1.285, 5.565e-5
-1.286, 5.565e-5
-1.287, 5.565e-5
-1.288, 5.565e-5
-1.289, 5.565e-5
-1.290, 5.565e-5
-1.291, 5.565e-5
-1.292, 5.565e-5
-1.293, 5.565e-5
-1.294, 5.565e-5
-1.295, 5.565e-5
-1.296, 5.565e-5
-1.297, 5.565e-5
-1.298, 5.565e-5
-1.299, 5.565e-5
-1.300, 5.565e-5
-1.301, 5.565e-5
-1.302, 5.565e-5
-1.303, 5.565e-5
-1.304, 5.257e-5
-1.305, 5.565e-5
-1.306, 5.257e-5
-1.307, 5.565e-5
-1.308, 5.565e-5
-1.309, 5.565e-5
-1.310, 5.873e-5
-1.311, 5.565e-5
-1.312, 5.565e-5
-1.313, 5.565e-5
-1.314, 5.565e-5
-1.315, 5.565e-5
-1.316, 5.565e-5
-1.317, 5.565e-5
-1.318, 5.565e-5
-1.319, 5.565e-5
-1.320, 5.565e-5
-1.321, 5.565e-5
-1.322, 5.565e-5
-1.323, 5.565e-5
-1.324, 5.565e-5
-1.325, 5.565e-5
-1.326, 5.565e-5
-1.327, 5.565e-5
-1.328, 5.565e-5
-1.329, 5.565e-5
-1.330, 5.565e-5
-1.331, 5.565e-5
-1.332, 5.565e-5
-1.333, 5.873e-5
-1.334, 5.565e-5
-1.335, 5.873e-5
-1.336, 5.565e-5
-1.337, 5.565e-5
-1.338, 5.565e-5
-1.339, 5.565e-5
-1.340, 5.565e-5
-1.341, 5.565e-5
-1.342, 5.873e-5
-1.343, 5.873e-5
-1.344, 5.873e-5
-1.345, 5.873e-5
-1.346, 5.873e-5
-1.347, 5.873e-5
-1.348, 5.873e-5
-1.349, 5.565e-5
-1.350, 5.565e-5
-1.351, 5.565e-5
-1.352, 5.565e-5
-1.353, 5.873e-5
-1.354, 5.873e-5
-1.355, 5.873e-5
-1.356, 5.873e-5
-1.357, 5.873e-5
-1.358, 5.873e-5
-1.359, 5.873e-5
-1.360, 5.873e-5
-1.361, 5.873e-5
-1.362, 5.873e-5
-1.363, 5.873e-5
-1.364, 5.873e-5
-1.365, 5.873e-5
-1.366, 6.182e-5
-1.367, 6.182e-5
-1.368, 6.182e-5
-1.369, 6.182e-5
-1.370, 6.182e-5
-1.371, 6.182e-5
-1.372, 6.182e-5
-1.373, 6.182e-5
-1.374, 6.182e-5
-1.375, 6.182e-5
-1.376, 6.182e-5
-1.377, 6.182e-5
-1.378, 6.490e-5
-1.379, 6.490e-5
-1.380, 6.490e-5
-1.381, 6.490e-5
-1.382, 6.490e-5
-1.383, 6.490e-5
-1.384, 6.490e-5
-1.385, 6.490e-5
-1.386, 6.490e-5
-1.387, 6.490e-5
-1.388, 6.798e-5
-1.389, 6.798e-5
-1.390, 6.798e-5
-1.391, 6.798e-5
-1.392, 6.798e-5
-1.393, 7.107e-5
-1.394, 6.798e-5
-1.395, 6.798e-5
-1.396, 7.107e-5
-1.397, 7.107e-5
-1.398, 7.107e-5
-1.399, 7.107e-5
-1.400, 7.107e-5
-1.401, 7.415e-5
-1.402, 7.415e-5
-1.403, 7.415e-5
-1.404, 7.415e-5
-1.405, 7.415e-5
-1.406, 7.723e-5
-1.407, 7.723e-5
-1.408, 7.723e-5
-1.409, 7.723e-5
-1.410, 7.723e-5
-1.411, 7.723e-5
-1.412, 8.032e-5
-1.413, 8.032e-5
-1.414, 8.340e-5
-1.415, 8.340e-5
-1.416, 8.340e-5
-1.417, 8.340e-5
-1.418, 8.340e-5
-1.419, 8.340e-5
-1.420, 8.648e-5
-1.421, 8.648e-5
-1.422, 8.648e-5
-1.423, 8.648e-5
-1.424, 8.957e-5
-1.425, 8.957e-5
-1.426, 9.265e-5
-1.427, 9.265e-5
-1.428, 9.573e-5
-1.429, 9.573e-5
-1.430, 9.573e-5
-1.431, 9.882e-5
-1.432, 9.882e-5
-1.433, 9.882e-5
-1.434, 1.019e-4
-1.435, 1.019e-4
-1.436, 1.019e-4
-1.437, 1.050e-4
-1.438, 1.081e-4
-1.439, 1.081e-4
-1.440, 1.081e-4
-1.441, 1.111e-4
-1.442, 1.111e-4
-1.443, 1.142e-4
-1.444, 1.142e-4
-1.445, 1.142e-4
-1.446, 1.173e-4
-1.447, 1.204e-4
-1.448, 1.204e-4
-1.449, 1.235e-4
-1.450, 1.266e-4
-1.451, 1.296e-4
-1.452, 1.296e-4
-1.453, 1.327e-4
-1.454, 1.327e-4
-1.455, 1.358e-4
-1.456, 1.358e-4
-1.457, 1.389e-4
-1.458, 1.389e-4
-1.459, 1.420e-4
-1.460, 1.451e-4
-1.461, 1.512e-4
-1.462, 1.512e-4
-1.463, 1.543e-4
-1.464, 1.574e-4
-1.465, 1.574e-4
-1.466, 1.605e-4
-1.467, 1.636e-4
-1.468, 1.666e-4
-1.469, 1.697e-4
-1.470, 1.728e-4
-1.471, 1.759e-4
-1.472, 1.790e-4
-1.473, 1.821e-4
-1.474, 1.851e-4
-1.475, 1.882e-4
-1.476, 1.913e-4
-1.477, 1.944e-4
-1.478, 1.975e-4
-1.479, 2.006e-4
-1.480, 2.036e-4
-1.481, 2.067e-4
-1.482, 2.129e-4
-1.483, 2.160e-4
-1.484, 2.221e-4
-1.485, 2.252e-4
-1.486, 2.314e-4
-1.487, 2.345e-4
-1.488, 2.376e-4
-1.489, 2.406e-4
-1.490, 2.468e-4
-1.491, 2.499e-4
-1.492, 2.561e-4
-1.493, 2.591e-4
-1.494, 2.653e-4
-1.495, 2.715e-4
-1.496, 2.776e-4
-1.497, 2.838e-4
-1.498, 2.869e-4
-1.499, 2.931e-4
-1.500, 2.961e-4
-1.501, 3.023e-4
-1.502, 3.085e-4
-1.503, 3.146e-4
-1.504, 3.208e-4
-1.505, 3.270e-4
-1.506, 3.362e-4
-1.507, 3.424e-4
-1.508, 3.485e-4
-1.509, 3.547e-4
-1.510, 3.640e-4
-1.511, 3.701e-4
-1.512, 3.763e-4
-1.513, 3.855e-4
-1.514, 3.917e-4
-1.515, 3.979e-4
-1.516, 4.040e-4
-1.517, 4.164e-4
-1.518, 4.225e-4
-1.519, 4.318e-4
-1.520, 4.410e-4
-1.521, 4.503e-4
-1.522, 4.595e-4
-1.523, 4.688e-4
-1.524, 4.780e-4
-1.525, 4.842e-4
-1.526, 4.935e-4
-1.527, 5.027e-4
-1.528, 5.150e-4
-1.529, 5.243e-4
-1.530, 5.366e-4
-1.531, 5.459e-4
-1.532, 5.582e-4
-1.533, 5.705e-4
-1.534, 5.798e-4
-1.535, 5.921e-4
-1.536, 6.014e-4
-1.537, 6.137e-4
-1.538, 6.260e-4
-1.539, 6.384e-4
-1.540, 6.507e-4
-1.541, 6.661e-4
-1.542, 6.784e-4
-1.543, 6.939e-4
-1.544, 7.062e-4
-1.545, 7.216e-4
-1.546, 7.339e-4
-1.547, 7.494e-4
-1.548, 7.648e-4
-1.549, 7.771e-4
-1.550, 7.925e-4
-1.551, 8.079e-4
-1.552, 8.233e-4
-1.553, 8.418e-4
-1.554, 8.573e-4
-1.555, 8.758e-4
-1.556, 8.943e-4
-1.557, 9.097e-4
-1.558, 9.282e-4
-1.559, 9.436e-4
-1.560, 9.652e-4
-1.561, 9.806e-4
-1.562, 9.991e-4
-1.563, 1.018e-3
-1.564, 1.036e-3
-1.565, 1.058e-3
-1.566, 1.079e-3
-1.567, 1.101e-3
-1.568, 1.122e-3
-1.569, 1.144e-3
-1.570, 1.166e-3
-1.571, 1.187e-3
-1.572, 1.206e-3
-1.573, 1.227e-3
-1.574, 1.252e-3
-1.575, 1.277e-3
-1.576, 1.298e-3
-1.577, 1.323e-3
-1.578, 1.351e-3
-1.579, 1.375e-3
-1.580, 1.400e-3
-1.581, 1.425e-3
-1.582, 1.449e-3
-1.583, 1.477e-3
-1.584, 1.502e-3
-1.585, 1.529e-3
-1.586, 1.557e-3
-1.587, 1.585e-3
-1.588, 1.616e-3
-1.589, 1.643e-3
-1.590, 1.674e-3
-1.591, 1.705e-3
-1.592, 1.736e-3
-1.593, 1.767e-3
-1.594, 1.795e-3
-1.595, 1.825e-3
-1.596, 1.856e-3
-1.597, 1.887e-3
-1.598, 1.918e-3
-1.599, 1.952e-3
-1.600, 1.983e-3
-1.601, 2.020e-3
-1.602, 2.054e-3
-1.603, 2.087e-3
-1.604, 2.124e-3
-1.605, 2.158e-3
-1.606, 2.192e-3
-1.607, 2.229e-3
-1.608, 2.263e-3
-1.609, 2.300e-3
-1.610, 2.337e-3
-1.611, 2.377e-3
-1.612, 2.417e-3
-1.613, 2.457e-3
-1.614, 2.497e-3
-1.615, 2.538e-3
-1.616, 2.578e-3
-1.617, 2.618e-3
-1.618, 2.658e-3
-1.619, 2.695e-3
-1.620, 2.735e-3
-1.621, 2.775e-3
-1.622, 2.818e-3
-1.623, 2.858e-3
-1.624, 2.904e-3
-1.625, 2.948e-3
-1.626, 2.991e-3
-1.627, 3.037e-3
-1.628, 3.080e-3
-1.629, 3.123e-3
-1.630, 3.170e-3
-1.631, 3.213e-3
-1.632, 3.259e-3
-1.633, 3.305e-3
-1.634, 3.355e-3
-1.635, 3.404e-3
-1.636, 3.453e-3
-1.637, 3.503e-3
-1.638, 3.555e-3
-1.639, 3.604e-3
-1.640, 3.654e-3
-1.641, 3.703e-3
-1.642, 3.749e-3
-1.643, 3.799e-3
-1.644, 3.848e-3
-1.645, 3.900e-3
-1.646, 3.950e-3
-1.647, 4.005e-3
-1.648, 4.058e-3
-1.649, 4.110e-3
-1.650, 4.165e-3
-1.651, 4.218e-3
-1.652, 4.270e-3
-1.653, 4.323e-3
-1.654, 4.372e-3
-1.655, 4.424e-3
-1.656, 4.480e-3
-1.657, 4.535e-3
-1.658, 4.594e-3
-1.659, 4.653e-3
-1.660, 4.711e-3
-1.661, 4.770e-3
-1.662, 4.828e-3
-1.663, 4.884e-3
-1.664, 4.939e-3
-1.665, 4.998e-3
-1.666, 5.050e-3
-1.667, 5.109e-3
-1.668, 5.167e-3
-1.669, 5.226e-3
-1.670, 5.288e-3
-1.671, 5.349e-3
-1.672, 5.411e-3
-1.673, 5.476e-3
-1.674, 5.537e-3
-1.675, 5.602e-3
-1.676, 5.651e-3
-1.677, 5.704e-3
-1.678, 5.766e-3
-1.679, 5.827e-3
-1.680, 5.889e-3
-1.681, 5.951e-3
-1.682, 6.018e-3
-1.683, 6.083e-3
-1.684, 6.151e-3
-1.685, 6.219e-3
-1.686, 6.287e-3
-1.687, 6.351e-3
-1.688, 6.419e-3
-1.689, 6.484e-3
-1.690, 6.549e-3
-1.691, 6.613e-3
-1.692, 6.684e-3
-1.693, 6.755e-3
-1.694, 6.823e-3
-1.695, 6.897e-3
-1.696, 6.965e-3
-1.697, 7.039e-3
-1.698, 7.107e-3
-1.699, 7.175e-3
-1.700, 7.184e-3
-1.699, 7.107e-3
-1.698, 7.036e-3
-1.697, 6.965e-3
-1.696, 6.894e-3
-1.695, 6.826e-3
-1.694, 6.755e-3
-1.693, 6.691e-3
-1.692, 6.620e-3
-1.691, 6.552e-3
-1.690, 6.481e-3
-1.689, 6.410e-3
-1.688, 6.339e-3
-1.687, 6.268e-3
-1.686, 6.197e-3
-1.685, 6.129e-3
-1.684, 6.062e-3
-1.683, 5.997e-3
-1.682, 5.935e-3
-1.681, 5.870e-3
-1.680, 5.806e-3
-1.679, 5.741e-3
-1.678, 5.679e-3
-1.677, 5.611e-3
-1.676, 5.547e-3
-1.675, 5.482e-3
-1.674, 5.417e-3
-1.673, 5.356e-3
-1.672, 5.294e-3
-1.671, 5.235e-3
-1.670, 5.177e-3
-1.669, 5.118e-3
-1.668, 5.056e-3
-1.667, 4.998e-3
-1.666, 4.936e-3
-1.665, 4.875e-3
-1.664, 4.813e-3
-1.663, 4.757e-3
-1.662, 4.696e-3
-1.661, 4.637e-3
-1.660, 4.582e-3
-1.659, 4.526e-3
-1.658, 4.471e-3
-1.657, 4.415e-3
-1.656, 4.363e-3
-1.655, 4.307e-3
-1.654, 4.249e-3
-1.653, 4.193e-3
-1.652, 4.138e-3
-1.651, 4.082e-3
-1.650, 4.030e-3
-1.649, 3.977e-3
-1.648, 3.925e-3
-1.647, 3.876e-3
-1.646, 3.823e-3
-1.645, 3.774e-3
-1.644, 3.725e-3
-1.643, 3.672e-3
-1.642, 3.623e-3
-1.641, 3.570e-3
-1.640, 3.521e-3
-1.639, 3.472e-3
-1.638, 3.422e-3
-1.637, 3.379e-3
-1.636, 3.333e-3
-1.635, 3.290e-3
-1.634, 3.244e-3
-1.633, 3.200e-3
-1.632, 3.154e-3
-1.631, 3.111e-3
-1.630, 3.062e-3
-1.629, 3.019e-3
-1.628, 2.975e-3
-1.627, 2.932e-3
-1.626, 2.889e-3
-1.625, 2.846e-3
-1.624, 2.806e-3
-1.623, 2.769e-3
-1.622, 2.729e-3
-1.621, 2.689e-3
-1.620, 2.645e-3
-1.619, 2.608e-3
-1.618, 2.568e-3
-1.617, 2.528e-3
-1.616, 2.488e-3
-1.615, 2.448e-3
-1.614, 2.411e-3
-1.613, 2.374e-3
-1.612, 2.340e-3
-1.611, 2.303e-3
-1.610, 2.269e-3
-1.609, 2.232e-3
-1.608, 2.198e-3
-1.607, 2.164e-3
-1.606, 2.128e-3
-1.605, 2.097e-3
-1.604, 2.060e-3
-1.603, 2.029e-3
-1.602, 1.998e-3
-1.601, 1.967e-3
-1.600, 1.936e-3
-1.599, 1.906e-3
-1.598, 1.875e-3
-1.597, 1.844e-3
-1.596, 1.813e-3
-1.595, 1.785e-3
-1.594, 1.754e-3
-1.593, 1.724e-3
-1.592, 1.696e-3
-1.591, 1.668e-3
-1.590, 1.640e-3
-1.589, 1.616e-3
-1.588, 1.588e-3
-1.587, 1.563e-3
-1.586, 1.539e-3
-1.585, 1.511e-3
-1.584, 1.486e-3
-1.583, 1.458e-3
-1.582, 1.434e-3
-1.581, 1.409e-3
-1.580, 1.384e-3
-1.579, 1.363e-3
-1.578, 1.341e-3
-1.577, 1.320e-3
-1.576, 1.295e-3
-1.575, 1.277e-3
-1.574, 1.252e-3
-1.573, 1.230e-3
-1.572, 1.209e-3
-1.571, 1.187e-3
-1.570, 1.169e-3
-1.569, 1.147e-3
-1.568, 1.129e-3
-1.567, 1.107e-3
-1.566, 1.088e-3
-1.565, 1.073e-3
-1.564, 1.051e-3
-1.563, 1.033e-3
-1.562, 1.014e-3
-1.561, 9.960e-4
-1.560, 9.806e-4
-1.559, 9.621e-4
-1.558, 9.436e-4
-1.557, 9.251e-4
-1.556, 9.097e-4
-1.555, 8.943e-4
-1.554, 8.788e-4
-1.553, 8.634e-4
-1.552, 8.511e-4
-1.551, 8.357e-4
-1.550, 8.172e-4
-1.549, 8.048e-4
-1.548, 7.863e-4
-1.547, 7.709e-4
-1.546, 7.586e-4
-1.545, 7.432e-4
-1.544, 7.309e-4
-1.543, 7.154e-4
-1.542, 7.031e-4
-1.541, 6.908e-4
-1.540, 6.784e-4
-1.539, 6.630e-4
-1.538, 6.538e-4
-1.537, 6.384e-4
-1.536, 6.260e-4
-1.535, 6.137e-4
-1.534, 6.044e-4
-1.533, 5.921e-4
-1.532, 5.829e-4
-1.531, 5.705e-4
-1.530, 5.613e-4
-1.529, 5.489e-4
-1.528, 5.397e-4
-1.527, 5.305e-4
-1.526, 5.181e-4
-1.525, 5.089e-4
-1.524, 4.965e-4
-1.523, 4.873e-4
-1.522, 4.780e-4
-1.521, 4.688e-4
-1.520, 4.595e-4
-1.519, 4.503e-4
-1.518, 4.441e-4
-1.517, 4.349e-4
-1.516, 4.256e-4
-1.515, 4.164e-4
-1.514, 4.071e-4
-1.513, 3.979e-4
-1.512, 3.917e-4
-1.511, 3.825e-4
-1.510, 3.763e-4
-1.509, 3.670e-4
-1.508, 3.609e-4
-1.507, 3.547e-4
-1.506, 3.455e-4
-1.505, 3.393e-4
-1.504, 3.331e-4
-1.503, 3.239e-4
-1.502, 3.177e-4
-1.501, 3.115e-4
-1.500, 3.023e-4
-1.499, 2.961e-4
-1.498, 2.900e-4
-1.497, 2.869e-4
-1.496, 2.807e-4
-1.495, 2.746e-4
-1.494, 2.684e-4
-1.493, 2.622e-4
-1.492, 2.561e-4
-1.491, 2.499e-4
-1.490, 2.437e-4
-1.489, 2.376e-4
-1.488, 2.314e-4
-1.487, 2.283e-4
-1.486, 2.221e-4
-1.485, 2.191e-4
-1.484, 2.160e-4
-1.483, 2.098e-4
-1.482, 2.036e-4
-1.481, 1.975e-4
-1.480, 1.944e-4
-1.479, 1.882e-4
-1.478, 1.851e-4
-1.477, 1.790e-4
-1.476, 1.759e-4
-1.475, 1.728e-4
-1.474, 1.666e-4
-1.473, 1.636e-4
-1.472, 1.605e-4
-1.471, 1.574e-4
-1.470, 1.512e-4
-1.469, 1.481e-4
-1.468, 1.451e-4
-1.467, 1.420e-4
-1.466, 1.358e-4
-1.465, 1.327e-4
-1.464, 1.296e-4
-1.463, 1.266e-4
-1.462, 1.235e-4
-1.461, 1.204e-4
-1.460, 1.173e-4
-1.459, 1.142e-4
-1.458, 1.111e-4
-1.457, 1.081e-4
-1.456, 1.050e-4
-1.455, 1.019e-4
-1.454, 9.882e-5
-1.453, 9.573e-5
-1.452, 9.265e-5
-1.451, 8.957e-5
-1.450, 8.957e-5
-1.449, 8.648e-5
-1.448, 8.648e-5
-1.447, 8.032e-5
-1.446, 7.723e-5
-1.445, 7.723e-5
-1.444, 7.415e-5
-1.443, 7.107e-5
-1.442, 6.798e-5
-1.441, 6.798e-5
-1.440, 6.490e-5
-1.439, 6.182e-5
-1.438, 6.182e-5
-1.437, 5.873e-5
-1.436, 5.873e-5
-1.435, 5.565e-5
-1.434, 5.257e-5
-1.433, 4.949e-5
-1.432, 4.949e-5
-1.431, 4.640e-5
-1.430, 4.640e-5
-1.429, 4.332e-5
-1.428, 4.332e-5
-1.427, 4.024e-5
-1.426, 4.024e-5
-1.425, 4.024e-5
-1.424, 3.715e-5
-1.423, 3.407e-5
-1.422, 3.407e-5
-1.421, 3.099e-5
-1.420, 2.790e-5
-1.419, 2.790e-5
-1.418, 2.790e-5
-1.417, 2.482e-5
-1.416, 2.482e-5
-1.415, 2.174e-5
-1.414, 2.174e-5
-1.413, 2.174e-5
-1.412, 1.865e-5
-1.411, 1.865e-5
-1.410, 1.557e-5
-1.409, 1.557e-5
-1.408, 1.557e-5
-1.407, 1.249e-5
-1.406, 1.249e-5
-1.405, 1.249e-5
-1.404, 9.405e-6
-1.403, 9.405e-6
-1.402, 9.405e-6
-1.401, 9.405e-6
-1.400, 6.322e-6
-1.399, 6.322e-6
-1.398, 3.239e-6
-1.397, 3.239e-6
-1.396, 1.559e-7
-1.395, 1.559e-7
-1.394, 1.559e-7
-1.393, 1.559e-7
-1.392, 1.559e-7
-1.391, 1.559e-7
-1.390, 1.559e-7
-1.389, -2.927e-6
-1.388, -2.927e-6
-1.387, -2.927e-6
-1.386, -6.010e-6
-1.385, -6.010e-6
-1.384, -6.010e-6
-1.383, -9.093e-6
-1.382, -9.093e-6
-1.381, -9.093e-6
-1.380, -9.093e-6
-1.379, -9.093e-6
-1.378, -9.093e-6
-1.377, -9.093e-6
-1.376, -9.093e-6
-1.375, -1.218e-5
-1.374, -1.218e-5
-1.373, -1.218e-5
-1.372, -1.526e-5
-1.371, -1.526e-5
-1.370, -1.526e-5
-1.369, -1.526e-5
-1.368, -1.526e-5
-1.367, -1.526e-5
-1.366, -1.526e-5
-1.365, -1.526e-5
-1.364, -1.834e-5
-1.363, -1.834e-5
-1.362, -1.834e-5
-1.361, -1.834e-5
-1.360, -1.834e-5
-1.359, -1.834e-5
-1.358, -1.834e-5
-1.357, -1.834e-5
-1.356, -1.834e-5
-1.355, -1.834e-5
-1.354, -2.143e-5
-1.353, -2.143e-5
-1.352, -2.143e-5
-1.351, -2.143e-5
-1.350, -2.143e-5
-1.349, -2.451e-5
-1.348, -2.451e-5
-1.347, -2.451e-5
-1.346, -2.451e-5
-1.345, -2.451e-5
-1.344, -2.451e-5
-1.343, -2.143e-5
-1.342, -2.451e-5
-1.341, -2.451e-5
-1.340, -2.451e-5
-1.339, -2.451e-5
-1.338, -2.451e-5
-1.337, -2.759e-5
-1.336, -2.451e-5
-1.335, -2.759e-5
-1.334, -2.759e-5
-1.333, -2.759e-5
-1.332, -2.451e-5
-1.331, -2.759e-5
-1.330, -2.759e-5
-1.329, -2.759e-5
-1.328, -2.759e-5
-1.327, -2.759e-5
-1.326, -3.068e-5
-1.325, -2.759e-5
-1.324, -3.068e-5
-1.323, -3.068e-5
-1.322, -2.759e-5
-1.321, -2.759e-5
-1.320, -2.759e-5
-1.319, -3.068e-5
-1.318, -2.759e-5
-1.317, -3.068e-5
-1.316, -3.068e-5
-1.315, -3.068e-5
-1.314, -3.068e-5
-1.313, -3.068e-5
-1.312, -3.068e-5
-1.311, -3.068e-5
-1.310, -3.068e-5
-1.309, -3.068e-5
-1.308, -3.068e-5
-1.307, -3.068e-5
-1.306, -3.068e-5
-1.305, -3.376e-5
-1.304, -3.376e-5
-1.303, -3.376e-5
-1.302, -3.376e-5
-1.301, -3.376e-5
-1.300, -3.376e-5
-1.299, -3.068e-5
-1.298, -3.376e-5
-1.297, -3.068e-5
-1.296, -3.376e-5
-1.295, -3.376e-5
-1.294, -3.376e-5
-1.293, -3.376e-5
-1.292, -3.376e-5
-1.291, -3.376e-5
-1.290, -3.376e-5
-1.289, -3.376e-5
-1.288, -3.376e-5
-1.287, -3.376e-5
-1.286, -3.376e-5
-1.285, -3.376e-5
-1.284, -3.376e-5
-1.283, -3.376e-5
-1.282, -3.376e-5
-1.281, -3.684e-5
-1.280, -3.684e-5
-1.279, -3.684e-5
-1.278, -3.684e-5
-1.277, -3.684e-5
-1.276, -3.684e-5
-1.275, -3.684e-5
-1.274, -3.376e-5
-1.273, -3.376e-5
-1.272, -3.684e-5
-1.271, -3.684e-5
-1.270, -3.684e-5
-1.269, -3.684e-5
-1.268, -3.684e-5
-1.267, -3.684e-5
-1.266, -3.684e-5
-1.265, -3.684e-5
-1.264, -3.684e-5
-1.263, -3.684e-5
-1.262, -3.684e-5
-1.261, -3.684e-5
-1.260, -3.684e-5
-1.259, -3.684e-5
-1.258, -3.992e-5
-1.257, -3.992e-5
-1.256, -3.992e-5
-1.255, -3.992e-5
-1.254, -3.992e-5
-1.253, -3.684e-5
-1.252, -3.992e-5
-1.251, -3.684e-5
-1.250, -3.684e-5
-1.249, -3.684e-5
-1.248, -3.992e-5
-1.247, -3.992e-5
-1.246, -3.992e-5
-1.245, -3.992e-5
-1.244, -3.992e-5
-1.243, -3.992e-5
-1.242, -3.992e-5
-1.241, -3.992e-5
-1.240, -3.992e-5
-1.239, -3.992e-5
-1.238, -3.684e-5
-1.237, -3.992e-5
-1.236, -3.992e-5
-1.235, -3.992e-5
-1.234, -3.992e-5
-1.233, -3.992e-5
-1.232, -4.301e-5
-1.231, -3.992e-5
-1.230, -3.992e-5
-1.229, -3.992e-5
-1.228, -3.992e-5
-1.227, -3.992e-5
-1.226, -3.992e-5
-1.225, -3.992e-5
-1.224, -3.992e-5
-1.223, -4.301e-5
-1.222, -4.301e-5
-1.221, -4.301e-5
-1.220, -4.301e-5
-1.219, -4.301e-5
-1.218, -4.301e-5
-1.217, -4.301e-5
-1.216, -3.992e-5
-1.215, -3.992e-5
-1.214, -4.301e-5
-1.213, -4.301e-5
-1.212, -4.301e-5
-1.211, -4.301e-5
-1.210, -4.301e-5
-1.209, -4.301e-5
-1.208, -4.301e-5
-1.207, -4.301e-5
-1.206, -4.301e-5
-1.205, -4.301e-5
-1.204, -4.301e-5
-1.203, -4.301e-5
-1.202, -4.301e-5
-1.201, -4.301e-5
-1.200, -4.301e-5
-1.199, -4.609e-5
-1.198, -4.301e-5
-1.197, -4.609e-5
-1.196, -4.609e-5
-1.195, -4.301e-5
-1.194, -4.301e-5
-1.193, -4.609e-5
-1.192, -4.301e-5
-1.191, -4.301e-5
-1.190, -4.301e-5
-1.189, -4.609e-5
-1.188, -4.609e-5
-1.187, -4.609e-5
-1.186, -4.609e-5
-1.185, -4.609e-5
-1.184, -4.609e-5
-1.183, -4.609e-5
-1.182, -4.609e-5
-1.181, -4.609e-5
-1.180, -4.301e-5
-1.179, -4.609e-5
-1.178, -4.917e-5
-1.177, -4.917e-5
-1.176, -4.917e-5
-1.175, -4.917e-5
-1.174, -5.226e-5
-1.173, -5.226e-5
-1.172, -5.226e-5
-1.171, -4.917e-5
-1.170, -4.917e-5
-1.169, -4.917e-5
-1.168, -4.917e-5
-1.167, -4.917e-5
-1.166, -4.917e-5
-1.165, -4.917e-5
-1.164, -4.917e-5
-1.163, -4.917e-5
-1.162, -4.917e-5
-1.161, -4.917e-5
-1.160, -4.917e-5
-1.159, -4.917e-5
-1.158, -4.917e-5
-1.157, -4.917e-5
-1.156, -4.917e-5
-1.155, -4.609e-5
-1.154, -4.917e-5
-1.153, -5.226e-5
-1.152, -5.226e-5
-1.151, -5.226e-5
-1.150, -5.226e-5
-1.149, -5.226e-5
-1.148, -5.226e-5
-1.147, -4.917e-5
-1.146, -4.917e-5
-1.145, -4.917e-5
-1.144, -4.917e-5
-1.143, -5.226e-5
-1.142, -5.226e-5
-1.141, -5.226e-5
-1.140, -5.226e-5
-1.139, -5.226e-5
-1.138, -5.226e-5
-1.137, -5.226e-5
-1.136, -5.226e-5
-1.135, -5.226e-5
-1.134, -4.917e-5
-1.133, -4.917e-5
-1.132, -5.226e-5
-1.131, -5.226e-5
-1.130, -5.226e-5
-1.129, -5.534e-5
-1.128, -5.534e-5
-1.127, -5.534e-5
-1.126, -5.534e-5
-1.125, -5.226e-5
-1.124, -5.226e-5
-1.123, -5.226e-5
-1.122, -5.226e-5
-1.121, -5.226e-5
-1.120, -5.226e-5
-1.119, -5.534e-5
-1.118, -5.534e-5
-1.117, -5.534e-5
-1.116, -5.534e-5
-1.115, -5.534e-5
-1.114, -5.534e-5
-1.113, -5.534e-5
-1.112, -5.534e-5
-1.111, -5.534e-5
-1.110, -5.226e-5
-1.109, -5.534e-5
-1.108, -5.534e-5
-1.107, -5.534e-5
-1.106, -5.534e-5
-1.105, -5.534e-5
-1.104, -5.842e-5
-1.103, -5.842e-5
-1.102, -5.842e-5
-1.101, -5.842e-5
-1.100, -5.534e-5
-1.099, -5.534e-5
-1.098, -5.534e-5
-1.097, -5.534e-5
-1.096, -5.534e-5
-1.095, -5.842e-5
-1.094, -5.842e-5
-1.093, -5.842e-5
-1.092, -5.842e-5
-1.091, -5.842e-5
-1.090, -5.842e-5
-1.089, -5.842e-5
-1.088, -5.842e-5
-1.087, -5.842e-5
-1.086, -5.842e-5
-1.085, -5.842e-5
-1.084, -5.842e-5
-1.083, -5.842e-5
-1.082, -6.151e-5
-1.081, -6.151e-5
-1.080, -5.842e-5
-1.079, -6.151e-5
-1.078, -5.842e-5
-1.077, -5.842e-5
-1.076, -5.842e-5
-1.075, -5.842e-5
-1.074, -5.842e-5
-1.073, -5.842e-5
-1.072, -6.151e-5
-1.071, -6.151e-5
-1.070, -6.151e-5
-1.069, -6.151e-5
-1.068, -6.151e-5
-1.067, -6.151e-5
-1.066, -6.151e-5
-1.065, -6.151e-5
-1.064, -6.151e-5
-1.063, -6.151e-5
-1.062, -6.151e-5
-1.061, -6.151e-5
-1.060, -6.151e-5
-1.059, -6.459e-5
-1.058, -6.459e-5
-1.057, -6.459e-5
-1.056, -6.459e-5
-1.055, -6.459e-5
-1.054, -6.151e-5
-1.053, -6.151e-5
-1.052, -6.151e-5
-1.051, -6.151e-5
-1.050, -6.151e-5
-1.049, -6.151e-5
-1.048, -6.459e-5
-1.047, -6.459e-5
-1.046, -6.459e-5
-1.045, -6.459e-5
-1.044, -6.459e-5
-1.043, -6.459e-5
-1.042, -6.459e-5
-1.041, -6.459e-5
-1.040, -6.151e-5
-1.039, -6.459e-5
-1.038, -6.459e-5
-1.037, -6.459e-5
-1.036, -6.459e-5
-1.035, -6.767e-5
-1.034, -6.767e-5
-1.033, -6.767e-5
-1.032, -6.767e-5
-1.031, -6.767e-5
-1.030, -6.767e-5
-1.029, -6.459e-5
-1.028, -6.459e-5
-1.027, -6.459e-5
-1.026, -6.459e-5
-1.025, -6.767e-5
-1.024, -6.767e-5
-1.023, -6.767e-5
-1.022, -7.076e-5
-1.021, -6.767e-5
-1.020, -6.767e-5
-1.019, -6.767e-5
-1.018, -6.767e-5
-1.017, -6.767e-5
-1.016, -6.767e-5
-1.015, -6.767e-5
-1.014, -6.767e-5
-1.013, -6.767e-5
-1.012, -7.076e-5
-1.011, -7.076e-5
-1.010, -7.076e-5
-1.009, -7.076e-5
-1.008, -7.076e-5
-1.007, -7.076e-5
-1.006, -6.767e-5
-1.005, -6.767e-5
-1.004, -6.767e-5
-1.003, -6.767e-5
-1.002, -7.076e-5
-1.001, -7.076e-5
