Potential V vs RHE, Current mA cm-2
0.05339999999999995,-0.039159208780264215
0.05239999999999995,-0.0405597729671306
0.051399999999999946,-0.04129542284306042
0.050399999999999945,-0.041818866024010484
0.049399999999999944,-0.042299867865964604
0.04839999999999994,-0.04272428125592411
0.04739999999999994,-0.04313454753288497
0.04639999999999994,-0.04354481380984583
0.04539999999999994,-0.04394093297380804
0.04439999999999994,-0.04433705213777025
0.04339999999999994,-0.04471902418873381
0.04239999999999994,-0.04512929046569467
0.04139999999999994,-0.04549711540365958
0.040399999999999936,-0.04585079322862584
0.039399999999999935,-0.046232765279589395
0.038399999999999934,-0.04662888444355161
0.03739999999999993,-0.046996709381516524
0.03639999999999993,-0.04737868143248008
0.03539999999999993,-0.04774650637044498
0.03439999999999993,-0.04812847842140855
0.03339999999999993,-0.04849630335937346
0.03239999999999993,-0.04887827541033701
0.03139999999999993,-0.049274394574299225
0.030399999999999927,-0.04962807239926549
0.029399999999999926,-0.050010044450229045
0.028399999999999925,-0.050377869388193955
0.027399999999999924,-0.050745694326158865
0.026399999999999924,-0.05115596060311973
0.025399999999999923,-0.05155207976708194
0.024399999999999922,-0.051948198931044146
0.02339999999999992,-0.05233017098200771
0.02239999999999992,-0.05271214303297127
0.02139999999999992,-0.05310826219693348
0.020399999999999918,-0.05349023424789704
0.019399999999999917,-0.053872206298860595
0.018399999999999916,-0.05428247257582146
0.017399999999999916,-0.05467859173978367
0.016399999999999915,-0.05510300512974318
0.015399999999999914,-0.05548497718070674
0.014399999999999913,-0.05588109634466895
0.013399999999999912,-0.056291362621629815
0.012399999999999911,-0.05670162889859067
0.01139999999999991,-0.05709774806255288
0.01039999999999991,-0.057493867226515095
0.009399999999999908,-0.057904133503475945
0.008399999999999908,-0.05831439978043681
0.007399999999999907,-0.058724666057397665
0.006399999999999906,-0.05913493233435853
0.005399999999999905,-0.05953105149832075
0.004399999999999904,-0.05994131777528161
0.003399999999999903,-0.06036573116524111
0.002399999999999902,-0.060775997442201975
0.0013999999999999013,-0.06121455794516014
0.00039999999999990044,-0.061624824222121004
-0.0006000000000001005,-0.06206338472507915
-0.0016000000000001013,-0.06248779811503867
-0.0026000000000001022,-0.06291221150499818
-0.003600000000000103,-0.06336491912095499
-0.004600000000000104,-0.06377518539791585
-0.005600000000000105,-0.06424204012687132
-0.006600000000000106,-0.06468060062982947
-0.007600000000000107,-0.06511916113278764
-0.008600000000000108,-0.0655577216357458
-0.009600000000000108,-0.06599628213870397
-0.01060000000000011,-0.06643484264166212
-0.01160000000000011,-0.06690169737061757
-0.012600000000000111,-0.06736855209957304
-0.013600000000000112,-0.06780711260253121
-0.014600000000000113,-0.06824567310548936
-0.015600000000000114,-0.06869838072144617
-0.016600000000000115,-0.06913694122440435
-0.017600000000000116,-0.0695755017273625
-0.018600000000000116,-0.07004235645631796
-0.019600000000000117,-0.07049506407227478
-0.020600000000000118,-0.07093362457523293
-0.02160000000000012,-0.07141462641718704
-0.02260000000000012,-0.07188148114614251
-0.02360000000000012,-0.07233418876209932
-0.024600000000000122,-0.07278689637805613
-0.025600000000000123,-0.0732537511070116
-0.026600000000000124,-0.07370645872296841
-0.027600000000000124,-0.07417331345192386
-0.028600000000000125,-0.07464016818087933
-0.029600000000000126,-0.07509287579683614
-0.030600000000000127,-0.07555973052579161
-0.03160000000000013,-0.07601243814174842
-0.03260000000000013,-0.07649343998370253
-0.03360000000000013,-0.0769320004866607
-0.03460000000000002,-0.07739885521561615
-0.03560000000000002,-0.07787985705757026
-0.03660000000000002,-0.07831841756052843
-0.03760000000000002,-0.07881356651548119
-0.03860000000000002,-0.0792945683574353
-0.039600000000000024,-0.07973312886039347
-0.040600000000000025,-0.08019998358934893
-0.041600000000000026,-0.08065269120530574
-0.04260000000000003,-0.08113369304725986
-0.04360000000000003,-0.08162884200221261
-0.04460000000000003,-0.08208154961816942
-0.04560000000000003,-0.08254840434712489
-0.04660000000000003,-0.08298696485008306
-0.04760000000000003,-0.08343967246603987
-0.04860000000000003,-0.08386408585599937
-0.04960000000000003,-0.0842884992459589
-0.050600000000000034,-0.08475535397491435
-0.051600000000000035,-0.08522220870386982
-0.052600000000000036,-0.08567491631982663
-0.053600000000000037,-0.08612762393578344
-0.05460000000000004,-0.08656618443874159
-0.05560000000000004,-0.0870188920546984
-0.05660000000000004,-0.0874433054446579
-0.05760000000000004,-0.08786771883461743
-0.05860000000000004,-0.0883062793375756
-0.05960000000000004,-0.08873069272753512
-0.06060000000000004,-0.08915510611749461
-0.061600000000000044,-0.08959366662045277
-0.06260000000000004,-0.09006052134940823
-0.06360000000000005,-0.0904990818523664
-0.06460000000000005,-0.0909234952423259
-0.06560000000000005,-0.09133376151928675
-0.06660000000000005,-0.09175817490924627
-0.06760000000000005,-0.09218258829920578
-0.06860000000000005,-0.09260700168916529
-0.06960000000000005,-0.09301726796612615
-0.07060000000000005,-0.09342753424308703
-0.07160000000000005,-0.09383780052004788
-0.07260000000000005,-0.0942622139100074
-0.07360000000000005,-0.0946583330739696
-0.07460000000000006,-0.09504030512493315
-0.07560000000000006,-0.09545057140189403
-0.07660000000000006,-0.09583254345285759
-0.07760000000000006,-0.0962286626168198
-0.07860000000000006,-0.096624781780782
-0.07960000000000006,-0.09696431249274962
-0.08060000000000006,-0.09733213743071452
-0.08160000000000006,-0.09769996236867944
-0.08260000000000006,-0.09806778730664434
-0.08360000000000006,-0.0984497593576079
-0.08460000000000006,-0.09877514295657686
-0.08560000000000006,-0.09914296789454177
-0.08660000000000007,-0.09946835149351073
-0.08760000000000007,-0.09980788220547833
-0.08860000000000007,-0.10017570714344325
-0.08960000000000007,-0.1005010907424122
-0.09060000000000007,-0.10084062145437982
-0.09160000000000007,-0.10115185794035012
-0.09260000000000007,-0.10146309442632043
-0.09360000000000007,-0.10177433091229074
-0.09460000000000007,-0.1020714202852624
-0.09560000000000007,-0.1023826567712327
-0.09660000000000007,-0.10266559903120571
-0.09760000000000008,-0.10292024706518142
-0.09860000000000008,-0.10318904221215577
-0.09960000000000008,-0.10347198447212877
-0.10060000000000008,-0.10374077961910314
-0.10160000000000008,-0.10399542765307884
-0.10260000000000008,-0.10426422280005321
-0.10360000000000008,-0.10450472372103026
-0.10460000000000008,-0.10473107752900866
-0.10560000000000008,-0.10497157844998573
-0.10660000000000008,-0.10521207937096277
-0.10760000000000008,-0.10543843317894118
-0.10860000000000009,-0.10567893409991824
-0.10960000000000009,-0.105891140794898
-0.11060000000000009,-0.10608920037687909
-0.11160000000000009,-0.10628725995886021
-0.11260000000000009,-0.10648531954084133
-0.11360000000000009,-0.10666923200982377
-0.11460000000000009,-0.10688143870480352
-0.11560000000000009,-0.10706535117378597
-0.11660000000000009,-0.10720682230377249
-0.1176000000000001,-0.10739073477275493
-0.1186000000000001,-0.10757464724173739
-0.1196000000000001,-0.1076878241457266
-0.1206000000000001,-0.1078292952757131
-0.1216000000000001,-0.1079990606316969
-0.1226000000000001,-0.10811223753568612
-0.1236000000000001,-0.10823956155267396
-0.1246000000000001,-0.10833859134366451
-0.1256000000000001,-0.10846591536065237
-0.1266000000000001,-0.10857909226464157
-0.1276000000000001,-0.10866397494263345
-0.1286000000000001,-0.10877715184662266
-0.1296000000000001,-0.10884788741161593
-0.1306000000000001,-0.10894691720260646
-0.1316000000000001,-0.10901765276759973
-0.1326000000000001,-0.10908838833259296
-0.1336000000000001,-0.10915912389758622
-0.1346000000000001,-0.10921571234958084
-0.1356000000000001,-0.10927230080157543
-0.1366000000000001,-0.10930059502757274
-0.1376000000000001,-0.1093430363665687
-0.1386000000000001,-0.10938547770556464
-0.1396000000000001,-0.10939962481856329
-0.1406000000000001,-0.10944206615755923
-0.14160000000000011,-0.1094562132705579
-0.14260000000000012,-0.1094845074965552
-0.14360000000000012,-0.1094845074965552
-0.14460000000000012,-0.1094845074965552
-0.14560000000000012,-0.10947036038355652
-0.14660000000000012,-0.10947036038355652
-0.14760000000000012,-0.1094562132705579
-0.14860000000000012,-0.10941377193156195
-0.14960000000000012,-0.10938547770556464
-0.15060000000000012,-0.10935718347956734
-0.15160000000000012,-0.10930059502757274
-0.15260000000000012,-0.10928644791457408
-0.15360000000000013,-0.10924400657557813
-0.15460000000000013,-0.10918741812358353
-0.15560000000000013,-0.10911668255859029
-0.15660000000000013,-0.10906009410659567
-0.15760000000000013,-0.10900350565460108
-0.15860000000000013,-0.10894691720260646
-0.15960000000000002,-0.10886203452461457
-0.16060000000000002,-0.10879129895962131
-0.16160000000000002,-0.10869226916863078
-0.16260000000000002,-0.10860738649063886
-0.16360000000000002,-0.10853665092564563
-0.16460000000000002,-0.10842347402165642
-0.16560000000000002,-0.1083668855696618
-0.16660000000000003,-0.1083102971176672
-0.16760000000000003,-0.10819712021367801
-0.16860000000000003,-0.10809809042268745
-0.16960000000000003,-0.10795661929270095
-0.17060000000000003,-0.1078575895017104
-0.17160000000000003,-0.10774441259772119
-0.17260000000000003,-0.10761708858073335
-0.17360000000000003,-0.10747561745074685
-0.17460000000000003,-0.10736244054675763
-0.17560000000000003,-0.10723511652976979
-0.17660000000000003,-0.10710779251278192
-0.17760000000000004,-0.10696632138279542
-0.17860000000000004,-0.10685314447880623
-0.17960000000000004,-0.10669752623582107
-0.18060000000000004,-0.10655605510583457
-0.18160000000000004,-0.1064287310888467
-0.18260000000000004,-0.10628725995886021
-0.18360000000000004,-0.1061457888288737
-0.18460000000000004,-0.10599017058588855
-0.18560000000000004,-0.1058345523429034
-0.18660000000000004,-0.10567893409991824
-0.18760000000000004,-0.10552331585693309
-0.18860000000000005,-0.10538184472694657
-0.18960000000000005,-0.10521207937096277
-0.19060000000000005,-0.10504231401497897
-0.19160000000000005,-0.10490084288499248
-0.19260000000000005,-0.10475937175500598
-0.19360000000000005,-0.10458960639902216
-0.19460000000000005,-0.104433988156037
-0.19560000000000005,-0.10426422280005321
-0.19660000000000005,-0.1040944574440694
-0.19760000000000005,-0.10393883920108424
-0.19860000000000005,-0.10378322095809908
-0.19960000000000006,-0.10361345560211528
-0.20060000000000006,-0.10342954313313284
-0.20160000000000006,-0.10325977777714902
-0.20260000000000006,-0.10309001242116521
-0.20360000000000006,-0.10294854129117871
-0.20460000000000006,-0.10277877593519492
-0.20560000000000006,-0.10260901057921111
-0.20660000000000006,-0.10243924522322731
-0.20760000000000006,-0.10225533275424485
-0.20860000000000006,-0.10211386162425835
-0.20960000000000006,-0.1019299491552759
-0.21060000000000006,-0.10177433091229074
-0.21160000000000007,-0.10160456555630692
-0.21260000000000007,-0.10140650597432584
-0.21360000000000007,-0.10126503484433932
-0.21460000000000007,-0.10108112237535687
-0.21560000000000007,-0.10089720990637441
-0.21660000000000007,-0.10074159166338927
-0.21760000000000007,-0.1005859734204041
-0.21860000000000007,-0.10040206095142165
-0.21960000000000007,-0.10023229559543784
-0.22060000000000007,-0.10003423601345675
-0.22160000000000007,-0.09986447065747293
-0.22260000000000008,-0.09969470530148912
-0.22360000000000008,-0.09955323417150262
-0.22460000000000008,-0.09936932170252018
-0.22560000000000008,-0.09919955634653636
-0.22660000000000008,-0.09902979099055256
-0.22760000000000008,-0.09886002563456876
-0.22860000000000008,-0.09869026027858496
-0.22960000000000008,-0.0985346420355998
-0.23060000000000008,-0.09837902379261465
-0.23160000000000008,-0.09818096421063353
-0.23260000000000008,-0.09802534596764839
-0.23360000000000009,-0.09786972772466324
-0.2346000000000001,-0.09769996236867944
-0.2356000000000001,-0.09754434412569428
-0.2366000000000001,-0.09738872588270912
-0.2376000000000001,-0.09723310763972397
-0.2386000000000001,-0.09706334228374017
-0.2396000000000001,-0.09692187115375367
-0.2406000000000001,-0.0967662529107685
-0.2416000000000001,-0.09656819332878741
-0.2426000000000001,-0.09644086931179956
-0.2436000000000001,-0.09629939818181305
-0.2446000000000001,-0.09611548571283059
-0.2456000000000001,-0.09597401458284409
-0.2466000000000001,-0.09581839633985893
-0.2476000000000001,-0.09563448387087647
-0.2486000000000001,-0.09552130696688728
-0.2496000000000001,-0.09532324738490616
-0.2506000000000001,-0.09518177625491966
-0.2516000000000001,-0.09504030512493315
-0.2526000000000001,-0.09487053976894937
-0.2536000000000001,-0.09475736286496016
-0.2546000000000001,-0.09458759750897636
-0.2556000000000001,-0.09444612637898986
-0.2566000000000001,-0.09430465524900335
-0.2576000000000001,-0.09414903700601819
-0.2586000000000001,-0.09402171298903034
-0.2596000000000001,-0.09386609474604518
-0.2606000000000001,-0.09371047650306003
-0.2616000000000001,-0.09358315248607219
-0.2626000000000001,-0.09344168135608567
-0.2636000000000001,-0.09330021022609918
-0.2646000000000001,-0.09314459198311402
-0.2656000000000001,-0.09301726796612615
-0.2666000000000001,-0.09287579683613965
-0.2676000000000001,-0.0927484728191518
-0.2686000000000001,-0.09263529591516259
-0.2696000000000001,-0.09247967767217745
-0.2706000000000001,-0.0923523536551896
-0.2716000000000001,-0.09221088252520308
-0.2726000000000001,-0.09208355850821524
-0.2736000000000001,-0.09195623449122738
-0.2746000000000001,-0.09182891047423952
-0.2756000000000001,-0.09171573357025031
-0.2766000000000001,-0.09156011532726518
-0.2776000000000001,-0.09144693842327598
-0.2786000000000001,-0.09134790863228542
-0.2796000000000001,-0.09120643750229893
-0.2806000000000001,-0.09109326059830972
-0.28160000000000013,-0.09096593658132186
-0.28260000000000013,-0.09085275967733265
-0.28360000000000013,-0.09073958277334346
-0.2846,-0.0905839645303583
-0.2856,-0.09048493473936775
-0.2866,-0.0903576107223799
-0.2876,-0.09024443381839069
-0.2886,-0.09014540402740015
-0.2896,-0.09001808001041228
-0.2906,-0.08993319733242039
-0.2916,-0.08980587331543252
-0.2926,-0.08967854929844467
-0.2936,-0.08962196084645008
-0.29460000000000003,-0.08948048971646357
-0.29560000000000003,-0.08938145992547303
-0.29660000000000003,-0.08926828302148382
-0.29760000000000003,-0.08916925323049325
-0.29860000000000003,-0.08907022343950272
-0.29960000000000003,-0.0889570465355135
-0.30060000000000003,-0.08884386963152431
-0.30160000000000003,-0.08874483984053375
-0.30260000000000004,-0.0886458100495432
-0.30360000000000004,-0.08854678025855263
-0.30460000000000004,-0.08844775046756209
-0.30560000000000004,-0.08834872067657155
-0.30660000000000004,-0.08824969088558099
-0.30760000000000004,-0.08817895532058774
-0.30860000000000004,-0.08806577841659853
-0.30960000000000004,-0.08799504285160528
-0.31060000000000004,-0.08791016017361337
-0.31160000000000004,-0.08779698326962418
-0.31260000000000004,-0.08772624770463092
-0.31360000000000005,-0.08764136502663902
-0.31460000000000005,-0.08755648234864712
-0.31560000000000005,-0.08748574678365387
-0.31660000000000005,-0.08738671699266332
-0.31760000000000005,-0.08730183431467141
-0.31860000000000005,-0.08721695163667952
-0.31960000000000005,-0.08714621607168627
-0.32060000000000005,-0.08708962761969166
-0.32160000000000005,-0.08697645071570247
-0.32260000000000005,-0.0869057151507092
-0.32360000000000005,-0.08683497958571595
-0.32460000000000006,-0.08672180268172675
-0.32560000000000006,-0.08666521422973215
-0.32660000000000006,-0.08658033155174025
-0.32760000000000006,-0.0864813017607497
-0.32860000000000006,-0.08642471330875509
-0.32960000000000006,-0.08632568351776454
-0.33060000000000006,-0.08624080083977263
-0.33160000000000006,-0.08618421238777803
-0.33260000000000006,-0.08611347682278478
-0.33360000000000006,-0.08604274125779153
-0.33460000000000006,-0.08595785857979962
-0.33560000000000006,-0.08588712301480637
-0.33660000000000007,-0.08580224033681448
-0.33760000000000007,-0.08571735765882257
-0.33860000000000007,-0.08566076920682797
-0.33960000000000007,-0.08557588652883606
-0.34060000000000007,-0.08551929807684147
-0.34160000000000007,-0.08544856251184822
-0.34260000000000007,-0.08537782694685496
-0.34360000000000007,-0.08529294426886307
-0.3446000000000001,-0.08523635581686846
-0.3456000000000001,-0.08515147313887655
-0.3466000000000001,-0.08509488468688196
-0.34759999999999996,-0.08503829623488735
-0.3486000000000001,-0.0849675606698941
-0.34959999999999997,-0.0848826779919022
-0.3506000000000001,-0.08481194242690895
-0.35159999999999997,-0.08475535397491435
-0.3526000000000001,-0.08469876552291973
-0.35359999999999997,-0.08462802995792648
-0.3546000000000001,-0.08455729439293323
-0.35559999999999997,-0.08451485305393729
-0.3566000000000001,-0.08441582326294673
-0.3576,-0.08438752903694943
-0.3586000000000001,-0.08431679347195618
-0.3596,-0.08424605790696293
-0.3606000000000001,-0.08420361656796697
-0.3616,-0.08413288100297373
-0.3626000000000001,-0.08407629255097913
-0.3636,-0.08403385121198319
-0.3646000000000001,-0.08396311564698994
-0.3656,-0.08392067430799398
-0.3666000000000001,-0.08386408585599937
-0.3676,-0.08380749740400478
-0.3686000000000001,-0.08377920317800747
-0.3696,-0.08369432050001557
-0.3706000000000001,-0.08369432050001557
-0.3716,-0.08362358493502231
-0.3726000000000001,-0.08356699648302772
-0.3736,-0.08353870225703043
-0.3746000000000001,-0.08346796669203715
-0.3756,-0.08342552535304121
-0.3766000000000001,-0.08338308401404526
-0.3776,-0.08334064267504931
-0.3786000000000001,-0.0832840542230547
-0.3796,-0.08322746577106012
-0.3806000000000001,-0.08319917154506282
-0.3816,-0.08315673020606687
-0.3826000000000001,-0.08310014175407225
-0.3836,-0.08308599464107361
-0.3846000000000001,-0.083029406189079
-0.3856,-0.08298696485008306
-0.3866000000000001,-0.0829445235110871
-0.3876,-0.08291622928508981
-0.3886000000000001,-0.0828879350590925
-0.3896,-0.0828313466070979
-0.3906000000000001,-0.08278890526810194
-0.3916,-0.08274646392910599
-0.3926000000000001,-0.08271816970310869
-0.3936,-0.08268987547711139
-0.3946000000000001,-0.08264743413811544
-0.3956,-0.08263328702511678
-0.3966000000000001,-0.0826049927991195
-0.3976,-0.08256255146012353
-0.3986000000000001,-0.08254840434712489
-0.3996,-0.08249181589513029
-0.4006000000000001,-0.08247766878213163
-0.4016,-0.08246352166913298
-0.4026000000000001,-0.08244937455613434
-0.4036,-0.08242108033013704
-0.4046000000000001,-0.08236449187814243
-0.4056,-0.08235034476514379
-0.40660000000000013,-0.08233619765214513
-0.4076,-0.08230790342614784
-0.40860000000000013,-0.08229375631314918
-0.4096,-0.08226546208715188
-0.41060000000000013,-0.08227960920015054
-0.4116,-0.08225131497415322
-0.41260000000000013,-0.08222302074815592
-0.4136,-0.08222302074815592
-0.41460000000000014,-0.08219472652215863
-0.4156,-0.08219472652215863
-0.41660000000000014,-0.08218057940915997
-0.4176,-0.08216643229616134
-0.41860000000000014,-0.08216643229616134
-0.41960000000000003,-0.08213813807016403
-0.42060000000000014,-0.08210984384416672
-0.42160000000000003,-0.08213813807016403
-0.42260000000000014,-0.08212399095716538
-0.42360000000000003,-0.08213813807016403
-0.42460000000000014,-0.08212399095716538
-0.42560000000000003,-0.08210984384416672
-0.42660000000000015,-0.08209569673116808
-0.42760000000000004,-0.08212399095716538
-0.42860000000000015,-0.08210984384416672
-0.42960000000000004,-0.08210984384416672
-0.43060000000000015,-0.08210984384416672
-0.43160000000000004,-0.08210984384416672
-0.43260000000000015,-0.08210984384416672
-0.43360000000000004,-0.08213813807016403
-0.43460000000000015,-0.08213813807016403
-0.43560000000000004,-0.08215228518316267
-0.43660000000000015,-0.08215228518316267
