Potential V vs RHE, Current mA cm-2
0.013299999999999867,4.9175364783308675
0.012299999999999978,2.2748557701829792
0.011299999999999866,0.07664905822668767
0.010299999999999976,-1.5731589654499207
0.009299999999999864,-3.122267838802136
0.008299999999999974,-4.60629999236056
0.007299999999999862,-5.694212981956773
0.006299999999999972,-6.6689490675637835
0.00529999999999986,-7.759691479759726
0.0042999999999999705,-8.598615280579693
0.0032999999999998586,-9.225332386419904
0.0022999999999999687,-10.03313253864284
0.0012999999999998568,-10.768782414572659
0.00029999999999996696,-11.205928206230956
-0.000700000000000145,-11.756250901878454
-0.0017000000000000348,-12.419750501515157
-0.0027000000000001467,-12.784746016880337
-0.0037000000000000366,-13.139838553146461
-0.0047000000000001485,-13.69582009399342
-0.005700000000000038,-14.072133299757521
-0.00670000000000015,-14.288584128636872
-0.00770000000000004,-14.69885040559773
-0.008700000000000152,-15.10911668255859
-0.009700000000000042,-15.264734925543747
-0.010700000000000154,-15.590118524512702
-0.011700000000000044,-16.014531914472215
-0.012700000000000156,-16.170150157457368
-0.013700000000000045,-16.354062626439823
-0.014700000000000157,-16.750181790402035
-0.015700000000000047,-16.93409425938449
-0.01670000000000016,-16.99068271137909
-0.01770000000000005,-17.259477858353446
-0.01870000000000016,-17.499978779330505
-0.01970000000000005,-17.542420118326454
-0.020700000000000163,-17.74047970030756
-0.021700000000000053,-18.09415752527382
-0.022700000000000164,-18.17904020326572
-0.023700000000000054,-18.263922881257624
-0.024700000000000166,-18.561012254229283
-0.025700000000000056,-18.716630497214435
-0.026700000000000168,-18.702483384215785
-0.027700000000000058,-18.94298430519284
-0.02870000000000017,-19.155191000172596
-0.02970000000000006,-19.126896774175293
-0.03070000000000017,-19.25422079116315
-0.03170000000000006,-19.508868825138855
-0.03270000000000017,-19.537163051136158
-0.03370000000000006,-19.593751503130758
-0.034700000000000175,-19.862546650105116
-0.035700000000000065,-19.97572355409432
-0.03670000000000018,-19.947429328097016
-0.03770000000000007,-20.17378313607542
-0.03870000000000018,-20.371842718056527
-0.03970000000000007,-20.329401379060574
-0.04070000000000018,-20.42843117005113
-0.04170000000000007,-20.683079204026836
-0.04270000000000018,-20.683079204026836
-0.04370000000000007,-20.69722631702549
-0.044700000000000184,-20.95187435100119
-0.045700000000000074,-21.050904141991744
-0.046700000000000186,-21.008462802995794
-0.047700000000000076,-21.19237527197825
-0.04870000000000019,-21.390434853959356
-0.04970000000000008,-21.333846401964752
-0.05070000000000019,-21.43287619295531
-0.05170000000000008,-21.68752422693101
-0.05270000000000019,-21.729965565926964
-0.05370000000000008,-21.786554017921564
-0.05470000000000019,-22.055349164895922
-0.05570000000000008,-22.140231842887825
-0.056700000000000195,-22.097790503891872
-0.057700000000000085,-22.281702972874328
-0.058700000000000196,-22.437321215859484
-0.059700000000000086,-22.352438537867577
-0.0607000000000002,-22.42317410286083
-0.06170000000000009,-22.72026347583249
-0.0627000000000002,-22.790999040825742
-0.06370000000000009,-22.76270481482844
-0.0647000000000002,-23.059794187800097
-0.06570000000000009,-23.272000882779853
-0.0667000000000002,-23.229559543783903
-0.0677000000000001,-23.427619125765005
-0.0687000000000002,-23.639825820744765
-0.0697000000000001,-23.597384481748815
-0.07070000000000021,-23.724708498736668
-0.0717000000000001,-23.97935653271237
-0.07270000000000021,-24.021797871708326
-0.0737000000000001,-24.106680549700226
-0.07470000000000021,-24.44621126166783
-0.0757000000000001,-24.516946826661083
-0.07670000000000021,-24.474505487665134
-0.0777000000000001,-24.71500640864219
-0.07870000000000021,-24.95550732961925
-0.0797000000000001,-24.941360216620595
-0.08070000000000022,-25.06868423360845
-0.0817000000000001,-25.37992071957876
-0.08270000000000022,-25.39406783257741
-0.08370000000000011,-25.42236205857471
-0.08470000000000022,-25.691157205549064
-0.08570000000000011,-25.80433410953827
-0.08670000000000022,-25.832628335535567
-0.08770000000000011,-26.058982143513976
-0.08870000000000022,-26.29948306449103
-0.08970000000000011,-26.34192440348698
-0.09070000000000022,-26.455101307476184
-0.09170000000000011,-26.752190680447846
-0.09270000000000023,-26.766337793446493
-0.09370000000000012,-26.851220471438396
-0.09470000000000023,-27.176604070407354
-0.09570000000000012,-27.31807520039386
-0.09670000000000023,-27.36051653938981
-0.09770000000000012,-27.601017460366865
-0.09870000000000023,-27.940548172334477
-0.09970000000000012,-28.039577963325023
-0.10070000000000023,-28.294225997300735
-0.10170000000000012,-28.633756709268344
-0.10270000000000024,-28.704492274261593
-0.10370000000000013,-28.732786500258893
-0.10470000000000024,-29.001581647233255
-0.10570000000000013,-29.199641229214354
-0.10670000000000024,-29.22793545521166
-0.10770000000000013,-29.482583489187363
-0.10870000000000024,-29.73723152316307
-0.10970000000000013,-29.73723152316307
-0.11070000000000024,-29.906996879146874
-0.11170000000000013,-30.246527591114486
-0.11270000000000002,-30.331410269106385
-0.11370000000000013,-30.416292947098288
-0.11470000000000002,-30.699235207071297
-0.11570000000000014,-30.8690005630551
-0.11670000000000003,-30.88314767605375
-0.11770000000000014,-31.137795710029454
-0.11870000000000003,-31.449032195999767
-0.11970000000000014,-31.505620647994366
-0.12070000000000003,-31.703680229975475
-0.12170000000000014,-32.05735805494172
-0.12270000000000003,-32.170534958930936
-0.12370000000000014,-32.269564749921486
-0.12470000000000003,-32.59494834889044
-0.12570000000000014,-32.79300793087155
-0.12670000000000003,-32.8637434958648
-0.12770000000000015,-33.13253864283916
-0.12870000000000004,-33.50036358080407
-0.12970000000000015,-33.51451069380272
-0.13070000000000004,-33.76915872777842
-0.13170000000000015,-34.12283655274469
-0.13270000000000004,-34.16527789174064
-0.13370000000000015,-34.207719230736586
-0.13470000000000004,-34.61798550769744
-0.13570000000000015,-34.7453095246853
-0.13670000000000004,-34.717015298688004
-0.13770000000000016,-34.84433931567585
-0.13870000000000005,-35.04239889765696
-0.13970000000000016,-35.02825178465831
-0.14070000000000005,-35.12728157564886
-0.14170000000000016,-35.46681228761647
-0.14270000000000005,-35.594136304604326
-0.14370000000000016,-35.778048773586775
-0.14470000000000005,-36.230756389543586
-0.14570000000000016,-36.45711019752199
-0.14670000000000005,-36.48540442351929
-0.14770000000000016,-36.768346683492304
-0.14870000000000005,-37.07958316946261
-0.14970000000000017,-37.164465847454515
-0.15070000000000006,-37.36252542943562
-0.15170000000000017,-37.716203254401876
-0.15270000000000006,-37.94255706238028
-0.15370000000000017,-38.197205096355994
-0.15470000000000006,-38.692354051308754
-0.15570000000000017,-38.94700208528445
-0.15670000000000006,-38.93285497228581
-0.15770000000000017,-39.08847321527096
-0.15870000000000006,-39.314827023249364
-0.15970000000000018,-39.328974136248014
-0.16070000000000007,-39.48459237923317
-0.16170000000000018,-39.85241731719808
-0.16270000000000007,-40.02218267318189
-0.16370000000000018,-40.177800916167044
-0.16470000000000007,-40.51733162813464
-0.16570000000000018,-40.701244097117105
-0.16670000000000007,-40.743685436113054
-0.16770000000000018,-41.01248058308742
-0.16870000000000007,-41.36615840805367
-0.16970000000000018,-41.66324778102533
-0.17070000000000007,-41.98863137999429
-0.17170000000000019,-42.483780334947056
-0.17270000000000008,-42.766722594920054
-0.1737000000000002,-42.95063506390252
-0.17470000000000008,-43.34675422786472
-0.1757000000000002,-43.58725514884178
-0.17670000000000008,-43.82775606981884
-0.1777000000000002,-44.153139668787794
-0.17870000000000008,-44.42193481576215
-0.1797000000000002,-44.520964606752706
-0.18070000000000008,-44.81805397972436
-0.1817000000000002,-45.29905582167847
-0.18270000000000008,-45.581998081651484
-0.1837000000000002,-45.69517498564068
-0.1847000000000001,-46.176176827594794
-0.1857000000000002,-46.4874133135651
-0.1867000000000001,-46.628884443551605
-0.1877000000000002,-47.067444946509774
-0.1887000000000001,-47.534299675465235
-0.1897000000000002,-47.689917918450384
-0.1907000000000001,-48.01530151741934
-0.1917000000000001,-48.49630335937346
-0.19269999999999998,-48.86412829733837
-0.1937000000000001,-49.24610034830193
-0.19469999999999998,-49.85442620724389
-0.1957000000000001,-50.22225114520881
-0.19669999999999999,-50.32128093619935
-0.1977000000000001,-50.73154721316022
-0.1987,-51.18425482911703
-0.1997000000000001,-51.38231441109813
-0.2007,-51.70769801006709
-0.2017000000000001,-52.23114119101716
-0.2027,-52.514083450990164
-0.2037000000000001,-52.81117282396182
-0.2047,-53.362910230909186
-0.2057000000000001,-53.7873236208687
-0.2067,-54.070265880841696
-0.2077000000000001,-54.56541483579447
-0.2087,-55.11715224274183
-0.2097000000000001,-55.428388728712136
-0.2107,-55.76791944067975
-0.2117000000000001,-56.31965684762711
-0.2127,-56.61674622059877
-0.2137000000000001,-56.89968848057178
-0.2147,-57.423131661521836
-0.2157000000000001,-58.00316329446651
-0.2167,-58.41342957142736
-0.21770000000000012,-59.02175543036933
-0.2187,-59.757405306299155
-0.21970000000000012,-60.18181869625866
-0.2207,-60.57793786022087
-0.22170000000000012,-61.03064547617768
-0.2227,-61.440911753138536
-0.22370000000000012,-61.83703091710075
-0.2247,-62.53023945403463
-0.22570000000000012,-63.11027108697928
-0.2267,-63.364919120955
-0.22770000000000012,-63.803479623913155
-0.22870000000000001,-64.41180548285512
-0.22970000000000013,-64.86451309881193
-0.23070000000000002,-65.18989669778088
-0.23170000000000013,-65.74163410472826
-0.23270000000000002,-66.25093017267966
-0.23370000000000013,-66.43484264166212
-0.23470000000000002,-66.87340314462028
-0.23570000000000013,-67.48172900356225
-0.23670000000000002,-67.87784816752446
-0.2376999999999999,-68.41543846147317
-0.23870000000000002,-69.03791143341378
-0.2396999999999999,-69.44817771037465
-0.24070000000000003,-70.02820934331933
-0.24169999999999991,-70.82044767124374
-0.24270000000000003,-71.3438908521938
-0.24369999999999992,-71.90977537213982
-0.24470000000000003,-72.51810123108179
-0.24569999999999992,-73.197162655017
-0.24670000000000003,-73.46595780199135
-0.24769999999999992,-74.14501922592657
-0.24870000000000003,-74.72505085887124
-0.24969999999999992,-75.03628734484154
-0.25070000000000003,-75.48899496079835
-0.2516999999999999,-76.18220349773222
-0.25270000000000004,-76.69149956568363
-0.2536999999999999,-77.1300600686418
-0.25470000000000004,-77.73838592758376
-0.2556999999999999,-78.24768199553519
-0.25670000000000004,-78.57306559450414
-0.25769999999999993,-79.11065588845284
-0.25870000000000004,-79.78971731238806
-0.25969999999999993,-80.21413070234757
-0.26070000000000004,-80.70927965730034
-0.26169999999999993,-81.36004685523827
-0.26270000000000004,-81.7986073581964
-0.26369999999999993,-82.25131497415322
-0.26470000000000005,-83.029406189079
-0.26569999999999994,-83.58114359602637
-0.26670000000000005,-84.03385121198318
-0.26769999999999994,-84.5431472799346
-0.26870000000000005,-85.15147313887655
-0.26969999999999994,-85.54759230283878
-0.27070000000000005,-85.95785857979962
-0.27169999999999994,-86.50959598674699
-0.27270000000000005,-86.93400937670651
-0.27369999999999994,-87.31598142767007
-0.27470000000000006,-87.91016017361338
-0.27569999999999995,-88.40530912856615
-0.27670000000000006,-88.68825138853916
-0.27769999999999995,-89.0985176655
-0.27870000000000006,-89.62196084645008
-0.27969999999999995,-89.80587331543254
-0.28070000000000006,-90.10296268840418
-0.28169999999999995,-90.59811164335694
-0.28270000000000006,-90.82446545133537
-0.28369999999999995,-91.10740771130837
-0.28470000000000006,-91.54596821426652
-0.28569999999999995,-91.88549892623412
-0.28670000000000007,-91.99867583022333
-0.28769999999999996,-92.23917675120039
-0.28870000000000007,-92.5221190111734
-0.28969999999999996,-92.6070016891653
-0.29070000000000007,-92.83335549714371
-0.29169999999999996,-93.24362177410455
-0.29270000000000007,-93.39924001708972
-0.29369999999999996,-93.45582846908432
-0.2947000000000001,-93.79535918105194
-0.29569999999999996,-93.96512453703575
-0.2967000000000001,-93.89438897204248
-0.29769999999999996,-94.02171298903033
-0.2987000000000001,-94.14903700601819
-0.29969999999999997,-94.05000721502763
-0.3007000000000001,-93.97927165003438
-0.30169999999999997,-94.17733123201549
-0.3027000000000001,-94.12074278002089
-0.30369999999999997,-93.96512453703575
-0.3047000000000001,-94.12074278002089
-0.30569999999999997,-94.17733123201549
-0.3067000000000001,-94.03586010202899
-0.3077,-94.10659566702225
-0.3087000000000001,-94.09244855402359
-0.3097,-93.80950629405058
-0.3107000000000001,-93.51241692107894
-0.3117,-93.35679867809377
-0.3127000000000001,-93.00312085312751
-0.3137,-92.67773725415857
-0.3147000000000001,-92.6070016891653
-0.3157,-92.4655305591788
-0.3167000000000001,-92.14014696020983
-0.3177,-91.89964603923279
-0.3187000000000001,-91.75817490924628
-0.3197,-91.29132018029082
-0.3207000000000001,-90.96593658132187
-0.3217,-90.81031833833671
-0.3227000000000001,-90.4990818523664
-0.3237,-90.25858093138935
-0.3247000000000001,-90.28687515738663
-0.3257,-90.13125691440149
-0.3267000000000001,-89.67854929844468
-0.3277,-89.39560703847167
-0.3287000000000001,-89.14095900449597
-0.3297,-88.68825138853916
-0.3307000000000001,-88.3345735635729
-0.3317,-88.30627933757559
-0.3327000000000001,-88.15066109459043
-0.3337,-87.89601306061473
-0.3347000000000001,-87.88186594761608
-0.3357,-87.75454193062824
-0.3367000000000001,-87.44330544465792
-0.3377,-87.35842276666601
-0.3387000000000001,-87.35842276666601
-0.3397,-87.16036318468491
-0.3407000000000001,-87.00474494169976
-0.3417,-87.14621607168625
-0.3427000000000001,-87.13206895868761
-0.3437,-87.03303916769705
-0.3447000000000001,-87.21695163667951
-0.3457,-87.28768720167277
-0.3467000000000001,-87.21695163667951
-0.3477,-87.44330544465792
-0.3487000000000001,-87.81113038262282
-0.3497,-88.16480820758908
-0.3507000000000001,-88.44775046756209
-0.3517,-88.87216385752161
-0.3527000000000001,-89.21169456948921
-0.3537,-89.50878394246087
-0.3547000000000001,-90.07466846240689
-0.3557,-90.6971414343475
-0.35670000000000013,-91.09326059830971
-0.3577,-91.74402779624764
-0.35870000000000013,-92.59285457616664
-0.3597,-93.13044487011537
-0.36070000000000013,-93.90853608504113
-0.3617,-95.05445223793181
-0.3626999999999999,-95.79010211386164
-0.3637,-96.29939818181305
-0.3646999999999999,-97.13407784873341
-0.3657,-97.98290462865245
-0.3666999999999999,-98.71855450458226
-0.3677,-99.63811684949452
-0.3686999999999999,-100.57182630740544
-0.36970000000000003,-101.44894731332178
-0.3706999999999999,-102.4958336752219
-0.37170000000000003,-103.65589694111124
-0.3726999999999999,-104.57545928602352
-0.37370000000000003,-105.4384331789412
-0.3746999999999999,-106.54190799283592
-0.37570000000000003,-107.7161183717239
-0.3766999999999999,-108.50835669964832
-0.37770000000000004,-109.72500841753224
-0.3786999999999999,-110.84263034442563
-0.37970000000000004,-111.7056042373433
-0.3806999999999999,-112.83737327723534
-0.38170000000000004,-114.16720189910848
-0.38269999999999993,-115.2706767130032
-0.38370000000000004,-116.36000441389926
-0.38469999999999993,-117.70398014877104
-0.38570000000000004,-119.01966165764553
-0.38669999999999993,-117.59080324478184
-0.38570000000000004,-113.88425963913545
-0.38469999999999993,-110.99824858741079
-0.38370000000000004,-108.14053176168339
-0.38269999999999993,-105.7496696649115
-0.38170000000000004,-104.12275167006669
-0.3806999999999999,-102.41095099723
-0.37970000000000004,-100.14741291744595
-0.3786999999999999,-98.35072956661735
-0.37770000000000004,-96.6813702327766
-0.3766999999999999,-94.87053976894937
-0.37570000000000003,-93.32850445209648
-0.3746999999999999,-91.81476336124088
-0.37370000000000003,-89.98978578441499
-0.3726999999999999,-88.22139665958369
-0.37170000000000003,-86.80668535971866
-0.3706999999999999,-85.23635581686847
-0.36970000000000003,-83.58114359602637
-0.3686999999999999,-82.44937455613434
-0.3677,-81.04881036926795
-0.3666999999999999,-79.22383279244205
-0.3657,-77.87985705757028
-0.3646999999999999,-76.64905822668769
-0.3637,-75.16361136182941
-0.3626999999999999,-73.74890006196436
-0.3617,-72.51810123108179
-0.36070000000000013,-71.13168415721405
-0.3597,-69.73111997034766
-0.35870000000000013,-68.58520381745697
-0.3577,-67.35440498657438
-0.35670000000000013,-65.9255465737107
-0.3557,-64.72304196882543
-0.3547000000000001,-63.7044498329226
-0.3537,-62.43120966304407
-0.3527000000000001,-61.18626371916283
-0.3517,-60.13937735726271
-0.3507000000000001,-58.86613718738417
-0.3497,-57.50801433951374
-0.3487000000000001,-56.43283375161632
-0.3477,-55.28691759872564
-0.3467000000000001,-53.971236089851146
-0.3457,-52.896055501953725
-0.3447000000000001,-51.934051818045496
-0.3437,-50.74569432615886
-0.3427000000000001,-49.61392528626684
-0.3417,-48.66606871535726
-0.3407000000000001,-47.619182353457134
-0.3397,-46.45911908756781
-0.3387000000000001,-45.61029230764878
-0.3377,-44.71902418873381
-0.3367000000000001,-43.40334267985933
-0.3357,-42.51207456094435
-0.3347000000000001,-41.88960158900374
-0.3337,-40.88515656609956
-0.3327000000000001,-39.79582886520348
-0.3317,-38.91870785928716
-0.3307000000000001,-37.77279170639648
-0.3297,-36.61272844050715
-0.3287000000000001,-35.735607434590825
-0.3277,-34.8867806546718
-0.3267000000000001,-33.85404140577033
-0.3257,-33.0335088518486
-0.3247000000000001,-32.32615320191609
-0.3237,-31.434885083001117
-0.3227000000000001,-30.571911190083444
-0.3217,-29.864555540150924
-0.3207000000000001,-28.93084608224
-0.3197,-27.912253946337174
-0.3187000000000001,-27.091721392415455
-0.3177,-26.257041725495082
-0.3167000000000001,-25.266743815589557
-0.3157,-24.516946826661083
-0.3147000000000001,-23.908620967719123
-0.3137,-23.059794187800097
-0.3127000000000001,-22.253408746877028
-0.3117,-21.68752422693101
-0.3107000000000001,-20.89528589900659
-0.3097,-19.98987066709297
-0.3087000000000001,-19.3249563561564
-0.3077,-18.603453593225233
-0.3067000000000001,-17.74047970030756
-0.30569999999999997,-17.089712502369647
-0.3047000000000001,-16.55212220842093
-0.30369999999999997,-15.78817810649381
-0.3027000000000001,-15.080822456561293
-0.30169999999999997,-14.684703292599082
-0.3007000000000001,-14.430055258623375
-0.29969999999999997,-13.528884160609344
-0.2987000000000001,-12.970073197162657
-0.29769999999999996,-12.351844359121635
-0.2967000000000001,-11.572338432896
-0.29569999999999996,-10.97674497565282
-0.2947000000000001,-10.505646112797763
-0.29369999999999996,-9.788387483766188
-0.29270000000000007,-9.150352687527057
-0.29169999999999996,-8.72452458626768
-0.29070000000000007,-8.124686995124907
-0.28969999999999996,-7.4427961485899585
-0.28870000000000007,-6.997162089132471
-0.28769999999999996,-6.513330824578629
-0.28670000000000007,-5.837098823243141
-0.28569999999999995,-5.361755826488489
-0.28470000000000006,-4.98827204332412
-0.28369999999999995,-4.361554937483908
-0.28270000000000006,-3.823964643535194
-0.28169999999999995,-3.4660426846693397
-0.28070000000000006,-2.9609907506175217
-0.27969999999999995,-2.379544406372992
-0.27870000000000006,-2.0286960040064623
-0.27769999999999995,-1.6311621287443874
-0.27670000000000006,-1.0342954313313282
-0.27569999999999995,-0.6219070874206701
-0.27470000000000006,-0.326656839138837
-0.27369999999999994,0.21857289582914816
-0.27270000000000005,0.693208536933868
-0.27169999999999994,0.9446027349198849
-0.27070000000000005,1.388114727427574
-0.26969999999999994,1.9070308322180693
-0.26870000000000005,2.174411267892561
-0.26769999999999994,2.5139419798601703
-0.26670000000000005,3.050117562509019
-0.26569999999999994,3.379745295377573
-0.26470000000000005,3.6287344841538194
