Potential V vs RHE, Current mA cm-2
0.013299999999999867,-0.4491708377071491
0.012299999999999978,-2.0966021463999844
0.011299999999999866,-2.963820173217252
0.010299999999999976,-3.507069312365426
0.009299999999999864,-3.8833825181295256
0.008299999999999974,-4.106906903508202
0.007299999999999862,-4.297892928989982
0.006299999999999972,-4.483220109272302
0.00529999999999986,-4.654400176555971
0.0042999999999999705,-4.770406503144904
0.0032999999999998586,-4.872265716735186
0.0022999999999999687,-4.962807239926549
0.0012999999999998568,-5.077398855215616
0.00029999999999996696,-5.158037399307924
-0.000700000000000145,-5.22735825300131
-0.0017000000000000348,-5.282531993696048
-0.0027000000000001467,-5.336291023090919
-0.0037000000000000366,-5.4225884123826855
-0.0047000000000001485,-5.498982822575398
-0.005700000000000038,-5.542838872871213
-0.00670000000000015,-5.5994273248658155
-0.00770000000000004,-5.636209818662306
-0.008700000000000152,-5.728166053153534
-0.009700000000000042,-5.808804597245841
-0.010700000000000154,-5.848416513642062
-0.011700000000000044,-5.863978337940577
-0.012700000000000156,-5.9078343882363935
-0.013700000000000045,-5.964422840230995
-0.014700000000000157,-6.042231961723571
-0.015700000000000047,-6.063452631221548
-0.01670000000000016,-6.077599744220197
-0.01770000000000005,-6.1058939702174975
-0.01870000000000016,-6.15399415441291
-0.01970000000000005,-6.238876832404812
-0.020700000000000163,-6.292635861799683
-0.021700000000000053,-6.2954652843994126
-0.022700000000000164,-6.371859694592125
-0.023700000000000054,-6.446839393484972
-0.024700000000000166,-6.452498238684432
-0.025700000000000056,-6.506257268079304
-0.026700000000000168,-6.520404381077953
-0.027700000000000058,-6.55294274097485
-0.02870000000000017,-6.599628213870396
-0.02970000000000006,-6.673193201463377
-0.03070000000000017,-6.719878674358924
-0.03170000000000006,-6.73261107605771
-0.03270000000000017,-6.7693935698542
-0.03370000000000006,-6.841543846147317
-0.034700000000000175,-6.916523545040165
-0.035700000000000065,-6.960379595335981
-0.03670000000000018,-7.008479779531392
-0.03770000000000007,-7.060824097626399
-0.03870000000000018,-7.127315528720055
-0.03970000000000007,-7.12307139482046
-0.04070000000000018,-7.161268599916816
-0.04170000000000007,-7.178245135515196
-0.04270000000000018,-7.243321855308987
-0.04370000000000007,-7.346595780199135
-0.044700000000000184,-7.407428366093333
-0.045700000000000074,-7.454113838988878
-0.046700000000000186,-7.4753345084868545
-0.047700000000000076,-7.5220199813824
-0.04870000000000019,-7.602658525474708
-0.04970000000000008,-7.663491111368903
-0.05070000000000019,-7.703103027765124
-0.05170000000000008,-7.773838592758376
-0.05270000000000019,-7.795059262256351
-0.05370000000000008,-7.858721270750279
-0.05470000000000019,-7.978971731238807
-0.05570000000000008,-8.018583647635028
-0.056700000000000195,-8.048292584932193
-0.057700000000000085,-8.09780748042747
-0.058700000000000196,-8.203910827917348
-0.059700000000000086,-8.339723112704391
-0.0607000000000002,-8.332649556205066
-0.06170000000000009,-8.396311564698992
-0.0627000000000002,-8.472705974891705
-0.06370000000000009,-8.52787971558644
-0.0647000000000002,-8.619835950077668
-0.06570000000000009,-8.68491266987146
-0.0667000000000002,-8.689156803771056
-0.0677000000000001,-8.764136502663902
-0.0687000000000002,-8.87306927275351
-0.0697000000000001,-8.962196084645006
-0.07070000000000021,-9.042834628737316
-0.0717000000000001,-9.082446545133534
-0.07270000000000021,-9.170158645725168
-0.0737000000000001,-9.270603148015587
-0.07470000000000021,-9.352656403407758
-0.0757000000000001,-9.451686194398311
-0.07670000000000021,-9.494127533394261
-0.0777000000000001,-9.532324738490617
-0.07870000000000021,-9.629939818181304
-0.0797000000000001,-9.760093257768888
-0.08070000000000022,-9.852049492260116
-0.0817000000000001,-9.924199768553231
-0.08270000000000022,-9.983617643147563
-0.08370000000000011,-10.08689156803771
-0.08470000000000022,-10.163285978230423
-0.08570000000000011,-10.232606831923809
-0.08670000000000022,-10.318904221215577
-0.08770000000000011,-10.427836991305185
-0.08870000000000022,-10.56647869869196
-0.08970000000000011,-10.584869945590203
-0.09070000000000022,-10.682485025280892
-0.09170000000000011,-10.829615000466857
-0.09270000000000023,-10.914497678458758
-0.09370000000000012,-11.047480540646072
-0.09470000000000023,-11.164901578534868
-0.09570000000000012,-11.238466566127851
-0.09670000000000023,-11.331837511918945
-0.09770000000000012,-11.430867302909498
-0.09870000000000023,-11.51009113570194
-0.09970000000000012,-11.60629150409276
-0.10070000000000023,-11.72088311938183
-0.10170000000000012,-11.83406002337103
-0.10270000000000024,-11.945822216060371
-0.10370000000000013,-12.087293346046872
-0.10470000000000024,-12.228764476033378
-0.10570000000000013,-12.33628253482312
-0.10670000000000024,-12.405603388516507
-0.10770000000000013,-12.501803756907329
-0.10870000000000024,-12.576783455800177
-0.10970000000000013,-12.735231121385059
-0.11070000000000024,-12.947437816364815
-0.11170000000000013,-13.019588092657932
-0.11270000000000002,-13.115788461048757
-0.11370000000000013,-13.26574785883445
-0.11470000000000002,-13.398730721021762
-0.11570000000000014,-13.489272244213126
-0.11670000000000003,-13.576984344804757
-0.11770000000000014,-13.683087692294635
-0.11870000000000003,-13.816070554481948
-0.11970000000000014,-13.9759329313667
-0.12070000000000003,-14.125892329152393
-0.12170000000000014,-14.26028990263957
-0.12270000000000003,-14.373466806628771
-0.12370000000000014,-14.514937936615278
-0.12470000000000003,-14.65640906660178
-0.12570000000000014,-14.797880196588284
-0.12670000000000003,-14.882762874580186
-0.12770000000000015,-14.967645552572087
-0.12870000000000004,-15.179852247551842
-0.12970000000000015,-15.363764716534297
-0.13070000000000004,-15.533530072518102
-0.13170000000000015,-15.675001202504609
-0.13270000000000004,-15.78817810649381
-0.13370000000000015,-15.87306078448571
-0.13470000000000004,-16.056973253468165
-0.13570000000000015,-16.184297270456018
-0.13670000000000004,-16.368209739438473
-0.13770000000000016,-16.56626932141958
-0.13870000000000005,-16.792623129397985
-0.13970000000000016,-16.94824137238314
-0.14070000000000005,-17.07556538937099
-0.14170000000000016,-17.2453307453548
-0.14270000000000005,-17.4433903273359
-0.14370000000000016,-17.613155683319707
-0.14470000000000005,-17.782921039303513
-0.14570000000000016,-17.910245056291366
-0.14670000000000005,-18.08001041227517
-0.14770000000000016,-18.348805559249524
-0.14870000000000005,-18.57515936722793
-0.14970000000000017,-18.744924723211735
-0.15070000000000006,-18.91469007919554
-0.15170000000000017,-19.112749661176647
-0.15270000000000006,-19.25422079116315
-0.15370000000000017,-19.4381332601456
-0.15470000000000006,-19.622045729128057
-0.15570000000000017,-19.876693763103766
-0.15670000000000006,-20.117194684080822
-0.15770000000000017,-20.34354849205923
-0.15870000000000006,-20.555755187038983
-0.15970000000000018,-20.76796188201874
-0.16070000000000007,-21.008462802995794
-0.16170000000000018,-21.291405062968803
-0.16270000000000007,-21.531905983945855
-0.16370000000000018,-21.786554017921564
-0.16470000000000007,-22.055349164895922
-0.16570000000000018,-22.225114520879725
-0.16670000000000007,-22.522203893851387
-0.16770000000000018,-22.84758749282034
-0.16870000000000007,-23.144676865792
-0.16970000000000018,-23.342736447773106
-0.17070000000000007,-23.54079602975421
-0.17170000000000019,-23.795444063729917
-0.17270000000000008,-24.078386323702922
-0.1737000000000002,-24.417917035670534
-0.17470000000000008,-24.729153521640843
-0.1757000000000002,-24.941360216620595
-0.17670000000000008,-25.18186113759765
-0.1777000000000002,-25.521391849565262
-0.17870000000000008,-25.875069674531517
-0.1797000000000002,-26.21460038649913
-0.18070000000000008,-26.497542646472137
-0.1817000000000002,-26.723896454450543
-0.18270000000000008,-27.00683871442355
-0.1837000000000002,-27.31807520039386
-0.1847000000000001,-27.64345879936282
-0.1857000000000002,-27.940548172334477
-0.1867000000000001,-28.265931771303435
-0.1877000000000002,-28.60546248327104
-0.1887000000000001,-29.001581647233255
-0.1897000000000002,-29.34111235920086
-0.1907000000000001,-29.652348845171172
-0.1917000000000001,-29.935291105144174
-0.19269999999999998,-30.274821817111786
-0.1937000000000001,-30.656793868075347
-0.19469999999999998,-30.982177467044306
-0.1957000000000001,-31.335855292010564
-0.19669999999999999,-31.675386003978172
-0.1977000000000001,-31.915886924955227
-0.1987,-32.32615320191609
-0.1997000000000001,-32.764713704874254
-0.2007,-33.11839152984051
-0.2017000000000001,-33.50036358080407
-0.2027,-33.910629857764924
-0.2037000000000001,-34.34919036072309
-0.2047,-34.64627973369475
-0.2057000000000001,-35.014104671659666
-0.2067,-35.353635383627264
-0.2077000000000001,-35.735607434590825
-0.2087,-36.11757948555439
-0.2097000000000001,-36.54199287551389
-0.2107,-36.88152358748151
-0.2117000000000001,-37.15031873445586
-0.2127,-37.291789864442364
-0.2137000000000001,-37.81523304539243
-0.2147,-38.33867622634249
-0.2157000000000001,-38.734795390304704
-0.2167,-39.01773765027771
-0.21770000000000012,-39.328974136248014
-0.2187,-39.640210622218326
-0.21970000000000012,-40.07877112517649
-0.2207,-40.51733162813464
-0.22170000000000012,-40.85686234010226
-0.2227,-41.083216148080666
-0.22370000000000012,-41.40859974704962
-0.2247,-41.91789581500104
-0.22570000000000012,-42.29986786596459
-0.2267,-42.34230920496055
-0.22770000000000012,-42.483780334947056
-0.22870000000000001,-42.99307640289846
-0.22970000000000013,-43.37504845386202
-0.23070000000000002,-43.71457916582963
-0.23170000000000013,-43.71457916582963
-0.23270000000000002,-43.92678586080939
-0.23370000000000013,-44.2097281207824
-0.23470000000000002,-44.605847284744605
-0.23570000000000013,-44.86049531872031
-0.23670000000000002,-44.94537799671222
-0.2376999999999999,-45.10099623969737
-0.23870000000000002,-45.25661448268253
-0.2396999999999999,-45.42637983866633
-0.24070000000000003,-45.53955674265553
-0.24169999999999991,-45.83664611562718
-0.24270000000000003,-45.963970132615046
-0.24369999999999992,-46.077147036604245
-0.24470000000000003,-46.077147036604245
-0.24569999999999992,-46.218618166590744
-0.24670000000000003,-46.4025306355732
-0.24769999999999992,-46.37423640957591
-0.24870000000000003,-46.41667774857186
-0.24969999999999992,-46.41667774857186
-0.25070000000000003,-46.41667774857186
-0.2516999999999999,-46.45911908756781
-0.25270000000000004,-46.43082486157051
-0.2536999999999999,-46.27520661858535
-0.25470000000000004,-46.077147036604245
-0.2556999999999999,-45.83664611562718
-0.25670000000000004,-45.76591055063393
-0.25769999999999993,-45.581998081651484
-0.25870000000000004,-45.45467406466363
-0.25969999999999993,-45.34149716067443
-0.26070000000000004,-45.10099623969737
-0.26169999999999993,-44.84634820572166
-0.26270000000000004,-44.704877075735155
-0.26369999999999993,-44.3511992507689
-0.26470000000000005,-44.16728678178645
-0.26569999999999994,-43.81360895682018
-0.26670000000000005,-43.474078244852585
-0.26769999999999994,-43.205283097878215
-0.26870000000000005,-42.96478217690117
-0.26969999999999994,-42.82331104691466
-0.27070000000000005,-42.72428125592411
-0.27169999999999994,-42.229132300971344
-0.27270000000000005,-41.83301313700913
-0.27369999999999994,-41.45104108604558
-0.27470000000000006,-40.99833347008877
-0.27569999999999995,-40.559772967130606
-0.27670000000000006,-40.27683070715759
-0.27769999999999995,-40.06462401217784
-0.27870000000000006,-39.93729999518999
-0.27969999999999995,-39.72509330021023
-0.28070000000000006,-39.41385681423992
-0.28169999999999995,-39.060178989273666
-0.28270000000000006,-38.72064827730605
-0.28369999999999995,-38.40941179133574
-0.28470000000000006,-38.18305798335734
-0.28569999999999995,-37.92840994938163
-0.28670000000000007,-37.78693881939513
-0.28769999999999996,-37.60302635041268
-0.28870000000000007,-37.43326099442887
-0.28969999999999996,-37.26349563844507
-0.29070000000000007,-37.221054299449115
-0.29169999999999996,-37.26349563844507
-0.29270000000000007,-37.06543605646396
-0.29369999999999996,-37.07958316946261
-0.2947000000000001,-37.192760073451815
-0.29569999999999996,-37.221054299449115
-0.2967000000000001,-37.305936977441014
-0.29769999999999996,-37.40496676843157
-0.2987000000000001,-37.50399655942213
-0.29969999999999997,-37.687909028404576
-0.3007000000000001,-38.02743974037218
-0.30169999999999997,-38.38111756533845
-0.3027000000000001,-38.607471373316855
-0.30369999999999997,-38.8762665202912
-0.3047000000000001,-39.21579723225882
-0.30569999999999997,-39.696799074212926
-0.3067000000000001,-40.20609514216434
-0.3077,-40.460743176140056
-0.3087000000000001,-40.743685436113054
-0.3097,-41.43689397304693
-0.3107000000000001,-42.3564563179592
-0.3117,-42.63939857793221
-0.3127000000000001,-43.077959080890366
-0.3137,-43.70043205283099
-0.3147000000000001,-44.42193481576215
-0.3157,-45.01611356170547
-0.3167000000000001,-45.69517498564068
-0.3177,-46.4874133135651
-0.3187000000000001,-47.29379875448818
-0.3197,-48.057742856415295
-0.3207000000000001,-48.65192160235861
-0.3217,-49.33098302629383
-0.3227000000000001,-50.1656626932142
-0.3237,-51.085225038126474
-0.3247000000000001,-51.83502202705494
-0.3257,-52.59896612898206
-0.3267000000000001,-53.362910230909186
-0.3277,-54.36735525381336
-0.3287000000000001,-55.21618203373238
-0.3297,-56.29136262162981
-0.3307000000000001,-57.12604228855018
-0.3317,-57.889986390477304
-0.3327000000000001,-58.92272563937878
-0.3337,-60.04034756627216
-0.3347000000000001,-61.01649836317903
-0.3357,-61.936060708091304
-0.3367000000000001,-62.82732882700627
-0.3377,-63.803479623913155
-0.3387000000000001,-64.79377753381868
-0.3397,-65.8972523477134
-0.3407000000000001,-66.90169737061757
-0.3417,-67.93443661951906
-0.3427000000000001,-68.9530287554219
-0.3437,-70.21212181230177
-0.3447000000000001,-71.47121486918165
-0.3457,-72.57468968307639
-0.3467000000000001,-73.38107512399945
-0.3477,-74.34307880790767
-0.3487000000000001,-75.4465536218024
-0.3497,-76.77638224367554
-0.3507000000000001,-78.04962241355408
-0.3517,-79.11065588845284
-0.3527000000000001,-80.18583647635029
-0.3537,-81.45907664622881
-0.3547000000000001,-82.95867062408576
-0.3557,-84.04799832498183
-0.35670000000000013,-84.99585489589141
-0.3577,-85.91541724080368
-0.35870000000000013,-87.34427565366735
-0.3597,-88.61751582354589
-0.36070000000000013,-89.96149155841768
-0.3617,-91.10740771130837
-0.3626999999999999,-92.30991231619365
-0.3637,-93.55485826007487
-0.3646999999999999,-94.68662729996691
-0.3657,-95.76180788786432
-0.3666999999999999,-97.10578362273613
-0.3677,-98.71855450458226
-0.3686999999999999,-100.00594178745945
-0.36970000000000003,-101.15185794035013
-0.3706999999999999,-102.34021543223676
-0.37170000000000003,-103.44369024613148
-0.3726999999999999,-104.68863619001272
-0.37370000000000003,-105.62234564792364
-0.3746999999999999,-106.83899736580757
-0.37570000000000003,-108.18297310067936
-0.3766999999999999,-109.38547770556464
-0.37770000000000004,-110.6162765364472
-0.3786999999999999,-112.22904741829338
-0.37970000000000004,-113.64375871815841
-0.3806999999999999,-114.80382198404773
-0.38170000000000004,-116.03462081493029
-0.38269999999999993,-117.26541964581288
-0.38370000000000004,-118.51036558969413
-0.38469999999999993,-119.769458646574
-0.38570000000000004,-121.2549055114323
-0.38669999999999993,-120.30704894052272
-0.38570000000000004,-117.67568592277377
-0.38469999999999993,-115.25652960000453
-0.38370000000000004,-113.71449428315165
-0.38269999999999993,-112.08757628830685
-0.38170000000000004,-110.96995436141347
-0.3806999999999999,-109.99380356450659
-0.37970000000000004,-108.01320774469555
-0.3786999999999999,-106.38628974985076
-0.37770000000000004,-104.74522464200732
-0.3766999999999999,-102.83536438718951
-0.37570000000000003,-101.18015216634743
-0.3746999999999999,-99.75129375348374
-0.37370000000000003,-98.4497593576079
-0.3726999999999999,-96.78040002376716
-0.37170000000000003,-95.37983583690077
-0.3706999999999999,-94.53100905698176
-0.36970000000000003,-93.24362177410455
-0.3686999999999999,-91.78646913524358
-0.3677,-90.06052134940825
-0.3666999999999999,-88.94289942251486
-0.3657,-87.62721791364037
-0.3646999999999999,-86.05688837079018
-0.3637,-84.52900016693594
-0.3626999999999999,-83.35478978804795
-0.3617,-82.13813807016405
-0.36070000000000013,-80.99222191727335
-0.3597,-79.52092216541372
-0.35870000000000013,-78.33256467352709
-0.3577,-76.98858893865528
-0.35670000000000013,-75.98414391575112
-0.3557,-74.75334508486853
-0.3547000000000001,-73.48010491499001
-0.3537,-72.20686474511147
-0.3527000000000001,-71.0043601402262
-0.3517,-69.91503243933012
-0.3507000000000001,-68.89644030342728
-0.3497,-67.87784816752446
-0.3487000000000001,-66.81681469262568
-0.3477,-65.6991927657323
-0.3467000000000001,-64.58157083883891
-0.3457,-63.56297870293609
-0.3447000000000001,-62.37462121104946
-0.3437,-61.28529351015339
-0.3427000000000001,-60.09693601826676
-0.3417,-59.33299191633964
-0.3407000000000001,-58.47001802342197
-0.3397,-57.394837435524536
-0.3387000000000001,-56.29136262162981
-0.3377,-55.13129935574048
-0.3367000000000001,-53.971236089851146
-0.3357,-53.20729198792403
-0.3347000000000001,-52.14625851302525
-0.3337,-51.09937215112513
-0.3327000000000001,-50.06663290222365
-0.3317,-49.118776331314066
-0.3307000000000001,-48.3406851163883
-0.3297,-47.39282854547873
-0.3287000000000001,-46.501560426563756
-0.3277,-45.666880759643384
-0.3267000000000001,-44.84634820572166
-0.3257,-43.82775606981884
-0.3247000000000001,-43.077959080890366
-0.3237,-42.37060343095784
-0.3227000000000001,-41.43689397304693
-0.3217,-40.48903740213735
-0.3207000000000001,-39.58362217022373
-0.3197,-38.96114919828311
-0.3187000000000001,-38.09817530536544
-0.3177,-37.291789864442364
-0.3167000000000001,-36.570287101511205
-0.3157,-36.03269680756248
-0.3147000000000001,-35.50925362661242
-0.3137,-34.702868185689354
-0.3127000000000001,-33.99551253575683
-0.3117,-33.14668575583781
-0.3107000000000001,-32.340300314914735
-0.3097,-31.49147353499572
-0.3087000000000001,-30.812412111060496
-0.3077,-30.07676223513068
-0.3067000000000001,-29.42599503719276
-0.30569999999999997,-28.746933613257543
-0.3047000000000001,-28.251784658304786
-0.30369999999999997,-27.62931168636417
-0.3027000000000001,-26.936103149430302
-0.30169999999999997,-26.14386482150588
-0.3007000000000001,-25.521391849565262
-0.29969999999999997,-24.785741973635442
-0.2987000000000001,-23.753002724733967
-0.29769999999999996,-23.328589334774456
-0.2967000000000001,-22.904175944814945
-0.29569999999999996,-22.607086571843286
-0.2947000000000001,-21.92802514790807
-0.29369999999999996,-21.22066949797555
-0.29270000000000007,-20.72552054302279
-0.29169999999999996,-20.117194684080822
-0.29070000000000007,-19.579604390132108
-0.28969999999999996,-19.141043887173947
-0.28870000000000007,-18.518570915233333
-0.28769999999999996,-17.896097943292716
-0.28670000000000007,-17.40094898833995
-0.28569999999999995,-16.90580003338719
-0.28470000000000006,-16.396503965435777
-0.28369999999999995,-16.000384801473565
-0.28270000000000006,-15.547677185516752
-0.28169999999999995,-14.925204213576137
-0.28070000000000006,-14.458349484620674
-0.27969999999999995,-14.08062156755671
-0.27870000000000006,-13.620840395100572
-0.27769999999999995,-13.168132779143761
-0.27670000000000006,-12.715425163186948
-0.27569999999999995,-12.266961681129732
-0.27470000000000006,-11.894892609265227
-0.27369999999999994,-11.511505847001803
-0.27270000000000005,-11.054554097145397
-0.27169999999999994,-10.64004368628494
-0.27070000000000005,-10.200068472026913
-0.26969999999999994,-9.772825659467674
-0.26870000000000005,-9.607304437383464
-0.26769999999999994,-9.202697005622065
-0.26670000000000005,-8.764136502663902
-0.26569999999999994,-8.390652719499533
