Apr. 3, 2025   10:49:09
Cyclic Voltammetry
File: c:/users/guazh/data/banditlqround7_x0exp518_r20/2025-03-28-exp1029\exp1029-2025-04-03t10_42_33-h2koh\exp1029_cv_sr_300mvs_efin_-1400mv.bin
Data Source:  Experiment
Instrument Model:  CHI760E
Header: CV ran at 300 mVs
Note: 

Init E (V) = -1
High E (V) = -1
Low E (V) = -1.4
Final E (V) = -1
Init P/N = N
Scan Rate (V/s) = 0.3
Segment = 3
Sample Interval (V) = 0.001
Quiet Time (sec) = 2
Sensitivity (A/V) = 0.01
Comp R (ohm) = 1.5

Results:

Channel 1:
Segment 1:
Ep = -1.399V
ip = 3.257e-3A
Ah = 1.693e-2C

Segment 2:

Segment 3:

Potential/V, Current/A

-1.000, -3.821e-4
-1.001, -1.910e-4
-1.002, -2.143e-5
-1.003, 1.358e-4
-1.004, 2.622e-4
-1.005, 3.732e-4
-1.006, 4.811e-4
-1.007, 5.859e-4
-1.008, 6.815e-4
-1.009, 7.648e-4
-1.010, 8.326e-4
-1.011, 9.035e-4
-1.012, 9.775e-4
-1.013, 1.045e-3
-1.014, 1.098e-3
-1.015, 1.147e-3
-1.016, 1.193e-3
-1.017, 1.249e-3
-1.018, 1.298e-3
-1.019, 1.335e-3
-1.020, 1.366e-3
-1.021, 1.400e-3
-1.022, 1.446e-3
-1.023, 1.486e-3
-1.024, 1.514e-3
-1.025, 1.536e-3
-1.026, 1.560e-3
-1.027, 1.597e-3
-1.028, 1.631e-3
-1.029, 1.653e-3
-1.030, 1.665e-3
-1.031, 1.684e-3
-1.032, 1.705e-3
-1.033, 1.736e-3
-1.034, 1.748e-3
-1.035, 1.751e-3
-1.036, 1.767e-3
-1.037, 1.788e-3
-1.038, 1.813e-3
-1.039, 1.822e-3
-1.040, 1.828e-3
-1.041, 1.838e-3
-1.042, 1.859e-3
-1.043, 1.881e-3
-1.044, 1.893e-3
-1.045, 1.896e-3
-1.046, 1.909e-3
-1.047, 1.927e-3
-1.048, 1.946e-3
-1.049, 1.952e-3
-1.050, 1.955e-3
-1.051, 1.964e-3
-1.052, 1.980e-3
-1.053, 1.998e-3
-1.054, 2.004e-3
-1.055, 2.007e-3
-1.056, 2.017e-3
-1.057, 2.038e-3
-1.058, 2.057e-3
-1.059, 2.063e-3
-1.060, 2.063e-3
-1.061, 2.072e-3
-1.062, 2.087e-3
-1.063, 2.103e-3
-1.064, 2.106e-3
-1.065, 2.109e-3
-1.066, 2.118e-3
-1.067, 2.137e-3
-1.068, 2.152e-3
-1.069, 2.158e-3
-1.070, 2.161e-3
-1.071, 2.171e-3
-1.072, 2.189e-3
-1.073, 2.205e-3
-1.074, 2.211e-3
-1.075, 2.211e-3
-1.076, 2.223e-3
-1.077, 2.238e-3
-1.078, 2.254e-3
-1.079, 2.260e-3
-1.080, 2.263e-3
-1.081, 2.275e-3
-1.082, 2.291e-3
-1.083, 2.309e-3
-1.084, 2.319e-3
-1.085, 2.322e-3
-1.086, 2.331e-3
-1.087, 2.346e-3
-1.088, 2.365e-3
-1.089, 2.371e-3
-1.090, 2.377e-3
-1.091, 2.390e-3
-1.092, 2.411e-3
-1.093, 2.427e-3
-1.094, 2.436e-3
-1.095, 2.439e-3
-1.096, 2.451e-3
-1.097, 2.470e-3
-1.098, 2.491e-3
-1.099, 2.497e-3
-1.100, 2.501e-3
-1.101, 2.510e-3
-1.102, 2.528e-3
-1.103, 2.547e-3
-1.104, 2.553e-3
-1.105, 2.559e-3
-1.106, 2.568e-3
-1.107, 2.590e-3
-1.108, 2.612e-3
-1.109, 2.621e-3
-1.110, 2.627e-3
-1.111, 2.639e-3
-1.112, 2.658e-3
-1.113, 2.679e-3
-1.114, 2.689e-3
-1.115, 2.689e-3
-1.116, 2.701e-3
-1.117, 2.723e-3
-1.118, 2.744e-3
-1.119, 2.760e-3
-1.120, 2.766e-3
-1.121, 2.781e-3
-1.122, 2.803e-3
-1.123, 2.827e-3
-1.124, 2.840e-3
-1.125, 2.849e-3
-1.126, 2.871e-3
-1.127, 2.898e-3
-1.128, 2.923e-3
-1.129, 2.941e-3
-1.130, 2.951e-3
-1.131, 2.966e-3
-1.132, 2.997e-3
-1.133, 3.022e-3
-1.134, 3.037e-3
-1.135, 3.049e-3
-1.136, 3.065e-3
-1.137, 3.089e-3
-1.138, 3.114e-3
-1.139, 3.130e-3
-1.140, 3.139e-3
-1.141, 3.154e-3
-1.142, 3.176e-3
-1.143, 3.200e-3
-1.144, 3.210e-3
-1.145, 3.219e-3
-1.146, 3.234e-3
-1.147, 3.256e-3
-1.148, 3.281e-3
-1.149, 3.296e-3
-1.150, 3.305e-3
-1.151, 3.324e-3
-1.152, 3.342e-3
-1.153, 3.361e-3
-1.154, 3.379e-3
-1.155, 3.404e-3
-1.156, 3.416e-3
-1.157, 3.429e-3
-1.158, 3.459e-3
-1.159, 3.469e-3
-1.160, 3.459e-3
-1.161, 3.481e-3
-1.162, 3.515e-3
-1.163, 3.533e-3
-1.164, 3.546e-3
-1.165, 3.552e-3
-1.166, 3.552e-3
-1.167, 3.570e-3
-1.168, 3.592e-3
-1.169, 3.610e-3
-1.170, 3.617e-3
-1.171, 3.638e-3
-1.172, 3.666e-3
-1.173, 3.691e-3
-1.174, 3.712e-3
-1.175, 3.721e-3
-1.176, 3.740e-3
-1.177, 3.771e-3
-1.178, 3.802e-3
-1.179, 3.820e-3
-1.180, 3.832e-3
-1.181, 3.854e-3
-1.182, 3.882e-3
-1.183, 3.906e-3
-1.184, 3.919e-3
-1.185, 3.925e-3
-1.186, 3.940e-3
-1.187, 3.962e-3
-1.188, 3.987e-3
-1.189, 3.996e-3
-1.190, 4.008e-3
-1.191, 4.030e-3
-1.192, 4.058e-3
-1.193, 4.085e-3
-1.194, 4.107e-3
-1.195, 4.125e-3
-1.196, 4.153e-3
-1.197, 4.193e-3
-1.198, 4.233e-3
-1.199, 4.273e-3
-1.200, 4.298e-3
-1.201, 4.326e-3
-1.202, 4.360e-3
-1.203, 4.394e-3
-1.204, 4.415e-3
-1.205, 4.418e-3
-1.206, 4.424e-3
-1.207, 4.452e-3
-1.208, 4.480e-3
-1.209, 4.498e-3
-1.210, 4.511e-3
-1.211, 4.526e-3
-1.212, 4.551e-3
-1.213, 4.582e-3
-1.214, 4.612e-3
-1.215, 4.640e-3
-1.216, 4.674e-3
-1.217, 4.717e-3
-1.218, 4.760e-3
-1.219, 4.794e-3
-1.220, 4.822e-3
-1.221, 4.847e-3
-1.222, 4.890e-3
-1.223, 4.924e-3
-1.224, 4.949e-3
-1.225, 4.967e-3
-1.226, 4.998e-3
-1.227, 5.041e-3
-1.228, 5.078e-3
-1.229, 5.112e-3
-1.230, 5.134e-3
-1.231, 5.155e-3
-1.232, 5.204e-3
-1.233, 5.254e-3
-1.234, 5.282e-3
-1.235, 5.309e-3
-1.236, 5.334e-3
-1.237, 5.362e-3
-1.238, 5.411e-3
-1.239, 5.473e-3
-1.240, 5.510e-3
-1.241, 5.534e-3
-1.242, 5.565e-3
-1.243, 5.599e-3
-1.244, 5.633e-3
-1.245, 5.676e-3
-1.246, 5.722e-3
-1.247, 5.766e-3
-1.248, 5.809e-3
-1.249, 5.852e-3
-1.250, 5.892e-3
-1.251, 5.935e-3
-1.252, 5.988e-3
-1.253, 6.028e-3
-1.254, 6.062e-3
-1.255, 6.095e-3
-1.256, 6.129e-3
-1.257, 6.176e-3
-1.258, 6.222e-3
-1.259, 6.259e-3
-1.260, 6.290e-3
-1.261, 6.324e-3
-1.262, 6.373e-3
-1.263, 6.419e-3
-1.264, 6.456e-3
-1.265, 6.493e-3
-1.266, 6.530e-3
-1.267, 6.580e-3
-1.268, 6.632e-3
-1.269, 6.675e-3
-1.270, 6.721e-3
-1.271, 6.771e-3
-1.272, 6.820e-3
-1.273, 6.872e-3
-1.274, 6.928e-3
-1.275, 6.974e-3
-1.276, 7.014e-3
-1.277, 7.064e-3
-1.278, 7.119e-3
-1.279, 7.165e-3
-1.280, 7.202e-3
-1.281, 7.249e-3
-1.282, 7.298e-3
-1.283, 7.350e-3
-1.284, 7.390e-3
-1.285, 7.421e-3
-1.286, 7.464e-3
-1.287, 7.514e-3
-1.288, 7.563e-3
-1.289, 7.603e-3
-1.290, 7.631e-3
-1.291, 7.671e-3
-1.292, 7.723e-3
-1.293, 7.773e-3
-1.294, 7.810e-3
-1.295, 7.841e-3
-1.296, 7.881e-3
-1.297, 7.939e-3
-1.298, 7.995e-3
-1.299, 8.032e-3
-1.300, 8.069e-3
-1.301, 8.115e-3
-1.302, 8.167e-3
-1.303, 8.220e-3
-1.304, 8.263e-3
-1.305, 8.303e-3
-1.306, 8.340e-3
-1.307, 8.389e-3
-1.308, 8.439e-3
-1.309, 8.473e-3
-1.310, 8.500e-3
-1.311, 8.528e-3
-1.312, 8.568e-3
-1.313, 8.611e-3
-1.314, 8.636e-3
-1.315, 8.658e-3
-1.316, 8.685e-3
-1.317, 8.716e-3
-1.318, 8.750e-3
-1.319, 8.775e-3
-1.320, 8.790e-3
-1.321, 8.815e-3
-1.322, 8.849e-3
-1.323, 8.876e-3
-1.324, 8.892e-3
-1.325, 8.898e-3
-1.326, 8.913e-3
-1.327, 8.941e-3
-1.328, 8.966e-3
-1.329, 8.975e-3
-1.330, 8.981e-3
-1.331, 8.994e-3
-1.332, 9.015e-3
-1.333, 9.034e-3
-1.334, 9.037e-3
-1.335, 9.031e-3
-1.336, 9.037e-3
-1.337, 9.049e-3
-1.338, 9.064e-3
-1.339, 9.077e-3
-1.340, 9.083e-3
-1.341, 9.092e-3
-1.342, 9.111e-3
-1.343, 9.129e-3
-1.344, 9.126e-3
-1.345, 9.111e-3
-1.346, 9.098e-3
-1.347, 9.086e-3
-1.348, 9.068e-3
-1.349, 9.031e-3
-1.350, 9.000e-3
-1.351, 8.981e-3
-1.352, 8.975e-3
-1.353, 8.969e-3
-1.354, 8.957e-3
-1.355, 8.941e-3
-1.356, 8.932e-3
-1.357, 8.947e-3
-1.358, 8.972e-3
-1.359, 8.963e-3
-1.360, 8.935e-3
-1.361, 8.932e-3
-1.362, 8.938e-3
-1.363, 8.932e-3
-1.364, 8.904e-3
-1.365, 8.861e-3
-1.366, 8.824e-3
-1.367, 8.799e-3
-1.368, 8.781e-3
-1.369, 8.762e-3
-1.370, 8.738e-3
-1.371, 8.722e-3
-1.372, 8.716e-3
-1.373, 8.710e-3
-1.374, 8.701e-3
-1.375, 8.682e-3
-1.376, 8.670e-3
-1.377, 8.673e-3
-1.378, 8.676e-3
-1.379, 8.673e-3
-1.380, 8.676e-3
-1.381, 8.685e-3
-1.382, 8.710e-3
-1.383, 8.741e-3
-1.384, 8.753e-3
-1.385, 8.769e-3
-1.386, 8.790e-3
-1.387, 8.821e-3
-1.388, 8.858e-3
-1.389, 8.889e-3
-1.390, 8.917e-3
-1.391, 8.950e-3
-1.392, 8.991e-3
-1.393, 9.040e-3
-1.394, 9.074e-3
-1.395, 9.111e-3
-1.396, 9.154e-3
-1.397, 9.206e-3
-1.398, 9.265e-3
-1.399, 9.317e-3
-1.400, 9.225e-3
-1.399, 8.904e-3
-1.398, 8.639e-3
-1.397, 8.411e-3
-1.396, 8.189e-3
-1.395, 7.979e-3
-1.394, 7.788e-3
-1.393, 7.619e-3
-1.392, 7.464e-3
-1.391, 7.304e-3
-1.390, 7.147e-3
-1.389, 6.996e-3
-1.388, 6.842e-3
-1.387, 6.712e-3
-1.386, 6.580e-3
-1.385, 6.441e-3
-1.384, 6.333e-3
-1.383, 6.225e-3
-1.382, 6.114e-3
-1.381, 5.997e-3
-1.380, 5.873e-3
-1.379, 5.753e-3
-1.378, 5.639e-3
-1.377, 5.556e-3
-1.376, 5.463e-3
-1.375, 5.346e-3
-1.374, 5.235e-3
-1.373, 5.143e-3
-1.372, 5.047e-3
-1.371, 4.949e-3
-1.370, 4.844e-3
-1.369, 4.739e-3
-1.368, 4.653e-3
-1.367, 4.572e-3
-1.366, 4.483e-3
-1.365, 4.381e-3
-1.364, 4.280e-3
-1.363, 4.181e-3
-1.362, 4.088e-3
-1.361, 3.993e-3
-1.360, 3.894e-3
-1.359, 3.805e-3
-1.358, 3.718e-3
-1.357, 3.635e-3
-1.356, 3.546e-3
-1.355, 3.456e-3
-1.354, 3.370e-3
-1.353, 3.293e-3
-1.352, 3.222e-3
-1.351, 3.139e-3
-1.350, 3.056e-3
-1.349, 2.975e-3
-1.348, 2.898e-3
-1.347, 2.827e-3
-1.346, 2.747e-3
-1.345, 2.664e-3
-1.344, 2.593e-3
-1.343, 2.528e-3
-1.342, 2.470e-3
-1.341, 2.420e-3
-1.340, 2.331e-3
-1.339, 2.260e-3
-1.338, 2.201e-3
-1.337, 2.140e-3
-1.336, 2.069e-3
-1.335, 1.992e-3
-1.334, 1.924e-3
-1.333, 1.869e-3
-1.332, 1.813e-3
-1.331, 1.745e-3
-1.330, 1.671e-3
-1.329, 1.606e-3
-1.328, 1.551e-3
-1.327, 1.499e-3
-1.326, 1.434e-3
-1.325, 1.366e-3
-1.324, 1.304e-3
-1.323, 1.252e-3
-1.322, 1.199e-3
-1.321, 1.141e-3
-1.320, 1.076e-3
-1.319, 1.018e-3
-1.318, 9.713e-4
-1.317, 9.251e-4
-1.316, 8.696e-4
-1.315, 8.141e-4
-1.314, 7.617e-4
-1.313, 7.185e-4
-1.312, 6.784e-4
-1.311, 6.260e-4
-1.310, 5.674e-4
-1.309, 5.212e-4
-1.308, 4.811e-4
-1.307, 4.410e-4
-1.306, 3.948e-4
-1.305, 3.393e-4
-1.304, 2.961e-4
-1.303, 2.561e-4
-1.302, 2.221e-4
-1.301, 1.790e-4
-1.300, 1.266e-4
-1.299, 8.648e-5
-1.298, 5.257e-5
-1.297, 1.865e-5
-1.296, -2.451e-5
-1.295, -7.076e-5
-1.294, -1.108e-4
-1.293, -1.417e-4
-1.292, -1.725e-4
-1.291, -2.095e-4
-1.290, -2.527e-4
-1.289, -2.897e-4
-1.288, -3.174e-4
-1.287, -3.452e-4
-1.286, -3.821e-4
-1.285, -4.222e-4
-1.284, -4.561e-4
-1.283, -4.808e-4
-1.282, -5.055e-4
-1.281, -5.394e-4
-1.280, -5.795e-4
-1.279, -6.134e-4
-1.278, -6.350e-4
-1.277, -6.565e-4
-1.276, -6.874e-4
-1.275, -7.213e-4
-1.274, -7.490e-4
-1.273, -7.706e-4
-1.272, -7.891e-4
-1.271, -8.169e-4
-1.270, -8.508e-4
-1.269, -8.785e-4
-1.268, -8.939e-4
-1.267, -9.124e-4
-1.266, -9.402e-4
-1.265, -9.710e-4
-1.264, -9.957e-4
-1.263, -1.011e-3
-1.262, -1.027e-3
-1.261, -1.051e-3
-1.260, -1.082e-3
-1.259, -1.101e-3
-1.258, -1.116e-3
-1.257, -1.128e-3
-1.256, -1.147e-3
-1.255, -1.178e-3
-1.254, -1.199e-3
-1.253, -1.215e-3
-1.252, -1.230e-3
-1.251, -1.252e-3
-1.250, -1.276e-3
-1.249, -1.292e-3
-1.248, -1.295e-3
-1.247, -1.307e-3
-1.246, -1.326e-3
-1.245, -1.350e-3
-1.244, -1.372e-3
-1.243, -1.378e-3
-1.242, -1.390e-3
-1.241, -1.412e-3
-1.240, -1.437e-3
-1.239, -1.455e-3
-1.238, -1.464e-3
-1.237, -1.470e-3
-1.236, -1.486e-3
-1.235, -1.504e-3
-1.234, -1.517e-3
-1.233, -1.523e-3
-1.232, -1.526e-3
-1.231, -1.541e-3
-1.230, -1.566e-3
-1.229, -1.585e-3
-1.228, -1.591e-3
-1.227, -1.591e-3
-1.226, -1.606e-3
-1.225, -1.628e-3
-1.224, -1.640e-3
-1.223, -1.643e-3
-1.222, -1.646e-3
-1.221, -1.659e-3
-1.220, -1.677e-3
-1.219, -1.686e-3
-1.218, -1.686e-3
-1.217, -1.686e-3
-1.216, -1.696e-3
-1.215, -1.714e-3
-1.214, -1.723e-3
-1.213, -1.726e-3
-1.212, -1.729e-3
-1.211, -1.742e-3
-1.210, -1.760e-3
-1.209, -1.770e-3
-1.208, -1.773e-3
-1.207, -1.776e-3
-1.206, -1.788e-3
-1.205, -1.803e-3
-1.204, -1.816e-3
-1.203, -1.816e-3
-1.202, -1.819e-3
-1.201, -1.831e-3
-1.200, -1.850e-3
-1.199, -1.862e-3
-1.198, -1.859e-3
-1.197, -1.862e-3
-1.196, -1.871e-3
-1.195, -1.887e-3
-1.194, -1.896e-3
-1.193, -1.896e-3
-1.192, -1.893e-3
-1.191, -1.902e-3
-1.190, -1.918e-3
-1.189, -1.924e-3
-1.188, -1.927e-3
-1.187, -1.927e-3
-1.186, -1.936e-3
-1.185, -1.951e-3
-1.184, -1.958e-3
-1.183, -1.958e-3
-1.182, -1.958e-3
-1.181, -1.967e-3
-1.180, -1.985e-3
-1.179, -1.995e-3
-1.178, -1.995e-3
-1.177, -1.995e-3
-1.176, -2.004e-3
-1.175, -2.022e-3
-1.174, -2.032e-3
-1.173, -2.029e-3
-1.172, -2.032e-3
-1.171, -2.041e-3
-1.170, -2.056e-3
-1.169, -2.066e-3
-1.168, -2.059e-3
-1.167, -2.056e-3
-1.166, -2.066e-3
-1.165, -2.081e-3
-1.164, -2.096e-3
-1.163, -2.093e-3
-1.162, -2.090e-3
-1.161, -2.103e-3
-1.160, -2.118e-3
-1.159, -2.127e-3
-1.158, -2.127e-3
-1.157, -2.124e-3
-1.156, -2.136e-3
-1.155, -2.146e-3
-1.154, -2.155e-3
-1.153, -2.155e-3
-1.152, -2.155e-3
-1.151, -2.164e-3
-1.150, -2.180e-3
-1.149, -2.189e-3
-1.148, -2.186e-3
-1.147, -2.186e-3
-1.146, -2.195e-3
-1.145, -2.210e-3
-1.144, -2.220e-3
-1.143, -2.220e-3
-1.142, -2.220e-3
-1.141, -2.232e-3
-1.140, -2.247e-3
-1.139, -2.260e-3
-1.138, -2.257e-3
-1.137, -2.257e-3
-1.136, -2.266e-3
-1.135, -2.284e-3
-1.134, -2.294e-3
-1.133, -2.294e-3
-1.132, -2.297e-3
-1.131, -2.306e-3
-1.130, -2.321e-3
-1.129, -2.334e-3
-1.128, -2.334e-3
-1.127, -2.337e-3
-1.126, -2.349e-3
-1.125, -2.368e-3
-1.124, -2.380e-3
-1.123, -2.380e-3
-1.122, -2.386e-3
-1.121, -2.395e-3
-1.120, -2.414e-3
-1.119, -2.426e-3
-1.118, -2.429e-3
-1.117, -2.432e-3
-1.116, -2.448e-3
-1.115, -2.466e-3
-1.114, -2.482e-3
-1.113, -2.485e-3
-1.112, -2.494e-3
-1.111, -2.509e-3
-1.110, -2.534e-3
-1.109, -2.546e-3
-1.108, -2.559e-3
-1.107, -2.565e-3
-1.106, -2.587e-3
-1.105, -2.614e-3
-1.104, -2.636e-3
-1.103, -2.648e-3
-1.102, -2.661e-3
-1.101, -2.682e-3
-1.100, -2.713e-3
-1.099, -2.738e-3
-1.098, -2.753e-3
-1.097, -2.772e-3
-1.096, -2.802e-3
-1.095, -2.842e-3
-1.094, -2.879e-3
-1.093, -2.910e-3
-1.092, -2.941e-3
-1.091, -2.984e-3
-1.090, -3.034e-3
-1.089, -3.077e-3
-1.088, -3.114e-3
-1.087, -3.151e-3
-1.086, -3.194e-3
-1.085, -3.243e-3
-1.084, -3.293e-3
-1.083, -3.327e-3
-1.082, -3.364e-3
-1.081, -3.410e-3
-1.080, -3.462e-3
-1.079, -3.508e-3
-1.078, -3.545e-3
-1.077, -3.582e-3
-1.076, -3.635e-3
-1.075, -3.690e-3
-1.074, -3.737e-3
-1.073, -3.777e-3
-1.072, -3.817e-3
-1.071, -3.866e-3
-1.070, -3.915e-3
-1.069, -3.959e-3
-1.068, -3.992e-3
-1.067, -4.020e-3
-1.066, -4.063e-3
-1.065, -4.119e-3
-1.064, -4.162e-3
-1.063, -4.199e-3
-1.062, -4.233e-3
-1.061, -4.282e-3
-1.060, -4.341e-3
-1.059, -4.390e-3
-1.058, -4.430e-3
-1.057, -4.467e-3
-1.056, -4.517e-3
-1.055, -4.572e-3
-1.054, -4.628e-3
-1.053, -4.668e-3
-1.052, -4.708e-3
-1.051, -4.757e-3
-1.050, -4.813e-3
-1.049, -4.856e-3
-1.048, -4.896e-3
-1.047, -4.936e-3
-1.046, -4.982e-3
-1.045, -5.035e-3
-1.044, -5.075e-3
-1.043, -5.102e-3
-1.042, -5.139e-3
-1.041, -5.192e-3
-1.040, -5.247e-3
-1.039, -5.297e-3
-1.038, -5.337e-3
-1.037, -5.371e-3
-1.036, -5.414e-3
-1.035, -5.466e-3
-1.034, -5.519e-3
-1.033, -5.565e-3
-1.032, -5.602e-3
-1.031, -5.657e-3
-1.030, -5.716e-3
-1.029, -5.768e-3
-1.028, -5.815e-3
-1.027, -5.855e-3
-1.026, -5.907e-3
-1.025, -5.969e-3
-1.024, -6.030e-3
-1.023, -6.077e-3
-1.022, -6.129e-3
-1.021, -6.194e-3
-1.020, -6.259e-3
-1.019, -6.317e-3
-1.018, -6.366e-3
-1.017, -6.410e-3
-1.016, -6.465e-3
-1.015, -6.524e-3
-1.014, -6.567e-3
-1.013, -6.595e-3
-1.012, -6.622e-3
-1.011, -6.656e-3
-1.010, -6.690e-3
-1.009, -6.724e-3
-1.008, -6.752e-3
-1.007, -6.783e-3
-1.006, -6.823e-3
-1.005, -6.869e-3
-1.004, -6.906e-3
-1.003, -6.934e-3
-1.002, -6.958e-3
-1.001, -6.999e-3
