Potential V vs RHE, Current mA cm-2
0.013299999999999867,-4.887827541033701
0.012299999999999978,-8.376505606500881
0.011299999999999866,-10.470278330301136
0.010299999999999976,-11.909039722263879
0.009299999999999864,-13.087494235051453
0.008299999999999974,-14.002812446064135
0.007299999999999862,-14.65640906660178
0.006299999999999972,-14.967645552572087
0.00529999999999986,-15.094969569559943
0.0042999999999999705,-15.264734925543747
0.0032999999999998586,-15.491088733522153
0.0022999999999999687,-15.830619445489761
0.0012999999999998568,-16.22673860945197
0.00029999999999996696,-16.396503965435777
-0.000700000000000145,-16.438945304431726
-0.0017000000000000348,-16.396503965435777
-0.0027000000000001467,-16.438945304431726
-0.0037000000000000366,-16.70774045140608
-0.0047000000000001485,-16.919947146385837
-0.005700000000000038,-17.231183632356142
-0.00670000000000015,-17.40094898833995
-0.00770000000000004,-17.316066310348052
-0.008700000000000152,-17.2736249713521
-0.009700000000000042,-17.358507649344002
-0.010700000000000154,-17.584861457322408
-0.011700000000000044,-17.881950830294063
-0.012700000000000156,-18.06586329927652
-0.013700000000000045,-18.06586329927652
-0.014700000000000157,-18.009274847281915
-0.015700000000000047,-17.966833508285966
-0.01670000000000016,-18.009274847281915
-0.01770000000000005,-18.27806999425627
-0.01870000000000016,-18.53271802823198
-0.01970000000000005,-18.674189158218486
-0.020700000000000163,-18.631747819222536
-0.021700000000000053,-18.53271802823198
-0.022700000000000164,-18.53271802823198
-0.023700000000000054,-18.759071836210385
-0.024700000000000166,-19.056161209182044
-0.025700000000000056,-19.3249563561564
-0.026700000000000168,-19.452280373144255
-0.027700000000000058,-19.409839034148305
-0.02870000000000017,-19.367397695152352
-0.02970000000000006,-19.409839034148305
-0.03070000000000017,-19.678634181122664
-0.03170000000000006,-19.890840876102416
-0.03270000000000017,-20.10304757108217
-0.03370000000000006,-20.159636023076775
-0.034700000000000175,-20.10304757108217
-0.035700000000000065,-20.10304757108217
-0.03670000000000018,-20.202077362072725
-0.03770000000000007,-20.456725396048434
-0.03870000000000018,-20.72552054302279
-0.03970000000000007,-20.85284456001064
-0.04070000000000018,-20.85284456001064
-0.04170000000000007,-20.76796188201874
-0.04270000000000018,-20.76796188201874
-0.04370000000000007,-20.93772723800254
-0.044700000000000184,-21.2065223849769
-0.045700000000000074,-21.503611757948562
-0.046700000000000186,-21.63093577493641
-0.047700000000000076,-21.58849443594046
-0.04870000000000019,-21.54605309694451
-0.04970000000000008,-21.729965565926964
-0.05070000000000019,-21.94217226090672
-0.05170000000000008,-22.253408746877028
-0.05270000000000019,-22.550498119848687
-0.05370000000000008,-22.592939458844636
-0.05470000000000019,-22.63538079784059
-0.05570000000000008,-22.63538079784059
-0.056700000000000195,-22.776851927827092
-0.057700000000000085,-23.031499961802798
-0.058700000000000196,-23.300295108777156
-0.059700000000000086,-23.47006046476096
-0.0607000000000002,-23.47006046476096
-0.06170000000000009,-23.427619125765005
-0.0627000000000002,-23.51250180375691
-0.06370000000000009,-23.639825820744765
-0.0647000000000002,-23.951062306715073
-0.06570000000000009,-24.24815167968673
-0.0667000000000002,-24.389622809673234
-0.0677000000000001,-24.432064148669184
-0.0687000000000002,-24.432064148669184
-0.0697000000000001,-24.516946826661083
-0.07070000000000021,-24.814036199632742
-0.0717000000000001,-25.0828313466071
-0.07270000000000021,-25.337479380582806
-0.0737000000000001,-25.478950510569312
-0.07470000000000021,-25.478950510569312
-0.0757000000000001,-25.521391849565262
-0.07670000000000021,-25.691157205549064
-0.0777000000000001,-26.002393691519377
-0.07870000000000021,-26.34192440348698
-0.0797000000000001,-26.568278211465387
-0.08070000000000022,-26.65316088945729
-0.0817000000000001,-26.65316088945729
-0.08270000000000022,-26.738043567449193
-0.08370000000000011,-27.00683871442355
-0.08470000000000022,-27.303928087395207
-0.08570000000000011,-27.65760591236147
-0.08670000000000022,-27.827371268345274
-0.08770000000000011,-27.827371268345274
-0.08870000000000022,-27.869812607341224
-0.08970000000000011,-28.09616641531963
-0.09070000000000022,-28.393255788291288
-0.09170000000000011,-28.789374952253496
-0.09270000000000023,-29.100611438223805
-0.09370000000000012,-29.18549411621571
-0.09470000000000023,-29.22793545521166
-0.09570000000000012,-29.27037679420761
-0.09670000000000023,-29.482583489187363
-0.09770000000000012,-29.878702653149578
-0.09870000000000023,-30.232380478115836
-0.09970000000000012,-30.487028512091538
-0.10070000000000023,-30.571911190083444
-0.10170000000000012,-30.529469851087494
-0.10270000000000024,-30.71338232006995
-0.10370000000000013,-30.925589015049702
-0.10470000000000024,-31.321708179011907
-0.10570000000000013,-31.661238890979522
-0.10670000000000024,-31.84515135996197
-0.10770000000000013,-31.930034037953877
-0.10870000000000024,-31.972475376949827
-0.10970000000000013,-32.14224073293363
-0.11070000000000024,-32.49591855789989
-0.11170000000000013,-32.892037721862096
-0.11270000000000002,-33.288156885824314
-0.11370000000000013,-33.50036358080407
-0.11470000000000002,-33.54280491980002
-0.11570000000000014,-33.712570275783825
-0.11670000000000003,-33.93892408376223
-0.11770000000000014,-34.33504324772444
-0.11870000000000003,-34.75945663768395
-0.11970000000000014,-35.07069312365426
-0.12070000000000003,-35.198017140642115
-0.12170000000000014,-35.282899818634014
-0.12270000000000003,-35.38192960962457
-0.12370000000000014,-35.721460321592176
-0.12470000000000003,-36.07513814655844
-0.12570000000000014,-36.47125731052064
-0.12670000000000003,-36.725905344496354
-0.12770000000000015,-36.768346683492304
-0.12870000000000004,-36.89567070048016
-0.12970000000000015,-37.122024508458566
-0.13070000000000004,-37.47570233342482
-0.13170000000000015,-37.90011572338433
-0.13270000000000004,-38.211352209354644
-0.13370000000000015,-38.42355890433439
-0.13470000000000004,-38.522588695324956
-0.13570000000000015,-38.5650300343209
-0.13670000000000004,-38.777236729300654
-0.13770000000000016,-39.130914554266916
-0.13870000000000005,-39.61191639622103
-0.13970000000000016,-39.90900576919269
-0.14070000000000005,-40.03632978618054
-0.14170000000000016,-40.135359577171094
-0.14270000000000005,-40.30512493315489
-0.14370000000000016,-40.65880275812115
-0.14470000000000005,-41.083216148080666
-0.14570000000000016,-41.47933531204288
-0.14670000000000005,-41.79057179801318
-0.14770000000000016,-41.87545447600508
-0.14870000000000005,-41.96033715399699
-0.14970000000000017,-42.130102509980794
-0.15070000000000006,-42.483780334947056
-0.15170000000000017,-42.87989949890926
-0.15270000000000006,-43.27601866287147
-0.15370000000000017,-43.48822535785123
-0.15470000000000006,-43.61554937483908
-0.15570000000000017,-43.79946184382153
-0.15670000000000006,-44.054109877797245
-0.15770000000000017,-44.535111719751356
-0.15870000000000006,-45.01611356170547
-0.15970000000000018,-45.36979138667173
-0.16070000000000007,-45.581998081651484
-0.16170000000000018,-45.624439420647434
-0.16270000000000007,-45.85079322862584
-0.16370000000000018,-46.2327652795894
-0.16470000000000007,-46.75620846053947
-0.16570000000000018,-47.23721030249357
-0.16670000000000007,-47.54844678846388
-0.16770000000000018,-47.633329466455784
-0.16870000000000007,-47.71821214444768
-0.16970000000000018,-47.987007291422046
-0.17070000000000007,-48.32653800338966
-0.17170000000000019,-48.84998118433972
-0.17270000000000008,-49.20365900930597
-0.1737000000000002,-49.41586570428573
-0.17470000000000008,-49.59977817326819
-0.1757000000000002,-49.68466085126009
-0.17670000000000008,-49.939308885235796
-0.1777000000000002,-50.37786938819396
-0.17870000000000008,-50.77398855215617
-0.1797000000000002,-51.071077925127824
-0.18070000000000008,-51.17010771611838
-0.1817000000000002,-51.29743173310623
-0.18270000000000008,-51.46719708909004
-0.1837000000000002,-51.73599223606439
-0.1847000000000001,-52.2169940780185
-0.1857000000000002,-52.69799591997262
-0.1867000000000001,-52.95264395394832
-0.1877000000000002,-53.16485064892808
-0.1887000000000001,-53.26388043991864
-0.1897000000000002,-53.518528473894335
-0.1907000000000001,-53.9570889768525
-0.1917000000000001,-54.43809081880661
-0.19269999999999998,-54.834209982768826
-0.1937000000000001,-55.046416677748574
-0.19469999999999998,-55.13129935574048
-0.1957000000000001,-55.31521182472294
-0.19669999999999999,-55.527418519702685
-0.1977000000000001,-55.96597902266086
-0.1987,-56.404539525619015
-0.1997000000000001,-56.70162889859067
-0.2007,-56.88554136757313
-0.2017000000000001,-56.927982706569075
-0.2027,-57.097748062552874
-0.2037000000000001,-57.45142588751914
-0.2047,-57.87583927747865
-0.2057000000000001,-58.27195844144086
-0.2067,-58.62563626640712
-0.2077000000000001,-58.66807760540307
-0.2087,-58.71051894439902
-0.2097000000000001,-58.880284300382826
-0.2107,-59.27640346434504
-0.2117000000000001,-59.7149639673032
-0.2127,-60.02620045327351
-0.2137000000000001,-60.15352447026136
-0.2147,-60.15352447026136
-0.2157000000000001,-60.36573116524111
-0.2167,-60.59208497321952
-0.21770000000000012,-60.93161568518713
-0.2187,-61.37017618814529
-0.21970000000000012,-61.72385401311155
-0.2207,-61.80873669110345
-0.22170000000000012,-61.89361936909536
-0.2227,-62.11997317707376
-0.22370000000000012,-62.41706255004542
-0.2247,-62.81318171400764
-0.22570000000000012,-63.15271242597524
-0.2267,-63.3366248949577
-0.22770000000000012,-63.421507572949594
-0.22870000000000001,-63.46394891194555
-0.22970000000000013,-63.6761556069253
-0.23070000000000002,-64.0722747708875
-0.23170000000000013,-64.51083527384567
-0.23270000000000002,-64.90695443780788
-0.23370000000000013,-65.16160247178358
-0.23470000000000002,-65.2464851497755
-0.23570000000000013,-65.38795627976201
-0.23670000000000002,-65.64260431373769
-0.2376999999999999,-66.03872347769992
-0.23870000000000002,-66.56216665864997
-0.2396999999999999,-66.81681469262568
-0.24070000000000003,-67.00072716160814
-0.24169999999999991,-67.08560983960004
-0.24270000000000003,-67.21293385658788
-0.24369999999999992,-67.6090530205501
-0.24470000000000003,-68.0051721845123
-0.24569999999999992,-68.44373268747047
-0.24670000000000003,-68.78326339943808
-0.24769999999999992,-68.91058741642594
-0.24870000000000003,-69.0096172074165
-0.24969999999999992,-69.1793825634003
-0.25070000000000003,-69.43403059737601
-0.2516999999999999,-69.87259110033416
-0.25270000000000004,-70.22626892530042
-0.2536999999999999,-70.39603428128423
-0.25470000000000004,-70.48091695927613
-0.2556999999999999,-70.57994675026669
-0.25670000000000004,-70.70727076725453
-0.25769999999999993,-71.06094859222078
-0.25870000000000004,-71.44292064318435
-0.25969999999999993,-71.75415712915466
-0.26070000000000004,-71.83903980714656
-0.26169999999999993,-71.92392248513846
-0.26270000000000004,-72.10783495412092
-0.26369999999999993,-72.36248298809663
-0.26470000000000005,-72.80104349105478
-0.26569999999999994,-73.23960399401295
-0.26670000000000005,-73.57913470598055
-0.26769999999999994,-73.72060583596706
-0.26870000000000005,-73.80548851395896
-0.26969999999999994,-73.97525386994278
-0.27070000000000005,-74.41381437290093
-0.27169999999999994,-74.8523748758591
-0.27270000000000005,-75.2484940398213
-0.27369999999999994,-75.37581805680915
-0.27470000000000006,-75.50314207379701
-0.27569999999999995,-75.5880247517889
-0.27670000000000006,-75.85681989876326
-0.27769999999999995,-76.23879194972683
-0.27870000000000006,-76.63491111368903
-0.27969999999999995,-76.9037062606634
-0.28070000000000006,-76.98858893865528
-0.28169999999999995,-76.9037062606634
-0.28270000000000006,-76.98858893865528
-0.28369999999999995,-77.34226676362155
-0.28470000000000006,-77.80912149257702
-0.28569999999999995,-78.24768199553519
-0.28670000000000007,-78.64380115949739
-0.28769999999999996,-78.64380115949739
-0.28870000000000007,-78.72868383748929
-0.28969999999999996,-78.99747898446365
-0.29070000000000007,-79.2945683574353
-0.29169999999999996,-79.73312886039348
-0.29270000000000007,-80.17168936335163
-0.29369999999999996,-80.38389605833139
-0.2947000000000001,-80.52536718831789
-0.29569999999999996,-80.46877873632329
-0.2967000000000001,-80.7800152222936
-0.29769999999999996,-81.1761343862558
-0.2987000000000001,-81.61469488921396
-0.29969999999999997,-82.03910827917348
-0.3007000000000001,-82.30790342614785
-0.30169999999999997,-82.39278610413973
-0.3027000000000001,-82.70402259011003
-0.30369999999999997,-83.08599464107361
-0.3047000000000001,-83.60943782202366
-0.30569999999999997,-84.18946945496833
-0.3067000000000001,-84.61388284492786
-0.3077,-84.84023665290624
-0.3087000000000001,-85.01000200889004
-0.3097,-85.32123849486035
-0.3107000000000001,-85.75979899781852
-0.3117,-86.32568351776455
-0.3127000000000001,-86.89156803771054
-0.3137,-87.33012854066871
-0.3147000000000001,-87.66965925263632
-0.3157,-88.02333707760259
-0.3167000000000001,-88.46189758056073
-0.3177,-89.11266477849867
-0.3187000000000001,-89.76343197643658
-0.3197,-90.24443381839069
-0.3207000000000001,-90.59811164335694
-0.3217,-90.85275967733266
-0.3227000000000001,-91.24887884129487
-0.3237,-91.85720470023682
-0.3247000000000001,-92.56456035016936
-0.3257,-93.30021022609918
-0.3267000000000001,-93.90853608504113
-0.3277,-94.34709658799929
-0.3287000000000001,-94.8280984299534
-0.3297,-95.43642428889537
-0.3307000000000001,-96.17207416482519
-0.3317,-97.04919517074151
-0.3327000000000001,-97.84143349866595
-0.3337,-98.4497593576079
-0.3347000000000001,-99.05808521654988
-0.3357,-99.62396973649588
-0.3367000000000001,-100.2747369344338
-0.3377,-101.10941660135417
-0.3387000000000001,-101.92994915527588
-0.3397,-102.72218748320032
-0.3407000000000001,-103.24563066415038
-0.3417,-103.81151518409638
-0.3427000000000001,-104.46228238203432
-0.3437,-105.25452070995874
-0.3447000000000001,-106.15993594187235
-0.3457,-107.16438096477653
-0.3467000000000001,-108.04150197069285
-0.3477,-108.77715184662266
-0.3487000000000001,-109.4845074965552
-0.3497,-110.34748138947285
-0.3507000000000001,-111.3094850733811
-0.3517,-112.3563714352812
-0.3527000000000001,-113.40325779718134
-0.3537,-114.19549612510575
-0.3547000000000001,-114.93114600103557
-0.3557,-115.76582566795594
-0.35670000000000013,-116.72782935186417
-0.3577,-117.71812726176971
-0.35870000000000013,-118.86404341466037
-0.3597,-119.68457596858211
-0.36070000000000013,-120.47681429650652
-0.3617,-121.17002283344038
-0.3626999999999999,-122.08958517835266
-0.3637,-123.2213542182447
-0.3646999999999999,-124.39556459713268
-0.3657,-125.71124610600715
-0.3666999999999999,-126.9278978238911
-0.3677,-127.93234284679528
-0.3686999999999999,-128.9792292086954
-0.36970000000000003,-130.23832226557528
-0.3706999999999999,-131.63888645244168
-0.37170000000000003,-133.12433331729994
-0.3726999999999999,-134.46830905217172
-0.37370000000000003,-135.6991078830543
-0.3746999999999999,-136.83087692294635
-0.37570000000000003,-137.92020462384244
-0.3766999999999999,-139.1792976807223
-0.37770000000000004,-140.4949791895968
-0.3786999999999999,-141.75407224647665
-0.37970000000000004,-143.0273124163552
-0.3806999999999999,-144.01761032626072
-0.38170000000000004,-145.14937936615277
-0.38269999999999993,-146.5640906660178
-0.38370000000000004,-147.97880196588284
-0.38469999999999993,-149.53498439573437
-0.38570000000000004,-151.23263795557244
-0.38669999999999993,-149.1105710057749
-0.38570000000000004,-142.17848563643616
-0.38469999999999993,-137.22699608690854
-0.38370000000000004,-133.3365400122797
-0.38269999999999993,-130.23832226557528
-0.38170000000000004,-127.57866502182902
-0.3806999999999999,-125.00389045607463
-0.37970000000000004,-122.34423321232836
-0.3786999999999999,-119.81189998556997
-0.37770000000000004,-117.19468408081964
-0.3766999999999999,-114.84626332304367
-0.37570000000000003,-112.79493193823936
-0.3746999999999999,-110.70115921443913
-0.37370000000000003,-108.52250381264696
-0.3726999999999999,-106.11749460287639
-0.37170000000000003,-103.68419116710854
-0.3706999999999999,-101.50553576531638
-0.36970000000000003,-99.49664571950804
-0.3686999999999999,-97.69996236867944
-0.3677,-95.91742613084948
-0.3666999999999999,-93.95097742403709
-0.3657,-91.94208737822873
-0.3646999999999999,-89.98978578441499
-0.3637,-88.19310243358639
-0.3626999999999999,-86.66521422973216
-0.3617,-85.09488468688197
-0.36070000000000013,-83.52455514403178
-0.3597,-81.78446024519776
-0.35870000000000013,-79.86045287738132
-0.3577,-78.07791663955136
-0.35670000000000013,-76.46514575770523
-0.3557,-75.06458157083884
-0.3547000000000001,-73.76304717496302
-0.3537,-72.32004164910067
-0.3527000000000001,-70.79215344524643
-0.3517,-69.26426524139221
-0.3507000000000001,-67.82125971552985
-0.3497,-66.47728398065809
-0.3487000000000001,-65.2464851497755
-0.3477,-63.98739209289561
-0.3467000000000001,-62.68585769701977
-0.3457,-61.20041083216149
-0.3447000000000001,-59.7149639673032
-0.3437,-58.45587091042332
-0.3427000000000001,-57.30995475753264
-0.3417,-56.22062705663656
-0.3407000000000001,-55.13129935574048
-0.3397,-53.872206298860604
-0.3387000000000001,-52.59896612898206
-0.3377,-51.29743173310623
-0.3367000000000001,-50.12322135421825
-0.3357,-49.118776331314066
-0.3347000000000001,-48.156772647405845
-0.3337,-47.15232762450167
-0.3327000000000001,-45.97811724561369
-0.3317,-44.704877075735155
-0.3307000000000001,-43.57310803584313
-0.3297,-42.526221673943
-0.3287000000000001,-41.606659329030734
-0.3277,-40.743685436113054
-0.3267000000000001,-39.739240413208876
-0.3257,-38.607471373316855
-0.3247000000000001,-37.47570233342482
-0.3237,-36.47125731052064
-0.3227000000000001,-35.721460321592176
-0.3217,-34.98581044566235
-0.3207000000000001,-34.193572117737936
-0.3197,-33.330598224820264
-0.3187000000000001,-32.184682071929586
-0.3177,-31.19438416202406
-0.3167000000000001,-30.317263156107735
-0.3157,-29.581613280177915
-0.3147000000000001,-29.001581647233255
-0.3137,-28.18104909331153
-0.3127000000000001,-27.261486748399253
-0.3117,-26.257041725495082
-0.3107000000000001,-25.295038041586857
-0.3097,-24.559388165657033
-0.3087000000000001,-23.993503645711023
-0.3077,-23.427619125765005
-0.3067000000000001,-22.63538079784059
-0.30569999999999997,-21.772406904922917
-0.3047000000000001,-20.89528589900659
-0.30369999999999997,-20.202077362072725
-0.3027000000000001,-19.678634181122664
-0.30169999999999997,-19.2400736781645
-0.3007000000000001,-18.716630497214435
-0.29969999999999997,-18.009274847281915
-0.2987000000000001,-17.2736249713521
-0.29769999999999996,-16.438945304431726
-0.2967000000000001,-15.830619445489761
-0.29569999999999996,-15.3920589425316
-0.2947000000000001,-14.967645552572087
-0.29369999999999996,-14.444202371622024
-0.29270000000000007,-13.654793466297335
-0.29169999999999996,-12.825772644576423
-0.29070000000000007,-12.12831997374296
-0.28969999999999996,-11.647318131788847
-0.28870000000000007,-11.255443101726232
-0.28769999999999996,-10.906009410659568
-0.28670000000000007,-10.382566229709504
-0.28569999999999995,-9.728969609171857
-0.28470000000000006,-9.073958277334345
-0.28369999999999995,-8.508073757388331
-0.28270000000000006,-8.158640066321666
-0.28169999999999995,-7.853062425550818
-0.28070000000000006,-7.461187395488204
-0.27969999999999995,-6.893888164242324
-0.27870000000000006,-6.282732882700628
-0.27769999999999995,-5.715433651454749
-0.27670000000000006,-5.279702571096316
-0.27569999999999995,-4.9302688800296535
-0.27470000000000006,-4.712403339850438
-0.27369999999999994,-4.23281620919619
-0.27270000000000005,-3.6655169779503103
-0.27169999999999994,-3.055776407708479
-0.27070000000000005,-2.532333226758415
-0.26969999999999994,-2.1390434853959355
-0.26870000000000005,-1.9650339955125358
-0.26769999999999994,-1.7033124050375041
-0.26670000000000005,-1.3107300193249565
