Potential V vs RHE, Current mA cm-2
0.05339999999999995,-0.03259494834889044
0.05239999999999995,-0.033896482744766275
0.051399999999999946,-0.03444822015171364
0.050399999999999945,-0.03480189797667991
0.049399999999999944,-0.03518387002764346
0.04839999999999994,-0.03553754785260972
0.04739999999999994,-0.03593366701657193
0.04639999999999994,-0.03632978618053414
0.04539999999999994,-0.0366551697795031
0.04439999999999994,-0.03700884760446936
0.04339999999999994,-0.03736252542943562
0.04239999999999994,-0.03773035036740053
0.04139999999999994,-0.03806988107936814
0.040399999999999936,-0.03839526467833709
0.039399999999999935,-0.03874894250330335
0.038399999999999934,-0.03911676744126827
0.03739999999999993,-0.03947044526623452
0.03639999999999993,-0.03980997597820213
0.03539999999999993,-0.04014950669016974
0.03439999999999993,-0.04048903740213735
0.03339999999999993,-0.04084271522710361
0.03239999999999993,-0.041238834391065814
0.03139999999999993,-0.041620806442029375
0.030399999999999927,-0.04194619004099834
0.029399999999999926,-0.04228572075296595
0.028399999999999925,-0.042653545690930855
0.027399999999999924,-0.043021370628895765
0.026399999999999924,-0.043403342679859326
0.025399999999999923,-0.043771167617824236
0.024399999999999922,-0.04409655121679319
0.02339999999999992,-0.04443608192876081
0.02239999999999992,-0.04483220109272301
0.02139999999999992,-0.04520002603068792
0.020399999999999918,-0.04556785096865284
0.019399999999999917,-0.04592152879361909
0.018399999999999916,-0.046275206618585356
0.017399999999999916,-0.04668547289554621
0.016399999999999915,-0.04705329783351112
0.015399999999999914,-0.04744941699747333
0.014399999999999913,-0.04784553616143554
0.013399999999999912,-0.04824165532539775
0.012399999999999911,-0.04865192160235861
0.01139999999999991,-0.04904804076632082
0.01039999999999991,-0.04941586570428573
0.009399999999999908,-0.049826131981246594
0.008399999999999908,-0.050208104032210155
0.007399999999999907,-0.05063251742216966
0.006399999999999906,-0.05105693081212918
0.005399999999999905,-0.05142475575009409
0.004399999999999904,-0.05182087491405629
0.003399999999999903,-0.05220284696501985
0.002399999999999902,-0.05264140746797802
0.0013999999999999013,-0.053037526631940224
0.00039999999999990044,-0.05344779290890109
-0.0006000000000001005,-0.053886353411859246
-0.0016000000000001013,-0.05429661968882011
-0.0026000000000001022,-0.05473518019177826
-0.003600000000000103,-0.055145446468739125
-0.004600000000000104,-0.055541565632701344
-0.005600000000000105,-0.05598012613565951
-0.006600000000000106,-0.05639039241262036
-0.007600000000000107,-0.056843100028577176
-0.008600000000000108,-0.057281660531535335
-0.009600000000000108,-0.05767777969549755
-0.01060000000000011,-0.05811634019845571
-0.01160000000000011,-0.05854075358841522
-0.012600000000000111,-0.05900760831737068
-0.013600000000000112,-0.05941787459433154
-0.014600000000000113,-0.05984228798429105
-0.015600000000000114,-0.060252554261251916
-0.016600000000000115,-0.06069111476421007
-0.017600000000000116,-0.06115796949316554
-0.018600000000000116,-0.06158238288312505
-0.019600000000000117,-0.06202094338608321
-0.020600000000000118,-0.06245950388904137
-0.02160000000000012,-0.06291221150499818
-0.02260000000000012,-0.06340736045995093
-0.02360000000000012,-0.06383177384991046
-0.024600000000000122,-0.06429862857886592
-0.025600000000000123,-0.06475133619482273
-0.026600000000000124,-0.06520404381077954
-0.027600000000000124,-0.0656991927657323
-0.028600000000000125,-0.06615190038168911
-0.029600000000000126,-0.06659046088464728
-0.030600000000000127,-0.06701487427460678
-0.03160000000000013,-0.06748172900356225
-0.03260000000000013,-0.06799102507151367
-0.03360000000000013,-0.06842958557447182
-0.03460000000000002,-0.06885399896443134
-0.03560000000000002,-0.06927841235439085
-0.03660000000000002,-0.06975941419634496
-0.03760000000000002,-0.07026871026429637
-0.03860000000000002,-0.07072141788025317
-0.039600000000000024,-0.07115997838321135
-0.040600000000000025,-0.0716268331121668
-0.041600000000000026,-0.07207954072812363
-0.04260000000000003,-0.07254639545707908
-0.04360000000000003,-0.07299910307303589
-0.04460000000000003,-0.0734518106889927
-0.04560000000000003,-0.0739328125309468
-0.04660000000000003,-0.07438552014690362
-0.04760000000000003,-0.07486652198885775
-0.04860000000000003,-0.07534752383081185
-0.04960000000000003,-0.07580023144676866
-0.050600000000000034,-0.07626708617572413
-0.051600000000000035,-0.07671979379168092
-0.052600000000000036,-0.0771866485206364
-0.053600000000000037,-0.07765350324959187
-0.05460000000000004,-0.07810621086554868
-0.05560000000000004,-0.07855891848150548
-0.05660000000000004,-0.07902577321046096
-0.05760000000000004,-0.07950677505241506
-0.05860000000000004,-0.07993118844237457
-0.05960000000000004,-0.08038389605833138
-0.06060000000000004,-0.08082245656128956
-0.061600000000000044,-0.08130345840324366
-0.06260000000000004,-0.08177031313219911
-0.06360000000000005,-0.08220887363515728
-0.06460000000000005,-0.0826615812511141
-0.06560000000000005,-0.08308599464107361
-0.06660000000000005,-0.08351040803103311
-0.06760000000000005,-0.08396311564698994
-0.06860000000000005,-0.08435923481095214
-0.06960000000000005,-0.084769501087913
-0.07060000000000005,-0.08522220870386982
-0.07160000000000005,-0.08564662209382931
-0.07260000000000005,-0.08608518259678749
-0.07360000000000005,-0.08649544887374834
-0.07460000000000006,-0.08689156803771056
-0.07560000000000006,-0.08730183431467141
-0.07660000000000006,-0.08769795347863363
-0.07760000000000006,-0.08810821975559449
-0.07860000000000006,-0.08849019180655805
-0.07960000000000006,-0.0889004580835189
-0.08060000000000006,-0.08929657724748112
-0.08160000000000006,-0.08970684352444197
-0.08260000000000006,-0.09014540402740015
-0.08360000000000006,-0.09054152319136234
-0.08460000000000006,-0.09088105390332996
-0.08560000000000006,-0.0912630259542935
-0.08660000000000007,-0.09161670377925978
-0.08760000000000007,-0.092012822943222
-0.08860000000000007,-0.0923523536551896
-0.08960000000000007,-0.0927484728191518
-0.09060000000000007,-0.09310215064411806
-0.09160000000000007,-0.09346997558208296
-0.09260000000000007,-0.09385194763304654
-0.09360000000000007,-0.0942056254580128
-0.09460000000000007,-0.09453100905698175
-0.09560000000000007,-0.09484224554295206
-0.09660000000000007,-0.09518177625491966
-0.09760000000000008,-0.09550715985388863
-0.09860000000000008,-0.09580424922686027
-0.09960000000000008,-0.09615792705182655
-0.10060000000000008,-0.0964267221988009
-0.10160000000000008,-0.0967662529107685
-0.10260000000000008,-0.09709163650973747
-0.10360000000000008,-0.09734628454371318
-0.10460000000000008,-0.09764337391668483
-0.10560000000000008,-0.09789802195066052
-0.10660000000000008,-0.09820925843663084
-0.10760000000000008,-0.0985346420355998
-0.10860000000000009,-0.09876099584357821
-0.10960000000000009,-0.09901564387755392
-0.11060000000000009,-0.09925614479853098
-0.11160000000000009,-0.09949664571950805
-0.11260000000000009,-0.0997654408664824
-0.11360000000000009,-0.09997764756146214
-0.11460000000000009,-0.1002464427084365
-0.11560000000000009,-0.1005010907424122
-0.11660000000000009,-0.10071329743739196
-0.1176000000000001,-0.10096794547136766
-0.1186000000000001,-0.10115185794035012
-0.1196000000000001,-0.10130747618333527
-0.1206000000000001,-0.10149138865231773
-0.1216000000000001,-0.10171774246029613
-0.1226000000000001,-0.10191580204227724
-0.1236000000000001,-0.10209971451125968
-0.1246000000000001,-0.10225533275424485
-0.1256000000000001,-0.10239680388423136
-0.1266000000000001,-0.10253827501421786
-0.1276000000000001,-0.1027221874832003
-0.1286000000000001,-0.10284951150018817
-0.1296000000000001,-0.10296268840417737
-0.1306000000000001,-0.10311830664716252
-0.1316000000000001,-0.10324563066415038
-0.1326000000000001,-0.10338710179413689
-0.1336000000000001,-0.10351442581112473
-0.1346000000000001,-0.10362760271511394
-0.1356000000000001,-0.10372663250610449
-0.1366000000000001,-0.10382566229709504
-0.1376000000000001,-0.10389639786208829
-0.1386000000000001,-0.10396713342708154
-0.1396000000000001,-0.1040378689920748
-0.1406000000000001,-0.10413689878306535
-0.14160000000000011,-0.1042076343480586
-0.14260000000000012,-0.1042925170260505
-0.14360000000000012,-0.1043208112520478
-0.14460000000000012,-0.10437739970404242
-0.14560000000000012,-0.1044056939300397
-0.14660000000000012,-0.10446228238203431
-0.14760000000000012,-0.10450472372103026
-0.14860000000000012,-0.10451887083402892
-0.14960000000000012,-0.10451887083402892
-0.15060000000000012,-0.10451887083402892
-0.15160000000000012,-0.10454716506002622
-0.15260000000000012,-0.10458960639902216
-0.15360000000000013,-0.10458960639902216
-0.15460000000000013,-0.10457545928602352
-0.15560000000000013,-0.10458960639902216
-0.15660000000000013,-0.10458960639902216
-0.15760000000000013,-0.10460375351202081
-0.15860000000000013,-0.10456131217302486
-0.15960000000000002,-0.10453301794702756
-0.16060000000000002,-0.10450472372103026
-0.16160000000000002,-0.10447642949503295
-0.16260000000000002,-0.10449057660803161
-0.16360000000000002,-0.10441984104303836
-0.16460000000000002,-0.1043491054780451
-0.16560000000000002,-0.10433495836504646
-0.16660000000000003,-0.1043208112520478
-0.16760000000000003,-0.10427836991305185
-0.16860000000000003,-0.1042076343480586
-0.16960000000000003,-0.10413689878306535
-0.17060000000000003,-0.10402372187907614
-0.17160000000000003,-0.10396713342708154
-0.17260000000000003,-0.10389639786208829
-0.17360000000000003,-0.10379736807109774
-0.17460000000000003,-0.10371248539310583
-0.17560000000000003,-0.10361345560211528
-0.17660000000000003,-0.10352857292412339
-0.17760000000000004,-0.10345783735913014
-0.17860000000000004,-0.10334466045514094
-0.17960000000000004,-0.10325977777714902
-0.18060000000000004,-0.10314660087315983
-0.18160000000000004,-0.10306171819516792
-0.18260000000000004,-0.10299098263017467
-0.18360000000000004,-0.10284951150018817
-0.18460000000000004,-0.10276462882219627
-0.18560000000000004,-0.10265145191820706
-0.18660000000000004,-0.10255242212721652
-0.18760000000000004,-0.10242509811022867
-0.18860000000000005,-0.10228362698024217
-0.18960000000000005,-0.1021563029632543
-0.19060000000000005,-0.1020431260592651
-0.19160000000000005,-0.10194409626827454
-0.19260000000000005,-0.10183091936428534
-0.19360000000000005,-0.10168944823429883
-0.19460000000000005,-0.10157627133030964
-0.19560000000000005,-0.10142065308732448
-0.19660000000000005,-0.10129332907033663
-0.19760000000000005,-0.10119429927934608
-0.19860000000000005,-0.10101038681036362
-0.19960000000000006,-0.10086891568037712
-0.20060000000000006,-0.10075573877638791
-0.20160000000000006,-0.1006142676464014
-0.20260000000000006,-0.1004445022904176
-0.20360000000000006,-0.10031717827342976
-0.20460000000000006,-0.10014741291744596
-0.20560000000000006,-0.10000594178745945
-0.20660000000000006,-0.09985032354447429
-0.20760000000000006,-0.09973714664048508
-0.20860000000000006,-0.09959567551049858
-0.20960000000000006,-0.09944005726751343
-0.21060000000000006,-0.09928443902452828
-0.21160000000000007,-0.09917126212053906
-0.21260000000000007,-0.09901564387755392
-0.21360000000000007,-0.09886002563456876
-0.21460000000000007,-0.09871855450458226
-0.21560000000000007,-0.0985346420355998
-0.21660000000000007,-0.09840731801861195
-0.21760000000000007,-0.09829414111462276
-0.21860000000000007,-0.09813852287163759
-0.21960000000000007,-0.09796875751565379
-0.22060000000000007,-0.09779899215966999
-0.22160000000000007,-0.09768581525568078
-0.22260000000000008,-0.09755849123869292
-0.22360000000000008,-0.09738872588270912
-0.22460000000000008,-0.09724725475272263
-0.22560000000000008,-0.09707748939673881
-0.22660000000000008,-0.09695016537975096
-0.22760000000000008,-0.09682284136276312
-0.22860000000000008,-0.0966530760067793
-0.22960000000000008,-0.09649745776379416
-0.23060000000000008,-0.09634183952080899
-0.23160000000000008,-0.0962003683908225
-0.23260000000000008,-0.0960871914868333
-0.23360000000000009,-0.09590327901785084
-0.2346000000000001,-0.09577595500086299
-0.2356000000000001,-0.09566277809687378
-0.2366000000000001,-0.09552130696688728
-0.2376000000000001,-0.09536568872390214
-0.2386000000000001,-0.09522421759391562
-0.2396000000000001,-0.09506859935093047
-0.2406000000000001,-0.09492712822094396
-0.2416000000000001,-0.09481395131695476
-0.2426000000000001,-0.09467248018696825
-0.2436000000000001,-0.09453100905698175
-0.2446000000000001,-0.09433294947500065
-0.2456000000000001,-0.09423391968401008
-0.2466000000000001,-0.09410659566702224
-0.2476000000000001,-0.09396512453703573
-0.2486000000000001,-0.09383780052004788
-0.2496000000000001,-0.09371047650306003
-0.2506000000000001,-0.09355485826007487
-0.2516000000000001,-0.09344168135608567
-0.2526000000000001,-0.09331435733909782
-0.2536000000000001,-0.09315873909611266
-0.2546000000000001,-0.09301726796612615
-0.2556000000000001,-0.09290409106213696
-0.2566000000000001,-0.09279091415814776
-0.2576000000000001,-0.09266359014115991
-0.2586000000000001,-0.09253626612417204
-0.2596000000000001,-0.09239479499418554
-0.2606000000000001,-0.09225332386419903
-0.2616000000000001,-0.09215429407320849
-0.2626000000000001,-0.09205526428221794
-0.2636000000000001,-0.09189964603923279
-0.2646000000000001,-0.09177232202224493
-0.2656000000000001,-0.09164499800525706
-0.2666000000000001,-0.09154596821426653
-0.2676000000000001,-0.09143279131027732
-0.2686000000000001,-0.09129132018029082
-0.2696000000000001,-0.09117814327630162
-0.2706000000000001,-0.09103667214631511
-0.2716000000000001,-0.09093764235532456
-0.2726000000000001,-0.090838612564334
-0.2736000000000001,-0.09071128854734616
-0.2746000000000001,-0.0905839645303583
-0.2756000000000001,-0.09048493473936775
-0.2766000000000001,-0.0903576107223799
-0.2776000000000001,-0.09027272804438799
-0.2786000000000001,-0.09014540402740015
-0.2796000000000001,-0.09003222712341094
-0.2806000000000001,-0.08991905021942173
-0.28160000000000013,-0.08983416754142984
-0.28260000000000013,-0.08973513775043927
-0.28360000000000013,-0.08965025507244738
-0.2846,-0.08950878394246087
-0.2856,-0.08942390126446896
-0.2866,-0.08935316569947571
-0.2876,-0.08922584168248787
-0.2886,-0.0890985176655
-0.2896,-0.08898534076151081
-0.2906,-0.08887216385752161
-0.2916,-0.08880142829252836
-0.2926,-0.0887023985015378
-0.2936,-0.0885892215975486
-0.29460000000000003,-0.08849019180655805
-0.29560000000000003,-0.0883911620155675
-0.29660000000000003,-0.0883062793375756
-0.29760000000000003,-0.08824969088558099
-0.29860000000000003,-0.08815066109459044
-0.29960000000000003,-0.08807992552959719
-0.30060000000000003,-0.08800918996460394
-0.30160000000000003,-0.08793845439961068
-0.30260000000000004,-0.08786771883461743
-0.30360000000000004,-0.08775454193062822
-0.30460000000000004,-0.08765551213963767
-0.30560000000000004,-0.08761307080064172
-0.30660000000000004,-0.08754233523564847
-0.30760000000000004,-0.08751404100965117
-0.30860000000000004,-0.0874150112186606
-0.30960000000000004,-0.08730183431467141
-0.31060000000000004,-0.08720280452368086
-0.31160000000000004,-0.08714621607168627
-0.31260000000000004,-0.08707548050669302
-0.31360000000000005,-0.08696230360270381
-0.31460000000000005,-0.0868491266987146
-0.31560000000000005,-0.08680668535971865
-0.31660000000000005,-0.08675009690772406
-0.31760000000000005,-0.0866793613427308
-0.31860000000000005,-0.0865944786647389
-0.31960000000000005,-0.08652374309974564
-0.32060000000000005,-0.08645300753475238
-0.32160000000000005,-0.08641056619575643
-0.32260000000000005,-0.08632568351776454
-0.32360000000000005,-0.08621250661377533
-0.32460000000000006,-0.08612762393578344
-0.32560000000000006,-0.08608518259678749
-0.32660000000000006,-0.08604274125779153
-0.32760000000000006,-0.08594371146680099
-0.32860000000000006,-0.08585882878880907
-0.32960000000000006,-0.08578809322381582
-0.33060000000000006,-0.08570321054582393
-0.33160000000000006,-0.08566076920682797
-0.33260000000000006,-0.08561832786783201
-0.33360000000000006,-0.08553344518984012
-0.33460000000000006,-0.08546270962484687
-0.33560000000000006,-0.08539197405985362
-0.33660000000000007,-0.08537782694685496
-0.33760000000000007,-0.08530709138186171
-0.33860000000000007,-0.08529294426886307
-0.33960000000000007,-0.08522220870386982
-0.34060000000000007,-0.08512317891287925
-0.34160000000000007,-0.085052443347886
-0.34260000000000007,-0.08489682510490085
-0.34360000000000007,-0.08481194242690895
-0.3446000000000001,-0.0847412068619157
-0.3456000000000001,-0.08467047129692246
-0.3466000000000001,-0.08467047129692246
-0.34759999999999996,-0.08462802995792648
-0.3486000000000001,-0.08454314727993459
-0.34959999999999997,-0.0844582646019427
-0.3506000000000001,-0.08440167614994809
-0.35159999999999997,-0.08434508769795349
-0.3526000000000001,-0.0842884992459589
-0.35359999999999997,-0.08421776368096563
-0.3546000000000001,-0.08417532234196969
-0.35559999999999997,-0.08411873388997508
-0.3566000000000001,-0.08407629255097913
-0.3576,-0.08401970409898453
-0.3586000000000001,-0.08397726275998857
-0.3596,-0.08390652719499532
-0.3606000000000001,-0.08390652719499532
-0.3616,-0.08387823296899803
-0.3626000000000001,-0.08380749740400478
-0.3636,-0.08376505606500882
-0.3646000000000001,-0.08370846761301422
-0.3656,-0.08368017338701693
-0.3666000000000001,-0.08366602627401826
-0.3676,-0.08362358493502231
-0.3686000000000001,-0.08356699648302772
-0.3696,-0.08349626091803447
-0.3706000000000001,-0.08346796669203715
-0.3716,-0.08345381957903851
-0.3726000000000001,-0.08338308401404526
-0.3736,-0.08334064267504931
-0.3746000000000001,-0.08331234844905201
-0.3756,-0.08326990711005607
-0.3766000000000001,-0.08326990711005607
-0.3776,-0.08322746577106012
-0.3786000000000001,-0.08318502443206416
-0.3796,-0.08312843598006955
-0.3806000000000001,-0.08308599464107361
-0.3816,-0.08307184752807495
-0.3826000000000001,-0.0830011119630817
-0.3836,-0.0829728177370844
-0.3846000000000001,-0.08295867062408575
-0.3856,-0.08291622928508981
-0.3866000000000001,-0.0828879350590925
-0.3876,-0.08285964083309519
-0.3886000000000001,-0.0828030523811006
-0.3896,-0.08276061104210465
-0.3906000000000001,-0.08273231681610735
-0.3916,-0.08273231681610735
-0.3926000000000001,-0.08268987547711139
-0.3936,-0.08261913991211814
-0.3946000000000001,-0.08261913991211814
-0.3956,-0.08261913991211814
-0.3966000000000001,-0.0826049927991195
-0.3976,-0.08259084568612084
-0.3986000000000001,-0.08254840434712489
-0.3996,-0.08252011012112759
-0.4006000000000001,-0.08252011012112759
-0.4016,-0.08249181589513029
-0.4026000000000001,-0.08246352166913298
-0.4036,-0.08244937455613434
-0.4046000000000001,-0.0824352274431357
-0.4056,-0.08242108033013704
-0.40660000000000013,-0.08239278610413973
-0.4076,-0.08232205053914649
-0.40860000000000013,-0.08232205053914649
-0.4096,-0.08229375631314918
-0.41060000000000013,-0.08229375631314918
-0.4116,-0.08227960920015054
-0.41260000000000013,-0.08220887363515728
-0.4136,-0.08218057940915997
-0.41460000000000014,-0.08213813807016403
-0.4156,-0.08216643229616134
-0.41660000000000014,-0.08218057940915997
-0.4176,-0.08215228518316267
-0.41860000000000014,-0.08210984384416672
-0.41960000000000003,-0.08206740250517078
-0.42060000000000014,-0.08205325539217213
-0.42160000000000003,-0.08208154961816942
-0.42260000000000014,-0.08206740250517078
-0.42360000000000003,-0.08203910827917348
-0.42460000000000014,-0.08202496116617483
-0.42560000000000003,-0.08202496116617483
-0.42660000000000015,-0.08202496116617483
-0.42760000000000004,-0.08199666694017753
-0.42860000000000015,-0.08199666694017753
-0.42960000000000004,-0.08198251982717887
-0.43060000000000015,-0.08202496116617483
-0.43160000000000004,-0.08203910827917348
-0.43260000000000015,-0.08198251982717887
-0.43360000000000004,-0.08198251982717887
-0.43460000000000015,-0.08194007848818292
-0.43560000000000004,-0.08194007848818292
-0.43660000000000015,-0.08195422560118158
