Potential V vs RHE, Current mA cm-2
0.013299999999999867,0.6520404381077953
0.012299999999999978,0.6084673300719523
0.011299999999999866,0.5647527509061226
0.010299999999999976,0.5211796428702795
0.009299999999999864,0.43403342679859325
0.008299999999999974,0.3467457395969205
0.007299999999999862,0.3031726315610774
0.006299999999999972,0.2594580523952477
0.00529999999999986,0.12863969849672777
0.0042999999999999705,0.08502414912188871
0.0032999999999998586,-0.002205534916489592
0.0022999999999999687,-0.08943804837746762
0.0012999999999998568,-0.1330535977523067
0.00029999999999996696,-0.2202705493889862
-0.000700000000000145,-0.26384365742482935
-0.0017000000000000348,-0.30755823659065895
-0.0027000000000001467,-0.3511313446265021
-0.0037000000000000366,-0.3947044526623452
-0.0047000000000001485,-0.4384190318281749
-0.005700000000000038,-0.48199213986401795
-0.00670000000000015,-0.5692798270656908
-0.00770000000000004,-0.5692798270656908
-0.008700000000000152,-0.6564260431373771
-0.009700000000000042,-0.7001406223032067
-0.010700000000000154,-0.7437137303390498
-0.011700000000000044,-0.7872868383748929
-0.012700000000000156,-0.8308599464107361
-0.013700000000000045,-0.8745745255765657
-0.014700000000000157,-0.9181476336124089
-0.015700000000000047,-0.9617207416482519
-0.01670000000000016,-1.0054353208140816
-0.01770000000000005,-1.0490084288499246
-0.01870000000000016,-1.0925815368857679
-0.01970000000000005,-1.1362961160515976
-0.020700000000000163,-1.1362961160515976
-0.021700000000000053,-1.1798692240874404
-0.022700000000000164,-1.1798692240874404
-0.023700000000000054,-1.2234423321232837
-0.024700000000000166,-1.2234423321232837
-0.025700000000000056,-1.2671569112891135
-0.026700000000000168,-1.3107300193249565
-0.027700000000000058,-1.3543031273607997
-0.02870000000000017,-1.3980177065266295
-0.02970000000000006,-1.3980177065266295
-0.03070000000000017,-1.4415908145624723
-0.03170000000000006,-1.4854468648582886
-0.03270000000000017,-1.4854468648582886
-0.03370000000000006,-1.5293029151541047
-0.034700000000000175,-1.6156003044458718
-0.035700000000000065,-1.6594563547416883
-0.03670000000000018,-1.7033124050375041
-0.03770000000000007,-1.7471684553333202
-0.03870000000000018,-1.8334658446250875
-0.03970000000000007,-1.8773218949209036
-0.04070000000000018,-1.92117794521672
-0.04170000000000007,-1.92117794521672
-0.04270000000000018,-1.9650339955125358
-0.04370000000000007,-2.008890045808352
-0.044700000000000184,-2.052746096104168
-0.045700000000000074,-2.095187435100119
-0.046700000000000186,-2.1390434853959355
-0.047700000000000076,-2.1828995356917518
-0.04870000000000019,-2.226755585987568
-0.04970000000000008,-2.2706116362833835
-0.05070000000000019,-2.2706116362833835
-0.05170000000000008,-2.3144676865791998
-0.05270000000000019,-2.3144676865791998
-0.05370000000000008,-2.3569090255751513
-0.05470000000000019,-2.3569090255751513
-0.05570000000000008,-2.3569090255751513
-0.056700000000000195,-2.4007650758709675
-0.057700000000000085,-2.3569090255751513
-0.058700000000000196,-2.3569090255751513
-0.059700000000000086,-2.3569090255751513
-0.0607000000000002,-2.4007650758709675
-0.06170000000000009,-2.4446211261667834
-0.0627000000000002,-2.4884771764625997
-0.06370000000000009,-2.576189277054232
-0.0647000000000002,-2.662486666345999
-0.06570000000000009,-2.7501987669376318
-0.0667000000000002,-2.8379108675292635
-0.0677000000000001,-2.924208256821031
-0.0687000000000002,-3.0119203574126634
-0.0697000000000001,-3.055776407708479
-0.07070000000000021,-3.1420737970002466
-0.0717000000000001,-3.1859298472960624
-0.07270000000000021,-3.1859298472960624
-0.0737000000000001,-3.1859298472960624
-0.07470000000000021,-3.1859298472960624
-0.0757000000000001,-3.2297858975918787
-0.07670000000000021,-3.273641947887695
-0.0777000000000001,-3.273641947887695
-0.07870000000000021,-3.273641947887695
-0.0797000000000001,-3.317497998183511
-0.08070000000000022,-3.273641947887695
-0.0817000000000001,-3.273641947887695
-0.08270000000000022,-3.317497998183511
-0.08370000000000011,-3.317497998183511
-0.08470000000000022,-3.403795387475278
-0.08570000000000011,-3.447651437771094
-0.08670000000000022,-3.5353635383627267
-0.08770000000000011,-3.623075638954359
-0.08870000000000022,-3.7093730282461257
-0.08970000000000011,-3.7532290785419424
-0.09070000000000022,-3.840941179133574
-0.09170000000000011,-3.927238568425342
-0.09270000000000023,-4.014950669016974
-0.09370000000000012,-4.102662769608606
-0.09470000000000023,-4.1889601589003735
-0.09570000000000012,-4.23281620919619
-0.09670000000000023,-4.276672259492005
-0.09770000000000012,-4.3205283097878215
-0.09870000000000023,-4.3205283097878215
-0.09970000000000012,-4.364384360083638
-0.10070000000000023,-4.364384360083638
-0.10170000000000012,-4.406825699079589
-0.10270000000000024,-4.406825699079589
-0.10370000000000013,-4.406825699079589
-0.10470000000000024,-4.450681749375406
-0.10570000000000013,-4.450681749375406
-0.10670000000000024,-4.538393849967037
-0.10770000000000013,-4.582249900262854
-0.10870000000000024,-4.668547289554621
-0.10970000000000013,-4.756259390146253
-0.11070000000000024,-4.800115440442069
-0.11170000000000013,-4.887827541033701
-0.11270000000000002,-4.974124930325469
-0.11370000000000013,-5.0618370309171015
-0.11470000000000002,-5.149549131508733
-0.11570000000000014,-5.235846520800501
-0.11670000000000003,-5.411270721983764
-0.11770000000000014,-5.497568111275533
-0.11870000000000003,-5.585280211867165
-0.11970000000000014,-5.629136262162981
-0.12070000000000003,-5.629136262162981
-0.12170000000000014,-5.629136262162981
-0.12270000000000003,-5.672992312458796
-0.12370000000000014,-5.672992312458796
-0.12470000000000003,-5.672992312458796
-0.12570000000000014,-5.672992312458796
-0.12670000000000003,-5.672992312458796
-0.12770000000000015,-5.585280211867165
-0.12870000000000004,-5.5414241615713475
-0.12970000000000015,-5.411270721983764
-0.13070000000000004,-5.323558621392133
-0.13170000000000015,-5.235846520800501
-0.13270000000000004,-5.149549131508733
-0.13370000000000015,-5.149549131508733
-0.13470000000000004,-5.191990470504685
-0.13570000000000015,-5.279702571096316
-0.13670000000000004,-5.453712060979717
-0.13770000000000016,-5.629136262162981
-0.13870000000000005,-5.890857852638012
-0.13970000000000016,-6.152579443113044
-0.14070000000000005,-6.37044498329226
-0.14170000000000016,-6.632166573767292
-0.14270000000000005,-6.806176063650692
-0.14370000000000016,-6.93774421453814
-0.14470000000000005,-7.024041603829907
-0.14570000000000016,-7.111753704421539
-0.14670000000000005,-7.111753704421539
-0.14770000000000016,-7.111753704421539
-0.14870000000000005,-7.067897654125724
-0.14970000000000017,-7.024041603829907
-0.15070000000000006,-6.981600264833956
-0.15170000000000017,-6.893888164242324
-0.15270000000000006,-6.850032113946507
-0.15370000000000017,-6.762320013354876
-0.15470000000000006,-6.762320013354876
-0.15570000000000017,-6.762320013354876
-0.15670000000000006,-6.806176063650692
-0.15770000000000017,-6.893888164242324
-0.15870000000000006,-7.024041603829907
-0.15970000000000018,-7.155609754717355
-0.16070000000000007,-7.329619244600755
-0.16170000000000018,-7.461187395488204
-0.16270000000000007,-7.5474847847799715
-0.16370000000000018,-7.679052935667419
-0.16470000000000007,-7.7653503249591855
-0.16570000000000018,-7.853062425550818
-0.16670000000000007,-7.896918475846635
-0.16770000000000018,-7.940774526142452
-0.16870000000000007,-7.940774526142452
-0.16970000000000018,-7.940774526142452
-0.17070000000000007,-7.940774526142452
-0.17170000000000019,-7.896918475846635
-0.17270000000000008,-7.896918475846635
-0.1737000000000002,-7.853062425550818
-0.17470000000000008,-7.853062425550818
-0.1757000000000002,-7.940774526142452
-0.17670000000000008,-7.984630576438266
-0.1777000000000002,-8.070927965730034
-0.17870000000000008,-8.158640066321666
-0.1797000000000002,-8.246352166913299
-0.18070000000000008,-8.332649556205066
-0.1817000000000002,-8.376505606500881
-0.18270000000000008,-8.464217707092514
-0.1837000000000002,-8.594371146680096
-0.1847000000000001,-8.68208324727173
-0.1857000000000002,-8.725939297567548
-0.1867000000000001,-8.769795347863363
-0.1877000000000002,-8.812236686859313
-0.1887000000000001,-8.812236686859313
-0.1897000000000002,-8.769795347863363
-0.1907000000000001,-8.725939297567548
-0.1917000000000001,-8.68208324727173
-0.19269999999999998,-8.68208324727173
-0.1937000000000001,-8.594371146680096
-0.19469999999999998,-8.594371146680096
-0.1957000000000001,-8.638227196975913
-0.19669999999999999,-8.68208324727173
-0.1977000000000001,-8.812236686859313
-0.1987,-8.943804837746763
-0.1997000000000001,-9.073958277334345
-0.2007,-9.205526428221793
-0.2017000000000001,-9.379535918105192
-0.2027,-9.467248018696827
-0.2037000000000001,-9.641257508580225
-0.2047,-9.772825659467674
-0.2057000000000001,-9.902979099055257
-0.2067,-9.99069119964689
-0.2077000000000001,-10.034547249942705
-0.2087,-10.078403300238522
-0.2097000000000001,-10.078403300238522
-0.2107,-10.078403300238522
-0.2117000000000001,-10.078403300238522
-0.2127,-10.120844639234473
-0.2137000000000001,-10.078403300238522
-0.2147,-10.034547249942705
-0.2157000000000001,-9.99069119964689
-0.2167,-9.902979099055257
-0.21770000000000012,-9.81668170976349
-0.2187,-9.772825659467674
-0.21970000000000012,-9.728969609171857
-0.2207,-9.772825659467674
-0.22170000000000012,-9.772825659467674
-0.2227,-9.81668170976349
-0.22370000000000012,-9.85912304875944
-0.2247,-9.902979099055257
-0.22570000000000012,-10.078403300238522
-0.2267,-10.25241279012192
-0.22770000000000012,-10.470278330301136
-0.22870000000000001,-10.688143870480351
-0.22970000000000013,-10.863568071663616
-0.23070000000000002,-10.949865460955383
-0.23170000000000013,-11.081433611842833
-0.23270000000000002,-11.1677310011346
-0.23370000000000013,-11.255443101726232
-0.23470000000000002,-11.343155202317865
-0.23570000000000013,-11.385596541313816
-0.23670000000000002,-11.473308641905447
-0.2376999999999999,-11.517164692201263
-0.23870000000000002,-11.517164692201263
-0.2396999999999999,-11.473308641905447
-0.24070000000000003,-11.42945259160963
-0.24169999999999991,-11.42945259160963
-0.24270000000000003,-11.385596541313816
-0.24369999999999992,-11.343155202317865
-0.24470000000000003,-11.343155202317865
-0.24569999999999992,-11.343155202317865
-0.24670000000000003,-11.385596541313816
-0.24769999999999992,-11.473308641905447
-0.24870000000000003,-11.56102074249708
-0.24969999999999992,-11.647318131788847
-0.25070000000000003,-11.691174182084664
-0.2516999999999999,-11.778886282676295
-0.25270000000000004,-11.82274233297211
-0.2536999999999999,-11.909039722263879
-0.25470000000000004,-11.952895772559694
-0.2556999999999999,-12.084463923447142
-0.25670000000000004,-12.170761312738911
-0.25769999999999993,-12.258473413330542
-0.25870000000000004,-12.346185513922174
-0.25969999999999993,-12.432482903213943
-0.26070000000000004,-12.476338953509758
-0.26169999999999993,-12.520195003805576
-0.26270000000000004,-12.56405105410139
-0.26369999999999993,-12.651763154693022
-0.26470000000000005,-12.694204493688973
-0.26569999999999994,-12.781916594280606
-0.26670000000000005,-12.781916594280606
-0.26769999999999994,-12.73806054398479
-0.26870000000000005,-12.651763154693022
-0.26969999999999994,-12.520195003805576
-0.27070000000000005,-12.390041564217992
-0.27169999999999994,-12.258473413330542
-0.27270000000000005,-12.084463923447142
-0.27369999999999994,-11.952895772559694
-0.27470000000000006,-11.778886282676295
-0.27569999999999995,-11.691174182084664
-0.27670000000000006,-11.647318131788847
-0.27769999999999995,-11.647318131788847
-0.27870000000000006,-11.73503023238048
-0.27969999999999995,-11.86659838326793
-0.28070000000000006,-12.040607873151327
-0.28169999999999995,-12.302329463626359
-0.28270000000000006,-12.56405105410139
-0.28369999999999995,-12.825772644576423
-0.28470000000000006,-13.087494235051453
-0.28569999999999995,-13.349215825526485
-0.28670000000000007,-13.610937416001518
-0.28769999999999996,-13.828802956180734
-0.28870000000000007,-14.002812446064135
-0.28969999999999996,-14.13438059695158
-0.29070000000000007,-14.217848563643619
-0.29169999999999996,-14.26028990263957
-0.29270000000000007,-14.217848563643619
-0.29369999999999996,-14.13438059695158
-0.2947000000000001,-14.046668496359947
-0.29569999999999996,-13.916515056772363
-0.2967000000000001,-13.828802956180734
-0.29769999999999996,-13.654793466297335
-0.2987000000000001,-13.47936926511407
-0.29969999999999997,-13.349215825526485
-0.3007000000000001,-13.175206335643086
-0.30169999999999997,-12.99978213445982
-0.3027000000000001,-12.869628694872238
-0.30369999999999997,-12.781916594280606
-0.3047000000000001,-12.781916594280606
-0.30569999999999997,-12.869628694872238
-0.3067000000000001,-12.99978213445982
-0.3077,-13.217647674639037
-0.3087000000000001,-13.47936926511407
-0.3097,-13.698649516593148
-0.3107000000000001,-13.872659006476551
-0.3117,-14.002812446064135
-0.3127000000000001,-14.175407224647667
-0.3137,-14.30273124163552
-0.3147000000000001,-14.486643710617974
-0.3157,-14.61396772760583
-0.3167000000000001,-14.65640906660178
-0.3177,-14.57152638860988
-0.3187000000000001,-14.486643710617974
-0.3197,-14.30273124163552
-0.3207000000000001,-14.13438059695158
-0.3217,-14.002812446064135
-0.3227000000000001,-13.916515056772363
-0.3237,-13.784946905884919
-0.3247000000000001,-13.698649516593148
-0.3257,-13.654793466297335
-0.3267000000000001,-13.567081365705702
-0.3277,-13.567081365705702
-0.3287000000000001,-13.610937416001518
-0.3297,-13.741090855589102
-0.3307000000000001,-13.916515056772363
-0.3317,-14.175407224647667
-0.3327000000000001,-14.65640906660178
-0.3337,-15.179852247551842
-0.3347000000000001,-15.448647394526201
-0.3357,-15.491088733522153
-0.3367000000000001,-15.349617603535648
-0.3377,-15.264734925543747
-0.3387000000000001,-15.349617603535648
-0.3397,-15.264734925543747
-0.3407000000000001,-15.05252823056399
-0.3417,-14.967645552572087
-0.3427000000000001,-14.868615761581536
-0.3437,-14.783733083589633
-0.3447000000000001,-14.69885040559773
-0.3457,-14.65640906660178
-0.3467000000000001,-14.826174422585586
-0.3477,-15.094969569559943
-0.3487000000000001,-15.264734925543747
-0.3497,-15.3920589425316
-0.3507000000000001,-15.448647394526201
-0.3517,-15.448647394526201
-0.3527000000000001,-15.3920589425316
-0.3537,-15.264734925543747
-0.3547000000000001,-15.179852247551842
-0.3557,-15.05252823056399
-0.35670000000000013,-14.925204213576137
-0.3577,-14.69885040559773
-0.35870000000000013,-14.529085049613924
-0.3597,-14.26028990263957
-0.36070000000000013,-14.002812446064135
-0.3617,-13.784946905884919
-0.3626999999999999,-13.654793466297335
-0.3637,-13.610937416001518
-0.3646999999999999,-13.654793466297335
-0.3657,-13.784946905884919
-0.3666999999999999,-14.002812446064135
-0.3677,-14.175407224647667
-0.3686999999999999,-14.345172580631472
-0.36970000000000003,-14.61396772760583
-0.3706999999999999,-14.826174422585586
-0.37170000000000003,-15.137410908555893
-0.3726999999999999,-15.448647394526201
-0.37370000000000003,-15.70329542850191
-0.3746999999999999,-15.91550212348166
-0.37570000000000003,-16.056973253468165
-0.3766999999999999,-16.099414592464115
-0.37770000000000004,-16.099414592464115
-0.3786999999999999,-16.099414592464115
-0.37970000000000004,-16.184297270456018
-0.3806999999999999,-16.22673860945197
-0.38170000000000004,-16.311621287443874
-0.38269999999999993,-16.269179948447924
-0.38370000000000004,-16.22673860945197
-0.38469999999999993,-16.099414592464115
-0.38570000000000004,-15.830619445489761
-0.38669999999999993,-15.660854089505953
-0.38770000000000004,-15.533530072518102
-0.38869999999999993,-15.491088733522153
-0.38970000000000005,-15.448647394526201
-0.39069999999999994,-15.448647394526201
-0.39170000000000005,-15.491088733522153
-0.39269999999999994,-15.448647394526201
-0.39370000000000005,-15.3920589425316
-0.39469999999999994,-15.3920589425316
-0.39570000000000005,-15.3920589425316
-0.39669999999999994,-15.448647394526201
-0.39770000000000005,-15.491088733522153
-0.39869999999999994,-15.448647394526201
-0.39970000000000006,-15.3920589425316
-0.40069999999999995,-15.222293586547794
-0.40170000000000006,-15.094969569559943
-0.40269999999999995,-14.868615761581536
-0.40370000000000006,-14.741291744593681
-0.40469999999999995,-14.61396772760583
-0.40570000000000006,-14.486643710617974
-0.40669999999999995,-14.30273124163552
-0.40770000000000006,-14.090524546655764
-0.40869999999999995,-13.828802956180734
-0.40970000000000006,-13.567081365705702
-0.41069999999999995,-13.3930718758223
-0.41170000000000007,-13.217647674639037
-0.41269999999999996,-13.217647674639037
-0.41370000000000007,-13.30535977523067
-0.41469999999999996,-13.523225315409885
-0.41570000000000007,-13.828802956180734
-0.41669999999999996,-14.175407224647667
-0.41770000000000007,-14.61396772760583
-0.41869999999999996,-15.05252823056399
-0.4197000000000001,-15.491088733522153
-0.42069999999999996,-15.74573676749786
-0.4217000000000001,-16.056973253468165
-0.42269999999999996,-16.311621287443874
-0.4237000000000001,-16.53797509542228
-0.42469999999999997,-16.70774045140608
-0.4257000000000001,-16.792623129397985
-0.42669999999999997,-16.792623129397985
-0.4277000000000001,-16.70774045140608
-0.42869999999999997,-16.495533756426326
-0.4297000000000001,-16.22673860945197
-0.43069999999999997,-15.830619445489761
-0.4317000000000001,-15.491088733522153
-0.4327,-15.137410908555893
-0.4337000000000001,-14.826174422585586
-0.4347,-14.57152638860988
-0.4357000000000001,-14.30273124163552
-0.4367,-14.090524546655764
-0.4377000000000001,-13.916515056772363
-0.4387,-13.784946905884919
-0.4397000000000001,-13.784946905884919
-0.4407,-13.916515056772363
-0.4417000000000001,-14.13438059695158
-0.4427,-14.444202371622024
-0.4437000000000001,-14.826174422585586
-0.4447,-15.264734925543747
-0.4457000000000001,-15.74573676749786
-0.4467,-16.22673860945197
-0.4477000000000001,-16.622857773414182
-0.4487,-16.919947146385837
-0.4497000000000001,-17.103859615368293
-0.4507,-17.146300954364243
-0.4517000000000001,-17.103859615368293
-0.4527,-16.962388485381787
-0.4537000000000001,-16.750181790402035
-0.4547,-16.438945304431726
-0.4557000000000001,-16.056973253468165
-0.4567,-15.660854089505953
-0.4577000000000001,-15.137410908555893
-0.4587,-14.61396772760583
-0.4597000000000001,-14.090524546655764
-0.4607,-13.610937416001518
-0.4617000000000001,-13.217647674639037
-0.4627,-12.955926084164007
-0.4637000000000001,-12.825772644576423
-0.4647,-12.869628694872238
-0.4657000000000001,-13.175206335643086
-0.4667,-13.698649516593148
-0.4677000000000001,-14.345172580631472
-0.4687,-15.179852247551842
-0.4697000000000001,-15.87306078448571
-0.4707,-16.396503965435777
-0.4717000000000001,-16.70774045140608
-0.4727,-16.792623129397985
-0.4737000000000001,-16.70774045140608
-0.4747,-16.580416434418233
-0.4757000000000001,-16.396503965435777
-0.4767,-16.141855931460068
-0.4777000000000001,-15.830619445489761
-0.4787,-15.491088733522153
-0.4797000000000001,-15.137410908555893
-0.4807,-14.741291744593681
-0.48170000000000013,-14.486643710617974
-0.4827,-14.401761032626075
-0.48370000000000013,-14.401761032626075
-0.4847,-14.529085049613924
-0.48570000000000013,-14.69885040559773
-0.4867,-14.925204213576137
-0.4876999999999999,-15.137410908555893
-0.4887,-15.448647394526201
-0.4896999999999999,-15.830619445489761
-0.4907,-16.311621287443874
-0.4916999999999999,-16.877505807389888
-0.4927,-17.40094898833995
-0.4936999999999999,-17.839509491298113
-0.49470000000000003,-18.10830463827247
-0.4956999999999999,-18.27806999425627
-0.49670000000000003,-18.23562865526032
-0.4976999999999999,-18.10830463827247
-0.49870000000000003,-18.06586329927652
-0.4996999999999999,-18.10830463827247
-0.5007,-18.06586329927652
-0.5016999999999999,-18.06586329927652
-0.5027,-18.06586329927652
-0.5036999999999999,-18.009274847281915
-0.5047,-17.924392169290012
-0.5056999999999999,-17.881950830294063
