Potential V vs RHE, Current mA cm-2
0.013299999999999867,2.658242532446404
0.012299999999999978,1.4373466806628774
0.011299999999999866,0.3903188476327636
0.010299999999999976,-0.5255652478998613
0.009299999999999864,-1.3980177065266295
0.008299999999999974,-2.095187435100119
0.007299999999999862,-2.706342716641815
0.006299999999999972,-3.317497998183511
0.00529999999999986,-3.884797229429391
0.0042999999999999705,-4.450681749375406
0.0032999999999998586,-4.9302688800296535
0.0022999999999999687,-5.367414671687949
0.0012999999999998568,-5.759289701750564
0.00029999999999996696,-6.238876832404812
-0.000700000000000145,-6.6760226240631075
-0.0017000000000000348,-7.024041603829907
-0.0027000000000001467,-7.329619244600755
-0.0037000000000000366,-7.679052935667419
-0.0047000000000001485,-8.070927965730034
-0.005700000000000038,-8.464217707092514
-0.00670000000000015,-8.769795347863363
-0.00770000000000004,-9.031516938338395
-0.008700000000000152,-9.335679867809377
-0.009700000000000042,-9.685113558876042
-0.010700000000000154,-9.99069119964689
-0.011700000000000044,-10.296268840417738
-0.012700000000000156,-10.514134380596953
-0.013700000000000045,-10.775855971071984
-0.014700000000000157,-11.123874950838783
-0.015700000000000047,-11.42945259160963
-0.01670000000000016,-11.691174182084664
-0.01770000000000005,-11.909039722263879
-0.01870000000000016,-12.170761312738911
-0.01970000000000005,-12.476338953509758
-0.020700000000000163,-12.781916594280606
-0.021700000000000053,-13.043638184755638
-0.022700000000000164,-13.261503724934855
-0.023700000000000054,-13.523225315409885
-0.024700000000000166,-13.828802956180734
-0.025700000000000056,-14.13438059695158
-0.026700000000000168,-14.345172580631472
-0.027700000000000058,-14.61396772760583
-0.02870000000000017,-14.868615761581536
-0.02970000000000006,-15.179852247551842
-0.03070000000000017,-15.491088733522153
-0.03170000000000006,-15.74573676749786
-0.03270000000000017,-15.972090575476265
-0.03370000000000006,-16.269179948447924
-0.034700000000000175,-16.580416434418233
-0.035700000000000065,-16.919947146385837
-0.03670000000000018,-17.188742293360193
-0.03770000000000007,-17.40094898833995
-0.03870000000000018,-17.71218547431026
-0.03970000000000007,-18.009274847281915
-0.04070000000000018,-18.362952672248177
-0.04170000000000007,-18.589306480226583
-0.04270000000000018,-18.80151317520634
-0.04370000000000007,-19.01371987018609
-0.044700000000000184,-19.367397695152352
-0.045700000000000074,-19.678634181122664
-0.046700000000000186,-20.01816489309027
-0.047700000000000076,-20.244518701068674
-0.04870000000000019,-20.499166735044383
-0.04970000000000008,-20.85284456001064
-0.05070000000000019,-21.2065223849769
-0.05170000000000008,-21.461170418952605
-0.05270000000000019,-21.729965565926964
-0.05370000000000008,-22.027054938898623
-0.05470000000000019,-22.38073276386488
-0.05570000000000008,-22.72026347583249
-0.056700000000000195,-23.031499961802798
-0.057700000000000085,-23.300295108777156
-0.058700000000000196,-23.597384481748815
-0.059700000000000086,-23.993503645711023
-0.0607000000000002,-24.34718147067728
-0.06170000000000009,-24.64427084364894
-0.0627000000000002,-24.95550732961925
-0.06370000000000009,-25.252596702590903
-0.0647000000000002,-25.60627452755716
-0.06570000000000009,-25.959952352523427
-0.0667000000000002,-26.257041725495082
-0.0677000000000001,-26.568278211465387
-0.0687000000000002,-26.907808923433
-0.0697000000000001,-27.303928087395207
-0.07070000000000021,-27.700047251357418
-0.0717000000000001,-28.09616641531963
-0.07270000000000021,-28.393255788291288
-0.0737000000000001,-28.704492274261593
-0.07470000000000021,-29.100611438223805
-0.0757000000000001,-29.482583489187363
-0.07670000000000021,-29.793819975157668
-0.0777000000000001,-30.10505646112798
-0.07870000000000021,-30.402145834099635
-0.0797000000000001,-30.79826499806185
-0.08070000000000022,-31.19438416202406
-0.0817000000000001,-31.49147353499572
-0.08270000000000022,-31.76026868197007
-0.08370000000000011,-32.09979939393769
-0.08470000000000022,-32.49591855789989
-0.08570000000000011,-32.892037721862096
-0.08670000000000022,-33.231568433829715
-0.08770000000000011,-33.54280491980002
-0.08870000000000022,-33.93892408376223
-0.08970000000000011,-34.33504324772444
-0.09070000000000022,-34.717015298688004
-0.09170000000000011,-35.02825178465831
-0.09270000000000023,-35.32534115762997
-0.09370000000000012,-35.636577643600276
-0.09470000000000023,-36.03269680756248
-0.09570000000000012,-36.37222751953009
-0.09670000000000023,-36.725905344496354
-0.09770000000000012,-37.07958316946261
-0.09870000000000023,-37.41911388143023
-0.09970000000000012,-37.81523304539243
-0.10070000000000023,-38.211352209354644
-0.10170000000000012,-38.5650300343209
-0.10270000000000024,-38.90456074628851
-0.10370000000000013,-39.258238571254765
-0.10470000000000024,-39.61191639622103
-0.10570000000000013,-40.03632978618054
-0.10670000000000024,-40.34756627215084
-0.10770000000000013,-40.701244097117105
-0.10870000000000024,-40.99833347008877
-0.10970000000000013,-41.39445263405098
-0.11070000000000024,-41.79057179801318
-0.11170000000000013,-42.130102509980794
-0.11270000000000002,-42.4413389959511
-0.11370000000000013,-42.79501682091736
-0.11470000000000002,-43.134547532884966
-0.11570000000000014,-43.48822535785123
-0.11670000000000003,-43.84190318281749
-0.11770000000000014,-44.096551216793195
-0.11870000000000003,-44.4077877027635
-0.11970000000000014,-44.80390686672572
-0.12070000000000003,-45.27076159568118
-0.12170000000000014,-45.70932209863933
-0.12270000000000003,-46.062999923605595
-0.12370000000000014,-46.45911908756781
-0.12470000000000003,-46.88353247752732
-0.12570000000000014,-47.23721030249357
-0.12670000000000003,-47.633329466455784
-0.12770000000000015,-47.93041883942744
-0.12870000000000004,-48.24165532539775
-0.12970000000000015,-48.68021582835591
-0.13070000000000004,-49.03389365332217
-0.13170000000000015,-49.373424365289786
-0.13270000000000004,-49.68466085126009
-0.13370000000000015,-49.98175022423175
-0.13470000000000004,-50.37786938819396
-0.13570000000000015,-50.73154721316022
-0.13670000000000004,-51.028636586131874
-0.13770000000000016,-51.33987307210218
-0.13870000000000005,-51.69355089706845
-0.13970000000000016,-52.075522948032
-0.14070000000000005,-52.55652478998611
-0.14170000000000016,-52.95264395394832
-0.14270000000000005,-53.30632177891458
-0.14370000000000016,-53.64585249088219
-0.14470000000000005,-54.08441299384035
-0.14570000000000016,-54.52297349679851
-0.14670000000000005,-54.834209982768826
-0.14770000000000016,-55.17374069473642
-0.14870000000000005,-55.527418519702685
-0.14970000000000017,-55.9235376836649
-0.15070000000000006,-56.30550973462846
-0.15170000000000017,-56.61674622059877
-0.15270000000000006,-56.927982706569075
-0.15370000000000017,-57.30995475753264
-0.15470000000000006,-57.66363258249889
-0.15570000000000017,-58.10219308545706
-0.15670000000000006,-58.45587091042332
-0.15770000000000017,-58.75296028339497
-0.15870000000000006,-59.10663810836124
-0.15970000000000018,-59.502757272323436
-0.16070000000000007,-59.7998466452951
-0.16170000000000018,-60.15352447026136
-0.16270000000000007,-60.40817250423707
-0.16370000000000018,-60.80429166819927
-0.16470000000000007,-61.20041083216149
-0.16570000000000018,-61.49750020513315
-0.16670000000000007,-61.851178030099405
-0.16770000000000018,-62.16241451606972
-0.16870000000000007,-62.501945228037314
-0.16970000000000018,-62.94050573099548
-0.17070000000000007,-63.37906623395363
-0.17170000000000019,-63.77518539791585
-0.17270000000000008,-64.0722747708875
-0.1737000000000002,-64.42595259585376
-0.17470000000000008,-64.86451309881193
-0.1757000000000002,-65.2464851497755
-0.17670000000000008,-65.60016297474175
-0.1777000000000002,-65.95384079970802
-0.17870000000000008,-66.20848883368372
-0.1797000000000002,-66.60460799764593
-0.18070000000000008,-66.91584448361623
-0.1817000000000002,-67.21293385658788
-0.18270000000000008,-67.56661168155415
-0.1837000000000002,-67.82125971552985
-0.1847000000000001,-68.17493754049613
-0.1857000000000002,-68.61349804345427
-0.1867000000000001,-68.91058741642594
-0.1877000000000002,-69.1793825634003
-0.1887000000000001,-69.4906190493706
-0.1897000000000002,-69.91503243933012
-0.1907000000000001,-70.35359294228827
-0.1917000000000001,-70.70727076725453
-0.19269999999999998,-70.96191880123024
-0.1937000000000001,-71.35803796519245
-0.19469999999999998,-71.7117157901587
-0.1957000000000001,-72.15027629311687
-0.19669999999999999,-72.48980700508447
-0.1977000000000001,-72.80104349105478
-0.1987,-73.09813286402644
-0.1997000000000001,-73.40936934999675
-0.2007,-73.76304717496302
-0.2017000000000001,-74.06013654793468
-0.2027,-74.32893169490903
-0.2037000000000001,-74.62602106788069
-0.2047,-74.97969889284694
-0.2057000000000001,-75.37581805680915
-0.2067,-75.6729074297808
-0.2077000000000001,-75.85681989876326
-0.2087,-76.11146793273898
-0.2097000000000001,-76.42270441870929
-0.2107,-76.67735245268499
-0.2117000000000001,-76.94614759965934
-0.2127,-77.20079563363505
-0.2137000000000001,-77.46959078060941
-0.2147,-77.86570994457162
-0.2157000000000001,-78.29012333453113
-0.2167,-78.60135982050144
-0.21770000000000012,-78.8135665154812
-0.2187,-78.99747898446365
-0.21970000000000012,-79.2945683574353
-0.2207,-79.56336350440966
-0.22170000000000012,-79.7755701993894
-0.2227,-79.90289421637728
-0.22370000000000012,-80.04436534636378
-0.2247,-80.25657204134353
-0.22570000000000012,-80.42633739732734
-0.2267,-80.61024986630979
-0.22770000000000012,-80.73757388329766
-0.22870000000000001,-80.82245656128954
-0.22970000000000013,-81.04881036926795
-0.23070000000000002,-81.30345840324367
-0.23170000000000013,-81.30345840324367
-0.23270000000000002,-81.43078242023151
-0.23370000000000013,-81.61469488921396
-0.23470000000000002,-81.74201890620182
-0.23570000000000013,-81.99666694017753
-0.23670000000000002,-82.13813807016405
-0.2376999999999999,-82.22302074815593
-0.23870000000000002,-82.30790342614785
-0.2396999999999999,-82.39278610413973
-0.24070000000000003,-82.56255146012353
-0.24169999999999991,-82.56255146012353
-0.24270000000000003,-82.56255146012353
-0.24369999999999992,-82.61913991211814
-0.24470000000000003,-82.61913991211814
-0.24569999999999992,-82.61913991211814
-0.24670000000000003,-82.61913991211814
-0.24769999999999992,-82.39278610413973
-0.24870000000000003,-82.35034476514379
-0.24969999999999992,-82.35034476514379
-0.25070000000000003,-82.30790342614785
-0.2516999999999999,-82.26546208715187
-0.25270000000000004,-82.22302074815593
-0.2536999999999999,-82.13813807016405
-0.25470000000000004,-82.13813807016405
-0.2556999999999999,-82.09569673116808
-0.25670000000000004,-81.99666694017753
-0.25769999999999993,-81.82690158419373
-0.25870000000000004,-81.74201890620182
-0.25969999999999993,-81.74201890620182
-0.26070000000000004,-81.57225355021802
-0.26169999999999993,-81.38834108123557
-0.26270000000000004,-81.13369304725985
-0.26369999999999993,-80.90733923928146
-0.26470000000000005,-80.73757388329766
-0.26569999999999994,-80.65269120530574
-0.26670000000000005,-80.42633739732734
-0.26769999999999994,-80.17168936335163
-0.26870000000000005,-79.7755701993894
-0.26969999999999994,-79.60580484340561
-0.27070000000000005,-79.37945103542721
-0.27169999999999994,-79.0399203234596
-0.27270000000000005,-78.68624249849334
-0.27369999999999994,-78.33256467352709
-0.27470000000000006,-78.07791663955136
-0.27569999999999995,-77.76668015358106
-0.27670000000000006,-77.42714944161345
-0.27769999999999995,-77.0734716166472
-0.27870000000000006,-76.67735245268499
-0.27969999999999995,-76.33782174071737
-0.28070000000000006,-76.02658525474708
-0.28169999999999995,-75.5880247517889
-0.28270000000000006,-75.14946424883075
-0.28369999999999995,-74.80993353686314
-0.28470000000000006,-74.32893169490903
-0.28569999999999995,-74.0176952089387
-0.28670000000000007,-73.57913470598055
-0.28769999999999996,-73.09813286402644
-0.28870000000000007,-72.71616081306288
-0.28969999999999996,-72.27760031010472
-0.29070000000000007,-71.8814811461425
-0.29169999999999996,-71.35803796519245
-0.29270000000000007,-70.74971210625048
-0.29369999999999996,-70.31115160329232
-0.2947000000000001,-69.91503243933012
-0.29569999999999996,-69.53306038836655
-0.2967000000000001,-69.0944998854084
-0.29769999999999996,-68.57105670445833
-0.2987000000000001,-68.0900548625042
-0.29969999999999997,-67.693935698542
-0.3007000000000001,-67.21293385658788
-0.30169999999999997,-66.73193201463377
-0.3027000000000001,-66.20848883368372
-0.30369999999999997,-65.76992833072556
-0.3047000000000001,-65.38795627976201
-0.30569999999999997,-64.90695443780788
-0.3067000000000001,-64.42595259585376
-0.3077,-63.944950753899654
-0.3087000000000001,-63.46394891194555
-0.3097,-63.06782974798333
-0.3107000000000001,-62.64341635802381
-0.3117,-62.16241451606972
-0.3127000000000001,-61.7662953521075
-0.3137,-61.28529351015339
-0.3147000000000001,-60.889174346191176
-0.3157,-60.54964363422357
-0.3167000000000001,-60.19596580925731
-0.3177,-59.757405306299155
-0.3187000000000001,-59.403727481332886
-0.3197,-59.14907944735718
-0.3207000000000001,-58.97931409137338
-0.3217,-58.62563626640712
-0.3227000000000001,-58.35684111943277
-0.3237,-58.10219308545706
-0.3247000000000001,-57.93242772947325
-0.3257,-57.70607392149485
-0.3267000000000001,-57.45142588751914
-0.3277,-57.22507207954074
-0.3287000000000001,-57.097748062552874
-0.3297,-57.012865384560975
-0.3307000000000001,-56.927982706569075
-0.3317,-56.786511576582576
-0.3327000000000001,-56.57430488160282
-0.3337,-56.489422203610914
-0.3347000000000001,-56.489422203610914
-0.3357,-56.489422203610914
-0.3367000000000001,-56.489422203610914
-0.3377,-56.36209818662306
-0.3387000000000001,-56.22062705663656
-0.3397,-56.26306839563251
-0.3407000000000001,-56.30550973462846
-0.3417,-56.26306839563251
-0.3427000000000001,-56.22062705663656
-0.3437,-56.1781857176406
-0.3447000000000001,-56.26306839563251
-0.3457,-56.36209818662306
-0.3467000000000001,-56.489422203610914
-0.3477,-56.53186354260687
-0.3487000000000001,-56.61674622059877
-0.3497,-56.786511576582576
-0.3507000000000001,-56.97042404556503
-0.3517,-57.012865384560975
-0.3527000000000001,-57.05530672355693
-0.3537,-57.182630740544774
-0.3547000000000001,-57.352396096528594
-0.3557,-57.53630856551105
-0.35670000000000013,-57.62119124350295
-0.3577,-57.70607392149485
-0.35870000000000013,-57.87583927747865
-0.3597,-58.10219308545706
-0.36070000000000013,-58.35684111943277
-0.3617,-58.54075358841522
-0.3626999999999999,-58.66807760540307
-0.3637,-58.880284300382826
-0.3646999999999999,-59.10663810836124
-0.3657,-59.36128614233694
-0.3666999999999999,-59.54519861131939
-0.3677,-59.757405306299155
-0.3686999999999999,-59.9696120012789
-0.36970000000000003,-60.28084848724921
-0.3706999999999999,-60.49305518222897
-0.37170000000000003,-60.761850329203334
-0.3726999999999999,-61.01649836317903
-0.37370000000000003,-61.20041083216149
-0.3746999999999999,-61.455058866137186
-0.37570000000000003,-61.6814126741156
-0.3766999999999999,-61.97850204708726
-0.37770000000000004,-62.16241451606972
-0.3786999999999999,-62.33217987205352
-0.37970000000000004,-62.64341635802381
-0.3806999999999999,-62.89806439199953
-0.38170000000000004,-63.15271242597524
-0.38269999999999993,-63.37906623395363
-0.38370000000000004,-63.633714267929356
-0.38469999999999993,-63.98739209289561
-0.38570000000000004,-64.25618723986996
-0.38669999999999993,-63.3366248949577
-0.38570000000000004,-60.63452631221547
-0.38469999999999993,-58.22951710244491
-0.38370000000000004,-56.008420361656796
-0.38269999999999993,-54.08441299384035
-0.38170000000000004,-52.30187675601041
-0.3806999999999999,-50.547634744177756
-0.37970000000000004,-48.93486386233162
-0.3786999999999999,-47.506005449467935
-0.37770000000000004,-46.10544126260155
-0.3766999999999999,-44.74731841473111
-0.37570000000000003,-43.40334267985933
-0.3746999999999999,-42.130102509980794
-0.37370000000000003,-40.95589213109281
-0.3726999999999999,-39.86656443019674
-0.37170000000000003,-38.734795390304704
-0.3706999999999999,-37.56058501141672
-0.36970000000000003,-36.47125731052064
-0.3686999999999999,-35.50925362661242
-0.3677,-34.5472499427042
-0.3666999999999999,-33.54280491980002
-0.3657,-32.53835989689585
-0.3646999999999999,-31.57635621298762
-0.3637,-30.71338232006995
-0.3626999999999999,-29.836261314153624
-0.3617,-28.959140308237306
-0.36070000000000013,-28.05372507632368
-0.3597,-27.176604070407354
-0.35870000000000013,-26.38436574248293
-0.3577,-25.648715866553115
-0.35670000000000013,-24.870624651627345
-0.3557,-24.035944984706973
-0.3547000000000001,-23.24370665678255
-0.3537,-22.550498119848687
-0.3527000000000001,-21.857289582914817
-0.3517,-21.149933932982297
-0.3507000000000001,-20.414284057052477
-0.3497,-19.721075520118614
-0.3487000000000001,-19.112749661176647
-0.3477,-18.49027668923603
-0.3467000000000001,-17.839509491298113
-0.3457,-17.188742293360193
-0.3447000000000001,-16.53797509542228
-0.3437,-15.972090575476265
-0.3427000000000001,-15.448647394526201
-0.3417,-14.826174422585586
-0.3407000000000001,-14.26028990263957
-0.3397,-13.698649516593148
-0.3387000000000001,-13.175206335643086
-0.3377,-12.694204493688973
-0.3367000000000001,-12.170761312738911
-0.3357,-11.604876792792895
-0.3347000000000001,-11.037577561547016
-0.3337,-10.601846481188586
-0.3327000000000001,-10.164700689530287
-0.3317,-9.641257508580225
-0.3307000000000001,-9.11781432763016
-0.3297,-8.594371146680096
-0.3287000000000001,-8.158640066321666
-0.3277,-7.7653503249591855
-0.3267000000000001,-7.28576319430494
-0.3257,-6.806176063650692
-0.3247000000000001,-6.37044498329226
-0.3237,-5.977155241929781
-0.3227000000000001,-5.629136262162981
-0.3217,-5.191990470504685
-0.3207000000000001,-4.712403339850438
-0.3197,-4.3205283097878215
-0.3187000000000001,-3.971094618721158
-0.3177,-3.6655169779503103
-0.3167000000000001,-3.273641947887695
-0.3157,-2.8379108675292635
-0.3147000000000001,-2.4884771764625997
-0.3137,-2.1390434853959355
-0.3127000000000001,-1.8773218949209036
-0.3117,-1.5293029151541047
-0.3107000000000001,-1.0925815368857679
-0.3097,-0.7872868383748929
-0.3087000000000001,-0.48199213986401795
-0.3077,-0.1766974413531431
-0.3067000000000001,0.12863969849672777
-0.30569999999999997,0.4776065348344364
-0.3047000000000001,0.8264743413811545
-0.30369999999999997,1.0881959318561862
-0.3027000000000001,1.3063444142953748
-0.30169999999999997,1.6113561705462767
-0.3007000000000001,1.9607898616129409
-0.29969999999999997,2.2663675023837886
-0.2987000000000001,2.4842330425630044
-0.29769999999999996,2.70209858274222
-0.2967000000000001,3.0076762235130676
-0.29569999999999996,3.313253864283916
-0.2947000000000001,3.5749754547589476
-0.29369999999999996,3.7928409949381634
-0.29270000000000007,4.01070653511738
-0.29169999999999996,4.272428125592412
-0.29070000000000007,4.534149716067443
-0.28969999999999996,4.795871306542475
-0.28870000000000007,5.01373684672169
-0.28769999999999996,5.18774633660509
-0.28670000000000007,5.405611876784305
-0.28569999999999995,5.667333467259336
-0.28470000000000006,5.929055057734368
-0.28369999999999995,6.1044792589176335
-0.28270000000000006,6.278488748801033
-0.28169999999999995,6.496354288980249
-0.28070000000000006,6.75807587945528
-0.27969999999999995,6.975941419634496
-0.27870000000000006,7.15136562081776
-0.27769999999999995,7.281519060405343
-0.27670000000000006,7.49938460058456
-0.27569999999999995,7.761106191059591
-0.27470000000000006,7.936530392242855
-0.27369999999999994,8.110539882126256
-0.27270000000000005,8.242108033013702
-0.27169999999999994,8.416117522897103
-0.27070000000000005,8.677839113372134
-0.26969999999999994,8.89570465355135
-0.26870000000000005,9.025858093138934
-0.26769999999999994,9.113570193730567
-0.26670000000000005,9.331435733909782
-0.26569999999999994,9.549301274088998
-0.26470000000000005,9.724725475272262
-0.26369999999999993,9.854878914859846
