Sept. 25, 2024   22:27:24
Cyclic Voltammetry
File: c:/users/guazh/data/20240922_batch_417_500/2024-09-22-exp448\exp448-2024-09-25t22_07_04-h2koh\exp448_cv_sr_300mvs_efin_-1800mv.bin
Data Source:  Experiment
Instrument Model:  CHI760E
Header: CV ran at 300 mVs
Note: 

Init E (V) = -1
High E (V) = -1
Low E (V) = -1.8
Final E (V) = -1
Init P/N = N
Scan Rate (V/s) = 0.3
Segment = 3
Sample Interval (V) = 0.001
Quiet Time (sec) = 2
Sensitivity (A/V) = 0.01
Comp R (ohm) = 3.3

Results:

Channel 1:
Segment 1:

Segment 2:

Segment 3:

Potential/V, Current/A

-1.000, 3.239e-6
-1.001, 3.239e-6
-1.002, 3.239e-6
-1.003, 6.322e-6
-1.004, 3.239e-6
-1.005, 6.322e-6
-1.006, 6.322e-6
-1.007, 6.322e-6
-1.008, 6.322e-6
-1.009, 6.322e-6
-1.010, 6.322e-6
-1.011, 6.322e-6
-1.012, 3.239e-6
-1.013, 3.239e-6
-1.014, 3.239e-6
-1.015, 6.322e-6
-1.016, 6.322e-6
-1.017, 6.322e-6
-1.018, 6.322e-6
-1.019, 6.322e-6
-1.020, 6.322e-6
-1.021, 6.322e-6
-1.022, 6.322e-6
-1.023, 6.322e-6
-1.024, 6.322e-6
-1.025, 6.322e-6
-1.026, 6.322e-6
-1.027, 6.322e-6
-1.028, 6.322e-6
-1.029, 6.322e-6
-1.030, 6.322e-6
-1.031, 6.322e-6
-1.032, 6.322e-6
-1.033, 6.322e-6
-1.034, 6.322e-6
-1.035, 6.322e-6
-1.036, 6.322e-6
-1.037, 6.322e-6
-1.038, 6.322e-6
-1.039, 6.322e-6
-1.040, 6.322e-6
-1.041, 6.322e-6
-1.042, 6.322e-6
-1.043, 6.322e-6
-1.044, 6.322e-6
-1.045, 6.322e-6
-1.046, 6.322e-6
-1.047, 6.322e-6
-1.048, 6.322e-6
-1.049, 6.322e-6
-1.050, 6.322e-6
-1.051, 6.322e-6
-1.052, 6.322e-6
-1.053, 6.322e-6
-1.054, 6.322e-6
-1.055, 6.322e-6
-1.056, 6.322e-6
-1.057, 6.322e-6
-1.058, 6.322e-6
-1.059, 6.322e-6
-1.060, 6.322e-6
-1.061, 6.322e-6
-1.062, 6.322e-6
-1.063, 6.322e-6
-1.064, 6.322e-6
-1.065, 6.322e-6
-1.066, 6.322e-6
-1.067, 6.322e-6
-1.068, 6.322e-6
-1.069, 6.322e-6
-1.070, 6.322e-6
-1.071, 6.322e-6
-1.072, 6.322e-6
-1.073, 6.322e-6
-1.074, 6.322e-6
-1.075, 6.322e-6
-1.076, 6.322e-6
-1.077, 6.322e-6
-1.078, 9.405e-6
-1.079, 6.322e-6
-1.080, 9.405e-6
-1.081, 9.405e-6
-1.082, 9.405e-6
-1.083, 9.405e-6
-1.084, 6.322e-6
-1.085, 9.405e-6
-1.086, 6.322e-6
-1.087, 6.322e-6
-1.088, 9.405e-6
-1.089, 6.322e-6
-1.090, 6.322e-6
-1.091, 9.405e-6
-1.092, 6.322e-6
-1.093, 6.322e-6
-1.094, 6.322e-6
-1.095, 6.322e-6
-1.096, 9.405e-6
-1.097, 9.405e-6
-1.098, 9.405e-6
-1.099, 9.405e-6
-1.100, 6.322e-6
-1.101, 9.405e-6
-1.102, 9.405e-6
-1.103, 9.405e-6
-1.104, 9.405e-6
-1.105, 9.405e-6
-1.106, 9.405e-6
-1.107, 9.405e-6
-1.108, 9.405e-6
-1.109, 9.405e-6
-1.110, 9.405e-6
-1.111, 9.405e-6
-1.112, 9.405e-6
-1.113, 9.405e-6
-1.114, 9.405e-6
-1.115, 9.405e-6
-1.116, 9.405e-6
-1.117, 9.405e-6
-1.118, 9.405e-6
-1.119, 9.405e-6
-1.120, 9.405e-6
-1.121, 9.405e-6
-1.122, 9.405e-6
-1.123, 9.405e-6
-1.124, 9.405e-6
-1.125, 9.405e-6
-1.126, 9.405e-6
-1.127, 9.405e-6
-1.128, 9.405e-6
-1.129, 9.405e-6
-1.130, 9.405e-6
-1.131, 9.405e-6
-1.132, 9.405e-6
-1.133, 9.405e-6
-1.134, 9.405e-6
-1.135, 9.405e-6
-1.136, 1.249e-5
-1.137, 9.405e-6
-1.138, 9.405e-6
-1.139, 9.405e-6
-1.140, 9.405e-6
-1.141, 9.405e-6
-1.142, 9.405e-6
-1.143, 9.405e-6
-1.144, 9.405e-6
-1.145, 9.405e-6
-1.146, 9.405e-6
-1.147, 9.405e-6
-1.148, 9.405e-6
-1.149, 9.405e-6
-1.150, 9.405e-6
-1.151, 9.405e-6
-1.152, 9.405e-6
-1.153, 9.405e-6
-1.154, 9.405e-6
-1.155, 9.405e-6
-1.156, 9.405e-6
-1.157, 1.249e-5
-1.158, 1.249e-5
-1.159, 1.249e-5
-1.160, 9.405e-6
-1.161, 9.405e-6
-1.162, 9.405e-6
-1.163, 9.405e-6
-1.164, 9.405e-6
-1.165, 9.405e-6
-1.166, 1.249e-5
-1.167, 1.249e-5
-1.168, 1.249e-5
-1.169, 1.249e-5
-1.170, 1.249e-5
-1.171, 1.249e-5
-1.172, 1.249e-5
-1.173, 1.249e-5
-1.174, 1.249e-5
-1.175, 1.249e-5
-1.176, 9.405e-6
-1.177, 9.405e-6
-1.178, 1.249e-5
-1.179, 1.249e-5
-1.180, 1.249e-5
-1.181, 9.405e-6
-1.182, 1.249e-5
-1.183, 1.249e-5
-1.184, 1.249e-5
-1.185, 1.249e-5
-1.186, 1.249e-5
-1.187, 1.249e-5
-1.188, 1.249e-5
-1.189, 1.249e-5
-1.190, 1.249e-5
-1.191, 1.249e-5
-1.192, 1.249e-5
-1.193, 1.249e-5
-1.194, 1.249e-5
-1.195, 1.249e-5
-1.196, 1.249e-5
-1.197, 1.249e-5
-1.198, 1.249e-5
-1.199, 1.249e-5
-1.200, 1.249e-5
-1.201, 1.249e-5
-1.202, 1.249e-5
-1.203, 1.249e-5
-1.204, 1.249e-5
-1.205, 1.249e-5
-1.206, 1.249e-5
-1.207, 1.249e-5
-1.208, 1.249e-5
-1.209, 1.249e-5
-1.210, 1.249e-5
-1.211, 1.249e-5
-1.212, 1.249e-5
-1.213, 1.249e-5
-1.214, 1.249e-5
-1.215, 1.249e-5
-1.216, 1.249e-5
-1.217, 1.249e-5
-1.218, 1.249e-5
-1.219, 1.249e-5
-1.220, 1.249e-5
-1.221, 1.249e-5
-1.222, 1.249e-5
-1.223, 1.249e-5
-1.224, 1.249e-5
-1.225, 1.249e-5
-1.226, 1.249e-5
-1.227, 1.249e-5
-1.228, 1.249e-5
-1.229, 1.249e-5
-1.230, 1.249e-5
-1.231, 1.249e-5
-1.232, 1.249e-5
-1.233, 1.249e-5
-1.234, 1.249e-5
-1.235, 1.249e-5
-1.236, 1.249e-5
-1.237, 1.249e-5
-1.238, 1.249e-5
-1.239, 1.249e-5
-1.240, 1.249e-5
-1.241, 1.557e-5
-1.242, 1.249e-5
-1.243, 1.249e-5
-1.244, 1.249e-5
-1.245, 1.249e-5
-1.246, 1.249e-5
-1.247, 1.249e-5
-1.248, 1.249e-5
-1.249, 1.249e-5
-1.250, 1.249e-5
-1.251, 1.249e-5
-1.252, 1.249e-5
-1.253, 1.557e-5
-1.254, 1.249e-5
-1.255, 1.249e-5
-1.256, 1.249e-5
-1.257, 1.557e-5
-1.258, 1.557e-5
-1.259, 1.249e-5
-1.260, 1.557e-5
-1.261, 1.557e-5
-1.262, 1.249e-5
-1.263, 1.557e-5
-1.264, 1.249e-5
-1.265, 1.249e-5
-1.266, 1.249e-5
-1.267, 1.557e-5
-1.268, 1.557e-5
-1.269, 1.249e-5
-1.270, 1.249e-5
-1.271, 1.557e-5
-1.272, 1.557e-5
-1.273, 1.557e-5
-1.274, 1.557e-5
-1.275, 1.557e-5
-1.276, 1.557e-5
-1.277, 1.557e-5
-1.278, 1.557e-5
-1.279, 1.557e-5
-1.280, 1.557e-5
-1.281, 1.557e-5
-1.282, 1.557e-5
-1.283, 1.557e-5
-1.284, 1.557e-5
-1.285, 1.557e-5
-1.286, 1.557e-5
-1.287, 1.557e-5
-1.288, 1.557e-5
-1.289, 1.557e-5
-1.290, 1.557e-5
-1.291, 1.557e-5
-1.292, 1.557e-5
-1.293, 1.557e-5
-1.294, 1.557e-5
-1.295, 1.557e-5
-1.296, 1.557e-5
-1.297, 1.557e-5
-1.298, 1.865e-5
-1.299, 1.557e-5
-1.300, 1.557e-5
-1.301, 1.557e-5
-1.302, 1.557e-5
-1.303, 1.865e-5
-1.304, 1.557e-5
-1.305, 1.557e-5
-1.306, 1.557e-5
-1.307, 1.557e-5
-1.308, 1.865e-5
-1.309, 1.557e-5
-1.310, 1.865e-5
-1.311, 1.865e-5
-1.312, 1.865e-5
-1.313, 1.865e-5
-1.314, 1.865e-5
-1.315, 1.865e-5
-1.316, 1.865e-5
-1.317, 1.865e-5
-1.318, 1.865e-5
-1.319, 1.865e-5
-1.320, 1.865e-5
-1.321, 1.865e-5
-1.322, 1.865e-5
-1.323, 1.865e-5
-1.324, 1.865e-5
-1.325, 1.865e-5
-1.326, 1.865e-5
-1.327, 1.865e-5
-1.328, 1.865e-5
-1.329, 1.865e-5
-1.330, 1.865e-5
-1.331, 1.865e-5
-1.332, 2.174e-5
-1.333, 2.174e-5
-1.334, 2.174e-5
-1.335, 2.174e-5
-1.336, 2.174e-5
-1.337, 2.174e-5
-1.338, 2.174e-5
-1.339, 2.174e-5
-1.340, 2.174e-5
-1.341, 2.174e-5
-1.342, 2.174e-5
-1.343, 2.174e-5
-1.344, 2.174e-5
-1.345, 2.174e-5
-1.346, 2.174e-5
-1.347, 2.482e-5
-1.348, 2.174e-5
-1.349, 2.482e-5
-1.350, 2.174e-5
-1.351, 2.174e-5
-1.352, 2.482e-5
-1.353, 2.482e-5
-1.354, 2.482e-5
-1.355, 2.482e-5
-1.356, 2.482e-5
-1.357, 2.482e-5
-1.358, 2.482e-5
-1.359, 2.482e-5
-1.360, 2.482e-5
-1.361, 2.482e-5
-1.362, 2.482e-5
-1.363, 2.482e-5
-1.364, 2.482e-5
-1.365, 2.482e-5
-1.366, 2.790e-5
-1.367, 2.790e-5
-1.368, 2.790e-5
-1.369, 2.790e-5
-1.370, 2.790e-5
-1.371, 2.790e-5
-1.372, 2.790e-5
-1.373, 2.790e-5
-1.374, 2.790e-5
-1.375, 2.790e-5
-1.376, 2.790e-5
-1.377, 2.790e-5
-1.378, 3.099e-5
-1.379, 3.099e-5
-1.380, 3.099e-5
-1.381, 3.099e-5
-1.382, 3.099e-5
-1.383, 3.099e-5
-1.384, 3.099e-5
-1.385, 3.099e-5
-1.386, 3.407e-5
-1.387, 3.407e-5
-1.388, 3.407e-5
-1.389, 3.407e-5
-1.390, 3.407e-5
-1.391, 3.407e-5
-1.392, 3.407e-5
-1.393, 3.407e-5
-1.394, 3.407e-5
-1.395, 3.407e-5
-1.396, 3.715e-5
-1.397, 3.715e-5
-1.398, 3.715e-5
-1.399, 3.715e-5
-1.400, 3.715e-5
-1.401, 3.715e-5
-1.402, 3.715e-5
-1.403, 4.024e-5
-1.404, 4.024e-5
-1.405, 4.024e-5
-1.406, 4.024e-5
-1.407, 4.024e-5
-1.408, 4.024e-5
-1.409, 4.024e-5
-1.410, 4.024e-5
-1.411, 4.024e-5
-1.412, 4.332e-5
-1.413, 4.332e-5
-1.414, 4.332e-5
-1.415, 4.332e-5
-1.416, 4.332e-5
-1.417, 4.332e-5
-1.418, 4.640e-5
-1.419, 4.640e-5
-1.420, 4.640e-5
-1.421, 4.640e-5
-1.422, 4.640e-5
-1.423, 4.640e-5
-1.424, 4.949e-5
-1.425, 4.949e-5
-1.426, 4.949e-5
-1.427, 4.949e-5
-1.428, 4.949e-5
-1.429, 4.949e-5
-1.430, 5.257e-5
-1.431, 5.257e-5
-1.432, 5.257e-5
-1.433, 5.257e-5
-1.434, 5.257e-5
-1.435, 5.257e-5
-1.436, 5.565e-5
-1.437, 5.565e-5
-1.438, 5.565e-5
-1.439, 5.565e-5
-1.440, 5.565e-5
-1.441, 5.873e-5
-1.442, 5.873e-5
-1.443, 5.873e-5
-1.444, 5.873e-5
-1.445, 5.873e-5
-1.446, 6.182e-5
-1.447, 6.182e-5
-1.448, 6.182e-5
-1.449, 6.182e-5
-1.450, 6.182e-5
-1.451, 6.182e-5
-1.452, 6.490e-5
-1.453, 6.490e-5
-1.454, 6.490e-5
-1.455, 6.490e-5
-1.456, 6.490e-5
-1.457, 6.798e-5
-1.458, 6.798e-5
-1.459, 6.798e-5
-1.460, 6.798e-5
-1.461, 7.107e-5
-1.462, 7.107e-5
-1.463, 7.107e-5
-1.464, 7.107e-5
-1.465, 7.107e-5
-1.466, 7.415e-5
-1.467, 7.415e-5
-1.468, 7.415e-5
-1.469, 7.415e-5
-1.470, 7.723e-5
-1.471, 7.723e-5
-1.472, 7.723e-5
-1.473, 8.032e-5
-1.474, 8.032e-5
-1.475, 8.032e-5
-1.476, 8.032e-5
-1.477, 8.340e-5
-1.478, 8.340e-5
-1.479, 8.340e-5
-1.480, 8.340e-5
-1.481, 8.340e-5
-1.482, 8.648e-5
-1.483, 8.648e-5
-1.484, 8.648e-5
-1.485, 8.957e-5
-1.486, 8.957e-5
-1.487, 8.957e-5
-1.488, 9.265e-5
-1.489, 9.265e-5
-1.490, 9.265e-5
-1.491, 9.573e-5
-1.492, 9.573e-5
-1.493, 9.573e-5
-1.494, 9.573e-5
-1.495, 9.882e-5
-1.496, 9.882e-5
-1.497, 9.882e-5
-1.498, 1.019e-4
-1.499, 1.019e-4
-1.500, 1.019e-4
-1.501, 1.050e-4
-1.502, 1.050e-4
-1.503, 1.081e-4
-1.504, 1.081e-4
-1.505, 1.081e-4
-1.506, 1.081e-4
-1.507, 1.111e-4
-1.508, 1.142e-4
-1.509, 1.142e-4
-1.510, 1.173e-4
-1.511, 1.173e-4
-1.512, 1.173e-4
-1.513, 1.204e-4
-1.514, 1.204e-4
-1.515, 1.204e-4
-1.516, 1.235e-4
-1.517, 1.235e-4
-1.518, 1.266e-4
-1.519, 1.266e-4
-1.520, 1.296e-4
-1.521, 1.296e-4
-1.522, 1.327e-4
-1.523, 1.327e-4
-1.524, 1.358e-4
-1.525, 1.358e-4
-1.526, 1.389e-4
-1.527, 1.420e-4
-1.528, 1.420e-4
-1.529, 1.420e-4
-1.530, 1.451e-4
-1.531, 1.481e-4
-1.532, 1.481e-4
-1.533, 1.512e-4
-1.534, 1.512e-4
-1.535, 1.543e-4
-1.536, 1.574e-4
-1.537, 1.574e-4
-1.538, 1.605e-4
-1.539, 1.636e-4
-1.540, 1.636e-4
-1.541, 1.666e-4
-1.542, 1.697e-4
-1.543, 1.728e-4
-1.544, 1.759e-4
-1.545, 1.759e-4
-1.546, 1.790e-4
-1.547, 1.790e-4
-1.548, 1.851e-4
-1.549, 1.851e-4
-1.550, 1.882e-4
-1.551, 1.913e-4
-1.552, 1.944e-4
-1.553, 1.975e-4
-1.554, 2.006e-4
-1.555, 2.036e-4
-1.556, 2.036e-4
-1.557, 2.067e-4
-1.558, 2.098e-4
-1.559, 2.160e-4
-1.560, 2.160e-4
-1.561, 2.191e-4
-1.562, 2.252e-4
-1.563, 2.283e-4
-1.564, 2.314e-4
-1.565, 2.345e-4
-1.566, 2.376e-4
-1.567, 2.406e-4
-1.568, 2.468e-4
-1.569, 2.499e-4
-1.570, 2.561e-4
-1.571, 2.591e-4
-1.572, 2.622e-4
-1.573, 2.684e-4
-1.574, 2.715e-4
-1.575, 2.746e-4
-1.576, 2.807e-4
-1.577, 2.838e-4
-1.578, 2.900e-4
-1.579, 2.961e-4
-1.580, 2.992e-4
-1.581, 3.054e-4
-1.582, 3.115e-4
-1.583, 3.146e-4
-1.584, 3.208e-4
-1.585, 3.270e-4
-1.586, 3.331e-4
-1.587, 3.393e-4
-1.588, 3.455e-4
-1.589, 3.516e-4
-1.590, 3.578e-4
-1.591, 3.640e-4
-1.592, 3.701e-4
-1.593, 3.794e-4
-1.594, 3.855e-4
-1.595, 3.917e-4
-1.596, 3.979e-4
-1.597, 4.071e-4
-1.598, 4.133e-4
-1.599, 4.225e-4
-1.600, 4.287e-4
-1.601, 4.380e-4
-1.602, 4.472e-4
-1.603, 4.565e-4
-1.604, 4.626e-4
-1.605, 4.750e-4
-1.606, 4.811e-4
-1.607, 4.935e-4
-1.608, 5.027e-4
-1.609, 5.120e-4
-1.610, 5.212e-4
-1.611, 5.335e-4
-1.612, 5.428e-4
-1.613, 5.520e-4
-1.614, 5.644e-4
-1.615, 5.736e-4
-1.616, 5.859e-4
-1.617, 5.983e-4
-1.618, 6.106e-4
-1.619, 6.229e-4
-1.620, 6.353e-4
-1.621, 6.507e-4
-1.622, 6.630e-4
-1.623, 6.754e-4
-1.624, 6.877e-4
-1.625, 7.031e-4
-1.626, 7.154e-4
-1.627, 7.309e-4
-1.628, 7.463e-4
-1.629, 7.586e-4
-1.630, 7.771e-4
-1.631, 7.925e-4
-1.632, 8.079e-4
-1.633, 8.264e-4
-1.634, 8.418e-4
-1.635, 8.603e-4
-1.636, 8.758e-4
-1.637, 8.912e-4
-1.638, 9.097e-4
-1.639, 9.282e-4
-1.640, 9.467e-4
-1.641, 9.652e-4
-1.642, 9.837e-4
-1.643, 1.005e-3
-1.644, 1.024e-3
-1.645, 1.045e-3
-1.646, 1.064e-3
-1.647, 1.085e-3
-1.648, 1.107e-3
-1.649, 1.125e-3
-1.650, 1.147e-3
-1.651, 1.169e-3
-1.652, 1.190e-3
-1.653, 1.212e-3
-1.654, 1.233e-3
-1.655, 1.258e-3
-1.656, 1.283e-3
-1.657, 1.307e-3
-1.658, 1.332e-3
-1.659, 1.357e-3
-1.660, 1.381e-3
-1.661, 1.403e-3
-1.662, 1.428e-3
-1.663, 1.455e-3
-1.664, 1.483e-3
-1.665, 1.508e-3
-1.666, 1.532e-3
-1.667, 1.554e-3
-1.668, 1.582e-3
-1.669, 1.610e-3
-1.670, 1.640e-3
-1.671, 1.674e-3
-1.672, 1.711e-3
-1.673, 1.748e-3
-1.674, 1.782e-3
-1.675, 1.813e-3
-1.676, 1.841e-3
-1.677, 1.865e-3
-1.678, 1.890e-3
-1.679, 1.909e-3
-1.680, 1.933e-3
-1.681, 1.961e-3
-1.682, 1.995e-3
-1.683, 2.035e-3
-1.684, 2.075e-3
-1.685, 2.115e-3
-1.686, 2.155e-3
-1.687, 2.192e-3
-1.688, 2.229e-3
-1.689, 2.260e-3
-1.690, 2.291e-3
-1.691, 2.319e-3
-1.692, 2.346e-3
-1.693, 2.380e-3
-1.694, 2.420e-3
-1.695, 2.464e-3
-1.696, 2.507e-3
-1.697, 2.550e-3
-1.698, 2.593e-3
-1.699, 2.636e-3
-1.700, 2.673e-3
-1.701, 2.707e-3
-1.702, 2.741e-3
-1.703, 2.775e-3
-1.704, 2.809e-3
-1.705, 2.843e-3
-1.706, 2.877e-3
-1.707, 2.914e-3
-1.708, 2.957e-3
-1.709, 3.003e-3
-1.710, 3.049e-3
-1.711, 3.089e-3
-1.712, 3.133e-3
-1.713, 3.176e-3
-1.714, 3.219e-3
-1.715, 3.256e-3
-1.716, 3.293e-3
-1.717, 3.336e-3
-1.718, 3.376e-3
-1.719, 3.416e-3
-1.720, 3.462e-3
-1.721, 3.509e-3
-1.722, 3.558e-3
-1.723, 3.607e-3
-1.724, 3.657e-3
-1.725, 3.703e-3
-1.726, 3.752e-3
-1.727, 3.799e-3
-1.728, 3.842e-3
-1.729, 3.885e-3
-1.730, 3.934e-3
-1.731, 3.980e-3
-1.732, 4.027e-3
-1.733, 4.073e-3
-1.734, 4.116e-3
-1.735, 4.159e-3
-1.736, 4.199e-3
-1.737, 4.246e-3
-1.738, 4.289e-3
-1.739, 4.335e-3
-1.740, 4.378e-3
-1.741, 4.424e-3
-1.742, 4.480e-3
-1.743, 4.535e-3
-1.744, 4.585e-3
-1.745, 4.631e-3
-1.746, 4.674e-3
-1.747, 4.720e-3
-1.748, 4.770e-3
-1.749, 4.816e-3
-1.750, 4.859e-3
-1.751, 4.899e-3
-1.752, 4.945e-3
-1.753, 5.001e-3
-1.754, 5.060e-3
-1.755, 5.115e-3
-1.756, 5.171e-3
-1.757, 5.229e-3
-1.758, 5.288e-3
-1.759, 5.340e-3
-1.760, 5.393e-3
-1.761, 5.439e-3
-1.762, 5.488e-3
-1.763, 5.534e-3
-1.764, 5.581e-3
-1.765, 5.627e-3
-1.766, 5.670e-3
-1.767, 5.713e-3
-1.768, 5.766e-3
-1.769, 5.818e-3
-1.770, 5.864e-3
-1.771, 5.914e-3
-1.772, 5.963e-3
-1.773, 6.028e-3
-1.774, 6.089e-3
-1.775, 6.139e-3
-1.776, 6.188e-3
-1.777, 6.237e-3
-1.778, 6.293e-3
-1.779, 6.342e-3
-1.780, 6.382e-3
-1.781, 6.422e-3
-1.782, 6.472e-3
-1.783, 6.530e-3
-1.784, 6.592e-3
-1.785, 6.660e-3
-1.786, 6.712e-3
-1.787, 6.771e-3
-1.788, 6.835e-3
-1.789, 6.900e-3
-1.790, 6.956e-3
-1.791, 6.996e-3
-1.792, 7.027e-3
-1.793, 7.064e-3
-1.794, 7.113e-3
-1.795, 7.162e-3
-1.796, 7.199e-3
-1.797, 7.242e-3
-1.798, 7.301e-3
-1.799, 7.375e-3
-1.800, 7.424e-3
-1.799, 7.403e-3
-1.798, 7.372e-3
-1.797, 7.350e-3
-1.796, 7.335e-3
-1.795, 7.310e-3
-1.794, 7.267e-3
-1.793, 7.212e-3
-1.792, 7.162e-3
-1.791, 7.128e-3
-1.790, 7.088e-3
-1.789, 7.045e-3
-1.788, 6.993e-3
-1.787, 6.956e-3
-1.786, 6.925e-3
-1.785, 6.894e-3
-1.784, 6.845e-3
-1.783, 6.795e-3
-1.782, 6.746e-3
-1.781, 6.697e-3
-1.780, 6.644e-3
-1.779, 6.589e-3
-1.778, 6.536e-3
-1.777, 6.493e-3
-1.776, 6.450e-3
-1.775, 6.416e-3
-1.774, 6.385e-3
-1.773, 6.345e-3
-1.772, 6.299e-3
-1.771, 6.250e-3
-1.770, 6.203e-3
-1.769, 6.154e-3
-1.768, 6.105e-3
-1.767, 6.058e-3
-1.766, 6.006e-3
-1.765, 5.954e-3
-1.764, 5.907e-3
-1.763, 5.861e-3
-1.762, 5.815e-3
-1.761, 5.772e-3
-1.760, 5.732e-3
-1.759, 5.682e-3
-1.758, 5.636e-3
-1.757, 5.596e-3
-1.756, 5.568e-3
-1.755, 5.544e-3
-1.754, 5.513e-3
-1.753, 5.485e-3
-1.752, 5.454e-3
-1.751, 5.414e-3
-1.750, 5.374e-3
-1.749, 5.334e-3
-1.748, 5.294e-3
-1.747, 5.251e-3
-1.746, 5.204e-3
-1.745, 5.161e-3
-1.744, 5.121e-3
-1.743, 5.084e-3
-1.742, 5.041e-3
-1.741, 4.995e-3
-1.740, 4.955e-3
-1.739, 4.918e-3
-1.738, 4.884e-3
-1.737, 4.844e-3
-1.736, 4.801e-3
-1.735, 4.754e-3
-1.734, 4.720e-3
-1.733, 4.677e-3
-1.732, 4.628e-3
-1.731, 4.569e-3
-1.730, 4.514e-3
-1.729, 4.468e-3
-1.728, 4.428e-3
-1.727, 4.381e-3
-1.726, 4.347e-3
-1.725, 4.317e-3
-1.724, 4.286e-3
-1.723, 4.255e-3
-1.722, 4.218e-3
-1.721, 4.178e-3
-1.720, 4.138e-3
-1.719, 4.098e-3
-1.718, 4.061e-3
-1.717, 4.021e-3
-1.716, 3.980e-3
-1.715, 3.943e-3
-1.714, 3.910e-3
-1.713, 3.882e-3
-1.712, 3.851e-3
-1.711, 3.817e-3
-1.710, 3.783e-3
-1.709, 3.749e-3
-1.708, 3.715e-3
-1.707, 3.681e-3
-1.706, 3.638e-3
-1.705, 3.598e-3
-1.704, 3.561e-3
-1.703, 3.524e-3
-1.702, 3.481e-3
-1.701, 3.441e-3
-1.700, 3.398e-3
-1.699, 3.358e-3
-1.698, 3.318e-3
-1.697, 3.278e-3
-1.696, 3.241e-3
-1.695, 3.204e-3
-1.694, 3.170e-3
-1.693, 3.142e-3
-1.692, 3.108e-3
-1.691, 3.077e-3
-1.690, 3.046e-3
-1.689, 3.012e-3
-1.688, 2.985e-3
-1.687, 2.951e-3
-1.686, 2.917e-3
-1.685, 2.883e-3
-1.684, 2.849e-3
-1.683, 2.821e-3
-1.682, 2.793e-3
-1.681, 2.766e-3
-1.680, 2.735e-3
-1.679, 2.704e-3
-1.678, 2.676e-3
-1.677, 2.642e-3
-1.676, 2.608e-3
-1.675, 2.575e-3
-1.674, 2.534e-3
-1.673, 2.501e-3
-1.672, 2.467e-3
-1.671, 2.433e-3
-1.670, 2.399e-3
-1.669, 2.371e-3
-1.668, 2.346e-3
-1.667, 2.322e-3
-1.666, 2.291e-3
-1.665, 2.263e-3
-1.664, 2.232e-3
-1.663, 2.205e-3
-1.662, 2.177e-3
-1.661, 2.143e-3
-1.660, 2.112e-3
-1.659, 2.081e-3
-1.658, 2.057e-3
-1.657, 2.032e-3
-1.656, 2.007e-3
-1.655, 1.983e-3
-1.654, 1.958e-3
-1.653, 1.933e-3
-1.652, 1.909e-3
-1.651, 1.884e-3
-1.650, 1.853e-3
-1.649, 1.825e-3
-1.648, 1.801e-3
-1.647, 1.776e-3
-1.646, 1.751e-3
-1.645, 1.727e-3
-1.644, 1.702e-3
-1.643, 1.680e-3
-1.642, 1.656e-3
-1.641, 1.634e-3
-1.640, 1.610e-3
-1.639, 1.585e-3
-1.638, 1.560e-3
-1.637, 1.536e-3
-1.636, 1.511e-3
-1.635, 1.483e-3
-1.634, 1.462e-3
-1.633, 1.437e-3
-1.632, 1.418e-3
-1.631, 1.397e-3
-1.630, 1.375e-3
-1.629, 1.354e-3
-1.628, 1.332e-3
-1.627, 1.314e-3
-1.626, 1.295e-3
-1.625, 1.270e-3
-1.624, 1.252e-3
-1.623, 1.230e-3
-1.622, 1.212e-3
-1.621, 1.193e-3
-1.620, 1.175e-3
-1.619, 1.156e-3
-1.618, 1.138e-3
-1.617, 1.122e-3
-1.616, 1.104e-3
-1.615, 1.082e-3
-1.614, 1.064e-3
-1.613, 1.045e-3
-1.612, 1.030e-3
-1.611, 1.011e-3
-1.610, 9.929e-4
-1.609, 9.775e-4
-1.608, 9.621e-4
-1.607, 9.467e-4
-1.606, 9.313e-4
-1.605, 9.158e-4
-1.604, 9.004e-4
-1.603, 8.850e-4
-1.602, 8.696e-4
-1.601, 8.542e-4
-1.600, 8.388e-4
-1.599, 8.233e-4
-1.598, 8.079e-4
-1.597, 7.956e-4
-1.596, 7.802e-4
-1.595, 7.679e-4
-1.594, 7.524e-4
-1.593, 7.401e-4
-1.592, 7.247e-4
-1.591, 7.124e-4
-1.590, 7.000e-4
-1.589, 6.877e-4
-1.588, 6.723e-4
-1.587, 6.630e-4
-1.586, 6.507e-4
-1.585, 6.384e-4
-1.584, 6.260e-4
-1.583, 6.137e-4
-1.582, 6.044e-4
-1.581, 5.921e-4
-1.580, 5.829e-4
-1.579, 5.705e-4
-1.578, 5.613e-4
-1.577, 5.489e-4
-1.576, 5.397e-4
-1.575, 5.305e-4
-1.574, 5.212e-4
-1.573, 5.089e-4
-1.572, 4.996e-4
-1.571, 4.904e-4
-1.570, 4.811e-4
-1.569, 4.719e-4
-1.568, 4.626e-4
-1.567, 4.534e-4
-1.566, 4.441e-4
-1.565, 4.380e-4
-1.564, 4.287e-4
-1.563, 4.195e-4
-1.562, 4.133e-4
-1.561, 4.040e-4
-1.560, 3.979e-4
-1.559, 3.917e-4
-1.558, 3.825e-4
-1.557, 3.763e-4
-1.556, 3.670e-4
-1.555, 3.609e-4
-1.554, 3.547e-4
-1.553, 3.455e-4
-1.552, 3.393e-4
-1.551, 3.331e-4
-1.550, 3.270e-4
-1.549, 3.208e-4
-1.548, 3.146e-4
-1.547, 3.085e-4
-1.546, 3.023e-4
-1.545, 2.961e-4
-1.544, 2.900e-4
-1.543, 2.838e-4
-1.542, 2.776e-4
-1.541, 2.715e-4
-1.540, 2.684e-4
-1.539, 2.622e-4
-1.538, 2.561e-4
-1.537, 2.499e-4
-1.536, 2.468e-4
-1.535, 2.406e-4
-1.534, 2.376e-4
-1.533, 2.314e-4
-1.532, 2.283e-4
-1.531, 2.221e-4
-1.530, 2.191e-4
-1.529, 2.129e-4
-1.528, 2.098e-4
-1.527, 2.067e-4
-1.526, 2.006e-4
-1.525, 1.975e-4
-1.524, 1.944e-4
-1.523, 1.913e-4
-1.522, 1.851e-4
-1.521, 1.821e-4
-1.520, 1.790e-4
-1.519, 1.759e-4
-1.518, 1.728e-4
-1.517, 1.697e-4
-1.516, 1.636e-4
-1.515, 1.636e-4
-1.514, 1.574e-4
-1.513, 1.543e-4
-1.512, 1.512e-4
-1.511, 1.481e-4
-1.510, 1.451e-4
-1.509, 1.420e-4
-1.508, 1.389e-4
-1.507, 1.358e-4
-1.506, 1.358e-4
-1.505, 1.327e-4
-1.504, 1.296e-4
-1.503, 1.266e-4
-1.502, 1.235e-4
-1.501, 1.204e-4
-1.500, 1.204e-4
-1.499, 1.142e-4
-1.498, 1.142e-4
-1.497, 1.142e-4
-1.496, 1.111e-4
-1.495, 1.081e-4
-1.494, 1.050e-4
-1.493, 1.050e-4
-1.492, 1.019e-4
-1.491, 9.882e-5
-1.490, 9.573e-5
-1.489, 9.573e-5
-1.488, 9.265e-5
-1.487, 9.265e-5
-1.486, 8.957e-5
-1.485, 8.648e-5
-1.484, 8.648e-5
-1.483, 8.340e-5
-1.482, 8.340e-5
-1.481, 8.032e-5
-1.480, 8.032e-5
-1.479, 7.723e-5
-1.478, 7.415e-5
-1.477, 7.415e-5
-1.476, 7.415e-5
-1.475, 7.107e-5
-1.474, 7.107e-5
-1.473, 6.798e-5
-1.472, 6.798e-5
-1.471, 6.490e-5
-1.470, 6.490e-5
-1.469, 6.182e-5
-1.468, 6.182e-5
-1.467, 6.182e-5
-1.466, 5.873e-5
-1.465, 5.873e-5
-1.464, 5.565e-5
-1.463, 5.565e-5
-1.462, 5.565e-5
-1.461, 5.565e-5
-1.460, 5.257e-5
-1.459, 5.257e-5
-1.458, 4.949e-5
-1.457, 4.949e-5
-1.456, 4.949e-5
-1.455, 4.640e-5
-1.454, 4.640e-5
-1.453, 4.332e-5
-1.452, 4.332e-5
-1.451, 4.332e-5
-1.450, 4.332e-5
-1.449, 4.024e-5
-1.448, 4.024e-5
-1.447, 4.024e-5
-1.446, 4.024e-5
-1.445, 3.715e-5
-1.444, 3.715e-5
-1.443, 3.715e-5
-1.442, 3.407e-5
-1.441, 3.407e-5
-1.440, 3.407e-5
-1.439, 3.407e-5
-1.438, 3.099e-5
-1.437, 3.099e-5
-1.436, 3.099e-5
-1.435, 3.099e-5
-1.434, 2.790e-5
-1.433, 2.790e-5
-1.432, 3.099e-5
-1.431, 2.790e-5
-1.430, 2.482e-5
-1.429, 2.482e-5
-1.428, 2.482e-5
-1.427, 2.482e-5
-1.426, 2.482e-5
-1.425, 2.482e-5
-1.424, 2.482e-5
-1.423, 2.482e-5
-1.422, 2.174e-5
-1.421, 2.174e-5
-1.420, 2.174e-5
-1.419, 1.865e-5
-1.418, 2.174e-5
-1.417, 1.865e-5
-1.416, 1.865e-5
-1.415, 1.865e-5
-1.414, 1.865e-5
-1.413, 1.865e-5
-1.412, 1.865e-5
-1.411, 1.865e-5
-1.410, 1.557e-5
-1.409, 1.557e-5
-1.408, 1.557e-5
-1.407, 1.557e-5
-1.406, 1.557e-5
-1.405, 1.557e-5
-1.404, 1.249e-5
-1.403, 1.249e-5
-1.402, 1.249e-5
-1.401, 1.249e-5
-1.400, 1.249e-5
-1.399, 1.249e-5
-1.398, 9.405e-6
-1.397, 1.249e-5
-1.396, 9.405e-6
-1.395, 9.405e-6
-1.394, 9.405e-6
-1.393, 9.405e-6
-1.392, 9.405e-6
-1.391, 9.405e-6
-1.390, 9.405e-6
-1.389, 9.405e-6
-1.388, 9.405e-6
-1.387, 9.405e-6
-1.386, 6.322e-6
-1.385, 6.322e-6
-1.384, 6.322e-6
-1.383, 6.322e-6
-1.382, 6.322e-6
-1.381, 6.322e-6
-1.380, 6.322e-6
-1.379, 6.322e-6
-1.378, 6.322e-6
-1.377, 6.322e-6
-1.376, 3.239e-6
-1.375, 3.239e-6
-1.374, 3.239e-6
-1.373, 3.239e-6
-1.372, 3.239e-6
-1.371, 3.239e-6
-1.370, 3.239e-6
-1.369, 3.239e-6
-1.368, 3.239e-6
-1.367, 3.239e-6
-1.366, 3.239e-6
-1.365, 3.239e-6
-1.364, 3.239e-6
-1.363, 3.239e-6
-1.362, 3.239e-6
-1.361, 1.559e-7
-1.360, 1.559e-7
-1.359, 1.559e-7
-1.358, 1.559e-7
-1.357, 1.559e-7
-1.356, 1.559e-7
-1.355, 1.559e-7
-1.354, 1.559e-7
-1.353, 1.559e-7
-1.352, 1.559e-7
-1.351, 1.559e-7
-1.350, 1.559e-7
-1.349, 1.559e-7
-1.348, 1.559e-7
-1.347, 1.559e-7
-1.346, 1.559e-7
-1.345, -2.927e-6
-1.344, 1.559e-7
-1.343, 1.559e-7
-1.342, -2.927e-6
-1.341, -2.927e-6
-1.340, -2.927e-6
-1.339, -2.927e-6
-1.338, -2.927e-6
-1.337, -2.927e-6
-1.336, -2.927e-6
-1.335, -2.927e-6
-1.334, -2.927e-6
-1.333, -2.927e-6
-1.332, -2.927e-6
-1.331, -2.927e-6
-1.330, -2.927e-6
-1.329, -2.927e-6
-1.328, -2.927e-6
-1.327, -2.927e-6
-1.326, -2.927e-6
-1.325, -2.927e-6
-1.324, -6.010e-6
-1.323, -2.927e-6
-1.322, -6.010e-6
-1.321, -2.927e-6
-1.320, -2.927e-6
-1.319, -6.010e-6
-1.318, -2.927e-6
-1.317, -2.927e-6
-1.316, -6.010e-6
-1.315, -6.010e-6
-1.314, -6.010e-6
-1.313, -6.010e-6
-1.312, -6.010e-6
-1.311, -6.010e-6
-1.310, -6.010e-6
-1.309, -6.010e-6
-1.308, -6.010e-6
-1.307, -6.010e-6
-1.306, -6.010e-6
-1.305, -6.010e-6
-1.304, -6.010e-6
-1.303, -6.010e-6
-1.302, -6.010e-6
-1.301, -6.010e-6
-1.300, -6.010e-6
-1.299, -6.010e-6
-1.298, -6.010e-6
-1.297, -6.010e-6
-1.296, -6.010e-6
-1.295, -6.010e-6
-1.294, -6.010e-6
-1.293, -6.010e-6
-1.292, -6.010e-6
-1.291, -6.010e-6
-1.290, -6.010e-6
-1.289, -6.010e-6
-1.288, -6.010e-6
-1.287, -6.010e-6
-1.286, -6.010e-6
-1.285, -9.093e-6
-1.284, -6.010e-6
-1.283, -6.010e-6
-1.282, -6.010e-6
-1.281, -6.010e-6
-1.280, -9.093e-6
-1.279, -6.010e-6
-1.278, -6.010e-6
-1.277, -6.010e-6
-1.276, -6.010e-6
-1.275, -6.010e-6
-1.274, -6.010e-6
-1.273, -6.010e-6
-1.272, -6.010e-6
-1.271, -9.093e-6
-1.270, -6.010e-6
-1.269, -6.010e-6
-1.268, -6.010e-6
-1.267, -6.010e-6
-1.266, -6.010e-6
-1.265, -6.010e-6
-1.264, -6.010e-6
-1.263, -6.010e-6
-1.262, -6.010e-6
-1.261, -6.010e-6
-1.260, -6.010e-6
-1.259, -6.010e-6
-1.258, -9.093e-6
-1.257, -9.093e-6
-1.256, -9.093e-6
-1.255, -9.093e-6
-1.254, -9.093e-6
-1.253, -6.010e-6
-1.252, -9.093e-6
-1.251, -9.093e-6
-1.250, -9.093e-6
-1.249, -6.010e-6
-1.248, -9.093e-6
-1.247, -9.093e-6
-1.246, -9.093e-6
-1.245, -6.010e-6
-1.244, -6.010e-6
-1.243, -9.093e-6
-1.242, -9.093e-6
-1.241, -9.093e-6
-1.240, -9.093e-6
-1.239, -9.093e-6
-1.238, -9.093e-6
-1.237, -9.093e-6
-1.236, -9.093e-6
-1.235, -9.093e-6
-1.234, -9.093e-6
-1.233, -9.093e-6
-1.232, -9.093e-6
-1.231, -6.010e-6
-1.230, -9.093e-6
-1.229, -9.093e-6
-1.228, -9.093e-6
-1.227, -9.093e-6
-1.226, -9.093e-6
-1.225, -6.010e-6
-1.224, -9.093e-6
-1.223, -9.093e-6
-1.222, -9.093e-6
-1.221, -9.093e-6
-1.220, -9.093e-6
-1.219, -9.093e-6
-1.218, -9.093e-6
-1.217, -9.093e-6
-1.216, -9.093e-6
-1.215, -9.093e-6
-1.214, -6.010e-6
-1.213, -9.093e-6
-1.212, -9.093e-6
-1.211, -9.093e-6
-1.210, -9.093e-6
-1.209, -9.093e-6
-1.208, -9.093e-6
-1.207, -9.093e-6
-1.206, -9.093e-6
-1.205, -9.093e-6
-1.204, -9.093e-6
-1.203, -9.093e-6
-1.202, -9.093e-6
-1.201, -9.093e-6
-1.200, -9.093e-6
-1.199, -9.093e-6
-1.198, -9.093e-6
-1.197, -9.093e-6
-1.196, -9.093e-6
-1.195, -9.093e-6
-1.194, -9.093e-6
-1.193, -9.093e-6
-1.192, -9.093e-6
-1.191, -9.093e-6
-1.190, -9.093e-6
-1.189, -9.093e-6
-1.188, -9.093e-6
-1.187, -9.093e-6
-1.186, -9.093e-6
-1.185, -9.093e-6
-1.184, -9.093e-6
-1.183, -9.093e-6
-1.182, -9.093e-6
-1.181, -9.093e-6
-1.180, -9.093e-6
-1.179, -9.093e-6
-1.178, -9.093e-6
-1.177, -9.093e-6
-1.176, -9.093e-6
-1.175, -9.093e-6
-1.174, -9.093e-6
-1.173, -9.093e-6
-1.172, -9.093e-6
-1.171, -9.093e-6
-1.170, -9.093e-6
-1.169, -9.093e-6
-1.168, -9.093e-6
-1.167, -9.093e-6
-1.166, -9.093e-6
-1.165, -9.093e-6
-1.164, -9.093e-6
-1.163, -9.093e-6
-1.162, -9.093e-6
-1.161, -9.093e-6
-1.160, -9.093e-6
-1.159, -9.093e-6
-1.158, -9.093e-6
-1.157, -9.093e-6
-1.156, -9.093e-6
-1.155, -9.093e-6
-1.154, -9.093e-6
-1.153, -9.093e-6
-1.152, -9.093e-6
-1.151, -9.093e-6
-1.150, -9.093e-6
-1.149, -9.093e-6
-1.148, -9.093e-6
-1.147, -9.093e-6
-1.146, -9.093e-6
-1.145, -9.093e-6
-1.144, -9.093e-6
-1.143, -9.093e-6
-1.142, -9.093e-6
-1.141, -9.093e-6
-1.140, -9.093e-6
-1.139, -9.093e-6
-1.138, -9.093e-6
-1.137, -9.093e-6
-1.136, -9.093e-6
-1.135, -9.093e-6
-1.134, -9.093e-6
-1.133, -9.093e-6
-1.132, -9.093e-6
-1.131, -9.093e-6
-1.130, -9.093e-6
-1.129, -9.093e-6
-1.128, -9.093e-6
-1.127, -9.093e-6
-1.126, -9.093e-6
-1.125, -9.093e-6
-1.124, -9.093e-6
-1.123, -9.093e-6
-1.122, -9.093e-6
-1.121, -9.093e-6
-1.120, -9.093e-6
-1.119, -9.093e-6
-1.118, -9.093e-6
-1.117, -9.093e-6
-1.116, -9.093e-6
-1.115, -9.093e-6
-1.114, -9.093e-6
-1.113, -9.093e-6
-1.112, -9.093e-6
-1.111, -9.093e-6
-1.110, -9.093e-6
-1.109, -9.093e-6
-1.108, -9.093e-6
-1.107, -9.093e-6
-1.106, -9.093e-6
-1.105, -9.093e-6
-1.104, -9.093e-6
-1.103, -9.093e-6
-1.102, -9.093e-6
-1.101, -9.093e-6
-1.100, -9.093e-6
-1.099, -9.093e-6
-1.098, -9.093e-6
-1.097, -9.093e-6
-1.096, -9.093e-6
-1.095, -9.093e-6
-1.094, -9.093e-6
-1.093, -9.093e-6
-1.092, -9.093e-6
-1.091, -9.093e-6
-1.090, -9.093e-6
-1.089, -9.093e-6
-1.088, -9.093e-6
-1.087, -9.093e-6
-1.086, -9.093e-6
-1.085, -1.218e-5
-1.084, -9.093e-6
-1.083, -9.093e-6
-1.082, -9.093e-6
-1.081, -9.093e-6
-1.080, -9.093e-6
-1.079, -9.093e-6
-1.078, -9.093e-6
-1.077, -9.093e-6
-1.076, -9.093e-6
-1.075, -1.218e-5
-1.074, -1.218e-5
-1.073, -9.093e-6
-1.072, -1.218e-5
-1.071, -9.093e-6
-1.070, -9.093e-6
-1.069, -9.093e-6
-1.068, -9.093e-6
-1.067, -9.093e-6
-1.066, -9.093e-6
-1.065, -9.093e-6
-1.064, -9.093e-6
-1.063, -9.093e-6
-1.062, -9.093e-6
-1.061, -9.093e-6
-1.060, -9.093e-6
-1.059, -9.093e-6
-1.058, -1.218e-5
-1.057, -1.218e-5
-1.056, -1.218e-5
-1.055, -9.093e-6
-1.054, -1.218e-5
-1.053, -1.218e-5
-1.052, -1.218e-5
-1.051, -1.218e-5
-1.050, -9.093e-6
-1.049, -9.093e-6
-1.048, -1.218e-5
-1.047, -1.218e-5
-1.046, -9.093e-6
-1.045, -9.093e-6
-1.044, -1.218e-5
-1.043, -1.218e-5
-1.042, -1.218e-5
-1.041, -1.218e-5
-1.040, -9.093e-6
-1.039, -1.218e-5
-1.038, -9.093e-6
-1.037, -1.218e-5
-1.036, -1.218e-5
-1.035, -1.218e-5
-1.034, -1.218e-5
-1.033, -9.093e-6
-1.032, -1.218e-5
-1.031, -1.218e-5
-1.030, -9.093e-6
-1.029, -1.218e-5
-1.028, -1.218e-5
-1.027, -1.218e-5
-1.026, -1.218e-5
-1.025, -1.218e-5
-1.024, -1.218e-5
-1.023, -1.218e-5
-1.022, -1.218e-5
-1.021, -1.218e-5
-1.020, -1.218e-5
-1.019, -1.218e-5
-1.018, -1.218e-5
-1.017, -1.218e-5
-1.016, -1.218e-5
-1.015, -1.218e-5
-1.014, -9.093e-6
-1.013, -1.218e-5
-1.012, -1.218e-5
-1.011, -1.218e-5
-1.010, -1.218e-5
-1.009, -1.218e-5
-1.008, -1.218e-5
-1.007, -1.218e-5
-1.006, -1.218e-5
-1.005, -1.218e-5
-1.004, -1.218e-5
-1.003, -1.218e-5
-1.002, -1.218e-5
-1.001, -1.218e-5
