Potential V vs RHE, Current mA cm-2
0.05339999999999995,2.0782108995017388
0.05239999999999995,1.9904987989101068
0.051399999999999946,1.897127853119014
0.050399999999999945,1.822148154226167
0.049399999999999944,1.7542420118326456
0.04839999999999994,1.693409425938449
0.04739999999999994,1.6354062626439825
0.04639999999999994,1.5816472332491107
0.04539999999999994,1.5293029151541047
0.04439999999999994,1.4783733083589634
0.04339999999999994,1.4302731241635522
0.04239999999999994,1.383304709008033
0.04139999999999994,1.3383168896723248
0.040399999999999936,1.293470541466603
0.039399999999999935,1.2501803756907328
0.038399999999999934,1.2068902099148628
0.03739999999999993,1.1652976976988305
0.03639999999999993,1.1248369545226906
0.03539999999999993,1.0846591536065235
0.03439999999999993,1.0449057660803163
0.03339999999999993,1.0062841475940008
0.03239999999999993,0.9675210579776986
0.03139999999999993,0.9296067951413157
0.030399999999999927,0.8922584168248787
0.029399999999999926,0.8544856251184821
0.028399999999999925,0.8174201890620182
0.027399999999999924,0.7812035797854733
0.026399999999999924,0.7448454993789418
0.025399999999999923,0.7091947746223429
0.024399999999999922,0.673544049865744
0.02339999999999992,0.637893325109145
0.02239999999999992,0.6036573116524112
0.02139999999999992,0.5687139425457448
0.020399999999999918,0.5343364579590244
0.019399999999999917,0.5003833867622635
0.018399999999999916,0.46657178669548904
0.017399999999999916,0.4333260711486608
0.016399999999999915,0.40008035560183236
0.015399999999999914,0.3675419957049365
0.014399999999999913,0.3351451069380272
0.013399999999999912,0.3031726315610774
0.012399999999999911,0.27204898296404656
0.01139999999999991,0.24177416114693479
0.01039999999999991,0.21107492593986346
0.009399999999999908,0.18136598864269768
0.008399999999999908,0.15193999360550495
0.007399999999999907,0.12339111957422852
0.006399999999999906,0.09600230880884139
0.005399999999999905,0.06859935093045562
0.004399999999999904,0.04275257548192141
0.003399999999999903,0.01706141827637234
0.002399999999999902,-0.008938145992547301
0.0013999999999999013,-0.033457922241808116
0.00039999999999990044,-0.05763533835650159
-0.0006000000000001005,-0.08099222191727334
-0.0016000000000001013,-0.10318904221215577
-0.0026000000000001022,-0.12535756828104092
-0.003600000000000103,-0.14727144631595032
-0.004600000000000104,-0.16835064468393937
-0.005600000000000105,-0.1890054296619689
-0.006600000000000106,-0.2086699167300929
-0.007600000000000107,-0.22904175944814942
-0.008600000000000108,-0.2485647753862869
-0.009600000000000108,-0.26723896454450546
-0.01060000000000011,-0.28605462483271044
-0.01160000000000011,-0.30458734286094236
-0.012600000000000111,-0.32382741653910685
-0.013600000000000112,-0.3422186634373524
-0.014600000000000113,-0.35933667016571935
-0.015600000000000114,-0.3770205614140323
-0.016600000000000115,-0.3948459237923317
-0.017600000000000116,-0.4119639305206987
-0.018600000000000116,-0.42922340837905215
-0.019600000000000117,-0.4470487707573516
-0.020600000000000118,-0.465157075395624
-0.02160000000000012,-0.4841142068138156
-0.02260000000000012,-0.5029298671020205
-0.02360000000000012,-0.5223114119101716
-0.024600000000000122,-0.5431076680181876
-0.025600000000000123,-0.5640453952561902
-0.026600000000000124,-0.5856904781441251
-0.027600000000000124,-0.6071940899020738
-0.028600000000000125,-0.6291221150499817
-0.029600000000000126,-0.6513330824578628
-0.030600000000000127,-0.6728366942158115
-0.03160000000000013,-0.6953306038836656
-0.03260000000000013,-0.7161268599916816
-0.03360000000000013,-0.7373475294896572
-0.03460000000000002,-0.7589926123775922
-0.03560000000000002,-0.7796473973556217
-0.03660000000000002,-0.8003021823336512
-0.03760000000000002,-0.8206740250517078
-0.03860000000000002,-0.8404799832498183
-0.039600000000000024,-0.8597200569279828
-0.040600000000000025,-0.8789601306061473
-0.041600000000000026,-0.8973513775043926
-0.04260000000000003,-0.9163085089225843
-0.04360000000000003,-0.9345582846908432
-0.04460000000000003,-0.9530910027190752
-0.04560000000000003,-0.9720481341372668
-0.04660000000000003,-0.9902979099055255
-0.04760000000000003,-1.008972099063744
-0.04860000000000003,-1.027504817091976
-0.04960000000000003,-1.0460375351202083
-0.050600000000000034,-1.0644287820184537
-0.051600000000000035,-1.0838103268266046
-0.052600000000000036,-1.102767458244796
-0.053600000000000037,-1.1218660607929742
-0.05460000000000004,-1.140681721081179
-0.05560000000000004,-1.1597803236293571
-0.05660000000000004,-1.1787374550475485
-0.05760000000000004,-1.1972701730757807
-0.05860000000000004,-1.2159443622339992
-0.05960000000000004,-1.234477080262231
-0.06060000000000004,-1.2537171539403955
-0.061600000000000044,-1.2730986987485464
-0.06260000000000004,-1.291489945646792
-0.06360000000000005,-1.3107300193249565
-0.06460000000000005,-1.3298286218731346
-0.06560000000000005,-1.34821986877138
-0.06660000000000005,-1.3666111156696257
-0.06760000000000005,-1.385568247087817
-0.06860000000000005,-1.4041009651160488
-0.06960000000000005,-1.423199567664227
-0.07060000000000005,-1.4415908145624723
-0.07160000000000005,-1.459982061460718
-0.07260000000000005,-1.4783733083589634
-0.07360000000000005,-1.498179266557074
-0.07460000000000006,-1.5165705134553193
-0.07560000000000006,-1.5349617603535646
-0.07660000000000006,-1.5533530072518102
-0.07760000000000006,-1.5717442541500557
-0.07860000000000006,-1.5901355010483011
-0.07960000000000006,-1.6099414592464116
-0.08060000000000006,-1.6283327061446573
-0.08160000000000006,-1.6481386643427678
-0.08260000000000006,-1.6679446225408785
-0.08360000000000006,-1.6863358694391237
-0.08460000000000006,-1.7061418276372344
-0.08560000000000006,-1.7259477858353447
-0.08660000000000007,-1.7457537440334552
-0.08760000000000007,-1.7641449909317006
-0.08860000000000007,-1.7839509491298113
-0.08960000000000007,-1.8037569073279218
-0.09060000000000007,-1.8249775768258971
-0.09160000000000007,-1.8461982463238729
-0.09260000000000007,-1.8660042045219833
-0.09360000000000007,-1.8872248740199586
-0.09460000000000007,-1.9070308322180693
-0.09560000000000007,-1.9282515017160449
-0.09660000000000007,-1.9494721712140204
-0.09760000000000008,-1.9692781294121309
-0.09860000000000008,-1.9904987989101068
-0.09960000000000008,-2.011719468408082
-0.10060000000000008,-2.0329401379060577
-0.10160000000000008,-2.054160807404033
-0.10260000000000008,-2.0753814769020087
-0.10360000000000008,-2.0966021463999844
-0.10460000000000008,-2.11782281589796
-0.10560000000000008,-2.1404581966958003
-0.10660000000000008,-2.161678866193776
-0.10760000000000008,-2.1828995356917518
-0.10860000000000009,-2.205534916489592
-0.10960000000000009,-2.228170297287433
-0.11060000000000009,-2.249390966785408
-0.11160000000000009,-2.272026347583249
-0.11260000000000009,-2.2932470170812245
-0.11360000000000009,-2.3158823978790646
-0.11460000000000009,-2.3385177786769056
-0.11560000000000009,-2.362567870774611
-0.11660000000000009,-2.383788540272587
-0.1176000000000001,-2.4050092097705624
-0.1186000000000001,-2.427644590568403
-0.1196000000000001,-2.4502799713662435
-0.1206000000000001,-2.472915352164084
-0.1216000000000001,-2.4955507329619246
-0.1226000000000001,-2.518186113759765
-0.1236000000000001,-2.5408214945576058
-0.1246000000000001,-2.5620421640555815
-0.1256000000000001,-2.586092256153287
-0.1266000000000001,-2.6087276369511274
-0.1276000000000001,-2.631363017748968
-0.1286000000000001,-2.6539983985468085
-0.1296000000000001,-2.6780484906445143
-0.1306000000000001,-2.700683871442355
-0.1316000000000001,-2.7233192522401954
-0.1326000000000001,-2.7473693443379013
-0.1336000000000001,-2.7714194364356066
-0.1346000000000001,-2.794054817233447
-0.1356000000000001,-2.8166901980312877
-0.1366000000000001,-2.8393255788291283
-0.1376000000000001,-2.863375670926834
-0.1386000000000001,-2.88742576302454
-0.1396000000000001,-2.91289056642211
-0.1406000000000001,-2.9369406585198163
-0.14160000000000011,-2.9624054619173865
-0.14260000000000012,-2.9864555540150928
-0.14360000000000012,-3.0119203574126634
-0.14460000000000012,-3.0359704495103688
-0.14560000000000012,-3.0614352529079394
-0.14660000000000012,-3.08690005630551
-0.14760000000000012,-3.1123648597030806
-0.14860000000000012,-3.1364149518007864
-0.14960000000000012,-3.1632944664982214
-0.15060000000000012,-3.1887592698957925
-0.15160000000000012,-3.214224073293363
-0.15260000000000012,-3.2396888766909337
-0.15360000000000013,-3.2665683913883696
-0.15460000000000013,-3.2920331947859403
-0.15560000000000013,-3.3189127094833766
-0.15660000000000013,-3.3443775128809468
-0.15760000000000013,-3.371257027578382
-0.15860000000000013,-3.3981365422758185
-0.15960000000000002,-3.4250160569732535
-0.16060000000000002,-3.453310282970554
-0.16160000000000002,-3.4787750863681253
-0.16260000000000002,-3.507069312365426
-0.16360000000000002,-3.533948827062862
-0.16460000000000002,-3.5608283417602973
-0.16560000000000002,-3.590537279057463
-0.16660000000000003,-3.6216609276544935
-0.16760000000000003,-3.6499551536517942
-0.16860000000000003,-3.67966409094896
-0.16960000000000003,-3.7065436056463965
-0.17060000000000003,-3.734837831643697
-0.17160000000000003,-3.764546768940863
-0.17260000000000003,-3.794255706238028
-0.17360000000000003,-3.823964643535194
-0.17460000000000003,-3.85367358083236
-0.17560000000000003,-3.8833825181295256
-0.17660000000000003,-3.9130914554266916
-0.17760000000000004,-3.9428003927238575
-0.17860000000000004,-3.973924041320888
-0.17960000000000004,-4.003632978618054
-0.18060000000000004,-4.034756627215084
-0.18160000000000004,-4.065880275812115
-0.18260000000000004,-4.095589213109282
-0.18360000000000004,-4.126712861706312
-0.18460000000000004,-4.1564217990034775
-0.18560000000000004,-4.187545447600509
-0.18660000000000004,-4.218669096197539
-0.18760000000000004,-4.24979274479457
-0.18860000000000005,-4.279501682091736
-0.18960000000000005,-4.310625330688767
-0.19060000000000005,-4.3403342679859325
-0.19160000000000005,-4.371457916582963
-0.19260000000000005,-4.401166853880129
-0.19360000000000005,-4.430875791177296
-0.19460000000000005,-4.461999439774326
-0.19560000000000005,-4.491708377071491
-0.19660000000000005,-4.521417314368658
-0.19760000000000005,-4.551126251665823
-0.19860000000000005,-4.580835188962989
-0.19960000000000006,-4.6091294149602895
-0.20060000000000006,-4.638838352257455
-0.20160000000000006,-4.668547289554621
-0.20260000000000006,-4.696841515551922
-0.20360000000000006,-4.725135741549222
-0.20460000000000006,-4.753429967546523
-0.20560000000000006,-4.781724193543823
-0.20660000000000006,-4.810018419541125
-0.20760000000000006,-4.8383126455384255
-0.20860000000000006,-4.865192160235861
-0.20960000000000006,-4.892071674933297
-0.21060000000000006,-4.918951189630732
-0.21160000000000007,-4.9444159930283025
-0.21260000000000007,-4.971295507725738
-0.21360000000000007,-4.998175022423175
-0.21460000000000007,-5.023639825820745
-0.21560000000000007,-5.0491046292183155
-0.21660000000000007,-5.0745694326158866
-0.21760000000000007,-5.101448947313322
-0.21860000000000007,-5.126913750710893
-0.21960000000000007,-5.150963842808599
-0.22060000000000007,-5.175013934906304
-0.22160000000000007,-5.200478738303874
-0.22260000000000008,-5.223114119101715
-0.22360000000000008,-5.247164211199421
-0.22460000000000008,-5.269799591997262
-0.22560000000000008,-5.293849684094967
-0.22660000000000008,-5.316485064892808
-0.22760000000000008,-5.340535156990514
-0.22860000000000008,-5.3631705377883545
-0.22960000000000008,-5.385805918586194
-0.23060000000000008,-5.407026588084171
-0.23160000000000008,-5.4296619688820105
-0.23260000000000008,-5.452297349679851
-0.23360000000000009,-5.473518019177827
-0.2346000000000001,-5.4947386886758025
-0.2356000000000001,-5.515959358173778
-0.2366000000000001,-5.535765316371888
-0.2376000000000001,-5.555571274569999
-0.2386000000000001,-5.576791944067974
-0.2396000000000001,-5.59801261356595
-0.2406000000000001,-5.617818571764061
-0.2416000000000001,-5.637624529962172
-0.2426000000000001,-5.657430488160282
-0.2436000000000001,-5.677236446358393
-0.2446000000000001,-5.697042404556503
-0.2456000000000001,-5.715433651454749
-0.2466000000000001,-5.735239609652858
-0.2476000000000001,-5.753630856551104
-0.2486000000000001,-5.772022103449349
-0.2496000000000001,-5.788998639047731
-0.2506000000000001,-5.807389885945976
-0.2516000000000001,-5.8229517102444905
-0.2526000000000001,-5.841342957142737
-0.2536000000000001,-5.859734204040981
-0.2546000000000001,-5.8752960283394975
-0.2556000000000001,-5.892272563937878
-0.2566000000000001,-5.909249099536258
-0.2576000000000001,-5.924810923834773
-0.2586000000000001,-5.941787459433154
-0.2596000000000001,-5.957349283731669
-0.2606000000000001,-5.9729111080301855
-0.2616000000000001,-5.987058221028835
-0.2626000000000001,-6.001205334027486
-0.2636000000000001,-6.018181869625866
-0.2646000000000001,-6.033743693924381
-0.2656000000000001,-6.047890806923031
-0.2666000000000001,-6.062037919921682
-0.2676000000000001,-6.076185032920332
-0.2686000000000001,-6.090332145918983
-0.2696000000000001,-6.1044792589176335
-0.2706000000000001,-6.1186263719162834
-0.2716000000000001,-6.132773484914934
-0.2726000000000001,-6.145505886613719
-0.2736000000000001,-6.15965299961237
-0.2746000000000001,-6.172385401311155
-0.2756000000000001,-6.186532514309805
-0.2766000000000001,-6.199264916008591
-0.2776000000000001,-6.213412029007241
-0.2786000000000001,-6.226144430706027
-0.2796000000000001,-6.238876832404812
-0.2806000000000001,-6.253023945403462
-0.28160000000000013,-6.265756347102247
-0.28260000000000013,-6.279903460100898
-0.28360000000000013,-6.292635861799683
-0.2846,-6.305368263498468
-0.2856,-6.318100665197254
-0.2866,-6.330833066896039
-0.2876,-6.34498017989469
-0.2886,-6.357712581593474
-0.2896,-6.371859694592125
-0.2906,-6.384592096290911
-0.2916,-6.397324497989696
-0.2926,-6.411471610988346
-0.2936,-6.424204012687131
-0.29460000000000003,-6.438351125685783
-0.29560000000000003,-6.452498238684432
-0.29660000000000003,-6.466645351683083
-0.29760000000000003,-6.480792464681733
-0.29860000000000003,-6.494939577680383
-0.29960000000000003,-6.509086690679034
-0.30060000000000003,-6.523233803677684
-0.30160000000000003,-6.537380916676335
-0.30260000000000004,-6.5515280296749845
-0.30360000000000004,-6.565675142673635
-0.30460000000000004,-6.579822255672285
-0.30560000000000004,-6.593969368670936
-0.30660000000000004,-6.6095311929694525
-0.30760000000000004,-6.6236783059681015
-0.30860000000000004,-6.639240130266617
-0.30960000000000004,-6.653387243265268
-0.31060000000000004,-6.6689490675637835
-0.31160000000000004,-6.683096180562433
-0.31260000000000004,-6.698658004860949
-0.31360000000000005,-6.714219829159464
-0.31460000000000005,-6.729781653457979
-0.31560000000000005,-6.745343477756495
-0.31660000000000005,-6.7609053020550105
-0.31760000000000005,-6.776467126353525
-0.31860000000000005,-6.792028950652041
-0.31960000000000005,-6.809005486250422
-0.32060000000000005,-6.825982021848802
-0.32160000000000005,-6.841543846147317
-0.32260000000000005,-6.858520381745699
-0.32360000000000005,-6.874082206044213
-0.32460000000000006,-6.891058741642594
-0.32560000000000006,-6.906620565941108
-0.32660000000000006,-6.922182390239625
-0.32760000000000006,-6.939158925838006
-0.32860000000000006,-6.956135461436385
-0.32960000000000006,-6.973111997034766
-0.33060000000000006,-6.9915032439330105
-0.33160000000000006,-7.007065068231526
-0.33260000000000006,-7.024041603829907
-0.33360000000000006,-7.042432850728153
-0.33460000000000006,-7.059409386326533
-0.33560000000000006,-7.0763859219249134
-0.33660000000000007,-7.093362457523294
-0.33760000000000007,-7.111753704421539
-0.33860000000000007,-7.130144951319785
-0.33960000000000007,-7.147121486918166
-0.34060000000000007,-7.165512733816411
-0.34160000000000007,-7.183903980714656
-0.34260000000000007,-7.200880516313037
-0.34360000000000007,-7.217857051911418
-0.3446000000000001,-7.236248298809663
-0.3456000000000001,-7.254639545707908
-0.3466000000000001,-7.274445503906019
-0.34759999999999996,-7.291422039504399
-0.3486000000000001,-7.309813286402645
-0.34959999999999997,-7.32820453330089
-0.3506000000000001,-7.346595780199135
-0.35159999999999997,-7.363572315797517
-0.3526000000000001,-7.381963562695762
-0.35359999999999997,-7.400354809594007
-0.3546000000000001,-7.418746056492251
-0.35559999999999997,-7.437137303390498
-0.3566000000000001,-7.455528550288744
-0.3576,-7.473919797186989
-0.3586000000000001,-7.492311044085233
-0.3596,-7.5092875796836145
-0.3606000000000001,-7.52767882658186
-0.3616,-7.546070073480105
-0.3626000000000001,-7.564461320378352
-0.3636,-7.582852567276596
-0.3646000000000001,-7.6012438141748415
-0.3656,-7.621049772372953
-0.3666000000000001,-7.638026307971333
-0.3676,-7.656417554869579
-0.3686000000000001,-7.674808801767824
-0.3696,-7.693200048666069
-0.3706000000000001,-7.711591295564315
-0.3716,-7.729982542462561
-0.3726000000000001,-7.748373789360806
-0.3736,-7.766765036259051
-0.3746000000000001,-7.7837415718574325
-0.3756,-7.802132818755678
-0.3766000000000001,-7.820524065653922
-0.3776,-7.838915312552168
-0.3786000000000001,-7.855891848150549
-0.3796,-7.87286838374893
-0.3806000000000001,-7.889844919347309
-0.3816,-7.9082361662455565
-0.3826000000000001,-7.925212701843934
-0.3836,-7.945018660042045
-0.3846000000000001,-7.961995195640427
-0.3856,-7.978971731238807
-0.3866000000000001,-7.995948266837187
-0.3876,-8.012924802435567
-0.3886000000000001,-8.029901338033948
-0.3896,-8.046877873632328
-0.3906000000000001,-8.063854409230709
-0.3916,-8.080830944829088
-0.3926000000000001,-8.099222191727335
-0.3936,-8.116198727325715
-0.3946000000000001,-8.133175262924096
-0.3956,-8.150151798522476
-0.3966000000000001,-8.167128334120857
-0.3976,-8.184104869719237
-0.3986000000000001,-8.199666694017752
-0.3996,-8.216643229616132
-0.4006000000000001,-8.235034476514379
-0.4016,-8.250596300812894
-0.4026000000000001,-8.26898754771114
-0.4036,-8.28596408330952
-0.4046000000000001,-8.301525907608035
-0.4056,-8.318502443206416
-0.40660000000000013,-8.335478978804796
-0.4076,-8.351040803103311
-0.40860000000000013,-8.369432050001556
-0.4096,-8.386408585599938
-0.41060000000000013,-8.403385121198317
-0.4116,-8.418946945496833
-0.41260000000000013,-8.435923481095214
-0.4136,-8.45431472799346
-0.41460000000000014,-8.47129126359184
-0.4156,-8.48826779919022
-0.41660000000000014,-8.5052443347886
-0.4176,-8.522220870386981
-0.41860000000000014,-8.540612117285226
-0.41960000000000003,-8.557588652883606
-0.42060000000000014,-8.575979899781853
-0.42160000000000003,-8.592956435380232
-0.42260000000000014,-8.61134768227848
-0.42360000000000003,-8.628324217876859
-0.42460000000000014,-8.646715464775104
-0.42560000000000003,-8.66510671167335
-0.42660000000000015,-8.686327381171324
-0.42760000000000004,-8.7075480506693
-0.42860000000000015,-8.72452458626768
-0.42960000000000004,-8.744330544465791
-0.43060000000000015,-8.762721791364037
-0.43160000000000004,-8.779698326962418
-0.43260000000000015,-8.798089573860663
-0.43360000000000004,-8.815066109459044
-0.43460000000000015,-8.833457356357288
-0.43560000000000004,-8.851848603255535
-0.43660000000000015,-8.87023985015378
-0.43760000000000004,-8.888631097052025
-0.43860000000000016,-8.907022343950272
-0.43960000000000005,-8.925413590848516
-0.44060000000000016,-8.945219549046627
-0.44160000000000005,-8.963610795944874
-0.44260000000000016,-8.982002042843117
-0.44360000000000005,-9.001808001041228
-0.44460000000000016,-9.020199247939473
-0.44560000000000005,-9.04141991743745
-0.44660000000000016,-9.061225875635559
-0.44760000000000005,-9.08103183383367
-0.44860000000000017,-9.100837792031781
-0.44960000000000006,-9.119229038930026
-0.45060000000000017,-9.140449708428003
-0.45160000000000006,-9.161670377925978
-0.45260000000000017,-9.182891047423954
-0.45360000000000006,-9.202697005622065
-0.45460000000000017,-9.218258829920579
-0.45560000000000006,-9.239479499418556
