Potential V vs RHE, Current mA cm-2
0.013299999999999867,0.4776065348344364
0.012299999999999978,-0.7001406223032067
0.011299999999999866,-1.4854468648582886
0.010299999999999976,-2.095187435100119
0.009299999999999864,-2.618630616050183
0.008299999999999974,-3.0996324580042955
0.007299999999999862,-3.447651437771094
0.006299999999999972,-3.7093730282461257
0.00529999999999986,-3.927238568425342
0.0042999999999999705,-4.146518819904423
0.0032999999999998586,-4.364384360083638
0.0022999999999999687,-4.626105950558669
0.0012999999999998568,-4.843971490737885
0.00029999999999996696,-5.017980980621284
-0.000700000000000145,-5.149549131508733
-0.0017000000000000348,-5.279702571096316
-0.0027000000000001467,-5.411270721983764
-0.0037000000000000366,-5.585280211867165
-0.0047000000000001485,-5.759289701750564
-0.005700000000000038,-5.9347139029338285
-0.00670000000000015,-6.021011292225596
-0.00770000000000004,-6.152579443113044
-0.008700000000000152,-6.238876832404812
-0.009700000000000042,-6.37044498329226
-0.010700000000000154,-6.54445447317566
-0.011700000000000044,-6.762320013354876
-0.012700000000000156,-6.850032113946507
-0.013700000000000045,-6.93774421453814
-0.014700000000000157,-7.067897654125724
-0.015700000000000047,-7.155609754717355
-0.01670000000000016,-7.28576319430494
-0.01770000000000005,-7.461187395488204
-0.01870000000000016,-7.635196885371603
-0.01970000000000005,-7.7653503249591855
-0.020700000000000163,-7.809206375255003
-0.021700000000000053,-7.896918475846635
-0.022700000000000164,-8.027071915434218
-0.023700000000000054,-8.158640066321666
-0.024700000000000166,-8.332649556205066
-0.025700000000000056,-8.508073757388331
-0.026700000000000168,-8.594371146680096
-0.027700000000000058,-8.725939297567548
-0.02870000000000017,-8.769795347863363
-0.02970000000000006,-8.899948787450944
-0.03070000000000017,-9.073958277334345
-0.03170000000000006,-9.24938247851761
-0.03270000000000017,-9.423391968401008
-0.03370000000000006,-9.511104068992642
-0.034700000000000175,-9.59740145828441
-0.035700000000000065,-9.728969609171857
-0.03670000000000018,-9.85912304875944
-0.03770000000000007,-10.034547249942705
-0.03870000000000018,-10.208556739826104
-0.03970000000000007,-10.340124890713554
-0.04070000000000018,-10.470278330301136
-0.04170000000000007,-10.557990430892769
-0.04270000000000018,-10.688143870480351
-0.04370000000000007,-10.863568071663616
-0.044700000000000184,-11.037577561547016
-0.045700000000000074,-11.211587051430415
-0.046700000000000186,-11.299299152022046
-0.047700000000000076,-11.42945259160963
-0.04870000000000019,-11.517164692201263
-0.04970000000000008,-11.647318131788847
-0.05070000000000019,-11.82274233297211
-0.05170000000000008,-12.040607873151327
-0.05270000000000019,-12.214617363034726
-0.05370000000000008,-12.346185513922174
-0.05470000000000019,-12.432482903213943
-0.05570000000000008,-12.520195003805576
-0.056700000000000195,-12.651763154693022
-0.057700000000000085,-12.825772644576423
-0.058700000000000196,-12.99978213445982
-0.059700000000000086,-13.175206335643086
-0.0607000000000002,-13.261503724934855
-0.06170000000000009,-13.3930718758223
-0.0627000000000002,-13.523225315409885
-0.06370000000000009,-13.698649516593148
-0.0647000000000002,-13.916515056772363
-0.06570000000000009,-14.046668496359947
-0.0667000000000002,-14.175407224647667
-0.0677000000000001,-14.30273124163552
-0.0687000000000002,-14.401761032626075
-0.0697000000000001,-14.57152638860988
-0.07070000000000021,-14.69885040559773
-0.0717000000000001,-14.868615761581536
-0.07270000000000021,-15.05252823056399
-0.0737000000000001,-15.137410908555893
-0.07470000000000021,-15.222293586547794
-0.0757000000000001,-15.307176264539699
-0.07670000000000021,-15.491088733522153
-0.0777000000000001,-15.660854089505953
-0.07870000000000021,-15.830619445489761
-0.0797000000000001,-16.014531914472215
-0.08070000000000022,-16.099414592464115
-0.0817000000000001,-16.22673860945197
-0.08270000000000022,-16.354062626439823
-0.08370000000000011,-16.53797509542228
-0.08470000000000022,-16.70774045140608
-0.08570000000000011,-16.919947146385837
-0.08670000000000022,-17.061418276372343
-0.08770000000000011,-17.103859615368293
-0.08870000000000022,-17.188742293360193
-0.08970000000000011,-17.316066310348052
-0.09070000000000022,-17.4433903273359
-0.09170000000000011,-17.627302796318357
-0.09270000000000023,-17.75462681330621
-0.09370000000000012,-17.839509491298113
-0.09470000000000023,-17.924392169290012
-0.09570000000000012,-18.06586329927652
-0.09670000000000023,-18.19318731626437
-0.09770000000000012,-18.362952672248177
-0.09870000000000023,-18.53271802823198
-0.09970000000000012,-18.674189158218486
-0.10070000000000023,-18.759071836210385
-0.10170000000000012,-18.80151317520634
-0.10270000000000024,-18.92883719219419
-0.10370000000000013,-19.01371987018609
-0.10470000000000024,-19.2400736781645
-0.10570000000000013,-19.367397695152352
-0.10670000000000024,-19.49472171214021
-0.10770000000000013,-19.636192842126707
-0.10870000000000024,-19.721075520118614
-0.10970000000000013,-19.848399537106463
-0.11070000000000024,-20.01816489309027
-0.11170000000000013,-20.159636023076775
-0.11270000000000002,-20.286960040064624
-0.11370000000000013,-20.414284057052477
-0.11470000000000002,-20.456725396048434
-0.11570000000000014,-20.541608074040333
-0.11670000000000003,-20.683079204026836
-0.11770000000000014,-20.85284456001064
-0.11870000000000003,-21.022609915994444
-0.11970000000000014,-21.149933932982297
-0.12070000000000003,-21.291405062968803
-0.12170000000000014,-21.333846401964752
-0.12270000000000003,-21.461170418952605
-0.12370000000000014,-21.63093577493641
-0.12470000000000003,-21.772406904922917
-0.12570000000000014,-21.94217226090672
-0.12670000000000003,-22.069496277894572
-0.12770000000000015,-22.15437895588647
-0.12870000000000004,-22.253408746877028
-0.12970000000000015,-22.33829142486893
-0.13070000000000004,-22.550498119848687
-0.13170000000000015,-22.776851927827092
-0.13270000000000004,-22.946617283810895
-0.13370000000000015,-23.031499961802798
-0.13470000000000004,-23.1163826397947
-0.13570000000000015,-23.2012653177866
-0.13670000000000004,-23.342736447773106
-0.13770000000000016,-23.51250180375691
-0.13870000000000005,-23.682267159740714
-0.13970000000000016,-23.908620967719123
-0.14070000000000005,-23.993503645711023
-0.14170000000000016,-24.120827662698876
-0.14270000000000005,-24.290593018682678
-0.14370000000000016,-24.432064148669184
-0.14470000000000005,-24.64427084364894
-0.14570000000000016,-24.814036199632742
-0.14670000000000005,-24.997948668615198
-0.14770000000000016,-25.12527268560305
-0.14870000000000005,-25.210155363594954
-0.14970000000000017,-25.39406783257741
-0.15070000000000006,-25.563833188561212
-0.15170000000000017,-25.77603988354097
-0.15270000000000006,-25.91751101352747
-0.15370000000000017,-26.087276369511276
-0.15470000000000006,-26.17215904750318
-0.15570000000000017,-26.34192440348698
-0.15670000000000006,-26.525836872469437
-0.15770000000000017,-26.738043567449193
-0.15870000000000006,-26.9643973754276
-0.15970000000000018,-27.091721392415455
-0.16070000000000007,-27.261486748399253
-0.16170000000000018,-27.38881076538711
-0.16270000000000007,-27.530281895373616
-0.16370000000000018,-27.700047251357418
-0.16470000000000007,-27.954695285333123
-0.16570000000000018,-28.22349043230748
-0.16670000000000007,-28.393255788291288
-0.16770000000000018,-28.619609596269694
-0.16870000000000007,-28.746933613257543
-0.16970000000000018,-28.959140308237306
-0.17070000000000007,-29.22793545521166
-0.17170000000000019,-29.440142150191413
-0.17270000000000008,-29.66649595816982
-0.1737000000000002,-29.836261314153624
-0.17470000000000008,-30.00602667013743
-0.1757000000000002,-30.147497800123933
-0.17670000000000008,-30.402145834099635
-0.1777000000000002,-30.670940981073993
-0.17870000000000008,-30.88314767605375
-0.1797000000000002,-31.137795710029454
-0.18070000000000008,-31.36414951800786
-0.1817000000000002,-31.533914873991666
-0.18270000000000008,-31.76026868197007
-0.1837000000000002,-32.01491671594578
-0.1847000000000001,-32.32615320191609
-0.1857000000000002,-32.58080123589179
-0.1867000000000001,-32.84959638286615
-0.1877000000000002,-33.01936173884996
-0.1887000000000001,-33.18912709483376
-0.1897000000000002,-33.373039563816214
-0.1907000000000001,-33.670128936787876
-0.1917000000000001,-33.93892408376223
-0.19269999999999998,-34.236013456733886
-0.1937000000000001,-34.462367264712285
-0.19469999999999998,-34.632132620696105
-0.1957000000000001,-34.85848642867451
-0.19669999999999999,-35.11313446265021
-0.1977000000000001,-35.42437094862052
-0.1987,-35.721460321592176
-0.1997000000000001,-36.03269680756248
-0.2007,-36.244903502542236
-0.2017000000000001,-36.5136986495166
-0.2027,-36.768346683492304
-0.2037000000000001,-37.037141830466666
-0.2047,-37.334231203438314
-0.2057000000000001,-37.60302635041268
-0.2067,-37.85767438438838
-0.2077000000000001,-38.04158685337084
-0.2087,-38.253793548350586
-0.2097000000000001,-38.5650300343209
-0.2107,-38.86211940729255
-0.2117000000000001,-39.173355893262865
-0.2127,-39.38556258824262
-0.2137000000000001,-39.61191639622103
-0.2147,-39.82412309120078
-0.2157000000000001,-40.092918238175145
-0.2167,-40.34756627215084
-0.21770000000000012,-40.701244097117105
-0.2187,-41.083216148080666
-0.21970000000000012,-41.43689397304693
-0.2207,-41.70568912002128
-0.22170000000000012,-41.87545447600508
-0.2227,-42.130102509980794
-0.22370000000000012,-42.39889765695515
-0.2247,-42.6111043519349
-0.22570000000000012,-42.837458159913304
-0.2267,-42.96478217690117
-0.22770000000000012,-43.09210619388902
-0.22870000000000001,-43.27601866287147
-0.22970000000000013,-43.53066669684718
-0.23070000000000002,-43.84190318281749
-0.23170000000000013,-44.181433894785094
-0.23270000000000002,-44.535111719751356
-0.23370000000000013,-44.84634820572166
-0.23470000000000002,-45.10099623969737
-0.23570000000000013,-45.36979138667173
-0.23670000000000002,-45.581998081651484
-0.2376999999999999,-45.85079322862584
-0.23870000000000002,-46.10544126260155
-0.2396999999999999,-46.3176479575813
-0.24070000000000003,-46.501560426563756
-0.24169999999999991,-46.67132578254756
-0.24270000000000003,-46.88353247752732
-0.24369999999999992,-47.19476896349763
-0.24470000000000003,-47.46356411047198
-0.24569999999999992,-47.71821214444768
-0.24670000000000003,-47.8879775004315
-0.24769999999999992,-48.071889969413945
-0.24870000000000003,-48.24165532539775
-0.24969999999999992,-48.41142068138156
-0.25070000000000003,-48.63777448935996
-0.2516999999999999,-48.84998118433972
-0.25270000000000004,-49.076334992318124
-0.2536999999999999,-49.28854168729788
-0.25470000000000004,-49.50074838227763
-0.2556999999999999,-49.642219512264134
-0.25670000000000004,-49.76954352925199
-0.25769999999999993,-49.939308885235796
-0.25870000000000004,-50.12322135421825
-0.25969999999999993,-50.29298671020206
-0.26070000000000004,-50.37786938819396
-0.26169999999999993,-50.50519340518181
-0.26270000000000004,-50.64666453516831
-0.26369999999999993,-50.81642989115212
-0.26470000000000005,-50.98619524713592
-0.26569999999999994,-51.17010771611838
-0.26670000000000005,-51.29743173310623
-0.26769999999999994,-51.33987307210218
-0.26870000000000005,-51.424755750094086
-0.26969999999999994,-51.509638428085985
-0.27070000000000005,-51.594521106077885
-0.27169999999999994,-51.69355089706845
-0.27270000000000005,-51.73599223606439
-0.27369999999999994,-51.77843357506035
-0.27470000000000006,-51.77843357506035
-0.27569999999999995,-51.73599223606439
-0.27670000000000006,-51.77843357506035
-0.27769999999999995,-51.86331625305225
-0.27870000000000006,-51.948198931044146
-0.27969999999999995,-52.033081609036046
-0.28070000000000006,-52.075522948032
-0.28169999999999995,-52.11796428702795
-0.28270000000000006,-52.17455273902255
-0.28369999999999995,-52.25943541701445
-0.28470000000000006,-52.34431809500636
-0.28569999999999995,-52.34431809500636
-0.28670000000000007,-52.30187675601041
-0.28769999999999996,-52.17455273902255
-0.28870000000000007,-52.033081609036046
-0.28969999999999996,-51.90575759204819
-0.29070000000000007,-51.82087491405629
-0.29169999999999996,-51.82087491405629
-0.29270000000000007,-51.82087491405629
-0.29369999999999996,-51.82087491405629
-0.2947000000000001,-51.73599223606439
-0.29569999999999996,-51.69355089706845
-0.2967000000000001,-51.65110955807249
-0.29769999999999996,-51.55207976708194
-0.2987000000000001,-51.424755750094086
-0.29969999999999997,-51.29743173310623
-0.3007000000000001,-51.028636586131874
-0.30169999999999997,-50.77398855215617
-0.3027000000000001,-50.547634744177756
-0.30369999999999997,-50.335428049198
-0.3047000000000001,-50.1656626932142
-0.30569999999999997,-50.0807800152223
-0.3067000000000001,-49.89686754623985
-0.3077,-49.72710219025603
-0.3087000000000001,-49.557336834272235
-0.3097,-49.41586570428573
-0.3107000000000001,-49.28854168729788
-0.3117,-49.20365900930597
-0.3127000000000001,-48.97730520132757
-0.3137,-48.72265716735186
-0.3147000000000001,-48.41142068138156
-0.3157,-48.071889969413945
-0.3167000000000001,-47.80309482243959
-0.3177,-47.54844678846388
-0.3187000000000001,-47.23721030249357
-0.3197,-46.94012092952192
-0.3207000000000001,-46.628884443551605
-0.3217,-46.27520661858535
-0.3227000000000001,-45.97811724561369
-0.3237,-45.75176343763528
-0.3247000000000001,-45.497115403659585
-0.3257,-45.27076159568118
-0.3267000000000001,-45.01611356170547
-0.3277,-44.66243573673921
-0.3287000000000001,-44.36534636376755
-0.3297,-44.054109877797245
-0.3307000000000001,-43.79946184382153
-0.3317,-43.57310803584313
-0.3327000000000001,-43.31846000186743
-0.3337,-43.007223515897124
-0.3347000000000001,-42.653545690930855
-0.3357,-42.2715736399673
-0.3367000000000001,-41.87545447600508
-0.3377,-41.56421799003478
-0.3387000000000001,-41.267128617063115
-0.3397,-40.95589213109281
-0.3407000000000001,-40.65880275812115
-0.3417,-40.34756627215084
-0.3427000000000001,-40.092918238175145
-0.3437,-39.86656443019674
-0.3447000000000001,-39.696799074212926
-0.3457,-39.47044526623452
-0.3467000000000001,-39.21579723225882
-0.3477,-38.94700208528445
-0.3487000000000001,-38.6499127123128
-0.3497,-38.38111756533845
-0.3507000000000001,-38.211352209354644
-0.3517,-38.04158685337084
-0.3527000000000001,-37.90011572338433
-0.3537,-37.687909028404576
-0.3547000000000001,-37.47570233342482
-0.3557,-37.249348525446415
-0.35670000000000013,-37.07958316946261
-0.3577,-36.95225915247476
-0.35870000000000013,-36.81078802248826
-0.3597,-36.6834640055004
-0.36070000000000013,-36.5136986495166
-0.3617,-36.329786180534136
-0.3626999999999999,-36.20246216354629
-0.3637,-36.11757948555439
-0.3646999999999999,-36.07513814655844
-0.3657,-36.03269680756248
-0.3666999999999999,-35.94781412957058
-0.3677,-35.806342999584075
-0.3686999999999999,-35.679018982596226
-0.36970000000000003,-35.636577643600276
-0.3706999999999999,-35.636577643600276
-0.37170000000000003,-35.679018982596226
-0.3726999999999999,-35.721460321592176
-0.37370000000000003,-35.763901660588125
-0.3746999999999999,-35.763901660588125
-0.37570000000000003,-35.763901660588125
-0.3766999999999999,-35.806342999584075
-0.37770000000000004,-35.848784338580025
-0.3786999999999999,-35.90537279057463
-0.37970000000000004,-35.94781412957058
-0.3806999999999999,-35.94781412957058
-0.38170000000000004,-35.94781412957058
-0.38269999999999993,-35.99025546856653
-0.38370000000000004,-36.07513814655844
-0.38469999999999993,-36.20246216354629
-0.38570000000000004,-36.329786180534136
-0.38669999999999993,-36.47125731052064
-0.38770000000000004,-36.55613998851254
-0.38869999999999993,-36.5985813275085
-0.38970000000000005,-36.6834640055004
-0.39069999999999994,-36.89567070048016
-0.39170000000000005,-37.122024508458566
-0.39269999999999994,-37.334231203438314
-0.39370000000000005,-37.56058501141672
-0.39469999999999994,-37.73035036740053
-0.39570000000000005,-37.90011572338433
-0.39669999999999994,-38.08402819236679
-0.39770000000000005,-38.29623488734655
-0.39869999999999994,-38.46600024333035
-0.39970000000000006,-38.6499127123128
-0.40069999999999995,-38.81967806829661
-0.40170000000000006,-38.98944342428042
-0.40269999999999995,-39.173355893262865
-0.40370000000000006,-39.42800392723857
-0.40469999999999995,-39.696799074212926
-0.40570000000000006,-39.95144710818864
-0.40669999999999995,-40.177800916167044
-0.40770000000000006,-40.3900076111468
-0.40869999999999995,-40.559772967130606
-0.40970000000000006,-40.78612677510901
-0.41069999999999995,-41.04077480908471
-0.41170000000000007,-41.352011295055014
-0.41269999999999996,-41.606659329030734
-0.41370000000000007,-41.87545447600508
-0.41469999999999996,-42.130102509980794
-0.41570000000000007,-42.39889765695515
-0.41669999999999996,-42.653545690930855
-0.41770000000000007,-42.96478217690117
-0.41869999999999996,-43.27601866287147
-0.4197000000000001,-43.53066669684718
-0.42069999999999996,-43.79946184382153
-0.4217000000000001,-44.011668538801295
-0.42269999999999996,-44.223875233781044
-0.4237000000000001,-44.535111719751356
-0.42469999999999997,-44.84634820572166
-0.4257000000000001,-45.18587891768927
-0.42669999999999997,-45.45467406466363
-0.4277000000000001,-45.70932209863933
-0.42869999999999997,-45.97811724561369
-0.4297000000000001,-46.19032394059345
-0.43069999999999997,-46.544001765559706
-0.4317000000000001,-46.84109113853137
-0.4327,-47.15232762450167
-0.4337000000000001,-47.36453431948143
-0.4347,-47.54844678846388
-0.4357000000000001,-47.76065348344364
-0.4367,-48.071889969413945
-0.4377000000000001,-48.36897934238561
-0.4387,-48.68021582835591
-0.4397000000000001,-48.93486386233162
-0.4407,-49.16121767031002
-0.4417000000000001,-49.373424365289786
-0.4427,-49.59977817326819
-0.4437000000000001,-49.89686754623985
-0.4447,-50.20810403221015
-0.4457000000000001,-50.46275206618586
-0.4467,-50.77398855215617
-0.4477000000000001,-50.98619524713592
-0.4487,-51.21254905511432
-0.4497000000000001,-51.46719708909004
-0.4507,-51.77843357506035
-0.4517000000000001,-52.075522948032
-0.4527,-52.34431809500636
-0.4537000000000001,-52.59896612898206
-0.4547,-52.82531993696047
-0.4557000000000001,-52.995085292944275
-0.4567,-53.30632177891458
-0.4577000000000001,-53.603411151886235
-0.4587,-53.9570889768525
-0.4597000000000001,-54.26832546282281
-0.4607,-54.56541483579447
-0.4617000000000001,-54.876651321764776
-0.4627,-55.21618203373238
-0.4637000000000001,-55.612301197694585
-0.4647,-56.093303039648696
-0.4657000000000001,-56.57430488160282
-0.4667,-57.012865384560975
-0.4677000000000001,-57.493867226515086
-0.4687,-57.974869068469204
-0.4697000000000001,-58.583194927411164
-0.4707,-59.27640346434504
-0.4717000000000001,-60.11108313126541
-0.4727,-60.974057024183075
-0.4737000000000001,-61.89361936909536
-0.4747,-62.89806439199953
-0.4757000000000001,-64.0722747708875
-0.4767,-65.34551494076604
-0.4777000000000001,-66.73193201463377
-0.4787,-68.34470289647993
-0.4797000000000001,-70.14138624730852
-0.4807,-72.10783495412092
-0.48170000000000013,-74.24404901691713
-0.4827,-76.42270441870929
-0.48370000000000013,-78.68624249849334
-0.4847,-81.13369304725985
-0.48570000000000013,-83.66602627401826
-0.4867,-85.17976736487385
-0.48570000000000013,-85.32123849486035
-0.4847,-85.80224033681448
-0.48370000000000013,-86.36812485676049
-0.4827,-86.93400937670651
-0.48170000000000013,-87.41501121866061
-0.4807,-87.75454193062824
-0.4797000000000001,-88.06577841659853
-0.4787,-88.23554377258235
-0.4777000000000001,-88.37701490256885
-0.4767,-88.5043389195567
-0.4757000000000001,-88.54678025855264
-0.4747,-88.5892215975486
-0.4737000000000001,-88.5892215975486
-0.4727,-88.5043389195567
-0.4717000000000001,-88.27798511157829
-0.4707,-88.02333707760259
-0.4697000000000001,-87.66965925263632
-0.4687,-87.33012854066871
-0.4677000000000001,-86.93400937670651
-0.4667,-86.32568351776455
-0.4657000000000001,-85.66076920682796
-0.4647,-85.01000200889004
-0.4637000000000001,-84.31679347195619
-0.4627,-83.66602627401826
