Dec. 24, 2024   18:19:15
Cyclic Voltammetry
File: c:/users/guazh/data/banditlqround7_x0exp136_r20/2024-12-24-exp730\exp730-2024-12-24t18_10_29-h2koh\exp730_cv_50mvs_efin_-1600mv.bin
Data Source:  Experiment
Instrument Model:  CHI760E
Header: CV ran at 50 mVs
Note: 

Init E (V) = -1
High E (V) = -1
Low E (V) = -1.6
Final E (V) = -1
Init P/N = N
Scan Rate (V/s) = 0.05
Segment = 7
Sample Interval (V) = 0.001
Quiet Time (sec) = 60
Sensitivity (A/V) = 0.001
Comp R (ohm) = 1.2

Results:

Channel 1:
Segment 1:

Segment 2:

Segment 3:

Segment 4:

Segment 5:

Segment 6:

Segment 7:

Potential/V, Current/A

-1.000, 1.928e-6
-1.001, 2.950e-6
-1.002, 3.217e-6
-1.003, 3.208e-6
-1.004, 3.414e-6
-1.005, 3.769e-6
-1.006, 4.086e-6
-1.007, 4.106e-6
-1.008, 4.065e-6
-1.009, 4.236e-6
-1.010, 4.557e-6
-1.011, 4.791e-6
-1.012, 4.856e-6
-1.013, 4.778e-6
-1.014, 4.911e-6
-1.015, 5.237e-6
-1.016, 5.523e-6
-1.017, 5.570e-6
-1.018, 5.532e-6
-1.019, 5.676e-6
-1.020, 6.004e-6
-1.021, 6.309e-6
-1.022, 6.412e-6
-1.023, 6.352e-6
-1.024, 6.565e-6
-1.025, 6.895e-6
-1.026, 7.295e-6
-1.027, 7.356e-6
-1.028, 7.375e-6
-1.029, 7.603e-6
-1.030, 7.950e-6
-1.031, 8.398e-6
-1.032, 8.497e-6
-1.033, 8.537e-6
-1.034, 8.815e-6
-1.035, 9.189e-6
-1.036, 9.660e-6
-1.037, 9.832e-6
-1.038, 9.841e-6
-1.039, 1.019e-5
-1.040, 1.062e-5
-1.041, 1.114e-5
-1.042, 1.127e-5
-1.043, 1.138e-5
-1.044, 1.170e-5
-1.045, 1.219e-5
-1.046, 1.271e-5
-1.047, 1.287e-5
-1.048, 1.297e-5
-1.049, 1.332e-5
-1.050, 1.385e-5
-1.051, 1.430e-5
-1.052, 1.450e-5
-1.053, 1.460e-5
-1.054, 1.488e-5
-1.055, 1.545e-5
-1.056, 1.585e-5
-1.057, 1.602e-5
-1.058, 1.608e-5
-1.059, 1.632e-5
-1.060, 1.679e-5
-1.061, 1.723e-5
-1.062, 1.733e-5
-1.063, 1.734e-5
-1.064, 1.758e-5
-1.065, 1.800e-5
-1.066, 1.847e-5
-1.067, 1.853e-5
-1.068, 1.851e-5
-1.069, 1.870e-5
-1.070, 1.915e-5
-1.071, 1.960e-5
-1.072, 1.962e-5
-1.073, 1.962e-5
-1.074, 1.981e-5
-1.075, 2.034e-5
-1.076, 2.068e-5
-1.077, 2.075e-5
-1.078, 2.068e-5
-1.079, 2.093e-5
-1.080, 2.134e-5
-1.081, 2.170e-5
-1.082, 2.181e-5
-1.083, 2.170e-5
-1.084, 2.188e-5
-1.085, 2.236e-5
-1.086, 2.268e-5
-1.087, 2.273e-5
-1.088, 2.262e-5
-1.089, 2.281e-5
-1.090, 2.321e-5
-1.091, 2.353e-5
-1.092, 2.355e-5
-1.093, 2.337e-5
-1.094, 2.353e-5
-1.095, 2.394e-5
-1.096, 2.422e-5
-1.097, 2.413e-5
-1.098, 2.405e-5
-1.099, 2.409e-5
-1.100, 2.443e-5
-1.101, 2.477e-5
-1.102, 2.459e-5
-1.103, 2.445e-5
-1.104, 2.448e-5
-1.105, 2.479e-5
-1.106, 2.506e-5
-1.107, 2.483e-5
-1.108, 2.467e-5
-1.109, 2.462e-5
-1.110, 2.498e-5
-1.111, 2.518e-5
-1.112, 2.492e-5
-1.113, 2.467e-5
-1.114, 2.473e-5
-1.115, 2.494e-5
-1.116, 2.507e-5
-1.117, 2.482e-5
-1.118, 2.453e-5
-1.119, 2.455e-5
-1.120, 2.469e-5
-1.121, 2.484e-5
-1.122, 2.456e-5
-1.123, 2.419e-5
-1.124, 2.416e-5
-1.125, 2.431e-5
-1.126, 2.440e-5
-1.127, 2.413e-5
-1.128, 2.369e-5
-1.129, 2.361e-5
-1.130, 2.380e-5
-1.131, 2.383e-5
-1.132, 2.345e-5
-1.133, 2.308e-5
-1.134, 2.299e-5
-1.135, 2.311e-5
-1.136, 2.311e-5
-1.137, 2.267e-5
-1.138, 2.229e-5
-1.139, 2.216e-5
-1.140, 2.224e-5
-1.141, 2.228e-5
-1.142, 2.178e-5
-1.143, 2.138e-5
-1.144, 2.120e-5
-1.145, 2.122e-5
-1.146, 2.123e-5
-1.147, 2.067e-5
-1.148, 2.020e-5
-1.149, 2.000e-5
-1.150, 2.001e-5
-1.151, 1.993e-5
-1.152, 1.933e-5
-1.153, 1.886e-5
-1.154, 1.865e-5
-1.155, 1.861e-5
-1.156, 1.851e-5
-1.157, 1.799e-5
-1.158, 1.741e-5
-1.159, 1.728e-5
-1.160, 1.726e-5
-1.161, 1.717e-5
-1.162, 1.670e-5
-1.163, 1.624e-5
-1.164, 1.608e-5
-1.165, 1.619e-5
-1.166, 1.609e-5
-1.167, 1.572e-5
-1.168, 1.528e-5
-1.169, 1.517e-5
-1.170, 1.537e-5
-1.171, 1.536e-5
-1.172, 1.499e-5
-1.173, 1.463e-5
-1.174, 1.455e-5
-1.175, 1.480e-5
-1.176, 1.482e-5
-1.177, 1.454e-5
-1.178, 1.423e-5
-1.179, 1.421e-5
-1.180, 1.444e-5
-1.181, 1.454e-5
-1.182, 1.423e-5
-1.183, 1.401e-5
-1.184, 1.399e-5
-1.185, 1.427e-5
-1.186, 1.436e-5
-1.187, 1.406e-5
-1.188, 1.382e-5
-1.189, 1.392e-5
-1.190, 1.419e-5
-1.191, 1.431e-5
-1.192, 1.399e-5
-1.193, 1.380e-5
-1.194, 1.390e-5
-1.195, 1.413e-5
-1.196, 1.427e-5
-1.197, 1.401e-5
-1.198, 1.382e-5
-1.199, 1.396e-5
-1.200, 1.425e-5
-1.201, 1.434e-5
-1.202, 1.414e-5
-1.203, 1.389e-5
-1.204, 1.402e-5
-1.205, 1.432e-5
-1.206, 1.446e-5
-1.207, 1.424e-5
-1.208, 1.401e-5
-1.209, 1.414e-5
-1.210, 1.451e-5
-1.211, 1.458e-5
-1.212, 1.434e-5
-1.213, 1.418e-5
-1.214, 1.430e-5
-1.215, 1.472e-5
-1.216, 1.474e-5
-1.217, 1.453e-5
-1.218, 1.440e-5
-1.219, 1.454e-5
-1.220, 1.487e-5
-1.221, 1.498e-5
-1.222, 1.476e-5
-1.223, 1.464e-5
-1.224, 1.477e-5
-1.225, 1.508e-5
-1.226, 1.524e-5
-1.227, 1.498e-5
-1.228, 1.495e-5
-1.229, 1.507e-5
-1.230, 1.541e-5
-1.231, 1.552e-5
-1.232, 1.525e-5
-1.233, 1.517e-5
-1.234, 1.534e-5
-1.235, 1.569e-5
-1.236, 1.577e-5
-1.237, 1.560e-5
-1.238, 1.545e-5
-1.239, 1.573e-5
-1.240, 1.597e-5
-1.241, 1.608e-5
-1.242, 1.597e-5
-1.243, 1.580e-5
-1.244, 1.599e-5
-1.245, 1.636e-5
-1.246, 1.645e-5
-1.247, 1.626e-5
-1.248, 1.617e-5
-1.249, 1.634e-5
-1.250, 1.674e-5
-1.251, 1.671e-5
-1.252, 1.663e-5
-1.253, 1.652e-5
-1.254, 1.673e-5
-1.255, 1.711e-5
-1.256, 1.714e-5
-1.257, 1.697e-5
-1.258, 1.692e-5
-1.259, 1.708e-5
-1.260, 1.742e-5
-1.261, 1.750e-5
-1.262, 1.733e-5
-1.263, 1.729e-5
-1.264, 1.750e-5
-1.265, 1.780e-5
-1.266, 1.788e-5
-1.267, 1.772e-5
-1.268, 1.770e-5
-1.269, 1.790e-5
-1.270, 1.822e-5
-1.271, 1.832e-5
-1.272, 1.818e-5
-1.273, 1.813e-5
-1.274, 1.839e-5
-1.275, 1.867e-5
-1.276, 1.878e-5
-1.277, 1.873e-5
-1.278, 1.864e-5
-1.279, 1.894e-5
-1.280, 1.923e-5
-1.281, 1.934e-5
-1.282, 1.925e-5
-1.283, 1.928e-5
-1.284, 1.947e-5
-1.285, 1.981e-5
-1.286, 1.991e-5
-1.287, 1.983e-5
-1.288, 1.985e-5
-1.289, 2.007e-5
-1.290, 2.044e-5
-1.291, 2.048e-5
-1.292, 2.043e-5
-1.293, 2.045e-5
-1.294, 2.075e-5
-1.295, 2.105e-5
-1.296, 2.113e-5
-1.297, 2.107e-5
-1.298, 2.112e-5
-1.299, 2.138e-5
-1.300, 2.169e-5
-1.301, 2.182e-5
-1.302, 2.174e-5
-1.303, 2.182e-5
-1.304, 2.205e-5
-1.305, 2.238e-5
-1.306, 2.251e-5
-1.307, 2.244e-5
-1.308, 2.250e-5
-1.309, 2.276e-5
-1.310, 2.309e-5
-1.311, 2.322e-5
-1.312, 2.319e-5
-1.313, 2.324e-5
-1.314, 2.353e-5
-1.315, 2.386e-5
-1.316, 2.399e-5
-1.317, 2.400e-5
-1.318, 2.401e-5
-1.319, 2.433e-5
-1.320, 2.471e-5
-1.321, 2.477e-5
-1.322, 2.482e-5
-1.323, 2.487e-5
-1.324, 2.522e-5
-1.325, 2.557e-5
-1.326, 2.568e-5
-1.327, 2.573e-5
-1.328, 2.577e-5
-1.329, 2.619e-5
-1.330, 2.657e-5
-1.331, 2.672e-5
-1.332, 2.674e-5
-1.333, 2.690e-5
-1.334, 2.729e-5
-1.335, 2.772e-5
-1.336, 2.783e-5
-1.337, 2.793e-5
-1.338, 2.814e-5
-1.339, 2.852e-5
-1.340, 2.899e-5
-1.341, 2.923e-5
-1.342, 2.931e-5
-1.343, 2.952e-5
-1.344, 3.004e-5
-1.345, 3.048e-5
-1.346, 3.082e-5
-1.347, 3.089e-5
-1.348, 3.122e-5
-1.349, 3.172e-5
-1.350, 3.230e-5
-1.351, 3.267e-5
-1.352, 3.283e-5
-1.353, 3.317e-5
-1.354, 3.383e-5
-1.355, 3.443e-5
-1.356, 3.486e-5
-1.357, 3.514e-5
-1.358, 3.557e-5
-1.359, 3.629e-5
-1.360, 3.705e-5
-1.361, 3.752e-5
-1.362, 3.793e-5
-1.363, 3.841e-5
-1.364, 3.927e-5
-1.365, 4.014e-5
-1.366, 4.078e-5
-1.367, 4.130e-5
-1.368, 4.188e-5
-1.369, 4.286e-5
-1.370, 4.391e-5
-1.371, 4.461e-5
-1.372, 4.527e-5
-1.373, 4.606e-5
-1.374, 4.721e-5
-1.375, 4.836e-5
-1.376, 4.928e-5
-1.377, 5.011e-5
-1.378, 5.104e-5
-1.379, 5.240e-5
-1.380, 5.371e-5
-1.381, 5.485e-5
-1.382, 5.591e-5
-1.383, 5.709e-5
-1.384, 5.866e-5
-1.385, 6.031e-5
-1.386, 6.175e-5
-1.387, 6.298e-5
-1.388, 6.449e-5
-1.389, 6.630e-5
-1.390, 6.828e-5
-1.391, 7.000e-5
-1.392, 7.154e-5
-1.393, 7.340e-5
-1.394, 7.566e-5
-1.395, 7.791e-5
-1.396, 8.003e-5
-1.397, 8.206e-5
-1.398, 8.430e-5
-1.399, 8.690e-5
-1.400, 8.962e-5
-1.401, 9.214e-5
-1.402, 9.470e-5
-1.403, 9.739e-5
-1.404, 1.006e-4
-1.405, 1.037e-4
-1.406, 1.068e-4
-1.407, 1.099e-4
-1.408, 1.132e-4
-1.409, 1.169e-4
-1.410, 1.207e-4
-1.411, 1.245e-4
-1.412, 1.282e-4
-1.413, 1.322e-4
-1.414, 1.367e-4
-1.415, 1.412e-4
-1.416, 1.458e-4
-1.417, 1.504e-4
-1.418, 1.553e-4
-1.419, 1.607e-4
-1.420, 1.663e-4
-1.421, 1.718e-4
-1.422, 1.773e-4
-1.423, 1.834e-4
-1.424, 1.896e-4
-1.425, 1.962e-4
-1.426, 2.027e-4
-1.427, 2.092e-4
-1.428, 2.162e-4
-1.429, 2.238e-4
-1.430, 2.316e-4
-1.431, 2.392e-4
-1.432, 2.470e-4
-1.433, 2.551e-4
-1.434, 2.638e-4
-1.435, 2.729e-4
-1.436, 2.818e-4
-1.437, 2.905e-4
-1.438, 2.999e-4
-1.439, 3.099e-4
-1.440, 3.202e-4
-1.441, 3.305e-4
-1.442, 3.410e-4
-1.443, 3.517e-4
-1.444, 3.629e-4
-1.445, 3.744e-4
-1.446, 3.859e-4
-1.447, 3.977e-4
-1.448, 4.096e-4
-1.449, 4.224e-4
-1.450, 4.354e-4
-1.451, 4.481e-4
-1.452, 4.610e-4
-1.453, 4.743e-4
-1.454, 4.883e-4
-1.455, 5.029e-4
-1.456, 5.174e-4
-1.457, 5.323e-4
-1.458, 5.472e-4
-1.459, 5.626e-4
-1.460, 5.784e-4
-1.461, 5.943e-4
-1.462, 6.103e-4
-1.463, 6.272e-4
-1.464, 6.443e-4
-1.465, 6.618e-4
-1.466, 6.788e-4
-1.467, 6.962e-4
-1.468, 7.148e-4
-1.469, 7.333e-4
-1.470, 7.521e-4
-1.471, 7.707e-4
-1.472, 7.893e-4
-1.473, 8.083e-4
-1.474, 8.273e-4
-1.475, 8.479e-4
-1.476, 8.683e-4
-1.477, 8.878e-4
-1.478, 9.079e-4
-1.479, 9.286e-4
-1.480, 9.497e-4
-1.481, 9.693e-4
-1.482, 9.902e-4
-1.483, 1.013e-3
-1.484, 1.036e-3
-1.485, 1.060e-3
-1.486, 1.084e-3
-1.487, 1.108e-3
-1.488, 1.130e-3
-1.489, 1.153e-3
-1.490, 1.176e-3
-1.491, 1.199e-3
-1.492, 1.222e-3
-1.493, 1.245e-3
-1.494, 1.268e-3
-1.495, 1.291e-3
-1.496, 1.313e-3
-1.497, 1.337e-3
-1.498, 1.362e-3
-1.499, 1.385e-3
-1.500, 1.407e-3
-1.501, 1.430e-3
-1.502, 1.456e-3
-1.503, 1.483e-3
-1.504, 1.508e-3
-1.505, 1.536e-3
-1.506, 1.562e-3
-1.507, 1.584e-3
-1.508, 1.608e-3
-1.509, 1.634e-3
-1.510, 1.661e-3
-1.511, 1.687e-3
-1.512, 1.719e-3
-1.513, 1.744e-3
-1.514, 1.765e-3
-1.515, 1.797e-3
-1.516, 1.829e-3
-1.517, 1.853e-3
-1.518, 1.877e-3
-1.519, 1.904e-3
-1.520, 1.926e-3
-1.521, 1.948e-3
-1.522, 1.974e-3
-1.523, 2.006e-3
-1.524, 2.039e-3
-1.525, 2.072e-3
-1.526, 2.096e-3
-1.527, 2.121e-3
-1.528, 2.147e-3
-1.529, 2.175e-3
-1.530, 2.203e-3
-1.531, 2.230e-3
-1.532, 2.257e-3
-1.533, 2.289e-3
-1.534, 2.322e-3
-1.535, 2.360e-3
-1.536, 2.402e-3
-1.537, 2.427e-3
-1.538, 2.451e-3
-1.539, 2.479e-3
-1.540, 2.510e-3
-1.541, 2.540e-3
-1.542, 2.566e-3
-1.543, 2.595e-3
-1.544, 2.628e-3
-1.545, 2.658e-3
-1.546, 2.680e-3
-1.547, 2.712e-3
-1.548, 2.737e-3
-1.549, 2.757e-3
-1.550, 2.789e-3
-1.551, 2.833e-3
-1.552, 2.871e-3
-1.553, 2.882e-3
-1.554, 2.907e-3
-1.555, 2.936e-3
-1.556, 2.960e-3
-1.557, 2.983e-3
-1.558, 3.012e-3
-1.559, 3.034e-3
-1.560, 3.060e-3
-1.561, 3.085e-3
-1.562, 3.118e-3
-1.563, 3.148e-3
-1.564, 3.203e-3
-1.565, 3.213e-3
-1.566, 3.226e-3
-1.567, 3.257e-3
-1.568, 3.289e-3
-1.569, 3.316e-3
-1.570, 3.356e-3
-1.571, 3.396e-3
-1.572, 3.426e-3
-1.573, 3.454e-3
-1.574, 3.508e-3
-1.575, 3.557e-3
-1.576, 3.556e-3
-1.577, 3.590e-3
-1.578, 3.619e-3
-1.579, 3.635e-3
-1.580, 3.659e-3
-1.581, 3.697e-3
-1.582, 3.757e-3
-1.583, 3.802e-3
-1.584, 3.820e-3
-1.585, 3.845e-3
-1.586, 3.874e-3
-1.587, 3.973e-3
-1.588, 4.028e-3
-1.589, 4.049e-3
-1.590, 4.077e-3
-1.591, 4.107e-3
-1.592, 4.134e-3
-1.593, 4.153e-3
-1.594, 4.206e-3
-1.595, 4.253e-3
-1.596, 4.302e-3
-1.597, 4.347e-3
-1.598, 4.385e-3
-1.599, 4.409e-3
-1.600, 4.410e-3
-1.599, 4.355e-3
-1.598, 4.267e-3
-1.597, 4.201e-3
-1.596, 4.174e-3
-1.595, 4.171e-3
-1.594, 4.132e-3
-1.593, 4.112e-3
-1.592, 4.058e-3
-1.591, 4.035e-3
-1.590, 3.981e-3
-1.589, 3.944e-3
-1.588, 3.882e-3
-1.587, 3.823e-3
-1.586, 3.798e-3
-1.585, 3.790e-3
-1.584, 3.794e-3
-1.583, 3.745e-3
-1.582, 3.688e-3
-1.581, 3.623e-3
-1.580, 3.579e-3
-1.579, 3.550e-3
-1.578, 3.518e-3
-1.577, 3.499e-3
-1.576, 3.478e-3
-1.575, 3.438e-3
-1.574, 3.409e-3
-1.573, 3.371e-3
-1.572, 3.315e-3
-1.571, 3.281e-3
-1.570, 3.242e-3
-1.569, 3.201e-3
-1.568, 3.164e-3
-1.567, 3.117e-3
-1.566, 3.078e-3
-1.565, 3.044e-3
-1.564, 3.016e-3
-1.563, 3.003e-3
-1.562, 2.962e-3
-1.561, 2.917e-3
-1.560, 2.863e-3
-1.559, 2.815e-3
-1.558, 2.784e-3
-1.557, 2.761e-3
-1.556, 2.743e-3
-1.555, 2.728e-3
-1.554, 2.703e-3
-1.553, 2.672e-3
-1.552, 2.622e-3
-1.551, 2.573e-3
-1.550, 2.548e-3
-1.549, 2.522e-3
-1.548, 2.482e-3
-1.547, 2.449e-3
-1.546, 2.420e-3
-1.545, 2.388e-3
-1.544, 2.364e-3
-1.543, 2.330e-3
-1.542, 2.295e-3
-1.541, 2.257e-3
-1.540, 2.228e-3
-1.539, 2.194e-3
-1.538, 2.166e-3
-1.537, 2.142e-3
-1.536, 2.117e-3
-1.535, 2.083e-3
-1.534, 2.046e-3
-1.533, 2.017e-3
-1.532, 1.990e-3
-1.531, 1.968e-3
-1.530, 1.943e-3
-1.529, 1.916e-3
-1.528, 1.890e-3
-1.527, 1.860e-3
-1.526, 1.834e-3
-1.525, 1.808e-3
-1.524, 1.787e-3
-1.523, 1.761e-3
-1.522, 1.738e-3
-1.521, 1.713e-3
-1.520, 1.687e-3
-1.519, 1.661e-3
-1.518, 1.637e-3
-1.517, 1.619e-3
-1.516, 1.594e-3
-1.515, 1.571e-3
-1.514, 1.547e-3
-1.513, 1.525e-3
-1.512, 1.502e-3
-1.511, 1.477e-3
-1.510, 1.456e-3
-1.509, 1.435e-3
-1.508, 1.409e-3
-1.507, 1.385e-3
-1.506, 1.361e-3
-1.505, 1.337e-3
-1.504, 1.308e-3
-1.503, 1.289e-3
-1.502, 1.271e-3
-1.501, 1.252e-3
-1.500, 1.231e-3
-1.499, 1.209e-3
-1.498, 1.189e-3
-1.497, 1.169e-3
-1.496, 1.151e-3
-1.495, 1.132e-3
-1.494, 1.114e-3
-1.493, 1.094e-3
-1.492, 1.075e-3
-1.491, 1.057e-3
-1.490, 1.041e-3
-1.489, 1.024e-3
-1.488, 1.006e-3
-1.487, 9.885e-4
-1.486, 9.720e-4
-1.485, 9.560e-4
-1.484, 9.386e-4
-1.483, 9.212e-4
-1.482, 9.028e-4
-1.481, 8.847e-4
-1.480, 8.675e-4
-1.479, 8.500e-4
-1.478, 8.345e-4
-1.477, 8.199e-4
-1.476, 8.051e-4
-1.475, 7.905e-4
-1.474, 7.751e-4
-1.473, 7.590e-4
-1.472, 7.438e-4
-1.471, 7.289e-4
-1.470, 7.135e-4
-1.469, 6.976e-4
-1.468, 6.819e-4
-1.467, 6.682e-4
-1.466, 6.564e-4
-1.465, 6.441e-4
-1.464, 6.302e-4
-1.463, 6.156e-4
-1.462, 6.018e-4
-1.461, 5.889e-4
-1.460, 5.771e-4
-1.459, 5.656e-4
-1.458, 5.544e-4
-1.457, 5.437e-4
-1.456, 5.334e-4
-1.455, 5.229e-4
-1.454, 5.115e-4
-1.453, 5.008e-4
-1.452, 4.905e-4
-1.451, 4.808e-4
-1.450, 4.710e-4
-1.449, 4.609e-4
-1.448, 4.507e-4
-1.447, 4.412e-4
-1.446, 4.318e-4
-1.445, 4.225e-4
-1.444, 4.131e-4
-1.443, 4.033e-4
-1.442, 3.937e-4
-1.441, 3.848e-4
-1.440, 3.764e-4
-1.439, 3.680e-4
-1.438, 3.608e-4
-1.437, 3.531e-4
-1.436, 3.453e-4
-1.435, 3.375e-4
-1.434, 3.300e-4
-1.433, 3.224e-4
-1.432, 3.153e-4
-1.431, 3.085e-4
-1.430, 3.015e-4
-1.429, 2.944e-4
-1.428, 2.875e-4
-1.427, 2.810e-4
-1.426, 2.745e-4
-1.425, 2.678e-4
-1.424, 2.613e-4
-1.423, 2.550e-4
-1.422, 2.491e-4
-1.421, 2.433e-4
-1.420, 2.374e-4
-1.419, 2.314e-4
-1.418, 2.255e-4
-1.417, 2.198e-4
-1.416, 2.145e-4
-1.415, 2.090e-4
-1.414, 2.035e-4
-1.413, 1.983e-4
-1.412, 1.933e-4
-1.411, 1.885e-4
-1.410, 1.836e-4
-1.409, 1.787e-4
-1.408, 1.739e-4
-1.407, 1.695e-4
-1.406, 1.651e-4
-1.405, 1.608e-4
-1.404, 1.562e-4
-1.403, 1.519e-4
-1.402, 1.480e-4
-1.401, 1.440e-4
-1.400, 1.402e-4
-1.399, 1.362e-4
-1.398, 1.324e-4
-1.397, 1.288e-4
-1.396, 1.254e-4
-1.395, 1.218e-4
-1.394, 1.183e-4
-1.393, 1.149e-4
-1.392, 1.118e-4
-1.391, 1.087e-4
-1.390, 1.056e-4
-1.389, 1.024e-4
-1.388, 9.929e-5
-1.387, 9.647e-5
-1.386, 9.381e-5
-1.385, 9.101e-5
-1.384, 8.813e-5
-1.383, 8.542e-5
-1.382, 8.296e-5
-1.381, 8.059e-5
-1.380, 7.809e-5
-1.379, 7.549e-5
-1.378, 7.313e-5
-1.377, 7.105e-5
-1.376, 6.897e-5
-1.375, 6.674e-5
-1.374, 6.445e-5
-1.373, 6.243e-5
-1.372, 6.062e-5
-1.371, 5.875e-5
-1.370, 5.682e-5
-1.369, 5.475e-5
-1.368, 5.295e-5
-1.367, 5.142e-5
-1.366, 4.990e-5
-1.365, 4.825e-5
-1.364, 4.643e-5
-1.363, 4.478e-5
-1.362, 4.335e-5
-1.361, 4.199e-5
-1.360, 4.053e-5
-1.359, 3.896e-5
-1.358, 3.753e-5
-1.357, 3.637e-5
-1.356, 3.528e-5
-1.355, 3.402e-5
-1.354, 3.253e-5
-1.353, 3.136e-5
-1.352, 3.035e-5
-1.351, 2.940e-5
-1.350, 2.816e-5
-1.349, 2.690e-5
-1.348, 2.590e-5
-1.347, 2.510e-5
-1.346, 2.435e-5
-1.345, 2.327e-5
-1.344, 2.212e-5
-1.343, 2.117e-5
-1.342, 2.047e-5
-1.341, 1.984e-5
-1.340, 1.893e-5
-1.339, 1.788e-5
-1.338, 1.716e-5
-1.337, 1.657e-5
-1.336, 1.605e-5
-1.335, 1.524e-5
-1.334, 1.436e-5
-1.333, 1.371e-5
-1.332, 1.327e-5
-1.331, 1.275e-5
-1.330, 1.203e-5
-1.329, 1.123e-5
-1.328, 1.071e-5
-1.327, 1.036e-5
-1.326, 9.984e-6
-1.325, 9.349e-6
-1.324, 8.549e-6
-1.323, 8.045e-6
-1.322, 7.800e-6
-1.321, 7.561e-6
-1.320, 7.021e-6
-1.319, 6.348e-6
-1.318, 5.877e-6
-1.317, 5.658e-6
-1.316, 5.471e-6
-1.315, 4.882e-6
-1.314, 4.327e-6
-1.313, 3.935e-6
-1.312, 3.823e-6
-1.311, 3.645e-6
-1.310, 3.074e-6
-1.309, 2.614e-6
-1.308, 2.299e-6
-1.307, 2.194e-6
-1.306, 2.090e-6
-1.305, 1.579e-6
-1.304, 1.074e-6
-1.303, 8.206e-7
-1.302, 7.319e-7
-1.301, 7.516e-7
-1.300, 3.461e-7
-1.299, -1.018e-7
-1.298, -2.962e-7
-1.297, -3.465e-7
-1.296, -3.633e-7
-1.295, -6.750e-7
-1.294, -1.268e-6
-1.293, -1.481e-6
-1.292, -1.483e-6
-1.291, -1.517e-6
-1.290, -1.780e-6
-1.289, -2.323e-6
-1.288, -2.416e-6
-1.287, -2.357e-6
-1.286, -2.388e-6
-1.285, -2.685e-6
-1.284, -3.119e-6
-1.283, -3.333e-6
-1.282, -3.239e-6
-1.281, -3.231e-6
-1.280, -3.539e-6
-1.279, -3.900e-6
-1.278, -4.048e-6
-1.277, -3.920e-6
-1.276, -3.936e-6
-1.275, -4.281e-6
-1.274, -4.631e-6
-1.273, -4.791e-6
-1.272, -4.607e-6
-1.271, -4.621e-6
-1.270, -4.896e-6
-1.269, -5.159e-6
-1.268, -5.287e-6
-1.267, -5.225e-6
-1.266, -5.146e-6
-1.265, -5.505e-6
-1.264, -5.767e-6
-1.263, -5.846e-6
-1.262, -5.700e-6
-1.261, -5.564e-6
-1.260, -5.784e-6
-1.259, -6.176e-6
-1.258, -6.284e-6
-1.257, -6.152e-6
-1.256, -6.016e-6
-1.255, -6.274e-6
-1.254, -6.606e-6
-1.253, -6.692e-6
-1.252, -6.515e-6
-1.251, -6.453e-6
-1.250, -6.642e-6
-1.249, -6.925e-6
-1.248, -6.970e-6
-1.247, -6.794e-6
-1.246, -6.739e-6
-1.245, -6.940e-6
-1.244, -7.253e-6
-1.243, -7.266e-6
-1.242, -7.107e-6
-1.241, -6.949e-6
-1.240, -7.164e-6
-1.239, -7.417e-6
-1.238, -7.535e-6
-1.237, -7.264e-6
-1.236, -7.135e-6
-1.235, -7.308e-6
-1.234, -7.631e-6
-1.233, -7.659e-6
-1.232, -7.476e-6
-1.231, -7.289e-6
-1.230, -7.557e-6
-1.229, -7.853e-6
-1.228, -7.795e-6
-1.227, -7.650e-6
-1.226, -7.486e-6
-1.225, -7.657e-6
-1.224, -7.813e-6
-1.223, -7.842e-6
-1.222, -7.654e-6
-1.221, -7.598e-6
-1.220, -7.724e-6
-1.219, -7.966e-6
-1.218, -7.915e-6
-1.217, -7.706e-6
-1.216, -7.592e-6
-1.215, -7.815e-6
-1.214, -8.075e-6
-1.213, -7.984e-6
-1.212, -7.770e-6
-1.211, -7.637e-6
-1.210, -7.867e-6
-1.209, -8.099e-6
-1.208, -7.998e-6
-1.207, -7.786e-6
-1.206, -7.681e-6
-1.205, -7.863e-6
-1.204, -8.056e-6
-1.203, -8.050e-6
-1.202, -7.811e-6
-1.201, -7.714e-6
-1.200, -7.889e-6
-1.199, -8.070e-6
-1.198, -8.058e-6
-1.197, -7.776e-6
-1.196, -7.652e-6
-1.195, -7.928e-6
-1.194, -8.042e-6
-1.193, -8.032e-6
-1.192, -7.771e-6
-1.191, -7.668e-6
-1.190, -7.912e-6
-1.189, -8.065e-6
-1.188, -8.047e-6
-1.187, -7.855e-6
-1.186, -7.691e-6
-1.185, -8.007e-6
-1.184, -8.165e-6
-1.183, -8.065e-6
-1.182, -7.869e-6
-1.181, -7.738e-6
-1.180, -8.029e-6
-1.179, -8.246e-6
-1.178, -8.173e-6
-1.177, -8.006e-6
-1.176, -7.947e-6
-1.175, -8.128e-6
-1.174, -8.274e-6
-1.173, -8.163e-6
-1.172, -7.968e-6
-1.171, -7.948e-6
-1.170, -8.128e-6
-1.169, -8.320e-6
-1.168, -8.276e-6
-1.167, -8.062e-6
-1.166, -8.058e-6
-1.165, -8.246e-6
-1.164, -8.403e-6
-1.163, -8.357e-6
-1.162, -8.125e-6
-1.161, -8.118e-6
-1.160, -8.375e-6
-1.159, -8.536e-6
-1.158, -8.525e-6
-1.157, -8.243e-6
-1.156, -8.232e-6
-1.155, -8.454e-6
-1.154, -8.684e-6
-1.153, -8.589e-6
-1.152, -8.404e-6
-1.151, -8.357e-6
-1.150, -8.630e-6
-1.149, -8.817e-6
-1.148, -8.744e-6
-1.147, -8.538e-6
-1.146, -8.470e-6
-1.145, -8.751e-6
-1.144, -8.937e-6
-1.143, -8.833e-6
-1.142, -8.663e-6
-1.141, -8.630e-6
-1.140, -8.805e-6
-1.139, -9.094e-6
-1.138, -8.965e-6
-1.137, -8.782e-6
-1.136, -8.749e-6
-1.135, -8.963e-6
-1.134, -9.206e-6
-1.133, -9.115e-6
-1.132, -8.931e-6
-1.131, -8.971e-6
-1.130, -9.177e-6
-1.129, -9.448e-6
-1.128, -9.311e-6
-1.127, -9.083e-6
-1.126, -9.209e-6
-1.125, -9.380e-6
-1.124, -9.627e-6
-1.123, -9.533e-6
-1.122, -9.333e-6
-1.121, -9.342e-6
-1.120, -9.558e-6
-1.119, -9.764e-6
-1.118, -9.734e-6
-1.117, -9.457e-6
-1.116, -9.492e-6
-1.115, -9.807e-6
-1.114, -9.970e-6
-1.113, -9.981e-6
-1.112, -9.684e-6
-1.111, -9.696e-6
-1.110, -1.002e-5
-1.109, -1.016e-5
-1.108, -1.013e-5
-1.107, -9.912e-6
-1.106, -9.968e-6
-1.105, -1.021e-5
-1.104, -1.041e-5
-1.103, -1.036e-5
-1.102, -1.023e-5
-1.101, -1.023e-5
-1.100, -1.050e-5
-1.099, -1.069e-5
-1.098, -1.059e-5
-1.097, -1.040e-5
-1.096, -1.039e-5
-1.095, -1.070e-5
-1.094, -1.089e-5
-1.093, -1.084e-5
-1.092, -1.066e-5
-1.091, -1.079e-5
-1.090, -1.103e-5
-1.089, -1.128e-5
-1.088, -1.119e-5
-1.087, -1.104e-5
-1.086, -1.110e-5
-1.085, -1.142e-5
-1.084, -1.161e-5
-1.083, -1.162e-5
-1.082, -1.141e-5
-1.081, -1.150e-5
-1.080, -1.184e-5
-1.079, -1.206e-5
-1.078, -1.200e-5
-1.077, -1.179e-5
-1.076, -1.192e-5
-1.075, -1.232e-5
-1.074, -1.253e-5
-1.073, -1.246e-5
-1.072, -1.222e-5
-1.071, -1.237e-5
-1.070, -1.277e-5
-1.069, -1.300e-5
-1.068, -1.298e-5
-1.067, -1.278e-5
-1.066, -1.295e-5
-1.065, -1.333e-5
-1.064, -1.354e-5
-1.063, -1.355e-5
-1.062, -1.346e-5
-1.061, -1.350e-5
-1.060, -1.389e-5
-1.059, -1.426e-5
-1.058, -1.417e-5
-1.057, -1.404e-5
-1.056, -1.420e-5
-1.055, -1.460e-5
-1.054, -1.493e-5
-1.053, -1.482e-5
-1.052, -1.474e-5
-1.051, -1.495e-5
-1.050, -1.532e-5
-1.049, -1.572e-5
-1.048, -1.566e-5
-1.047, -1.556e-5
-1.046, -1.579e-5
-1.045, -1.620e-5
-1.044, -1.651e-5
-1.043, -1.657e-5
-1.042, -1.640e-5
-1.041, -1.665e-5
-1.040, -1.709e-5
-1.039, -1.753e-5
-1.038, -1.755e-5
-1.037, -1.749e-5
-1.036, -1.775e-5
-1.035, -1.829e-5
-1.034, -1.871e-5
-1.033, -1.881e-5
-1.032, -1.875e-5
-1.031, -1.904e-5
-1.030, -1.962e-5
-1.029, -2.008e-5
-1.028, -2.019e-5
-1.027, -2.021e-5
-1.026, -2.054e-5
-1.025, -2.118e-5
-1.024, -2.171e-5
-1.023, -2.179e-5
-1.022, -2.196e-5
-1.021, -2.223e-5
-1.020, -2.288e-5
-1.019, -2.345e-5
-1.018, -2.357e-5
-1.017, -2.377e-5
-1.016, -2.417e-5
-1.015, -2.487e-5
-1.014, -2.554e-5
-1.013, -2.570e-5
-1.012, -2.592e-5
-1.011, -2.641e-5
-1.010, -2.712e-5
-1.009, -2.779e-5
-1.008, -2.805e-5
-1.007, -2.830e-5
-1.006, -2.883e-5
-1.005, -2.961e-5
-1.004, -3.032e-5
-1.003, -3.071e-5
-1.002, -3.094e-5
-1.001, -3.158e-5
-1.000, -2.315e-5
-1.001, -1.730e-5
-1.002, -1.359e-5
-1.003, -1.073e-5
-1.004, -8.466e-6
-1.005, -6.912e-6
-1.006, -5.397e-6
-1.007, -3.763e-6
-1.008, -2.247e-6
-1.009, -1.138e-6
-1.010, -4.146e-7
-1.011, 3.550e-7
-1.012, 1.413e-6
-1.013, 2.360e-6
-1.014, 3.005e-6
-1.015, 3.370e-6
-1.016, 3.780e-6
-1.017, 4.511e-6
-1.018, 5.255e-6
-1.019, 5.616e-6
-1.020, 5.766e-6
-1.021, 6.058e-6
-1.022, 6.608e-6
-1.023, 7.236e-6
-1.024, 7.464e-6
-1.025, 7.463e-6
-1.026, 7.682e-6
-1.027, 8.104e-6
-1.028, 8.614e-6
-1.029, 8.762e-6
-1.030, 8.702e-6
-1.031, 8.838e-6
-1.032, 9.239e-6
-1.033, 9.668e-6
-1.034, 9.800e-6
-1.035, 9.632e-6
-1.036, 9.752e-6
-1.037, 1.012e-5
-1.038, 1.045e-5
-1.039, 1.051e-5
-1.040, 1.036e-5
-1.041, 1.041e-5
-1.042, 1.076e-5
-1.043, 1.110e-5
-1.044, 1.109e-5
-1.045, 1.090e-5
-1.046, 1.092e-5
-1.047, 1.125e-5
-1.048, 1.153e-5
-1.049, 1.149e-5
-1.050, 1.131e-5
-1.051, 1.132e-5
-1.052, 1.160e-5
-1.053, 1.187e-5
-1.054, 1.177e-5
-1.055, 1.159e-5
-1.056, 1.160e-5
-1.057, 1.184e-5
-1.058, 1.212e-5
-1.059, 1.195e-5
-1.060, 1.173e-5
-1.061, 1.175e-5
-1.062, 1.197e-5
-1.063, 1.223e-5
-1.064, 1.205e-5
-1.065, 1.178e-5
-1.066, 1.183e-5
-1.067, 1.196e-5
-1.068, 1.222e-5
-1.069, 1.208e-5
-1.070, 1.179e-5
-1.071, 1.180e-5
-1.072, 1.195e-5
-1.073, 1.214e-5
-1.074, 1.205e-5
-1.075, 1.178e-5
-1.076, 1.172e-5
-1.077, 1.189e-5
-1.078, 1.204e-5
-1.079, 1.194e-5
-1.080, 1.164e-5
-1.081, 1.158e-5
-1.082, 1.178e-5
-1.083, 1.192e-5
-1.084, 1.177e-5
-1.085, 1.147e-5
-1.086, 1.142e-5
-1.087, 1.161e-5
-1.088, 1.172e-5
-1.089, 1.155e-5
-1.090, 1.130e-5
-1.091, 1.116e-5
-1.092, 1.139e-5
-1.093, 1.153e-5
-1.094, 1.132e-5
-1.095, 1.104e-5
-1.096, 1.098e-5
-1.097, 1.114e-5
-1.098, 1.127e-5
-1.099, 1.108e-5
-1.100, 1.078e-5
-1.101, 1.082e-5
-1.102, 1.090e-5
-1.103, 1.109e-5
-1.104, 1.082e-5
-1.105, 1.055e-5
-1.106, 1.053e-5
-1.107, 1.067e-5
-1.108, 1.079e-5
-1.109, 1.056e-5
-1.110, 1.027e-5
-1.111, 1.022e-5
-1.112, 1.037e-5
-1.113, 1.047e-5
-1.114, 1.029e-5
-1.115, 9.923e-6
-1.116, 9.951e-6
-1.117, 1.007e-5
-1.118, 1.018e-5
-1.119, 1.002e-5
-1.120, 9.667e-6
-1.121, 9.625e-6
-1.122, 9.850e-6
-1.123, 9.888e-6
-1.124, 9.688e-6
-1.125, 9.432e-6
-1.126, 9.386e-6
-1.127, 9.603e-6
-1.128, 9.670e-6
-1.129, 9.431e-6
-1.130, 9.210e-6
-1.131, 9.182e-6
-1.132, 9.357e-6
-1.133, 9.480e-6
-1.134, 9.205e-6
-1.135, 8.987e-6
-1.136, 8.945e-6
-1.137, 9.140e-6
-1.138, 9.240e-6
-1.139, 8.964e-6
-1.140, 8.778e-6
-1.141, 8.759e-6
-1.142, 8.911e-6
-1.143, 9.044e-6
-1.144, 8.767e-6
-1.145, 8.513e-6
-1.146, 8.590e-6
-1.147, 8.705e-6
-1.148, 8.871e-6
-1.149, 8.632e-6
-1.150, 8.451e-6
-1.151, 8.469e-6
-1.152, 8.680e-6
-1.153, 8.737e-6
-1.154, 8.480e-6
-1.155, 8.327e-6
-1.156, 8.332e-6
-1.157, 8.535e-6
-1.158, 8.609e-6
-1.159, 8.419e-6
-1.160, 8.189e-6
-1.161, 8.222e-6
-1.162, 8.436e-6
-1.163, 8.525e-6
-1.164, 8.323e-6
-1.165, 8.143e-6
-1.166, 8.124e-6
-1.167, 8.396e-6
-1.168, 8.468e-6
-1.169, 8.197e-6
-1.170, 8.091e-6
-1.171, 8.074e-6
-1.172, 8.307e-6
-1.173, 8.410e-6
-1.174, 8.211e-6
-1.175, 8.007e-6
-1.176, 8.037e-6
-1.177, 8.265e-6
-1.178, 8.340e-6
-1.179, 8.086e-6
-1.180, 7.940e-6
-1.181, 8.025e-6
-1.182, 8.212e-6
-1.183, 8.330e-6
-1.184, 8.049e-6
-1.185, 7.923e-6
-1.186, 7.995e-6
-1.187, 8.183e-6
-1.188, 8.251e-6
-1.189, 8.036e-6
-1.190, 7.870e-6
-1.191, 7.938e-6
-1.192, 8.184e-6
-1.193, 8.211e-6
-1.194, 8.047e-6
-1.195, 7.823e-6
-1.196, 7.956e-6
-1.197, 8.153e-6
-1.198, 8.260e-6
-1.199, 8.045e-6
-1.200, 7.848e-6
-1.201, 7.955e-6
-1.202, 8.141e-6
-1.203, 8.165e-6
-1.204, 7.998e-6
-1.205, 7.881e-6
-1.206, 7.943e-6
-1.207, 8.161e-6
-1.208, 8.180e-6
-1.209, 8.004e-6
-1.210, 7.879e-6
-1.211, 7.919e-6
-1.212, 8.168e-6
-1.213, 8.209e-6
-1.214, 7.976e-6
-1.215, 7.840e-6
-1.216, 7.933e-6
-1.217, 8.167e-6
-1.218, 8.233e-6
-1.219, 8.018e-6
-1.220, 7.882e-6
-1.221, 7.989e-6
-1.222, 8.221e-6
-1.223, 8.224e-6
-1.224, 8.017e-6
-1.225, 7.895e-6
-1.226, 8.029e-6
-1.227, 8.224e-6
-1.228, 8.299e-6
-1.229, 8.097e-6
-1.230, 7.956e-6
-1.231, 8.070e-6
-1.232, 8.265e-6
-1.233, 8.311e-6
-1.234, 8.135e-6
-1.235, 8.014e-6
-1.236, 8.080e-6
-1.237, 8.319e-6
-1.238, 8.385e-6
-1.239, 8.249e-6
-1.240, 8.119e-6
-1.241, 8.229e-6
-1.242, 8.497e-6
-1.243, 8.461e-6
-1.244, 8.299e-6
-1.245, 8.208e-6
-1.246, 8.275e-6
-1.247, 8.595e-6
-1.248, 8.548e-6
-1.249, 8.445e-6
-1.250, 8.318e-6
-1.251, 8.433e-6
-1.252, 8.703e-6
-1.253, 8.731e-6
-1.254, 8.530e-6
-1.255, 8.472e-6
-1.256, 8.546e-6
-1.257, 8.803e-6
-1.258, 8.869e-6
-1.259, 8.685e-6
-1.260, 8.627e-6
-1.261, 8.749e-6
-1.262, 9.027e-6
-1.263, 9.017e-6
-1.264, 8.876e-6
-1.265, 8.802e-6
-1.266, 8.987e-6
-1.267, 9.236e-6
-1.268, 9.253e-6
-1.269, 9.111e-6
-1.270, 9.023e-6
-1.271, 9.266e-6
-1.272, 9.437e-6
-1.273, 9.485e-6
-1.274, 9.369e-6
-1.275, 9.297e-6
-1.276, 9.522e-6
-1.277, 9.810e-6
-1.278, 9.832e-6
-1.279, 9.707e-6
-1.280, 9.667e-6
-1.281, 9.810e-6
-1.282, 1.009e-5
-1.283, 1.011e-5
-1.284, 1.002e-5
-1.285, 9.954e-6
-1.286, 1.019e-5
-1.287, 1.049e-5
-1.288, 1.051e-5
-1.289, 1.039e-5
-1.290, 1.036e-5
-1.291, 1.056e-5
-1.292, 1.084e-5
-1.293, 1.096e-5
-1.294, 1.079e-5
-1.295, 1.084e-5
-1.296, 1.099e-5
-1.297, 1.132e-5
-1.298, 1.142e-5
-1.299, 1.125e-5
-1.300, 1.129e-5
-1.301, 1.153e-5
-1.302, 1.185e-5
-1.303, 1.193e-5
-1.304, 1.180e-5
-1.305, 1.179e-5
-1.306, 1.221e-5
-1.307, 1.245e-5
-1.308, 1.257e-5
-1.309, 1.245e-5
-1.310, 1.247e-5
-1.311, 1.277e-5
-1.312, 1.308e-5
-1.313, 1.323e-5
-1.314, 1.318e-5
-1.315, 1.321e-5
-1.316, 1.351e-5
-1.317, 1.389e-5
-1.318, 1.401e-5
-1.319, 1.397e-5
-1.320, 1.403e-5
-1.321, 1.437e-5
-1.322, 1.482e-5
-1.323, 1.494e-5
-1.324, 1.490e-5
-1.325, 1.501e-5
-1.326, 1.536e-5
-1.327, 1.581e-5
-1.328, 1.602e-5
-1.329, 1.602e-5
-1.330, 1.616e-5
-1.331, 1.655e-5
-1.332, 1.700e-5
-1.333, 1.725e-5
-1.334, 1.726e-5
-1.335, 1.745e-5
-1.336, 1.793e-5
-1.337, 1.836e-5
-1.338, 1.870e-5
-1.339, 1.873e-5
-1.340, 1.892e-5
-1.341, 1.950e-5
-1.342, 1.997e-5
-1.343, 2.031e-5
-1.344, 2.045e-5
-1.345, 2.074e-5
-1.346, 2.139e-5
-1.347, 2.194e-5
-1.348, 2.225e-5
-1.349, 2.246e-5
-1.350, 2.283e-5
-1.351, 2.345e-5
-1.352, 2.403e-5
-1.353, 2.444e-5
-1.354, 2.472e-5
-1.355, 2.516e-5
-1.356, 2.588e-5
-1.357, 2.654e-5
-1.358, 2.703e-5
-1.359, 2.739e-5
-1.360, 2.784e-5
-1.361, 2.866e-5
-1.362, 2.946e-5
-1.363, 2.999e-5
-1.364, 3.046e-5
-1.365, 3.105e-5
-1.366, 3.197e-5
-1.367, 3.286e-5
-1.368, 3.354e-5
-1.369, 3.402e-5
-1.370, 3.486e-5
-1.371, 3.586e-5
-1.372, 3.686e-5
-1.373, 3.762e-5
-1.374, 3.825e-5
-1.375, 3.916e-5
-1.376, 4.029e-5
-1.377, 4.152e-5
-1.378, 4.243e-5
-1.379, 4.329e-5
-1.380, 4.437e-5
-1.381, 4.567e-5
-1.382, 4.700e-5
-1.383, 4.814e-5
-1.384, 4.911e-5
-1.385, 5.032e-5
-1.386, 5.192e-5
-1.387, 5.339e-5
-1.388, 5.475e-5
-1.389, 5.598e-5
-1.390, 5.749e-5
-1.391, 5.923e-5
-1.392, 6.099e-5
-1.393, 6.255e-5
-1.394, 6.410e-5
-1.395, 6.580e-5
-1.396, 6.786e-5
-1.397, 6.995e-5
-1.398, 7.185e-5
-1.399, 7.362e-5
-1.400, 7.563e-5
-1.401, 7.799e-5
-1.402, 8.045e-5
-1.403, 8.266e-5
-1.404, 8.477e-5
-1.405, 8.728e-5
-1.406, 8.999e-5
-1.407, 9.290e-5
-1.408, 9.549e-5
-1.409, 9.811e-5
-1.410, 1.010e-4
-1.411, 1.042e-4
-1.412, 1.075e-4
-1.413, 1.106e-4
-1.414, 1.138e-4
-1.415, 1.173e-4
-1.416, 1.210e-4
-1.417, 1.248e-4
-1.418, 1.286e-4
-1.419, 1.324e-4
-1.420, 1.366e-4
-1.421, 1.410e-4
-1.422, 1.455e-4
-1.423, 1.501e-4
-1.424, 1.546e-4
-1.425, 1.595e-4
-1.426, 1.647e-4
-1.427, 1.702e-4
-1.428, 1.755e-4
-1.429, 1.809e-4
-1.430, 1.866e-4
-1.431, 1.927e-4
-1.432, 1.990e-4
-1.433, 2.052e-4
-1.434, 2.116e-4
-1.435, 2.183e-4
-1.436, 2.254e-4
-1.437, 2.327e-4
-1.438, 2.400e-4
-1.439, 2.473e-4
-1.440, 2.548e-4
-1.441, 2.628e-4
-1.442, 2.710e-4
-1.443, 2.792e-4
-1.444, 2.876e-4
-1.445, 2.964e-4
-1.446, 3.056e-4
-1.447, 3.151e-4
-1.448, 3.245e-4
-1.449, 3.341e-4
-1.450, 3.440e-4
-1.451, 3.544e-4
-1.452, 3.653e-4
-1.453, 3.755e-4
-1.454, 3.860e-4
-1.455, 3.973e-4
-1.456, 4.090e-4
-1.457, 4.212e-4
-1.458, 4.334e-4
-1.459, 4.457e-4
-1.460, 4.582e-4
-1.461, 4.708e-4
-1.462, 4.840e-4
-1.463, 4.973e-4
-1.464, 5.109e-4
-1.465, 5.249e-4
-1.466, 5.397e-4
-1.467, 5.548e-4
-1.468, 5.698e-4
-1.469, 5.850e-4
-1.470, 6.005e-4
-1.471, 6.167e-4
-1.472, 6.332e-4
-1.473, 6.496e-4
-1.474, 6.663e-4
-1.475, 6.831e-4
-1.476, 7.010e-4
-1.477, 7.195e-4
-1.478, 7.378e-4
-1.479, 7.559e-4
-1.480, 7.746e-4
-1.481, 7.947e-4
-1.482, 8.145e-4
-1.483, 8.341e-4
-1.484, 8.545e-4
-1.485, 8.752e-4
-1.486, 8.961e-4
-1.487, 9.176e-4
-1.488, 9.386e-4
-1.489, 9.607e-4
-1.490, 9.829e-4
-1.491, 1.005e-3
-1.492, 1.028e-3
-1.493, 1.052e-3
-1.494, 1.075e-3
-1.495, 1.099e-3
-1.496, 1.125e-3
-1.497, 1.147e-3
-1.498, 1.171e-3
-1.499, 1.194e-3
-1.500, 1.218e-3
-1.501, 1.246e-3
-1.502, 1.273e-3
-1.503, 1.298e-3
-1.504, 1.324e-3
-1.505, 1.349e-3
-1.506, 1.377e-3
-1.507, 1.404e-3
-1.508, 1.431e-3
-1.509, 1.459e-3
-1.510, 1.487e-3
-1.511, 1.515e-3
-1.512, 1.544e-3
-1.513, 1.572e-3
-1.514, 1.599e-3
-1.515, 1.630e-3
-1.516, 1.657e-3
-1.517, 1.683e-3
-1.518, 1.709e-3
-1.519, 1.735e-3
-1.520, 1.766e-3
-1.521, 1.798e-3
-1.522, 1.832e-3
-1.523, 1.866e-3
-1.524, 1.899e-3
-1.525, 1.930e-3
-1.526, 1.962e-3
-1.527, 1.994e-3
-1.528, 2.025e-3
-1.529, 2.056e-3
-1.530, 2.086e-3
-1.531, 2.116e-3
-1.532, 2.149e-3
-1.533, 2.185e-3
-1.534, 2.219e-3
-1.535, 2.250e-3
-1.536, 2.278e-3
-1.537, 2.309e-3
-1.538, 2.339e-3
-1.539, 2.367e-3
-1.540, 2.395e-3
-1.541, 2.423e-3
-1.542, 2.453e-3
-1.543, 2.485e-3
-1.544, 2.519e-3
-1.545, 2.549e-3
-1.546, 2.583e-3
-1.547, 2.616e-3
-1.548, 2.651e-3
-1.549, 2.682e-3
-1.550, 2.709e-3
-1.551, 2.741e-3
-1.552, 2.769e-3
-1.553, 2.800e-3
-1.554, 2.835e-3
-1.555, 2.854e-3
-1.556, 2.880e-3
-1.557, 2.900e-3
-1.558, 2.914e-3
-1.559, 2.925e-3
-1.560, 2.961e-3
-1.561, 2.996e-3
-1.562, 3.038e-3
-1.563, 3.073e-3
-1.564, 3.083e-3
-1.565, 3.120e-3
-1.566, 3.152e-3
-1.567, 3.176e-3
-1.568, 3.192e-3
-1.569, 3.218e-3
-1.570, 3.254e-3
-1.571, 3.291e-3
-1.572, 3.303e-3
-1.573, 3.322e-3
-1.574, 3.360e-3
-1.575, 3.406e-3
-1.576, 3.429e-3
-1.577, 3.421e-3
-1.578, 3.438e-3
-1.579, 3.456e-3
-1.580, 3.495e-3
-1.581, 3.538e-3
-1.582, 3.577e-3
-1.583, 3.609e-3
-1.584, 3.634e-3
-1.585, 3.653e-3
-1.586, 3.697e-3
-1.587, 3.734e-3
-1.588, 3.780e-3
-1.589, 3.819e-3
-1.590, 3.845e-3
-1.591, 3.883e-3
-1.592, 3.898e-3
-1.593, 3.920e-3
-1.594, 3.952e-3
-1.595, 3.992e-3
-1.596, 4.011e-3
-1.597, 4.071e-3
-1.598, 4.129e-3
-1.599, 4.164e-3
-1.600, 4.138e-3
-1.599, 4.085e-3
-1.598, 4.053e-3
-1.597, 3.993e-3
-1.596, 3.965e-3
-1.595, 3.926e-3
-1.594, 3.881e-3
-1.593, 3.856e-3
-1.592, 3.847e-3
-1.591, 3.805e-3
-1.590, 3.742e-3
-1.589, 3.711e-3
-1.588, 3.667e-3
-1.587, 3.628e-3
-1.586, 3.593e-3
-1.585, 3.572e-3
-1.584, 3.539e-3
-1.583, 3.508e-3
-1.582, 3.464e-3
-1.581, 3.396e-3
-1.580, 3.349e-3
-1.579, 3.309e-3
-1.578, 3.275e-3
-1.577, 3.242e-3
-1.576, 3.200e-3
-1.575, 3.191e-3
-1.574, 3.171e-3
-1.573, 3.138e-3
-1.572, 3.074e-3
-1.571, 3.036e-3
-1.570, 3.007e-3
-1.569, 2.994e-3
-1.568, 2.963e-3
-1.567, 2.931e-3
-1.566, 2.911e-3
-1.565, 2.887e-3
-1.564, 2.859e-3
-1.563, 2.823e-3
-1.562, 2.761e-3
-1.561, 2.711e-3
-1.560, 2.670e-3
-1.559, 2.645e-3
-1.558, 2.619e-3
-1.557, 2.596e-3
-1.556, 2.563e-3
-1.555, 2.529e-3
-1.554, 2.497e-3
-1.553, 2.469e-3
-1.552, 2.442e-3
-1.551, 2.405e-3
-1.550, 2.366e-3
-1.549, 2.328e-3
-1.548, 2.297e-3
-1.547, 2.276e-3
-1.546, 2.249e-3
-1.545, 2.215e-3
-1.544, 2.185e-3
-1.543, 2.155e-3
-1.542, 2.130e-3
-1.541, 2.109e-3
-1.540, 2.086e-3
-1.539, 2.058e-3
-1.538, 2.030e-3
-1.537, 2.002e-3
-1.536, 1.991e-3
-1.535, 1.969e-3
-1.534, 1.945e-3
-1.533, 1.914e-3
-1.532, 1.881e-3
-1.531, 1.856e-3
-1.530, 1.823e-3
-1.529, 1.794e-3
-1.528, 1.771e-3
-1.527, 1.751e-3
-1.526, 1.726e-3
-1.525, 1.701e-3
-1.524, 1.673e-3
-1.523, 1.644e-3
-1.522, 1.618e-3
-1.521, 1.594e-3
-1.520, 1.574e-3
-1.519, 1.552e-3
-1.518, 1.529e-3
-1.517, 1.507e-3
-1.516, 1.485e-3
-1.515, 1.464e-3
-1.514, 1.444e-3
-1.513, 1.423e-3
-1.512, 1.402e-3
-1.511, 1.380e-3
-1.510, 1.364e-3
-1.509, 1.346e-3
-1.508, 1.327e-3
-1.507, 1.305e-3
-1.506, 1.290e-3
-1.505, 1.267e-3
-1.504, 1.244e-3
-1.503, 1.221e-3
-1.502, 1.201e-3
-1.501, 1.182e-3
-1.500, 1.164e-3
-1.499, 1.142e-3
-1.498, 1.123e-3
-1.497, 1.103e-3
-1.496, 1.083e-3
-1.495, 1.065e-3
-1.494, 1.050e-3
-1.493, 1.033e-3
-1.492, 1.014e-3
-1.491, 9.956e-4
-1.490, 9.789e-4
-1.489, 9.626e-4
-1.488, 9.466e-4
-1.487, 9.297e-4
-1.486, 9.129e-4
-1.485, 8.964e-4
-1.484, 8.798e-4
-1.483, 8.635e-4
-1.482, 8.464e-4
-1.481, 8.316e-4
-1.480, 8.163e-4
-1.479, 8.005e-4
-1.478, 7.844e-4
-1.477, 7.684e-4
-1.476, 7.540e-4
-1.475, 7.400e-4
-1.474, 7.258e-4
-1.473, 7.133e-4
-1.472, 7.001e-4
-1.471, 6.866e-4
-1.470, 6.737e-4
-1.469, 6.610e-4
-1.468, 6.481e-4
-1.467, 6.351e-4
-1.466, 6.226e-4
-1.465, 6.101e-4
-1.464, 5.967e-4
-1.463, 5.830e-4
-1.462, 5.715e-4
-1.461, 5.601e-4
-1.460, 5.488e-4
-1.459, 5.374e-4
-1.458, 5.263e-4
-1.457, 5.156e-4
-1.456, 5.050e-4
-1.455, 4.948e-4
-1.454, 4.849e-4
-1.453, 4.750e-4
-1.452, 4.650e-4
-1.451, 4.548e-4
-1.450, 4.451e-4
-1.449, 4.358e-4
-1.448, 4.266e-4
-1.447, 4.174e-4
-1.446, 4.083e-4
-1.445, 3.997e-4
-1.444, 3.912e-4
-1.443, 3.829e-4
-1.442, 3.737e-4
-1.441, 3.648e-4
-1.440, 3.568e-4
-1.439, 3.489e-4
-1.438, 3.409e-4
-1.437, 3.331e-4
-1.436, 3.249e-4
-1.435, 3.169e-4
-1.434, 3.090e-4
-1.433, 3.012e-4
-1.432, 2.936e-4
-1.431, 2.864e-4
-1.430, 2.800e-4
-1.429, 2.738e-4
-1.428, 2.671e-4
-1.427, 2.606e-4
-1.426, 2.544e-4
-1.425, 2.483e-4
-1.424, 2.424e-4
-1.423, 2.364e-4
-1.422, 2.304e-4
-1.421, 2.247e-4
-1.420, 2.192e-4
-1.419, 2.138e-4
-1.418, 2.084e-4
-1.417, 2.032e-4
-1.416, 1.982e-4
-1.415, 1.932e-4
-1.414, 1.884e-4
-1.413, 1.834e-4
-1.412, 1.786e-4
-1.411, 1.741e-4
-1.410, 1.697e-4
-1.409, 1.653e-4
-1.408, 1.608e-4
-1.407, 1.565e-4
-1.406, 1.523e-4
-1.405, 1.485e-4
-1.404, 1.446e-4
-1.403, 1.405e-4
-1.402, 1.366e-4
-1.401, 1.330e-4
-1.400, 1.295e-4
-1.399, 1.262e-4
-1.398, 1.226e-4
-1.397, 1.190e-4
-1.396, 1.157e-4
-1.395, 1.126e-4
-1.394, 1.096e-4
-1.393, 1.063e-4
-1.392, 1.032e-4
-1.391, 1.003e-4
-1.390, 9.758e-5
-1.389, 9.488e-5
-1.388, 9.193e-5
-1.387, 8.913e-5
-1.386, 8.654e-5
-1.385, 8.402e-5
-1.384, 8.156e-5
-1.383, 7.894e-5
-1.382, 7.648e-5
-1.381, 7.417e-5
-1.380, 7.206e-5
-1.379, 6.991e-5
-1.378, 6.764e-5
-1.377, 6.541e-5
-1.376, 6.349e-5
-1.375, 6.167e-5
-1.374, 5.971e-5
-1.373, 5.771e-5
-1.372, 5.580e-5
-1.371, 5.401e-5
-1.370, 5.248e-5
-1.369, 5.081e-5
-1.368, 4.900e-5
-1.367, 4.729e-5
-1.366, 4.582e-5
-1.365, 4.450e-5
-1.364, 4.304e-5
-1.363, 4.138e-5
-1.362, 3.994e-5
-1.361, 3.860e-5
-1.360, 3.745e-5
-1.359, 3.619e-5
-1.358, 3.480e-5
-1.357, 3.346e-5
-1.356, 3.234e-5
-1.355, 3.138e-5
-1.354, 3.032e-5
-1.353, 2.899e-5
-1.352, 2.785e-5
-1.351, 2.690e-5
-1.350, 2.614e-5
-1.349, 2.520e-5
-1.348, 2.411e-5
-1.347, 2.302e-5
-1.346, 2.225e-5
-1.345, 2.155e-5
-1.344, 2.073e-5
-1.343, 1.976e-5
-1.342, 1.876e-5
-1.341, 1.819e-5
-1.340, 1.761e-5
-1.339, 1.681e-5
-1.338, 1.600e-5
-1.337, 1.510e-5
-1.336, 1.462e-5
-1.335, 1.415e-5
-1.334, 1.350e-5
-1.333, 1.283e-5
-1.332, 1.214e-5
-1.331, 1.161e-5
-1.330, 1.128e-5
-1.329, 1.061e-5
-1.328, 9.897e-6
-1.327, 9.335e-6
-1.326, 8.845e-6
-1.325, 8.631e-6
-1.324, 8.090e-6
-1.323, 7.466e-6
-1.322, 7.089e-6
-1.321, 6.769e-6
-1.320, 6.561e-6
-1.319, 6.044e-6
-1.318, 5.315e-6
-1.317, 4.839e-6
-1.316, 4.658e-6
-1.315, 4.485e-6
-1.314, 4.072e-6
-1.313, 3.441e-6
-1.312, 2.954e-6
-1.311, 2.852e-6
-1.310, 2.714e-6
-1.309, 2.449e-6
-1.308, 1.919e-6
-1.307, 1.508e-6
-1.306, 1.414e-6
-1.305, 1.360e-6
-1.304, 1.115e-6
-1.303, 6.736e-7
-1.302, 2.317e-7
-1.301, 2.743e-8
-1.300, -1.186e-7
-1.299, -2.922e-7
-1.298, -6.316e-7
-1.297, -8.635e-7
-1.296, -8.802e-7
-1.295, -8.358e-7
-1.294, -1.052e-6
-1.293, -1.512e-6
-1.292, -1.974e-6
-1.291, -2.136e-6
-1.290, -2.076e-6
-1.289, -2.226e-6
-1.288, -2.505e-6
-1.287, -2.772e-6
-1.286, -2.844e-6
-1.285, -2.658e-6
-1.284, -2.833e-6
-1.283, -3.357e-6
-1.282, -3.741e-6
-1.281, -3.780e-6
-1.280, -3.668e-6
-1.279, -3.755e-6
-1.278, -4.125e-6
-1.277, -4.287e-6
-1.276, -4.220e-6
-1.275, -4.212e-6
-1.274, -4.304e-6
-1.273, -4.685e-6
-1.272, -4.918e-6
-1.271, -4.906e-6
-1.270, -4.805e-6
-1.269, -4.977e-6
-1.268, -5.240e-6
-1.267, -5.512e-6
-1.266, -5.384e-6
-1.265, -5.230e-6
-1.264, -5.309e-6
-1.263, -5.698e-6
-1.262, -6.048e-6
-1.261, -5.916e-6
-1.260, -5.719e-6
-1.259, -5.878e-6
-1.258, -6.081e-6
-1.257, -6.248e-6
-1.256, -6.097e-6
-1.255, -5.994e-6
-1.254, -6.112e-6
-1.253, -6.431e-6
-1.252, -6.638e-6
-1.251, -6.585e-6
-1.250, -6.448e-6
-1.249, -6.523e-6
-1.248, -6.826e-6
-1.247, -6.962e-6
-1.246, -6.796e-6
-1.245, -6.648e-6
-1.244, -6.763e-6
-1.243, -7.021e-6
-1.242, -7.254e-6
-1.241, -7.091e-6
-1.240, -6.835e-6
-1.239, -7.029e-6
-1.238, -7.356e-6
-1.237, -7.318e-6
-1.236, -7.034e-6
-1.235, -7.102e-6
-1.234, -7.188e-6
-1.233, -7.408e-6
-1.232, -7.447e-6
-1.231, -7.278e-6
-1.230, -7.146e-6
-1.229, -7.288e-6
-1.228, -7.464e-6
-1.227, -7.662e-6
-1.226, -7.462e-6
-1.225, -7.317e-6
-1.224, -7.331e-6
-1.223, -7.559e-6
-1.222, -7.710e-6
-1.221, -7.503e-6
-1.220, -7.325e-6
-1.219, -7.459e-6
-1.218, -7.717e-6
-1.217, -7.843e-6
-1.216, -7.561e-6
-1.215, -7.426e-6
-1.214, -7.533e-6
-1.213, -7.713e-6
-1.212, -7.848e-6
-1.211, -7.690e-6
-1.210, -7.507e-6
-1.209, -7.592e-6
-1.208, -7.767e-6
-1.207, -7.823e-6
-1.206, -7.699e-6
-1.205, -7.486e-6
-1.204, -7.577e-6
-1.203, -7.850e-6
-1.202, -7.891e-6
-1.201, -7.728e-6
-1.200, -7.487e-6
-1.199, -7.557e-6
-1.198, -7.863e-6
-1.197, -7.917e-6
-1.196, -7.711e-6
-1.195, -7.517e-6
-1.194, -7.521e-6
-1.193, -7.841e-6
-1.192, -7.894e-6
-1.191, -7.702e-6
-1.190, -7.601e-6
-1.189, -7.627e-6
-1.188, -7.862e-6
-1.187, -7.946e-6
-1.186, -7.788e-6
-1.185, -7.604e-6
-1.184, -7.674e-6
-1.183, -7.937e-6
-1.182, -8.004e-6
-1.181, -7.773e-6
-1.180, -7.604e-6
-1.179, -7.790e-6
-1.178, -7.927e-6
-1.177, -7.979e-6
-1.176, -7.877e-6
-1.175, -7.767e-6
-1.174, -7.921e-6
-1.173, -8.135e-6
-1.172, -8.078e-6
-1.171, -7.915e-6
-1.170, -7.678e-6
-1.169, -7.853e-6
-1.168, -8.149e-6
-1.167, -8.173e-6
-1.166, -8.086e-6
-1.165, -7.843e-6
-1.164, -7.995e-6
-1.163, -8.259e-6
-1.162, -8.251e-6
-1.161, -8.104e-6
-1.160, -7.937e-6
-1.159, -8.065e-6
-1.158, -8.399e-6
-1.157, -8.377e-6
-1.156, -8.253e-6
-1.155, -8.063e-6
-1.154, -8.201e-6
-1.153, -8.446e-6
-1.152, -8.430e-6
-1.151, -8.294e-6
-1.150, -8.166e-6
-1.149, -8.300e-6
-1.148, -8.532e-6
-1.147, -8.603e-6
-1.146, -8.453e-6
-1.145, -8.351e-6
-1.144, -8.409e-6
-1.143, -8.634e-6
-1.142, -8.676e-6
-1.141, -8.516e-6
-1.140, -8.395e-6
-1.139, -8.578e-6
-1.138, -8.830e-6
-1.137, -8.868e-6
-1.136, -8.705e-6
-1.135, -8.495e-6
-1.134, -8.675e-6
-1.133, -8.916e-6
-1.132, -8.955e-6
-1.131, -8.774e-6
-1.130, -8.685e-6
-1.129, -8.866e-6
-1.128, -9.066e-6
-1.127, -9.083e-6
-1.126, -8.935e-6
-1.125, -8.796e-6
-1.124, -8.954e-6
-1.123, -9.260e-6
-1.122, -9.328e-6
-1.121, -9.091e-6
-1.120, -8.957e-6
-1.119, -9.159e-6
-1.118, -9.421e-6
-1.117, -9.440e-6
-1.116, -9.256e-6
-1.115, -9.178e-6
-1.114, -9.331e-6
-1.113, -9.653e-6
-1.112, -9.635e-6
-1.111, -9.409e-6
-1.110, -9.320e-6
-1.109, -9.527e-6
-1.108, -9.805e-6
-1.107, -9.862e-6
-1.106, -9.646e-6
-1.105, -9.542e-6
-1.104, -9.725e-6
-1.103, -1.003e-5
-1.102, -1.010e-5
-1.101, -9.878e-6
-1.100, -9.776e-6
-1.099, -1.003e-5
-1.098, -1.030e-5
-1.097, -1.035e-5
-1.096, -1.015e-5
-1.095, -9.992e-6
-1.094, -1.029e-5
-1.093, -1.052e-5
-1.092, -1.062e-5
-1.091, -1.046e-5
-1.090, -1.032e-5
-1.089, -1.059e-5
-1.088, -1.085e-5
-1.087, -1.090e-5
-1.086, -1.077e-5
-1.085, -1.062e-5
-1.084, -1.088e-5
-1.083, -1.125e-5
-1.082, -1.123e-5
-1.081, -1.113e-5
-1.080, -1.094e-5
-1.079, -1.126e-5
-1.078, -1.161e-5
-1.077, -1.164e-5
-1.076, -1.149e-5
-1.075, -1.142e-5
-1.074, -1.169e-5
-1.073, -1.197e-5
-1.072, -1.202e-5
-1.071, -1.190e-5
-1.070, -1.191e-5
-1.069, -1.218e-5
-1.068, -1.244e-5
-1.067, -1.251e-5
-1.066, -1.235e-5
-1.065, -1.229e-5
-1.064, -1.261e-5
-1.063, -1.299e-5
-1.062, -1.313e-5
-1.061, -1.288e-5
-1.060, -1.287e-5
-1.059, -1.322e-5
-1.058, -1.353e-5
-1.057, -1.367e-5
-1.056, -1.352e-5
-1.055, -1.344e-5
-1.054, -1.389e-5
-1.053, -1.420e-5
-1.052, -1.433e-5
-1.051, -1.424e-5
-1.050, -1.422e-5
-1.049, -1.466e-5
-1.048, -1.496e-5
-1.047, -1.505e-5
-1.046, -1.501e-5
-1.045, -1.494e-5
-1.044, -1.539e-5
-1.043, -1.581e-5
-1.042, -1.597e-5
-1.041, -1.589e-5
-1.040, -1.591e-5
-1.039, -1.631e-5
-1.038, -1.680e-5
-1.037, -1.691e-5
-1.036, -1.689e-5
-1.035, -1.696e-5
-1.034, -1.744e-5
-1.033, -1.794e-5
-1.032, -1.808e-5
-1.031, -1.808e-5
-1.030, -1.819e-5
-1.029, -1.869e-5
-1.028, -1.918e-5
-1.027, -1.946e-5
-1.026, -1.940e-5
-1.025, -1.962e-5
-1.024, -2.020e-5
-1.023, -2.073e-5
-1.022, -2.104e-5
-1.021, -2.105e-5
-1.020, -2.127e-5
-1.019, -2.187e-5
-1.018, -2.247e-5
-1.017, -2.287e-5
-1.016, -2.287e-5
-1.015, -2.315e-5
-1.014, -2.384e-5
-1.013, -2.447e-5
-1.012, -2.485e-5
-1.011, -2.505e-5
-1.010, -2.539e-5
-1.009, -2.609e-5
-1.008, -2.678e-5
-1.007, -2.719e-5
-1.006, -2.741e-5
-1.005, -2.781e-5
-1.004, -2.850e-5
-1.003, -2.938e-5
-1.002, -2.979e-5
-1.001, -3.010e-5
-1.000, -2.144e-5
-1.001, -1.587e-5
-1.002, -1.283e-5
-1.003, -1.025e-5
-1.004, -7.793e-6
-1.005, -5.907e-6
-1.006, -4.578e-6
-1.007, -3.456e-6
-1.008, -2.225e-6
-1.009, -8.645e-7
-1.010, 2.257e-7
-1.011, 8.197e-7
-1.012, 1.333e-6
-1.013, 2.166e-6
-1.014, 3.018e-6
-1.015, 3.751e-6
-1.016, 3.994e-6
-1.017, 4.300e-6
-1.018, 4.858e-6
-1.019, 5.536e-6
-1.020, 6.048e-6
-1.021, 6.098e-6
-1.022, 6.220e-6
-1.023, 6.715e-6
-1.024, 7.292e-6
-1.025, 7.566e-6
-1.026, 7.655e-6
-1.027, 7.657e-6
-1.028, 8.014e-6
-1.029, 8.491e-6
-1.030, 8.754e-6
-1.031, 8.751e-6
-1.032, 8.656e-6
-1.033, 8.952e-6
-1.034, 9.448e-6
-1.035, 9.590e-6
-1.036, 9.528e-6
-1.037, 9.521e-6
-1.038, 9.687e-6
-1.039, 1.014e-5
-1.040, 1.025e-5
-1.041, 1.017e-5
-1.042, 1.010e-5
-1.043, 1.028e-5
-1.044, 1.069e-5
-1.045, 1.081e-5
-1.046, 1.068e-5
-1.047, 1.058e-5
-1.048, 1.077e-5
-1.049, 1.107e-5
-1.050, 1.118e-5
-1.051, 1.103e-5
-1.052, 1.095e-5
-1.053, 1.110e-5
-1.054, 1.138e-5
-1.055, 1.150e-5
-1.056, 1.125e-5
-1.057, 1.115e-5
-1.058, 1.131e-5
-1.059, 1.162e-5
-1.060, 1.163e-5
-1.061, 1.146e-5
-1.062, 1.129e-5
-1.063, 1.146e-5
-1.064, 1.170e-5
-1.065, 1.174e-5
-1.066, 1.149e-5
-1.067, 1.132e-5
-1.068, 1.146e-5
-1.069, 1.174e-5
-1.070, 1.173e-5
-1.071, 1.150e-5
-1.072, 1.133e-5
-1.073, 1.140e-5
-1.074, 1.169e-5
-1.075, 1.168e-5
-1.076, 1.145e-5
-1.077, 1.122e-5
-1.078, 1.132e-5
-1.079, 1.159e-5
-1.080, 1.152e-5
-1.081, 1.129e-5
-1.082, 1.112e-5
-1.083, 1.119e-5
-1.084, 1.143e-5
-1.085, 1.142e-5
-1.086, 1.108e-5
-1.087, 1.096e-5
-1.088, 1.104e-5
-1.089, 1.125e-5
-1.090, 1.118e-5
-1.091, 1.095e-5
-1.092, 1.076e-5
-1.093, 1.084e-5
-1.094, 1.102e-5
-1.095, 1.101e-5
-1.096, 1.068e-5
-1.097, 1.053e-5
-1.098, 1.063e-5
-1.099, 1.080e-5
-1.100, 1.072e-5
-1.101, 1.047e-5
-1.102, 1.024e-5
-1.103, 1.039e-5
-1.104, 1.051e-5
-1.105, 1.046e-5
-1.106, 1.020e-5
-1.107, 1.001e-5
-1.108, 1.011e-5
-1.109, 1.027e-5
-1.110, 1.019e-5
-1.111, 9.914e-6
-1.112, 9.720e-6
-1.113, 9.837e-6
-1.114, 1.006e-5
-1.115, 9.877e-6
-1.116, 9.630e-6
-1.117, 9.433e-6
-1.118, 9.569e-6
-1.119, 9.726e-6
-1.120, 9.599e-6
-1.121, 9.340e-6
-1.122, 9.199e-6
-1.123, 9.306e-6
-1.124, 9.461e-6
-1.125, 9.360e-6
-1.126, 9.041e-6
-1.127, 8.953e-6
-1.128, 9.056e-6
-1.129, 9.227e-6
-1.130, 9.147e-6
-1.131, 8.911e-6
-1.132, 8.713e-6
-1.133, 8.888e-6
-1.134, 9.045e-6
-1.135, 8.930e-6
-1.136, 8.650e-6
-1.137, 8.470e-6
-1.138, 8.678e-6
-1.139, 8.797e-6
-1.140, 8.733e-6
-1.141, 8.480e-6
-1.142, 8.280e-6
-1.143, 8.489e-6
-1.144, 8.605e-6
-1.145, 8.534e-6
-1.146, 8.295e-6
-1.147, 8.117e-6
-1.148, 8.358e-6
-1.149, 8.505e-6
-1.150, 8.384e-6
-1.151, 8.187e-6
-1.152, 8.004e-6
-1.153, 8.162e-6
-1.154, 8.362e-6
-1.155, 8.259e-6
-1.156, 8.037e-6
-1.157, 7.881e-6
-1.158, 8.120e-6
-1.159, 8.246e-6
-1.160, 8.184e-6
-1.161, 7.940e-6
-1.162, 7.844e-6
-1.163, 8.023e-6
-1.164, 8.175e-6
-1.165, 8.096e-6
-1.166, 7.855e-6
-1.167, 7.763e-6
-1.168, 7.969e-6
-1.169, 8.050e-6
-1.170, 8.008e-6
-1.171, 7.771e-6
-1.172, 7.684e-6
-1.173, 7.895e-6
-1.174, 8.021e-6
-1.175, 7.954e-6
-1.176, 7.674e-6
-1.177, 7.673e-6
-1.178, 7.890e-6
-1.179, 7.926e-6
-1.180, 7.887e-6
-1.181, 7.682e-6
-1.182, 7.578e-6
-1.183, 7.808e-6
-1.184, 7.926e-6
-1.185, 7.842e-6
-1.186, 7.634e-6
-1.187, 7.550e-6
-1.188, 7.750e-6
-1.189, 7.914e-6
-1.190, 7.806e-6
-1.191, 7.619e-6
-1.192, 7.568e-6
-1.193, 7.796e-6
-1.194, 7.950e-6
-1.195, 7.801e-6
-1.196, 7.550e-6
-1.197, 7.584e-6
-1.198, 7.730e-6
-1.199, 7.873e-6
-1.200, 7.800e-6
-1.201, 7.603e-6
-1.202, 7.614e-6
-1.203, 7.736e-6
-1.204, 7.925e-6
-1.205, 7.827e-6
-1.206, 7.588e-6
-1.207, 7.559e-6
-1.208, 7.743e-6
-1.209, 7.898e-6
-1.210, 7.848e-6
-1.211, 7.545e-6
-1.212, 7.589e-6
-1.213, 7.761e-6
-1.214, 7.945e-6
-1.215, 7.827e-6
-1.216, 7.618e-6
-1.217, 7.603e-6
-1.218, 7.821e-6
-1.219, 7.927e-6
-1.220, 7.824e-6
-1.221, 7.619e-6
-1.222, 7.677e-6
-1.223, 7.831e-6
-1.224, 7.979e-6
-1.225, 7.872e-6
-1.226, 7.686e-6
-1.227, 7.677e-6
-1.228, 7.919e-6
-1.229, 8.085e-6
-1.230, 7.971e-6
-1.231, 7.755e-6
-1.232, 7.758e-6
-1.233, 7.912e-6
-1.234, 8.137e-6
-1.235, 7.998e-6
-1.236, 7.812e-6
-1.237, 7.814e-6
-1.238, 7.979e-6
-1.239, 8.216e-6
-1.240, 8.057e-6
-1.241, 7.859e-6
-1.242, 7.973e-6
-1.243, 8.132e-6
-1.244, 8.224e-6
-1.245, 8.220e-6
-1.246, 8.022e-6
-1.247, 8.069e-6
-1.248, 8.264e-6
-1.249, 8.460e-6
-1.250, 8.400e-6
-1.251, 8.205e-6
-1.252, 8.221e-6
-1.253, 8.373e-6
-1.254, 8.578e-6
-1.255, 8.503e-6
-1.256, 8.290e-6
-1.257, 8.300e-6
-1.258, 8.597e-6
-1.259, 8.701e-6
-1.260, 8.633e-6
-1.261, 8.454e-6
-1.262, 8.479e-6
-1.263, 8.747e-6
-1.264, 8.892e-6
-1.265, 8.791e-6
-1.266, 8.676e-6
-1.267, 8.703e-6
-1.268, 8.963e-6
-1.269, 9.125e-6
-1.270, 8.989e-6
-1.271, 8.923e-6
-1.272, 8.888e-6
-1.273, 9.167e-6
-1.274, 9.355e-6
-1.275, 9.302e-6
-1.276, 9.167e-6
-1.277, 9.252e-6
-1.278, 9.456e-6
-1.279, 9.674e-6
-1.280, 9.585e-6
-1.281, 9.431e-6
-1.282, 9.551e-6
-1.283, 9.740e-6
-1.284, 9.965e-6
-1.285, 9.924e-6
-1.286, 9.805e-6
-1.287, 9.906e-6
-1.288, 1.012e-5
-1.289, 1.039e-5
-1.290, 1.035e-5
-1.291, 1.018e-5
-1.292, 1.028e-5
-1.293, 1.059e-5
-1.294, 1.079e-5
-1.295, 1.077e-5
-1.296, 1.066e-5
-1.297, 1.076e-5
-1.298, 1.110e-5
-1.299, 1.132e-5
-1.300, 1.122e-5
-1.301, 1.115e-5
-1.302, 1.127e-5
-1.303, 1.167e-5
-1.304, 1.185e-5
-1.305, 1.183e-5
-1.306, 1.176e-5
-1.307, 1.188e-5
-1.308, 1.222e-5
-1.309, 1.250e-5
-1.310, 1.244e-5
-1.311, 1.244e-5
-1.312, 1.260e-5
-1.313, 1.290e-5
-1.314, 1.321e-5
-1.315, 1.317e-5
-1.316, 1.319e-5
-1.317, 1.340e-5
-1.318, 1.379e-5
-1.319, 1.409e-5
-1.320, 1.409e-5
-1.321, 1.403e-5
-1.322, 1.424e-5
-1.323, 1.464e-5
-1.324, 1.501e-5
-1.325, 1.505e-5
-1.326, 1.512e-5
-1.327, 1.539e-5
-1.328, 1.580e-5
-1.329, 1.613e-5
-1.330, 1.622e-5
-1.331, 1.622e-5
-1.332, 1.657e-5
-1.333, 1.707e-5
-1.334, 1.745e-5
-1.335, 1.756e-5
-1.336, 1.760e-5
-1.337, 1.796e-5
-1.338, 1.850e-5
-1.339, 1.892e-5
-1.340, 1.900e-5
-1.341, 1.920e-5
-1.342, 1.961e-5
-1.343, 2.020e-5
-1.344, 2.066e-5
-1.345, 2.076e-5
-1.346, 2.106e-5
-1.347, 2.146e-5
-1.348, 2.213e-5
-1.349, 2.267e-5
-1.350, 2.286e-5
-1.351, 2.314e-5
-1.352, 2.370e-5
-1.353, 2.439e-5
-1.354, 2.496e-5
-1.355, 2.525e-5
-1.356, 2.553e-5
-1.357, 2.619e-5
-1.358, 2.695e-5
-1.359, 2.769e-5
-1.360, 2.799e-5
-1.361, 2.845e-5
-1.362, 2.915e-5
-1.363, 3.001e-5
-1.364, 3.075e-5
-1.365, 3.125e-5
-1.366, 3.180e-5
-1.367, 3.257e-5
-1.368, 3.351e-5
-1.369, 3.440e-5
-1.370, 3.500e-5
-1.371, 3.563e-5
-1.372, 3.655e-5
-1.373, 3.760e-5
-1.374, 3.855e-5
-1.375, 3.928e-5
-1.376, 4.011e-5
-1.377, 4.121e-5
-1.378, 4.253e-5
-1.379, 4.362e-5
-1.380, 4.454e-5
-1.381, 4.549e-5
-1.382, 4.679e-5
-1.383, 4.819e-5
-1.384, 4.942e-5
-1.385, 5.047e-5
-1.386, 5.170e-5
-1.387, 5.312e-5
-1.388, 5.485e-5
-1.389, 5.631e-5
-1.390, 5.758e-5
-1.391, 5.904e-5
-1.392, 6.068e-5
-1.393, 6.257e-5
-1.394, 6.432e-5
-1.395, 6.594e-5
-1.396, 6.758e-5
-1.397, 6.958e-5
-1.398, 7.172e-5
-1.399, 7.382e-5
-1.400, 7.573e-5
-1.401, 7.770e-5
-1.402, 8.004e-5
-1.403, 8.252e-5
-1.404, 8.494e-5
-1.405, 8.720e-5
-1.406, 8.961e-5
-1.407, 9.232e-5
-1.408, 9.524e-5
-1.409, 9.808e-5
-1.410, 1.009e-4
-1.411, 1.037e-4
-1.412, 1.069e-4
-1.413, 1.103e-4
-1.414, 1.137e-4
-1.415, 1.170e-4
-1.416, 1.203e-4
-1.417, 1.241e-4
-1.418, 1.282e-4
-1.419, 1.321e-4
-1.420, 1.360e-4
-1.421, 1.400e-4
-1.422, 1.445e-4
-1.423, 1.493e-4
-1.424, 1.540e-4
-1.425, 1.588e-4
-1.426, 1.638e-4
-1.427, 1.690e-4
-1.428, 1.746e-4
-1.429, 1.801e-4
-1.430, 1.856e-4
-1.431, 1.914e-4
-1.432, 1.975e-4
-1.433, 2.040e-4
-1.434, 2.106e-4
-1.435, 2.172e-4
-1.436, 2.239e-4
-1.437, 2.309e-4
-1.438, 2.383e-4
-1.439, 2.459e-4
-1.440, 2.533e-4
-1.441, 2.611e-4
-1.442, 2.693e-4
-1.443, 2.778e-4
-1.444, 2.865e-4
-1.445, 2.951e-4
-1.446, 3.039e-4
-1.447, 3.131e-4
-1.448, 3.229e-4
-1.449, 3.327e-4
-1.450, 3.428e-4
-1.451, 3.528e-4
-1.452, 3.633e-4
-1.453, 3.740e-4
-1.454, 3.849e-4
-1.455, 3.957e-4
-1.456, 4.070e-4
-1.457, 4.183e-4
-1.458, 4.314e-4
-1.459, 4.438e-4
-1.460, 4.554e-4
-1.461, 4.674e-4
-1.462, 4.802e-4
-1.463, 4.939e-4
-1.464, 5.080e-4
-1.465, 5.221e-4
-1.466, 5.364e-4
-1.467, 5.513e-4
-1.468, 5.664e-4
-1.469, 5.814e-4
-1.470, 5.969e-4
-1.471, 6.127e-4
-1.472, 6.290e-4
-1.473, 6.460e-4
-1.474, 6.629e-4
-1.475, 6.800e-4
-1.476, 6.974e-4
-1.477, 7.154e-4
-1.478, 7.335e-4
-1.479, 7.523e-4
-1.480, 7.708e-4
-1.481, 7.897e-4
-1.482, 8.087e-4
-1.483, 8.286e-4
-1.484, 8.493e-4
-1.485, 8.696e-4
-1.486, 8.906e-4
-1.487, 9.113e-4
-1.488, 9.324e-4
-1.489, 9.545e-4
-1.490, 9.764e-4
-1.491, 9.986e-4
-1.492, 1.021e-3
-1.493, 1.044e-3
-1.494, 1.068e-3
-1.495, 1.091e-3
-1.496, 1.115e-3
-1.497, 1.139e-3
-1.498, 1.163e-3
-1.499, 1.188e-3
-1.500, 1.214e-3
-1.501, 1.238e-3
-1.502, 1.264e-3
-1.503, 1.291e-3
-1.504, 1.318e-3
-1.505, 1.345e-3
-1.506, 1.371e-3
-1.507, 1.397e-3
-1.508, 1.425e-3
-1.509, 1.452e-3
-1.510, 1.480e-3
-1.511, 1.509e-3
-1.512, 1.536e-3
-1.513, 1.559e-3
-1.514, 1.588e-3
-1.515, 1.622e-3
-1.516, 1.653e-3
-1.517, 1.676e-3
-1.518, 1.699e-3
-1.519, 1.725e-3
-1.520, 1.754e-3
-1.521, 1.785e-3
-1.522, 1.819e-3
-1.523, 1.853e-3
-1.524, 1.887e-3
-1.525, 1.914e-3
-1.526, 1.943e-3
-1.527, 1.973e-3
-1.528, 2.003e-3
-1.529, 2.035e-3
-1.530, 2.068e-3
-1.531, 2.099e-3
-1.532, 2.130e-3
-1.533, 2.165e-3
-1.534, 2.201e-3
-1.535, 2.234e-3
-1.536, 2.266e-3
-1.537, 2.297e-3
-1.538, 2.328e-3
-1.539, 2.359e-3
-1.540, 2.390e-3
-1.541, 2.423e-3
-1.542, 2.452e-3
-1.543, 2.482e-3
-1.544, 2.512e-3
-1.545, 2.541e-3
-1.546, 2.567e-3
-1.547, 2.601e-3
-1.548, 2.632e-3
-1.549, 2.655e-3
-1.550, 2.683e-3
-1.551, 2.716e-3
-1.552, 2.747e-3
-1.553, 2.781e-3
-1.554, 2.817e-3
-1.555, 2.848e-3
-1.556, 2.873e-3
-1.557, 2.898e-3
-1.558, 2.928e-3
-1.559, 2.956e-3
-1.560, 2.989e-3
-1.561, 3.011e-3
-1.562, 3.024e-3
-1.563, 3.050e-3
-1.564, 3.077e-3
-1.565, 3.087e-3
-1.566, 3.106e-3
-1.567, 3.130e-3
-1.568, 3.151e-3
-1.569, 3.168e-3
-1.570, 3.202e-3
-1.571, 3.234e-3
-1.572, 3.272e-3
-1.573, 3.308e-3
-1.574, 3.333e-3
-1.575, 3.362e-3
-1.576, 3.379e-3
-1.577, 3.415e-3
-1.578, 3.452e-3
-1.579, 3.480e-3
-1.580, 3.505e-3
-1.581, 3.538e-3
-1.582, 3.565e-3
-1.583, 3.571e-3
-1.584, 3.589e-3
-1.585, 3.619e-3
-1.586, 3.656e-3
-1.587, 3.707e-3
-1.588, 3.768e-3
-1.589, 3.815e-3
-1.590, 3.813e-3
-1.591, 3.765e-3
-1.592, 3.774e-3
-1.593, 3.815e-3
-1.594, 3.851e-3
-1.595, 3.894e-3
-1.596, 3.959e-3
-1.597, 4.048e-3
-1.598, 4.074e-3
-1.599, 4.061e-3
-1.600, 4.025e-3
-1.599, 3.971e-3
-1.598, 3.944e-3
-1.597, 3.960e-3
-1.596, 3.926e-3
-1.595, 3.883e-3
-1.594, 3.837e-3
-1.593, 3.798e-3
-1.592, 3.757e-3
-1.591, 3.729e-3
-1.590, 3.681e-3
-1.589, 3.637e-3
-1.588, 3.592e-3
-1.587, 3.558e-3
-1.586, 3.520e-3
-1.585, 3.479e-3
-1.584, 3.431e-3
-1.583, 3.389e-3
-1.582, 3.364e-3
-1.581, 3.344e-3
-1.580, 3.316e-3
-1.579, 3.286e-3
-1.578, 3.229e-3
-1.577, 3.189e-3
-1.576, 3.164e-3
-1.575, 3.145e-3
-1.574, 3.117e-3
-1.573, 3.090e-3
-1.572, 3.058e-3
-1.571, 3.028e-3
-1.570, 2.995e-3
-1.569, 2.960e-3
-1.568, 2.923e-3
-1.567, 2.896e-3
-1.566, 2.862e-3
-1.565, 2.842e-3
-1.564, 2.811e-3
-1.563, 2.791e-3
-1.562, 2.752e-3
-1.561, 2.723e-3
-1.560, 2.690e-3
-1.559, 2.660e-3
-1.558, 2.641e-3
-1.557, 2.605e-3
-1.556, 2.562e-3
-1.555, 2.535e-3
-1.554, 2.503e-3
-1.553, 2.476e-3
-1.552, 2.449e-3
-1.551, 2.422e-3
-1.550, 2.399e-3
-1.549, 2.367e-3
-1.548, 2.334e-3
-1.547, 2.304e-3
-1.546, 2.279e-3
-1.545, 2.251e-3
-1.544, 2.215e-3
-1.543, 2.190e-3
-1.542, 2.161e-3
-1.541, 2.134e-3
-1.540, 2.117e-3
-1.539, 2.087e-3
-1.538, 2.059e-3
-1.537, 2.019e-3
-1.536, 2.005e-3
-1.535, 1.978e-3
-1.534, 1.957e-3
-1.533, 1.932e-3
-1.532, 1.908e-3
-1.531, 1.887e-3
-1.530, 1.859e-3
-1.529, 1.833e-3
-1.528, 1.797e-3
-1.527, 1.769e-3
-1.526, 1.742e-3
-1.525, 1.718e-3
-1.524, 1.695e-3
-1.523, 1.672e-3
-1.522, 1.649e-3
-1.521, 1.624e-3
-1.520, 1.603e-3
-1.519, 1.582e-3
-1.518, 1.558e-3
-1.517, 1.536e-3
-1.516, 1.514e-3
-1.515, 1.490e-3
-1.514, 1.466e-3
-1.513, 1.444e-3
-1.512, 1.421e-3
-1.511, 1.399e-3
-1.510, 1.376e-3
-1.509, 1.355e-3
-1.508, 1.334e-3
-1.507, 1.314e-3
-1.506, 1.293e-3
-1.505, 1.271e-3
-1.504, 1.251e-3
-1.503, 1.230e-3
-1.502, 1.208e-3
-1.501, 1.188e-3
-1.500, 1.169e-3
-1.499, 1.150e-3
-1.498, 1.131e-3
-1.497, 1.112e-3
-1.496, 1.092e-3
-1.495, 1.071e-3
-1.494, 1.053e-3
-1.493, 1.030e-3
-1.492, 1.010e-3
-1.491, 9.901e-4
-1.490, 9.704e-4
-1.489, 9.513e-4
-1.488, 9.344e-4
-1.487, 9.178e-4
-1.486, 9.014e-4
-1.485, 8.849e-4
-1.484, 8.673e-4
-1.483, 8.500e-4
-1.482, 8.332e-4
-1.481, 8.166e-4
-1.480, 8.010e-4
-1.479, 7.867e-4
-1.478, 7.723e-4
-1.477, 7.579e-4
-1.476, 7.429e-4
-1.475, 7.290e-4
-1.474, 7.154e-4
-1.473, 7.016e-4
-1.472, 6.884e-4
-1.471, 6.745e-4
-1.470, 6.611e-4
-1.469, 6.486e-4
-1.468, 6.358e-4
-1.467, 6.229e-4
-1.466, 6.100e-4
-1.465, 5.973e-4
-1.464, 5.840e-4
-1.463, 5.706e-4
-1.462, 5.588e-4
-1.461, 5.472e-4
-1.460, 5.360e-4
-1.459, 5.262e-4
-1.458, 5.151e-4
-1.457, 5.043e-4
-1.456, 4.936e-4
-1.455, 4.828e-4
-1.454, 4.723e-4
-1.453, 4.624e-4
-1.452, 4.523e-4
-1.451, 4.419e-4
-1.450, 4.319e-4
-1.449, 4.222e-4
-1.448, 4.128e-4
-1.447, 4.036e-4
-1.446, 3.951e-4
-1.445, 3.858e-4
-1.444, 3.768e-4
-1.443, 3.684e-4
-1.442, 3.603e-4
-1.441, 3.517e-4
-1.440, 3.437e-4
-1.439, 3.354e-4
-1.438, 3.277e-4
-1.437, 3.202e-4
-1.436, 3.124e-4
-1.435, 3.054e-4
-1.434, 2.983e-4
-1.433, 2.912e-4
-1.432, 2.842e-4
-1.431, 2.772e-4
-1.430, 2.704e-4
-1.429, 2.639e-4
-1.428, 2.574e-4
-1.427, 2.509e-4
-1.426, 2.444e-4
-1.425, 2.382e-4
-1.424, 2.322e-4
-1.423, 2.264e-4
-1.422, 2.207e-4
-1.421, 2.150e-4
-1.420, 2.094e-4
-1.419, 2.041e-4
-1.418, 1.990e-4
-1.417, 1.940e-4
-1.416, 1.888e-4
-1.415, 1.838e-4
-1.414, 1.789e-4
-1.413, 1.744e-4
-1.412, 1.697e-4
-1.411, 1.650e-4
-1.410, 1.604e-4
-1.409, 1.560e-4
-1.408, 1.520e-4
-1.407, 1.478e-4
-1.406, 1.437e-4
-1.405, 1.397e-4
-1.404, 1.358e-4
-1.403, 1.323e-4
-1.402, 1.287e-4
-1.401, 1.250e-4
-1.400, 1.212e-4
-1.399, 1.176e-4
-1.398, 1.145e-4
-1.397, 1.112e-4
-1.396, 1.079e-4
-1.395, 1.045e-4
-1.394, 1.015e-4
-1.393, 9.867e-5
-1.392, 9.577e-5
-1.391, 9.282e-5
-1.390, 8.981e-5
-1.389, 8.723e-5
-1.388, 8.468e-5
-1.387, 8.205e-5
-1.386, 7.941e-5
-1.385, 7.681e-5
-1.384, 7.461e-5
-1.383, 7.252e-5
-1.382, 7.024e-5
-1.381, 6.786e-5
-1.380, 6.554e-5
-1.379, 6.352e-5
-1.378, 6.170e-5
-1.377, 5.974e-5
-1.376, 5.768e-5
-1.375, 5.569e-5
-1.374, 5.393e-5
-1.373, 5.241e-5
-1.372, 5.069e-5
-1.371, 4.886e-5
-1.370, 4.723e-5
-1.369, 4.570e-5
-1.368, 4.435e-5
-1.367, 4.282e-5
-1.366, 4.122e-5
-1.365, 3.978e-5
-1.364, 3.853e-5
-1.363, 3.737e-5
-1.362, 3.614e-5
-1.361, 3.460e-5
-1.360, 3.325e-5
-1.359, 3.218e-5
-1.358, 3.130e-5
-1.357, 3.016e-5
-1.356, 2.898e-5
-1.355, 2.780e-5
-1.354, 2.690e-5
-1.353, 2.611e-5
-1.352, 2.519e-5
-1.351, 2.402e-5
-1.350, 2.299e-5
-1.349, 2.226e-5
-1.348, 2.160e-5
-1.347, 2.073e-5
-1.346, 1.976e-5
-1.345, 1.883e-5
-1.344, 1.827e-5
-1.343, 1.769e-5
-1.342, 1.687e-5
-1.341, 1.599e-5
-1.340, 1.521e-5
-1.339, 1.468e-5
-1.338, 1.427e-5
-1.337, 1.359e-5
-1.336, 1.281e-5
-1.335, 1.212e-5
-1.334, 1.167e-5
-1.333, 1.140e-5
-1.332, 1.084e-5
-1.331, 1.007e-5
-1.330, 9.490e-6
-1.329, 9.142e-6
-1.328, 8.814e-6
-1.327, 8.219e-6
-1.326, 7.602e-6
-1.325, 7.102e-6
-1.324, 6.877e-6
-1.323, 6.549e-6
-1.322, 6.161e-6
-1.321, 5.581e-6
-1.320, 5.194e-6
-1.319, 5.078e-6
-1.318, 4.805e-6
-1.317, 4.344e-6
-1.316, 3.741e-6
-1.315, 3.262e-6
-1.314, 3.167e-6
-1.313, 3.054e-6
-1.312, 2.697e-6
-1.311, 2.221e-6
-1.310, 1.806e-6
-1.309, 1.683e-6
-1.308, 1.573e-6
-1.307, 1.266e-6
-1.306, 8.729e-7
-1.305, 5.178e-7
-1.304, 4.763e-7
-1.303, 4.359e-7
-1.302, 7.972e-8
-1.301, -3.761e-7
-1.300, -7.135e-7
-1.299, -5.981e-7
-1.298, -4.067e-7
-1.297, -6.208e-7
-1.296, -1.179e-6
-1.295, -1.686e-6
-1.294, -1.690e-6
-1.293, -1.629e-6
-1.292, -1.749e-6
-1.291, -2.219e-6
-1.290, -2.426e-6
-1.289, -2.397e-6
-1.288, -2.310e-6
-1.287, -2.611e-6
-1.286, -3.032e-6
-1.285, -3.270e-6
-1.284, -3.312e-6
-1.283, -3.253e-6
-1.282, -3.369e-6
-1.281, -3.732e-6
-1.280, -3.976e-6
-1.279, -3.920e-6
-1.278, -3.796e-6
-1.277, -3.959e-6
-1.276, -4.330e-6
-1.275, -4.588e-6
-1.274, -4.512e-6
-1.273, -4.439e-6
-1.272, -4.608e-6
-1.271, -4.965e-6
-1.270, -5.169e-6
-1.269, -5.016e-6
-1.268, -4.939e-6
-1.267, -5.118e-6
-1.266, -5.424e-6
-1.265, -5.583e-6
-1.264, -5.427e-6
-1.263, -5.322e-6
-1.262, -5.503e-6
-1.261, -5.777e-6
-1.260, -6.056e-6
-1.259, -5.951e-6
-1.258, -5.683e-6
-1.257, -5.796e-6
-1.256, -6.111e-6
-1.255, -6.341e-6
-1.254, -6.264e-6
-1.253, -6.080e-6
-1.252, -6.195e-6
-1.251, -6.520e-6
-1.250, -6.602e-6
-1.249, -6.489e-6
-1.248, -6.352e-6
-1.247, -6.515e-6
-1.246, -6.845e-6
-1.245, -6.939e-6
-1.244, -6.774e-6
-1.243, -6.569e-6
-1.242, -6.718e-6
-1.241, -6.988e-6
-1.240, -7.088e-6
-1.239, -6.839e-6
-1.238, -6.767e-6
-1.237, -6.949e-6
-1.236, -7.231e-6
-1.235, -7.460e-6
-1.234, -7.221e-6
-1.233, -7.085e-6
-1.232, -7.110e-6
-1.231, -7.336e-6
-1.230, -7.304e-6
-1.229, -7.274e-6
-1.228, -7.060e-6
-1.227, -7.246e-6
-1.226, -7.484e-6
-1.225, -7.547e-6
-1.224, -7.325e-6
-1.223, -7.158e-6
-1.222, -7.324e-6
-1.221, -7.485e-6
-1.220, -7.461e-6
-1.219, -7.311e-6
-1.218, -7.017e-6
-1.217, -7.245e-6
-1.216, -7.557e-6
-1.215, -7.591e-6
-1.214, -7.480e-6
-1.213, -7.239e-6
-1.212, -7.349e-6
-1.211, -7.558e-6
-1.210, -7.559e-6
-1.209, -7.348e-6
-1.208, -7.218e-6
-1.207, -7.345e-6
-1.206, -7.672e-6
-1.205, -7.602e-6
-1.204, -7.463e-6
-1.203, -7.376e-6
-1.202, -7.446e-6
-1.201, -7.696e-6
-1.200, -7.625e-6
-1.199, -7.483e-6
-1.198, -7.357e-6
-1.197, -7.461e-6
-1.196, -7.678e-6
-1.195, -7.673e-6
-1.194, -7.467e-6
-1.193, -7.308e-6
-1.192, -7.441e-6
-1.191, -7.715e-6
-1.190, -7.754e-6
-1.189, -7.531e-6
-1.188, -7.371e-6
-1.187, -7.539e-6
-1.186, -7.694e-6
-1.185, -7.793e-6
-1.184, -7.545e-6
-1.183, -7.409e-6
-1.182, -7.569e-6
-1.181, -7.781e-6
-1.180, -7.764e-6
-1.179, -7.629e-6
-1.178, -7.492e-6
-1.177, -7.586e-6
-1.176, -7.731e-6
-1.175, -7.790e-6
-1.174, -7.727e-6
-1.173, -7.607e-6
-1.172, -7.724e-6
-1.171, -8.004e-6
-1.170, -7.941e-6
-1.169, -7.716e-6
-1.168, -7.576e-6
-1.167, -7.763e-6
-1.166, -8.066e-6
-1.165, -8.078e-6
-1.164, -7.858e-6
-1.163, -7.673e-6
-1.162, -7.896e-6
-1.161, -8.129e-6
-1.160, -8.150e-6
-1.159, -7.907e-6
-1.158, -7.793e-6
-1.157, -7.907e-6
-1.156, -8.146e-6
-1.155, -8.198e-6
-1.154, -8.010e-6
-1.153, -7.916e-6
-1.152, -8.056e-6
-1.151, -8.314e-6
-1.150, -8.341e-6
-1.149, -8.077e-6
-1.148, -8.008e-6
-1.147, -8.150e-6
-1.146, -8.390e-6
-1.145, -8.420e-6
-1.144, -8.226e-6
-1.143, -8.121e-6
-1.142, -8.379e-6
-1.141, -8.569e-6
-1.140, -8.547e-6
-1.139, -8.430e-6
-1.138, -8.221e-6
-1.137, -8.516e-6
-1.136, -8.641e-6
-1.135, -8.692e-6
-1.134, -8.508e-6
-1.133, -8.357e-6
-1.132, -8.589e-6
-1.131, -8.789e-6
-1.130, -8.814e-6
-1.129, -8.608e-6
-1.128, -8.513e-6
-1.127, -8.696e-6
-1.126, -8.957e-6
-1.125, -8.955e-6
-1.124, -8.778e-6
-1.123, -8.671e-6
-1.122, -8.872e-6
-1.121, -9.149e-6
-1.120, -9.086e-6
-1.119, -8.931e-6
-1.118, -8.813e-6
-1.117, -9.005e-6
-1.116, -9.209e-6
-1.115, -9.227e-6
-1.114, -9.027e-6
-1.113, -9.001e-6
-1.112, -9.177e-6
-1.111, -9.437e-6
-1.110, -9.443e-6
-1.109, -9.227e-6
-1.108, -9.114e-6
-1.107, -9.444e-6
-1.106, -9.609e-6
-1.105, -9.657e-6
-1.104, -9.398e-6
-1.103, -9.347e-6
-1.102, -9.637e-6
-1.101, -9.860e-6
-1.100, -9.877e-6
-1.099, -9.674e-6
-1.098, -9.599e-6
-1.097, -9.885e-6
-1.096, -1.011e-5
-1.095, -1.009e-5
-1.094, -9.932e-6
-1.093, -9.840e-6
-1.092, -1.013e-5
-1.091, -1.042e-5
-1.090, -1.042e-5
-1.089, -1.025e-5
-1.088, -1.010e-5
-1.087, -1.042e-5
-1.086, -1.066e-5
-1.085, -1.065e-5
-1.084, -1.051e-5
-1.083, -1.052e-5
-1.082, -1.077e-5
-1.081, -1.104e-5
-1.080, -1.103e-5
-1.079, -1.082e-5
-1.078, -1.088e-5
-1.077, -1.113e-5
-1.076, -1.141e-5
-1.075, -1.151e-5
-1.074, -1.128e-5
-1.073, -1.128e-5
-1.072, -1.153e-5
-1.071, -1.188e-5
-1.070, -1.195e-5
-1.069, -1.173e-5
-1.068, -1.173e-5
-1.067, -1.208e-5
-1.066, -1.234e-5
-1.065, -1.241e-5
-1.064, -1.221e-5
-1.063, -1.221e-5
-1.062, -1.256e-5
-1.061, -1.283e-5
-1.060, -1.286e-5
-1.059, -1.275e-5
-1.058, -1.281e-5
-1.057, -1.319e-5
-1.056, -1.347e-5
-1.055, -1.352e-5
-1.054, -1.342e-5
-1.053, -1.341e-5
-1.052, -1.381e-5
-1.051, -1.422e-5
-1.050, -1.421e-5
-1.049, -1.412e-5
-1.048, -1.418e-5
-1.047, -1.456e-5
-1.046, -1.497e-5
-1.045, -1.500e-5
-1.044, -1.486e-5
-1.043, -1.506e-5
-1.042, -1.539e-5
-1.041, -1.584e-5
-1.040, -1.587e-5
-1.039, -1.577e-5
-1.038, -1.601e-5
-1.037, -1.633e-5
-1.036, -1.681e-5
-1.035, -1.693e-5
-1.034, -1.684e-5
-1.033, -1.703e-5
-1.032, -1.744e-5
-1.031, -1.792e-5
-1.030, -1.814e-5
-1.029, -1.805e-5
-1.028, -1.828e-5
-1.027, -1.884e-5
-1.026, -1.923e-5
-1.025, -1.954e-5
-1.024, -1.954e-5
-1.023, -1.974e-5
-1.022, -2.035e-5
-1.021, -2.083e-5
-1.020, -2.111e-5
-1.019, -2.116e-5
-1.018, -2.145e-5
-1.017, -2.209e-5
-1.016, -2.264e-5
-1.015, -2.292e-5
-1.014, -2.309e-5
-1.013, -2.341e-5
-1.012, -2.403e-5
-1.011, -2.476e-5
-1.010, -2.508e-5
-1.009, -2.526e-5
-1.008, -2.559e-5
-1.007, -2.637e-5
-1.006, -2.712e-5
-1.005, -2.748e-5
-1.004, -2.770e-5
-1.003, -2.822e-5
-1.002, -2.895e-5
-1.001, -2.974e-5
