Dec. 24, 2024   18:27:02
Cyclic Voltammetry
File: c:/users/guazh/data/banditlqround7_x0exp136_r20/2024-12-24-exp730\exp730-2024-12-24t18_10_29-h2koh\exp730_cv_sr_800mvs_efin_-1700mv.bin
Data Source:  Experiment
Instrument Model:  CHI760E
Header: CV ran at 800 mVs
Note: 

Init E (V) = -1
High E (V) = -1
Low E (V) = -1.7
Final E (V) = -1
Init P/N = N
Scan Rate (V/s) = 0.8
Segment = 3
Sample Interval (V) = 0.001
Quiet Time (sec) = 2
Sensitivity (A/V) = 0.01
Comp R (ohm) = 1.2

Results:

Channel 1:
Segment 1:

Segment 2:

Segment 3:

Potential/V, Current/A

-1.000, 1.249e-5
-1.001, 3.099e-5
-1.002, 4.332e-5
-1.003, 4.640e-5
-1.004, 5.257e-5
-1.005, 5.565e-5
-1.006, 5.565e-5
-1.007, 5.873e-5
-1.008, 6.182e-5
-1.009, 6.490e-5
-1.010, 6.490e-5
-1.011, 6.798e-5
-1.012, 6.798e-5
-1.013, 6.798e-5
-1.014, 7.107e-5
-1.015, 7.107e-5
-1.016, 7.415e-5
-1.017, 7.415e-5
-1.018, 7.723e-5
-1.019, 7.723e-5
-1.020, 7.723e-5
-1.021, 7.723e-5
-1.022, 7.723e-5
-1.023, 8.032e-5
-1.024, 8.340e-5
-1.025, 8.648e-5
-1.026, 8.648e-5
-1.027, 8.648e-5
-1.028, 8.648e-5
-1.029, 8.648e-5
-1.030, 8.957e-5
-1.031, 8.957e-5
-1.032, 8.957e-5
-1.033, 8.957e-5
-1.034, 9.265e-5
-1.035, 9.573e-5
-1.036, 9.573e-5
-1.037, 9.882e-5
-1.038, 9.882e-5
-1.039, 1.019e-4
-1.040, 1.019e-4
-1.041, 1.019e-4
-1.042, 1.050e-4
-1.043, 1.050e-4
-1.044, 1.050e-4
-1.045, 1.050e-4
-1.046, 1.081e-4
-1.047, 1.081e-4
-1.048, 1.111e-4
-1.049, 1.111e-4
-1.050, 1.142e-4
-1.051, 1.173e-4
-1.052, 1.204e-4
-1.053, 1.204e-4
-1.054, 1.204e-4
-1.055, 1.235e-4
-1.056, 1.235e-4
-1.057, 1.235e-4
-1.058, 1.266e-4
-1.059, 1.266e-4
-1.060, 1.296e-4
-1.061, 1.296e-4
-1.062, 1.327e-4
-1.063, 1.327e-4
-1.064, 1.358e-4
-1.065, 1.389e-4
-1.066, 1.389e-4
-1.067, 1.420e-4
-1.068, 1.420e-4
-1.069, 1.420e-4
-1.070, 1.451e-4
-1.071, 1.451e-4
-1.072, 1.451e-4
-1.073, 1.451e-4
-1.074, 1.481e-4
-1.075, 1.481e-4
-1.076, 1.512e-4
-1.077, 1.512e-4
-1.078, 1.543e-4
-1.079, 1.543e-4
-1.080, 1.543e-4
-1.081, 1.574e-4
-1.082, 1.574e-4
-1.083, 1.574e-4
-1.084, 1.574e-4
-1.085, 1.574e-4
-1.086, 1.605e-4
-1.087, 1.605e-4
-1.088, 1.605e-4
-1.089, 1.636e-4
-1.090, 1.636e-4
-1.091, 1.666e-4
-1.092, 1.666e-4
-1.093, 1.666e-4
-1.094, 1.697e-4
-1.095, 1.697e-4
-1.096, 1.666e-4
-1.097, 1.697e-4
-1.098, 1.666e-4
-1.099, 1.697e-4
-1.100, 1.697e-4
-1.101, 1.697e-4
-1.102, 1.697e-4
-1.103, 1.697e-4
-1.104, 1.697e-4
-1.105, 1.728e-4
-1.106, 1.728e-4
-1.107, 1.728e-4
-1.108, 1.728e-4
-1.109, 1.728e-4
-1.110, 1.728e-4
-1.111, 1.697e-4
-1.112, 1.697e-4
-1.113, 1.697e-4
-1.114, 1.697e-4
-1.115, 1.697e-4
-1.116, 1.697e-4
-1.117, 1.697e-4
-1.118, 1.697e-4
-1.119, 1.697e-4
-1.120, 1.697e-4
-1.121, 1.697e-4
-1.122, 1.697e-4
-1.123, 1.697e-4
-1.124, 1.697e-4
-1.125, 1.666e-4
-1.126, 1.666e-4
-1.127, 1.666e-4
-1.128, 1.666e-4
-1.129, 1.666e-4
-1.130, 1.666e-4
-1.131, 1.666e-4
-1.132, 1.666e-4
-1.133, 1.666e-4
-1.134, 1.666e-4
-1.135, 1.666e-4
-1.136, 1.636e-4
-1.137, 1.636e-4
-1.138, 1.636e-4
-1.139, 1.636e-4
-1.140, 1.636e-4
-1.141, 1.636e-4
-1.142, 1.636e-4
-1.143, 1.636e-4
-1.144, 1.605e-4
-1.145, 1.636e-4
-1.146, 1.605e-4
-1.147, 1.605e-4
-1.148, 1.605e-4
-1.149, 1.605e-4
-1.150, 1.574e-4
-1.151, 1.574e-4
-1.152, 1.574e-4
-1.153, 1.543e-4
-1.154, 1.574e-4
-1.155, 1.574e-4
-1.156, 1.574e-4
-1.157, 1.574e-4
-1.158, 1.574e-4
-1.159, 1.574e-4
-1.160, 1.574e-4
-1.161, 1.574e-4
-1.162, 1.543e-4
-1.163, 1.543e-4
-1.164, 1.543e-4
-1.165, 1.543e-4
-1.166, 1.512e-4
-1.167, 1.512e-4
-1.168, 1.512e-4
-1.169, 1.512e-4
-1.170, 1.512e-4
-1.171, 1.512e-4
-1.172, 1.543e-4
-1.173, 1.512e-4
-1.174, 1.512e-4
-1.175, 1.512e-4
-1.176, 1.512e-4
-1.177, 1.481e-4
-1.178, 1.481e-4
-1.179, 1.481e-4
-1.180, 1.481e-4
-1.181, 1.481e-4
-1.182, 1.481e-4
-1.183, 1.512e-4
-1.184, 1.512e-4
-1.185, 1.512e-4
-1.186, 1.512e-4
-1.187, 1.512e-4
-1.188, 1.512e-4
-1.189, 1.512e-4
-1.190, 1.481e-4
-1.191, 1.481e-4
-1.192, 1.481e-4
-1.193, 1.481e-4
-1.194, 1.481e-4
-1.195, 1.481e-4
-1.196, 1.481e-4
-1.197, 1.481e-4
-1.198, 1.481e-4
-1.199, 1.481e-4
-1.200, 1.481e-4
-1.201, 1.481e-4
-1.202, 1.481e-4
-1.203, 1.481e-4
-1.204, 1.481e-4
-1.205, 1.481e-4
-1.206, 1.481e-4
-1.207, 1.481e-4
-1.208, 1.451e-4
-1.209, 1.481e-4
-1.210, 1.481e-4
-1.211, 1.481e-4
-1.212, 1.481e-4
-1.213, 1.481e-4
-1.214, 1.481e-4
-1.215, 1.481e-4
-1.216, 1.451e-4
-1.217, 1.451e-4
-1.218, 1.451e-4
-1.219, 1.451e-4
-1.220, 1.420e-4
-1.221, 1.420e-4
-1.222, 1.451e-4
-1.223, 1.451e-4
-1.224, 1.451e-4
-1.225, 1.451e-4
-1.226, 1.451e-4
-1.227, 1.451e-4
-1.228, 1.451e-4
-1.229, 1.420e-4
-1.230, 1.420e-4
-1.231, 1.420e-4
-1.232, 1.420e-4
-1.233, 1.389e-4
-1.234, 1.389e-4
-1.235, 1.389e-4
-1.236, 1.389e-4
-1.237, 1.420e-4
-1.238, 1.420e-4
-1.239, 1.389e-4
-1.240, 1.389e-4
-1.241, 1.389e-4
-1.242, 1.389e-4
-1.243, 1.389e-4
-1.244, 1.389e-4
-1.245, 1.358e-4
-1.246, 1.358e-4
-1.247, 1.358e-4
-1.248, 1.358e-4
-1.249, 1.327e-4
-1.250, 1.358e-4
-1.251, 1.327e-4
-1.252, 1.358e-4
-1.253, 1.327e-4
-1.254, 1.327e-4
-1.255, 1.327e-4
-1.256, 1.327e-4
-1.257, 1.327e-4
-1.258, 1.296e-4
-1.259, 1.296e-4
-1.260, 1.296e-4
-1.261, 1.327e-4
-1.262, 1.296e-4
-1.263, 1.327e-4
-1.264, 1.296e-4
-1.265, 1.296e-4
-1.266, 1.296e-4
-1.267, 1.296e-4
-1.268, 1.296e-4
-1.269, 1.296e-4
-1.270, 1.266e-4
-1.271, 1.266e-4
-1.272, 1.266e-4
-1.273, 1.266e-4
-1.274, 1.235e-4
-1.275, 1.266e-4
-1.276, 1.266e-4
-1.277, 1.266e-4
-1.278, 1.266e-4
-1.279, 1.266e-4
-1.280, 1.266e-4
-1.281, 1.266e-4
-1.282, 1.235e-4
-1.283, 1.235e-4
-1.284, 1.235e-4
-1.285, 1.235e-4
-1.286, 1.235e-4
-1.287, 1.235e-4
-1.288, 1.235e-4
-1.289, 1.235e-4
-1.290, 1.266e-4
-1.291, 1.266e-4
-1.292, 1.266e-4
-1.293, 1.266e-4
-1.294, 1.266e-4
-1.295, 1.266e-4
-1.296, 1.266e-4
-1.297, 1.235e-4
-1.298, 1.235e-4
-1.299, 1.235e-4
-1.300, 1.235e-4
-1.301, 1.235e-4
-1.302, 1.235e-4
-1.303, 1.235e-4
-1.304, 1.235e-4
-1.305, 1.235e-4
-1.306, 1.235e-4
-1.307, 1.235e-4
-1.308, 1.235e-4
-1.309, 1.235e-4
-1.310, 1.235e-4
-1.311, 1.204e-4
-1.312, 1.204e-4
-1.313, 1.204e-4
-1.314, 1.204e-4
-1.315, 1.204e-4
-1.316, 1.204e-4
-1.317, 1.235e-4
-1.318, 1.235e-4
-1.319, 1.235e-4
-1.320, 1.235e-4
-1.321, 1.235e-4
-1.322, 1.204e-4
-1.323, 1.204e-4
-1.324, 1.204e-4
-1.325, 1.204e-4
-1.326, 1.204e-4
-1.327, 1.204e-4
-1.328, 1.204e-4
-1.329, 1.235e-4
-1.330, 1.204e-4
-1.331, 1.204e-4
-1.332, 1.235e-4
-1.333, 1.204e-4
-1.334, 1.235e-4
-1.335, 1.235e-4
-1.336, 1.204e-4
-1.337, 1.204e-4
-1.338, 1.204e-4
-1.339, 1.204e-4
-1.340, 1.204e-4
-1.341, 1.235e-4
-1.342, 1.235e-4
-1.343, 1.235e-4
-1.344, 1.235e-4
-1.345, 1.235e-4
-1.346, 1.235e-4
-1.347, 1.266e-4
-1.348, 1.235e-4
-1.349, 1.235e-4
-1.350, 1.266e-4
-1.351, 1.235e-4
-1.352, 1.235e-4
-1.353, 1.235e-4
-1.354, 1.266e-4
-1.355, 1.266e-4
-1.356, 1.296e-4
-1.357, 1.296e-4
-1.358, 1.296e-4
-1.359, 1.327e-4
-1.360, 1.327e-4
-1.361, 1.327e-4
-1.362, 1.327e-4
-1.363, 1.327e-4
-1.364, 1.327e-4
-1.365, 1.327e-4
-1.366, 1.358e-4
-1.367, 1.358e-4
-1.368, 1.389e-4
-1.369, 1.389e-4
-1.370, 1.389e-4
-1.371, 1.420e-4
-1.372, 1.420e-4
-1.373, 1.451e-4
-1.374, 1.420e-4
-1.375, 1.451e-4
-1.376, 1.451e-4
-1.377, 1.451e-4
-1.378, 1.481e-4
-1.379, 1.481e-4
-1.380, 1.481e-4
-1.381, 1.512e-4
-1.382, 1.512e-4
-1.383, 1.543e-4
-1.384, 1.574e-4
-1.385, 1.605e-4
-1.386, 1.605e-4
-1.387, 1.605e-4
-1.388, 1.636e-4
-1.389, 1.666e-4
-1.390, 1.666e-4
-1.391, 1.666e-4
-1.392, 1.666e-4
-1.393, 1.697e-4
-1.394, 1.728e-4
-1.395, 1.759e-4
-1.396, 1.759e-4
-1.397, 1.790e-4
-1.398, 1.821e-4
-1.399, 1.851e-4
-1.400, 1.851e-4
-1.401, 1.882e-4
-1.402, 1.913e-4
-1.403, 1.913e-4
-1.404, 1.944e-4
-1.405, 1.944e-4
-1.406, 1.975e-4
-1.407, 2.006e-4
-1.408, 2.036e-4
-1.409, 2.067e-4
-1.410, 2.098e-4
-1.411, 2.129e-4
-1.412, 2.160e-4
-1.413, 2.191e-4
-1.414, 2.221e-4
-1.415, 2.252e-4
-1.416, 2.283e-4
-1.417, 2.283e-4
-1.418, 2.314e-4
-1.419, 2.376e-4
-1.420, 2.376e-4
-1.421, 2.406e-4
-1.422, 2.468e-4
-1.423, 2.499e-4
-1.424, 2.530e-4
-1.425, 2.591e-4
-1.426, 2.622e-4
-1.427, 2.653e-4
-1.428, 2.684e-4
-1.429, 2.715e-4
-1.430, 2.746e-4
-1.431, 2.776e-4
-1.432, 2.807e-4
-1.433, 2.869e-4
-1.434, 2.900e-4
-1.435, 2.961e-4
-1.436, 3.023e-4
-1.437, 3.054e-4
-1.438, 3.115e-4
-1.439, 3.177e-4
-1.440, 3.208e-4
-1.441, 3.270e-4
-1.442, 3.300e-4
-1.443, 3.362e-4
-1.444, 3.393e-4
-1.445, 3.455e-4
-1.446, 3.485e-4
-1.447, 3.547e-4
-1.448, 3.578e-4
-1.449, 3.670e-4
-1.450, 3.732e-4
-1.451, 3.825e-4
-1.452, 3.886e-4
-1.453, 3.948e-4
-1.454, 4.010e-4
-1.455, 4.102e-4
-1.456, 4.133e-4
-1.457, 4.195e-4
-1.458, 4.287e-4
-1.459, 4.349e-4
-1.460, 4.441e-4
-1.461, 4.503e-4
-1.462, 4.626e-4
-1.463, 4.688e-4
-1.464, 4.780e-4
-1.465, 4.873e-4
-1.466, 4.965e-4
-1.467, 5.058e-4
-1.468, 5.120e-4
-1.469, 5.212e-4
-1.470, 5.335e-4
-1.471, 5.428e-4
-1.472, 5.520e-4
-1.473, 5.613e-4
-1.474, 5.736e-4
-1.475, 5.859e-4
-1.476, 5.952e-4
-1.477, 6.075e-4
-1.478, 6.229e-4
-1.479, 6.322e-4
-1.480, 6.476e-4
-1.481, 6.599e-4
-1.482, 6.723e-4
-1.483, 6.877e-4
-1.484, 7.031e-4
-1.485, 7.154e-4
-1.486, 7.278e-4
-1.487, 7.432e-4
-1.488, 7.586e-4
-1.489, 7.771e-4
-1.490, 7.925e-4
-1.491, 8.110e-4
-1.492, 8.264e-4
-1.493, 8.449e-4
-1.494, 8.603e-4
-1.495, 8.788e-4
-1.496, 8.943e-4
-1.497, 9.128e-4
-1.498, 9.313e-4
-1.499, 9.498e-4
-1.500, 9.713e-4
-1.501, 9.898e-4
-1.502, 1.011e-3
-1.503, 1.033e-3
-1.504, 1.058e-3
-1.505, 1.079e-3
-1.506, 1.101e-3
-1.507, 1.122e-3
-1.508, 1.147e-3
-1.509, 1.169e-3
-1.510, 1.193e-3
-1.511, 1.215e-3
-1.512, 1.240e-3
-1.513, 1.261e-3
-1.514, 1.286e-3
-1.515, 1.310e-3
-1.516, 1.332e-3
-1.517, 1.357e-3
-1.518, 1.384e-3
-1.519, 1.409e-3
-1.520, 1.437e-3
-1.521, 1.465e-3
-1.522, 1.492e-3
-1.523, 1.517e-3
-1.524, 1.545e-3
-1.525, 1.569e-3
-1.526, 1.594e-3
-1.527, 1.622e-3
-1.528, 1.647e-3
-1.529, 1.674e-3
-1.530, 1.705e-3
-1.531, 1.733e-3
-1.532, 1.761e-3
-1.533, 1.791e-3
-1.534, 1.819e-3
-1.535, 1.850e-3
-1.536, 1.878e-3
-1.537, 1.909e-3
-1.538, 1.939e-3
-1.539, 1.970e-3
-1.540, 2.001e-3
-1.541, 2.032e-3
-1.542, 2.066e-3
-1.543, 2.100e-3
-1.544, 2.134e-3
-1.545, 2.168e-3
-1.546, 2.201e-3
-1.547, 2.232e-3
-1.548, 2.266e-3
-1.549, 2.297e-3
-1.550, 2.328e-3
-1.551, 2.359e-3
-1.552, 2.390e-3
-1.553, 2.420e-3
-1.554, 2.451e-3
-1.555, 2.485e-3
-1.556, 2.516e-3
-1.557, 2.550e-3
-1.558, 2.584e-3
-1.559, 2.618e-3
-1.560, 2.649e-3
-1.561, 2.686e-3
-1.562, 2.716e-3
-1.563, 2.747e-3
-1.564, 2.781e-3
-1.565, 2.809e-3
-1.566, 2.843e-3
-1.567, 2.877e-3
-1.568, 2.911e-3
-1.569, 2.948e-3
-1.570, 2.985e-3
-1.571, 3.022e-3
-1.572, 3.059e-3
-1.573, 3.096e-3
-1.574, 3.130e-3
-1.575, 3.160e-3
-1.576, 3.188e-3
-1.577, 3.216e-3
-1.578, 3.244e-3
-1.579, 3.268e-3
-1.580, 3.296e-3
-1.581, 3.324e-3
-1.582, 3.358e-3
-1.583, 3.392e-3
-1.584, 3.429e-3
-1.585, 3.466e-3
-1.586, 3.506e-3
-1.587, 3.549e-3
-1.588, 3.592e-3
-1.589, 3.632e-3
-1.590, 3.678e-3
-1.591, 3.725e-3
-1.592, 3.768e-3
-1.593, 3.811e-3
-1.594, 3.854e-3
-1.595, 3.897e-3
-1.596, 3.940e-3
-1.597, 3.980e-3
-1.598, 4.017e-3
-1.599, 4.054e-3
-1.600, 4.091e-3
-1.601, 4.125e-3
-1.602, 4.159e-3
-1.603, 4.193e-3
-1.604, 4.230e-3
-1.605, 4.264e-3
-1.606, 4.298e-3
-1.607, 4.332e-3
-1.608, 4.363e-3
-1.609, 4.394e-3
-1.610, 4.424e-3
-1.611, 4.452e-3
-1.612, 4.483e-3
-1.613, 4.514e-3
-1.614, 4.548e-3
-1.615, 4.585e-3
-1.616, 4.619e-3
-1.617, 4.659e-3
-1.618, 4.696e-3
-1.619, 4.736e-3
-1.620, 4.776e-3
-1.621, 4.816e-3
-1.622, 4.859e-3
-1.623, 4.908e-3
-1.624, 4.952e-3
-1.625, 4.998e-3
-1.626, 5.044e-3
-1.627, 5.090e-3
-1.628, 5.137e-3
-1.629, 5.180e-3
-1.630, 5.220e-3
-1.631, 5.257e-3
-1.632, 5.297e-3
-1.633, 5.334e-3
-1.634, 5.371e-3
-1.635, 5.408e-3
-1.636, 5.442e-3
-1.637, 5.479e-3
-1.638, 5.519e-3
-1.639, 5.550e-3
-1.640, 5.587e-3
-1.641, 5.614e-3
-1.642, 5.648e-3
-1.643, 5.685e-3
-1.644, 5.719e-3
-1.645, 5.753e-3
-1.646, 5.790e-3
-1.647, 5.824e-3
-1.648, 5.867e-3
-1.649, 5.907e-3
-1.650, 5.954e-3
-1.651, 5.994e-3
-1.652, 6.040e-3
-1.653, 6.086e-3
-1.654, 6.136e-3
-1.655, 6.182e-3
-1.656, 6.228e-3
-1.657, 6.277e-3
-1.658, 6.324e-3
-1.659, 6.373e-3
-1.660, 6.416e-3
-1.661, 6.465e-3
-1.662, 6.512e-3
-1.663, 6.555e-3
-1.664, 6.598e-3
-1.665, 6.635e-3
-1.666, 6.675e-3
-1.667, 6.715e-3
-1.668, 6.746e-3
-1.669, 6.783e-3
-1.670, 6.820e-3
-1.671, 6.863e-3
-1.672, 6.900e-3
-1.673, 6.937e-3
-1.674, 6.986e-3
-1.675, 7.036e-3
-1.676, 7.079e-3
-1.677, 7.131e-3
-1.678, 7.181e-3
-1.679, 7.236e-3
-1.680, 7.289e-3
-1.681, 7.338e-3
-1.682, 7.381e-3
-1.683, 7.440e-3
-1.684, 7.486e-3
-1.685, 7.523e-3
-1.686, 7.560e-3
-1.687, 7.612e-3
-1.688, 7.652e-3
-1.689, 7.693e-3
-1.690, 7.745e-3
-1.691, 7.785e-3
-1.692, 7.831e-3
-1.693, 7.862e-3
-1.694, 7.905e-3
-1.695, 7.936e-3
-1.696, 7.970e-3
-1.697, 8.010e-3
-1.698, 8.047e-3
-1.699, 8.090e-3
-1.700, 8.090e-3
-1.699, 8.029e-3
-1.698, 7.967e-3
-1.697, 7.914e-3
-1.696, 7.865e-3
-1.695, 7.825e-3
-1.694, 7.797e-3
-1.693, 7.757e-3
-1.692, 7.726e-3
-1.691, 7.699e-3
-1.690, 7.662e-3
-1.689, 7.619e-3
-1.688, 7.575e-3
-1.687, 7.541e-3
-1.686, 7.498e-3
-1.685, 7.458e-3
-1.684, 7.418e-3
-1.683, 7.378e-3
-1.682, 7.341e-3
-1.681, 7.298e-3
-1.680, 7.245e-3
-1.679, 7.196e-3
-1.678, 7.147e-3
-1.677, 7.101e-3
-1.676, 7.051e-3
-1.675, 7.011e-3
-1.674, 6.968e-3
-1.673, 6.900e-3
-1.672, 6.851e-3
-1.671, 6.814e-3
-1.670, 6.764e-3
-1.669, 6.715e-3
-1.668, 6.657e-3
-1.667, 6.601e-3
-1.666, 6.558e-3
-1.665, 6.515e-3
-1.664, 6.465e-3
-1.663, 6.419e-3
-1.662, 6.379e-3
-1.661, 6.339e-3
-1.660, 6.296e-3
-1.659, 6.253e-3
-1.658, 6.216e-3
-1.657, 6.173e-3
-1.656, 6.136e-3
-1.655, 6.099e-3
-1.654, 6.062e-3
-1.653, 6.028e-3
-1.652, 5.978e-3
-1.651, 5.947e-3
-1.650, 5.917e-3
-1.649, 5.886e-3
-1.648, 5.840e-3
-1.647, 5.790e-3
-1.646, 5.744e-3
-1.645, 5.701e-3
-1.644, 5.661e-3
-1.643, 5.627e-3
-1.642, 5.596e-3
-1.641, 5.562e-3
-1.640, 5.525e-3
-1.639, 5.497e-3
-1.638, 5.460e-3
-1.637, 5.430e-3
-1.636, 5.396e-3
-1.635, 5.362e-3
-1.634, 5.331e-3
-1.633, 5.285e-3
-1.632, 5.248e-3
-1.631, 5.208e-3
-1.630, 5.164e-3
-1.629, 5.130e-3
-1.628, 5.093e-3
-1.627, 5.053e-3
-1.626, 5.023e-3
-1.625, 4.992e-3
-1.624, 4.970e-3
-1.623, 4.939e-3
-1.622, 4.908e-3
-1.621, 4.875e-3
-1.620, 4.834e-3
-1.619, 4.797e-3
-1.618, 4.764e-3
-1.617, 4.730e-3
-1.616, 4.696e-3
-1.615, 4.659e-3
-1.614, 4.625e-3
-1.613, 4.585e-3
-1.612, 4.542e-3
-1.611, 4.498e-3
-1.610, 4.452e-3
-1.609, 4.406e-3
-1.608, 4.360e-3
-1.607, 4.317e-3
-1.606, 4.276e-3
-1.605, 4.243e-3
-1.604, 4.209e-3
-1.603, 4.181e-3
-1.602, 4.147e-3
-1.601, 4.125e-3
-1.600, 4.098e-3
-1.599, 4.073e-3
-1.598, 4.048e-3
-1.597, 4.021e-3
-1.596, 3.996e-3
-1.595, 3.965e-3
-1.594, 3.943e-3
-1.593, 3.913e-3
-1.592, 3.882e-3
-1.591, 3.851e-3
-1.590, 3.817e-3
-1.589, 3.783e-3
-1.588, 3.746e-3
-1.587, 3.718e-3
-1.586, 3.681e-3
-1.585, 3.647e-3
-1.584, 3.614e-3
-1.583, 3.583e-3
-1.582, 3.549e-3
-1.581, 3.515e-3
-1.580, 3.484e-3
-1.579, 3.453e-3
-1.578, 3.422e-3
-1.577, 3.398e-3
-1.576, 3.373e-3
-1.575, 3.348e-3
-1.574, 3.333e-3
-1.573, 3.308e-3
-1.572, 3.281e-3
-1.571, 3.253e-3
-1.570, 3.225e-3
-1.569, 3.194e-3
-1.568, 3.163e-3
-1.567, 3.133e-3
-1.566, 3.102e-3
-1.565, 3.071e-3
-1.564, 3.037e-3
-1.563, 3.003e-3
-1.562, 2.972e-3
-1.561, 2.938e-3
-1.560, 2.901e-3
-1.559, 2.867e-3
-1.558, 2.834e-3
-1.557, 2.803e-3
-1.556, 2.775e-3
-1.555, 2.744e-3
-1.554, 2.716e-3
-1.553, 2.692e-3
-1.552, 2.664e-3
-1.551, 2.639e-3
-1.550, 2.612e-3
-1.549, 2.587e-3
-1.548, 2.562e-3
-1.547, 2.541e-3
-1.546, 2.516e-3
-1.545, 2.494e-3
-1.544, 2.470e-3
-1.543, 2.445e-3
-1.542, 2.417e-3
-1.541, 2.390e-3
-1.540, 2.353e-3
-1.539, 2.322e-3
-1.538, 2.288e-3
-1.537, 2.254e-3
-1.536, 2.220e-3
-1.535, 2.189e-3
-1.534, 2.158e-3
-1.533, 2.131e-3
-1.532, 2.103e-3
-1.531, 2.078e-3
-1.530, 2.054e-3
-1.529, 2.029e-3
-1.528, 2.007e-3
-1.527, 1.986e-3
-1.526, 1.961e-3
-1.525, 1.946e-3
-1.524, 1.927e-3
-1.523, 1.909e-3
-1.522, 1.890e-3
-1.521, 1.869e-3
-1.520, 1.850e-3
-1.519, 1.828e-3
-1.518, 1.807e-3
-1.517, 1.785e-3
-1.516, 1.761e-3
-1.515, 1.736e-3
-1.514, 1.711e-3
-1.513, 1.687e-3
-1.512, 1.665e-3
-1.511, 1.640e-3
-1.510, 1.619e-3
-1.509, 1.594e-3
-1.508, 1.569e-3
-1.507, 1.545e-3
-1.506, 1.523e-3
-1.505, 1.499e-3
-1.504, 1.477e-3
-1.503, 1.455e-3
-1.502, 1.434e-3
-1.501, 1.415e-3
-1.500, 1.394e-3
-1.499, 1.375e-3
-1.498, 1.357e-3
-1.497, 1.338e-3
-1.496, 1.323e-3
-1.495, 1.307e-3
-1.494, 1.289e-3
-1.493, 1.273e-3
-1.492, 1.258e-3
-1.491, 1.243e-3
-1.490, 1.224e-3
-1.489, 1.209e-3
-1.488, 1.187e-3
-1.487, 1.172e-3
-1.486, 1.153e-3
-1.485, 1.135e-3
-1.484, 1.116e-3
-1.483, 1.098e-3
-1.482, 1.082e-3
-1.481, 1.064e-3
-1.480, 1.045e-3
-1.479, 1.027e-3
-1.478, 1.005e-3
-1.477, 9.868e-4
-1.476, 9.713e-4
-1.475, 9.528e-4
-1.474, 9.374e-4
-1.473, 9.220e-4
-1.472, 9.066e-4
-1.471, 8.943e-4
-1.470, 8.819e-4
-1.469, 8.696e-4
-1.468, 8.542e-4
-1.467, 8.388e-4
-1.466, 8.264e-4
-1.465, 8.110e-4
-1.464, 7.987e-4
-1.463, 7.833e-4
-1.462, 7.679e-4
-1.461, 7.524e-4
-1.460, 7.401e-4
-1.459, 7.278e-4
-1.458, 7.154e-4
-1.457, 7.031e-4
-1.456, 6.939e-4
-1.455, 6.815e-4
-1.454, 6.692e-4
-1.453, 6.569e-4
-1.452, 6.476e-4
-1.451, 6.353e-4
-1.450, 6.229e-4
-1.449, 6.106e-4
-1.448, 5.983e-4
-1.447, 5.829e-4
-1.446, 5.736e-4
-1.445, 5.613e-4
-1.444, 5.489e-4
-1.443, 5.397e-4
-1.442, 5.305e-4
-1.441, 5.181e-4
-1.440, 5.058e-4
-1.439, 4.935e-4
-1.438, 4.842e-4
-1.437, 4.719e-4
-1.436, 4.626e-4
-1.435, 4.534e-4
-1.434, 4.441e-4
-1.433, 4.349e-4
-1.432, 4.256e-4
-1.431, 4.164e-4
-1.430, 4.071e-4
-1.429, 4.010e-4
-1.428, 3.917e-4
-1.427, 3.855e-4
-1.426, 3.763e-4
-1.425, 3.670e-4
-1.424, 3.578e-4
-1.423, 3.516e-4
-1.422, 3.424e-4
-1.421, 3.331e-4
-1.420, 3.239e-4
-1.419, 3.177e-4
-1.418, 3.085e-4
-1.417, 3.023e-4
-1.416, 2.931e-4
-1.415, 2.869e-4
-1.414, 2.776e-4
-1.413, 2.715e-4
-1.412, 2.622e-4
-1.411, 2.561e-4
-1.410, 2.468e-4
-1.409, 2.406e-4
-1.408, 2.345e-4
-1.407, 2.283e-4
-1.406, 2.221e-4
-1.405, 2.160e-4
-1.404, 2.098e-4
-1.403, 2.067e-4
-1.402, 2.006e-4
-1.401, 1.944e-4
-1.400, 1.882e-4
-1.399, 1.821e-4
-1.398, 1.790e-4
-1.397, 1.728e-4
-1.396, 1.666e-4
-1.395, 1.605e-4
-1.394, 1.543e-4
-1.393, 1.512e-4
-1.392, 1.451e-4
-1.391, 1.420e-4
-1.390, 1.389e-4
-1.389, 1.327e-4
-1.388, 1.266e-4
-1.387, 1.235e-4
-1.386, 1.173e-4
-1.385, 1.142e-4
-1.384, 1.081e-4
-1.383, 1.050e-4
-1.382, 9.882e-5
-1.381, 9.573e-5
-1.380, 9.265e-5
-1.379, 8.957e-5
-1.378, 8.648e-5
-1.377, 8.032e-5
-1.376, 7.723e-5
-1.375, 7.415e-5
-1.374, 7.107e-5
-1.373, 6.798e-5
-1.372, 6.490e-5
-1.371, 6.182e-5
-1.370, 5.565e-5
-1.369, 5.257e-5
-1.368, 5.257e-5
-1.367, 4.640e-5
-1.366, 4.332e-5
-1.365, 4.332e-5
-1.364, 4.024e-5
-1.363, 3.715e-5
-1.362, 3.407e-5
-1.361, 3.099e-5
-1.360, 3.099e-5
-1.359, 2.790e-5
-1.358, 2.174e-5
-1.357, 2.174e-5
-1.356, 1.865e-5
-1.355, 1.557e-5
-1.354, 1.249e-5
-1.353, 9.405e-6
-1.352, 9.405e-6
-1.351, 6.322e-6
-1.350, 6.322e-6
-1.349, 3.239e-6
-1.348, 3.239e-6
-1.347, 1.559e-7
-1.346, -2.927e-6
-1.345, -6.010e-6
-1.344, -6.010e-6
-1.343, -9.093e-6
-1.342, -9.093e-6
-1.341, -1.218e-5
-1.340, -1.526e-5
-1.339, -1.526e-5
-1.338, -1.526e-5
-1.337, -1.834e-5
-1.336, -1.834e-5
-1.335, -2.143e-5
-1.334, -2.143e-5
-1.333, -2.451e-5
-1.332, -2.451e-5
-1.331, -2.759e-5
-1.330, -2.759e-5
-1.329, -3.068e-5
-1.328, -3.068e-5
-1.327, -3.376e-5
-1.326, -3.376e-5
-1.325, -3.684e-5
-1.324, -3.684e-5
-1.323, -3.684e-5
-1.322, -3.684e-5
-1.321, -3.992e-5
-1.320, -3.992e-5
-1.319, -4.301e-5
-1.318, -4.609e-5
-1.317, -4.301e-5
-1.316, -4.609e-5
-1.315, -4.917e-5
-1.314, -4.917e-5
-1.313, -4.917e-5
-1.312, -5.226e-5
-1.311, -5.226e-5
-1.310, -5.226e-5
-1.309, -5.226e-5
-1.308, -5.226e-5
-1.307, -5.226e-5
-1.306, -5.534e-5
-1.305, -5.842e-5
-1.304, -5.842e-5
-1.303, -5.842e-5
-1.302, -6.151e-5
-1.301, -6.151e-5
-1.300, -6.459e-5
-1.299, -6.151e-5
-1.298, -6.151e-5
-1.297, -6.459e-5
-1.296, -6.459e-5
-1.295, -6.459e-5
-1.294, -6.459e-5
-1.293, -6.767e-5
-1.292, -6.767e-5
-1.291, -6.767e-5
-1.290, -7.076e-5
-1.289, -7.076e-5
-1.288, -7.076e-5
-1.287, -7.384e-5
-1.286, -7.076e-5
-1.285, -7.384e-5
-1.284, -7.384e-5
-1.283, -7.384e-5
-1.282, -7.384e-5
-1.281, -7.384e-5
-1.280, -7.692e-5
-1.279, -7.692e-5
-1.278, -7.692e-5
-1.277, -8.000e-5
-1.276, -8.000e-5
-1.275, -8.309e-5
-1.274, -8.309e-5
-1.273, -8.309e-5
-1.272, -8.309e-5
-1.271, -8.309e-5
-1.270, -8.309e-5
-1.269, -8.309e-5
-1.268, -8.309e-5
-1.267, -8.309e-5
-1.266, -8.617e-5
-1.265, -8.617e-5
-1.264, -8.925e-5
-1.263, -8.925e-5
-1.262, -8.925e-5
-1.261, -8.925e-5
-1.260, -9.234e-5
-1.259, -8.925e-5
-1.258, -8.925e-5
-1.257, -9.234e-5
-1.256, -8.925e-5
-1.255, -8.925e-5
-1.254, -9.234e-5
-1.253, -9.234e-5
-1.252, -9.234e-5
-1.251, -9.542e-5
-1.250, -9.542e-5
-1.249, -9.542e-5
-1.248, -9.542e-5
-1.247, -9.850e-5
-1.246, -9.542e-5
-1.245, -9.542e-5
-1.244, -9.850e-5
-1.243, -9.850e-5
-1.242, -9.850e-5
-1.241, -9.850e-5
-1.240, -9.850e-5
-1.239, -9.850e-5
-1.238, -1.016e-4
-1.237, -1.016e-4
-1.236, -1.016e-4
-1.235, -1.016e-4
-1.234, -1.016e-4
-1.233, -1.047e-4
-1.232, -1.047e-4
-1.231, -1.047e-4
-1.230, -1.016e-4
-1.229, -1.047e-4
-1.228, -1.047e-4
-1.227, -1.047e-4
-1.226, -1.016e-4
-1.225, -1.047e-4
-1.224, -1.047e-4
-1.223, -1.078e-4
-1.222, -1.078e-4
-1.221, -1.078e-4
-1.220, -1.078e-4
-1.219, -1.108e-4
-1.218, -1.108e-4
-1.217, -1.108e-4
-1.216, -1.078e-4
-1.215, -1.078e-4
-1.214, -1.108e-4
-1.213, -1.108e-4
-1.212, -1.108e-4
-1.211, -1.108e-4
-1.210, -1.108e-4
-1.209, -1.139e-4
-1.208, -1.139e-4
-1.207, -1.139e-4
-1.206, -1.139e-4
-1.205, -1.139e-4
-1.204, -1.139e-4
-1.203, -1.139e-4
-1.202, -1.139e-4
-1.201, -1.139e-4
-1.200, -1.139e-4
-1.199, -1.139e-4
-1.198, -1.170e-4
-1.197, -1.139e-4
-1.196, -1.170e-4
-1.195, -1.170e-4
-1.194, -1.170e-4
-1.193, -1.170e-4
-1.192, -1.170e-4
-1.191, -1.170e-4
-1.190, -1.170e-4
-1.189, -1.170e-4
-1.188, -1.170e-4
-1.187, -1.170e-4
-1.186, -1.170e-4
-1.185, -1.201e-4
-1.184, -1.201e-4
-1.183, -1.201e-4
-1.182, -1.232e-4
-1.181, -1.232e-4
-1.180, -1.232e-4
-1.179, -1.232e-4
-1.178, -1.201e-4
-1.177, -1.201e-4
-1.176, -1.201e-4
-1.175, -1.201e-4
-1.174, -1.201e-4
-1.173, -1.232e-4
-1.172, -1.232e-4
-1.171, -1.232e-4
-1.170, -1.232e-4
-1.169, -1.232e-4
-1.168, -1.232e-4
-1.167, -1.263e-4
-1.166, -1.263e-4
-1.165, -1.263e-4
-1.164, -1.263e-4
-1.163, -1.232e-4
-1.162, -1.232e-4
-1.161, -1.232e-4
-1.160, -1.263e-4
-1.159, -1.263e-4
-1.158, -1.293e-4
-1.157, -1.263e-4
-1.156, -1.293e-4
-1.155, -1.293e-4
-1.154, -1.293e-4
-1.153, -1.293e-4
-1.152, -1.293e-4
-1.151, -1.293e-4
-1.150, -1.293e-4
-1.149, -1.293e-4
-1.148, -1.293e-4
-1.147, -1.293e-4
-1.146, -1.293e-4
-1.145, -1.293e-4
-1.144, -1.324e-4
-1.143, -1.324e-4
-1.142, -1.355e-4
-1.141, -1.324e-4
-1.140, -1.355e-4
-1.139, -1.355e-4
-1.138, -1.355e-4
-1.137, -1.324e-4
-1.136, -1.324e-4
-1.135, -1.324e-4
-1.134, -1.324e-4
-1.133, -1.324e-4
-1.132, -1.355e-4
-1.131, -1.355e-4
-1.130, -1.355e-4
-1.129, -1.386e-4
-1.128, -1.386e-4
-1.127, -1.386e-4
-1.126, -1.386e-4
-1.125, -1.386e-4
-1.124, -1.386e-4
-1.123, -1.386e-4
-1.122, -1.386e-4
-1.121, -1.386e-4
-1.120, -1.386e-4
-1.119, -1.386e-4
-1.118, -1.386e-4
-1.117, -1.417e-4
-1.116, -1.417e-4
-1.115, -1.417e-4
-1.114, -1.417e-4
-1.113, -1.417e-4
-1.112, -1.417e-4
-1.111, -1.417e-4
-1.110, -1.417e-4
-1.109, -1.417e-4
-1.108, -1.417e-4
-1.107, -1.417e-4
-1.106, -1.448e-4
-1.105, -1.448e-4
-1.104, -1.448e-4
-1.103, -1.448e-4
-1.102, -1.448e-4
-1.101, -1.448e-4
-1.100, -1.478e-4
-1.099, -1.478e-4
-1.098, -1.448e-4
-1.097, -1.478e-4
-1.096, -1.448e-4
-1.095, -1.448e-4
-1.094, -1.448e-4
-1.093, -1.448e-4
-1.092, -1.478e-4
-1.091, -1.478e-4
-1.090, -1.478e-4
-1.089, -1.509e-4
-1.088, -1.509e-4
-1.087, -1.509e-4
-1.086, -1.509e-4
-1.085, -1.509e-4
-1.084, -1.509e-4
-1.083, -1.478e-4
-1.082, -1.509e-4
-1.081, -1.509e-4
-1.080, -1.478e-4
-1.079, -1.509e-4
-1.078, -1.509e-4
-1.077, -1.540e-4
-1.076, -1.540e-4
-1.075, -1.540e-4
-1.074, -1.540e-4
-1.073, -1.540e-4
-1.072, -1.540e-4
-1.071, -1.540e-4
-1.070, -1.540e-4
-1.069, -1.540e-4
-1.068, -1.540e-4
-1.067, -1.540e-4
-1.066, -1.540e-4
-1.065, -1.571e-4
-1.064, -1.571e-4
-1.063, -1.571e-4
-1.062, -1.571e-4
-1.061, -1.571e-4
-1.060, -1.571e-4
-1.059, -1.602e-4
-1.058, -1.602e-4
-1.057, -1.602e-4
-1.056, -1.602e-4
-1.055, -1.571e-4
-1.054, -1.602e-4
-1.053, -1.602e-4
-1.052, -1.602e-4
-1.051, -1.632e-4
-1.050, -1.632e-4
-1.049, -1.663e-4
-1.048, -1.663e-4
-1.047, -1.663e-4
-1.046, -1.663e-4
-1.045, -1.663e-4
-1.044, -1.663e-4
-1.043, -1.663e-4
-1.042, -1.663e-4
-1.041, -1.663e-4
-1.040, -1.663e-4
-1.039, -1.663e-4
-1.038, -1.694e-4
-1.037, -1.694e-4
-1.036, -1.725e-4
-1.035, -1.725e-4
-1.034, -1.725e-4
-1.033, -1.725e-4
-1.032, -1.725e-4
-1.031, -1.725e-4
-1.030, -1.725e-4
-1.029, -1.725e-4
-1.028, -1.756e-4
-1.027, -1.756e-4
-1.026, -1.787e-4
-1.025, -1.787e-4
-1.024, -1.817e-4
-1.023, -1.817e-4
-1.022, -1.848e-4
-1.021, -1.848e-4
-1.020, -1.848e-4
-1.019, -1.879e-4
-1.018, -1.848e-4
-1.017, -1.879e-4
-1.016, -1.879e-4
-1.015, -1.879e-4
-1.014, -1.879e-4
-1.013, -1.879e-4
-1.012, -1.910e-4
-1.011, -1.941e-4
-1.010, -1.941e-4
-1.009, -1.972e-4
-1.008, -1.972e-4
-1.007, -2.002e-4
-1.006, -2.002e-4
-1.005, -2.033e-4
-1.004, -2.033e-4
-1.003, -2.033e-4
-1.002, -2.033e-4
-1.001, -2.064e-4
