Jan. 12, 2025   12:18:06
Cyclic Voltammetry
File: c:/users/guazh/data/banditlqround7_x0exp772_r5/2025-01-10-exp823\exp823-2025-01-12t12_06_52-h2koh\exp823_cv_sr_500mvs_efin_-1500mv.bin
Data Source:  Experiment
Instrument Model:  CHI760E
Header: CV ran at 500 mVs
Note: 

Init E (V) = -1
High E (V) = -1
Low E (V) = -1.5
Final E (V) = -1
Init P/N = N
Scan Rate (V/s) = 0.5
Segment = 3
Sample Interval (V) = 0.001
Quiet Time (sec) = 2
Sensitivity (A/V) = 0.01
Comp R (ohm) = 1.4

Results:

Channel 1:
Segment 1:

Segment 2:

Segment 3:

Potential/V, Current/A

-1.000, -9.234e-5
-1.001, -4.609e-5
-1.002, -1.218e-5
-1.003, 1.557e-5
-1.004, 4.332e-5
-1.005, 6.798e-5
-1.006, 9.573e-5
-1.007, 1.235e-4
-1.008, 1.512e-4
-1.009, 1.728e-4
-1.010, 1.944e-4
-1.011, 2.098e-4
-1.012, 2.252e-4
-1.013, 2.376e-4
-1.014, 2.561e-4
-1.015, 2.746e-4
-1.016, 2.931e-4
-1.017, 3.115e-4
-1.018, 3.270e-4
-1.019, 3.424e-4
-1.020, 3.547e-4
-1.021, 3.640e-4
-1.022, 3.763e-4
-1.023, 3.917e-4
-1.024, 4.102e-4
-1.025, 4.256e-4
-1.026, 4.380e-4
-1.027, 4.472e-4
-1.028, 4.595e-4
-1.029, 4.657e-4
-1.030, 4.719e-4
-1.031, 4.842e-4
-1.032, 4.996e-4
-1.033, 5.181e-4
-1.034, 5.335e-4
-1.035, 5.459e-4
-1.036, 5.551e-4
-1.037, 5.674e-4
-1.038, 5.736e-4
-1.039, 5.829e-4
-1.040, 5.952e-4
-1.041, 6.106e-4
-1.042, 6.229e-4
-1.043, 6.353e-4
-1.044, 6.445e-4
-1.045, 6.507e-4
-1.046, 6.599e-4
-1.047, 6.692e-4
-1.048, 6.815e-4
-1.049, 6.969e-4
-1.050, 7.124e-4
-1.051, 7.278e-4
-1.052, 7.370e-4
-1.053, 7.463e-4
-1.054, 7.555e-4
-1.055, 7.617e-4
-1.056, 7.740e-4
-1.057, 7.894e-4
-1.058, 8.048e-4
-1.059, 8.172e-4
-1.060, 8.295e-4
-1.061, 8.388e-4
-1.062, 8.480e-4
-1.063, 8.603e-4
-1.064, 8.727e-4
-1.065, 8.850e-4
-1.066, 9.035e-4
-1.067, 9.189e-4
-1.068, 9.343e-4
-1.069, 9.467e-4
-1.070, 9.528e-4
-1.071, 9.590e-4
-1.072, 9.713e-4
-1.073, 9.837e-4
-1.074, 1.002e-3
-1.075, 1.021e-3
-1.076, 1.033e-3
-1.077, 1.045e-3
-1.078, 1.055e-3
-1.079, 1.067e-3
-1.080, 1.076e-3
-1.081, 1.092e-3
-1.082, 1.110e-3
-1.083, 1.129e-3
-1.084, 1.144e-3
-1.085, 1.159e-3
-1.086, 1.169e-3
-1.087, 1.178e-3
-1.088, 1.187e-3
-1.089, 1.199e-3
-1.090, 1.215e-3
-1.091, 1.230e-3
-1.092, 1.249e-3
-1.093, 1.267e-3
-1.094, 1.283e-3
-1.095, 1.298e-3
-1.096, 1.314e-3
-1.097, 1.326e-3
-1.098, 1.341e-3
-1.099, 1.354e-3
-1.100, 1.372e-3
-1.101, 1.384e-3
-1.102, 1.394e-3
-1.103, 1.403e-3
-1.104, 1.412e-3
-1.105, 1.425e-3
-1.106, 1.443e-3
-1.107, 1.462e-3
-1.108, 1.480e-3
-1.109, 1.499e-3
-1.110, 1.517e-3
-1.111, 1.536e-3
-1.112, 1.548e-3
-1.113, 1.560e-3
-1.114, 1.569e-3
-1.115, 1.582e-3
-1.116, 1.594e-3
-1.117, 1.613e-3
-1.118, 1.631e-3
-1.119, 1.647e-3
-1.120, 1.659e-3
-1.121, 1.677e-3
-1.122, 1.690e-3
-1.123, 1.708e-3
-1.124, 1.724e-3
-1.125, 1.742e-3
-1.126, 1.758e-3
-1.127, 1.773e-3
-1.128, 1.788e-3
-1.129, 1.801e-3
-1.130, 1.816e-3
-1.131, 1.835e-3
-1.132, 1.853e-3
-1.133, 1.872e-3
-1.134, 1.887e-3
-1.135, 1.899e-3
-1.136, 1.906e-3
-1.137, 1.915e-3
-1.138, 1.924e-3
-1.139, 1.943e-3
-1.140, 1.964e-3
-1.141, 1.989e-3
-1.142, 2.013e-3
-1.143, 2.032e-3
-1.144, 2.050e-3
-1.145, 2.060e-3
-1.146, 2.069e-3
-1.147, 2.081e-3
-1.148, 2.097e-3
-1.149, 2.118e-3
-1.150, 2.137e-3
-1.151, 2.152e-3
-1.152, 2.161e-3
-1.153, 2.171e-3
-1.154, 2.180e-3
-1.155, 2.198e-3
-1.156, 2.223e-3
-1.157, 2.248e-3
-1.158, 2.272e-3
-1.159, 2.291e-3
-1.160, 2.303e-3
-1.161, 2.316e-3
-1.162, 2.325e-3
-1.163, 2.334e-3
-1.164, 2.346e-3
-1.165, 2.365e-3
-1.166, 2.383e-3
-1.167, 2.402e-3
-1.168, 2.417e-3
-1.169, 2.433e-3
-1.170, 2.445e-3
-1.171, 2.457e-3
-1.172, 2.473e-3
-1.173, 2.488e-3
-1.174, 2.507e-3
-1.175, 2.525e-3
-1.176, 2.541e-3
-1.177, 2.556e-3
-1.178, 2.568e-3
-1.179, 2.581e-3
-1.180, 2.596e-3
-1.181, 2.615e-3
-1.182, 2.639e-3
-1.183, 2.658e-3
-1.184, 2.679e-3
-1.185, 2.695e-3
-1.186, 2.710e-3
-1.187, 2.719e-3
-1.188, 2.729e-3
-1.189, 2.741e-3
-1.190, 2.760e-3
-1.191, 2.781e-3
-1.192, 2.800e-3
-1.193, 2.818e-3
-1.194, 2.834e-3
-1.195, 2.846e-3
-1.196, 2.858e-3
-1.197, 2.871e-3
-1.198, 2.889e-3
-1.199, 2.908e-3
-1.200, 2.926e-3
-1.201, 2.945e-3
-1.202, 2.963e-3
-1.203, 2.978e-3
-1.204, 2.988e-3
-1.205, 3.003e-3
-1.206, 3.019e-3
-1.207, 3.031e-3
-1.208, 3.040e-3
-1.209, 3.049e-3
-1.210, 3.059e-3
-1.211, 3.071e-3
-1.212, 3.089e-3
-1.213, 3.117e-3
-1.214, 3.145e-3
-1.215, 3.176e-3
-1.216, 3.207e-3
-1.217, 3.228e-3
-1.218, 3.241e-3
-1.219, 3.247e-3
-1.220, 3.247e-3
-1.221, 3.247e-3
-1.222, 3.256e-3
-1.223, 3.271e-3
-1.224, 3.290e-3
-1.225, 3.311e-3
-1.226, 3.333e-3
-1.227, 3.351e-3
-1.228, 3.367e-3
-1.229, 3.376e-3
-1.230, 3.385e-3
-1.231, 3.404e-3
-1.232, 3.432e-3
-1.233, 3.459e-3
-1.234, 3.487e-3
-1.235, 3.509e-3
-1.236, 3.521e-3
-1.237, 3.524e-3
-1.238, 3.527e-3
-1.239, 3.530e-3
-1.240, 3.533e-3
-1.241, 3.543e-3
-1.242, 3.558e-3
-1.243, 3.577e-3
-1.244, 3.598e-3
-1.245, 3.620e-3
-1.246, 3.641e-3
-1.247, 3.666e-3
-1.248, 3.688e-3
-1.249, 3.703e-3
-1.250, 3.712e-3
-1.251, 3.721e-3
-1.252, 3.737e-3
-1.253, 3.749e-3
-1.254, 3.758e-3
-1.255, 3.765e-3
-1.256, 3.777e-3
-1.257, 3.795e-3
-1.258, 3.811e-3
-1.259, 3.826e-3
-1.260, 3.845e-3
-1.261, 3.866e-3
-1.262, 3.879e-3
-1.263, 3.879e-3
-1.264, 3.885e-3
-1.265, 3.897e-3
-1.266, 3.916e-3
-1.267, 3.928e-3
-1.268, 3.940e-3
-1.269, 3.953e-3
-1.270, 3.968e-3
-1.271, 3.977e-3
-1.272, 3.993e-3
-1.273, 4.011e-3
-1.274, 4.033e-3
-1.275, 4.048e-3
-1.276, 4.064e-3
-1.277, 4.067e-3
-1.278, 4.070e-3
-1.279, 4.070e-3
-1.280, 4.067e-3
-1.281, 4.070e-3
-1.282, 4.070e-3
-1.283, 4.076e-3
-1.284, 4.088e-3
-1.285, 4.101e-3
-1.286, 4.113e-3
-1.287, 4.125e-3
-1.288, 4.135e-3
-1.289, 4.144e-3
-1.290, 4.153e-3
-1.291, 4.165e-3
-1.292, 4.178e-3
-1.293, 4.184e-3
-1.294, 4.184e-3
-1.295, 4.181e-3
-1.296, 4.178e-3
-1.297, 4.178e-3
-1.298, 4.190e-3
-1.299, 4.206e-3
-1.300, 4.221e-3
-1.301, 4.236e-3
-1.302, 4.246e-3
-1.303, 4.255e-3
-1.304, 4.258e-3
-1.305, 4.258e-3
-1.306, 4.261e-3
-1.307, 4.261e-3
-1.308, 4.255e-3
-1.309, 4.249e-3
-1.310, 4.252e-3
-1.311, 4.264e-3
-1.312, 4.280e-3
-1.313, 4.289e-3
-1.314, 4.298e-3
-1.315, 4.310e-3
-1.316, 4.320e-3
-1.317, 4.323e-3
-1.318, 4.317e-3
-1.319, 4.295e-3
-1.320, 4.270e-3
-1.321, 4.261e-3
-1.322, 4.264e-3
-1.323, 4.276e-3
-1.324, 4.298e-3
-1.325, 4.329e-3
-1.326, 4.350e-3
-1.327, 4.360e-3
-1.328, 4.350e-3
-1.329, 4.347e-3
-1.330, 4.338e-3
-1.331, 4.329e-3
-1.332, 4.320e-3
-1.333, 4.304e-3
-1.334, 4.289e-3
-1.335, 4.276e-3
-1.336, 4.270e-3
-1.337, 4.273e-3
-1.338, 4.283e-3
-1.339, 4.298e-3
-1.340, 4.317e-3
-1.341, 4.335e-3
-1.342, 4.341e-3
-1.343, 4.341e-3
-1.344, 4.338e-3
-1.345, 4.329e-3
-1.346, 4.317e-3
-1.347, 4.301e-3
-1.348, 4.298e-3
-1.349, 4.289e-3
-1.350, 4.280e-3
-1.351, 4.270e-3
-1.352, 4.267e-3
-1.353, 4.280e-3
-1.354, 4.292e-3
-1.355, 4.298e-3
-1.356, 4.298e-3
-1.357, 4.292e-3
-1.358, 4.289e-3
-1.359, 4.283e-3
-1.360, 4.276e-3
-1.361, 4.270e-3
-1.362, 4.267e-3
-1.363, 4.264e-3
-1.364, 4.261e-3
-1.365, 4.264e-3
-1.366, 4.273e-3
-1.367, 4.280e-3
-1.368, 4.276e-3
-1.369, 4.261e-3
-1.370, 4.239e-3
-1.371, 4.212e-3
-1.372, 4.187e-3
-1.373, 4.178e-3
-1.374, 4.178e-3
-1.375, 4.184e-3
-1.376, 4.190e-3
-1.377, 4.190e-3
-1.378, 4.181e-3
-1.379, 4.169e-3
-1.380, 4.162e-3
-1.381, 4.156e-3
-1.382, 4.159e-3
-1.383, 4.169e-3
-1.384, 4.169e-3
-1.385, 4.162e-3
-1.386, 4.153e-3
-1.387, 4.141e-3
-1.388, 4.125e-3
-1.389, 4.116e-3
-1.390, 4.113e-3
-1.391, 4.110e-3
-1.392, 4.110e-3
-1.393, 4.107e-3
-1.394, 4.098e-3
-1.395, 4.085e-3
-1.396, 4.067e-3
-1.397, 4.051e-3
-1.398, 4.039e-3
-1.399, 4.036e-3
-1.400, 4.039e-3
-1.401, 4.042e-3
-1.402, 4.042e-3
-1.403, 4.039e-3
-1.404, 4.027e-3
-1.405, 4.017e-3
-1.406, 4.014e-3
-1.407, 4.014e-3
-1.408, 4.014e-3
-1.409, 4.011e-3
-1.410, 3.999e-3
-1.411, 3.990e-3
-1.412, 3.977e-3
-1.413, 3.968e-3
-1.414, 3.965e-3
-1.415, 3.965e-3
-1.416, 3.962e-3
-1.417, 3.956e-3
-1.418, 3.943e-3
-1.419, 3.928e-3
-1.420, 3.916e-3
-1.421, 3.906e-3
-1.422, 3.903e-3
-1.423, 3.906e-3
-1.424, 3.910e-3
-1.425, 3.913e-3
-1.426, 3.916e-3
-1.427, 3.919e-3
-1.428, 3.919e-3
-1.429, 3.913e-3
-1.430, 3.910e-3
-1.431, 3.903e-3
-1.432, 3.903e-3
-1.433, 3.900e-3
-1.434, 3.894e-3
-1.435, 3.885e-3
-1.436, 3.873e-3
-1.437, 3.866e-3
-1.438, 3.860e-3
-1.439, 3.860e-3
-1.440, 3.866e-3
-1.441, 3.879e-3
-1.442, 3.888e-3
-1.443, 3.900e-3
-1.444, 3.913e-3
-1.445, 3.919e-3
-1.446, 3.910e-3
-1.447, 3.897e-3
-1.448, 3.885e-3
-1.449, 3.873e-3
-1.450, 3.863e-3
-1.451, 3.860e-3
-1.452, 3.863e-3
-1.453, 3.876e-3
-1.454, 3.885e-3
-1.455, 3.897e-3
-1.456, 3.910e-3
-1.457, 3.922e-3
-1.458, 3.931e-3
-1.459, 3.934e-3
-1.460, 3.934e-3
-1.461, 3.934e-3
-1.462, 3.934e-3
-1.463, 3.925e-3
-1.464, 3.916e-3
-1.465, 3.916e-3
-1.466, 3.922e-3
-1.467, 3.928e-3
-1.468, 3.934e-3
-1.469, 3.928e-3
-1.470, 3.922e-3
-1.471, 3.919e-3
-1.472, 3.922e-3
-1.473, 3.928e-3
-1.474, 3.937e-3
-1.475, 3.943e-3
-1.476, 3.950e-3
-1.477, 3.947e-3
-1.478, 3.937e-3
-1.479, 3.931e-3
-1.480, 3.925e-3
-1.481, 3.922e-3
-1.482, 3.928e-3
-1.483, 3.940e-3
-1.484, 3.950e-3
-1.485, 3.959e-3
-1.486, 3.959e-3
-1.487, 3.959e-3
-1.488, 3.962e-3
-1.489, 3.965e-3
-1.490, 3.971e-3
-1.491, 3.984e-3
-1.492, 3.999e-3
-1.493, 4.014e-3
-1.494, 4.021e-3
-1.495, 4.030e-3
-1.496, 4.036e-3
-1.497, 4.051e-3
-1.498, 4.073e-3
-1.499, 4.098e-3
-1.500, 4.088e-3
-1.499, 4.014e-3
-1.498, 3.937e-3
-1.497, 3.860e-3
-1.496, 3.792e-3
-1.495, 3.728e-3
-1.494, 3.666e-3
-1.493, 3.598e-3
-1.492, 3.530e-3
-1.491, 3.475e-3
-1.490, 3.425e-3
-1.489, 3.379e-3
-1.488, 3.336e-3
-1.487, 3.287e-3
-1.486, 3.244e-3
-1.485, 3.191e-3
-1.484, 3.139e-3
-1.483, 3.080e-3
-1.482, 3.015e-3
-1.481, 2.951e-3
-1.480, 2.892e-3
-1.479, 2.840e-3
-1.478, 2.793e-3
-1.477, 2.760e-3
-1.476, 2.732e-3
-1.475, 2.695e-3
-1.474, 2.661e-3
-1.473, 2.618e-3
-1.472, 2.559e-3
-1.471, 2.497e-3
-1.470, 2.464e-3
-1.469, 2.454e-3
-1.468, 2.451e-3
-1.467, 2.433e-3
-1.466, 2.399e-3
-1.465, 2.349e-3
-1.464, 2.285e-3
-1.463, 2.214e-3
-1.462, 2.146e-3
-1.461, 2.087e-3
-1.460, 2.054e-3
-1.459, 2.026e-3
-1.458, 2.004e-3
-1.457, 1.980e-3
-1.456, 1.958e-3
-1.455, 1.927e-3
-1.454, 1.896e-3
-1.453, 1.856e-3
-1.452, 1.816e-3
-1.451, 1.773e-3
-1.450, 1.730e-3
-1.449, 1.693e-3
-1.448, 1.653e-3
-1.447, 1.616e-3
-1.446, 1.579e-3
-1.445, 1.545e-3
-1.444, 1.520e-3
-1.443, 1.495e-3
-1.442, 1.471e-3
-1.441, 1.443e-3
-1.440, 1.412e-3
-1.439, 1.381e-3
-1.438, 1.347e-3
-1.437, 1.314e-3
-1.436, 1.286e-3
-1.435, 1.258e-3
-1.434, 1.233e-3
-1.433, 1.212e-3
-1.432, 1.187e-3
-1.431, 1.159e-3
-1.430, 1.129e-3
-1.429, 1.098e-3
-1.428, 1.070e-3
-1.427, 1.045e-3
-1.426, 1.024e-3
-1.425, 1.005e-3
-1.424, 9.837e-4
-1.423, 9.590e-4
-1.422, 9.313e-4
-1.421, 9.004e-4
-1.420, 8.727e-4
-1.419, 8.480e-4
-1.418, 8.233e-4
-1.417, 8.048e-4
-1.416, 7.863e-4
-1.415, 7.648e-4
-1.414, 7.432e-4
-1.413, 7.216e-4
-1.412, 6.969e-4
-1.411, 6.754e-4
-1.410, 6.569e-4
-1.409, 6.414e-4
-1.408, 6.260e-4
-1.407, 6.075e-4
-1.406, 5.859e-4
-1.405, 5.644e-4
-1.404, 5.366e-4
-1.403, 5.150e-4
-1.402, 4.965e-4
-1.401, 4.811e-4
-1.400, 4.688e-4
-1.399, 4.534e-4
-1.398, 4.349e-4
-1.397, 4.133e-4
-1.396, 3.917e-4
-1.395, 3.701e-4
-1.394, 3.547e-4
-1.393, 3.393e-4
-1.392, 3.270e-4
-1.391, 3.146e-4
-1.390, 2.961e-4
-1.389, 2.807e-4
-1.388, 2.591e-4
-1.387, 2.406e-4
-1.386, 2.221e-4
-1.385, 2.098e-4
-1.384, 1.975e-4
-1.383, 1.851e-4
-1.382, 1.728e-4
-1.381, 1.574e-4
-1.380, 1.389e-4
-1.379, 1.204e-4
-1.378, 1.050e-4
-1.377, 8.957e-5
-1.376, 8.032e-5
-1.375, 7.107e-5
-1.374, 5.873e-5
-1.373, 4.640e-5
-1.372, 2.790e-5
-1.371, 9.405e-6
-1.370, -6.010e-6
-1.369, -2.143e-5
-1.368, -3.068e-5
-1.367, -3.684e-5
-1.366, -4.609e-5
-1.365, -5.842e-5
-1.364, -7.384e-5
-1.363, -8.925e-5
-1.362, -1.078e-4
-1.361, -1.201e-4
-1.360, -1.293e-4
-1.359, -1.386e-4
-1.358, -1.448e-4
-1.357, -1.540e-4
-1.356, -1.663e-4
-1.355, -1.817e-4
-1.354, -1.972e-4
-1.353, -2.126e-4
-1.352, -2.218e-4
-1.351, -2.280e-4
-1.350, -2.342e-4
-1.349, -2.403e-4
-1.348, -2.527e-4
-1.347, -2.650e-4
-1.346, -2.804e-4
-1.345, -2.958e-4
-1.344, -3.051e-4
-1.343, -3.143e-4
-1.342, -3.205e-4
-1.341, -3.267e-4
-1.340, -3.359e-4
-1.339, -3.482e-4
-1.338, -3.606e-4
-1.337, -3.729e-4
-1.336, -3.821e-4
-1.335, -3.883e-4
-1.334, -3.945e-4
-1.333, -3.976e-4
-1.332, -4.037e-4
-1.331, -4.161e-4
-1.330, -4.284e-4
-1.329, -4.438e-4
-1.328, -4.531e-4
-1.327, -4.623e-4
-1.326, -4.654e-4
-1.325, -4.685e-4
-1.324, -4.716e-4
-1.323, -4.808e-4
-1.322, -4.901e-4
-1.321, -5.024e-4
-1.320, -5.147e-4
-1.319, -5.271e-4
-1.318, -5.332e-4
-1.317, -5.363e-4
-1.316, -5.425e-4
-1.315, -5.486e-4
-1.314, -5.579e-4
-1.313, -5.671e-4
-1.312, -5.795e-4
-1.311, -5.887e-4
-1.310, -5.918e-4
-1.309, -5.949e-4
-1.308, -6.011e-4
-1.307, -6.041e-4
-1.306, -6.165e-4
-1.305, -6.257e-4
-1.304, -6.380e-4
-1.303, -6.473e-4
-1.302, -6.535e-4
-1.301, -6.535e-4
-1.300, -6.535e-4
-1.299, -6.565e-4
-1.298, -6.658e-4
-1.297, -6.781e-4
-1.296, -6.905e-4
-1.295, -7.028e-4
-1.294, -7.059e-4
-1.293, -7.090e-4
-1.292, -7.090e-4
-1.291, -7.151e-4
-1.290, -7.213e-4
-1.289, -7.305e-4
-1.288, -7.398e-4
-1.287, -7.521e-4
-1.286, -7.552e-4
-1.285, -7.552e-4
-1.284, -7.552e-4
-1.283, -7.583e-4
-1.282, -7.645e-4
-1.281, -7.737e-4
-1.280, -7.891e-4
-1.279, -8.015e-4
-1.278, -8.107e-4
-1.277, -8.169e-4
-1.276, -8.169e-4
-1.275, -8.169e-4
-1.274, -8.169e-4
-1.273, -8.200e-4
-1.272, -8.261e-4
-1.271, -8.385e-4
-1.270, -8.477e-4
-1.269, -8.569e-4
-1.268, -8.631e-4
-1.267, -8.662e-4
-1.266, -8.693e-4
-1.265, -8.724e-4
-1.264, -8.785e-4
-1.263, -8.878e-4
-1.262, -8.970e-4
-1.261, -9.032e-4
-1.260, -9.063e-4
-1.259, -9.032e-4
-1.258, -9.032e-4
-1.257, -9.032e-4
-1.256, -9.094e-4
-1.255, -9.155e-4
-1.254, -9.279e-4
-1.253, -9.402e-4
-1.252, -9.525e-4
-1.251, -9.618e-4
-1.250, -9.649e-4
-1.249, -9.649e-4
-1.248, -9.679e-4
-1.247, -9.741e-4
-1.246, -9.772e-4
-1.245, -9.834e-4
-1.244, -9.895e-4
-1.243, -9.957e-4
-1.242, -9.988e-4
-1.241, -1.005e-3
-1.240, -1.011e-3
-1.239, -1.023e-3
-1.238, -1.033e-3
-1.237, -1.042e-3
-1.236, -1.048e-3
-1.235, -1.051e-3
-1.234, -1.054e-3
-1.233, -1.057e-3
-1.232, -1.064e-3
-1.231, -1.073e-3
-1.230, -1.082e-3
-1.229, -1.091e-3
-1.228, -1.101e-3
-1.227, -1.104e-3
-1.226, -1.104e-3
-1.225, -1.107e-3
-1.224, -1.110e-3
-1.223, -1.116e-3
-1.222, -1.125e-3
-1.221, -1.138e-3
-1.220, -1.144e-3
-1.219, -1.147e-3
-1.218, -1.147e-3
-1.217, -1.144e-3
-1.216, -1.144e-3
-1.215, -1.147e-3
-1.214, -1.153e-3
-1.213, -1.162e-3
-1.212, -1.175e-3
-1.211, -1.184e-3
-1.210, -1.187e-3
-1.209, -1.193e-3
-1.208, -1.196e-3
-1.207, -1.199e-3
-1.206, -1.208e-3
-1.205, -1.221e-3
-1.204, -1.233e-3
-1.203, -1.245e-3
-1.202, -1.252e-3
-1.201, -1.255e-3
-1.200, -1.258e-3
-1.199, -1.264e-3
-1.198, -1.270e-3
-1.197, -1.279e-3
-1.196, -1.289e-3
-1.195, -1.298e-3
-1.194, -1.307e-3
-1.193, -1.313e-3
-1.192, -1.316e-3
-1.191, -1.319e-3
-1.190, -1.329e-3
-1.189, -1.338e-3
-1.188, -1.350e-3
-1.187, -1.366e-3
-1.186, -1.381e-3
-1.185, -1.387e-3
-1.184, -1.396e-3
-1.183, -1.400e-3
-1.182, -1.403e-3
-1.181, -1.409e-3
-1.180, -1.418e-3
-1.179, -1.430e-3
-1.178, -1.443e-3
-1.177, -1.449e-3
-1.176, -1.458e-3
-1.175, -1.464e-3
-1.174, -1.477e-3
-1.173, -1.483e-3
-1.172, -1.498e-3
-1.171, -1.514e-3
-1.170, -1.526e-3
-1.169, -1.535e-3
-1.168, -1.544e-3
-1.167, -1.551e-3
-1.166, -1.560e-3
-1.165, -1.569e-3
-1.164, -1.581e-3
-1.163, -1.597e-3
-1.162, -1.612e-3
-1.161, -1.625e-3
-1.160, -1.634e-3
-1.159, -1.646e-3
-1.158, -1.652e-3
-1.157, -1.662e-3
-1.156, -1.674e-3
-1.155, -1.689e-3
-1.154, -1.705e-3
-1.153, -1.723e-3
-1.152, -1.736e-3
-1.151, -1.748e-3
-1.150, -1.757e-3
-1.149, -1.766e-3
-1.148, -1.776e-3
-1.147, -1.788e-3
-1.146, -1.803e-3
-1.145, -1.819e-3
-1.144, -1.828e-3
-1.143, -1.837e-3
-1.142, -1.847e-3
-1.141, -1.859e-3
-1.140, -1.874e-3
-1.139, -1.893e-3
-1.138, -1.914e-3
-1.137, -1.933e-3
-1.136, -1.948e-3
-1.135, -1.958e-3
-1.134, -1.967e-3
-1.133, -1.973e-3
-1.132, -1.982e-3
-1.131, -1.995e-3
-1.130, -2.013e-3
-1.129, -2.035e-3
-1.128, -2.050e-3
-1.127, -2.059e-3
-1.126, -2.069e-3
-1.125, -2.075e-3
-1.124, -2.087e-3
-1.123, -2.099e-3
-1.122, -2.115e-3
-1.121, -2.136e-3
-1.120, -2.152e-3
-1.119, -2.164e-3
-1.118, -2.173e-3
-1.117, -2.183e-3
-1.116, -2.195e-3
-1.115, -2.207e-3
-1.114, -2.220e-3
-1.113, -2.241e-3
-1.112, -2.257e-3
-1.111, -2.275e-3
-1.110, -2.288e-3
-1.109, -2.300e-3
-1.108, -2.312e-3
-1.107, -2.328e-3
-1.106, -2.346e-3
-1.105, -2.365e-3
-1.104, -2.380e-3
-1.103, -2.395e-3
-1.102, -2.408e-3
-1.101, -2.417e-3
-1.100, -2.429e-3
-1.099, -2.442e-3
-1.098, -2.457e-3
-1.097, -2.476e-3
-1.096, -2.494e-3
-1.095, -2.513e-3
-1.094, -2.528e-3
-1.093, -2.540e-3
-1.092, -2.550e-3
-1.091, -2.559e-3
-1.090, -2.574e-3
-1.089, -2.590e-3
-1.088, -2.608e-3
-1.087, -2.627e-3
-1.086, -2.642e-3
-1.085, -2.654e-3
-1.084, -2.664e-3
-1.083, -2.676e-3
-1.082, -2.688e-3
-1.081, -2.707e-3
-1.080, -2.728e-3
-1.079, -2.750e-3
-1.078, -2.768e-3
-1.077, -2.784e-3
-1.076, -2.793e-3
-1.075, -2.799e-3
-1.074, -2.809e-3
-1.073, -2.824e-3
-1.072, -2.839e-3
-1.071, -2.858e-3
-1.070, -2.873e-3
-1.069, -2.889e-3
-1.068, -2.898e-3
-1.067, -2.907e-3
-1.066, -2.920e-3
-1.065, -2.935e-3
-1.064, -2.953e-3
-1.063, -2.975e-3
-1.062, -2.994e-3
-1.061, -3.009e-3
-1.060, -3.021e-3
-1.059, -3.027e-3
-1.058, -3.037e-3
-1.057, -3.046e-3
-1.056, -3.058e-3
-1.055, -3.077e-3
-1.054, -3.095e-3
-1.053, -3.111e-3
-1.052, -3.123e-3
-1.051, -3.135e-3
-1.050, -3.148e-3
-1.049, -3.157e-3
-1.048, -3.166e-3
-1.047, -3.182e-3
-1.046, -3.197e-3
-1.045, -3.209e-3
-1.044, -3.222e-3
-1.043, -3.231e-3
-1.042, -3.240e-3
-1.041, -3.246e-3
-1.040, -3.256e-3
-1.039, -3.274e-3
-1.038, -3.290e-3
-1.037, -3.308e-3
-1.036, -3.327e-3
-1.035, -3.339e-3
-1.034, -3.345e-3
-1.033, -3.354e-3
-1.032, -3.360e-3
-1.031, -3.370e-3
-1.030, -3.385e-3
-1.029, -3.404e-3
-1.028, -3.413e-3
-1.027, -3.425e-3
-1.026, -3.434e-3
-1.025, -3.444e-3
-1.024, -3.453e-3
-1.023, -3.465e-3
-1.022, -3.478e-3
-1.021, -3.493e-3
-1.020, -3.505e-3
-1.019, -3.515e-3
-1.018, -3.521e-3
-1.017, -3.530e-3
-1.016, -3.539e-3
-1.015, -3.552e-3
-1.014, -3.564e-3
-1.013, -3.576e-3
-1.012, -3.589e-3
-1.011, -3.601e-3
-1.010, -3.610e-3
-1.009, -3.616e-3
-1.008, -3.622e-3
-1.007, -3.629e-3
-1.006, -3.641e-3
-1.005, -3.653e-3
-1.004, -3.669e-3
-1.003, -3.681e-3
-1.002, -3.693e-3
-1.001, -3.706e-3
