Potential V vs RHE, Current mA cm-2
0.013299999999999867,-0.2202705493889862
0.012299999999999978,-0.7437137303390498
0.011299999999999866,-1.1362961160515976
0.010299999999999976,-1.3980177065266295
0.009299999999999864,-1.6156003044458718
0.008299999999999974,-1.7471684553333202
0.007299999999999862,-1.8773218949209036
0.006299999999999972,-2.008890045808352
0.00529999999999986,-2.095187435100119
0.0042999999999999705,-2.1828995356917518
0.0032999999999998586,-2.2706116362833835
0.0022999999999999687,-2.3144676865791998
0.0012999999999998568,-2.3569090255751513
0.00029999999999996696,-2.4446211261667834
-0.000700000000000145,-2.4446211261667834
-0.0017000000000000348,-2.4884771764625997
-0.0027000000000001467,-2.4884771764625997
-0.0037000000000000366,-2.532333226758415
-0.0047000000000001485,-2.532333226758415
-0.005700000000000038,-2.576189277054232
-0.00670000000000015,-2.576189277054232
-0.00770000000000004,-2.618630616050183
-0.008700000000000152,-2.618630616050183
-0.009700000000000042,-2.618630616050183
-0.010700000000000154,-2.662486666345999
-0.011700000000000044,-2.662486666345999
-0.012700000000000156,-2.662486666345999
-0.013700000000000045,-2.706342716641815
-0.014700000000000157,-2.706342716641815
-0.015700000000000047,-2.706342716641815
-0.01670000000000016,-2.706342716641815
-0.01770000000000005,-2.7501987669376318
-0.01870000000000016,-2.7501987669376318
-0.01970000000000005,-2.7501987669376318
-0.020700000000000163,-2.7501987669376318
-0.021700000000000053,-2.7501987669376318
-0.022700000000000164,-2.794054817233447
-0.023700000000000054,-2.794054817233447
-0.024700000000000166,-2.794054817233447
-0.025700000000000056,-2.794054817233447
-0.026700000000000168,-2.794054817233447
-0.027700000000000058,-2.794054817233447
-0.02870000000000017,-2.794054817233447
-0.02970000000000006,-2.794054817233447
-0.03070000000000017,-2.794054817233447
-0.03170000000000006,-2.794054817233447
-0.03270000000000017,-2.794054817233447
-0.03370000000000006,-2.8379108675292635
-0.034700000000000175,-2.8379108675292635
-0.035700000000000065,-2.8379108675292635
-0.03670000000000018,-2.8379108675292635
-0.03770000000000007,-2.8379108675292635
-0.03870000000000018,-2.8379108675292635
-0.03970000000000007,-2.8379108675292635
-0.04070000000000018,-2.8379108675292635
-0.04170000000000007,-2.8379108675292635
-0.04270000000000018,-2.8379108675292635
-0.04370000000000007,-2.8803522065252145
-0.044700000000000184,-2.8803522065252145
-0.045700000000000074,-2.8379108675292635
-0.046700000000000186,-2.8379108675292635
-0.047700000000000076,-2.8803522065252145
-0.04870000000000019,-2.8803522065252145
-0.04970000000000008,-2.8803522065252145
-0.05070000000000019,-2.8803522065252145
-0.05170000000000008,-2.8803522065252145
-0.05270000000000019,-2.8803522065252145
-0.05370000000000008,-2.8803522065252145
-0.05470000000000019,-2.8803522065252145
-0.05570000000000008,-2.8803522065252145
-0.056700000000000195,-2.8803522065252145
-0.057700000000000085,-2.8803522065252145
-0.058700000000000196,-2.8803522065252145
-0.059700000000000086,-2.924208256821031
-0.0607000000000002,-2.8803522065252145
-0.06170000000000009,-2.8803522065252145
-0.0627000000000002,-2.8803522065252145
-0.06370000000000009,-2.8803522065252145
-0.0647000000000002,-2.8803522065252145
-0.06570000000000009,-2.8803522065252145
-0.0667000000000002,-2.8803522065252145
-0.0677000000000001,-2.8803522065252145
-0.0687000000000002,-2.8803522065252145
-0.0697000000000001,-2.8803522065252145
-0.07070000000000021,-2.8803522065252145
-0.0717000000000001,-2.924208256821031
-0.07270000000000021,-2.8803522065252145
-0.0737000000000001,-2.924208256821031
-0.07470000000000021,-2.924208256821031
-0.0757000000000001,-2.8803522065252145
-0.07670000000000021,-2.924208256821031
-0.0777000000000001,-2.924208256821031
-0.07870000000000021,-2.924208256821031
-0.0797000000000001,-2.924208256821031
-0.08070000000000022,-2.924208256821031
-0.0817000000000001,-2.924208256821031
-0.08270000000000022,-2.924208256821031
-0.08370000000000011,-2.8803522065252145
-0.08470000000000022,-2.924208256821031
-0.08570000000000011,-2.924208256821031
-0.08670000000000022,-2.924208256821031
-0.08770000000000011,-2.924208256821031
-0.08870000000000022,-2.924208256821031
-0.08970000000000011,-2.968064307116847
-0.09070000000000022,-2.924208256821031
-0.09170000000000011,-2.924208256821031
-0.09270000000000023,-2.924208256821031
-0.09370000000000012,-2.924208256821031
-0.09470000000000023,-2.924208256821031
-0.09570000000000012,-2.924208256821031
-0.09670000000000023,-2.924208256821031
-0.09770000000000012,-2.924208256821031
-0.09870000000000023,-2.924208256821031
-0.09970000000000012,-2.924208256821031
-0.10070000000000023,-2.924208256821031
-0.10170000000000012,-2.924208256821031
-0.10270000000000024,-2.924208256821031
-0.10370000000000013,-2.924208256821031
-0.10470000000000024,-2.924208256821031
-0.10570000000000013,-2.924208256821031
-0.10670000000000024,-2.924208256821031
-0.10770000000000013,-2.968064307116847
-0.10870000000000024,-2.924208256821031
-0.10970000000000013,-2.924208256821031
-0.11070000000000024,-2.924208256821031
-0.11170000000000013,-2.924208256821031
-0.11270000000000002,-2.968064307116847
-0.11370000000000013,-2.924208256821031
-0.11470000000000002,-2.968064307116847
-0.11570000000000014,-2.968064307116847
-0.11670000000000003,-2.968064307116847
-0.11770000000000014,-2.968064307116847
-0.11870000000000003,-2.968064307116847
-0.11970000000000014,-2.968064307116847
-0.12070000000000003,-2.968064307116847
-0.12170000000000014,-2.968064307116847
-0.12270000000000003,-2.968064307116847
-0.12370000000000014,-2.968064307116847
-0.12470000000000003,-2.968064307116847
-0.12570000000000014,-2.968064307116847
-0.12670000000000003,-2.968064307116847
-0.12770000000000015,-2.968064307116847
-0.12870000000000004,-3.0119203574126634
-0.12970000000000015,-2.968064307116847
-0.13070000000000004,-3.0119203574126634
-0.13170000000000015,-3.0119203574126634
-0.13270000000000004,-2.968064307116847
-0.13370000000000015,-3.0119203574126634
-0.13470000000000004,-3.0119203574126634
-0.13570000000000015,-3.0119203574126634
-0.13670000000000004,-3.0119203574126634
-0.13770000000000016,-3.0119203574126634
-0.13870000000000005,-3.0119203574126634
-0.13970000000000016,-3.055776407708479
-0.14070000000000005,-3.0119203574126634
-0.14170000000000016,-3.0119203574126634
-0.14270000000000005,-3.055776407708479
-0.14370000000000016,-3.0119203574126634
-0.14470000000000005,-3.0119203574126634
-0.14570000000000016,-3.055776407708479
-0.14670000000000005,-3.055776407708479
-0.14770000000000016,-3.055776407708479
-0.14870000000000005,-3.055776407708479
-0.14970000000000017,-3.055776407708479
-0.15070000000000006,-3.055776407708479
-0.15170000000000017,-3.055776407708479
-0.15270000000000006,-3.055776407708479
-0.15370000000000017,-3.055776407708479
-0.15470000000000006,-3.055776407708479
-0.15570000000000017,-3.0996324580042955
-0.15670000000000006,-3.0996324580042955
-0.15770000000000017,-3.0996324580042955
-0.15870000000000006,-3.0996324580042955
-0.15970000000000018,-3.0996324580042955
-0.16070000000000007,-3.1420737970002466
-0.16170000000000018,-3.1420737970002466
-0.16270000000000007,-3.1420737970002466
-0.16370000000000018,-3.1420737970002466
-0.16470000000000007,-3.1420737970002466
-0.16570000000000018,-3.1420737970002466
-0.16670000000000007,-3.1420737970002466
-0.16770000000000018,-3.1420737970002466
-0.16870000000000007,-3.1420737970002466
-0.16970000000000018,-3.1859298472960624
-0.17070000000000007,-3.1859298472960624
-0.17170000000000019,-3.1859298472960624
-0.17270000000000008,-3.1859298472960624
-0.1737000000000002,-3.1859298472960624
-0.17470000000000008,-3.2297858975918787
-0.1757000000000002,-3.2297858975918787
-0.17670000000000008,-3.2297858975918787
-0.1777000000000002,-3.2297858975918787
-0.17870000000000008,-3.2297858975918787
-0.1797000000000002,-3.273641947887695
-0.18070000000000008,-3.2297858975918787
-0.1817000000000002,-3.273641947887695
-0.18270000000000008,-3.273641947887695
-0.1837000000000002,-3.273641947887695
-0.1847000000000001,-3.273641947887695
-0.1857000000000002,-3.317497998183511
-0.1867000000000001,-3.317497998183511
-0.1877000000000002,-3.317497998183511
-0.1887000000000001,-3.317497998183511
-0.1897000000000002,-3.361354048479327
-0.1907000000000001,-3.361354048479327
-0.1917000000000001,-3.361354048479327
-0.19269999999999998,-3.403795387475278
-0.1937000000000001,-3.403795387475278
-0.19469999999999998,-3.403795387475278
-0.1957000000000001,-3.403795387475278
-0.19669999999999999,-3.403795387475278
-0.1977000000000001,-3.447651437771094
-0.1987,-3.447651437771094
-0.1997000000000001,-3.447651437771094
-0.2007,-3.4915074880669104
-0.2017000000000001,-3.4915074880669104
-0.2027,-3.4915074880669104
-0.2037000000000001,-3.4915074880669104
-0.2047,-3.4915074880669104
-0.2057000000000001,-3.5353635383627267
-0.2067,-3.579219588658543
-0.2077000000000001,-3.579219588658543
-0.2087,-3.579219588658543
-0.2097000000000001,-3.623075638954359
-0.2107,-3.623075638954359
-0.2117000000000001,-3.623075638954359
-0.2127,-3.623075638954359
-0.2137000000000001,-3.6655169779503103
-0.2147,-3.6655169779503103
-0.2157000000000001,-3.7093730282461257
-0.2167,-3.7532290785419424
-0.21770000000000012,-3.7532290785419424
-0.2187,-3.7532290785419424
-0.21970000000000012,-3.7970851288377587
-0.2207,-3.7970851288377587
-0.22170000000000012,-3.840941179133574
-0.2227,-3.840941179133574
-0.22370000000000012,-3.884797229429391
-0.2247,-3.884797229429391
-0.22570000000000012,-3.927238568425342
-0.2267,-3.927238568425342
-0.22770000000000012,-3.927238568425342
-0.22870000000000001,-3.971094618721158
-0.22970000000000013,-4.014950669016974
-0.23070000000000002,-4.014950669016974
-0.23170000000000013,-4.0588067193127895
-0.23270000000000002,-4.0588067193127895
-0.23370000000000013,-4.102662769608606
-0.23470000000000002,-4.146518819904423
-0.23570000000000013,-4.146518819904423
-0.23670000000000002,-4.1889601589003735
-0.2376999999999999,-4.1889601589003735
-0.23870000000000002,-4.23281620919619
-0.2396999999999999,-4.276672259492005
-0.24070000000000003,-4.276672259492005
-0.24169999999999991,-4.3205283097878215
-0.24270000000000003,-4.364384360083638
-0.24369999999999992,-4.406825699079589
-0.24470000000000003,-4.406825699079589
-0.24569999999999992,-4.450681749375406
-0.24670000000000003,-4.494537799671222
-0.24769999999999992,-4.494537799671222
-0.24870000000000003,-4.538393849967037
-0.24969999999999992,-4.582249900262854
-0.25070000000000003,-4.626105950558669
-0.2516999999999999,-4.668547289554621
-0.25270000000000004,-4.668547289554621
-0.2536999999999999,-4.712403339850438
-0.25470000000000004,-4.756259390146253
-0.2556999999999999,-4.800115440442069
-0.25670000000000004,-4.843971490737885
-0.25769999999999993,-4.843971490737885
-0.25870000000000004,-4.9302688800296535
-0.25969999999999993,-4.9302688800296535
-0.26070000000000004,-4.974124930325469
-0.26169999999999993,-5.017980980621284
-0.26270000000000004,-5.0618370309171015
-0.26369999999999993,-5.105693081212917
-0.26470000000000005,-5.149549131508733
-0.26569999999999994,-5.191990470504685
-0.26670000000000005,-5.235846520800501
-0.26769999999999994,-5.323558621392133
-0.26870000000000005,-5.323558621392133
-0.26969999999999994,-5.411270721983764
-0.27070000000000005,-5.453712060979717
-0.27169999999999994,-5.497568111275533
-0.27270000000000005,-5.5414241615713475
-0.27369999999999994,-5.585280211867165
-0.27470000000000006,-5.629136262162981
-0.27569999999999995,-5.672992312458796
-0.27670000000000006,-5.759289701750564
-0.27769999999999995,-5.80314575204638
-0.27870000000000006,-5.847001802342197
-0.27969999999999995,-5.9347139029338285
-0.28070000000000006,-5.977155241929781
-0.28169999999999995,-6.021011292225596
-0.28270000000000006,-6.064867342521412
-0.28369999999999995,-6.152579443113044
-0.28470000000000006,-6.196435493408861
-0.28569999999999995,-6.238876832404812
-0.28670000000000007,-6.326588932996443
-0.28769999999999996,-6.37044498329226
-0.28870000000000007,-6.458157083883892
-0.28969999999999996,-6.500598422879844
-0.29070000000000007,-6.588310523471475
-0.29169999999999996,-6.632166573767292
-0.29270000000000007,-6.719878674358924
-0.29369999999999996,-6.762320013354876
-0.2947000000000001,-6.850032113946507
-0.29569999999999996,-6.893888164242324
-0.2967000000000001,-7.024041603829907
-0.29769999999999996,-7.067897654125724
-0.2987000000000001,-7.155609754717355
-0.29969999999999997,-7.243321855308987
-0.3007000000000001,-7.28576319430494
-0.30169999999999997,-7.4173313451923875
-0.3027000000000001,-7.461187395488204
-0.30369999999999997,-7.5474847847799715
-0.3047000000000001,-7.591340835075788
-0.30569999999999997,-7.679052935667419
-0.3067000000000001,-7.7653503249591855
-0.3077,-7.853062425550818
-0.3087000000000001,-7.940774526142452
-0.3097,-8.027071915434218
-0.3107000000000001,-8.11478401602585
-0.3117,-8.202496116617484
-0.3127000000000001,-8.288793505909249
-0.3137,-8.376505606500881
-0.3147000000000001,-8.464217707092514
-0.3157,-8.55051509638428
-0.3167000000000001,-8.638227196975913
-0.3177,-8.725939297567548
-0.3187000000000001,-8.812236686859313
-0.3197,-8.899948787450944
-0.3207000000000001,-9.031516938338395
-0.3217,-9.11781432763016
-0.3227000000000001,-9.205526428221793
-0.3237,-9.335679867809377
-0.3247000000000001,-9.423391968401008
-0.3257,-9.511104068992642
-0.3267000000000001,-9.641257508580225
-0.3277,-9.728969609171857
-0.3287000000000001,-9.85912304875944
-0.3297,-9.99069119964689
-0.3307000000000001,-10.078403300238522
-0.3317,-10.208556739826104
-0.3327000000000001,-10.296268840417738
-0.3337,-10.42642228000532
-0.3347000000000001,-10.557990430892769
-0.3357,-10.644287820184536
-0.3367000000000001,-10.775855971071984
-0.3377,-10.863568071663616
-0.3387000000000001,-10.993721511251199
-0.3397,-11.123874950838783
-0.3407000000000001,-11.255443101726232
-0.3417,-11.385596541313816
-0.3427000000000001,-11.517164692201263
-0.3437,-11.647318131788847
-0.3447000000000001,-11.778886282676295
-0.3457,-11.909039722263879
-0.3467000000000001,-12.040607873151327
-0.3477,-12.170761312738911
-0.3487000000000001,-12.302329463626359
-0.3497,-12.432482903213943
-0.3507000000000001,-12.56405105410139
-0.3517,-12.694204493688973
-0.3527000000000001,-12.869628694872238
-0.3537,-12.955926084164007
-0.3547000000000001,-13.13135028534727
-0.3557,-13.30535977523067
-0.35670000000000013,-13.436927926118118
-0.3577,-13.567081365705702
-0.35870000000000013,-13.698649516593148
-0.3597,-13.872659006476551
-0.36070000000000013,-14.002812446064135
-0.3617,-14.13438059695158
-0.3626999999999999,-14.26028990263957
-0.3637,-14.444202371622024
-0.3646999999999999,-14.57152638860988
-0.3657,-14.741291744593681
-0.3666999999999999,-14.925204213576137
-0.3677,-15.05252823056399
-0.3686999999999999,-15.264734925543747
-0.36970000000000003,-15.3920589425316
-0.3706999999999999,-15.533530072518102
-0.37170000000000003,-15.70329542850191
-0.3726999999999999,-15.87306078448571
-0.37370000000000003,-16.056973253468165
-0.3746999999999999,-16.184297270456018
-0.37570000000000003,-16.354062626439823
-0.3766999999999999,-16.53797509542228
-0.37770000000000004,-16.70774045140608
-0.3786999999999999,-16.877505807389888
-0.37970000000000004,-17.061418276372343
-0.3806999999999999,-17.188742293360193
-0.38170000000000004,-17.358507649344002
-0.38269999999999993,-17.542420118326454
-0.38370000000000004,-17.71218547431026
-0.38469999999999993,-17.881950830294063
-0.38570000000000004,-18.06586329927652
-0.38669999999999993,-18.23562865526032
-0.38770000000000004,-18.40539401124413
-0.38869999999999993,-18.589306480226583
-0.38970000000000005,-18.759071836210385
-0.39069999999999994,-18.92883719219419
-0.39170000000000005,-19.155191000172596
-0.39269999999999994,-19.3249563561564
-0.39370000000000005,-19.452280373144255
-0.39469999999999994,-19.678634181122664
-0.39570000000000005,-19.890840876102416
-0.39669999999999994,-20.06060623208622
-0.39770000000000005,-20.286960040064624
-0.39869999999999994,-20.456725396048434
-0.39970000000000006,-20.683079204026836
-0.40069999999999995,-20.89528589900659
-0.40170000000000006,-21.107492593986347
-0.40269999999999995,-21.291405062968803
-0.40370000000000006,-21.503611757948562
-0.40469999999999995,-21.67337711393236
-0.40570000000000006,-21.899730921910766
-0.40669999999999995,-22.069496277894572
-0.40770000000000006,-22.295850085872978
-0.40869999999999995,-22.508056780852733
-0.40970000000000006,-22.67782213683654
-0.41069999999999995,-22.946617283810895
-0.41170000000000007,-23.15882397879065
-0.41269999999999996,-23.385177786769056
-0.41370000000000007,-23.55494314275286
-0.41469999999999996,-23.767149837732617
-0.41570000000000007,-23.951062306715073
-0.41669999999999996,-24.16326900169483
-0.41770000000000007,-24.34718147067728
-0.41869999999999996,-24.559388165657033
-0.4197000000000001,-24.771594860636792
-0.42069999999999996,-24.997948668615198
-0.4217000000000001,-25.210155363594954
-0.42269999999999996,-25.478950510569312
-0.4237000000000001,-25.691157205549064
-0.42469999999999997,-25.91751101352747
-0.4257000000000001,-26.087276369511276
-0.42669999999999997,-26.29948306449103
-0.4277000000000001,-26.525836872469437
-0.42869999999999997,-26.69560222845324
-0.4297000000000001,-26.907808923433
-0.43069999999999997,-27.176604070407354
-0.4317000000000001,-27.43125210438306
-0.4327,-27.65760591236147
-0.4337000000000001,-27.912253946337174
-0.4347,-28.13860775431558
-0.4357000000000001,-28.393255788291288
-0.4367,-28.577168257273744
-0.4377000000000001,-28.746933613257543
-0.4387,-28.959140308237306
-0.4397000000000001,-29.14305277721976
-0.4407,-29.35525947219951
-0.4417000000000001,-29.62405461917387
-0.4427,-29.878702653149578
-0.4437000000000001,-30.10505646112798
-0.4447,-30.402145834099635
-0.4457000000000001,-30.670940981073993
-0.4467,-30.88314767605375
-0.4477000000000001,-31.095354371033505
-0.4487,-31.321708179011907
-0.4497000000000001,-31.533914873991666
-0.4507,-31.717827342974125
-0.4517000000000001,-31.930034037953877
-0.4527,-32.14224073293363
-0.4537000000000001,-32.45347721890394
-0.4547,-32.70812525287965
-0.4557000000000001,-32.93447906085806
-0.4567,-33.231568433829715
-0.4577000000000001,-33.45792224180811
-0.4587,-33.712570275783825
-0.4597000000000001,-33.93892408376223
-0.4607,-34.15113077874198
-0.4617000000000001,-34.377484586720385
-0.4627,-34.58969128170015
-0.4637000000000001,-34.85848642867451
-0.4647,-35.07069312365426
-0.4657000000000001,-35.32534115762997
-0.4667,-35.594136304604326
-0.4677000000000001,-35.848784338580025
-0.4687,-36.11757948555439
-0.4697000000000001,-36.329786180534136
-0.4707,-36.5985813275085
-0.4717000000000001,-36.81078802248826
-0.4727,-37.07958316946261
-0.4737000000000001,-37.291789864442364
-0.4747,-37.56058501141672
-0.4757000000000001,-37.85767438438838
-0.4767,-38.12646953136274
-0.4777000000000001,-38.42355890433439
-0.4787,-38.692354051308754
-0.4797000000000001,-38.98944342428042
-0.4807,-39.258238571254765
-0.48170000000000013,-39.47044526623452
-0.4827,-39.696799074212926
-0.48370000000000013,-39.90900576919269
-0.4847,-40.135359577171094
-0.48570000000000013,-40.3900076111468
-0.4867,-40.65880275812115
-0.4876999999999999,-40.95589213109281
-0.4887,-41.267128617063115
-0.4896999999999999,-41.56421799003478
-0.4907,-41.87545447600508
-0.4916999999999999,-42.130102509980794
-0.4927,-42.3564563179592
-0.4936999999999999,-42.6111043519349
-0.49470000000000003,-42.837458159913304
-0.4956999999999999,-43.09210619388902
-0.49670000000000003,-43.31846000186743
-0.4976999999999999,-43.57310803584313
-0.49870000000000003,-43.88434452181344
-0.4996999999999999,-44.181433894785094
-0.5007,-44.535111719751356
-0.5016999999999999,-44.84634820572166
-0.5027,-45.143437578693316
-0.5036999999999999,-45.36979138667173
-0.5047,-45.624439420647434
-0.5056999999999999,-45.89323456762179
-0.5067,-46.10544126260155
-0.5076999999999999,-46.41667774857186
