Sept. 13, 2024   06:14:00
Cyclic Voltammetry
File: c:/users/guazh/data/20240903_batch_252_500/2024-09-03-exp340\exp340-2024-09-13t05_57_54-h2koh\exp340_cv_sr_800mvs_efin_-1600mv.bin
Data Source:  Experiment
Instrument Model:  CHI760E
Header: CV ran at 800 mVs
Note: 

Init E (V) = -1
High E (V) = -1
Low E (V) = -1.6
Final E (V) = -1
Init P/N = N
Scan Rate (V/s) = 0.8
Segment = 3
Sample Interval (V) = 0.001
Quiet Time (sec) = 2
Sensitivity (A/V) = 0.01
Comp R (ohm) = 2.3

Results:

Channel 1:
Segment 1:

Segment 2:

Segment 3:

Potential/V, Current/A

-1.000, 1.557e-5
-1.001, 5.257e-5
-1.002, 7.723e-5
-1.003, 9.265e-5
-1.004, 1.081e-4
-1.005, 1.173e-4
-1.006, 1.266e-4
-1.007, 1.327e-4
-1.008, 1.389e-4
-1.009, 1.451e-4
-1.010, 1.481e-4
-1.011, 1.512e-4
-1.012, 1.543e-4
-1.013, 1.574e-4
-1.014, 1.574e-4
-1.015, 1.605e-4
-1.016, 1.605e-4
-1.017, 1.636e-4
-1.018, 1.636e-4
-1.019, 1.666e-4
-1.020, 1.666e-4
-1.021, 1.666e-4
-1.022, 1.697e-4
-1.023, 1.697e-4
-1.024, 1.697e-4
-1.025, 1.728e-4
-1.026, 1.728e-4
-1.027, 1.728e-4
-1.028, 1.728e-4
-1.029, 1.728e-4
-1.030, 1.728e-4
-1.031, 1.759e-4
-1.032, 1.759e-4
-1.033, 1.759e-4
-1.034, 1.790e-4
-1.035, 1.759e-4
-1.036, 1.790e-4
-1.037, 1.790e-4
-1.038, 1.790e-4
-1.039, 1.790e-4
-1.040, 1.790e-4
-1.041, 1.790e-4
-1.042, 1.790e-4
-1.043, 1.790e-4
-1.044, 1.790e-4
-1.045, 1.790e-4
-1.046, 1.790e-4
-1.047, 1.790e-4
-1.048, 1.821e-4
-1.049, 1.821e-4
-1.050, 1.821e-4
-1.051, 1.821e-4
-1.052, 1.821e-4
-1.053, 1.821e-4
-1.054, 1.821e-4
-1.055, 1.821e-4
-1.056, 1.821e-4
-1.057, 1.821e-4
-1.058, 1.821e-4
-1.059, 1.821e-4
-1.060, 1.821e-4
-1.061, 1.821e-4
-1.062, 1.851e-4
-1.063, 1.851e-4
-1.064, 1.821e-4
-1.065, 1.851e-4
-1.066, 1.851e-4
-1.067, 1.821e-4
-1.068, 1.821e-4
-1.069, 1.821e-4
-1.070, 1.821e-4
-1.071, 1.851e-4
-1.072, 1.851e-4
-1.073, 1.851e-4
-1.074, 1.851e-4
-1.075, 1.851e-4
-1.076, 1.851e-4
-1.077, 1.851e-4
-1.078, 1.851e-4
-1.079, 1.851e-4
-1.080, 1.851e-4
-1.081, 1.821e-4
-1.082, 1.851e-4
-1.083, 1.851e-4
-1.084, 1.851e-4
-1.085, 1.851e-4
-1.086, 1.851e-4
-1.087, 1.851e-4
-1.088, 1.851e-4
-1.089, 1.851e-4
-1.090, 1.851e-4
-1.091, 1.851e-4
-1.092, 1.851e-4
-1.093, 1.851e-4
-1.094, 1.851e-4
-1.095, 1.851e-4
-1.096, 1.851e-4
-1.097, 1.851e-4
-1.098, 1.851e-4
-1.099, 1.851e-4
-1.100, 1.851e-4
-1.101, 1.851e-4
-1.102, 1.851e-4
-1.103, 1.851e-4
-1.104, 1.851e-4
-1.105, 1.851e-4
-1.106, 1.882e-4
-1.107, 1.882e-4
-1.108, 1.851e-4
-1.109, 1.851e-4
-1.110, 1.851e-4
-1.111, 1.851e-4
-1.112, 1.851e-4
-1.113, 1.882e-4
-1.114, 1.882e-4
-1.115, 1.882e-4
-1.116, 1.882e-4
-1.117, 1.882e-4
-1.118, 1.882e-4
-1.119, 1.882e-4
-1.120, 1.851e-4
-1.121, 1.851e-4
-1.122, 1.851e-4
-1.123, 1.882e-4
-1.124, 1.882e-4
-1.125, 1.882e-4
-1.126, 1.882e-4
-1.127, 1.882e-4
-1.128, 1.882e-4
-1.129, 1.882e-4
-1.130, 1.882e-4
-1.131, 1.882e-4
-1.132, 1.882e-4
-1.133, 1.882e-4
-1.134, 1.882e-4
-1.135, 1.882e-4
-1.136, 1.882e-4
-1.137, 1.882e-4
-1.138, 1.882e-4
-1.139, 1.882e-4
-1.140, 1.913e-4
-1.141, 1.913e-4
-1.142, 1.913e-4
-1.143, 1.913e-4
-1.144, 1.913e-4
-1.145, 1.913e-4
-1.146, 1.913e-4
-1.147, 1.913e-4
-1.148, 1.913e-4
-1.149, 1.913e-4
-1.150, 1.913e-4
-1.151, 1.913e-4
-1.152, 1.913e-4
-1.153, 1.913e-4
-1.154, 1.913e-4
-1.155, 1.913e-4
-1.156, 1.944e-4
-1.157, 1.913e-4
-1.158, 1.944e-4
-1.159, 1.944e-4
-1.160, 1.944e-4
-1.161, 1.944e-4
-1.162, 1.944e-4
-1.163, 1.944e-4
-1.164, 1.975e-4
-1.165, 1.944e-4
-1.166, 1.944e-4
-1.167, 1.975e-4
-1.168, 1.975e-4
-1.169, 1.975e-4
-1.170, 1.975e-4
-1.171, 1.975e-4
-1.172, 1.975e-4
-1.173, 1.975e-4
-1.174, 1.975e-4
-1.175, 1.975e-4
-1.176, 2.006e-4
-1.177, 2.006e-4
-1.178, 2.006e-4
-1.179, 2.006e-4
-1.180, 2.006e-4
-1.181, 2.006e-4
-1.182, 2.036e-4
-1.183, 2.036e-4
-1.184, 2.036e-4
-1.185, 2.036e-4
-1.186, 2.036e-4
-1.187, 2.036e-4
-1.188, 2.036e-4
-1.189, 2.036e-4
-1.190, 2.036e-4
-1.191, 2.067e-4
-1.192, 2.067e-4
-1.193, 2.098e-4
-1.194, 2.098e-4
-1.195, 2.098e-4
-1.196, 2.098e-4
-1.197, 2.098e-4
-1.198, 2.098e-4
-1.199, 2.098e-4
-1.200, 2.098e-4
-1.201, 2.098e-4
-1.202, 2.129e-4
-1.203, 2.129e-4
-1.204, 2.129e-4
-1.205, 2.160e-4
-1.206, 2.160e-4
-1.207, 2.160e-4
-1.208, 2.160e-4
-1.209, 2.191e-4
-1.210, 2.191e-4
-1.211, 2.191e-4
-1.212, 2.221e-4
-1.213, 2.221e-4
-1.214, 2.221e-4
-1.215, 2.221e-4
-1.216, 2.221e-4
-1.217, 2.252e-4
-1.218, 2.252e-4
-1.219, 2.283e-4
-1.220, 2.283e-4
-1.221, 2.314e-4
-1.222, 2.314e-4
-1.223, 2.314e-4
-1.224, 2.345e-4
-1.225, 2.345e-4
-1.226, 2.345e-4
-1.227, 2.345e-4
-1.228, 2.376e-4
-1.229, 2.406e-4
-1.230, 2.406e-4
-1.231, 2.406e-4
-1.232, 2.437e-4
-1.233, 2.437e-4
-1.234, 2.437e-4
-1.235, 2.468e-4
-1.236, 2.499e-4
-1.237, 2.499e-4
-1.238, 2.530e-4
-1.239, 2.530e-4
-1.240, 2.530e-4
-1.241, 2.561e-4
-1.242, 2.561e-4
-1.243, 2.591e-4
-1.244, 2.591e-4
-1.245, 2.622e-4
-1.246, 2.622e-4
-1.247, 2.653e-4
-1.248, 2.653e-4
-1.249, 2.684e-4
-1.250, 2.715e-4
-1.251, 2.715e-4
-1.252, 2.746e-4
-1.253, 2.746e-4
-1.254, 2.776e-4
-1.255, 2.807e-4
-1.256, 2.838e-4
-1.257, 2.838e-4
-1.258, 2.869e-4
-1.259, 2.900e-4
-1.260, 2.900e-4
-1.261, 2.931e-4
-1.262, 2.961e-4
-1.263, 2.992e-4
-1.264, 3.023e-4
-1.265, 3.023e-4
-1.266, 3.054e-4
-1.267, 3.085e-4
-1.268, 3.085e-4
-1.269, 3.115e-4
-1.270, 3.146e-4
-1.271, 3.177e-4
-1.272, 3.208e-4
-1.273, 3.239e-4
-1.274, 3.270e-4
-1.275, 3.300e-4
-1.276, 3.331e-4
-1.277, 3.362e-4
-1.278, 3.393e-4
-1.279, 3.424e-4
-1.280, 3.455e-4
-1.281, 3.485e-4
-1.282, 3.516e-4
-1.283, 3.547e-4
-1.284, 3.609e-4
-1.285, 3.640e-4
-1.286, 3.670e-4
-1.287, 3.701e-4
-1.288, 3.732e-4
-1.289, 3.763e-4
-1.290, 3.794e-4
-1.291, 3.825e-4
-1.292, 3.855e-4
-1.293, 3.917e-4
-1.294, 3.979e-4
-1.295, 4.010e-4
-1.296, 4.040e-4
-1.297, 4.071e-4
-1.298, 4.133e-4
-1.299, 4.195e-4
-1.300, 4.225e-4
-1.301, 4.287e-4
-1.302, 4.318e-4
-1.303, 4.380e-4
-1.304, 4.441e-4
-1.305, 4.472e-4
-1.306, 4.534e-4
-1.307, 4.565e-4
-1.308, 4.595e-4
-1.309, 4.657e-4
-1.310, 4.688e-4
-1.311, 4.750e-4
-1.312, 4.780e-4
-1.313, 4.842e-4
-1.314, 4.904e-4
-1.315, 4.935e-4
-1.316, 4.996e-4
-1.317, 5.058e-4
-1.318, 5.089e-4
-1.319, 5.150e-4
-1.320, 5.212e-4
-1.321, 5.274e-4
-1.322, 5.335e-4
-1.323, 5.428e-4
-1.324, 5.489e-4
-1.325, 5.551e-4
-1.326, 5.613e-4
-1.327, 5.705e-4
-1.328, 5.767e-4
-1.329, 5.829e-4
-1.330, 5.890e-4
-1.331, 5.952e-4
-1.332, 6.014e-4
-1.333, 6.106e-4
-1.334, 6.168e-4
-1.335, 6.229e-4
-1.336, 6.291e-4
-1.337, 6.353e-4
-1.338, 6.414e-4
-1.339, 6.507e-4
-1.340, 6.569e-4
-1.341, 6.630e-4
-1.342, 6.723e-4
-1.343, 6.815e-4
-1.344, 6.877e-4
-1.345, 6.969e-4
-1.346, 7.062e-4
-1.347, 7.154e-4
-1.348, 7.247e-4
-1.349, 7.309e-4
-1.350, 7.401e-4
-1.351, 7.494e-4
-1.352, 7.586e-4
-1.353, 7.679e-4
-1.354, 7.740e-4
-1.355, 7.833e-4
-1.356, 7.956e-4
-1.357, 8.048e-4
-1.358, 8.110e-4
-1.359, 8.172e-4
-1.360, 8.295e-4
-1.361, 8.357e-4
-1.362, 8.449e-4
-1.363, 8.573e-4
-1.364, 8.665e-4
-1.365, 8.758e-4
-1.366, 8.881e-4
-1.367, 8.973e-4
-1.368, 9.097e-4
-1.369, 9.189e-4
-1.370, 9.282e-4
-1.371, 9.405e-4
-1.372, 9.528e-4
-1.373, 9.621e-4
-1.374, 9.775e-4
-1.375, 9.868e-4
-1.376, 9.960e-4
-1.377, 1.008e-3
-1.378, 1.018e-3
-1.379, 1.027e-3
-1.380, 1.039e-3
-1.381, 1.048e-3
-1.382, 1.061e-3
-1.383, 1.076e-3
-1.384, 1.085e-3
-1.385, 1.098e-3
-1.386, 1.107e-3
-1.387, 1.119e-3
-1.388, 1.125e-3
-1.389, 1.135e-3
-1.390, 1.147e-3
-1.391, 1.156e-3
-1.392, 1.169e-3
-1.393, 1.184e-3
-1.394, 1.199e-3
-1.395, 1.212e-3
-1.396, 1.227e-3
-1.397, 1.240e-3
-1.398, 1.252e-3
-1.399, 1.267e-3
-1.400, 1.280e-3
-1.401, 1.292e-3
-1.402, 1.304e-3
-1.403, 1.317e-3
-1.404, 1.332e-3
-1.405, 1.344e-3
-1.406, 1.357e-3
-1.407, 1.369e-3
-1.408, 1.378e-3
-1.409, 1.391e-3
-1.410, 1.403e-3
-1.411, 1.415e-3
-1.412, 1.428e-3
-1.413, 1.440e-3
-1.414, 1.455e-3
-1.415, 1.471e-3
-1.416, 1.486e-3
-1.417, 1.502e-3
-1.418, 1.514e-3
-1.419, 1.529e-3
-1.420, 1.542e-3
-1.421, 1.557e-3
-1.422, 1.573e-3
-1.423, 1.588e-3
-1.424, 1.606e-3
-1.425, 1.622e-3
-1.426, 1.637e-3
-1.427, 1.650e-3
-1.428, 1.665e-3
-1.429, 1.677e-3
-1.430, 1.693e-3
-1.431, 1.705e-3
-1.432, 1.717e-3
-1.433, 1.733e-3
-1.434, 1.748e-3
-1.435, 1.767e-3
-1.436, 1.782e-3
-1.437, 1.795e-3
-1.438, 1.807e-3
-1.439, 1.819e-3
-1.440, 1.832e-3
-1.441, 1.847e-3
-1.442, 1.862e-3
-1.443, 1.878e-3
-1.444, 1.896e-3
-1.445, 1.915e-3
-1.446, 1.933e-3
-1.447, 1.952e-3
-1.448, 1.970e-3
-1.449, 1.986e-3
-1.450, 2.001e-3
-1.451, 2.017e-3
-1.452, 2.035e-3
-1.453, 2.050e-3
-1.454, 2.069e-3
-1.455, 2.084e-3
-1.456, 2.097e-3
-1.457, 2.112e-3
-1.458, 2.128e-3
-1.459, 2.140e-3
-1.460, 2.155e-3
-1.461, 2.168e-3
-1.462, 2.186e-3
-1.463, 2.201e-3
-1.464, 2.220e-3
-1.465, 2.238e-3
-1.466, 2.254e-3
-1.467, 2.269e-3
-1.468, 2.288e-3
-1.469, 2.306e-3
-1.470, 2.325e-3
-1.471, 2.343e-3
-1.472, 2.362e-3
-1.473, 2.380e-3
-1.474, 2.402e-3
-1.475, 2.420e-3
-1.476, 2.439e-3
-1.477, 2.457e-3
-1.478, 2.473e-3
-1.479, 2.491e-3
-1.480, 2.504e-3
-1.481, 2.522e-3
-1.482, 2.538e-3
-1.483, 2.556e-3
-1.484, 2.575e-3
-1.485, 2.593e-3
-1.486, 2.608e-3
-1.487, 2.627e-3
-1.488, 2.642e-3
-1.489, 2.658e-3
-1.490, 2.673e-3
-1.491, 2.689e-3
-1.492, 2.707e-3
-1.493, 2.726e-3
-1.494, 2.747e-3
-1.495, 2.772e-3
-1.496, 2.790e-3
-1.497, 2.812e-3
-1.498, 2.830e-3
-1.499, 2.852e-3
-1.500, 2.871e-3
-1.501, 2.889e-3
-1.502, 2.908e-3
-1.503, 2.929e-3
-1.504, 2.951e-3
-1.505, 2.972e-3
-1.506, 2.991e-3
-1.507, 3.009e-3
-1.508, 3.022e-3
-1.509, 3.034e-3
-1.510, 3.049e-3
-1.511, 3.065e-3
-1.512, 3.086e-3
-1.513, 3.108e-3
-1.514, 3.130e-3
-1.515, 3.151e-3
-1.516, 3.173e-3
-1.517, 3.194e-3
-1.518, 3.213e-3
-1.519, 3.234e-3
-1.520, 3.253e-3
-1.521, 3.278e-3
-1.522, 3.302e-3
-1.523, 3.324e-3
-1.524, 3.348e-3
-1.525, 3.367e-3
-1.526, 3.385e-3
-1.527, 3.404e-3
-1.528, 3.419e-3
-1.529, 3.441e-3
-1.530, 3.459e-3
-1.531, 3.481e-3
-1.532, 3.503e-3
-1.533, 3.524e-3
-1.534, 3.543e-3
-1.535, 3.561e-3
-1.536, 3.580e-3
-1.537, 3.598e-3
-1.538, 3.623e-3
-1.539, 3.644e-3
-1.540, 3.672e-3
-1.541, 3.697e-3
-1.542, 3.721e-3
-1.543, 3.743e-3
-1.544, 3.768e-3
-1.545, 3.789e-3
-1.546, 3.811e-3
-1.547, 3.832e-3
-1.548, 3.857e-3
-1.549, 3.879e-3
-1.550, 3.903e-3
-1.551, 3.925e-3
-1.552, 3.943e-3
-1.553, 3.962e-3
-1.554, 3.980e-3
-1.555, 4.002e-3
-1.556, 4.024e-3
-1.557, 4.045e-3
-1.558, 4.067e-3
-1.559, 4.088e-3
-1.560, 4.110e-3
-1.561, 4.135e-3
-1.562, 4.156e-3
-1.563, 4.181e-3
-1.564, 4.202e-3
-1.565, 4.227e-3
-1.566, 4.255e-3
-1.567, 4.283e-3
-1.568, 4.310e-3
-1.569, 4.335e-3
-1.570, 4.360e-3
-1.571, 4.378e-3
-1.572, 4.403e-3
-1.573, 4.428e-3
-1.574, 4.452e-3
-1.575, 4.480e-3
-1.576, 4.505e-3
-1.577, 4.529e-3
-1.578, 4.557e-3
-1.579, 4.579e-3
-1.580, 4.600e-3
-1.581, 4.622e-3
-1.582, 4.643e-3
-1.583, 4.671e-3
-1.584, 4.696e-3
-1.585, 4.723e-3
-1.586, 4.751e-3
-1.587, 4.776e-3
-1.588, 4.801e-3
-1.589, 4.825e-3
-1.590, 4.847e-3
-1.591, 4.868e-3
-1.592, 4.893e-3
-1.593, 4.918e-3
-1.594, 4.945e-3
-1.595, 4.973e-3
-1.596, 5.004e-3
-1.597, 5.035e-3
-1.598, 5.060e-3
-1.599, 5.081e-3
-1.600, 5.066e-3
-1.599, 4.998e-3
-1.598, 4.945e-3
-1.597, 4.899e-3
-1.596, 4.856e-3
-1.595, 4.816e-3
-1.594, 4.779e-3
-1.593, 4.742e-3
-1.592, 4.705e-3
-1.591, 4.665e-3
-1.590, 4.625e-3
-1.589, 4.582e-3
-1.588, 4.545e-3
-1.587, 4.508e-3
-1.586, 4.474e-3
-1.585, 4.443e-3
-1.584, 4.412e-3
-1.583, 4.381e-3
-1.582, 4.354e-3
-1.581, 4.320e-3
-1.580, 4.283e-3
-1.579, 4.239e-3
-1.578, 4.199e-3
-1.577, 4.162e-3
-1.576, 4.125e-3
-1.575, 4.088e-3
-1.574, 4.051e-3
-1.573, 4.011e-3
-1.572, 3.971e-3
-1.571, 3.931e-3
-1.570, 3.897e-3
-1.569, 3.863e-3
-1.568, 3.832e-3
-1.567, 3.805e-3
-1.566, 3.777e-3
-1.565, 3.752e-3
-1.564, 3.725e-3
-1.563, 3.697e-3
-1.562, 3.663e-3
-1.561, 3.626e-3
-1.560, 3.592e-3
-1.559, 3.558e-3
-1.558, 3.527e-3
-1.557, 3.499e-3
-1.556, 3.469e-3
-1.555, 3.438e-3
-1.554, 3.407e-3
-1.553, 3.379e-3
-1.552, 3.348e-3
-1.551, 3.324e-3
-1.550, 3.293e-3
-1.549, 3.265e-3
-1.548, 3.234e-3
-1.547, 3.207e-3
-1.546, 3.176e-3
-1.545, 3.145e-3
-1.544, 3.117e-3
-1.543, 3.089e-3
-1.542, 3.059e-3
-1.541, 3.031e-3
-1.540, 3.000e-3
-1.539, 2.969e-3
-1.538, 2.941e-3
-1.537, 2.917e-3
-1.536, 2.892e-3
-1.535, 2.874e-3
-1.534, 2.852e-3
-1.533, 2.830e-3
-1.532, 2.809e-3
-1.531, 2.784e-3
-1.530, 2.760e-3
-1.529, 2.735e-3
-1.528, 2.707e-3
-1.527, 2.682e-3
-1.526, 2.658e-3
-1.525, 2.633e-3
-1.524, 2.612e-3
-1.523, 2.587e-3
-1.522, 2.562e-3
-1.521, 2.534e-3
-1.520, 2.507e-3
-1.519, 2.476e-3
-1.518, 2.454e-3
-1.517, 2.430e-3
-1.516, 2.408e-3
-1.515, 2.390e-3
-1.514, 2.368e-3
-1.513, 2.349e-3
-1.512, 2.328e-3
-1.511, 2.303e-3
-1.510, 2.282e-3
-1.509, 2.257e-3
-1.508, 2.235e-3
-1.507, 2.214e-3
-1.506, 2.192e-3
-1.505, 2.171e-3
-1.504, 2.149e-3
-1.503, 2.131e-3
-1.502, 2.109e-3
-1.501, 2.087e-3
-1.500, 2.066e-3
-1.499, 2.047e-3
-1.498, 2.026e-3
-1.497, 2.007e-3
-1.496, 1.989e-3
-1.495, 1.970e-3
-1.494, 1.952e-3
-1.493, 1.933e-3
-1.492, 1.912e-3
-1.491, 1.893e-3
-1.490, 1.872e-3
-1.489, 1.850e-3
-1.488, 1.828e-3
-1.487, 1.807e-3
-1.486, 1.788e-3
-1.485, 1.773e-3
-1.484, 1.758e-3
-1.483, 1.742e-3
-1.482, 1.727e-3
-1.481, 1.708e-3
-1.480, 1.687e-3
-1.479, 1.668e-3
-1.478, 1.650e-3
-1.477, 1.634e-3
-1.476, 1.616e-3
-1.475, 1.600e-3
-1.474, 1.585e-3
-1.473, 1.569e-3
-1.472, 1.551e-3
-1.471, 1.532e-3
-1.470, 1.517e-3
-1.469, 1.499e-3
-1.468, 1.483e-3
-1.467, 1.468e-3
-1.466, 1.455e-3
-1.465, 1.440e-3
-1.464, 1.431e-3
-1.463, 1.415e-3
-1.462, 1.400e-3
-1.461, 1.384e-3
-1.460, 1.366e-3
-1.459, 1.351e-3
-1.458, 1.332e-3
-1.457, 1.317e-3
-1.456, 1.304e-3
-1.455, 1.289e-3
-1.454, 1.273e-3
-1.453, 1.258e-3
-1.452, 1.240e-3
-1.451, 1.224e-3
-1.450, 1.212e-3
-1.449, 1.199e-3
-1.448, 1.184e-3
-1.447, 1.172e-3
-1.446, 1.162e-3
-1.445, 1.150e-3
-1.444, 1.138e-3
-1.443, 1.122e-3
-1.442, 1.110e-3
-1.441, 1.095e-3
-1.440, 1.085e-3
-1.439, 1.070e-3
-1.438, 1.061e-3
-1.437, 1.048e-3
-1.436, 1.036e-3
-1.435, 1.021e-3
-1.434, 1.008e-3
-1.433, 9.929e-4
-1.432, 9.806e-4
-1.431, 9.652e-4
-1.430, 9.528e-4
-1.429, 9.405e-4
-1.428, 9.282e-4
-1.427, 9.158e-4
-1.426, 9.035e-4
-1.425, 8.943e-4
-1.424, 8.850e-4
-1.423, 8.727e-4
-1.422, 8.603e-4
-1.421, 8.511e-4
-1.420, 8.418e-4
-1.419, 8.295e-4
-1.418, 8.172e-4
-1.417, 8.079e-4
-1.416, 7.956e-4
-1.415, 7.863e-4
-1.414, 7.771e-4
-1.413, 7.648e-4
-1.412, 7.524e-4
-1.411, 7.432e-4
-1.410, 7.309e-4
-1.409, 7.216e-4
-1.408, 7.093e-4
-1.407, 7.000e-4
-1.406, 6.908e-4
-1.405, 6.815e-4
-1.404, 6.692e-4
-1.403, 6.599e-4
-1.402, 6.476e-4
-1.401, 6.384e-4
-1.400, 6.291e-4
-1.399, 6.199e-4
-1.398, 6.106e-4
-1.397, 6.044e-4
-1.396, 5.921e-4
-1.395, 5.829e-4
-1.394, 5.736e-4
-1.393, 5.644e-4
-1.392, 5.551e-4
-1.391, 5.459e-4
-1.390, 5.366e-4
-1.389, 5.274e-4
-1.388, 5.181e-4
-1.387, 5.120e-4
-1.386, 4.996e-4
-1.385, 4.904e-4
-1.384, 4.811e-4
-1.383, 4.719e-4
-1.382, 4.657e-4
-1.381, 4.565e-4
-1.380, 4.472e-4
-1.379, 4.410e-4
-1.378, 4.318e-4
-1.377, 4.256e-4
-1.376, 4.164e-4
-1.375, 4.071e-4
-1.374, 4.010e-4
-1.373, 3.948e-4
-1.372, 3.855e-4
-1.371, 3.763e-4
-1.370, 3.701e-4
-1.369, 3.609e-4
-1.368, 3.547e-4
-1.367, 3.455e-4
-1.366, 3.393e-4
-1.365, 3.300e-4
-1.364, 3.239e-4
-1.363, 3.146e-4
-1.362, 3.085e-4
-1.361, 3.023e-4
-1.360, 2.961e-4
-1.359, 2.869e-4
-1.358, 2.807e-4
-1.357, 2.715e-4
-1.356, 2.653e-4
-1.355, 2.591e-4
-1.354, 2.530e-4
-1.353, 2.437e-4
-1.352, 2.376e-4
-1.351, 2.314e-4
-1.350, 2.252e-4
-1.349, 2.191e-4
-1.348, 2.129e-4
-1.347, 2.036e-4
-1.346, 1.975e-4
-1.345, 1.913e-4
-1.344, 1.882e-4
-1.343, 1.790e-4
-1.342, 1.759e-4
-1.341, 1.666e-4
-1.340, 1.636e-4
-1.339, 1.574e-4
-1.338, 1.481e-4
-1.337, 1.420e-4
-1.336, 1.389e-4
-1.335, 1.296e-4
-1.334, 1.235e-4
-1.333, 1.173e-4
-1.332, 1.142e-4
-1.331, 1.081e-4
-1.330, 1.019e-4
-1.329, 9.573e-5
-1.328, 8.957e-5
-1.327, 8.648e-5
-1.326, 8.032e-5
-1.325, 7.415e-5
-1.324, 6.798e-5
-1.323, 6.490e-5
-1.322, 5.873e-5
-1.321, 5.565e-5
-1.320, 4.949e-5
-1.319, 4.332e-5
-1.318, 3.715e-5
-1.317, 3.407e-5
-1.316, 2.482e-5
-1.315, 2.482e-5
-1.314, 1.865e-5
-1.313, 1.557e-5
-1.312, 9.405e-6
-1.311, 3.239e-6
-1.310, 1.559e-7
-1.309, -6.010e-6
-1.308, -9.093e-6
-1.307, -1.526e-5
-1.306, -2.143e-5
-1.305, -2.451e-5
-1.304, -2.759e-5
-1.303, -3.376e-5
-1.302, -3.684e-5
-1.301, -3.992e-5
-1.300, -4.301e-5
-1.299, -4.917e-5
-1.298, -5.226e-5
-1.297, -5.534e-5
-1.296, -5.842e-5
-1.295, -6.459e-5
-1.294, -6.767e-5
-1.293, -7.384e-5
-1.292, -7.692e-5
-1.291, -8.000e-5
-1.290, -8.309e-5
-1.289, -8.925e-5
-1.288, -9.234e-5
-1.287, -9.234e-5
-1.286, -9.850e-5
-1.285, -1.016e-4
-1.284, -1.047e-4
-1.283, -1.078e-4
-1.282, -1.108e-4
-1.281, -1.139e-4
-1.280, -1.201e-4
-1.279, -1.232e-4
-1.278, -1.263e-4
-1.277, -1.293e-4
-1.276, -1.324e-4
-1.275, -1.355e-4
-1.274, -1.355e-4
-1.273, -1.386e-4
-1.272, -1.417e-4
-1.271, -1.478e-4
-1.270, -1.478e-4
-1.269, -1.509e-4
-1.268, -1.540e-4
-1.267, -1.571e-4
-1.266, -1.571e-4
-1.265, -1.632e-4
-1.264, -1.632e-4
-1.263, -1.663e-4
-1.262, -1.694e-4
-1.261, -1.725e-4
-1.260, -1.725e-4
-1.259, -1.756e-4
-1.258, -1.787e-4
-1.257, -1.787e-4
-1.256, -1.817e-4
-1.255, -1.848e-4
-1.254, -1.879e-4
-1.253, -1.910e-4
-1.252, -1.941e-4
-1.251, -1.941e-4
-1.250, -1.972e-4
-1.249, -1.972e-4
-1.248, -2.002e-4
-1.247, -2.002e-4
-1.246, -2.033e-4
-1.245, -2.064e-4
-1.244, -2.064e-4
-1.243, -2.095e-4
-1.242, -2.126e-4
-1.241, -2.126e-4
-1.240, -2.157e-4
-1.239, -2.157e-4
-1.238, -2.157e-4
-1.237, -2.187e-4
-1.236, -2.218e-4
-1.235, -2.218e-4
-1.234, -2.218e-4
-1.233, -2.249e-4
-1.232, -2.249e-4
-1.231, -2.280e-4
-1.230, -2.280e-4
-1.229, -2.311e-4
-1.228, -2.342e-4
-1.227, -2.342e-4
-1.226, -2.342e-4
-1.225, -2.372e-4
-1.224, -2.372e-4
-1.223, -2.403e-4
-1.222, -2.403e-4
-1.221, -2.403e-4
-1.220, -2.434e-4
-1.219, -2.434e-4
-1.218, -2.465e-4
-1.217, -2.465e-4
-1.216, -2.465e-4
-1.215, -2.465e-4
-1.214, -2.496e-4
-1.213, -2.465e-4
-1.212, -2.465e-4
-1.211, -2.465e-4
-1.210, -2.465e-4
-1.209, -2.496e-4
-1.208, -2.496e-4
-1.207, -2.496e-4
-1.206, -2.496e-4
-1.205, -2.527e-4
-1.204, -2.527e-4
-1.203, -2.527e-4
-1.202, -2.557e-4
-1.201, -2.588e-4
-1.200, -2.588e-4
-1.199, -2.588e-4
-1.198, -2.588e-4
-1.197, -2.619e-4
-1.196, -2.619e-4
-1.195, -2.619e-4
-1.194, -2.619e-4
-1.193, -2.619e-4
-1.192, -2.619e-4
-1.191, -2.588e-4
-1.190, -2.588e-4
-1.189, -2.588e-4
-1.188, -2.588e-4
-1.187, -2.588e-4
-1.186, -2.588e-4
-1.185, -2.619e-4
-1.184, -2.588e-4
-1.183, -2.619e-4
-1.182, -2.619e-4
-1.181, -2.619e-4
-1.180, -2.619e-4
-1.179, -2.650e-4
-1.178, -2.650e-4
-1.177, -2.650e-4
-1.176, -2.650e-4
-1.175, -2.681e-4
-1.174, -2.681e-4
-1.173, -2.681e-4
-1.172, -2.681e-4
-1.171, -2.681e-4
-1.170, -2.681e-4
-1.169, -2.681e-4
-1.168, -2.681e-4
-1.167, -2.650e-4
-1.166, -2.650e-4
-1.165, -2.650e-4
-1.164, -2.650e-4
-1.163, -2.619e-4
-1.162, -2.650e-4
-1.161, -2.650e-4
-1.160, -2.650e-4
-1.159, -2.650e-4
-1.158, -2.650e-4
-1.157, -2.650e-4
-1.156, -2.681e-4
-1.155, -2.650e-4
-1.154, -2.681e-4
-1.153, -2.681e-4
-1.152, -2.681e-4
-1.151, -2.681e-4
-1.150, -2.681e-4
-1.149, -2.681e-4
-1.148, -2.681e-4
-1.147, -2.650e-4
-1.146, -2.681e-4
-1.145, -2.650e-4
-1.144, -2.650e-4
-1.143, -2.650e-4
-1.142, -2.650e-4
-1.141, -2.650e-4
-1.140, -2.650e-4
-1.139, -2.650e-4
-1.138, -2.650e-4
-1.137, -2.650e-4
-1.136, -2.650e-4
-1.135, -2.650e-4
-1.134, -2.650e-4
-1.133, -2.650e-4
-1.132, -2.650e-4
-1.131, -2.681e-4
-1.130, -2.650e-4
-1.129, -2.650e-4
-1.128, -2.650e-4
-1.127, -2.681e-4
-1.126, -2.681e-4
-1.125, -2.681e-4
-1.124, -2.650e-4
-1.123, -2.650e-4
-1.122, -2.650e-4
-1.121, -2.681e-4
-1.120, -2.681e-4
-1.119, -2.681e-4
-1.118, -2.681e-4
-1.117, -2.681e-4
-1.116, -2.650e-4
-1.115, -2.650e-4
-1.114, -2.650e-4
-1.113, -2.650e-4
-1.112, -2.650e-4
-1.111, -2.650e-4
-1.110, -2.650e-4
-1.109, -2.650e-4
-1.108, -2.650e-4
-1.107, -2.650e-4
-1.106, -2.650e-4
-1.105, -2.650e-4
-1.104, -2.650e-4
-1.103, -2.650e-4
-1.102, -2.650e-4
-1.101, -2.650e-4
-1.100, -2.650e-4
-1.099, -2.650e-4
-1.098, -2.650e-4
-1.097, -2.650e-4
-1.096, -2.650e-4
-1.095, -2.650e-4
-1.094, -2.650e-4
-1.093, -2.650e-4
-1.092, -2.650e-4
-1.091, -2.650e-4
-1.090, -2.650e-4
-1.089, -2.650e-4
-1.088, -2.650e-4
-1.087, -2.650e-4
-1.086, -2.681e-4
-1.085, -2.650e-4
-1.084, -2.650e-4
-1.083, -2.650e-4
-1.082, -2.681e-4
-1.081, -2.650e-4
-1.080, -2.650e-4
-1.079, -2.650e-4
-1.078, -2.650e-4
-1.077, -2.650e-4
-1.076, -2.650e-4
-1.075, -2.650e-4
-1.074, -2.650e-4
-1.073, -2.650e-4
-1.072, -2.650e-4
-1.071, -2.650e-4
-1.070, -2.650e-4
-1.069, -2.681e-4
-1.068, -2.681e-4
-1.067, -2.650e-4
-1.066, -2.681e-4
-1.065, -2.681e-4
-1.064, -2.681e-4
-1.063, -2.681e-4
-1.062, -2.681e-4
-1.061, -2.681e-4
-1.060, -2.681e-4
-1.059, -2.681e-4
-1.058, -2.681e-4
-1.057, -2.681e-4
-1.056, -2.681e-4
-1.055, -2.681e-4
-1.054, -2.681e-4
-1.053, -2.681e-4
-1.052, -2.712e-4
-1.051, -2.712e-4
-1.050, -2.712e-4
-1.049, -2.712e-4
-1.048, -2.712e-4
-1.047, -2.712e-4
-1.046, -2.712e-4
-1.045, -2.712e-4
-1.044, -2.712e-4
-1.043, -2.712e-4
-1.042, -2.712e-4
-1.041, -2.712e-4
-1.040, -2.742e-4
-1.039, -2.742e-4
-1.038, -2.742e-4
-1.037, -2.742e-4
-1.036, -2.742e-4
-1.035, -2.742e-4
-1.034, -2.742e-4
-1.033, -2.742e-4
-1.032, -2.773e-4
-1.031, -2.773e-4
-1.030, -2.773e-4
-1.029, -2.773e-4
-1.028, -2.773e-4
-1.027, -2.773e-4
-1.026, -2.773e-4
-1.025, -2.804e-4
-1.024, -2.804e-4
-1.023, -2.804e-4
-1.022, -2.804e-4
-1.021, -2.804e-4
-1.020, -2.835e-4
-1.019, -2.835e-4
-1.018, -2.835e-4
-1.017, -2.835e-4
-1.016, -2.835e-4
-1.015, -2.835e-4
-1.014, -2.866e-4
-1.013, -2.866e-4
-1.012, -2.897e-4
-1.011, -2.897e-4
-1.010, -2.897e-4
-1.009, -2.897e-4
-1.008, -2.927e-4
-1.007, -2.897e-4
-1.006, -2.927e-4
-1.005, -2.927e-4
-1.004, -2.927e-4
-1.003, -2.927e-4
-1.002, -2.958e-4
-1.001, -2.958e-4
