Potential V vs RHE, Current mA cm-2
0.05339999999999995,-0.03522631136663941
0.05239999999999995,-0.03632978618053414
0.051399999999999946,-0.036839082248485554
0.050399999999999945,-0.037235201412447766
0.049399999999999944,-0.03763132057640997
0.04839999999999994,-0.03801329262737353
0.04739999999999994,-0.0383669704523398
0.04639999999999994,-0.038706501164307405
0.04539999999999994,-0.039074326102272315
0.04439999999999994,-0.039456298153235876
0.04339999999999994,-0.03980997597820213
0.04239999999999994,-0.04016365380316839
0.04139999999999994,-0.04051733162813465
0.040399999999999936,-0.040885156566099555
0.039399999999999935,-0.04128127573006177
0.038399999999999934,-0.041649100668026684
0.03739999999999993,-0.041988631379994285
0.03639999999999993,-0.04234230920496055
0.03539999999999993,-0.04271013414292545
0.03439999999999993,-0.04307795908089037
0.03339999999999993,-0.043459931131853924
0.03239999999999993,-0.043827756069818834
0.03139999999999993,-0.04418143389478509
0.030399999999999927,-0.04456340594574865
0.029399999999999926,-0.04493123088371357
0.028399999999999925,-0.045327350047675775
0.027399999999999924,-0.045681027872642034
0.026399999999999924,-0.04603470569760829
0.025399999999999923,-0.046430824861570505
0.024399999999999922,-0.046784502686536764
0.02339999999999992,-0.04718062185049897
0.02239999999999992,-0.04756259390146254
0.02139999999999992,-0.04794456595242609
0.020399999999999918,-0.04835483222938696
0.019399999999999917,-0.04872265716735186
0.018399999999999916,-0.049118776331314076
0.017399999999999916,-0.04950074838227764
0.016399999999999915,-0.04986857332024254
0.015399999999999914,-0.0502505453712061
0.014399999999999913,-0.050660811648166965
0.013399999999999912,-0.05105693081212918
0.012399999999999911,-0.05146719708909004
0.01139999999999991,-0.0518491691400536
0.01039999999999991,-0.052245288304015806
0.009399999999999908,-0.05264140746797802
0.008399999999999908,-0.05305167374493888
0.007399999999999907,-0.05344779290890109
0.006399999999999906,-0.05382976495986465
0.005399999999999905,-0.054254178349824156
0.004399999999999904,-0.05466444462678501
0.003399999999999903,-0.05506056379074723
0.002399999999999902,-0.05549912429370539
0.0013999999999999013,-0.05586694923167029
0.00039999999999990044,-0.056291362621629815
-0.0006000000000001005,-0.05668748178559202
-0.0016000000000001013,-0.05709774806255288
-0.0026000000000001022,-0.05750801433951374
-0.003600000000000103,-0.0579182806164746
-0.004600000000000104,-0.05831439978043681
-0.005600000000000105,-0.05873881317039633
-0.006600000000000106,-0.05913493233435853
-0.007600000000000107,-0.05953105149832075
-0.008600000000000108,-0.0599130235492843
-0.009600000000000108,-0.060337436939243816
-0.01060000000000011,-0.06073355610320603
-0.01160000000000011,-0.06117211660616418
-0.012600000000000111,-0.0615965299961237
-0.013600000000000112,-0.0619926491600859
-0.014600000000000113,-0.06241706255004542
-0.015600000000000114,-0.06284147594000493
-0.016600000000000115,-0.06326588932996444
-0.017600000000000116,-0.06369030271992396
-0.018600000000000116,-0.06411471610988345
-0.019600000000000117,-0.06455327661284163
-0.020600000000000118,-0.06497769000280114
-0.02160000000000012,-0.06540210339276065
-0.02260000000000012,-0.06579822255672285
-0.02360000000000012,-0.06619434172068506
-0.024600000000000122,-0.06664704933664188
-0.025600000000000123,-0.06705731561360274
-0.026600000000000124,-0.0674958761165609
-0.027600000000000124,-0.06790614239352176
-0.028600000000000125,-0.06833055578348128
-0.029600000000000126,-0.06875496917344079
-0.030600000000000127,-0.06916523545040164
-0.03160000000000013,-0.0695755017273625
-0.03260000000000013,-0.06998576800432338
-0.03360000000000013,-0.07038188716828557
-0.03460000000000002,-0.07082044767124374
-0.03560000000000002,-0.07124486106120324
-0.03660000000000002,-0.07166927445116276
-0.03760000000000002,-0.07207954072812363
-0.03860000000000002,-0.07246151277908719
-0.039600000000000024,-0.0728859261690467
-0.040600000000000025,-0.07329619244600755
-0.041600000000000026,-0.07372060583596705
-0.04260000000000003,-0.07411672499992927
-0.04360000000000003,-0.07452699127689014
-0.04460000000000003,-0.07492311044085233
-0.04560000000000003,-0.07534752383081185
-0.04660000000000003,-0.07574364299477407
-0.04760000000000003,-0.07612561504573763
-0.04860000000000003,-0.07650758709670118
-0.04960000000000003,-0.0769037062606634
-0.050600000000000034,-0.07731397253762426
-0.051600000000000035,-0.07772423881458512
-0.052600000000000036,-0.07809206375255001
-0.053600000000000037,-0.07848818291651223
-0.05460000000000004,-0.07888430208047445
-0.05560000000000004,-0.07926627413143801
-0.05660000000000004,-0.07964824618240157
-0.05760000000000004,-0.08003021823336513
-0.05860000000000004,-0.08036974894533275
-0.05960000000000004,-0.08075172099629631
-0.06060000000000004,-0.0811195459342612
-0.061600000000000044,-0.08150151798522477
-0.06260000000000004,-0.08186934292318966
-0.06360000000000005,-0.08223716786115459
-0.06460000000000005,-0.08259084568612084
-0.06560000000000005,-0.0829445235110871
-0.06660000000000005,-0.08329820133605337
-0.06760000000000005,-0.08359529070902501
-0.06860000000000005,-0.08389238008199668
-0.06960000000000005,-0.08423191079396428
-0.07060000000000005,-0.0845714415059319
-0.07160000000000005,-0.08489682510490085
-0.07260000000000005,-0.08522220870386982
-0.07360000000000005,-0.08556173941583743
-0.07460000000000006,-0.08588712301480637
-0.07560000000000006,-0.08621250661377533
-0.07660000000000006,-0.08652374309974564
-0.07760000000000006,-0.08683497958571595
-0.07860000000000006,-0.0871037747326903
-0.07960000000000006,-0.0874150112186606
-0.08060000000000006,-0.08768380636563497
-0.08160000000000006,-0.08796674862560798
-0.08260000000000006,-0.08822139665958369
-0.08360000000000006,-0.08849019180655805
-0.08460000000000006,-0.08877313406653106
-0.08560000000000006,-0.08905607632650406
-0.08660000000000007,-0.08932487147347841
-0.08760000000000007,-0.08956537239445547
-0.08860000000000007,-0.08983416754142984
-0.08960000000000007,-0.09010296268840419
-0.09060000000000007,-0.0903576107223799
-0.09160000000000007,-0.09059811164335696
-0.09260000000000007,-0.09082446545133536
-0.09360000000000007,-0.09103667214631511
-0.09460000000000007,-0.0912630259542935
-0.09560000000000007,-0.09150352687527057
-0.09660000000000007,-0.09172988068324898
-0.09760000000000008,-0.09192794026523009
-0.09860000000000008,-0.09212599984721119
-0.09960000000000008,-0.09232405942919229
-0.10060000000000008,-0.09250797189817477
-0.10160000000000008,-0.09273432570615316
-0.10260000000000008,-0.09290409106213696
-0.10360000000000008,-0.0930880035311194
-0.10460000000000008,-0.09325776888710322
-0.10560000000000008,-0.09342753424308703
-0.10660000000000008,-0.09361144671206949
-0.10760000000000008,-0.09376706495505463
-0.10860000000000009,-0.0939226831980398
-0.10960000000000009,-0.0940641543280263
-0.11060000000000009,-0.0942056254580128
-0.11160000000000009,-0.0943470965879993
-0.11260000000000009,-0.09447442060498715
-0.11360000000000009,-0.09458759750897636
-0.11460000000000009,-0.09475736286496016
-0.11560000000000009,-0.09488468688194801
-0.11660000000000009,-0.09498371667293856
-0.1176000000000001,-0.09508274646392911
-0.1186000000000001,-0.09516762914192102
-0.1196000000000001,-0.09526665893291157
-0.1206000000000001,-0.09537983583690077
-0.1216000000000001,-0.09546471851489266
-0.1226000000000001,-0.09552130696688728
-0.1236000000000001,-0.09562033675787783
-0.1246000000000001,-0.09567692520987243
-0.1256000000000001,-0.09577595500086299
-0.1266000000000001,-0.09581839633985893
-0.1276000000000001,-0.09587498479185352
-0.1286000000000001,-0.09591742613084948
-0.1296000000000001,-0.09597401458284409
-0.1306000000000001,-0.09601645592184005
-0.1316000000000001,-0.09607304437383464
-0.1326000000000001,-0.09607304437383464
-0.1336000000000001,-0.09610133859983194
-0.1346000000000001,-0.09614377993882789
-0.1356000000000001,-0.09617207416482519
-0.1366000000000001,-0.09618622127782384
-0.1376000000000001,-0.0962003683908225
-0.1386000000000001,-0.0962003683908225
-0.1396000000000001,-0.09621451550382115
-0.1406000000000001,-0.09621451550382115
-0.14160000000000011,-0.09621451550382115
-0.14260000000000012,-0.0962003683908225
-0.14360000000000012,-0.09617207416482519
-0.14460000000000012,-0.09618622127782384
-0.14560000000000012,-0.09614377993882789
-0.14660000000000012,-0.09614377993882789
-0.14760000000000012,-0.09611548571283059
-0.14860000000000012,-0.09607304437383464
-0.14960000000000012,-0.096058897260836
-0.15060000000000012,-0.09600230880884139
-0.15160000000000012,-0.09597401458284409
-0.15260000000000012,-0.09593157324384814
-0.15360000000000013,-0.09587498479185352
-0.15460000000000013,-0.09580424922686027
-0.15560000000000013,-0.09577595500086299
-0.15660000000000013,-0.09573351366186703
-0.15760000000000013,-0.09564863098387513
-0.15860000000000013,-0.09559204253188053
-0.15960000000000002,-0.09553545407988592
-0.16060000000000002,-0.09547886562789133
-0.16160000000000002,-0.09542227717589671
-0.16260000000000002,-0.09532324738490616
-0.16360000000000002,-0.09525251181991291
-0.16460000000000002,-0.09516762914192102
-0.16560000000000002,-0.09515348202892236
-0.16660000000000003,-0.09509689357692777
-0.16760000000000003,-0.09498371667293856
-0.16860000000000003,-0.09489883399494665
-0.16960000000000003,-0.09479980420395612
-0.17060000000000003,-0.09471492152596421
-0.17160000000000003,-0.09464418596097096
-0.17260000000000003,-0.09453100905698175
-0.17360000000000003,-0.09444612637898986
-0.17460000000000003,-0.0943470965879993
-0.17560000000000003,-0.09424806679700874
-0.17660000000000003,-0.09414903700601819
-0.17760000000000004,-0.09405000721502763
-0.17860000000000004,-0.09396512453703573
-0.17960000000000004,-0.09386609474604518
-0.18060000000000004,-0.09373877072905733
-0.18160000000000004,-0.09365388805106543
-0.18260000000000004,-0.09354071114707624
-0.18360000000000004,-0.09341338713008837
-0.18460000000000004,-0.09332850445209646
-0.18560000000000004,-0.09321532754810727
-0.18660000000000004,-0.09310215064411806
-0.18760000000000004,-0.09298897374012885
-0.18860000000000005,-0.09286164972314101
-0.18960000000000005,-0.0927767670451491
-0.19060000000000005,-0.09264944302816126
-0.19160000000000005,-0.09253626612417204
-0.19260000000000005,-0.09242308922018284
-0.19360000000000005,-0.09229576520319499
-0.19460000000000005,-0.09218258829920578
-0.19560000000000005,-0.09206941139521659
-0.19660000000000005,-0.09195623449122738
-0.19760000000000005,-0.09184305758723818
-0.19860000000000005,-0.09172988068324898
-0.19960000000000006,-0.09160255666626112
-0.20060000000000006,-0.09150352687527057
-0.20160000000000006,-0.09139034997128137
-0.20260000000000006,-0.0912630259542935
-0.20360000000000006,-0.09114984905030431
-0.20460000000000006,-0.09103667214631511
-0.20560000000000006,-0.09093764235532456
-0.20660000000000006,-0.0908103183383367
-0.20760000000000006,-0.09068299432134884
-0.20860000000000006,-0.09056981741735964
-0.20960000000000006,-0.09045664051337043
-0.21060000000000006,-0.0903293164963826
-0.21160000000000007,-0.09023028670539203
-0.21260000000000007,-0.09010296268840419
-0.21360000000000007,-0.08997563867141634
-0.21460000000000007,-0.08986246176742714
-0.21560000000000007,-0.08974928486343793
-0.21660000000000007,-0.08966440218544602
-0.21760000000000007,-0.08953707816845817
-0.21860000000000007,-0.08940975415147032
-0.21960000000000007,-0.08929657724748112
-0.22060000000000007,-0.08919754745649056
-0.22160000000000007,-0.08907022343950272
-0.22260000000000008,-0.0889570465355135
-0.22360000000000008,-0.088815575405527
-0.22460000000000008,-0.08871654561453644
-0.22560000000000008,-0.08861751582354589
-0.22660000000000008,-0.08851848603255535
-0.22760000000000008,-0.08840530912856613
-0.22860000000000008,-0.08826383799857963
-0.22960000000000008,-0.08817895532058774
-0.23060000000000008,-0.08809407264259583
-0.23160000000000008,-0.08798089573860662
-0.23260000000000008,-0.08786771883461743
-0.23360000000000009,-0.08775454193062822
-0.2346000000000001,-0.08768380636563497
-0.2356000000000001,-0.08757062946164577
-0.2366000000000001,-0.08747159967065522
-0.2376000000000001,-0.08737256987966466
-0.2386000000000001,-0.0872735400886741
-0.2396000000000001,-0.08716036318468491
-0.2406000000000001,-0.08706133339369435
-0.2416000000000001,-0.08697645071570247
-0.2426000000000001,-0.08689156803771056
-0.2436000000000001,-0.08677839113372135
-0.2446000000000001,-0.0866793613427308
-0.2456000000000001,-0.08658033155174025
-0.2466000000000001,-0.0864813017607497
-0.2476000000000001,-0.08635397774376184
-0.2486000000000001,-0.08626909506576994
-0.2496000000000001,-0.08618421238777803
-0.2506000000000001,-0.08608518259678749
-0.2516000000000001,-0.08600029991879557
-0.2526000000000001,-0.08588712301480637
-0.2536000000000001,-0.08578809322381582
-0.2546000000000001,-0.08568906343282526
-0.2556000000000001,-0.08560418075483338
-0.2566000000000001,-0.08553344518984012
-0.2576000000000001,-0.08543441539884956
-0.2586000000000001,-0.08532123849486037
-0.2596000000000001,-0.08526465004286575
-0.2606000000000001,-0.08515147313887655
-0.2616000000000001,-0.08506659046088466
-0.2626000000000001,-0.08498170778289275
-0.2636000000000001,-0.08486853087890354
-0.2646000000000001,-0.08481194242690895
-0.2656000000000001,-0.0847129126359184
-0.2666000000000001,-0.08462802995792648
-0.2676000000000001,-0.08452900016693596
-0.2686000000000001,-0.08444411748894404
-0.2696000000000001,-0.08437338192395079
-0.2706000000000001,-0.0842884992459589
-0.2716000000000001,-0.08421776368096563
-0.2726000000000001,-0.08413288100297373
-0.2736000000000001,-0.08403385121198319
-0.2746000000000001,-0.08397726275998857
-0.2756000000000001,-0.08390652719499532
-0.2766000000000001,-0.08383579163000207
-0.2776000000000001,-0.08376505606500882
-0.2786000000000001,-0.08368017338701693
-0.2796000000000001,-0.08362358493502231
-0.2806000000000001,-0.08355284937002906
-0.28160000000000013,-0.08349626091803447
-0.28260000000000013,-0.08341137824004256
-0.28360000000000013,-0.08334064267504931
-0.2846,-0.0832840542230547
-0.2856,-0.08321331865806145
-0.2866,-0.0831425830930682
-0.2876,-0.0830577004150763
-0.2886,-0.08298696485008306
-0.2896,-0.08293037639808845
-0.2906,-0.08287378794609385
-0.2916,-0.08281719949409926
-0.2926,-0.08273231681610735
-0.2936,-0.0826615812511141
-0.29460000000000003,-0.08261913991211814
-0.29560000000000003,-0.08253425723412625
-0.29660000000000003,-0.08249181589513029
-0.29760000000000003,-0.08240693321713838
-0.29860000000000003,-0.08233619765214513
-0.29960000000000003,-0.08229375631314918
-0.30060000000000003,-0.08220887363515728
-0.30160000000000003,-0.08215228518316267
-0.30260000000000004,-0.08206740250517078
-0.30360000000000004,-0.08202496116617483
-0.30460000000000004,-0.08198251982717887
-0.30560000000000004,-0.08191178426218561
-0.30660000000000004,-0.08186934292318966
-0.30760000000000004,-0.08178446024519778
-0.30860000000000004,-0.08171372468020452
-0.30960000000000004,-0.08167128334120857
-0.31060000000000004,-0.08161469488921397
-0.31160000000000004,-0.08155810643721936
-0.31260000000000004,-0.08150151798522477
-0.31360000000000005,-0.08143078242023151
-0.31460000000000005,-0.0813741939682369
-0.31560000000000005,-0.08133175262924096
-0.31660000000000005,-0.08127516417724635
-0.31760000000000005,-0.08121857572525175
-0.31860000000000005,-0.0811478401602585
-0.31960000000000005,-0.08113369304725986
-0.32060000000000005,-0.08107710459526525
-0.32160000000000005,-0.081006369030272
-0.32260000000000005,-0.08096392769127606
-0.32360000000000005,-0.08090733923928145
-0.32460000000000006,-0.0808648979002855
-0.32560000000000006,-0.08080830944829089
-0.32660000000000006,-0.08076586810929494
-0.32760000000000006,-0.08070927965730033
-0.32860000000000006,-0.08066683831830439
-0.32960000000000006,-0.0806102498663098
-0.33060000000000006,-0.08055366141431519
-0.33160000000000006,-0.08053951430131655
-0.33260000000000006,-0.08046877873632328
-0.33360000000000006,-0.0804121902843287
-0.33460000000000006,-0.08038389605833138
-0.33560000000000006,-0.08032730760633679
-0.33660000000000007,-0.08031316049333813
-0.33760000000000007,-0.08024242492834488
-0.33860000000000007,-0.08019998358934893
-0.33960000000000007,-0.08017168936335163
-0.34060000000000007,-0.08011510091135703
-0.34160000000000007,-0.08008680668535972
-0.34260000000000007,-0.08004436534636378
-0.34360000000000007,-0.08000192400736782
-0.3446000000000001,-0.07997362978137053
-0.3456000000000001,-0.07991704132937592
-0.3466000000000001,-0.07988874710337862
-0.34759999999999996,-0.07984630576438266
-0.3486000000000001,-0.07978971731238807
-0.34959999999999997,-0.07977557019938941
-0.3506000000000001,-0.07973312886039347
-0.35159999999999997,-0.07970483463439616
-0.3526000000000001,-0.07966239329540022
-0.35359999999999997,-0.07960580484340561
-0.3546000000000001,-0.07957751061740831
-0.35559999999999997,-0.07956336350440966
-0.3566000000000001,-0.07952092216541372
-0.3576,-0.07947848082641776
-0.3586000000000001,-0.07945018660042047
-0.3596,-0.07942189237442315
-0.3606000000000001,-0.07939359814842585
-0.3616,-0.0793511568094299
-0.3626000000000001,-0.07930871547043396
-0.3636,-0.07928042124443666
-0.3646000000000001,-0.07926627413143801
-0.3656,-0.07922383279244205
-0.3666000000000001,-0.0791813914534461
-0.3676,-0.0791530972274488
-0.3686000000000001,-0.07911065588845285
-0.3696,-0.07908236166245554
-0.3706000000000001,-0.07908236166245554
-0.3716,-0.07906821454945691
-0.3726000000000001,-0.07901162609746229
-0.3736,-0.078983331871465
-0.3746000000000001,-0.0789550376454677
-0.3756,-0.07891259630647175
-0.3766000000000001,-0.07891259630647175
-0.3776,-0.07887015496747579
-0.3786000000000001,-0.07884186074147849
-0.3796,-0.07882771362847985
-0.3806000000000001,-0.07879941940248254
-0.3816,-0.07877112517648524
-0.3826000000000001,-0.0787286838374893
-0.3836,-0.07870038961149198
-0.3846000000000001,-0.07868624249849335
-0.3856,-0.07867209538549469
-0.3866000000000001,-0.07865794827249603
-0.3876,-0.0786155069335001
-0.3886000000000001,-0.07857306559450414
-0.3896,-0.07858721270750278
-0.3906000000000001,-0.07857306559450414
-0.3916,-0.07857306559450414
-0.3926000000000001,-0.07851647714250953
-0.3936,-0.07847403580351359
-0.3946000000000001,-0.07845988869051494
-0.3956,-0.07844574157751628
-0.3966000000000001,-0.07843159446451763
-0.3976,-0.07840330023852032
-0.3986000000000001,-0.07837500601252304
-0.3996,-0.07836085889952438
-0.4006000000000001,-0.07833256467352707
-0.4016,-0.07831841756052843
-0.4026000000000001,-0.07830427044752979
-0.4036,-0.07827597622153248
-0.4046000000000001,-0.07826182910853383
-0.4056,-0.07824768199553518
-0.40660000000000013,-0.07823353488253654
-0.4076,-0.07820524065653922
-0.40860000000000013,-0.07819109354354058
-0.4096,-0.07819109354354058
-0.41060000000000013,-0.07816279931754326
-0.4116,-0.07816279931754326
-0.41260000000000013,-0.07813450509154597
-0.4136,-0.07810621086554868
-0.41460000000000014,-0.07810621086554868
-0.4156,-0.07810621086554868
-0.41660000000000014,-0.07809206375255001
-0.4176,-0.07807791663955138
-0.41860000000000014,-0.07803547530055543
-0.41960000000000003,-0.07804962241355407
-0.42060000000000014,-0.07803547530055543
-0.42160000000000003,-0.07804962241355407
-0.42260000000000014,-0.07803547530055543
-0.42360000000000003,-0.07799303396155947
-0.42460000000000014,-0.07799303396155947
-0.42560000000000003,-0.07797888684856082
-0.42660000000000015,-0.07797888684856082
-0.42760000000000004,-0.07796473973556219
-0.42860000000000015,-0.07795059262256351
-0.42960000000000004,-0.07795059262256351
-0.43060000000000015,-0.07795059262256351
-0.43160000000000004,-0.07792229839656621
-0.43260000000000015,-0.07792229839656621
-0.43360000000000004,-0.07790815128356757
-0.43460000000000015,-0.07790815128356757
-0.43560000000000004,-0.07792229839656621
-0.43660000000000015,-0.07790815128356757
