Mar. 10, 2025   04:46:44
Amperometric i-t Curve
File: c:/users/guazh/data/banditlqround7_x0exp891_r5/2025-03-03-exp863\exp863deposition-2025-03-10t04_43_22-deposition\exp863deposition_it_edep_-100mv.bin
Data Source:  Experiment
Instrument Model:  CHI760E
Header: 
Note: 

Init E (V) = -1
Sample Interval (s) = 0.1
Run Time (sec) = 30
Quiet Time (sec) = 2
Sensitivity (A/V) = 0.001
Comp R (ohm) = 11.2

Results:

Channel 1:

Time/sec, Current/A

1.000e-1, 1.170e-3
2.000e-1, 1.180e-3
3.000e-1, 1.190e-3
4.000e-1, 1.198e-3
5.000e-1, 1.206e-3
6.000e-1, 1.212e-3
7.000e-1, 1.218e-3
8.000e-1, 1.226e-3
9.000e-1, 1.234e-3
1.000e+0, 1.240e-3
1.100e+0, 1.244e-3
1.200e+0, 1.248e-3
1.300e+0, 1.253e-3
1.400e+0, 1.257e-3
1.500e+0, 1.258e-3
1.600e+0, 1.262e-3
1.700e+0, 1.265e-3
1.800e+0, 1.267e-3
1.900e+0, 1.269e-3
2.000e+0, 1.269e-3
2.100e+0, 1.270e-3
2.200e+0, 1.271e-3
2.300e+0, 1.271e-3
2.400e+0, 1.271e-3
2.500e+0, 1.270e-3
2.600e+0, 1.272e-3
2.700e+0, 1.271e-3
2.800e+0, 1.270e-3
2.900e+0, 1.272e-3
3.000e+0, 1.271e-3
3.100e+0, 1.270e-3
3.200e+0, 1.271e-3
3.300e+0, 1.268e-3
3.400e+0, 1.265e-3
3.500e+0, 1.264e-3
3.600e+0, 1.261e-3
3.700e+0, 1.260e-3
3.800e+0, 1.258e-3
3.900e+0, 1.256e-3
4.000e+0, 1.255e-3
4.100e+0, 1.252e-3
4.200e+0, 1.249e-3
4.300e+0, 1.246e-3
4.400e+0, 1.242e-3
4.500e+0, 1.242e-3
4.600e+0, 1.241e-3
4.700e+0, 1.240e-3
4.800e+0, 1.239e-3
4.900e+0, 1.237e-3
5.000e+0, 1.235e-3
5.100e+0, 1.232e-3
5.200e+0, 1.232e-3
5.300e+0, 1.230e-3
5.400e+0, 1.228e-3
5.500e+0, 1.227e-3
5.600e+0, 1.224e-3
5.700e+0, 1.223e-3
5.800e+0, 1.221e-3
5.900e+0, 1.219e-3
6.000e+0, 1.217e-3
6.100e+0, 1.216e-3
6.200e+0, 1.214e-3
6.300e+0, 1.214e-3
6.400e+0, 1.211e-3
6.500e+0, 1.207e-3
6.600e+0, 1.202e-3
6.700e+0, 1.201e-3
6.800e+0, 1.199e-3
6.900e+0, 1.196e-3
7.000e+0, 1.195e-3
7.100e+0, 1.194e-3
7.200e+0, 1.192e-3
7.300e+0, 1.191e-3
7.400e+0, 1.190e-3
7.500e+0, 1.188e-3
7.600e+0, 1.186e-3
7.700e+0, 1.184e-3
7.800e+0, 1.180e-3
7.900e+0, 1.178e-3
8.000e+0, 1.178e-3
8.100e+0, 1.177e-3
8.200e+0, 1.177e-3
8.300e+0, 1.175e-3
8.400e+0, 1.175e-3
8.500e+0, 1.175e-3
8.600e+0, 1.174e-3
8.700e+0, 1.173e-3
8.800e+0, 1.172e-3
8.900e+0, 1.172e-3
9.000e+0, 1.173e-3
9.100e+0, 1.172e-3
9.200e+0, 1.173e-3
9.300e+0, 1.171e-3
9.400e+0, 1.169e-3
9.500e+0, 1.167e-3
9.600e+0, 1.166e-3
9.700e+0, 1.165e-3
9.800e+0, 1.162e-3
9.900e+0, 1.162e-3
1.000e+1, 1.158e-3
1.010e+1, 1.157e-3
1.020e+1, 1.156e-3
1.030e+1, 1.156e-3
1.040e+1, 1.158e-3
1.050e+1, 1.158e-3
1.060e+1, 1.158e-3
1.070e+1, 1.156e-3
1.080e+1, 1.157e-3
1.090e+1, 1.155e-3
1.100e+1, 1.155e-3
1.110e+1, 1.155e-3
1.120e+1, 1.154e-3
1.130e+1, 1.152e-3
1.140e+1, 1.151e-3
1.150e+1, 1.150e-3
1.160e+1, 1.149e-3
1.170e+1, 1.149e-3
1.180e+1, 1.149e-3
1.190e+1, 1.149e-3
1.200e+1, 1.150e-3
1.210e+1, 1.149e-3
1.220e+1, 1.151e-3
1.230e+1, 1.153e-3
1.240e+1, 1.151e-3
1.250e+1, 1.149e-3
1.260e+1, 1.151e-3
1.270e+1, 1.150e-3
1.280e+1, 1.148e-3
1.290e+1, 1.147e-3
1.300e+1, 1.146e-3
1.310e+1, 1.144e-3
1.320e+1, 1.143e-3
1.330e+1, 1.143e-3
1.340e+1, 1.143e-3
1.350e+1, 1.142e-3
1.360e+1, 1.142e-3
1.370e+1, 1.141e-3
1.380e+1, 1.142e-3
1.390e+1, 1.140e-3
1.400e+1, 1.139e-3
1.410e+1, 1.136e-3
1.420e+1, 1.135e-3
1.430e+1, 1.134e-3
1.440e+1, 1.134e-3
1.450e+1, 1.135e-3
1.460e+1, 1.135e-3
1.470e+1, 1.135e-3
1.480e+1, 1.135e-3
1.490e+1, 1.137e-3
1.500e+1, 1.137e-3
1.510e+1, 1.135e-3
1.520e+1, 1.133e-3
1.530e+1, 1.135e-3
1.540e+1, 1.135e-3
1.550e+1, 1.134e-3
1.560e+1, 1.133e-3
1.570e+1, 1.134e-3
1.580e+1, 1.132e-3
1.590e+1, 1.133e-3
1.600e+1, 1.134e-3
1.610e+1, 1.132e-3
1.620e+1, 1.129e-3
1.630e+1, 1.128e-3
1.640e+1, 1.127e-3
1.650e+1, 1.127e-3
1.660e+1, 1.127e-3
1.670e+1, 1.127e-3
1.680e+1, 1.126e-3
1.690e+1, 1.127e-3
1.700e+1, 1.127e-3
1.710e+1, 1.128e-3
1.720e+1, 1.129e-3
1.730e+1, 1.128e-3
1.740e+1, 1.129e-3
1.750e+1, 1.128e-3
1.760e+1, 1.128e-3
1.770e+1, 1.131e-3
1.780e+1, 1.132e-3
1.790e+1, 1.133e-3
1.800e+1, 1.133e-3
1.810e+1, 1.135e-3
1.820e+1, 1.133e-3
1.830e+1, 1.130e-3
1.840e+1, 1.128e-3
1.850e+1, 1.122e-3
1.860e+1, 1.122e-3
1.870e+1, 1.122e-3
1.880e+1, 1.123e-3
1.890e+1, 1.122e-3
1.900e+1, 1.123e-3
1.910e+1, 1.123e-3
1.920e+1, 1.124e-3
1.930e+1, 1.126e-3
1.940e+1, 1.126e-3
1.950e+1, 1.128e-3
1.960e+1, 1.128e-3
1.970e+1, 1.128e-3
1.980e+1, 1.127e-3
1.990e+1, 1.127e-3
2.000e+1, 1.127e-3
2.010e+1, 1.124e-3
2.020e+1, 1.122e-3
2.030e+1, 1.122e-3
2.040e+1, 1.122e-3
2.050e+1, 1.122e-3
2.060e+1, 1.121e-3
2.070e+1, 1.122e-3
2.080e+1, 1.122e-3
2.090e+1, 1.121e-3
2.100e+1, 1.121e-3
2.110e+1, 1.122e-3
2.120e+1, 1.122e-3
2.130e+1, 1.121e-3
2.140e+1, 1.119e-3
2.150e+1, 1.121e-3
2.160e+1, 1.122e-3
2.170e+1, 1.123e-3
2.180e+1, 1.123e-3
2.190e+1, 1.123e-3
2.200e+1, 1.123e-3
2.210e+1, 1.125e-3
2.220e+1, 1.124e-3
2.230e+1, 1.124e-3
2.240e+1, 1.125e-3
2.250e+1, 1.124e-3
2.260e+1, 1.124e-3
2.270e+1, 1.124e-3
2.280e+1, 1.125e-3
2.290e+1, 1.125e-3
2.300e+1, 1.125e-3
2.310e+1, 1.125e-3
2.320e+1, 1.123e-3
2.330e+1, 1.123e-3
2.340e+1, 1.123e-3
2.350e+1, 1.123e-3
2.360e+1, 1.123e-3
2.370e+1, 1.125e-3
2.380e+1, 1.122e-3
2.390e+1, 1.123e-3
2.400e+1, 1.123e-3
2.410e+1, 1.125e-3
2.420e+1, 1.124e-3
2.430e+1, 1.123e-3
2.440e+1, 1.124e-3
2.450e+1, 1.123e-3
2.460e+1, 1.122e-3
2.470e+1, 1.123e-3
2.480e+1, 1.122e-3
2.490e+1, 1.120e-3
2.500e+1, 1.122e-3
2.510e+1, 1.124e-3
2.520e+1, 1.124e-3
2.530e+1, 1.123e-3
2.540e+1, 1.123e-3
2.550e+1, 1.121e-3
2.560e+1, 1.121e-3
2.570e+1, 1.120e-3
2.580e+1, 1.120e-3
2.590e+1, 1.120e-3
2.600e+1, 1.120e-3
2.610e+1, 1.121e-3
2.620e+1, 1.122e-3
2.630e+1, 1.122e-3
2.640e+1, 1.121e-3
2.650e+1, 1.121e-3
2.660e+1, 1.121e-3
2.670e+1, 1.122e-3
2.680e+1, 1.124e-3
2.690e+1, 1.125e-3
2.700e+1, 1.125e-3
2.710e+1, 1.125e-3
2.720e+1, 1.125e-3
2.730e+1, 1.124e-3
2.740e+1, 1.125e-3
2.750e+1, 1.124e-3
2.760e+1, 1.125e-3
2.770e+1, 1.126e-3
2.780e+1, 1.125e-3
2.790e+1, 1.123e-3
2.800e+1, 1.124e-3
2.810e+1, 1.121e-3
2.820e+1, 1.119e-3
2.830e+1, 1.118e-3
2.840e+1, 1.118e-3
2.850e+1, 1.118e-3
2.860e+1, 1.117e-3
2.870e+1, 1.121e-3
2.880e+1, 1.124e-3
2.890e+1, 1.125e-3
2.900e+1, 1.123e-3
2.910e+1, 1.123e-3
2.920e+1, 1.123e-3
2.930e+1, 1.124e-3
2.940e+1, 1.124e-3
2.950e+1, 1.124e-3
2.960e+1, 1.124e-3
2.970e+1, 1.124e-3
2.980e+1, 1.125e-3
2.990e+1, 1.125e-3
3.000e+1, 1.124e-3
