Apr. 18, 2025   01:26:32
Linear Sweep Voltammetry
File: c:/users/guazh/data/banditlqround7_x0exp590_r20/2025-04-16-exp1113\1acid_1ac-2025-04-18t01_23_23-lsvinphos\1acid_1ac_lsv_50mvs_efin_-2100mv.bin
Data Source:  Experiment
Instrument Model:  CHI760E
Header: LSV ran at 50 mVs with Efin at -2100mV
Note: 

Init E (V) = -0.6
Final E (V) = -2.1
Scan Rate (V/s) = 0.05
Sample Interval (V) = 0.001
Quiet Time (sec) = 2
Sensitivity (A/V) = 1e-4
Comp R (ohm) = 10.1

Results:

Channel 1:
Ep = -1.562V
ip = 5.060e-4A
Ah = 6.404e-4C

Potential/V, Current/A

-0.600, 4.051e-5
-0.601, 4.085e-5
-0.602, 4.113e-5
-0.603, 4.134e-5
-0.604, 4.140e-5
-0.605, 4.138e-5
-0.606, 4.139e-5
-0.607, 4.148e-5
-0.608, 4.159e-5
-0.609, 4.163e-5
-0.610, 4.166e-5
-0.611, 4.175e-5
-0.612, 4.180e-5
-0.613, 4.187e-5
-0.614, 4.190e-5
-0.615, 4.201e-5
-0.616, 4.204e-5
-0.617, 4.203e-5
-0.618, 4.190e-5
-0.619, 4.194e-5
-0.620, 4.206e-5
-0.621, 4.203e-5
-0.622, 4.192e-5
-0.623, 4.194e-5
-0.624, 4.202e-5
-0.625, 4.194e-5
-0.626, 4.193e-5
-0.627, 4.190e-5
-0.628, 4.191e-5
-0.629, 4.191e-5
-0.630, 4.194e-5
-0.631, 4.189e-5
-0.632, 4.190e-5
-0.633, 4.197e-5
-0.634, 4.204e-5
-0.635, 4.223e-5
-0.636, 4.227e-5
-0.637, 4.229e-5
-0.638, 4.238e-5
-0.639, 4.232e-5
-0.640, 4.232e-5
-0.641, 4.246e-5
-0.642, 4.238e-5
-0.643, 4.229e-5
-0.644, 4.231e-5
-0.645, 4.235e-5
-0.646, 4.229e-5
-0.647, 4.235e-5
-0.648, 4.230e-5
-0.649, 4.229e-5
-0.650, 4.243e-5
-0.651, 4.250e-5
-0.652, 4.236e-5
-0.653, 4.235e-5
-0.654, 4.241e-5
-0.655, 4.236e-5
-0.656, 4.228e-5
-0.657, 4.227e-5
-0.658, 4.237e-5
-0.659, 4.240e-5
-0.660, 4.245e-5
-0.661, 4.245e-5
-0.662, 4.247e-5
-0.663, 4.253e-5
-0.664, 4.253e-5
-0.665, 4.253e-5
-0.666, 4.258e-5
-0.667, 4.269e-5
-0.668, 4.274e-5
-0.669, 4.274e-5
-0.670, 4.263e-5
-0.671, 4.262e-5
-0.672, 4.260e-5
-0.673, 4.251e-5
-0.674, 4.252e-5
-0.675, 4.264e-5
-0.676, 4.280e-5
-0.677, 4.282e-5
-0.678, 4.290e-5
-0.679, 4.302e-5
-0.680, 4.297e-5
-0.681, 4.321e-5
-0.682, 4.326e-5
-0.683, 4.322e-5
-0.684, 4.323e-5
-0.685, 4.327e-5
-0.686, 4.333e-5
-0.687, 4.339e-5
-0.688, 4.335e-5
-0.689, 4.339e-5
-0.690, 4.369e-5
-0.691, 4.387e-5
-0.692, 4.386e-5
-0.693, 4.394e-5
-0.694, 4.394e-5
-0.695, 4.387e-5
-0.696, 4.385e-5
-0.697, 4.399e-5
-0.698, 4.404e-5
-0.699, 4.403e-5
-0.700, 4.405e-5
-0.701, 4.404e-5
-0.702, 4.409e-5
-0.703, 4.403e-5
-0.704, 4.398e-5
-0.705, 4.384e-5
-0.706, 4.382e-5
-0.707, 4.402e-5
-0.708, 4.407e-5
-0.709, 4.405e-5
-0.710, 4.414e-5
-0.711, 4.414e-5
-0.712, 4.417e-5
-0.713, 4.413e-5
-0.714, 4.414e-5
-0.715, 4.413e-5
-0.716, 4.416e-5
-0.717, 4.421e-5
-0.718, 4.426e-5
-0.719, 4.424e-5
-0.720, 4.417e-5
-0.721, 4.417e-5
-0.722, 4.410e-5
-0.723, 4.422e-5
-0.724, 4.424e-5
-0.725, 4.413e-5
-0.726, 4.421e-5
-0.727, 4.420e-5
-0.728, 4.412e-5
-0.729, 4.409e-5
-0.730, 4.411e-5
-0.731, 4.429e-5
-0.732, 4.447e-5
-0.733, 4.471e-5
-0.734, 4.484e-5
-0.735, 4.491e-5
-0.736, 4.497e-5
-0.737, 4.494e-5
-0.738, 4.481e-5
-0.739, 4.466e-5
-0.740, 4.468e-5
-0.741, 4.472e-5
-0.742, 4.477e-5
-0.743, 4.470e-5
-0.744, 4.459e-5
-0.745, 4.469e-5
-0.746, 4.474e-5
-0.747, 4.474e-5
-0.748, 4.461e-5
-0.749, 4.468e-5
-0.750, 4.481e-5
-0.751, 4.481e-5
-0.752, 4.473e-5
-0.753, 4.470e-5
-0.754, 4.481e-5
-0.755, 4.474e-5
-0.756, 4.470e-5
-0.757, 4.466e-5
-0.758, 4.470e-5
-0.759, 4.466e-5
-0.760, 4.465e-5
-0.761, 4.464e-5
-0.762, 4.462e-5
-0.763, 4.451e-5
-0.764, 4.459e-5
-0.765, 4.474e-5
-0.766, 4.470e-5
-0.767, 4.470e-5
-0.768, 4.481e-5
-0.769, 4.471e-5
-0.770, 4.487e-5
-0.771, 4.492e-5
-0.772, 4.494e-5
-0.773, 4.488e-5
-0.774, 4.480e-5
-0.775, 4.463e-5
-0.776, 4.487e-5
-0.777, 4.521e-5
-0.778, 4.529e-5
-0.779, 4.527e-5
-0.780, 4.516e-5
-0.781, 4.535e-5
-0.782, 4.548e-5
-0.783, 4.540e-5
-0.784, 4.536e-5
-0.785, 4.530e-5
-0.786, 4.519e-5
-0.787, 4.519e-5
-0.788, 4.523e-5
-0.789, 4.531e-5
-0.790, 4.532e-5
-0.791, 4.541e-5
-0.792, 4.541e-5
-0.793, 4.539e-5
-0.794, 4.546e-5
-0.795, 4.536e-5
-0.796, 4.527e-5
-0.797, 4.527e-5
-0.798, 4.530e-5
-0.799, 4.511e-5
-0.800, 4.512e-5
-0.801, 4.538e-5
-0.802, 4.542e-5
-0.803, 4.530e-5
-0.804, 4.533e-5
-0.805, 4.527e-5
-0.806, 4.538e-5
-0.807, 4.545e-5
-0.808, 4.550e-5
-0.809, 4.550e-5
-0.810, 4.546e-5
-0.811, 4.555e-5
-0.812, 4.552e-5
-0.813, 4.563e-5
-0.814, 4.565e-5
-0.815, 4.577e-5
-0.816, 4.570e-5
-0.817, 4.571e-5
-0.818, 4.583e-5
-0.819, 4.584e-5
-0.820, 4.593e-5
-0.821, 4.598e-5
-0.822, 4.608e-5
-0.823, 4.607e-5
-0.824, 4.615e-5
-0.825, 4.628e-5
-0.826, 4.645e-5
-0.827, 4.643e-5
-0.828, 4.632e-5
-0.829, 4.618e-5
-0.830, 4.634e-5
-0.831, 4.639e-5
-0.832, 4.646e-5
-0.833, 4.646e-5
-0.834, 4.643e-5
-0.835, 4.647e-5
-0.836, 4.657e-5
-0.837, 4.667e-5
-0.838, 4.670e-5
-0.839, 4.670e-5
-0.840, 4.668e-5
-0.841, 4.658e-5
-0.842, 4.662e-5
-0.843, 4.672e-5
-0.844, 4.678e-5
-0.845, 4.682e-5
-0.846, 4.678e-5
-0.847, 4.693e-5
-0.848, 4.687e-5
-0.849, 4.672e-5
-0.850, 4.667e-5
-0.851, 4.676e-5
-0.852, 4.688e-5
-0.853, 4.707e-5
-0.854, 4.715e-5
-0.855, 4.728e-5
-0.856, 4.733e-5
-0.857, 4.735e-5
-0.858, 4.728e-5
-0.859, 4.735e-5
-0.860, 4.747e-5
-0.861, 4.754e-5
-0.862, 4.773e-5
-0.863, 4.783e-5
-0.864, 4.786e-5
-0.865, 4.790e-5
-0.866, 4.807e-5
-0.867, 4.801e-5
-0.868, 4.809e-5
-0.869, 4.823e-5
-0.870, 4.847e-5
-0.871, 4.866e-5
-0.872, 4.886e-5
-0.873, 4.886e-5
-0.874, 4.896e-5
-0.875, 4.893e-5
-0.876, 4.906e-5
-0.877, 4.947e-5
-0.878, 4.986e-5
-0.879, 5.061e-5
-0.880, 5.034e-5
-0.881, 5.054e-5
-0.882, 5.118e-5
-0.883, 5.199e-5
-0.884, 5.122e-5
-0.885, 5.125e-5
-0.886, 5.118e-5
-0.887, 5.113e-5
-0.888, 5.144e-5
-0.889, 5.166e-5
-0.890, 5.167e-5
-0.891, 5.220e-5
-0.892, 5.235e-5
-0.893, 5.236e-5
-0.894, 5.243e-5
-0.895, 5.301e-5
-0.896, 5.310e-5
-0.897, 5.334e-5
-0.898, 5.342e-5
-0.899, 5.381e-5
-0.900, 5.414e-5
-0.901, 5.430e-5
-0.902, 5.459e-5
-0.903, 5.480e-5
-0.904, 5.486e-5
-0.905, 5.529e-5
-0.906, 5.570e-5
-0.907, 5.608e-5
-0.908, 5.603e-5
-0.909, 5.636e-5
-0.910, 5.680e-5
-0.911, 5.704e-5
-0.912, 5.717e-5
-0.913, 5.749e-5
-0.914, 5.788e-5
-0.915, 5.822e-5
-0.916, 5.859e-5
-0.917, 5.884e-5
-0.918, 5.906e-5
-0.919, 5.954e-5
-0.920, 5.989e-5
-0.921, 6.015e-5
-0.922, 6.008e-5
-0.923, 6.026e-5
-0.924, 6.061e-5
-0.925, 6.109e-5
-0.926, 6.132e-5
-0.927, 6.138e-5
-0.928, 6.178e-5
-0.929, 6.234e-5
-0.930, 6.293e-5
-0.931, 6.334e-5
-0.932, 6.372e-5
-0.933, 6.411e-5
-0.934, 6.440e-5
-0.935, 6.473e-5
-0.936, 6.512e-5
-0.937, 6.567e-5
-0.938, 6.597e-5
-0.939, 6.616e-5
-0.940, 6.642e-5
-0.941, 6.675e-5
-0.942, 6.706e-5
-0.943, 6.752e-5
-0.944, 6.807e-5
-0.945, 6.839e-5
-0.946, 6.873e-5
-0.947, 6.902e-5
-0.948, 6.942e-5
-0.949, 6.986e-5
-0.950, 7.023e-5
-0.951, 7.069e-5
-0.952, 7.090e-5
-0.953, 7.125e-5
-0.954, 7.174e-5
-0.955, 7.217e-5
-0.956, 7.240e-5
-0.957, 7.275e-5
-0.958, 7.345e-5
-0.959, 7.398e-5
-0.960, 7.435e-5
-0.961, 7.480e-5
-0.962, 7.544e-5
-0.963, 7.586e-5
-0.964, 7.625e-5
-0.965, 7.696e-5
-0.966, 7.765e-5
-0.967, 7.820e-5
-0.968, 7.865e-5
-0.969, 7.924e-5
-0.970, 7.985e-5
-0.971, 8.044e-5
-0.972, 8.096e-5
-0.973, 8.167e-5
-0.974, 8.255e-5
-0.975, 8.320e-5
-0.976, 8.383e-5
-0.977, 8.444e-5
-0.978, 8.473e-5
-0.979, 8.532e-5
-0.980, 8.611e-5
-0.981, 8.672e-5
-0.982, 8.741e-5
-0.983, 8.823e-5
-0.984, 8.870e-5
-0.985, 8.942e-5
-0.986, 8.994e-5
-0.987, 9.134e-5
-0.988, 9.212e-5
-0.989, 9.265e-5
-0.990, 9.340e-5
-0.991, 9.402e-5
-0.992, 9.475e-5
-0.993, 9.579e-5
-0.994, 9.633e-5
-0.995, 9.693e-5
-0.996, 9.759e-5
-0.997, 9.832e-5
-0.998, 9.917e-5
-0.999, 1.000e-4
-1.000, 1.004e-4
-1.001, 1.008e-4
-1.002, 1.014e-4
-1.003, 1.021e-4
-1.004, 1.027e-4
-1.005, 1.033e-4
-1.006, 1.038e-4
-1.007, 1.042e-4
-1.008, 1.047e-4
-1.009, 1.051e-4
-1.010, 1.056e-4
-1.011, 1.063e-4
-1.012, 1.068e-4
-1.013, 1.072e-4
-1.014, 1.076e-4
-1.015, 1.081e-4
-1.016, 1.086e-4
-1.017, 1.092e-4
-1.018, 1.095e-4
-1.019, 1.103e-4
-1.020, 1.111e-4
-1.021, 1.113e-4
-1.022, 1.115e-4
-1.023, 1.116e-4
-1.024, 1.123e-4
-1.025, 1.126e-4
-1.026, 1.129e-4
-1.027, 1.134e-4
-1.028, 1.136e-4
-1.029, 1.136e-4
-1.030, 1.139e-4
-1.031, 1.143e-4
-1.032, 1.148e-4
-1.033, 1.152e-4
-1.034, 1.157e-4
-1.035, 1.161e-4
-1.036, 1.163e-4
-1.037, 1.165e-4
-1.038, 1.167e-4
-1.039, 1.170e-4
-1.040, 1.170e-4
-1.041, 1.176e-4
-1.042, 1.181e-4
-1.043, 1.184e-4
-1.044, 1.190e-4
-1.045, 1.195e-4
-1.046, 1.198e-4
-1.047, 1.203e-4
-1.048, 1.209e-4
-1.049, 1.214e-4
-1.050, 1.217e-4
-1.051, 1.219e-4
-1.052, 1.224e-4
-1.053, 1.228e-4
-1.054, 1.233e-4
-1.055, 1.239e-4
-1.056, 1.242e-4
-1.057, 1.247e-4
-1.058, 1.252e-4
-1.059, 1.256e-4
-1.060, 1.258e-4
-1.061, 1.261e-4
-1.062, 1.266e-4
-1.063, 1.270e-4
-1.064, 1.273e-4
-1.065, 1.277e-4
-1.066, 1.280e-4
-1.067, 1.284e-4
-1.068, 1.286e-4
-1.069, 1.290e-4
-1.070, 1.294e-4
-1.071, 1.296e-4
-1.072, 1.300e-4
-1.073, 1.303e-4
-1.074, 1.305e-4
-1.075, 1.311e-4
-1.076, 1.315e-4
-1.077, 1.318e-4
-1.078, 1.320e-4
-1.079, 1.321e-4
-1.080, 1.324e-4
-1.081, 1.328e-4
-1.082, 1.331e-4
-1.083, 1.336e-4
-1.084, 1.338e-4
-1.085, 1.342e-4
-1.086, 1.346e-4
-1.087, 1.351e-4
-1.088, 1.355e-4
-1.089, 1.357e-4
-1.090, 1.359e-4
-1.091, 1.361e-4
-1.092, 1.363e-4
-1.093, 1.366e-4
-1.094, 1.371e-4
-1.095, 1.372e-4
-1.096, 1.372e-4
-1.097, 1.374e-4
-1.098, 1.377e-4
-1.099, 1.380e-4
-1.100, 1.383e-4
-1.101, 1.386e-4
-1.102, 1.392e-4
-1.103, 1.396e-4
-1.104, 1.398e-4
-1.105, 1.404e-4
-1.106, 1.411e-4
-1.107, 1.412e-4
-1.108, 1.414e-4
-1.109, 1.415e-4
-1.110, 1.417e-4
-1.111, 1.420e-4
-1.112, 1.424e-4
-1.113, 1.424e-4
-1.114, 1.424e-4
-1.115, 1.428e-4
-1.116, 1.436e-4
-1.117, 1.436e-4
-1.118, 1.439e-4
-1.119, 1.449e-4
-1.120, 1.453e-4
-1.121, 1.456e-4
-1.122, 1.456e-4
-1.123, 1.456e-4
-1.124, 1.459e-4
-1.125, 1.460e-4
-1.126, 1.464e-4
-1.127, 1.467e-4
-1.128, 1.468e-4
-1.129, 1.471e-4
-1.130, 1.473e-4
-1.131, 1.475e-4
-1.132, 1.476e-4
-1.133, 1.479e-4
-1.134, 1.480e-4
-1.135, 1.484e-4
-1.136, 1.487e-4
-1.137, 1.490e-4
-1.138, 1.492e-4
-1.139, 1.496e-4
-1.140, 1.500e-4
-1.141, 1.502e-4
-1.142, 1.506e-4
-1.143, 1.509e-4
-1.144, 1.510e-4
-1.145, 1.515e-4
-1.146, 1.521e-4
-1.147, 1.520e-4
-1.148, 1.520e-4
-1.149, 1.521e-4
-1.150, 1.523e-4
-1.151, 1.525e-4
-1.152, 1.528e-4
-1.153, 1.531e-4
-1.154, 1.534e-4
-1.155, 1.538e-4
-1.156, 1.546e-4
-1.157, 1.553e-4
-1.158, 1.553e-4
-1.159, 1.555e-4
-1.160, 1.556e-4
-1.161, 1.557e-4
-1.162, 1.558e-4
-1.163, 1.560e-4
-1.164, 1.563e-4
-1.165, 1.566e-4
-1.166, 1.572e-4
-1.167, 1.571e-4
-1.168, 1.572e-4
-1.169, 1.572e-4
-1.170, 1.576e-4
-1.171, 1.579e-4
-1.172, 1.584e-4
-1.173, 1.586e-4
-1.174, 1.586e-4
-1.175, 1.590e-4
-1.176, 1.593e-4
-1.177, 1.598e-4
-1.178, 1.599e-4
-1.179, 1.601e-4
-1.180, 1.603e-4
-1.181, 1.606e-4
-1.182, 1.609e-4
-1.183, 1.611e-4
-1.184, 1.614e-4
-1.185, 1.617e-4
-1.186, 1.619e-4
-1.187, 1.622e-4
-1.188, 1.623e-4
-1.189, 1.625e-4
-1.190, 1.628e-4
-1.191, 1.629e-4
-1.192, 1.634e-4
-1.193, 1.640e-4
-1.194, 1.643e-4
-1.195, 1.650e-4
-1.196, 1.650e-4
-1.197, 1.653e-4
-1.198, 1.658e-4
-1.199, 1.663e-4
-1.200, 1.667e-4
-1.201, 1.670e-4
-1.202, 1.672e-4
-1.203, 1.676e-4
-1.204, 1.682e-4
-1.205, 1.685e-4
-1.206, 1.687e-4
-1.207, 1.692e-4
-1.208, 1.693e-4
-1.209, 1.694e-4
-1.210, 1.696e-4
-1.211, 1.704e-4
-1.212, 1.711e-4
-1.213, 1.715e-4
-1.214, 1.717e-4
-1.215, 1.723e-4
-1.216, 1.726e-4
-1.217, 1.728e-4
-1.218, 1.730e-4
-1.219, 1.733e-4
-1.220, 1.734e-4
-1.221, 1.740e-4
-1.222, 1.743e-4
-1.223, 1.746e-4
-1.224, 1.751e-4
-1.225, 1.756e-4
-1.226, 1.761e-4
-1.227, 1.765e-4
-1.228, 1.769e-4
-1.229, 1.774e-4
-1.230, 1.776e-4
-1.231, 1.781e-4
-1.232, 1.786e-4
-1.233, 1.791e-4
-1.234, 1.797e-4
-1.235, 1.801e-4
-1.236, 1.808e-4
-1.237, 1.814e-4
-1.238, 1.818e-4
-1.239, 1.824e-4
-1.240, 1.829e-4
-1.241, 1.832e-4
-1.242, 1.838e-4
-1.243, 1.842e-4
-1.244, 1.852e-4
-1.245, 1.855e-4
-1.246, 1.858e-4
-1.247, 1.864e-4
-1.248, 1.867e-4
-1.249, 1.871e-4
-1.250, 1.877e-4
-1.251, 1.888e-4
-1.252, 1.891e-4
-1.253, 1.895e-4
-1.254, 1.901e-4
-1.255, 1.906e-4
-1.256, 1.911e-4
-1.257, 1.917e-4
-1.258, 1.920e-4
-1.259, 1.925e-4
-1.260, 1.931e-4
-1.261, 1.934e-4
-1.262, 1.940e-4
-1.263, 1.943e-4
-1.264, 1.949e-4
-1.265, 1.956e-4
-1.266, 1.962e-4
-1.267, 1.968e-4
-1.268, 1.973e-4
-1.269, 1.980e-4
-1.270, 1.985e-4
-1.271, 1.992e-4
-1.272, 1.998e-4
-1.273, 2.004e-4
-1.274, 2.011e-4
-1.275, 2.019e-4
-1.276, 2.025e-4
-1.277, 2.031e-4
-1.278, 2.038e-4
-1.279, 2.047e-4
-1.280, 2.055e-4
-1.281, 2.063e-4
-1.282, 2.068e-4
-1.283, 2.076e-4
-1.284, 2.082e-4
-1.285, 2.087e-4
-1.286, 2.096e-4
-1.287, 2.104e-4
-1.288, 2.111e-4
-1.289, 2.121e-4
-1.290, 2.130e-4
-1.291, 2.140e-4
-1.292, 2.148e-4
-1.293, 2.158e-4
-1.294, 2.167e-4
-1.295, 2.172e-4
-1.296, 2.180e-4
-1.297, 2.191e-4
-1.298, 2.198e-4
-1.299, 2.205e-4
-1.300, 2.215e-4
-1.301, 2.227e-4
-1.302, 2.235e-4
-1.303, 2.242e-4
-1.304, 2.250e-4
-1.305, 2.258e-4
-1.306, 2.266e-4
-1.307, 2.274e-4
-1.308, 2.282e-4
-1.309, 2.292e-4
-1.310, 2.301e-4
-1.311, 2.313e-4
-1.312, 2.324e-4
-1.313, 2.336e-4
-1.314, 2.345e-4
-1.315, 2.354e-4
-1.316, 2.365e-4
-1.317, 2.376e-4
-1.318, 2.386e-4
-1.319, 2.398e-4
-1.320, 2.408e-4
-1.321, 2.417e-4
-1.322, 2.430e-4
-1.323, 2.442e-4
-1.324, 2.452e-4
-1.325, 2.462e-4
-1.326, 2.473e-4
-1.327, 2.481e-4
-1.328, 2.488e-4
-1.329, 2.499e-4
-1.330, 2.509e-4
-1.331, 2.518e-4
-1.332, 2.531e-4
-1.333, 2.543e-4
-1.334, 2.554e-4
-1.335, 2.565e-4
-1.336, 2.576e-4
-1.337, 2.587e-4
-1.338, 2.599e-4
-1.339, 2.609e-4
-1.340, 2.618e-4
-1.341, 2.632e-4
-1.342, 2.645e-4
-1.343, 2.659e-4
-1.344, 2.672e-4
-1.345, 2.684e-4
-1.346, 2.697e-4
-1.347, 2.709e-4
-1.348, 2.721e-4
-1.349, 2.733e-4
-1.350, 2.745e-4
-1.351, 2.755e-4
-1.352, 2.765e-4
-1.353, 2.776e-4
-1.354, 2.789e-4
-1.355, 2.805e-4
-1.356, 2.815e-4
-1.357, 2.823e-4
-1.358, 2.833e-4
-1.359, 2.842e-4
-1.360, 2.854e-4
-1.361, 2.866e-4
-1.362, 2.882e-4
-1.363, 2.893e-4
-1.364, 2.902e-4
-1.365, 2.915e-4
-1.366, 2.929e-4
-1.367, 2.938e-4
-1.368, 2.950e-4
-1.369, 2.966e-4
-1.370, 2.980e-4
-1.371, 2.993e-4
-1.372, 3.006e-4
-1.373, 3.019e-4
-1.374, 3.033e-4
-1.375, 3.045e-4
-1.376, 3.060e-4
-1.377, 3.077e-4
-1.378, 3.101e-4
-1.379, 3.114e-4
-1.380, 3.119e-4
-1.381, 3.132e-4
-1.382, 3.147e-4
-1.383, 3.161e-4
-1.384, 3.178e-4
-1.385, 3.195e-4
-1.386, 3.210e-4
-1.387, 3.223e-4
-1.388, 3.236e-4
-1.389, 3.252e-4
-1.390, 3.269e-4
-1.391, 3.287e-4
-1.392, 3.300e-4
-1.393, 3.318e-4
-1.394, 3.335e-4
-1.395, 3.352e-4
-1.396, 3.372e-4
-1.397, 3.391e-4
-1.398, 3.415e-4
-1.399, 3.438e-4
-1.400, 3.457e-4
-1.401, 3.476e-4
-1.402, 3.489e-4
-1.403, 3.505e-4
-1.404, 3.527e-4
-1.405, 3.543e-4
-1.406, 3.562e-4
-1.407, 3.579e-4
-1.408, 3.595e-4
-1.409, 3.612e-4
-1.410, 3.631e-4
-1.411, 3.654e-4
-1.412, 3.678e-4
-1.413, 3.702e-4
-1.414, 3.725e-4
-1.415, 3.744e-4
-1.416, 3.764e-4
-1.417, 3.784e-4
-1.418, 3.810e-4
-1.419, 3.843e-4
-1.420, 3.862e-4
-1.421, 3.883e-4
-1.422, 3.906e-4
-1.423, 3.926e-4
-1.424, 3.946e-4
-1.425, 3.974e-4
-1.426, 4.000e-4
-1.427, 4.024e-4
-1.428, 4.047e-4
-1.429, 4.073e-4
-1.430, 4.096e-4
-1.431, 4.122e-4
-1.432, 4.151e-4
-1.433, 4.178e-4
-1.434, 4.200e-4
-1.435, 4.223e-4
-1.436, 4.252e-4
-1.437, 4.280e-4
-1.438, 4.309e-4
-1.439, 4.333e-4
-1.440, 4.358e-4
-1.441, 4.384e-4
-1.442, 4.415e-4
-1.443, 4.453e-4
-1.444, 4.476e-4
-1.445, 4.499e-4
-1.446, 4.533e-4
-1.447, 4.561e-4
-1.448, 4.589e-4
-1.449, 4.622e-4
-1.450, 4.653e-4
-1.451, 4.681e-4
-1.452, 4.711e-4
-1.453, 4.742e-4
-1.454, 4.776e-4
-1.455, 4.805e-4
-1.456, 4.842e-4
-1.457, 4.876e-4
-1.458, 4.906e-4
-1.459, 4.937e-4
-1.460, 4.967e-4
-1.461, 5.003e-4
-1.462, 5.037e-4
-1.463, 5.071e-4
-1.464, 5.106e-4
-1.465, 5.144e-4
-1.466, 5.179e-4
-1.467, 5.218e-4
-1.468, 5.253e-4
-1.469, 5.287e-4
-1.470, 5.324e-4
-1.471, 5.360e-4
-1.472, 5.396e-4
-1.473, 5.434e-4
-1.474, 5.469e-4
-1.475, 5.513e-4
-1.476, 5.566e-4
-1.477, 5.611e-4
-1.478, 5.643e-4
-1.479, 5.683e-4
-1.480, 5.732e-4
-1.481, 5.775e-4
-1.482, 5.810e-4
-1.483, 5.843e-4
-1.484, 5.878e-4
-1.485, 5.918e-4
-1.486, 5.959e-4
-1.487, 6.002e-4
-1.488, 6.053e-4
-1.489, 6.097e-4
-1.490, 6.144e-4
-1.491, 6.183e-4
-1.492, 6.221e-4
-1.493, 6.263e-4
-1.494, 6.305e-4
-1.495, 6.345e-4
-1.496, 6.386e-4
-1.497, 6.433e-4
-1.498, 6.478e-4
-1.499, 6.527e-4
-1.500, 6.574e-4
-1.501, 6.621e-4
-1.502, 6.664e-4
-1.503, 6.714e-4
-1.504, 6.765e-4
-1.505, 6.813e-4
-1.506, 6.862e-4
-1.507, 6.909e-4
-1.508, 6.957e-4
-1.509, 7.006e-4
-1.510, 7.060e-4
-1.511, 7.115e-4
-1.512, 7.165e-4
-1.513, 7.216e-4
-1.514, 7.262e-4
-1.515, 7.315e-4
-1.516, 7.365e-4
-1.517, 7.414e-4
-1.518, 7.466e-4
-1.519, 7.520e-4
-1.520, 7.574e-4
-1.521, 7.621e-4
-1.522, 7.668e-4
-1.523, 7.724e-4
-1.524, 7.778e-4
-1.525, 7.833e-4
-1.526, 7.882e-4
-1.527, 7.934e-4
-1.528, 7.996e-4
-1.529, 8.050e-4
-1.530, 8.107e-4
-1.531, 8.164e-4
-1.532, 8.221e-4
-1.533, 8.275e-4
-1.534, 8.336e-4
-1.535, 8.396e-4
-1.536, 8.451e-4
-1.537, 8.516e-4
-1.538, 8.576e-4
-1.539, 8.636e-4
-1.540, 8.699e-4
-1.541, 8.768e-4
-1.542, 8.838e-4
-1.543, 8.900e-4
-1.544, 8.957e-4
-1.545, 9.020e-4
-1.546, 9.087e-4
-1.547, 9.153e-4
-1.548, 9.219e-4
-1.549, 9.286e-4
-1.550, 9.356e-4
-1.551, 9.424e-4
-1.552, 9.489e-4
-1.553, 9.561e-4
-1.554, 9.627e-4
-1.555, 9.703e-4
-1.556, 9.781e-4
-1.557, 9.849e-4
-1.558, 9.916e-4
-1.559, 9.986e-4
-1.560, 1.006e-3
-1.561, 1.011e-3
-1.562, 1.011e-3
-1.563, 1.011e-3
-1.564, 1.011e-3
-1.565, 1.011e-3
-1.566, 1.011e-3
-1.567, 1.011e-3
-1.568, 1.011e-3
-1.569, 1.011e-3
-1.570, 1.011e-3
-1.571, 1.011e-3
-1.572, 1.011e-3
-1.573, 1.011e-3
-1.574, 1.011e-3
-1.575, 1.011e-3
-1.576, 1.011e-3
-1.577, 1.011e-3
-1.578, 1.011e-3
-1.579, 1.011e-3
-1.580, 1.011e-3
-1.581, 1.011e-3
-1.582, 1.011e-3
-1.583, 1.011e-3
-1.584, 1.011e-3
-1.585, 1.011e-3
-1.586, 1.011e-3
-1.587, 1.011e-3
-1.588, 1.011e-3
-1.589, 1.011e-3
-1.590, 1.011e-3
-1.591, 1.011e-3
-1.592, 1.011e-3
-1.593, 1.011e-3
-1.594, 1.011e-3
-1.595, 1.011e-3
-1.596, 1.011e-3
-1.597, 1.011e-3
-1.598, 1.011e-3
-1.599, 1.011e-3
-1.600, 1.011e-3
-1.601, 1.011e-3
-1.602, 1.011e-3
-1.603, 1.011e-3
-1.604, 1.011e-3
-1.605, 1.011e-3
-1.606, 1.011e-3
-1.607, 1.011e-3
-1.608, 1.011e-3
-1.609, 1.011e-3
-1.610, 1.011e-3
-1.611, 1.011e-3
-1.612, 1.011e-3
-1.613, 1.011e-3
-1.614, 1.011e-3
-1.615, 1.011e-3
-1.616, 1.011e-3
-1.617, 1.011e-3
-1.618, 1.011e-3
-1.619, 1.011e-3
-1.620, 1.011e-3
-1.621, 1.011e-3
-1.622, 1.011e-3
-1.623, 1.011e-3
-1.624, 1.011e-3
-1.625, 1.011e-3
-1.626, 1.011e-3
-1.627, 1.011e-3
-1.628, 1.011e-3
-1.629, 1.011e-3
-1.630, 1.011e-3
-1.631, 1.011e-3
-1.632, 1.011e-3
-1.633, 1.011e-3
-1.634, 1.011e-3
-1.635, 1.011e-3
-1.636, 1.011e-3
-1.637, 1.011e-3
-1.638, 1.011e-3
-1.639, 1.011e-3
-1.640, 1.011e-3
-1.641, 1.011e-3
-1.642, 1.011e-3
-1.643, 1.011e-3
-1.644, 1.011e-3
-1.645, 1.011e-3
-1.646, 1.011e-3
-1.647, 1.011e-3
-1.648, 1.011e-3
-1.649, 1.011e-3
-1.650, 1.011e-3
-1.651, 1.011e-3
-1.652, 1.011e-3
-1.653, 1.011e-3
-1.654, 1.011e-3
-1.655, 1.011e-3
-1.656, 1.011e-3
-1.657, 1.011e-3
-1.658, 1.011e-3
-1.659, 1.011e-3
-1.660, 1.011e-3
-1.661, 1.011e-3
-1.662, 1.011e-3
-1.663, 1.011e-3
-1.664, 1.011e-3
-1.665, 1.011e-3
-1.666, 1.011e-3
-1.667, 1.011e-3
-1.668, 1.011e-3
-1.669, 1.011e-3
-1.670, 1.011e-3
-1.671, 1.011e-3
-1.672, 1.011e-3
-1.673, 1.011e-3
-1.674, 1.011e-3
-1.675, 1.011e-3
-1.676, 1.011e-3
-1.677, 1.011e-3
-1.678, 1.011e-3
-1.679, 1.011e-3
-1.680, 1.011e-3
-1.681, 1.011e-3
-1.682, 1.011e-3
-1.683, 1.011e-3
-1.684, 1.011e-3
-1.685, 1.011e-3
-1.686, 1.011e-3
-1.687, 1.011e-3
-1.688, 1.011e-3
-1.689, 1.011e-3
-1.690, 1.011e-3
-1.691, 1.011e-3
-1.692, 1.011e-3
-1.693, 1.011e-3
-1.694, 1.011e-3
-1.695, 1.011e-3
-1.696, 1.011e-3
-1.697, 1.011e-3
-1.698, 1.011e-3
-1.699, 1.011e-3
-1.700, 1.011e-3
-1.701, 1.011e-3
-1.702, 1.011e-3
-1.703, 1.011e-3
-1.704, 1.011e-3
-1.705, 1.011e-3
-1.706, 1.011e-3
-1.707, 1.011e-3
-1.708, 1.011e-3
-1.709, 1.011e-3
-1.710, 1.011e-3
-1.711, 1.011e-3
-1.712, 1.011e-3
-1.713, 1.011e-3
-1.714, 1.011e-3
-1.715, 1.011e-3
-1.716, 1.011e-3
-1.717, 1.011e-3
-1.718, 1.011e-3
-1.719, 1.011e-3
-1.720, 1.011e-3
-1.721, 1.011e-3
-1.722, 1.011e-3
-1.723, 1.011e-3
-1.724, 1.011e-3
-1.725, 1.011e-3
-1.726, 1.011e-3
-1.727, 1.011e-3
-1.728, 1.011e-3
-1.729, 1.011e-3
-1.730, 1.011e-3
-1.731, 1.011e-3
-1.732, 1.011e-3
-1.733, 1.011e-3
-1.734, 1.011e-3
-1.735, 1.011e-3
-1.736, 1.011e-3
-1.737, 1.011e-3
-1.738, 1.011e-3
-1.739, 1.011e-3
-1.740, 1.011e-3
-1.741, 1.011e-3
-1.742, 1.011e-3
-1.743, 1.011e-3
-1.744, 1.011e-3
-1.745, 1.011e-3
-1.746, 1.011e-3
-1.747, 1.011e-3
-1.748, 1.011e-3
-1.749, 1.011e-3
-1.750, 1.011e-3
-1.751, 1.011e-3
-1.752, 1.011e-3
-1.753, 1.011e-3
-1.754, 1.011e-3
-1.755, 1.011e-3
-1.756, 1.011e-3
-1.757, 1.011e-3
-1.758, 1.011e-3
-1.759, 1.011e-3
-1.760, 1.011e-3
-1.761, 1.011e-3
-1.762, 1.011e-3
-1.763, 1.011e-3
-1.764, 1.011e-3
-1.765, 1.011e-3
-1.766, 1.011e-3
-1.767, 1.011e-3
-1.768, 1.011e-3
-1.769, 1.011e-3
-1.770, 1.011e-3
-1.771, 1.011e-3
-1.772, 1.011e-3
-1.773, 1.011e-3
-1.774, 1.011e-3
-1.775, 1.011e-3
-1.776, 1.011e-3
-1.777, 1.011e-3
-1.778, 1.011e-3
-1.779, 1.011e-3
-1.780, 1.011e-3
-1.781, 1.011e-3
-1.782, 1.011e-3
-1.783, 1.011e-3
-1.784, 1.011e-3
-1.785, 1.011e-3
-1.786, 1.011e-3
-1.787, 1.011e-3
-1.788, 1.011e-3
-1.789, 1.011e-3
-1.790, 1.011e-3
-1.791, 1.011e-3
-1.792, 1.011e-3
-1.793, 1.011e-3
-1.794, 1.011e-3
-1.795, 1.011e-3
-1.796, 1.011e-3
-1.797, 1.011e-3
-1.798, 1.011e-3
-1.799, 1.011e-3
-1.800, 1.011e-3
-1.801, 1.011e-3
-1.802, 1.011e-3
-1.803, 1.011e-3
-1.804, 1.011e-3
-1.805, 1.011e-3
-1.806, 1.011e-3
-1.807, 1.011e-3
-1.808, 1.011e-3
-1.809, 1.011e-3
-1.810, 1.011e-3
-1.811, 1.011e-3
-1.812, 1.011e-3
-1.813, 1.011e-3
-1.814, 1.011e-3
-1.815, 1.011e-3
-1.816, 1.011e-3
-1.817, 1.011e-3
-1.818, 1.011e-3
-1.819, 1.011e-3
-1.820, 1.011e-3
-1.821, 1.011e-3
-1.822, 1.011e-3
-1.823, 1.011e-3
-1.824, 1.011e-3
-1.825, 1.011e-3
-1.826, 1.011e-3
-1.827, 1.011e-3
-1.828, 1.011e-3
-1.829, 1.011e-3
-1.830, 1.011e-3
-1.831, 1.011e-3
-1.832, 1.011e-3
-1.833, 1.011e-3
-1.834, 1.011e-3
-1.835, 1.011e-3
-1.836, 1.011e-3
-1.837, 1.011e-3
-1.838, 1.011e-3
-1.839, 1.011e-3
-1.840, 1.011e-3
-1.841, 1.011e-3
-1.842, 1.011e-3
-1.843, 1.011e-3
-1.844, 1.011e-3
-1.845, 1.011e-3
-1.846, 1.011e-3
-1.847, 1.011e-3
-1.848, 1.011e-3
-1.849, 1.011e-3
-1.850, 1.011e-3
-1.851, 1.011e-3
-1.852, 1.011e-3
-1.853, 1.011e-3
-1.854, 1.011e-3
-1.855, 1.011e-3
-1.856, 1.011e-3
-1.857, 1.011e-3
-1.858, 1.011e-3
-1.859, 1.011e-3
-1.860, 1.011e-3
-1.861, 1.011e-3
-1.862, 1.011e-3
-1.863, 1.011e-3
-1.864, 1.011e-3
-1.865, 1.011e-3
-1.866, 1.011e-3
-1.867, 1.011e-3
-1.868, 1.011e-3
-1.869, 1.011e-3
-1.870, 1.011e-3
-1.871, 1.011e-3
-1.872, 1.011e-3
-1.873, 1.011e-3
-1.874, 1.011e-3
-1.875, 1.011e-3
-1.876, 1.011e-3
-1.877, 1.011e-3
-1.878, 1.011e-3
-1.879, 1.011e-3
-1.880, 1.011e-3
-1.881, 1.011e-3
-1.882, 1.011e-3
-1.883, 1.011e-3
-1.884, 1.011e-3
-1.885, 1.011e-3
-1.886, 1.011e-3
-1.887, 1.011e-3
-1.888, 1.011e-3
-1.889, 1.011e-3
-1.890, 1.011e-3
-1.891, 1.011e-3
-1.892, 1.011e-3
-1.893, 1.011e-3
-1.894, 1.011e-3
-1.895, 1.011e-3
-1.896, 1.011e-3
-1.897, 1.011e-3
-1.898, 1.011e-3
-1.899, 1.011e-3
-1.900, 1.011e-3
-1.901, 1.011e-3
-1.902, 1.011e-3
-1.903, 1.011e-3
-1.904, 1.011e-3
-1.905, 1.011e-3
-1.906, 1.011e-3
-1.907, 1.011e-3
-1.908, 1.011e-3
-1.909, 1.011e-3
-1.910, 1.011e-3
-1.911, 1.011e-3
-1.912, 1.011e-3
-1.913, 1.011e-3
-1.914, 1.011e-3
-1.915, 1.011e-3
-1.916, 1.011e-3
-1.917, 1.011e-3
-1.918, 1.011e-3
-1.919, 1.011e-3
-1.920, 1.011e-3
-1.921, 1.011e-3
-1.922, 1.011e-3
-1.923, 1.011e-3
-1.924, 1.011e-3
-1.925, 1.011e-3
-1.926, 1.011e-3
-1.927, 1.011e-3
-1.928, 1.011e-3
-1.929, 1.011e-3
-1.930, 1.011e-3
-1.931, 1.011e-3
-1.932, 1.011e-3
-1.933, 1.011e-3
-1.934, 1.011e-3
-1.935, 1.011e-3
-1.936, 1.011e-3
-1.937, 1.011e-3
-1.938, 1.011e-3
-1.939, 1.011e-3
-1.940, 1.011e-3
-1.941, 1.011e-3
-1.942, 1.011e-3
-1.943, 1.011e-3
-1.944, 1.011e-3
-1.945, 1.011e-3
-1.946, 1.011e-3
-1.947, 1.011e-3
-1.948, 1.011e-3
-1.949, 1.011e-3
-1.950, 1.011e-3
-1.951, 1.011e-3
-1.952, 1.011e-3
-1.953, 1.011e-3
-1.954, 1.011e-3
-1.955, 1.011e-3
-1.956, 1.011e-3
-1.957, 1.011e-3
-1.958, 1.011e-3
-1.959, 1.011e-3
-1.960, 1.011e-3
-1.961, 1.011e-3
-1.962, 1.011e-3
-1.963, 1.011e-3
-1.964, 1.011e-3
-1.965, 1.011e-3
-1.966, 1.011e-3
-1.967, 1.011e-3
-1.968, 1.011e-3
-1.969, 1.011e-3
-1.970, 1.011e-3
-1.971, 1.011e-3
-1.972, 1.011e-3
-1.973, 1.011e-3
-1.974, 1.011e-3
-1.975, 1.011e-3
-1.976, 1.011e-3
-1.977, 1.011e-3
-1.978, 1.011e-3
-1.979, 1.011e-3
-1.980, 1.011e-3
-1.981, 1.011e-3
-1.982, 1.011e-3
-1.983, 1.011e-3
-1.984, 1.011e-3
-1.985, 1.011e-3
-1.986, 1.011e-3
-1.987, 1.011e-3
-1.988, 1.011e-3
-1.989, 1.011e-3
-1.990, 1.011e-3
-1.991, 1.011e-3
-1.992, 1.011e-3
-1.993, 1.011e-3
-1.994, 1.011e-3
-1.995, 1.011e-3
-1.996, 1.011e-3
-1.997, 1.011e-3
-1.998, 1.011e-3
-1.999, 1.011e-3
-2.000, 1.011e-3
-2.001, 1.011e-3
-2.002, 1.011e-3
-2.003, 1.011e-3
-2.004, 1.011e-3
-2.005, 1.011e-3
-2.006, 1.011e-3
-2.007, 1.011e-3
-2.008, 1.011e-3
-2.009, 1.011e-3
-2.010, 1.011e-3
-2.011, 1.011e-3
-2.012, 1.011e-3
-2.013, 1.011e-3
-2.014, 1.011e-3
-2.015, 1.011e-3
-2.016, 1.011e-3
-2.017, 1.011e-3
-2.018, 1.011e-3
-2.019, 1.011e-3
-2.020, 1.011e-3
-2.021, 1.011e-3
-2.022, 1.011e-3
-2.023, 1.011e-3
-2.024, 1.011e-3
-2.025, 1.011e-3
-2.026, 1.011e-3
-2.027, 1.011e-3
-2.028, 1.011e-3
-2.029, 1.011e-3
-2.030, 1.011e-3
-2.031, 1.011e-3
-2.032, 1.011e-3
-2.033, 1.011e-3
-2.034, 1.011e-3
-2.035, 1.011e-3
-2.036, 1.011e-3
-2.037, 1.011e-3
-2.038, 1.011e-3
-2.039, 1.011e-3
-2.040, 1.011e-3
-2.041, 1.011e-3
-2.042, 1.011e-3
-2.043, 1.011e-3
-2.044, 1.011e-3
-2.045, 1.011e-3
-2.046, 1.011e-3
-2.047, 1.011e-3
-2.048, 1.011e-3
-2.049, 1.011e-3
-2.050, 1.011e-3
-2.051, 1.011e-3
-2.052, 1.011e-3
-2.053, 1.011e-3
-2.054, 1.011e-3
-2.055, 1.011e-3
-2.056, 1.011e-3
-2.057, 1.011e-3
-2.058, 1.011e-3
-2.059, 1.011e-3
-2.060, 1.011e-3
-2.061, 1.011e-3
-2.062, 1.011e-3
-2.063, 1.011e-3
-2.064, 1.011e-3
-2.065, 1.011e-3
-2.066, 1.011e-3
-2.067, 1.011e-3
-2.068, 1.011e-3
-2.069, 1.011e-3
-2.070, 1.011e-3
-2.071, 1.011e-3
-2.072, 1.011e-3
-2.073, 1.011e-3
-2.074, 1.011e-3
-2.075, 1.011e-3
-2.076, 1.011e-3
-2.077, 1.011e-3
-2.078, 1.011e-3
-2.079, 1.011e-3
-2.080, 1.011e-3
-2.081, 1.011e-3
-2.082, 1.011e-3
-2.083, 1.011e-3
-2.084, 1.011e-3
-2.085, 1.011e-3
-2.086, 1.011e-3
-2.087, 1.011e-3
-2.088, 1.011e-3
-2.089, 1.011e-3
-2.090, 1.011e-3
-2.091, 1.011e-3
-2.092, 1.011e-3
-2.093, 1.011e-3
-2.094, 1.011e-3
-2.095, 1.011e-3
-2.096, 1.011e-3
-2.097, 1.011e-3
-2.098, 1.011e-3
-2.099, 1.011e-3
