Potential V vs RHE, Current mA cm-2
0.4132999999999999,-0.0007618220349773224
0.4122999999999999,-0.0025464803397570656
0.4112999999999999,-0.0033457922241808117
0.4102999999999999,-0.0038451853130331694
0.4092999999999999,-0.0042512074560944356
0.4082999999999999,-0.004620447105359211
0.4072999999999999,-0.004900559942732487
0.4062999999999999,-0.005125499039411028
0.4052999999999999,-0.005360341115188624
0.4042999999999999,-0.0055838655005673
0.4032999999999999,-0.005807389885945975
0.4022999999999999,-0.005978569953229645
0.4012999999999999,-0.006104479258917633
0.4002999999999999,-0.006234632698505218
0.3992999999999999,-0.006408642188388616
0.3982999999999999,-0.006568504565273365
0.3972999999999999,-0.006667534356263918
0.3962999999999999,-0.006753831745555685
0.3952999999999999,-0.006848617402646642
0.3942999999999999,-0.0069575501727362505
0.39329999999999987,-0.00710043601402262
0.39229999999999987,-0.007186733403314387
0.39129999999999987,-0.007257468968307638
0.39029999999999987,-0.0073126427090023744
0.38929999999999987,-0.0073862076965953575
0.38829999999999987,-0.007497969889284694
0.38729999999999987,-0.007548899496079835
0.38629999999999987,-0.007613976215873628
0.38529999999999986,-0.007671979379168093
0.38429999999999986,-0.007741300232861481
0.38329999999999986,-0.00786155069335001
0.38229999999999986,-0.00789267434194704
0.38129999999999986,-0.007919553856644475
0.38029999999999986,-0.007988874710337861
0.37929999999999986,-0.008029901338033947
0.37829999999999986,-0.00812327228382504
0.37729999999999986,-0.008177031313219911
0.37629999999999986,-0.008212399095716538
0.37529999999999986,-0.008261913991211815
0.37429999999999986,-0.008318502443206416
0.37329999999999985,-0.008421776368096564
0.37229999999999985,-0.008450070594093865
0.37129999999999985,-0.008489682510490084
0.37029999999999985,-0.008526465004286577
0.36929999999999985,-0.00859720056927983
0.36829999999999985,-0.00867076555687281
0.36729999999999985,-0.008723109874967815
0.36629999999999985,-0.00874715996706552
0.36529999999999985,-0.008805163130359988
0.36429999999999985,-0.00885892215975486
0.36329999999999985,-0.00892682830214838
0.36229999999999984,-0.008982002042843116
0.36129999999999984,-0.009000393289741363
0.36029999999999984,-0.009054152319136236
0.35929999999999984,-0.009107911348531107
0.35829999999999984,-0.009185720470023683
0.35729999999999984,-0.009233820654219094
0.35629999999999984,-0.00926070016891653
0.35529999999999984,-0.009303141507912482
0.35429999999999984,-0.009375291784205599
0.35329999999999984,-0.009477150997795883
0.35229999999999984,-0.009491298110794532
0.35129999999999983,-0.009536568872390213
0.35029999999999983,-0.009584669056585622
0.34929999999999983,-0.009652575198979146
0.34829999999999983,-0.009755849123869294
0.34729999999999983,-0.009835072956661734
0.34629999999999983,-0.00985346420355998
0.34529999999999983,-0.009894490831256066
0.34429999999999983,-0.009946835149351073
0.3432999999999998,-0.01001898542564419
0.3422999999999998,-0.010060012053340275
0.3412999999999998,-0.010108112237535688
0.3402999999999998,-0.010177433091229074
0.3392999999999998,-0.010219874430225024
0.3382999999999998,-0.010328807200314634
0.3372999999999998,-0.010368419116710855
0.3362999999999998,-0.010410860455706805
0.3352999999999998,-0.010468863619001272
0.3342999999999998,-0.010526866782295738
0.3332999999999998,-0.010615993594187237
0.3322999999999998,-0.010688143870480352
0.3312999999999998,-0.010729170498176437
0.3302999999999998,-0.010795661929270096
0.3292999999999998,-0.010880544607261997
0.3282999999999998,-0.010986647954751875
0.3272999999999998,-0.011065871787544316
0.3262999999999998,-0.011112557260439863
0.3252999999999999,-0.011194610515832037
0.3242999999999999,-0.011279493193823938
0.3232999999999999,-0.01138418183001395
0.3222999999999999,-0.011490285177503827
0.3212999999999999,-0.011558191319897349
0.3202999999999999,-0.011647318131788847
0.3192999999999999,-0.01177181272617697
0.3182999999999999,-0.011897722031864958
0.3172999999999999,-0.011988263555056321
0.3162999999999999,-0.01208870805734674
0.3152999999999999,-0.01216510246753945
0.3142999999999999,-0.012298085329726764
0.3132999999999999,-0.012429653480614212
0.3122999999999999,-0.01254424509590328
0.3112999999999999,-0.012653177865992887
0.3102999999999999,-0.012767769481281955
0.3092999999999999,-0.01292621714686684
0.3082999999999999,-0.013093153080250913
0.3072999999999999,-0.013219062385938904
0.3062999999999999,-0.01335345995942608
0.3052999999999999,-0.013477954553814205
0.3042999999999999,-0.01365054933239774
0.3032999999999999,-0.013847194203078981
0.3022999999999999,-0.013980177065266292
0.3012999999999999,-0.014121648195252797
0.3002999999999999,-0.01427443701563822
0.2992999999999999,-0.014444202371622025
0.2982999999999999,-0.01465640906660178
0.2972999999999999,-0.014826174422585584
0.2962999999999999,-0.014995939778569388
0.2952999999999999,-0.015151558021554544
0.2942999999999999,-0.015349617603535646
0.2932999999999999,-0.015561824298515404
0.2922999999999999,-0.015717442541500558
0.2912999999999999,-0.01584476655848841
0.2902999999999999,-0.016000384801473564
0.2892999999999999,-0.01619844438345467
0.2882999999999999,-0.016396503965435776
0.2872999999999999,-0.01656626932141958
0.2862999999999999,-0.016693593338407434
0.2852999999999999,-0.016863358694391237
0.2842999999999999,-0.01706141827637234
0.2832999999999999,-0.0172453307453548
0.2822999999999999,-0.017400948988339954
0.2812999999999999,-0.0175282730053278
0.2802999999999999,-0.01766974413531431
0.2792999999999999,-0.017839509491298113
0.2782999999999999,-0.018009274847281917
0.2772999999999999,-0.01816489309026707
0.2762999999999999,-0.018278069994256275
0.2752999999999999,-0.018391246898245478
0.2742999999999999,-0.018546865141230634
0.2732999999999999,-0.018730777610213082
0.2722999999999999,-0.01882980740120364
0.2712999999999999,-0.01892883719219419
0.2702999999999999,-0.019042014096183394
0.2692999999999999,-0.019169338113171244
0.26829999999999987,-0.0193249563561564
0.26729999999999987,-0.019395691921149656
0.26629999999999987,-0.019480574599141553
0.26529999999999987,-0.019579604390132108
0.26429999999999987,-0.01967863418112266
0.26329999999999987,-0.019805958198110513
0.26229999999999987,-0.019876693763103765
0.26129999999999987,-0.019947429328097017
0.26029999999999986,-0.020018164893090266
0.25929999999999986,-0.020103047571082173
0.25829999999999986,-0.020244518701068675
0.25729999999999986,-0.020301107153063276
0.25629999999999986,-0.020357695605057877
0.25529999999999986,-0.02041428405705248
0.25429999999999986,-0.02048501962204573
0.25329999999999986,-0.020598196526034934
0.25229999999999986,-0.020654784978029535
0.25129999999999986,-0.020697226317025485
0.25029999999999986,-0.02073966765602144
0.24929999999999986,-0.020810403221014687
0.24829999999999985,-0.02088113878600794
0.24729999999999985,-0.020951874351001196
0.24629999999999985,-0.020966021463999843
0.24529999999999985,-0.021036757028993096
0.24429999999999985,-0.021121639706984996
0.24329999999999985,-0.0211782281589796
0.24229999999999985,-0.0212065223849769
0.24129999999999985,-0.02124896372397285
0.24029999999999985,-0.021277257949970152
0.23929999999999985,-0.021333846401964753
0.23829999999999985,-0.021404581966958002
0.23729999999999984,-0.021447023305953956
0.23629999999999984,-0.021461170418952607
0.23529999999999984,-0.021475317531951258
0.23429999999999984,-0.021546053096944507
0.23329999999999984,-0.02163093577493641
0.23229999999999984,-0.021645082887935062
0.23129999999999984,-0.021687524226931015
0.23029999999999984,-0.021701671339929663
0.22929999999999984,-0.021758259791924264
0.22829999999999984,-0.021843142469916164
0.22729999999999984,-0.021843142469916164
0.22629999999999983,-0.02185728958291482
0.22529999999999983,-0.021885583808912118
0.22429999999999983,-0.02189973092191077
0.22329999999999983,-0.02198461359990267
0.22229999999999983,-0.02198461359990267
0.22129999999999983,-0.022012907825899968
0.22029999999999983,-0.02204120205189727
0.21929999999999983,-0.02205534916489592
0.21829999999999983,-0.022140231842887825
0.21729999999999983,-0.022140231842887825
0.21629999999999983,-0.022140231842887825
0.21529999999999982,-0.022168526068885124
0.21429999999999982,-0.02218267318188378
0.21329999999999982,-0.02226755585987568
0.21229999999999982,-0.02230999719887163
0.21129999999999982,-0.022338291424868928
0.21029999999999982,-0.02239487987686353
0.20929999999999982,-0.022437321215859483
0.20829999999999982,-0.022465615441856785
0.20729999999999982,-0.022479762554855433
0.20629999999999982,-0.02245146832885813
0.20529999999999982,-0.022465615441856785
0.20429999999999982,-0.022522203893851383
0.20329999999999981,-0.022564645232847336
0.2022999999999998,-0.022592939458844635
0.2012999999999998,-0.022621233684841938
0.20029999999999992,-0.022635380797840585
0.19929999999999992,-0.022663675023837888
0.19829999999999992,-0.02270611636283384
0.19729999999999992,-0.02270611636283384
0.19629999999999992,-0.02270611636283384
0.19529999999999992,-0.02272026347583249
0.19429999999999992,-0.022819293266823044
0.19329999999999992,-0.02287588171881764
0.19229999999999992,-0.022861734605818994
0.19129999999999991,-0.02287588171881764
0.1902999999999999,-0.02287588171881764
0.1892999999999999,-0.022904175944814944
0.1882999999999999,-0.022960764396809545
0.1872999999999999,-0.022960764396809545
0.1862999999999999,-0.022974911509808196
0.1852999999999999,-0.022989058622806844
0.1842999999999999,-0.0230032057358055
0.1832999999999999,-0.023073941300798748
0.1822999999999999,-0.023073941300798748
0.1812999999999999,-0.023073941300798748
0.1802999999999999,-0.02310223552679605
0.1792999999999999,-0.02313052975279335
0.1782999999999999,-0.0232012653177866
0.1772999999999999,-0.0232012653177866
0.1762999999999999,-0.023215412430785252
0.1752999999999999,-0.0232295595437839
0.1742999999999999,-0.02327200088277985
0.1732999999999999,-0.023342736447773106
0.1722999999999999,-0.023356883560771757
0.1712999999999999,-0.023328589334774455
0.1702999999999999,-0.023371030673770405
0.1692999999999999,-0.023427619125765006
0.1682999999999999,-0.02352664891675556
0.1672999999999999,-0.02355494314275286
0.1662999999999999,-0.02354079602975421
0.1652999999999999,-0.02352664891675556
0.1642999999999999,-0.02356909025575151
0.1632999999999999,-0.023611531594747465
0.1622999999999999,-0.02365397293374341
0.1612999999999999,-0.02365397293374341
0.1602999999999999,-0.023668120046742062
0.1592999999999999,-0.023710561385738016
0.15829999999999989,-0.023767149837732617
0.15729999999999988,-0.023753002724733966
0.15629999999999988,-0.02378129695073127
0.15529999999999988,-0.023767149837732617
0.15429999999999988,-0.023809591176728567
0.15329999999999988,-0.023866179628723165
0.15229999999999988,-0.02389447385472047
0.15129999999999988,-0.02389447385472047
0.15029999999999988,-0.02390862096771912
0.14929999999999988,-0.02395106230671507
0.14829999999999988,-0.024021797871708325
0.14729999999999988,-0.024035944984706972
0.14629999999999987,-0.024064239210704275
0.14529999999999987,-0.024092533436701577
0.14429999999999987,-0.024120827662698876
0.14329999999999987,-0.024191563227692125
0.14229999999999987,-0.02420571034069078
0.14129999999999987,-0.02420571034069078
0.14029999999999987,-0.024219857453689427
0.13929999999999987,-0.02423400456668808
0.13829999999999987,-0.024304740131681327
0.13729999999999987,-0.024318887244679982
0.13629999999999987,-0.02434718147067728
0.13529999999999986,-0.024375475696674583
0.13429999999999986,-0.02438962280967323
0.13329999999999986,-0.024432064148669184
0.13229999999999986,-0.024460358374666487
0.13129999999999986,-0.024446211261667832
0.13029999999999986,-0.024460358374666487
0.12929999999999986,-0.024502799713662437
0.12829999999999986,-0.024545241052658383
0.12729999999999986,-0.024559388165657038
0.12629999999999986,-0.024559388165657038
0.12529999999999986,-0.024559388165657038
0.12429999999999986,-0.02461597661765164
0.12329999999999985,-0.02467256506964624
0.12229999999999985,-0.02468671218264489
0.12129999999999985,-0.02468671218264489
0.12029999999999985,-0.02468671218264489
0.11929999999999985,-0.02474330063463949
0.11829999999999985,-0.024785741973635443
0.11729999999999985,-0.02479988908663409
0.11629999999999985,-0.024814036199632745
0.11529999999999985,-0.024814036199632745
0.11429999999999985,-0.024884771764625994
0.11329999999999985,-0.0249413602166206
0.11229999999999984,-0.024955507329619247
0.11129999999999984,-0.024955507329619247
0.11029999999999984,-0.024955507329619247
0.10929999999999984,-0.024983801555616546
0.10829999999999984,-0.025040390007611147
0.10729999999999984,-0.0250545371206098
0.10629999999999984,-0.02506868423360845
0.10529999999999984,-0.02509697845960575
0.10429999999999984,-0.02515356691160035
0.10329999999999984,-0.025238449589592253
0.10229999999999984,-0.025238449589592253
0.10129999999999983,-0.025224302476593602
0.10029999999999983,-0.025252596702590904
0.09929999999999983,-0.025280890928588207
0.09829999999999983,-0.025337479380582808
0.09729999999999983,-0.025323332267584157
0.09629999999999983,-0.025337479380582808
0.09529999999999983,-0.025365773606580107
0.09429999999999983,-0.02539406783257741
0.09329999999999983,-0.02545065628457201
0.09229999999999983,-0.02547895051056931
0.09129999999999983,-0.025493097623567964
0.09029999999999982,-0.025521391849565263
0.08929999999999982,-0.025577980301559864
0.08829999999999982,-0.02562042164055581
0.08729999999999982,-0.025648715866553113
0.08629999999999982,-0.025634568753554465
0.08529999999999982,-0.025677010092550415
0.08429999999999982,-0.025747745657543668
0.08329999999999982,-0.02580433410953827
0.08229999999999982,-0.025832628335535568
0.08129999999999982,-0.025860922561532867
0.08029999999999982,-0.025889216787530173
0.07929999999999982,-0.025959952352523425
0.07829999999999981,-0.02600239369151937
0.07729999999999981,-0.026016540804518026
0.07629999999999981,-0.026016540804518026
0.07529999999999992,-0.026030687917516674
0.07429999999999992,-0.026073129256512624
0.07329999999999992,-0.026172159047503182
0.07229999999999992,-0.026172159047503182
0.07129999999999992,-0.02621460038649913
0.07029999999999992,-0.02620045327350048
0.06929999999999992,-0.02627118883849373
0.06829999999999992,-0.026341924403486983
0.06729999999999992,-0.026341924403486983
0.06629999999999991,-0.026384365742482933
0.06529999999999991,-0.026426807081478886
0.06429999999999991,-0.026483395533473487
0.06329999999999991,-0.02661071955046134
0.06229999999999991,-0.02661071955046134
0.06129999999999991,-0.02662486666345999
0.06029999999999991,-0.02665316088945729
0.05929999999999991,-0.02668145511545459
0.05829999999999991,-0.02673804356744919
0.05729999999999991,-0.026780484906445145
0.056299999999999906,-0.026808779132442447
0.055299999999999905,-0.026865367584437045
0.054299999999999904,-0.02692195603643165
0.0532999999999999,-0.026992691601424906
0.0522999999999999,-0.02703513294042085
0.0512999999999999,-0.02703513294042085
0.0502999999999999,-0.027063427166418155
0.0492999999999999,-0.027120015618412752
0.0482999999999999,-0.027162456957408702
0.0472999999999999,-0.027219045409403307
0.0462999999999999,-0.027219045409403307
0.045299999999999896,-0.027247339635400606
0.044299999999999895,-0.027332222313392506
0.043299999999999894,-0.02738881076538711
0.04229999999999989,-0.027459546330380363
0.04129999999999989,-0.027530281895373616
0.04029999999999989,-0.02762931168636417
0.03929999999999989,-0.027714194364356067
0.03829999999999989,-0.02774248859035337
0.03729999999999989,-0.02775663570335202
0.03629999999999989,-0.02775663570335202
0.03529999999999989,-0.02775663570335202
0.034299999999999886,-0.027841518381343924
0.033299999999999885,-0.027926401059335824
0.032299999999999884,-0.027954695285333123
0.031299999999999883,-0.027982989511330426
0.030299999999999883,-0.02802543085032638
0.02929999999999988,-0.028082019302320977
0.02829999999999988,-0.028124460641316927
0.02729999999999988,-0.02815275486731423
0.02629999999999988,-0.028181049093311532
0.025299999999999878,-0.02820934331930883
0.024299999999999877,-0.028280078884302083
0.023299999999999876,-0.028393255788291286
0.022299999999999875,-0.028463991353284535
0.021299999999999875,-0.02854887403127644
0.020299999999999874,-0.02860546248327104
0.019299999999999873,-0.028647903822266993
0.018299999999999872,-0.028732786500258897
0.01729999999999987,-0.028746933613257548
0.01629999999999987,-0.028789374952253494
0.01529999999999987,-0.028817669178250797
0.014299999999999868,-0.02888840474324405
0.013299999999999867,-0.0289591403082373
0.012299999999999978,-0.029001581647233248
0.011299999999999866,-0.029058170099227856
0.010299999999999976,-0.02912890566422111
0.009299999999999864,-0.02921378834221301
0.008299999999999974,-0.029298671020204912
0.007299999999999862,-0.029341112359200863
0.006299999999999972,-0.029369406585198165
0.00529999999999986,-0.029425995037192763
0.0042999999999999705,-0.02949673060218601
0.0032999999999998586,-0.02959576039317657
0.0022999999999999687,-0.029652348845171168
0.0012999999999998568,-0.02968064307116847
0.00029999999999996696,-0.02972308441016442
-0.000700000000000145,-0.02979381997515767
-0.0017000000000000348,-0.029892849766148224
-0.0027000000000001467,-0.029921143992145526
-0.0037000000000000366,-0.029977732444140127
-0.0047000000000001485,-0.030034320896134725
-0.005700000000000038,-0.030133350687125283
-0.00670000000000015,-0.030246527591114486
-0.00770000000000004,-0.030303116043109087
-0.008700000000000152,-0.030373851608102336
-0.009700000000000042,-0.030416292947098293
-0.010700000000000154,-0.030487028512091542
-0.011700000000000044,-0.03058605830308209
-0.012700000000000156,-0.03058605830308209
-0.013700000000000045,-0.030600205416080745
-0.014700000000000157,-0.030628499642078044
-0.015700000000000047,-0.030670940981073994
-0.01670000000000016,-0.030755823659065897
-0.01770000000000005,-0.030784117885063196
-0.01870000000000016,-0.03082655922405915
-0.01970000000000005,-0.03085485345005645
-0.020700000000000163,-0.030911441902051046
-0.021700000000000053,-0.03099632458004295
-0.022700000000000164,-0.03103876591903891
-0.023700000000000054,-0.031095354371033508
-0.024700000000000166,-0.03110950148403216
-0.025700000000000056,-0.031166089936026757
-0.026700000000000168,-0.031250972614018664
-0.027700000000000058,-0.03129341395301461
-0.02870000000000017,-0.03133585529201056
-0.02970000000000006,-0.031434885083001116
-0.03070000000000017,-0.031533914873991674
-0.03170000000000006,-0.03161879755198357
-0.03270000000000017,-0.03163294466498222
-0.03370000000000006,-0.03164709177798087
-0.034700000000000175,-0.03164709177798087
-0.035700000000000065,-0.03174612156897143
-0.03670000000000018,-0.031802710020966025
-0.03770000000000007,-0.03184515135996198
-0.03870000000000018,-0.031873445585959274
-0.03970000000000007,-0.03191588692495523
-0.04070000000000018,-0.031972475376949826
-0.04170000000000007,-0.032057358054941726
-0.04270000000000018,-0.03209979939393768
-0.04370000000000007,-0.03217053495893094
-0.044700000000000184,-0.03219882918492823
-0.045700000000000074,-0.03229785897591879
-0.046700000000000186,-0.03238274165391069
-0.047700000000000076,-0.03243933010590529
-0.04870000000000019,-0.03249591855789989
-0.04970000000000008,-0.032524212783897194
-0.05070000000000019,-0.03259494834889044
-0.05170000000000008,-0.032693978139880994
-0.05270000000000019,-0.032708125252879645
-0.05370000000000008,-0.0327505665918756
-0.05470000000000019,-0.03279300793087155
-0.05570000000000008,-0.03289203772186211
-0.056700000000000195,-0.032976920399854
-0.057700000000000085,-0.033005214625851306
-0.058700000000000196,-0.033061803077845904
-0.059700000000000086,-0.033090097303843206
-0.0607000000000002,-0.033146685755837804
-0.06170000000000009,-0.033274009772825665
-0.0627000000000002,-0.03330230399882296
-0.06370000000000009,-0.03330230399882296
-0.0647000000000002,-0.03333059822482026
