Apr. 26, 2025   00:02:39
Cyclic Voltammetry
File: c:/users/guazh/data/banditlqround7_x0exp590_r20/2025-04-16-exp1190\exp1190-2025-04-25t23_57_45-arkoh\exp1190_cv_50mvs_efin_-1400mv.bin
Data Source:  Experiment
Instrument Model:  CHI760E
Header: CV ran at 50 mVs
Note: 

Init E (V) = -1
High E (V) = -1
Low E (V) = -1.4
Final E (V) = -1
Init P/N = N
Scan Rate (V/s) = 0.05
Segment = 7
Sample Interval (V) = 0.001
Quiet Time (sec) = 60
Sensitivity (A/V) = 0.001
Comp R (ohm) = 1.8

Results:

Channel 1:
Segment 1:
Ep = -1.217V
ip = 1.758e-6A
Ah = 1.744e-6C

Segment 2:

Segment 3:
Ep = -1.198V
ip = 1.577e-7A
Ah = 1.789e-7C

Segment 4:

Segment 5:

Segment 6:

Segment 7:

Potential/V, Current/A

-1.000, 7.171e-7
-1.001, 8.236e-7
-1.002, 9.321e-7
-1.003, 9.321e-7
-1.004, 9.213e-7
-1.005, 9.272e-7
-1.006, 9.420e-7
-1.007, 1.024e-6
-1.008, 9.982e-7
-1.009, 9.973e-7
-1.010, 9.746e-7
-1.011, 1.016e-6
-1.012, 1.105e-6
-1.013, 1.039e-6
-1.014, 1.044e-6
-1.015, 1.029e-6
-1.016, 1.046e-6
-1.017, 1.139e-6
-1.018, 1.095e-6
-1.019, 1.069e-6
-1.020, 1.077e-6
-1.021, 1.106e-6
-1.022, 1.150e-6
-1.023, 1.138e-6
-1.024, 1.161e-6
-1.025, 1.103e-6
-1.026, 1.150e-6
-1.027, 1.196e-6
-1.028, 1.180e-6
-1.029, 1.178e-6
-1.030, 1.154e-6
-1.031, 1.197e-6
-1.032, 1.233e-6
-1.033, 1.189e-6
-1.034, 1.206e-6
-1.035, 1.178e-6
-1.036, 1.244e-6
-1.037, 1.284e-6
-1.038, 1.277e-6
-1.039, 1.251e-6
-1.040, 1.233e-6
-1.041, 1.265e-6
-1.042, 1.319e-6
-1.043, 1.317e-6
-1.044, 1.309e-6
-1.045, 1.263e-6
-1.046, 1.328e-6
-1.047, 1.373e-6
-1.048, 1.351e-6
-1.049, 1.356e-6
-1.050, 1.290e-6
-1.051, 1.350e-6
-1.052, 1.419e-6
-1.053, 1.392e-6
-1.054, 1.371e-6
-1.055, 1.360e-6
-1.056, 1.409e-6
-1.057, 1.450e-6
-1.058, 1.428e-6
-1.059, 1.398e-6
-1.060, 1.397e-6
-1.061, 1.443e-6
-1.062, 1.496e-6
-1.063, 1.480e-6
-1.064, 1.463e-6
-1.065, 1.408e-6
-1.066, 1.485e-6
-1.067, 1.544e-6
-1.068, 1.545e-6
-1.069, 1.525e-6
-1.070, 1.483e-6
-1.071, 1.535e-6
-1.072, 1.589e-6
-1.073, 1.580e-6
-1.074, 1.558e-6
-1.075, 1.507e-6
-1.076, 1.584e-6
-1.077, 1.626e-6
-1.078, 1.619e-6
-1.079, 1.595e-6
-1.080, 1.577e-6
-1.081, 1.647e-6
-1.082, 1.675e-6
-1.083, 1.658e-6
-1.084, 1.619e-6
-1.085, 1.608e-6
-1.086, 1.672e-6
-1.087, 1.717e-6
-1.088, 1.708e-6
-1.089, 1.700e-6
-1.090, 1.682e-6
-1.091, 1.723e-6
-1.092, 1.752e-6
-1.093, 1.798e-6
-1.094, 1.739e-6
-1.095, 1.720e-6
-1.096, 1.766e-6
-1.097, 1.823e-6
-1.098, 1.800e-6
-1.099, 1.801e-6
-1.100, 1.746e-6
-1.101, 1.819e-6
-1.102, 1.849e-6
-1.103, 1.873e-6
-1.104, 1.866e-6
-1.105, 1.839e-6
-1.106, 1.873e-6
-1.107, 1.914e-6
-1.108, 1.939e-6
-1.109, 1.903e-6
-1.110, 1.864e-6
-1.111, 1.938e-6
-1.112, 1.982e-6
-1.113, 2.024e-6
-1.114, 1.956e-6
-1.115, 1.953e-6
-1.116, 1.999e-6
-1.117, 2.066e-6
-1.118, 2.050e-6
-1.119, 2.032e-6
-1.120, 2.000e-6
-1.121, 2.084e-6
-1.122, 2.109e-6
-1.123, 2.156e-6
-1.124, 2.087e-6
-1.125, 2.107e-6
-1.126, 2.132e-6
-1.127, 2.204e-6
-1.128, 2.168e-6
-1.129, 2.179e-6
-1.130, 2.172e-6
-1.131, 2.199e-6
-1.132, 2.284e-6
-1.133, 2.285e-6
-1.134, 2.228e-6
-1.135, 2.236e-6
-1.136, 2.278e-6
-1.137, 2.331e-6
-1.138, 2.344e-6
-1.139, 2.341e-6
-1.140, 2.343e-6
-1.141, 2.376e-6
-1.142, 2.450e-6
-1.143, 2.483e-6
-1.144, 2.409e-6
-1.145, 2.427e-6
-1.146, 2.452e-6
-1.147, 2.512e-6
-1.148, 2.547e-6
-1.149, 2.515e-6
-1.150, 2.488e-6
-1.151, 2.560e-6
-1.152, 2.617e-6
-1.153, 2.666e-6
-1.154, 2.594e-6
-1.155, 2.632e-6
-1.156, 2.670e-6
-1.157, 2.746e-6
-1.158, 2.770e-6
-1.159, 2.714e-6
-1.160, 2.756e-6
-1.161, 2.787e-6
-1.162, 2.887e-6
-1.163, 2.912e-6
-1.164, 2.888e-6
-1.165, 2.912e-6
-1.166, 2.935e-6
-1.167, 3.001e-6
-1.168, 3.047e-6
-1.169, 3.048e-6
-1.170, 3.046e-6
-1.171, 3.071e-6
-1.172, 3.155e-6
-1.173, 3.191e-6
-1.174, 3.202e-6
-1.175, 3.207e-6
-1.176, 3.213e-6
-1.177, 3.332e-6
-1.178, 3.371e-6
-1.179, 3.335e-6
-1.180, 3.388e-6
-1.181, 3.410e-6
-1.182, 3.517e-6
-1.183, 3.540e-6
-1.184, 3.512e-6
-1.185, 3.543e-6
-1.186, 3.579e-6
-1.187, 3.658e-6
-1.188, 3.695e-6
-1.189, 3.682e-6
-1.190, 3.730e-6
-1.191, 3.755e-6
-1.192, 3.855e-6
-1.193, 3.869e-6
-1.194, 3.864e-6
-1.195, 3.856e-6
-1.196, 3.928e-6
-1.197, 4.016e-6
-1.198, 4.028e-6
-1.199, 4.006e-6
-1.200, 4.051e-6
-1.201, 4.086e-6
-1.202, 4.169e-6
-1.203, 4.189e-6
-1.204, 4.203e-6
-1.205, 4.157e-6
-1.206, 4.223e-6
-1.207, 4.304e-6
-1.208, 4.332e-6
-1.209, 4.267e-6
-1.210, 4.281e-6
-1.211, 4.309e-6
-1.212, 4.406e-6
-1.213, 4.407e-6
-1.214, 4.364e-6
-1.215, 4.363e-6
-1.216, 4.361e-6
-1.217, 4.441e-6
-1.218, 4.405e-6
-1.219, 4.402e-6
-1.220, 4.342e-6
-1.221, 4.348e-6
-1.222, 4.394e-6
-1.223, 4.411e-6
-1.224, 4.364e-6
-1.225, 4.345e-6
-1.226, 4.350e-6
-1.227, 4.385e-6
-1.228, 4.313e-6
-1.229, 4.293e-6
-1.230, 4.257e-6
-1.231, 4.267e-6
-1.232, 4.324e-6
-1.233, 4.241e-6
-1.234, 4.216e-6
-1.235, 4.148e-6
-1.236, 4.159e-6
-1.237, 4.188e-6
-1.238, 4.152e-6
-1.239, 4.091e-6
-1.240, 4.044e-6
-1.241, 4.030e-6
-1.242, 4.103e-6
-1.243, 4.012e-6
-1.244, 3.982e-6
-1.245, 3.902e-6
-1.246, 3.925e-6
-1.247, 3.946e-6
-1.248, 3.917e-6
-1.249, 3.851e-6
-1.250, 3.822e-6
-1.251, 3.830e-6
-1.252, 3.866e-6
-1.253, 3.839e-6
-1.254, 3.776e-6
-1.255, 3.768e-6
-1.256, 3.756e-6
-1.257, 3.814e-6
-1.258, 3.788e-6
-1.259, 3.701e-6
-1.260, 3.669e-6
-1.261, 3.681e-6
-1.262, 3.728e-6
-1.263, 3.703e-6
-1.264, 3.667e-6
-1.265, 3.620e-6
-1.266, 3.633e-6
-1.267, 3.685e-6
-1.268, 3.680e-6
-1.269, 3.644e-6
-1.270, 3.604e-6
-1.271, 3.629e-6
-1.272, 3.667e-6
-1.273, 3.657e-6
-1.274, 3.644e-6
-1.275, 3.592e-6
-1.276, 3.621e-6
-1.277, 3.660e-6
-1.278, 3.626e-6
-1.279, 3.617e-6
-1.280, 3.591e-6
-1.281, 3.657e-6
-1.282, 3.666e-6
-1.283, 3.674e-6
-1.284, 3.635e-6
-1.285, 3.588e-6
-1.286, 3.666e-6
-1.287, 3.664e-6
-1.288, 3.675e-6
-1.289, 3.657e-6
-1.290, 3.579e-6
-1.291, 3.637e-6
-1.292, 3.689e-6
-1.293, 3.680e-6
-1.294, 3.705e-6
-1.295, 3.629e-6
-1.296, 3.667e-6
-1.297, 3.706e-6
-1.298, 3.718e-6
-1.299, 3.666e-6
-1.300, 3.642e-6
-1.301, 3.714e-6
-1.302, 3.731e-6
-1.303, 3.736e-6
-1.304, 3.722e-6
-1.305, 3.675e-6
-1.306, 3.712e-6
-1.307, 3.768e-6
-1.308, 3.785e-6
-1.309, 3.716e-6
-1.310, 3.673e-6
-1.311, 3.736e-6
-1.312, 3.794e-6
-1.313, 3.763e-6
-1.314, 3.753e-6
-1.315, 3.680e-6
-1.316, 3.751e-6
-1.317, 3.780e-6
-1.318, 3.780e-6
-1.319, 3.781e-6
-1.320, 3.724e-6
-1.321, 3.737e-6
-1.322, 3.779e-6
-1.323, 3.790e-6
-1.324, 3.736e-6
-1.325, 3.728e-6
-1.326, 3.764e-6
-1.327, 3.806e-6
-1.328, 3.810e-6
-1.329, 3.726e-6
-1.330, 3.725e-6
-1.331, 3.748e-6
-1.332, 3.776e-6
-1.333, 3.823e-6
-1.334, 3.748e-6
-1.335, 3.710e-6
-1.336, 3.759e-6
-1.337, 3.818e-6
-1.338, 3.808e-6
-1.339, 3.747e-6
-1.340, 3.719e-6
-1.341, 3.742e-6
-1.342, 3.763e-6
-1.343, 3.791e-6
-1.344, 3.764e-6
-1.345, 3.754e-6
-1.346, 3.802e-6
-1.347, 3.802e-6
-1.348, 3.814e-6
-1.349, 3.731e-6
-1.350, 3.744e-6
-1.351, 3.806e-6
-1.352, 3.836e-6
-1.353, 3.914e-6
-1.354, 3.871e-6
-1.355, 3.890e-6
-1.356, 3.922e-6
-1.357, 4.002e-6
-1.358, 4.113e-6
-1.359, 3.991e-6
-1.360, 4.025e-6
-1.361, 4.144e-6
-1.362, 4.259e-6
-1.363, 4.272e-6
-1.364, 4.217e-6
-1.365, 4.524e-6
-1.366, 4.629e-6
-1.367, 4.656e-6
-1.368, 4.606e-6
-1.369, 4.528e-6
-1.370, 4.462e-6
-1.371, 4.407e-6
-1.372, 4.415e-6
-1.373, 4.413e-6
-1.374, 4.320e-6
-1.375, 4.307e-6
-1.376, 4.363e-6
-1.377, 4.410e-6
-1.378, 4.455e-6
-1.379, 4.365e-6
-1.380, 4.444e-6
-1.381, 4.593e-6
-1.382, 4.743e-6
-1.383, 4.921e-6
-1.384, 5.155e-6
-1.385, 5.342e-6
-1.386, 5.444e-6
-1.387, 5.535e-6
-1.388, 5.597e-6
-1.389, 5.664e-6
-1.390, 5.848e-6
-1.391, 5.795e-6
-1.392, 5.962e-6
-1.393, 5.975e-6
-1.394, 5.898e-6
-1.395, 5.781e-6
-1.396, 5.750e-6
-1.397, 5.887e-6
-1.398, 5.877e-6
-1.399, 5.830e-6
-1.400, 5.084e-6
-1.399, 4.869e-6
-1.398, 4.855e-6
-1.397, 4.751e-6
-1.396, 4.441e-6
-1.395, 4.458e-6
-1.394, 4.397e-6
-1.393, 4.279e-6
-1.392, 4.051e-6
-1.391, 3.695e-6
-1.390, 3.464e-6
-1.389, 3.360e-6
-1.388, 3.347e-6
-1.387, 3.334e-6
-1.386, 3.214e-6
-1.385, 2.971e-6
-1.384, 2.773e-6
-1.383, 2.760e-6
-1.382, 2.765e-6
-1.381, 2.669e-6
-1.380, 2.492e-6
-1.379, 2.373e-6
-1.378, 2.455e-6
-1.377, 2.375e-6
-1.376, 2.225e-6
-1.375, 2.080e-6
-1.374, 2.006e-6
-1.373, 1.988e-6
-1.372, 1.902e-6
-1.371, 1.808e-6
-1.370, 1.662e-6
-1.369, 1.640e-6
-1.368, 1.655e-6
-1.367, 1.585e-6
-1.366, 1.485e-6
-1.365, 1.420e-6
-1.364, 1.424e-6
-1.363, 1.457e-6
-1.362, 1.374e-6
-1.361, 1.299e-6
-1.360, 1.237e-6
-1.359, 1.253e-6
-1.358, 1.240e-6
-1.357, 1.235e-6
-1.356, 1.190e-6
-1.355, 1.116e-6
-1.354, 1.154e-6
-1.353, 1.191e-6
-1.352, 1.189e-6
-1.351, 1.093e-6
-1.350, 1.048e-6
-1.349, 1.558e-6
-1.348, 1.143e-6
-1.347, 1.841e-6
-1.346, 2.888e-6
-1.345, 2.428e-6
-1.344, 2.230e-6
-1.343, 2.242e-6
-1.342, 2.194e-6
-1.341, 2.174e-6
-1.340, 2.151e-6
-1.339, 2.199e-6
-1.338, 2.234e-6
-1.337, 2.175e-6
-1.336, 2.115e-6
-1.335, 2.061e-6
-1.334, 2.050e-6
-1.333, 2.085e-6
-1.332, 2.136e-6
-1.331, 2.035e-6
-1.330, 1.964e-6
-1.329, 1.978e-6
-1.328, 1.953e-6
-1.327, 1.963e-6
-1.326, 1.856e-6
-1.325, 1.832e-6
-1.324, 1.828e-6
-1.323, 1.783e-6
-1.322, 1.731e-6
-1.321, 1.675e-6
-1.320, 1.673e-6
-1.319, 1.659e-6
-1.318, 1.671e-6
-1.317, 1.664e-6
-1.316, 1.598e-6
-1.315, 1.567e-6
-1.314, 1.576e-6
-1.313, 1.562e-6
-1.312, 1.576e-6
-1.311, 1.537e-6
-1.310, 1.478e-6
-1.309, 1.514e-6
-1.308, 1.496e-6
-1.307, 1.529e-6
-1.306, 1.408e-6
-1.305, 1.337e-6
-1.304, 1.420e-6
-1.303, 1.438e-6
-1.302, 1.432e-6
-1.301, 1.360e-6
-1.300, 1.272e-6
-1.299, 1.258e-6
-1.298, 1.251e-6
-1.297, 1.278e-6
-1.296, 1.209e-6
-1.295, 1.165e-6
-1.294, 1.181e-6
-1.293, 1.210e-6
-1.292, 1.213e-6
-1.291, 1.164e-6
-1.290, 1.186e-6
-1.289, 1.193e-6
-1.288, 1.306e-6
-1.287, 1.284e-6
-1.286, 1.218e-6
-1.285, 1.185e-6
-1.284, 1.192e-6
-1.283, 1.215e-6
-1.282, 1.273e-6
-1.281, 1.135e-6
-1.280, 1.092e-6
-1.279, 1.116e-6
-1.278, 1.099e-6
-1.277, 1.144e-6
-1.276, 1.038e-6
-1.275, 1.034e-6
-1.274, 1.010e-6
-1.273, 1.005e-6
-1.272, 1.019e-6
-1.271, 9.578e-7
-1.270, 8.927e-7
-1.269, 1.096e-6
-1.268, 1.199e-6
-1.267, 1.148e-6
-1.266, 1.119e-6
-1.265, 1.080e-6
-1.264, 1.074e-6
-1.263, 1.086e-6
-1.262, 1.122e-6
-1.261, 1.020e-6
-1.260, 9.726e-7
-1.259, 9.519e-7
-1.258, 9.874e-7
-1.257, 1.017e-6
-1.256, 9.341e-7
-1.255, 8.700e-7
-1.254, 8.493e-7
-1.253, 8.631e-7
-1.252, 8.798e-7
-1.251, 7.733e-7
-1.250, 7.555e-7
-1.249, 7.200e-7
-1.248, 7.476e-7
-1.247, 7.753e-7
-1.246, 6.391e-7
-1.245, 6.421e-7
-1.244, 5.947e-7
-1.243, 6.756e-7
-1.242, 6.283e-7
-1.241, 5.572e-7
-1.240, 4.980e-7
-1.239, 4.901e-7
-1.238, 5.286e-7
-1.237, 5.089e-7
-1.236, 4.724e-7
-1.235, 3.609e-7
-1.234, 4.152e-7
-1.233, 4.300e-7
-1.232, 4.526e-7
-1.231, 3.796e-7
-1.230, 3.135e-7
-1.229, 2.928e-7
-1.228, 3.599e-7
-1.227, 3.313e-7
-1.226, 2.770e-7
-1.225, 2.317e-7
-1.224, 2.159e-7
-1.223, 2.060e-7
-1.222, 2.257e-7
-1.221, 1.803e-7
-1.220, 1.458e-7
-1.219, 1.162e-7
-1.218, 1.596e-7
-1.217, 1.606e-7
-1.216, 8.958e-8
-1.215, 6.886e-8
-1.214, 4.025e-8
-1.213, 1.162e-7
-1.212, 1.044e-7
-1.211, 2.545e-8
-1.210, -1.598e-8
-1.209, -2.388e-8
-1.208, 3.236e-8
-1.207, -4.144e-9
-1.206, -8.090e-9
-1.205, -9.590e-8
-1.204, -9.392e-8
-1.203, -4.459e-8
-1.202, -4.459e-8
-1.201, -1.146e-7
-1.200, -1.452e-7
-1.199, -1.521e-7
-1.198, -9.195e-8
-1.197, -1.265e-7
-1.196, -1.650e-7
-1.195, -2.084e-7
-1.194, -1.926e-7
-1.193, -1.620e-7
-1.192, -1.551e-7
-1.191, -2.094e-7
-1.190, -3.031e-7
-1.189, -2.626e-7
-1.188, -2.163e-7
-1.187, -2.084e-7
-1.186, -2.508e-7
-1.185, -3.386e-7
-1.184, -3.051e-7
-1.183, -2.695e-7
-1.182, -2.863e-7
-1.181, -3.080e-7
-1.180, -3.860e-7
-1.179, -3.702e-7
-1.178, -3.307e-7
-1.177, -3.258e-7
-1.176, -3.376e-7
-1.175, -4.126e-7
-1.174, -3.810e-7
-1.173, -3.643e-7
-1.172, -3.662e-7
-1.171, -4.234e-7
-1.170, -4.698e-7
-1.169, -4.521e-7
-1.168, -4.086e-7
-1.167, -4.017e-7
-1.166, -4.619e-7
-1.165, -5.034e-7
-1.164, -5.182e-7
-1.163, -4.757e-7
-1.162, -4.649e-7
-1.161, -4.965e-7
-1.160, -5.724e-7
-1.159, -5.379e-7
-1.158, -5.063e-7
-1.157, -4.905e-7
-1.156, -5.330e-7
-1.155, -6.020e-7
-1.154, -6.070e-7
-1.153, -5.724e-7
-1.152, -5.616e-7
-1.151, -6.030e-7
-1.150, -6.829e-7
-1.149, -6.375e-7
-1.148, -6.306e-7
-1.147, -6.089e-7
-1.146, -6.119e-7
-1.145, -6.859e-7
-1.144, -6.740e-7
-1.143, -6.375e-7
-1.142, -6.129e-7
-1.141, -6.750e-7
-1.140, -7.244e-7
-1.139, -7.194e-7
-1.138, -6.661e-7
-1.137, -6.523e-7
-1.136, -7.145e-7
-1.135, -7.618e-7
-1.134, -7.540e-7
-1.133, -7.401e-7
-1.132, -6.849e-7
-1.131, -7.510e-7
-1.130, -8.171e-7
-1.129, -8.092e-7
-1.128, -7.984e-7
-1.127, -7.618e-7
-1.126, -8.280e-7
-1.125, -8.704e-7
-1.124, -8.339e-7
-1.123, -8.339e-7
-1.122, -7.905e-7
-1.121, -8.763e-7
-1.120, -9.148e-7
-1.119, -8.595e-7
-1.118, -8.556e-7
-1.117, -8.319e-7
-1.116, -9.059e-7
-1.115, -9.483e-7
-1.114, -9.424e-7
-1.113, -8.950e-7
-1.112, -8.733e-7
-1.111, -9.217e-7
-1.110, -9.917e-7
-1.109, -9.710e-7
-1.108, -9.592e-7
-1.107, -9.167e-7
-1.106, -9.592e-7
-1.105, -1.031e-6
-1.104, -1.008e-6
-1.103, -1.011e-6
-1.102, -9.809e-7
-1.101, -1.057e-6
-1.100, -1.041e-6
-1.099, -1.075e-6
-1.098, -1.053e-6
-1.097, -1.009e-6
-1.096, -1.073e-6
-1.095, -1.114e-6
-1.094, -1.112e-6
-1.093, -1.085e-6
-1.092, -1.027e-6
-1.091, -1.112e-6
-1.090, -1.152e-6
-1.089, -1.180e-6
-1.088, -1.112e-6
-1.087, -1.111e-6
-1.086, -1.166e-6
-1.085, -1.202e-6
-1.084, -1.194e-6
-1.083, -1.167e-6
-1.082, -1.122e-6
-1.081, -1.219e-6
-1.080, -1.206e-6
-1.079, -1.228e-6
-1.078, -1.209e-6
-1.077, -1.166e-6
-1.076, -1.233e-6
-1.075, -1.281e-6
-1.074, -1.259e-6
-1.073, -1.229e-6
-1.072, -1.176e-6
-1.071, -1.279e-6
-1.070, -1.298e-6
-1.069, -1.311e-6
-1.068, -1.214e-6
-1.067, -1.239e-6
-1.066, -1.300e-6
-1.065, -1.311e-6
-1.064, -1.339e-6
-1.063, -1.241e-6
-1.062, -1.245e-6
-1.061, -1.299e-6
-1.060, -1.314e-6
-1.059, -1.353e-6
-1.058, -1.266e-6
-1.057, -1.263e-6
-1.056, -1.343e-6
-1.055, -1.336e-6
-1.054, -1.360e-6
-1.053, -1.288e-6
-1.052, -1.275e-6
-1.051, -1.366e-6
-1.050, -1.348e-6
-1.049, -1.393e-6
-1.048, -1.275e-6
-1.047, -1.297e-6
-1.046, -1.357e-6
-1.045, -1.345e-6
-1.044, -1.383e-6
-1.043, -1.295e-6
-1.042, -1.295e-6
-1.041, -1.331e-6
-1.040, -1.326e-6
-1.039, -1.395e-6
-1.038, -1.286e-6
-1.037, -1.293e-6
-1.036, -1.319e-6
-1.035, -1.364e-6
-1.034, -1.347e-6
-1.033, -1.317e-6
-1.032, -1.288e-6
-1.031, -1.313e-6
-1.030, -1.351e-6
-1.029, -1.377e-6
-1.028, -1.264e-6
-1.027, -1.304e-6
-1.026, -1.326e-6
-1.025, -1.366e-6
-1.024, -1.334e-6
-1.023, -1.282e-6
-1.022, -1.282e-6
-1.021, -1.343e-6
-1.020, -1.321e-6
-1.019, -1.345e-6
-1.018, -1.268e-6
-1.017, -1.247e-6
-1.016, -1.292e-6
-1.015, -1.325e-6
-1.014, -1.342e-6
-1.013, -1.279e-6
-1.012, -1.226e-6
-1.011, -1.311e-6
-1.010, -1.310e-6
-1.009, -1.349e-6
-1.008, -1.230e-6
-1.007, -1.254e-6
-1.006, -1.307e-6
-1.005, -1.330e-6
-1.004, -1.332e-6
-1.003, -1.271e-6
-1.002, -1.250e-6
-1.001, -1.264e-6
-1.000, -3.869e-7
-1.001, -1.067e-7
-1.002, 1.202e-7
-1.003, 1.705e-7
-1.004, 1.991e-7
-1.005, 2.425e-7
-1.006, 2.790e-7
-1.007, 4.270e-7
-1.008, 4.605e-7
-1.009, 4.388e-7
-1.010, 4.388e-7
-1.011, 4.734e-7
-1.012, 5.750e-7
-1.013, 5.829e-7
-1.014, 5.908e-7
-1.015, 5.701e-7
-1.016, 5.789e-7
-1.017, 6.588e-7
-1.018, 7.220e-7
-1.019, 6.934e-7
-1.020, 6.954e-7
-1.021, 7.082e-7
-1.022, 7.881e-7
-1.023, 7.772e-7
-1.024, 7.851e-7
-1.025, 7.388e-7
-1.026, 8.108e-7
-1.027, 8.680e-7
-1.028, 8.877e-7
-1.029, 8.522e-7
-1.030, 8.463e-7
-1.031, 8.433e-7
-1.032, 9.381e-7
-1.033, 9.341e-7
-1.034, 9.459e-7
-1.035, 8.581e-7
-1.036, 8.937e-7
-1.037, 9.973e-7
-1.038, 1.032e-6
-1.039, 9.588e-7
-1.040, 9.686e-7
-1.041, 9.450e-7
-1.042, 1.037e-6
-1.043, 1.012e-6
-1.044, 1.009e-6
-1.045, 9.647e-7
-1.046, 9.903e-7
-1.047, 1.071e-6
-1.048, 1.087e-6
-1.049, 1.052e-6
-1.050, 1.014e-6
-1.051, 1.040e-6
-1.052, 1.116e-6
-1.053, 1.151e-6
-1.054, 1.104e-6
-1.055, 1.066e-6
-1.056, 1.073e-6
-1.057, 1.155e-6
-1.058, 1.200e-6
-1.059, 1.162e-6
-1.060, 1.112e-6
-1.061, 1.116e-6
-1.062, 1.155e-6
-1.063, 1.195e-6
-1.064, 1.173e-6
-1.065, 1.115e-6
-1.066, 1.172e-6
-1.067, 1.214e-6
-1.068, 1.235e-6
-1.069, 1.212e-6
-1.070, 1.148e-6
-1.071, 1.218e-6
-1.072, 1.229e-6
-1.073, 1.276e-6
-1.074, 1.265e-6
-1.075, 1.208e-6
-1.076, 1.236e-6
-1.077, 1.286e-6
-1.078, 1.311e-6
-1.079, 1.324e-6
-1.080, 1.253e-6
-1.081, 1.259e-6
-1.082, 1.309e-6
-1.083, 1.353e-6
-1.084, 1.295e-6
-1.085, 1.315e-6
-1.086, 1.275e-6
-1.087, 1.337e-6
-1.088, 1.369e-6
-1.089, 1.314e-6
-1.090, 1.298e-6
-1.091, 1.335e-6
-1.092, 1.381e-6
-1.093, 1.417e-6
-1.094, 1.385e-6
-1.095, 1.356e-6
-1.096, 1.365e-6
-1.097, 1.394e-6
-1.098, 1.459e-6
-1.099, 1.400e-6
-1.100, 1.352e-6
-1.101, 1.395e-6
-1.102, 1.446e-6
-1.103, 1.521e-6
-1.104, 1.431e-6
-1.105, 1.403e-6
-1.106, 1.482e-6
-1.107, 1.473e-6
-1.108, 1.513e-6
-1.109, 1.471e-6
-1.110, 1.447e-6
-1.111, 1.472e-6
-1.112, 1.515e-6
-1.113, 1.520e-6
-1.114, 1.549e-6
-1.115, 1.482e-6
-1.116, 1.532e-6
-1.117, 1.555e-6
-1.118, 1.598e-6
-1.119, 1.529e-6
-1.120, 1.520e-6
-1.121, 1.548e-6
-1.122, 1.591e-6
-1.123, 1.637e-6
-1.124, 1.593e-6
-1.125, 1.574e-6
-1.126, 1.571e-6
-1.127, 1.667e-6
-1.128, 1.692e-6
-1.129, 1.635e-6
-1.130, 1.634e-6
-1.131, 1.636e-6
-1.132, 1.684e-6
-1.133, 1.726e-6
-1.134, 1.688e-6
-1.135, 1.684e-6
-1.136, 1.668e-6
-1.137, 1.743e-6
-1.138, 1.788e-6
-1.139, 1.735e-6
-1.140, 1.726e-6
-1.141, 1.745e-6
-1.142, 1.792e-6
-1.143, 1.831e-6
-1.144, 1.789e-6
-1.145, 1.764e-6
-1.146, 1.786e-6
-1.147, 1.853e-6
-1.148, 1.889e-6
-1.149, 1.867e-6
-1.150, 1.821e-6
-1.151, 1.838e-6
-1.152, 1.874e-6
-1.153, 1.938e-6
-1.154, 1.920e-6
-1.155, 1.871e-6
-1.156, 1.871e-6
-1.157, 1.933e-6
-1.158, 1.974e-6
-1.159, 1.935e-6
-1.160, 1.915e-6
-1.161, 1.919e-6
-1.162, 2.003e-6
-1.163, 1.985e-6
-1.164, 1.990e-6
-1.165, 1.976e-6
-1.166, 2.005e-6
-1.167, 2.078e-6
-1.168, 2.076e-6
-1.169, 2.036e-6
-1.170, 2.002e-6
-1.171, 1.991e-6
-1.172, 2.097e-6
-1.173, 2.126e-6
-1.174, 2.047e-6
-1.175, 2.068e-6
-1.176, 2.034e-6
-1.177, 2.098e-6
-1.178, 2.182e-6
-1.179, 2.088e-6
-1.180, 2.098e-6
-1.181, 2.063e-6
-1.182, 2.126e-6
-1.183, 2.159e-6
-1.184, 2.144e-6
-1.185, 2.111e-6
-1.186, 2.109e-6
-1.187, 2.197e-6
-1.188, 2.178e-6
-1.189, 2.128e-6
-1.190, 2.125e-6
-1.191, 2.150e-6
-1.192, 2.188e-6
-1.193, 2.201e-6
-1.194, 2.190e-6
-1.195, 2.152e-6
-1.196, 2.132e-6
-1.197, 2.200e-6
-1.198, 2.219e-6
-1.199, 2.205e-6
-1.200, 2.158e-6
-1.201, 2.155e-6
-1.202, 2.201e-6
-1.203, 2.214e-6
-1.204, 2.196e-6
-1.205, 2.145e-6
-1.206, 2.135e-6
-1.207, 2.189e-6
-1.208, 2.180e-6
-1.209, 2.142e-6
-1.210, 2.138e-6
-1.211, 2.117e-6
-1.212, 2.216e-6
-1.213, 2.184e-6
-1.214, 2.154e-6
-1.215, 2.116e-6
-1.216, 2.146e-6
-1.217, 2.169e-6
-1.218, 2.195e-6
-1.219, 2.152e-6
-1.220, 2.114e-6
-1.221, 2.129e-6
-1.222, 2.157e-6
-1.223, 2.203e-6
-1.224, 2.163e-6
-1.225, 2.095e-6
-1.226, 2.109e-6
-1.227, 2.149e-6
-1.228, 2.205e-6
-1.229, 2.161e-6
-1.230, 2.113e-6
-1.231, 2.112e-6
-1.232, 2.168e-6
-1.233, 2.164e-6
-1.234, 2.190e-6
-1.235, 2.107e-6
-1.236, 2.138e-6
-1.237, 2.182e-6
-1.238, 2.171e-6
-1.239, 2.157e-6
-1.240, 2.115e-6
-1.241, 2.121e-6
-1.242, 2.180e-6
-1.243, 2.222e-6
-1.244, 2.203e-6
-1.245, 2.132e-6
-1.246, 2.172e-6
-1.247, 2.181e-6
-1.248, 2.211e-6
-1.249, 2.189e-6
-1.250, 2.163e-6
-1.251, 2.197e-6
-1.252, 2.230e-6
-1.253, 2.220e-6
-1.254, 2.239e-6
-1.255, 2.189e-6
-1.256, 2.205e-6
-1.257, 2.231e-6
-1.258, 2.280e-6
-1.259, 2.230e-6
-1.260, 2.204e-6
-1.261, 2.248e-6
-1.262, 2.272e-6
-1.263, 2.304e-6
-1.264, 2.290e-6
-1.265, 2.220e-6
-1.266, 2.278e-6
-1.267, 2.285e-6
-1.268, 2.343e-6
-1.269, 2.310e-6
-1.270, 2.281e-6
-1.271, 2.292e-6
-1.272, 2.328e-6
-1.273, 2.374e-6
-1.274, 2.376e-6
-1.275, 2.337e-6
-1.276, 2.322e-6
-1.277, 2.344e-6
-1.278, 2.401e-6
-1.279, 2.369e-6
-1.280, 2.359e-6
-1.281, 2.377e-6
-1.282, 2.442e-6
-1.283, 2.437e-6
-1.284, 2.477e-6
-1.285, 2.401e-6
-1.286, 2.442e-6
-1.287, 2.507e-6
-1.288, 2.525e-6
-1.289, 2.537e-6
-1.290, 2.490e-6
-1.291, 2.517e-6
-1.292, 2.579e-6
-1.293, 2.623e-6
-1.294, 2.612e-6
-1.295, 2.567e-6
-1.296, 2.583e-6
-1.297, 2.644e-6
-1.298, 2.669e-6
-1.299, 2.664e-6
-1.300, 2.601e-6
-1.301, 2.668e-6
-1.302, 2.669e-6
-1.303, 2.745e-6
-1.304, 2.717e-6
-1.305, 2.674e-6
-1.306, 2.730e-6
-1.307, 2.751e-6
-1.308, 2.776e-6
-1.309, 2.732e-6
-1.310, 2.710e-6
-1.311, 2.781e-6
-1.312, 2.796e-6
-1.313, 2.823e-6
-1.314, 2.796e-6
-1.315, 2.784e-6
-1.316, 2.797e-6
-1.317, 2.830e-6
-1.318, 2.872e-6
-1.319, 2.875e-6
-1.320, 2.807e-6
-1.321, 2.849e-6
-1.322, 2.900e-6
-1.323, 2.948e-6
-1.324, 2.898e-6
-1.325, 2.882e-6
-1.326, 2.923e-6
-1.327, 2.963e-6
-1.328, 2.991e-6
-1.329, 2.969e-6
-1.330, 2.917e-6
-1.331, 2.969e-6
-1.332, 3.014e-6
-1.333, 3.067e-6
-1.334, 2.997e-6
-1.335, 2.993e-6
-1.336, 3.021e-6
-1.337, 3.033e-6
-1.338, 3.122e-6
-1.339, 3.075e-6
-1.340, 3.042e-6
-1.341, 3.081e-6
-1.342, 3.127e-6
-1.343, 3.175e-6
-1.344, 3.202e-6
-1.345, 3.179e-6
-1.346, 3.184e-6
-1.347, 3.179e-6
-1.348, 3.257e-6
-1.349, 3.179e-6
-1.350, 3.153e-6
-1.351, 3.203e-6
-1.352, 3.258e-6
-1.353, 3.292e-6
-1.354, 3.277e-6
-1.355, 3.194e-6
-1.356, 3.267e-6
-1.357, 3.260e-6
-1.358, 3.340e-6
-1.359, 3.263e-6
-1.360, 3.248e-6
-1.361, 3.253e-6
-1.362, 3.319e-6
-1.363, 3.345e-6
-1.364, 3.334e-6
-1.365, 3.285e-6
-1.366, 3.350e-6
-1.367, 3.355e-6
-1.368, 3.466e-6
-1.369, 3.447e-6
-1.370, 3.367e-6
-1.371, 3.368e-6
-1.372, 3.370e-6
-1.373, 3.455e-6
-1.374, 3.416e-6
-1.375, 3.403e-6
-1.376, 3.384e-6
-1.377, 3.435e-6
-1.378, 3.493e-6
-1.379, 3.493e-6
-1.380, 3.530e-6
-1.381, 3.567e-6
-1.382, 3.520e-6
-1.383, 3.582e-6
-1.384, 3.540e-6
-1.385, 3.586e-6
-1.386, 3.570e-6
-1.387, 3.663e-6
-1.388, 3.709e-6
-1.389, 3.623e-6
-1.390, 3.602e-6
-1.391, 3.652e-6
-1.392, 3.765e-6
-1.393, 3.801e-6
-1.394, 3.715e-6
-1.395, 3.631e-6
-1.396, 3.672e-6
-1.397, 3.687e-6
-1.398, 3.791e-6
-1.399, 3.869e-6
-1.400, 3.038e-6
-1.399, 2.735e-6
-1.398, 2.657e-6
-1.397, 2.604e-6
-1.396, 2.525e-6
-1.395, 2.408e-6
-1.394, 2.222e-6
-1.393, 2.223e-6
-1.392, 2.168e-6
-1.391, 2.055e-6
-1.390, 1.923e-6
-1.389, 1.876e-6
-1.388, 1.875e-6
-1.387, 1.956e-6
-1.386, 1.871e-6
-1.385, 1.837e-6
-1.384, 1.744e-6
-1.383, 1.780e-6
-1.382, 1.737e-6
-1.381, 1.632e-6
-1.380, 1.535e-6
-1.379, 1.440e-6
-1.378, 1.487e-6
-1.377, 1.444e-6
-1.376, 1.443e-6
-1.375, 1.374e-6
-1.374, 1.316e-6
-1.373, 1.376e-6
-1.372, 1.343e-6
-1.371, 1.295e-6
-1.370, 1.240e-6
-1.369, 1.217e-6
-1.368, 1.219e-6
-1.367, 1.188e-6
-1.366, 1.147e-6
-1.365, 1.071e-6
-1.364, 1.026e-6
-1.363, 1.099e-6
-1.362, 1.128e-6
-1.361, 1.094e-6
-1.360, 9.874e-7
-1.359, 9.351e-7
-1.358, 9.598e-7
-1.357, 9.538e-7
-1.356, 8.907e-7
-1.355, 8.394e-7
-1.354, 8.414e-7
-1.353, 8.818e-7
-1.352, 8.858e-7
-1.351, 8.818e-7
-1.350, 7.881e-7
-1.349, 7.832e-7
-1.348, 8.660e-7
-1.347, 8.690e-7
-1.346, 8.374e-7
-1.345, 7.782e-7
-1.344, 7.210e-7
-1.343, 7.684e-7
-1.342, 7.595e-7
-1.341, 7.368e-7
-1.340, 6.796e-7
-1.339, 6.539e-7
-1.338, 6.766e-7
-1.337, 6.648e-7
-1.336, 6.381e-7
-1.335, 5.927e-7
-1.334, 5.503e-7
-1.333, 5.868e-7
-1.332, 5.908e-7
-1.331, 5.799e-7
-1.330, 5.010e-7
-1.329, 4.842e-7
-1.328, 5.592e-7
-1.327, 5.701e-7
-1.326, 5.375e-7
-1.325, 4.526e-7
-1.324, 4.625e-7
-1.323, 5.040e-7
-1.322, 5.138e-7
-1.321, 4.773e-7
-1.320, 4.043e-7
-1.319, 4.280e-7
-1.318, 4.280e-7
-1.317, 4.970e-7
-1.316, 4.763e-7
-1.315, 3.836e-7
-1.314, 3.471e-7
-1.313, 4.231e-7
-1.312, 4.536e-7
-1.311, 4.388e-7
-1.310, 3.530e-7
-1.309, 3.323e-7
-1.308, 3.737e-7
-1.307, 3.787e-7
-1.306, 3.639e-7
-1.305, 2.879e-7
-1.304, 2.987e-7
-1.303, 3.392e-7
-1.302, 3.116e-7
-1.301, 3.313e-7
-1.300, 2.583e-7
-1.299, 2.731e-7
-1.298, 2.751e-7
-1.297, 3.056e-7
-1.296, 3.047e-7
-1.295, 2.188e-7
-1.294, 2.188e-7
-1.293, 2.672e-7
-1.292, 2.997e-7
-1.291, 2.455e-7
-1.290, 1.892e-7
-1.289, 1.537e-7
-1.288, 1.774e-7
-1.287, 2.307e-7
-1.286, 2.080e-7
-1.285, 1.093e-7
-1.284, 1.567e-7
-1.283, 1.646e-7
-1.282, 2.109e-7
-1.281, 1.665e-7
-1.280, 1.162e-7
-1.279, 1.113e-7
-1.278, 9.057e-8
-1.277, 1.340e-7
-1.276, 1.014e-7
-1.275, 5.505e-8
-1.274, 9.254e-8
-1.273, 9.254e-8
-1.272, 1.360e-7
-1.271, 6.985e-8
-1.270, -1.401e-8
-1.269, 2.940e-8
-1.268, 5.308e-8
-1.267, 6.788e-8
-1.266, 6.196e-8
-1.265, -3.473e-8
-1.264, -1.302e-8
-1.263, 3.749e-9
-1.262, 4.519e-8
-1.261, 2.447e-8
-1.260, -3.275e-8
-1.259, -8.090e-9
-1.258, -2.881e-8
-1.257, 1.362e-8
-1.256, 1.263e-8
-1.255, -3.867e-8
-1.254, -5.841e-8
-1.253, -2.684e-8
-1.252, 2.348e-8
-1.251, -4.361e-8
-1.250, -6.729e-8
-1.249, -6.433e-8
-1.248, -7.321e-8
-1.247, -1.973e-10
-1.246, -6.531e-8
-1.245, -9.688e-8
-1.244, -1.225e-7
-1.243, -9.787e-8
-1.242, -2.881e-8
-1.241, -7.222e-8
-1.240, -1.521e-7
-1.239, -1.511e-7
-1.238, -1.245e-7
-1.237, -6.926e-8
-1.236, -1.008e-7
-1.235, -1.600e-7
-1.234, -1.748e-7
-1.233, -1.837e-7
-1.232, -1.077e-7
-1.231, -1.620e-7
-1.230, -1.699e-7
-1.229, -2.320e-7
-1.228, -2.005e-7
-1.227, -1.768e-7
-1.226, -1.955e-7
-1.225, -2.409e-7
-1.224, -2.676e-7
-1.223, -2.429e-7
-1.222, -2.015e-7
-1.221, -2.449e-7
-1.220, -3.139e-7
-1.219, -3.080e-7
-1.218, -2.646e-7
-1.217, -2.261e-7
-1.216, -2.824e-7
-1.215, -3.090e-7
-1.214, -3.524e-7
-1.213, -3.110e-7
-1.212, -2.399e-7
-1.211, -3.070e-7
-1.210, -3.297e-7
-1.209, -3.445e-7
-1.208, -3.317e-7
-1.207, -2.903e-7
-1.206, -3.228e-7
-1.205, -3.692e-7
-1.204, -3.583e-7
-1.203, -3.672e-7
-1.202, -3.041e-7
-1.201, -3.672e-7
-1.200, -3.879e-7
-1.199, -4.185e-7
-1.198, -3.929e-7
-1.197, -3.554e-7
-1.196, -3.879e-7
-1.195, -4.363e-7
-1.194, -4.471e-7
-1.193, -4.313e-7
-1.192, -3.800e-7
-1.191, -4.195e-7
-1.190, -4.738e-7
-1.189, -5.004e-7
-1.188, -4.432e-7
-1.187, -4.323e-7
-1.186, -4.313e-7
-1.185, -4.570e-7
-1.184, -5.241e-7
-1.183, -4.619e-7
-1.182, -4.609e-7
-1.181, -4.669e-7
-1.180, -5.142e-7
-1.179, -5.211e-7
-1.178, -5.063e-7
-1.177, -4.738e-7
-1.176, -5.053e-7
-1.175, -5.409e-7
-1.174, -5.714e-7
-1.173, -5.182e-7
-1.172, -5.132e-7
-1.171, -5.024e-7
-1.170, -5.852e-7
-1.169, -5.902e-7
-1.168, -5.635e-7
-1.167, -5.290e-7
-1.166, -5.369e-7
-1.165, -5.655e-7
-1.164, -6.099e-7
-1.163, -6.060e-7
-1.162, -5.537e-7
-1.161, -5.902e-7
-1.160, -6.099e-7
-1.159, -6.454e-7
-1.158, -6.079e-7
-1.157, -5.704e-7
-1.156, -6.247e-7
-1.155, -6.583e-7
-1.154, -6.523e-7
-1.153, -6.425e-7
-1.152, -6.247e-7
-1.151, -6.287e-7
-1.150, -6.839e-7
-1.149, -7.184e-7
-1.148, -6.671e-7
-1.147, -6.435e-7
-1.146, -6.366e-7
-1.145, -7.234e-7
-1.144, -7.421e-7
-1.143, -6.731e-7
-1.142, -6.691e-7
-1.141, -6.681e-7
-1.140, -7.530e-7
-1.139, -7.530e-7
-1.138, -7.283e-7
-1.137, -7.184e-7
-1.136, -7.165e-7
-1.135, -7.688e-7
-1.134, -8.122e-7
-1.133, -7.441e-7
-1.132, -7.135e-7
-1.131, -7.480e-7
-1.130, -8.161e-7
-1.129, -8.398e-7
-1.128, -7.727e-7
-1.127, -7.362e-7
-1.126, -7.638e-7
-1.125, -8.605e-7
-1.124, -8.358e-7
-1.123, -8.506e-7
-1.122, -7.924e-7
-1.121, -7.993e-7
-1.120, -8.447e-7
-1.119, -8.802e-7
-1.118, -8.645e-7
-1.117, -8.122e-7
-1.116, -8.181e-7
-1.115, -8.852e-7
-1.114, -9.098e-7
-1.113, -8.398e-7
-1.112, -8.388e-7
-1.111, -8.575e-7
-1.110, -9.158e-7
-1.109, -9.532e-7
-1.108, -9.227e-7
-1.107, -8.556e-7
-1.106, -8.881e-7
-1.105, -9.384e-7
-1.104, -9.730e-7
-1.103, -9.217e-7
-1.102, -9.069e-7
-1.101, -9.148e-7
-1.100, -9.976e-7
-1.099, -1.026e-6
-1.098, -9.671e-7
-1.097, -9.424e-7
-1.096, -9.266e-7
-1.095, -9.858e-7
-1.094, -1.007e-6
-1.093, -1.011e-6
-1.092, -9.700e-7
-1.091, -9.710e-7
-1.090, -1.010e-6
-1.089, -1.044e-6
-1.088, -1.052e-6
-1.087, -1.022e-6
-1.086, -9.917e-7
-1.085, -1.105e-6
-1.084, -1.093e-6
-1.083, -1.039e-6
-1.082, -1.029e-6
-1.081, -1.052e-6
-1.080, -1.115e-6
-1.079, -1.094e-6
-1.078, -1.083e-6
-1.077, -1.044e-6
-1.076, -1.066e-6
-1.075, -1.145e-6
-1.074, -1.159e-6
-1.073, -1.119e-6
-1.072, -1.078e-6
-1.071, -1.088e-6
-1.070, -1.135e-6
-1.069, -1.162e-6
-1.068, -1.137e-6
-1.067, -1.085e-6
-1.066, -1.060e-6
-1.065, -1.174e-6
-1.064, -1.140e-6
-1.063, -1.141e-6
-1.062, -1.122e-6
-1.061, -1.117e-6
-1.060, -1.180e-6
-1.059, -1.217e-6
-1.058, -1.160e-6
-1.057, -1.145e-6
-1.056, -1.119e-6
-1.055, -1.194e-6
-1.054, -1.230e-6
-1.053, -1.177e-6
-1.052, -1.134e-6
-1.051, -1.136e-6
-1.050, -1.213e-6
-1.049, -1.244e-6
-1.048, -1.208e-6
-1.047, -1.155e-6
-1.046, -1.133e-6
-1.045, -1.206e-6
-1.044, -1.247e-6
-1.043, -1.202e-6
-1.042, -1.165e-6
-1.041, -1.158e-6
-1.040, -1.261e-6
-1.039, -1.223e-6
-1.038, -1.248e-6
-1.037, -1.188e-6
-1.036, -1.188e-6
-1.035, -1.280e-6
-1.034, -1.260e-6
-1.033, -1.229e-6
-1.032, -1.173e-6
-1.031, -1.192e-6
-1.030, -1.265e-6
-1.029, -1.250e-6
-1.028, -1.242e-6
-1.027, -1.179e-6
-1.026, -1.191e-6
-1.025, -1.257e-6
-1.024, -1.301e-6
-1.023, -1.276e-6
-1.022, -1.204e-6
-1.021, -1.198e-6
-1.020, -1.228e-6
-1.019, -1.279e-6
-1.018, -1.260e-6
-1.017, -1.212e-6
-1.016, -1.205e-6
-1.015, -1.242e-6
-1.014, -1.266e-6
-1.013, -1.262e-6
-1.012, -1.208e-6
-1.011, -1.257e-6
-1.010, -1.265e-6
-1.009, -1.303e-6
-1.008, -1.254e-6
-1.007, -1.218e-6
-1.006, -1.229e-6
-1.005, -1.296e-6
-1.004, -1.306e-6
-1.003, -1.293e-6
-1.002, -1.226e-6
-1.001, -1.230e-6
-1.000, -3.968e-7
-1.001, -1.077e-7
-1.002, 1.164e-8
-1.003, 1.330e-7
-1.004, 1.991e-7
-1.005, 1.981e-7
-1.006, 2.346e-7
-1.007, 2.741e-7
-1.008, 3.589e-7
-1.009, 4.013e-7
-1.010, 3.471e-7
-1.011, 3.964e-7
-1.012, 4.388e-7
-1.013, 5.178e-7
-1.014, 5.306e-7
-1.015, 4.911e-7
-1.016, 4.980e-7
-1.017, 5.444e-7
-1.018, 6.312e-7
-1.019, 6.164e-7
-1.020, 5.720e-7
-1.021, 6.174e-7
-1.022, 6.115e-7
-1.023, 6.993e-7
-1.024, 7.200e-7
-1.025, 6.914e-7
-1.026, 6.855e-7
-1.027, 6.815e-7
-1.028, 7.832e-7
-1.029, 7.891e-7
-1.030, 7.506e-7
-1.031, 7.220e-7
-1.032, 7.348e-7
-1.033, 8.246e-7
-1.034, 8.364e-7
-1.035, 7.832e-7
-1.036, 7.930e-7
-1.037, 8.118e-7
-1.038, 8.572e-7
-1.039, 8.710e-7
-1.040, 8.364e-7
-1.041, 8.374e-7
-1.042, 8.700e-7
-1.043, 9.252e-7
-1.044, 9.706e-7
-1.045, 8.690e-7
-1.046, 8.670e-7
-1.047, 9.016e-7
-1.048, 9.815e-7
-1.049, 9.657e-7
-1.050, 9.223e-7
-1.051, 9.134e-7
-1.052, 9.321e-7
-1.053, 9.894e-7
-1.054, 1.007e-6
-1.055, 9.637e-7
-1.056, 9.538e-7
-1.057, 9.400e-7
-1.058, 1.019e-6
-1.059, 1.018e-6
-1.060, 9.785e-7
-1.061, 9.647e-7
-1.062, 9.815e-7
-1.063, 1.089e-6
-1.064, 1.070e-6
-1.065, 1.030e-6
-1.066, 1.028e-6
-1.067, 1.038e-6
-1.068, 1.098e-6
-1.069, 1.095e-6
-1.070, 1.041e-6
-1.071, 1.037e-6
-1.072, 1.046e-6
-1.073, 1.144e-6
-1.074, 1.131e-6
-1.075, 1.135e-6
-1.076, 1.072e-6
-1.077, 1.106e-6
-1.078, 1.149e-6
-1.079, 1.152e-6
-1.080, 1.105e-6
-1.081, 1.096e-6
-1.082, 1.127e-6
-1.083, 1.172e-6
-1.084, 1.191e-6
-1.085, 1.140e-6
-1.086, 1.099e-6
-1.087, 1.150e-6
-1.088, 1.206e-6
-1.089, 1.220e-6
-1.090, 1.197e-6
-1.091, 1.144e-6
-1.092, 1.196e-6
-1.093, 1.236e-6
-1.094, 1.269e-6
-1.095, 1.215e-6
-1.096, 1.160e-6
-1.097, 1.186e-6
-1.098, 1.277e-6
-1.099, 1.266e-6
-1.100, 1.239e-6
-1.101, 1.236e-6
-1.102, 1.257e-6
-1.103, 1.298e-6
-1.104, 1.286e-6
-1.105, 1.266e-6
-1.106, 1.231e-6
-1.107, 1.271e-6
-1.108, 1.295e-6
-1.109, 1.327e-6
-1.110, 1.293e-6
-1.111, 1.248e-6
-1.112, 1.321e-6
-1.113, 1.371e-6
-1.114, 1.358e-6
-1.115, 1.330e-6
-1.116, 1.299e-6
-1.117, 1.357e-6
-1.118, 1.402e-6
-1.119, 1.403e-6
-1.120, 1.382e-6
-1.121, 1.348e-6
-1.122, 1.368e-6
-1.123, 1.432e-6
-1.124, 1.445e-6
-1.125, 1.413e-6
-1.126, 1.354e-6
-1.127, 1.400e-6
-1.128, 1.460e-6
-1.129, 1.455e-6
-1.130, 1.439e-6
-1.131, 1.384e-6
-1.132, 1.463e-6
-1.133, 1.477e-6
-1.134, 1.502e-6
-1.135, 1.484e-6
-1.136, 1.425e-6
-1.137, 1.489e-6
-1.138, 1.519e-6
-1.139, 1.565e-6
-1.140, 1.523e-6
-1.141, 1.476e-6
-1.142, 1.535e-6
-1.143, 1.576e-6
-1.144, 1.581e-6
-1.145, 1.564e-6
-1.146, 1.520e-6
-1.147, 1.561e-6
-1.148, 1.568e-6
-1.149, 1.632e-6
-1.150, 1.566e-6
-1.151, 1.553e-6
-1.152, 1.585e-6
-1.153, 1.610e-6
-1.154, 1.658e-6
-1.155, 1.597e-6
-1.156, 1.571e-6
-1.157, 1.639e-6
-1.158, 1.650e-6
-1.159, 1.705e-6
-1.160, 1.641e-6
-1.161, 1.616e-6
-1.162, 1.688e-6
-1.163, 1.732e-6
-1.164, 1.750e-6
-1.165, 1.672e-6
-1.166, 1.654e-6
-1.167, 1.677e-6
-1.168, 1.762e-6
-1.169, 1.769e-6
-1.170, 1.745e-6
-1.171, 1.702e-6
-1.172, 1.726e-6
-1.173, 1.746e-6
-1.174, 1.782e-6
-1.175, 1.750e-6
-1.176, 1.717e-6
-1.177, 1.743e-6
-1.178, 1.771e-6
-1.179, 1.832e-6
-1.180, 1.774e-6
-1.181, 1.751e-6
-1.182, 1.774e-6
-1.183, 1.794e-6
-1.184, 1.840e-6
-1.185, 1.815e-6
-1.186, 1.766e-6
-1.187, 1.785e-6
-1.188, 1.821e-6
-1.189, 1.863e-6
-1.190, 1.798e-6
-1.191, 1.777e-6
-1.192, 1.792e-6
-1.193, 1.845e-6
-1.194, 1.877e-6
-1.195, 1.803e-6
-1.196, 1.784e-6
-1.197, 1.788e-6
-1.198, 1.856e-6
-1.199, 1.850e-6
-1.200, 1.781e-6
-1.201, 1.798e-6
-1.202, 1.778e-6
-1.203, 1.817e-6
-1.204, 1.880e-6
-1.205, 1.798e-6
-1.206, 1.793e-6
-1.207, 1.805e-6
-1.208, 1.864e-6
-1.209, 1.859e-6
-1.210, 1.803e-6
-1.211, 1.763e-6
-1.212, 1.771e-6
-1.213, 1.854e-6
-1.214, 1.867e-6
-1.215, 1.821e-6
-1.216, 1.799e-6
-1.217, 1.786e-6
-1.218, 1.831e-6
-1.219, 1.836e-6
-1.220, 1.798e-6
-1.221, 1.780e-6
-1.222, 1.788e-6
-1.223, 1.829e-6
-1.224, 1.845e-6
-1.225, 1.807e-6
-1.226, 1.777e-6
-1.227, 1.769e-6
-1.228, 1.824e-6
-1.229, 1.862e-6
-1.230, 1.812e-6
-1.231, 1.805e-6
-1.232, 1.810e-6
-1.233, 1.880e-6
-1.234, 1.888e-6
-1.235, 1.831e-6
-1.236, 1.802e-6
-1.237, 1.818e-6
-1.238, 1.854e-6
-1.239, 1.910e-6
-1.240, 1.844e-6
-1.241, 1.825e-6
-1.242, 1.803e-6
-1.243, 1.870e-6
-1.244, 1.903e-6
-1.245, 1.843e-6
-1.246, 1.816e-6
-1.247, 1.835e-6
-1.248, 1.864e-6
-1.249, 1.919e-6
-1.250, 1.836e-6
-1.251, 1.871e-6
-1.252, 1.849e-6
-1.253, 1.896e-6
-1.254, 1.931e-6
-1.255, 1.899e-6
-1.256, 1.858e-6
-1.257, 1.867e-6
-1.258, 1.950e-6
-1.259, 1.935e-6
-1.260, 1.902e-6
-1.261, 1.888e-6
-1.262, 1.883e-6
-1.263, 1.953e-6
-1.264, 1.936e-6
-1.265, 1.937e-6
-1.266, 1.899e-6
-1.267, 1.907e-6
-1.268, 1.962e-6
-1.269, 1.957e-6
-1.270, 1.964e-6
-1.271, 1.937e-6
-1.272, 1.930e-6
-1.273, 1.991e-6
-1.274, 1.995e-6
-1.275, 1.969e-6
-1.276, 1.945e-6
-1.277, 1.950e-6
-1.278, 2.001e-6
-1.279, 2.035e-6
-1.280, 2.009e-6
-1.281, 1.975e-6
-1.282, 1.971e-6
-1.283, 2.034e-6
-1.284, 2.063e-6
-1.285, 2.009e-6
-1.286, 1.983e-6
-1.287, 1.984e-6
-1.288, 2.036e-6
-1.289, 2.056e-6
-1.290, 2.067e-6
-1.291, 2.006e-6
-1.292, 2.014e-6
-1.293, 2.066e-6
-1.294, 2.091e-6
-1.295, 2.014e-6
-1.296, 2.021e-6
-1.297, 2.027e-6
-1.298, 2.092e-6
-1.299, 2.083e-6
-1.300, 2.076e-6
-1.301, 2.016e-6
-1.302, 2.051e-6
-1.303, 2.119e-6
-1.304, 2.141e-6
-1.305, 2.108e-6
-1.306, 2.090e-6
-1.307, 2.090e-6
-1.308, 2.146e-6
-1.309, 2.181e-6
-1.310, 2.140e-6
-1.311, 2.115e-6
-1.312, 2.073e-6
-1.313, 2.190e-6
-1.314, 2.188e-6
-1.315, 2.210e-6
-1.316, 2.087e-6
-1.317, 2.142e-6
-1.318, 2.173e-6
-1.319, 2.223e-6
-1.320, 2.208e-6
-1.321, 2.145e-6
-1.322, 2.177e-6
-1.323, 2.189e-6
-1.324, 2.252e-6
-1.325, 2.237e-6
-1.326, 2.185e-6
-1.327, 2.218e-6
-1.328, 2.280e-6
-1.329, 2.332e-6
-1.330, 2.298e-6
-1.331, 2.218e-6
-1.332, 2.285e-6
-1.333, 2.288e-6
-1.334, 2.322e-6
-1.335, 2.309e-6
-1.336, 2.306e-6
-1.337, 2.269e-6
-1.338, 2.351e-6
-1.339, 2.381e-6
-1.340, 2.342e-6
-1.341, 2.316e-6
-1.342, 2.337e-6
-1.343, 2.367e-6
-1.344, 2.429e-6
-1.345, 2.377e-6
-1.346, 2.339e-6
-1.347, 2.403e-6
-1.348, 2.445e-6
-1.349, 2.466e-6
-1.350, 2.424e-6
-1.351, 2.412e-6
-1.352, 2.414e-6
-1.353, 2.505e-6
-1.354, 2.510e-6
-1.355, 2.528e-6
-1.356, 2.462e-6
-1.357, 2.512e-6
-1.358, 2.522e-6
-1.359, 2.560e-6
-1.360, 2.568e-6
-1.361, 2.466e-6
-1.362, 2.556e-6
-1.363, 2.605e-6
-1.364, 2.641e-6
-1.365, 2.580e-6
-1.366, 2.558e-6
-1.367, 2.606e-6
-1.368, 2.642e-6
-1.369, 2.661e-6
-1.370, 2.661e-6
-1.371, 2.620e-6
-1.372, 2.676e-6
-1.373, 2.790e-6
-1.374, 2.826e-6
-1.375, 2.749e-6
-1.376, 2.711e-6
-1.377, 2.774e-6
-1.378, 2.840e-6
-1.379, 2.924e-6
-1.380, 2.902e-6
-1.381, 2.929e-6
-1.382, 2.922e-6
-1.383, 2.916e-6
-1.384, 2.991e-6
-1.385, 3.027e-6
-1.386, 3.012e-6
-1.387, 2.923e-6
-1.388, 2.956e-6
-1.389, 3.045e-6
-1.390, 3.001e-6
-1.391, 2.972e-6
-1.392, 3.009e-6
-1.393, 3.034e-6
-1.394, 3.083e-6
-1.395, 3.061e-6
-1.396, 3.042e-6
-1.397, 3.067e-6
-1.398, 3.137e-6
-1.399, 3.228e-6
-1.400, 2.438e-6
-1.399, 2.219e-6
-1.398, 2.087e-6
-1.397, 2.027e-6
-1.396, 1.996e-6
-1.395, 1.855e-6
-1.394, 1.794e-6
-1.393, 1.705e-6
-1.392, 1.685e-6
-1.391, 1.712e-6
-1.390, 1.596e-6
-1.389, 1.538e-6
-1.388, 1.496e-6
-1.387, 1.622e-6
-1.386, 1.535e-6
-1.385, 1.397e-6
-1.384, 1.353e-6
-1.383, 1.296e-6
-1.382, 1.303e-6
-1.381, 1.353e-6
-1.380, 1.242e-6
-1.379, 1.196e-6
-1.378, 1.141e-6
-1.377, 1.202e-6
-1.376, 1.207e-6
-1.375, 1.156e-6
-1.374, 1.072e-6
-1.373, 1.056e-6
-1.372, 1.091e-6
-1.371, 1.105e-6
-1.370, 1.031e-6
-1.369, 9.973e-7
-1.368, 9.686e-7
-1.367, 9.785e-7
-1.366, 9.588e-7
-1.365, 9.489e-7
-1.364, 8.739e-7
-1.363, 8.729e-7
-1.362, 9.242e-7
-1.361, 9.420e-7
-1.360, 8.424e-7
-1.359, 7.999e-7
-1.358, 7.763e-7
-1.357, 9.006e-7
-1.356, 8.798e-7
-1.355, 8.039e-7
-1.354, 7.881e-7
-1.353, 7.023e-7
-1.352, 7.684e-7
-1.351, 7.555e-7
-1.350, 7.279e-7
-1.349, 6.894e-7
-1.348, 6.598e-7
-1.347, 6.796e-7
-1.346, 6.766e-7
-1.345, 6.135e-7
-1.344, 6.125e-7
-1.343, 5.760e-7
-1.342, 6.125e-7
-1.341, 5.967e-7
-1.340, 5.927e-7
-1.339, 5.316e-7
-1.338, 5.109e-7
-1.337, 5.444e-7
-1.336, 5.602e-7
-1.335, 5.553e-7
-1.334, 4.931e-7
-1.333, 4.467e-7
-1.332, 5.079e-7
-1.331, 5.266e-7
-1.330, 4.911e-7
-1.329, 4.408e-7
-1.328, 4.457e-7
-1.327, 4.586e-7
-1.326, 4.566e-7
-1.325, 4.546e-7
-1.324, 3.816e-7
-1.323, 4.083e-7
-1.322, 4.191e-7
-1.321, 4.191e-7
-1.320, 4.102e-7
-1.319, 3.392e-7
-1.318, 3.451e-7
-1.317, 3.599e-7
-1.316, 3.885e-7
-1.315, 3.392e-7
-1.314, 3.066e-7
-1.313, 2.810e-7
-1.312, 3.500e-7
-1.311, 3.570e-7
-1.310, 3.116e-7
-1.309, 2.721e-7
-1.308, 2.672e-7
-1.307, 3.204e-7
-1.306, 2.978e-7
-1.305, 2.899e-7
-1.304, 2.553e-7
-1.303, 2.159e-7
-1.302, 2.672e-7
-1.301, 2.879e-7
-1.300, 2.741e-7
-1.299, 1.951e-7
-1.298, 1.961e-7
-1.297, 2.060e-7
-1.296, 2.386e-7
-1.295, 2.040e-7
-1.294, 1.547e-7
-1.293, 1.488e-7
-1.292, 1.902e-7
-1.291, 1.882e-7
-1.290, 1.912e-7
-1.289, 1.241e-7
-1.288, 1.241e-7
-1.287, 1.567e-7
-1.286, 2.070e-7
-1.285, 1.626e-7
-1.284, 6.492e-8
-1.283, 1.073e-7
-1.282, 1.064e-7
-1.281, 1.794e-7
-1.280, 1.152e-7
-1.279, 4.124e-8
-1.278, 6.196e-8
-1.277, 1.014e-7
-1.276, 1.113e-7
-1.275, 8.564e-8
-1.274, 3.335e-8
-1.273, 2.545e-8
-1.272, 6.492e-8
-1.271, 7.873e-8
-1.270, 4.617e-8
-1.269, -3.157e-9
-1.268, -2.171e-9
-1.267, 3.729e-8
-1.266, 7.182e-8
-1.265, 1.460e-8
-1.264, -2.585e-8
-1.263, -2.881e-8
-1.262, 2.762e-9
-1.261, 3.631e-8
-1.260, -1.697e-8
-1.259, -7.419e-8
-1.258, -3.867e-8
-1.257, -4.558e-8
-1.256, 1.953e-8
-1.255, -7.103e-9
-1.254, -9.688e-8
-1.253, -7.715e-8
-1.252, -3.670e-8
-1.251, -3.473e-8
-1.250, -9.886e-8
-1.249, -1.156e-7
-1.248, -9.787e-8
-1.247, -7.912e-8
-1.246, -7.912e-8
-1.245, -1.067e-7
-1.244, -1.640e-7
-1.243, -1.433e-7
-1.242, -1.423e-7
-1.241, -9.096e-8
-1.240, -1.255e-7
-1.239, -2.044e-7
-1.238, -1.867e-7
-1.237, -1.314e-7
-1.236, -1.255e-7
-1.235, -1.561e-7
-1.234, -2.084e-7
-1.233, -1.955e-7
-1.232, -1.896e-7
-1.231, -1.285e-7
-1.230, -1.867e-7
-1.229, -2.103e-7
-1.228, -2.508e-7
-1.227, -2.429e-7
-1.226, -1.788e-7
-1.225, -2.429e-7
-1.224, -2.991e-7
-1.223, -2.972e-7
-1.222, -2.557e-7
-1.221, -2.360e-7
-1.220, -2.478e-7
-1.219, -3.277e-7
-1.218, -3.317e-7
-1.217, -2.399e-7
-1.216, -2.271e-7
-1.215, -3.011e-7
-1.214, -3.199e-7
-1.213, -3.465e-7
-1.212, -2.794e-7
-1.211, -2.597e-7
-1.210, -2.745e-7
-1.209, -3.297e-7
-1.208, -3.504e-7
-1.207, -3.366e-7
-1.206, -2.962e-7
-1.205, -3.268e-7
-1.204, -3.899e-7
-1.203, -4.096e-7
-1.202, -3.514e-7
-1.201, -3.307e-7
-1.200, -3.672e-7
-1.199, -4.027e-7
-1.198, -4.264e-7
-1.197, -3.869e-7
-1.196, -3.603e-7
-1.195, -3.869e-7
-1.194, -4.165e-7
-1.193, -4.294e-7
-1.192, -3.840e-7
-1.191, -3.840e-7
-1.190, -4.086e-7
-1.189, -4.521e-7
-1.188, -4.797e-7
-1.187, -4.353e-7
-1.186, -3.564e-7
-1.185, -4.422e-7
-1.184, -4.728e-7
-1.183, -5.093e-7
-1.182, -4.254e-7
-1.181, -4.501e-7
-1.180, -4.649e-7
-1.179, -4.984e-7
-1.178, -5.270e-7
-1.177, -4.698e-7
-1.176, -4.609e-7
-1.175, -4.738e-7
-1.174, -5.300e-7
-1.173, -5.685e-7
-1.172, -4.570e-7
-1.171, -4.817e-7
-1.170, -4.856e-7
-1.169, -5.458e-7
-1.168, -5.774e-7
-1.167, -4.846e-7
-1.166, -4.876e-7
-1.165, -5.211e-7
-1.164, -5.497e-7
-1.163, -5.813e-7
-1.162, -5.122e-7
-1.161, -5.487e-7
-1.160, -5.310e-7
-1.159, -5.902e-7
-1.158, -6.040e-7
-1.157, -5.241e-7
-1.156, -5.330e-7
-1.155, -5.557e-7
-1.154, -6.277e-7
-1.153, -6.356e-7
-1.152, -5.793e-7
-1.151, -5.655e-7
-1.150, -6.237e-7
-1.149, -6.395e-7
-1.148, -6.681e-7
-1.147, -5.912e-7
-1.146, -5.813e-7
-1.145, -6.020e-7
-1.144, -6.849e-7
-1.143, -6.573e-7
-1.142, -6.435e-7
-1.141, -6.158e-7
-1.140, -6.444e-7
-1.139, -6.632e-7
-1.138, -7.027e-7
-1.137, -6.533e-7
-1.136, -6.760e-7
-1.135, -6.533e-7
-1.134, -7.046e-7
-1.133, -7.559e-7
-1.132, -6.869e-7
-1.131, -6.681e-7
-1.130, -6.997e-7
-1.129, -7.618e-7
-1.128, -7.579e-7
-1.127, -7.145e-7
-1.126, -7.214e-7
-1.125, -7.401e-7
-1.124, -7.816e-7
-1.123, -8.082e-7
-1.122, -7.362e-7
-1.121, -7.165e-7
-1.120, -7.303e-7
-1.119, -8.003e-7
-1.118, -7.984e-7
-1.117, -7.993e-7
-1.116, -7.579e-7
-1.115, -7.668e-7
-1.114, -8.299e-7
-1.113, -8.280e-7
-1.112, -7.875e-7
-1.111, -7.934e-7
-1.110, -8.023e-7
-1.109, -8.526e-7
-1.108, -8.497e-7
-1.107, -8.033e-7
-1.106, -8.329e-7
-1.105, -8.102e-7
-1.104, -9.049e-7
-1.103, -8.793e-7
-1.102, -8.615e-7
-1.101, -8.250e-7
-1.100, -8.437e-7
-1.099, -9.384e-7
-1.098, -9.217e-7
-1.097, -8.871e-7
-1.096, -8.408e-7
-1.095, -8.556e-7
-1.094, -9.276e-7
-1.093, -9.424e-7
-1.092, -9.237e-7
-1.091, -8.704e-7
-1.090, -8.842e-7
-1.089, -9.750e-7
-1.088, -9.454e-7
-1.087, -9.365e-7
-1.086, -9.197e-7
-1.085, -9.256e-7
-1.084, -9.957e-7
-1.083, -1.001e-6
-1.082, -9.621e-7
-1.081, -9.463e-7
-1.080, -9.947e-7
-1.079, -1.021e-6
-1.078, -1.032e-6
-1.077, -9.898e-7
-1.076, -9.345e-7
-1.075, -9.947e-7
-1.074, -1.082e-6
-1.073, -1.062e-6
-1.072, -9.996e-7
-1.071, -9.907e-7
-1.070, -1.007e-6
-1.069, -1.074e-6
-1.068, -1.076e-6
-1.067, -1.042e-6
-1.066, -1.003e-6
-1.065, -1.025e-6
-1.064, -1.060e-6
-1.063, -1.065e-6
-1.062, -1.061e-6
-1.061, -1.035e-6
-1.060, -1.045e-6
-1.059, -1.114e-6
-1.058, -1.092e-6
-1.057, -1.095e-6
-1.056, -1.027e-6
-1.055, -1.076e-6
-1.054, -1.150e-6
-1.053, -1.125e-6
-1.052, -1.048e-6
-1.051, -1.033e-6
-1.050, -1.057e-6
-1.049, -1.143e-6
-1.048, -1.126e-6
-1.047, -1.107e-6
-1.046, -1.059e-6
-1.045, -1.090e-6
-1.044, -1.128e-6
-1.043, -1.144e-6
-1.042, -1.118e-6
-1.041, -1.064e-6
-1.040, -1.104e-6
-1.039, -1.149e-6
-1.038, -1.164e-6
-1.037, -1.096e-6
-1.036, -1.072e-6
-1.035, -1.142e-6
-1.034, -1.174e-6
-1.033, -1.183e-6
-1.032, -1.139e-6
-1.031, -1.070e-6
-1.030, -1.168e-6
-1.029, -1.182e-6
-1.028, -1.206e-6
-1.027, -1.140e-6
-1.026, -1.059e-6
-1.025, -1.119e-6
-1.024, -1.209e-6
-1.023, -1.213e-6
-1.022, -1.171e-6
-1.021, -1.136e-6
-1.020, -1.147e-6
-1.019, -1.183e-6
-1.018, -1.202e-6
-1.017, -1.161e-6
-1.016, -1.162e-6
-1.015, -1.147e-6
-1.014, -1.237e-6
-1.013, -1.242e-6
-1.012, -1.150e-6
-1.011, -1.147e-6
-1.010, -1.173e-6
-1.009, -1.235e-6
-1.008, -1.245e-6
-1.007, -1.210e-6
-1.006, -1.142e-6
-1.005, -1.227e-6
-1.004, -1.198e-6
-1.003, -1.270e-6
-1.002, -1.193e-6
-1.001, -1.152e-6
