Potential V vs RHE, Current mA cm-2
0.013299999999999867,30.656793868075347
0.012299999999999978,28.746933613257543
0.011299999999999866,26.992691601424898
0.010299999999999976,25.507244736566612
0.009299999999999864,24.20571034069078
0.008299999999999974,22.80514615382439
0.007299999999999862,21.2348166109742
0.006299999999999972,19.805958198110513
0.00529999999999986,18.617600706223882
0.0042999999999999705,17.48583166633185
0.0032999999999998586,16.269179948447924
0.0022999999999999687,14.953498439573437
0.0012999999999998568,13.65054933239774
0.00029999999999996696,12.603662970497613
-0.000700000000000145,11.643073997889251
-0.0017000000000000348,10.553746296993173
-0.0027000000000001467,9.331435733909782
-0.0037000000000000366,8.198251982717888
-0.0047000000000001485,7.237663010109527
-0.005700000000000038,6.366200849392665
-0.00670000000000015,5.3631705377883545
-0.00770000000000004,4.2285720752965945
-0.008700000000000152,3.1378296631006513
-0.009700000000000042,2.2663675023837886
-0.010700000000000154,1.4812027309586933
-0.011700000000000044,0.5647527509061226
-0.012700000000000156,-0.5255652478998613
-0.013700000000000045,-1.4854468648582886
-0.014700000000000157,-2.3144676865791998
-0.015700000000000047,-3.055776407708479
-0.01670000000000016,-3.927238568425342
-0.01770000000000005,-4.9302688800296535
-0.01870000000000016,-5.890857852638012
-0.01970000000000005,-6.6760226240631075
-0.020700000000000163,-7.329619244600755
-0.021700000000000053,-8.158640066321666
-0.022700000000000164,-9.11781432763016
-0.023700000000000054,-10.034547249942705
-0.024700000000000166,-10.775855971071984
-0.025700000000000056,-11.385596541313816
-0.026700000000000168,-12.170761312738911
-0.027700000000000058,-13.087494235051453
-0.02870000000000017,-13.960371107068182
-0.02970000000000006,-14.65640906660178
-0.03070000000000017,-15.264734925543747
-0.03170000000000006,-16.014531914472215
-0.03270000000000017,-16.919947146385837
-0.03370000000000006,-17.71218547431026
-0.034700000000000175,-18.40539401124413
-0.035700000000000065,-19.01371987018609
-0.03670000000000018,-19.721075520118614
-0.03770000000000007,-20.584049413036283
-0.03870000000000018,-21.461170418952605
-0.03970000000000007,-22.111937616890522
-0.04070000000000018,-22.63538079784059
-0.04170000000000007,-23.385177786769056
-0.04270000000000018,-24.20571034069078
-0.04370000000000007,-25.04039000761115
-0.044700000000000184,-25.691157205549064
-0.045700000000000074,-26.21460038649913
-0.046700000000000186,-26.9643973754276
-0.047700000000000076,-27.78492992934932
-0.04870000000000019,-28.577168257273744
-0.04970000000000008,-29.22793545521166
-0.05070000000000019,-29.751378636161718
-0.05170000000000008,-30.487028512091538
-0.05270000000000019,-31.321708179011907
-0.05370000000000008,-32.14224073293363
-0.05470000000000019,-32.764713704874254
-0.05570000000000008,-33.288156885824314
-0.056700000000000195,-33.98136542275818
-0.057700000000000085,-34.8018979766799
-0.058700000000000196,-35.636577643600276
-0.059700000000000086,-36.244903502542236
-0.0607000000000002,-36.768346683492304
-0.06170000000000009,-37.47570233342482
-0.0627000000000002,-38.29623488734655
-0.06370000000000009,-39.130914554266916
-0.0647000000000002,-39.696799074212926
-0.06570000000000009,-40.220242255162994
-0.0667000000000002,-40.87100945310091
-0.0677000000000001,-41.74813045901723
-0.0687000000000002,-42.526221673943
-0.0697000000000001,-43.134547532884966
-0.07070000000000021,-43.70043205283099
-0.0717000000000001,-44.36534636376755
-0.07270000000000021,-45.22832025668522
-0.0737000000000001,-46.02055858460964
-0.07470000000000021,-46.628884443551605
-0.0757000000000001,-47.15232762450167
-0.07670000000000021,-47.84553616143554
-0.0777000000000001,-48.63777448935996
-0.07870000000000021,-49.458307043281685
-0.0797000000000001,-50.0807800152223
-0.08070000000000022,-50.60422319617236
-0.0817000000000001,-51.25499039411028
-0.08270000000000022,-52.075522948032
-0.08370000000000011,-52.86776127595642
-0.08470000000000022,-53.433645795902436
-0.08570000000000011,-53.9570889768525
-0.08670000000000022,-54.65029751378637
-0.08770000000000011,-55.484977180706736
-0.08870000000000022,-56.26306839563251
-0.08970000000000011,-56.82895291557852
-0.09070000000000022,-57.352396096528594
-0.09170000000000011,-58.05975174646111
-0.09270000000000023,-58.880284300382826
-0.09370000000000012,-59.67252262830725
-0.09470000000000023,-60.28084848724921
-0.09570000000000012,-60.80429166819927
-0.09670000000000023,-61.49750020513315
-0.09770000000000012,-62.33217987205352
-0.09870000000000023,-63.11027108697928
-0.09970000000000012,-63.77518539791585
-0.10070000000000023,-64.34106991786187
-0.10170000000000012,-64.99183711579978
-0.10270000000000024,-65.86895812171612
-0.10370000000000013,-66.64704933664189
-0.10470000000000024,-67.2978165345798
-0.10570000000000013,-67.82125971552985
-0.10670000000000024,-68.52861536546239
-0.10770000000000013,-69.30670658038814
-0.10870000000000024,-70.18382758630447
-0.10970000000000013,-70.8345947842424
-0.11070000000000024,-71.4004793041884
-0.11170000000000013,-72.15027629311687
-0.11270000000000002,-72.97080884703858
-0.11370000000000013,-73.76304717496302
-0.11470000000000002,-74.37137303390499
-0.11570000000000014,-75.02214023184291
-0.11670000000000003,-75.71534876877676
-0.11770000000000014,-76.55002843569714
-0.11870000000000003,-77.38470810261751
-0.11970000000000014,-77.99303396155948
-0.12070000000000003,-78.55891848150549
-0.12170000000000014,-79.25212701843935
-0.12270000000000003,-80.12924802435568
-0.12370000000000014,-80.90733923928146
-0.12470000000000003,-81.47322375922747
-0.12570000000000014,-81.99666694017753
-0.12670000000000003,-82.70402259011003
-0.12770000000000015,-83.52455514403178
-0.12870000000000004,-84.31679347195619
-0.12970000000000015,-84.8826779919022
-0.13070000000000004,-85.36367983385631
-0.13170000000000015,-86.05688837079018
-0.13270000000000004,-86.84912669871461
-0.13370000000000015,-87.62721791364037
-0.13470000000000004,-88.23554377258235
-0.13570000000000015,-88.71654561453644
-0.13670000000000004,-89.46634260346492
-0.13770000000000016,-90.32931649638259
-0.13870000000000005,-91.16399616330297
-0.13970000000000016,-91.85720470023682
-0.14070000000000005,-92.42308922018285
-0.14170000000000016,-93.17288620911131
-0.14270000000000005,-94.13488989301955
-0.14370000000000016,-94.99786378593721
-0.14470000000000005,-95.64863098387512
-0.14570000000000016,-96.27110395581576
-0.14670000000000005,-97.00675383174556
-0.14770000000000016,-97.92631617665783
-0.14870000000000005,-98.7044073915836
-0.14970000000000017,-99.41176304151614
-0.15070000000000006,-99.97764756146215
-0.15170000000000017,-100.670856098396
-0.15270000000000006,-101.54797710431234
-0.15370000000000017,-102.41095099723
-0.15470000000000006,-103.01927685617197
-0.15570000000000017,-103.64174982811258
-0.15670000000000006,-104.3773997040424
-0.15770000000000017,-105.21207937096277
-0.15870000000000006,-106.07505326388046
-0.15970000000000018,-106.68337912282242
-0.16070000000000007,-107.26341075576708
-0.16170000000000018,-107.99906063169689
-0.16270000000000007,-108.91862297660917
-0.16370000000000018,-109.73915553053091
-0.16470000000000007,-110.4465111804634
-0.16570000000000018,-111.05483703940537
-0.16670000000000007,-111.83292825433115
-0.16770000000000018,-112.66760792125153
-0.16870000000000007,-113.53058181416918
-0.16970000000000018,-114.23793746410173
-0.17070000000000007,-114.80382198404773
-0.17170000000000019,-115.53947185997755
-0.17270000000000008,-116.37415152689792
-0.1737000000000002,-117.19468408081964
-0.17470000000000008,-117.90203973075215
-0.1757000000000002,-118.42548291170223
-0.17670000000000008,-119.20357412662798
-0.1777000000000002,-120.08069513254432
-0.17870000000000008,-120.9153747994647
-0.1797000000000002,-121.52370065840667
-0.18070000000000008,-122.0471438393567
-0.1817000000000002,-122.78279371528653
-0.18270000000000008,-123.70235606019881
-0.1837000000000002,-124.57947706611512
-0.1847000000000001,-125.23024426405304
-0.1857000000000002,-125.88101146199097
-0.1867000000000001,-126.6732497899154
-0.1877000000000002,-127.53622368283307
-0.1887000000000001,-128.37090334975343
-0.1897000000000002,-129.02167054769134
-0.1907000000000001,-129.67243774562928
-0.1917000000000001,-130.42223473455772
-0.19269999999999998,-131.37009130546733
-0.1937000000000001,-132.20477097238768
-0.19469999999999998,-132.89797950932152
-0.1957000000000001,-133.52045248126214
-0.19669999999999999,-134.256102357192
-0.1977000000000001,-135.2181060411002
-0.1987,-135.99619725602597
-0.1997000000000001,-136.74599424495443
-0.2007,-137.22699608690854
-0.2017000000000001,-138.00508730183432
-0.2027,-138.8397669687547
-0.2037000000000001,-139.70274086167237
-0.2047,-140.41009651160488
-0.2057000000000001,-141.06086370954282
-0.2067,-141.75407224647665
-0.2077000000000001,-142.6028990263957
-0.2087,-143.4517258063147
-0.2097000000000001,-144.15908145624724
-0.2107,-144.86643710617977
-0.2117000000000001,-145.57379275611228
-0.2127,-146.5640906660178
-0.2137000000000001,-147.55438857592333
-0.2147,-148.26174422585584
-0.2157000000000001,-148.96909987578834
-0.2167,-149.6764555257209
-0.21770000000000012,-150.66675343562642
-0.2187,-151.37410908555893
-0.21970000000000012,-152.0814647354914
-0.2207,-152.78882038542397
-0.22170000000000012,-153.49617603535648
-0.2227,-154.486473945262
-0.22370000000000012,-155.33530072518104
-0.2247,-156.04265637511355
-0.22570000000000012,-156.75001202504606
-0.2267,-157.59883880496508
-0.22770000000000012,-158.5891367148706
-0.22870000000000001,-159.43796349478964
-0.22970000000000013,-160.28679027470866
-0.23070000000000002,-160.99414592464117
-0.23170000000000013,-161.70150157457368
-0.23270000000000002,-162.6917994844792
-0.23370000000000013,-163.54062626439824
-0.23470000000000002,-164.24798191433075
-0.23570000000000013,-164.81386643427678
-0.23670000000000002,-165.5212220842093
-0.2376999999999999,-166.51151999411482
-0.23870000000000002,-167.21887564404733
-0.2396999999999999,-167.92623129397984
-0.24070000000000003,-168.49211581392586
-0.24169999999999991,-169.19947146385837
-0.24270000000000003,-170.18976937376394
-0.24369999999999992,-171.03859615368293
-0.24470000000000003,-171.60448067362896
-0.24569999999999992,-172.17036519357498
-0.24670000000000003,-172.87772084350746
-0.24769999999999992,-173.86801875341303
-0.24870000000000003,-174.85831666331853
-0.24969999999999992,-175.56567231325104
-0.25070000000000003,-176.27302796318358
-0.2516999999999999,-176.98038361311612
-0.25270000000000004,-177.9706815230216
-0.2536999999999999,-178.96097943292713
-0.25470000000000004,-179.66833508285964
-0.2556999999999999,-180.37569073279218
-0.25670000000000004,-181.08304638272472
-0.25769999999999993,-182.07334429263022
-0.25870000000000004,-182.92217107254925
-0.25969999999999993,-183.62952672248176
-0.26070000000000004,-184.19541124242778
-0.26169999999999993,-185.0442380223468
-0.26270000000000004,-186.03453593225234
-0.26369999999999993,-186.88336271217133
-0.26470000000000005,-187.59071836210387
-0.26569999999999994,-188.15660288204987
-0.26670000000000005,-189.1469007919554
-0.26769999999999994,-189.99572757187443
-0.26870000000000005,-190.98602548177996
-0.26969999999999994,-191.69338113171247
-0.27070000000000005,-192.40073678164498
-0.27169999999999994,-193.249563561564
-0.27270000000000005,-194.2398614714695
-0.27369999999999994,-195.08868825138856
-0.27470000000000006,-195.79604390132107
-0.27569999999999995,-196.50339955125358
-0.27670000000000006,-197.35222633117263
-0.27769999999999995,-198.3425242410781
-0.27870000000000006,-199.33282215098367
-0.27969999999999995,-199.89870667092967
-0.28070000000000006,-200.6060623208622
-0.28169999999999995,-201.31341797079472
-0.28270000000000006,-202.30371588070025
-0.28369999999999995,-203.29401379060576
-0.28470000000000006,-204.0013694405383
-0.28569999999999995,-204.7087250904708
-0.28670000000000007,-205.55755187038983
-0.28769999999999996,-206.40637865030885
-0.28870000000000007,-207.25520543022787
-0.28969999999999996,-207.96256108016038
-0.29070000000000007,-208.6699167300929
-0.29169999999999996,-209.51874351001192
-0.29270000000000007,-210.50904141991748
-0.29369999999999996,-211.64081045980947
-0.2947000000000001,-212.34816610974204
-0.29569999999999996,-213.05552175967455
-0.2967000000000001,-213.90434853959354
-0.29769999999999996,-214.89464644949908
-0.2987000000000001,-215.6020020994316
-0.29969999999999997,-216.3093577493641
-0.3007000000000001,-216.73377113932364
-0.30169999999999997,-217.58259791924263
-0.3027000000000001,-218.43142469916165
-0.30369999999999997,-219.42172260906716
-0.3047000000000001,-220.1290782589997
-0.30569999999999997,-220.83643390893224
-0.3067000000000001,-221.68526068885126
-0.3077,-222.6755585987568
-0.3087000000000001,-223.52438537867582
-0.3097,-224.37321215859478
-0.3107000000000001,-225.08056780852735
-0.3117,-225.92939458844637
-0.3127000000000001,-226.91969249835188
-0.3137,-227.9099904082574
-0.3147000000000001,-228.61734605818995
-0.3157,-229.18323057813595
-0.3167000000000001,-230.31499961802797
-0.3177,-231.44676865792
-0.3187000000000001,-232.15412430785253
-0.3197,-233.00295108777152
-0.3207000000000001,-233.85177786769057
-0.3217,-234.7006046476096
-0.3227000000000001,-235.69090255751513
-0.3237,-236.6812004674206
-0.3247000000000001,-237.38855611735315
-0.3257,-238.0959117672857
-0.3267000000000001,-238.94473854720468
-0.3277,-239.93503645711021
-0.3287000000000001,-240.92533436701575
-0.3297,-241.6326900169483
-0.3307000000000001,-242.19857453689428
-0.3317,-243.18887244679982
-0.3327000000000001,-244.17917035670533
-0.3337,-245.02799713662432
-0.3347000000000001,-245.73535278655686
-0.3357,-246.4427084364894
-0.3367000000000001,-247.2915352164084
-0.3377,-247.99889086634093
-0.3387000000000001,-248.84771764625998
-0.3397,-249.5550732961925
-0.3407000000000001,-250.1209578161385
-0.3417,-250.6868423360845
-0.3427000000000001,-251.53566911600356
-0.3437,-252.243024765936
-0.3447000000000001,-252.95038041586852
-0.3457,-253.65773606580112
-0.3467000000000001,-254.50656284572008
-0.3477,-255.49686075562562
-0.3487000000000001,-256.4871586655312
-0.3497,-257.1945143154637
-0.3507000000000001,-257.90186996539614
-0.3517,-258.60922561532874
-0.3527000000000001,-259.59952352523425
-0.3537,-260.4483503051532
-0.3547000000000001,-261.01423482509927
-0.3557,-261.58011934504526
-0.35670000000000013,-262.42894612496434
-0.3577,-263.27777290488336
-0.35870000000000013,-264.2680708147888
-0.3597,-264.9754264647214
-0.36070000000000013,-265.5413109846674
-0.3617,-266.3901377645864
-0.3626999999999999,-267.23896454450545
-0.3637,-268.22926245441096
-0.3646999999999999,-268.93661810434344
-0.3657,-269.5025026242895
-0.3666999999999999,-270.35132940420846
-0.3677,-271.20015618412754
-0.3686999999999999,-272.1904540940331
-0.36970000000000003,-272.8978097439656
-0.3706999999999999,-273.4636942639116
-0.37170000000000003,-274.31252104383066
-0.3726999999999999,-275.1613478237496
-0.37370000000000003,-276.01017460366864
-0.3746999999999999,-276.7175302536012
-0.37570000000000003,-277.2834147735472
-0.3766999999999999,-277.9907704234797
-0.37770000000000004,-278.9810683333853
-0.3786999999999999,-279.82989511330425
-0.37970000000000004,-280.3957796332503
-0.3806999999999999,-280.9616641531963
-0.38170000000000004,-281.66901980312883
-0.38269999999999993,-282.51784658304786
-0.38370000000000004,-283.08373110299385
-0.38469999999999993,-283.9325578829129
-0.38570000000000004,-284.35697127287233
-0.38669999999999993,-283.79108675292633
-0.38570000000000004,-280.9616641531963
-0.38469999999999993,-278.1322415534662
-0.38370000000000004,-275.30281895373616
-0.38269999999999993,-272.3319252240195
-0.38170000000000004,-269.5025026242895
-0.3806999999999999,-266.9560222845325
-0.37970000000000004,-264.40954194477536
-0.3786999999999999,-261.7215904750318
-0.37770000000000004,-259.0336390052882
-0.3766999999999999,-256.62862979551767
-0.37570000000000003,-254.36509171573357
-0.3746999999999999,-251.81861137597656
-0.37370000000000003,-249.41360216620598
-0.3726999999999999,-246.7256506964624
-0.37170000000000003,-244.32064148669184
-0.3706999999999999,-242.05710340690777
-0.36970000000000003,-239.65209419713722
-0.3686999999999999,-237.10561385738015
-0.3677,-234.55913351762308
-0.3666999999999999,-232.15412430785253
-0.3657,-230.03205735805497
-0.3646999999999999,-227.7685192782709
-0.3637,-225.36351006850035
-0.3626999999999999,-222.9585008587298
-0.3617,-220.6949627789457
-0.36070000000000013,-218.57289582914817
-0.3597,-216.59230000933712
-0.35870000000000013,-214.18729079956654
-0.3577,-211.782281589796
-0.35670000000000013,-209.66021463999843
-0.3557,-207.67961882018741
-0.3547000000000001,-205.55755187038983
-0.3537,-203.29401379060576
-0.3527000000000001,-200.88900458083523
-0.3517,-198.90840876102413
-0.3507000000000001,-196.92781294121312
-0.3497,-194.94721712140205
-0.3487000000000001,-192.683679041618
-0.3477,-190.42014096183394
-0.3467000000000001,-188.29807401203638
-0.3457,-186.31747819222534
-0.3447000000000001,-184.47835350240078
-0.3437,-182.21481542261674
-0.3427000000000001,-180.09274847281918
-0.3417,-178.1121526530081
-0.3407000000000001,-176.13155683319707
-0.3397,-174.150961013386
-0.3387000000000001,-172.0288940635885
-0.3377,-169.9068271137909
-0.3367000000000001,-168.06770242396635
-0.3357,-166.0871066041553
-0.3347000000000001,-164.24798191433075
-0.3337,-162.2673860945197
-0.3327000000000001,-160.14531914472215
-0.3317,-158.1647233249111
-0.3307000000000001,-156.46706976507306
-0.3297,-154.486473945262
-0.3287000000000001,-152.50587812545095
-0.3277,-150.5252823056399
-0.3267000000000001,-148.54468648582886
-0.3257,-146.8470329259908
-0.3247000000000001,-145.00790823616626
-0.3237,-143.0273124163552
-0.3227000000000001,-141.10330504853877
-0.3217,-139.3207688107088
-0.3207000000000001,-137.6089681378721
-0.3197,-135.86887323903812
-0.3187000000000001,-133.94486587122168
-0.3177,-132.07744695539984
-0.3167000000000001,-130.37979339556176
-0.3157,-128.752875400717
-0.3147000000000001,-127.14010451887084
-0.3137,-125.31512694204494
-0.3127000000000001,-123.43356091322445
-0.3117,-121.77834869238235
-0.3107000000000001,-120.25046048852812
-0.3097,-118.63768960668197
-0.3087000000000001,-116.89759470784797
-0.3077,-115.05847001802343
-0.3067000000000001,-113.40325779718134
-0.30569999999999997,-111.83292825433115
-0.3047000000000001,-110.22015737248502
-0.30369999999999997,-108.48006247365102
-0.3027000000000001,-106.64093778382647
-0.30169999999999997,-105.02816690198033
-0.3007000000000001,-103.54272003712204
-0.29969999999999997,-102.02897894626645
-0.2987000000000001,-100.31717827342976
-0.29769999999999996,-98.57708337459576
-0.2967000000000001,-97.00675383174556
-0.29569999999999996,-95.56374830588322
-0.2947000000000001,-94.03586010202899
-0.29369999999999996,-92.33820654219093
-0.29270000000000007,-90.59811164335694
-0.29169999999999996,-89.02778210050676
-0.29070000000000007,-87.66965925263632
-0.28969999999999996,-86.18421238777805
-0.28870000000000007,-84.52900016693594
-0.28769999999999996,-82.87378794609386
-0.28670000000000007,-81.38834108123557
-0.28569999999999995,-80.08680668535972
-0.28470000000000006,-78.64380115949739
-0.28369999999999995,-77.03103027765125
-0.28270000000000006,-75.37581805680915
-0.28169999999999995,-73.89037119195086
-0.28070000000000006,-72.57468968307639
-0.27969999999999995,-71.1458312702127
-0.27870000000000006,-69.57550172736251
-0.27769999999999995,-67.96273084551636
-0.27670000000000006,-66.51972531965401
-0.27569999999999995,-65.16160247178358
-0.27470000000000006,-63.860068075907755
-0.27369999999999994,-62.33217987205352
-0.27270000000000005,-60.80429166819927
-0.27169999999999994,-59.403727481332886
-0.27070000000000005,-58.18707576344896
-0.26969999999999994,-56.88554136757313
-0.26870000000000005,-55.357653163718886
-0.26769999999999994,-53.82976495986464
