Potential V vs RHE, Current mA cm-2
0.013299999999999867,28.60546248327104
0.012299999999999978,26.907808923433
0.011299999999999866,25.210155363594954
0.010299999999999976,23.51250180375691
0.009299999999999864,21.899730921910766
0.008299999999999974,20.456725396048434
0.007299999999999862,19.098602548177997
0.006299999999999972,17.797068152302163
0.00529999999999986,16.52382798242363
0.0042999999999999705,15.137410908555893
0.0032999999999998586,13.736846721689506
0.0022999999999999687,12.428238769314348
0.0012999999999998568,11.20734291753082
0.00029999999999996696,10.116600505334876
-0.000700000000000145,9.025858093138934
-0.0017000000000000348,7.892674341947039
-0.0027000000000001467,6.627922439867697
-0.0037000000000000366,5.405611876784305
-0.0047000000000001485,4.272428125592412
-0.005700000000000038,3.225541763692284
-0.00670000000000015,2.30880884137974
-0.00770000000000004,1.349917522331218
-0.008700000000000152,0.2594580523952477
-0.009700000000000042,-0.9181476336124089
-0.010700000000000154,-2.008890045808352
-0.011700000000000044,-3.0119203574126634
-0.012700000000000156,-3.927238568425342
-0.013700000000000045,-4.756259390146253
-0.014700000000000157,-5.672992312458796
-0.015700000000000047,-6.719878674358924
-0.01670000000000016,-7.809206375255003
-0.01770000000000005,-8.769795347863363
-0.01870000000000016,-9.641257508580225
-0.01970000000000005,-10.470278330301136
-0.020700000000000163,-11.255443101726232
-0.021700000000000053,-12.170761312738911
-0.022700000000000164,-13.175206335643086
-0.023700000000000054,-14.13438059695158
-0.024700000000000166,-15.05252823056399
-0.025700000000000056,-15.87306078448571
-0.026700000000000168,-16.580416434418233
-0.027700000000000058,-17.358507649344002
-0.02870000000000017,-18.27806999425627
-0.02970000000000006,-19.2400736781645
-0.03070000000000017,-20.159636023076775
-0.03170000000000006,-20.93772723800254
-0.03270000000000017,-21.67337711393236
-0.03370000000000006,-22.38073276386488
-0.034700000000000175,-23.15882397879065
-0.035700000000000065,-24.035944984706973
-0.03670000000000018,-24.95550732961925
-0.03770000000000007,-25.81848122253692
-0.03870000000000018,-26.61071955046134
-0.03970000000000007,-27.261486748399253
-0.04070000000000018,-27.954695285333123
-0.04170000000000007,-28.746933613257543
-0.04270000000000018,-29.62405461917387
-0.04370000000000007,-30.487028512091538
-0.044700000000000184,-31.27926684001596
-0.045700000000000074,-32.01491671594578
-0.046700000000000186,-32.62324257488775
-0.047700000000000076,-33.373039563816214
-0.04870000000000019,-34.15113077874198
-0.04970000000000008,-35.07069312365426
-0.05070000000000019,-35.90537279057463
-0.05170000000000008,-36.64102266650445
-0.05270000000000019,-37.291789864442364
-0.05370000000000008,-37.94255706238028
-0.05470000000000019,-38.692354051308754
-0.05570000000000008,-39.47044526623452
-0.056700000000000195,-40.34756627215084
-0.057700000000000085,-41.182245939071215
-0.058700000000000196,-41.87545447600508
-0.059700000000000086,-42.526221673943
-0.0607000000000002,-43.134547532884966
-0.06170000000000009,-43.92678586080939
-0.0627000000000002,-44.74731841473111
-0.06370000000000009,-45.624439420647434
-0.0647000000000002,-46.37423640957591
-0.06570000000000009,-47.067444946509774
-0.0667000000000002,-47.67577080545174
-0.0677000000000001,-48.32653800338966
-0.0687000000000002,-49.118776331314066
-0.0697000000000001,-49.98175022423175
-0.07070000000000021,-50.81642989115212
-0.0717000000000001,-51.509638428085985
-0.07270000000000021,-52.2169940780185
-0.0737000000000001,-52.82531993696047
-0.07470000000000021,-53.518528473894335
-0.0757000000000001,-54.35320814081471
-0.07670000000000021,-55.21618203373238
-0.0777000000000001,-56.05086170065276
-0.07870000000000021,-56.74407023758662
-0.0797000000000001,-57.408984548523186
-0.08070000000000022,-58.05975174646111
-0.0817000000000001,-58.79540162239092
-0.08270000000000022,-59.6300812893113
-0.08370000000000011,-60.49305518222897
-0.08470000000000022,-61.242852171157445
-0.08570000000000011,-61.89361936909536
-0.08670000000000022,-62.544386567033264
-0.08770000000000011,-63.251742216965795
-0.08870000000000022,-64.02983343189156
-0.08970000000000011,-64.86451309881193
-0.09070000000000022,-65.7274869917296
-0.09170000000000011,-66.47728398065809
-0.09270000000000023,-67.128051178596
-0.09370000000000012,-67.7788183765339
-0.09470000000000023,-68.52861536546239
-0.09570000000000012,-69.3491479193841
-0.09670000000000023,-70.18382758630447
-0.09770000000000012,-71.0043601402262
-0.09870000000000023,-71.75415712915466
-0.09970000000000012,-72.40492432709259
-0.10070000000000023,-73.01325018603454
-0.10170000000000012,-73.76304717496302
-0.10270000000000024,-74.62602106788069
-0.10370000000000013,-75.46070073480107
-0.10470000000000024,-76.29538040172143
-0.10570000000000013,-76.94614759965934
-0.10670000000000024,-77.55447345860131
-0.10770000000000013,-78.24768199553519
-0.10870000000000024,-79.08236166245555
-0.10970000000000013,-79.94533555537322
-0.11070000000000024,-80.7800152222936
-0.11170000000000013,-81.51566509822342
-0.11270000000000002,-82.18057940915998
-0.11370000000000013,-82.8313466070979
-0.11470000000000002,-83.56699648302772
-0.11570000000000014,-84.31679347195619
-0.11670000000000003,-85.17976736487385
-0.11770000000000014,-86.01444703179425
-0.11870000000000003,-86.7076555687281
-0.11970000000000014,-87.33012854066871
-0.12070000000000003,-87.98089573860662
-0.12170000000000014,-88.80142829252836
-0.12270000000000003,-89.63610795944872
-0.12370000000000014,-90.51322896536506
-0.12470000000000003,-91.29132018029082
-0.12570000000000014,-92.04111716921928
-0.12670000000000003,-92.6918843671572
-0.12770000000000015,-93.42753424308701
-0.12870000000000004,-94.30465524900335
-0.12970000000000015,-95.22421759391563
-0.13070000000000004,-96.12963282582925
-0.13170000000000015,-96.87942981475771
-0.13270000000000004,-97.57263835169158
-0.13370000000000015,-98.26584688862545
-0.13470000000000004,-99.05808521654988
-0.13570000000000015,-99.87861777047159
-0.13670000000000004,-100.79818011538387
-0.13770000000000016,-101.63285978230424
-0.13870000000000005,-102.3260683192381
-0.13970000000000016,-103.01927685617197
-0.14070000000000005,-103.68419116710854
-0.14170000000000016,-104.50472372103027
-0.14270000000000005,-105.38184472694657
-0.14370000000000016,-106.2589657328629
-0.14470000000000005,-107.07949828678463
-0.14570000000000016,-107.78685393671715
-0.14670000000000005,-108.43762113465506
-0.14770000000000016,-109.13082967158894
-0.14870000000000005,-109.92306799951335
-0.14970000000000017,-110.78604189243102
-0.15070000000000006,-111.66316289834735
-0.15170000000000017,-112.39881277427718
-0.15270000000000006,-113.10616842420968
-0.15370000000000017,-113.71449428315165
-0.15470000000000006,-114.4925854980774
-0.15570000000000017,-115.32726516499778
-0.15670000000000006,-116.24682750991008
-0.15770000000000017,-117.06736006383179
-0.15870000000000006,-117.81715705276027
-0.15970000000000018,-118.42548291170223
-0.16070000000000007,-119.1186914486361
-0.16170000000000018,-119.9109297765605
-0.16270000000000007,-120.77390366947817
-0.16370000000000018,-121.73590735338641
-0.16470000000000007,-122.57058702030677
-0.16570000000000018,-123.34867823523254
-0.16670000000000007,-124.05603388516508
-0.16770000000000018,-124.74924242209892
-0.16870000000000007,-125.6688047670112
-0.16970000000000018,-126.57421999892482
-0.17070000000000007,-127.45134100484115
-0.17170000000000019,-128.28602067176152
-0.17270000000000008,-128.93678786969946
-0.1737000000000002,-129.6299964066333
-0.17470000000000008,-130.42223473455772
-0.1757000000000002,-131.28520862747538
-0.17670000000000008,-132.20477097238768
-0.1777000000000002,-133.08189197830401
-0.17870000000000008,-133.81754185423384
-0.1797000000000002,-134.5107503911677
-0.18070000000000008,-135.2181060411002
-0.1817000000000002,-135.91131457803408
-0.18270000000000008,-136.95820093993422
-0.1837000000000002,-137.9626459628384
-0.1847000000000001,-138.7548842907628
-0.1857000000000002,-139.53297550568857
-0.1867000000000001,-140.22618404262244
-0.1877000000000002,-140.9759810315509
-0.1887000000000001,-141.75407224647665
-0.1897000000000002,-142.7443701563822
-0.1907000000000001,-143.5931969363012
-0.1917000000000001,-144.30055258623375
-0.19269999999999998,-145.00790823616626
-0.1937000000000001,-145.7152638860988
-0.19469999999999998,-146.4226195360313
-0.1957000000000001,-147.27144631595033
-0.19669999999999999,-148.26174422585584
-0.1977000000000001,-149.1105710057749
-0.1987,-149.8179266557074
-0.1997000000000001,-150.66675343562642
-0.2007,-151.23263795557244
-0.2017000000000001,-152.0814647354914
-0.2027,-153.07176264539694
-0.2037000000000001,-153.920589425316
-0.2047,-154.9108873352215
-0.2057000000000001,-155.61824298515404
-0.2067,-156.18412750510007
-0.2077000000000001,-157.03295428501906
-0.2087,-157.88178106493808
-0.2097000000000001,-158.87207897484362
-0.2107,-159.72090575476264
-0.2117000000000001,-160.71120366466818
-0.2127,-161.41855931460069
-0.2137000000000001,-162.12591496453322
-0.2147,-162.97474174445222
-0.2157000000000001,-163.96503965435775
-0.2167,-165.09680869424977
-0.21770000000000012,-165.94563547416882
-0.2187,-166.79446225408785
-0.21970000000000012,-167.50181790402033
-0.2207,-168.20917355395284
-0.22170000000000012,-169.0580003338719
-0.2227,-170.0482982437774
-0.22370000000000012,-170.89712502369645
-0.2247,-171.74595180361547
-0.22570000000000012,-172.59477858353446
-0.2267,-173.302134233467
-0.22770000000000012,-174.0094898833995
-0.22870000000000001,-174.85831666331853
-0.22970000000000013,-175.84861457322407
-0.23070000000000002,-176.6974413531431
-0.23170000000000013,-177.54626813306209
-0.23270000000000002,-178.25362378299462
-0.23370000000000013,-178.81950830294062
-0.23470000000000002,-179.66833508285964
-0.23570000000000013,-180.65863299276518
-0.23670000000000002,-181.5074597726842
-0.2376999999999999,-182.49775768258974
-0.23870000000000002,-183.20511333252225
-0.2396999999999999,-183.91246898245475
-0.24070000000000003,-184.7612957623738
-0.24169999999999991,-185.6101225422928
-0.24270000000000003,-186.45894932221185
-0.24369999999999992,-187.44924723211736
-0.24470000000000003,-188.15660288204987
-0.24569999999999992,-188.8639585319824
-0.24670000000000003,-189.71278531190143
-0.24769999999999992,-190.42014096183394
-0.24870000000000003,-191.268967741753
-0.24969999999999992,-192.2592656516585
-0.25070000000000003,-193.249563561564
-0.2516999999999999,-194.09839034148303
-0.25270000000000004,-194.80574599141553
-0.2536999999999999,-195.51310164134807
-0.25470000000000004,-196.50339955125358
-0.2556999999999999,-197.35222633117263
-0.25670000000000004,-198.3425242410781
-0.25769999999999993,-199.19135102099716
-0.25870000000000004,-200.04017780091618
-0.25969999999999993,-200.7475334508487
-0.26070000000000004,-201.4548891007812
-0.26169999999999993,-202.30371588070025
-0.26270000000000004,-203.29401379060576
-0.26369999999999993,-204.2843117005113
-0.26470000000000005,-205.13313848043032
-0.26569999999999994,-205.98196526034934
-0.26670000000000005,-206.68932091028185
-0.26769999999999994,-207.5381476902009
-0.26870000000000005,-208.3869744701199
-0.26969999999999994,-209.23580125003892
-0.27070000000000005,-210.08462802995794
-0.27169999999999994,-211.07492593986345
-0.27270000000000005,-211.782281589796
-0.27369999999999994,-212.631108369715
-0.27470000000000006,-213.47993514963403
-0.27569999999999995,-214.32876192955305
-0.27670000000000006,-215.31905983945856
-0.27769999999999995,-216.3093577493641
-0.27870000000000006,-217.01671339929663
-0.27969999999999995,-217.86554017921566
-0.28070000000000006,-218.57289582914817
-0.28169999999999995,-219.42172260906716
-0.28270000000000006,-220.41202051897272
-0.28369999999999995,-221.40231842887826
-0.28470000000000006,-222.25114520879725
-0.28569999999999995,-223.09997198871628
-0.28670000000000007,-223.80732763864881
-0.28769999999999996,-224.65615441856778
-0.28870000000000007,-225.64645232847332
-0.28969999999999996,-226.63675023837888
-0.29070000000000007,-227.4855770182979
-0.29169999999999996,-228.33440379821695
-0.29270000000000007,-229.18323057813595
-0.29369999999999996,-229.89058622806846
-0.2947000000000001,-230.7394130079875
-0.29569999999999996,-231.729710917893
-0.2967000000000001,-232.72000882779852
-0.29769999999999996,-233.71030673770406
-0.2987000000000001,-234.55913351762308
-0.29969999999999997,-235.40796029754208
-0.3007000000000001,-236.25678707746113
-0.30169999999999997,-237.10561385738015
-0.3027000000000001,-238.0959117672857
-0.30369999999999997,-239.0862096771912
-0.3047000000000001,-239.93503645711021
-0.30569999999999997,-240.64239210704275
-0.3067000000000001,-241.49121888696175
-0.3077,-242.19857453689428
-0.3087000000000001,-243.04740131681334
-0.3097,-244.03769922671884
-0.3107000000000001,-245.02799713662432
-0.3117,-245.87682391654337
-0.3127000000000001,-246.5841795664759
-0.3137,-247.2915352164084
-0.3147000000000001,-248.14036199632744
-0.3157,-248.9891887762465
-0.3167000000000001,-249.979486686152
-0.3177,-250.9697845960575
-0.3187000000000001,-251.81861137597656
-0.3197,-252.52596702590907
-0.3207000000000001,-253.23332267584152
-0.3217,-254.2236205857471
-0.3227000000000001,-255.07244736566614
-0.3237,-256.0627452755717
-0.3247000000000001,-257.0530431854772
-0.3257,-257.90186996539614
-0.3267000000000001,-258.60922561532874
-0.3277,-259.3165812652612
-0.3287000000000001,-260.3068791751668
-0.3297,-261.2971770850723
-0.3307000000000001,-262.2874749949778
-0.3317,-262.9948306449103
-0.3327000000000001,-263.7021862948428
-0.3337,-264.55101307476184
-0.3347000000000001,-265.39983985468086
-0.3357,-266.2486666345999
-0.3367000000000001,-267.38043567449193
-0.3377,-268.22926245441096
-0.3387000000000001,-269.07808923433
-0.3397,-269.78544488426246
-0.3407000000000001,-270.63427166418154
-0.3417,-271.4830984441005
-0.3427000000000001,-272.61486748399255
-0.3437,-273.60516539389806
-0.3447000000000001,-274.4539921738171
-0.3457,-275.30281895373616
-0.3467000000000001,-276.01017460366864
-0.3477,-276.8590013835877
-0.3487000000000001,-277.7078281635067
-0.3497,-278.6981260734122
-0.3507000000000001,-279.82989511330425
-0.3517,-280.67872189322327
-0.3527000000000001,-281.3860775431558
-0.3537,-282.3763754530613
-0.3547000000000001,-283.22520223298034
-0.3557,-284.2155001428859
-0.35670000000000013,-285.3472691827779
-0.3577,-286.33756709268346
-0.35870000000000013,-287.1863938726024
-0.3597,-287.893749522535
-0.36070000000000013,-288.6011051724675
-0.3617,-289.59140308237295
-0.3626999999999999,-290.5817009922785
-0.3637,-291.571998902184
-0.3646999999999999,-292.56229681208964
-0.3657,-293.26965246202207
-0.3666999999999999,-294.11847924194115
-0.3677,-294.96730602186017
-0.3686999999999999,-295.8161328017792
-0.36970000000000003,-296.80643071168464
-0.3706999999999999,-297.79672862159026
-0.37170000000000003,-298.50408427152274
-0.3726999999999999,-299.2114399214552
-0.37370000000000003,-299.91879557138776
-0.3746999999999999,-300.76762235130684
-0.37570000000000003,-301.6164491312258
-0.3766999999999999,-302.74821817111786
-0.37770000000000004,-303.5970449510368
-0.3786999999999999,-304.4458717309559
-0.37970000000000004,-305.1532273808884
-0.3806999999999999,-306.00205416080746
-0.38170000000000004,-306.70940981073994
-0.38269999999999993,-307.55823659065896
-0.38370000000000004,-308.407063370578
-0.38469999999999993,-309.255890150497
-0.38570000000000004,-309.9632458004295
-0.38669999999999993,-309.53883241047004
-0.38570000000000004,-306.70940981073994
-0.38469999999999993,-304.1629294709828
-0.38370000000000004,-301.6164491312258
-0.38269999999999993,-298.9284976614822
-0.38170000000000004,-296.0990750617522
-0.3806999999999999,-293.55259472199515
-0.37970000000000004,-290.86464325225154
-0.3786999999999999,-288.176691782508
-0.37770000000000004,-285.4887403127644
-0.3766999999999999,-283.08373110299385
-0.37570000000000003,-280.67872189322327
-0.3746999999999999,-278.1322415534662
-0.37370000000000003,-275.7272323436957
-0.3726999999999999,-273.1807520039386
-0.37170000000000003,-270.775742794168
-0.3706999999999999,-268.512204714384
-0.36970000000000003,-266.2486666345999
-0.3686999999999999,-263.7021862948428
-0.3677,-262.0045327350048
-0.3666999999999999,-260.58982143513975
-0.3657,-258.18481222536917
-0.3646999999999999,-256.0627452755717
-0.3637,-253.94067832577412
-0.3626999999999999,-251.81861137597656
-0.3617,-249.5550732961925
-0.36070000000000013,-247.1500640864219
-0.3597,-244.74505487665132
-0.35870000000000013,-242.48151679686728
-0.3577,-240.35944984706975
-0.35670000000000013,-238.2373828972722
-0.3557,-236.1153159474746
-0.3547000000000001,-233.85177786769057
-0.3537,-231.5882397879065
-0.3527000000000001,-229.32470170812243
-0.3517,-227.06116362833836
-0.3507000000000001,-225.08056780852735
-0.3497,-223.09997198871628
-0.3487000000000001,-220.83643390893224
-0.3477,-218.71436695913465
-0.3467000000000001,-216.4508288793506
-0.3457,-214.47023305953954
-0.3447000000000001,-212.34816610974204
-0.3437,-210.36757028993094
-0.3427000000000001,-208.3869744701199
-0.3417,-206.40637865030885
-0.3407000000000001,-204.2843117005113
-0.3397,-202.16224475071377
-0.3387000000000001,-200.18164893090267
-0.3377,-198.20105311109162
-0.3367000000000001,-196.50339955125358
-0.3357,-194.52280373144254
-0.3347000000000001,-192.40073678164498
-0.3337,-190.27866983184742
-0.3327000000000001,-188.29807401203638
-0.3317,-186.31747819222534
-0.3307000000000001,-184.47835350240078
-0.3297,-182.63922881257625
-0.3287000000000001,-180.8001041227517
-0.3277,-178.81950830294062
-0.3267000000000001,-176.6974413531431
-0.3257,-174.71684553333202
-0.3247000000000001,-173.16066310348046
-0.3237,-171.46300954364247
-0.3227000000000001,-169.6238848538179
-0.3217,-167.78476016399335
-0.3207000000000001,-165.8041643441823
-0.3197,-163.82356852437124
-0.3187000000000001,-161.9844438345467
-0.3177,-160.14531914472215
-0.3167000000000001,-158.4476655848841
-0.3157,-156.60854089505958
-0.3147000000000001,-154.76941620523502
-0.3137,-152.78882038542397
-0.3127000000000001,-150.8082245656129
-0.3117,-148.96909987578834
-0.3107000000000001,-147.27144631595033
-0.3097,-145.57379275611228
-0.3087000000000001,-143.87613919627424
-0.3077,-141.89554337646317
-0.3067000000000001,-140.01397734764268
-0.30569999999999997,-138.23144110981272
-0.3047000000000001,-136.562081775972
-0.30369999999999997,-134.94931089412586
-0.3027000000000001,-133.29409867328377
-0.30169999999999997,-131.55400377444977
-0.3007000000000001,-129.7148790846252
-0.29969999999999997,-127.93234284679528
-0.2987000000000001,-126.19224794796128
-0.29769999999999996,-124.57947706611512
-0.2967000000000001,-123.00914752326493
-0.29569999999999996,-121.43881798041474
-0.2947000000000001,-119.769458646574
-0.29369999999999996,-117.98692240874406
-0.29270000000000007,-116.24682750991008
-0.29169999999999996,-114.63405662806393
-0.29070000000000007,-113.10616842420968
-0.28969999999999996,-111.5358388813595
-0.28870000000000007,-109.8806266605174
-0.28769999999999996,-108.21126732667666
-0.28670000000000007,-106.47117242784265
-0.28569999999999995,-104.81596020700057
-0.28470000000000006,-103.33051334214227
-0.28369999999999995,-101.84506647728399
-0.28270000000000006,-100.35961961242569
-0.28169999999999995,-98.7044073915836
-0.28070000000000006,-97.00675383174556
-0.27969999999999995,-95.35154161090348
-0.27870000000000006,-93.78121206805329
-0.27769999999999995,-92.25332386419905
-0.27670000000000006,-90.85275967733266
-0.27569999999999995,-89.32487147347842
-0.27470000000000006,-87.75454193062824
-0.27369999999999994,-86.14177104878208
-0.27270000000000005,-84.48655882793999
-0.27169999999999994,-83.0011119630817
-0.27070000000000005,-81.61469488921396
-0.26969999999999994,-80.21413070234757
-0.26870000000000005,-78.72868383748929
-0.26769999999999994,-77.1583542946391
-0.26670000000000005,-75.50314207379701
