Mar. 16, 2025   05:21:24
Cyclic Voltammetry
File: c:/users/guazh/data/banditlqround7_x0exp891_r5/2025-03-03-exp909\exp909-2025-03-16t05_06_58-h2koh\exp909_cv_sr_300mvs_efin_-1600mv.bin
Data Source:  Experiment
Instrument Model:  CHI760E
Header: CV ran at 300 mVs
Note: 

Init E (V) = -1
High E (V) = -1
Low E (V) = -1.6
Final E (V) = -1
Init P/N = N
Scan Rate (V/s) = 0.3
Segment = 3
Sample Interval (V) = 0.001
Quiet Time (sec) = 2
Sensitivity (A/V) = 0.01
Comp R (ohm) = 2.3

Results:

Channel 1:
Segment 1:

Segment 2:

Segment 3:

Potential/V, Current/A

-1.000, 2.174e-5
-1.001, 3.715e-5
-1.002, 4.024e-5
-1.003, 4.332e-5
-1.004, 4.332e-5
-1.005, 4.640e-5
-1.006, 4.640e-5
-1.007, 4.640e-5
-1.008, 4.640e-5
-1.009, 4.640e-5
-1.010, 4.949e-5
-1.011, 4.640e-5
-1.012, 4.640e-5
-1.013, 4.640e-5
-1.014, 4.949e-5
-1.015, 4.949e-5
-1.016, 4.949e-5
-1.017, 4.640e-5
-1.018, 4.949e-5
-1.019, 4.949e-5
-1.020, 5.257e-5
-1.021, 4.949e-5
-1.022, 4.949e-5
-1.023, 4.949e-5
-1.024, 5.257e-5
-1.025, 5.257e-5
-1.026, 4.949e-5
-1.027, 4.949e-5
-1.028, 4.949e-5
-1.029, 5.257e-5
-1.030, 5.257e-5
-1.031, 5.257e-5
-1.032, 5.257e-5
-1.033, 5.257e-5
-1.034, 5.257e-5
-1.035, 5.257e-5
-1.036, 5.257e-5
-1.037, 5.257e-5
-1.038, 5.257e-5
-1.039, 5.257e-5
-1.040, 5.257e-5
-1.041, 5.565e-5
-1.042, 4.949e-5
-1.043, 5.257e-5
-1.044, 5.565e-5
-1.045, 5.565e-5
-1.046, 5.565e-5
-1.047, 5.257e-5
-1.048, 5.257e-5
-1.049, 5.565e-5
-1.050, 5.565e-5
-1.051, 5.565e-5
-1.052, 5.565e-5
-1.053, 5.565e-5
-1.054, 5.873e-5
-1.055, 5.873e-5
-1.056, 5.565e-5
-1.057, 5.565e-5
-1.058, 5.565e-5
-1.059, 5.873e-5
-1.060, 5.873e-5
-1.061, 5.873e-5
-1.062, 5.565e-5
-1.063, 5.565e-5
-1.064, 5.873e-5
-1.065, 5.873e-5
-1.066, 5.873e-5
-1.067, 5.873e-5
-1.068, 5.873e-5
-1.069, 6.182e-5
-1.070, 6.182e-5
-1.071, 5.873e-5
-1.072, 5.873e-5
-1.073, 5.873e-5
-1.074, 5.873e-5
-1.075, 6.182e-5
-1.076, 6.182e-5
-1.077, 5.873e-5
-1.078, 6.182e-5
-1.079, 6.182e-5
-1.080, 6.182e-5
-1.081, 6.490e-5
-1.082, 6.182e-5
-1.083, 6.182e-5
-1.084, 6.182e-5
-1.085, 6.182e-5
-1.086, 6.490e-5
-1.087, 6.182e-5
-1.088, 6.182e-5
-1.089, 6.490e-5
-1.090, 6.798e-5
-1.091, 6.490e-5
-1.092, 6.490e-5
-1.093, 6.490e-5
-1.094, 6.490e-5
-1.095, 6.490e-5
-1.096, 6.490e-5
-1.097, 6.490e-5
-1.098, 6.490e-5
-1.099, 6.490e-5
-1.100, 6.798e-5
-1.101, 6.798e-5
-1.102, 6.798e-5
-1.103, 6.798e-5
-1.104, 7.107e-5
-1.105, 7.107e-5
-1.106, 6.798e-5
-1.107, 6.798e-5
-1.108, 6.798e-5
-1.109, 7.107e-5
-1.110, 7.107e-5
-1.111, 7.107e-5
-1.112, 7.107e-5
-1.113, 7.107e-5
-1.114, 7.415e-5
-1.115, 7.415e-5
-1.116, 7.415e-5
-1.117, 7.107e-5
-1.118, 7.107e-5
-1.119, 7.415e-5
-1.120, 7.415e-5
-1.121, 7.415e-5
-1.122, 7.107e-5
-1.123, 7.415e-5
-1.124, 7.415e-5
-1.125, 7.723e-5
-1.126, 7.415e-5
-1.127, 7.415e-5
-1.128, 7.415e-5
-1.129, 7.723e-5
-1.130, 7.723e-5
-1.131, 8.032e-5
-1.132, 7.723e-5
-1.133, 7.723e-5
-1.134, 8.032e-5
-1.135, 8.032e-5
-1.136, 8.032e-5
-1.137, 7.723e-5
-1.138, 7.723e-5
-1.139, 8.032e-5
-1.140, 8.340e-5
-1.141, 8.032e-5
-1.142, 7.723e-5
-1.143, 8.032e-5
-1.144, 8.340e-5
-1.145, 8.340e-5
-1.146, 8.032e-5
-1.147, 8.032e-5
-1.148, 8.340e-5
-1.149, 8.340e-5
-1.150, 8.340e-5
-1.151, 8.648e-5
-1.152, 8.340e-5
-1.153, 8.340e-5
-1.154, 8.648e-5
-1.155, 8.648e-5
-1.156, 8.648e-5
-1.157, 8.340e-5
-1.158, 8.340e-5
-1.159, 8.648e-5
-1.160, 8.648e-5
-1.161, 8.648e-5
-1.162, 8.648e-5
-1.163, 8.648e-5
-1.164, 8.648e-5
-1.165, 8.957e-5
-1.166, 8.957e-5
-1.167, 8.957e-5
-1.168, 8.648e-5
-1.169, 8.957e-5
-1.170, 9.265e-5
-1.171, 8.957e-5
-1.172, 8.957e-5
-1.173, 8.957e-5
-1.174, 8.957e-5
-1.175, 9.265e-5
-1.176, 8.957e-5
-1.177, 8.957e-5
-1.178, 8.957e-5
-1.179, 9.265e-5
-1.180, 9.265e-5
-1.181, 9.265e-5
-1.182, 8.957e-5
-1.183, 8.957e-5
-1.184, 9.265e-5
-1.185, 9.265e-5
-1.186, 9.265e-5
-1.187, 9.265e-5
-1.188, 9.265e-5
-1.189, 9.265e-5
-1.190, 9.573e-5
-1.191, 9.265e-5
-1.192, 9.265e-5
-1.193, 9.265e-5
-1.194, 9.573e-5
-1.195, 9.573e-5
-1.196, 9.573e-5
-1.197, 9.265e-5
-1.198, 9.573e-5
-1.199, 9.573e-5
-1.200, 9.882e-5
-1.201, 9.573e-5
-1.202, 9.573e-5
-1.203, 9.573e-5
-1.204, 9.573e-5
-1.205, 9.882e-5
-1.206, 9.882e-5
-1.207, 9.573e-5
-1.208, 9.573e-5
-1.209, 9.882e-5
-1.210, 9.882e-5
-1.211, 9.882e-5
-1.212, 9.882e-5
-1.213, 9.882e-5
-1.214, 9.882e-5
-1.215, 1.019e-4
-1.216, 9.882e-5
-1.217, 9.882e-5
-1.218, 9.882e-5
-1.219, 9.882e-5
-1.220, 1.019e-4
-1.221, 9.882e-5
-1.222, 9.882e-5
-1.223, 9.882e-5
-1.224, 1.019e-4
-1.225, 1.019e-4
-1.226, 1.019e-4
-1.227, 9.882e-5
-1.228, 1.019e-4
-1.229, 1.050e-4
-1.230, 1.050e-4
-1.231, 1.050e-4
-1.232, 1.019e-4
-1.233, 1.019e-4
-1.234, 1.050e-4
-1.235, 1.050e-4
-1.236, 1.050e-4
-1.237, 1.050e-4
-1.238, 1.050e-4
-1.239, 1.081e-4
-1.240, 1.081e-4
-1.241, 1.081e-4
-1.242, 1.050e-4
-1.243, 1.050e-4
-1.244, 1.081e-4
-1.245, 1.111e-4
-1.246, 1.081e-4
-1.247, 1.081e-4
-1.248, 1.081e-4
-1.249, 1.111e-4
-1.250, 1.111e-4
-1.251, 1.111e-4
-1.252, 1.111e-4
-1.253, 1.111e-4
-1.254, 1.142e-4
-1.255, 1.142e-4
-1.256, 1.142e-4
-1.257, 1.142e-4
-1.258, 1.142e-4
-1.259, 1.142e-4
-1.260, 1.173e-4
-1.261, 1.173e-4
-1.262, 1.173e-4
-1.263, 1.173e-4
-1.264, 1.204e-4
-1.265, 1.204e-4
-1.266, 1.204e-4
-1.267, 1.204e-4
-1.268, 1.204e-4
-1.269, 1.235e-4
-1.270, 1.235e-4
-1.271, 1.235e-4
-1.272, 1.235e-4
-1.273, 1.235e-4
-1.274, 1.266e-4
-1.275, 1.296e-4
-1.276, 1.266e-4
-1.277, 1.266e-4
-1.278, 1.296e-4
-1.279, 1.296e-4
-1.280, 1.327e-4
-1.281, 1.327e-4
-1.282, 1.327e-4
-1.283, 1.327e-4
-1.284, 1.358e-4
-1.285, 1.358e-4
-1.286, 1.358e-4
-1.287, 1.358e-4
-1.288, 1.358e-4
-1.289, 1.389e-4
-1.290, 1.389e-4
-1.291, 1.389e-4
-1.292, 1.389e-4
-1.293, 1.389e-4
-1.294, 1.420e-4
-1.295, 1.451e-4
-1.296, 1.451e-4
-1.297, 1.451e-4
-1.298, 1.451e-4
-1.299, 1.481e-4
-1.300, 1.512e-4
-1.301, 1.481e-4
-1.302, 1.512e-4
-1.303, 1.512e-4
-1.304, 1.512e-4
-1.305, 1.543e-4
-1.306, 1.543e-4
-1.307, 1.543e-4
-1.308, 1.574e-4
-1.309, 1.605e-4
-1.310, 1.636e-4
-1.311, 1.636e-4
-1.312, 1.636e-4
-1.313, 1.666e-4
-1.314, 1.666e-4
-1.315, 1.697e-4
-1.316, 1.697e-4
-1.317, 1.697e-4
-1.318, 1.697e-4
-1.319, 1.728e-4
-1.320, 1.759e-4
-1.321, 1.790e-4
-1.322, 1.790e-4
-1.323, 1.821e-4
-1.324, 1.882e-4
-1.325, 1.882e-4
-1.326, 1.913e-4
-1.327, 1.913e-4
-1.328, 1.944e-4
-1.329, 1.975e-4
-1.330, 2.006e-4
-1.331, 2.036e-4
-1.332, 2.067e-4
-1.333, 2.098e-4
-1.334, 2.129e-4
-1.335, 2.191e-4
-1.336, 2.221e-4
-1.337, 2.252e-4
-1.338, 2.283e-4
-1.339, 2.345e-4
-1.340, 2.406e-4
-1.341, 2.468e-4
-1.342, 2.530e-4
-1.343, 2.591e-4
-1.344, 2.715e-4
-1.345, 2.807e-4
-1.346, 2.869e-4
-1.347, 2.961e-4
-1.348, 3.054e-4
-1.349, 3.208e-4
-1.350, 3.300e-4
-1.351, 3.424e-4
-1.352, 3.547e-4
-1.353, 3.701e-4
-1.354, 3.855e-4
-1.355, 4.040e-4
-1.356, 4.256e-4
-1.357, 4.441e-4
-1.358, 4.657e-4
-1.359, 4.904e-4
-1.360, 5.181e-4
-1.361, 5.489e-4
-1.362, 5.767e-4
-1.363, 6.106e-4
-1.364, 6.476e-4
-1.365, 6.877e-4
-1.366, 7.278e-4
-1.367, 7.709e-4
-1.368, 8.203e-4
-1.369, 8.696e-4
-1.370, 9.220e-4
-1.371, 9.713e-4
-1.372, 1.018e-3
-1.373, 1.064e-3
-1.374, 1.113e-3
-1.375, 1.159e-3
-1.376, 1.206e-3
-1.377, 1.255e-3
-1.378, 1.307e-3
-1.379, 1.363e-3
-1.380, 1.421e-3
-1.381, 1.477e-3
-1.382, 1.529e-3
-1.383, 1.582e-3
-1.384, 1.631e-3
-1.385, 1.684e-3
-1.386, 1.733e-3
-1.387, 1.779e-3
-1.388, 1.825e-3
-1.389, 1.881e-3
-1.390, 1.939e-3
-1.391, 1.995e-3
-1.392, 2.054e-3
-1.393, 2.112e-3
-1.394, 2.174e-3
-1.395, 2.235e-3
-1.396, 2.294e-3
-1.397, 2.346e-3
-1.398, 2.399e-3
-1.399, 2.454e-3
-1.400, 2.510e-3
-1.401, 2.565e-3
-1.402, 2.618e-3
-1.403, 2.676e-3
-1.404, 2.738e-3
-1.405, 2.803e-3
-1.406, 2.861e-3
-1.407, 2.914e-3
-1.408, 2.975e-3
-1.409, 3.049e-3
-1.410, 3.139e-3
-1.411, 3.225e-3
-1.412, 3.296e-3
-1.413, 3.370e-3
-1.414, 3.456e-3
-1.415, 3.518e-3
-1.416, 3.555e-3
-1.417, 3.601e-3
-1.418, 3.663e-3
-1.419, 3.712e-3
-1.420, 3.749e-3
-1.421, 3.826e-3
-1.422, 3.937e-3
-1.423, 4.021e-3
-1.424, 4.076e-3
-1.425, 4.153e-3
-1.426, 4.239e-3
-1.427, 4.298e-3
-1.428, 4.341e-3
-1.429, 4.403e-3
-1.430, 4.486e-3
-1.431, 4.563e-3
-1.432, 4.631e-3
-1.433, 4.717e-3
-1.434, 4.813e-3
-1.435, 4.896e-3
-1.436, 4.979e-3
-1.437, 5.069e-3
-1.438, 5.164e-3
-1.439, 5.248e-3
-1.440, 5.325e-3
-1.441, 5.408e-3
-1.442, 5.488e-3
-1.443, 5.556e-3
-1.444, 5.621e-3
-1.445, 5.698e-3
-1.446, 5.781e-3
-1.447, 5.852e-3
-1.448, 5.923e-3
-1.449, 6.006e-3
-1.450, 6.095e-3
-1.451, 6.173e-3
-1.452, 6.253e-3
-1.453, 6.348e-3
-1.454, 6.447e-3
-1.455, 6.539e-3
-1.456, 6.632e-3
-1.457, 6.724e-3
-1.458, 6.808e-3
-1.459, 6.882e-3
-1.460, 6.959e-3
-1.461, 7.048e-3
-1.462, 7.125e-3
-1.463, 7.199e-3
-1.464, 7.282e-3
-1.465, 7.369e-3
-1.466, 7.440e-3
-1.467, 7.504e-3
-1.468, 7.578e-3
-1.469, 7.674e-3
-1.470, 7.773e-3
-1.471, 7.871e-3
-1.472, 7.967e-3
-1.473, 8.078e-3
-1.474, 8.195e-3
-1.475, 8.306e-3
-1.476, 8.429e-3
-1.477, 8.580e-3
-1.478, 8.707e-3
-1.479, 8.796e-3
-1.480, 8.858e-3
-1.481, 8.926e-3
-1.482, 8.991e-3
-1.483, 9.028e-3
-1.484, 9.055e-3
-1.485, 9.108e-3
-1.486, 9.182e-3
-1.487, 9.259e-3
-1.488, 9.364e-3
-1.489, 9.542e-3
-1.490, 9.743e-3
-1.491, 9.903e-3
-1.492, 1.003e-2
-1.493, 1.014e-2
-1.494, 1.024e-2
-1.495, 1.031e-2
-1.496, 1.034e-2
-1.497, 1.034e-2
-1.498, 1.033e-2
-1.499, 1.033e-2
-1.500, 1.035e-2
-1.501, 1.042e-2
-1.502, 1.054e-2
-1.503, 1.069e-2
-1.504, 1.085e-2
-1.505, 1.099e-2
-1.506, 1.110e-2
-1.507, 1.121e-2
-1.508, 1.131e-2
-1.509, 1.139e-2
-1.510, 1.144e-2
-1.511, 1.152e-2
-1.512, 1.163e-2
-1.513, 1.173e-2
-1.514, 1.182e-2
-1.515, 1.194e-2
-1.516, 1.210e-2
-1.517, 1.224e-2
-1.518, 1.237e-2
-1.519, 1.251e-2
-1.520, 1.267e-2
-1.521, 1.279e-2
-1.522, 1.286e-2
-1.523, 1.291e-2
-1.524, 1.293e-2
-1.525, 1.294e-2
-1.526, 1.296e-2
-1.527, 1.298e-2
-1.528, 1.304e-2
-1.529, 1.312e-2
-1.530, 1.325e-2
-1.531, 1.339e-2
-1.532, 1.356e-2
-1.533, 1.379e-2
-1.534, 1.407e-2
-1.535, 1.430e-2
-1.536, 1.446e-2
-1.537, 1.459e-2
-1.538, 1.467e-2
-1.539, 1.468e-2
-1.540, 1.462e-2
-1.541, 1.455e-2
-1.542, 1.445e-2
-1.543, 1.437e-2
-1.544, 1.435e-2
-1.545, 1.444e-2
-1.546, 1.467e-2
-1.547, 1.502e-2
-1.548, 1.541e-2
-1.549, 1.571e-2
-1.550, 1.590e-2
-1.551, 1.603e-2
-1.552, 1.608e-2
-1.553, 1.606e-2
-1.554, 1.597e-2
-1.555, 1.588e-2
-1.556, 1.583e-2
-1.557, 1.578e-2
-1.558, 1.578e-2
-1.559, 1.583e-2
-1.560, 1.593e-2
-1.561, 1.611e-2
-1.562, 1.631e-2
-1.563, 1.650e-2
-1.564, 1.672e-2
-1.565, 1.695e-2
-1.566, 1.716e-2
-1.567, 1.732e-2
-1.568, 1.741e-2
-1.569, 1.749e-2
-1.570, 1.760e-2
-1.571, 1.766e-2
-1.572, 1.768e-2
-1.573, 1.768e-2
-1.574, 1.768e-2
-1.575, 1.766e-2
-1.576, 1.762e-2
-1.577, 1.760e-2
-1.578, 1.768e-2
-1.579, 1.782e-2
-1.580, 1.798e-2
-1.581, 1.814e-2
-1.582, 1.831e-2
-1.583, 1.848e-2
-1.584, 1.866e-2
-1.585, 1.883e-2
-1.586, 1.892e-2
-1.587, 1.890e-2
-1.588, 1.887e-2
-1.589, 1.886e-2
-1.590, 1.889e-2
-1.591, 1.885e-2
-1.592, 1.883e-2
-1.593, 1.894e-2
-1.594, 1.911e-2
-1.595, 1.923e-2
-1.596, 1.931e-2
-1.597, 1.944e-2
-1.598, 1.961e-2
-1.599, 1.977e-2
-1.600, 1.977e-2
-1.599, 1.960e-2
-1.598, 1.943e-2
-1.597, 1.924e-2
-1.596, 1.901e-2
-1.595, 1.878e-2
-1.594, 1.860e-2
-1.593, 1.849e-2
-1.592, 1.843e-2
-1.591, 1.839e-2
-1.590, 1.829e-2
-1.589, 1.815e-2
-1.588, 1.803e-2
-1.587, 1.788e-2
-1.586, 1.770e-2
-1.585, 1.751e-2
-1.584, 1.735e-2
-1.583, 1.725e-2
-1.582, 1.715e-2
-1.581, 1.702e-2
-1.580, 1.690e-2
-1.579, 1.679e-2
-1.578, 1.667e-2
-1.577, 1.651e-2
-1.576, 1.638e-2
-1.575, 1.627e-2
-1.574, 1.617e-2
-1.573, 1.609e-2
-1.572, 1.601e-2
-1.571, 1.591e-2
-1.570, 1.581e-2
-1.569, 1.571e-2
-1.568, 1.561e-2
-1.567, 1.549e-2
-1.566, 1.537e-2
-1.565, 1.525e-2
-1.564, 1.514e-2
-1.563, 1.500e-2
-1.562, 1.487e-2
-1.561, 1.476e-2
-1.560, 1.466e-2
-1.559, 1.457e-2
-1.558, 1.450e-2
-1.557, 1.445e-2
-1.556, 1.440e-2
-1.555, 1.429e-2
-1.554, 1.418e-2
-1.553, 1.402e-2
-1.552, 1.386e-2
-1.551, 1.369e-2
-1.550, 1.351e-2
-1.549, 1.338e-2
-1.548, 1.326e-2
-1.547, 1.320e-2
-1.546, 1.312e-2
-1.545, 1.308e-2
-1.544, 1.304e-2
-1.543, 1.300e-2
-1.542, 1.291e-2
-1.541, 1.281e-2
-1.540, 1.270e-2
-1.539, 1.255e-2
-1.538, 1.237e-2
-1.537, 1.219e-2
-1.536, 1.207e-2
-1.535, 1.197e-2
-1.534, 1.189e-2
-1.533, 1.180e-2
-1.532, 1.172e-2
-1.531, 1.160e-2
-1.530, 1.144e-2
-1.529, 1.129e-2
-1.528, 1.118e-2
-1.527, 1.111e-2
-1.526, 1.109e-2
-1.525, 1.106e-2
-1.524, 1.105e-2
-1.523, 1.107e-2
-1.522, 1.108e-2
-1.521, 1.106e-2
-1.520, 1.098e-2
-1.519, 1.088e-2
-1.518, 1.076e-2
-1.517, 1.062e-2
-1.516, 1.047e-2
-1.515, 1.031e-2
-1.514, 1.016e-2
-1.513, 1.007e-2
-1.512, 1.000e-2
-1.511, 9.952e-3
-1.510, 9.894e-3
-1.509, 9.857e-3
-1.508, 9.823e-3
-1.507, 9.764e-3
-1.506, 9.690e-3
-1.505, 9.607e-3
-1.504, 9.508e-3
-1.503, 9.354e-3
-1.502, 9.194e-3
-1.501, 9.064e-3
-1.500, 8.938e-3
-1.499, 8.827e-3
-1.498, 8.781e-3
-1.497, 8.812e-3
-1.496, 8.833e-3
-1.495, 8.821e-3
-1.494, 8.778e-3
-1.493, 8.695e-3
-1.492, 8.580e-3
-1.491, 8.432e-3
-1.490, 8.260e-3
-1.489, 8.075e-3
-1.488, 7.945e-3
-1.487, 7.918e-3
-1.486, 7.939e-3
-1.485, 7.967e-3
-1.484, 7.995e-3
-1.483, 8.044e-3
-1.482, 8.062e-3
-1.481, 8.035e-3
-1.480, 7.961e-3
-1.479, 7.841e-3
-1.478, 7.659e-3
-1.477, 7.483e-3
-1.476, 7.332e-3
-1.475, 7.202e-3
-1.474, 7.079e-3
-1.473, 6.971e-3
-1.472, 6.882e-3
-1.471, 6.820e-3
-1.470, 6.764e-3
-1.469, 6.712e-3
-1.468, 6.663e-3
-1.467, 6.620e-3
-1.466, 6.573e-3
-1.465, 6.509e-3
-1.464, 6.428e-3
-1.463, 6.333e-3
-1.462, 6.231e-3
-1.461, 6.139e-3
-1.460, 6.046e-3
-1.459, 5.966e-3
-1.458, 5.898e-3
-1.457, 5.827e-3
-1.456, 5.769e-3
-1.455, 5.713e-3
-1.454, 5.664e-3
-1.453, 5.621e-3
-1.452, 5.584e-3
-1.451, 5.544e-3
-1.450, 5.497e-3
-1.449, 5.442e-3
-1.448, 5.380e-3
-1.447, 5.315e-3
-1.446, 5.245e-3
-1.445, 5.174e-3
-1.444, 5.087e-3
-1.443, 5.013e-3
-1.442, 4.924e-3
-1.441, 4.828e-3
-1.440, 4.757e-3
-1.439, 4.699e-3
-1.438, 4.634e-3
-1.437, 4.582e-3
-1.436, 4.542e-3
-1.435, 4.505e-3
-1.434, 4.458e-3
-1.433, 4.406e-3
-1.432, 4.344e-3
-1.431, 4.286e-3
-1.430, 4.221e-3
-1.429, 4.147e-3
-1.428, 4.073e-3
-1.427, 4.011e-3
-1.426, 3.956e-3
-1.425, 3.900e-3
-1.424, 3.851e-3
-1.423, 3.805e-3
-1.422, 3.755e-3
-1.421, 3.703e-3
-1.420, 3.647e-3
-1.419, 3.595e-3
-1.418, 3.546e-3
-1.417, 3.496e-3
-1.416, 3.447e-3
-1.415, 3.395e-3
-1.414, 3.345e-3
-1.413, 3.293e-3
-1.412, 3.241e-3
-1.411, 3.185e-3
-1.410, 3.120e-3
-1.409, 3.056e-3
-1.408, 3.003e-3
-1.407, 2.951e-3
-1.406, 2.908e-3
-1.405, 2.864e-3
-1.404, 2.815e-3
-1.403, 2.763e-3
-1.402, 2.713e-3
-1.401, 2.664e-3
-1.400, 2.608e-3
-1.399, 2.565e-3
-1.398, 2.538e-3
-1.397, 2.507e-3
-1.396, 2.467e-3
-1.395, 2.427e-3
-1.394, 2.396e-3
-1.393, 2.353e-3
-1.392, 2.303e-3
-1.391, 2.257e-3
-1.390, 2.214e-3
-1.389, 2.161e-3
-1.388, 2.106e-3
-1.387, 2.054e-3
-1.386, 2.017e-3
-1.385, 1.980e-3
-1.384, 1.933e-3
-1.383, 1.896e-3
-1.382, 1.862e-3
-1.381, 1.825e-3
-1.380, 1.788e-3
-1.379, 1.754e-3
-1.378, 1.717e-3
-1.377, 1.677e-3
-1.376, 1.637e-3
-1.375, 1.606e-3
-1.374, 1.569e-3
-1.373, 1.532e-3
-1.372, 1.499e-3
-1.371, 1.468e-3
-1.370, 1.443e-3
-1.369, 1.412e-3
-1.368, 1.384e-3
-1.367, 1.357e-3
-1.366, 1.329e-3
-1.365, 1.298e-3
-1.364, 1.270e-3
-1.363, 1.240e-3
-1.362, 1.212e-3
-1.361, 1.181e-3
-1.360, 1.153e-3
-1.359, 1.122e-3
-1.358, 1.092e-3
-1.357, 1.061e-3
-1.356, 1.033e-3
-1.355, 1.008e-3
-1.354, 9.868e-4
-1.353, 9.590e-4
-1.352, 9.374e-4
-1.351, 9.189e-4
-1.350, 9.035e-4
-1.349, 8.850e-4
-1.348, 8.634e-4
-1.347, 8.418e-4
-1.346, 8.172e-4
-1.345, 7.956e-4
-1.344, 7.740e-4
-1.343, 7.494e-4
-1.342, 7.278e-4
-1.341, 7.093e-4
-1.340, 6.939e-4
-1.339, 6.754e-4
-1.338, 6.538e-4
-1.337, 6.353e-4
-1.336, 6.199e-4
-1.335, 6.044e-4
-1.334, 5.890e-4
-1.333, 5.705e-4
-1.332, 5.551e-4
-1.331, 5.397e-4
-1.330, 5.243e-4
-1.329, 5.058e-4
-1.328, 4.904e-4
-1.327, 4.780e-4
-1.326, 4.657e-4
-1.325, 4.534e-4
-1.324, 4.410e-4
-1.323, 4.287e-4
-1.322, 4.164e-4
-1.321, 4.071e-4
-1.320, 3.948e-4
-1.319, 3.825e-4
-1.318, 3.701e-4
-1.317, 3.578e-4
-1.316, 3.485e-4
-1.315, 3.393e-4
-1.314, 3.270e-4
-1.313, 3.177e-4
-1.312, 3.054e-4
-1.311, 2.961e-4
-1.310, 2.869e-4
-1.309, 2.776e-4
-1.308, 2.684e-4
-1.307, 2.591e-4
-1.306, 2.499e-4
-1.305, 2.468e-4
-1.304, 2.376e-4
-1.303, 2.283e-4
-1.302, 2.221e-4
-1.301, 2.160e-4
-1.300, 2.098e-4
-1.299, 2.036e-4
-1.298, 1.944e-4
-1.297, 1.882e-4
-1.296, 1.821e-4
-1.295, 1.759e-4
-1.294, 1.697e-4
-1.293, 1.636e-4
-1.292, 1.574e-4
-1.291, 1.512e-4
-1.290, 1.481e-4
-1.289, 1.420e-4
-1.288, 1.358e-4
-1.287, 1.327e-4
-1.286, 1.266e-4
-1.285, 1.235e-4
-1.284, 1.173e-4
-1.283, 1.111e-4
-1.282, 1.081e-4
-1.281, 1.050e-4
-1.280, 1.019e-4
-1.279, 9.882e-5
-1.278, 9.265e-5
-1.277, 8.648e-5
-1.276, 8.340e-5
-1.275, 8.340e-5
-1.274, 8.032e-5
-1.273, 7.415e-5
-1.272, 7.107e-5
-1.271, 7.107e-5
-1.270, 6.490e-5
-1.269, 6.490e-5
-1.268, 5.873e-5
-1.267, 5.565e-5
-1.266, 5.565e-5
-1.265, 5.257e-5
-1.264, 4.949e-5
-1.263, 4.640e-5
-1.262, 4.332e-5
-1.261, 4.024e-5
-1.260, 4.024e-5
-1.259, 3.715e-5
-1.258, 3.407e-5
-1.257, 3.099e-5
-1.256, 3.099e-5
-1.255, 2.790e-5
-1.254, 2.790e-5
-1.253, 2.482e-5
-1.252, 2.174e-5
-1.251, 2.174e-5
-1.250, 1.865e-5
-1.249, 1.865e-5
-1.248, 1.557e-5
-1.247, 1.249e-5
-1.246, 1.249e-5
-1.245, 1.249e-5
-1.244, 9.405e-6
-1.243, 6.322e-6
-1.242, 6.322e-6
-1.241, 3.239e-6
-1.240, 3.239e-6
-1.239, 3.239e-6
-1.238, 1.559e-7
-1.237, 1.559e-7
-1.236, 1.559e-7
-1.235, -2.927e-6
-1.234, -2.927e-6
-1.233, -6.010e-6
-1.232, -6.010e-6
-1.231, -9.093e-6
-1.230, -6.010e-6
-1.229, -9.093e-6
-1.228, -1.218e-5
-1.227, -1.218e-5
-1.226, -1.218e-5
-1.225, -1.218e-5
-1.224, -1.526e-5
-1.223, -1.526e-5
-1.222, -1.834e-5
-1.221, -1.834e-5
-1.220, -1.834e-5
-1.219, -1.834e-5
-1.218, -2.143e-5
-1.217, -2.143e-5
-1.216, -2.143e-5
-1.215, -2.143e-5
-1.214, -2.143e-5
-1.213, -2.451e-5
-1.212, -2.451e-5
-1.211, -2.451e-5
-1.210, -2.451e-5
-1.209, -2.759e-5
-1.208, -3.068e-5
-1.207, -3.068e-5
-1.206, -3.068e-5
-1.205, -2.759e-5
-1.204, -3.068e-5
-1.203, -3.068e-5
-1.202, -3.376e-5
-1.201, -3.068e-5
-1.200, -3.068e-5
-1.199, -3.376e-5
-1.198, -3.376e-5
-1.197, -3.684e-5
-1.196, -3.684e-5
-1.195, -3.376e-5
-1.194, -3.376e-5
-1.193, -3.684e-5
-1.192, -3.992e-5
-1.191, -3.992e-5
-1.190, -3.684e-5
-1.189, -3.992e-5
-1.188, -3.992e-5
-1.187, -4.301e-5
-1.186, -3.992e-5
-1.185, -3.992e-5
-1.184, -3.992e-5
-1.183, -4.301e-5
-1.182, -4.609e-5
-1.181, -4.301e-5
-1.180, -4.301e-5
-1.179, -4.301e-5
-1.178, -4.609e-5
-1.177, -4.917e-5
-1.176, -4.609e-5
-1.175, -4.609e-5
-1.174, -4.609e-5
-1.173, -4.609e-5
-1.172, -4.917e-5
-1.171, -4.609e-5
-1.170, -4.609e-5
-1.169, -4.609e-5
-1.168, -4.917e-5
-1.167, -4.917e-5
-1.166, -4.917e-5
-1.165, -4.917e-5
-1.164, -5.226e-5
-1.163, -5.534e-5
-1.162, -5.534e-5
-1.161, -5.226e-5
-1.160, -4.917e-5
-1.159, -5.226e-5
-1.158, -5.226e-5
-1.157, -5.534e-5
-1.156, -5.226e-5
-1.155, -5.226e-5
-1.154, -5.226e-5
-1.153, -5.534e-5
-1.152, -5.842e-5
-1.151, -5.534e-5
-1.150, -5.534e-5
-1.149, -5.534e-5
-1.148, -5.842e-5
-1.147, -6.151e-5
-1.146, -5.842e-5
-1.145, -5.842e-5
-1.144, -5.842e-5
-1.143, -5.842e-5
-1.142, -6.151e-5
-1.141, -5.842e-5
-1.140, -5.842e-5
-1.139, -5.842e-5
-1.138, -6.151e-5
-1.137, -6.151e-5
-1.136, -6.151e-5
-1.135, -6.151e-5
-1.134, -6.151e-5
-1.133, -6.151e-5
-1.132, -6.459e-5
-1.131, -6.459e-5
-1.130, -6.151e-5
-1.129, -6.151e-5
-1.128, -6.459e-5
-1.127, -6.459e-5
-1.126, -6.459e-5
-1.125, -6.151e-5
-1.124, -6.459e-5
-1.123, -6.459e-5
-1.122, -6.767e-5
-1.121, -6.459e-5
-1.120, -6.459e-5
-1.119, -6.459e-5
-1.118, -6.459e-5
-1.117, -6.767e-5
-1.116, -6.767e-5
-1.115, -6.459e-5
-1.114, -6.459e-5
-1.113, -6.767e-5
-1.112, -6.767e-5
-1.111, -6.767e-5
-1.110, -6.459e-5
-1.109, -6.459e-5
-1.108, -6.767e-5
-1.107, -6.767e-5
-1.106, -6.767e-5
-1.105, -6.767e-5
-1.104, -6.767e-5
-1.103, -7.076e-5
-1.102, -7.076e-5
-1.101, -7.076e-5
-1.100, -6.767e-5
-1.099, -7.076e-5
-1.098, -7.076e-5
-1.097, -7.384e-5
-1.096, -7.076e-5
-1.095, -6.767e-5
-1.094, -6.767e-5
-1.093, -7.076e-5
-1.092, -7.076e-5
-1.091, -7.076e-5
-1.090, -6.767e-5
-1.089, -6.767e-5
-1.088, -7.076e-5
-1.087, -7.076e-5
-1.086, -7.076e-5
-1.085, -6.767e-5
-1.084, -6.767e-5
-1.083, -7.076e-5
-1.082, -7.076e-5
-1.081, -7.076e-5
-1.080, -7.076e-5
-1.079, -7.076e-5
-1.078, -7.076e-5
-1.077, -7.076e-5
-1.076, -7.076e-5
-1.075, -7.076e-5
-1.074, -7.076e-5
-1.073, -7.076e-5
-1.072, -7.076e-5
-1.071, -7.076e-5
-1.070, -6.767e-5
-1.069, -7.076e-5
-1.068, -7.384e-5
-1.067, -7.384e-5
-1.066, -7.384e-5
-1.065, -7.076e-5
-1.064, -7.076e-5
-1.063, -7.384e-5
-1.062, -7.384e-5
-1.061, -7.384e-5
-1.060, -7.076e-5
-1.059, -7.076e-5
-1.058, -7.384e-5
-1.057, -7.384e-5
-1.056, -7.076e-5
-1.055, -7.076e-5
-1.054, -7.384e-5
-1.053, -7.384e-5
-1.052, -7.692e-5
-1.051, -7.692e-5
-1.050, -7.384e-5
-1.049, -7.384e-5
-1.048, -7.384e-5
-1.047, -7.692e-5
-1.046, -7.384e-5
-1.045, -7.384e-5
-1.044, -7.384e-5
-1.043, -7.384e-5
-1.042, -7.692e-5
-1.041, -7.692e-5
-1.040, -7.384e-5
-1.039, -7.384e-5
-1.038, -7.692e-5
-1.037, -7.692e-5
-1.036, -7.384e-5
-1.035, -7.384e-5
-1.034, -7.384e-5
-1.033, -7.692e-5
-1.032, -7.692e-5
-1.031, -7.692e-5
-1.030, -7.384e-5
-1.029, -7.692e-5
-1.028, -7.692e-5
-1.027, -7.692e-5
-1.026, -7.692e-5
-1.025, -7.692e-5
-1.024, -7.384e-5
-1.023, -7.692e-5
-1.022, -7.692e-5
-1.021, -7.692e-5
-1.020, -7.692e-5
-1.019, -7.692e-5
-1.018, -7.692e-5
-1.017, -8.000e-5
-1.016, -7.692e-5
-1.015, -7.692e-5
-1.014, -7.692e-5
-1.013, -8.000e-5
-1.012, -8.000e-5
-1.011, -8.000e-5
-1.010, -7.692e-5
-1.009, -8.000e-5
-1.008, -8.000e-5
-1.007, -8.309e-5
-1.006, -8.000e-5
-1.005, -7.692e-5
-1.004, -7.692e-5
-1.003, -8.000e-5
-1.002, -8.000e-5
-1.001, -8.000e-5
