Potential V vs RHE, Current mA cm-2
0.013299999999999867,4.01070653511738
0.012299999999999978,2.2225114520879723
0.011299999999999866,0.6520404381077953
0.010299999999999976,-0.8308599464107361
0.009299999999999864,-2.1390434853959355
0.008299999999999974,-3.317497998183511
0.007299999999999862,-4.450681749375406
0.006299999999999972,-5.5414241615713475
0.00529999999999986,-6.54445447317566
0.0042999999999999705,-7.50504344578402
0.0032999999999998586,-8.376505606500881
0.0022999999999999687,-9.205526428221793
0.0012999999999998568,-10.078403300238522
0.00029999999999996696,-10.906009410659568
-0.000700000000000145,-11.647318131788847
-0.0017000000000000348,-12.302329463626359
-0.0027000000000001467,-12.99978213445982
-0.0037000000000000366,-13.698649516593148
-0.0047000000000001485,-14.345172580631472
-0.005700000000000038,-14.967645552572087
-0.00670000000000015,-15.533530072518102
-0.00770000000000004,-16.099414592464115
-0.008700000000000152,-16.750181790402035
-0.009700000000000042,-17.2736249713521
-0.010700000000000154,-17.839509491298113
-0.011700000000000044,-18.320511333252224
-0.012700000000000156,-18.80151317520634
-0.013700000000000045,-19.367397695152352
-0.014700000000000157,-19.890840876102416
-0.015700000000000047,-20.329401379060574
-0.01670000000000016,-20.76796188201874
-0.01770000000000005,-21.2065223849769
-0.01870000000000016,-21.67337711393236
-0.01970000000000005,-22.15437895588647
-0.020700000000000163,-22.592939458844636
-0.021700000000000053,-22.989058622806844
-0.022700000000000164,-23.427619125765005
-0.023700000000000054,-23.86617962872317
-0.024700000000000166,-24.34718147067728
-0.025700000000000056,-24.729153521640843
-0.026700000000000168,-25.0828313466071
-0.027700000000000058,-25.521391849565262
-0.02870000000000017,-25.959952352523427
-0.02970000000000006,-26.38436574248293
-0.03070000000000017,-26.780484906445146
-0.03170000000000006,-27.134162731411404
-0.03270000000000017,-27.487840556377662
-0.03370000000000006,-27.912253946337174
-0.034700000000000175,-28.350814449295335
-0.035700000000000065,-28.746933613257543
-0.03670000000000018,-29.100611438223805
-0.03770000000000007,-29.440142150191413
-0.03870000000000018,-29.921143992145527
-0.03970000000000007,-30.317263156107735
-0.04070000000000018,-30.670940981073993
-0.04170000000000007,-31.010471693041605
-0.04270000000000018,-31.36414951800786
-0.04370000000000007,-31.802710020966025
-0.044700000000000184,-32.184682071929586
-0.045700000000000074,-32.53835989689585
-0.046700000000000186,-32.892037721862096
-0.047700000000000076,-33.18912709483376
-0.04870000000000019,-33.627687597791926
-0.04970000000000008,-34.06624810075008
-0.05070000000000019,-34.377484586720385
-0.05170000000000008,-34.717015298688004
-0.05270000000000019,-35.07069312365426
-0.05370000000000008,-35.46681228761647
-0.05470000000000019,-35.848784338580025
-0.05570000000000008,-36.20246216354629
-0.056700000000000195,-36.5136986495166
-0.057700000000000085,-36.8532293614842
-0.058700000000000196,-37.249348525446415
-0.059700000000000086,-37.645467689408626
-0.0607000000000002,-37.94255706238028
-0.06170000000000009,-38.29623488734655
-0.0627000000000002,-38.607471373316855
-0.06370000000000009,-38.98944342428042
-0.0647000000000002,-39.38556258824262
-0.06570000000000009,-39.696799074212926
-0.0667000000000002,-39.95144710818864
-0.0677000000000001,-40.30512493315489
-0.0687000000000002,-40.701244097117105
-0.0697000000000001,-41.04077480908471
-0.07070000000000021,-41.352011295055014
-0.0717000000000001,-41.606659329030734
-0.07270000000000021,-41.91789581500104
-0.0737000000000001,-42.2715736399673
-0.07470000000000021,-42.6111043519349
-0.0757000000000001,-42.92234083790521
-0.07670000000000021,-43.134547532884966
-0.0777000000000001,-43.48822535785123
-0.07870000000000021,-43.79946184382153
-0.0797000000000001,-44.138992555789144
-0.08070000000000022,-44.45022904175945
-0.0817000000000001,-44.66243573673921
-0.08270000000000022,-44.97367222270952
-0.08370000000000011,-45.32735004767578
-0.08470000000000022,-45.624439420647434
-0.08570000000000011,-45.89323456762179
-0.08670000000000022,-46.147882601597495
-0.08770000000000011,-46.37423640957591
-0.08870000000000022,-46.67132578254756
-0.08970000000000011,-46.982562268517874
-0.09070000000000022,-47.23721030249357
-0.09170000000000011,-47.46356411047198
-0.09270000000000023,-47.67577080545174
-0.09370000000000012,-47.987007291422046
-0.09470000000000023,-48.2840966643937
-0.09570000000000012,-48.51045047237211
-0.09670000000000023,-48.72265716735186
-0.09770000000000012,-48.93486386233162
-0.09870000000000023,-49.20365900930597
-0.09970000000000012,-49.50074838227763
-0.10070000000000023,-49.68466085126009
-0.10170000000000012,-49.89686754623985
-0.10270000000000024,-50.12322135421825
-0.10370000000000013,-50.335428049198
-0.10470000000000024,-50.60422319617236
-0.10570000000000013,-50.77398855215617
-0.10670000000000024,-50.943753908139975
-0.10770000000000013,-51.17010771611838
-0.10870000000000024,-51.38231441109813
-0.10970000000000013,-51.65110955807249
-0.11070000000000024,-51.86331625305225
-0.11170000000000013,-51.990640270040096
-0.11270000000000002,-52.17455273902255
-0.11370000000000013,-52.42920077299826
-0.11470000000000002,-52.64140746797801
-0.11570000000000014,-52.82531993696047
-0.11670000000000003,-52.95264395394832
-0.11770000000000014,-53.12240930993213
-0.11870000000000003,-53.348763117910536
-0.11970000000000014,-53.518528473894335
-0.12070000000000003,-53.68829382987814
-0.12170000000000014,-53.82976495986464
-0.12270000000000003,-53.999530315848446
-0.12370000000000014,-54.2117370108282
-0.12470000000000003,-54.39564947981066
-0.12570000000000014,-54.56541483579447
-0.12670000000000003,-54.69273885278232
-0.12770000000000015,-54.834209982768826
-0.12870000000000004,-55.046416677748574
-0.12970000000000015,-55.21618203373238
-0.13070000000000004,-55.400094502714836
-0.13170000000000015,-55.484977180706736
-0.13270000000000004,-55.612301197694585
-0.13370000000000015,-55.838655005673
-0.13470000000000004,-56.008420361656796
-0.13570000000000015,-56.13574437864466
-0.13670000000000004,-56.26306839563251
-0.13770000000000016,-56.404539525619015
-0.13870000000000005,-56.61674622059877
-0.13970000000000016,-56.786511576582576
-0.14070000000000005,-56.927982706569075
-0.14170000000000016,-57.012865384560975
-0.14270000000000005,-57.14018940154883
-0.14370000000000016,-57.30995475753264
-0.14470000000000005,-57.53630856551105
-0.14570000000000016,-57.62119124350295
-0.14670000000000005,-57.70607392149485
-0.14770000000000016,-57.87583927747865
-0.14870000000000005,-58.017310407465146
-0.14970000000000017,-58.22951710244491
-0.15070000000000006,-58.35684111943277
-0.15170000000000017,-58.45587091042332
-0.15270000000000006,-58.583194927411164
-0.15370000000000017,-58.75296028339497
-0.15470000000000006,-58.92272563937878
-0.15570000000000017,-59.06419676936528
-0.15670000000000006,-59.14907944735718
-0.15770000000000017,-59.27640346434504
-0.15870000000000006,-59.403727481332886
-0.15970000000000018,-59.587639950315335
-0.16070000000000007,-59.67252262830725
-0.16170000000000018,-59.757405306299155
-0.16270000000000007,-59.842287984291055
-0.16370000000000018,-60.02620045327351
-0.16470000000000007,-60.19596580925731
-0.16570000000000018,-60.28084848724921
-0.16670000000000007,-60.36573116524111
-0.16770000000000018,-60.49305518222897
-0.16870000000000007,-60.63452631221547
-0.16970000000000018,-60.80429166819927
-0.17070000000000007,-60.889174346191176
-0.17170000000000019,-60.974057024183075
-0.17270000000000008,-61.07308681517363
-0.1737000000000002,-61.20041083216149
-0.17470000000000008,-61.327734849149344
-0.1757000000000002,-61.37017618814529
-0.17670000000000008,-61.412617527141244
-0.1777000000000002,-61.49750020513315
-0.17870000000000008,-61.63897133511965
-0.1797000000000002,-61.7662953521075
-0.18070000000000008,-61.80873669110345
-0.1817000000000002,-61.851178030099405
-0.18270000000000008,-61.97850204708726
-0.1837000000000002,-62.11997317707376
-0.1847000000000001,-62.20485585506566
-0.1857000000000002,-62.28973853305756
-0.1867000000000001,-62.33217987205352
-0.1877000000000002,-62.41706255004542
-0.1887000000000001,-62.501945228037314
-0.1897000000000002,-62.64341635802381
-0.1907000000000001,-62.68585769701977
-0.1917000000000001,-62.72829903601572
-0.19269999999999998,-62.77074037501168
-0.1937000000000001,-62.89806439199953
-0.19469999999999998,-63.02538840898739
-0.1957000000000001,-63.06782974798333
-0.19669999999999999,-63.11027108697928
-0.1977000000000001,-63.15271242597524
-0.1987,-63.29418355596174
-0.1997000000000001,-63.37906623395363
-0.2007,-63.421507572949594
-0.2017000000000001,-63.421507572949594
-0.2027,-63.46394891194555
-0.2037000000000001,-63.54883158993744
-0.2047,-63.633714267929356
-0.2057000000000001,-63.6761556069253
-0.2067,-63.6761556069253
-0.2077000000000001,-63.732744058919906
-0.2087,-63.81762673691181
-0.2097000000000001,-63.902509414903705
-0.2107,-63.944950753899654
-0.2117000000000001,-63.944950753899654
-0.2127,-63.98739209289561
-0.2137000000000001,-64.02983343189156
-0.2147,-64.11471610988345
-0.2157000000000001,-64.15715744887942
-0.2167,-64.11471610988345
-0.21770000000000012,-64.15715744887942
-0.2187,-64.19959878787537
-0.21970000000000012,-64.29862857886593
-0.2207,-64.29862857886593
-0.22170000000000012,-64.29862857886593
-0.2227,-64.34106991786187
-0.22370000000000012,-64.38351125685783
-0.2247,-64.46839393484973
-0.22570000000000012,-64.46839393484973
-0.2267,-64.42595259585376
-0.22770000000000012,-64.42595259585376
-0.22870000000000001,-64.51083527384567
-0.22970000000000013,-64.55327661284163
-0.23070000000000002,-64.55327661284163
-0.23170000000000013,-64.55327661284163
-0.23270000000000002,-64.55327661284163
-0.23370000000000013,-64.63815929083353
-0.23470000000000002,-64.68060062982947
-0.23570000000000013,-64.72304196882543
-0.23670000000000002,-64.72304196882543
-0.2376999999999999,-64.77963042082003
-0.23870000000000002,-64.82207175981598
-0.2396999999999999,-64.90695443780788
-0.24070000000000003,-64.94939577680383
-0.24169999999999991,-64.90695443780788
-0.24270000000000003,-64.90695443780788
-0.24369999999999992,-64.99183711579978
-0.24470000000000003,-65.03427845479574
-0.24569999999999992,-65.0767197937917
-0.24670000000000003,-65.0767197937917
-0.24769999999999992,-65.11916113278764
-0.24870000000000003,-65.16160247178358
-0.24969999999999992,-65.2464851497755
-0.25070000000000003,-65.3030736017701
-0.2516999999999999,-65.2464851497755
-0.25270000000000004,-65.3030736017701
-0.2536999999999999,-65.38795627976201
-0.25470000000000004,-65.4728389577539
-0.2556999999999999,-65.51528029674984
-0.25670000000000004,-65.51528029674984
-0.25769999999999993,-65.5577216357458
-0.25870000000000004,-65.64260431373769
-0.25969999999999993,-65.7274869917296
-0.26070000000000004,-65.7274869917296
-0.26169999999999993,-65.76992833072556
-0.26270000000000004,-65.82651678272015
-0.26369999999999993,-65.91139946071206
-0.26470000000000005,-65.99628213870396
-0.26569999999999994,-66.03872347769992
-0.26670000000000005,-66.08116481669586
-0.26769999999999994,-66.16604749468777
-0.26870000000000005,-66.25093017267966
-0.26969999999999994,-66.39240130266617
-0.27070000000000005,-66.43484264166212
-0.27169999999999994,-66.43484264166212
-0.27270000000000005,-66.51972531965401
-0.27369999999999994,-66.60460799764593
-0.27470000000000006,-66.68949067563783
-0.27569999999999995,-66.73193201463377
-0.27670000000000006,-66.77437335362974
-0.27769999999999995,-66.87340314462028
-0.27870000000000006,-67.00072716160814
-0.27969999999999995,-67.128051178596
-0.28070000000000006,-67.17049251759194
-0.28169999999999995,-67.21293385658788
-0.28270000000000006,-67.2978165345798
-0.28369999999999995,-67.43928766456631
-0.28470000000000006,-67.56661168155415
-0.28569999999999995,-67.6090530205501
-0.28670000000000007,-67.693935698542
-0.28769999999999996,-67.73637703753796
-0.28870000000000007,-67.86370105452582
-0.28969999999999996,-68.04761352350828
-0.29070000000000007,-68.13249620150016
-0.29169999999999996,-68.17493754049613
-0.29270000000000007,-68.30226155748396
-0.29369999999999996,-68.44373268747047
-0.2947000000000001,-68.61349804345427
-0.29569999999999996,-68.69838072144618
-0.2967000000000001,-68.74082206044213
-0.29769999999999996,-68.86814607742998
-0.2987000000000001,-69.05205854641244
-0.29969999999999997,-69.1793825634003
-0.3007000000000001,-69.26426524139221
-0.30169999999999997,-69.30670658038814
-0.3027000000000001,-69.39158925838004
-0.30369999999999997,-69.57550172736251
-0.3047000000000001,-69.70282574435035
-0.30569999999999997,-69.8301497613382
-0.3067000000000001,-69.91503243933012
-0.3077,-70.01406223032066
-0.3087000000000001,-70.18382758630447
-0.3097,-70.31115160329232
-0.3107000000000001,-70.43847562028017
-0.3117,-70.53750541127073
-0.3127000000000001,-70.66482942825859
-0.3137,-70.8345947842424
-0.3147000000000001,-70.96191880123024
-0.3157,-71.10338993121674
-0.3167000000000001,-71.1458312702127
-0.3177,-71.27315528720055
-0.3187000000000001,-71.44292064318435
-0.3197,-71.6268331121668
-0.3207000000000001,-71.7117157901587
-0.3217,-71.7965984681506
-0.3227000000000001,-71.92392248513846
-0.3237,-72.10783495412092
-0.3247000000000001,-72.32004164910067
-0.3257,-72.40492432709259
-0.3267000000000001,-72.48980700508447
-0.3277,-72.63127813507097
-0.3287000000000001,-72.80104349105478
-0.3297,-72.97080884703858
-0.3307000000000001,-73.0556915250305
-0.3317,-73.15472131602105
-0.3327000000000001,-73.23960399401295
-0.3337,-73.45181068899271
-0.3347000000000001,-73.57913470598055
-0.3357,-73.72060583596706
-0.3367000000000001,-73.80548851395896
-0.3377,-73.93281253094682
-0.3387000000000001,-74.10257788693062
-0.3397,-74.28649035591307
-0.3407000000000001,-74.41381437290093
-0.3417,-74.49869705089283
-0.3427000000000001,-74.66846240687663
-0.3437,-74.80993353686314
-0.3447000000000001,-74.97969889284694
-0.3457,-75.1070229098348
-0.3467000000000001,-75.19190558782671
-0.3477,-75.33337671781321
-0.3487000000000001,-75.50314207379701
-0.3497,-75.6729074297808
-0.3507000000000001,-75.77193722077136
-0.3517,-75.8992612377592
-0.3527000000000001,-75.98414391575112
-0.3537,-76.19635061073087
-0.3547000000000001,-76.38026307971333
-0.3557,-76.46514575770523
-0.35670000000000013,-76.55002843569714
-0.3577,-76.71979379168094
-0.35870000000000013,-76.9037062606634
-0.3597,-77.0734716166472
-0.36070000000000013,-77.20079563363505
-0.3617,-77.243236972631
-0.3626999999999999,-77.38470810261751
-0.3637,-77.59691479759726
-0.3646999999999999,-77.76668015358106
-0.3657,-77.90815128356756
-0.3666999999999999,-77.99303396155948
-0.3677,-78.12035797854733
-0.3686999999999999,-78.33256467352709
-0.36970000000000003,-78.51647714250953
-0.3706999999999999,-78.68624249849334
-0.37170000000000003,-78.8135665154812
-0.3726999999999999,-78.9550376454677
-0.37370000000000003,-79.1248030014515
-0.3746999999999999,-79.33700969643127
-0.37570000000000003,-79.47848082641775
-0.3766999999999999,-79.60580484340561
-0.37770000000000004,-79.73312886039348
-0.3786999999999999,-79.94533555537322
-0.37970000000000004,-80.17168936335163
-0.3806999999999999,-80.29901338033947
-0.38170000000000004,-80.46877873632329
-0.38269999999999993,-80.69513254430169
-0.38370000000000004,-80.90733923928146
-0.38469999999999993,-81.1761343862558
-0.38570000000000004,-81.3458997422396
-0.38669999999999993,-80.12924802435568
-0.38570000000000004,-76.9037062606634
-0.38469999999999993,-74.24404901691713
-0.38370000000000004,-71.96636382413442
-0.38269999999999993,-69.8301497613382
-0.38170000000000004,-67.9202895065204
-0.3806999999999999,-66.16604749468777
-0.37970000000000004,-64.55327661284163
-0.3786999999999999,-63.06782974798333
-0.37770000000000004,-61.63897133511965
-0.3766999999999999,-60.23840714825326
-0.37570000000000003,-58.92272563937878
-0.3746999999999999,-57.70607392149485
-0.37370000000000003,-56.57430488160282
-0.3726999999999999,-55.357653163718886
-0.37170000000000003,-54.16929567183226
-0.3706999999999999,-53.12240930993213
-0.36970000000000003,-52.075522948032
-0.3686999999999999,-51.028636586131874
-0.3677,-50.024191563227696
-0.3666999999999999,-48.97730520132757
-0.3657,-48.029448630417996
-0.3646999999999999,-47.10988628550572
-0.3637,-46.2327652795894
-0.3626999999999999,-45.32735004767578
-0.3617,-44.4077877027635
-0.36070000000000013,-43.53066669684718
-0.3597,-42.752575481921404
-0.35870000000000013,-41.91789581500104
-0.3577,-41.083216148080666
-0.35670000000000013,-40.220242255162994
-0.3557,-39.42800392723857
-0.3547000000000001,-38.692354051308754
-0.3537,-37.94255706238028
-0.3527000000000001,-37.164465847454515
-0.3517,-36.4288159715247
-0.3507000000000001,-35.679018982596226
-0.3497,-35.02825178465831
-0.3487000000000001,-34.33504324772444
-0.3477,-33.627687597791926
-0.3467000000000001,-32.892037721862096
-0.3457,-32.24127052392419
-0.3447000000000001,-31.57635621298762
-0.3437,-30.968030354045652
-0.3427000000000001,-30.317263156107735
-0.3417,-29.62405461917387
-0.3407000000000001,-28.959140308237306
-0.3397,-28.393255788291288
-0.3387000000000001,-27.827371268345274
-0.3377,-27.219045409403304
-0.3367000000000001,-26.65316088945729
-0.3357,-26.002393691519377
-0.3347000000000001,-25.43650917157336
-0.3337,-24.9130659906233
-0.3327000000000001,-24.34718147067728
-0.3317,-23.724708498736668
-0.3307000000000001,-23.2012653177866
-0.3297,-22.67782213683654
-0.3287000000000001,-22.15437895588647
-0.3277,-21.63093577493641
-0.3267000000000001,-21.022609915994444
-0.3257,-20.541608074040333
-0.3247000000000001,-20.10304757108217
-0.3237,-19.579604390132108
-0.3227000000000001,-19.112749661176647
-0.3217,-18.53271802823198
-0.3207000000000001,-18.06586329927652
-0.3197,-17.669744135314307
-0.3187000000000001,-17.188742293360193
-0.3177,-16.750181790402035
-0.3167000000000001,-16.269179948447924
-0.3157,-15.78817810649381
-0.3147000000000001,-15.3920589425316
-0.3137,-14.967645552572087
-0.3127000000000001,-14.529085049613924
-0.3117,-14.046668496359947
-0.3107000000000001,-13.610937416001518
-0.3097,-13.261503724934855
-0.3087000000000001,-12.825772644576423
-0.3077,-12.432482903213943
-0.3067000000000001,-11.952895772559694
-0.30569999999999997,-11.56102074249708
-0.3047000000000001,-11.211587051430415
-0.30369999999999997,-10.819712021367803
-0.3027000000000001,-10.382566229709504
-0.30169999999999997,-9.99069119964689
-0.3007000000000001,-9.59740145828441
-0.29969999999999997,-9.293238528813426
-0.2987000000000001,-8.943804837746763
-0.29769999999999996,-8.55051509638428
-0.2967000000000001,-8.158640066321666
-0.29569999999999996,-7.7653503249591855
-0.2947000000000001,-7.461187395488204
-0.29369999999999996,-7.155609754717355
-0.29270000000000007,-6.762320013354876
-0.29169999999999996,-6.37044498329226
-0.29070000000000007,-6.021011292225596
-0.28969999999999996,-5.759289701750564
-0.28870000000000007,-5.411270721983764
-0.28769999999999996,-5.105693081212917
-0.28670000000000007,-4.712403339850438
-0.28569999999999995,-4.364384360083638
-0.28470000000000006,-4.102662769608606
-0.28369999999999995,-3.840941179133574
-0.28270000000000006,-3.4915074880669104
-0.28169999999999995,-3.1420737970002466
-0.28070000000000006,-2.8379108675292635
-0.27969999999999995,-2.576189277054232
-0.27870000000000006,-2.3144676865791998
-0.27769999999999995,-2.008890045808352
-0.27670000000000006,-1.6594563547416883
-0.27569999999999995,-1.3543031273607997
-0.27470000000000006,-1.0925815368857679
-0.27369999999999994,-0.8308599464107361
-0.27270000000000005,-0.5255652478998613
-0.27169999999999994,-0.2202705493889862
-0.27070000000000005,0.08502414912188871
-0.26969999999999994,0.3031726315610774
-0.26870000000000005,0.5647527509061226
-0.26769999999999994,0.870188920546984
-0.26670000000000005,1.219056727093702
-0.26569999999999994,1.4812027309586933
-0.26470000000000005,1.6990682711379093
-0.26369999999999993,1.9169338113171246
