Potential V vs RHE, Current mA cm-2
0.013299999999999867,-0.26384365742482935
0.012299999999999978,-0.9617207416482519
0.011299999999999866,-1.4854468648582886
0.010299999999999976,-1.8334658446250875
0.009299999999999864,-2.052746096104168
0.008299999999999974,-2.2706116362833835
0.007299999999999862,-2.4007650758709675
0.006299999999999972,-2.576189277054232
0.00529999999999986,-2.662486666345999
0.0042999999999999705,-2.7501987669376318
0.0032999999999998586,-2.794054817233447
0.0022999999999999687,-2.8379108675292635
0.0012999999999998568,-2.8803522065252145
0.00029999999999996696,-2.8803522065252145
-0.000700000000000145,-2.924208256821031
-0.0017000000000000348,-2.968064307116847
-0.0027000000000001467,-2.968064307116847
-0.0037000000000000366,-3.055776407708479
-0.0047000000000001485,-3.055776407708479
-0.005700000000000038,-3.0996324580042955
-0.00670000000000015,-3.0996324580042955
-0.00770000000000004,-3.1420737970002466
-0.008700000000000152,-3.1420737970002466
-0.009700000000000042,-3.1859298472960624
-0.010700000000000154,-3.1859298472960624
-0.011700000000000044,-3.1859298472960624
-0.012700000000000156,-3.2297858975918787
-0.013700000000000045,-3.2297858975918787
-0.014700000000000157,-3.273641947887695
-0.015700000000000047,-3.273641947887695
-0.01670000000000016,-3.317497998183511
-0.01770000000000005,-3.317497998183511
-0.01870000000000016,-3.361354048479327
-0.01970000000000005,-3.361354048479327
-0.020700000000000163,-3.361354048479327
-0.021700000000000053,-3.361354048479327
-0.022700000000000164,-3.361354048479327
-0.023700000000000054,-3.403795387475278
-0.024700000000000166,-3.403795387475278
-0.025700000000000056,-3.403795387475278
-0.026700000000000168,-3.447651437771094
-0.027700000000000058,-3.447651437771094
-0.02870000000000017,-3.4915074880669104
-0.02970000000000006,-3.4915074880669104
-0.03070000000000017,-3.5353635383627267
-0.03170000000000006,-3.5353635383627267
-0.03270000000000017,-3.5353635383627267
-0.03370000000000006,-3.5353635383627267
-0.034700000000000175,-3.5353635383627267
-0.035700000000000065,-3.5353635383627267
-0.03670000000000018,-3.5353635383627267
-0.03770000000000007,-3.5353635383627267
-0.03870000000000018,-3.579219588658543
-0.03970000000000007,-3.579219588658543
-0.04070000000000018,-3.579219588658543
-0.04170000000000007,-3.623075638954359
-0.04270000000000018,-3.623075638954359
-0.04370000000000007,-3.623075638954359
-0.044700000000000184,-3.623075638954359
-0.045700000000000074,-3.579219588658543
-0.046700000000000186,-3.579219588658543
-0.047700000000000076,-3.623075638954359
-0.04870000000000019,-3.623075638954359
-0.04970000000000008,-3.6655169779503103
-0.05070000000000019,-3.623075638954359
-0.05170000000000008,-3.6655169779503103
-0.05270000000000019,-3.6655169779503103
-0.05370000000000008,-3.6655169779503103
-0.05470000000000019,-3.7093730282461257
-0.05570000000000008,-3.6655169779503103
-0.056700000000000195,-3.7093730282461257
-0.057700000000000085,-3.6655169779503103
-0.058700000000000196,-3.6655169779503103
-0.059700000000000086,-3.6655169779503103
-0.0607000000000002,-3.6655169779503103
-0.06170000000000009,-3.7093730282461257
-0.0627000000000002,-3.7093730282461257
-0.06370000000000009,-3.7093730282461257
-0.0647000000000002,-3.7093730282461257
-0.06570000000000009,-3.7532290785419424
-0.0667000000000002,-3.7093730282461257
-0.0677000000000001,-3.7093730282461257
-0.0687000000000002,-3.7093730282461257
-0.0697000000000001,-3.6655169779503103
-0.07070000000000021,-3.7093730282461257
-0.0717000000000001,-3.6655169779503103
-0.07270000000000021,-3.6655169779503103
-0.0737000000000001,-3.7093730282461257
-0.07470000000000021,-3.7093730282461257
-0.0757000000000001,-3.7093730282461257
-0.07670000000000021,-3.7093730282461257
-0.0777000000000001,-3.7532290785419424
-0.07870000000000021,-3.7532290785419424
-0.0797000000000001,-3.7093730282461257
-0.08070000000000022,-3.7093730282461257
-0.0817000000000001,-3.6655169779503103
-0.08270000000000022,-3.6655169779503103
-0.08370000000000011,-3.7093730282461257
-0.08470000000000022,-3.7093730282461257
-0.08570000000000011,-3.7093730282461257
-0.08670000000000022,-3.7093730282461257
-0.08770000000000011,-3.7093730282461257
-0.08870000000000022,-3.7093730282461257
-0.08970000000000011,-3.7532290785419424
-0.09070000000000022,-3.7093730282461257
-0.09170000000000011,-3.7093730282461257
-0.09270000000000023,-3.6655169779503103
-0.09370000000000012,-3.6655169779503103
-0.09470000000000023,-3.6655169779503103
-0.09570000000000012,-3.6655169779503103
-0.09670000000000023,-3.6655169779503103
-0.09770000000000012,-3.6655169779503103
-0.09870000000000023,-3.6655169779503103
-0.09970000000000012,-3.7093730282461257
-0.10070000000000023,-3.7093730282461257
-0.10170000000000012,-3.7093730282461257
-0.10270000000000024,-3.6655169779503103
-0.10370000000000013,-3.6655169779503103
-0.10470000000000024,-3.6655169779503103
-0.10570000000000013,-3.6655169779503103
-0.10670000000000024,-3.6655169779503103
-0.10770000000000013,-3.623075638954359
-0.10870000000000024,-3.6655169779503103
-0.10970000000000013,-3.6655169779503103
-0.11070000000000024,-3.6655169779503103
-0.11170000000000013,-3.6655169779503103
-0.11270000000000002,-3.6655169779503103
-0.11370000000000013,-3.6655169779503103
-0.11470000000000002,-3.6655169779503103
-0.11570000000000014,-3.623075638954359
-0.11670000000000003,-3.623075638954359
-0.11770000000000014,-3.623075638954359
-0.11870000000000003,-3.623075638954359
-0.11970000000000014,-3.6655169779503103
-0.12070000000000003,-3.6655169779503103
-0.12170000000000014,-3.6655169779503103
-0.12270000000000003,-3.6655169779503103
-0.12370000000000014,-3.6655169779503103
-0.12470000000000003,-3.6655169779503103
-0.12570000000000014,-3.623075638954359
-0.12670000000000003,-3.6655169779503103
-0.12770000000000015,-3.623075638954359
-0.12870000000000004,-3.623075638954359
-0.12970000000000015,-3.623075638954359
-0.13070000000000004,-3.579219588658543
-0.13170000000000015,-3.623075638954359
-0.13270000000000004,-3.623075638954359
-0.13370000000000015,-3.623075638954359
-0.13470000000000004,-3.623075638954359
-0.13570000000000015,-3.6655169779503103
-0.13670000000000004,-3.6655169779503103
-0.13770000000000016,-3.623075638954359
-0.13870000000000005,-3.623075638954359
-0.13970000000000016,-3.623075638954359
-0.14070000000000005,-3.623075638954359
-0.14170000000000016,-3.623075638954359
-0.14270000000000005,-3.623075638954359
-0.14370000000000016,-3.623075638954359
-0.14470000000000005,-3.623075638954359
-0.14570000000000016,-3.6655169779503103
-0.14670000000000005,-3.6655169779503103
-0.14770000000000016,-3.6655169779503103
-0.14870000000000005,-3.623075638954359
-0.14970000000000017,-3.623075638954359
-0.15070000000000006,-3.623075638954359
-0.15170000000000017,-3.623075638954359
-0.15270000000000006,-3.623075638954359
-0.15370000000000017,-3.623075638954359
-0.15470000000000006,-3.623075638954359
-0.15570000000000017,-3.6655169779503103
-0.15670000000000006,-3.6655169779503103
-0.15770000000000017,-3.6655169779503103
-0.15870000000000006,-3.6655169779503103
-0.15970000000000018,-3.6655169779503103
-0.16070000000000007,-3.6655169779503103
-0.16170000000000018,-3.6655169779503103
-0.16270000000000007,-3.623075638954359
-0.16370000000000018,-3.623075638954359
-0.16470000000000007,-3.6655169779503103
-0.16570000000000018,-3.623075638954359
-0.16670000000000007,-3.6655169779503103
-0.16770000000000018,-3.6655169779503103
-0.16870000000000007,-3.7093730282461257
-0.16970000000000018,-3.7093730282461257
-0.17070000000000007,-3.7093730282461257
-0.17170000000000019,-3.7093730282461257
-0.17270000000000008,-3.7093730282461257
-0.1737000000000002,-3.7093730282461257
-0.17470000000000008,-3.6655169779503103
-0.1757000000000002,-3.7093730282461257
-0.17670000000000008,-3.7093730282461257
-0.1777000000000002,-3.7093730282461257
-0.17870000000000008,-3.7093730282461257
-0.1797000000000002,-3.7093730282461257
-0.18070000000000008,-3.7532290785419424
-0.1817000000000002,-3.7532290785419424
-0.18270000000000008,-3.7532290785419424
-0.1837000000000002,-3.7532290785419424
-0.1847000000000001,-3.7532290785419424
-0.1857000000000002,-3.7532290785419424
-0.1867000000000001,-3.7532290785419424
-0.1877000000000002,-3.7532290785419424
-0.1887000000000001,-3.7532290785419424
-0.1897000000000002,-3.7970851288377587
-0.1907000000000001,-3.7970851288377587
-0.1917000000000001,-3.7970851288377587
-0.19269999999999998,-3.840941179133574
-0.1937000000000001,-3.840941179133574
-0.19469999999999998,-3.840941179133574
-0.1957000000000001,-3.840941179133574
-0.19669999999999999,-3.840941179133574
-0.1977000000000001,-3.840941179133574
-0.1987,-3.840941179133574
-0.1997000000000001,-3.840941179133574
-0.2007,-3.840941179133574
-0.2017000000000001,-3.884797229429391
-0.2027,-3.884797229429391
-0.2037000000000001,-3.927238568425342
-0.2047,-3.927238568425342
-0.2057000000000001,-3.971094618721158
-0.2067,-3.971094618721158
-0.2077000000000001,-3.971094618721158
-0.2087,-3.971094618721158
-0.2097000000000001,-3.971094618721158
-0.2107,-3.971094618721158
-0.2117000000000001,-4.014950669016974
-0.2127,-4.014950669016974
-0.2137000000000001,-4.014950669016974
-0.2147,-4.0588067193127895
-0.2157000000000001,-4.102662769608606
-0.2167,-4.102662769608606
-0.21770000000000012,-4.102662769608606
-0.2187,-4.102662769608606
-0.21970000000000012,-4.102662769608606
-0.2207,-4.102662769608606
-0.22170000000000012,-4.102662769608606
-0.2227,-4.146518819904423
-0.22370000000000012,-4.146518819904423
-0.2247,-4.1889601589003735
-0.22570000000000012,-4.1889601589003735
-0.2267,-4.23281620919619
-0.22770000000000012,-4.276672259492005
-0.22870000000000001,-4.276672259492005
-0.22970000000000013,-4.3205283097878215
-0.23070000000000002,-4.276672259492005
-0.23170000000000013,-4.3205283097878215
-0.23270000000000002,-4.276672259492005
-0.23370000000000013,-4.3205283097878215
-0.23470000000000002,-4.3205283097878215
-0.23570000000000013,-4.364384360083638
-0.23670000000000002,-4.406825699079589
-0.2376999999999999,-4.406825699079589
-0.23870000000000002,-4.450681749375406
-0.2396999999999999,-4.494537799671222
-0.24070000000000003,-4.538393849967037
-0.24169999999999991,-4.538393849967037
-0.24270000000000003,-4.582249900262854
-0.24369999999999992,-4.582249900262854
-0.24470000000000003,-4.582249900262854
-0.24569999999999992,-4.626105950558669
-0.24670000000000003,-4.626105950558669
-0.24769999999999992,-4.668547289554621
-0.24870000000000003,-4.712403339850438
-0.24969999999999992,-4.756259390146253
-0.25070000000000003,-4.800115440442069
-0.2516999999999999,-4.800115440442069
-0.25270000000000004,-4.843971490737885
-0.2536999999999999,-4.843971490737885
-0.25470000000000004,-4.887827541033701
-0.2556999999999999,-4.887827541033701
-0.25670000000000004,-4.9302688800296535
-0.25769999999999993,-4.9302688800296535
-0.25870000000000004,-4.974124930325469
-0.25969999999999993,-5.0618370309171015
-0.26070000000000004,-5.0618370309171015
-0.26169999999999993,-5.105693081212917
-0.26270000000000004,-5.191990470504685
-0.26369999999999993,-5.235846520800501
-0.26470000000000005,-5.235846520800501
-0.26569999999999994,-5.279702571096316
-0.26670000000000005,-5.323558621392133
-0.26769999999999994,-5.323558621392133
-0.26870000000000005,-5.367414671687949
-0.26969999999999994,-5.411270721983764
-0.27070000000000005,-5.453712060979717
-0.27169999999999994,-5.497568111275533
-0.27270000000000005,-5.585280211867165
-0.27369999999999994,-5.629136262162981
-0.27470000000000006,-5.672992312458796
-0.27569999999999995,-5.715433651454749
-0.27670000000000006,-5.759289701750564
-0.27769999999999995,-5.80314575204638
-0.27870000000000006,-5.847001802342197
-0.27969999999999995,-5.890857852638012
-0.28070000000000006,-5.9347139029338285
-0.28169999999999995,-5.977155241929781
-0.28270000000000006,-6.021011292225596
-0.28369999999999995,-6.108723392817228
-0.28470000000000006,-6.152579443113044
-0.28569999999999995,-6.238876832404812
-0.28670000000000007,-6.282732882700628
-0.28769999999999996,-6.326588932996443
-0.28870000000000007,-6.37044498329226
-0.28969999999999996,-6.414301033588076
-0.29070000000000007,-6.458157083883892
-0.29169999999999996,-6.54445447317566
-0.29270000000000007,-6.588310523471475
-0.29369999999999996,-6.632166573767292
-0.2947000000000001,-6.719878674358924
-0.29569999999999996,-6.806176063650692
-0.2967000000000001,-6.893888164242324
-0.29769999999999996,-6.93774421453814
-0.2987000000000001,-7.024041603829907
-0.29969999999999997,-7.111753704421539
-0.3007000000000001,-7.155609754717355
-0.30169999999999997,-7.243321855308987
-0.3027000000000001,-7.28576319430494
-0.30369999999999997,-7.329619244600755
-0.3047000000000001,-7.4173313451923875
-0.30569999999999997,-7.50504344578402
-0.3067000000000001,-7.591340835075788
-0.3077,-7.679052935667419
-0.3087000000000001,-7.7653503249591855
-0.3097,-7.853062425550818
-0.3107000000000001,-7.984630576438266
-0.3117,-8.070927965730034
-0.3127000000000001,-8.11478401602585
-0.3137,-8.202496116617484
-0.3147000000000001,-8.288793505909249
-0.3157,-8.376505606500881
-0.3167000000000001,-8.464217707092514
-0.3177,-8.55051509638428
-0.3187000000000001,-8.68208324727173
-0.3197,-8.769795347863363
-0.3207000000000001,-8.899948787450944
-0.3217,-8.987660888042578
-0.3227000000000001,-9.11781432763016
-0.3237,-9.161670377925978
-0.3247000000000001,-9.293238528813426
-0.3257,-9.379535918105192
-0.3267000000000001,-9.467248018696827
-0.3277,-9.59740145828441
-0.3287000000000001,-9.728969609171857
-0.3297,-9.81668170976349
-0.3307000000000001,-9.946835149351072
-0.3317,-10.078403300238522
-0.3327000000000001,-10.208556739826104
-0.3337,-10.340124890713554
-0.3347000000000001,-10.42642228000532
-0.3357,-10.557990430892769
-0.3367000000000001,-10.644287820184536
-0.3377,-10.775855971071984
-0.3387000000000001,-10.906009410659568
-0.3397,-10.993721511251199
-0.3407000000000001,-11.123874950838783
-0.3417,-11.299299152022046
-0.3427000000000001,-11.385596541313816
-0.3437,-11.56102074249708
-0.3447000000000001,-11.73503023238048
-0.3457,-11.86659838326793
-0.3467000000000001,-12.040607873151327
-0.3477,-12.12831997374296
-0.3487000000000001,-12.258473413330542
-0.3497,-12.390041564217992
-0.3507000000000001,-12.56405105410139
-0.3517,-12.694204493688973
-0.3527000000000001,-12.825772644576423
-0.3537,-12.99978213445982
-0.3547000000000001,-13.175206335643086
-0.3557,-13.349215825526485
-0.35670000000000013,-13.47936926511407
-0.3577,-13.654793466297335
-0.35870000000000013,-13.828802956180734
-0.3597,-13.916515056772363
-0.36070000000000013,-14.090524546655764
-0.3617,-14.26028990263957
-0.3626999999999999,-14.444202371622024
-0.3637,-14.61396772760583
-0.3646999999999999,-14.783733083589633
-0.3657,-14.967645552572087
-0.3666999999999999,-15.137410908555893
-0.3677,-15.307176264539699
-0.3686999999999999,-15.575971411514052
-0.36970000000000003,-15.74573676749786
-0.3706999999999999,-15.91550212348166
-0.37170000000000003,-16.099414592464115
-0.3726999999999999,-16.22673860945197
-0.37370000000000003,-16.438945304431726
-0.3746999999999999,-16.622857773414182
-0.37570000000000003,-16.792623129397985
-0.3766999999999999,-17.018976937376394
-0.37770000000000004,-17.188742293360193
-0.3786999999999999,-17.40094898833995
-0.37970000000000004,-17.627302796318357
-0.3806999999999999,-17.839509491298113
-0.38170000000000004,-18.06586329927652
-0.38269999999999993,-18.27806999425627
-0.38370000000000004,-18.44783535024008
-0.38469999999999993,-18.674189158218486
-0.38570000000000004,-18.88639585319824
-0.38669999999999993,-19.056161209182044
-0.38770000000000004,-19.3249563561564
-0.38869999999999993,-19.579604390132108
-0.38970000000000005,-19.805958198110513
-0.39069999999999994,-20.06060623208622
-0.39170000000000005,-20.286960040064624
-0.39269999999999994,-20.499166735044383
-0.39370000000000005,-20.72552054302279
-0.39469999999999994,-20.93772723800254
-0.39570000000000005,-21.2065223849769
-0.39669999999999994,-21.418729079956652
-0.39770000000000005,-21.67337711393236
-0.39869999999999994,-21.94217226090672
-0.39970000000000006,-22.196820294882425
-0.40069999999999995,-22.46561544185678
-0.40170000000000006,-22.72026347583249
-0.40269999999999995,-22.989058622806844
-0.40370000000000006,-23.24370665678255
-0.40469999999999995,-23.55494314275286
-0.40570000000000006,-23.823738289727217
-0.40669999999999995,-24.078386323702922
-0.40770000000000006,-24.290593018682678
-0.40869999999999995,-24.559388165657033
-0.40970000000000006,-24.814036199632742
-0.41069999999999995,-25.0828313466071
-0.41170000000000007,-25.43650917157336
-0.41269999999999996,-25.691157205549064
-0.41370000000000007,-26.002393691519377
-0.41469999999999996,-26.29948306449103
-0.41570000000000007,-26.568278211465387
-0.41669999999999996,-26.86536758443705
-0.41770000000000007,-27.134162731411404
-0.41869999999999996,-27.43125210438306
-0.4197000000000001,-27.700047251357418
-0.42069999999999996,-28.05372507632368
-0.4217000000000001,-28.350814449295335
-0.42269999999999996,-28.662050935265643
-0.4237000000000001,-28.959140308237306
-0.42469999999999997,-29.27037679420761
-0.4257000000000001,-29.62405461917387
-0.42669999999999997,-29.921143992145527
-0.4277000000000001,-30.232380478115836
-0.42869999999999997,-30.571911190083444
-0.4297000000000001,-30.88314767605375
-0.43069999999999997,-31.23682550102001
-0.4317000000000001,-31.533914873991666
-0.4327,-31.887592698957924
-0.4337000000000001,-32.184682071929586
-0.4347,-32.58080123589179
-0.4357000000000001,-32.93447906085806
-0.4367,-33.288156885824314
-0.4377000000000001,-33.627687597791926
-0.4387,-34.02380676175414
-0.4397000000000001,-34.41992592571634
-0.4407,-34.717015298688004
-0.4417000000000001,-35.11313446265021
-0.4427,-35.42437094862052
-0.4437000000000001,-35.763901660588125
-0.4447,-36.11757948555439
-0.4457000000000001,-36.5136986495166
-0.4467,-36.89567070048016
-0.4477000000000001,-37.291789864442364
-0.4487,-37.73035036740053
-0.4497000000000001,-38.08402819236679
-0.4507,-38.46600024333035
-0.4517000000000001,-38.81967806829661
-0.4527,-39.21579723225882
-0.4537000000000001,-39.61191639622103
-0.4547,-39.95144710818864
-0.4557000000000001,-40.3900076111468
-0.4567,-40.78612677510901
-0.4577000000000001,-41.182245939071215
-0.4587,-41.606659329030734
-0.4597000000000001,-41.96033715399699
-0.4607,-42.39889765695515
-0.4617000000000001,-42.79501682091736
-0.4627,-43.23357732387552
-0.4637000000000001,-43.657990713835034
-0.4647,-44.054109877797245
-0.4657000000000001,-44.4926703807554
-0.4667,-44.88878954471762
-0.4677000000000001,-45.36979138667173
-0.4687,-45.75176343763528
-0.4697000000000001,-46.19032394059345
-0.4707,-46.628884443551605
-0.4717000000000001,-47.10988628550572
-0.4727,-47.54844678846388
-0.4737000000000001,-48.029448630417996
-0.4747,-48.45386202037751
-0.4757000000000001,-48.89242252333566
-0.4767,-49.373424365289786
-0.4777000000000001,-49.81198486824794
-0.4787,-50.29298671020206
-0.4797000000000001,-50.73154721316022
-0.4807,-51.17010771611838
-0.48170000000000013,-51.65110955807249
-0.4827,-52.11796428702795
-0.48370000000000013,-52.64140746797801
-0.4847,-53.12240930993213
-0.48570000000000013,-53.56096981289029
-0.4867,-53.348763117910536
-0.48570000000000013,-52.17455273902255
-0.4847,-51.33987307210218
-0.48370000000000013,-50.60422319617236
-0.4827,-49.98175022423175
-0.48170000000000013,-49.41586570428573
-0.4807,-48.80753984534376
-0.4797000000000001,-48.2840966643937
-0.4787,-47.71821214444768
-0.4777000000000001,-47.19476896349763
-0.4767,-46.67132578254756
-0.4757000000000001,-46.147882601597495
-0.4747,-45.624439420647434
-0.4737000000000001,-45.10099623969737
-0.4727,-44.577553058747306
-0.4717000000000001,-44.054109877797245
-0.4707,-43.53066669684718
-0.4697000000000001,-43.007223515897124
-0.4687,-42.483780334947056
-0.4677000000000001,-42.00277849299294
-0.4667,-41.52177665103883
-0.4657000000000001,-41.04077480908471
-0.4647,-40.616361419125205
