Potential V vs RHE, Current mA cm-2
0.013299999999999867,0.049571483947270886
0.012299999999999978,-0.05160866821907654
0.011299999999999866,-0.0944602734919885
0.010299999999999976,-0.12056169697449844
0.009299999999999864,-0.14161260111649018
0.008299999999999974,-0.15929649236480314
0.007299999999999862,-0.18037569073279217
0.006299999999999972,-0.20541608074040332
0.00529999999999986,-0.22126084729889173
0.0042999999999999705,-0.22875881718817642
0.0032999999999998586,-0.2426229879268538
0.0022999999999999687,-0.2581848122253692
0.0012999999999998568,-0.2768590013835877
0.00029999999999996696,-0.2883181629124945
-0.000700000000000145,-0.2931281813320356
-0.0017000000000000348,-0.30402145834099636
-0.0027000000000001467,-0.31519767760993017
-0.0037000000000000366,-0.3290618483486075
-0.0047000000000001485,-0.33981365422758186
-0.005700000000000038,-0.3426430768273119
-0.00670000000000015,-0.3494336910666641
-0.00770000000000004,-0.35961961242569235
-0.008700000000000152,-0.37221054299449113
-0.009700000000000042,-0.3799914551437488
-0.010700000000000154,-0.38310382000345194
-0.011700000000000044,-0.386782069383101
-0.012700000000000156,-0.3965435773521698
-0.013700000000000045,-0.4034756627215085
-0.014700000000000157,-0.4106906903508202
-0.015700000000000047,-0.41083216148080665
-0.01670000000000016,-0.41451041086045576
-0.01770000000000005,-0.4245548610894975
-0.01870000000000016,-0.4306381196789172
-0.01970000000000005,-0.43601402261840433
-0.020700000000000163,-0.43672137826833685
-0.021700000000000053,-0.4350237247084988
-0.022700000000000164,-0.444360819287608
-0.023700000000000054,-0.4514343757869332
-0.024700000000000166,-0.4558199808165148
-0.025700000000000056,-0.45299055821678474
-0.026700000000000168,-0.45299055821678474
-0.027700000000000058,-0.4594982301961639
-0.02870000000000017,-0.4650156042656376
-0.02970000000000006,-0.4667132578254756
-0.03070000000000017,-0.46600590217554305
-0.03170000000000006,-0.46331795070579956
-0.03270000000000017,-0.46699620008544857
-0.03370000000000006,-0.47520152562466583
-0.034700000000000175,-0.47421122771476026
-0.035700000000000065,-0.4713818051150302
-0.03670000000000018,-0.4736453431948142
-0.03770000000000007,-0.4749185833646928
-0.03870000000000018,-0.48001154404420693
-0.03970000000000007,-0.48029448630418
-0.04070000000000018,-0.4736453431948142
-0.04170000000000007,-0.4749185833646928
-0.04270000000000018,-0.4764747657945444
-0.04370000000000007,-0.48029448630418
-0.044700000000000184,-0.4812847842140855
-0.045700000000000074,-0.4757674101446118
-0.046700000000000186,-0.4733624009348413
-0.047700000000000076,-0.47633329466455787
-0.04870000000000019,-0.4798700729142204
-0.04970000000000008,-0.4829824377739235
-0.05070000000000019,-0.47223063189494924
-0.05170000000000008,-0.4691182670352462
-0.05270000000000019,-0.47265504528490876
-0.05370000000000008,-0.4753429967546523
-0.05470000000000019,-0.47435269884474673
-0.05570000000000008,-0.46954268042520564
-0.056700000000000195,-0.463459421835786
-0.057700000000000085,-0.46657178669548904
-0.058700000000000196,-0.46812796912534066
-0.059700000000000086,-0.4688353247752731
-0.0607000000000002,-0.46402530635573197
-0.06170000000000009,-0.4599226435861234
-0.0627000000000002,-0.46119588375600196
-0.06370000000000009,-0.46232765279589394
-0.0647000000000002,-0.4594982301961639
-0.06570000000000009,-0.4548296829066093
-0.0667000000000002,-0.44959525109710863
-0.0677000000000001,-0.45171731804690624
-0.0687000000000002,-0.45341497160674427
-0.0697000000000001,-0.4522832025668522
-0.07070000000000021,-0.44520964606752705
-0.0717000000000001,-0.4406825699079589
-0.07270000000000021,-0.4433705213777025
-0.0737000000000001,-0.44605847284744604
-0.07470000000000021,-0.44308757911772945
-0.0757000000000001,-0.4354481380984583
-0.07670000000000021,-0.43304312888868773
-0.0777000000000001,-0.4348822535785123
-0.07870000000000021,-0.43898491634812087
-0.0797000000000001,-0.4338919556686068
-0.08070000000000022,-0.42752575481921407
-0.0817000000000001,-0.4239889765695515
-0.08270000000000022,-0.4248378033494705
-0.08370000000000011,-0.4269598702992681
-0.08470000000000022,-0.4268183991692816
-0.08570000000000011,-0.41804718911011834
-0.08670000000000022,-0.41550070877036127
-0.08770000000000011,-0.41847160250007787
-0.08870000000000022,-0.4190374870200239
-0.08970000000000011,-0.4196033715399699
-0.09070000000000022,-0.4106906903508202
-0.09170000000000011,-0.4078612677510901
-0.09270000000000023,-0.40970039244091466
-0.09370000000000012,-0.41026627696086065
-0.09470000000000023,-0.41012480583087413
-0.09570000000000012,-0.4024853648116029
-0.09670000000000023,-0.3986656443019673
-0.09770000000000012,-0.4051733162813465
-0.09870000000000023,-0.4031927204615355
-0.09970000000000012,-0.4031927204615355
-0.10070000000000023,-0.39739240413208876
-0.10170000000000012,-0.39258238571254767
-0.10270000000000024,-0.3976753463920618
-0.10370000000000013,-0.3992315288219133
-0.10470000000000024,-0.3959776928322238
-0.10570000000000013,-0.3930067991025072
-0.10670000000000024,-0.38791383842299304
-0.10770000000000013,-0.38890413633289855
-0.10870000000000024,-0.3932897413624802
-0.10970000000000013,-0.3915920878026421
-0.11070000000000024,-0.3874894250330335
-0.11170000000000013,-0.3828208777434789
-0.11270000000000002,-0.38777236729300657
-0.11370000000000013,-0.3907432610227231
-0.11470000000000002,-0.386782069383101
-0.11570000000000014,-0.38140616644361386
-0.11670000000000003,-0.3798499840137623
-0.11770000000000014,-0.3825379354835059
-0.11870000000000003,-0.386216184863155
-0.11970000000000014,-0.38536735808323597
-0.12070000000000003,-0.3780108593239378
-0.12170000000000014,-0.3770205614140323
-0.12270000000000003,-0.37857674384388385
-0.12370000000000014,-0.3815476375736004
-0.12470000000000003,-0.3829623488734654
-0.12570000000000014,-0.3747570233342482
-0.12670000000000003,-0.3734837831643697
-0.12770000000000015,-0.37786938819395127
-0.12870000000000004,-0.3798499840137623
-0.12970000000000015,-0.38084028192366787
-0.13070000000000004,-0.37518143672420773
-0.13170000000000015,-0.37136171621457215
-0.13270000000000004,-0.3780108593239378
-0.13370000000000015,-0.3792840994938163
-0.13470000000000004,-0.3795670417537893
-0.13570000000000015,-0.3744740810742752
-0.13670000000000004,-0.37079583169462615
-0.13770000000000016,-0.37631320576409977
-0.13870000000000005,-0.37970851288377583
-0.13970000000000016,-0.38055733966369487
-0.14070000000000005,-0.3770205614140323
-0.14170000000000016,-0.37263495638445066
-0.14270000000000005,-0.3806988107936814
-0.14370000000000016,-0.3809817530536544
-0.14470000000000005,-0.3822549932235329
-0.14570000000000016,-0.37631320576409977
-0.14670000000000005,-0.37617173463411324
-0.14770000000000016,-0.38055733966369487
-0.14870000000000005,-0.383952646783371
-0.14970000000000017,-0.383952646783371
-0.15070000000000006,-0.38041586853370835
-0.15170000000000017,-0.37885968610385684
-0.15270000000000006,-0.3835282333934114
-0.15370000000000017,-0.38890413633289855
-0.15470000000000006,-0.38791383842299304
-0.15570000000000017,-0.3832452911334384
-0.15670000000000006,-0.38197205096355985
-0.15770000000000017,-0.38833825181295256
-0.15870000000000006,-0.3941385681423992
-0.15970000000000018,-0.3932897413624802
-0.16070000000000007,-0.39088473215270964
-0.16170000000000018,-0.39116767441268263
-0.16270000000000007,-0.3937141547524397
-0.16370000000000018,-0.3992315288219133
-0.16470000000000007,-0.40361713385149495
-0.16570000000000018,-0.3982412309120078
-0.16670000000000007,-0.39809975978202133
-0.16770000000000018,-0.40404154724145447
-0.16870000000000007,-0.40701244097117106
-0.16970000000000018,-0.40970039244091466
-0.17070000000000007,-0.406446556451225
-0.17170000000000019,-0.40687096984118454
-0.17270000000000008,-0.41451041086045576
-0.1737000000000002,-0.4173398334601858
-0.17470000000000008,-0.42130102509980794
-0.1757000000000002,-0.4173398334601858
-0.17670000000000008,-0.41776424685014535
-0.1777000000000002,-0.4245548610894975
-0.17870000000000008,-0.43021370628895766
-0.1797000000000002,-0.43261871549872827
-0.18070000000000008,-0.4336090134086337
-0.1817000000000002,-0.43176988871880917
-0.18270000000000008,-0.4378531473082289
-0.1837000000000002,-0.44393640589764854
-0.1847000000000001,-0.4490293665771626
-0.1857000000000002,-0.45044407787702767
-0.1867000000000001,-0.44761465527729766
-0.1877000000000002,-0.45666880759643386
-0.1887000000000001,-0.46473266200566454
-0.1897000000000002,-0.46657178669548904
-0.1907000000000001,-0.46657178669548904
-0.1917000000000001,-0.4682694402553271
-0.19269999999999998,-0.4770406503144904
-0.1937000000000001,-0.48552891811368054
-0.19469999999999998,-0.48552891811368054
-0.1957000000000001,-0.4866606871535727
-0.19669999999999999,-0.49161217670310015
-0.1977000000000001,-0.4993930888523579
-0.1987,-0.5073154721316021
-0.1997000000000001,-0.5129743173310622
-0.2007,-0.5135402018510082
-0.2017000000000001,-0.5191990470504685
-0.2027,-0.5282531993696047
-0.2037000000000001,-0.5367414671687949
-0.2047,-0.5443809081880661
-0.2057000000000001,-0.5425417834982416
-0.2067,-0.5507471090374588
-0.2077000000000001,-0.559518319096622
-0.2087,-0.5697042404556503
-0.2097000000000001,-0.577485152604908
-0.2107,-0.580314575204638
-0.2117000000000001,-0.5866807760540307
-0.2127,-0.6009693601826676
-0.2137000000000001,-0.6086088012019387
-0.2147,-0.6190776648209401
-0.2157000000000001,-0.6271415192301707
-0.2167,-0.6309612397398063
-0.21770000000000012,-0.6472304196882542
-0.2187,-0.657274869917296
-0.21970000000000012,-0.6661875511064458
-0.2207,-0.6745343477756495
-0.22170000000000012,-0.6797687795851503
-0.2227,-0.6998576800432337
-0.22370000000000012,-0.710326543662235
-0.2247,-0.7193806959813712
-0.22570000000000012,-0.730556915250305
-0.2267,-0.7357913470598055
-0.22770000000000012,-0.7553143629979431
-0.22870000000000001,-0.7713006006864179
-0.22970000000000013,-0.7827597622153247
-0.23070000000000002,-0.7957751061740831
-0.23170000000000013,-0.8042633739732733
-0.23270000000000002,-0.824352274431357
-0.23370000000000013,-0.8420361656796699
-0.23470000000000002,-0.8566076920682798
-0.23570000000000013,-0.868774209247119
-0.23670000000000002,-0.8823554377258234
-0.2376999999999999,-0.9024443381839068
-0.23870000000000002,-0.9249382478517609
-0.2396999999999999,-0.9385194763304654
-0.24070000000000003,-0.9554960119288457
-0.24169999999999991,-0.9744531433470374
-0.24270000000000003,-0.9935517458952152
-0.24369999999999992,-1.0194409626827452
-0.24470000000000003,-1.038963978620883
-0.24569999999999992,-1.0553746296993174
-0.24670000000000003,-1.0761708858073333
-0.24769999999999992,-1.101069804684958
-0.24870000000000003,-1.1283737327723533
-0.24969999999999992,-1.1510091135701939
-0.25070000000000003,-1.1682685914285473
-0.2516999999999999,-1.192318683526253
-0.25270000000000004,-1.2225935053433648
-0.2536999999999999,-1.2544245095903281
-0.25470000000000004,-1.280596668637831
-0.2556999999999999,-1.3009685113558875
-0.25670000000000004,-1.3298286218731346
-0.25769999999999993,-1.3651964043697604
-0.25870000000000004,-1.3974518220066834
-0.25969999999999993,-1.4288584128636872
-0.26070000000000004,-1.4571526388609877
-0.26169999999999993,-1.4868615761581534
-0.26270000000000004,-1.5236440699546445
-0.26369999999999993,-1.5618412750510005
-0.26470000000000005,-1.5943796349478963
-0.26569999999999994,-1.6297474174445223
-0.26670000000000005,-1.6665299112410132
-0.26769999999999994,-1.7089712502369643
-0.26870000000000005,-1.7499978779330503
-0.26969999999999994,-1.7896097943292715
-0.27070000000000005,-1.8292217107254924
-0.27169999999999994,-1.8688336271217136
-0.27270000000000005,-1.9155191000172598
-0.27369999999999994,-1.967863418112266
-0.27470000000000006,-2.0103047571082175
-0.27569999999999995,-2.049916673504438
-0.27670000000000006,-2.0994315689997145
-0.27769999999999995,-2.151775887094721
-0.27870000000000006,-2.204120205189727
-0.27969999999999995,-2.2592939458844636
-0.28070000000000006,-2.30597941878001
-0.28169999999999995,-2.358323736875016
-0.28270000000000006,-2.414912188869618
-0.28369999999999995,-2.4785741973635442
-0.28470000000000006,-2.5351626493581456
-0.28569999999999995,-2.590336390052882
-0.28670000000000007,-2.6497542646472136
-0.28769999999999996,-2.712001561841275
-0.28870000000000007,-2.778492992934932
-0.28969999999999996,-2.843569712728724
-0.29070000000000007,-2.9072317212226504
-0.29169999999999996,-2.965234884517117
-0.29270000000000007,-3.0387998721100984
-0.29369999999999996,-3.1095354371033506
-0.2947000000000001,-3.1802710020966023
-0.29569999999999996,-3.243933010590529
-0.2967000000000001,-3.3189127094833766
-0.29769999999999996,-3.3967218309759533
-0.2987000000000001,-3.475945663768395
-0.29969999999999997,-3.553754785260972
-0.3007000000000001,-3.630149195453684
-0.30169999999999997,-3.702299471746801
-0.3027000000000001,-3.785767438438838
-0.30369999999999997,-3.8763089616302007
-0.3047000000000001,-3.9541180831227782
-0.30569999999999997,-4.03617133851495
-0.3067000000000001,-4.116809882607257
-0.3077,-4.21018082839835
-0.3087000000000001,-4.302137062889576
-0.3097,-4.3926785860809385
-0.3107000000000001,-4.483220109272302
-0.3117,-4.573761632463664
-0.3127000000000001,-4.6742061347540815
-0.3137,-4.774650637044499
-0.3147000000000001,-4.865192160235861
-0.3157,-4.961392528626684
-0.3167000000000001,-5.056178185717641
-0.3177,-5.162281533207518
-0.3187000000000001,-5.266970169397532
-0.3197,-5.364585249088219
-0.3207000000000001,-5.465029751378637
-0.3217,-5.565474253669055
-0.3227000000000001,-5.680065868958122
-0.3237,-5.793242772947325
-0.3247000000000001,-5.902175543036933
-0.3257,-6.004034756627216
-0.3267000000000001,-6.112967526716823
-0.3277,-6.231803275905486
-0.3287000000000001,-6.3548831589937445
-0.3297,-6.462401217783487
-0.3307000000000001,-6.57274869917296
-0.3317,-6.698658004860949
-0.3327000000000001,-6.809005486250422
-0.3337,-6.929255946738949
-0.3347000000000001,-7.055165252426939
-0.3357,-7.172586290315736
-0.3367000000000001,-7.297080884703859
-0.3377,-7.437137303390498
-0.3387000000000001,-7.570120165577812
-0.3397,-7.6960294712658
-0.3407000000000001,-7.819109354354057
-0.3417,-7.949262793941642
-0.3427000000000001,-8.092148635228009
-0.3437,-8.219472652215863
-0.3447000000000001,-8.355284937002907
-0.3457,-8.495341355689545
-0.3467000000000001,-8.632568351776454
-0.3477,-8.766965925263634
-0.3487000000000001,-8.911266477849864
-0.3497,-9.0555670304361
-0.3507000000000001,-9.199867583022334
-0.3517,-9.344168135608566
-0.3527000000000001,-9.494127533394261
-0.3537,-9.638428085980495
-0.3547000000000001,-9.792631617665785
-0.3557,-9.945420438051208
-0.35670000000000013,-10.102453392336226
-0.3577,-10.25807163532138
-0.35870000000000013,-10.413689878306533
-0.3597,-10.567893409991825
-0.36070000000000013,-10.731999920776168
-0.3617,-10.901765276759972
-0.3626999999999999,-11.063042364944588
-0.3637,-11.234222432228256
-0.3646999999999999,-11.411061344711387
-0.3657,-11.579411989395325
-0.3666999999999999,-11.753421479278725
-0.3677,-11.92884568046199
-0.3686999999999999,-12.10285517034539
-0.36970000000000003,-12.276864660228789
-0.3706999999999999,-12.446630016212593
-0.37170000000000003,-12.634786619094642
-0.3726999999999999,-12.825772644576423
-0.37370000000000003,-13.00544097965928
-0.3746999999999999,-13.179450469542681
-0.37570000000000003,-13.361948227225271
-0.3766999999999999,-13.560007809206377
-0.37770000000000004,-13.767970370286537
-0.3786999999999999,-13.957541684468453
-0.37970000000000004,-14.147112998650368
-0.3806999999999999,-14.345172580631472
-0.38170000000000004,-14.557379275611227
-0.38269999999999993,-14.769585970590983
-0.38370000000000004,-14.98179266557074
-0.38469999999999993,-15.179852247551842
-0.38570000000000004,-15.37791182953295
-0.38669999999999993,-15.575971411514052
-0.38770000000000004,-15.802325219492458
-0.38869999999999993,-15.986237688474914
-0.38970000000000005,-16.184297270456018
-0.39069999999999994,-16.410651078434423
-0.39170000000000005,-16.637004886412832
-0.39269999999999994,-16.835064468393938
-0.39370000000000005,-17.07556538937099
-0.39469999999999994,-17.301919197349395
-0.39570000000000005,-17.542420118326454
-0.39669999999999994,-17.782921039303513
-0.39770000000000005,-18.009274847281915
-0.39869999999999994,-18.249775768258974
-0.39970000000000006,-18.49027668923603
-0.40069999999999995,-18.716630497214435
-0.40170000000000006,-18.92883719219419
-0.40269999999999995,-19.155191000172596
-0.40370000000000006,-19.423986147146955
-0.40469999999999995,-19.678634181122664
-0.40570000000000006,-19.93328221509837
-0.40669999999999995,-20.159636023076775
-0.40770000000000006,-20.44257828304978
-0.40869999999999995,-20.69722631702549
-0.40970000000000006,-20.95187435100119
-0.41069999999999995,-21.22066949797555
-0.41170000000000007,-21.47531753195126
-0.41269999999999996,-21.744112678925614
-0.41370000000000007,-22.012907825899973
-0.41469999999999996,-22.281702972874328
-0.41570000000000007,-22.578792345845983
-0.41669999999999996,-22.890028831816295
-0.41770000000000007,-23.1729710917893
-0.41869999999999996,-23.45591335176231
-0.4197000000000001,-23.724708498736668
-0.42069999999999996,-24.00765075870967
-0.4217000000000001,-24.23400456668808
-0.42269999999999996,-24.545241052658387
-0.4237000000000001,-24.856477538628695
-0.42469999999999997,-25.167714024599
-0.4257000000000001,-25.478950510569312
-0.42669999999999997,-25.73359854454502
-0.4277000000000001,-26.016540804518023
-0.42869999999999997,-26.34192440348698
-0.4297000000000001,-26.667308002455943
-0.43069999999999997,-27.0209858274222
-0.4317000000000001,-27.332222313392506
-0.4327,-27.615164573365515
-0.4337000000000001,-27.926401059335824
-0.4347,-28.280078884302082
-0.4357000000000001,-28.619609596269694
-0.4367,-28.93084608224
-0.4377000000000001,-29.25622968120896
-0.4387,-29.581613280177915
-0.4397000000000001,-29.921143992145527
-0.4407,-30.274821817111786
-0.4417000000000001,-30.62849964207804
-0.4427,-30.968030354045652
-0.4437000000000001,-31.29341395301461
-0.4447,-31.618797551983565
-0.4457000000000001,-31.972475376949827
-0.4467,-32.354447427913385
-0.4477000000000001,-32.7222723658783
-0.4487,-33.07595019084456
-0.4497000000000001,-33.38718667681487
-0.4507,-33.740864501781125
-0.4517000000000001,-34.13698366574334
-0.4527,-34.5472499427042
-0.4537000000000001,-34.98581044566235
-0.4547,-35.38192960962457
-0.4557000000000001,-35.679018982596226
-0.4567,-36.04684392056114
-0.4577000000000001,-36.45711019752199
-0.4587,-36.88152358748151
-0.4597000000000001,-37.305936977441014
-0.4607,-37.673761915405926
-0.4617000000000001,-38.06988107936814
-0.4627,-38.5084415823263
-0.4637000000000001,-38.91870785928716
-0.4647,-39.30067991025072
-0.4657000000000001,-39.66850484821563
-0.4667,-40.06462401217784
-0.4677000000000001,-40.43244895014274
-0.4687,-40.85686234010226
-0.4697000000000001,-41.33786418205637
-0.4707,-41.79057179801318
-0.4717000000000001,-42.243279413969994
-0.4727,-42.681839916928155
-0.4737000000000001,-43.120400419886316
-0.4747,-43.558960922844484
-0.4757000000000001,-43.95508008680669
-0.4767,-44.39364058976485
-0.4777000000000001,-44.76146552772976
-0.4787,-45.17173180469062
-0.4797000000000001,-45.61029230764878
-0.4807,-46.048852810606945
-0.48170000000000013,-46.41667774857186
-0.4827,-46.94012092952192
-0.48370000000000013,-47.449416997473335
-0.4847,-47.972860178423396
-0.48570000000000013,-48.48215624637481
-0.4867,-48.36897934238561
-0.48570000000000013,-47.84553616143554
-0.4847,-47.27965164148953
-0.48370000000000013,-46.75620846053947
-0.4827,-46.218618166590744
-0.48170000000000013,-45.72346921163799
-0.4807,-45.21417314368657
-0.4797000000000001,-44.71902418873381
-0.4787,-44.153139668787794
-0.4777000000000001,-43.657990713835034
-0.4767,-43.16284175888227
-0.4757000000000001,-42.72428125592411
-0.4747,-42.28572075296594
-0.4737000000000001,-41.77642468501453
-0.4727,-41.281275730061765
-0.4717000000000001,-40.84271522710361
