Potential V vs RHE, Current mA cm-2
0.05339999999999995,-0.03415113077874199
0.05239999999999995,-0.03518387002764346
0.051399999999999946,-0.03584878433858003
0.050399999999999945,-0.036400521745527395
0.049399999999999944,-0.036881523587481514
0.04839999999999994,-0.03733423120343832
0.04739999999999994,-0.03775864459339783
0.04639999999999994,-0.03816891087035869
0.04539999999999994,-0.03857917714731955
0.04439999999999994,-0.039003590537279066
0.04339999999999994,-0.03937141547524397
0.04239999999999994,-0.03976753463920618
0.04139999999999994,-0.04016365380316839
0.040399999999999936,-0.040545625854131954
0.039399999999999935,-0.040955892131092804
0.038399999999999934,-0.04135201129505502
0.03739999999999993,-0.04171983623301993
0.03639999999999993,-0.04210180828398349
0.03539999999999993,-0.0424979274479457
0.03439999999999993,-0.04287989949890925
0.03339999999999993,-0.04327601866287147
0.03239999999999993,-0.04364384360083638
0.03139999999999993,-0.044025815651799936
0.030399999999999927,-0.044421934815762155
0.029399999999999926,-0.04483220109272301
0.028399999999999925,-0.04520002603068792
0.027399999999999924,-0.04558199808165148
0.026399999999999924,-0.045963970132615044
0.025399999999999923,-0.0463742364095759
0.024399999999999922,-0.04675620846053946
0.02339999999999992,-0.047166474737500325
0.02239999999999992,-0.04757674101446118
0.02139999999999992,-0.04795871306542474
0.020399999999999918,-0.0483972735683829
0.019399999999999917,-0.048821686958342415
0.018399999999999916,-0.049189511896307325
0.017399999999999916,-0.04959977817326818
0.016399999999999915,-0.0499958973372304
0.015399999999999914,-0.05042031072718991
0.014399999999999913,-0.050844724117149416
0.013399999999999912,-0.05126913750710893
0.012399999999999911,-0.05167940378406979
0.01139999999999991,-0.0521038171740293
0.01039999999999991,-0.05254237767698746
0.009399999999999908,-0.052980938179945626
0.008399999999999908,-0.05336291023090918
0.007399999999999907,-0.053815617846866
0.006399999999999906,-0.054240031236825505
0.005399999999999905,-0.05469273885278232
0.004399999999999904,-0.05513129935574049
0.003399999999999903,-0.055541565632701344
0.002399999999999902,-0.05596597902266085
0.0013999999999999013,-0.05639039241262036
0.00039999999999990044,-0.056871394254574464
-0.0006000000000001005,-0.057324101870531295
-0.0016000000000001013,-0.05773436814749215
-0.0026000000000001022,-0.05815878153745166
-0.003600000000000103,-0.058597342040409825
-0.004600000000000104,-0.059050049656366635
-0.005600000000000105,-0.059502757272323445
-0.006600000000000106,-0.0599130235492843
-0.007600000000000107,-0.06035158405224247
-0.008600000000000108,-0.06080429166819928
-0.009600000000000108,-0.06127114639715474
-0.01060000000000011,-0.061752148239108844
-0.01160000000000011,-0.06220485585506567
-0.012600000000000111,-0.06267171058402111
-0.013600000000000112,-0.06312441819997792
-0.014600000000000113,-0.0636195671549307
-0.015600000000000114,-0.06411471610988345
-0.016600000000000115,-0.06458157083883892
-0.017600000000000116,-0.06503427845479573
-0.018600000000000116,-0.06548698607075255
-0.019600000000000117,-0.06598213502570531
-0.020600000000000118,-0.06644898975466076
-0.02160000000000012,-0.06691584448361623
-0.02260000000000012,-0.0673826992125717
-0.02360000000000012,-0.06784955394152717
-0.024600000000000122,-0.06835885000947857
-0.025600000000000123,-0.06885399896443134
-0.026600000000000124,-0.06930670658038814
-0.027600000000000124,-0.06977356130934362
-0.028600000000000125,-0.07022626892530041
-0.029600000000000126,-0.07073556499325184
-0.030600000000000127,-0.0712590081742019
-0.03160000000000013,-0.07174001001615601
-0.03260000000000013,-0.07222101185811013
-0.03360000000000013,-0.07267371947406694
-0.03460000000000002,-0.07318301554201835
-0.03560000000000002,-0.07367816449697111
-0.03660000000000002,-0.07413087211292792
-0.03760000000000002,-0.07462602106788069
-0.03860000000000002,-0.0751070229098348
-0.039600000000000024,-0.07563046609078486
-0.040600000000000025,-0.07612561504573763
-0.041600000000000026,-0.07657832266169443
-0.04260000000000003,-0.0770734716166472
-0.04360000000000003,-0.077526179232604
-0.04460000000000003,-0.07806376952655272
-0.04560000000000003,-0.07855891848150548
-0.04660000000000003,-0.07903992032345959
-0.04760000000000003,-0.07952092216541372
-0.04860000000000003,-0.07998777689436919
-0.04960000000000003,-0.08046877873632328
-0.050600000000000034,-0.08096392769127606
-0.051600000000000035,-0.08147322375922747
-0.052600000000000036,-0.08192593137518428
-0.053600000000000037,-0.08240693321713838
-0.05460000000000004,-0.08291622928508981
-0.05560000000000004,-0.08336893690104662
-0.05660000000000004,-0.08380749740400478
-0.05760000000000004,-0.08426020501996159
-0.05860000000000004,-0.08472705974891705
-0.05960000000000004,-0.08522220870386982
-0.06060000000000004,-0.08570321054582393
-0.061600000000000044,-0.08617006527477938
-0.06260000000000004,-0.08663692000373484
-0.06360000000000005,-0.08708962761969166
-0.06460000000000005,-0.08754233523564847
-0.06560000000000005,-0.08799504285160528
-0.06660000000000005,-0.0884194562415648
-0.06760000000000005,-0.08885801674452294
-0.06860000000000005,-0.08932487147347841
-0.06960000000000005,-0.08979172620243389
-0.07060000000000005,-0.09025858093138935
-0.07160000000000005,-0.09066884720835021
-0.07260000000000005,-0.091121554824307
-0.07360000000000005,-0.09151767398826924
-0.07460000000000006,-0.09197038160422603
-0.07560000000000006,-0.09245138344618015
-0.07660000000000006,-0.09287579683613965
-0.07760000000000006,-0.09330021022609918
-0.07860000000000006,-0.09371047650306003
-0.07960000000000006,-0.09413488989301955
-0.08060000000000006,-0.09455930328297905
-0.08160000000000006,-0.09495542244694127
-0.08260000000000006,-0.09535154161090346
-0.08360000000000006,-0.09574766077486568
-0.08460000000000006,-0.09617207416482519
-0.08560000000000006,-0.09658234044178605
-0.08660000000000007,-0.09696431249274962
-0.08760000000000007,-0.09733213743071452
-0.08860000000000007,-0.09768581525568078
-0.08960000000000007,-0.09806778730664434
-0.09060000000000007,-0.09846390647060656
-0.09160000000000007,-0.0988175842955728
-0.09260000000000007,-0.09915711500754042
-0.09360000000000007,-0.09951079283250668
-0.09460000000000007,-0.09987861777047159
-0.09560000000000007,-0.10026058982143515
-0.09660000000000007,-0.10060012053340277
-0.09760000000000008,-0.10092550413237171
-0.09860000000000008,-0.10123674061834202
-0.09960000000000008,-0.1015904184433083
-0.10060000000000008,-0.10191580204227724
-0.10160000000000008,-0.10222703852824755
-0.10260000000000008,-0.10253827501421786
-0.10360000000000008,-0.10279292304819357
-0.10460000000000008,-0.10310415953416388
-0.10560000000000008,-0.10342954313313284
-0.10660000000000008,-0.1036983382801072
-0.10760000000000008,-0.10396713342708154
-0.10860000000000009,-0.10423592857405589
-0.10960000000000009,-0.10453301794702756
-0.11060000000000009,-0.10480181309400192
-0.11160000000000009,-0.10504231401497897
-0.11260000000000009,-0.10529696204895468
-0.11360000000000009,-0.10552331585693309
-0.11460000000000009,-0.10582040522990475
-0.11560000000000009,-0.10607505326388045
-0.11660000000000009,-0.10628725995886021
-0.1176000000000001,-0.10649946665383996
-0.1186000000000001,-0.10669752623582107
-0.1196000000000001,-0.10692388004379948
-0.1206000000000001,-0.10716438096477654
-0.1216000000000001,-0.10736244054675763
-0.1226000000000001,-0.1075463530157401
-0.1236000000000001,-0.10771611837172389
-0.1246000000000001,-0.10790003084070635
-0.1256000000000001,-0.10811223753568612
-0.1266000000000001,-0.10826785577867125
-0.1276000000000001,-0.10843762113465506
-0.1286000000000001,-0.10857909226464157
-0.1296000000000001,-0.10873471050762673
-0.1306000000000001,-0.10890447586361052
-0.1316000000000001,-0.10906009410659567
-0.1326000000000001,-0.10918741812358353
-0.1336000000000001,-0.1093147421405714
-0.1346000000000001,-0.10944206615755923
-0.1356000000000001,-0.10958353728754573
-0.1366000000000001,-0.1096825670785363
-0.1376000000000001,-0.1097674497565282
-0.1386000000000001,-0.10986647954751874
-0.1396000000000001,-0.10997965645150796
-0.1406000000000001,-0.1101069804684958
-0.14160000000000011,-0.11016356892049041
-0.14260000000000012,-0.11022015737248501
-0.14360000000000012,-0.11029089293747825
-0.14460000000000012,-0.11036162850247151
-0.14560000000000012,-0.11044651118046342
-0.14660000000000012,-0.11050309963245801
-0.14760000000000012,-0.11054554097145397
-0.14860000000000012,-0.11057383519745125
-0.14960000000000012,-0.11064457076244452
-0.15060000000000012,-0.11070115921443913
-0.15160000000000012,-0.11071530632743777
-0.15260000000000012,-0.11074360055343507
-0.15360000000000013,-0.11072945344043642
-0.15460000000000013,-0.11077189477943236
-0.15560000000000013,-0.11081433611842831
-0.15660000000000013,-0.11080018900542968
-0.15760000000000013,-0.11081433611842831
-0.15860000000000013,-0.11078604189243102
-0.15960000000000002,-0.11080018900542968
-0.16060000000000002,-0.11081433611842831
-0.16160000000000002,-0.11078604189243102
-0.16260000000000002,-0.11075774766643375
-0.16360000000000002,-0.11071530632743777
-0.16460000000000002,-0.11071530632743777
-0.16560000000000002,-0.11074360055343507
-0.16660000000000003,-0.11072945344043642
-0.16760000000000003,-0.11067286498844181
-0.16860000000000003,-0.11060212942344858
-0.16960000000000003,-0.11054554097145397
-0.17060000000000003,-0.11050309963245801
-0.17160000000000003,-0.11046065829346206
-0.17260000000000003,-0.1103899227284688
-0.17360000000000003,-0.11033333427647421
-0.17460000000000003,-0.11027674582447962
-0.17560000000000003,-0.11020601025948636
-0.17660000000000003,-0.1101352746944931
-0.17760000000000004,-0.1100503920165012
-0.17860000000000004,-0.10997965645150796
-0.17960000000000004,-0.109937215112512
-0.18060000000000004,-0.10985233243452008
-0.18160000000000004,-0.1097674497565282
-0.18260000000000004,-0.10966841996553764
-0.18360000000000004,-0.10956939017454709
-0.18460000000000004,-0.10949865460955385
-0.18560000000000004,-0.10942791904456058
-0.18660000000000004,-0.1093430363665687
-0.18760000000000004,-0.10922985946257947
-0.18860000000000005,-0.10911668255859029
-0.18960000000000005,-0.10901765276759973
-0.19060000000000005,-0.10893277008960783
-0.19160000000000005,-0.10883374029861728
-0.19260000000000005,-0.10872056339462807
-0.19360000000000005,-0.10859323937764022
-0.19460000000000005,-0.10849420958664967
-0.19560000000000005,-0.10842347402165642
-0.19660000000000005,-0.10829615000466856
-0.19760000000000005,-0.10818297310067936
-0.19860000000000005,-0.1080556490836915
-0.19960000000000006,-0.10795661929270095
-0.20060000000000006,-0.10784344238871174
-0.20160000000000006,-0.10773026548472255
-0.20260000000000006,-0.10758879435473605
-0.20360000000000006,-0.10747561745074685
-0.20460000000000006,-0.10736244054675763
-0.20560000000000006,-0.10726341075576709
-0.20660000000000006,-0.10715023385177787
-0.20760000000000006,-0.10700876272179137
-0.20860000000000006,-0.10688143870480352
-0.20960000000000006,-0.10675411468781566
-0.21060000000000006,-0.10666923200982377
-0.21160000000000007,-0.10652776087983726
-0.21260000000000007,-0.1064004368628494
-0.21360000000000007,-0.10627311284586156
-0.21460000000000007,-0.1061457888288737
-0.21560000000000007,-0.10604675903788315
-0.21660000000000007,-0.10593358213389395
-0.21760000000000007,-0.10582040522990475
-0.21860000000000007,-0.10567893409991824
-0.21960000000000007,-0.10553746296993173
-0.22060000000000007,-0.10543843317894118
-0.22160000000000007,-0.10531110916195333
-0.22260000000000008,-0.10515549091896817
-0.22360000000000008,-0.10502816690198033
-0.22460000000000008,-0.10491498999799112
-0.22560000000000008,-0.10481596020700056
-0.22660000000000008,-0.10467448907701406
-0.22760000000000008,-0.10454716506002622
-0.22860000000000008,-0.1044056939300397
-0.22960000000000008,-0.1043208112520478
-0.23060000000000008,-0.1042076343480586
-0.23160000000000008,-0.10408031033107075
-0.23260000000000008,-0.1039529863140829
-0.23360000000000009,-0.10379736807109774
-0.2346000000000001,-0.10368419116710853
-0.2356000000000001,-0.10359930848911664
-0.2366000000000001,-0.10348613158512744
-0.2376000000000001,-0.10334466045514094
-0.2386000000000001,-0.10320318932515443
-0.2396000000000001,-0.10309001242116521
-0.2406000000000001,-0.10300512974317333
-0.2416000000000001,-0.10286365861318682
-0.2426000000000001,-0.10276462882219627
-0.2436000000000001,-0.10263730480520841
-0.2446000000000001,-0.10253827501421786
-0.2456000000000001,-0.10243924522322731
-0.2466000000000001,-0.10231192120623946
-0.2476000000000001,-0.10217045007625294
-0.2486000000000001,-0.10205727317226375
-0.2496000000000001,-0.10195824338127318
-0.2506000000000001,-0.10184506647728399
-0.2516000000000001,-0.10173188957329479
-0.2526000000000001,-0.10160456555630692
-0.2536000000000001,-0.10149138865231773
-0.2546000000000001,-0.10137821174832852
-0.2556000000000001,-0.10129332907033663
-0.2566000000000001,-0.10118015216634743
-0.2576000000000001,-0.10105282814935958
-0.2586000000000001,-0.10093965124537037
-0.2596000000000001,-0.10084062145437982
-0.2606000000000001,-0.10074159166338927
-0.2616000000000001,-0.10062841475940007
-0.2626000000000001,-0.1005010907424122
-0.2636000000000001,-0.100387913838423
-0.2646000000000001,-0.10028888404743246
-0.2656000000000001,-0.10020400136944055
-0.2666000000000001,-0.10009082446545134
-0.2676000000000001,-0.09997764756146214
-0.2686000000000001,-0.09986447065747293
-0.2696000000000001,-0.0997654408664824
-0.2706000000000001,-0.09969470530148912
-0.2716000000000001,-0.09958152839749992
-0.2726000000000001,-0.09946835149351073
-0.2736000000000001,-0.09936932170252018
-0.2746000000000001,-0.09928443902452828
-0.2756000000000001,-0.09921370345953502
-0.2766000000000001,-0.09910052655554581
-0.2776000000000001,-0.09901564387755392
-0.2786000000000001,-0.09890246697356471
-0.2796000000000001,-0.09880343718257417
-0.2806000000000001,-0.09874684873057955
-0.28160000000000013,-0.09863367182659036
-0.28260000000000013,-0.09852049492260115
-0.28360000000000013,-0.0984214651316106
-0.2846,-0.0983365824536187
-0.2856,-0.0982516997756268
-0.2866,-0.09816681709763489
-0.2876,-0.09806778730664434
-0.2886,-0.09796875751565379
-0.2896,-0.09786972772466324
-0.2906,-0.09784143349866595
-0.2916,-0.0977424037076754
-0.2926,-0.09762922680368619
-0.2936,-0.09755849123869292
-0.29460000000000003,-0.09747360856070103
-0.29560000000000003,-0.09741702010870643
-0.29660000000000003,-0.09733213743071452
-0.29760000000000003,-0.09723310763972397
-0.29860000000000003,-0.09714822496173206
-0.29960000000000003,-0.09706334228374017
-0.30060000000000003,-0.0970209009447442
-0.30160000000000003,-0.09693601826675231
-0.30260000000000004,-0.09683698847576175
-0.30360000000000004,-0.09675210579776986
-0.30460000000000004,-0.09666722311977795
-0.30560000000000004,-0.09661063466778336
-0.30660000000000004,-0.09655404621578875
-0.30760000000000004,-0.09645501642479819
-0.30860000000000004,-0.09637013374680631
-0.30960000000000004,-0.0962852510688144
-0.31060000000000004,-0.09624280972981844
-0.31160000000000004,-0.09615792705182655
-0.31260000000000004,-0.0960871914868333
-0.31360000000000005,-0.09598816169584275
-0.31460000000000005,-0.09593157324384814
-0.31560000000000005,-0.09587498479185352
-0.31660000000000005,-0.09579010211386164
-0.31760000000000005,-0.0957193665488684
-0.31860000000000005,-0.09563448387087647
-0.31960000000000005,-0.09557789541888188
-0.32060000000000005,-0.09554960119288458
-0.32160000000000005,-0.09546471851489266
-0.32260000000000005,-0.09537983583690077
-0.32360000000000005,-0.09532324738490616
-0.32460000000000006,-0.09523836470691427
-0.32560000000000006,-0.09521007048091697
-0.32660000000000006,-0.09512518780292507
-0.32760000000000006,-0.09505445223793182
-0.32860000000000006,-0.09498371667293856
-0.32960000000000006,-0.09494127533394262
-0.33060000000000006,-0.09488468688194801
-0.33160000000000006,-0.0948280984299534
-0.33260000000000006,-0.0947432157519615
-0.33360000000000006,-0.09468662729996691
-0.33460000000000006,-0.0946300388479723
-0.33560000000000006,-0.09458759750897636
-0.33660000000000007,-0.09453100905698175
-0.33760000000000007,-0.09444612637898986
-0.33860000000000007,-0.0943753908139966
-0.33960000000000007,-0.09431880236200199
-0.34060000000000007,-0.09427636102300604
-0.34160000000000007,-0.09421977257101144
-0.34260000000000007,-0.09414903700601819
-0.34360000000000007,-0.09407830144102494
-0.3446000000000001,-0.094035860102029
-0.3456000000000001,-0.09399341876303305
-0.3466000000000001,-0.09395097742403709
-0.34759999999999996,-0.09388024185904384
-0.3486000000000001,-0.09382365340704923
-0.34959999999999997,-0.09376706495505463
-0.3506000000000001,-0.09373877072905733
-0.35159999999999997,-0.09368218227706274
-0.3526000000000001,-0.09361144671206949
-0.35359999999999997,-0.09355485826007487
-0.3546000000000001,-0.09349826980808028
-0.35559999999999997,-0.09346997558208296
-0.3566000000000001,-0.09341338713008837
-0.3576,-0.09335679867809377
-0.3586000000000001,-0.09328606311310052
-0.3596,-0.09324362177410456
-0.3606000000000001,-0.09321532754810727
-0.3616,-0.09315873909611266
-0.3626000000000001,-0.09310215064411806
-0.3636,-0.09305970930512211
-0.3646000000000001,-0.09300312085312752
-0.3656,-0.0929748266271302
-0.3666000000000001,-0.09293238528813427
-0.3676,-0.09286164972314101
-0.3686000000000001,-0.09283335549714371
-0.3696,-0.09276261993215046
-0.3706000000000001,-0.0927767670451491
-0.3716,-0.0927484728191518
-0.3726000000000001,-0.09266359014115991
-0.3736,-0.09262114880216396
-0.3746000000000001,-0.09257870746316801
-0.3756,-0.09256456035016934
-0.3766000000000001,-0.09250797189817477
-0.3776,-0.0924372363331815
-0.3786000000000001,-0.09239479499418554
-0.3796,-0.09239479499418554
-0.3806000000000001,-0.09236650076818824
-0.3816,-0.09230991231619365
-0.3826000000000001,-0.0922674709771977
-0.3836,-0.0922391767512004
-0.3846000000000001,-0.09219673541220444
-0.3856,-0.09218258829920578
-0.3866000000000001,-0.09215429407320849
-0.3876,-0.09208355850821524
-0.3886000000000001,-0.09204111716921928
-0.3896,-0.09202697005622064
-0.3906000000000001,-0.092012822943222
-0.3916,-0.09199867583022334
-0.3926000000000001,-0.09194208737822873
-0.3936,-0.09192794026523009
-0.3946000000000001,-0.09188549892623413
-0.3956,-0.09188549892623413
-0.3966000000000001,-0.09185720470023684
-0.3976,-0.09181476336124088
-0.3986000000000001,-0.09178646913524359
-0.3996,-0.09178646913524359
-0.4006000000000001,-0.09175817490924627
-0.4016,-0.09172988068324898
-0.4026000000000001,-0.09168743934425302
-0.4036,-0.09168743934425302
-0.4046000000000001,-0.09164499800525706
-0.4056,-0.09164499800525706
-0.40660000000000013,-0.09163085089225843
-0.4076,-0.09158840955326249
-0.40860000000000013,-0.09157426244026382
-0.4096,-0.09157426244026382
-0.41060000000000013,-0.09157426244026382
-0.4116,-0.09157426244026382
-0.41260000000000013,-0.09154596821426653
-0.4136,-0.09151767398826924
-0.41460000000000014,-0.09151767398826924
-0.4156,-0.09151767398826924
-0.41660000000000014,-0.09151767398826924
-0.4176,-0.09148937976227192
-0.41860000000000014,-0.09148937976227192
-0.41960000000000003,-0.09148937976227192
-0.42060000000000014,-0.09150352687527057
-0.42160000000000003,-0.09151767398826924
-0.42260000000000014,-0.09150352687527057
-0.42360000000000003,-0.09148937976227192
-0.42460000000000014,-0.09150352687527057
-0.42560000000000003,-0.09151767398826924
-0.42660000000000015,-0.09151767398826924
-0.42760000000000004,-0.09150352687527057
-0.42860000000000015,-0.09151767398826924
-0.42960000000000004,-0.09151767398826924
-0.43060000000000015,-0.09153182110126787
-0.43160000000000004,-0.09154596821426653
-0.43260000000000015,-0.09154596821426653
-0.43360000000000004,-0.09154596821426653
-0.43460000000000015,-0.09157426244026382
-0.43560000000000004,-0.09161670377925978
-0.43660000000000015,-0.09163085089225843
