Potential V vs RHE, Current mA cm-2
0.013299999999999867,11.295055018122452
0.012299999999999978,9.157426244026382
0.011299999999999866,7.15136562081776
0.010299999999999976,5.18774633660509
0.009299999999999864,3.313253864283916
0.008299999999999974,1.4812027309586933
0.007299999999999862,-0.3511313446265021
0.006299999999999972,-2.1390434853959355
0.00529999999999986,-3.884797229429391
0.0042999999999999705,-5.629136262162981
0.0032999999999998586,-7.37347529489657
0.0022999999999999687,-9.073958277334345
0.0012999999999998568,-10.775855971071984
0.00029999999999996696,-12.432482903213943
-0.000700000000000145,-14.090524546655764
-0.0017000000000000348,-15.70329542850191
-0.0027000000000001467,-17.2736249713521
-0.0037000000000000366,-18.80151317520634
-0.0047000000000001485,-20.286960040064624
-0.005700000000000038,-21.814848243918867
-0.00670000000000015,-23.300295108777156
-0.00770000000000004,-24.729153521640843
-0.008700000000000152,-26.21460038649913
-0.009700000000000042,-27.65760591236147
-0.010700000000000154,-29.100611438223805
-0.011700000000000044,-30.529469851087494
-0.012700000000000156,-31.930034037953877
-0.013700000000000045,-33.330598224820264
-0.014700000000000157,-34.717015298688004
-0.015700000000000047,-36.07513814655844
-0.01670000000000016,-37.41911388143023
-0.01770000000000005,-38.734795390304704
-0.01870000000000016,-39.99388844718459
-0.01970000000000005,-41.267128617063115
-0.020700000000000163,-42.526221673943
-0.021700000000000053,-43.79946184382153
-0.022700000000000164,-45.10099623969737
-0.023700000000000054,-46.37423640957591
-0.024700000000000166,-47.67577080545174
-0.025700000000000056,-48.93486386233162
-0.026700000000000168,-50.2505453712061
-0.027700000000000058,-51.509638428085985
-0.02870000000000017,-52.78287859796452
-0.02970000000000006,-53.9570889768525
-0.03070000000000017,-55.13129935574048
-0.03170000000000006,-56.26306839563251
-0.03270000000000017,-57.408984548523186
-0.03370000000000006,-58.54075358841522
-0.034700000000000175,-59.6300812893113
-0.035700000000000065,-60.80429166819927
-0.03670000000000018,-61.936060708091304
-0.03770000000000007,-63.06782974798333
-0.03870000000000018,-64.25618723986996
-0.03970000000000007,-65.38795627976201
-0.04070000000000018,-66.56216665864997
-0.04170000000000007,-67.693935698542
-0.04270000000000018,-68.78326339943808
-0.04370000000000007,-69.87259110033416
-0.044700000000000184,-70.91947746223428
-0.045700000000000074,-71.92392248513846
-0.046700000000000186,-72.97080884703858
-0.047700000000000076,-73.97525386994278
-0.04870000000000019,-75.02214023184291
-0.04970000000000008,-76.11146793273898
-0.05070000000000019,-77.1583542946391
-0.05170000000000008,-78.24768199553519
-0.05270000000000019,-79.2945683574353
-0.05370000000000008,-80.38389605833139
-0.05470000000000019,-81.43078242023151
-0.05570000000000008,-82.52011012112759
-0.056700000000000195,-83.52455514403178
-0.057700000000000085,-84.48655882793999
-0.058700000000000196,-85.44856251184822
-0.059700000000000086,-86.41056619575643
-0.0607000000000002,-87.41501121866061
-0.06170000000000009,-88.46189758056073
-0.0627000000000002,-89.55122528145681
-0.06370000000000009,-90.59811164335694
-0.0647000000000002,-91.68743934425302
-0.06570000000000009,-92.73432570615316
-0.0667000000000002,-93.73877072905732
-0.0677000000000001,-94.7432157519615
-0.0687000000000002,-95.74766077486568
-0.0697000000000001,-96.73795868477121
-0.07070000000000021,-97.69996236867944
-0.0717000000000001,-98.66196605258766
-0.07270000000000021,-99.66641107549184
-0.0737000000000001,-100.62841475940007
-0.07470000000000021,-101.63285978230424
-0.0757000000000001,-102.63730480520842
-0.07670000000000021,-103.64174982811258
-0.0777000000000001,-104.5471650600262
-0.07870000000000021,-105.50916874393444
-0.0797000000000001,-106.47117242784265
-0.08070000000000022,-107.4331761117509
-0.0817000000000001,-108.39517979565912
-0.08270000000000022,-109.35718347956733
-0.08370000000000011,-110.3050400504769
-0.08470000000000022,-111.26704373438514
-0.08570000000000011,-112.22904741829338
-0.08670000000000022,-113.14860976320564
-0.08770000000000011,-114.11061344711386
-0.08870000000000022,-115.05847001802343
-0.08970000000000011,-116.02047370193165
-0.09070000000000022,-117.06736006383179
-0.09170000000000011,-118.07180508673595
-0.09270000000000023,-119.07625010964013
-0.09370000000000012,-120.12313647154028
-0.09470000000000023,-121.12758149444444
-0.09570000000000012,-122.1320265173486
-0.09670000000000023,-123.1364715402528
-0.09770000000000012,-124.09847522416102
-0.09870000000000023,-125.10292024706521
-0.09970000000000012,-126.00833547897882
-0.10070000000000023,-126.9278978238911
-0.10170000000000012,-127.93234284679528
-0.10270000000000024,-128.89434653070347
-0.10370000000000013,-129.9412328926036
-0.10470000000000024,-130.98811925450374
-0.10570000000000013,-132.03500561640385
-0.10670000000000024,-133.08189197830401
-0.10770000000000013,-134.08633700120816
-0.10870000000000024,-135.1332233631083
-0.10970000000000013,-136.13766838601245
-0.11070000000000024,-137.12796629591801
-0.11170000000000013,-138.04752864083028
-0.11270000000000002,-138.96709098574257
-0.11370000000000013,-139.84421199165885
-0.11470000000000002,-140.74962722357247
-0.11570000000000014,-141.61260111649017
-0.11670000000000003,-142.6028990263957
-0.11770000000000014,-143.5931969363012
-0.11870000000000003,-144.58349484620675
-0.11970000000000014,-145.7152638860988
-0.12070000000000003,-146.7055617960043
-0.12170000000000014,-147.6958597059098
-0.12270000000000003,-148.68615761581535
-0.12370000000000014,-149.8179266557074
-0.12470000000000003,-150.8082245656129
-0.12570000000000014,-151.65705134553193
-0.12670000000000003,-152.64734925543743
-0.12770000000000015,-153.63764716534297
-0.12870000000000004,-154.486473945262
-0.12970000000000015,-155.47677185516753
-0.13070000000000004,-156.46706976507306
-0.13170000000000015,-157.45736767497857
-0.13270000000000004,-158.4476655848841
-0.13370000000000015,-159.57943462477613
-0.13470000000000004,-160.42826140469515
-0.13570000000000015,-161.2770881846142
-0.13670000000000004,-162.2673860945197
-0.13770000000000016,-163.25768400442522
-0.13870000000000005,-164.10651078434424
-0.13970000000000016,-165.09680869424977
-0.14070000000000005,-166.0871066041553
-0.14170000000000016,-166.93593338407433
-0.14270000000000005,-167.92623129397984
-0.14370000000000016,-168.91652920388537
-0.14470000000000005,-169.9068271137909
-0.14570000000000016,-171.03859615368293
-0.14670000000000005,-172.0288940635885
-0.14770000000000016,-173.01919197349397
-0.14870000000000005,-174.0094898833995
-0.14970000000000017,-174.99978779330505
-0.15070000000000006,-175.99008570321055
-0.15170000000000017,-176.98038361311612
-0.15270000000000006,-177.82921039303508
-0.15370000000000017,-178.67803717295413
-0.15470000000000006,-179.66833508285964
-0.15570000000000017,-180.65863299276518
-0.15670000000000006,-181.64893090267074
-0.15770000000000017,-182.78069994256273
-0.15870000000000006,-183.91246898245475
-0.15970000000000018,-185.0442380223468
-0.16070000000000007,-186.17600706223882
-0.16170000000000018,-187.16630497214436
-0.16270000000000007,-188.15660288204987
-0.16370000000000018,-189.2883719219419
-0.16470000000000007,-190.27866983184742
-0.16570000000000018,-191.41043887173947
-0.16670000000000007,-192.40073678164498
-0.16770000000000018,-193.3910346915505
-0.16870000000000007,-194.38133260145605
-0.16970000000000018,-195.37163051136156
-0.17070000000000007,-196.3619284212671
-0.17170000000000019,-197.35222633117263
-0.17270000000000008,-198.3425242410781
-0.1737000000000002,-199.33282215098367
-0.17470000000000008,-200.3231200608892
-0.1757000000000002,-201.17194684080823
-0.17670000000000008,-202.02077362072723
-0.1777000000000002,-202.86960040064628
-0.17870000000000008,-203.85989831055176
-0.1797000000000002,-204.7087250904708
-0.18070000000000008,-205.69902300037634
-0.1817000000000002,-206.54784978029537
-0.18270000000000008,-207.5381476902009
-0.1837000000000002,-208.52844560010638
-0.1847000000000001,-209.66021463999843
-0.1857000000000002,-210.79198367989048
-0.1867000000000001,-212.065223849769
-0.1877000000000002,-213.33846401964755
-0.1887000000000001,-214.47023305953954
-0.1897000000000002,-215.6020020994316
-0.1907000000000001,-216.73377113932364
-0.1917000000000001,-217.86554017921566
-0.19269999999999998,-218.99730921910768
-0.1937000000000001,-219.98760712901318
-0.19469999999999998,-221.11937616890526
-0.1957000000000001,-222.10967407881074
-0.19669999999999999,-223.09997198871628
-0.1977000000000001,-224.09026989862178
-0.1987,-225.08056780852735
-0.1997000000000001,-226.07086571843288
-0.2007,-226.91969249835188
-0.2017000000000001,-227.9099904082574
-0.2027,-228.61734605818995
-0.2037000000000001,-229.46617283810895
-0.2047,-230.31499961802797
-0.2057000000000001,-231.163826397947
-0.2067,-232.15412430785253
-0.2077000000000001,-233.28589334774458
-0.2087,-234.4176623876366
-0.2097000000000001,-235.40796029754208
-0.2107,-236.53972933743412
-0.2117000000000001,-237.67149837732615
-0.2127,-238.8032674172182
-0.2137000000000001,-239.7935653271237
-0.2147,-240.92533436701575
-0.2157000000000001,-241.77416114693477
-0.2167,-242.76445905684034
-0.21770000000000012,-243.6132858367593
-0.2187,-244.46211261667833
-0.21970000000000012,-245.45241052658386
-0.2207,-246.4427084364894
-0.22170000000000012,-247.4330063463949
-0.2227,-248.42330425630044
-0.22370000000000012,-249.41360216620598
-0.2247,-250.4039000761115
-0.22570000000000012,-251.39419798601702
-0.2267,-252.38449589592256
-0.22770000000000012,-253.37479380582806
-0.22870000000000001,-254.50656284572008
-0.22970000000000013,-255.49686075562562
-0.23070000000000002,-256.62862979551767
-0.23170000000000013,-257.6189277054232
-0.23270000000000002,-258.7506967453152
-0.23370000000000013,-259.7409946552208
-0.23470000000000002,-260.8727636951128
-0.23570000000000013,-261.8630616050183
-0.23670000000000002,-262.7118883849373
-0.2376999999999999,-263.7021862948428
-0.23870000000000002,-264.6924842047484
-0.2396999999999999,-265.5413109846674
-0.24070000000000003,-266.5316088945729
-0.24169999999999991,-267.5219068044785
-0.24270000000000003,-268.37073358439744
-0.24369999999999992,-269.2195603643164
-0.24470000000000003,-269.926916014249
-0.24569999999999992,-270.775742794168
-0.24670000000000003,-271.62456957408705
-0.24769999999999992,-272.61486748399255
-0.24870000000000003,-273.4636942639116
-0.24969999999999992,-274.4539921738171
-0.25070000000000003,-275.44429008372265
-0.2516999999999999,-276.43458799362816
-0.25270000000000004,-277.4248859035337
-0.2536999999999999,-278.4151838134392
-0.25470000000000004,-279.40548172334474
-0.2556999999999999,-280.3957796332503
-0.25670000000000004,-281.3860775431558
-0.25769999999999993,-282.2349043230748
-0.25870000000000004,-283.08373110299385
-0.25969999999999993,-284.07402901289936
-0.26070000000000004,-284.9228557928184
-0.26169999999999993,-285.7716825727374
-0.26270000000000004,-286.6205093526564
-0.26369999999999993,-287.610807262562
-0.26470000000000005,-288.6011051724675
-0.26569999999999994,-289.73287421235955
-0.26670000000000005,-290.86464325225154
-0.26769999999999994,-291.9964122921436
-0.26870000000000005,-293.1281813320356
-0.26969999999999994,-294.2599503719276
-0.27070000000000005,-295.10877715184665
-0.27169999999999994,-296.0990750617522
-0.27270000000000005,-296.94790184167124
-0.27369999999999994,-297.79672862159026
-0.27470000000000006,-298.78702653149577
-0.27569999999999995,-299.49438218142825
-0.27670000000000006,-300.2017378313608
-0.27769999999999995,-301.0505646112798
-0.27870000000000006,-301.7579202612123
-0.27969999999999995,-302.6067470411313
-0.28070000000000006,-303.4555738210504
-0.28169999999999995,-304.3044006009694
-0.28270000000000006,-305.1532273808884
-0.28369999999999995,-306.1435252907939
-0.28470000000000006,-307.1338232006995
-0.28569999999999995,-307.98264998061853
-0.28670000000000007,-308.8314767605375
-0.28769999999999996,-309.821774670443
-0.28870000000000007,-310.81207258034857
-0.28969999999999996,-311.80237049025413
-0.29070000000000007,-312.79266840015964
-0.29169999999999996,-313.6414951800786
-0.29270000000000007,-314.49032195999763
-0.29369999999999996,-315.3391487399167
-0.2947000000000001,-316.3294466498222
-0.29569999999999996,-317.03680229975475
-0.2967000000000001,-318.02710020966026
-0.29769999999999996,-318.73445585959274
-0.2987000000000001,-319.58328263951176
-0.29969999999999997,-320.2906382894443
-0.3007000000000001,-321.1394650693634
-0.30169999999999997,-321.98829184928235
-0.3027000000000001,-322.97858975918786
-0.30369999999999997,-323.8274165391069
-0.3047000000000001,-324.67624331902596
-0.30569999999999997,-325.5250700989449
-0.3067000000000001,-326.373896878864
-0.3077,-327.222723658783
-0.3087000000000001,-328.071550438702
-0.3097,-329.0618483486075
-0.3107000000000001,-329.9106751285266
-0.3117,-330.618030778459
-0.3127000000000001,-331.4668575583781
-0.3137,-332.3156843382971
-0.3147000000000001,-333.30598224820267
-0.3157,-334.1548090281217
-0.3167000000000001,-335.1451069380272
-0.3177,-336.27687597791925
-0.3187000000000001,-337.26717388782475
-0.3197,-338.1160006677438
-0.3207000000000001,-339.1062985776493
-0.3217,-340.0965964875548
-0.3227000000000001,-341.0868943974603
-0.3237,-342.07719230736586
-0.3247000000000001,-343.06749021727137
-0.3257,-343.7748458672039
-0.3267000000000001,-344.62367264712293
-0.3277,-345.6139705570285
-0.3287000000000001,-346.4627973369475
-0.3297,-347.45309524685297
-0.3307000000000001,-348.301922026772
-0.3317,-349.15074880669107
-0.3327000000000001,-349.85810445662355
-0.3337,-350.7069312365426
-0.3347000000000001,-351.4142868864751
-0.3357,-352.26311366639413
-0.3367000000000001,-353.11194044631316
-0.3377,-353.96076722623224
-0.3387000000000001,-354.66812287616466
-0.3397,-355.51694965608374
-0.3407000000000001,-356.50724756598925
-0.3417,-357.63901660588124
-0.3427000000000001,-358.7707856457733
-0.3437,-359.90255468566534
-0.3447000000000001,-361.0343237255574
-0.3457,-362.0246216354629
-0.3467000000000001,-363.1563906753549
-0.3477,-364.28815971524693
-0.3487000000000001,-365.419928755139
-0.3497,-366.4102266650445
-0.3507000000000001,-367.2590534449635
-0.3517,-368.10788022488254
-0.3527000000000001,-369.09817813478804
-0.3537,-370.2299471746801
-0.3547000000000001,-371.5031873445586
-0.3557,-372.7764275144371
-0.35670000000000013,-374.04966768431575
-0.3577,-375.0399655942212
-0.35870000000000013,-375.8887923741402
-0.3597,-376.7376191540593
-0.36070000000000013,-377.4449748039917
-0.3617,-378.1523304539243
-0.3626999999999999,-378.7182149738703
-0.3637,-379.28409949381637
-0.3646999999999999,-379.7085128837758
-0.3657,-380.2743974037219
-0.3666999999999999,-380.8402819236679
-0.3677,-381.6891087035869
-0.3686999999999999,-382.6794066134924
-0.36970000000000003,-383.6697045233979
-0.3706999999999999,-384.518531303317
-0.37170000000000003,-385.5088292132225
-0.3726999999999999,-386.3576559931415
-0.37370000000000003,-387.48942503303357
-0.3746999999999999,-388.6211940729256
-0.37570000000000003,-389.61149198283107
-0.3766999999999999,-390.7432610227231
-0.37770000000000004,-391.7335589326286
-0.3786999999999999,-392.7238568425342
-0.37970000000000004,-393.7141547524397
-0.3806999999999999,-394.70445266234526
-0.38170000000000004,-395.83622170223725
-0.38269999999999993,-396.9679907421293
-0.38370000000000004,-397.9582886520348
-0.38469999999999993,-399.09005769192686
-0.38570000000000004,-400.2218267318189
-0.38669999999999993,-399.79741334185934
-0.38570000000000004,-396.26063509219676
-0.38469999999999993,-393.00679910250716
-0.38370000000000004,-389.61149198283107
-0.38269999999999993,-386.3576559931415
-0.38170000000000004,-383.2452911334384
-0.3806999999999999,-380.13292627373534
-0.37970000000000004,-377.0205614140323
-0.3786999999999999,-374.04966768431575
-0.37770000000000004,-371.0787739545991
-0.3766999999999999,-368.10788022488254
-0.37570000000000003,-365.13698649516596
-0.3746999999999999,-362.16609276544943
-0.37370000000000003,-359.3366701657193
-0.3726999999999999,-356.50724756598925
-0.37170000000000003,-353.6778249662592
-0.3706999999999999,-350.98987349651554
-0.36970000000000003,-348.16045089678556
-0.3686999999999999,-345.1895571670689
-0.3677,-342.3601345673389
-0.3666999999999999,-339.3892408376223
-0.3657,-336.5598182378922
-0.3646999999999999,-333.5889245081757
-0.3637,-330.4765596484726
-0.3626999999999999,-327.505665918756
-0.3617,-324.5347721890394
-0.36070000000000013,-321.42240732933635
-0.3597,-318.4515135996198
-0.35870000000000013,-315.4806198699032
-0.3577,-312.50972614018656
-0.35670000000000013,-309.53883241047004
-0.3557,-306.56793868075346
-0.3547000000000001,-303.5970449510368
-0.3537,-300.6261512213203
-0.3527000000000001,-297.79672862159026
-0.3517,-295.25024828183314
-0.3507000000000001,-292.4208256821031
-0.3497,-289.73287421235955
-0.3487000000000001,-287.04492274261594
-0.3477,-284.35697127287233
-0.3467000000000001,-281.66901980312883
-0.3457,-278.8395972033987
-0.3447000000000001,-276.15164573365513
-0.3437,-273.4636942639116
-0.3427000000000001,-270.63427166418154
-0.3417,-267.80484906445145
-0.3407000000000001,-264.9754264647214
-0.3397,-262.1460038649913
-0.3387000000000001,-259.4580523952477
-0.3377,-256.77010092550415
-0.3367000000000001,-254.2236205857471
-0.3357,-251.67714024599002
-0.3347000000000001,-249.13065990623298
-0.3337,-246.5841795664759
-0.3327000000000001,-244.03769922671884
-0.3317,-241.49121888696175
-0.3307000000000001,-238.94473854720468
-0.3297,-236.3982582074476
-0.3287000000000001,-233.85177786769057
-0.3277,-231.3052975279335
-0.3267000000000001,-228.61734605818995
-0.3257,-225.92939458844637
-0.3247000000000001,-223.38291424868927
-0.3237,-220.6949627789457
-0.3227000000000001,-218.14848243918865
-0.3217,-215.6020020994316
-0.3207000000000001,-213.05552175967455
-0.3197,-210.65051254990397
-0.3187000000000001,-208.3869744701199
-0.3177,-205.98196526034934
-0.3167000000000001,-203.71842718056527
-0.3157,-201.31341797079472
-0.3147000000000001,-199.04987989101065
-0.3137,-196.6448706812401
-0.3127000000000001,-194.2398614714695
-0.3117,-191.83485226169896
-0.3107000000000001,-189.57131418191491
-0.3097,-187.44924723211736
-0.3087000000000001,-185.1857091523333
-0.3077,-182.92217107254925
-0.3067000000000001,-180.8001041227517
-0.30569999999999997,-178.53656604296762
-0.3047000000000001,-176.27302796318358
-0.30369999999999997,-174.150961013386
-0.3027000000000001,-172.0288940635885
-0.30169999999999997,-169.9068271137909
-0.3007000000000001,-167.78476016399335
-0.29969999999999997,-165.6626932141958
-0.2987000000000001,-163.54062626439824
-0.29769999999999996,-161.2770881846142
-0.2967000000000001,-159.15502123481662
-0.29569999999999996,-156.89148315503257
-0.2947000000000001,-154.6279450752485
-0.29369999999999996,-152.50587812545095
-0.29270000000000007,-150.1008689156804
-0.29169999999999996,-147.83733083589632
-0.29070000000000007,-145.43232162612577
-0.28969999999999996,-143.16878354634173
-0.28870000000000007,-140.84865701456303
-0.28769999999999996,-138.61341316077628
-0.28670000000000007,-136.34987508099226
-0.28569999999999995,-134.08633700120816
-0.28470000000000006,-131.8510931474214
-0.28369999999999995,-129.7148790846252
-0.28270000000000006,-127.62110636082497
-0.28169999999999995,-125.56977497602065
-0.28070000000000006,-123.532590704215
-0.27969999999999995,-121.48125931941068
-0.27870000000000006,-119.47236927360234
-0.27769999999999995,-117.42103788879804
-0.27670000000000006,-115.36970650399375
-0.27569999999999995,-113.27593378019348
-0.27470000000000006,-111.22460239538917
-0.27369999999999994,-109.13082967158894
-0.27270000000000005,-107.07949828678463
-0.27169999999999994,-105.02816690198033
-0.27070000000000005,-102.93439417818009
-0.26969999999999994,-100.92550413237171
-0.26870000000000005,-98.93076119956201
-0.26769999999999994,-97.00675383174556
