Potential V vs RHE, Current mA cm-2
0.013299999999999867,15.094969569559943
0.012299999999999978,12.95168195026441
0.011299999999999866,11.033333427647422
0.010299999999999976,9.245138344618015
0.009299999999999864,7.630952751472008
0.008299999999999974,5.9729111080301855
0.007299999999999862,4.316284175888227
0.006299999999999972,2.745954633038036
0.00529999999999986,1.2626298351295453
0.0042999999999999705,-0.08943804837746762
0.0032999999999998586,-1.5293029151541047
0.0022999999999999687,-3.0119203574126634
0.0012999999999998568,-4.406825699079589
0.00029999999999996696,-5.629136262162981
-0.000700000000000145,-6.850032113946507
-0.0017000000000000348,-8.11478401602585
-0.0027000000000001467,-9.379535918105192
-0.0037000000000000366,-10.644287820184536
-0.0047000000000001485,-11.82274233297211
-0.005700000000000038,-12.869628694872238
-0.00670000000000015,-14.002812446064135
-0.00770000000000004,-15.179852247551842
-0.008700000000000152,-16.269179948447924
-0.009700000000000042,-17.316066310348052
-0.010700000000000154,-18.320511333252224
-0.011700000000000044,-19.367397695152352
-0.012700000000000156,-20.414284057052477
-0.013700000000000045,-21.418729079956652
-0.014700000000000157,-22.33829142486893
-0.015700000000000047,-23.2012653177866
-0.01670000000000016,-24.20571034069078
-0.01770000000000005,-25.210155363594954
-0.01870000000000016,-26.17215904750318
-0.01970000000000005,-27.091721392415455
-0.020700000000000163,-27.912253946337174
-0.021700000000000053,-28.789374952253496
-0.022700000000000164,-29.751378636161718
-0.023700000000000054,-30.614352529079397
-0.024700000000000166,-31.40659085700382
-0.025700000000000056,-32.184682071929586
-0.026700000000000168,-33.01936173884996
-0.027700000000000058,-33.89648274476628
-0.02870000000000017,-34.717015298688004
-0.02970000000000006,-35.46681228761647
-0.03070000000000017,-36.16002082455034
-0.03170000000000006,-36.95225915247476
-0.03270000000000017,-37.85767438438838
-0.03370000000000006,-38.734795390304704
-0.034700000000000175,-39.47044526623452
-0.035700000000000065,-40.092918238175145
-0.03670000000000018,-40.828568114104954
-0.03770000000000007,-41.66324778102533
-0.03870000000000018,-42.483780334947056
-0.03970000000000007,-43.23357732387552
-0.04070000000000018,-43.96922719980534
-0.04170000000000007,-44.66243573673921
-0.04270000000000018,-45.45467406466363
-0.04370000000000007,-46.2327652795894
-0.044700000000000184,-46.94012092952192
-0.045700000000000074,-47.67577080545174
-0.046700000000000186,-48.41142068138156
-0.047700000000000076,-49.20365900930597
-0.04870000000000019,-49.98175022423175
-0.04970000000000008,-50.64666453516831
-0.05070000000000019,-51.25499039411028
-0.05170000000000008,-51.948198931044146
-0.05270000000000019,-52.64140746797801
-0.05370000000000008,-53.39120445690648
-0.05470000000000019,-54.08441299384035
-0.05570000000000008,-54.69273885278232
-0.056700000000000195,-55.442535841710786
-0.057700000000000085,-56.30550973462846
-0.058700000000000196,-57.14018940154883
-0.059700000000000086,-57.7485152604908
-0.0607000000000002,-58.39928245842871
-0.06170000000000009,-59.19152078635314
-0.0627000000000002,-60.02620045327351
-0.06370000000000009,-60.761850329203334
-0.0647000000000002,-61.455058866137186
-0.06570000000000009,-62.16241451606972
-0.0667000000000002,-62.94050573099548
-0.0677000000000001,-63.732744058919906
-0.0687000000000002,-64.46839393484973
-0.0697000000000001,-65.0767197937917
-0.07070000000000021,-65.7274869917296
-0.0717000000000001,-66.43484264166212
-0.07270000000000021,-67.128051178596
-0.0737000000000001,-67.82125971552985
-0.07470000000000021,-68.38714423547587
-0.0757000000000001,-69.0096172074165
-0.07670000000000021,-69.6603844053544
-0.0777000000000001,-70.31115160329232
-0.07870000000000021,-70.96191880123024
-0.0797000000000001,-71.48536198218031
-0.08070000000000022,-72.15027629311687
-0.0817000000000001,-72.92836750804264
-0.08270000000000022,-73.6781644969711
-0.08370000000000011,-74.41381437290093
-0.08470000000000022,-75.02214023184291
-0.08570000000000011,-75.63046609078486
-0.08670000000000022,-76.29538040172143
-0.08770000000000011,-76.98858893865528
-0.08870000000000022,-77.68179747558916
-0.08970000000000011,-78.24768199553519
-0.09070000000000022,-78.8135665154812
-0.09170000000000011,-79.42189237442317
-0.09270000000000023,-80.12924802435568
-0.09370000000000012,-80.86489790028548
-0.09470000000000023,-81.47322375922747
-0.09570000000000012,-82.09569673116808
-0.09670000000000023,-82.8313466070979
-0.09770000000000012,-83.56699648302772
-0.09870000000000023,-84.31679347195619
-0.09970000000000012,-85.01000200889004
-0.10070000000000023,-85.70321054582392
-0.10170000000000012,-86.45300753475239
-0.10270000000000024,-87.23109874967815
-0.10370000000000013,-87.93845439961068
-0.10470000000000024,-88.5892215975486
-0.10570000000000013,-89.15510611749461
-0.10670000000000024,-89.84831465442848
-0.10770000000000013,-90.68299432134886
-0.10870000000000024,-91.41864419727867
-0.10970000000000013,-92.12599984721119
-0.11070000000000024,-92.81920838414506
-0.11170000000000013,-93.55485826007487
-0.11270000000000002,-94.34709658799929
-0.11370000000000013,-95.04030512493317
-0.11470000000000002,-95.69107232287108
-0.11570000000000014,-96.27110395581576
-0.11670000000000003,-96.96431249274961
-0.11770000000000014,-97.74240370767538
-0.11870000000000003,-98.5346420355998
-0.11970000000000014,-99.18540923353773
-0.12070000000000003,-99.83617643147564
-0.12170000000000014,-100.5010907424122
-0.12270000000000003,-101.27918195733798
-0.12370000000000014,-101.92994915527588
-0.12470000000000003,-102.5524221272165
-0.12570000000000014,-103.16074798615847
-0.12670000000000003,-103.85395652309235
-0.12770000000000015,-104.64619485101677
-0.12870000000000004,-105.33940338795064
-0.12970000000000015,-105.99017058588855
-0.13070000000000004,-106.51361376683862
-0.13170000000000015,-107.16438096477653
-0.13270000000000004,-107.914177953705
-0.13370000000000015,-108.56494515164292
-0.13470000000000004,-109.17327101058488
-0.13570000000000015,-109.78159686952685
-0.13670000000000004,-110.53139385845533
-0.13770000000000016,-111.35192641237703
-0.13870000000000005,-112.05928206230955
-0.13970000000000016,-112.71004926024747
-0.14070000000000005,-113.31837511918944
-0.14170000000000016,-113.96914231712736
-0.14270000000000005,-114.76138064505177
-0.14370000000000016,-115.4121478429897
-0.14470000000000005,-116.02047370193165
-0.14570000000000016,-116.62879956087362
-0.14670000000000005,-117.19468408081964
-0.14770000000000016,-117.94448106974811
-0.14870000000000005,-118.55280692869007
-0.14970000000000017,-119.1186914486361
-0.15070000000000006,-119.72701730757805
-0.15170000000000017,-120.33534316652002
-0.15270000000000006,-121.12758149444444
-0.15370000000000017,-121.86323137037427
-0.15470000000000006,-122.52814568131083
-0.15570000000000017,-123.2213542182447
-0.15670000000000006,-123.91456275517855
-0.15770000000000017,-124.62191840511109
-0.15870000000000006,-125.31512694204494
-0.15970000000000018,-125.92345280098691
-0.16070000000000007,-126.61666133792076
-0.16170000000000018,-127.23913430986138
-0.16270000000000007,-127.97478418579122
-0.16370000000000018,-128.66799272272507
-0.16470000000000007,-129.27631858166706
-0.16570000000000018,-129.89879155360765
-0.16670000000000007,-130.50711741254963
-0.16770000000000018,-131.28520862747538
-0.16870000000000007,-132.11988829439576
-0.16970000000000018,-132.7706554923337
-0.17070000000000007,-133.4214226902716
-0.17170000000000019,-134.04389566221224
-0.17270000000000008,-134.77954553814206
-0.1737000000000002,-135.5576367530678
-0.17470000000000008,-136.2225510640044
-0.1757000000000002,-136.7884355839504
-0.17670000000000008,-137.39676144289237
-0.1777000000000002,-137.92020462384244
-0.17870000000000008,-138.52853048278442
-0.1797000000000002,-139.1792976807223
-0.18070000000000008,-139.80177065266292
-0.1817000000000002,-140.5798618675887
-0.18270000000000008,-141.3155117435185
-0.1837000000000002,-142.03701450644968
-0.1847000000000001,-142.7443701563822
-0.1857000000000002,-143.3102546763282
-0.1867000000000001,-144.01761032626072
-0.1877000000000002,-144.86643710617977
-0.1887000000000001,-145.57379275611228
-0.1897000000000002,-146.1396772760583
-0.1907000000000001,-146.5640906660178
-0.1917000000000001,-146.9885040559773
-0.19269999999999998,-147.55438857592333
-0.1937000000000001,-148.26174422585584
-0.19469999999999998,-148.82762874580186
-0.1957000000000001,-149.39351326574788
-0.19669999999999999,-150.1008689156804
-0.1977000000000001,-150.94969569559944
-0.1987,-151.65705134553193
-0.1997000000000001,-152.36440699546444
-0.2007,-152.93029151541046
-0.2017000000000001,-153.49617603535648
-0.2027,-154.203531685289
-0.2037000000000001,-154.76941620523502
-0.2047,-155.19382959519453
-0.2057000000000001,-155.75971411514055
-0.2067,-156.46706976507306
-0.2077000000000001,-157.17442541500557
-0.2087,-158.02325219492457
-0.2097000000000001,-158.5891367148706
-0.2107,-159.15502123481662
-0.2117000000000001,-160.00384801473567
-0.2127,-160.71120366466818
-0.2137000000000001,-161.5600304445872
-0.2147,-162.40885722450622
-0.2157000000000001,-163.11621287443873
-0.2167,-163.82356852437124
-0.21770000000000012,-164.53092417430375
-0.2187,-165.09680869424977
-0.21970000000000012,-165.3797509542228
-0.2207,-165.5212220842093
-0.22170000000000012,-165.94563547416882
-0.2227,-166.79446225408785
-0.22370000000000012,-167.6432890340068
-0.2247,-168.49211581392586
-0.22570000000000012,-169.0580003338719
-0.2267,-169.48241372383137
-0.22770000000000012,-170.18976937376394
-0.22870000000000001,-170.89712502369645
-0.22970000000000013,-171.46300954364247
-0.23070000000000002,-172.0288940635885
-0.23170000000000013,-172.73624971352098
-0.23270000000000002,-173.44360536345349
-0.23370000000000013,-174.0094898833995
-0.23470000000000002,-174.57537440334553
-0.23570000000000013,-175.14125892329156
-0.23670000000000002,-175.70714344323756
-0.2376999999999999,-176.4144990931701
-0.23870000000000002,-177.2633258730891
-0.2396999999999999,-178.25362378299462
-0.24070000000000003,-178.96097943292713
-0.24169999999999991,-179.66833508285964
-0.24270000000000003,-180.37569073279218
-0.24369999999999992,-180.8001041227517
-0.24470000000000003,-181.2245175127112
-0.24569999999999992,-181.64893090267074
-0.24670000000000003,-182.35628655260325
-0.24769999999999992,-183.06364220253573
-0.24870000000000003,-183.62952672248176
-0.24969999999999992,-184.19541124242778
-0.25070000000000003,-184.9027668923603
-0.2516999999999999,-185.6101225422928
-0.25270000000000004,-186.45894932221185
-0.2536999999999999,-186.88336271217133
-0.25470000000000004,-187.30777610213087
-0.2556999999999999,-187.44924723211736
-0.25670000000000004,-188.01513175206335
-0.25769999999999993,-188.58101627200938
-0.25870000000000004,-189.42984305192843
-0.25969999999999993,-190.27866983184742
-0.26070000000000004,-190.98602548177996
-0.26169999999999993,-191.69338113171247
-0.26270000000000004,-192.40073678164498
-0.26369999999999993,-192.82515017160452
-0.26470000000000005,-193.249563561564
-0.26569999999999994,-193.81544808151003
-0.26670000000000005,-194.2398614714695
-0.26769999999999994,-194.80574599141553
-0.26870000000000005,-195.37163051136156
-0.26969999999999994,-195.93751503130758
-0.27070000000000005,-196.3619284212671
-0.27169999999999994,-196.92781294121312
-0.27270000000000005,-197.63516859114563
-0.27369999999999994,-198.3425242410781
-0.27470000000000006,-198.90840876102413
-0.27569999999999995,-199.47429328097016
-0.27670000000000006,-200.04017780091618
-0.27769999999999995,-200.7475334508487
-0.27870000000000006,-201.4548891007812
-0.27969999999999995,-202.02077362072723
-0.28070000000000006,-202.86960040064628
-0.28169999999999995,-203.71842718056527
-0.28270000000000006,-204.42578283049778
-0.28369999999999995,-204.8501962204573
-0.28470000000000006,-205.41608074040332
-0.28569999999999995,-206.40637865030885
-0.28670000000000007,-207.3966765602144
-0.28769999999999996,-208.3869744701199
-0.28870000000000007,-208.95285899006592
-0.28969999999999996,-209.37727238002543
-0.29070000000000007,-209.94315689997146
-0.29169999999999996,-210.22609915994445
-0.29270000000000007,-211.07492593986345
-0.29369999999999996,-211.9237527197825
-0.2947000000000001,-212.77257949970152
-0.29569999999999996,-213.47993514963403
-0.2967000000000001,-214.47023305953954
-0.29769999999999996,-215.7434732294181
-0.2987000000000001,-216.4508288793506
-0.29969999999999997,-216.87524226931012
-0.3007000000000001,-216.73377113932364
-0.30169999999999997,-216.73377113932364
-0.3027000000000001,-217.01671339929663
-0.30369999999999997,-217.44112678925615
-0.3047000000000001,-218.14848243918865
-0.30569999999999997,-219.13878034909416
-0.3067000000000001,-219.98760712901318
-0.3077,-220.83643390893224
-0.3087000000000001,-221.26084729889175
-0.3097,-221.68526068885126
-0.3107000000000001,-222.10967407881074
-0.3117,-222.53408746877028
-0.3127000000000001,-223.2414431187028
-0.3137,-223.9487987686353
-0.3147000000000001,-224.37321215859478
-0.3157,-224.93909667854084
-0.3167000000000001,-225.50498119848683
-0.3177,-225.92939458844637
-0.3187000000000001,-226.21233684841937
-0.3197,-226.49527910839237
-0.3207000000000001,-227.2026347583249
-0.3217,-227.62704814828442
-0.3227000000000001,-228.47587492820347
-0.3237,-229.32470170812243
-0.3247000000000001,-230.17352848804146
-0.3257,-230.7394130079875
-0.3267000000000001,-231.0223552679605
-0.3277,-231.3052975279335
-0.3287000000000001,-231.8711820478795
-0.3297,-232.43706656782552
-0.3307000000000001,-233.1444222177581
-0.3317,-233.85177786769057
-0.3327000000000001,-234.4176623876366
-0.3337,-235.26648916755556
-0.3347000000000001,-235.69090255751513
-0.3357,-236.1153159474746
-0.3367000000000001,-236.53972933743412
-0.3377,-237.24708498736666
-0.3387000000000001,-238.0959117672857
-0.3397,-238.94473854720468
-0.3407000000000001,-239.65209419713722
-0.3417,-240.0765075870967
-0.3427000000000001,-240.21797871708318
-0.3437,-240.64239210704275
-0.3447000000000001,-241.34974775697523
-0.3457,-242.34004566688077
-0.3467000000000001,-243.3303435767863
-0.3477,-244.03769922671884
-0.3487000000000001,-244.8865260066378
-0.3497,-245.45241052658386
-0.3507000000000001,-246.15976617651637
-0.3517,-247.0085929564354
-0.3527000000000001,-247.57447747638145
-0.3537,-248.14036199632744
-0.3547000000000001,-248.42330425630044
-0.3557,-248.56477538628693
-0.35670000000000013,-248.70624651627344
-0.3577,-248.9891887762465
-0.35870000000000013,-249.69654442617897
-0.3597,-250.545371206098
-0.36070000000000013,-250.9697845960575
-0.3617,-251.39419798601702
-0.3626999999999999,-251.81861137597656
-0.3637,-252.52596702590907
-0.3646999999999999,-253.09185154585506
-0.3657,-253.51626493581452
-0.3666999999999999,-254.08214945576057
-0.3677,-254.50656284572008
-0.3686999999999999,-254.93097623567962
-0.36970000000000003,-255.35538962563913
-0.3706999999999999,-255.63833188561213
-0.37170000000000003,-256.0627452755717
-0.3726999999999999,-256.62862979551767
-0.37370000000000003,-257.1945143154637
-0.3746999999999999,-257.33598544545015
-0.37570000000000003,-257.6189277054232
-0.3766999999999999,-258.0433410953827
-0.37770000000000004,-258.60922561532874
-0.3786999999999999,-258.8921678753017
-0.37970000000000004,-259.0336390052882
-0.3806999999999999,-259.0336390052882
-0.38170000000000004,-259.17511013527474
-0.38269999999999993,-259.59952352523425
-0.38370000000000004,-260.02393691519376
-0.38469999999999993,-260.4483503051532
-0.38570000000000004,-260.8727636951128
-0.38669999999999993,-259.8824657852072
-0.38570000000000004,-256.34568753554464
-0.38469999999999993,-252.66743815589555
-0.38370000000000004,-248.9891887762465
-0.38269999999999993,-245.45241052658386
-0.38170000000000004,-242.05710340690777
-0.3806999999999999,-238.66179628723168
-0.37970000000000004,-235.26648916755556
-0.3786999999999999,-232.01265317786604
-0.37770000000000004,-228.75881718817644
-0.3766999999999999,-225.64645232847332
-0.37570000000000003,-222.6755585987568
-0.3746999999999999,-219.5631937390537
-0.37370000000000003,-216.4508288793506
-0.3726999999999999,-213.19699288966103
-0.37170000000000003,-209.94315689997146
-0.3706999999999999,-206.97226317025488
-0.36970000000000003,-204.0013694405383
-0.3686999999999999,-200.88900458083523
-0.3677,-197.91811085111863
-0.3666999999999999,-194.94721712140205
-0.3657,-192.11779452167198
-0.3646999999999999,-189.0054296619689
-0.3637,-186.17600706223882
-0.3626999999999999,-183.48805559249527
-0.3617,-180.8001041227517
-0.36070000000000013,-178.25362378299462
-0.3597,-175.56567231325104
-0.35870000000000013,-172.73624971352098
-0.3577,-170.0482982437774
-0.35670000000000013,-167.07740451406085
-0.3557,-164.38945304431726
-0.3547000000000001,-161.84297270456022
-0.3537,-159.01355010483013
-0.3527000000000001,-156.46706976507306
-0.3517,-153.77911829532948
-0.3507000000000001,-151.37410908555893
-0.3497,-148.82762874580186
-0.3487000000000001,-146.1396772760583
-0.3477,-143.4517258063147
-0.3467000000000001,-141.01842237054686
-0.3457,-138.79732562975875
-0.3447000000000001,-136.562081775972
-0.3437,-134.12877834020412
-0.3427000000000001,-131.5964451134457
-0.3417,-129.2338772426711
-0.3407000000000001,-127.05522184087894
-0.3397,-124.91900777808273
-0.3387000000000001,-122.61302835930273
-0.3377,-120.25046048852812
-0.3367000000000001,-117.98692240874406
-0.3357,-115.80826700695191
-0.3347000000000001,-113.62961160515974
-0.3337,-111.26704373438514
-0.3327000000000001,-108.96106431560513
-0.3317,-106.86729159180487
-0.3307000000000001,-104.90084288499246
-0.3297,-102.89195283918411
-0.3287000000000001,-100.71329743739196
-0.3277,-98.57708337459576
-0.3267000000000001,-96.52575198979144
-0.3257,-94.70077441296557
-0.3247000000000001,-92.6918843671572
-0.3237,-90.37175783537855
-0.3227000000000001,-88.27798511157829
-0.3217,-86.45300753475239
-0.3207000000000001,-84.75535397491434
-0.3197,-83.08599464107361
-0.3187000000000001,-81.21857572525175
-0.3177,-79.20968567944341
-0.3167000000000001,-77.1583542946391
-0.3157,-75.2484940398213
-0.3147000000000001,-73.3669280110008
-0.3137,-71.58439177317086
-0.3127000000000001,-69.74526708334632
-0.3117,-68.0051721845123
-0.3107000000000001,-66.25093017267966
-0.3097,-64.55327661284163
-0.3087000000000001,-62.72829903601572
-0.3077,-60.93161568518713
-0.3067000000000001,-59.27640346434504
-0.30569999999999997,-57.66363258249889
-0.3047000000000001,-56.008420361656796
-0.30369999999999997,-54.26832546282281
-0.3027000000000001,-52.55652478998611
-0.30169999999999997,-50.943753908139975
-0.3007000000000001,-49.373424365289786
-0.29969999999999997,-47.80309482243959
-0.2987000000000001,-46.2327652795894
-0.29769999999999996,-44.577553058747306
-0.2967000000000001,-43.04966485489307
-0.29569999999999996,-41.56421799003478
-0.2947000000000001,-39.99388844718459
-0.29369999999999996,-38.42355890433439
-0.29270000000000007,-36.8532293614842
-0.29169999999999996,-35.42437094862052
-0.29070000000000007,-34.06624810075008
-0.28969999999999996,-32.62324257488775
-0.28870000000000007,-31.095354371033505
-0.28769999999999996,-29.581613280177915
-0.28670000000000007,-28.18104909331153
-0.28569999999999995,-26.86536758443705
-0.28470000000000006,-25.521391849565262
-0.28369999999999995,-24.120827662698876
-0.28270000000000006,-22.72026347583249
-0.28169999999999995,-21.333846401964752
-0.28070000000000006,-20.01816489309027
-0.27969999999999995,-18.674189158218486
-0.27870000000000006,-17.231183632356142
-0.27769999999999995,-15.87306078448571
-0.27670000000000006,-14.61396772760583
-0.27569999999999995,-13.436927926118118
-0.27470000000000006,-12.214617363034726
-0.27369999999999994,-10.949865460955383
-0.27270000000000005,-9.641257508580225
-0.27169999999999994,-8.4203616567967
-0.27070000000000005,-7.243321855308987
-0.26969999999999994,-6.064867342521412
-0.26870000000000005,-4.843971490737885
-0.26769999999999994,-3.5353635383627267
