Dec. 18, 2024   04:03:44
Cyclic Voltammetry
File: c:/users/guazh/data/banditlqround7_x0exp667_r5/2024-12-16-exp687\exp687-2024-12-18t03_55_08-arkoh\exp687_cv_50mvs_efin_-1500mv.bin
Data Source:  Experiment
Instrument Model:  CHI760E
Header: CV ran at 50 mVs
Note: 

Init E (V) = -1
High E (V) = -1
Low E (V) = -1.5
Final E (V) = -1
Init P/N = N
Scan Rate (V/s) = 0.05
Segment = 7
Sample Interval (V) = 0.001
Quiet Time (sec) = 60
Sensitivity (A/V) = 0.001
Comp R (ohm) = 1.1

Results:

Channel 1:
Segment 1:
Ep = -1.294V
ip = 1.605e-4A
Ah = 2.018e-4C

Segment 2:
Ep = -1.173V
ip = -6.775e-5A
Ah = -6.888e-5C

Segment 3:

Segment 4:
Ep = -1.173V
ip = -7.110e-5A
Ah = -7.178e-5C

Segment 5:
Ep = -1.290V
ip = 1.187e-4A
Ah = 1.588e-4C

Segment 6:
Ep = -1.173V
ip = -7.412e-5A
Ah = -7.419e-5C

Segment 7:

Potential/V, Current/A

-1.000, 2.912e-6
-1.001, 8.709e-6
-1.002, 1.091e-5
-1.003, 1.297e-5
-1.004, 1.482e-5
-1.005, 1.520e-5
-1.006, 1.530e-5
-1.007, 1.634e-5
-1.008, 1.778e-5
-1.009, 1.919e-5
-1.010, 1.935e-5
-1.011, 1.921e-5
-1.012, 2.008e-5
-1.013, 2.151e-5
-1.014, 2.271e-5
-1.015, 2.292e-5
-1.016, 2.262e-5
-1.017, 2.347e-5
-1.018, 2.492e-5
-1.019, 2.604e-5
-1.020, 2.619e-5
-1.021, 2.597e-5
-1.022, 2.669e-5
-1.023, 2.830e-5
-1.024, 2.953e-5
-1.025, 2.949e-5
-1.026, 2.943e-5
-1.027, 3.007e-5
-1.028, 3.165e-5
-1.029, 3.298e-5
-1.030, 3.308e-5
-1.031, 3.306e-5
-1.032, 3.368e-5
-1.033, 3.534e-5
-1.034, 3.670e-5
-1.035, 3.686e-5
-1.036, 3.687e-5
-1.037, 3.765e-5
-1.038, 3.926e-5
-1.039, 4.078e-5
-1.040, 4.088e-5
-1.041, 4.087e-5
-1.042, 4.182e-5
-1.043, 4.341e-5
-1.044, 4.500e-5
-1.045, 4.521e-5
-1.046, 4.527e-5
-1.047, 4.619e-5
-1.048, 4.781e-5
-1.049, 4.944e-5
-1.050, 4.987e-5
-1.051, 4.986e-5
-1.052, 5.084e-5
-1.053, 5.258e-5
-1.054, 5.420e-5
-1.055, 5.464e-5
-1.056, 5.466e-5
-1.057, 5.578e-5
-1.058, 5.758e-5
-1.059, 5.915e-5
-1.060, 5.967e-5
-1.061, 5.982e-5
-1.062, 6.069e-5
-1.063, 6.275e-5
-1.064, 6.428e-5
-1.065, 6.473e-5
-1.066, 6.495e-5
-1.067, 6.585e-5
-1.068, 6.790e-5
-1.069, 6.944e-5
-1.070, 6.986e-5
-1.071, 7.020e-5
-1.072, 7.098e-5
-1.073, 7.289e-5
-1.074, 7.469e-5
-1.075, 7.518e-5
-1.076, 7.535e-5
-1.077, 7.619e-5
-1.078, 7.806e-5
-1.079, 7.979e-5
-1.080, 8.002e-5
-1.081, 8.025e-5
-1.082, 8.117e-5
-1.083, 8.305e-5
-1.084, 8.474e-5
-1.085, 8.495e-5
-1.086, 8.496e-5
-1.087, 8.606e-5
-1.088, 8.776e-5
-1.089, 8.963e-5
-1.090, 8.981e-5
-1.091, 8.984e-5
-1.092, 9.072e-5
-1.093, 9.237e-5
-1.094, 9.406e-5
-1.095, 9.441e-5
-1.096, 9.423e-5
-1.097, 9.505e-5
-1.098, 9.688e-5
-1.099, 9.831e-5
-1.100, 9.865e-5
-1.101, 9.850e-5
-1.102, 9.908e-5
-1.103, 1.010e-4
-1.104, 1.022e-4
-1.105, 1.026e-4
-1.106, 1.024e-4
-1.107, 1.030e-4
-1.108, 1.049e-4
-1.109, 1.061e-4
-1.110, 1.062e-4
-1.111, 1.062e-4
-1.112, 1.066e-4
-1.113, 1.083e-4
-1.114, 1.096e-4
-1.115, 1.097e-4
-1.116, 1.095e-4
-1.117, 1.100e-4
-1.118, 1.117e-4
-1.119, 1.130e-4
-1.120, 1.130e-4
-1.121, 1.128e-4
-1.122, 1.133e-4
-1.123, 1.147e-4
-1.124, 1.161e-4
-1.125, 1.161e-4
-1.126, 1.159e-4
-1.127, 1.165e-4
-1.128, 1.178e-4
-1.129, 1.191e-4
-1.130, 1.192e-4
-1.131, 1.189e-4
-1.132, 1.195e-4
-1.133, 1.210e-4
-1.134, 1.221e-4
-1.135, 1.223e-4
-1.136, 1.220e-4
-1.137, 1.226e-4
-1.138, 1.241e-4
-1.139, 1.253e-4
-1.140, 1.254e-4
-1.141, 1.251e-4
-1.142, 1.257e-4
-1.143, 1.273e-4
-1.144, 1.284e-4
-1.145, 1.286e-4
-1.146, 1.286e-4
-1.147, 1.290e-4
-1.148, 1.306e-4
-1.149, 1.318e-4
-1.150, 1.320e-4
-1.151, 1.320e-4
-1.152, 1.324e-4
-1.153, 1.341e-4
-1.154, 1.354e-4
-1.155, 1.356e-4
-1.156, 1.356e-4
-1.157, 1.362e-4
-1.158, 1.379e-4
-1.159, 1.395e-4
-1.160, 1.395e-4
-1.161, 1.394e-4
-1.162, 1.402e-4
-1.163, 1.418e-4
-1.164, 1.434e-4
-1.165, 1.437e-4
-1.166, 1.438e-4
-1.167, 1.448e-4
-1.168, 1.464e-4
-1.169, 1.480e-4
-1.170, 1.484e-4
-1.171, 1.485e-4
-1.172, 1.496e-4
-1.173, 1.513e-4
-1.174, 1.530e-4
-1.175, 1.536e-4
-1.176, 1.536e-4
-1.177, 1.550e-4
-1.178, 1.571e-4
-1.179, 1.587e-4
-1.180, 1.594e-4
-1.181, 1.596e-4
-1.182, 1.608e-4
-1.183, 1.630e-4
-1.184, 1.647e-4
-1.185, 1.656e-4
-1.186, 1.661e-4
-1.187, 1.672e-4
-1.188, 1.693e-4
-1.189, 1.712e-4
-1.190, 1.721e-4
-1.191, 1.728e-4
-1.192, 1.742e-4
-1.193, 1.767e-4
-1.194, 1.788e-4
-1.195, 1.796e-4
-1.196, 1.804e-4
-1.197, 1.821e-4
-1.198, 1.846e-4
-1.199, 1.870e-4
-1.200, 1.879e-4
-1.201, 1.889e-4
-1.202, 1.905e-4
-1.203, 1.932e-4
-1.204, 1.955e-4
-1.205, 1.967e-4
-1.206, 1.977e-4
-1.207, 1.996e-4
-1.208, 2.023e-4
-1.209, 2.050e-4
-1.210, 2.065e-4
-1.211, 2.077e-4
-1.212, 2.098e-4
-1.213, 2.126e-4
-1.214, 2.151e-4
-1.215, 2.170e-4
-1.216, 2.180e-4
-1.217, 2.201e-4
-1.218, 2.234e-4
-1.219, 2.262e-4
-1.220, 2.282e-4
-1.221, 2.295e-4
-1.222, 2.317e-4
-1.223, 2.349e-4
-1.224, 2.380e-4
-1.225, 2.398e-4
-1.226, 2.413e-4
-1.227, 2.438e-4
-1.228, 2.473e-4
-1.229, 2.509e-4
-1.230, 2.528e-4
-1.231, 2.544e-4
-1.232, 2.566e-4
-1.233, 2.602e-4
-1.234, 2.637e-4
-1.235, 2.656e-4
-1.236, 2.672e-4
-1.237, 2.696e-4
-1.238, 2.731e-4
-1.239, 2.765e-4
-1.240, 2.784e-4
-1.241, 2.802e-4
-1.242, 2.829e-4
-1.243, 2.865e-4
-1.244, 2.901e-4
-1.245, 2.919e-4
-1.246, 2.935e-4
-1.247, 2.964e-4
-1.248, 3.001e-4
-1.249, 3.036e-4
-1.250, 3.059e-4
-1.251, 3.076e-4
-1.252, 3.103e-4
-1.253, 3.137e-4
-1.254, 3.172e-4
-1.255, 3.196e-4
-1.256, 3.208e-4
-1.257, 3.232e-4
-1.258, 3.269e-4
-1.259, 3.302e-4
-1.260, 3.321e-4
-1.261, 3.337e-4
-1.262, 3.363e-4
-1.263, 3.399e-4
-1.264, 3.429e-4
-1.265, 3.450e-4
-1.266, 3.461e-4
-1.267, 3.483e-4
-1.268, 3.519e-4
-1.269, 3.544e-4
-1.270, 3.559e-4
-1.271, 3.568e-4
-1.272, 3.584e-4
-1.273, 3.615e-4
-1.274, 3.643e-4
-1.275, 3.653e-4
-1.276, 3.660e-4
-1.277, 3.672e-4
-1.278, 3.703e-4
-1.279, 3.727e-4
-1.280, 3.736e-4
-1.281, 3.735e-4
-1.282, 3.744e-4
-1.283, 3.765e-4
-1.284, 3.787e-4
-1.285, 3.785e-4
-1.286, 3.786e-4
-1.287, 3.791e-4
-1.288, 3.803e-4
-1.289, 3.819e-4
-1.290, 3.820e-4
-1.291, 3.811e-4
-1.292, 3.810e-4
-1.293, 3.817e-4
-1.294, 3.824e-4
-1.295, 3.817e-4
-1.296, 3.803e-4
-1.297, 3.800e-4
-1.298, 3.802e-4
-1.299, 3.802e-4
-1.300, 3.793e-4
-1.301, 3.768e-4
-1.302, 3.759e-4
-1.303, 3.753e-4
-1.304, 3.746e-4
-1.305, 3.725e-4
-1.306, 3.704e-4
-1.307, 3.685e-4
-1.308, 3.688e-4
-1.309, 3.675e-4
-1.310, 3.645e-4
-1.311, 3.616e-4
-1.312, 3.597e-4
-1.313, 3.590e-4
-1.314, 3.577e-4
-1.315, 3.552e-4
-1.316, 3.523e-4
-1.317, 3.502e-4
-1.318, 3.499e-4
-1.319, 3.490e-4
-1.320, 3.465e-4
-1.321, 3.437e-4
-1.322, 3.418e-4
-1.323, 3.413e-4
-1.324, 3.404e-4
-1.325, 3.385e-4
-1.326, 3.362e-4
-1.327, 3.353e-4
-1.328, 3.352e-4
-1.329, 3.351e-4
-1.330, 3.336e-4
-1.331, 3.314e-4
-1.332, 3.307e-4
-1.333, 3.311e-4
-1.334, 3.313e-4
-1.335, 3.309e-4
-1.336, 3.293e-4
-1.337, 3.291e-4
-1.338, 3.305e-4
-1.339, 3.322e-4
-1.340, 3.324e-4
-1.341, 3.316e-4
-1.342, 3.321e-4
-1.343, 3.345e-4
-1.344, 3.365e-4
-1.345, 3.379e-4
-1.346, 3.387e-4
-1.347, 3.400e-4
-1.348, 3.438e-4
-1.349, 3.474e-4
-1.350, 3.489e-4
-1.351, 3.504e-4
-1.352, 3.524e-4
-1.353, 3.554e-4
-1.354, 3.582e-4
-1.355, 3.600e-4
-1.356, 3.618e-4
-1.357, 3.643e-4
-1.358, 3.680e-4
-1.359, 3.719e-4
-1.360, 3.730e-4
-1.361, 3.746e-4
-1.362, 3.775e-4
-1.363, 3.814e-4
-1.364, 3.849e-4
-1.365, 3.868e-4
-1.366, 3.892e-4
-1.367, 3.929e-4
-1.368, 3.967e-4
-1.369, 4.002e-4
-1.370, 4.020e-4
-1.371, 4.034e-4
-1.372, 4.058e-4
-1.373, 4.093e-4
-1.374, 4.125e-4
-1.375, 4.145e-4
-1.376, 4.159e-4
-1.377, 4.185e-4
-1.378, 4.222e-4
-1.379, 4.258e-4
-1.380, 4.280e-4
-1.381, 4.290e-4
-1.382, 4.315e-4
-1.383, 4.352e-4
-1.384, 4.386e-4
-1.385, 4.404e-4
-1.386, 4.420e-4
-1.387, 4.448e-4
-1.388, 4.489e-4
-1.389, 4.526e-4
-1.390, 4.553e-4
-1.391, 4.577e-4
-1.392, 4.610e-4
-1.393, 4.647e-4
-1.394, 4.684e-4
-1.395, 4.711e-4
-1.396, 4.739e-4
-1.397, 4.782e-4
-1.398, 4.847e-4
-1.399, 4.917e-4
-1.400, 4.980e-4
-1.401, 5.015e-4
-1.402, 5.087e-4
-1.403, 5.171e-4
-1.404, 5.262e-4
-1.405, 5.363e-4
-1.406, 5.434e-4
-1.407, 5.524e-4
-1.408, 5.632e-4
-1.409, 5.745e-4
-1.410, 5.851e-4
-1.411, 5.959e-4
-1.412, 6.094e-4
-1.413, 6.252e-4
-1.414, 6.408e-4
-1.415, 6.564e-4
-1.416, 6.746e-4
-1.417, 6.916e-4
-1.418, 7.101e-4
-1.419, 7.301e-4
-1.420, 7.498e-4
-1.421, 7.702e-4
-1.422, 7.911e-4
-1.423, 8.141e-4
-1.424, 8.381e-4
-1.425, 8.615e-4
-1.426, 8.856e-4
-1.427, 9.121e-4
-1.428, 9.381e-4
-1.429, 9.639e-4
-1.430, 9.904e-4
-1.431, 1.018e-3
-1.432, 1.046e-3
-1.433, 1.077e-3
-1.434, 1.108e-3
-1.435, 1.139e-3
-1.436, 1.170e-3
-1.437, 1.201e-3
-1.438, 1.233e-3
-1.439, 1.266e-3
-1.440, 1.298e-3
-1.441, 1.331e-3
-1.442, 1.365e-3
-1.443, 1.401e-3
-1.444, 1.437e-3
-1.445, 1.471e-3
-1.446, 1.508e-3
-1.447, 1.547e-3
-1.448, 1.584e-3
-1.449, 1.620e-3
-1.450, 1.655e-3
-1.451, 1.691e-3
-1.452, 1.724e-3
-1.453, 1.756e-3
-1.454, 1.791e-3
-1.455, 1.823e-3
-1.456, 1.859e-3
-1.457, 1.899e-3
-1.458, 1.939e-3
-1.459, 1.977e-3
-1.460, 2.018e-3
-1.461, 2.057e-3
-1.462, 2.093e-3
-1.463, 2.136e-3
-1.464, 2.177e-3
-1.465, 2.215e-3
-1.466, 2.251e-3
-1.467, 2.290e-3
-1.468, 2.331e-3
-1.469, 2.374e-3
-1.470, 2.417e-3
-1.471, 2.452e-3
-1.472, 2.487e-3
-1.473, 2.528e-3
-1.474, 2.571e-3
-1.475, 2.613e-3
-1.476, 2.648e-3
-1.477, 2.687e-3
-1.478, 2.731e-3
-1.479, 2.775e-3
-1.480, 2.817e-3
-1.481, 2.858e-3
-1.482, 2.893e-3
-1.483, 2.946e-3
-1.484, 2.988e-3
-1.485, 3.034e-3
-1.486, 3.078e-3
-1.487, 3.125e-3
-1.488, 3.172e-3
-1.489, 3.223e-3
-1.490, 3.275e-3
-1.491, 3.324e-3
-1.492, 3.380e-3
-1.493, 3.426e-3
-1.494, 3.468e-3
-1.495, 3.506e-3
-1.496, 3.554e-3
-1.497, 3.607e-3
-1.498, 3.650e-3
-1.499, 3.698e-3
-1.500, 3.701e-3
-1.499, 3.641e-3
-1.498, 3.584e-3
-1.497, 3.530e-3
-1.496, 3.462e-3
-1.495, 3.401e-3
-1.494, 3.348e-3
-1.493, 3.315e-3
-1.492, 3.251e-3
-1.491, 3.189e-3
-1.490, 3.129e-3
-1.489, 3.072e-3
-1.488, 3.021e-3
-1.487, 2.966e-3
-1.486, 2.916e-3
-1.485, 2.858e-3
-1.484, 2.800e-3
-1.483, 2.749e-3
-1.482, 2.698e-3
-1.481, 2.646e-3
-1.480, 2.597e-3
-1.479, 2.546e-3
-1.478, 2.491e-3
-1.477, 2.445e-3
-1.476, 2.399e-3
-1.475, 2.354e-3
-1.474, 2.305e-3
-1.473, 2.260e-3
-1.472, 2.215e-3
-1.471, 2.173e-3
-1.470, 2.130e-3
-1.469, 2.085e-3
-1.468, 2.058e-3
-1.467, 2.016e-3
-1.466, 1.977e-3
-1.465, 1.933e-3
-1.464, 1.888e-3
-1.463, 1.848e-3
-1.462, 1.809e-3
-1.461, 1.765e-3
-1.460, 1.726e-3
-1.459, 1.691e-3
-1.458, 1.655e-3
-1.457, 1.621e-3
-1.456, 1.588e-3
-1.455, 1.555e-3
-1.454, 1.518e-3
-1.453, 1.482e-3
-1.452, 1.451e-3
-1.451, 1.418e-3
-1.450, 1.388e-3
-1.449, 1.364e-3
-1.448, 1.342e-3
-1.447, 1.289e-3
-1.446, 1.258e-3
-1.445, 1.226e-3
-1.444, 1.195e-3
-1.443, 1.168e-3
-1.442, 1.139e-3
-1.441, 1.109e-3
-1.440, 1.080e-3
-1.439, 1.053e-3
-1.438, 1.028e-3
-1.437, 1.004e-3
-1.436, 9.814e-4
-1.435, 9.550e-4
-1.434, 9.287e-4
-1.433, 9.033e-4
-1.432, 8.806e-4
-1.431, 8.605e-4
-1.430, 8.351e-4
-1.429, 8.119e-4
-1.428, 7.905e-4
-1.427, 7.698e-4
-1.426, 7.494e-4
-1.425, 7.280e-4
-1.424, 7.078e-4
-1.423, 6.884e-4
-1.422, 6.731e-4
-1.421, 6.570e-4
-1.420, 6.341e-4
-1.419, 6.132e-4
-1.418, 5.960e-4
-1.417, 5.811e-4
-1.416, 5.673e-4
-1.415, 5.489e-4
-1.414, 5.326e-4
-1.413, 5.183e-4
-1.412, 5.034e-4
-1.411, 4.911e-4
-1.410, 4.766e-4
-1.409, 4.618e-4
-1.408, 4.477e-4
-1.407, 4.371e-4
-1.406, 4.253e-4
-1.405, 4.139e-4
-1.404, 4.000e-4
-1.403, 3.893e-4
-1.402, 3.784e-4
-1.401, 3.675e-4
-1.400, 3.564e-4
-1.399, 3.458e-4
-1.398, 3.365e-4
-1.397, 3.277e-4
-1.396, 3.187e-4
-1.395, 3.090e-4
-1.394, 3.039e-4
-1.393, 2.903e-4
-1.392, 2.812e-4
-1.391, 2.727e-4
-1.390, 2.645e-4
-1.389, 2.558e-4
-1.388, 2.486e-4
-1.387, 2.426e-4
-1.386, 2.368e-4
-1.385, 2.288e-4
-1.384, 2.211e-4
-1.383, 2.137e-4
-1.382, 2.083e-4
-1.381, 2.033e-4
-1.380, 1.959e-4
-1.379, 1.890e-4
-1.378, 1.832e-4
-1.377, 1.779e-4
-1.376, 1.728e-4
-1.375, 1.665e-4
-1.374, 1.614e-4
-1.373, 1.564e-4
-1.372, 1.520e-4
-1.371, 1.479e-4
-1.370, 1.429e-4
-1.369, 1.376e-4
-1.368, 1.332e-4
-1.367, 1.286e-4
-1.366, 1.253e-4
-1.365, 1.214e-4
-1.364, 1.163e-4
-1.363, 1.126e-4
-1.362, 1.095e-4
-1.361, 1.065e-4
-1.360, 1.027e-4
-1.359, 9.829e-5
-1.358, 9.445e-5
-1.357, 9.235e-5
-1.356, 8.946e-5
-1.355, 8.577e-5
-1.354, 8.282e-5
-1.353, 7.892e-5
-1.352, 7.636e-5
-1.351, 7.407e-5
-1.350, 7.026e-5
-1.349, 6.652e-5
-1.348, 6.360e-5
-1.347, 6.145e-5
-1.346, 5.967e-5
-1.345, 5.691e-5
-1.344, 5.462e-5
-1.343, 5.035e-5
-1.342, 4.864e-5
-1.341, 4.701e-5
-1.340, 4.413e-5
-1.339, 4.083e-5
-1.338, 3.827e-5
-1.337, 3.662e-5
-1.336, 3.496e-5
-1.335, 3.215e-5
-1.334, 2.948e-5
-1.333, 2.749e-5
-1.332, 2.733e-5
-1.331, 2.620e-5
-1.330, 2.177e-5
-1.329, 1.867e-5
-1.328, 1.667e-5
-1.327, 1.562e-5
-1.326, 1.412e-5
-1.325, 1.176e-5
-1.324, 8.717e-6
-1.323, 6.544e-6
-1.322, 5.695e-6
-1.321, 4.334e-6
-1.320, 2.239e-6
-1.319, -7.549e-7
-1.318, -2.572e-6
-1.317, -3.382e-6
-1.316, -4.326e-6
-1.315, -6.669e-6
-1.314, -9.263e-6
-1.313, -1.132e-5
-1.312, -1.189e-5
-1.311, -1.292e-5
-1.310, -1.522e-5
-1.309, -1.747e-5
-1.308, -1.903e-5
-1.307, -1.953e-5
-1.306, -2.005e-5
-1.305, -2.230e-5
-1.304, -2.477e-5
-1.303, -2.645e-5
-1.302, -2.729e-5
-1.301, -2.805e-5
-1.300, -3.019e-5
-1.299, -3.248e-5
-1.298, -3.384e-5
-1.297, -3.453e-5
-1.296, -3.525e-5
-1.295, -3.725e-5
-1.294, -3.984e-5
-1.293, -4.123e-5
-1.292, -4.198e-5
-1.291, -4.258e-5
-1.290, -4.466e-5
-1.289, -4.710e-5
-1.288, -4.832e-5
-1.287, -4.878e-5
-1.286, -4.938e-5
-1.285, -5.134e-5
-1.284, -5.386e-5
-1.283, -5.535e-5
-1.282, -5.593e-5
-1.281, -5.677e-5
-1.280, -5.878e-5
-1.279, -6.097e-5
-1.278, -6.251e-5
-1.277, -6.264e-5
-1.276, -6.340e-5
-1.275, -6.549e-5
-1.274, -6.778e-5
-1.273, -6.974e-5
-1.272, -7.006e-5
-1.271, -7.080e-5
-1.270, -7.290e-5
-1.269, -7.506e-5
-1.268, -7.663e-5
-1.267, -7.756e-5
-1.266, -7.786e-5
-1.265, -8.000e-5
-1.264, -8.226e-5
-1.263, -8.385e-5
-1.262, -8.479e-5
-1.261, -8.520e-5
-1.260, -8.728e-5
-1.259, -9.004e-5
-1.258, -9.163e-5
-1.257, -9.254e-5
-1.256, -9.307e-5
-1.255, -9.555e-5
-1.254, -9.824e-5
-1.253, -9.987e-5
-1.252, -1.008e-4
-1.251, -1.015e-4
-1.250, -1.039e-4
-1.249, -1.070e-4
-1.248, -1.089e-4
-1.247, -1.099e-4
-1.246, -1.111e-4
-1.245, -1.133e-4
-1.244, -1.162e-4
-1.243, -1.190e-4
-1.242, -1.200e-4
-1.241, -1.214e-4
-1.240, -1.240e-4
-1.239, -1.272e-4
-1.238, -1.297e-4
-1.237, -1.310e-4
-1.236, -1.326e-4
-1.235, -1.356e-4
-1.234, -1.390e-4
-1.233, -1.417e-4
-1.232, -1.433e-4
-1.231, -1.456e-4
-1.230, -1.484e-4
-1.229, -1.527e-4
-1.228, -1.552e-4
-1.227, -1.570e-4
-1.226, -1.587e-4
-1.225, -1.623e-4
-1.224, -1.659e-4
-1.223, -1.690e-4
-1.222, -1.713e-4
-1.221, -1.731e-4
-1.220, -1.770e-4
-1.219, -1.816e-4
-1.218, -1.839e-4
-1.217, -1.861e-4
-1.216, -1.881e-4
-1.215, -1.917e-4
-1.214, -1.958e-4
-1.213, -1.991e-4
-1.212, -2.015e-4
-1.211, -2.035e-4
-1.210, -2.070e-4
-1.209, -2.113e-4
-1.208, -2.148e-4
-1.207, -2.170e-4
-1.206, -2.188e-4
-1.205, -2.218e-4
-1.204, -2.257e-4
-1.203, -2.289e-4
-1.202, -2.308e-4
-1.201, -2.331e-4
-1.200, -2.364e-4
-1.199, -2.401e-4
-1.198, -2.427e-4
-1.197, -2.443e-4
-1.196, -2.465e-4
-1.195, -2.494e-4
-1.194, -2.520e-4
-1.193, -2.547e-4
-1.192, -2.559e-4
-1.191, -2.571e-4
-1.190, -2.594e-4
-1.189, -2.622e-4
-1.188, -2.644e-4
-1.187, -2.656e-4
-1.186, -2.668e-4
-1.185, -2.691e-4
-1.184, -2.707e-4
-1.183, -2.724e-4
-1.182, -2.728e-4
-1.181, -2.735e-4
-1.180, -2.741e-4
-1.179, -2.758e-4
-1.178, -2.769e-4
-1.177, -2.768e-4
-1.176, -2.763e-4
-1.175, -2.770e-4
-1.174, -2.782e-4
-1.173, -2.782e-4
-1.172, -2.775e-4
-1.171, -2.767e-4
-1.170, -2.769e-4
-1.169, -2.778e-4
-1.168, -2.771e-4
-1.167, -2.761e-4
-1.166, -2.748e-4
-1.165, -2.738e-4
-1.164, -2.753e-4
-1.163, -2.743e-4
-1.162, -2.722e-4
-1.161, -2.701e-4
-1.160, -2.694e-4
-1.159, -2.692e-4
-1.158, -2.684e-4
-1.157, -2.658e-4
-1.156, -2.643e-4
-1.155, -2.637e-4
-1.154, -2.632e-4
-1.153, -2.621e-4
-1.152, -2.597e-4
-1.151, -2.574e-4
-1.150, -2.563e-4
-1.149, -2.555e-4
-1.148, -2.542e-4
-1.147, -2.519e-4
-1.146, -2.493e-4
-1.145, -2.480e-4
-1.144, -2.470e-4
-1.143, -2.454e-4
-1.142, -2.444e-4
-1.141, -2.411e-4
-1.140, -2.395e-4
-1.139, -2.387e-4
-1.138, -2.371e-4
-1.137, -2.350e-4
-1.136, -2.322e-4
-1.135, -2.309e-4
-1.134, -2.304e-4
-1.133, -2.292e-4
-1.132, -2.272e-4
-1.131, -2.249e-4
-1.130, -2.240e-4
-1.129, -2.237e-4
-1.128, -2.222e-4
-1.127, -2.203e-4
-1.126, -2.184e-4
-1.125, -2.175e-4
-1.124, -2.173e-4
-1.123, -2.164e-4
-1.122, -2.141e-4
-1.121, -2.117e-4
-1.120, -2.108e-4
-1.119, -2.107e-4
-1.118, -2.098e-4
-1.117, -2.077e-4
-1.116, -2.059e-4
-1.115, -2.053e-4
-1.114, -2.050e-4
-1.113, -2.041e-4
-1.112, -2.022e-4
-1.111, -2.004e-4
-1.110, -1.997e-4
-1.109, -1.999e-4
-1.108, -1.982e-4
-1.107, -1.979e-4
-1.106, -1.957e-4
-1.105, -1.952e-4
-1.104, -1.955e-4
-1.103, -1.947e-4
-1.102, -1.932e-4
-1.101, -1.916e-4
-1.100, -1.915e-4
-1.099, -1.919e-4
-1.098, -1.915e-4
-1.097, -1.902e-4
-1.096, -1.889e-4
-1.095, -1.884e-4
-1.094, -1.883e-4
-1.093, -1.878e-4
-1.092, -1.867e-4
-1.091, -1.858e-4
-1.090, -1.860e-4
-1.089, -1.863e-4
-1.088, -1.861e-4
-1.087, -1.850e-4
-1.086, -1.841e-4
-1.085, -1.839e-4
-1.084, -1.845e-4
-1.083, -1.844e-4
-1.082, -1.834e-4
-1.081, -1.826e-4
-1.080, -1.822e-4
-1.079, -1.829e-4
-1.078, -1.828e-4
-1.077, -1.818e-4
-1.076, -1.809e-4
-1.075, -1.813e-4
-1.074, -1.820e-4
-1.073, -1.823e-4
-1.072, -1.810e-4
-1.071, -1.800e-4
-1.070, -1.807e-4
-1.069, -1.814e-4
-1.068, -1.813e-4
-1.067, -1.807e-4
-1.066, -1.800e-4
-1.065, -1.807e-4
-1.064, -1.813e-4
-1.063, -1.812e-4
-1.062, -1.808e-4
-1.061, -1.798e-4
-1.060, -1.799e-4
-1.059, -1.810e-4
-1.058, -1.812e-4
-1.057, -1.806e-4
-1.056, -1.797e-4
-1.055, -1.803e-4
-1.054, -1.814e-4
-1.053, -1.816e-4
-1.052, -1.807e-4
-1.051, -1.801e-4
-1.050, -1.807e-4
-1.049, -1.819e-4
-1.048, -1.823e-4
-1.047, -1.816e-4
-1.046, -1.811e-4
-1.045, -1.816e-4
-1.044, -1.827e-4
-1.043, -1.832e-4
-1.042, -1.826e-4
-1.041, -1.823e-4
-1.040, -1.827e-4
-1.039, -1.838e-4
-1.038, -1.843e-4
-1.037, -1.837e-4
-1.036, -1.831e-4
-1.035, -1.838e-4
-1.034, -1.853e-4
-1.033, -1.858e-4
-1.032, -1.849e-4
-1.031, -1.845e-4
-1.030, -1.851e-4
-1.029, -1.860e-4
-1.028, -1.865e-4
-1.027, -1.861e-4
-1.026, -1.856e-4
-1.025, -1.864e-4
-1.024, -1.874e-4
-1.023, -1.877e-4
-1.022, -1.874e-4
-1.021, -1.867e-4
-1.020, -1.875e-4
-1.019, -1.886e-4
-1.018, -1.890e-4
-1.017, -1.886e-4
-1.016, -1.880e-4
-1.015, -1.889e-4
-1.014, -1.900e-4
-1.013, -1.904e-4
-1.012, -1.900e-4
-1.011, -1.897e-4
-1.010, -1.903e-4
-1.009, -1.915e-4
-1.008, -1.921e-4
-1.007, -1.917e-4
-1.006, -1.915e-4
-1.005, -1.919e-4
-1.004, -1.932e-4
-1.003, -1.937e-4
-1.002, -1.930e-4
-1.001, -1.932e-4
-1.000, -1.656e-4
-1.001, -1.411e-4
-1.002, -1.274e-4
-1.003, -1.159e-4
-1.004, -1.058e-4
-1.005, -9.812e-5
-1.006, -9.184e-5
-1.007, -8.532e-5
-1.008, -7.873e-5
-1.009, -7.226e-5
-1.010, -6.763e-5
-1.011, -6.409e-5
-1.012, -6.003e-5
-1.013, -5.520e-5
-1.014, -5.040e-5
-1.015, -4.723e-5
-1.016, -4.490e-5
-1.017, -4.145e-5
-1.018, -3.752e-5
-1.019, -3.415e-5
-1.020, -3.152e-5
-1.021, -3.010e-5
-1.022, -2.789e-5
-1.023, -2.451e-5
-1.024, -2.150e-5
-1.025, -1.979e-5
-1.026, -1.838e-5
-1.027, -1.653e-5
-1.028, -1.382e-5
-1.029, -1.116e-5
-1.030, -9.813e-6
-1.031, -8.808e-6
-1.032, -7.549e-6
-1.033, -5.169e-6
-1.034, -2.839e-6
-1.035, -1.725e-6
-1.036, -9.720e-7
-1.037, 1.478e-7
-1.038, 2.446e-6
-1.039, 4.566e-6
-1.040, 5.530e-6
-1.041, 5.924e-6
-1.042, 7.120e-6
-1.043, 8.927e-6
-1.044, 1.102e-5
-1.045, 1.174e-5
-1.046, 1.194e-5
-1.047, 1.312e-5
-1.048, 1.481e-5
-1.049, 1.658e-5
-1.050, 1.753e-5
-1.051, 1.754e-5
-1.052, 1.841e-5
-1.053, 1.770e-5
-1.054, 2.014e-5
-1.055, 2.248e-5
-1.056, 2.254e-5
-1.057, 2.341e-5
-1.058, 2.514e-5
-1.059, 2.682e-5
-1.060, 2.741e-5
-1.061, 2.731e-5
-1.062, 2.805e-5
-1.063, 2.978e-5
-1.064, 3.122e-5
-1.065, 3.180e-5
-1.066, 3.172e-5
-1.067, 3.223e-5
-1.068, 3.389e-5
-1.069, 3.550e-5
-1.070, 3.608e-5
-1.071, 3.599e-5
-1.072, 3.642e-5
-1.073, 3.801e-5
-1.074, 3.963e-5
-1.075, 4.028e-5
-1.076, 4.011e-5
-1.077, 4.053e-5
-1.078, 4.200e-5
-1.079, 4.363e-5
-1.080, 4.387e-5
-1.081, 4.384e-5
-1.082, 4.436e-5
-1.083, 4.567e-5
-1.084, 4.731e-5
-1.085, 4.764e-5
-1.086, 4.740e-5
-1.087, 4.801e-5
-1.088, 4.932e-5
-1.089, 5.088e-5
-1.090, 5.134e-5
-1.091, 5.097e-5
-1.092, 5.158e-5
-1.093, 5.288e-5
-1.094, 5.436e-5
-1.095, 5.490e-5
-1.096, 5.450e-5
-1.097, 5.497e-5
-1.098, 5.651e-5
-1.099, 5.807e-5
-1.100, 5.831e-5
-1.101, 5.810e-5
-1.102, 5.854e-5
-1.103, 6.008e-5
-1.104, 6.130e-5
-1.105, 6.183e-5
-1.106, 6.157e-5
-1.107, 6.181e-5
-1.108, 6.329e-5
-1.109, 6.482e-5
-1.110, 6.530e-5
-1.111, 6.507e-5
-1.112, 6.533e-5
-1.113, 6.678e-5
-1.114, 6.825e-5
-1.115, 6.860e-5
-1.116, 6.842e-5
-1.117, 6.885e-5
-1.118, 7.023e-5
-1.119, 7.177e-5
-1.120, 7.219e-5
-1.121, 7.192e-5
-1.122, 7.240e-5
-1.123, 7.335e-5
-1.124, 7.494e-5
-1.125, 7.556e-5
-1.126, 7.551e-5
-1.127, 7.601e-5
-1.128, 7.728e-5
-1.129, 7.882e-5
-1.130, 7.939e-5
-1.131, 7.922e-5
-1.132, 7.971e-5
-1.133, 8.119e-5
-1.134, 8.269e-5
-1.135, 8.327e-5
-1.136, 8.295e-5
-1.137, 8.357e-5
-1.138, 8.497e-5
-1.139, 8.648e-5
-1.140, 8.718e-5
-1.141, 8.702e-5
-1.142, 8.751e-5
-1.143, 8.911e-5
-1.144, 9.058e-5
-1.145, 9.125e-5
-1.146, 9.120e-5
-1.147, 9.164e-5
-1.148, 9.334e-5
-1.149, 9.482e-5
-1.150, 9.551e-5
-1.151, 9.555e-5
-1.152, 9.614e-5
-1.153, 9.766e-5
-1.154, 9.937e-5
-1.155, 1.000e-4
-1.156, 1.002e-4
-1.157, 1.008e-4
-1.158, 1.024e-4
-1.159, 1.043e-4
-1.160, 1.048e-4
-1.161, 1.050e-4
-1.162, 1.057e-4
-1.163, 1.073e-4
-1.164, 1.092e-4
-1.165, 1.100e-4
-1.166, 1.101e-4
-1.167, 1.109e-4
-1.168, 1.125e-4
-1.169, 1.146e-4
-1.170, 1.154e-4
-1.171, 1.155e-4
-1.172, 1.165e-4
-1.173, 1.181e-4
-1.174, 1.201e-4
-1.175, 1.212e-4
-1.176, 1.213e-4
-1.177, 1.223e-4
-1.178, 1.242e-4
-1.179, 1.261e-4
-1.180, 1.273e-4
-1.181, 1.274e-4
-1.182, 1.284e-4
-1.183, 1.305e-4
-1.184, 1.324e-4
-1.185, 1.336e-4
-1.186, 1.340e-4
-1.187, 1.348e-4
-1.188, 1.371e-4
-1.189, 1.392e-4
-1.190, 1.403e-4
-1.191, 1.409e-4
-1.192, 1.419e-4
-1.193, 1.441e-4
-1.194, 1.463e-4
-1.195, 1.476e-4
-1.196, 1.483e-4
-1.197, 1.494e-4
-1.198, 1.515e-4
-1.199, 1.541e-4
-1.200, 1.553e-4
-1.201, 1.560e-4
-1.202, 1.573e-4
-1.203, 1.595e-4
-1.204, 1.621e-4
-1.205, 1.634e-4
-1.206, 1.640e-4
-1.207, 1.656e-4
-1.208, 1.678e-4
-1.209, 1.705e-4
-1.210, 1.722e-4
-1.211, 1.728e-4
-1.212, 1.744e-4
-1.213, 1.767e-4
-1.214, 1.794e-4
-1.215, 1.813e-4
-1.216, 1.819e-4
-1.217, 1.834e-4
-1.218, 1.861e-4
-1.219, 1.888e-4
-1.220, 1.906e-4
-1.221, 1.914e-4
-1.222, 1.931e-4
-1.223, 1.956e-4
-1.224, 1.983e-4
-1.225, 2.003e-4
-1.226, 2.010e-4
-1.227, 2.027e-4
-1.228, 2.058e-4
-1.229, 2.092e-4
-1.230, 2.107e-4
-1.231, 2.120e-4
-1.232, 2.136e-4
-1.233, 2.165e-4
-1.234, 2.197e-4
-1.235, 2.217e-4
-1.236, 2.229e-4
-1.237, 2.241e-4
-1.238, 2.272e-4
-1.239, 2.303e-4
-1.240, 2.324e-4
-1.241, 2.338e-4
-1.242, 2.359e-4
-1.243, 2.384e-4
-1.244, 2.412e-4
-1.245, 2.432e-4
-1.246, 2.447e-4
-1.247, 2.465e-4
-1.248, 2.490e-4
-1.249, 2.519e-4
-1.250, 2.546e-4
-1.251, 2.564e-4
-1.252, 2.592e-4
-1.253, 2.626e-4
-1.254, 2.657e-4
-1.255, 2.678e-4
-1.256, 2.683e-4
-1.257, 2.700e-4
-1.258, 2.726e-4
-1.259, 2.755e-4
-1.260, 2.775e-4
-1.261, 2.787e-4
-1.262, 2.803e-4
-1.263, 2.828e-4
-1.264, 2.851e-4
-1.265, 2.871e-4
-1.266, 2.880e-4
-1.267, 2.893e-4
-1.268, 2.916e-4
-1.269, 2.941e-4
-1.270, 2.955e-4
-1.271, 2.961e-4
-1.272, 2.969e-4
-1.273, 2.991e-4
-1.274, 3.016e-4
-1.275, 3.031e-4
-1.276, 3.034e-4
-1.277, 3.040e-4
-1.278, 3.058e-4
-1.279, 3.077e-4
-1.280, 3.090e-4
-1.281, 3.089e-4
-1.282, 3.094e-4
-1.283, 3.109e-4
-1.284, 3.127e-4
-1.285, 3.134e-4
-1.286, 3.132e-4
-1.287, 3.132e-4
-1.288, 3.142e-4
-1.289, 3.160e-4
-1.290, 3.164e-4
-1.291, 3.154e-4
-1.292, 3.148e-4
-1.293, 3.154e-4
-1.294, 3.160e-4
-1.295, 3.165e-4
-1.296, 3.154e-4
-1.297, 3.146e-4
-1.298, 3.151e-4
-1.299, 3.154e-4
-1.300, 3.147e-4
-1.301, 3.128e-4
-1.302, 3.116e-4
-1.303, 3.113e-4
-1.304, 3.111e-4
-1.305, 3.104e-4
-1.306, 3.081e-4
-1.307, 3.064e-4
-1.308, 3.060e-4
-1.309, 3.058e-4
-1.310, 3.051e-4
-1.311, 3.030e-4
-1.312, 3.011e-4
-1.313, 3.006e-4
-1.314, 3.011e-4
-1.315, 2.997e-4
-1.316, 2.974e-4
-1.317, 2.952e-4
-1.318, 2.947e-4
-1.319, 2.947e-4
-1.320, 2.933e-4
-1.321, 2.915e-4
-1.322, 2.905e-4
-1.323, 2.905e-4
-1.324, 2.895e-4
-1.325, 2.883e-4
-1.326, 2.876e-4
-1.327, 2.873e-4
-1.328, 2.871e-4
-1.329, 2.878e-4
-1.330, 2.875e-4
-1.331, 2.868e-4
-1.332, 2.865e-4
-1.333, 2.873e-4
-1.334, 2.884e-4
-1.335, 2.881e-4
-1.336, 2.874e-4
-1.337, 2.876e-4
-1.338, 2.891e-4
-1.339, 2.913e-4
-1.340, 2.928e-4
-1.341, 2.929e-4
-1.342, 2.934e-4
-1.343, 2.959e-4
-1.344, 2.985e-4
-1.345, 3.002e-4
-1.346, 3.005e-4
-1.347, 3.013e-4
-1.348, 3.035e-4
-1.349, 3.046e-4
-1.350, 3.065e-4
-1.351, 3.077e-4
-1.352, 3.094e-4
-1.353, 3.125e-4
-1.354, 3.159e-4
-1.355, 3.182e-4
-1.356, 3.197e-4
-1.357, 3.219e-4
-1.358, 3.250e-4
-1.359, 3.283e-4
-1.360, 3.307e-4
-1.361, 3.323e-4
-1.362, 3.341e-4
-1.363, 3.375e-4
-1.364, 3.407e-4
-1.365, 3.430e-4
-1.366, 3.447e-4
-1.367, 3.467e-4
-1.368, 3.496e-4
-1.369, 3.529e-4
-1.370, 3.551e-4
-1.371, 3.561e-4
-1.372, 3.585e-4
-1.373, 3.617e-4
-1.374, 3.646e-4
-1.375, 3.669e-4
-1.376, 3.675e-4
-1.377, 3.685e-4
-1.378, 3.714e-4
-1.379, 3.738e-4
-1.380, 3.760e-4
-1.381, 3.771e-4
-1.382, 3.790e-4
-1.383, 3.815e-4
-1.384, 3.838e-4
-1.385, 3.859e-4
-1.386, 3.869e-4
-1.387, 3.880e-4
-1.388, 3.910e-4
-1.389, 3.944e-4
-1.390, 3.967e-4
-1.391, 3.978e-4
-1.392, 3.994e-4
-1.393, 4.028e-4
-1.394, 4.066e-4
-1.395, 4.097e-4
-1.396, 4.122e-4
-1.397, 4.155e-4
-1.398, 4.200e-4
-1.399, 4.252e-4
-1.400, 4.292e-4
-1.401, 4.336e-4
-1.402, 4.384e-4
-1.403, 4.442e-4
-1.404, 4.515e-4
-1.405, 4.582e-4
-1.406, 4.647e-4
-1.407, 4.726e-4
-1.408, 4.814e-4
-1.409, 4.907e-4
-1.410, 4.998e-4
-1.411, 5.093e-4
-1.412, 5.202e-4
-1.413, 5.319e-4
-1.414, 5.449e-4
-1.415, 5.572e-4
-1.416, 5.692e-4
-1.417, 5.827e-4
-1.418, 5.970e-4
-1.419, 6.123e-4
-1.420, 6.281e-4
-1.421, 6.437e-4
-1.422, 6.594e-4
-1.423, 6.777e-4
-1.424, 6.966e-4
-1.425, 7.155e-4
-1.426, 7.338e-4
-1.427, 7.539e-4
-1.428, 7.757e-4
-1.429, 7.958e-4
-1.430, 8.163e-4
-1.431, 8.371e-4
-1.432, 8.594e-4
-1.433, 8.844e-4
-1.434, 9.093e-4
-1.435, 9.332e-4
-1.436, 9.590e-4
-1.437, 9.852e-4
-1.438, 1.012e-3
-1.439, 1.039e-3
-1.440, 1.066e-3
-1.441, 1.094e-3
-1.442, 1.123e-3
-1.443, 1.153e-3
-1.444, 1.184e-3
-1.445, 1.215e-3
-1.446, 1.247e-3
-1.447, 1.280e-3
-1.448, 1.314e-3
-1.449, 1.348e-3
-1.450, 1.379e-3
-1.451, 1.408e-3
-1.452, 1.441e-3
-1.453, 1.476e-3
-1.454, 1.514e-3
-1.455, 1.551e-3
-1.456, 1.587e-3
-1.457, 1.622e-3
-1.458, 1.661e-3
-1.459, 1.698e-3
-1.460, 1.733e-3
-1.461, 1.769e-3
-1.462, 1.808e-3
-1.463, 1.849e-3
-1.464, 1.885e-3
-1.465, 1.916e-3
-1.466, 1.950e-3
-1.467, 1.988e-3
-1.468, 2.027e-3
-1.469, 2.065e-3
-1.470, 2.103e-3
-1.471, 2.137e-3
-1.472, 2.171e-3
-1.473, 2.209e-3
-1.474, 2.251e-3
-1.475, 2.294e-3
-1.476, 2.326e-3
-1.477, 2.366e-3
-1.478, 2.407e-3
-1.479, 2.450e-3
-1.480, 2.492e-3
-1.481, 2.540e-3
-1.482, 2.586e-3
-1.483, 2.632e-3
-1.484, 2.679e-3
-1.485, 2.722e-3
-1.486, 2.768e-3
-1.487, 2.807e-3
-1.488, 2.847e-3
-1.489, 2.888e-3
-1.490, 2.935e-3
-1.491, 2.978e-3
-1.492, 3.021e-3
-1.493, 3.069e-3
-1.494, 3.122e-3
-1.495, 3.170e-3
-1.496, 3.218e-3
-1.497, 3.258e-3
-1.498, 3.300e-3
-1.499, 3.358e-3
-1.500, 3.354e-3
-1.499, 3.299e-3
-1.498, 3.243e-3
-1.497, 3.196e-3
-1.496, 3.150e-3
-1.495, 3.111e-3
-1.494, 3.049e-3
-1.493, 2.991e-3
-1.492, 2.942e-3
-1.491, 2.885e-3
-1.490, 2.831e-3
-1.489, 2.778e-3
-1.488, 2.733e-3
-1.487, 2.683e-3
-1.486, 2.630e-3
-1.485, 2.583e-3
-1.484, 2.532e-3
-1.483, 2.484e-3
-1.482, 2.434e-3
-1.481, 2.386e-3
-1.480, 2.337e-3
-1.479, 2.287e-3
-1.478, 2.243e-3
-1.477, 2.200e-3
-1.476, 2.158e-3
-1.475, 2.113e-3
-1.474, 2.078e-3
-1.473, 2.040e-3
-1.472, 2.003e-3
-1.471, 1.971e-3
-1.470, 1.929e-3
-1.469, 1.888e-3
-1.468, 1.847e-3
-1.467, 1.814e-3
-1.466, 1.775e-3
-1.465, 1.737e-3
-1.464, 1.697e-3
-1.463, 1.658e-3
-1.462, 1.618e-3
-1.461, 1.584e-3
-1.460, 1.552e-3
-1.459, 1.519e-3
-1.458, 1.485e-3
-1.457, 1.449e-3
-1.456, 1.413e-3
-1.455, 1.380e-3
-1.454, 1.348e-3
-1.453, 1.317e-3
-1.452, 1.287e-3
-1.451, 1.255e-3
-1.450, 1.224e-3
-1.449, 1.194e-3
-1.448, 1.164e-3
-1.447, 1.136e-3
-1.446, 1.109e-3
-1.445, 1.081e-3
-1.444, 1.053e-3
-1.443, 1.025e-3
-1.442, 9.991e-4
-1.441, 9.930e-4
-1.440, 9.804e-4
-1.439, 9.505e-4
-1.438, 9.248e-4
-1.437, 8.955e-4
-1.436, 8.711e-4
-1.435, 8.485e-4
-1.434, 8.260e-4
-1.433, 8.034e-4
-1.432, 7.806e-4
-1.431, 7.595e-4
-1.430, 7.378e-4
-1.429, 7.182e-4
-1.428, 6.982e-4
-1.427, 6.793e-4
-1.426, 6.605e-4
-1.425, 6.419e-4
-1.424, 6.215e-4
-1.423, 6.041e-4
-1.422, 5.865e-4
-1.421, 5.711e-4
-1.420, 5.545e-4
-1.419, 5.397e-4
-1.418, 5.228e-4
-1.417, 5.093e-4
-1.416, 4.982e-4
-1.415, 4.823e-4
-1.414, 4.671e-4
-1.413, 4.506e-4
-1.412, 4.383e-4
-1.411, 4.257e-4
-1.410, 4.134e-4
-1.409, 4.015e-4
-1.408, 3.894e-4
-1.407, 3.778e-4
-1.406, 3.685e-4
-1.405, 3.571e-4
-1.404, 3.452e-4
-1.403, 3.341e-4
-1.402, 3.252e-4
-1.401, 3.158e-4
-1.400, 3.073e-4
-1.399, 2.972e-4
-1.398, 2.870e-4
-1.397, 2.796e-4
-1.396, 2.725e-4
-1.395, 2.647e-4
-1.394, 2.558e-4
-1.393, 2.476e-4
-1.392, 2.414e-4
-1.391, 2.344e-4
-1.390, 2.275e-4
-1.389, 2.202e-4
-1.388, 2.141e-4
-1.387, 2.068e-4
-1.386, 2.008e-4
-1.385, 1.943e-4
-1.384, 1.882e-4
-1.383, 1.819e-4
-1.382, 1.766e-4
-1.381, 1.717e-4
-1.380, 1.665e-4
-1.379, 1.606e-4
-1.378, 1.547e-4
-1.377, 1.497e-4
-1.376, 1.461e-4
-1.375, 1.420e-4
-1.374, 1.375e-4
-1.373, 1.325e-4
-1.372, 1.286e-4
-1.371, 1.249e-4
-1.370, 1.210e-4
-1.369, 1.169e-4
-1.368, 1.123e-4
-1.367, 1.096e-4
-1.366, 1.063e-4
-1.365, 1.032e-4
-1.364, 9.846e-5
-1.363, 9.404e-5
-1.362, 9.150e-5
-1.361, 8.938e-5
-1.360, 8.646e-5
-1.359, 8.274e-5
-1.358, 7.888e-5
-1.357, 7.650e-5
-1.356, 7.499e-5
-1.355, 7.200e-5
-1.354, 6.836e-5
-1.353, 6.455e-5
-1.352, 6.250e-5
-1.351, 6.083e-5
-1.350, 5.813e-5
-1.349, 5.499e-5
-1.348, 5.173e-5
-1.347, 4.947e-5
-1.346, 4.796e-5
-1.345, 4.572e-5
-1.344, 4.270e-5
-1.343, 3.974e-5
-1.342, 3.796e-5
-1.341, 3.697e-5
-1.340, 3.513e-5
-1.339, 3.291e-5
-1.338, 2.984e-5
-1.337, 2.799e-5
-1.336, 2.681e-5
-1.335, 2.456e-5
-1.334, 2.166e-5
-1.333, 1.914e-5
-1.332, 1.751e-5
-1.331, 1.658e-5
-1.330, 1.470e-5
-1.329, 1.197e-5
-1.328, 9.397e-6
-1.327, 8.001e-6
-1.326, 6.833e-6
-1.325, 5.430e-6
-1.324, 2.904e-6
-1.323, 1.991e-7
-1.322, -1.093e-6
-1.321, -1.858e-6
-1.320, -3.072e-6
-1.319, -5.657e-6
-1.318, -8.112e-6
-1.317, -8.961e-6
-1.316, -9.786e-6
-1.315, -1.112e-5
-1.314, -1.322e-5
-1.313, -1.574e-5
-1.312, -1.694e-5
-1.311, -1.745e-5
-1.310, -1.874e-5
-1.309, -2.112e-5
-1.308, -2.346e-5
-1.307, -2.448e-5
-1.306, -2.460e-5
-1.305, -2.621e-5
-1.304, -2.848e-5
-1.303, -3.074e-5
-1.302, -3.193e-5
-1.301, -3.235e-5
-1.300, -3.347e-5
-1.299, -3.586e-5
-1.298, -3.795e-5
-1.297, -3.924e-5
-1.296, -3.939e-5
-1.295, -4.038e-5
-1.294, -4.272e-5
-1.293, -4.471e-5
-1.292, -4.582e-5
-1.291, -4.609e-5
-1.290, -4.707e-5
-1.289, -4.920e-5
-1.288, -5.118e-5
-1.287, -5.225e-5
-1.286, -5.308e-5
-1.285, -5.357e-5
-1.284, -5.554e-5
-1.283, -5.769e-5
-1.282, -5.850e-5
-1.281, -5.909e-5
-1.280, -6.023e-5
-1.279, -6.213e-5
-1.278, -6.435e-5
-1.277, -6.530e-5
-1.276, -6.562e-5
-1.275, -6.658e-5
-1.274, -6.841e-5
-1.273, -7.079e-5
-1.272, -7.173e-5
-1.271, -7.210e-5
-1.270, -7.321e-5
-1.269, -7.526e-5
-1.268, -7.749e-5
-1.267, -7.890e-5
-1.266, -7.916e-5
-1.265, -8.026e-5
-1.264, -8.246e-5
-1.263, -8.484e-5
-1.262, -8.590e-5
-1.261, -8.611e-5
-1.260, -8.716e-5
-1.259, -8.958e-5
-1.258, -9.171e-5
-1.257, -9.307e-5
-1.256, -9.344e-5
-1.255, -9.480e-5
-1.254, -9.745e-5
-1.253, -9.948e-5
-1.252, -1.011e-4
-1.251, -1.019e-4
-1.250, -1.030e-4
-1.249, -1.058e-4
-1.248, -1.084e-4
-1.247, -1.099e-4
-1.246, -1.109e-4
-1.245, -1.123e-4
-1.244, -1.151e-4
-1.243, -1.177e-4
-1.242, -1.198e-4
-1.241, -1.208e-4
-1.240, -1.222e-4
-1.239, -1.253e-4
-1.238, -1.285e-4
-1.237, -1.302e-4
-1.236, -1.315e-4
-1.235, -1.337e-4
-1.234, -1.367e-4
-1.233, -1.401e-4
-1.232, -1.422e-4
-1.231, -1.436e-4
-1.230, -1.460e-4
-1.229, -1.501e-4
-1.228, -1.532e-4
-1.227, -1.557e-4
-1.226, -1.573e-4
-1.225, -1.597e-4
-1.224, -1.630e-4
-1.223, -1.668e-4
-1.222, -1.698e-4
-1.221, -1.709e-4
-1.220, -1.734e-4
-1.219, -1.771e-4
-1.218, -1.810e-4
-1.217, -1.839e-4
-1.216, -1.857e-4
-1.215, -1.885e-4
-1.214, -1.927e-4
-1.213, -1.962e-4
-1.212, -1.990e-4
-1.211, -2.008e-4
-1.210, -2.035e-4
-1.209, -2.072e-4
-1.208, -2.109e-4
-1.207, -2.138e-4
-1.206, -2.157e-4
-1.205, -2.180e-4
-1.204, -2.218e-4
-1.203, -2.257e-4
-1.202, -2.283e-4
-1.201, -2.299e-4
-1.200, -2.319e-4
-1.199, -2.355e-4
-1.198, -2.389e-4
-1.197, -2.412e-4
-1.196, -2.428e-4
-1.195, -2.449e-4
-1.194, -2.477e-4
-1.193, -2.508e-4
-1.192, -2.525e-4
-1.191, -2.536e-4
-1.190, -2.552e-4
-1.189, -2.578e-4
-1.188, -2.600e-4
-1.187, -2.616e-4
-1.186, -2.620e-4
-1.185, -2.641e-4
-1.184, -2.656e-4
-1.183, -2.671e-4
-1.182, -2.682e-4
-1.181, -2.680e-4
-1.180, -2.684e-4
-1.179, -2.699e-4
-1.178, -2.717e-4
-1.177, -2.721e-4
-1.176, -2.712e-4
-1.175, -2.712e-4
-1.174, -2.723e-4
-1.173, -2.729e-4
-1.172, -2.727e-4
-1.171, -2.716e-4
-1.170, -2.707e-4
-1.169, -2.710e-4
-1.168, -2.714e-4
-1.167, -2.710e-4
-1.166, -2.694e-4
-1.165, -2.677e-4
-1.164, -2.673e-4
-1.163, -2.671e-4
-1.162, -2.661e-4
-1.161, -2.643e-4
-1.160, -2.628e-4
-1.159, -2.642e-4
-1.158, -2.626e-4
-1.157, -2.607e-4
-1.156, -2.583e-4
-1.155, -2.562e-4
-1.154, -2.552e-4
-1.153, -2.548e-4
-1.152, -2.526e-4
-1.151, -2.504e-4
-1.150, -2.485e-4
-1.149, -2.474e-4
-1.148, -2.465e-4
-1.147, -2.447e-4
-1.146, -2.421e-4
-1.145, -2.401e-4
-1.144, -2.389e-4
-1.143, -2.380e-4
-1.142, -2.362e-4
-1.141, -2.335e-4
-1.140, -2.312e-4
-1.139, -2.304e-4
-1.138, -2.294e-4
-1.137, -2.278e-4
-1.136, -2.250e-4
-1.135, -2.227e-4
-1.134, -2.221e-4
-1.133, -2.212e-4
-1.132, -2.196e-4
-1.131, -2.177e-4
-1.130, -2.173e-4
-1.129, -2.150e-4
-1.128, -2.140e-4
-1.127, -2.126e-4
-1.126, -2.101e-4
-1.125, -2.075e-4
-1.124, -2.068e-4
-1.123, -2.063e-4
-1.122, -2.051e-4
-1.121, -2.032e-4
-1.120, -2.012e-4
-1.119, -2.011e-4
-1.118, -2.011e-4
-1.117, -2.000e-4
-1.116, -1.980e-4
-1.115, -1.987e-4
-1.114, -1.988e-4
-1.113, -1.969e-4
-1.112, -1.952e-4
-1.111, -1.931e-4
-1.110, -1.920e-4
-1.109, -1.917e-4
-1.108, -1.918e-4
-1.107, -1.909e-4
-1.106, -1.894e-4
-1.105, -1.886e-4
-1.104, -1.885e-4
-1.103, -1.885e-4
-1.102, -1.878e-4
-1.101, -1.871e-4
-1.100, -1.854e-4
-1.099, -1.859e-4
-1.098, -1.865e-4
-1.097, -1.854e-4
-1.096, -1.839e-4
-1.095, -1.832e-4
-1.094, -1.833e-4
-1.093, -1.835e-4
-1.092, -1.830e-4
-1.091, -1.842e-4
-1.090, -1.822e-4
-1.089, -1.821e-4
-1.088, -1.824e-4
-1.087, -1.822e-4
-1.086, -1.833e-4
-1.085, -1.810e-4
-1.084, -1.809e-4
-1.083, -1.814e-4
-1.082, -1.811e-4
-1.081, -1.793e-4
-1.080, -1.785e-4
-1.079, -1.792e-4
-1.078, -1.795e-4
-1.077, -1.790e-4
-1.076, -1.780e-4
-1.075, -1.777e-4
-1.074, -1.780e-4
-1.073, -1.790e-4
-1.072, -1.785e-4
-1.071, -1.778e-4
-1.070, -1.775e-4
-1.069, -1.782e-4
-1.068, -1.790e-4
-1.067, -1.790e-4
-1.066, -1.782e-4
-1.065, -1.781e-4
-1.064, -1.786e-4
-1.063, -1.792e-4
-1.062, -1.795e-4
-1.061, -1.791e-4
-1.060, -1.787e-4
-1.059, -1.788e-4
-1.058, -1.798e-4
-1.057, -1.800e-4
-1.056, -1.791e-4
-1.055, -1.788e-4
-1.054, -1.796e-4
-1.053, -1.806e-4
-1.052, -1.808e-4
-1.051, -1.803e-4
-1.050, -1.808e-4
-1.049, -1.817e-4
-1.048, -1.819e-4
-1.047, -1.820e-4
-1.046, -1.811e-4
-1.045, -1.809e-4
-1.044, -1.818e-4
-1.043, -1.825e-4
-1.042, -1.825e-4
-1.041, -1.820e-4
-1.040, -1.817e-4
-1.039, -1.826e-4
-1.038, -1.836e-4
-1.037, -1.839e-4
-1.036, -1.837e-4
-1.035, -1.834e-4
-1.034, -1.839e-4
-1.033, -1.852e-4
-1.032, -1.854e-4
-1.031, -1.851e-4
-1.030, -1.856e-4
-1.029, -1.861e-4
-1.028, -1.871e-4
-1.027, -1.874e-4
-1.026, -1.868e-4
-1.025, -1.868e-4
-1.024, -1.876e-4
-1.023, -1.984e-4
-1.022, -1.929e-4
-1.021, -1.886e-4
-1.020, -1.896e-4
-1.019, -1.922e-4
-1.018, -1.914e-4
-1.017, -1.901e-4
-1.016, -1.894e-4
-1.015, -1.900e-4
-1.014, -1.932e-4
-1.013, -1.977e-4
-1.012, -2.073e-4
-1.011, -1.972e-4
-1.010, -1.924e-4
-1.009, -1.929e-4
-1.008, -1.938e-4
-1.007, -1.942e-4
-1.006, -1.941e-4
-1.005, -1.944e-4
-1.004, -1.953e-4
-1.003, -1.963e-4
-1.002, -1.964e-4
-1.001, -1.957e-4
-1.000, -1.678e-4
-1.001, -1.434e-4
-1.002, -1.308e-4
-1.003, -1.198e-4
-1.004, -1.093e-4
-1.005, -1.009e-4
-1.006, -9.419e-5
-1.007, -8.859e-5
-1.008, -8.271e-5
-1.009, -7.631e-5
-1.010, -7.081e-5
-1.011, -6.676e-5
-1.012, -6.311e-5
-1.013, -5.918e-5
-1.014, -5.486e-5
-1.015, -5.088e-5
-1.016, -4.803e-5
-1.017, -4.605e-5
-1.018, -4.313e-5
-1.019, -3.925e-5
-1.020, -3.590e-5
-1.021, -3.399e-5
-1.022, -3.215e-5
-1.023, -2.953e-5
-1.024, -2.646e-5
-1.025, -2.389e-5
-1.026, -2.234e-5
-1.027, -2.129e-5
-1.028, -1.922e-5
-1.029, -1.637e-5
-1.030, -1.402e-5
-1.031, -1.258e-5
-1.032, -1.191e-5
-1.033, -1.006e-5
-1.034, -7.740e-6
-1.035, -5.642e-6
-1.036, -4.670e-6
-1.037, -4.056e-6
-1.038, -2.444e-6
-1.039, -2.981e-7
-1.040, 1.218e-6
-1.041, 2.046e-6
-1.042, 2.615e-6
-1.043, 3.890e-6
-1.044, 5.943e-6
-1.045, 7.567e-6
-1.046, 8.119e-6
-1.047, 8.488e-6
-1.048, 9.670e-6
-1.049, 1.178e-5
-1.050, 1.328e-5
-1.051, 1.367e-5
-1.052, 1.404e-5
-1.053, 1.506e-5
-1.054, 1.703e-5
-1.055, 1.867e-5
-1.056, 1.899e-5
-1.057, 1.910e-5
-1.058, 2.032e-5
-1.059, 2.206e-5
-1.060, 2.352e-5
-1.061, 2.370e-5
-1.062, 2.371e-5
-1.063, 2.489e-5
-1.064, 2.646e-5
-1.065, 2.764e-5
-1.066, 2.820e-5
-1.067, 2.802e-5
-1.068, 2.907e-5
-1.069, 3.072e-5
-1.070, 3.210e-5
-1.071, 3.246e-5
-1.072, 3.224e-5
-1.073, 3.317e-5
-1.074, 3.495e-5
-1.075, 3.630e-5
-1.076, 3.655e-5
-1.077, 3.633e-5
-1.078, 3.722e-5
-1.079, 3.897e-5
-1.080, 4.013e-5
-1.081, 4.025e-5
-1.082, 4.039e-5
-1.083, 4.101e-5
-1.084, 4.291e-5
-1.085, 4.394e-5
-1.086, 4.409e-5
-1.087, 4.428e-5
-1.088, 4.477e-5
-1.089, 4.650e-5
-1.090, 4.771e-5
-1.091, 4.787e-5
-1.092, 4.767e-5
-1.093, 4.845e-5
-1.094, 4.991e-5
-1.095, 5.128e-5
-1.096, 5.122e-5
-1.097, 5.123e-5
-1.098, 5.185e-5
-1.099, 5.336e-5
-1.100, 5.470e-5
-1.101, 5.472e-5
-1.102, 5.458e-5
-1.103, 5.539e-5
-1.104, 5.674e-5
-1.105, 5.812e-5
-1.106, 5.818e-5
-1.107, 5.790e-5
-1.108, 5.874e-5
-1.109, 6.022e-5
-1.110, 6.140e-5
-1.111, 6.161e-5
-1.112, 6.133e-5
-1.113, 6.216e-5
-1.114, 6.378e-5
-1.115, 6.495e-5
-1.116, 6.494e-5
-1.117, 6.481e-5
-1.118, 6.535e-5
-1.119, 6.709e-5
-1.120, 6.813e-5
-1.121, 6.846e-5
-1.122, 6.838e-5
-1.123, 6.889e-5
-1.124, 7.055e-5
-1.125, 7.175e-5
-1.126, 7.202e-5
-1.127, 7.206e-5
-1.128, 7.267e-5
-1.129, 7.440e-5
-1.130, 7.566e-5
-1.131, 7.569e-5
-1.132, 7.590e-5
-1.133, 7.653e-5
-1.134, 7.810e-5
-1.135, 7.943e-5
-1.136, 7.966e-5
-1.137, 7.967e-5
-1.138, 8.056e-5
-1.139, 8.205e-5
-1.140, 8.354e-5
-1.141, 8.371e-5
-1.142, 8.370e-5
-1.143, 8.462e-5
-1.144, 8.610e-5
-1.145, 8.756e-5
-1.146, 8.794e-5
-1.147, 8.794e-5
-1.148, 8.905e-5
-1.149, 9.051e-5
-1.150, 9.207e-5
-1.151, 9.254e-5
-1.152, 9.256e-5
-1.153, 9.348e-5
-1.154, 9.514e-5
-1.155, 9.649e-5
-1.156, 9.706e-5
-1.157, 9.703e-5
-1.158, 9.792e-5
-1.159, 9.990e-5
-1.160, 1.013e-4
-1.161, 1.019e-4
-1.162, 1.021e-4
-1.163, 1.030e-4
-1.164, 1.049e-4
-1.165, 1.065e-4
-1.166, 1.071e-4
-1.167, 1.074e-4
-1.168, 1.083e-4
-1.169, 1.102e-4
-1.170, 1.119e-4
-1.171, 1.124e-4
-1.172, 1.128e-4
-1.173, 1.137e-4
-1.174, 1.157e-4
-1.175, 1.176e-4
-1.176, 1.181e-4
-1.177, 1.186e-4
-1.178, 1.199e-4
-1.179, 1.218e-4
-1.180, 1.237e-4
-1.181, 1.242e-4
-1.182, 1.247e-4
-1.183, 1.260e-4
-1.184, 1.279e-4
-1.185, 1.298e-4
-1.186, 1.307e-4
-1.187, 1.310e-4
-1.188, 1.326e-4
-1.189, 1.345e-4
-1.190, 1.365e-4
-1.191, 1.375e-4
-1.192, 1.380e-4
-1.193, 1.397e-4
-1.194, 1.418e-4
-1.195, 1.438e-4
-1.196, 1.448e-4
-1.197, 1.453e-4
-1.198, 1.467e-4
-1.199, 1.493e-4
-1.200, 1.512e-4
-1.201, 1.523e-4
-1.202, 1.532e-4
-1.203, 1.546e-4
-1.204, 1.570e-4
-1.205, 1.591e-4
-1.206, 1.604e-4
-1.207, 1.613e-4
-1.208, 1.626e-4
-1.209, 1.650e-4
-1.210, 1.678e-4
-1.211, 1.687e-4
-1.212, 1.698e-4
-1.213, 1.712e-4
-1.214, 1.738e-4
-1.215, 1.765e-4
-1.216, 1.776e-4
-1.217, 1.788e-4
-1.218, 1.808e-4
-1.219, 1.832e-4
-1.220, 1.858e-4
-1.221, 1.867e-4
-1.222, 1.876e-4
-1.223, 1.894e-4
-1.224, 1.921e-4
-1.225, 1.949e-4
-1.226, 1.963e-4
-1.227, 1.973e-4
-1.228, 1.995e-4
-1.229, 2.026e-4
-1.230, 2.051e-4
-1.231, 2.066e-4
-1.232, 2.081e-4
-1.233, 2.100e-4
-1.234, 2.128e-4
-1.235, 2.154e-4
-1.236, 2.169e-4
-1.237, 2.180e-4
-1.238, 2.200e-4
-1.239, 2.229e-4
-1.240, 2.256e-4
-1.241, 2.270e-4
-1.242, 2.281e-4
-1.243, 2.299e-4
-1.244, 2.329e-4
-1.245, 2.357e-4
-1.246, 2.374e-4
-1.247, 2.387e-4
-1.248, 2.403e-4
-1.249, 2.434e-4
-1.250, 2.463e-4
-1.251, 2.478e-4
-1.252, 2.490e-4
-1.253, 2.506e-4
-1.254, 2.536e-4
-1.255, 2.570e-4
-1.256, 2.581e-4
-1.257, 2.603e-4
-1.258, 2.639e-4
-1.259, 2.660e-4
-1.260, 2.683e-4
-1.261, 2.693e-4
-1.262, 2.700e-4
-1.263, 2.716e-4
-1.264, 2.738e-4
-1.265, 2.762e-4
-1.266, 2.774e-4
-1.267, 2.780e-4
-1.268, 2.796e-4
-1.269, 2.817e-4
-1.270, 2.841e-4
-1.271, 2.852e-4
-1.272, 2.855e-4
-1.273, 2.867e-4
-1.274, 2.890e-4
-1.275, 2.911e-4
-1.276, 2.920e-4
-1.277, 2.924e-4
-1.278, 2.939e-4
-1.279, 2.956e-4
-1.280, 2.975e-4
-1.281, 2.978e-4
-1.282, 2.972e-4
-1.283, 2.977e-4
-1.284, 2.994e-4
-1.285, 3.001e-4
-1.286, 3.001e-4
-1.287, 2.998e-4
-1.288, 2.999e-4
-1.289, 3.011e-4
-1.290, 3.026e-4
-1.291, 3.021e-4
-1.292, 3.013e-4
-1.293, 3.007e-4
-1.294, 3.016e-4
-1.295, 3.024e-4
-1.296, 3.015e-4
-1.297, 2.999e-4
-1.298, 2.993e-4
-1.299, 2.995e-4
-1.300, 2.997e-4
-1.301, 2.986e-4
-1.302, 2.968e-4
-1.303, 2.960e-4
-1.304, 2.959e-4
-1.305, 2.960e-4
-1.306, 2.948e-4
-1.307, 2.932e-4
-1.308, 2.919e-4
-1.309, 2.915e-4
-1.310, 2.909e-4
-1.311, 2.890e-4
-1.312, 2.868e-4
-1.313, 2.853e-4
-1.314, 2.847e-4
-1.315, 2.842e-4
-1.316, 2.826e-4
-1.317, 2.801e-4
-1.318, 2.788e-4
-1.319, 2.785e-4
-1.320, 2.780e-4
-1.321, 2.767e-4
-1.322, 2.746e-4
-1.323, 2.730e-4
-1.324, 2.730e-4
-1.325, 2.730e-4
-1.326, 2.718e-4
-1.327, 2.704e-4
-1.328, 2.696e-4
-1.329, 2.700e-4
-1.330, 2.707e-4
-1.331, 2.700e-4
-1.332, 2.691e-4
-1.333, 2.688e-4
-1.334, 2.698e-4
-1.335, 2.713e-4
-1.336, 2.711e-4
-1.337, 2.709e-4
-1.338, 2.714e-4
-1.339, 2.737e-4
-1.340, 2.758e-4
-1.341, 2.763e-4
-1.342, 2.762e-4
-1.343, 2.775e-4
-1.344, 2.798e-4
-1.345, 2.826e-4
-1.346, 2.838e-4
-1.347, 2.847e-4
-1.348, 2.863e-4
-1.349, 2.888e-4
-1.350, 2.918e-4
-1.351, 2.935e-4
-1.352, 2.948e-4
-1.353, 2.969e-4
-1.354, 3.005e-4
-1.355, 3.033e-4
-1.356, 3.051e-4
-1.357, 3.062e-4
-1.358, 3.086e-4
-1.359, 3.120e-4
-1.360, 3.155e-4
-1.361, 3.169e-4
-1.362, 3.185e-4
-1.363, 3.206e-4
-1.364, 3.245e-4
-1.365, 3.277e-4
-1.366, 3.297e-4
-1.367, 3.314e-4
-1.368, 3.334e-4
-1.369, 3.369e-4
-1.370, 3.401e-4
-1.371, 3.417e-4
-1.372, 3.428e-4
-1.373, 3.449e-4
-1.374, 3.477e-4
-1.375, 3.508e-4
-1.376, 3.517e-4
-1.377, 3.527e-4
-1.378, 3.546e-4
-1.379, 3.572e-4
-1.380, 3.600e-4
-1.381, 3.608e-4
-1.382, 3.617e-4
-1.383, 3.630e-4
-1.384, 3.652e-4
-1.385, 3.677e-4
-1.386, 3.689e-4
-1.387, 3.695e-4
-1.388, 3.714e-4
-1.389, 3.743e-4
-1.390, 3.767e-4
-1.391, 3.782e-4
-1.392, 3.796e-4
-1.393, 3.815e-4
-1.394, 3.847e-4
-1.395, 3.874e-4
-1.396, 3.894e-4
-1.397, 3.914e-4
-1.398, 3.944e-4
-1.399, 3.989e-4
-1.400, 4.031e-4
-1.401, 4.068e-4
-1.402, 4.108e-4
-1.403, 4.153e-4
-1.404, 4.214e-4
-1.405, 4.276e-4
-1.406, 4.334e-4
-1.407, 4.390e-4
-1.408, 4.463e-4
-1.409, 4.553e-4
-1.410, 4.640e-4
-1.411, 4.721e-4
-1.412, 4.809e-4
-1.413, 4.912e-4
-1.414, 5.025e-4
-1.415, 5.139e-4
-1.416, 5.245e-4
-1.417, 5.360e-4
-1.418, 5.485e-4
-1.419, 5.626e-4
-1.420, 5.777e-4
-1.421, 5.920e-4
-1.422, 6.067e-4
-1.423, 6.237e-4
-1.424, 6.566e-4
-1.425, 6.739e-4
-1.426, 6.872e-4
-1.427, 7.012e-4
-1.428, 7.181e-4
-1.429, 7.369e-4
-1.430, 7.566e-4
-1.431, 7.766e-4
-1.432, 7.972e-4
-1.433, 8.190e-4
-1.434, 8.424e-4
-1.435, 8.655e-4
-1.436, 8.889e-4
-1.437, 9.132e-4
-1.438, 9.353e-4
-1.439, 9.604e-4
-1.440, 9.872e-4
-1.441, 1.014e-3
-1.442, 1.040e-3
-1.443, 1.068e-3
-1.444, 1.096e-3
-1.445, 1.125e-3
-1.446, 1.154e-3
-1.447, 1.185e-3
-1.448, 1.217e-3
-1.449, 1.250e-3
-1.450, 1.279e-3
-1.451, 1.312e-3
-1.452, 1.346e-3
-1.453, 1.375e-3
-1.454, 1.406e-3
-1.455, 1.440e-3
-1.456, 1.475e-3
-1.457, 1.508e-3
-1.458, 1.542e-3
-1.459, 1.579e-3
-1.460, 1.613e-3
-1.461, 1.651e-3
-1.462, 1.686e-3
-1.463, 1.724e-3
-1.464, 1.761e-3
-1.465, 1.801e-3
-1.466, 1.833e-3
-1.467, 1.871e-3
-1.468, 1.907e-3
-1.469, 1.947e-3
-1.470, 1.987e-3
-1.471, 2.026e-3
-1.472, 2.063e-3
-1.473, 2.099e-3
-1.474, 2.137e-3
-1.475, 2.177e-3
-1.476, 2.222e-3
-1.477, 2.261e-3
-1.478, 2.301e-3
-1.479, 2.338e-3
-1.480, 2.377e-3
-1.481, 2.416e-3
-1.482, 2.463e-3
-1.483, 2.507e-3
-1.484, 2.544e-3
-1.485, 2.585e-3
-1.486, 2.626e-3
-1.487, 2.661e-3
-1.488, 2.697e-3
-1.489, 2.741e-3
-1.490, 2.784e-3
-1.491, 2.833e-3
-1.492, 2.882e-3
-1.493, 2.921e-3
-1.494, 2.965e-3
-1.495, 3.010e-3
-1.496, 3.057e-3
-1.497, 3.106e-3
-1.498, 3.145e-3
-1.499, 3.186e-3
-1.500, 3.181e-3
-1.499, 3.128e-3
-1.498, 3.069e-3
-1.497, 3.014e-3
-1.496, 2.961e-3
-1.495, 2.904e-3
-1.494, 2.859e-3
-1.493, 2.811e-3
-1.492, 2.751e-3
-1.491, 2.703e-3
-1.490, 2.658e-3
-1.489, 2.599e-3
-1.488, 2.555e-3
-1.487, 2.518e-3
-1.486, 2.477e-3
-1.485, 2.429e-3
-1.484, 2.380e-3
-1.483, 2.330e-3
-1.482, 2.286e-3
-1.481, 2.245e-3
-1.480, 2.208e-3
-1.479, 2.175e-3
-1.478, 2.134e-3
-1.477, 2.093e-3
-1.476, 2.048e-3
-1.475, 2.006e-3
-1.474, 1.968e-3
-1.473, 1.930e-3
-1.472, 1.887e-3
-1.471, 1.844e-3
-1.470, 1.807e-3
-1.469, 1.764e-3
-1.468, 1.723e-3
-1.467, 1.684e-3
-1.466, 1.650e-3
-1.465, 1.611e-3
-1.464, 1.580e-3
-1.463, 1.546e-3
-1.462, 1.504e-3
-1.461, 1.470e-3
-1.460, 1.439e-3
-1.459, 1.407e-3
-1.458, 1.372e-3
-1.457, 1.340e-3
-1.456, 1.314e-3
-1.455, 1.279e-3
-1.454, 1.249e-3
-1.453, 1.217e-3
-1.452, 1.189e-3
-1.451, 1.159e-3
-1.450, 1.132e-3
-1.449, 1.102e-3
-1.448, 1.074e-3
-1.447, 1.048e-3
-1.446, 1.024e-3
-1.445, 9.982e-4
-1.444, 9.725e-4
-1.443, 9.514e-4
-1.442, 9.330e-4
-1.441, 9.062e-4
-1.440, 8.812e-4
-1.439, 8.562e-4
-1.438, 8.324e-4
-1.437, 8.103e-4
-1.436, 8.015e-4
-1.435, 7.770e-4
-1.434, 7.484e-4
-1.433, 7.277e-4
-1.432, 7.123e-4
-1.431, 6.931e-4
-1.430, 6.741e-4
-1.429, 6.552e-4
-1.428, 6.366e-4
-1.427, 6.192e-4
-1.426, 6.014e-4
-1.425, 5.863e-4
-1.424, 5.690e-4
-1.423, 5.515e-4
-1.422, 5.370e-4
-1.421, 5.236e-4
-1.420, 5.106e-4
-1.419, 4.950e-4
-1.418, 4.805e-4
-1.417, 4.657e-4
-1.416, 4.533e-4
-1.415, 4.404e-4
-1.414, 4.339e-4
-1.413, 4.191e-4
-1.412, 4.106e-4
-1.411, 3.986e-4
-1.410, 3.869e-4
-1.409, 3.752e-4
-1.408, 3.635e-4
-1.407, 3.531e-4
-1.406, 3.431e-4
-1.405, 3.381e-4
-1.404, 3.268e-4
-1.403, 3.161e-4
-1.402, 3.059e-4
-1.401, 2.973e-4
-1.400, 2.880e-4
-1.399, 2.788e-4
-1.398, 2.702e-4
-1.397, 2.625e-4
-1.396, 2.551e-4
-1.395, 2.476e-4
-1.394, 2.400e-4
-1.393, 2.320e-4
-1.392, 2.256e-4
-1.391, 2.204e-4
-1.390, 2.139e-4
-1.389, 2.059e-4
-1.388, 2.003e-4
-1.387, 1.942e-4
-1.386, 1.885e-4
-1.385, 1.853e-4
-1.384, 1.800e-4
-1.383, 1.719e-4
-1.382, 1.660e-4
-1.381, 1.614e-4
-1.380, 1.570e-4
-1.379, 1.525e-4
-1.378, 1.468e-4
-1.377, 1.420e-4
-1.376, 1.386e-4
-1.375, 1.346e-4
-1.374, 1.304e-4
-1.373, 1.258e-4
-1.372, 1.220e-4
-1.371, 1.189e-4
-1.370, 1.155e-4
-1.369, 1.109e-4
-1.368, 1.064e-4
-1.367, 1.028e-4
-1.366, 9.994e-5
-1.365, 9.718e-5
-1.364, 9.331e-5
-1.363, 8.900e-5
-1.362, 8.610e-5
-1.361, 8.399e-5
-1.360, 8.417e-5
-1.359, 7.853e-5
-1.358, 7.445e-5
-1.357, 7.200e-5
-1.356, 7.040e-5
-1.355, 6.772e-5
-1.354, 6.564e-5
-1.353, 6.174e-5
-1.352, 5.889e-5
-1.351, 5.696e-5
-1.350, 5.476e-5
-1.349, 5.195e-5
-1.348, 4.888e-5
-1.347, 4.657e-5
-1.346, 4.493e-5
-1.345, 4.283e-5
-1.344, 4.018e-5
-1.343, 3.733e-5
-1.342, 3.506e-5
-1.341, 3.377e-5
-1.340, 3.255e-5
-1.339, 2.970e-5
-1.338, 2.703e-5
-1.337, 2.484e-5
-1.336, 2.383e-5
-1.335, 2.217e-5
-1.334, 1.930e-5
-1.333, 1.740e-5
-1.332, 1.605e-5
-1.331, 1.496e-5
-1.330, 1.364e-5
-1.329, 1.094e-5
-1.328, 8.461e-6
-1.327, 6.559e-6
-1.326, 5.397e-6
-1.325, 3.526e-6
-1.324, 1.042e-6
-1.323, -1.650e-6
-1.322, -3.062e-6
-1.321, -4.129e-6
-1.320, -5.238e-6
-1.319, -7.733e-6
-1.318, -1.034e-5
-1.317, -1.173e-5
-1.316, -1.246e-5
-1.315, -1.350e-5
-1.314, -1.548e-5
-1.313, -1.816e-5
-1.312, -1.951e-5
-1.311, -1.998e-5
-1.310, -2.099e-5
-1.309, -2.283e-5
-1.308, -2.535e-5
-1.307, -2.665e-5
-1.306, -2.728e-5
-1.305, -2.824e-5
-1.304, -3.007e-5
-1.303, -3.232e-5
-1.302, -3.379e-5
-1.301, -3.418e-5
-1.300, -3.512e-5
-1.299, -3.706e-5
-1.298, -3.926e-5
-1.297, -4.091e-5
-1.296, -4.100e-5
-1.295, -4.192e-5
-1.294, -4.391e-5
-1.293, -4.582e-5
-1.292, -4.705e-5
-1.291, -4.683e-5
-1.290, -4.722e-5
-1.289, -4.969e-5
-1.288, -5.210e-5
-1.287, -5.354e-5
-1.286, -5.399e-5
-1.285, -5.466e-5
-1.284, -5.639e-5
-1.283, -5.856e-5
-1.282, -5.966e-5
-1.281, -5.957e-5
-1.280, -6.054e-5
-1.279, -6.233e-5
-1.278, -6.471e-5
-1.277, -6.593e-5
-1.276, -6.499e-5
-1.275, -6.682e-5
-1.274, -6.898e-5
-1.273, -7.156e-5
-1.272, -7.256e-5
-1.271, -7.296e-5
-1.270, -7.405e-5
-1.269, -7.572e-5
-1.268, -7.821e-5
-1.267, -7.963e-5
-1.266, -7.978e-5
-1.265, -8.077e-5
-1.264, -8.262e-5
-1.263, -8.501e-5
-1.262, -8.659e-5
-1.261, -8.708e-5
-1.260, -8.810e-5
-1.259, -9.020e-5
-1.258, -9.251e-5
-1.257, -9.353e-5
-1.256, -9.417e-5
-1.255, -9.533e-5
-1.254, -9.763e-5
-1.253, -1.000e-4
-1.252, -1.017e-4
-1.251, -1.025e-4
-1.250, -1.038e-4
-1.249, -1.061e-4
-1.248, -1.087e-4
-1.247, -1.104e-4
-1.246, -1.116e-4
-1.245, -1.127e-4
-1.244, -1.152e-4
-1.243, -1.181e-4
-1.242, -1.199e-4
-1.241, -1.211e-4
-1.240, -1.226e-4
-1.239, -1.255e-4
-1.238, -1.285e-4
-1.237, -1.305e-4
-1.236, -1.319e-4
-1.235, -1.338e-4
-1.234, -1.370e-4
-1.233, -1.398e-4
-1.232, -1.423e-4
-1.231, -1.441e-4
-1.230, -1.461e-4
-1.229, -1.498e-4
-1.228, -1.531e-4
-1.227, -1.558e-4
-1.226, -1.572e-4
-1.225, -1.596e-4
-1.224, -1.622e-4
-1.223, -1.661e-4
-1.222, -1.694e-4
-1.221, -1.712e-4
-1.220, -1.738e-4
-1.219, -1.771e-4
-1.218, -1.810e-4
-1.217, -1.844e-4
-1.216, -1.860e-4
-1.215, -1.885e-4
-1.214, -1.922e-4
-1.213, -1.957e-4
-1.212, -1.986e-4
-1.211, -2.007e-4
-1.210, -2.031e-4
-1.209, -2.067e-4
-1.208, -2.105e-4
-1.207, -2.137e-4
-1.206, -2.159e-4
-1.205, -2.178e-4
-1.204, -2.214e-4
-1.203, -2.253e-4
-1.202, -2.283e-4
-1.201, -2.303e-4
-1.200, -2.319e-4
-1.199, -2.350e-4
-1.198, -2.386e-4
-1.197, -2.415e-4
-1.196, -2.427e-4
-1.195, -2.445e-4
-1.194, -2.474e-4
-1.193, -2.505e-4
-1.192, -2.525e-4
-1.191, -2.535e-4
-1.190, -2.550e-4
-1.189, -2.573e-4
-1.188, -2.601e-4
-1.187, -2.616e-4
-1.186, -2.621e-4
-1.185, -2.631e-4
-1.184, -2.648e-4
-1.183, -2.669e-4
-1.182, -2.680e-4
-1.181, -2.680e-4
-1.180, -2.687e-4
-1.179, -2.698e-4
-1.178, -2.716e-4
-1.177, -2.721e-4
-1.176, -2.714e-4
-1.175, -2.712e-4
-1.174, -2.721e-4
-1.173, -2.732e-4
-1.172, -2.727e-4
-1.171, -2.712e-4
-1.170, -2.706e-4
-1.169, -2.707e-4
-1.168, -2.708e-4
-1.167, -2.698e-4
-1.166, -2.686e-4
-1.165, -2.670e-4
-1.164, -2.668e-4
-1.163, -2.671e-4
-1.162, -2.657e-4
-1.161, -2.638e-4
-1.160, -2.619e-4
-1.159, -2.617e-4
-1.158, -2.617e-4
-1.157, -2.602e-4
-1.156, -2.579e-4
-1.155, -2.559e-4
-1.154, -2.549e-4
-1.153, -2.542e-4
-1.152, -2.523e-4
-1.151, -2.502e-4
-1.150, -2.482e-4
-1.149, -2.473e-4
-1.148, -2.463e-4
-1.147, -2.445e-4
-1.146, -2.419e-4
-1.145, -2.400e-4
-1.144, -2.386e-4
-1.143, -2.379e-4
-1.142, -2.363e-4
-1.141, -2.337e-4
-1.140, -2.318e-4
-1.139, -2.310e-4
-1.138, -2.304e-4
-1.137, -2.282e-4
-1.136, -2.257e-4
-1.135, -2.238e-4
-1.134, -2.230e-4
-1.133, -2.221e-4
-1.132, -2.209e-4
-1.131, -2.184e-4
-1.130, -2.187e-4
-1.129, -2.186e-4
-1.128, -2.181e-4
-1.127, -2.169e-4
-1.126, -2.143e-4
-1.125, -2.123e-4
-1.124, -2.117e-4
-1.123, -2.113e-4
-1.122, -2.086e-4
-1.121, -2.060e-4
-1.120, -2.041e-4
-1.119, -2.039e-4
-1.118, -2.037e-4
-1.117, -2.026e-4
-1.116, -2.006e-4
-1.115, -1.993e-4
-1.114, -1.990e-4
-1.113, -1.989e-4
-1.112, -1.978e-4
-1.111, -1.961e-4
-1.110, -1.950e-4
-1.109, -1.949e-4
-1.108, -1.948e-4
-1.107, -1.940e-4
-1.106, -1.922e-4
-1.105, -1.912e-4
-1.104, -1.910e-4
-1.103, -1.906e-4
-1.102, -1.900e-4
-1.101, -1.885e-4
-1.100, -1.878e-4
-1.099, -1.879e-4
-1.098, -1.880e-4
-1.097, -1.873e-4
-1.096, -1.860e-4
-1.095, -1.847e-4
-1.094, -1.853e-4
-1.093, -1.852e-4
-1.092, -1.848e-4
-1.091, -1.835e-4
-1.090, -1.828e-4
-1.089, -1.833e-4
-1.088, -1.835e-4
-1.087, -1.832e-4
-1.086, -1.821e-4
-1.085, -1.814e-4
-1.084, -1.820e-4
-1.083, -1.828e-4
-1.082, -1.823e-4
-1.081, -1.815e-4
-1.080, -1.807e-4
-1.079, -1.814e-4
-1.078, -1.820e-4
-1.077, -1.814e-4
-1.076, -1.806e-4
-1.075, -1.801e-4
-1.074, -1.804e-4
-1.073, -1.813e-4
-1.072, -1.811e-4
-1.071, -1.800e-4
-1.070, -1.797e-4
-1.069, -1.805e-4
-1.068, -1.811e-4
-1.067, -1.808e-4
-1.066, -1.799e-4
-1.065, -1.798e-4
-1.064, -1.806e-4
-1.063, -1.818e-4
-1.062, -1.815e-4
-1.061, -1.802e-4
-1.060, -1.801e-4
-1.059, -1.813e-4
-1.058, -1.816e-4
-1.057, -1.813e-4
-1.056, -1.805e-4
-1.055, -1.803e-4
-1.054, -1.811e-4
-1.053, -1.818e-4
-1.052, -1.818e-4
-1.051, -1.811e-4
-1.050, -1.809e-4
-1.049, -1.820e-4
-1.048, -1.827e-4
-1.047, -1.828e-4
-1.046, -1.821e-4
-1.045, -1.823e-4
-1.044, -1.836e-4
-1.043, -1.844e-4
-1.042, -1.838e-4
-1.041, -1.834e-4
-1.040, -1.832e-4
-1.039, -1.844e-4
-1.038, -1.860e-4
-1.037, -1.862e-4
-1.036, -1.857e-4
-1.035, -1.852e-4
-1.034, -1.859e-4
-1.033, -1.868e-4
-1.032, -1.864e-4
-1.031, -1.856e-4
-1.030, -1.856e-4
-1.029, -1.862e-4
-1.028, -1.876e-4
-1.027, -1.878e-4
-1.026, -1.870e-4
-1.025, -1.871e-4
-1.024, -1.879e-4
-1.023, -1.891e-4
-1.022, -1.891e-4
-1.021, -1.889e-4
-1.020, -1.892e-4
-1.019, -1.898e-4
-1.018, -1.908e-4
-1.017, -1.910e-4
-1.016, -1.904e-4
-1.015, -1.907e-4
-1.014, -1.919e-4
-1.013, -1.924e-4
-1.012, -1.928e-4
-1.011, -1.923e-4
-1.010, -1.921e-4
-1.009, -1.935e-4
-1.008, -1.944e-4
-1.007, -1.947e-4
-1.006, -1.943e-4
-1.005, -1.939e-4
-1.004, -1.945e-4
-1.003, -1.955e-4
-1.002, -1.956e-4
-1.001, -1.950e-4
