Aug. 27, 2024   13:17:18
Cyclic Voltammetry
File: c:/users/guazh/data/20240813_batch_181_500/2024-08-25-exp197\exp197-2024-08-27t12_59_23-h2koh\exp197_cv_sr_100mvs_efin_-1700mv.bin
Data Source:  Experiment
Instrument Model:  CHI760E
Header: CV ran at 100 mVs
Note: 

Init E (V) = -1
High E (V) = -1
Low E (V) = -1.7
Final E (V) = -1
Init P/N = N
Scan Rate (V/s) = 0.1
Segment = 3
Sample Interval (V) = 0.001
Quiet Time (sec) = 2
Sensitivity (A/V) = 0.01
Comp R (ohm) = 1.4

Results:

Channel 1:
Segment 1:

Segment 2:

Segment 3:

Potential/V, Current/A

-1.000, 6.689e-7
-1.001, 1.665e-6
-1.002, 2.060e-6
-1.003, 2.119e-6
-1.004, 2.317e-6
-1.005, 2.465e-6
-1.006, 2.583e-6
-1.007, 2.820e-6
-1.008, 2.810e-6
-1.009, 3.027e-6
-1.010, 2.908e-6
-1.011, 3.106e-6
-1.012, 3.343e-6
-1.013, 3.422e-6
-1.014, 3.431e-6
-1.015, 3.451e-6
-1.016, 3.481e-6
-1.017, 3.747e-6
-1.018, 3.747e-6
-1.019, 3.836e-6
-1.020, 3.757e-6
-1.021, 3.658e-6
-1.022, 4.083e-6
-1.023, 3.944e-6
-1.024, 4.181e-6
-1.025, 4.053e-6
-1.026, 4.221e-6
-1.027, 4.240e-6
-1.028, 4.181e-6
-1.029, 4.300e-6
-1.030, 4.211e-6
-1.031, 4.497e-6
-1.032, 4.566e-6
-1.033, 4.536e-6
-1.034, 4.684e-6
-1.035, 4.438e-6
-1.036, 4.625e-6
-1.037, 4.773e-6
-1.038, 4.763e-6
-1.039, 4.763e-6
-1.040, 4.665e-6
-1.041, 4.655e-6
-1.042, 4.892e-6
-1.043, 4.684e-6
-1.044, 4.921e-6
-1.045, 4.822e-6
-1.046, 4.921e-6
-1.047, 5.059e-6
-1.048, 4.980e-6
-1.049, 5.020e-6
-1.050, 4.980e-6
-1.051, 5.049e-6
-1.052, 5.237e-6
-1.053, 5.069e-6
-1.054, 5.099e-6
-1.055, 5.099e-6
-1.056, 5.237e-6
-1.057, 5.247e-6
-1.058, 5.118e-6
-1.059, 5.257e-6
-1.060, 5.138e-6
-1.061, 5.286e-6
-1.062, 5.345e-6
-1.063, 5.336e-6
-1.064, 5.405e-6
-1.065, 5.385e-6
-1.066, 5.375e-6
-1.067, 5.493e-6
-1.068, 5.336e-6
-1.069, 5.503e-6
-1.070, 5.454e-6
-1.071, 5.474e-6
-1.072, 5.454e-6
-1.073, 5.513e-6
-1.074, 5.760e-6
-1.075, 5.602e-6
-1.076, 5.602e-6
-1.077, 5.681e-6
-1.078, 5.651e-6
-1.079, 5.602e-6
-1.080, 5.602e-6
-1.081, 5.602e-6
-1.082, 5.858e-6
-1.083, 5.671e-6
-1.084, 5.710e-6
-1.085, 5.691e-6
-1.086, 5.760e-6
-1.087, 5.819e-6
-1.088, 5.701e-6
-1.089, 5.671e-6
-1.090, 5.779e-6
-1.091, 5.760e-6
-1.092, 5.868e-6
-1.093, 5.819e-6
-1.094, 5.947e-6
-1.095, 5.809e-6
-1.096, 5.720e-6
-1.097, 5.927e-6
-1.098, 5.849e-6
-1.099, 5.779e-6
-1.100, 5.987e-6
-1.101, 6.066e-6
-1.102, 6.036e-6
-1.103, 5.888e-6
-1.104, 5.967e-6
-1.105, 5.967e-6
-1.106, 5.947e-6
-1.107, 6.095e-6
-1.108, 6.075e-6
-1.109, 5.987e-6
-1.110, 5.927e-6
-1.111, 6.085e-6
-1.112, 5.997e-6
-1.113, 6.006e-6
-1.114, 6.036e-6
-1.115, 6.085e-6
-1.116, 6.223e-6
-1.117, 6.283e-6
-1.118, 6.135e-6
-1.119, 6.263e-6
-1.120, 6.154e-6
-1.121, 6.263e-6
-1.122, 6.342e-6
-1.123, 6.253e-6
-1.124, 6.293e-6
-1.125, 6.154e-6
-1.126, 6.204e-6
-1.127, 6.431e-6
-1.128, 6.362e-6
-1.129, 6.401e-6
-1.130, 6.322e-6
-1.131, 6.391e-6
-1.132, 6.421e-6
-1.133, 6.431e-6
-1.134, 6.421e-6
-1.135, 6.549e-6
-1.136, 6.362e-6
-1.137, 6.460e-6
-1.138, 6.519e-6
-1.139, 6.480e-6
-1.140, 6.411e-6
-1.141, 6.460e-6
-1.142, 6.855e-6
-1.143, 6.569e-6
-1.144, 6.559e-6
-1.145, 6.618e-6
-1.146, 6.796e-6
-1.147, 6.746e-6
-1.148, 6.697e-6
-1.149, 6.736e-6
-1.150, 6.746e-6
-1.151, 6.667e-6
-1.152, 6.825e-6
-1.153, 6.736e-6
-1.154, 6.855e-6
-1.155, 6.825e-6
-1.156, 6.944e-6
-1.157, 7.013e-6
-1.158, 6.904e-6
-1.159, 7.072e-6
-1.160, 6.983e-6
-1.161, 6.835e-6
-1.162, 7.171e-6
-1.163, 7.121e-6
-1.164, 7.013e-6
-1.165, 7.200e-6
-1.166, 7.161e-6
-1.167, 7.220e-6
-1.168, 7.141e-6
-1.169, 7.171e-6
-1.170, 7.220e-6
-1.171, 7.279e-6
-1.172, 7.358e-6
-1.173, 7.338e-6
-1.174, 7.309e-6
-1.175, 7.447e-6
-1.176, 7.467e-6
-1.177, 7.615e-6
-1.178, 7.693e-6
-1.179, 7.684e-6
-1.180, 7.664e-6
-1.181, 7.684e-6
-1.182, 7.733e-6
-1.183, 7.772e-6
-1.184, 7.911e-6
-1.185, 7.802e-6
-1.186, 7.970e-6
-1.187, 7.891e-6
-1.188, 8.009e-6
-1.189, 8.019e-6
-1.190, 8.039e-6
-1.191, 8.078e-6
-1.192, 8.197e-6
-1.193, 8.197e-6
-1.194, 8.345e-6
-1.195, 8.266e-6
-1.196, 8.374e-6
-1.197, 8.433e-6
-1.198, 8.414e-6
-1.199, 8.443e-6
-1.200, 8.542e-6
-1.201, 8.552e-6
-1.202, 8.789e-6
-1.203, 8.789e-6
-1.204, 8.769e-6
-1.205, 8.838e-6
-1.206, 8.996e-6
-1.207, 8.976e-6
-1.208, 8.877e-6
-1.209, 9.104e-6
-1.210, 9.223e-6
-1.211, 9.252e-6
-1.212, 9.203e-6
-1.213, 9.331e-6
-1.214, 9.459e-6
-1.215, 9.509e-6
-1.216, 9.489e-6
-1.217, 9.726e-6
-1.218, 9.746e-6
-1.219, 9.913e-6
-1.220, 9.923e-6
-1.221, 9.982e-6
-1.222, 1.012e-5
-1.223, 1.012e-5
-1.224, 1.027e-5
-1.225, 1.031e-5
-1.226, 1.044e-5
-1.227, 1.062e-5
-1.228, 1.068e-5
-1.229, 1.098e-5
-1.230, 1.092e-5
-1.231, 1.111e-5
-1.232, 1.128e-5
-1.233, 1.128e-5
-1.234, 1.144e-5
-1.235, 1.155e-5
-1.236, 1.160e-5
-1.237, 1.183e-5
-1.238, 1.181e-5
-1.239, 1.206e-5
-1.240, 1.199e-5
-1.241, 1.218e-5
-1.242, 1.248e-5
-1.243, 1.239e-5
-1.244, 1.272e-5
-1.245, 1.299e-5
-1.246, 1.295e-5
-1.247, 1.311e-5
-1.248, 1.348e-5
-1.249, 1.353e-5
-1.250, 1.370e-5
-1.251, 1.380e-5
-1.252, 1.397e-5
-1.253, 1.416e-5
-1.254, 1.439e-5
-1.255, 1.445e-5
-1.256, 1.484e-5
-1.257, 1.501e-5
-1.258, 1.524e-5
-1.259, 1.531e-5
-1.260, 1.552e-5
-1.261, 1.573e-5
-1.262, 1.599e-5
-1.263, 1.624e-5
-1.264, 1.664e-5
-1.265, 1.669e-5
-1.266, 1.694e-5
-1.267, 1.724e-5
-1.268, 1.762e-5
-1.269, 1.788e-5
-1.270, 1.811e-5
-1.271, 1.830e-5
-1.272, 1.869e-5
-1.273, 1.883e-5
-1.274, 1.927e-5
-1.275, 1.956e-5
-1.276, 1.988e-5
-1.277, 2.022e-5
-1.278, 2.034e-5
-1.279, 2.063e-5
-1.280, 2.118e-5
-1.281, 2.146e-5
-1.282, 2.197e-5
-1.283, 2.242e-5
-1.284, 2.261e-5
-1.285, 2.305e-5
-1.286, 2.339e-5
-1.287, 2.386e-5
-1.288, 2.422e-5
-1.289, 2.473e-5
-1.290, 2.508e-5
-1.291, 2.548e-5
-1.292, 2.603e-5
-1.293, 2.643e-5
-1.294, 2.709e-5
-1.295, 2.745e-5
-1.296, 2.788e-5
-1.297, 2.850e-5
-1.298, 2.899e-5
-1.299, 2.966e-5
-1.300, 3.014e-5
-1.301, 3.061e-5
-1.302, 3.124e-5
-1.303, 3.170e-5
-1.304, 3.233e-5
-1.305, 3.297e-5
-1.306, 3.361e-5
-1.307, 3.442e-5
-1.308, 3.499e-5
-1.309, 3.565e-5
-1.310, 3.617e-5
-1.311, 3.698e-5
-1.312, 3.769e-5
-1.313, 3.841e-5
-1.314, 3.917e-5
-1.315, 3.979e-5
-1.316, 4.061e-5
-1.317, 4.159e-5
-1.318, 4.217e-5
-1.319, 4.324e-5
-1.320, 4.391e-5
-1.321, 4.454e-5
-1.322, 4.569e-5
-1.323, 4.659e-5
-1.324, 4.742e-5
-1.325, 4.829e-5
-1.326, 4.921e-5
-1.327, 5.028e-5
-1.328, 5.127e-5
-1.329, 5.220e-5
-1.330, 5.321e-5
-1.331, 5.429e-5
-1.332, 5.552e-5
-1.333, 5.626e-5
-1.334, 5.745e-5
-1.335, 5.858e-5
-1.336, 5.956e-5
-1.337, 6.088e-5
-1.338, 6.203e-5
-1.339, 6.311e-5
-1.340, 6.430e-5
-1.341, 6.562e-5
-1.342, 6.682e-5
-1.343, 6.807e-5
-1.344, 6.951e-5
-1.345, 7.066e-5
-1.346, 7.202e-5
-1.347, 7.329e-5
-1.348, 7.455e-5
-1.349, 7.617e-5
-1.350, 7.755e-5
-1.351, 7.884e-5
-1.352, 8.036e-5
-1.353, 8.181e-5
-1.354, 8.339e-5
-1.355, 8.463e-5
-1.356, 8.615e-5
-1.357, 8.786e-5
-1.358, 8.939e-5
-1.359, 9.091e-5
-1.360, 9.252e-5
-1.361, 9.412e-5
-1.362, 9.577e-5
-1.363, 9.745e-5
-1.364, 9.913e-5
-1.365, 1.008e-4
-1.366, 1.025e-4
-1.367, 1.043e-4
-1.368, 1.062e-4
-1.369, 1.080e-4
-1.370, 1.098e-4
-1.371, 1.115e-4
-1.372, 1.134e-4
-1.373, 1.153e-4
-1.374, 1.172e-4
-1.375, 1.192e-4
-1.376, 1.209e-4
-1.377, 1.229e-4
-1.378, 1.250e-4
-1.379, 1.270e-4
-1.380, 1.289e-4
-1.381, 1.308e-4
-1.382, 1.330e-4
-1.383, 1.350e-4
-1.384, 1.371e-4
-1.385, 1.392e-4
-1.386, 1.413e-4
-1.387, 1.435e-4
-1.388, 1.456e-4
-1.389, 1.479e-4
-1.390, 1.499e-4
-1.391, 1.522e-4
-1.392, 1.545e-4
-1.393, 1.567e-4
-1.394, 1.590e-4
-1.395, 1.613e-4
-1.396, 1.637e-4
-1.397, 1.660e-4
-1.398, 1.683e-4
-1.399, 1.708e-4
-1.400, 1.731e-4
-1.401, 1.756e-4
-1.402, 1.781e-4
-1.403, 1.804e-4
-1.404, 1.831e-4
-1.405, 1.854e-4
-1.406, 1.881e-4
-1.407, 1.906e-4
-1.408, 1.932e-4
-1.409, 1.961e-4
-1.410, 1.985e-4
-1.411, 2.011e-4
-1.412, 2.040e-4
-1.413, 2.066e-4
-1.414, 2.095e-4
-1.415, 2.122e-4
-1.416, 2.147e-4
-1.417, 2.176e-4
-1.418, 2.204e-4
-1.419, 2.235e-4
-1.420, 2.263e-4
-1.421, 2.292e-4
-1.422, 2.322e-4
-1.423, 2.353e-4
-1.424, 2.385e-4
-1.425, 2.413e-4
-1.426, 2.446e-4
-1.427, 2.475e-4
-1.428, 2.508e-4
-1.429, 2.540e-4
-1.430, 2.573e-4
-1.431, 2.606e-4
-1.432, 2.641e-4
-1.433, 2.675e-4
-1.434, 2.710e-4
-1.435, 2.745e-4
-1.436, 2.781e-4
-1.437, 2.816e-4
-1.438, 2.853e-4
-1.439, 2.892e-4
-1.440, 2.926e-4
-1.441, 2.963e-4
-1.442, 3.000e-4
-1.443, 3.040e-4
-1.444, 3.079e-4
-1.445, 3.119e-4
-1.446, 3.159e-4
-1.447, 3.198e-4
-1.448, 3.240e-4
-1.449, 3.282e-4
-1.450, 3.324e-4
-1.451, 3.367e-4
-1.452, 3.411e-4
-1.453, 3.453e-4
-1.454, 3.499e-4
-1.455, 3.541e-4
-1.456, 3.587e-4
-1.457, 3.634e-4
-1.458, 3.681e-4
-1.459, 3.729e-4
-1.460, 3.774e-4
-1.461, 3.823e-4
-1.462, 3.871e-4
-1.463, 3.921e-4
-1.464, 3.972e-4
-1.465, 4.020e-4
-1.466, 4.073e-4
-1.467, 4.126e-4
-1.468, 4.178e-4
-1.469, 4.232e-4
-1.470, 4.285e-4
-1.471, 4.339e-4
-1.472, 4.395e-4
-1.473, 4.448e-4
-1.474, 4.506e-4
-1.475, 4.564e-4
-1.476, 4.623e-4
-1.477, 4.679e-4
-1.478, 4.738e-4
-1.479, 4.802e-4
-1.480, 4.861e-4
-1.481, 4.926e-4
-1.482, 4.988e-4
-1.483, 5.053e-4
-1.484, 5.117e-4
-1.485, 5.186e-4
-1.486, 5.250e-4
-1.487, 5.317e-4
-1.488, 5.384e-4
-1.489, 5.456e-4
-1.490, 5.526e-4
-1.491, 5.593e-4
-1.492, 5.666e-4
-1.493, 5.738e-4
-1.494, 5.813e-4
-1.495, 5.884e-4
-1.496, 5.958e-4
-1.497, 6.035e-4
-1.498, 6.113e-4
-1.499, 6.190e-4
-1.500, 6.265e-4
-1.501, 6.346e-4
-1.502, 6.426e-4
-1.503, 6.509e-4
-1.504, 6.591e-4
-1.505, 6.674e-4
-1.506, 6.760e-4
-1.507, 6.844e-4
-1.508, 6.932e-4
-1.509, 7.019e-4
-1.510, 7.107e-4
-1.511, 7.197e-4
-1.512, 7.289e-4
-1.513, 7.379e-4
-1.514, 7.474e-4
-1.515, 7.567e-4
-1.516, 7.664e-4
-1.517, 7.759e-4
-1.518, 7.855e-4
-1.519, 7.959e-4
-1.520, 8.059e-4
-1.521, 8.161e-4
-1.522, 8.261e-4
-1.523, 8.368e-4
-1.524, 8.475e-4
-1.525, 8.580e-4
-1.526, 8.685e-4
-1.527, 8.793e-4
-1.528, 8.903e-4
-1.529, 9.015e-4
-1.530, 9.127e-4
-1.531, 9.241e-4
-1.532, 9.356e-4
-1.533, 9.471e-4
-1.534, 9.592e-4
-1.535, 9.705e-4
-1.536, 9.829e-4
-1.537, 9.950e-4
-1.538, 1.007e-3
-1.539, 1.020e-3
-1.540, 1.032e-3
-1.541, 1.045e-3
-1.542, 1.058e-3
-1.543, 1.071e-3
-1.544, 1.084e-3
-1.545, 1.097e-3
-1.546, 1.111e-3
-1.547, 1.125e-3
-1.548, 1.139e-3
-1.549, 1.153e-3
-1.550, 1.167e-3
-1.551, 1.182e-3
-1.552, 1.195e-3
-1.553, 1.209e-3
-1.554, 1.224e-3
-1.555, 1.238e-3
-1.556, 1.254e-3
-1.557, 1.269e-3
-1.558, 1.285e-3
-1.559, 1.301e-3
-1.560, 1.317e-3
-1.561, 1.333e-3
-1.562, 1.349e-3
-1.563, 1.366e-3
-1.564, 1.383e-3
-1.565, 1.399e-3
-1.566, 1.416e-3
-1.567, 1.434e-3
-1.568, 1.451e-3
-1.569, 1.469e-3
-1.570, 1.486e-3
-1.571, 1.505e-3
-1.572, 1.523e-3
-1.573, 1.543e-3
-1.574, 1.561e-3
-1.575, 1.580e-3
-1.576, 1.600e-3
-1.577, 1.619e-3
-1.578, 1.639e-3
-1.579, 1.659e-3
-1.580, 1.680e-3
-1.581, 1.701e-3
-1.582, 1.721e-3
-1.583, 1.742e-3
-1.584, 1.763e-3
-1.585, 1.785e-3
-1.586, 1.807e-3
-1.587, 1.829e-3
-1.588, 1.851e-3
-1.589, 1.874e-3
-1.590, 1.897e-3
-1.591, 1.921e-3
-1.592, 1.943e-3
-1.593, 1.967e-3
-1.594, 1.991e-3
-1.595, 2.015e-3
-1.596, 2.040e-3
-1.597, 2.064e-3
-1.598, 2.089e-3
-1.599, 2.115e-3
-1.600, 2.141e-3
-1.601, 2.166e-3
-1.602, 2.193e-3
-1.603, 2.219e-3
-1.604, 2.247e-3
-1.605, 2.273e-3
-1.606, 2.301e-3
-1.607, 2.329e-3
-1.608, 2.357e-3
-1.609, 2.387e-3
-1.610, 2.414e-3
-1.611, 2.445e-3
-1.612, 2.474e-3
-1.613, 2.505e-3
-1.614, 2.534e-3
-1.615, 2.564e-3
-1.616, 2.597e-3
-1.617, 2.627e-3
-1.618, 2.660e-3
-1.619, 2.691e-3
-1.620, 2.723e-3
-1.621, 2.757e-3
-1.622, 2.789e-3
-1.623, 2.821e-3
-1.624, 2.855e-3
-1.625, 2.890e-3
-1.626, 2.925e-3
-1.627, 2.960e-3
-1.628, 2.995e-3
-1.629, 3.031e-3
-1.630, 3.067e-3
-1.631, 3.106e-3
-1.632, 3.141e-3
-1.633, 3.178e-3
-1.634, 3.218e-3
-1.635, 3.255e-3
-1.636, 3.294e-3
-1.637, 3.331e-3
-1.638, 3.372e-3
-1.639, 3.413e-3
-1.640, 3.453e-3
-1.641, 3.493e-3
-1.642, 3.534e-3
-1.643, 3.576e-3
-1.644, 3.618e-3
-1.645, 3.660e-3
-1.646, 3.702e-3
-1.647, 3.746e-3
-1.648, 3.789e-3
-1.649, 3.835e-3
-1.650, 3.878e-3
-1.651, 3.923e-3
-1.652, 3.969e-3
-1.653, 4.016e-3
-1.654, 4.062e-3
-1.655, 4.107e-3
-1.656, 4.156e-3
-1.657, 4.203e-3
-1.658, 4.252e-3
-1.659, 4.300e-3
-1.660, 4.348e-3
-1.661, 4.399e-3
-1.662, 4.449e-3
-1.663, 4.499e-3
-1.664, 4.549e-3
-1.665, 4.599e-3
-1.666, 4.651e-3
-1.667, 4.705e-3
-1.668, 4.755e-3
-1.669, 4.810e-3
-1.670, 4.863e-3
-1.671, 4.919e-3
-1.672, 4.972e-3
-1.673, 5.026e-3
-1.674, 5.082e-3
-1.675, 5.137e-3
-1.676, 5.196e-3
-1.677, 5.249e-3
-1.678, 5.308e-3
-1.679, 5.366e-3
-1.680, 5.425e-3
-1.681, 5.482e-3
-1.682, 5.538e-3
-1.683, 5.600e-3
-1.684, 5.660e-3
-1.685, 5.722e-3
-1.686, 5.780e-3
-1.687, 5.843e-3
-1.688, 5.905e-3
-1.689, 5.969e-3
-1.690, 6.029e-3
-1.691, 6.092e-3
-1.692, 6.157e-3
-1.693, 6.220e-3
-1.694, 6.287e-3
-1.695, 6.348e-3
-1.696, 6.418e-3
-1.697, 6.483e-3
-1.698, 6.552e-3
-1.699, 6.616e-3
-1.700, 6.633e-3
-1.699, 6.587e-3
-1.698, 6.536e-3
-1.697, 6.486e-3
-1.696, 6.429e-3
-1.695, 6.376e-3
-1.694, 6.320e-3
-1.693, 6.265e-3
-1.692, 6.205e-3
-1.691, 6.149e-3
-1.690, 6.092e-3
-1.689, 6.034e-3
-1.688, 5.978e-3
-1.687, 5.919e-3
-1.686, 5.864e-3
-1.685, 5.806e-3
-1.684, 5.754e-3
-1.683, 5.694e-3
-1.682, 5.638e-3
-1.681, 5.580e-3
-1.680, 5.524e-3
-1.679, 5.466e-3
-1.678, 5.410e-3
-1.677, 5.355e-3
-1.676, 5.300e-3
-1.675, 5.246e-3
-1.674, 5.189e-3
-1.673, 5.136e-3
-1.672, 5.082e-3
-1.671, 5.029e-3
-1.670, 4.974e-3
-1.669, 4.919e-3
-1.668, 4.864e-3
-1.667, 4.810e-3
-1.666, 4.757e-3
-1.665, 4.702e-3
-1.664, 4.652e-3
-1.663, 4.600e-3
-1.662, 4.550e-3
-1.661, 4.498e-3
-1.660, 4.446e-3
-1.659, 4.397e-3
-1.658, 4.348e-3
-1.657, 4.299e-3
-1.656, 4.248e-3
-1.655, 4.200e-3
-1.654, 4.151e-3
-1.653, 4.102e-3
-1.652, 4.052e-3
-1.651, 4.004e-3
-1.650, 3.957e-3
-1.649, 3.910e-3
-1.648, 3.863e-3
-1.647, 3.815e-3
-1.646, 3.770e-3
-1.645, 3.724e-3
-1.644, 3.680e-3
-1.643, 3.633e-3
-1.642, 3.589e-3
-1.641, 3.546e-3
-1.640, 3.502e-3
-1.639, 3.457e-3
-1.638, 3.410e-3
-1.637, 3.369e-3
-1.636, 3.327e-3
-1.635, 3.287e-3
-1.634, 3.244e-3
-1.633, 3.203e-3
-1.632, 3.161e-3
-1.631, 3.121e-3
-1.630, 3.079e-3
-1.629, 3.039e-3
-1.628, 3.000e-3
-1.627, 2.961e-3
-1.626, 2.923e-3
-1.625, 2.883e-3
-1.624, 2.845e-3
-1.623, 2.807e-3
-1.622, 2.771e-3
-1.621, 2.733e-3
-1.620, 2.696e-3
-1.619, 2.662e-3
-1.618, 2.628e-3
-1.617, 2.591e-3
-1.616, 2.556e-3
-1.615, 2.525e-3
-1.614, 2.486e-3
-1.613, 2.448e-3
-1.612, 2.410e-3
-1.611, 2.377e-3
-1.610, 2.343e-3
-1.609, 2.310e-3
-1.608, 2.277e-3
-1.607, 2.245e-3
-1.606, 2.214e-3
-1.605, 2.183e-3
-1.604, 2.151e-3
-1.603, 2.120e-3
-1.602, 2.090e-3
-1.601, 2.060e-3
-1.600, 2.031e-3
-1.599, 2.001e-3
-1.598, 1.972e-3
-1.597, 1.944e-3
-1.596, 1.915e-3
-1.595, 1.887e-3
-1.594, 1.859e-3
-1.593, 1.831e-3
-1.592, 1.805e-3
-1.591, 1.778e-3
-1.590, 1.750e-3
-1.589, 1.725e-3
-1.588, 1.699e-3
-1.587, 1.674e-3
-1.586, 1.649e-3
-1.585, 1.625e-3
-1.584, 1.599e-3
-1.583, 1.573e-3
-1.582, 1.549e-3
-1.581, 1.526e-3
-1.580, 1.502e-3
-1.579, 1.480e-3
-1.578, 1.457e-3
-1.577, 1.434e-3
-1.576, 1.412e-3
-1.575, 1.390e-3
-1.574, 1.367e-3
-1.573, 1.347e-3
-1.572, 1.324e-3
-1.571, 1.303e-3
-1.570, 1.282e-3
-1.569, 1.262e-3
-1.568, 1.242e-3
-1.567, 1.224e-3
-1.566, 1.206e-3
-1.565, 1.188e-3
-1.564, 1.170e-3
-1.563, 1.152e-3
-1.562, 1.134e-3
-1.561, 1.116e-3
-1.560, 1.098e-3
-1.559, 1.081e-3
-1.558, 1.064e-3
-1.557, 1.047e-3
-1.556, 1.032e-3
-1.555, 1.015e-3
-1.554, 9.986e-4
-1.553, 9.832e-4
-1.552, 9.670e-4
-1.551, 9.510e-4
-1.550, 9.355e-4
-1.549, 9.210e-4
-1.548, 9.060e-4
-1.547, 8.911e-4
-1.546, 8.769e-4
-1.545, 8.626e-4
-1.544, 8.488e-4
-1.543, 8.345e-4
-1.542, 8.222e-4
-1.541, 8.087e-4
-1.540, 7.953e-4
-1.539, 7.824e-4
-1.538, 7.696e-4
-1.537, 7.568e-4
-1.536, 7.452e-4
-1.535, 7.326e-4
-1.534, 7.207e-4
-1.533, 7.085e-4
-1.532, 6.969e-4
-1.531, 6.857e-4
-1.530, 6.745e-4
-1.529, 6.632e-4
-1.528, 6.525e-4
-1.527, 6.422e-4
-1.526, 6.318e-4
-1.525, 6.214e-4
-1.524, 6.112e-4
-1.523, 6.014e-4
-1.522, 5.925e-4
-1.521, 5.818e-4
-1.520, 5.713e-4
-1.519, 5.617e-4
-1.518, 5.526e-4
-1.517, 5.435e-4
-1.516, 5.345e-4
-1.515, 5.254e-4
-1.514, 5.168e-4
-1.513, 5.082e-4
-1.512, 4.997e-4
-1.511, 4.915e-4
-1.510, 4.832e-4
-1.509, 4.752e-4
-1.508, 4.675e-4
-1.507, 4.595e-4
-1.506, 4.522e-4
-1.505, 4.445e-4
-1.504, 4.373e-4
-1.503, 4.302e-4
-1.502, 4.228e-4
-1.501, 4.164e-4
-1.500, 4.094e-4
-1.499, 4.028e-4
-1.498, 3.962e-4
-1.497, 3.896e-4
-1.496, 3.833e-4
-1.495, 3.770e-4
-1.494, 3.707e-4
-1.493, 3.649e-4
-1.492, 3.590e-4
-1.491, 3.531e-4
-1.490, 3.471e-4
-1.489, 3.415e-4
-1.488, 3.360e-4
-1.487, 3.304e-4
-1.486, 3.251e-4
-1.485, 3.196e-4
-1.484, 3.144e-4
-1.483, 3.093e-4
-1.482, 3.042e-4
-1.481, 2.995e-4
-1.480, 2.945e-4
-1.479, 2.895e-4
-1.478, 2.849e-4
-1.477, 2.801e-4
-1.476, 2.760e-4
-1.475, 2.712e-4
-1.474, 2.671e-4
-1.473, 2.627e-4
-1.472, 2.583e-4
-1.471, 2.544e-4
-1.470, 2.500e-4
-1.469, 2.463e-4
-1.468, 2.423e-4
-1.467, 2.384e-4
-1.466, 2.348e-4
-1.465, 2.307e-4
-1.464, 2.274e-4
-1.463, 2.236e-4
-1.462, 2.202e-4
-1.461, 2.168e-4
-1.460, 2.132e-4
-1.459, 2.096e-4
-1.458, 2.066e-4
-1.457, 2.031e-4
-1.456, 2.003e-4
-1.455, 1.971e-4
-1.454, 1.938e-4
-1.453, 1.908e-4
-1.452, 1.873e-4
-1.451, 1.847e-4
-1.450, 1.818e-4
-1.449, 1.789e-4
-1.448, 1.763e-4
-1.447, 1.733e-4
-1.446, 1.706e-4
-1.445, 1.679e-4
-1.444, 1.655e-4
-1.443, 1.628e-4
-1.442, 1.602e-4
-1.441, 1.578e-4
-1.440, 1.552e-4
-1.439, 1.528e-4
-1.438, 1.506e-4
-1.437, 1.481e-4
-1.436, 1.461e-4
-1.435, 1.437e-4
-1.434, 1.414e-4
-1.433, 1.394e-4
-1.432, 1.370e-4
-1.431, 1.357e-4
-1.430, 1.332e-4
-1.429, 1.311e-4
-1.428, 1.291e-4
-1.427, 1.271e-4
-1.426, 1.255e-4
-1.425, 1.233e-4
-1.424, 1.215e-4
-1.423, 1.196e-4
-1.422, 1.177e-4
-1.421, 1.160e-4
-1.420, 1.140e-4
-1.419, 1.123e-4
-1.418, 1.107e-4
-1.417, 1.089e-4
-1.416, 1.075e-4
-1.415, 1.057e-4
-1.414, 1.039e-4
-1.413, 1.026e-4
-1.412, 1.009e-4
-1.411, 9.941e-5
-1.410, 9.791e-5
-1.409, 9.633e-5
-1.408, 9.485e-5
-1.407, 9.336e-5
-1.406, 9.214e-5
-1.405, 9.068e-5
-1.404, 8.917e-5
-1.403, 8.830e-5
-1.402, 8.654e-5
-1.401, 8.534e-5
-1.400, 8.403e-5
-1.399, 8.275e-5
-1.398, 8.160e-5
-1.397, 8.011e-5
-1.396, 7.910e-5
-1.395, 7.775e-5
-1.394, 7.705e-5
-1.393, 7.561e-5
-1.392, 7.429e-5
-1.391, 7.355e-5
-1.390, 7.212e-5
-1.389, 7.095e-5
-1.388, 7.003e-5
-1.387, 6.869e-5
-1.386, 6.789e-5
-1.385, 6.654e-5
-1.384, 6.560e-5
-1.383, 6.448e-5
-1.382, 6.348e-5
-1.381, 6.273e-5
-1.380, 6.160e-5
-1.379, 6.039e-5
-1.378, 5.980e-5
-1.377, 5.873e-5
-1.376, 5.799e-5
-1.375, 5.700e-5
-1.374, 5.593e-5
-1.373, 5.502e-5
-1.372, 5.413e-5
-1.371, 5.344e-5
-1.370, 5.236e-5
-1.369, 5.154e-5
-1.368, 5.086e-5
-1.367, 4.985e-5
-1.366, 4.912e-5
-1.365, 4.807e-5
-1.364, 4.739e-5
-1.363, 4.672e-5
-1.362, 4.583e-5
-1.361, 4.511e-5
-1.360, 4.443e-5
-1.359, 4.358e-5
-1.358, 4.294e-5
-1.357, 4.204e-5
-1.356, 4.154e-5
-1.355, 4.060e-5
-1.354, 3.994e-5
-1.353, 3.923e-5
-1.352, 3.862e-5
-1.351, 3.791e-5
-1.350, 3.712e-5
-1.349, 3.647e-5
-1.348, 3.597e-5
-1.347, 3.517e-5
-1.346, 3.465e-5
-1.345, 3.393e-5
-1.344, 3.334e-5
-1.343, 3.295e-5
-1.342, 3.200e-5
-1.341, 3.159e-5
-1.340, 3.084e-5
-1.339, 3.020e-5
-1.338, 2.982e-5
-1.337, 2.908e-5
-1.336, 2.879e-5
-1.335, 2.810e-5
-1.334, 2.751e-5
-1.333, 2.705e-5
-1.332, 2.658e-5
-1.331, 2.615e-5
-1.330, 2.543e-5
-1.329, 2.509e-5
-1.328, 2.434e-5
-1.327, 2.385e-5
-1.326, 2.346e-5
-1.325, 2.292e-5
-1.324, 2.241e-5
-1.323, 2.206e-5
-1.322, 2.142e-5
-1.321, 2.103e-5
-1.320, 2.061e-5
-1.319, 2.013e-5
-1.318, 1.970e-5
-1.317, 1.926e-5
-1.316, 1.879e-5
-1.315, 1.828e-5
-1.314, 1.790e-5
-1.313, 1.757e-5
-1.312, 1.698e-5
-1.311, 1.676e-5
-1.310, 1.612e-5
-1.309, 1.588e-5
-1.308, 1.557e-5
-1.307, 1.521e-5
-1.306, 1.490e-5
-1.305, 1.428e-5
-1.304, 1.408e-5
-1.303, 1.356e-5
-1.302, 1.319e-5
-1.301, 1.307e-5
-1.300, 1.271e-5
-1.299, 1.222e-5
-1.298, 1.211e-5
-1.297, 1.149e-5
-1.296, 1.135e-5
-1.295, 1.102e-5
-1.294, 1.069e-5
-1.293, 1.046e-5
-1.292, 9.923e-6
-1.291, 9.825e-6
-1.290, 9.371e-6
-1.289, 9.055e-6
-1.288, 8.966e-6
-1.287, 8.552e-6
-1.286, 8.236e-6
-1.285, 7.871e-6
-1.284, 7.763e-6
-1.283, 7.516e-6
-1.282, 7.121e-6
-1.281, 6.963e-6
-1.280, 6.460e-6
-1.279, 6.362e-6
-1.278, 6.145e-6
-1.277, 5.839e-6
-1.276, 5.612e-6
-1.275, 5.385e-6
-1.274, 5.049e-6
-1.273, 4.793e-6
-1.272, 4.596e-6
-1.271, 4.596e-6
-1.270, 4.142e-6
-1.269, 4.004e-6
-1.268, 3.796e-6
-1.267, 3.481e-6
-1.266, 3.520e-6
-1.265, 3.116e-6
-1.264, 3.037e-6
-1.263, 2.869e-6
-1.262, 2.415e-6
-1.261, 2.415e-6
-1.260, 2.159e-6
-1.259, 2.060e-6
-1.258, 1.912e-6
-1.257, 1.586e-6
-1.256, 1.547e-6
-1.255, 1.231e-6
-1.254, 9.649e-7
-1.253, 9.649e-7
-1.252, 6.788e-7
-1.251, 7.084e-7
-1.250, 3.236e-7
-1.249, 2.249e-7
-1.248, 1.657e-7
-1.247, -3.157e-8
-1.246, -5.130e-8
-1.245, -1.894e-7
-1.244, -3.275e-7
-1.243, -5.249e-7
-1.242, -7.321e-7
-1.241, -9.294e-7
-1.240, -1.097e-6
-1.239, -1.196e-6
-1.238, -1.166e-6
-1.237, -1.531e-6
-1.236, -1.482e-6
-1.235, -1.817e-6
-1.234, -1.748e-6
-1.233, -1.906e-6
-1.232, -2.015e-6
-1.231, -2.024e-6
-1.230, -2.320e-6
-1.229, -2.488e-6
-1.228, -2.419e-6
-1.227, -2.695e-6
-1.226, -2.735e-6
-1.225, -3.090e-6
-1.224, -3.051e-6
-1.223, -2.972e-6
-1.222, -3.287e-6
-1.221, -3.139e-6
-1.220, -3.297e-6
-1.219, -3.465e-6
-1.218, -3.396e-6
-1.217, -3.712e-6
-1.216, -3.741e-6
-1.215, -3.860e-6
-1.214, -3.978e-6
-1.213, -3.919e-6
-1.212, -4.264e-6
-1.211, -4.136e-6
-1.210, -4.323e-6
-1.209, -4.254e-6
-1.208, -4.382e-6
-1.207, -4.688e-6
-1.206, -4.530e-6
-1.205, -4.767e-6
-1.204, -4.678e-6
-1.203, -4.698e-6
-1.202, -4.955e-6
-1.201, -4.935e-6
-1.200, -5.063e-6
-1.199, -5.024e-6
-1.198, -5.103e-6
-1.197, -5.379e-6
-1.196, -5.132e-6
-1.195, -5.389e-6
-1.194, -5.399e-6
-1.193, -5.409e-6
-1.192, -5.507e-6
-1.191, -5.497e-6
-1.190, -5.586e-6
-1.189, -5.823e-6
-1.188, -5.714e-6
-1.187, -5.961e-6
-1.186, -5.754e-6
-1.185, -5.882e-6
-1.184, -6.129e-6
-1.183, -5.991e-6
-1.182, -6.218e-6
-1.181, -6.030e-6
-1.180, -6.148e-6
-1.179, -6.237e-6
-1.178, -6.168e-6
-1.177, -6.405e-6
-1.176, -6.415e-6
-1.175, -6.514e-6
-1.174, -6.583e-6
-1.173, -6.425e-6
-1.172, -6.573e-6
-1.171, -6.740e-6
-1.170, -6.731e-6
-1.169, -6.592e-6
-1.168, -6.721e-6
-1.167, -6.849e-6
-1.166, -6.691e-6
-1.165, -6.967e-6
-1.164, -7.115e-6
-1.163, -6.918e-6
-1.162, -7.086e-6
-1.161, -6.997e-6
-1.160, -7.056e-6
-1.159, -7.115e-6
-1.158, -7.165e-6
-1.157, -7.214e-6
-1.156, -7.145e-6
-1.155, -7.253e-6
-1.154, -7.352e-6
-1.153, -7.352e-6
-1.152, -7.559e-6
-1.151, -7.382e-6
-1.150, -7.638e-6
-1.149, -7.628e-6
-1.148, -7.470e-6
-1.147, -7.648e-6
-1.146, -7.618e-6
-1.145, -7.836e-6
-1.144, -7.816e-6
-1.143, -7.737e-6
-1.142, -7.905e-6
-1.141, -7.776e-6
-1.140, -7.836e-6
-1.139, -8.033e-6
-1.138, -7.836e-6
-1.137, -8.072e-6
-1.136, -7.934e-6
-1.135, -8.102e-6
-1.134, -8.161e-6
-1.133, -8.112e-6
-1.132, -8.368e-6
-1.131, -8.013e-6
-1.130, -8.260e-6
-1.129, -8.378e-6
-1.128, -8.270e-6
-1.127, -8.516e-6
-1.126, -8.378e-6
-1.125, -8.487e-6
-1.124, -8.477e-6
-1.123, -8.457e-6
-1.122, -8.753e-6
-1.121, -8.437e-6
-1.120, -8.704e-6
-1.119, -8.694e-6
-1.118, -8.526e-6
-1.117, -8.783e-6
-1.116, -8.595e-6
-1.115, -8.783e-6
-1.114, -8.852e-6
-1.113, -8.783e-6
-1.112, -9.049e-6
-1.111, -8.852e-6
-1.110, -9.089e-6
-1.109, -9.049e-6
-1.108, -8.950e-6
-1.107, -9.118e-6
-1.106, -9.059e-6
-1.105, -9.217e-6
-1.104, -9.246e-6
-1.103, -9.197e-6
-1.102, -9.296e-6
-1.101, -9.404e-6
-1.100, -9.404e-6
-1.099, -9.523e-6
-1.098, -9.345e-6
-1.097, -9.582e-6
-1.096, -9.246e-6
-1.095, -9.394e-6
-1.094, -9.759e-6
-1.093, -9.641e-6
-1.092, -9.740e-6
-1.091, -9.493e-6
-1.090, -9.799e-6
-1.089, -9.700e-6
-1.088, -9.720e-6
-1.087, -9.927e-6
-1.086, -9.848e-6
-1.085, -9.937e-6
-1.084, -1.005e-5
-1.083, -9.888e-6
-1.082, -1.027e-5
-1.081, -1.002e-5
-1.080, -1.013e-5
-1.079, -1.013e-5
-1.078, -1.008e-5
-1.077, -1.016e-5
-1.076, -1.022e-5
-1.075, -1.039e-5
-1.074, -1.047e-5
-1.073, -1.023e-5
-1.072, -1.064e-5
-1.071, -1.033e-5
-1.070, -1.055e-5
-1.069, -1.070e-5
-1.068, -1.046e-5
-1.067, -1.079e-5
-1.066, -1.064e-5
-1.065, -1.077e-5
-1.064, -1.082e-5
-1.063, -1.075e-5
-1.062, -1.109e-5
-1.061, -1.085e-5
-1.060, -1.081e-5
-1.059, -1.119e-5
-1.058, -1.105e-5
-1.057, -1.115e-5
-1.056, -1.128e-5
-1.055, -1.129e-5
-1.054, -1.131e-5
-1.053, -1.126e-5
-1.052, -1.158e-5
-1.051, -1.133e-5
-1.050, -1.156e-5
-1.049, -1.173e-5
-1.048, -1.158e-5
-1.047, -1.167e-5
-1.046, -1.152e-5
-1.045, -1.171e-5
-1.044, -1.181e-5
-1.043, -1.175e-5
-1.042, -1.211e-5
-1.041, -1.185e-5
-1.040, -1.208e-5
-1.039, -1.209e-5
-1.038, -1.211e-5
-1.037, -1.211e-5
-1.036, -1.187e-5
-1.035, -1.239e-5
-1.034, -1.248e-5
-1.033, -1.240e-5
-1.032, -1.252e-5
-1.031, -1.243e-5
-1.030, -1.262e-5
-1.029, -1.264e-5
-1.028, -1.256e-5
-1.027, -1.278e-5
-1.026, -1.258e-5
-1.025, -1.298e-5
-1.024, -1.306e-5
-1.023, -1.297e-5
-1.022, -1.334e-5
-1.021, -1.310e-5
-1.020, -1.317e-5
-1.019, -1.331e-5
-1.018, -1.321e-5
-1.017, -1.341e-5
-1.016, -1.325e-5
-1.015, -1.356e-5
-1.014, -1.367e-5
-1.013, -1.345e-5
-1.012, -1.373e-5
-1.011, -1.371e-5
-1.010, -1.388e-5
-1.009, -1.397e-5
-1.008, -1.395e-5
-1.007, -1.438e-5
-1.006, -1.396e-5
-1.005, -1.422e-5
-1.004, -1.433e-5
-1.003, -1.432e-5
-1.002, -1.443e-5
-1.001, -1.420e-5
