Aug. 27, 2024   13:16:44
Cyclic Voltammetry
File: c:/users/guazh/data/20240813_batch_181_500/2024-08-25-exp197\exp197-2024-08-27t12_59_23-h2koh\exp197_cv_sr_50mvs_efin_-1700mv.bin
Data Source:  Experiment
Instrument Model:  CHI760E
Header: CV ran at 50 mVs
Note: 

Init E (V) = -1
High E (V) = -1
Low E (V) = -1.7
Final E (V) = -1
Init P/N = N
Scan Rate (V/s) = 0.05
Segment = 3
Sample Interval (V) = 0.001
Quiet Time (sec) = 2
Sensitivity (A/V) = 0.01
Comp R (ohm) = 1.4

Results:

Channel 1:
Segment 1:

Segment 2:

Segment 3:

Potential/V, Current/A

-1.000, -1.894e-7
-1.001, 3.039e-7
-1.002, 3.631e-7
-1.003, 5.308e-7
-1.004, 7.281e-7
-1.005, 9.452e-7
-1.006, 9.649e-7
-1.007, 1.064e-6
-1.008, 1.133e-6
-1.009, 1.152e-6
-1.010, 1.271e-6
-1.011, 1.389e-6
-1.012, 1.389e-6
-1.013, 1.498e-6
-1.014, 1.557e-6
-1.015, 1.636e-6
-1.016, 1.715e-6
-1.017, 1.774e-6
-1.018, 1.833e-6
-1.019, 1.784e-6
-1.020, 1.882e-6
-1.021, 1.951e-6
-1.022, 1.882e-6
-1.023, 1.951e-6
-1.024, 2.119e-6
-1.025, 2.109e-6
-1.026, 2.336e-6
-1.027, 2.169e-6
-1.028, 2.257e-6
-1.029, 2.159e-6
-1.030, 2.376e-6
-1.031, 2.455e-6
-1.032, 2.297e-6
-1.033, 2.405e-6
-1.034, 2.425e-6
-1.035, 2.465e-6
-1.036, 2.613e-6
-1.037, 2.504e-6
-1.038, 2.652e-6
-1.039, 2.622e-6
-1.040, 2.642e-6
-1.041, 2.652e-6
-1.042, 2.583e-6
-1.043, 2.701e-6
-1.044, 2.711e-6
-1.045, 2.721e-6
-1.046, 2.760e-6
-1.047, 2.721e-6
-1.048, 2.731e-6
-1.049, 2.889e-6
-1.050, 2.918e-6
-1.051, 3.007e-6
-1.052, 2.760e-6
-1.053, 2.948e-6
-1.054, 2.948e-6
-1.055, 2.899e-6
-1.056, 3.047e-6
-1.057, 2.918e-6
-1.058, 2.958e-6
-1.059, 3.076e-6
-1.060, 3.007e-6
-1.061, 3.135e-6
-1.062, 2.958e-6
-1.063, 3.126e-6
-1.064, 3.116e-6
-1.065, 3.195e-6
-1.066, 3.224e-6
-1.067, 3.145e-6
-1.068, 3.244e-6
-1.069, 3.283e-6
-1.070, 3.175e-6
-1.071, 3.234e-6
-1.072, 3.116e-6
-1.073, 3.214e-6
-1.074, 3.175e-6
-1.075, 3.165e-6
-1.076, 3.431e-6
-1.077, 3.165e-6
-1.078, 3.293e-6
-1.079, 3.392e-6
-1.080, 3.343e-6
-1.081, 3.352e-6
-1.082, 3.244e-6
-1.083, 3.343e-6
-1.084, 3.362e-6
-1.085, 3.352e-6
-1.086, 3.500e-6
-1.087, 3.234e-6
-1.088, 3.372e-6
-1.089, 3.461e-6
-1.090, 3.392e-6
-1.091, 3.422e-6
-1.092, 3.372e-6
-1.093, 3.441e-6
-1.094, 3.451e-6
-1.095, 3.550e-6
-1.096, 3.510e-6
-1.097, 3.392e-6
-1.098, 3.392e-6
-1.099, 3.471e-6
-1.100, 3.451e-6
-1.101, 3.540e-6
-1.102, 3.431e-6
-1.103, 3.372e-6
-1.104, 3.481e-6
-1.105, 3.451e-6
-1.106, 3.540e-6
-1.107, 3.422e-6
-1.108, 3.540e-6
-1.109, 3.550e-6
-1.110, 3.619e-6
-1.111, 3.619e-6
-1.112, 3.500e-6
-1.113, 3.599e-6
-1.114, 3.787e-6
-1.115, 3.629e-6
-1.116, 3.757e-6
-1.117, 3.698e-6
-1.118, 3.688e-6
-1.119, 3.717e-6
-1.120, 3.796e-6
-1.121, 3.757e-6
-1.122, 3.668e-6
-1.123, 3.717e-6
-1.124, 3.796e-6
-1.125, 3.668e-6
-1.126, 3.787e-6
-1.127, 3.836e-6
-1.128, 3.806e-6
-1.129, 3.836e-6
-1.130, 3.826e-6
-1.131, 3.895e-6
-1.132, 3.944e-6
-1.133, 3.816e-6
-1.134, 3.856e-6
-1.135, 3.875e-6
-1.136, 3.944e-6
-1.137, 3.905e-6
-1.138, 3.944e-6
-1.139, 3.885e-6
-1.140, 3.944e-6
-1.141, 3.944e-6
-1.142, 3.974e-6
-1.143, 3.994e-6
-1.144, 3.974e-6
-1.145, 4.053e-6
-1.146, 4.112e-6
-1.147, 4.161e-6
-1.148, 4.033e-6
-1.149, 4.221e-6
-1.150, 4.161e-6
-1.151, 4.092e-6
-1.152, 4.221e-6
-1.153, 4.142e-6
-1.154, 4.339e-6
-1.155, 4.359e-6
-1.156, 4.388e-6
-1.157, 4.339e-6
-1.158, 4.329e-6
-1.159, 4.398e-6
-1.160, 4.388e-6
-1.161, 4.497e-6
-1.162, 4.517e-6
-1.163, 4.517e-6
-1.164, 4.546e-6
-1.165, 4.635e-6
-1.166, 4.665e-6
-1.167, 4.605e-6
-1.168, 4.596e-6
-1.169, 4.665e-6
-1.170, 4.744e-6
-1.171, 4.734e-6
-1.172, 4.832e-6
-1.173, 4.813e-6
-1.174, 4.882e-6
-1.175, 4.862e-6
-1.176, 4.931e-6
-1.177, 4.901e-6
-1.178, 4.990e-6
-1.179, 4.970e-6
-1.180, 5.128e-6
-1.181, 5.188e-6
-1.182, 5.148e-6
-1.183, 5.040e-6
-1.184, 5.316e-6
-1.185, 5.237e-6
-1.186, 5.276e-6
-1.187, 5.405e-6
-1.188, 5.266e-6
-1.189, 5.414e-6
-1.190, 5.464e-6
-1.191, 5.553e-6
-1.192, 5.582e-6
-1.193, 5.592e-6
-1.194, 5.710e-6
-1.195, 5.740e-6
-1.196, 5.710e-6
-1.197, 5.799e-6
-1.198, 5.730e-6
-1.199, 5.908e-6
-1.200, 6.006e-6
-1.201, 5.977e-6
-1.202, 6.056e-6
-1.203, 6.194e-6
-1.204, 6.253e-6
-1.205, 6.243e-6
-1.206, 6.411e-6
-1.207, 6.411e-6
-1.208, 6.401e-6
-1.209, 6.529e-6
-1.210, 6.638e-6
-1.211, 6.667e-6
-1.212, 6.727e-6
-1.213, 6.806e-6
-1.214, 6.815e-6
-1.215, 6.924e-6
-1.216, 7.023e-6
-1.217, 7.131e-6
-1.218, 7.230e-6
-1.219, 7.240e-6
-1.220, 7.378e-6
-1.221, 7.516e-6
-1.222, 7.526e-6
-1.223, 7.644e-6
-1.224, 7.654e-6
-1.225, 7.841e-6
-1.226, 8.019e-6
-1.227, 8.009e-6
-1.228, 8.029e-6
-1.229, 8.394e-6
-1.230, 8.493e-6
-1.231, 8.591e-6
-1.232, 8.710e-6
-1.233, 8.720e-6
-1.234, 8.887e-6
-1.235, 9.035e-6
-1.236, 9.134e-6
-1.237, 9.262e-6
-1.238, 9.321e-6
-1.239, 9.509e-6
-1.240, 9.607e-6
-1.241, 9.746e-6
-1.242, 9.933e-6
-1.243, 9.982e-6
-1.244, 1.022e-5
-1.245, 1.047e-5
-1.246, 1.052e-5
-1.247, 1.065e-5
-1.248, 1.079e-5
-1.249, 1.090e-5
-1.250, 1.116e-5
-1.251, 1.131e-5
-1.252, 1.147e-5
-1.253, 1.157e-5
-1.254, 1.188e-5
-1.255, 1.211e-5
-1.256, 1.238e-5
-1.257, 1.252e-5
-1.258, 1.268e-5
-1.259, 1.289e-5
-1.260, 1.317e-5
-1.261, 1.340e-5
-1.262, 1.353e-5
-1.263, 1.381e-5
-1.264, 1.408e-5
-1.265, 1.431e-5
-1.266, 1.459e-5
-1.267, 1.484e-5
-1.268, 1.510e-5
-1.269, 1.535e-5
-1.270, 1.564e-5
-1.271, 1.591e-5
-1.272, 1.615e-5
-1.273, 1.643e-5
-1.274, 1.687e-5
-1.275, 1.713e-5
-1.276, 1.743e-5
-1.277, 1.779e-5
-1.278, 1.798e-5
-1.279, 1.841e-5
-1.280, 1.889e-5
-1.281, 1.922e-5
-1.282, 1.959e-5
-1.283, 1.984e-5
-1.284, 2.026e-5
-1.285, 2.069e-5
-1.286, 2.111e-5
-1.287, 2.159e-5
-1.288, 2.192e-5
-1.289, 2.232e-5
-1.290, 2.281e-5
-1.291, 2.327e-5
-1.292, 2.372e-5
-1.293, 2.416e-5
-1.294, 2.468e-5
-1.295, 2.521e-5
-1.296, 2.566e-5
-1.297, 2.607e-5
-1.298, 2.662e-5
-1.299, 2.721e-5
-1.300, 2.776e-5
-1.301, 2.835e-5
-1.302, 2.888e-5
-1.303, 2.939e-5
-1.304, 3.012e-5
-1.305, 3.059e-5
-1.306, 3.133e-5
-1.307, 3.200e-5
-1.308, 3.258e-5
-1.309, 3.334e-5
-1.310, 3.388e-5
-1.311, 3.463e-5
-1.312, 3.527e-5
-1.313, 3.597e-5
-1.314, 3.674e-5
-1.315, 3.746e-5
-1.316, 3.844e-5
-1.317, 3.901e-5
-1.318, 3.980e-5
-1.319, 4.075e-5
-1.320, 4.143e-5
-1.321, 4.233e-5
-1.322, 4.323e-5
-1.323, 4.391e-5
-1.324, 4.490e-5
-1.325, 4.579e-5
-1.326, 4.672e-5
-1.327, 4.764e-5
-1.328, 4.836e-5
-1.329, 4.961e-5
-1.330, 5.046e-5
-1.331, 5.157e-5
-1.332, 5.263e-5
-1.333, 5.352e-5
-1.334, 5.468e-5
-1.335, 5.573e-5
-1.336, 5.682e-5
-1.337, 5.789e-5
-1.338, 5.889e-5
-1.339, 6.022e-5
-1.340, 6.122e-5
-1.341, 6.245e-5
-1.342, 6.352e-5
-1.343, 6.463e-5
-1.344, 6.600e-5
-1.345, 6.717e-5
-1.346, 6.855e-5
-1.347, 6.975e-5
-1.348, 7.089e-5
-1.349, 7.232e-5
-1.350, 7.360e-5
-1.351, 7.504e-5
-1.352, 7.630e-5
-1.353, 7.750e-5
-1.354, 7.900e-5
-1.355, 8.035e-5
-1.356, 8.183e-5
-1.357, 8.319e-5
-1.358, 8.458e-5
-1.359, 8.605e-5
-1.360, 8.752e-5
-1.361, 8.905e-5
-1.362, 9.052e-5
-1.363, 9.192e-5
-1.364, 9.369e-5
-1.365, 9.509e-5
-1.366, 9.670e-5
-1.367, 9.830e-5
-1.368, 9.979e-5
-1.369, 1.014e-4
-1.370, 1.031e-4
-1.371, 1.049e-4
-1.372, 1.065e-4
-1.373, 1.080e-4
-1.374, 1.097e-4
-1.375, 1.115e-4
-1.376, 1.133e-4
-1.377, 1.149e-4
-1.378, 1.167e-4
-1.379, 1.185e-4
-1.380, 1.202e-4
-1.381, 1.220e-4
-1.382, 1.238e-4
-1.383, 1.257e-4
-1.384, 1.275e-4
-1.385, 1.293e-4
-1.386, 1.314e-4
-1.387, 1.332e-4
-1.388, 1.351e-4
-1.389, 1.371e-4
-1.390, 1.391e-4
-1.391, 1.412e-4
-1.392, 1.431e-4
-1.393, 1.450e-4
-1.394, 1.470e-4
-1.395, 1.491e-4
-1.396, 1.513e-4
-1.397, 1.533e-4
-1.398, 1.554e-4
-1.399, 1.577e-4
-1.400, 1.598e-4
-1.401, 1.621e-4
-1.402, 1.643e-4
-1.403, 1.665e-4
-1.404, 1.688e-4
-1.405, 1.711e-4
-1.406, 1.734e-4
-1.407, 1.758e-4
-1.408, 1.781e-4
-1.409, 1.807e-4
-1.410, 1.830e-4
-1.411, 1.855e-4
-1.412, 1.879e-4
-1.413, 1.905e-4
-1.414, 1.931e-4
-1.415, 1.956e-4
-1.416, 1.983e-4
-1.417, 2.009e-4
-1.418, 2.035e-4
-1.419, 2.063e-4
-1.420, 2.089e-4
-1.421, 2.118e-4
-1.422, 2.145e-4
-1.423, 2.174e-4
-1.424, 2.203e-4
-1.425, 2.231e-4
-1.426, 2.261e-4
-1.427, 2.290e-4
-1.428, 2.320e-4
-1.429, 2.351e-4
-1.430, 2.381e-4
-1.431, 2.413e-4
-1.432, 2.444e-4
-1.433, 2.477e-4
-1.434, 2.512e-4
-1.435, 2.544e-4
-1.436, 2.578e-4
-1.437, 2.612e-4
-1.438, 2.646e-4
-1.439, 2.681e-4
-1.440, 2.717e-4
-1.441, 2.752e-4
-1.442, 2.789e-4
-1.443, 2.825e-4
-1.444, 2.864e-4
-1.445, 2.900e-4
-1.446, 2.939e-4
-1.447, 2.980e-4
-1.448, 3.017e-4
-1.449, 3.058e-4
-1.450, 3.097e-4
-1.451, 3.139e-4
-1.452, 3.181e-4
-1.453, 3.222e-4
-1.454, 3.266e-4
-1.455, 3.309e-4
-1.456, 3.353e-4
-1.457, 3.397e-4
-1.458, 3.443e-4
-1.459, 3.488e-4
-1.460, 3.535e-4
-1.461, 3.582e-4
-1.462, 3.630e-4
-1.463, 3.676e-4
-1.464, 3.725e-4
-1.465, 3.775e-4
-1.466, 3.826e-4
-1.467, 3.875e-4
-1.468, 3.927e-4
-1.469, 3.979e-4
-1.470, 4.029e-4
-1.471, 4.083e-4
-1.472, 4.136e-4
-1.473, 4.191e-4
-1.474, 4.245e-4
-1.475, 4.299e-4
-1.476, 4.357e-4
-1.477, 4.414e-4
-1.478, 4.471e-4
-1.479, 4.531e-4
-1.480, 4.588e-4
-1.481, 4.650e-4
-1.482, 4.711e-4
-1.483, 4.773e-4
-1.484, 4.835e-4
-1.485, 4.901e-4
-1.486, 4.965e-4
-1.487, 5.031e-4
-1.488, 5.096e-4
-1.489, 5.162e-4
-1.490, 5.228e-4
-1.491, 5.297e-4
-1.492, 5.369e-4
-1.493, 5.437e-4
-1.494, 5.508e-4
-1.495, 5.581e-4
-1.496, 5.653e-4
-1.497, 5.725e-4
-1.498, 5.800e-4
-1.499, 5.873e-4
-1.500, 5.948e-4
-1.501, 6.026e-4
-1.502, 6.105e-4
-1.503, 6.183e-4
-1.504, 6.261e-4
-1.505, 6.343e-4
-1.506, 6.423e-4
-1.507, 6.505e-4
-1.508, 6.589e-4
-1.509, 6.676e-4
-1.510, 6.763e-4
-1.511, 6.848e-4
-1.512, 6.935e-4
-1.513, 7.025e-4
-1.514, 7.116e-4
-1.515, 7.207e-4
-1.516, 7.298e-4
-1.517, 7.390e-4
-1.518, 7.484e-4
-1.519, 7.580e-4
-1.520, 7.677e-4
-1.521, 7.777e-4
-1.522, 7.877e-4
-1.523, 7.979e-4
-1.524, 8.081e-4
-1.525, 8.182e-4
-1.526, 8.288e-4
-1.527, 8.395e-4
-1.528, 8.502e-4
-1.529, 8.611e-4
-1.530, 8.720e-4
-1.531, 8.833e-4
-1.532, 8.944e-4
-1.533, 9.058e-4
-1.534, 9.173e-4
-1.535, 9.289e-4
-1.536, 9.407e-4
-1.537, 9.527e-4
-1.538, 9.647e-4
-1.539, 9.769e-4
-1.540, 9.893e-4
-1.541, 1.002e-3
-1.542, 1.015e-3
-1.543, 1.027e-3
-1.544, 1.040e-3
-1.545, 1.053e-3
-1.546, 1.066e-3
-1.547, 1.080e-3
-1.548, 1.094e-3
-1.549, 1.108e-3
-1.550, 1.122e-3
-1.551, 1.136e-3
-1.552, 1.150e-3
-1.553, 1.165e-3
-1.554, 1.179e-3
-1.555, 1.194e-3
-1.556, 1.209e-3
-1.557, 1.224e-3
-1.558, 1.239e-3
-1.559, 1.255e-3
-1.560, 1.271e-3
-1.561, 1.286e-3
-1.562, 1.300e-3
-1.563, 1.317e-3
-1.564, 1.334e-3
-1.565, 1.351e-3
-1.566, 1.368e-3
-1.567, 1.386e-3
-1.568, 1.403e-3
-1.569, 1.421e-3
-1.570, 1.439e-3
-1.571, 1.458e-3
-1.572, 1.476e-3
-1.573, 1.495e-3
-1.574, 1.514e-3
-1.575, 1.534e-3
-1.576, 1.553e-3
-1.577, 1.573e-3
-1.578, 1.593e-3
-1.579, 1.614e-3
-1.580, 1.635e-3
-1.581, 1.656e-3
-1.582, 1.677e-3
-1.583, 1.698e-3
-1.584, 1.721e-3
-1.585, 1.743e-3
-1.586, 1.766e-3
-1.587, 1.788e-3
-1.588, 1.811e-3
-1.589, 1.834e-3
-1.590, 1.858e-3
-1.591, 1.880e-3
-1.592, 1.904e-3
-1.593, 1.928e-3
-1.594, 1.953e-3
-1.595, 1.979e-3
-1.596, 2.004e-3
-1.597, 2.030e-3
-1.598, 2.057e-3
-1.599, 2.084e-3
-1.600, 2.111e-3
-1.601, 2.138e-3
-1.602, 2.166e-3
-1.603, 2.194e-3
-1.604, 2.222e-3
-1.605, 2.251e-3
-1.606, 2.280e-3
-1.607, 2.310e-3
-1.608, 2.340e-3
-1.609, 2.370e-3
-1.610, 2.401e-3
-1.611, 2.432e-3
-1.612, 2.465e-3
-1.613, 2.496e-3
-1.614, 2.529e-3
-1.615, 2.562e-3
-1.616, 2.596e-3
-1.617, 2.628e-3
-1.618, 2.662e-3
-1.619, 2.696e-3
-1.620, 2.733e-3
-1.621, 2.769e-3
-1.622, 2.803e-3
-1.623, 2.839e-3
-1.624, 2.875e-3
-1.625, 2.913e-3
-1.626, 2.951e-3
-1.627, 2.989e-3
-1.628, 3.024e-3
-1.629, 3.063e-3
-1.630, 3.102e-3
-1.631, 3.143e-3
-1.632, 3.184e-3
-1.633, 3.224e-3
-1.634, 3.266e-3
-1.635, 3.300e-3
-1.636, 3.342e-3
-1.637, 3.384e-3
-1.638, 3.428e-3
-1.639, 3.471e-3
-1.640, 3.517e-3
-1.641, 3.562e-3
-1.642, 3.608e-3
-1.643, 3.654e-3
-1.644, 3.700e-3
-1.645, 3.748e-3
-1.646, 3.796e-3
-1.647, 3.846e-3
-1.648, 3.894e-3
-1.649, 3.943e-3
-1.650, 3.993e-3
-1.651, 4.045e-3
-1.652, 4.097e-3
-1.653, 4.148e-3
-1.654, 4.198e-3
-1.655, 4.251e-3
-1.656, 4.305e-3
-1.657, 4.359e-3
-1.658, 4.413e-3
-1.659, 4.465e-3
-1.660, 4.522e-3
-1.661, 4.578e-3
-1.662, 4.636e-3
-1.663, 4.692e-3
-1.664, 4.748e-3
-1.665, 4.806e-3
-1.666, 4.865e-3
-1.667, 4.925e-3
-1.668, 4.985e-3
-1.669, 5.047e-3
-1.670, 5.105e-3
-1.671, 5.168e-3
-1.672, 5.228e-3
-1.673, 5.293e-3
-1.674, 5.350e-3
-1.675, 5.411e-3
-1.676, 5.474e-3
-1.677, 5.538e-3
-1.678, 5.598e-3
-1.679, 5.664e-3
-1.680, 5.725e-3
-1.681, 5.788e-3
-1.682, 5.854e-3
-1.683, 5.915e-3
-1.684, 5.978e-3
-1.685, 6.036e-3
-1.686, 6.096e-3
-1.687, 6.158e-3
-1.688, 6.229e-3
-1.689, 6.303e-3
-1.690, 6.375e-3
-1.691, 6.445e-3
-1.692, 6.516e-3
-1.693, 6.584e-3
-1.694, 6.652e-3
-1.695, 6.722e-3
-1.696, 6.790e-3
-1.697, 6.861e-3
-1.698, 6.929e-3
-1.699, 6.997e-3
-1.700, 7.010e-3
-1.699, 6.956e-3
-1.698, 6.898e-3
-1.697, 6.843e-3
-1.696, 6.784e-3
-1.695, 6.723e-3
-1.694, 6.657e-3
-1.693, 6.589e-3
-1.692, 6.523e-3
-1.691, 6.458e-3
-1.690, 6.396e-3
-1.689, 6.330e-3
-1.688, 6.265e-3
-1.687, 6.196e-3
-1.686, 6.131e-3
-1.685, 6.065e-3
-1.684, 6.003e-3
-1.683, 5.940e-3
-1.682, 5.876e-3
-1.681, 5.817e-3
-1.680, 5.759e-3
-1.679, 5.697e-3
-1.678, 5.631e-3
-1.677, 5.574e-3
-1.676, 5.515e-3
-1.675, 5.462e-3
-1.674, 5.402e-3
-1.673, 5.342e-3
-1.672, 5.283e-3
-1.671, 5.227e-3
-1.670, 5.169e-3
-1.669, 5.112e-3
-1.668, 5.054e-3
-1.667, 4.997e-3
-1.666, 4.940e-3
-1.665, 4.884e-3
-1.664, 4.828e-3
-1.663, 4.768e-3
-1.662, 4.712e-3
-1.661, 4.658e-3
-1.660, 4.606e-3
-1.659, 4.551e-3
-1.658, 4.495e-3
-1.657, 4.441e-3
-1.656, 4.388e-3
-1.655, 4.338e-3
-1.654, 4.287e-3
-1.653, 4.239e-3
-1.652, 4.189e-3
-1.651, 4.141e-3
-1.650, 4.096e-3
-1.649, 4.052e-3
-1.648, 4.004e-3
-1.647, 3.956e-3
-1.646, 3.908e-3
-1.645, 3.864e-3
-1.644, 3.819e-3
-1.643, 3.771e-3
-1.642, 3.723e-3
-1.641, 3.675e-3
-1.640, 3.629e-3
-1.639, 3.581e-3
-1.638, 3.538e-3
-1.637, 3.491e-3
-1.636, 3.447e-3
-1.635, 3.405e-3
-1.634, 3.351e-3
-1.633, 3.302e-3
-1.632, 3.254e-3
-1.631, 3.212e-3
-1.630, 3.169e-3
-1.629, 3.128e-3
-1.628, 3.087e-3
-1.627, 3.046e-3
-1.626, 3.005e-3
-1.625, 2.965e-3
-1.624, 2.924e-3
-1.623, 2.884e-3
-1.622, 2.845e-3
-1.621, 2.806e-3
-1.620, 2.766e-3
-1.619, 2.727e-3
-1.618, 2.687e-3
-1.617, 2.649e-3
-1.616, 2.612e-3
-1.615, 2.573e-3
-1.614, 2.536e-3
-1.613, 2.498e-3
-1.612, 2.460e-3
-1.611, 2.424e-3
-1.610, 2.388e-3
-1.609, 2.353e-3
-1.608, 2.318e-3
-1.607, 2.283e-3
-1.606, 2.249e-3
-1.605, 2.217e-3
-1.604, 2.187e-3
-1.603, 2.158e-3
-1.602, 2.128e-3
-1.601, 2.097e-3
-1.600, 2.065e-3
-1.599, 2.035e-3
-1.598, 2.005e-3
-1.597, 1.976e-3
-1.596, 1.947e-3
-1.595, 1.919e-3
-1.594, 1.890e-3
-1.593, 1.863e-3
-1.592, 1.836e-3
-1.591, 1.810e-3
-1.590, 1.784e-3
-1.589, 1.758e-3
-1.588, 1.732e-3
-1.587, 1.705e-3
-1.586, 1.678e-3
-1.585, 1.656e-3
-1.584, 1.629e-3
-1.583, 1.603e-3
-1.582, 1.580e-3
-1.581, 1.554e-3
-1.580, 1.529e-3
-1.579, 1.505e-3
-1.578, 1.481e-3
-1.577, 1.458e-3
-1.576, 1.434e-3
-1.575, 1.412e-3
-1.574, 1.389e-3
-1.573, 1.367e-3
-1.572, 1.345e-3
-1.571, 1.324e-3
-1.570, 1.303e-3
-1.569, 1.282e-3
-1.568, 1.261e-3
-1.567, 1.241e-3
-1.566, 1.221e-3
-1.565, 1.202e-3
-1.564, 1.183e-3
-1.563, 1.164e-3
-1.562, 1.145e-3
-1.561, 1.126e-3
-1.560, 1.108e-3
-1.559, 1.090e-3
-1.558, 1.072e-3
-1.557, 1.055e-3
-1.556, 1.038e-3
-1.555, 1.020e-3
-1.554, 1.004e-3
-1.553, 9.871e-4
-1.552, 9.711e-4
-1.551, 9.549e-4
-1.550, 9.386e-4
-1.549, 9.234e-4
-1.548, 9.083e-4
-1.547, 8.931e-4
-1.546, 8.776e-4
-1.545, 8.627e-4
-1.544, 8.482e-4
-1.543, 8.338e-4
-1.542, 8.199e-4
-1.541, 8.057e-4
-1.540, 7.916e-4
-1.539, 7.768e-4
-1.538, 7.639e-4
-1.537, 7.511e-4
-1.536, 7.381e-4
-1.535, 7.256e-4
-1.534, 7.132e-4
-1.533, 7.011e-4
-1.532, 6.892e-4
-1.531, 6.773e-4
-1.530, 6.651e-4
-1.529, 6.532e-4
-1.528, 6.439e-4
-1.527, 6.322e-4
-1.526, 6.211e-4
-1.525, 6.110e-4
-1.524, 6.002e-4
-1.523, 5.892e-4
-1.522, 5.773e-4
-1.521, 5.671e-4
-1.520, 5.570e-4
-1.519, 5.469e-4
-1.518, 5.369e-4
-1.517, 5.273e-4
-1.516, 5.177e-4
-1.515, 5.085e-4
-1.514, 4.992e-4
-1.513, 4.904e-4
-1.512, 4.820e-4
-1.511, 4.732e-4
-1.510, 4.646e-4
-1.509, 4.561e-4
-1.508, 4.481e-4
-1.507, 4.404e-4
-1.506, 4.324e-4
-1.505, 4.244e-4
-1.504, 4.168e-4
-1.503, 4.092e-4
-1.502, 4.020e-4
-1.501, 3.947e-4
-1.500, 3.878e-4
-1.499, 3.808e-4
-1.498, 3.740e-4
-1.497, 3.673e-4
-1.496, 3.605e-4
-1.495, 3.542e-4
-1.494, 3.478e-4
-1.493, 3.415e-4
-1.492, 3.352e-4
-1.491, 3.293e-4
-1.490, 3.235e-4
-1.489, 3.176e-4
-1.488, 3.119e-4
-1.487, 3.063e-4
-1.486, 3.008e-4
-1.485, 2.954e-4
-1.484, 2.901e-4
-1.483, 2.850e-4
-1.482, 2.799e-4
-1.481, 2.751e-4
-1.480, 2.698e-4
-1.479, 2.650e-4
-1.478, 2.600e-4
-1.477, 2.553e-4
-1.476, 2.509e-4
-1.475, 2.466e-4
-1.474, 2.423e-4
-1.473, 2.386e-4
-1.472, 2.335e-4
-1.471, 2.295e-4
-1.470, 2.253e-4
-1.469, 2.213e-4
-1.468, 2.174e-4
-1.467, 2.135e-4
-1.466, 2.097e-4
-1.465, 2.059e-4
-1.464, 2.023e-4
-1.463, 1.986e-4
-1.462, 1.950e-4
-1.461, 1.917e-4
-1.460, 1.884e-4
-1.459, 1.850e-4
-1.458, 1.819e-4
-1.457, 1.785e-4
-1.456, 1.755e-4
-1.455, 1.723e-4
-1.454, 1.692e-4
-1.453, 1.663e-4
-1.452, 1.634e-4
-1.451, 1.605e-4
-1.450, 1.577e-4
-1.449, 1.550e-4
-1.448, 1.522e-4
-1.447, 1.496e-4
-1.446, 1.469e-4
-1.445, 1.444e-4
-1.444, 1.419e-4
-1.443, 1.393e-4
-1.442, 1.368e-4
-1.441, 1.344e-4
-1.440, 1.322e-4
-1.439, 1.298e-4
-1.438, 1.275e-4
-1.437, 1.254e-4
-1.436, 1.232e-4
-1.435, 1.212e-4
-1.434, 1.188e-4
-1.433, 1.167e-4
-1.432, 1.147e-4
-1.431, 1.127e-4
-1.430, 1.107e-4
-1.429, 1.088e-4
-1.428, 1.069e-4
-1.427, 1.050e-4
-1.426, 1.033e-4
-1.425, 1.015e-4
-1.424, 9.962e-5
-1.423, 9.789e-5
-1.422, 9.612e-5
-1.421, 9.438e-5
-1.420, 9.292e-5
-1.419, 9.127e-5
-1.418, 8.960e-5
-1.417, 8.807e-5
-1.416, 8.644e-5
-1.415, 8.513e-5
-1.414, 8.350e-5
-1.413, 8.206e-5
-1.412, 8.061e-5
-1.411, 7.916e-5
-1.410, 7.800e-5
-1.409, 7.649e-5
-1.408, 7.515e-5
-1.407, 7.371e-5
-1.406, 7.244e-5
-1.405, 7.136e-5
-1.404, 7.007e-5
-1.403, 6.886e-5
-1.402, 6.757e-5
-1.401, 6.635e-5
-1.400, 6.523e-5
-1.399, 6.407e-5
-1.398, 6.303e-5
-1.397, 6.187e-5
-1.396, 6.098e-5
-1.395, 5.977e-5
-1.394, 5.875e-5
-1.393, 5.774e-5
-1.392, 5.668e-5
-1.391, 5.572e-5
-1.390, 5.488e-5
-1.389, 5.381e-5
-1.388, 5.288e-5
-1.387, 5.186e-5
-1.386, 5.092e-5
-1.385, 5.010e-5
-1.384, 4.914e-5
-1.383, 4.823e-5
-1.382, 4.794e-5
-1.381, 4.671e-5
-1.380, 4.585e-5
-1.379, 4.500e-5
-1.378, 4.422e-5
-1.377, 4.335e-5
-1.376, 4.250e-5
-1.375, 4.187e-5
-1.374, 4.119e-5
-1.373, 4.030e-5
-1.372, 3.963e-5
-1.371, 3.886e-5
-1.370, 3.817e-5
-1.369, 3.742e-5
-1.368, 3.680e-5
-1.367, 3.602e-5
-1.366, 3.536e-5
-1.365, 3.491e-5
-1.364, 3.413e-5
-1.363, 3.347e-5
-1.362, 3.288e-5
-1.361, 3.235e-5
-1.360, 3.168e-5
-1.359, 3.119e-5
-1.358, 3.056e-5
-1.357, 2.991e-5
-1.356, 2.936e-5
-1.355, 2.881e-5
-1.354, 2.840e-5
-1.353, 2.775e-5
-1.352, 2.718e-5
-1.351, 2.675e-5
-1.350, 2.606e-5
-1.349, 2.575e-5
-1.348, 2.533e-5
-1.347, 2.468e-5
-1.346, 2.423e-5
-1.345, 2.381e-5
-1.344, 2.335e-5
-1.343, 2.288e-5
-1.342, 2.223e-5
-1.341, 2.193e-5
-1.340, 2.154e-5
-1.339, 2.113e-5
-1.338, 2.072e-5
-1.337, 2.019e-5
-1.336, 1.984e-5
-1.335, 1.943e-5
-1.334, 1.903e-5
-1.333, 1.870e-5
-1.332, 1.821e-5
-1.331, 1.782e-5
-1.330, 1.739e-5
-1.329, 1.715e-5
-1.328, 1.680e-5
-1.327, 1.636e-5
-1.326, 1.598e-5
-1.325, 1.565e-5
-1.324, 1.540e-5
-1.323, 1.511e-5
-1.322, 1.462e-5
-1.321, 1.439e-5
-1.320, 1.410e-5
-1.319, 1.374e-5
-1.318, 1.344e-5
-1.317, 1.308e-5
-1.316, 1.282e-5
-1.315, 1.251e-5
-1.314, 1.229e-5
-1.313, 1.195e-5
-1.312, 1.161e-5
-1.311, 1.140e-5
-1.310, 1.110e-5
-1.309, 1.089e-5
-1.308, 1.070e-5
-1.307, 1.032e-5
-1.306, 1.019e-5
-1.305, 9.775e-6
-1.304, 9.529e-6
-1.303, 9.341e-6
-1.302, 9.124e-6
-1.301, 8.907e-6
-1.300, 8.660e-6
-1.299, 8.404e-6
-1.298, 8.226e-6
-1.297, 7.940e-6
-1.296, 7.723e-6
-1.295, 7.506e-6
-1.294, 7.417e-6
-1.293, 7.161e-6
-1.292, 6.825e-6
-1.291, 6.746e-6
-1.290, 6.500e-6
-1.289, 6.342e-6
-1.288, 6.214e-6
-1.287, 5.927e-6
-1.286, 5.730e-6
-1.285, 5.562e-6
-1.284, 5.424e-6
-1.283, 5.217e-6
-1.282, 5.059e-6
-1.281, 4.951e-6
-1.280, 4.665e-6
-1.279, 4.517e-6
-1.278, 4.448e-6
-1.277, 4.201e-6
-1.276, 4.073e-6
-1.275, 3.895e-6
-1.274, 3.727e-6
-1.273, 3.648e-6
-1.272, 3.471e-6
-1.271, 3.313e-6
-1.270, 3.126e-6
-1.269, 3.076e-6
-1.268, 2.879e-6
-1.267, 2.810e-6
-1.266, 2.622e-6
-1.265, 2.534e-6
-1.264, 2.405e-6
-1.263, 2.326e-6
-1.262, 2.129e-6
-1.261, 2.090e-6
-1.260, 1.912e-6
-1.259, 1.833e-6
-1.258, 1.656e-6
-1.257, 1.557e-6
-1.256, 1.577e-6
-1.255, 1.360e-6
-1.254, 1.241e-6
-1.253, 1.123e-6
-1.252, 9.945e-7
-1.251, 9.057e-7
-1.250, 9.254e-7
-1.249, 6.886e-7
-1.248, 6.393e-7
-1.247, 4.815e-7
-1.246, 5.604e-7
-1.245, 3.631e-7
-1.244, 3.828e-7
-1.243, 2.151e-7
-1.242, 4.736e-8
-1.241, 6.709e-8
-1.240, -7.103e-8
-1.239, -6.117e-8
-1.238, -1.993e-7
-1.237, -3.571e-7
-1.236, -2.980e-7
-1.235, -4.459e-7
-1.234, -3.670e-7
-1.233, -4.657e-7
-1.232, -5.939e-7
-1.231, -6.433e-7
-1.230, -8.011e-7
-1.229, -8.800e-7
-1.228, -8.800e-7
-1.227, -1.067e-6
-1.226, -1.038e-6
-1.225, -1.196e-6
-1.224, -1.166e-6
-1.223, -1.245e-6
-1.222, -1.294e-6
-1.221, -1.363e-6
-1.220, -1.442e-6
-1.219, -1.442e-6
-1.218, -1.413e-6
-1.217, -1.659e-6
-1.216, -1.719e-6
-1.215, -1.738e-6
-1.214, -1.837e-6
-1.213, -1.689e-6
-1.212, -1.837e-6
-1.211, -1.788e-6
-1.210, -1.916e-6
-1.209, -1.955e-6
-1.208, -1.965e-6
-1.207, -2.084e-6
-1.206, -2.054e-6
-1.205, -2.153e-6
-1.204, -2.123e-6
-1.203, -2.153e-6
-1.202, -2.222e-6
-1.201, -2.311e-6
-1.200, -2.320e-6
-1.199, -2.291e-6
-1.198, -2.330e-6
-1.197, -2.498e-6
-1.196, -2.449e-6
-1.195, -2.390e-6
-1.194, -2.478e-6
-1.193, -2.449e-6
-1.192, -2.715e-6
-1.191, -2.577e-6
-1.190, -2.607e-6
-1.189, -2.656e-6
-1.188, -2.636e-6
-1.187, -2.893e-6
-1.186, -2.764e-6
-1.185, -2.774e-6
-1.184, -2.903e-6
-1.183, -2.883e-6
-1.182, -2.962e-6
-1.181, -2.903e-6
-1.180, -2.903e-6
-1.179, -2.981e-6
-1.178, -3.041e-6
-1.177, -3.179e-6
-1.176, -3.060e-6
-1.175, -3.120e-6
-1.174, -3.228e-6
-1.173, -3.051e-6
-1.172, -3.248e-6
-1.171, -3.218e-6
-1.170, -3.238e-6
-1.169, -3.258e-6
-1.168, -3.238e-6
-1.167, -3.307e-6
-1.166, -3.386e-6
-1.165, -3.406e-6
-1.164, -3.366e-6
-1.163, -3.465e-6
-1.162, -3.396e-6
-1.161, -3.514e-6
-1.160, -3.524e-6
-1.159, -3.514e-6
-1.158, -3.534e-6
-1.157, -3.544e-6
-1.156, -3.583e-6
-1.155, -3.643e-6
-1.154, -3.603e-6
-1.153, -3.603e-6
-1.152, -3.800e-6
-1.151, -3.790e-6
-1.150, -3.741e-6
-1.149, -3.662e-6
-1.148, -3.830e-6
-1.147, -3.800e-6
-1.146, -3.879e-6
-1.145, -3.948e-6
-1.144, -3.800e-6
-1.143, -3.938e-6
-1.142, -3.879e-6
-1.141, -3.929e-6
-1.140, -4.008e-6
-1.139, -3.958e-6
-1.138, -3.968e-6
-1.137, -4.027e-6
-1.136, -4.008e-6
-1.135, -4.106e-6
-1.134, -4.037e-6
-1.133, -4.234e-6
-1.132, -4.234e-6
-1.131, -4.294e-6
-1.130, -4.234e-6
-1.129, -4.215e-6
-1.128, -4.313e-6
-1.127, -4.323e-6
-1.126, -4.550e-6
-1.125, -4.313e-6
-1.124, -4.333e-6
-1.123, -4.452e-6
-1.122, -4.461e-6
-1.121, -4.412e-6
-1.120, -4.530e-6
-1.119, -4.392e-6
-1.118, -4.452e-6
-1.117, -4.530e-6
-1.116, -4.600e-6
-1.115, -4.609e-6
-1.114, -4.590e-6
-1.113, -4.629e-6
-1.112, -4.600e-6
-1.111, -4.718e-6
-1.110, -4.678e-6
-1.109, -4.669e-6
-1.108, -4.777e-6
-1.107, -4.767e-6
-1.106, -4.846e-6
-1.105, -4.738e-6
-1.104, -4.856e-6
-1.103, -4.905e-6
-1.102, -4.817e-6
-1.101, -5.014e-6
-1.100, -5.014e-6
-1.099, -5.063e-6
-1.098, -5.053e-6
-1.097, -5.024e-6
-1.096, -5.093e-6
-1.095, -5.073e-6
-1.094, -5.211e-6
-1.093, -5.063e-6
-1.092, -5.122e-6
-1.091, -5.251e-6
-1.090, -5.231e-6
-1.089, -5.231e-6
-1.088, -5.310e-6
-1.087, -5.409e-6
-1.086, -5.409e-6
-1.085, -5.379e-6
-1.084, -5.399e-6
-1.083, -5.320e-6
-1.082, -5.527e-6
-1.081, -5.507e-6
-1.080, -5.527e-6
-1.079, -5.616e-6
-1.078, -5.586e-6
-1.077, -5.655e-6
-1.076, -5.665e-6
-1.075, -5.744e-6
-1.074, -5.783e-6
-1.073, -5.714e-6
-1.072, -5.754e-6
-1.071, -5.734e-6
-1.070, -5.882e-6
-1.069, -5.872e-6
-1.068, -5.912e-6
-1.067, -6.000e-6
-1.066, -5.912e-6
-1.065, -6.000e-6
-1.064, -6.040e-6
-1.063, -6.089e-6
-1.062, -6.148e-6
-1.061, -6.099e-6
-1.060, -6.129e-6
-1.059, -6.366e-6
-1.058, -6.168e-6
-1.057, -6.296e-6
-1.056, -6.316e-6
-1.055, -6.375e-6
-1.054, -6.405e-6
-1.053, -6.385e-6
-1.052, -6.484e-6
-1.051, -6.543e-6
-1.050, -6.553e-6
-1.049, -6.563e-6
-1.048, -6.622e-6
-1.047, -6.731e-6
-1.046, -6.731e-6
-1.045, -6.760e-6
-1.044, -6.740e-6
-1.043, -6.740e-6
-1.042, -6.888e-6
-1.041, -6.928e-6
-1.040, -6.948e-6
-1.039, -6.948e-6
-1.038, -6.967e-6
-1.037, -7.066e-6
-1.036, -7.115e-6
-1.035, -7.165e-6
-1.034, -7.135e-6
-1.033, -7.214e-6
-1.032, -7.224e-6
-1.031, -7.303e-6
-1.030, -7.332e-6
-1.029, -7.175e-6
-1.028, -7.283e-6
-1.027, -7.540e-6
-1.026, -7.411e-6
-1.025, -7.530e-6
-1.024, -7.618e-6
-1.023, -7.638e-6
-1.022, -7.678e-6
-1.021, -7.707e-6
-1.020, -7.717e-6
-1.019, -7.905e-6
-1.018, -7.727e-6
-1.017, -8.033e-6
-1.016, -7.914e-6
-1.015, -8.013e-6
-1.014, -8.033e-6
-1.013, -7.964e-6
-1.012, -8.161e-6
-1.011, -8.151e-6
-1.010, -8.289e-6
-1.009, -8.270e-6
-1.008, -8.220e-6
-1.007, -8.398e-6
-1.006, -8.418e-6
-1.005, -8.388e-6
-1.004, -8.467e-6
-1.003, -8.408e-6
-1.002, -8.664e-6
-1.001, -8.654e-6
