Sept. 11, 2024   17:20:54
Cyclic Voltammetry
File: c:/users/guazh/data/20240903_batch_252_500/2024-09-03-exp326\exp326-2024-09-11t17_00_22-h2koh\exp326_cv_sr_600mvs_efin_-1800mv.bin
Data Source:  Experiment
Instrument Model:  CHI760E
Header: CV ran at 600 mVs
Note: 

Init E (V) = -1
High E (V) = -1
Low E (V) = -1.8
Final E (V) = -1
Init P/N = N
Scan Rate (V/s) = 0.6
Segment = 3
Sample Interval (V) = 0.001
Quiet Time (sec) = 2
Sensitivity (A/V) = 0.01
Comp R (ohm) = 2.1

Results:

Channel 1:
Segment 1:

Segment 2:

Segment 3:

Potential/V, Current/A

-1.000, 3.239e-6
-1.001, 6.322e-6
-1.002, 9.405e-6
-1.003, 9.405e-6
-1.004, 9.405e-6
-1.005, 9.405e-6
-1.006, 9.405e-6
-1.007, 9.405e-6
-1.008, 1.249e-5
-1.009, 1.249e-5
-1.010, 1.249e-5
-1.011, 1.249e-5
-1.012, 1.249e-5
-1.013, 1.249e-5
-1.014, 1.249e-5
-1.015, 1.249e-5
-1.016, 1.249e-5
-1.017, 1.249e-5
-1.018, 1.249e-5
-1.019, 1.249e-5
-1.020, 1.249e-5
-1.021, 1.249e-5
-1.022, 1.249e-5
-1.023, 1.249e-5
-1.024, 1.249e-5
-1.025, 1.249e-5
-1.026, 1.249e-5
-1.027, 1.249e-5
-1.028, 1.249e-5
-1.029, 1.249e-5
-1.030, 1.557e-5
-1.031, 1.249e-5
-1.032, 1.249e-5
-1.033, 1.557e-5
-1.034, 1.557e-5
-1.035, 1.557e-5
-1.036, 1.249e-5
-1.037, 1.249e-5
-1.038, 1.557e-5
-1.039, 1.557e-5
-1.040, 1.557e-5
-1.041, 1.557e-5
-1.042, 1.557e-5
-1.043, 1.557e-5
-1.044, 1.557e-5
-1.045, 1.557e-5
-1.046, 1.557e-5
-1.047, 1.557e-5
-1.048, 1.557e-5
-1.049, 1.557e-5
-1.050, 1.557e-5
-1.051, 1.557e-5
-1.052, 1.557e-5
-1.053, 1.557e-5
-1.054, 1.557e-5
-1.055, 1.557e-5
-1.056, 1.557e-5
-1.057, 1.557e-5
-1.058, 1.557e-5
-1.059, 1.557e-5
-1.060, 1.557e-5
-1.061, 1.557e-5
-1.062, 1.557e-5
-1.063, 1.557e-5
-1.064, 1.557e-5
-1.065, 1.557e-5
-1.066, 1.557e-5
-1.067, 1.557e-5
-1.068, 1.557e-5
-1.069, 1.557e-5
-1.070, 1.557e-5
-1.071, 1.557e-5
-1.072, 1.557e-5
-1.073, 1.557e-5
-1.074, 1.557e-5
-1.075, 1.557e-5
-1.076, 1.557e-5
-1.077, 1.557e-5
-1.078, 1.557e-5
-1.079, 1.557e-5
-1.080, 1.557e-5
-1.081, 1.557e-5
-1.082, 1.557e-5
-1.083, 1.557e-5
-1.084, 1.557e-5
-1.085, 1.557e-5
-1.086, 1.557e-5
-1.087, 1.557e-5
-1.088, 1.557e-5
-1.089, 1.557e-5
-1.090, 1.557e-5
-1.091, 1.557e-5
-1.092, 1.557e-5
-1.093, 1.557e-5
-1.094, 1.865e-5
-1.095, 1.557e-5
-1.096, 1.865e-5
-1.097, 1.865e-5
-1.098, 1.557e-5
-1.099, 1.865e-5
-1.100, 1.865e-5
-1.101, 1.865e-5
-1.102, 1.865e-5
-1.103, 1.865e-5
-1.104, 1.865e-5
-1.105, 1.865e-5
-1.106, 1.865e-5
-1.107, 1.557e-5
-1.108, 1.865e-5
-1.109, 1.865e-5
-1.110, 1.865e-5
-1.111, 1.865e-5
-1.112, 1.865e-5
-1.113, 1.865e-5
-1.114, 1.865e-5
-1.115, 1.865e-5
-1.116, 1.865e-5
-1.117, 1.865e-5
-1.118, 1.865e-5
-1.119, 1.865e-5
-1.120, 1.557e-5
-1.121, 1.557e-5
-1.122, 1.865e-5
-1.123, 1.865e-5
-1.124, 1.865e-5
-1.125, 1.865e-5
-1.126, 1.865e-5
-1.127, 1.865e-5
-1.128, 1.865e-5
-1.129, 1.865e-5
-1.130, 1.865e-5
-1.131, 1.865e-5
-1.132, 1.865e-5
-1.133, 1.865e-5
-1.134, 1.865e-5
-1.135, 1.865e-5
-1.136, 1.865e-5
-1.137, 1.865e-5
-1.138, 1.865e-5
-1.139, 1.865e-5
-1.140, 1.865e-5
-1.141, 1.865e-5
-1.142, 1.865e-5
-1.143, 1.865e-5
-1.144, 1.865e-5
-1.145, 1.865e-5
-1.146, 1.865e-5
-1.147, 1.865e-5
-1.148, 1.865e-5
-1.149, 1.865e-5
-1.150, 1.865e-5
-1.151, 1.865e-5
-1.152, 1.865e-5
-1.153, 1.865e-5
-1.154, 1.865e-5
-1.155, 1.865e-5
-1.156, 1.865e-5
-1.157, 1.865e-5
-1.158, 1.865e-5
-1.159, 1.865e-5
-1.160, 1.865e-5
-1.161, 1.865e-5
-1.162, 1.865e-5
-1.163, 1.865e-5
-1.164, 1.865e-5
-1.165, 1.865e-5
-1.166, 1.865e-5
-1.167, 1.865e-5
-1.168, 1.865e-5
-1.169, 2.174e-5
-1.170, 1.865e-5
-1.171, 1.865e-5
-1.172, 1.865e-5
-1.173, 1.865e-5
-1.174, 1.865e-5
-1.175, 1.865e-5
-1.176, 1.865e-5
-1.177, 1.865e-5
-1.178, 1.865e-5
-1.179, 1.865e-5
-1.180, 1.865e-5
-1.181, 1.865e-5
-1.182, 1.865e-5
-1.183, 1.865e-5
-1.184, 1.865e-5
-1.185, 1.865e-5
-1.186, 1.865e-5
-1.187, 1.865e-5
-1.188, 1.865e-5
-1.189, 1.865e-5
-1.190, 1.865e-5
-1.191, 1.865e-5
-1.192, 1.865e-5
-1.193, 2.174e-5
-1.194, 1.865e-5
-1.195, 1.865e-5
-1.196, 1.865e-5
-1.197, 1.865e-5
-1.198, 2.174e-5
-1.199, 1.865e-5
-1.200, 1.865e-5
-1.201, 2.174e-5
-1.202, 1.865e-5
-1.203, 1.865e-5
-1.204, 1.865e-5
-1.205, 1.865e-5
-1.206, 1.865e-5
-1.207, 2.174e-5
-1.208, 1.865e-5
-1.209, 2.174e-5
-1.210, 1.865e-5
-1.211, 1.865e-5
-1.212, 1.865e-5
-1.213, 1.865e-5
-1.214, 1.865e-5
-1.215, 1.865e-5
-1.216, 1.865e-5
-1.217, 1.865e-5
-1.218, 2.174e-5
-1.219, 1.865e-5
-1.220, 1.865e-5
-1.221, 1.865e-5
-1.222, 1.865e-5
-1.223, 2.174e-5
-1.224, 2.174e-5
-1.225, 1.865e-5
-1.226, 2.174e-5
-1.227, 2.174e-5
-1.228, 1.865e-5
-1.229, 2.174e-5
-1.230, 2.174e-5
-1.231, 2.174e-5
-1.232, 2.174e-5
-1.233, 2.174e-5
-1.234, 1.865e-5
-1.235, 2.174e-5
-1.236, 2.174e-5
-1.237, 2.174e-5
-1.238, 2.174e-5
-1.239, 2.174e-5
-1.240, 2.174e-5
-1.241, 2.174e-5
-1.242, 1.865e-5
-1.243, 2.174e-5
-1.244, 2.174e-5
-1.245, 2.174e-5
-1.246, 2.174e-5
-1.247, 2.174e-5
-1.248, 2.174e-5
-1.249, 2.174e-5
-1.250, 2.174e-5
-1.251, 2.174e-5
-1.252, 2.174e-5
-1.253, 2.174e-5
-1.254, 2.174e-5
-1.255, 2.174e-5
-1.256, 2.174e-5
-1.257, 2.174e-5
-1.258, 2.174e-5
-1.259, 2.174e-5
-1.260, 2.174e-5
-1.261, 2.174e-5
-1.262, 2.174e-5
-1.263, 2.174e-5
-1.264, 2.174e-5
-1.265, 2.174e-5
-1.266, 2.174e-5
-1.267, 2.174e-5
-1.268, 2.174e-5
-1.269, 2.174e-5
-1.270, 2.174e-5
-1.271, 2.174e-5
-1.272, 2.174e-5
-1.273, 2.174e-5
-1.274, 2.174e-5
-1.275, 2.174e-5
-1.276, 2.174e-5
-1.277, 2.174e-5
-1.278, 2.174e-5
-1.279, 2.174e-5
-1.280, 2.174e-5
-1.281, 2.174e-5
-1.282, 2.174e-5
-1.283, 2.174e-5
-1.284, 2.174e-5
-1.285, 2.174e-5
-1.286, 2.174e-5
-1.287, 2.174e-5
-1.288, 2.174e-5
-1.289, 2.174e-5
-1.290, 2.174e-5
-1.291, 2.174e-5
-1.292, 2.174e-5
-1.293, 2.174e-5
-1.294, 2.174e-5
-1.295, 2.174e-5
-1.296, 2.174e-5
-1.297, 2.174e-5
-1.298, 2.482e-5
-1.299, 2.482e-5
-1.300, 2.174e-5
-1.301, 2.174e-5
-1.302, 2.174e-5
-1.303, 2.174e-5
-1.304, 2.174e-5
-1.305, 2.174e-5
-1.306, 2.174e-5
-1.307, 2.482e-5
-1.308, 2.174e-5
-1.309, 2.174e-5
-1.310, 2.174e-5
-1.311, 2.174e-5
-1.312, 2.174e-5
-1.313, 2.482e-5
-1.314, 2.174e-5
-1.315, 2.174e-5
-1.316, 2.174e-5
-1.317, 2.174e-5
-1.318, 2.174e-5
-1.319, 2.482e-5
-1.320, 2.482e-5
-1.321, 2.482e-5
-1.322, 2.482e-5
-1.323, 2.482e-5
-1.324, 2.482e-5
-1.325, 2.482e-5
-1.326, 2.482e-5
-1.327, 2.482e-5
-1.328, 2.482e-5
-1.329, 2.482e-5
-1.330, 2.482e-5
-1.331, 2.482e-5
-1.332, 2.482e-5
-1.333, 2.482e-5
-1.334, 2.482e-5
-1.335, 2.482e-5
-1.336, 2.482e-5
-1.337, 2.482e-5
-1.338, 2.482e-5
-1.339, 2.482e-5
-1.340, 2.482e-5
-1.341, 2.482e-5
-1.342, 2.482e-5
-1.343, 2.482e-5
-1.344, 2.482e-5
-1.345, 2.482e-5
-1.346, 2.482e-5
-1.347, 2.482e-5
-1.348, 2.482e-5
-1.349, 2.482e-5
-1.350, 2.482e-5
-1.351, 2.482e-5
-1.352, 2.482e-5
-1.353, 2.482e-5
-1.354, 2.482e-5
-1.355, 2.482e-5
-1.356, 2.482e-5
-1.357, 2.482e-5
-1.358, 2.482e-5
-1.359, 2.482e-5
-1.360, 2.482e-5
-1.361, 2.482e-5
-1.362, 2.482e-5
-1.363, 2.482e-5
-1.364, 2.790e-5
-1.365, 2.790e-5
-1.366, 2.482e-5
-1.367, 2.482e-5
-1.368, 2.790e-5
-1.369, 2.790e-5
-1.370, 2.790e-5
-1.371, 2.790e-5
-1.372, 2.482e-5
-1.373, 2.790e-5
-1.374, 2.790e-5
-1.375, 2.482e-5
-1.376, 2.790e-5
-1.377, 2.790e-5
-1.378, 2.790e-5
-1.379, 2.790e-5
-1.380, 2.790e-5
-1.381, 2.790e-5
-1.382, 2.790e-5
-1.383, 2.790e-5
-1.384, 2.790e-5
-1.385, 2.790e-5
-1.386, 2.790e-5
-1.387, 2.790e-5
-1.388, 2.790e-5
-1.389, 2.790e-5
-1.390, 2.790e-5
-1.391, 2.790e-5
-1.392, 2.790e-5
-1.393, 2.790e-5
-1.394, 2.790e-5
-1.395, 2.790e-5
-1.396, 2.790e-5
-1.397, 2.790e-5
-1.398, 2.790e-5
-1.399, 2.790e-5
-1.400, 2.790e-5
-1.401, 2.790e-5
-1.402, 2.790e-5
-1.403, 3.099e-5
-1.404, 2.790e-5
-1.405, 2.790e-5
-1.406, 2.790e-5
-1.407, 2.790e-5
-1.408, 2.790e-5
-1.409, 2.790e-5
-1.410, 2.790e-5
-1.411, 3.099e-5
-1.412, 2.790e-5
-1.413, 3.099e-5
-1.414, 3.099e-5
-1.415, 2.790e-5
-1.416, 2.790e-5
-1.417, 3.099e-5
-1.418, 3.099e-5
-1.419, 3.099e-5
-1.420, 3.099e-5
-1.421, 3.099e-5
-1.422, 3.099e-5
-1.423, 3.099e-5
-1.424, 3.099e-5
-1.425, 3.099e-5
-1.426, 3.099e-5
-1.427, 3.099e-5
-1.428, 3.099e-5
-1.429, 3.099e-5
-1.430, 3.099e-5
-1.431, 3.099e-5
-1.432, 3.099e-5
-1.433, 3.099e-5
-1.434, 3.407e-5
-1.435, 3.099e-5
-1.436, 3.099e-5
-1.437, 3.099e-5
-1.438, 3.099e-5
-1.439, 3.099e-5
-1.440, 3.099e-5
-1.441, 3.099e-5
-1.442, 3.099e-5
-1.443, 3.099e-5
-1.444, 3.407e-5
-1.445, 3.099e-5
-1.446, 3.407e-5
-1.447, 3.407e-5
-1.448, 3.407e-5
-1.449, 3.407e-5
-1.450, 3.407e-5
-1.451, 3.407e-5
-1.452, 3.407e-5
-1.453, 3.407e-5
-1.454, 3.407e-5
-1.455, 3.407e-5
-1.456, 3.407e-5
-1.457, 3.407e-5
-1.458, 3.407e-5
-1.459, 3.407e-5
-1.460, 3.407e-5
-1.461, 3.407e-5
-1.462, 3.407e-5
-1.463, 3.715e-5
-1.464, 3.407e-5
-1.465, 3.715e-5
-1.466, 3.407e-5
-1.467, 3.407e-5
-1.468, 3.715e-5
-1.469, 3.715e-5
-1.470, 3.715e-5
-1.471, 3.715e-5
-1.472, 3.715e-5
-1.473, 3.407e-5
-1.474, 3.715e-5
-1.475, 3.715e-5
-1.476, 3.715e-5
-1.477, 3.715e-5
-1.478, 3.715e-5
-1.479, 3.715e-5
-1.480, 3.715e-5
-1.481, 3.715e-5
-1.482, 3.715e-5
-1.483, 3.715e-5
-1.484, 3.715e-5
-1.485, 4.024e-5
-1.486, 4.024e-5
-1.487, 3.715e-5
-1.488, 4.024e-5
-1.489, 4.024e-5
-1.490, 4.024e-5
-1.491, 4.024e-5
-1.492, 4.024e-5
-1.493, 4.024e-5
-1.494, 4.024e-5
-1.495, 4.024e-5
-1.496, 4.024e-5
-1.497, 4.024e-5
-1.498, 4.024e-5
-1.499, 4.024e-5
-1.500, 4.024e-5
-1.501, 4.024e-5
-1.502, 4.332e-5
-1.503, 4.332e-5
-1.504, 4.332e-5
-1.505, 4.332e-5
-1.506, 4.332e-5
-1.507, 4.332e-5
-1.508, 4.332e-5
-1.509, 4.640e-5
-1.510, 4.332e-5
-1.511, 4.640e-5
-1.512, 4.332e-5
-1.513, 4.640e-5
-1.514, 4.640e-5
-1.515, 4.640e-5
-1.516, 4.640e-5
-1.517, 4.640e-5
-1.518, 4.640e-5
-1.519, 4.640e-5
-1.520, 4.949e-5
-1.521, 4.949e-5
-1.522, 4.949e-5
-1.523, 4.949e-5
-1.524, 4.949e-5
-1.525, 4.949e-5
-1.526, 4.949e-5
-1.527, 4.949e-5
-1.528, 5.257e-5
-1.529, 5.257e-5
-1.530, 5.257e-5
-1.531, 5.257e-5
-1.532, 5.257e-5
-1.533, 5.257e-5
-1.534, 5.565e-5
-1.535, 5.565e-5
-1.536, 5.565e-5
-1.537, 5.565e-5
-1.538, 5.565e-5
-1.539, 5.565e-5
-1.540, 5.565e-5
-1.541, 5.873e-5
-1.542, 5.873e-5
-1.543, 5.873e-5
-1.544, 5.873e-5
-1.545, 5.873e-5
-1.546, 6.182e-5
-1.547, 6.182e-5
-1.548, 6.182e-5
-1.549, 6.182e-5
-1.550, 6.490e-5
-1.551, 6.490e-5
-1.552, 6.490e-5
-1.553, 6.490e-5
-1.554, 6.490e-5
-1.555, 6.798e-5
-1.556, 6.798e-5
-1.557, 6.798e-5
-1.558, 6.798e-5
-1.559, 7.107e-5
-1.560, 7.107e-5
-1.561, 7.107e-5
-1.562, 7.107e-5
-1.563, 7.415e-5
-1.564, 7.415e-5
-1.565, 7.415e-5
-1.566, 7.723e-5
-1.567, 7.723e-5
-1.568, 7.723e-5
-1.569, 8.032e-5
-1.570, 8.032e-5
-1.571, 8.032e-5
-1.572, 8.032e-5
-1.573, 8.340e-5
-1.574, 8.340e-5
-1.575, 8.340e-5
-1.576, 8.648e-5
-1.577, 8.648e-5
-1.578, 8.648e-5
-1.579, 8.957e-5
-1.580, 8.957e-5
-1.581, 9.265e-5
-1.582, 9.265e-5
-1.583, 9.265e-5
-1.584, 9.573e-5
-1.585, 9.573e-5
-1.586, 9.573e-5
-1.587, 9.882e-5
-1.588, 9.882e-5
-1.589, 1.019e-4
-1.590, 1.019e-4
-1.591, 1.019e-4
-1.592, 1.050e-4
-1.593, 1.050e-4
-1.594, 1.081e-4
-1.595, 1.081e-4
-1.596, 1.111e-4
-1.597, 1.111e-4
-1.598, 1.142e-4
-1.599, 1.142e-4
-1.600, 1.142e-4
-1.601, 1.173e-4
-1.602, 1.173e-4
-1.603, 1.204e-4
-1.604, 1.235e-4
-1.605, 1.235e-4
-1.606, 1.266e-4
-1.607, 1.266e-4
-1.608, 1.266e-4
-1.609, 1.296e-4
-1.610, 1.327e-4
-1.611, 1.327e-4
-1.612, 1.358e-4
-1.613, 1.389e-4
-1.614, 1.389e-4
-1.615, 1.420e-4
-1.616, 1.420e-4
-1.617, 1.451e-4
-1.618, 1.481e-4
-1.619, 1.481e-4
-1.620, 1.512e-4
-1.621, 1.543e-4
-1.622, 1.543e-4
-1.623, 1.574e-4
-1.624, 1.605e-4
-1.625, 1.605e-4
-1.626, 1.636e-4
-1.627, 1.666e-4
-1.628, 1.666e-4
-1.629, 1.697e-4
-1.630, 1.728e-4
-1.631, 1.759e-4
-1.632, 1.790e-4
-1.633, 1.821e-4
-1.634, 1.851e-4
-1.635, 1.851e-4
-1.636, 1.882e-4
-1.637, 1.913e-4
-1.638, 1.944e-4
-1.639, 1.975e-4
-1.640, 2.006e-4
-1.641, 2.036e-4
-1.642, 2.067e-4
-1.643, 2.098e-4
-1.644, 2.129e-4
-1.645, 2.160e-4
-1.646, 2.191e-4
-1.647, 2.221e-4
-1.648, 2.252e-4
-1.649, 2.283e-4
-1.650, 2.314e-4
-1.651, 2.345e-4
-1.652, 2.376e-4
-1.653, 2.406e-4
-1.654, 2.468e-4
-1.655, 2.499e-4
-1.656, 2.530e-4
-1.657, 2.561e-4
-1.658, 2.622e-4
-1.659, 2.653e-4
-1.660, 2.684e-4
-1.661, 2.746e-4
-1.662, 2.776e-4
-1.663, 2.807e-4
-1.664, 2.869e-4
-1.665, 2.900e-4
-1.666, 2.961e-4
-1.667, 2.992e-4
-1.668, 3.054e-4
-1.669, 3.085e-4
-1.670, 3.115e-4
-1.671, 3.177e-4
-1.672, 3.239e-4
-1.673, 3.300e-4
-1.674, 3.331e-4
-1.675, 3.393e-4
-1.676, 3.424e-4
-1.677, 3.485e-4
-1.678, 3.547e-4
-1.679, 3.609e-4
-1.680, 3.670e-4
-1.681, 3.701e-4
-1.682, 3.763e-4
-1.683, 3.825e-4
-1.684, 3.886e-4
-1.685, 3.948e-4
-1.686, 3.979e-4
-1.687, 4.071e-4
-1.688, 4.102e-4
-1.689, 4.164e-4
-1.690, 4.225e-4
-1.691, 4.287e-4
-1.692, 4.318e-4
-1.693, 4.380e-4
-1.694, 4.472e-4
-1.695, 4.534e-4
-1.696, 4.565e-4
-1.697, 4.626e-4
-1.698, 4.719e-4
-1.699, 4.780e-4
-1.700, 4.842e-4
-1.701, 4.904e-4
-1.702, 4.965e-4
-1.703, 5.027e-4
-1.704, 5.120e-4
-1.705, 5.150e-4
-1.706, 5.212e-4
-1.707, 5.274e-4
-1.708, 5.366e-4
-1.709, 5.428e-4
-1.710, 5.489e-4
-1.711, 5.551e-4
-1.712, 5.613e-4
-1.713, 5.705e-4
-1.714, 5.767e-4
-1.715, 5.829e-4
-1.716, 5.890e-4
-1.717, 5.952e-4
-1.718, 6.014e-4
-1.719, 6.106e-4
-1.720, 6.168e-4
-1.721, 6.229e-4
-1.722, 6.322e-4
-1.723, 6.384e-4
-1.724, 6.445e-4
-1.725, 6.507e-4
-1.726, 6.569e-4
-1.727, 6.661e-4
-1.728, 6.754e-4
-1.729, 6.815e-4
-1.730, 6.877e-4
-1.731, 6.969e-4
-1.732, 7.031e-4
-1.733, 7.124e-4
-1.734, 7.216e-4
-1.735, 7.278e-4
-1.736, 7.370e-4
-1.737, 7.463e-4
-1.738, 7.524e-4
-1.739, 7.617e-4
-1.740, 7.709e-4
-1.741, 7.771e-4
-1.742, 7.863e-4
-1.743, 7.956e-4
-1.744, 8.048e-4
-1.745, 8.141e-4
-1.746, 8.203e-4
-1.747, 8.295e-4
-1.748, 8.418e-4
-1.749, 8.480e-4
-1.750, 8.573e-4
-1.751, 8.665e-4
-1.752, 8.788e-4
-1.753, 8.881e-4
-1.754, 8.943e-4
-1.755, 9.066e-4
-1.756, 9.158e-4
-1.757, 9.251e-4
-1.758, 9.374e-4
-1.759, 9.498e-4
-1.760, 9.559e-4
-1.761, 9.683e-4
-1.762, 9.806e-4
-1.763, 9.898e-4
-1.764, 9.991e-4
-1.765, 1.008e-3
-1.766, 1.021e-3
-1.767, 1.033e-3
-1.768, 1.045e-3
-1.769, 1.055e-3
-1.770, 1.070e-3
-1.771, 1.079e-3
-1.772, 1.092e-3
-1.773, 1.101e-3
-1.774, 1.113e-3
-1.775, 1.129e-3
-1.776, 1.141e-3
-1.777, 1.153e-3
-1.778, 1.166e-3
-1.779, 1.178e-3
-1.780, 1.190e-3
-1.781, 1.206e-3
-1.782, 1.218e-3
-1.783, 1.227e-3
-1.784, 1.243e-3
-1.785, 1.255e-3
-1.786, 1.267e-3
-1.787, 1.283e-3
-1.788, 1.295e-3
-1.789, 1.310e-3
-1.790, 1.323e-3
-1.791, 1.338e-3
-1.792, 1.357e-3
-1.793, 1.372e-3
-1.794, 1.388e-3
-1.795, 1.403e-3
-1.796, 1.418e-3
-1.797, 1.434e-3
-1.798, 1.449e-3
-1.799, 1.468e-3
-1.800, 1.471e-3
-1.799, 1.458e-3
-1.798, 1.449e-3
-1.797, 1.440e-3
-1.796, 1.425e-3
-1.795, 1.415e-3
-1.794, 1.406e-3
-1.793, 1.394e-3
-1.792, 1.381e-3
-1.791, 1.372e-3
-1.790, 1.360e-3
-1.789, 1.347e-3
-1.788, 1.335e-3
-1.787, 1.323e-3
-1.786, 1.314e-3
-1.785, 1.301e-3
-1.784, 1.292e-3
-1.783, 1.277e-3
-1.782, 1.264e-3
-1.781, 1.255e-3
-1.780, 1.243e-3
-1.779, 1.233e-3
-1.778, 1.221e-3
-1.777, 1.209e-3
-1.776, 1.199e-3
-1.775, 1.187e-3
-1.774, 1.178e-3
-1.773, 1.166e-3
-1.772, 1.153e-3
-1.771, 1.144e-3
-1.770, 1.135e-3
-1.769, 1.122e-3
-1.768, 1.113e-3
-1.767, 1.101e-3
-1.766, 1.092e-3
-1.765, 1.079e-3
-1.764, 1.067e-3
-1.763, 1.058e-3
-1.762, 1.048e-3
-1.761, 1.039e-3
-1.760, 1.030e-3
-1.759, 1.018e-3
-1.758, 1.008e-3
-1.757, 9.991e-4
-1.756, 9.898e-4
-1.755, 9.806e-4
-1.754, 9.683e-4
-1.753, 9.590e-4
-1.752, 9.498e-4
-1.751, 9.405e-4
-1.750, 9.282e-4
-1.749, 9.189e-4
-1.748, 9.097e-4
-1.747, 9.004e-4
-1.746, 8.912e-4
-1.745, 8.819e-4
-1.744, 8.727e-4
-1.743, 8.634e-4
-1.742, 8.542e-4
-1.741, 8.449e-4
-1.740, 8.357e-4
-1.739, 8.264e-4
-1.738, 8.172e-4
-1.737, 8.110e-4
-1.736, 8.018e-4
-1.735, 7.925e-4
-1.734, 7.833e-4
-1.733, 7.740e-4
-1.732, 7.679e-4
-1.731, 7.586e-4
-1.730, 7.494e-4
-1.729, 7.432e-4
-1.728, 7.339e-4
-1.727, 7.278e-4
-1.726, 7.185e-4
-1.725, 7.124e-4
-1.724, 7.031e-4
-1.723, 6.939e-4
-1.722, 6.846e-4
-1.721, 6.784e-4
-1.720, 6.723e-4
-1.719, 6.630e-4
-1.718, 6.569e-4
-1.717, 6.476e-4
-1.716, 6.414e-4
-1.715, 6.322e-4
-1.714, 6.260e-4
-1.713, 6.199e-4
-1.712, 6.137e-4
-1.711, 6.075e-4
-1.710, 5.983e-4
-1.709, 5.921e-4
-1.708, 5.829e-4
-1.707, 5.767e-4
-1.706, 5.705e-4
-1.705, 5.644e-4
-1.704, 5.551e-4
-1.703, 5.489e-4
-1.702, 5.428e-4
-1.701, 5.366e-4
-1.700, 5.305e-4
-1.699, 5.212e-4
-1.698, 5.181e-4
-1.697, 5.120e-4
-1.696, 5.058e-4
-1.695, 4.996e-4
-1.694, 4.904e-4
-1.693, 4.842e-4
-1.692, 4.780e-4
-1.691, 4.750e-4
-1.690, 4.657e-4
-1.689, 4.595e-4
-1.688, 4.565e-4
-1.687, 4.472e-4
-1.686, 4.441e-4
-1.685, 4.380e-4
-1.684, 4.318e-4
-1.683, 4.256e-4
-1.682, 4.195e-4
-1.681, 4.133e-4
-1.680, 4.102e-4
-1.679, 4.040e-4
-1.678, 3.979e-4
-1.677, 3.917e-4
-1.676, 3.855e-4
-1.675, 3.794e-4
-1.674, 3.763e-4
-1.673, 3.701e-4
-1.672, 3.670e-4
-1.671, 3.609e-4
-1.670, 3.547e-4
-1.669, 3.516e-4
-1.668, 3.455e-4
-1.667, 3.393e-4
-1.666, 3.362e-4
-1.665, 3.300e-4
-1.664, 3.239e-4
-1.663, 3.208e-4
-1.662, 3.146e-4
-1.661, 3.115e-4
-1.660, 3.054e-4
-1.659, 3.023e-4
-1.658, 2.961e-4
-1.657, 2.931e-4
-1.656, 2.869e-4
-1.655, 2.838e-4
-1.654, 2.776e-4
-1.653, 2.746e-4
-1.652, 2.684e-4
-1.651, 2.653e-4
-1.650, 2.622e-4
-1.649, 2.561e-4
-1.648, 2.530e-4
-1.647, 2.468e-4
-1.646, 2.437e-4
-1.645, 2.406e-4
-1.644, 2.345e-4
-1.643, 2.314e-4
-1.642, 2.283e-4
-1.641, 2.252e-4
-1.640, 2.191e-4
-1.639, 2.160e-4
-1.638, 2.129e-4
-1.637, 2.098e-4
-1.636, 2.036e-4
-1.635, 2.006e-4
-1.634, 1.975e-4
-1.633, 1.944e-4
-1.632, 1.913e-4
-1.631, 1.882e-4
-1.630, 1.821e-4
-1.629, 1.790e-4
-1.628, 1.759e-4
-1.627, 1.728e-4
-1.626, 1.697e-4
-1.625, 1.666e-4
-1.624, 1.636e-4
-1.623, 1.605e-4
-1.622, 1.543e-4
-1.621, 1.543e-4
-1.620, 1.512e-4
-1.619, 1.481e-4
-1.618, 1.451e-4
-1.617, 1.420e-4
-1.616, 1.389e-4
-1.615, 1.358e-4
-1.614, 1.327e-4
-1.613, 1.266e-4
-1.612, 1.266e-4
-1.611, 1.235e-4
-1.610, 1.204e-4
-1.609, 1.173e-4
-1.608, 1.142e-4
-1.607, 1.111e-4
-1.606, 1.111e-4
-1.605, 1.081e-4
-1.604, 1.050e-4
-1.603, 1.019e-4
-1.602, 9.882e-5
-1.601, 9.882e-5
-1.600, 9.573e-5
-1.599, 9.265e-5
-1.598, 8.957e-5
-1.597, 8.957e-5
-1.596, 8.648e-5
-1.595, 8.340e-5
-1.594, 8.032e-5
-1.593, 7.723e-5
-1.592, 7.723e-5
-1.591, 7.415e-5
-1.590, 7.107e-5
-1.589, 7.107e-5
-1.588, 6.798e-5
-1.587, 6.490e-5
-1.586, 6.490e-5
-1.585, 6.182e-5
-1.584, 6.182e-5
-1.583, 5.873e-5
-1.582, 5.873e-5
-1.581, 5.565e-5
-1.580, 5.257e-5
-1.579, 5.257e-5
-1.578, 4.949e-5
-1.577, 4.640e-5
-1.576, 4.640e-5
-1.575, 4.332e-5
-1.574, 4.332e-5
-1.573, 4.024e-5
-1.572, 4.024e-5
-1.571, 4.024e-5
-1.570, 3.715e-5
-1.569, 3.407e-5
-1.568, 3.407e-5
-1.567, 3.099e-5
-1.566, 3.099e-5
-1.565, 3.099e-5
-1.564, 2.790e-5
-1.563, 2.790e-5
-1.562, 2.482e-5
-1.561, 2.482e-5
-1.560, 2.174e-5
-1.559, 2.174e-5
-1.558, 1.865e-5
-1.557, 1.865e-5
-1.556, 1.865e-5
-1.555, 1.557e-5
-1.554, 1.557e-5
-1.553, 1.557e-5
-1.552, 1.557e-5
-1.551, 1.249e-5
-1.550, 1.249e-5
-1.549, 9.405e-6
-1.548, 9.405e-6
-1.547, 9.405e-6
-1.546, 9.405e-6
-1.545, 6.322e-6
-1.544, 6.322e-6
-1.543, 6.322e-6
-1.542, 3.239e-6
-1.541, 3.239e-6
-1.540, 3.239e-6
-1.539, 3.239e-6
-1.538, 1.559e-7
-1.537, 1.559e-7
-1.536, 1.559e-7
-1.535, -2.927e-6
-1.534, 1.559e-7
-1.533, -2.927e-6
-1.532, -2.927e-6
-1.531, -2.927e-6
-1.530, -6.010e-6
-1.529, -6.010e-6
-1.528, -6.010e-6
-1.527, -6.010e-6
-1.526, -6.010e-6
-1.525, -6.010e-6
-1.524, -9.093e-6
-1.523, -9.093e-6
-1.522, -9.093e-6
-1.521, -9.093e-6
-1.520, -9.093e-6
-1.519, -1.218e-5
-1.518, -1.218e-5
-1.517, -1.218e-5
-1.516, -1.218e-5
-1.515, -1.218e-5
-1.514, -1.218e-5
-1.513, -1.218e-5
-1.512, -1.526e-5
-1.511, -1.526e-5
-1.510, -1.526e-5
-1.509, -1.526e-5
-1.508, -1.526e-5
-1.507, -1.526e-5
-1.506, -1.526e-5
-1.505, -1.526e-5
-1.504, -1.526e-5
-1.503, -1.834e-5
-1.502, -1.526e-5
-1.501, -1.834e-5
-1.500, -1.834e-5
-1.499, -1.834e-5
-1.498, -1.834e-5
-1.497, -2.143e-5
-1.496, -1.834e-5
-1.495, -2.143e-5
-1.494, -2.143e-5
-1.493, -1.834e-5
-1.492, -2.143e-5
-1.491, -2.143e-5
-1.490, -2.143e-5
-1.489, -2.143e-5
-1.488, -2.143e-5
-1.487, -2.143e-5
-1.486, -2.143e-5
-1.485, -2.143e-5
-1.484, -2.143e-5
-1.483, -2.143e-5
-1.482, -2.143e-5
-1.481, -2.143e-5
-1.480, -2.451e-5
-1.479, -2.143e-5
-1.478, -2.451e-5
-1.477, -2.451e-5
-1.476, -2.451e-5
-1.475, -2.451e-5
-1.474, -2.451e-5
-1.473, -2.451e-5
-1.472, -2.451e-5
-1.471, -2.451e-5
-1.470, -2.451e-5
-1.469, -2.451e-5
-1.468, -2.451e-5
-1.467, -2.759e-5
-1.466, -2.451e-5
-1.465, -2.451e-5
-1.464, -2.451e-5
-1.463, -2.759e-5
-1.462, -2.759e-5
-1.461, -2.451e-5
-1.460, -2.759e-5
-1.459, -2.451e-5
-1.458, -2.759e-5
-1.457, -2.759e-5
-1.456, -2.759e-5
-1.455, -2.759e-5
-1.454, -2.759e-5
-1.453, -2.759e-5
-1.452, -2.759e-5
-1.451, -2.759e-5
-1.450, -2.759e-5
-1.449, -2.759e-5
-1.448, -2.759e-5
-1.447, -2.759e-5
-1.446, -2.759e-5
-1.445, -2.759e-5
-1.444, -2.759e-5
-1.443, -2.759e-5
-1.442, -2.759e-5
-1.441, -2.759e-5
-1.440, -2.759e-5
-1.439, -2.759e-5
-1.438, -2.759e-5
-1.437, -3.068e-5
-1.436, -2.759e-5
-1.435, -2.759e-5
-1.434, -2.759e-5
-1.433, -2.759e-5
-1.432, -3.068e-5
-1.431, -2.759e-5
-1.430, -2.759e-5
-1.429, -3.068e-5
-1.428, -3.068e-5
-1.427, -3.068e-5
-1.426, -3.068e-5
-1.425, -2.759e-5
-1.424, -3.068e-5
-1.423, -3.068e-5
-1.422, -3.068e-5
-1.421, -3.068e-5
-1.420, -3.068e-5
-1.419, -3.068e-5
-1.418, -3.068e-5
-1.417, -3.068e-5
-1.416, -2.759e-5
-1.415, -3.068e-5
-1.414, -3.068e-5
-1.413, -3.068e-5
-1.412, -3.068e-5
-1.411, -3.068e-5
-1.410, -3.068e-5
-1.409, -3.068e-5
-1.408, -3.068e-5
-1.407, -3.068e-5
-1.406, -3.068e-5
-1.405, -3.068e-5
-1.404, -3.068e-5
-1.403, -3.068e-5
-1.402, -3.068e-5
-1.401, -3.068e-5
-1.400, -3.068e-5
-1.399, -3.068e-5
-1.398, -3.068e-5
-1.397, -3.068e-5
-1.396, -3.068e-5
-1.395, -3.068e-5
-1.394, -3.068e-5
-1.393, -3.068e-5
-1.392, -3.068e-5
-1.391, -3.068e-5
-1.390, -3.068e-5
-1.389, -3.068e-5
-1.388, -3.068e-5
-1.387, -3.068e-5
-1.386, -3.068e-5
-1.385, -3.068e-5
-1.384, -3.068e-5
-1.383, -3.068e-5
-1.382, -3.068e-5
-1.381, -3.068e-5
-1.380, -3.068e-5
-1.379, -3.068e-5
-1.378, -3.068e-5
-1.377, -3.068e-5
-1.376, -3.068e-5
-1.375, -3.068e-5
-1.374, -3.068e-5
-1.373, -3.068e-5
-1.372, -3.068e-5
-1.371, -3.068e-5
-1.370, -3.068e-5
-1.369, -3.068e-5
-1.368, -3.068e-5
-1.367, -3.068e-5
-1.366, -3.068e-5
-1.365, -3.068e-5
-1.364, -3.068e-5
-1.363, -3.068e-5
-1.362, -3.068e-5
-1.361, -3.068e-5
-1.360, -3.068e-5
-1.359, -3.068e-5
-1.358, -3.068e-5
-1.357, -3.068e-5
-1.356, -3.068e-5
-1.355, -3.068e-5
-1.354, -3.068e-5
-1.353, -3.068e-5
-1.352, -3.068e-5
-1.351, -3.068e-5
-1.350, -3.068e-5
-1.349, -3.068e-5
-1.348, -3.068e-5
-1.347, -3.068e-5
-1.346, -3.068e-5
-1.345, -3.068e-5
-1.344, -3.068e-5
-1.343, -3.068e-5
-1.342, -3.068e-5
-1.341, -3.068e-5
-1.340, -3.068e-5
-1.339, -3.068e-5
-1.338, -3.068e-5
-1.337, -3.068e-5
-1.336, -3.068e-5
-1.335, -3.068e-5
-1.334, -3.068e-5
-1.333, -3.068e-5
-1.332, -3.068e-5
-1.331, -3.068e-5
-1.330, -3.068e-5
-1.329, -3.068e-5
-1.328, -3.068e-5
-1.327, -3.068e-5
-1.326, -3.068e-5
-1.325, -3.068e-5
-1.324, -3.068e-5
-1.323, -3.068e-5
-1.322, -3.068e-5
-1.321, -2.759e-5
-1.320, -3.068e-5
-1.319, -2.759e-5
-1.318, -2.759e-5
-1.317, -3.068e-5
-1.316, -3.068e-5
-1.315, -2.759e-5
-1.314, -3.068e-5
-1.313, -3.068e-5
-1.312, -2.759e-5
-1.311, -2.759e-5
-1.310, -2.759e-5
-1.309, -2.759e-5
-1.308, -3.068e-5
-1.307, -2.759e-5
-1.306, -2.759e-5
-1.305, -3.068e-5
-1.304, -2.759e-5
-1.303, -3.068e-5
-1.302, -3.068e-5
-1.301, -2.759e-5
-1.300, -3.068e-5
-1.299, -3.068e-5
-1.298, -2.759e-5
-1.297, -2.759e-5
-1.296, -2.759e-5
-1.295, -3.068e-5
-1.294, -3.068e-5
-1.293, -3.068e-5
-1.292, -3.068e-5
-1.291, -2.759e-5
-1.290, -3.068e-5
-1.289, -2.759e-5
-1.288, -3.068e-5
-1.287, -3.068e-5
-1.286, -2.759e-5
-1.285, -3.068e-5
-1.284, -2.759e-5
-1.283, -3.068e-5
-1.282, -3.068e-5
-1.281, -2.759e-5
-1.280, -2.759e-5
-1.279, -3.068e-5
-1.278, -3.068e-5
-1.277, -3.068e-5
-1.276, -2.759e-5
-1.275, -3.068e-5
-1.274, -3.068e-5
-1.273, -3.068e-5
-1.272, -3.068e-5
-1.271, -3.068e-5
-1.270, -3.068e-5
-1.269, -3.068e-5
-1.268, -3.068e-5
-1.267, -3.068e-5
-1.266, -3.068e-5
-1.265, -3.068e-5
-1.264, -3.068e-5
-1.263, -3.068e-5
-1.262, -3.068e-5
-1.261, -3.068e-5
-1.260, -3.068e-5
-1.259, -3.068e-5
-1.258, -3.068e-5
-1.257, -2.759e-5
-1.256, -3.068e-5
-1.255, -3.068e-5
-1.254, -3.068e-5
-1.253, -3.068e-5
-1.252, -3.068e-5
-1.251, -3.068e-5
-1.250, -3.068e-5
-1.249, -3.068e-5
-1.248, -3.068e-5
-1.247, -3.068e-5
-1.246, -3.068e-5
-1.245, -3.068e-5
-1.244, -3.068e-5
-1.243, -3.068e-5
-1.242, -3.068e-5
-1.241, -3.068e-5
-1.240, -3.068e-5
-1.239, -3.068e-5
-1.238, -3.068e-5
-1.237, -3.068e-5
-1.236, -3.068e-5
-1.235, -3.068e-5
-1.234, -3.068e-5
-1.233, -3.068e-5
-1.232, -3.068e-5
-1.231, -3.068e-5
-1.230, -3.068e-5
-1.229, -3.068e-5
-1.228, -3.068e-5
-1.227, -3.068e-5
-1.226, -3.068e-5
-1.225, -3.068e-5
-1.224, -3.068e-5
-1.223, -3.068e-5
-1.222, -3.068e-5
-1.221, -3.068e-5
-1.220, -3.068e-5
-1.219, -3.068e-5
-1.218, -3.068e-5
-1.217, -3.068e-5
-1.216, -3.376e-5
-1.215, -3.068e-5
-1.214, -3.068e-5
-1.213, -3.376e-5
-1.212, -3.068e-5
-1.211, -3.068e-5
-1.210, -3.376e-5
-1.209, -3.068e-5
-1.208, -3.068e-5
-1.207, -3.376e-5
-1.206, -3.068e-5
-1.205, -3.068e-5
-1.204, -3.376e-5
-1.203, -3.376e-5
-1.202, -3.376e-5
-1.201, -3.376e-5
-1.200, -3.068e-5
-1.199, -3.376e-5
-1.198, -3.376e-5
-1.197, -3.376e-5
-1.196, -3.376e-5
-1.195, -3.376e-5
-1.194, -3.376e-5
-1.193, -3.376e-5
-1.192, -3.376e-5
-1.191, -3.376e-5
-1.190, -3.376e-5
-1.189, -3.376e-5
-1.188, -3.376e-5
-1.187, -3.376e-5
-1.186, -3.376e-5
-1.185, -3.376e-5
-1.184, -3.376e-5
-1.183, -3.376e-5
-1.182, -3.376e-5
-1.181, -3.376e-5
-1.180, -3.376e-5
-1.179, -3.376e-5
-1.178, -3.376e-5
-1.177, -3.376e-5
-1.176, -3.376e-5
-1.175, -3.376e-5
-1.174, -3.376e-5
-1.173, -3.376e-5
-1.172, -3.376e-5
-1.171, -3.376e-5
-1.170, -3.376e-5
-1.169, -3.376e-5
-1.168, -3.376e-5
-1.167, -3.376e-5
-1.166, -3.376e-5
-1.165, -3.376e-5
-1.164, -3.376e-5
-1.163, -3.376e-5
-1.162, -3.376e-5
-1.161, -3.376e-5
-1.160, -3.376e-5
-1.159, -3.376e-5
-1.158, -3.376e-5
-1.157, -3.376e-5
-1.156, -3.376e-5
-1.155, -3.376e-5
-1.154, -3.376e-5
-1.153, -3.376e-5
-1.152, -3.684e-5
-1.151, -3.376e-5
-1.150, -3.376e-5
-1.149, -3.376e-5
-1.148, -3.376e-5
-1.147, -3.684e-5
-1.146, -3.376e-5
-1.145, -3.684e-5
-1.144, -3.684e-5
-1.143, -3.684e-5
-1.142, -3.684e-5
-1.141, -3.684e-5
-1.140, -3.684e-5
-1.139, -3.684e-5
-1.138, -3.376e-5
-1.137, -3.684e-5
-1.136, -3.684e-5
-1.135, -3.684e-5
-1.134, -3.684e-5
-1.133, -3.684e-5
-1.132, -3.684e-5
-1.131, -3.684e-5
-1.130, -3.684e-5
-1.129, -3.684e-5
-1.128, -3.684e-5
-1.127, -3.684e-5
-1.126, -3.684e-5
-1.125, -3.684e-5
-1.124, -3.684e-5
-1.123, -3.684e-5
-1.122, -3.684e-5
-1.121, -3.684e-5
-1.120, -3.684e-5
-1.119, -3.684e-5
-1.118, -3.684e-5
-1.117, -3.684e-5
-1.116, -3.684e-5
-1.115, -3.684e-5
-1.114, -3.684e-5
-1.113, -3.684e-5
-1.112, -3.684e-5
-1.111, -3.684e-5
-1.110, -3.684e-5
-1.109, -3.684e-5
-1.108, -3.684e-5
-1.107, -3.684e-5
-1.106, -3.684e-5
-1.105, -3.684e-5
-1.104, -3.684e-5
-1.103, -3.684e-5
-1.102, -3.684e-5
-1.101, -3.684e-5
-1.100, -3.684e-5
-1.099, -3.684e-5
-1.098, -3.684e-5
-1.097, -3.992e-5
-1.096, -3.684e-5
-1.095, -3.992e-5
-1.094, -3.992e-5
-1.093, -3.992e-5
-1.092, -3.992e-5
-1.091, -3.992e-5
-1.090, -3.684e-5
-1.089, -3.992e-5
-1.088, -3.992e-5
-1.087, -3.992e-5
-1.086, -3.992e-5
-1.085, -3.992e-5
-1.084, -3.992e-5
-1.083, -3.992e-5
-1.082, -3.992e-5
-1.081, -3.992e-5
-1.080, -3.992e-5
-1.079, -3.992e-5
-1.078, -3.992e-5
-1.077, -3.992e-5
-1.076, -3.992e-5
-1.075, -3.992e-5
-1.074, -3.992e-5
-1.073, -3.992e-5
-1.072, -3.992e-5
-1.071, -3.992e-5
-1.070, -3.992e-5
-1.069, -3.992e-5
-1.068, -3.992e-5
-1.067, -3.992e-5
-1.066, -3.992e-5
-1.065, -3.992e-5
-1.064, -3.992e-5
-1.063, -3.992e-5
-1.062, -3.992e-5
-1.061, -3.992e-5
-1.060, -3.992e-5
-1.059, -3.992e-5
-1.058, -3.992e-5
-1.057, -3.992e-5
-1.056, -3.992e-5
-1.055, -4.301e-5
-1.054, -4.301e-5
-1.053, -4.301e-5
-1.052, -4.301e-5
-1.051, -3.992e-5
-1.050, -4.301e-5
-1.049, -4.301e-5
-1.048, -3.992e-5
-1.047, -3.992e-5
-1.046, -4.301e-5
-1.045, -4.301e-5
-1.044, -4.301e-5
-1.043, -4.301e-5
-1.042, -3.992e-5
-1.041, -4.301e-5
-1.040, -4.301e-5
-1.039, -4.301e-5
-1.038, -4.301e-5
-1.037, -4.301e-5
-1.036, -4.301e-5
-1.035, -4.301e-5
-1.034, -4.301e-5
-1.033, -4.301e-5
-1.032, -4.301e-5
-1.031, -4.301e-5
-1.030, -4.301e-5
-1.029, -4.301e-5
-1.028, -4.301e-5
-1.027, -4.301e-5
-1.026, -4.301e-5
-1.025, -4.301e-5
-1.024, -4.301e-5
-1.023, -4.301e-5
-1.022, -4.301e-5
-1.021, -4.301e-5
-1.020, -4.301e-5
-1.019, -4.301e-5
-1.018, -4.301e-5
-1.017, -4.301e-5
-1.016, -4.301e-5
-1.015, -4.301e-5
-1.014, -4.609e-5
-1.013, -4.301e-5
-1.012, -4.301e-5
-1.011, -4.609e-5
-1.010, -4.301e-5
-1.009, -4.609e-5
-1.008, -4.609e-5
-1.007, -4.301e-5
-1.006, -4.609e-5
-1.005, -4.609e-5
-1.004, -4.609e-5
-1.003, -4.609e-5
-1.002, -4.609e-5
-1.001, -4.609e-5
