Apr. 9, 2025   02:27:05
Cyclic Voltammetry
File: c:/users/guazh/data/banditlqround7_x0exp994_r5/2025-03-28-exp1024\exp1024-2025-04-09t02_18_16-h2koh\exp1024_cv_sr_900mvs_efin_-1400mv.bin
Data Source:  Experiment
Instrument Model:  CHI760E
Header: CV ran at 900 mVs
Note: 

Init E (V) = -1
High E (V) = -1
Low E (V) = -1.4
Final E (V) = -1
Init P/N = N
Scan Rate (V/s) = 0.9
Segment = 3
Sample Interval (V) = 0.001
Quiet Time (sec) = 2
Sensitivity (A/V) = 0.01
Comp R (ohm) = 1.8

Results:

Channel 1:
Segment 1:

Segment 2:

Segment 3:

Potential/V, Current/A

-1.000, 2.482e-5
-1.001, 1.081e-4
-1.002, 1.451e-4
-1.003, 1.697e-4
-1.004, 1.851e-4
-1.005, 1.975e-4
-1.006, 2.067e-4
-1.007, 2.160e-4
-1.008, 2.221e-4
-1.009, 2.314e-4
-1.010, 2.376e-4
-1.011, 2.437e-4
-1.012, 2.530e-4
-1.013, 2.561e-4
-1.014, 2.622e-4
-1.015, 2.715e-4
-1.016, 2.746e-4
-1.017, 2.807e-4
-1.018, 2.838e-4
-1.019, 2.900e-4
-1.020, 2.961e-4
-1.021, 2.992e-4
-1.022, 3.054e-4
-1.023, 3.115e-4
-1.024, 3.177e-4
-1.025, 3.239e-4
-1.026, 3.300e-4
-1.027, 3.362e-4
-1.028, 3.424e-4
-1.029, 3.485e-4
-1.030, 3.547e-4
-1.031, 3.609e-4
-1.032, 3.670e-4
-1.033, 3.732e-4
-1.034, 3.763e-4
-1.035, 3.855e-4
-1.036, 3.917e-4
-1.037, 3.948e-4
-1.038, 4.040e-4
-1.039, 4.102e-4
-1.040, 4.164e-4
-1.041, 4.256e-4
-1.042, 4.318e-4
-1.043, 4.410e-4
-1.044, 4.503e-4
-1.045, 4.565e-4
-1.046, 4.626e-4
-1.047, 4.688e-4
-1.048, 4.780e-4
-1.049, 4.842e-4
-1.050, 4.904e-4
-1.051, 4.996e-4
-1.052, 5.058e-4
-1.053, 5.120e-4
-1.054, 5.212e-4
-1.055, 5.305e-4
-1.056, 5.397e-4
-1.057, 5.489e-4
-1.058, 5.551e-4
-1.059, 5.644e-4
-1.060, 5.736e-4
-1.061, 5.829e-4
-1.062, 5.890e-4
-1.063, 5.983e-4
-1.064, 6.014e-4
-1.065, 6.106e-4
-1.066, 6.199e-4
-1.067, 6.260e-4
-1.068, 6.322e-4
-1.069, 6.414e-4
-1.070, 6.507e-4
-1.071, 6.599e-4
-1.072, 6.661e-4
-1.073, 6.754e-4
-1.074, 6.846e-4
-1.075, 6.939e-4
-1.076, 7.031e-4
-1.077, 7.093e-4
-1.078, 7.154e-4
-1.079, 7.247e-4
-1.080, 7.278e-4
-1.081, 7.339e-4
-1.082, 7.401e-4
-1.083, 7.463e-4
-1.084, 7.555e-4
-1.085, 7.617e-4
-1.086, 7.709e-4
-1.087, 7.771e-4
-1.088, 7.863e-4
-1.089, 7.925e-4
-1.090, 7.987e-4
-1.091, 8.048e-4
-1.092, 8.110e-4
-1.093, 8.172e-4
-1.094, 8.233e-4
-1.095, 8.295e-4
-1.096, 8.295e-4
-1.097, 8.357e-4
-1.098, 8.418e-4
-1.099, 8.449e-4
-1.100, 8.542e-4
-1.101, 8.573e-4
-1.102, 8.634e-4
-1.103, 8.696e-4
-1.104, 8.758e-4
-1.105, 8.819e-4
-1.106, 8.850e-4
-1.107, 8.912e-4
-1.108, 8.943e-4
-1.109, 8.973e-4
-1.110, 9.004e-4
-1.111, 9.035e-4
-1.112, 9.066e-4
-1.113, 9.097e-4
-1.114, 9.128e-4
-1.115, 9.189e-4
-1.116, 9.220e-4
-1.117, 9.251e-4
-1.118, 9.313e-4
-1.119, 9.374e-4
-1.120, 9.405e-4
-1.121, 9.405e-4
-1.122, 9.467e-4
-1.123, 9.467e-4
-1.124, 9.498e-4
-1.125, 9.528e-4
-1.126, 9.528e-4
-1.127, 9.559e-4
-1.128, 9.559e-4
-1.129, 9.590e-4
-1.130, 9.621e-4
-1.131, 9.652e-4
-1.132, 9.683e-4
-1.133, 9.683e-4
-1.134, 9.744e-4
-1.135, 9.744e-4
-1.136, 9.775e-4
-1.137, 9.806e-4
-1.138, 9.806e-4
-1.139, 9.806e-4
-1.140, 9.806e-4
-1.141, 9.806e-4
-1.142, 9.806e-4
-1.143, 9.837e-4
-1.144, 9.806e-4
-1.145, 9.837e-4
-1.146, 9.837e-4
-1.147, 9.868e-4
-1.148, 9.898e-4
-1.149, 9.898e-4
-1.150, 9.929e-4
-1.151, 9.898e-4
-1.152, 9.929e-4
-1.153, 9.929e-4
-1.154, 9.898e-4
-1.155, 9.898e-4
-1.156, 9.898e-4
-1.157, 9.868e-4
-1.158, 9.868e-4
-1.159, 9.898e-4
-1.160, 9.868e-4
-1.161, 9.898e-4
-1.162, 9.868e-4
-1.163, 9.868e-4
-1.164, 9.898e-4
-1.165, 9.898e-4
-1.166, 9.898e-4
-1.167, 9.868e-4
-1.168, 9.837e-4
-1.169, 9.837e-4
-1.170, 9.806e-4
-1.171, 9.775e-4
-1.172, 9.775e-4
-1.173, 9.744e-4
-1.174, 9.713e-4
-1.175, 9.713e-4
-1.176, 9.683e-4
-1.177, 9.713e-4
-1.178, 9.683e-4
-1.179, 9.683e-4
-1.180, 9.652e-4
-1.181, 9.652e-4
-1.182, 9.621e-4
-1.183, 9.590e-4
-1.184, 9.559e-4
-1.185, 9.528e-4
-1.186, 9.498e-4
-1.187, 9.436e-4
-1.188, 9.405e-4
-1.189, 9.405e-4
-1.190, 9.374e-4
-1.191, 9.374e-4
-1.192, 9.343e-4
-1.193, 9.313e-4
-1.194, 9.313e-4
-1.195, 9.282e-4
-1.196, 9.251e-4
-1.197, 9.220e-4
-1.198, 9.158e-4
-1.199, 9.128e-4
-1.200, 9.097e-4
-1.201, 9.066e-4
-1.202, 9.004e-4
-1.203, 8.973e-4
-1.204, 8.943e-4
-1.205, 8.943e-4
-1.206, 8.912e-4
-1.207, 8.881e-4
-1.208, 8.850e-4
-1.209, 8.819e-4
-1.210, 8.788e-4
-1.211, 8.758e-4
-1.212, 8.758e-4
-1.213, 8.696e-4
-1.214, 8.634e-4
-1.215, 8.603e-4
-1.216, 8.573e-4
-1.217, 8.511e-4
-1.218, 8.480e-4
-1.219, 8.449e-4
-1.220, 8.449e-4
-1.221, 8.388e-4
-1.222, 8.388e-4
-1.223, 8.357e-4
-1.224, 8.326e-4
-1.225, 8.295e-4
-1.226, 8.264e-4
-1.227, 8.233e-4
-1.228, 8.203e-4
-1.229, 8.172e-4
-1.230, 8.141e-4
-1.231, 8.079e-4
-1.232, 8.018e-4
-1.233, 8.018e-4
-1.234, 7.956e-4
-1.235, 7.956e-4
-1.236, 7.925e-4
-1.237, 7.894e-4
-1.238, 7.863e-4
-1.239, 7.863e-4
-1.240, 7.833e-4
-1.241, 7.802e-4
-1.242, 7.771e-4
-1.243, 7.740e-4
-1.244, 7.709e-4
-1.245, 7.648e-4
-1.246, 7.648e-4
-1.247, 7.617e-4
-1.248, 7.586e-4
-1.249, 7.555e-4
-1.250, 7.524e-4
-1.251, 7.524e-4
-1.252, 7.494e-4
-1.253, 7.494e-4
-1.254, 7.494e-4
-1.255, 7.463e-4
-1.256, 7.432e-4
-1.257, 7.401e-4
-1.258, 7.370e-4
-1.259, 7.339e-4
-1.260, 7.309e-4
-1.261, 7.278e-4
-1.262, 7.247e-4
-1.263, 7.216e-4
-1.264, 7.216e-4
-1.265, 7.216e-4
-1.266, 7.185e-4
-1.267, 7.154e-4
-1.268, 7.154e-4
-1.269, 7.154e-4
-1.270, 7.154e-4
-1.271, 7.124e-4
-1.272, 7.093e-4
-1.273, 7.093e-4
-1.274, 7.062e-4
-1.275, 7.031e-4
-1.276, 7.031e-4
-1.277, 6.969e-4
-1.278, 6.969e-4
-1.279, 6.969e-4
-1.280, 6.969e-4
-1.281, 6.969e-4
-1.282, 6.969e-4
-1.283, 6.939e-4
-1.284, 6.969e-4
-1.285, 6.939e-4
-1.286, 6.969e-4
-1.287, 6.939e-4
-1.288, 6.908e-4
-1.289, 6.908e-4
-1.290, 6.877e-4
-1.291, 6.877e-4
-1.292, 6.877e-4
-1.293, 6.846e-4
-1.294, 6.846e-4
-1.295, 6.846e-4
-1.296, 6.846e-4
-1.297, 6.846e-4
-1.298, 6.877e-4
-1.299, 6.877e-4
-1.300, 6.908e-4
-1.301, 6.877e-4
-1.302, 6.908e-4
-1.303, 6.877e-4
-1.304, 6.877e-4
-1.305, 6.877e-4
-1.306, 6.877e-4
-1.307, 6.877e-4
-1.308, 6.908e-4
-1.309, 6.877e-4
-1.310, 6.908e-4
-1.311, 6.939e-4
-1.312, 6.939e-4
-1.313, 6.969e-4
-1.314, 7.000e-4
-1.315, 7.000e-4
-1.316, 7.031e-4
-1.317, 7.062e-4
-1.318, 7.062e-4
-1.319, 7.093e-4
-1.320, 7.093e-4
-1.321, 7.124e-4
-1.322, 7.154e-4
-1.323, 7.185e-4
-1.324, 7.216e-4
-1.325, 7.278e-4
-1.326, 7.309e-4
-1.327, 7.370e-4
-1.328, 7.401e-4
-1.329, 7.463e-4
-1.330, 7.524e-4
-1.331, 7.524e-4
-1.332, 7.617e-4
-1.333, 7.648e-4
-1.334, 7.709e-4
-1.335, 7.771e-4
-1.336, 7.833e-4
-1.337, 7.925e-4
-1.338, 7.987e-4
-1.339, 8.079e-4
-1.340, 8.172e-4
-1.341, 8.264e-4
-1.342, 8.388e-4
-1.343, 8.480e-4
-1.344, 8.603e-4
-1.345, 8.727e-4
-1.346, 8.819e-4
-1.347, 8.973e-4
-1.348, 9.128e-4
-1.349, 9.251e-4
-1.350, 9.374e-4
-1.351, 9.559e-4
-1.352, 9.713e-4
-1.353, 9.898e-4
-1.354, 1.011e-3
-1.355, 1.030e-3
-1.356, 1.055e-3
-1.357, 1.079e-3
-1.358, 1.104e-3
-1.359, 1.135e-3
-1.360, 1.162e-3
-1.361, 1.193e-3
-1.362, 1.224e-3
-1.363, 1.258e-3
-1.364, 1.295e-3
-1.365, 1.335e-3
-1.366, 1.378e-3
-1.367, 1.425e-3
-1.368, 1.471e-3
-1.369, 1.526e-3
-1.370, 1.582e-3
-1.371, 1.643e-3
-1.372, 1.708e-3
-1.373, 1.776e-3
-1.374, 1.853e-3
-1.375, 1.933e-3
-1.376, 2.017e-3
-1.377, 2.109e-3
-1.378, 2.205e-3
-1.379, 2.306e-3
-1.380, 2.414e-3
-1.381, 2.531e-3
-1.382, 2.655e-3
-1.383, 2.784e-3
-1.384, 2.920e-3
-1.385, 3.065e-3
-1.386, 3.216e-3
-1.387, 3.373e-3
-1.388, 3.536e-3
-1.389, 3.709e-3
-1.390, 3.885e-3
-1.391, 4.064e-3
-1.392, 4.249e-3
-1.393, 4.437e-3
-1.394, 4.625e-3
-1.395, 4.822e-3
-1.396, 5.019e-3
-1.397, 5.220e-3
-1.398, 5.420e-3
-1.399, 5.621e-3
-1.400, 5.729e-3
-1.399, 5.713e-3
-1.398, 5.716e-3
-1.397, 5.713e-3
-1.396, 5.704e-3
-1.395, 5.685e-3
-1.394, 5.661e-3
-1.393, 5.627e-3
-1.392, 5.593e-3
-1.391, 5.547e-3
-1.390, 5.497e-3
-1.389, 5.445e-3
-1.388, 5.389e-3
-1.387, 5.331e-3
-1.386, 5.266e-3
-1.385, 5.204e-3
-1.384, 5.140e-3
-1.383, 5.072e-3
-1.382, 5.001e-3
-1.381, 4.933e-3
-1.380, 4.859e-3
-1.379, 4.788e-3
-1.378, 4.714e-3
-1.377, 4.637e-3
-1.376, 4.563e-3
-1.375, 4.486e-3
-1.374, 4.409e-3
-1.373, 4.335e-3
-1.372, 4.258e-3
-1.371, 4.184e-3
-1.370, 4.107e-3
-1.369, 4.033e-3
-1.368, 3.956e-3
-1.367, 3.882e-3
-1.366, 3.811e-3
-1.365, 3.737e-3
-1.364, 3.663e-3
-1.363, 3.592e-3
-1.362, 3.518e-3
-1.361, 3.441e-3
-1.360, 3.373e-3
-1.359, 3.299e-3
-1.358, 3.228e-3
-1.357, 3.157e-3
-1.356, 3.083e-3
-1.355, 3.019e-3
-1.354, 2.951e-3
-1.353, 2.883e-3
-1.352, 2.818e-3
-1.351, 2.753e-3
-1.350, 2.689e-3
-1.349, 2.627e-3
-1.348, 2.562e-3
-1.347, 2.497e-3
-1.346, 2.436e-3
-1.345, 2.371e-3
-1.344, 2.309e-3
-1.343, 2.248e-3
-1.342, 2.186e-3
-1.341, 2.131e-3
-1.340, 2.072e-3
-1.339, 2.017e-3
-1.338, 1.961e-3
-1.337, 1.906e-3
-1.336, 1.853e-3
-1.335, 1.801e-3
-1.334, 1.748e-3
-1.333, 1.696e-3
-1.332, 1.643e-3
-1.331, 1.594e-3
-1.330, 1.545e-3
-1.329, 1.495e-3
-1.328, 1.449e-3
-1.327, 1.403e-3
-1.326, 1.357e-3
-1.325, 1.314e-3
-1.324, 1.267e-3
-1.323, 1.227e-3
-1.322, 1.187e-3
-1.321, 1.147e-3
-1.320, 1.110e-3
-1.319, 1.070e-3
-1.318, 1.030e-3
-1.317, 9.929e-4
-1.316, 9.559e-4
-1.315, 9.189e-4
-1.314, 8.819e-4
-1.313, 8.480e-4
-1.312, 8.141e-4
-1.311, 7.802e-4
-1.310, 7.494e-4
-1.309, 7.185e-4
-1.308, 6.877e-4
-1.307, 6.599e-4
-1.306, 6.322e-4
-1.305, 6.014e-4
-1.304, 5.767e-4
-1.303, 5.489e-4
-1.302, 5.212e-4
-1.301, 4.935e-4
-1.300, 4.688e-4
-1.299, 4.441e-4
-1.298, 4.195e-4
-1.297, 3.948e-4
-1.296, 3.732e-4
-1.295, 3.547e-4
-1.294, 3.331e-4
-1.293, 3.115e-4
-1.292, 2.900e-4
-1.291, 2.746e-4
-1.290, 2.530e-4
-1.289, 2.345e-4
-1.288, 2.160e-4
-1.287, 1.975e-4
-1.286, 1.790e-4
-1.285, 1.636e-4
-1.284, 1.451e-4
-1.283, 1.296e-4
-1.282, 1.111e-4
-1.281, 9.573e-5
-1.280, 8.340e-5
-1.279, 6.798e-5
-1.278, 5.565e-5
-1.277, 4.332e-5
-1.276, 2.790e-5
-1.275, 1.865e-5
-1.274, 6.322e-6
-1.273, -9.093e-6
-1.272, -2.143e-5
-1.271, -3.376e-5
-1.270, -4.609e-5
-1.269, -5.534e-5
-1.268, -6.767e-5
-1.267, -7.692e-5
-1.266, -8.925e-5
-1.265, -9.850e-5
-1.264, -1.078e-4
-1.263, -1.170e-4
-1.262, -1.263e-4
-1.261, -1.324e-4
-1.260, -1.417e-4
-1.259, -1.509e-4
-1.258, -1.602e-4
-1.257, -1.694e-4
-1.256, -1.756e-4
-1.255, -1.848e-4
-1.254, -1.941e-4
-1.253, -2.033e-4
-1.252, -2.095e-4
-1.251, -2.157e-4
-1.250, -2.249e-4
-1.249, -2.311e-4
-1.248, -2.342e-4
-1.247, -2.434e-4
-1.246, -2.465e-4
-1.245, -2.557e-4
-1.244, -2.619e-4
-1.243, -2.681e-4
-1.242, -2.742e-4
-1.241, -2.804e-4
-1.240, -2.866e-4
-1.239, -2.927e-4
-1.238, -2.989e-4
-1.237, -3.051e-4
-1.236, -3.143e-4
-1.235, -3.143e-4
-1.234, -3.205e-4
-1.233, -3.267e-4
-1.232, -3.297e-4
-1.231, -3.359e-4
-1.230, -3.390e-4
-1.229, -3.482e-4
-1.228, -3.513e-4
-1.227, -3.575e-4
-1.226, -3.637e-4
-1.225, -3.667e-4
-1.224, -3.729e-4
-1.223, -3.791e-4
-1.222, -3.821e-4
-1.221, -3.852e-4
-1.220, -3.914e-4
-1.219, -3.914e-4
-1.218, -3.976e-4
-1.217, -4.006e-4
-1.216, -4.037e-4
-1.215, -4.099e-4
-1.214, -4.130e-4
-1.213, -4.161e-4
-1.212, -4.253e-4
-1.211, -4.284e-4
-1.210, -4.346e-4
-1.209, -4.376e-4
-1.208, -4.438e-4
-1.207, -4.469e-4
-1.206, -4.500e-4
-1.205, -4.531e-4
-1.204, -4.561e-4
-1.203, -4.623e-4
-1.202, -4.654e-4
-1.201, -4.685e-4
-1.200, -4.716e-4
-1.199, -4.746e-4
-1.198, -4.808e-4
-1.197, -4.839e-4
-1.196, -4.901e-4
-1.195, -4.931e-4
-1.194, -4.993e-4
-1.193, -5.024e-4
-1.192, -5.086e-4
-1.191, -5.116e-4
-1.190, -5.147e-4
-1.189, -5.178e-4
-1.188, -5.240e-4
-1.187, -5.240e-4
-1.186, -5.271e-4
-1.185, -5.301e-4
-1.184, -5.363e-4
-1.183, -5.394e-4
-1.182, -5.425e-4
-1.181, -5.486e-4
-1.180, -5.548e-4
-1.179, -5.579e-4
-1.178, -5.641e-4
-1.177, -5.702e-4
-1.176, -5.702e-4
-1.175, -5.733e-4
-1.174, -5.764e-4
-1.173, -5.826e-4
-1.172, -5.856e-4
-1.171, -5.856e-4
-1.170, -5.887e-4
-1.169, -5.949e-4
-1.168, -5.980e-4
-1.167, -6.041e-4
-1.166, -6.103e-4
-1.165, -6.134e-4
-1.164, -6.195e-4
-1.163, -6.226e-4
-1.162, -6.257e-4
-1.161, -6.319e-4
-1.160, -6.319e-4
-1.159, -6.380e-4
-1.158, -6.411e-4
-1.157, -6.411e-4
-1.156, -6.473e-4
-1.155, -6.504e-4
-1.154, -6.535e-4
-1.153, -6.596e-4
-1.152, -6.627e-4
-1.151, -6.689e-4
-1.150, -6.750e-4
-1.149, -6.781e-4
-1.148, -6.843e-4
-1.147, -6.843e-4
-1.146, -6.905e-4
-1.145, -6.935e-4
-1.144, -6.966e-4
-1.143, -7.028e-4
-1.142, -7.028e-4
-1.141, -7.059e-4
-1.140, -7.120e-4
-1.139, -7.151e-4
-1.138, -7.182e-4
-1.137, -7.244e-4
-1.136, -7.275e-4
-1.135, -7.336e-4
-1.134, -7.367e-4
-1.133, -7.429e-4
-1.132, -7.460e-4
-1.131, -7.521e-4
-1.130, -7.552e-4
-1.129, -7.583e-4
-1.128, -7.583e-4
-1.127, -7.645e-4
-1.126, -7.645e-4
-1.125, -7.706e-4
-1.124, -7.737e-4
-1.123, -7.799e-4
-1.122, -7.830e-4
-1.121, -7.891e-4
-1.120, -7.922e-4
-1.119, -7.984e-4
-1.118, -8.015e-4
-1.117, -8.045e-4
-1.116, -8.138e-4
-1.115, -8.138e-4
-1.114, -8.169e-4
-1.113, -8.200e-4
-1.112, -8.230e-4
-1.111, -8.261e-4
-1.110, -8.323e-4
-1.109, -8.354e-4
-1.108, -8.415e-4
-1.107, -8.446e-4
-1.106, -8.477e-4
-1.105, -8.539e-4
-1.104, -8.600e-4
-1.103, -8.631e-4
-1.102, -8.693e-4
-1.101, -8.724e-4
-1.100, -8.754e-4
-1.099, -8.785e-4
-1.098, -8.816e-4
-1.097, -8.847e-4
-1.096, -8.878e-4
-1.095, -8.939e-4
-1.094, -8.970e-4
-1.093, -9.001e-4
-1.092, -9.063e-4
-1.091, -9.094e-4
-1.090, -9.124e-4
-1.089, -9.186e-4
-1.088, -9.217e-4
-1.087, -9.279e-4
-1.086, -9.340e-4
-1.085, -9.340e-4
-1.084, -9.402e-4
-1.083, -9.433e-4
-1.082, -9.464e-4
-1.081, -9.464e-4
-1.080, -9.525e-4
-1.079, -9.556e-4
-1.078, -9.587e-4
-1.077, -9.649e-4
-1.076, -9.710e-4
-1.075, -9.772e-4
-1.074, -9.803e-4
-1.073, -9.864e-4
-1.072, -9.895e-4
-1.071, -9.957e-4
-1.070, -9.988e-4
-1.069, -1.002e-3
-1.068, -1.005e-3
-1.067, -1.008e-3
-1.066, -1.011e-3
-1.065, -1.014e-3
-1.064, -1.020e-3
-1.063, -1.023e-3
-1.062, -1.027e-3
-1.061, -1.033e-3
-1.060, -1.039e-3
-1.059, -1.042e-3
-1.058, -1.048e-3
-1.057, -1.057e-3
-1.056, -1.060e-3
-1.055, -1.064e-3
-1.054, -1.067e-3
-1.053, -1.070e-3
-1.052, -1.073e-3
-1.051, -1.076e-3
-1.050, -1.082e-3
-1.049, -1.088e-3
-1.048, -1.091e-3
-1.047, -1.097e-3
-1.046, -1.104e-3
-1.045, -1.107e-3
-1.044, -1.113e-3
-1.043, -1.119e-3
-1.042, -1.122e-3
-1.041, -1.128e-3
-1.040, -1.131e-3
-1.039, -1.134e-3
-1.038, -1.141e-3
-1.037, -1.144e-3
-1.036, -1.147e-3
-1.035, -1.153e-3
-1.034, -1.156e-3
-1.033, -1.162e-3
-1.032, -1.168e-3
-1.031, -1.175e-3
-1.030, -1.178e-3
-1.029, -1.184e-3
-1.028, -1.193e-3
-1.027, -1.196e-3
-1.026, -1.202e-3
-1.025, -1.205e-3
-1.024, -1.212e-3
-1.023, -1.215e-3
-1.022, -1.221e-3
-1.021, -1.224e-3
-1.020, -1.230e-3
-1.019, -1.233e-3
-1.018, -1.239e-3
-1.017, -1.245e-3
-1.016, -1.252e-3
-1.015, -1.258e-3
-1.014, -1.267e-3
-1.013, -1.273e-3
-1.012, -1.279e-3
-1.011, -1.286e-3
-1.010, -1.289e-3
-1.009, -1.295e-3
-1.008, -1.298e-3
-1.007, -1.304e-3
-1.006, -1.307e-3
-1.005, -1.313e-3
-1.004, -1.319e-3
-1.003, -1.326e-3
-1.002, -1.332e-3
-1.001, -1.338e-3
