July 16, 2024   09:09:01
Cyclic Voltammetry
File: c:/users/guazh/data/20240709_batch67/2024-07-10-exp60\exp60-2024-07-16t08_39_05-h2koh\exp60_cv_sr_800mvs_efin_-2000mv.bin
Data Source:  Experiment
Instrument Model:  CHI760E
Header: CV ran at 800 mVs
Note: 

Init E (V) = -1
High E (V) = -1
Low E (V) = -2
Final E (V) = -1
Init P/N = N
Scan Rate (V/s) = 0.8
Segment = 3
Sample Interval (V) = 0.001
Quiet Time (sec) = 2
Sensitivity (A/V) = 0.01
Comp R (ohm) = 1.8

Results:

Channel 1:
Segment 1:

Segment 2:

Segment 3:

Potential/V, Current/A

-1.000, 1.559e-7
-1.001, 3.239e-6
-1.002, 1.559e-7
-1.003, 3.239e-6
-1.004, 3.239e-6
-1.005, 3.239e-6
-1.006, 3.239e-6
-1.007, 3.239e-6
-1.008, 3.239e-6
-1.009, 3.239e-6
-1.010, 3.239e-6
-1.011, 3.239e-6
-1.012, 3.239e-6
-1.013, 3.239e-6
-1.014, 3.239e-6
-1.015, 3.239e-6
-1.016, 6.322e-6
-1.017, 3.239e-6
-1.018, 3.239e-6
-1.019, 6.322e-6
-1.020, 3.239e-6
-1.021, 6.322e-6
-1.022, 3.239e-6
-1.023, 3.239e-6
-1.024, 6.322e-6
-1.025, 6.322e-6
-1.026, 6.322e-6
-1.027, 3.239e-6
-1.028, 6.322e-6
-1.029, 6.322e-6
-1.030, 6.322e-6
-1.031, 3.239e-6
-1.032, 6.322e-6
-1.033, 6.322e-6
-1.034, 6.322e-6
-1.035, 3.239e-6
-1.036, 6.322e-6
-1.037, 6.322e-6
-1.038, 6.322e-6
-1.039, 6.322e-6
-1.040, 6.322e-6
-1.041, 6.322e-6
-1.042, 6.322e-6
-1.043, 6.322e-6
-1.044, 6.322e-6
-1.045, 6.322e-6
-1.046, 6.322e-6
-1.047, 6.322e-6
-1.048, 6.322e-6
-1.049, 6.322e-6
-1.050, 6.322e-6
-1.051, 6.322e-6
-1.052, 6.322e-6
-1.053, 6.322e-6
-1.054, 6.322e-6
-1.055, 6.322e-6
-1.056, 6.322e-6
-1.057, 6.322e-6
-1.058, 6.322e-6
-1.059, 6.322e-6
-1.060, 6.322e-6
-1.061, 6.322e-6
-1.062, 6.322e-6
-1.063, 6.322e-6
-1.064, 9.405e-6
-1.065, 9.405e-6
-1.066, 6.322e-6
-1.067, 6.322e-6
-1.068, 6.322e-6
-1.069, 6.322e-6
-1.070, 6.322e-6
-1.071, 6.322e-6
-1.072, 6.322e-6
-1.073, 6.322e-6
-1.074, 6.322e-6
-1.075, 6.322e-6
-1.076, 9.405e-6
-1.077, 9.405e-6
-1.078, 6.322e-6
-1.079, 9.405e-6
-1.080, 6.322e-6
-1.081, 6.322e-6
-1.082, 9.405e-6
-1.083, 9.405e-6
-1.084, 9.405e-6
-1.085, 9.405e-6
-1.086, 9.405e-6
-1.087, 9.405e-6
-1.088, 6.322e-6
-1.089, 9.405e-6
-1.090, 9.405e-6
-1.091, 9.405e-6
-1.092, 6.322e-6
-1.093, 9.405e-6
-1.094, 6.322e-6
-1.095, 9.405e-6
-1.096, 9.405e-6
-1.097, 9.405e-6
-1.098, 9.405e-6
-1.099, 9.405e-6
-1.100, 9.405e-6
-1.101, 9.405e-6
-1.102, 9.405e-6
-1.103, 9.405e-6
-1.104, 9.405e-6
-1.105, 9.405e-6
-1.106, 9.405e-6
-1.107, 9.405e-6
-1.108, 9.405e-6
-1.109, 9.405e-6
-1.110, 9.405e-6
-1.111, 9.405e-6
-1.112, 9.405e-6
-1.113, 9.405e-6
-1.114, 9.405e-6
-1.115, 9.405e-6
-1.116, 9.405e-6
-1.117, 9.405e-6
-1.118, 9.405e-6
-1.119, 9.405e-6
-1.120, 9.405e-6
-1.121, 9.405e-6
-1.122, 9.405e-6
-1.123, 9.405e-6
-1.124, 9.405e-6
-1.125, 9.405e-6
-1.126, 1.249e-5
-1.127, 9.405e-6
-1.128, 9.405e-6
-1.129, 9.405e-6
-1.130, 9.405e-6
-1.131, 9.405e-6
-1.132, 9.405e-6
-1.133, 9.405e-6
-1.134, 9.405e-6
-1.135, 1.249e-5
-1.136, 9.405e-6
-1.137, 9.405e-6
-1.138, 9.405e-6
-1.139, 1.249e-5
-1.140, 1.249e-5
-1.141, 9.405e-6
-1.142, 9.405e-6
-1.143, 9.405e-6
-1.144, 1.249e-5
-1.145, 9.405e-6
-1.146, 1.249e-5
-1.147, 9.405e-6
-1.148, 1.249e-5
-1.149, 9.405e-6
-1.150, 9.405e-6
-1.151, 9.405e-6
-1.152, 1.249e-5
-1.153, 1.249e-5
-1.154, 9.405e-6
-1.155, 9.405e-6
-1.156, 1.249e-5
-1.157, 9.405e-6
-1.158, 1.249e-5
-1.159, 9.405e-6
-1.160, 1.249e-5
-1.161, 1.249e-5
-1.162, 1.249e-5
-1.163, 9.405e-6
-1.164, 1.249e-5
-1.165, 1.249e-5
-1.166, 1.249e-5
-1.167, 1.249e-5
-1.168, 1.249e-5
-1.169, 9.405e-6
-1.170, 1.249e-5
-1.171, 1.249e-5
-1.172, 9.405e-6
-1.173, 1.249e-5
-1.174, 1.249e-5
-1.175, 1.249e-5
-1.176, 1.249e-5
-1.177, 1.249e-5
-1.178, 1.249e-5
-1.179, 1.249e-5
-1.180, 1.249e-5
-1.181, 1.249e-5
-1.182, 1.249e-5
-1.183, 1.249e-5
-1.184, 1.249e-5
-1.185, 1.249e-5
-1.186, 9.405e-6
-1.187, 1.249e-5
-1.188, 1.249e-5
-1.189, 1.249e-5
-1.190, 1.249e-5
-1.191, 1.249e-5
-1.192, 1.249e-5
-1.193, 1.249e-5
-1.194, 1.249e-5
-1.195, 1.249e-5
-1.196, 1.249e-5
-1.197, 1.249e-5
-1.198, 1.249e-5
-1.199, 1.249e-5
-1.200, 1.249e-5
-1.201, 1.249e-5
-1.202, 1.249e-5
-1.203, 1.249e-5
-1.204, 1.249e-5
-1.205, 1.557e-5
-1.206, 1.249e-5
-1.207, 1.249e-5
-1.208, 1.249e-5
-1.209, 1.249e-5
-1.210, 1.557e-5
-1.211, 1.249e-5
-1.212, 1.249e-5
-1.213, 1.557e-5
-1.214, 1.557e-5
-1.215, 1.249e-5
-1.216, 1.249e-5
-1.217, 1.249e-5
-1.218, 1.249e-5
-1.219, 1.557e-5
-1.220, 1.249e-5
-1.221, 1.249e-5
-1.222, 1.249e-5
-1.223, 1.249e-5
-1.224, 1.557e-5
-1.225, 1.249e-5
-1.226, 1.557e-5
-1.227, 1.557e-5
-1.228, 1.557e-5
-1.229, 1.557e-5
-1.230, 1.249e-5
-1.231, 1.557e-5
-1.232, 1.557e-5
-1.233, 1.249e-5
-1.234, 1.557e-5
-1.235, 1.249e-5
-1.236, 1.557e-5
-1.237, 1.249e-5
-1.238, 1.557e-5
-1.239, 1.249e-5
-1.240, 1.557e-5
-1.241, 1.557e-5
-1.242, 1.557e-5
-1.243, 1.557e-5
-1.244, 1.557e-5
-1.245, 1.557e-5
-1.246, 1.557e-5
-1.247, 1.557e-5
-1.248, 1.557e-5
-1.249, 1.557e-5
-1.250, 1.557e-5
-1.251, 1.557e-5
-1.252, 1.557e-5
-1.253, 1.557e-5
-1.254, 1.557e-5
-1.255, 1.557e-5
-1.256, 1.557e-5
-1.257, 1.557e-5
-1.258, 1.557e-5
-1.259, 1.557e-5
-1.260, 1.557e-5
-1.261, 1.557e-5
-1.262, 1.557e-5
-1.263, 1.557e-5
-1.264, 1.557e-5
-1.265, 1.557e-5
-1.266, 1.557e-5
-1.267, 1.557e-5
-1.268, 1.557e-5
-1.269, 1.557e-5
-1.270, 1.557e-5
-1.271, 1.557e-5
-1.272, 1.865e-5
-1.273, 1.557e-5
-1.274, 1.557e-5
-1.275, 1.557e-5
-1.276, 1.557e-5
-1.277, 1.557e-5
-1.278, 1.557e-5
-1.279, 1.557e-5
-1.280, 1.557e-5
-1.281, 1.557e-5
-1.282, 1.557e-5
-1.283, 1.557e-5
-1.284, 1.557e-5
-1.285, 1.865e-5
-1.286, 1.557e-5
-1.287, 1.557e-5
-1.288, 1.557e-5
-1.289, 1.865e-5
-1.290, 1.557e-5
-1.291, 1.557e-5
-1.292, 1.557e-5
-1.293, 1.865e-5
-1.294, 1.557e-5
-1.295, 1.557e-5
-1.296, 1.557e-5
-1.297, 1.865e-5
-1.298, 1.865e-5
-1.299, 1.865e-5
-1.300, 1.865e-5
-1.301, 1.865e-5
-1.302, 1.557e-5
-1.303, 1.865e-5
-1.304, 1.865e-5
-1.305, 1.865e-5
-1.306, 1.865e-5
-1.307, 1.865e-5
-1.308, 1.557e-5
-1.309, 1.865e-5
-1.310, 1.557e-5
-1.311, 1.865e-5
-1.312, 1.865e-5
-1.313, 1.557e-5
-1.314, 1.557e-5
-1.315, 1.865e-5
-1.316, 1.865e-5
-1.317, 1.865e-5
-1.318, 1.865e-5
-1.319, 1.865e-5
-1.320, 1.865e-5
-1.321, 1.865e-5
-1.322, 1.865e-5
-1.323, 1.865e-5
-1.324, 1.865e-5
-1.325, 1.865e-5
-1.326, 1.865e-5
-1.327, 1.865e-5
-1.328, 1.865e-5
-1.329, 1.865e-5
-1.330, 1.865e-5
-1.331, 1.865e-5
-1.332, 1.865e-5
-1.333, 1.865e-5
-1.334, 1.865e-5
-1.335, 1.865e-5
-1.336, 1.865e-5
-1.337, 1.865e-5
-1.338, 1.865e-5
-1.339, 1.865e-5
-1.340, 1.865e-5
-1.341, 1.865e-5
-1.342, 2.174e-5
-1.343, 1.865e-5
-1.344, 1.865e-5
-1.345, 1.865e-5
-1.346, 2.174e-5
-1.347, 1.865e-5
-1.348, 1.865e-5
-1.349, 1.865e-5
-1.350, 2.174e-5
-1.351, 1.865e-5
-1.352, 2.174e-5
-1.353, 1.865e-5
-1.354, 2.174e-5
-1.355, 1.865e-5
-1.356, 2.174e-5
-1.357, 1.865e-5
-1.358, 1.865e-5
-1.359, 1.865e-5
-1.360, 2.174e-5
-1.361, 1.865e-5
-1.362, 1.865e-5
-1.363, 2.174e-5
-1.364, 1.865e-5
-1.365, 2.174e-5
-1.366, 2.174e-5
-1.367, 1.865e-5
-1.368, 2.174e-5
-1.369, 2.174e-5
-1.370, 2.174e-5
-1.371, 1.865e-5
-1.372, 2.174e-5
-1.373, 2.174e-5
-1.374, 2.174e-5
-1.375, 1.865e-5
-1.376, 2.174e-5
-1.377, 1.865e-5
-1.378, 2.174e-5
-1.379, 2.174e-5
-1.380, 2.174e-5
-1.381, 2.174e-5
-1.382, 2.174e-5
-1.383, 2.174e-5
-1.384, 2.174e-5
-1.385, 2.174e-5
-1.386, 2.174e-5
-1.387, 2.174e-5
-1.388, 2.174e-5
-1.389, 2.174e-5
-1.390, 2.174e-5
-1.391, 2.174e-5
-1.392, 2.174e-5
-1.393, 2.174e-5
-1.394, 2.174e-5
-1.395, 2.174e-5
-1.396, 2.174e-5
-1.397, 2.174e-5
-1.398, 2.174e-5
-1.399, 2.174e-5
-1.400, 2.174e-5
-1.401, 2.174e-5
-1.402, 2.174e-5
-1.403, 2.482e-5
-1.404, 2.174e-5
-1.405, 2.174e-5
-1.406, 2.174e-5
-1.407, 2.174e-5
-1.408, 2.174e-5
-1.409, 2.482e-5
-1.410, 2.174e-5
-1.411, 2.174e-5
-1.412, 2.174e-5
-1.413, 2.174e-5
-1.414, 2.174e-5
-1.415, 2.482e-5
-1.416, 2.174e-5
-1.417, 2.482e-5
-1.418, 2.482e-5
-1.419, 2.174e-5
-1.420, 2.174e-5
-1.421, 2.482e-5
-1.422, 2.482e-5
-1.423, 2.174e-5
-1.424, 2.174e-5
-1.425, 2.482e-5
-1.426, 2.482e-5
-1.427, 2.174e-5
-1.428, 2.482e-5
-1.429, 2.174e-5
-1.430, 2.482e-5
-1.431, 2.482e-5
-1.432, 2.482e-5
-1.433, 2.174e-5
-1.434, 2.482e-5
-1.435, 2.482e-5
-1.436, 2.482e-5
-1.437, 2.482e-5
-1.438, 2.482e-5
-1.439, 2.482e-5
-1.440, 2.482e-5
-1.441, 2.482e-5
-1.442, 2.482e-5
-1.443, 2.482e-5
-1.444, 2.482e-5
-1.445, 2.482e-5
-1.446, 2.482e-5
-1.447, 2.482e-5
-1.448, 2.482e-5
-1.449, 2.482e-5
-1.450, 2.482e-5
-1.451, 2.482e-5
-1.452, 2.482e-5
-1.453, 2.482e-5
-1.454, 2.790e-5
-1.455, 2.482e-5
-1.456, 2.482e-5
-1.457, 2.482e-5
-1.458, 2.482e-5
-1.459, 2.482e-5
-1.460, 2.482e-5
-1.461, 2.482e-5
-1.462, 2.482e-5
-1.463, 2.482e-5
-1.464, 2.482e-5
-1.465, 2.482e-5
-1.466, 2.482e-5
-1.467, 2.482e-5
-1.468, 2.482e-5
-1.469, 2.482e-5
-1.470, 2.790e-5
-1.471, 2.790e-5
-1.472, 2.482e-5
-1.473, 2.482e-5
-1.474, 2.790e-5
-1.475, 2.790e-5
-1.476, 2.482e-5
-1.477, 2.482e-5
-1.478, 2.790e-5
-1.479, 2.790e-5
-1.480, 2.482e-5
-1.481, 2.482e-5
-1.482, 2.482e-5
-1.483, 2.790e-5
-1.484, 2.790e-5
-1.485, 2.790e-5
-1.486, 2.790e-5
-1.487, 2.790e-5
-1.488, 2.790e-5
-1.489, 2.790e-5
-1.490, 2.482e-5
-1.491, 2.790e-5
-1.492, 2.790e-5
-1.493, 2.790e-5
-1.494, 2.790e-5
-1.495, 2.790e-5
-1.496, 2.790e-5
-1.497, 2.790e-5
-1.498, 2.790e-5
-1.499, 2.790e-5
-1.500, 2.790e-5
-1.501, 2.790e-5
-1.502, 2.790e-5
-1.503, 2.790e-5
-1.504, 2.790e-5
-1.505, 2.790e-5
-1.506, 2.790e-5
-1.507, 2.790e-5
-1.508, 2.790e-5
-1.509, 2.790e-5
-1.510, 2.790e-5
-1.511, 3.099e-5
-1.512, 2.790e-5
-1.513, 2.790e-5
-1.514, 2.790e-5
-1.515, 3.099e-5
-1.516, 2.790e-5
-1.517, 2.790e-5
-1.518, 2.790e-5
-1.519, 3.099e-5
-1.520, 2.790e-5
-1.521, 2.790e-5
-1.522, 2.790e-5
-1.523, 2.790e-5
-1.524, 2.790e-5
-1.525, 3.099e-5
-1.526, 3.099e-5
-1.527, 3.099e-5
-1.528, 3.099e-5
-1.529, 2.790e-5
-1.530, 2.790e-5
-1.531, 2.790e-5
-1.532, 2.790e-5
-1.533, 2.790e-5
-1.534, 2.790e-5
-1.535, 2.790e-5
-1.536, 2.790e-5
-1.537, 2.790e-5
-1.538, 2.790e-5
-1.539, 2.790e-5
-1.540, 3.099e-5
-1.541, 3.099e-5
-1.542, 3.099e-5
-1.543, 2.790e-5
-1.544, 3.099e-5
-1.545, 3.099e-5
-1.546, 3.099e-5
-1.547, 2.790e-5
-1.548, 3.099e-5
-1.549, 3.099e-5
-1.550, 3.099e-5
-1.551, 3.099e-5
-1.552, 3.099e-5
-1.553, 3.099e-5
-1.554, 3.099e-5
-1.555, 3.099e-5
-1.556, 3.099e-5
-1.557, 3.099e-5
-1.558, 3.099e-5
-1.559, 3.099e-5
-1.560, 3.099e-5
-1.561, 2.790e-5
-1.562, 3.099e-5
-1.563, 3.099e-5
-1.564, 3.099e-5
-1.565, 3.099e-5
-1.566, 3.099e-5
-1.567, 3.099e-5
-1.568, 3.099e-5
-1.569, 3.099e-5
-1.570, 3.099e-5
-1.571, 3.099e-5
-1.572, 3.099e-5
-1.573, 3.099e-5
-1.574, 3.099e-5
-1.575, 3.099e-5
-1.576, 3.407e-5
-1.577, 3.099e-5
-1.578, 3.099e-5
-1.579, 3.099e-5
-1.580, 3.099e-5
-1.581, 3.099e-5
-1.582, 3.099e-5
-1.583, 3.099e-5
-1.584, 3.099e-5
-1.585, 3.407e-5
-1.586, 3.099e-5
-1.587, 3.099e-5
-1.588, 3.099e-5
-1.589, 3.099e-5
-1.590, 3.407e-5
-1.591, 3.407e-5
-1.592, 3.099e-5
-1.593, 3.407e-5
-1.594, 3.099e-5
-1.595, 3.407e-5
-1.596, 3.099e-5
-1.597, 3.407e-5
-1.598, 3.099e-5
-1.599, 3.407e-5
-1.600, 3.099e-5
-1.601, 3.099e-5
-1.602, 3.099e-5
-1.603, 3.407e-5
-1.604, 3.407e-5
-1.605, 3.407e-5
-1.606, 3.407e-5
-1.607, 3.407e-5
-1.608, 3.407e-5
-1.609, 3.407e-5
-1.610, 3.407e-5
-1.611, 3.407e-5
-1.612, 3.407e-5
-1.613, 3.407e-5
-1.614, 3.099e-5
-1.615, 3.407e-5
-1.616, 3.407e-5
-1.617, 3.407e-5
-1.618, 3.407e-5
-1.619, 3.407e-5
-1.620, 3.407e-5
-1.621, 3.715e-5
-1.622, 3.407e-5
-1.623, 3.407e-5
-1.624, 3.715e-5
-1.625, 3.407e-5
-1.626, 3.407e-5
-1.627, 3.407e-5
-1.628, 3.407e-5
-1.629, 3.407e-5
-1.630, 3.407e-5
-1.631, 3.407e-5
-1.632, 3.715e-5
-1.633, 3.407e-5
-1.634, 3.715e-5
-1.635, 3.407e-5
-1.636, 3.407e-5
-1.637, 3.407e-5
-1.638, 3.715e-5
-1.639, 3.407e-5
-1.640, 3.715e-5
-1.641, 3.407e-5
-1.642, 3.715e-5
-1.643, 3.715e-5
-1.644, 3.715e-5
-1.645, 3.715e-5
-1.646, 3.715e-5
-1.647, 3.715e-5
-1.648, 3.715e-5
-1.649, 3.715e-5
-1.650, 3.715e-5
-1.651, 3.715e-5
-1.652, 3.715e-5
-1.653, 3.715e-5
-1.654, 3.715e-5
-1.655, 3.715e-5
-1.656, 3.715e-5
-1.657, 3.715e-5
-1.658, 3.715e-5
-1.659, 3.715e-5
-1.660, 4.024e-5
-1.661, 3.715e-5
-1.662, 3.715e-5
-1.663, 3.715e-5
-1.664, 3.715e-5
-1.665, 3.715e-5
-1.666, 4.024e-5
-1.667, 3.715e-5
-1.668, 4.024e-5
-1.669, 4.024e-5
-1.670, 4.024e-5
-1.671, 3.715e-5
-1.672, 4.024e-5
-1.673, 4.024e-5
-1.674, 4.024e-5
-1.675, 4.024e-5
-1.676, 4.024e-5
-1.677, 4.024e-5
-1.678, 4.024e-5
-1.679, 4.024e-5
-1.680, 4.024e-5
-1.681, 4.024e-5
-1.682, 4.024e-5
-1.683, 4.024e-5
-1.684, 4.024e-5
-1.685, 4.332e-5
-1.686, 4.024e-5
-1.687, 4.332e-5
-1.688, 4.332e-5
-1.689, 4.332e-5
-1.690, 4.332e-5
-1.691, 4.332e-5
-1.692, 4.332e-5
-1.693, 4.332e-5
-1.694, 4.332e-5
-1.695, 4.332e-5
-1.696, 4.332e-5
-1.697, 4.332e-5
-1.698, 4.332e-5
-1.699, 4.332e-5
-1.700, 4.640e-5
-1.701, 4.640e-5
-1.702, 4.640e-5
-1.703, 4.640e-5
-1.704, 4.332e-5
-1.705, 4.640e-5
-1.706, 4.640e-5
-1.707, 4.640e-5
-1.708, 4.640e-5
-1.709, 4.949e-5
-1.710, 4.640e-5
-1.711, 4.949e-5
-1.712, 4.949e-5
-1.713, 4.949e-5
-1.714, 4.949e-5
-1.715, 4.949e-5
-1.716, 4.949e-5
-1.717, 5.257e-5
-1.718, 4.949e-5
-1.719, 5.257e-5
-1.720, 5.257e-5
-1.721, 5.257e-5
-1.722, 5.565e-5
-1.723, 5.565e-5
-1.724, 5.257e-5
-1.725, 5.565e-5
-1.726, 5.565e-5
-1.727, 5.565e-5
-1.728, 5.873e-5
-1.729, 5.873e-5
-1.730, 5.873e-5
-1.731, 5.873e-5
-1.732, 5.873e-5
-1.733, 5.873e-5
-1.734, 6.182e-5
-1.735, 6.182e-5
-1.736, 6.182e-5
-1.737, 6.182e-5
-1.738, 6.490e-5
-1.739, 6.490e-5
-1.740, 6.798e-5
-1.741, 6.798e-5
-1.742, 6.798e-5
-1.743, 6.798e-5
-1.744, 7.107e-5
-1.745, 7.107e-5
-1.746, 7.107e-5
-1.747, 7.415e-5
-1.748, 7.415e-5
-1.749, 7.415e-5
-1.750, 7.723e-5
-1.751, 7.723e-5
-1.752, 8.032e-5
-1.753, 8.032e-5
-1.754, 8.340e-5
-1.755, 8.340e-5
-1.756, 8.340e-5
-1.757, 8.648e-5
-1.758, 8.957e-5
-1.759, 8.957e-5
-1.760, 8.957e-5
-1.761, 9.265e-5
-1.762, 9.573e-5
-1.763, 9.573e-5
-1.764, 9.882e-5
-1.765, 1.019e-4
-1.766, 1.050e-4
-1.767, 1.050e-4
-1.768, 1.081e-4
-1.769, 1.111e-4
-1.770, 1.142e-4
-1.771, 1.173e-4
-1.772, 1.173e-4
-1.773, 1.204e-4
-1.774, 1.235e-4
-1.775, 1.266e-4
-1.776, 1.296e-4
-1.777, 1.327e-4
-1.778, 1.358e-4
-1.779, 1.420e-4
-1.780, 1.451e-4
-1.781, 1.481e-4
-1.782, 1.512e-4
-1.783, 1.574e-4
-1.784, 1.605e-4
-1.785, 1.636e-4
-1.786, 1.697e-4
-1.787, 1.728e-4
-1.788, 1.790e-4
-1.789, 1.851e-4
-1.790, 1.882e-4
-1.791, 1.944e-4
-1.792, 2.006e-4
-1.793, 2.067e-4
-1.794, 2.129e-4
-1.795, 2.191e-4
-1.796, 2.252e-4
-1.797, 2.345e-4
-1.798, 2.406e-4
-1.799, 2.499e-4
-1.800, 2.561e-4
-1.801, 2.653e-4
-1.802, 2.715e-4
-1.803, 2.807e-4
-1.804, 2.900e-4
-1.805, 2.992e-4
-1.806, 3.085e-4
-1.807, 3.208e-4
-1.808, 3.300e-4
-1.809, 3.424e-4
-1.810, 3.547e-4
-1.811, 3.670e-4
-1.812, 3.763e-4
-1.813, 3.886e-4
-1.814, 4.040e-4
-1.815, 4.164e-4
-1.816, 4.318e-4
-1.817, 4.472e-4
-1.818, 4.626e-4
-1.819, 4.780e-4
-1.820, 4.965e-4
-1.821, 5.120e-4
-1.822, 5.305e-4
-1.823, 5.489e-4
-1.824, 5.674e-4
-1.825, 5.890e-4
-1.826, 6.075e-4
-1.827, 6.260e-4
-1.828, 6.507e-4
-1.829, 6.723e-4
-1.830, 6.969e-4
-1.831, 7.216e-4
-1.832, 7.494e-4
-1.833, 7.740e-4
-1.834, 8.018e-4
-1.835, 8.295e-4
-1.836, 8.603e-4
-1.837, 8.912e-4
-1.838, 9.189e-4
-1.839, 9.498e-4
-1.840, 9.837e-4
-1.841, 1.014e-3
-1.842, 1.051e-3
-1.843, 1.085e-3
-1.844, 1.122e-3
-1.845, 1.166e-3
-1.846, 1.203e-3
-1.847, 1.243e-3
-1.848, 1.286e-3
-1.849, 1.326e-3
-1.850, 1.369e-3
-1.851, 1.415e-3
-1.852, 1.458e-3
-1.853, 1.505e-3
-1.854, 1.554e-3
-1.855, 1.603e-3
-1.856, 1.656e-3
-1.857, 1.708e-3
-1.858, 1.764e-3
-1.859, 1.819e-3
-1.860, 1.878e-3
-1.861, 1.936e-3
-1.862, 1.992e-3
-1.863, 2.054e-3
-1.864, 2.115e-3
-1.865, 2.177e-3
-1.866, 2.238e-3
-1.867, 2.303e-3
-1.868, 2.368e-3
-1.869, 2.436e-3
-1.870, 2.507e-3
-1.871, 2.578e-3
-1.872, 2.652e-3
-1.873, 2.723e-3
-1.874, 2.797e-3
-1.875, 2.874e-3
-1.876, 2.951e-3
-1.877, 3.025e-3
-1.878, 3.105e-3
-1.879, 3.182e-3
-1.880, 3.262e-3
-1.881, 3.342e-3
-1.882, 3.425e-3
-1.883, 3.509e-3
-1.884, 3.598e-3
-1.885, 3.684e-3
-1.886, 3.774e-3
-1.887, 3.863e-3
-1.888, 3.956e-3
-1.889, 4.045e-3
-1.890, 4.135e-3
-1.891, 4.227e-3
-1.892, 4.320e-3
-1.893, 4.409e-3
-1.894, 4.501e-3
-1.895, 4.597e-3
-1.896, 4.693e-3
-1.897, 4.791e-3
-1.898, 4.893e-3
-1.899, 4.998e-3
-1.900, 5.097e-3
-1.901, 5.198e-3
-1.902, 5.300e-3
-1.903, 5.405e-3
-1.904, 5.507e-3
-1.905, 5.608e-3
-1.906, 5.707e-3
-1.907, 5.812e-3
-1.908, 5.917e-3
-1.909, 6.021e-3
-1.910, 6.132e-3
-1.911, 6.240e-3
-1.912, 6.354e-3
-1.913, 6.469e-3
-1.914, 6.580e-3
-1.915, 6.691e-3
-1.916, 6.805e-3
-1.917, 6.916e-3
-1.918, 7.027e-3
-1.919, 7.138e-3
-1.920, 7.252e-3
-1.921, 7.366e-3
-1.922, 7.480e-3
-1.923, 7.597e-3
-1.924, 7.714e-3
-1.925, 7.834e-3
-1.926, 7.955e-3
-1.927, 8.075e-3
-1.928, 8.195e-3
-1.929, 8.312e-3
-1.930, 8.429e-3
-1.931, 8.543e-3
-1.932, 8.661e-3
-1.933, 8.775e-3
-1.934, 8.892e-3
-1.935, 9.009e-3
-1.936, 9.126e-3
-1.937, 9.246e-3
-1.938, 9.370e-3
-1.939, 9.493e-3
-1.940, 9.619e-3
-1.941, 9.740e-3
-1.942, 9.863e-3
-1.943, 9.983e-3
-1.944, 1.010e-2
-1.945, 1.022e-2
-1.946, 1.033e-2
-1.947, 1.045e-2
-1.948, 1.057e-2
-1.949, 1.069e-2
-1.950, 1.081e-2
-1.951, 1.094e-2
-1.952, 1.106e-2
-1.953, 1.119e-2
-1.954, 1.131e-2
-1.955, 1.144e-2
-1.956, 1.156e-2
-1.957, 1.169e-2
-1.958, 1.181e-2
-1.959, 1.193e-2
-1.960, 1.206e-2
-1.961, 1.218e-2
-1.962, 1.231e-2
-1.963, 1.244e-2
-1.964, 1.258e-2
-1.965, 1.271e-2
-1.966, 1.284e-2
-1.967, 1.297e-2
-1.968, 1.311e-2
-1.969, 1.324e-2
-1.970, 1.336e-2
-1.971, 1.349e-2
-1.972, 1.362e-2
-1.973, 1.375e-2
-1.974, 1.389e-2
-1.975, 1.403e-2
-1.976, 1.416e-2
-1.977, 1.430e-2
-1.978, 1.444e-2
-1.979, 1.457e-2
-1.980, 1.471e-2
-1.981, 1.484e-2
-1.982, 1.497e-2
-1.983, 1.510e-2
-1.984, 1.523e-2
-1.985, 1.536e-2
-1.986, 1.548e-2
-1.987, 1.561e-2
-1.988, 1.573e-2
-1.989, 1.587e-2
-1.990, 1.600e-2
-1.991, 1.613e-2
-1.992, 1.626e-2
-1.993, 1.639e-2
-1.994, 1.652e-2
-1.995, 1.665e-2
-1.996, 1.678e-2
-1.997, 1.690e-2
-1.998, 1.702e-2
-1.999, 1.714e-2
-2.000, 1.719e-2
-1.999, 1.712e-2
-1.998, 1.704e-2
-1.997, 1.696e-2
-1.996, 1.689e-2
-1.995, 1.681e-2
-1.994, 1.674e-2
-1.993, 1.666e-2
-1.992, 1.658e-2
-1.991, 1.649e-2
-1.990, 1.641e-2
-1.989, 1.632e-2
-1.988, 1.623e-2
-1.987, 1.615e-2
-1.986, 1.606e-2
-1.985, 1.597e-2
-1.984, 1.588e-2
-1.983, 1.580e-2
-1.982, 1.571e-2
-1.981, 1.563e-2
-1.980, 1.555e-2
-1.979, 1.546e-2
-1.978, 1.538e-2
-1.977, 1.528e-2
-1.976, 1.519e-2
-1.975, 1.510e-2
-1.974, 1.500e-2
-1.973, 1.491e-2
-1.972, 1.481e-2
-1.971, 1.472e-2
-1.970, 1.464e-2
-1.969, 1.455e-2
-1.968, 1.446e-2
-1.967, 1.437e-2
-1.966, 1.428e-2
-1.965, 1.419e-2
-1.964, 1.410e-2
-1.963, 1.400e-2
-1.962, 1.390e-2
-1.961, 1.381e-2
-1.960, 1.371e-2
-1.959, 1.362e-2
-1.958, 1.352e-2
-1.957, 1.343e-2
-1.956, 1.334e-2
-1.955, 1.325e-2
-1.954, 1.316e-2
-1.953, 1.307e-2
-1.952, 1.298e-2
-1.951, 1.289e-2
-1.950, 1.279e-2
-1.949, 1.269e-2
-1.948, 1.259e-2
-1.947, 1.250e-2
-1.946, 1.240e-2
-1.945, 1.231e-2
-1.944, 1.222e-2
-1.943, 1.213e-2
-1.942, 1.205e-2
-1.941, 1.196e-2
-1.940, 1.188e-2
-1.939, 1.179e-2
-1.938, 1.170e-2
-1.937, 1.161e-2
-1.936, 1.152e-2
-1.935, 1.143e-2
-1.934, 1.134e-2
-1.933, 1.125e-2
-1.932, 1.116e-2
-1.931, 1.107e-2
-1.930, 1.099e-2
-1.929, 1.091e-2
-1.928, 1.083e-2
-1.927, 1.075e-2
-1.926, 1.066e-2
-1.925, 1.058e-2
-1.924, 1.050e-2
-1.923, 1.041e-2
-1.922, 1.033e-2
-1.921, 1.024e-2
-1.920, 1.015e-2
-1.919, 1.006e-2
-1.918, 9.977e-3
-1.917, 9.897e-3
-1.916, 9.814e-3
-1.915, 9.734e-3
-1.914, 9.653e-3
-1.913, 9.573e-3
-1.912, 9.493e-3
-1.911, 9.407e-3
-1.910, 9.320e-3
-1.909, 9.234e-3
-1.908, 9.148e-3
-1.907, 9.058e-3
-1.906, 8.975e-3
-1.905, 8.889e-3
-1.904, 8.809e-3
-1.903, 8.725e-3
-1.902, 8.645e-3
-1.901, 8.565e-3
-1.900, 8.485e-3
-1.899, 8.405e-3
-1.898, 8.321e-3
-1.897, 8.235e-3
-1.896, 8.152e-3
-1.895, 8.069e-3
-1.894, 7.982e-3
-1.893, 7.896e-3
-1.892, 7.813e-3
-1.891, 7.733e-3
-1.890, 7.656e-3
-1.889, 7.575e-3
-1.888, 7.501e-3
-1.887, 7.424e-3
-1.886, 7.347e-3
-1.885, 7.270e-3
-1.884, 7.190e-3
-1.883, 7.110e-3
-1.882, 7.030e-3
-1.881, 6.953e-3
-1.880, 6.872e-3
-1.879, 6.795e-3
-1.878, 6.721e-3
-1.877, 6.647e-3
-1.876, 6.576e-3
-1.875, 6.502e-3
-1.874, 6.435e-3
-1.873, 6.364e-3
-1.872, 6.293e-3
-1.871, 6.219e-3
-1.870, 6.148e-3
-1.869, 6.074e-3
-1.868, 6.000e-3
-1.867, 5.929e-3
-1.866, 5.858e-3
-1.865, 5.787e-3
-1.864, 5.719e-3
-1.863, 5.655e-3
-1.862, 5.587e-3
-1.861, 5.525e-3
-1.860, 5.460e-3
-1.859, 5.396e-3
-1.858, 5.331e-3
-1.857, 5.266e-3
-1.856, 5.201e-3
-1.855, 5.134e-3
-1.854, 5.066e-3
-1.853, 5.001e-3
-1.852, 4.936e-3
-1.851, 4.875e-3
-1.850, 4.813e-3
-1.849, 4.751e-3
-1.848, 4.693e-3
-1.847, 4.631e-3
-1.846, 4.572e-3
-1.845, 4.514e-3
-1.844, 4.449e-3
-1.843, 4.391e-3
-1.842, 4.329e-3
-1.841, 4.267e-3
-1.840, 4.206e-3
-1.839, 4.147e-3
-1.838, 4.088e-3
-1.837, 4.033e-3
-1.836, 3.977e-3
-1.835, 3.919e-3
-1.834, 3.866e-3
-1.833, 3.811e-3
-1.832, 3.758e-3
-1.831, 3.703e-3
-1.830, 3.647e-3
-1.829, 3.592e-3
-1.828, 3.536e-3
-1.827, 3.481e-3
-1.826, 3.429e-3
-1.825, 3.376e-3
-1.824, 3.327e-3
-1.823, 3.278e-3
-1.822, 3.228e-3
-1.821, 3.179e-3
-1.820, 3.130e-3
-1.819, 3.083e-3
-1.818, 3.034e-3
-1.817, 2.985e-3
-1.816, 2.938e-3
-1.815, 2.889e-3
-1.814, 2.843e-3
-1.813, 2.797e-3
-1.812, 2.750e-3
-1.811, 2.707e-3
-1.810, 2.664e-3
-1.809, 2.621e-3
-1.808, 2.581e-3
-1.807, 2.538e-3
-1.806, 2.497e-3
-1.805, 2.454e-3
-1.804, 2.411e-3
-1.803, 2.371e-3
-1.802, 2.331e-3
-1.801, 2.288e-3
-1.800, 2.248e-3
-1.799, 2.208e-3
-1.798, 2.171e-3
-1.797, 2.134e-3
-1.796, 2.097e-3
-1.795, 2.060e-3
-1.794, 2.026e-3
-1.793, 1.992e-3
-1.792, 1.955e-3
-1.791, 1.921e-3
-1.790, 1.884e-3
-1.789, 1.850e-3
-1.788, 1.816e-3
-1.787, 1.779e-3
-1.786, 1.745e-3
-1.785, 1.714e-3
-1.784, 1.684e-3
-1.783, 1.653e-3
-1.782, 1.622e-3
-1.781, 1.594e-3
-1.780, 1.560e-3
-1.779, 1.532e-3
-1.778, 1.502e-3
-1.777, 1.474e-3
-1.776, 1.443e-3
-1.775, 1.415e-3
-1.774, 1.388e-3
-1.773, 1.360e-3
-1.772, 1.332e-3
-1.771, 1.307e-3
-1.770, 1.280e-3
-1.769, 1.255e-3
-1.768, 1.230e-3
-1.767, 1.209e-3
-1.766, 1.184e-3
-1.765, 1.162e-3
-1.764, 1.138e-3
-1.763, 1.113e-3
-1.762, 1.092e-3
-1.761, 1.067e-3
-1.760, 1.045e-3
-1.759, 1.024e-3
-1.758, 1.002e-3
-1.757, 9.837e-4
-1.756, 9.621e-4
-1.755, 9.436e-4
-1.754, 9.220e-4
-1.753, 9.035e-4
-1.752, 8.850e-4
-1.751, 8.665e-4
-1.750, 8.480e-4
-1.749, 8.295e-4
-1.748, 8.110e-4
-1.747, 7.925e-4
-1.746, 7.740e-4
-1.745, 7.586e-4
-1.744, 7.432e-4
-1.743, 7.247e-4
-1.742, 7.093e-4
-1.741, 6.969e-4
-1.740, 6.815e-4
-1.739, 6.661e-4
-1.738, 6.507e-4
-1.737, 6.353e-4
-1.736, 6.229e-4
-1.735, 6.075e-4
-1.734, 5.952e-4
-1.733, 5.798e-4
-1.732, 5.674e-4
-1.731, 5.551e-4
-1.730, 5.428e-4
-1.729, 5.305e-4
-1.728, 5.212e-4
-1.727, 5.089e-4
-1.726, 4.965e-4
-1.725, 4.842e-4
-1.724, 4.750e-4
-1.723, 4.626e-4
-1.722, 4.534e-4
-1.721, 4.410e-4
-1.720, 4.318e-4
-1.719, 4.195e-4
-1.718, 4.133e-4
-1.717, 4.040e-4
-1.716, 3.948e-4
-1.715, 3.855e-4
-1.714, 3.763e-4
-1.713, 3.670e-4
-1.712, 3.578e-4
-1.711, 3.485e-4
-1.710, 3.424e-4
-1.709, 3.331e-4
-1.708, 3.239e-4
-1.707, 3.146e-4
-1.706, 3.085e-4
-1.705, 3.023e-4
-1.704, 2.931e-4
-1.703, 2.869e-4
-1.702, 2.807e-4
-1.701, 2.746e-4
-1.700, 2.684e-4
-1.699, 2.622e-4
-1.698, 2.530e-4
-1.697, 2.499e-4
-1.696, 2.437e-4
-1.695, 2.376e-4
-1.694, 2.314e-4
-1.693, 2.252e-4
-1.692, 2.191e-4
-1.691, 2.160e-4
-1.690, 2.098e-4
-1.689, 2.067e-4
-1.688, 2.006e-4
-1.687, 1.944e-4
-1.686, 1.913e-4
-1.685, 1.851e-4
-1.684, 1.790e-4
-1.683, 1.759e-4
-1.682, 1.697e-4
-1.681, 1.666e-4
-1.680, 1.605e-4
-1.679, 1.605e-4
-1.678, 1.543e-4
-1.677, 1.512e-4
-1.676, 1.481e-4
-1.675, 1.451e-4
-1.674, 1.420e-4
-1.673, 1.389e-4
-1.672, 1.327e-4
-1.671, 1.296e-4
-1.670, 1.266e-4
-1.669, 1.266e-4
-1.668, 1.204e-4
-1.667, 1.173e-4
-1.666, 1.142e-4
-1.665, 1.111e-4
-1.664, 1.081e-4
-1.663, 1.050e-4
-1.662, 1.050e-4
-1.661, 1.019e-4
-1.660, 9.882e-5
-1.659, 9.573e-5
-1.658, 9.265e-5
-1.657, 8.957e-5
-1.656, 8.957e-5
-1.655, 8.648e-5
-1.654, 8.340e-5
-1.653, 8.340e-5
-1.652, 8.032e-5
-1.651, 7.723e-5
-1.650, 7.415e-5
-1.649, 7.415e-5
-1.648, 7.415e-5
-1.647, 7.107e-5
-1.646, 6.798e-5
-1.645, 6.490e-5
-1.644, 6.490e-5
-1.643, 6.182e-5
-1.642, 6.182e-5
-1.641, 5.873e-5
-1.640, 5.565e-5
-1.639, 5.565e-5
-1.638, 5.565e-5
-1.637, 5.257e-5
-1.636, 5.257e-5
-1.635, 4.949e-5
-1.634, 4.949e-5
-1.633, 4.640e-5
-1.632, 4.640e-5
-1.631, 4.332e-5
-1.630, 4.640e-5
-1.629, 4.024e-5
-1.628, 4.024e-5
-1.627, 4.024e-5
-1.626, 4.024e-5
-1.625, 3.715e-5
-1.624, 3.407e-5
-1.623, 3.407e-5
-1.622, 3.407e-5
-1.621, 3.407e-5
-1.620, 3.407e-5
-1.619, 3.099e-5
-1.618, 3.099e-5
-1.617, 2.790e-5
-1.616, 2.790e-5
-1.615, 2.790e-5
-1.614, 2.790e-5
-1.613, 2.482e-5
-1.612, 2.482e-5
-1.611, 2.482e-5
-1.610, 2.174e-5
-1.609, 2.174e-5
-1.608, 2.174e-5
-1.607, 2.174e-5
-1.606, 2.174e-5
-1.605, 1.865e-5
-1.604, 1.865e-5
-1.603, 1.865e-5
-1.602, 1.865e-5
-1.601, 1.865e-5
-1.600, 1.557e-5
-1.599, 1.557e-5
-1.598, 1.557e-5
-1.597, 1.557e-5
-1.596, 1.557e-5
-1.595, 1.557e-5
-1.594, 1.249e-5
-1.593, 1.249e-5
-1.592, 1.249e-5
-1.591, 1.249e-5
-1.590, 1.249e-5
-1.589, 1.249e-5
-1.588, 9.405e-6
-1.587, 9.405e-6
-1.586, 9.405e-6
-1.585, 9.405e-6
-1.584, 9.405e-6
-1.583, 9.405e-6
-1.582, 9.405e-6
-1.581, 9.405e-6
-1.580, 6.322e-6
-1.579, 6.322e-6
-1.578, 6.322e-6
-1.577, 6.322e-6
-1.576, 6.322e-6
-1.575, 3.239e-6
-1.574, 6.322e-6
-1.573, 6.322e-6
-1.572, 3.239e-6
-1.571, 3.239e-6
-1.570, 3.239e-6
-1.569, 3.239e-6
-1.568, 3.239e-6
-1.567, 3.239e-6
-1.566, 3.239e-6
-1.565, 3.239e-6
-1.564, 3.239e-6
-1.563, 3.239e-6
-1.562, 3.239e-6
-1.561, 1.559e-7
-1.560, 1.559e-7
-1.559, 3.239e-6
-1.558, 1.559e-7
-1.557, 1.559e-7
-1.556, 1.559e-7
-1.555, 1.559e-7
-1.554, 1.559e-7
-1.553, 1.559e-7
-1.552, 1.559e-7
-1.551, 1.559e-7
-1.550, 1.559e-7
-1.549, 1.559e-7
-1.548, 1.559e-7
-1.547, 1.559e-7
-1.546, 1.559e-7
-1.545, -2.927e-6
-1.544, 1.559e-7
-1.543, -2.927e-6
-1.542, 1.559e-7
-1.541, -2.927e-6
-1.540, -2.927e-6
-1.539, -2.927e-6
-1.538, -2.927e-6
-1.537, -2.927e-6
-1.536, -2.927e-6
-1.535, -2.927e-6
-1.534, -2.927e-6
-1.533, -2.927e-6
-1.532, -2.927e-6
-1.531, -2.927e-6
-1.530, -2.927e-6
-1.529, -2.927e-6
-1.528, -2.927e-6
-1.527, -6.010e-6
-1.526, -2.927e-6
-1.525, -2.927e-6
-1.524, -6.010e-6
-1.523, -2.927e-6
-1.522, -6.010e-6
-1.521, -2.927e-6
-1.520, -6.010e-6
-1.519, -2.927e-6
-1.518, -6.010e-6
-1.517, -6.010e-6
-1.516, -6.010e-6
-1.515, -2.927e-6
-1.514, -6.010e-6
-1.513, -6.010e-6
-1.512, -6.010e-6
-1.511, -6.010e-6
-1.510, -6.010e-6
-1.509, -6.010e-6
-1.508, -6.010e-6
-1.507, -6.010e-6
-1.506, -6.010e-6
-1.505, -6.010e-6
-1.504, -6.010e-6
-1.503, -6.010e-6
-1.502, -6.010e-6
-1.501, -6.010e-6
-1.500, -6.010e-6
-1.499, -6.010e-6
-1.498, -6.010e-6
-1.497, -6.010e-6
-1.496, -6.010e-6
-1.495, -6.010e-6
-1.494, -6.010e-6
-1.493, -6.010e-6
-1.492, -6.010e-6
-1.491, -6.010e-6
-1.490, -6.010e-6
-1.489, -6.010e-6
-1.488, -9.093e-6
-1.487, -9.093e-6
-1.486, -9.093e-6
-1.485, -9.093e-6
-1.484, -6.010e-6
-1.483, -6.010e-6
-1.482, -6.010e-6
-1.481, -6.010e-6
-1.480, -6.010e-6
-1.479, -6.010e-6
-1.478, -6.010e-6
-1.477, -6.010e-6
-1.476, -6.010e-6
-1.475, -9.093e-6
-1.474, -6.010e-6
-1.473, -9.093e-6
-1.472, -6.010e-6
-1.471, -6.010e-6
-1.470, -9.093e-6
-1.469, -6.010e-6
-1.468, -6.010e-6
-1.467, -9.093e-6
-1.466, -9.093e-6
-1.465, -9.093e-6
-1.464, -9.093e-6
-1.463, -9.093e-6
-1.462, -6.010e-6
-1.461, -9.093e-6
-1.460, -9.093e-6
-1.459, -9.093e-6
-1.458, -6.010e-6
-1.457, -9.093e-6
-1.456, -9.093e-6
-1.455, -9.093e-6
-1.454, -6.010e-6
-1.453, -9.093e-6
-1.452, -9.093e-6
-1.451, -9.093e-6
-1.450, -9.093e-6
-1.449, -9.093e-6
-1.448, -6.010e-6
-1.447, -9.093e-6
-1.446, -9.093e-6
-1.445, -9.093e-6
-1.444, -9.093e-6
-1.443, -9.093e-6
-1.442, -9.093e-6
-1.441, -9.093e-6
-1.440, -9.093e-6
-1.439, -9.093e-6
-1.438, -9.093e-6
-1.437, -9.093e-6
-1.436, -9.093e-6
-1.435, -9.093e-6
-1.434, -9.093e-6
-1.433, -9.093e-6
-1.432, -9.093e-6
-1.431, -9.093e-6
-1.430, -9.093e-6
-1.429, -9.093e-6
-1.428, -9.093e-6
-1.427, -9.093e-6
-1.426, -9.093e-6
-1.425, -9.093e-6
-1.424, -9.093e-6
-1.423, -9.093e-6
-1.422, -9.093e-6
-1.421, -9.093e-6
-1.420, -9.093e-6
-1.419, -9.093e-6
-1.418, -9.093e-6
-1.417, -9.093e-6
-1.416, -9.093e-6
-1.415, -9.093e-6
-1.414, -9.093e-6
-1.413, -9.093e-6
-1.412, -9.093e-6
-1.411, -9.093e-6
-1.410, -9.093e-6
-1.409, -9.093e-6
-1.408, -9.093e-6
-1.407, -9.093e-6
-1.406, -9.093e-6
-1.405, -9.093e-6
-1.404, -9.093e-6
-1.403, -9.093e-6
-1.402, -9.093e-6
-1.401, -9.093e-6
-1.400, -9.093e-6
-1.399, -9.093e-6
-1.398, -9.093e-6
-1.397, -9.093e-6
-1.396, -9.093e-6
-1.395, -9.093e-6
-1.394, -9.093e-6
-1.393, -9.093e-6
-1.392, -9.093e-6
-1.391, -9.093e-6
-1.390, -9.093e-6
-1.389, -9.093e-6
-1.388, -9.093e-6
-1.387, -9.093e-6
-1.386, -9.093e-6
-1.385, -9.093e-6
-1.384, -9.093e-6
-1.383, -9.093e-6
-1.382, -9.093e-6
-1.381, -9.093e-6
-1.380, -9.093e-6
-1.379, -9.093e-6
-1.378, -9.093e-6
-1.377, -9.093e-6
-1.376, -9.093e-6
-1.375, -9.093e-6
-1.374, -9.093e-6
-1.373, -1.218e-5
-1.372, -9.093e-6
-1.371, -9.093e-6
-1.370, -9.093e-6
-1.369, -9.093e-6
-1.368, -9.093e-6
-1.367, -9.093e-6
-1.366, -9.093e-6
-1.365, -9.093e-6
-1.364, -9.093e-6
-1.363, -9.093e-6
-1.362, -9.093e-6
-1.361, -9.093e-6
-1.360, -9.093e-6
-1.359, -9.093e-6
-1.358, -9.093e-6
-1.357, -1.218e-5
-1.356, -9.093e-6
-1.355, -9.093e-6
-1.354, -9.093e-6
-1.353, -9.093e-6
-1.352, -9.093e-6
-1.351, -9.093e-6
-1.350, -9.093e-6
-1.349, -9.093e-6
-1.348, -9.093e-6
-1.347, -9.093e-6
-1.346, -9.093e-6
-1.345, -9.093e-6
-1.344, -9.093e-6
-1.343, -9.093e-6
-1.342, -9.093e-6
-1.341, -9.093e-6
-1.340, -9.093e-6
-1.339, -9.093e-6
-1.338, -9.093e-6
-1.337, -9.093e-6
-1.336, -9.093e-6
-1.335, -9.093e-6
-1.334, -1.218e-5
-1.333, -9.093e-6
-1.332, -9.093e-6
-1.331, -9.093e-6
-1.330, -1.218e-5
-1.329, -9.093e-6
-1.328, -9.093e-6
-1.327, -9.093e-6
-1.326, -9.093e-6
-1.325, -9.093e-6
-1.324, -9.093e-6
-1.323, -9.093e-6
-1.322, -9.093e-6
-1.321, -9.093e-6
-1.320, -1.218e-5
-1.319, -9.093e-6
-1.318, -9.093e-6
-1.317, -9.093e-6
-1.316, -9.093e-6
-1.315, -9.093e-6
-1.314, -1.218e-5
-1.313, -9.093e-6
-1.312, -9.093e-6
-1.311, -9.093e-6
-1.310, -1.218e-5
-1.309, -9.093e-6
-1.308, -9.093e-6
-1.307, -1.218e-5
-1.306, -9.093e-6
-1.305, -9.093e-6
-1.304, -9.093e-6
-1.303, -9.093e-6
-1.302, -9.093e-6
-1.301, -9.093e-6
-1.300, -9.093e-6
-1.299, -9.093e-6
-1.298, -1.218e-5
-1.297, -1.218e-5
-1.296, -9.093e-6
-1.295, -9.093e-6
-1.294, -9.093e-6
-1.293, -9.093e-6
-1.292, -9.093e-6
-1.291, -9.093e-6
-1.290, -9.093e-6
-1.289, -9.093e-6
-1.288, -9.093e-6
-1.287, -9.093e-6
-1.286, -9.093e-6
-1.285, -1.218e-5
-1.284, -9.093e-6
-1.283, -1.218e-5
-1.282, -9.093e-6
-1.281, -1.218e-5
-1.280, -1.218e-5
-1.279, -9.093e-6
-1.278, -9.093e-6
-1.277, -9.093e-6
-1.276, -9.093e-6
-1.275, -9.093e-6
-1.274, -9.093e-6
-1.273, -1.218e-5
-1.272, -1.218e-5
-1.271, -1.218e-5
-1.270, -9.093e-6
-1.269, -9.093e-6
-1.268, -1.218e-5
-1.267, -1.218e-5
-1.266, -1.218e-5
-1.265, -9.093e-6
-1.264, -9.093e-6
-1.263, -9.093e-6
-1.262, -1.218e-5
-1.261, -9.093e-6
-1.260, -1.218e-5
-1.259, -9.093e-6
-1.258, -1.218e-5
-1.257, -9.093e-6
-1.256, -1.218e-5
-1.255, -9.093e-6
-1.254, -1.218e-5
-1.253, -1.218e-5
-1.252, -9.093e-6
-1.251, -1.218e-5
-1.250, -1.218e-5
-1.249, -9.093e-6
-1.248, -1.218e-5
-1.247, -9.093e-6
-1.246, -1.218e-5
-1.245, -1.218e-5
-1.244, -1.218e-5
-1.243, -9.093e-6
-1.242, -1.218e-5
-1.241, -9.093e-6
-1.240, -1.218e-5
-1.239, -9.093e-6
-1.238, -9.093e-6
-1.237, -1.218e-5
-1.236, -9.093e-6
-1.235, -9.093e-6
-1.234, -1.218e-5
-1.233, -1.218e-5
-1.232, -1.218e-5
-1.231, -9.093e-6
-1.230, -9.093e-6
-1.229, -1.218e-5
-1.228, -1.218e-5
-1.227, -1.218e-5
-1.226, -9.093e-6
-1.225, -1.218e-5
-1.224, -1.218e-5
-1.223, -1.218e-5
-1.222, -9.093e-6
-1.221, -1.218e-5
-1.220, -1.218e-5
-1.219, -1.218e-5
-1.218, -1.218e-5
-1.217, -1.218e-5
-1.216, -1.218e-5
-1.215, -1.218e-5
-1.214, -1.218e-5
-1.213, -1.218e-5
-1.212, -1.218e-5
-1.211, -1.218e-5
-1.210, -1.218e-5
-1.209, -1.218e-5
-1.208, -9.093e-6
-1.207, -1.218e-5
-1.206, -1.218e-5
-1.205, -1.218e-5
-1.204, -1.218e-5
-1.203, -1.218e-5
-1.202, -1.218e-5
-1.201, -1.218e-5
-1.200, -1.218e-5
-1.199, -1.218e-5
-1.198, -1.218e-5
-1.197, -1.218e-5
-1.196, -1.218e-5
-1.195, -9.093e-6
-1.194, -1.218e-5
-1.193, -1.218e-5
-1.192, -1.218e-5
-1.191, -1.218e-5
-1.190, -1.218e-5
-1.189, -1.218e-5
-1.188, -1.218e-5
-1.187, -1.218e-5
-1.186, -1.218e-5
-1.185, -1.218e-5
-1.184, -1.218e-5
-1.183, -1.218e-5
-1.182, -1.218e-5
-1.181, -1.218e-5
-1.180, -1.218e-5
-1.179, -1.218e-5
-1.178, -1.218e-5
-1.177, -1.218e-5
-1.176, -1.218e-5
-1.175, -1.218e-5
-1.174, -1.218e-5
-1.173, -1.218e-5
-1.172, -1.218e-5
-1.171, -1.218e-5
-1.170, -1.218e-5
-1.169, -1.218e-5
-1.168, -1.218e-5
-1.167, -1.218e-5
-1.166, -1.218e-5
-1.165, -1.218e-5
-1.164, -1.218e-5
-1.163, -1.218e-5
-1.162, -1.218e-5
-1.161, -1.218e-5
-1.160, -1.218e-5
-1.159, -1.218e-5
-1.158, -1.218e-5
-1.157, -1.218e-5
-1.156, -1.218e-5
-1.155, -1.218e-5
-1.154, -1.218e-5
-1.153, -1.218e-5
-1.152, -1.218e-5
-1.151, -1.218e-5
-1.150, -1.218e-5
-1.149, -1.218e-5
-1.148, -1.218e-5
-1.147, -1.218e-5
-1.146, -1.218e-5
-1.145, -1.218e-5
-1.144, -1.218e-5
-1.143, -1.218e-5
-1.142, -1.218e-5
-1.141, -1.218e-5
-1.140, -1.218e-5
-1.139, -1.218e-5
-1.138, -1.218e-5
-1.137, -1.218e-5
-1.136, -1.218e-5
-1.135, -1.218e-5
-1.134, -1.218e-5
-1.133, -1.218e-5
-1.132, -1.218e-5
-1.131, -1.218e-5
-1.130, -1.218e-5
-1.129, -1.218e-5
-1.128, -1.218e-5
-1.127, -1.526e-5
-1.126, -1.218e-5
-1.125, -1.218e-5
-1.124, -1.218e-5
-1.123, -1.218e-5
-1.122, -1.218e-5
-1.121, -1.218e-5
-1.120, -1.218e-5
-1.119, -1.218e-5
-1.118, -1.218e-5
-1.117, -1.526e-5
-1.116, -1.218e-5
-1.115, -1.218e-5
-1.114, -1.218e-5
-1.113, -1.218e-5
-1.112, -1.218e-5
-1.111, -1.218e-5
-1.110, -1.218e-5
-1.109, -1.218e-5
-1.108, -1.218e-5
-1.107, -1.218e-5
-1.106, -1.218e-5
-1.105, -1.526e-5
-1.104, -1.218e-5
-1.103, -1.218e-5
-1.102, -1.218e-5
-1.101, -1.526e-5
-1.100, -1.526e-5
-1.099, -1.218e-5
-1.098, -1.218e-5
-1.097, -1.526e-5
-1.096, -1.526e-5
-1.095, -1.218e-5
-1.094, -1.218e-5
-1.093, -1.218e-5
-1.092, -1.526e-5
-1.091, -1.526e-5
-1.090, -1.218e-5
-1.089, -1.218e-5
-1.088, -1.526e-5
-1.087, -1.218e-5
-1.086, -1.526e-5
-1.085, -1.218e-5
-1.084, -1.526e-5
-1.083, -1.526e-5
-1.082, -1.526e-5
-1.081, -1.218e-5
-1.080, -1.526e-5
-1.079, -1.218e-5
-1.078, -1.526e-5
-1.077, -1.218e-5
-1.076, -1.526e-5
-1.075, -1.218e-5
-1.074, -1.526e-5
-1.073, -1.526e-5
-1.072, -1.526e-5
-1.071, -1.526e-5
-1.070, -1.526e-5
-1.069, -1.526e-5
-1.068, -1.526e-5
-1.067, -1.526e-5
-1.066, -1.526e-5
-1.065, -1.526e-5
-1.064, -1.526e-5
-1.063, -1.526e-5
-1.062, -1.526e-5
-1.061, -1.526e-5
-1.060, -1.526e-5
-1.059, -1.526e-5
-1.058, -1.526e-5
-1.057, -1.526e-5
-1.056, -1.526e-5
-1.055, -1.526e-5
-1.054, -1.526e-5
-1.053, -1.526e-5
-1.052, -1.526e-5
-1.051, -1.526e-5
-1.050, -1.526e-5
-1.049, -1.526e-5
-1.048, -1.526e-5
-1.047, -1.526e-5
-1.046, -1.526e-5
-1.045, -1.526e-5
-1.044, -1.526e-5
-1.043, -1.526e-5
-1.042, -1.526e-5
-1.041, -1.526e-5
-1.040, -1.526e-5
-1.039, -1.526e-5
-1.038, -1.526e-5
-1.037, -1.526e-5
-1.036, -1.526e-5
-1.035, -1.526e-5
-1.034, -1.526e-5
-1.033, -1.834e-5
-1.032, -1.526e-5
-1.031, -1.526e-5
-1.030, -1.526e-5
-1.029, -1.834e-5
-1.028, -1.526e-5
-1.027, -1.834e-5
-1.026, -1.526e-5
-1.025, -1.834e-5
-1.024, -1.526e-5
-1.023, -1.526e-5
-1.022, -1.526e-5
-1.021, -1.834e-5
-1.020, -1.526e-5
-1.019, -1.834e-5
-1.018, -1.526e-5
-1.017, -1.834e-5
-1.016, -1.834e-5
-1.015, -1.834e-5
-1.014, -1.526e-5
-1.013, -1.834e-5
-1.012, -1.834e-5
-1.011, -1.834e-5
-1.010, -1.834e-5
-1.009, -1.834e-5
-1.008, -1.834e-5
-1.007, -1.834e-5
-1.006, -1.834e-5
-1.005, -1.834e-5
-1.004, -1.834e-5
-1.003, -1.834e-5
-1.002, -1.834e-5
-1.001, -1.834e-5
