July 16, 2024   08:43:59
Cyclic Voltammetry
File: c:/users/guazh/data/20240709_batch67/2024-07-10-exp60\exp60-2024-07-16t08_39_05-h2koh\exp60_cv_50mvs_efin_-1400mv.bin
Data Source:  Experiment
Instrument Model:  CHI760E
Header: CV ran at 50 mVs
Note: 

Init E (V) = -1
High E (V) = -1
Low E (V) = -1.4
Final E (V) = -1
Init P/N = N
Scan Rate (V/s) = 0.05
Segment = 7
Sample Interval (V) = 0.001
Quiet Time (sec) = 60
Sensitivity (A/V) = 0.001
Comp R (ohm) = 1.8

Results:

Channel 1:
Segment 1:

Segment 2:

Segment 3:

Segment 4:

Segment 5:

Segment 6:

Segment 7:

Potential/V, Current/A

-1.000, 2.176e-6
-1.001, 2.897e-6
-1.002, 3.281e-6
-1.003, 3.685e-6
-1.004, 3.977e-6
-1.005, 4.300e-6
-1.006, 4.506e-6
-1.007, 4.649e-6
-1.008, 4.792e-6
-1.009, 5.079e-6
-1.010, 5.295e-6
-1.011, 5.406e-6
-1.012, 5.542e-6
-1.013, 5.659e-6
-1.014, 5.832e-6
-1.015, 6.044e-6
-1.016, 6.142e-6
-1.017, 6.234e-6
-1.018, 6.356e-6
-1.019, 6.536e-6
-1.020, 6.678e-6
-1.021, 6.818e-6
-1.022, 6.910e-6
-1.023, 6.971e-6
-1.024, 7.216e-6
-1.025, 7.352e-6
-1.026, 7.465e-6
-1.027, 7.525e-6
-1.028, 7.658e-6
-1.029, 7.851e-6
-1.030, 8.027e-6
-1.031, 8.122e-6
-1.032, 8.223e-6
-1.033, 8.281e-6
-1.034, 8.491e-6
-1.035, 8.653e-6
-1.036, 8.864e-6
-1.037, 8.873e-6
-1.038, 9.064e-6
-1.039, 9.187e-6
-1.040, 9.409e-6
-1.041, 9.556e-6
-1.042, 9.643e-6
-1.043, 9.769e-6
-1.044, 9.995e-6
-1.045, 1.017e-5
-1.046, 1.035e-5
-1.047, 1.048e-5
-1.048, 1.058e-5
-1.049, 1.081e-5
-1.050, 1.106e-5
-1.051, 1.123e-5
-1.052, 1.133e-5
-1.053, 1.148e-5
-1.054, 1.172e-5
-1.055, 1.196e-5
-1.056, 1.212e-5
-1.057, 1.228e-5
-1.058, 1.242e-5
-1.059, 1.272e-5
-1.060, 1.293e-5
-1.061, 1.310e-5
-1.062, 1.329e-5
-1.063, 1.349e-5
-1.064, 1.373e-5
-1.065, 1.404e-5
-1.066, 1.421e-5
-1.067, 1.436e-5
-1.068, 1.452e-5
-1.069, 1.486e-5
-1.070, 1.510e-5
-1.071, 1.534e-5
-1.072, 1.543e-5
-1.073, 1.567e-5
-1.074, 1.597e-5
-1.075, 1.624e-5
-1.076, 1.648e-5
-1.077, 1.664e-5
-1.078, 1.685e-5
-1.079, 1.718e-5
-1.080, 1.745e-5
-1.081, 1.763e-5
-1.082, 1.784e-5
-1.083, 1.802e-5
-1.084, 1.835e-5
-1.085, 1.861e-5
-1.086, 1.889e-5
-1.087, 1.901e-5
-1.088, 1.922e-5
-1.089, 1.957e-5
-1.090, 1.989e-5
-1.091, 2.007e-5
-1.092, 2.026e-5
-1.093, 2.045e-5
-1.094, 2.077e-5
-1.095, 2.109e-5
-1.096, 2.130e-5
-1.097, 2.147e-5
-1.098, 2.170e-5
-1.099, 2.204e-5
-1.100, 2.229e-5
-1.101, 2.255e-5
-1.102, 2.269e-5
-1.103, 2.292e-5
-1.104, 2.325e-5
-1.105, 2.355e-5
-1.106, 2.372e-5
-1.107, 2.392e-5
-1.108, 2.407e-5
-1.109, 2.442e-5
-1.110, 2.471e-5
-1.111, 2.491e-5
-1.112, 2.503e-5
-1.113, 2.525e-5
-1.114, 2.552e-5
-1.115, 2.579e-5
-1.116, 2.595e-5
-1.117, 2.605e-5
-1.118, 2.624e-5
-1.119, 2.654e-5
-1.120, 2.675e-5
-1.121, 2.690e-5
-1.122, 2.703e-5
-1.123, 2.717e-5
-1.124, 2.748e-5
-1.125, 2.770e-5
-1.126, 2.785e-5
-1.127, 2.794e-5
-1.128, 2.810e-5
-1.129, 2.832e-5
-1.130, 2.862e-5
-1.131, 2.865e-5
-1.132, 2.877e-5
-1.133, 2.891e-5
-1.134, 2.917e-5
-1.135, 2.938e-5
-1.136, 2.951e-5
-1.137, 2.957e-5
-1.138, 2.968e-5
-1.139, 2.993e-5
-1.140, 3.017e-5
-1.141, 3.025e-5
-1.142, 3.035e-5
-1.143, 3.047e-5
-1.144, 3.072e-5
-1.145, 3.097e-5
-1.146, 3.104e-5
-1.147, 3.116e-5
-1.148, 3.131e-5
-1.149, 3.157e-5
-1.150, 3.179e-5
-1.151, 3.191e-5
-1.152, 3.200e-5
-1.153, 3.217e-5
-1.154, 3.249e-5
-1.155, 3.272e-5
-1.156, 3.283e-5
-1.157, 3.296e-5
-1.158, 3.310e-5
-1.159, 3.343e-5
-1.160, 3.373e-5
-1.161, 3.384e-5
-1.162, 3.397e-5
-1.163, 3.419e-5
-1.164, 3.452e-5
-1.165, 3.480e-5
-1.166, 3.502e-5
-1.167, 3.513e-5
-1.168, 3.538e-5
-1.169, 3.572e-5
-1.170, 3.607e-5
-1.171, 3.623e-5
-1.172, 3.645e-5
-1.173, 3.668e-5
-1.174, 3.713e-5
-1.175, 3.749e-5
-1.176, 3.767e-5
-1.177, 3.796e-5
-1.178, 3.827e-5
-1.179, 3.869e-5
-1.180, 3.908e-5
-1.181, 3.934e-5
-1.182, 3.957e-5
-1.183, 4.000e-5
-1.184, 4.042e-5
-1.185, 4.089e-5
-1.186, 4.119e-5
-1.187, 4.150e-5
-1.188, 4.187e-5
-1.189, 4.242e-5
-1.190, 4.286e-5
-1.191, 4.323e-5
-1.192, 4.354e-5
-1.193, 4.394e-5
-1.194, 4.452e-5
-1.195, 4.502e-5
-1.196, 4.541e-5
-1.197, 4.576e-5
-1.198, 4.629e-5
-1.199, 4.681e-5
-1.200, 4.736e-5
-1.201, 4.774e-5
-1.202, 4.815e-5
-1.203, 4.866e-5
-1.204, 4.931e-5
-1.205, 4.981e-5
-1.206, 5.033e-5
-1.207, 5.076e-5
-1.208, 5.128e-5
-1.209, 5.194e-5
-1.210, 5.256e-5
-1.211, 5.299e-5
-1.212, 5.346e-5
-1.213, 5.409e-5
-1.214, 5.474e-5
-1.215, 5.545e-5
-1.216, 5.589e-5
-1.217, 5.647e-5
-1.218, 5.704e-5
-1.219, 5.776e-5
-1.220, 5.843e-5
-1.221, 5.899e-5
-1.222, 5.949e-5
-1.223, 6.012e-5
-1.224, 6.086e-5
-1.225, 6.160e-5
-1.226, 6.222e-5
-1.227, 6.275e-5
-1.228, 6.350e-5
-1.229, 6.429e-5
-1.230, 6.501e-5
-1.231, 6.554e-5
-1.232, 6.618e-5
-1.233, 6.688e-5
-1.234, 6.767e-5
-1.235, 6.838e-5
-1.236, 6.906e-5
-1.237, 6.967e-5
-1.238, 7.042e-5
-1.239, 7.126e-5
-1.240, 7.205e-5
-1.241, 7.265e-5
-1.242, 7.331e-5
-1.243, 7.407e-5
-1.244, 7.489e-5
-1.245, 7.572e-5
-1.246, 7.635e-5
-1.247, 7.702e-5
-1.248, 7.767e-5
-1.249, 7.855e-5
-1.250, 7.930e-5
-1.251, 7.994e-5
-1.252, 8.060e-5
-1.253, 8.133e-5
-1.254, 8.216e-5
-1.255, 8.295e-5
-1.256, 8.360e-5
-1.257, 8.418e-5
-1.258, 8.494e-5
-1.259, 8.580e-5
-1.260, 8.654e-5
-1.261, 8.709e-5
-1.262, 8.780e-5
-1.263, 8.849e-5
-1.264, 8.933e-5
-1.265, 9.001e-5
-1.266, 9.074e-5
-1.267, 9.134e-5
-1.268, 9.202e-5
-1.269, 9.271e-5
-1.270, 9.341e-5
-1.271, 9.400e-5
-1.272, 9.452e-5
-1.273, 9.524e-5
-1.274, 9.599e-5
-1.275, 9.675e-5
-1.276, 9.725e-5
-1.277, 9.780e-5
-1.278, 9.836e-5
-1.279, 9.907e-5
-1.280, 9.969e-5
-1.281, 1.003e-4
-1.282, 1.007e-4
-1.283, 1.013e-4
-1.284, 1.019e-4
-1.285, 1.025e-4
-1.286, 1.030e-4
-1.287, 1.034e-4
-1.288, 1.040e-4
-1.289, 1.045e-4
-1.290, 1.052e-4
-1.291, 1.055e-4
-1.292, 1.060e-4
-1.293, 1.065e-4
-1.294, 1.071e-4
-1.295, 1.076e-4
-1.296, 1.080e-4
-1.297, 1.084e-4
-1.298, 1.089e-4
-1.299, 1.095e-4
-1.300, 1.100e-4
-1.301, 1.104e-4
-1.302, 1.107e-4
-1.303, 1.114e-4
-1.304, 1.120e-4
-1.305, 1.125e-4
-1.306, 1.130e-4
-1.307, 1.134e-4
-1.308, 1.139e-4
-1.309, 1.144e-4
-1.310, 1.150e-4
-1.311, 1.154e-4
-1.312, 1.158e-4
-1.313, 1.163e-4
-1.314, 1.169e-4
-1.315, 1.174e-4
-1.316, 1.179e-4
-1.317, 1.183e-4
-1.318, 1.188e-4
-1.319, 1.195e-4
-1.320, 1.201e-4
-1.321, 1.206e-4
-1.322, 1.210e-4
-1.323, 1.214e-4
-1.324, 1.221e-4
-1.325, 1.226e-4
-1.326, 1.230e-4
-1.327, 1.235e-4
-1.328, 1.240e-4
-1.329, 1.247e-4
-1.330, 1.251e-4
-1.331, 1.257e-4
-1.332, 1.260e-4
-1.333, 1.266e-4
-1.334, 1.272e-4
-1.335, 1.277e-4
-1.336, 1.281e-4
-1.337, 1.285e-4
-1.338, 1.290e-4
-1.339, 1.297e-4
-1.340, 1.305e-4
-1.341, 1.309e-4
-1.342, 1.313e-4
-1.343, 1.318e-4
-1.344, 1.324e-4
-1.345, 1.330e-4
-1.346, 1.335e-4
-1.347, 1.340e-4
-1.348, 1.346e-4
-1.349, 1.353e-4
-1.350, 1.359e-4
-1.351, 1.366e-4
-1.352, 1.370e-4
-1.353, 1.377e-4
-1.354, 1.384e-4
-1.355, 1.390e-4
-1.356, 1.396e-4
-1.357, 1.401e-4
-1.358, 1.408e-4
-1.359, 1.416e-4
-1.360, 1.422e-4
-1.361, 1.429e-4
-1.362, 1.434e-4
-1.363, 1.440e-4
-1.364, 1.448e-4
-1.365, 1.454e-4
-1.366, 1.459e-4
-1.367, 1.465e-4
-1.368, 1.472e-4
-1.369, 1.480e-4
-1.370, 1.486e-4
-1.371, 1.492e-4
-1.372, 1.497e-4
-1.373, 1.503e-4
-1.374, 1.511e-4
-1.375, 1.519e-4
-1.376, 1.525e-4
-1.377, 1.530e-4
-1.378, 1.537e-4
-1.379, 1.544e-4
-1.380, 1.551e-4
-1.381, 1.556e-4
-1.382, 1.562e-4
-1.383, 1.567e-4
-1.384, 1.576e-4
-1.385, 1.584e-4
-1.386, 1.590e-4
-1.387, 1.596e-4
-1.388, 1.603e-4
-1.389, 1.611e-4
-1.390, 1.618e-4
-1.391, 1.625e-4
-1.392, 1.633e-4
-1.393, 1.641e-4
-1.394, 1.651e-4
-1.395, 1.660e-4
-1.396, 1.667e-4
-1.397, 1.674e-4
-1.398, 1.684e-4
-1.399, 1.695e-4
-1.400, 1.665e-4
-1.399, 1.626e-4
-1.398, 1.600e-4
-1.397, 1.581e-4
-1.396, 1.565e-4
-1.395, 1.549e-4
-1.394, 1.532e-4
-1.393, 1.516e-4
-1.392, 1.503e-4
-1.391, 1.491e-4
-1.390, 1.479e-4
-1.389, 1.465e-4
-1.388, 1.452e-4
-1.387, 1.441e-4
-1.386, 1.430e-4
-1.385, 1.418e-4
-1.384, 1.406e-4
-1.383, 1.393e-4
-1.382, 1.381e-4
-1.381, 1.373e-4
-1.380, 1.361e-4
-1.379, 1.350e-4
-1.378, 1.338e-4
-1.377, 1.327e-4
-1.376, 1.317e-4
-1.375, 1.307e-4
-1.374, 1.296e-4
-1.373, 1.285e-4
-1.372, 1.275e-4
-1.371, 1.265e-4
-1.370, 1.255e-4
-1.369, 1.244e-4
-1.368, 1.232e-4
-1.367, 1.223e-4
-1.366, 1.215e-4
-1.365, 1.206e-4
-1.364, 1.194e-4
-1.363, 1.183e-4
-1.362, 1.174e-4
-1.361, 1.165e-4
-1.360, 1.157e-4
-1.359, 1.145e-4
-1.358, 1.134e-4
-1.357, 1.125e-4
-1.356, 1.115e-4
-1.355, 1.106e-4
-1.354, 1.097e-4
-1.353, 1.086e-4
-1.352, 1.077e-4
-1.351, 1.069e-4
-1.350, 1.060e-4
-1.349, 1.050e-4
-1.348, 1.040e-4
-1.347, 1.031e-4
-1.346, 1.024e-4
-1.345, 1.015e-4
-1.344, 1.007e-4
-1.343, 9.973e-5
-1.342, 9.889e-5
-1.341, 9.820e-5
-1.340, 9.734e-5
-1.339, 9.644e-5
-1.338, 9.548e-5
-1.337, 9.467e-5
-1.336, 9.400e-5
-1.335, 9.327e-5
-1.334, 9.234e-5
-1.333, 9.142e-5
-1.332, 9.067e-5
-1.331, 8.996e-5
-1.330, 8.928e-5
-1.329, 8.832e-5
-1.328, 8.740e-5
-1.327, 8.664e-5
-1.326, 8.604e-5
-1.325, 8.527e-5
-1.324, 8.436e-5
-1.323, 8.355e-5
-1.322, 8.294e-5
-1.321, 8.239e-5
-1.320, 8.167e-5
-1.319, 8.086e-5
-1.318, 8.010e-5
-1.317, 7.950e-5
-1.316, 7.894e-5
-1.315, 7.829e-5
-1.314, 7.752e-5
-1.313, 7.674e-5
-1.312, 7.620e-5
-1.311, 7.563e-5
-1.310, 7.507e-5
-1.309, 7.426e-5
-1.308, 7.350e-5
-1.307, 7.290e-5
-1.306, 7.239e-5
-1.305, 7.175e-5
-1.304, 7.106e-5
-1.303, 7.027e-5
-1.302, 6.969e-5
-1.301, 6.926e-5
-1.300, 6.865e-5
-1.299, 6.786e-5
-1.298, 6.723e-5
-1.297, 6.664e-5
-1.296, 6.628e-5
-1.295, 6.572e-5
-1.294, 6.502e-5
-1.293, 6.443e-5
-1.292, 6.393e-5
-1.291, 6.348e-5
-1.290, 6.292e-5
-1.289, 6.231e-5
-1.288, 6.157e-5
-1.287, 6.113e-5
-1.286, 6.068e-5
-1.285, 6.021e-5
-1.284, 5.954e-5
-1.283, 5.889e-5
-1.282, 5.844e-5
-1.281, 5.799e-5
-1.280, 5.749e-5
-1.279, 5.685e-5
-1.278, 5.625e-5
-1.277, 5.581e-5
-1.276, 5.537e-5
-1.275, 5.491e-5
-1.274, 5.427e-5
-1.273, 5.365e-5
-1.272, 5.319e-5
-1.271, 5.282e-5
-1.270, 5.234e-5
-1.269, 5.171e-5
-1.268, 5.118e-5
-1.267, 5.067e-5
-1.266, 5.033e-5
-1.265, 4.991e-5
-1.264, 4.935e-5
-1.263, 4.874e-5
-1.262, 4.827e-5
-1.261, 4.791e-5
-1.260, 4.746e-5
-1.259, 4.691e-5
-1.258, 4.631e-5
-1.257, 4.592e-5
-1.256, 4.558e-5
-1.255, 4.516e-5
-1.254, 4.456e-5
-1.253, 4.405e-5
-1.252, 4.363e-5
-1.251, 4.322e-5
-1.250, 4.283e-5
-1.249, 4.228e-5
-1.248, 4.176e-5
-1.247, 4.126e-5
-1.246, 4.097e-5
-1.245, 4.058e-5
-1.244, 4.001e-5
-1.243, 3.949e-5
-1.242, 3.903e-5
-1.241, 3.868e-5
-1.240, 3.827e-5
-1.239, 3.773e-5
-1.238, 3.719e-5
-1.237, 3.683e-5
-1.236, 3.655e-5
-1.235, 3.614e-5
-1.234, 3.561e-5
-1.233, 3.502e-5
-1.232, 3.470e-5
-1.231, 3.438e-5
-1.230, 3.403e-5
-1.229, 3.340e-5
-1.228, 3.293e-5
-1.227, 3.255e-5
-1.226, 3.226e-5
-1.225, 3.182e-5
-1.224, 3.130e-5
-1.223, 3.078e-5
-1.222, 3.039e-5
-1.221, 3.013e-5
-1.220, 2.972e-5
-1.219, 2.920e-5
-1.218, 2.875e-5
-1.217, 2.831e-5
-1.216, 2.810e-5
-1.215, 2.767e-5
-1.214, 2.714e-5
-1.213, 2.665e-5
-1.212, 2.630e-5
-1.211, 2.599e-5
-1.210, 2.563e-5
-1.209, 2.509e-5
-1.208, 2.463e-5
-1.207, 2.432e-5
-1.206, 2.401e-5
-1.205, 2.368e-5
-1.204, 2.310e-5
-1.203, 2.260e-5
-1.202, 2.231e-5
-1.201, 2.197e-5
-1.200, 2.167e-5
-1.199, 2.111e-5
-1.198, 2.062e-5
-1.197, 2.027e-5
-1.196, 1.999e-5
-1.195, 1.963e-5
-1.194, 1.911e-5
-1.193, 1.865e-5
-1.192, 1.830e-5
-1.191, 1.807e-5
-1.190, 1.766e-5
-1.189, 1.717e-5
-1.188, 1.672e-5
-1.187, 1.634e-5
-1.186, 1.612e-5
-1.185, 1.571e-5
-1.184, 1.525e-5
-1.183, 1.475e-5
-1.182, 1.446e-5
-1.181, 1.419e-5
-1.180, 1.383e-5
-1.179, 1.334e-5
-1.178, 1.283e-5
-1.177, 1.253e-5
-1.176, 1.227e-5
-1.175, 1.192e-5
-1.174, 1.142e-5
-1.173, 1.098e-5
-1.172, 1.065e-5
-1.171, 1.036e-5
-1.170, 9.996e-6
-1.169, 9.517e-6
-1.168, 9.087e-6
-1.167, 8.782e-6
-1.166, 8.549e-6
-1.165, 8.179e-6
-1.164, 7.669e-6
-1.163, 7.235e-6
-1.162, 6.953e-6
-1.161, 6.729e-6
-1.160, 6.374e-6
-1.159, 5.864e-6
-1.158, 5.329e-6
-1.157, 5.042e-6
-1.156, 4.791e-6
-1.155, 4.459e-6
-1.154, 3.975e-6
-1.153, 3.481e-6
-1.152, 3.199e-6
-1.151, 2.919e-6
-1.150, 2.570e-6
-1.149, 2.077e-6
-1.148, 1.578e-6
-1.147, 1.271e-6
-1.146, 1.004e-6
-1.145, 6.559e-7
-1.144, 1.586e-7
-1.143, -2.873e-7
-1.142, -6.474e-7
-1.141, -8.664e-7
-1.140, -1.218e-6
-1.139, -1.751e-6
-1.138, -2.191e-6
-1.137, -2.563e-6
-1.136, -2.745e-6
-1.135, -3.144e-6
-1.134, -3.638e-6
-1.133, -4.112e-6
-1.132, -4.397e-6
-1.131, -4.646e-6
-1.130, -5.010e-6
-1.129, -5.519e-6
-1.128, -6.005e-6
-1.127, -6.288e-6
-1.126, -6.598e-6
-1.125, -6.921e-6
-1.124, -7.413e-6
-1.123, -7.879e-6
-1.122, -8.204e-6
-1.121, -8.453e-6
-1.120, -8.812e-6
-1.119, -9.321e-6
-1.118, -9.775e-6
-1.117, -1.010e-5
-1.116, -1.034e-5
-1.115, -1.072e-5
-1.114, -1.121e-5
-1.113, -1.166e-5
-1.112, -1.198e-5
-1.111, -1.222e-5
-1.110, -1.260e-5
-1.109, -1.308e-5
-1.108, -1.358e-5
-1.107, -1.386e-5
-1.106, -1.416e-5
-1.105, -1.450e-5
-1.104, -1.495e-5
-1.103, -1.546e-5
-1.102, -1.574e-5
-1.101, -1.603e-5
-1.100, -1.640e-5
-1.099, -1.686e-5
-1.098, -1.730e-5
-1.097, -1.763e-5
-1.096, -1.790e-5
-1.095, -1.822e-5
-1.094, -1.873e-5
-1.093, -1.918e-5
-1.092, -1.952e-5
-1.091, -1.976e-5
-1.090, -2.017e-5
-1.089, -2.064e-5
-1.088, -2.112e-5
-1.087, -2.142e-5
-1.086, -2.167e-5
-1.085, -2.206e-5
-1.084, -2.253e-5
-1.083, -2.302e-5
-1.082, -2.331e-5
-1.081, -2.364e-5
-1.080, -2.398e-5
-1.079, -2.444e-5
-1.078, -2.495e-5
-1.077, -2.521e-5
-1.076, -2.556e-5
-1.075, -2.589e-5
-1.074, -2.633e-5
-1.073, -2.684e-5
-1.072, -2.712e-5
-1.071, -2.735e-5
-1.070, -2.774e-5
-1.069, -2.822e-5
-1.068, -2.861e-5
-1.067, -2.897e-5
-1.066, -2.917e-5
-1.065, -2.959e-5
-1.064, -2.996e-5
-1.063, -3.044e-5
-1.062, -3.072e-5
-1.061, -3.094e-5
-1.060, -3.129e-5
-1.059, -3.168e-5
-1.058, -3.210e-5
-1.057, -3.234e-5
-1.056, -3.263e-5
-1.055, -3.285e-5
-1.054, -3.327e-5
-1.053, -3.364e-5
-1.052, -3.384e-5
-1.051, -3.406e-5
-1.050, -3.431e-5
-1.049, -3.465e-5
-1.048, -3.492e-5
-1.047, -3.514e-5
-1.046, -3.523e-5
-1.045, -3.547e-5
-1.044, -3.574e-5
-1.043, -3.604e-5
-1.042, -3.614e-5
-1.041, -3.624e-5
-1.040, -3.644e-5
-1.039, -3.662e-5
-1.038, -3.686e-5
-1.037, -3.686e-5
-1.036, -3.688e-5
-1.035, -3.699e-5
-1.034, -3.717e-5
-1.033, -3.727e-5
-1.032, -3.725e-5
-1.031, -3.722e-5
-1.030, -3.722e-5
-1.029, -3.732e-5
-1.028, -3.736e-5
-1.027, -3.725e-5
-1.026, -3.719e-5
-1.025, -3.716e-5
-1.024, -3.723e-5
-1.023, -3.718e-5
-1.022, -3.704e-5
-1.021, -3.689e-5
-1.020, -3.681e-5
-1.019, -3.670e-5
-1.018, -3.674e-5
-1.017, -3.647e-5
-1.016, -3.623e-5
-1.015, -3.611e-5
-1.014, -3.601e-5
-1.013, -3.583e-5
-1.012, -3.558e-5
-1.011, -3.536e-5
-1.010, -3.507e-5
-1.009, -3.499e-5
-1.008, -3.482e-5
-1.007, -3.455e-5
-1.006, -3.425e-5
-1.005, -3.400e-5
-1.004, -3.392e-5
-1.003, -3.367e-5
-1.002, -3.348e-5
-1.001, -3.315e-5
-1.000, -3.112e-5
-1.001, -2.866e-5
-1.002, -2.682e-5
-1.003, -2.516e-5
-1.004, -2.364e-5
-1.005, -2.237e-5
-1.006, -2.125e-5
-1.007, -2.023e-5
-1.008, -1.915e-5
-1.009, -1.813e-5
-1.010, -1.723e-5
-1.011, -1.641e-5
-1.012, -1.569e-5
-1.013, -1.484e-5
-1.014, -1.409e-5
-1.015, -1.337e-5
-1.016, -1.279e-5
-1.017, -1.213e-5
-1.018, -1.147e-5
-1.019, -1.082e-5
-1.020, -1.023e-5
-1.021, -9.792e-6
-1.022, -9.268e-6
-1.023, -8.721e-6
-1.024, -8.121e-6
-1.025, -7.611e-6
-1.026, -7.217e-6
-1.027, -6.791e-6
-1.028, -6.304e-6
-1.029, -5.786e-6
-1.030, -5.394e-6
-1.031, -4.994e-6
-1.032, -4.676e-6
-1.033, -4.244e-6
-1.034, -3.756e-6
-1.035, -3.402e-6
-1.036, -3.045e-6
-1.037, -2.748e-6
-1.038, -2.291e-6
-1.039, -1.873e-6
-1.040, -1.543e-6
-1.041, -1.236e-6
-1.042, -9.463e-7
-1.043, -5.754e-7
-1.044, -1.906e-7
-1.045, 1.468e-7
-1.046, 3.609e-7
-1.047, 6.944e-7
-1.048, 1.032e-6
-1.049, 1.386e-6
-1.050, 1.732e-6
-1.051, 1.907e-6
-1.052, 2.220e-6
-1.053, 2.568e-6
-1.054, 2.939e-6
-1.055, 3.172e-6
-1.056, 3.436e-6
-1.057, 3.629e-6
-1.058, 3.953e-6
-1.059, 4.316e-6
-1.060, 4.555e-6
-1.061, 4.855e-6
-1.062, 5.043e-6
-1.063, 5.334e-6
-1.064, 5.690e-6
-1.065, 5.964e-6
-1.066, 6.142e-6
-1.067, 6.450e-6
-1.068, 6.702e-6
-1.069, 7.032e-6
-1.070, 7.302e-6
-1.071, 7.449e-6
-1.072, 7.670e-6
-1.073, 7.963e-6
-1.074, 8.299e-6
-1.075, 8.575e-6
-1.076, 8.774e-6
-1.077, 8.969e-6
-1.078, 9.273e-6
-1.079, 9.585e-6
-1.080, 9.789e-6
-1.081, 1.004e-5
-1.082, 1.021e-5
-1.083, 1.053e-5
-1.084, 1.081e-5
-1.085, 1.105e-5
-1.086, 1.126e-5
-1.087, 1.147e-5
-1.088, 1.177e-5
-1.089, 1.207e-5
-1.090, 1.238e-5
-1.091, 1.250e-5
-1.092, 1.274e-5
-1.093, 1.301e-5
-1.094, 1.332e-5
-1.095, 1.358e-5
-1.096, 1.378e-5
-1.097, 1.398e-5
-1.098, 1.429e-5
-1.099, 1.459e-5
-1.100, 1.483e-5
-1.101, 1.507e-5
-1.102, 1.527e-5
-1.103, 1.555e-5
-1.104, 1.584e-5
-1.105, 1.609e-5
-1.106, 1.631e-5
-1.107, 1.649e-5
-1.108, 1.684e-5
-1.109, 1.716e-5
-1.110, 1.744e-5
-1.111, 1.758e-5
-1.112, 1.784e-5
-1.113, 1.811e-5
-1.114, 1.848e-5
-1.115, 1.869e-5
-1.116, 1.887e-5
-1.117, 1.917e-5
-1.118, 1.943e-5
-1.119, 1.980e-5
-1.120, 1.999e-5
-1.121, 2.022e-5
-1.122, 2.043e-5
-1.123, 2.076e-5
-1.124, 2.110e-5
-1.125, 2.140e-5
-1.126, 2.158e-5
-1.127, 2.183e-5
-1.128, 2.216e-5
-1.129, 2.250e-5
-1.130, 2.279e-5
-1.131, 2.296e-5
-1.132, 2.324e-5
-1.133, 2.351e-5
-1.134, 2.392e-5
-1.135, 2.418e-5
-1.136, 2.443e-5
-1.137, 2.465e-5
-1.138, 2.497e-5
-1.139, 2.532e-5
-1.140, 2.566e-5
-1.141, 2.585e-5
-1.142, 2.612e-5
-1.143, 2.648e-5
-1.144, 2.677e-5
-1.145, 2.712e-5
-1.146, 2.729e-5
-1.147, 2.757e-5
-1.148, 2.795e-5
-1.149, 2.834e-5
-1.150, 2.861e-5
-1.151, 2.884e-5
-1.152, 2.913e-5
-1.153, 2.949e-5
-1.154, 2.990e-5
-1.155, 3.019e-5
-1.156, 3.038e-5
-1.157, 3.066e-5
-1.158, 3.103e-5
-1.159, 3.148e-5
-1.160, 3.180e-5
-1.161, 3.197e-5
-1.162, 3.230e-5
-1.163, 3.266e-5
-1.164, 3.301e-5
-1.165, 3.334e-5
-1.166, 3.356e-5
-1.167, 3.391e-5
-1.168, 3.428e-5
-1.169, 3.467e-5
-1.170, 3.495e-5
-1.171, 3.519e-5
-1.172, 3.547e-5
-1.173, 3.586e-5
-1.174, 3.622e-5
-1.175, 3.659e-5
-1.176, 3.678e-5
-1.177, 3.711e-5
-1.178, 3.748e-5
-1.179, 3.790e-5
-1.180, 3.823e-5
-1.181, 3.841e-5
-1.182, 3.877e-5
-1.183, 3.910e-5
-1.184, 3.950e-5
-1.185, 3.981e-5
-1.186, 4.007e-5
-1.187, 4.033e-5
-1.188, 4.075e-5
-1.189, 4.117e-5
-1.190, 4.149e-5
-1.191, 4.166e-5
-1.192, 4.202e-5
-1.193, 4.238e-5
-1.194, 4.282e-5
-1.195, 4.307e-5
-1.196, 4.337e-5
-1.197, 4.362e-5
-1.198, 4.396e-5
-1.199, 4.443e-5
-1.200, 4.470e-5
-1.201, 4.493e-5
-1.202, 4.521e-5
-1.203, 4.562e-5
-1.204, 4.599e-5
-1.205, 4.635e-5
-1.206, 4.653e-5
-1.207, 4.686e-5
-1.208, 4.718e-5
-1.209, 4.764e-5
-1.210, 4.796e-5
-1.211, 4.815e-5
-1.212, 4.846e-5
-1.213, 4.882e-5
-1.214, 4.919e-5
-1.215, 4.950e-5
-1.216, 4.973e-5
-1.217, 5.002e-5
-1.218, 5.041e-5
-1.219, 5.078e-5
-1.220, 5.113e-5
-1.221, 5.130e-5
-1.222, 5.158e-5
-1.223, 5.195e-5
-1.224, 5.236e-5
-1.225, 5.265e-5
-1.226, 5.286e-5
-1.227, 5.316e-5
-1.228, 5.357e-5
-1.229, 5.397e-5
-1.230, 5.428e-5
-1.231, 5.445e-5
-1.232, 5.473e-5
-1.233, 5.517e-5
-1.234, 5.551e-5
-1.235, 5.584e-5
-1.236, 5.601e-5
-1.237, 5.629e-5
-1.238, 5.664e-5
-1.239, 5.709e-5
-1.240, 5.734e-5
-1.241, 5.754e-5
-1.242, 5.779e-5
-1.243, 5.818e-5
-1.244, 5.859e-5
-1.245, 5.888e-5
-1.246, 5.914e-5
-1.247, 5.940e-5
-1.248, 5.981e-5
-1.249, 6.018e-5
-1.250, 6.052e-5
-1.251, 6.066e-5
-1.252, 6.096e-5
-1.253, 6.134e-5
-1.254, 6.176e-5
-1.255, 6.210e-5
-1.256, 6.225e-5
-1.257, 6.258e-5
-1.258, 6.299e-5
-1.259, 6.343e-5
-1.260, 6.371e-5
-1.261, 6.395e-5
-1.262, 6.417e-5
-1.263, 6.462e-5
-1.264, 6.500e-5
-1.265, 6.534e-5
-1.266, 6.550e-5
-1.267, 6.583e-5
-1.268, 6.624e-5
-1.269, 6.669e-5
-1.270, 6.694e-5
-1.271, 6.718e-5
-1.272, 6.750e-5
-1.273, 6.794e-5
-1.274, 6.839e-5
-1.275, 6.869e-5
-1.276, 6.898e-5
-1.277, 6.921e-5
-1.278, 6.968e-5
-1.279, 7.011e-5
-1.280, 7.049e-5
-1.281, 7.070e-5
-1.282, 7.098e-5
-1.283, 7.139e-5
-1.284, 7.188e-5
-1.285, 7.218e-5
-1.286, 7.240e-5
-1.287, 7.273e-5
-1.288, 7.311e-5
-1.289, 7.360e-5
-1.290, 7.397e-5
-1.291, 7.424e-5
-1.292, 7.453e-5
-1.293, 7.501e-5
-1.294, 7.552e-5
-1.295, 7.586e-5
-1.296, 7.607e-5
-1.297, 7.642e-5
-1.298, 7.688e-5
-1.299, 7.739e-5
-1.300, 7.776e-5
-1.301, 7.794e-5
-1.302, 7.830e-5
-1.303, 7.877e-5
-1.304, 7.931e-5
-1.305, 7.964e-5
-1.306, 7.993e-5
-1.307, 8.028e-5
-1.308, 8.075e-5
-1.309, 8.131e-5
-1.310, 8.168e-5
-1.311, 8.196e-5
-1.312, 8.236e-5
-1.313, 8.285e-5
-1.314, 8.334e-5
-1.315, 8.379e-5
-1.316, 8.404e-5
-1.317, 8.435e-5
-1.318, 8.488e-5
-1.319, 8.541e-5
-1.320, 8.575e-5
-1.321, 8.610e-5
-1.322, 8.651e-5
-1.323, 8.697e-5
-1.324, 8.753e-5
-1.325, 8.786e-5
-1.326, 8.822e-5
-1.327, 8.858e-5
-1.328, 8.918e-5
-1.329, 8.974e-5
-1.330, 9.009e-5
-1.331, 9.038e-5
-1.332, 9.075e-5
-1.333, 9.131e-5
-1.334, 9.184e-5
-1.335, 9.227e-5
-1.336, 9.258e-5
-1.337, 9.305e-5
-1.338, 9.358e-5
-1.339, 9.411e-5
-1.340, 9.456e-5
-1.341, 9.490e-5
-1.342, 9.530e-5
-1.343, 9.597e-5
-1.344, 9.647e-5
-1.345, 9.696e-5
-1.346, 9.738e-5
-1.347, 9.777e-5
-1.348, 9.837e-5
-1.349, 9.891e-5
-1.350, 9.945e-5
-1.351, 9.970e-5
-1.352, 1.002e-4
-1.353, 1.008e-4
-1.354, 1.015e-4
-1.355, 1.019e-4
-1.356, 1.023e-4
-1.357, 1.028e-4
-1.358, 1.034e-4
-1.359, 1.040e-4
-1.360, 1.044e-4
-1.361, 1.049e-4
-1.362, 1.053e-4
-1.363, 1.060e-4
-1.364, 1.066e-4
-1.365, 1.071e-4
-1.366, 1.075e-4
-1.367, 1.081e-4
-1.368, 1.087e-4
-1.369, 1.094e-4
-1.370, 1.100e-4
-1.371, 1.104e-4
-1.372, 1.110e-4
-1.373, 1.116e-4
-1.374, 1.123e-4
-1.375, 1.128e-4
-1.376, 1.133e-4
-1.377, 1.138e-4
-1.378, 1.145e-4
-1.379, 1.152e-4
-1.380, 1.158e-4
-1.381, 1.162e-4
-1.382, 1.168e-4
-1.383, 1.177e-4
-1.384, 1.183e-4
-1.385, 1.190e-4
-1.386, 1.194e-4
-1.387, 1.200e-4
-1.388, 1.207e-4
-1.389, 1.216e-4
-1.390, 1.221e-4
-1.391, 1.226e-4
-1.392, 1.232e-4
-1.393, 1.240e-4
-1.394, 1.249e-4
-1.395, 1.254e-4
-1.396, 1.260e-4
-1.397, 1.266e-4
-1.398, 1.275e-4
-1.399, 1.283e-4
-1.400, 1.249e-4
-1.399, 1.204e-4
-1.398, 1.176e-4
-1.397, 1.156e-4
-1.396, 1.138e-4
-1.395, 1.122e-4
-1.394, 1.106e-4
-1.393, 1.093e-4
-1.392, 1.082e-4
-1.391, 1.071e-4
-1.390, 1.059e-4
-1.389, 1.047e-4
-1.388, 1.036e-4
-1.387, 1.028e-4
-1.386, 1.020e-4
-1.385, 1.008e-4
-1.384, 9.980e-5
-1.383, 9.881e-5
-1.382, 9.813e-5
-1.381, 9.734e-5
-1.380, 9.643e-5
-1.379, 9.546e-5
-1.378, 9.463e-5
-1.377, 9.394e-5
-1.376, 9.319e-5
-1.375, 9.230e-5
-1.374, 9.137e-5
-1.373, 9.054e-5
-1.372, 8.986e-5
-1.371, 8.926e-5
-1.370, 8.844e-5
-1.369, 8.752e-5
-1.368, 8.673e-5
-1.367, 8.613e-5
-1.366, 8.547e-5
-1.365, 8.470e-5
-1.364, 8.382e-5
-1.363, 8.307e-5
-1.362, 8.253e-5
-1.361, 8.198e-5
-1.360, 8.126e-5
-1.359, 8.038e-5
-1.358, 7.970e-5
-1.357, 7.907e-5
-1.356, 7.857e-5
-1.355, 7.778e-5
-1.354, 7.707e-5
-1.353, 7.642e-5
-1.352, 7.593e-5
-1.351, 7.540e-5
-1.350, 7.463e-5
-1.349, 7.390e-5
-1.348, 7.321e-5
-1.347, 7.275e-5
-1.346, 7.220e-5
-1.345, 7.149e-5
-1.344, 7.069e-5
-1.343, 7.009e-5
-1.342, 6.960e-5
-1.341, 6.914e-5
-1.340, 6.845e-5
-1.339, 6.766e-5
-1.338, 6.704e-5
-1.337, 6.663e-5
-1.336, 6.616e-5
-1.335, 6.546e-5
-1.334, 6.481e-5
-1.333, 6.425e-5
-1.332, 6.375e-5
-1.331, 6.330e-5
-1.330, 6.265e-5
-1.329, 6.196e-5
-1.328, 6.142e-5
-1.327, 6.096e-5
-1.326, 6.060e-5
-1.325, 6.001e-5
-1.324, 5.932e-5
-1.323, 5.873e-5
-1.322, 5.836e-5
-1.321, 5.789e-5
-1.320, 5.727e-5
-1.319, 5.660e-5
-1.318, 5.610e-5
-1.317, 5.569e-5
-1.316, 5.525e-5
-1.315, 5.465e-5
-1.314, 5.407e-5
-1.313, 5.359e-5
-1.312, 5.316e-5
-1.311, 5.276e-5
-1.310, 5.221e-5
-1.309, 5.164e-5
-1.308, 5.110e-5
-1.307, 5.076e-5
-1.306, 5.039e-5
-1.305, 4.981e-5
-1.304, 4.924e-5
-1.303, 4.872e-5
-1.302, 4.834e-5
-1.301, 4.801e-5
-1.300, 4.745e-5
-1.299, 4.681e-5
-1.298, 4.634e-5
-1.297, 4.600e-5
-1.296, 4.567e-5
-1.295, 4.510e-5
-1.294, 4.450e-5
-1.293, 4.410e-5
-1.292, 4.376e-5
-1.291, 4.341e-5
-1.290, 4.288e-5
-1.289, 4.234e-5
-1.288, 4.191e-5
-1.287, 4.163e-5
-1.286, 4.126e-5
-1.285, 4.075e-5
-1.284, 4.015e-5
-1.283, 3.978e-5
-1.282, 3.946e-5
-1.281, 3.914e-5
-1.280, 3.858e-5
-1.279, 3.809e-5
-1.278, 3.765e-5
-1.277, 3.738e-5
-1.276, 3.703e-5
-1.275, 3.656e-5
-1.274, 3.605e-5
-1.273, 3.561e-5
-1.272, 3.535e-5
-1.271, 3.501e-5
-1.270, 3.452e-5
-1.269, 3.404e-5
-1.268, 3.366e-5
-1.267, 3.338e-5
-1.266, 3.309e-5
-1.265, 3.262e-5
-1.264, 3.211e-5
-1.263, 3.174e-5
-1.262, 3.143e-5
-1.261, 3.114e-5
-1.260, 3.066e-5
-1.259, 3.019e-5
-1.258, 2.975e-5
-1.257, 2.953e-5
-1.256, 2.925e-5
-1.255, 2.882e-5
-1.254, 2.828e-5
-1.253, 2.795e-5
-1.252, 2.767e-5
-1.251, 2.746e-5
-1.250, 2.692e-5
-1.249, 2.644e-5
-1.248, 2.602e-5
-1.247, 2.580e-5
-1.246, 2.553e-5
-1.245, 2.511e-5
-1.244, 2.464e-5
-1.243, 2.428e-5
-1.242, 2.405e-5
-1.241, 2.373e-5
-1.240, 2.334e-5
-1.239, 2.281e-5
-1.238, 2.250e-5
-1.237, 2.230e-5
-1.236, 2.206e-5
-1.235, 2.159e-5
-1.234, 2.114e-5
-1.233, 2.078e-5
-1.232, 2.057e-5
-1.231, 2.030e-5
-1.230, 1.985e-5
-1.229, 1.934e-5
-1.228, 1.900e-5
-1.227, 1.879e-5
-1.226, 1.852e-5
-1.225, 1.814e-5
-1.224, 1.768e-5
-1.223, 1.735e-5
-1.222, 1.707e-5
-1.221, 1.688e-5
-1.220, 1.642e-5
-1.219, 1.602e-5
-1.218, 1.562e-5
-1.217, 1.541e-5
-1.216, 1.514e-5
-1.215, 1.472e-5
-1.214, 1.425e-5
-1.213, 1.394e-5
-1.212, 1.371e-5
-1.211, 1.346e-5
-1.210, 1.307e-5
-1.209, 1.263e-5
-1.208, 1.232e-5
-1.207, 1.211e-5
-1.206, 1.189e-5
-1.205, 1.143e-5
-1.204, 1.104e-5
-1.203, 1.063e-5
-1.202, 1.050e-5
-1.201, 1.018e-5
-1.200, 9.765e-6
-1.199, 9.362e-6
-1.198, 9.012e-6
-1.197, 8.875e-6
-1.196, 8.568e-6
-1.195, 8.173e-6
-1.194, 7.752e-6
-1.193, 7.400e-6
-1.192, 7.204e-6
-1.191, 6.977e-6
-1.190, 6.561e-6
-1.189, 6.163e-6
-1.188, 5.820e-6
-1.187, 5.602e-6
-1.186, 5.359e-6
-1.185, 4.960e-6
-1.184, 4.523e-6
-1.183, 4.241e-6
-1.182, 4.030e-6
-1.181, 3.736e-6
-1.180, 3.391e-6
-1.179, 2.921e-6
-1.178, 2.617e-6
-1.177, 2.426e-6
-1.176, 2.198e-6
-1.175, 1.762e-6
-1.174, 1.366e-6
-1.173, 9.903e-7
-1.172, 8.374e-7
-1.171, 5.286e-7
-1.170, 1.498e-7
-1.169, -2.873e-7
-1.168, -5.330e-7
-1.167, -7.510e-7
-1.166, -1.028e-6
-1.165, -1.409e-6
-1.164, -1.937e-6
-1.163, -2.157e-6
-1.162, -2.386e-6
-1.161, -2.688e-6
-1.160, -3.061e-6
-1.159, -3.481e-6
-1.158, -3.850e-6
-1.157, -3.973e-6
-1.156, -4.287e-6
-1.155, -4.718e-6
-1.154, -5.085e-6
-1.153, -5.429e-6
-1.152, -5.648e-6
-1.151, -5.925e-6
-1.150, -6.315e-6
-1.149, -6.762e-6
-1.148, -7.045e-6
-1.147, -7.321e-6
-1.146, -7.572e-6
-1.145, -7.957e-6
-1.144, -8.410e-6
-1.143, -8.736e-6
-1.142, -8.942e-6
-1.141, -9.239e-6
-1.140, -9.613e-6
-1.139, -1.011e-5
-1.138, -1.041e-5
-1.137, -1.061e-5
-1.136, -1.084e-5
-1.135, -1.131e-5
-1.134, -1.177e-5
-1.133, -1.201e-5
-1.132, -1.229e-5
-1.131, -1.255e-5
-1.130, -1.295e-5
-1.129, -1.342e-5
-1.128, -1.373e-5
-1.127, -1.393e-5
-1.126, -1.429e-5
-1.125, -1.456e-5
-1.124, -1.508e-5
-1.123, -1.535e-5
-1.122, -1.556e-5
-1.121, -1.587e-5
-1.120, -1.624e-5
-1.119, -1.666e-5
-1.118, -1.705e-5
-1.117, -1.724e-5
-1.116, -1.752e-5
-1.115, -1.790e-5
-1.114, -1.834e-5
-1.113, -1.864e-5
-1.112, -1.888e-5
-1.111, -1.914e-5
-1.110, -1.953e-5
-1.109, -1.998e-5
-1.108, -2.033e-5
-1.107, -2.052e-5
-1.106, -2.082e-5
-1.105, -2.119e-5
-1.104, -2.158e-5
-1.103, -2.196e-5
-1.102, -2.211e-5
-1.101, -2.246e-5
-1.100, -2.286e-5
-1.099, -2.329e-5
-1.098, -2.356e-5
-1.097, -2.382e-5
-1.096, -2.403e-5
-1.095, -2.446e-5
-1.094, -2.485e-5
-1.093, -2.513e-5
-1.092, -2.537e-5
-1.091, -2.566e-5
-1.090, -2.601e-5
-1.089, -2.646e-5
-1.088, -2.669e-5
-1.087, -2.695e-5
-1.086, -2.725e-5
-1.085, -2.753e-5
-1.084, -2.800e-5
-1.083, -2.825e-5
-1.082, -2.844e-5
-1.081, -2.873e-5
-1.080, -2.906e-5
-1.079, -2.944e-5
-1.078, -2.975e-5
-1.077, -2.989e-5
-1.076, -3.019e-5
-1.075, -3.053e-5
-1.074, -3.090e-5
-1.073, -3.117e-5
-1.072, -3.134e-5
-1.071, -3.152e-5
-1.070, -3.191e-5
-1.069, -3.223e-5
-1.068, -3.252e-5
-1.067, -3.266e-5
-1.066, -3.288e-5
-1.065, -3.317e-5
-1.064, -3.347e-5
-1.063, -3.373e-5
-1.062, -3.385e-5
-1.061, -3.406e-5
-1.060, -3.435e-5
-1.059, -3.467e-5
-1.058, -3.484e-5
-1.057, -3.491e-5
-1.056, -3.505e-5
-1.055, -3.534e-5
-1.054, -3.560e-5
-1.053, -3.576e-5
-1.052, -3.589e-5
-1.051, -3.606e-5
-1.050, -3.626e-5
-1.049, -3.653e-5
-1.048, -3.668e-5
-1.047, -3.671e-5
-1.046, -3.681e-5
-1.045, -3.700e-5
-1.044, -3.722e-5
-1.043, -3.732e-5
-1.042, -3.731e-5
-1.041, -3.737e-5
-1.040, -3.759e-5
-1.039, -3.763e-5
-1.038, -3.776e-5
-1.037, -3.772e-5
-1.036, -3.778e-5
-1.035, -3.787e-5
-1.034, -3.798e-5
-1.033, -3.796e-5
-1.032, -3.794e-5
-1.031, -3.796e-5
-1.030, -3.803e-5
-1.029, -3.810e-5
-1.028, -3.808e-5
-1.027, -3.800e-5
-1.026, -3.803e-5
-1.025, -3.805e-5
-1.024, -3.814e-5
-1.023, -3.816e-5
-1.022, -3.798e-5
-1.021, -3.799e-5
-1.020, -3.801e-5
-1.019, -3.803e-5
-1.018, -3.794e-5
-1.017, -3.788e-5
-1.016, -3.776e-5
-1.015, -3.780e-5
-1.014, -3.781e-5
-1.013, -3.778e-5
-1.012, -3.764e-5
-1.011, -3.765e-5
-1.010, -3.765e-5
-1.009, -3.765e-5
-1.008, -3.758e-5
-1.007, -3.747e-5
-1.006, -3.744e-5
-1.005, -3.741e-5
-1.004, -3.739e-5
-1.003, -3.740e-5
-1.002, -3.723e-5
-1.001, -3.716e-5
-1.000, -3.547e-5
-1.001, -3.313e-5
-1.002, -3.141e-5
-1.003, -2.995e-5
-1.004, -2.866e-5
-1.005, -2.750e-5
-1.006, -2.658e-5
-1.007, -2.556e-5
-1.008, -2.456e-5
-1.009, -2.367e-5
-1.010, -2.287e-5
-1.011, -2.205e-5
-1.012, -2.136e-5
-1.013, -2.050e-5
-1.014, -1.982e-5
-1.015, -1.921e-5
-1.016, -1.861e-5
-1.017, -1.793e-5
-1.018, -1.733e-5
-1.019, -1.669e-5
-1.020, -1.620e-5
-1.021, -1.567e-5
-1.022, -1.513e-5
-1.023, -1.451e-5
-1.024, -1.396e-5
-1.025, -1.351e-5
-1.026, -1.310e-5
-1.027, -1.255e-5
-1.028, -1.203e-5
-1.029, -1.151e-5
-1.030, -1.113e-5
-1.031, -1.073e-5
-1.032, -1.032e-5
-1.033, -9.743e-6
-1.034, -9.343e-6
-1.035, -9.007e-6
-1.036, -8.645e-6
-1.037, -8.223e-6
-1.038, -7.792e-6
-1.039, -7.326e-6
-1.040, -7.035e-6
-1.041, -6.664e-6
-1.042, -6.289e-6
-1.043, -5.839e-6
-1.044, -5.512e-6
-1.045, -5.170e-6
-1.046, -4.916e-6
-1.047, -4.461e-6
-1.048, -4.079e-6
-1.049, -3.740e-6
-1.050, -3.477e-6
-1.051, -3.141e-6
-1.052, -2.822e-6
-1.053, -2.387e-6
-1.054, -2.078e-6
-1.055, -1.850e-6
-1.056, -1.548e-6
-1.057, -1.202e-6
-1.058, -8.240e-7
-1.059, -4.817e-7
-1.060, -2.419e-7
-1.061, -4.657e-8
-1.062, 3.165e-7
-1.063, 7.042e-7
-1.064, 9.874e-7
-1.065, 1.263e-6
-1.066, 1.476e-6
-1.067, 1.808e-6
-1.068, 2.182e-6
-1.069, 2.490e-6
-1.070, 2.678e-6
-1.071, 2.954e-6
-1.072, 3.233e-6
-1.073, 3.584e-6
-1.074, 3.895e-6
-1.075, 4.150e-6
-1.076, 4.341e-6
-1.077, 4.687e-6
-1.078, 5.028e-6
-1.079, 5.321e-6
-1.080, 5.538e-6
-1.081, 5.696e-6
-1.082, 6.101e-6
-1.083, 6.376e-6
-1.084, 6.710e-6
-1.085, 6.913e-6
-1.086, 7.169e-6
-1.087, 7.475e-6
-1.088, 7.804e-6
-1.089, 8.066e-6
-1.090, 8.323e-6
-1.091, 8.520e-6
-1.092, 8.819e-6
-1.093, 9.134e-6
-1.094, 9.408e-6
-1.095, 9.624e-6
-1.096, 9.900e-6
-1.097, 1.018e-5
-1.098, 1.053e-5
-1.099, 1.077e-5
-1.100, 1.101e-5
-1.101, 1.121e-5
-1.102, 1.156e-5
-1.103, 1.189e-5
-1.104, 1.215e-5
-1.105, 1.237e-5
-1.106, 1.259e-5
-1.107, 1.287e-5
-1.108, 1.326e-5
-1.109, 1.354e-5
-1.110, 1.373e-5
-1.111, 1.394e-5
-1.112, 1.430e-5
-1.113, 1.460e-5
-1.114, 1.494e-5
-1.115, 1.509e-5
-1.116, 1.539e-5
-1.117, 1.565e-5
-1.118, 1.607e-5
-1.119, 1.632e-5
-1.120, 1.659e-5
-1.121, 1.674e-5
-1.122, 1.717e-5
-1.123, 1.745e-5
-1.124, 1.778e-5
-1.125, 1.799e-5
-1.126, 1.824e-5
-1.127, 1.853e-5
-1.128, 1.893e-5
-1.129, 1.924e-5
-1.130, 1.944e-5
-1.131, 1.965e-5
-1.132, 2.002e-5
-1.133, 2.038e-5
-1.134, 2.070e-5
-1.135, 2.096e-5
-1.136, 2.116e-5
-1.137, 2.150e-5
-1.138, 2.187e-5
-1.139, 2.220e-5
-1.140, 2.245e-5
-1.141, 2.268e-5
-1.142, 2.305e-5
-1.143, 2.346e-5
-1.144, 2.371e-5
-1.145, 2.398e-5
-1.146, 2.427e-5
-1.147, 2.459e-5
-1.148, 2.498e-5
-1.149, 2.533e-5
-1.150, 2.556e-5
-1.151, 2.581e-5
-1.152, 2.620e-5
-1.153, 2.658e-5
-1.154, 2.691e-5
-1.155, 2.715e-5
-1.156, 2.739e-5
-1.157, 2.781e-5
-1.158, 2.816e-5
-1.159, 2.852e-5
-1.160, 2.875e-5
-1.161, 2.904e-5
-1.162, 2.939e-5
-1.163, 2.980e-5
-1.164, 3.014e-5
-1.165, 3.037e-5
-1.166, 3.065e-5
-1.167, 3.104e-5
-1.168, 3.143e-5
-1.169, 3.180e-5
-1.170, 3.201e-5
-1.171, 3.230e-5
-1.172, 3.268e-5
-1.173, 3.307e-5
-1.174, 3.343e-5
-1.175, 3.370e-5
-1.176, 3.392e-5
-1.177, 3.436e-5
-1.178, 3.476e-5
-1.179, 3.512e-5
-1.180, 3.535e-5
-1.181, 3.565e-5
-1.182, 3.598e-5
-1.183, 3.645e-5
-1.184, 3.672e-5
-1.185, 3.699e-5
-1.186, 3.726e-5
-1.187, 3.762e-5
-1.188, 3.805e-5
-1.189, 3.842e-5
-1.190, 3.861e-5
-1.191, 3.895e-5
-1.192, 3.929e-5
-1.193, 3.970e-5
-1.194, 4.003e-5
-1.195, 4.030e-5
-1.196, 4.053e-5
-1.197, 4.091e-5
-1.198, 4.137e-5
-1.199, 4.169e-5
-1.200, 4.188e-5
-1.201, 4.215e-5
-1.202, 4.252e-5
-1.203, 4.296e-5
-1.204, 4.330e-5
-1.205, 4.350e-5
-1.206, 4.377e-5
-1.207, 4.415e-5
-1.208, 4.451e-5
-1.209, 4.481e-5
-1.210, 4.506e-5
-1.211, 4.530e-5
-1.212, 4.571e-5
-1.213, 4.610e-5
-1.214, 4.641e-5
-1.215, 4.663e-5
-1.216, 4.693e-5
-1.217, 4.727e-5
-1.218, 4.771e-5
-1.219, 4.795e-5
-1.220, 4.819e-5
-1.221, 4.847e-5
-1.222, 4.880e-5
-1.223, 4.920e-5
-1.224, 4.952e-5
-1.225, 4.972e-5
-1.226, 4.995e-5
-1.227, 5.033e-5
-1.228, 5.075e-5
-1.229, 5.104e-5
-1.230, 5.120e-5
-1.231, 5.149e-5
-1.232, 5.180e-5
-1.233, 5.226e-5
-1.234, 5.244e-5
-1.235, 5.266e-5
-1.236, 5.289e-5
-1.237, 5.327e-5
-1.238, 5.363e-5
-1.239, 5.394e-5
-1.240, 5.402e-5
-1.241, 5.429e-5
-1.242, 5.467e-5
-1.243, 5.507e-5
-1.244, 5.531e-5
-1.245, 5.547e-5
-1.246, 5.573e-5
-1.247, 5.612e-5
-1.248, 5.647e-5
-1.249, 5.672e-5
-1.250, 5.687e-5
-1.251, 5.708e-5
-1.252, 5.742e-5
-1.253, 5.775e-5
-1.254, 5.806e-5
-1.255, 5.820e-5
-1.256, 5.847e-5
-1.257, 5.877e-5
-1.258, 5.917e-5
-1.259, 5.943e-5
-1.260, 5.960e-5
-1.261, 5.976e-5
-1.262, 6.009e-5
-1.263, 6.044e-5
-1.264, 6.070e-5
-1.265, 6.085e-5
-1.266, 6.108e-5
-1.267, 6.142e-5
-1.268, 6.177e-5
-1.269, 6.204e-5
-1.270, 6.213e-5
-1.271, 6.247e-5
-1.272, 6.275e-5
-1.273, 6.315e-5
-1.274, 6.330e-5
-1.275, 6.343e-5
-1.276, 6.368e-5
-1.277, 6.398e-5
-1.278, 6.437e-5
-1.279, 6.450e-5
-1.280, 6.469e-5
-1.281, 6.486e-5
-1.282, 6.531e-5
-1.283, 6.561e-5
-1.284, 6.585e-5
-1.285, 6.591e-5
-1.286, 6.617e-5
-1.287, 6.648e-5
-1.288, 6.687e-5
-1.289, 6.706e-5
-1.290, 6.726e-5
-1.291, 6.745e-5
-1.292, 6.777e-5
-1.293, 6.816e-5
-1.294, 6.833e-5
-1.295, 6.852e-5
-1.296, 6.865e-5
-1.297, 6.903e-5
-1.298, 6.933e-5
-1.299, 6.962e-5
-1.300, 6.975e-5
-1.301, 6.993e-5
-1.302, 7.029e-5
-1.303, 7.067e-5
-1.304, 7.097e-5
-1.305, 7.107e-5
-1.306, 7.130e-5
-1.307, 7.166e-5
-1.308, 7.203e-5
-1.309, 7.224e-5
-1.310, 7.236e-5
-1.311, 7.254e-5
-1.312, 7.288e-5
-1.313, 7.328e-5
-1.314, 7.350e-5
-1.315, 7.362e-5
-1.316, 7.384e-5
-1.317, 7.418e-5
-1.318, 7.456e-5
-1.319, 7.488e-5
-1.320, 7.496e-5
-1.321, 7.516e-5
-1.322, 7.553e-5
-1.323, 7.592e-5
-1.324, 7.619e-5
-1.325, 7.625e-5
-1.326, 7.653e-5
-1.327, 7.691e-5
-1.328, 7.728e-5
-1.329, 7.748e-5
-1.330, 7.769e-5
-1.331, 7.796e-5
-1.332, 7.840e-5
-1.333, 7.875e-5
-1.334, 7.897e-5
-1.335, 7.921e-5
-1.336, 7.938e-5
-1.337, 7.981e-5
-1.338, 8.016e-5
-1.339, 8.040e-5
-1.340, 8.063e-5
-1.341, 8.085e-5
-1.342, 8.128e-5
-1.343, 8.170e-5
-1.344, 8.194e-5
-1.345, 8.200e-5
-1.346, 8.242e-5
-1.347, 8.281e-5
-1.348, 8.325e-5
-1.349, 8.355e-5
-1.350, 8.370e-5
-1.351, 8.404e-5
-1.352, 8.448e-5
-1.353, 8.487e-5
-1.354, 8.515e-5
-1.355, 8.540e-5
-1.356, 8.573e-5
-1.357, 8.622e-5
-1.358, 8.666e-5
-1.359, 8.699e-5
-1.360, 8.724e-5
-1.361, 8.753e-5
-1.362, 8.804e-5
-1.363, 8.857e-5
-1.364, 8.889e-5
-1.365, 8.901e-5
-1.366, 8.941e-5
-1.367, 8.988e-5
-1.368, 9.043e-5
-1.369, 9.074e-5
-1.370, 9.104e-5
-1.371, 9.146e-5
-1.372, 9.201e-5
-1.373, 9.246e-5
-1.374, 9.279e-5
-1.375, 9.309e-5
-1.376, 9.345e-5
-1.377, 9.393e-5
-1.378, 9.447e-5
-1.379, 9.480e-5
-1.380, 9.513e-5
-1.381, 9.558e-5
-1.382, 9.627e-5
-1.383, 9.678e-5
-1.384, 9.704e-5
-1.385, 9.745e-5
-1.386, 9.788e-5
-1.387, 9.849e-5
-1.388, 9.911e-5
-1.389, 9.949e-5
-1.390, 9.983e-5
-1.391, 1.004e-4
-1.392, 1.009e-4
-1.393, 1.014e-4
-1.394, 1.018e-4
-1.395, 1.022e-4
-1.396, 1.027e-4
-1.397, 1.034e-4
-1.398, 1.040e-4
-1.399, 1.044e-4
-1.400, 1.008e-4
-1.399, 9.636e-5
-1.398, 9.372e-5
-1.397, 9.165e-5
-1.396, 8.955e-5
-1.395, 8.784e-5
-1.394, 8.626e-5
-1.393, 8.498e-5
-1.392, 8.374e-5
-1.391, 8.239e-5
-1.390, 8.110e-5
-1.389, 7.994e-5
-1.388, 7.903e-5
-1.387, 7.805e-5
-1.386, 7.694e-5
-1.385, 7.577e-5
-1.384, 7.484e-5
-1.383, 7.397e-5
-1.382, 7.314e-5
-1.381, 7.215e-5
-1.380, 7.117e-5
-1.379, 7.024e-5
-1.378, 6.962e-5
-1.377, 6.887e-5
-1.376, 6.795e-5
-1.375, 6.699e-5
-1.374, 6.620e-5
-1.373, 6.558e-5
-1.372, 6.490e-5
-1.371, 6.409e-5
-1.370, 6.317e-5
-1.369, 6.244e-5
-1.368, 6.182e-5
-1.367, 6.113e-5
-1.366, 6.027e-5
-1.365, 5.944e-5
-1.364, 5.871e-5
-1.363, 5.816e-5
-1.362, 5.751e-5
-1.361, 5.677e-5
-1.360, 5.607e-5
-1.359, 5.537e-5
-1.358, 5.487e-5
-1.357, 5.424e-5
-1.356, 5.350e-5
-1.355, 5.278e-5
-1.354, 5.217e-5
-1.353, 5.163e-5
-1.352, 5.114e-5
-1.351, 5.042e-5
-1.350, 4.970e-5
-1.349, 4.912e-5
-1.348, 4.863e-5
-1.347, 4.808e-5
-1.346, 4.744e-5
-1.345, 4.669e-5
-1.344, 4.616e-5
-1.343, 4.569e-5
-1.342, 4.518e-5
-1.341, 4.458e-5
-1.340, 4.390e-5
-1.339, 4.337e-5
-1.338, 4.296e-5
-1.337, 4.251e-5
-1.336, 4.186e-5
-1.335, 4.125e-5
-1.334, 4.069e-5
-1.333, 4.033e-5
-1.332, 3.987e-5
-1.331, 3.921e-5
-1.330, 3.864e-5
-1.329, 3.814e-5
-1.328, 3.782e-5
-1.327, 3.736e-5
-1.326, 3.678e-5
-1.325, 3.617e-5
-1.324, 3.575e-5
-1.323, 3.534e-5
-1.322, 3.495e-5
-1.321, 3.439e-5
-1.320, 3.384e-5
-1.319, 3.337e-5
-1.318, 3.303e-5
-1.317, 3.264e-5
-1.316, 3.213e-5
-1.315, 3.160e-5
-1.314, 3.109e-5
-1.313, 3.082e-5
-1.312, 3.041e-5
-1.311, 2.994e-5
-1.310, 2.938e-5
-1.309, 2.906e-5
-1.308, 2.871e-5
-1.307, 2.839e-5
-1.306, 2.790e-5
-1.305, 2.738e-5
-1.304, 2.699e-5
-1.303, 2.673e-5
-1.302, 2.636e-5
-1.301, 2.592e-5
-1.300, 2.535e-5
-1.299, 2.497e-5
-1.298, 2.473e-5
-1.297, 2.440e-5
-1.296, 2.400e-5
-1.295, 2.346e-5
-1.294, 2.312e-5
-1.293, 2.288e-5
-1.292, 2.256e-5
-1.291, 2.210e-5
-1.290, 2.164e-5
-1.289, 2.132e-5
-1.288, 2.108e-5
-1.287, 2.076e-5
-1.286, 2.036e-5
-1.285, 1.987e-5
-1.284, 1.957e-5
-1.283, 1.937e-5
-1.282, 1.907e-5
-1.281, 1.864e-5
-1.280, 1.815e-5
-1.279, 1.785e-5
-1.278, 1.767e-5
-1.277, 1.740e-5
-1.276, 1.697e-5
-1.275, 1.657e-5
-1.274, 1.620e-5
-1.273, 1.606e-5
-1.272, 1.580e-5
-1.271, 1.540e-5
-1.270, 1.495e-5
-1.269, 1.474e-5
-1.268, 1.449e-5
-1.267, 1.424e-5
-1.266, 1.386e-5
-1.265, 1.344e-5
-1.264, 1.315e-5
-1.263, 1.302e-5
-1.262, 1.276e-5
-1.261, 1.243e-5
-1.260, 1.200e-5
-1.259, 1.169e-5
-1.258, 1.156e-5
-1.257, 1.128e-5
-1.256, 1.099e-5
-1.255, 1.054e-5
-1.254, 1.029e-5
-1.253, 1.009e-5
-1.252, 9.903e-6
-1.251, 9.537e-6
-1.250, 9.167e-6
-1.249, 8.889e-6
-1.248, 8.789e-6
-1.247, 8.550e-6
-1.246, 8.197e-6
-1.245, 7.816e-6
-1.244, 7.572e-6
-1.243, 7.419e-6
-1.242, 7.155e-6
-1.241, 6.834e-6
-1.240, 6.449e-6
-1.239, 6.216e-6
-1.238, 6.097e-6
-1.237, 5.851e-6
-1.236, 5.520e-6
-1.235, 5.182e-6
-1.234, 4.890e-6
-1.233, 4.771e-6
-1.232, 4.553e-6
-1.231, 4.190e-6
-1.230, 3.802e-6
-1.229, 3.525e-6
-1.228, 3.419e-6
-1.227, 3.237e-6
-1.226, 2.888e-6
-1.225, 2.532e-6
-1.224, 2.329e-6
-1.223, 2.185e-6
-1.222, 1.971e-6
-1.221, 1.661e-6
-1.220, 1.348e-6
-1.219, 1.077e-6
-1.218, 9.815e-7
-1.217, 7.289e-7
-1.216, 4.635e-7
-1.215, 1.024e-7
-1.214, -1.403e-7
-1.213, -2.005e-7
-1.212, -4.136e-7
-1.211, -7.974e-7
-1.210, -1.094e-6
-1.209, -1.311e-6
-1.208, -1.436e-6
-1.207, -1.610e-6
-1.206, -1.992e-6
-1.205, -2.305e-6
-1.204, -2.502e-6
-1.203, -2.677e-6
-1.202, -2.819e-6
-1.201, -3.190e-6
-1.200, -3.508e-6
-1.199, -3.682e-6
-1.198, -3.803e-6
-1.197, -4.002e-6
-1.196, -4.319e-6
-1.195, -4.641e-6
-1.194, -4.849e-6
-1.193, -4.969e-6
-1.192, -5.155e-6
-1.191, -5.502e-6
-1.190, -5.858e-6
-1.189, -6.037e-6
-1.188, -6.157e-6
-1.187, -6.344e-6
-1.186, -6.697e-6
-1.185, -6.989e-6
-1.184, -7.214e-6
-1.183, -7.341e-6
-1.182, -7.529e-6
-1.181, -7.833e-6
-1.180, -8.173e-6
-1.179, -8.384e-6
-1.178, -8.531e-6
-1.177, -8.772e-6
-1.176, -9.038e-6
-1.175, -9.413e-6
-1.174, -9.584e-6
-1.173, -9.743e-6
-1.172, -9.932e-6
-1.171, -1.030e-5
-1.170, -1.060e-5
-1.169, -1.084e-5
-1.168, -1.090e-5
-1.167, -1.117e-5
-1.166, -1.149e-5
-1.165, -1.182e-5
-1.164, -1.205e-5
-1.163, -1.218e-5
-1.162, -1.240e-5
-1.161, -1.273e-5
-1.160, -1.307e-5
-1.159, -1.324e-5
-1.158, -1.343e-5
-1.157, -1.359e-5
-1.156, -1.401e-5
-1.155, -1.433e-5
-1.154, -1.449e-5
-1.153, -1.468e-5
-1.152, -1.491e-5
-1.151, -1.528e-5
-1.150, -1.562e-5
-1.149, -1.586e-5
-1.148, -1.594e-5
-1.147, -1.626e-5
-1.146, -1.656e-5
-1.145, -1.695e-5
-1.144, -1.714e-5
-1.143, -1.726e-5
-1.142, -1.750e-5
-1.141, -1.788e-5
-1.140, -1.823e-5
-1.139, -1.846e-5
-1.138, -1.861e-5
-1.137, -1.884e-5
-1.136, -1.920e-5
-1.135, -1.957e-5
-1.134, -1.981e-5
-1.133, -1.990e-5
-1.132, -2.021e-5
-1.131, -2.055e-5
-1.130, -2.090e-5
-1.129, -2.114e-5
-1.128, -2.131e-5
-1.127, -2.160e-5
-1.126, -2.195e-5
-1.125, -2.233e-5
-1.124, -2.253e-5
-1.123, -2.268e-5
-1.122, -2.296e-5
-1.121, -2.338e-5
-1.120, -2.365e-5
-1.119, -2.390e-5
-1.118, -2.409e-5
-1.117, -2.430e-5
-1.116, -2.472e-5
-1.115, -2.502e-5
-1.114, -2.525e-5
-1.113, -2.541e-5
-1.112, -2.567e-5
-1.111, -2.607e-5
-1.110, -2.644e-5
-1.109, -2.662e-5
-1.108, -2.684e-5
-1.107, -2.709e-5
-1.106, -2.743e-5
-1.105, -2.783e-5
-1.104, -2.800e-5
-1.103, -2.819e-5
-1.102, -2.841e-5
-1.101, -2.877e-5
-1.100, -2.918e-5
-1.099, -2.933e-5
-1.098, -2.954e-5
-1.097, -2.978e-5
-1.096, -3.010e-5
-1.095, -3.046e-5
-1.094, -3.065e-5
-1.093, -3.081e-5
-1.092, -3.107e-5
-1.091, -3.146e-5
-1.090, -3.173e-5
-1.089, -3.199e-5
-1.088, -3.210e-5
-1.087, -3.238e-5
-1.086, -3.267e-5
-1.085, -3.302e-5
-1.084, -3.319e-5
-1.083, -3.336e-5
-1.082, -3.360e-5
-1.081, -3.389e-5
-1.080, -3.423e-5
-1.079, -3.442e-5
-1.078, -3.458e-5
-1.077, -3.481e-5
-1.076, -3.512e-5
-1.075, -3.544e-5
-1.074, -3.566e-5
-1.073, -3.582e-5
-1.072, -3.604e-5
-1.071, -3.637e-5
-1.070, -3.663e-5
-1.069, -3.675e-5
-1.068, -3.686e-5
-1.067, -3.711e-5
-1.066, -3.737e-5
-1.065, -3.767e-5
-1.064, -3.776e-5
-1.063, -3.788e-5
-1.062, -3.804e-5
-1.061, -3.830e-5
-1.060, -3.856e-5
-1.059, -3.869e-5
-1.058, -3.881e-5
-1.057, -3.896e-5
-1.056, -3.916e-5
-1.055, -3.937e-5
-1.054, -3.949e-5
-1.053, -3.955e-5
-1.052, -3.972e-5
-1.051, -3.988e-5
-1.050, -4.006e-5
-1.049, -4.014e-5
-1.048, -4.021e-5
-1.047, -4.028e-5
-1.046, -4.045e-5
-1.045, -4.062e-5
-1.044, -4.067e-5
-1.043, -4.071e-5
-1.042, -4.080e-5
-1.041, -4.093e-5
-1.040, -4.100e-5
-1.039, -4.102e-5
-1.038, -4.094e-5
-1.037, -4.110e-5
-1.036, -4.119e-5
-1.035, -4.131e-5
-1.034, -4.127e-5
-1.033, -4.127e-5
-1.032, -4.129e-5
-1.031, -4.144e-5
-1.030, -4.149e-5
-1.029, -4.146e-5
-1.028, -4.143e-5
-1.027, -4.136e-5
-1.026, -4.153e-5
-1.025, -4.158e-5
-1.024, -4.157e-5
-1.023, -4.150e-5
-1.022, -4.155e-5
-1.021, -4.157e-5
-1.020, -4.168e-5
-1.019, -4.163e-5
-1.018, -4.149e-5
-1.017, -4.152e-5
-1.016, -4.159e-5
-1.015, -4.156e-5
-1.014, -4.157e-5
-1.013, -4.154e-5
-1.012, -4.145e-5
-1.011, -4.154e-5
-1.010, -4.157e-5
-1.009, -4.151e-5
-1.008, -4.139e-5
-1.007, -4.135e-5
-1.006, -4.138e-5
-1.005, -4.137e-5
-1.004, -4.128e-5
-1.003, -4.118e-5
-1.002, -4.120e-5
-1.001, -4.124e-5
