July 16, 2024   09:07:30
Cyclic Voltammetry
File: c:/users/guazh/data/20240709_batch67/2024-07-10-exp60\exp60-2024-07-16t08_39_05-h2koh\exp60_cv_sr_400mvs_efin_-2000mv.bin
Data Source:  Experiment
Instrument Model:  CHI760E
Header: CV ran at 400 mVs
Note: 

Init E (V) = -1
High E (V) = -1
Low E (V) = -2
Final E (V) = -1
Init P/N = N
Scan Rate (V/s) = 0.4
Segment = 3
Sample Interval (V) = 0.001
Quiet Time (sec) = 2
Sensitivity (A/V) = 0.01
Comp R (ohm) = 1.8

Results:

Channel 1:
Segment 1:

Segment 2:

Segment 3:

Potential/V, Current/A

-1.000, 3.239e-6
-1.001, 3.239e-6
-1.002, 3.239e-6
-1.003, 3.239e-6
-1.004, 3.239e-6
-1.005, 3.239e-6
-1.006, 3.239e-6
-1.007, 3.239e-6
-1.008, 3.239e-6
-1.009, 3.239e-6
-1.010, 3.239e-6
-1.011, 3.239e-6
-1.012, 3.239e-6
-1.013, 3.239e-6
-1.014, 3.239e-6
-1.015, 3.239e-6
-1.016, 3.239e-6
-1.017, 3.239e-6
-1.018, 3.239e-6
-1.019, 3.239e-6
-1.020, 3.239e-6
-1.021, 3.239e-6
-1.022, 3.239e-6
-1.023, 3.239e-6
-1.024, 3.239e-6
-1.025, 3.239e-6
-1.026, 3.239e-6
-1.027, 3.239e-6
-1.028, 3.239e-6
-1.029, 3.239e-6
-1.030, 6.322e-6
-1.031, 3.239e-6
-1.032, 3.239e-6
-1.033, 3.239e-6
-1.034, 6.322e-6
-1.035, 3.239e-6
-1.036, 3.239e-6
-1.037, 6.322e-6
-1.038, 6.322e-6
-1.039, 3.239e-6
-1.040, 3.239e-6
-1.041, 6.322e-6
-1.042, 3.239e-6
-1.043, 6.322e-6
-1.044, 6.322e-6
-1.045, 6.322e-6
-1.046, 3.239e-6
-1.047, 6.322e-6
-1.048, 6.322e-6
-1.049, 6.322e-6
-1.050, 6.322e-6
-1.051, 6.322e-6
-1.052, 6.322e-6
-1.053, 3.239e-6
-1.054, 6.322e-6
-1.055, 6.322e-6
-1.056, 6.322e-6
-1.057, 6.322e-6
-1.058, 6.322e-6
-1.059, 6.322e-6
-1.060, 6.322e-6
-1.061, 6.322e-6
-1.062, 6.322e-6
-1.063, 6.322e-6
-1.064, 6.322e-6
-1.065, 6.322e-6
-1.066, 6.322e-6
-1.067, 6.322e-6
-1.068, 6.322e-6
-1.069, 6.322e-6
-1.070, 6.322e-6
-1.071, 6.322e-6
-1.072, 6.322e-6
-1.073, 6.322e-6
-1.074, 6.322e-6
-1.075, 6.322e-6
-1.076, 6.322e-6
-1.077, 6.322e-6
-1.078, 6.322e-6
-1.079, 6.322e-6
-1.080, 6.322e-6
-1.081, 6.322e-6
-1.082, 6.322e-6
-1.083, 6.322e-6
-1.084, 6.322e-6
-1.085, 6.322e-6
-1.086, 6.322e-6
-1.087, 6.322e-6
-1.088, 6.322e-6
-1.089, 6.322e-6
-1.090, 6.322e-6
-1.091, 6.322e-6
-1.092, 6.322e-6
-1.093, 6.322e-6
-1.094, 6.322e-6
-1.095, 6.322e-6
-1.096, 6.322e-6
-1.097, 6.322e-6
-1.098, 6.322e-6
-1.099, 6.322e-6
-1.100, 6.322e-6
-1.101, 6.322e-6
-1.102, 6.322e-6
-1.103, 6.322e-6
-1.104, 6.322e-6
-1.105, 6.322e-6
-1.106, 6.322e-6
-1.107, 6.322e-6
-1.108, 6.322e-6
-1.109, 6.322e-6
-1.110, 6.322e-6
-1.111, 6.322e-6
-1.112, 6.322e-6
-1.113, 6.322e-6
-1.114, 6.322e-6
-1.115, 6.322e-6
-1.116, 6.322e-6
-1.117, 6.322e-6
-1.118, 6.322e-6
-1.119, 6.322e-6
-1.120, 6.322e-6
-1.121, 6.322e-6
-1.122, 6.322e-6
-1.123, 6.322e-6
-1.124, 6.322e-6
-1.125, 6.322e-6
-1.126, 6.322e-6
-1.127, 9.405e-6
-1.128, 6.322e-6
-1.129, 6.322e-6
-1.130, 6.322e-6
-1.131, 6.322e-6
-1.132, 6.322e-6
-1.133, 9.405e-6
-1.134, 6.322e-6
-1.135, 9.405e-6
-1.136, 6.322e-6
-1.137, 9.405e-6
-1.138, 9.405e-6
-1.139, 6.322e-6
-1.140, 9.405e-6
-1.141, 6.322e-6
-1.142, 6.322e-6
-1.143, 9.405e-6
-1.144, 9.405e-6
-1.145, 9.405e-6
-1.146, 6.322e-6
-1.147, 9.405e-6
-1.148, 6.322e-6
-1.149, 9.405e-6
-1.150, 6.322e-6
-1.151, 9.405e-6
-1.152, 6.322e-6
-1.153, 6.322e-6
-1.154, 6.322e-6
-1.155, 6.322e-6
-1.156, 9.405e-6
-1.157, 9.405e-6
-1.158, 6.322e-6
-1.159, 9.405e-6
-1.160, 9.405e-6
-1.161, 6.322e-6
-1.162, 9.405e-6
-1.163, 9.405e-6
-1.164, 9.405e-6
-1.165, 9.405e-6
-1.166, 9.405e-6
-1.167, 9.405e-6
-1.168, 9.405e-6
-1.169, 9.405e-6
-1.170, 9.405e-6
-1.171, 9.405e-6
-1.172, 9.405e-6
-1.173, 9.405e-6
-1.174, 9.405e-6
-1.175, 9.405e-6
-1.176, 9.405e-6
-1.177, 9.405e-6
-1.178, 9.405e-6
-1.179, 9.405e-6
-1.180, 9.405e-6
-1.181, 9.405e-6
-1.182, 9.405e-6
-1.183, 9.405e-6
-1.184, 9.405e-6
-1.185, 9.405e-6
-1.186, 9.405e-6
-1.187, 9.405e-6
-1.188, 9.405e-6
-1.189, 9.405e-6
-1.190, 9.405e-6
-1.191, 9.405e-6
-1.192, 9.405e-6
-1.193, 9.405e-6
-1.194, 9.405e-6
-1.195, 9.405e-6
-1.196, 9.405e-6
-1.197, 9.405e-6
-1.198, 9.405e-6
-1.199, 9.405e-6
-1.200, 9.405e-6
-1.201, 9.405e-6
-1.202, 9.405e-6
-1.203, 9.405e-6
-1.204, 9.405e-6
-1.205, 9.405e-6
-1.206, 9.405e-6
-1.207, 9.405e-6
-1.208, 9.405e-6
-1.209, 9.405e-6
-1.210, 9.405e-6
-1.211, 9.405e-6
-1.212, 9.405e-6
-1.213, 9.405e-6
-1.214, 9.405e-6
-1.215, 9.405e-6
-1.216, 9.405e-6
-1.217, 9.405e-6
-1.218, 9.405e-6
-1.219, 9.405e-6
-1.220, 9.405e-6
-1.221, 9.405e-6
-1.222, 9.405e-6
-1.223, 9.405e-6
-1.224, 9.405e-6
-1.225, 9.405e-6
-1.226, 9.405e-6
-1.227, 9.405e-6
-1.228, 9.405e-6
-1.229, 9.405e-6
-1.230, 9.405e-6
-1.231, 9.405e-6
-1.232, 9.405e-6
-1.233, 9.405e-6
-1.234, 9.405e-6
-1.235, 9.405e-6
-1.236, 9.405e-6
-1.237, 9.405e-6
-1.238, 9.405e-6
-1.239, 9.405e-6
-1.240, 9.405e-6
-1.241, 9.405e-6
-1.242, 9.405e-6
-1.243, 9.405e-6
-1.244, 1.249e-5
-1.245, 9.405e-6
-1.246, 9.405e-6
-1.247, 1.249e-5
-1.248, 1.249e-5
-1.249, 9.405e-6
-1.250, 9.405e-6
-1.251, 9.405e-6
-1.252, 9.405e-6
-1.253, 9.405e-6
-1.254, 1.249e-5
-1.255, 1.249e-5
-1.256, 1.249e-5
-1.257, 1.249e-5
-1.258, 9.405e-6
-1.259, 9.405e-6
-1.260, 9.405e-6
-1.261, 9.405e-6
-1.262, 1.249e-5
-1.263, 9.405e-6
-1.264, 1.249e-5
-1.265, 9.405e-6
-1.266, 1.249e-5
-1.267, 1.249e-5
-1.268, 1.249e-5
-1.269, 1.249e-5
-1.270, 1.249e-5
-1.271, 1.249e-5
-1.272, 1.249e-5
-1.273, 1.249e-5
-1.274, 1.249e-5
-1.275, 1.249e-5
-1.276, 9.405e-6
-1.277, 1.249e-5
-1.278, 1.249e-5
-1.279, 1.249e-5
-1.280, 9.405e-6
-1.281, 1.249e-5
-1.282, 1.249e-5
-1.283, 1.249e-5
-1.284, 1.249e-5
-1.285, 1.249e-5
-1.286, 1.249e-5
-1.287, 1.249e-5
-1.288, 1.249e-5
-1.289, 1.249e-5
-1.290, 1.249e-5
-1.291, 1.249e-5
-1.292, 1.249e-5
-1.293, 1.249e-5
-1.294, 1.249e-5
-1.295, 1.249e-5
-1.296, 1.249e-5
-1.297, 1.249e-5
-1.298, 1.249e-5
-1.299, 1.249e-5
-1.300, 1.249e-5
-1.301, 1.249e-5
-1.302, 1.249e-5
-1.303, 1.249e-5
-1.304, 1.249e-5
-1.305, 9.405e-6
-1.306, 1.249e-5
-1.307, 1.249e-5
-1.308, 1.249e-5
-1.309, 1.249e-5
-1.310, 1.249e-5
-1.311, 1.249e-5
-1.312, 1.249e-5
-1.313, 1.249e-5
-1.314, 1.249e-5
-1.315, 1.249e-5
-1.316, 1.249e-5
-1.317, 1.249e-5
-1.318, 1.249e-5
-1.319, 1.249e-5
-1.320, 1.249e-5
-1.321, 1.249e-5
-1.322, 1.249e-5
-1.323, 1.249e-5
-1.324, 1.249e-5
-1.325, 1.249e-5
-1.326, 1.249e-5
-1.327, 1.249e-5
-1.328, 1.249e-5
-1.329, 1.249e-5
-1.330, 1.249e-5
-1.331, 1.249e-5
-1.332, 1.249e-5
-1.333, 1.249e-5
-1.334, 1.249e-5
-1.335, 1.249e-5
-1.336, 1.249e-5
-1.337, 1.249e-5
-1.338, 1.249e-5
-1.339, 1.249e-5
-1.340, 1.249e-5
-1.341, 1.249e-5
-1.342, 1.249e-5
-1.343, 1.249e-5
-1.344, 1.249e-5
-1.345, 1.249e-5
-1.346, 1.249e-5
-1.347, 1.249e-5
-1.348, 1.249e-5
-1.349, 1.249e-5
-1.350, 1.249e-5
-1.351, 1.249e-5
-1.352, 1.249e-5
-1.353, 1.249e-5
-1.354, 1.249e-5
-1.355, 1.249e-5
-1.356, 1.249e-5
-1.357, 1.249e-5
-1.358, 1.249e-5
-1.359, 1.249e-5
-1.360, 1.249e-5
-1.361, 1.557e-5
-1.362, 1.249e-5
-1.363, 1.249e-5
-1.364, 1.249e-5
-1.365, 1.249e-5
-1.366, 1.249e-5
-1.367, 1.249e-5
-1.368, 1.249e-5
-1.369, 1.249e-5
-1.370, 1.249e-5
-1.371, 1.557e-5
-1.372, 1.249e-5
-1.373, 1.249e-5
-1.374, 1.557e-5
-1.375, 1.557e-5
-1.376, 1.557e-5
-1.377, 1.557e-5
-1.378, 1.557e-5
-1.379, 1.249e-5
-1.380, 1.557e-5
-1.381, 1.557e-5
-1.382, 1.249e-5
-1.383, 1.557e-5
-1.384, 1.557e-5
-1.385, 1.557e-5
-1.386, 1.557e-5
-1.387, 1.557e-5
-1.388, 1.557e-5
-1.389, 1.557e-5
-1.390, 1.557e-5
-1.391, 1.557e-5
-1.392, 1.557e-5
-1.393, 1.557e-5
-1.394, 1.557e-5
-1.395, 1.557e-5
-1.396, 1.557e-5
-1.397, 1.249e-5
-1.398, 1.557e-5
-1.399, 1.557e-5
-1.400, 1.557e-5
-1.401, 1.557e-5
-1.402, 1.557e-5
-1.403, 1.557e-5
-1.404, 1.249e-5
-1.405, 1.557e-5
-1.406, 1.557e-5
-1.407, 1.557e-5
-1.408, 1.557e-5
-1.409, 1.557e-5
-1.410, 1.557e-5
-1.411, 1.557e-5
-1.412, 1.249e-5
-1.413, 1.557e-5
-1.414, 1.557e-5
-1.415, 1.557e-5
-1.416, 1.557e-5
-1.417, 1.557e-5
-1.418, 1.557e-5
-1.419, 1.557e-5
-1.420, 1.557e-5
-1.421, 1.249e-5
-1.422, 1.557e-5
-1.423, 1.557e-5
-1.424, 1.557e-5
-1.425, 1.557e-5
-1.426, 1.557e-5
-1.427, 1.557e-5
-1.428, 1.557e-5
-1.429, 1.557e-5
-1.430, 1.557e-5
-1.431, 1.557e-5
-1.432, 1.557e-5
-1.433, 1.557e-5
-1.434, 1.557e-5
-1.435, 1.557e-5
-1.436, 1.557e-5
-1.437, 1.557e-5
-1.438, 1.557e-5
-1.439, 1.557e-5
-1.440, 1.557e-5
-1.441, 1.557e-5
-1.442, 1.557e-5
-1.443, 1.557e-5
-1.444, 1.557e-5
-1.445, 1.557e-5
-1.446, 1.557e-5
-1.447, 1.557e-5
-1.448, 1.557e-5
-1.449, 1.557e-5
-1.450, 1.557e-5
-1.451, 1.557e-5
-1.452, 1.557e-5
-1.453, 1.557e-5
-1.454, 1.557e-5
-1.455, 1.557e-5
-1.456, 1.557e-5
-1.457, 1.557e-5
-1.458, 1.557e-5
-1.459, 1.557e-5
-1.460, 1.557e-5
-1.461, 1.557e-5
-1.462, 1.557e-5
-1.463, 1.557e-5
-1.464, 1.557e-5
-1.465, 1.557e-5
-1.466, 1.557e-5
-1.467, 1.557e-5
-1.468, 1.557e-5
-1.469, 1.557e-5
-1.470, 1.557e-5
-1.471, 1.557e-5
-1.472, 1.557e-5
-1.473, 1.557e-5
-1.474, 1.557e-5
-1.475, 1.557e-5
-1.476, 1.557e-5
-1.477, 1.865e-5
-1.478, 1.557e-5
-1.479, 1.557e-5
-1.480, 1.557e-5
-1.481, 1.557e-5
-1.482, 1.557e-5
-1.483, 1.557e-5
-1.484, 1.557e-5
-1.485, 1.557e-5
-1.486, 1.557e-5
-1.487, 1.865e-5
-1.488, 1.557e-5
-1.489, 1.557e-5
-1.490, 1.557e-5
-1.491, 1.557e-5
-1.492, 1.557e-5
-1.493, 1.557e-5
-1.494, 1.865e-5
-1.495, 1.557e-5
-1.496, 1.557e-5
-1.497, 1.557e-5
-1.498, 1.557e-5
-1.499, 1.557e-5
-1.500, 1.865e-5
-1.501, 1.557e-5
-1.502, 1.865e-5
-1.503, 1.865e-5
-1.504, 1.865e-5
-1.505, 1.865e-5
-1.506, 1.557e-5
-1.507, 1.865e-5
-1.508, 1.865e-5
-1.509, 1.865e-5
-1.510, 1.865e-5
-1.511, 1.865e-5
-1.512, 1.865e-5
-1.513, 1.865e-5
-1.514, 1.865e-5
-1.515, 1.865e-5
-1.516, 1.865e-5
-1.517, 1.865e-5
-1.518, 1.865e-5
-1.519, 1.865e-5
-1.520, 1.865e-5
-1.521, 1.865e-5
-1.522, 1.865e-5
-1.523, 1.865e-5
-1.524, 1.865e-5
-1.525, 1.865e-5
-1.526, 1.865e-5
-1.527, 1.865e-5
-1.528, 1.865e-5
-1.529, 1.865e-5
-1.530, 1.865e-5
-1.531, 1.865e-5
-1.532, 1.865e-5
-1.533, 1.865e-5
-1.534, 1.865e-5
-1.535, 1.865e-5
-1.536, 1.865e-5
-1.537, 1.865e-5
-1.538, 1.865e-5
-1.539, 1.865e-5
-1.540, 1.865e-5
-1.541, 1.865e-5
-1.542, 1.865e-5
-1.543, 1.865e-5
-1.544, 1.865e-5
-1.545, 1.865e-5
-1.546, 1.865e-5
-1.547, 1.865e-5
-1.548, 1.865e-5
-1.549, 1.865e-5
-1.550, 1.865e-5
-1.551, 1.865e-5
-1.552, 1.865e-5
-1.553, 1.865e-5
-1.554, 1.865e-5
-1.555, 1.865e-5
-1.556, 1.865e-5
-1.557, 1.865e-5
-1.558, 1.865e-5
-1.559, 1.865e-5
-1.560, 1.865e-5
-1.561, 1.865e-5
-1.562, 1.865e-5
-1.563, 1.865e-5
-1.564, 2.174e-5
-1.565, 1.865e-5
-1.566, 1.865e-5
-1.567, 1.865e-5
-1.568, 1.865e-5
-1.569, 1.865e-5
-1.570, 1.865e-5
-1.571, 1.865e-5
-1.572, 1.865e-5
-1.573, 1.865e-5
-1.574, 1.865e-5
-1.575, 1.865e-5
-1.576, 1.865e-5
-1.577, 1.865e-5
-1.578, 1.865e-5
-1.579, 1.865e-5
-1.580, 1.865e-5
-1.581, 1.865e-5
-1.582, 1.865e-5
-1.583, 1.865e-5
-1.584, 1.865e-5
-1.585, 1.865e-5
-1.586, 1.865e-5
-1.587, 1.865e-5
-1.588, 1.865e-5
-1.589, 1.865e-5
-1.590, 2.174e-5
-1.591, 1.865e-5
-1.592, 2.174e-5
-1.593, 2.174e-5
-1.594, 2.174e-5
-1.595, 2.174e-5
-1.596, 1.865e-5
-1.597, 2.174e-5
-1.598, 2.174e-5
-1.599, 2.174e-5
-1.600, 2.174e-5
-1.601, 2.174e-5
-1.602, 2.174e-5
-1.603, 2.174e-5
-1.604, 2.174e-5
-1.605, 2.174e-5
-1.606, 2.174e-5
-1.607, 2.174e-5
-1.608, 2.174e-5
-1.609, 2.174e-5
-1.610, 2.174e-5
-1.611, 2.174e-5
-1.612, 2.174e-5
-1.613, 2.174e-5
-1.614, 2.174e-5
-1.615, 2.174e-5
-1.616, 2.174e-5
-1.617, 2.174e-5
-1.618, 2.174e-5
-1.619, 2.174e-5
-1.620, 2.174e-5
-1.621, 2.174e-5
-1.622, 2.174e-5
-1.623, 2.174e-5
-1.624, 2.174e-5
-1.625, 2.174e-5
-1.626, 2.174e-5
-1.627, 2.174e-5
-1.628, 2.174e-5
-1.629, 2.174e-5
-1.630, 2.174e-5
-1.631, 2.174e-5
-1.632, 2.174e-5
-1.633, 2.174e-5
-1.634, 2.174e-5
-1.635, 2.174e-5
-1.636, 2.174e-5
-1.637, 2.174e-5
-1.638, 2.174e-5
-1.639, 2.174e-5
-1.640, 2.482e-5
-1.641, 2.174e-5
-1.642, 2.174e-5
-1.643, 2.174e-5
-1.644, 2.482e-5
-1.645, 2.174e-5
-1.646, 2.482e-5
-1.647, 2.482e-5
-1.648, 2.482e-5
-1.649, 2.482e-5
-1.650, 2.482e-5
-1.651, 2.482e-5
-1.652, 2.482e-5
-1.653, 2.482e-5
-1.654, 2.482e-5
-1.655, 2.482e-5
-1.656, 2.482e-5
-1.657, 2.482e-5
-1.658, 2.482e-5
-1.659, 2.482e-5
-1.660, 2.482e-5
-1.661, 2.482e-5
-1.662, 2.482e-5
-1.663, 2.482e-5
-1.664, 2.482e-5
-1.665, 2.482e-5
-1.666, 2.482e-5
-1.667, 2.790e-5
-1.668, 2.482e-5
-1.669, 2.482e-5
-1.670, 2.482e-5
-1.671, 2.482e-5
-1.672, 2.482e-5
-1.673, 2.790e-5
-1.674, 2.790e-5
-1.675, 2.790e-5
-1.676, 2.790e-5
-1.677, 2.790e-5
-1.678, 2.790e-5
-1.679, 2.790e-5
-1.680, 2.790e-5
-1.681, 2.790e-5
-1.682, 2.790e-5
-1.683, 2.790e-5
-1.684, 2.790e-5
-1.685, 2.790e-5
-1.686, 2.790e-5
-1.687, 2.790e-5
-1.688, 2.790e-5
-1.689, 2.790e-5
-1.690, 2.790e-5
-1.691, 2.790e-5
-1.692, 2.790e-5
-1.693, 3.099e-5
-1.694, 3.099e-5
-1.695, 3.099e-5
-1.696, 3.099e-5
-1.697, 3.099e-5
-1.698, 3.099e-5
-1.699, 3.099e-5
-1.700, 3.099e-5
-1.701, 3.099e-5
-1.702, 3.099e-5
-1.703, 3.099e-5
-1.704, 3.099e-5
-1.705, 3.407e-5
-1.706, 3.407e-5
-1.707, 3.407e-5
-1.708, 3.407e-5
-1.709, 3.407e-5
-1.710, 3.407e-5
-1.711, 3.407e-5
-1.712, 3.407e-5
-1.713, 3.407e-5
-1.714, 3.407e-5
-1.715, 3.407e-5
-1.716, 3.715e-5
-1.717, 3.715e-5
-1.718, 3.407e-5
-1.719, 3.715e-5
-1.720, 3.715e-5
-1.721, 3.715e-5
-1.722, 3.715e-5
-1.723, 3.715e-5
-1.724, 4.024e-5
-1.725, 3.715e-5
-1.726, 4.024e-5
-1.727, 4.024e-5
-1.728, 4.024e-5
-1.729, 4.024e-5
-1.730, 4.332e-5
-1.731, 4.024e-5
-1.732, 4.332e-5
-1.733, 4.332e-5
-1.734, 4.332e-5
-1.735, 4.332e-5
-1.736, 4.332e-5
-1.737, 4.640e-5
-1.738, 4.640e-5
-1.739, 4.640e-5
-1.740, 4.949e-5
-1.741, 4.949e-5
-1.742, 4.949e-5
-1.743, 4.949e-5
-1.744, 5.257e-5
-1.745, 5.257e-5
-1.746, 5.257e-5
-1.747, 5.565e-5
-1.748, 5.565e-5
-1.749, 5.565e-5
-1.750, 5.873e-5
-1.751, 5.873e-5
-1.752, 5.873e-5
-1.753, 6.182e-5
-1.754, 6.182e-5
-1.755, 6.490e-5
-1.756, 6.490e-5
-1.757, 6.490e-5
-1.758, 6.490e-5
-1.759, 6.798e-5
-1.760, 7.107e-5
-1.761, 7.107e-5
-1.762, 7.415e-5
-1.763, 7.415e-5
-1.764, 7.723e-5
-1.765, 7.723e-5
-1.766, 8.032e-5
-1.767, 8.340e-5
-1.768, 8.648e-5
-1.769, 8.648e-5
-1.770, 8.957e-5
-1.771, 9.265e-5
-1.772, 9.265e-5
-1.773, 9.573e-5
-1.774, 9.882e-5
-1.775, 1.019e-4
-1.776, 1.050e-4
-1.777, 1.081e-4
-1.778, 1.111e-4
-1.779, 1.142e-4
-1.780, 1.173e-4
-1.781, 1.204e-4
-1.782, 1.266e-4
-1.783, 1.296e-4
-1.784, 1.327e-4
-1.785, 1.358e-4
-1.786, 1.420e-4
-1.787, 1.451e-4
-1.788, 1.512e-4
-1.789, 1.543e-4
-1.790, 1.605e-4
-1.791, 1.666e-4
-1.792, 1.728e-4
-1.793, 1.790e-4
-1.794, 1.851e-4
-1.795, 1.913e-4
-1.796, 1.975e-4
-1.797, 2.036e-4
-1.798, 2.098e-4
-1.799, 2.191e-4
-1.800, 2.252e-4
-1.801, 2.345e-4
-1.802, 2.437e-4
-1.803, 2.530e-4
-1.804, 2.591e-4
-1.805, 2.684e-4
-1.806, 2.807e-4
-1.807, 2.900e-4
-1.808, 3.023e-4
-1.809, 3.146e-4
-1.810, 3.270e-4
-1.811, 3.362e-4
-1.812, 3.485e-4
-1.813, 3.640e-4
-1.814, 3.794e-4
-1.815, 3.917e-4
-1.816, 4.071e-4
-1.817, 4.225e-4
-1.818, 4.380e-4
-1.819, 4.565e-4
-1.820, 4.750e-4
-1.821, 4.935e-4
-1.822, 5.150e-4
-1.823, 5.335e-4
-1.824, 5.520e-4
-1.825, 5.736e-4
-1.826, 5.983e-4
-1.827, 6.229e-4
-1.828, 6.476e-4
-1.829, 6.723e-4
-1.830, 6.969e-4
-1.831, 7.247e-4
-1.832, 7.524e-4
-1.833, 7.833e-4
-1.834, 8.141e-4
-1.835, 8.449e-4
-1.836, 8.788e-4
-1.837, 9.097e-4
-1.838, 9.436e-4
-1.839, 9.806e-4
-1.840, 1.018e-3
-1.841, 1.058e-3
-1.842, 1.098e-3
-1.843, 1.138e-3
-1.844, 1.178e-3
-1.845, 1.218e-3
-1.846, 1.264e-3
-1.847, 1.310e-3
-1.848, 1.360e-3
-1.849, 1.409e-3
-1.850, 1.458e-3
-1.851, 1.505e-3
-1.852, 1.557e-3
-1.853, 1.613e-3
-1.854, 1.671e-3
-1.855, 1.730e-3
-1.856, 1.788e-3
-1.857, 1.847e-3
-1.858, 1.906e-3
-1.859, 1.967e-3
-1.860, 2.032e-3
-1.861, 2.100e-3
-1.862, 2.168e-3
-1.863, 2.232e-3
-1.864, 2.300e-3
-1.865, 2.368e-3
-1.866, 2.442e-3
-1.867, 2.519e-3
-1.868, 2.593e-3
-1.869, 2.670e-3
-1.870, 2.744e-3
-1.871, 2.818e-3
-1.872, 2.895e-3
-1.873, 2.975e-3
-1.874, 3.062e-3
-1.875, 3.148e-3
-1.876, 3.228e-3
-1.877, 3.311e-3
-1.878, 3.395e-3
-1.879, 3.481e-3
-1.880, 3.570e-3
-1.881, 3.663e-3
-1.882, 3.752e-3
-1.883, 3.842e-3
-1.884, 3.928e-3
-1.885, 4.021e-3
-1.886, 4.116e-3
-1.887, 4.215e-3
-1.888, 4.317e-3
-1.889, 4.415e-3
-1.890, 4.514e-3
-1.891, 4.609e-3
-1.892, 4.708e-3
-1.893, 4.813e-3
-1.894, 4.924e-3
-1.895, 5.029e-3
-1.896, 5.134e-3
-1.897, 5.232e-3
-1.898, 5.331e-3
-1.899, 5.436e-3
-1.900, 5.547e-3
-1.901, 5.658e-3
-1.902, 5.769e-3
-1.903, 5.877e-3
-1.904, 5.978e-3
-1.905, 6.086e-3
-1.906, 6.197e-3
-1.907, 6.314e-3
-1.908, 6.432e-3
-1.909, 6.543e-3
-1.910, 6.650e-3
-1.911, 6.758e-3
-1.912, 6.872e-3
-1.913, 6.993e-3
-1.914, 7.116e-3
-1.915, 7.239e-3
-1.916, 7.353e-3
-1.917, 7.464e-3
-1.918, 7.575e-3
-1.919, 7.696e-3
-1.920, 7.822e-3
-1.921, 7.948e-3
-1.922, 8.072e-3
-1.923, 8.192e-3
-1.924, 8.306e-3
-1.925, 8.423e-3
-1.926, 8.547e-3
-1.927, 8.673e-3
-1.928, 8.796e-3
-1.929, 8.917e-3
-1.930, 9.034e-3
-1.931, 9.145e-3
-1.932, 9.262e-3
-1.933, 9.385e-3
-1.934, 9.515e-3
-1.935, 9.644e-3
-1.936, 9.764e-3
-1.937, 9.882e-3
-1.938, 1.000e-2
-1.939, 1.013e-2
-1.940, 1.026e-2
-1.941, 1.039e-2
-1.942, 1.052e-2
-1.943, 1.064e-2
-1.944, 1.076e-2
-1.945, 1.089e-2
-1.946, 1.102e-2
-1.947, 1.115e-2
-1.948, 1.129e-2
-1.949, 1.142e-2
-1.950, 1.154e-2
-1.951, 1.165e-2
-1.952, 1.177e-2
-1.953, 1.189e-2
-1.954, 1.201e-2
-1.955, 1.212e-2
-1.956, 1.224e-2
-1.957, 1.234e-2
-1.958, 1.246e-2
-1.959, 1.258e-2
-1.960, 1.271e-2
-1.961, 1.285e-2
-1.962, 1.299e-2
-1.963, 1.312e-2
-1.964, 1.324e-2
-1.965, 1.337e-2
-1.966, 1.350e-2
-1.967, 1.364e-2
-1.968, 1.378e-2
-1.969, 1.391e-2
-1.970, 1.403e-2
-1.971, 1.417e-2
-1.972, 1.430e-2
-1.973, 1.444e-2
-1.974, 1.457e-2
-1.975, 1.470e-2
-1.976, 1.482e-2
-1.977, 1.493e-2
-1.978, 1.505e-2
-1.979, 1.516e-2
-1.980, 1.528e-2
-1.981, 1.541e-2
-1.982, 1.553e-2
-1.983, 1.564e-2
-1.984, 1.574e-2
-1.985, 1.586e-2
-1.986, 1.597e-2
-1.987, 1.610e-2
-1.988, 1.622e-2
-1.989, 1.634e-2
-1.990, 1.645e-2
-1.991, 1.657e-2
-1.992, 1.668e-2
-1.993, 1.681e-2
-1.994, 1.693e-2
-1.995, 1.706e-2
-1.996, 1.717e-2
-1.997, 1.728e-2
-1.998, 1.739e-2
-1.999, 1.750e-2
-2.000, 1.756e-2
-1.999, 1.748e-2
-1.998, 1.740e-2
-1.997, 1.731e-2
-1.996, 1.720e-2
-1.995, 1.710e-2
-1.994, 1.701e-2
-1.993, 1.692e-2
-1.992, 1.683e-2
-1.991, 1.673e-2
-1.990, 1.662e-2
-1.989, 1.651e-2
-1.988, 1.640e-2
-1.987, 1.630e-2
-1.986, 1.621e-2
-1.985, 1.612e-2
-1.984, 1.602e-2
-1.983, 1.591e-2
-1.982, 1.581e-2
-1.981, 1.572e-2
-1.980, 1.563e-2
-1.979, 1.554e-2
-1.978, 1.544e-2
-1.977, 1.533e-2
-1.976, 1.522e-2
-1.975, 1.511e-2
-1.974, 1.501e-2
-1.973, 1.491e-2
-1.972, 1.481e-2
-1.971, 1.471e-2
-1.970, 1.460e-2
-1.969, 1.448e-2
-1.968, 1.438e-2
-1.967, 1.427e-2
-1.966, 1.418e-2
-1.965, 1.407e-2
-1.964, 1.397e-2
-1.963, 1.386e-2
-1.962, 1.375e-2
-1.961, 1.364e-2
-1.960, 1.355e-2
-1.959, 1.345e-2
-1.958, 1.336e-2
-1.957, 1.326e-2
-1.956, 1.315e-2
-1.955, 1.305e-2
-1.954, 1.296e-2
-1.953, 1.287e-2
-1.952, 1.279e-2
-1.951, 1.269e-2
-1.950, 1.260e-2
-1.949, 1.250e-2
-1.948, 1.240e-2
-1.947, 1.231e-2
-1.946, 1.223e-2
-1.945, 1.214e-2
-1.944, 1.206e-2
-1.943, 1.196e-2
-1.942, 1.186e-2
-1.941, 1.177e-2
-1.940, 1.169e-2
-1.939, 1.160e-2
-1.938, 1.150e-2
-1.937, 1.140e-2
-1.936, 1.129e-2
-1.935, 1.119e-2
-1.934, 1.110e-2
-1.933, 1.101e-2
-1.932, 1.092e-2
-1.931, 1.082e-2
-1.930, 1.073e-2
-1.929, 1.062e-2
-1.928, 1.053e-2
-1.927, 1.044e-2
-1.926, 1.036e-2
-1.925, 1.027e-2
-1.924, 1.018e-2
-1.923, 1.009e-2
-1.922, 1.000e-2
-1.921, 9.915e-3
-1.920, 9.841e-3
-1.919, 9.761e-3
-1.918, 9.684e-3
-1.917, 9.607e-3
-1.916, 9.524e-3
-1.915, 9.444e-3
-1.914, 9.370e-3
-1.913, 9.299e-3
-1.912, 9.225e-3
-1.911, 9.148e-3
-1.910, 9.064e-3
-1.909, 8.978e-3
-1.908, 8.895e-3
-1.907, 8.815e-3
-1.906, 8.738e-3
-1.905, 8.654e-3
-1.904, 8.568e-3
-1.903, 8.482e-3
-1.902, 8.395e-3
-1.901, 8.312e-3
-1.900, 8.232e-3
-1.899, 8.155e-3
-1.898, 8.078e-3
-1.897, 7.995e-3
-1.896, 7.911e-3
-1.895, 7.828e-3
-1.894, 7.748e-3
-1.893, 7.674e-3
-1.892, 7.600e-3
-1.891, 7.520e-3
-1.890, 7.437e-3
-1.889, 7.350e-3
-1.888, 7.264e-3
-1.887, 7.187e-3
-1.886, 7.113e-3
-1.885, 7.033e-3
-1.884, 6.949e-3
-1.883, 6.866e-3
-1.882, 6.780e-3
-1.881, 6.700e-3
-1.880, 6.623e-3
-1.879, 6.549e-3
-1.878, 6.475e-3
-1.877, 6.395e-3
-1.876, 6.311e-3
-1.875, 6.234e-3
-1.874, 6.163e-3
-1.873, 6.095e-3
-1.872, 6.028e-3
-1.871, 5.957e-3
-1.870, 5.883e-3
-1.869, 5.806e-3
-1.868, 5.738e-3
-1.867, 5.673e-3
-1.866, 5.605e-3
-1.865, 5.537e-3
-1.864, 5.467e-3
-1.863, 5.396e-3
-1.862, 5.325e-3
-1.861, 5.257e-3
-1.860, 5.195e-3
-1.859, 5.134e-3
-1.858, 5.069e-3
-1.857, 4.998e-3
-1.856, 4.927e-3
-1.855, 4.859e-3
-1.854, 4.794e-3
-1.853, 4.736e-3
-1.852, 4.677e-3
-1.851, 4.612e-3
-1.850, 4.545e-3
-1.849, 4.480e-3
-1.848, 4.415e-3
-1.847, 4.360e-3
-1.846, 4.304e-3
-1.845, 4.246e-3
-1.844, 4.187e-3
-1.843, 4.122e-3
-1.842, 4.061e-3
-1.841, 4.005e-3
-1.840, 3.950e-3
-1.839, 3.897e-3
-1.838, 3.845e-3
-1.837, 3.786e-3
-1.836, 3.728e-3
-1.835, 3.669e-3
-1.834, 3.620e-3
-1.833, 3.567e-3
-1.832, 3.518e-3
-1.831, 3.462e-3
-1.830, 3.407e-3
-1.829, 3.351e-3
-1.828, 3.299e-3
-1.827, 3.247e-3
-1.826, 3.200e-3
-1.825, 3.148e-3
-1.824, 3.099e-3
-1.823, 3.046e-3
-1.822, 2.994e-3
-1.821, 2.945e-3
-1.820, 2.901e-3
-1.819, 2.855e-3
-1.818, 2.809e-3
-1.817, 2.763e-3
-1.816, 2.713e-3
-1.815, 2.667e-3
-1.814, 2.624e-3
-1.813, 2.584e-3
-1.812, 2.541e-3
-1.811, 2.497e-3
-1.810, 2.454e-3
-1.809, 2.408e-3
-1.808, 2.365e-3
-1.807, 2.328e-3
-1.806, 2.291e-3
-1.805, 2.251e-3
-1.804, 2.211e-3
-1.803, 2.171e-3
-1.802, 2.128e-3
-1.801, 2.091e-3
-1.800, 2.054e-3
-1.799, 2.020e-3
-1.798, 1.983e-3
-1.797, 1.946e-3
-1.796, 1.906e-3
-1.795, 1.869e-3
-1.794, 1.838e-3
-1.793, 1.804e-3
-1.792, 1.773e-3
-1.791, 1.739e-3
-1.790, 1.705e-3
-1.789, 1.671e-3
-1.788, 1.637e-3
-1.787, 1.610e-3
-1.786, 1.579e-3
-1.785, 1.548e-3
-1.784, 1.517e-3
-1.783, 1.486e-3
-1.782, 1.455e-3
-1.781, 1.428e-3
-1.780, 1.403e-3
-1.779, 1.375e-3
-1.778, 1.347e-3
-1.777, 1.320e-3
-1.776, 1.292e-3
-1.775, 1.264e-3
-1.774, 1.240e-3
-1.773, 1.215e-3
-1.772, 1.193e-3
-1.771, 1.169e-3
-1.770, 1.144e-3
-1.769, 1.119e-3
-1.768, 1.095e-3
-1.767, 1.073e-3
-1.766, 1.051e-3
-1.765, 1.030e-3
-1.764, 1.008e-3
-1.763, 9.868e-4
-1.762, 9.652e-4
-1.761, 9.436e-4
-1.760, 9.251e-4
-1.759, 9.066e-4
-1.758, 8.881e-4
-1.757, 8.665e-4
-1.756, 8.480e-4
-1.755, 8.264e-4
-1.754, 8.110e-4
-1.753, 7.925e-4
-1.752, 7.771e-4
-1.751, 7.586e-4
-1.750, 7.401e-4
-1.749, 7.247e-4
-1.748, 7.093e-4
-1.747, 6.939e-4
-1.746, 6.784e-4
-1.745, 6.630e-4
-1.744, 6.476e-4
-1.743, 6.353e-4
-1.742, 6.199e-4
-1.741, 6.044e-4
-1.740, 5.921e-4
-1.739, 5.798e-4
-1.738, 5.674e-4
-1.737, 5.520e-4
-1.736, 5.397e-4
-1.735, 5.274e-4
-1.734, 5.150e-4
-1.733, 5.027e-4
-1.732, 4.935e-4
-1.731, 4.811e-4
-1.730, 4.719e-4
-1.729, 4.595e-4
-1.728, 4.472e-4
-1.727, 4.380e-4
-1.726, 4.287e-4
-1.725, 4.195e-4
-1.724, 4.071e-4
-1.723, 3.979e-4
-1.722, 3.886e-4
-1.721, 3.794e-4
-1.720, 3.732e-4
-1.719, 3.640e-4
-1.718, 3.547e-4
-1.717, 3.455e-4
-1.716, 3.362e-4
-1.715, 3.300e-4
-1.714, 3.208e-4
-1.713, 3.146e-4
-1.712, 3.085e-4
-1.711, 2.992e-4
-1.710, 2.931e-4
-1.709, 2.838e-4
-1.708, 2.776e-4
-1.707, 2.715e-4
-1.706, 2.653e-4
-1.705, 2.591e-4
-1.704, 2.530e-4
-1.703, 2.468e-4
-1.702, 2.406e-4
-1.701, 2.345e-4
-1.700, 2.314e-4
-1.699, 2.221e-4
-1.698, 2.191e-4
-1.697, 2.129e-4
-1.696, 2.067e-4
-1.695, 2.006e-4
-1.694, 1.975e-4
-1.693, 1.944e-4
-1.692, 1.882e-4
-1.691, 1.851e-4
-1.690, 1.790e-4
-1.689, 1.728e-4
-1.688, 1.697e-4
-1.687, 1.666e-4
-1.686, 1.636e-4
-1.685, 1.605e-4
-1.684, 1.543e-4
-1.683, 1.512e-4
-1.682, 1.481e-4
-1.681, 1.420e-4
-1.680, 1.389e-4
-1.679, 1.358e-4
-1.678, 1.327e-4
-1.677, 1.296e-4
-1.676, 1.266e-4
-1.675, 1.235e-4
-1.674, 1.204e-4
-1.673, 1.173e-4
-1.672, 1.142e-4
-1.671, 1.111e-4
-1.670, 1.081e-4
-1.669, 1.050e-4
-1.668, 1.050e-4
-1.667, 1.019e-4
-1.666, 9.882e-5
-1.665, 9.573e-5
-1.664, 9.573e-5
-1.663, 9.265e-5
-1.662, 8.957e-5
-1.661, 8.648e-5
-1.660, 8.648e-5
-1.659, 8.340e-5
-1.658, 8.032e-5
-1.657, 8.032e-5
-1.656, 7.723e-5
-1.655, 7.415e-5
-1.654, 7.415e-5
-1.653, 7.107e-5
-1.652, 7.107e-5
-1.651, 6.798e-5
-1.650, 6.798e-5
-1.649, 6.490e-5
-1.648, 6.182e-5
-1.647, 6.182e-5
-1.646, 5.873e-5
-1.645, 5.873e-5
-1.644, 5.873e-5
-1.643, 5.565e-5
-1.642, 5.565e-5
-1.641, 5.257e-5
-1.640, 5.257e-5
-1.639, 4.949e-5
-1.638, 4.949e-5
-1.637, 4.949e-5
-1.636, 4.640e-5
-1.635, 4.640e-5
-1.634, 4.332e-5
-1.633, 4.332e-5
-1.632, 4.332e-5
-1.631, 4.024e-5
-1.630, 4.024e-5
-1.629, 3.715e-5
-1.628, 3.715e-5
-1.627, 3.715e-5
-1.626, 3.715e-5
-1.625, 3.715e-5
-1.624, 3.407e-5
-1.623, 3.407e-5
-1.622, 3.099e-5
-1.621, 3.099e-5
-1.620, 3.099e-5
-1.619, 3.099e-5
-1.618, 3.099e-5
-1.617, 2.790e-5
-1.616, 2.790e-5
-1.615, 2.790e-5
-1.614, 2.790e-5
-1.613, 2.790e-5
-1.612, 2.482e-5
-1.611, 2.482e-5
-1.610, 2.482e-5
-1.609, 2.174e-5
-1.608, 2.174e-5
-1.607, 2.174e-5
-1.606, 2.174e-5
-1.605, 2.174e-5
-1.604, 2.174e-5
-1.603, 1.865e-5
-1.602, 1.865e-5
-1.601, 1.865e-5
-1.600, 1.865e-5
-1.599, 1.865e-5
-1.598, 1.865e-5
-1.597, 1.865e-5
-1.596, 1.557e-5
-1.595, 1.557e-5
-1.594, 1.557e-5
-1.593, 1.557e-5
-1.592, 1.557e-5
-1.591, 1.557e-5
-1.590, 1.557e-5
-1.589, 1.249e-5
-1.588, 1.249e-5
-1.587, 1.249e-5
-1.586, 1.249e-5
-1.585, 1.249e-5
-1.584, 1.249e-5
-1.583, 1.249e-5
-1.582, 1.249e-5
-1.581, 1.249e-5
-1.580, 1.249e-5
-1.579, 9.405e-6
-1.578, 9.405e-6
-1.577, 9.405e-6
-1.576, 9.405e-6
-1.575, 9.405e-6
-1.574, 9.405e-6
-1.573, 9.405e-6
-1.572, 9.405e-6
-1.571, 9.405e-6
-1.570, 9.405e-6
-1.569, 6.322e-6
-1.568, 9.405e-6
-1.567, 9.405e-6
-1.566, 9.405e-6
-1.565, 9.405e-6
-1.564, 6.322e-6
-1.563, 6.322e-6
-1.562, 6.322e-6
-1.561, 6.322e-6
-1.560, 6.322e-6
-1.559, 6.322e-6
-1.558, 6.322e-6
-1.557, 6.322e-6
-1.556, 6.322e-6
-1.555, 6.322e-6
-1.554, 6.322e-6
-1.553, 6.322e-6
-1.552, 3.239e-6
-1.551, 3.239e-6
-1.550, 6.322e-6
-1.549, 3.239e-6
-1.548, 3.239e-6
-1.547, 3.239e-6
-1.546, 3.239e-6
-1.545, 3.239e-6
-1.544, 3.239e-6
-1.543, 3.239e-6
-1.542, 3.239e-6
-1.541, 3.239e-6
-1.540, 3.239e-6
-1.539, 3.239e-6
-1.538, 3.239e-6
-1.537, 3.239e-6
-1.536, 3.239e-6
-1.535, 3.239e-6
-1.534, 3.239e-6
-1.533, 3.239e-6
-1.532, 3.239e-6
-1.531, 3.239e-6
-1.530, 3.239e-6
-1.529, 1.559e-7
-1.528, 3.239e-6
-1.527, 3.239e-6
-1.526, 3.239e-6
-1.525, 1.559e-7
-1.524, 1.559e-7
-1.523, 1.559e-7
-1.522, 1.559e-7
-1.521, 1.559e-7
-1.520, 1.559e-7
-1.519, 1.559e-7
-1.518, 1.559e-7
-1.517, 1.559e-7
-1.516, 1.559e-7
-1.515, 1.559e-7
-1.514, 1.559e-7
-1.513, 1.559e-7
-1.512, 1.559e-7
-1.511, 1.559e-7
-1.510, 1.559e-7
-1.509, 1.559e-7
-1.508, 1.559e-7
-1.507, 1.559e-7
-1.506, 1.559e-7
-1.505, 1.559e-7
-1.504, 1.559e-7
-1.503, 1.559e-7
-1.502, 1.559e-7
-1.501, 1.559e-7
-1.500, 1.559e-7
-1.499, 1.559e-7
-1.498, 1.559e-7
-1.497, 1.559e-7
-1.496, 1.559e-7
-1.495, -2.927e-6
-1.494, -2.927e-6
-1.493, 1.559e-7
-1.492, 1.559e-7
-1.491, 1.559e-7
-1.490, 1.559e-7
-1.489, 1.559e-7
-1.488, 1.559e-7
-1.487, 1.559e-7
-1.486, -2.927e-6
-1.485, 1.559e-7
-1.484, 1.559e-7
-1.483, -2.927e-6
-1.482, -2.927e-6
-1.481, -2.927e-6
-1.480, 1.559e-7
-1.479, 1.559e-7
-1.478, -2.927e-6
-1.477, -2.927e-6
-1.476, 1.559e-7
-1.475, -2.927e-6
-1.474, -2.927e-6
-1.473, 1.559e-7
-1.472, -2.927e-6
-1.471, -2.927e-6
-1.470, -2.927e-6
-1.469, -2.927e-6
-1.468, -2.927e-6
-1.467, -2.927e-6
-1.466, -2.927e-6
-1.465, 1.559e-7
-1.464, -2.927e-6
-1.463, -2.927e-6
-1.462, -2.927e-6
-1.461, -2.927e-6
-1.460, -2.927e-6
-1.459, -2.927e-6
-1.458, -2.927e-6
-1.457, -2.927e-6
-1.456, -2.927e-6
-1.455, -2.927e-6
-1.454, -2.927e-6
-1.453, -2.927e-6
-1.452, -2.927e-6
-1.451, -2.927e-6
-1.450, -2.927e-6
-1.449, -2.927e-6
-1.448, -2.927e-6
-1.447, -2.927e-6
-1.446, -2.927e-6
-1.445, -2.927e-6
-1.444, -2.927e-6
-1.443, -2.927e-6
-1.442, -2.927e-6
-1.441, -2.927e-6
-1.440, -2.927e-6
-1.439, -2.927e-6
-1.438, -2.927e-6
-1.437, -2.927e-6
-1.436, -2.927e-6
-1.435, -2.927e-6
-1.434, -2.927e-6
-1.433, -2.927e-6
-1.432, -2.927e-6
-1.431, -2.927e-6
-1.430, -2.927e-6
-1.429, -2.927e-6
-1.428, -2.927e-6
-1.427, -2.927e-6
-1.426, -2.927e-6
-1.425, -2.927e-6
-1.424, -2.927e-6
-1.423, -2.927e-6
-1.422, -2.927e-6
-1.421, -2.927e-6
-1.420, -2.927e-6
-1.419, -2.927e-6
-1.418, -2.927e-6
-1.417, -2.927e-6
-1.416, -2.927e-6
-1.415, -2.927e-6
-1.414, -2.927e-6
-1.413, -2.927e-6
-1.412, -2.927e-6
-1.411, -2.927e-6
-1.410, -2.927e-6
-1.409, -2.927e-6
-1.408, -2.927e-6
-1.407, -2.927e-6
-1.406, -2.927e-6
-1.405, -2.927e-6
-1.404, -2.927e-6
-1.403, -2.927e-6
-1.402, -2.927e-6
-1.401, -2.927e-6
-1.400, -2.927e-6
-1.399, -2.927e-6
-1.398, -2.927e-6
-1.397, -2.927e-6
-1.396, -2.927e-6
-1.395, -2.927e-6
-1.394, -2.927e-6
-1.393, -2.927e-6
-1.392, -2.927e-6
-1.391, -2.927e-6
-1.390, -2.927e-6
-1.389, -2.927e-6
-1.388, -2.927e-6
-1.387, -2.927e-6
-1.386, -2.927e-6
-1.385, -2.927e-6
-1.384, -2.927e-6
-1.383, -2.927e-6
-1.382, -2.927e-6
-1.381, -2.927e-6
-1.380, -2.927e-6
-1.379, -2.927e-6
-1.378, -2.927e-6
-1.377, -2.927e-6
-1.376, -2.927e-6
-1.375, -2.927e-6
-1.374, -2.927e-6
-1.373, -2.927e-6
-1.372, -2.927e-6
-1.371, -2.927e-6
-1.370, -2.927e-6
-1.369, -2.927e-6
-1.368, -6.010e-6
-1.367, -2.927e-6
-1.366, -2.927e-6
-1.365, -2.927e-6
-1.364, -2.927e-6
-1.363, -2.927e-6
-1.362, -2.927e-6
-1.361, -6.010e-6
-1.360, -2.927e-6
-1.359, -2.927e-6
-1.358, -2.927e-6
-1.357, -6.010e-6
-1.356, -2.927e-6
-1.355, -6.010e-6
-1.354, -2.927e-6
-1.353, -2.927e-6
-1.352, -2.927e-6
-1.351, -2.927e-6
-1.350, -2.927e-6
-1.349, -2.927e-6
-1.348, -2.927e-6
-1.347, -2.927e-6
-1.346, -2.927e-6
-1.345, -2.927e-6
-1.344, -2.927e-6
-1.343, -2.927e-6
-1.342, -2.927e-6
-1.341, -6.010e-6
-1.340, -2.927e-6
-1.339, -2.927e-6
-1.338, -2.927e-6
-1.337, -2.927e-6
-1.336, -2.927e-6
-1.335, -2.927e-6
-1.334, -2.927e-6
-1.333, -2.927e-6
-1.332, -6.010e-6
-1.331, -6.010e-6
-1.330, -2.927e-6
-1.329, -2.927e-6
-1.328, -6.010e-6
-1.327, -2.927e-6
-1.326, -6.010e-6
-1.325, -2.927e-6
-1.324, -2.927e-6
-1.323, -2.927e-6
-1.322, -6.010e-6
-1.321, -2.927e-6
-1.320, -2.927e-6
-1.319, -6.010e-6
-1.318, -2.927e-6
-1.317, -2.927e-6
-1.316, -6.010e-6
-1.315, -6.010e-6
-1.314, -2.927e-6
-1.313, -6.010e-6
-1.312, -6.010e-6
-1.311, -2.927e-6
-1.310, -6.010e-6
-1.309, -6.010e-6
-1.308, -6.010e-6
-1.307, -2.927e-6
-1.306, -6.010e-6
-1.305, -6.010e-6
-1.304, -6.010e-6
-1.303, -2.927e-6
-1.302, -2.927e-6
-1.301, -2.927e-6
-1.300, -2.927e-6
-1.299, -2.927e-6
-1.298, -6.010e-6
-1.297, -2.927e-6
-1.296, -2.927e-6
-1.295, -6.010e-6
-1.294, -2.927e-6
-1.293, -2.927e-6
-1.292, -2.927e-6
-1.291, -2.927e-6
-1.290, -2.927e-6
-1.289, -6.010e-6
-1.288, -6.010e-6
-1.287, -2.927e-6
-1.286, -6.010e-6
-1.285, -6.010e-6
-1.284, -6.010e-6
-1.283, -6.010e-6
-1.282, -6.010e-6
-1.281, -2.927e-6
-1.280, -6.010e-6
-1.279, -6.010e-6
-1.278, -6.010e-6
-1.277, -6.010e-6
-1.276, -2.927e-6
-1.275, -6.010e-6
-1.274, -6.010e-6
-1.273, -2.927e-6
-1.272, -2.927e-6
-1.271, -2.927e-6
-1.270, -6.010e-6
-1.269, -6.010e-6
-1.268, -6.010e-6
-1.267, -6.010e-6
-1.266, -6.010e-6
-1.265, -6.010e-6
-1.264, -2.927e-6
-1.263, -6.010e-6
-1.262, -6.010e-6
-1.261, -6.010e-6
-1.260, -6.010e-6
-1.259, -6.010e-6
-1.258, -6.010e-6
-1.257, -2.927e-6
-1.256, -6.010e-6
-1.255, -6.010e-6
-1.254, -2.927e-6
-1.253, -6.010e-6
-1.252, -6.010e-6
-1.251, -6.010e-6
-1.250, -6.010e-6
-1.249, -6.010e-6
-1.248, -6.010e-6
-1.247, -2.927e-6
-1.246, -6.010e-6
-1.245, -6.010e-6
-1.244, -6.010e-6
-1.243, -6.010e-6
-1.242, -6.010e-6
-1.241, -6.010e-6
-1.240, -6.010e-6
-1.239, -2.927e-6
-1.238, -6.010e-6
-1.237, -6.010e-6
-1.236, -6.010e-6
-1.235, -6.010e-6
-1.234, -6.010e-6
-1.233, -6.010e-6
-1.232, -6.010e-6
-1.231, -6.010e-6
-1.230, -6.010e-6
-1.229, -6.010e-6
-1.228, -6.010e-6
-1.227, -6.010e-6
-1.226, -6.010e-6
-1.225, -6.010e-6
-1.224, -6.010e-6
-1.223, -6.010e-6
-1.222, -6.010e-6
-1.221, -6.010e-6
-1.220, -6.010e-6
-1.219, -6.010e-6
-1.218, -6.010e-6
-1.217, -6.010e-6
-1.216, -6.010e-6
-1.215, -6.010e-6
-1.214, -6.010e-6
-1.213, -6.010e-6
-1.212, -6.010e-6
-1.211, -6.010e-6
-1.210, -6.010e-6
-1.209, -6.010e-6
-1.208, -6.010e-6
-1.207, -6.010e-6
-1.206, -6.010e-6
-1.205, -6.010e-6
-1.204, -6.010e-6
-1.203, -6.010e-6
-1.202, -6.010e-6
-1.201, -6.010e-6
-1.200, -6.010e-6
-1.199, -6.010e-6
-1.198, -6.010e-6
-1.197, -6.010e-6
-1.196, -6.010e-6
-1.195, -6.010e-6
-1.194, -6.010e-6
-1.193, -6.010e-6
-1.192, -6.010e-6
-1.191, -6.010e-6
-1.190, -6.010e-6
-1.189, -6.010e-6
-1.188, -6.010e-6
-1.187, -6.010e-6
-1.186, -6.010e-6
-1.185, -6.010e-6
-1.184, -6.010e-6
-1.183, -6.010e-6
-1.182, -6.010e-6
-1.181, -6.010e-6
-1.180, -6.010e-6
-1.179, -6.010e-6
-1.178, -6.010e-6
-1.177, -6.010e-6
-1.176, -6.010e-6
-1.175, -6.010e-6
-1.174, -6.010e-6
-1.173, -6.010e-6
-1.172, -6.010e-6
-1.171, -6.010e-6
-1.170, -6.010e-6
-1.169, -6.010e-6
-1.168, -6.010e-6
-1.167, -6.010e-6
-1.166, -6.010e-6
-1.165, -6.010e-6
-1.164, -6.010e-6
-1.163, -6.010e-6
-1.162, -6.010e-6
-1.161, -6.010e-6
-1.160, -6.010e-6
-1.159, -6.010e-6
-1.158, -6.010e-6
-1.157, -6.010e-6
-1.156, -6.010e-6
-1.155, -6.010e-6
-1.154, -6.010e-6
-1.153, -6.010e-6
-1.152, -6.010e-6
-1.151, -6.010e-6
-1.150, -6.010e-6
-1.149, -6.010e-6
-1.148, -6.010e-6
-1.147, -6.010e-6
-1.146, -6.010e-6
-1.145, -6.010e-6
-1.144, -6.010e-6
-1.143, -6.010e-6
-1.142, -6.010e-6
-1.141, -6.010e-6
-1.140, -6.010e-6
-1.139, -6.010e-6
-1.138, -6.010e-6
-1.137, -6.010e-6
-1.136, -6.010e-6
-1.135, -6.010e-6
-1.134, -6.010e-6
-1.133, -6.010e-6
-1.132, -6.010e-6
-1.131, -6.010e-6
-1.130, -6.010e-6
-1.129, -6.010e-6
-1.128, -6.010e-6
-1.127, -6.010e-6
-1.126, -6.010e-6
-1.125, -6.010e-6
-1.124, -6.010e-6
-1.123, -6.010e-6
-1.122, -6.010e-6
-1.121, -6.010e-6
-1.120, -6.010e-6
-1.119, -6.010e-6
-1.118, -6.010e-6
-1.117, -6.010e-6
-1.116, -6.010e-6
-1.115, -6.010e-6
-1.114, -6.010e-6
-1.113, -6.010e-6
-1.112, -6.010e-6
-1.111, -6.010e-6
-1.110, -6.010e-6
-1.109, -6.010e-6
-1.108, -6.010e-6
-1.107, -6.010e-6
-1.106, -6.010e-6
-1.105, -6.010e-6
-1.104, -9.093e-6
-1.103, -9.093e-6
-1.102, -6.010e-6
-1.101, -6.010e-6
-1.100, -6.010e-6
-1.099, -6.010e-6
-1.098, -6.010e-6
-1.097, -6.010e-6
-1.096, -9.093e-6
-1.095, -6.010e-6
-1.094, -6.010e-6
-1.093, -6.010e-6
-1.092, -6.010e-6
-1.091, -6.010e-6
-1.090, -6.010e-6
-1.089, -6.010e-6
-1.088, -9.093e-6
-1.087, -9.093e-6
-1.086, -9.093e-6
-1.085, -6.010e-6
-1.084, -9.093e-6
-1.083, -9.093e-6
-1.082, -9.093e-6
-1.081, -9.093e-6
-1.080, -6.010e-6
-1.079, -9.093e-6
-1.078, -9.093e-6
-1.077, -6.010e-6
-1.076, -9.093e-6
-1.075, -9.093e-6
-1.074, -9.093e-6
-1.073, -9.093e-6
-1.072, -9.093e-6
-1.071, -9.093e-6
-1.070, -6.010e-6
-1.069, -9.093e-6
-1.068, -9.093e-6
-1.067, -6.010e-6
-1.066, -9.093e-6
-1.065, -9.093e-6
-1.064, -9.093e-6
-1.063, -9.093e-6
-1.062, -9.093e-6
-1.061, -9.093e-6
-1.060, -9.093e-6
-1.059, -9.093e-6
-1.058, -9.093e-6
-1.057, -9.093e-6
-1.056, -9.093e-6
-1.055, -9.093e-6
-1.054, -9.093e-6
-1.053, -9.093e-6
-1.052, -9.093e-6
-1.051, -9.093e-6
-1.050, -9.093e-6
-1.049, -9.093e-6
-1.048, -9.093e-6
-1.047, -9.093e-6
-1.046, -9.093e-6
-1.045, -9.093e-6
-1.044, -9.093e-6
-1.043, -9.093e-6
-1.042, -9.093e-6
-1.041, -9.093e-6
-1.040, -9.093e-6
-1.039, -9.093e-6
-1.038, -9.093e-6
-1.037, -9.093e-6
-1.036, -9.093e-6
-1.035, -9.093e-6
-1.034, -9.093e-6
-1.033, -9.093e-6
-1.032, -9.093e-6
-1.031, -9.093e-6
-1.030, -9.093e-6
-1.029, -9.093e-6
-1.028, -9.093e-6
-1.027, -9.093e-6
-1.026, -9.093e-6
-1.025, -9.093e-6
-1.024, -9.093e-6
-1.023, -9.093e-6
-1.022, -9.093e-6
-1.021, -9.093e-6
-1.020, -9.093e-6
-1.019, -9.093e-6
-1.018, -9.093e-6
-1.017, -9.093e-6
-1.016, -9.093e-6
-1.015, -9.093e-6
-1.014, -9.093e-6
-1.013, -9.093e-6
-1.012, -1.218e-5
-1.011, -9.093e-6
-1.010, -1.218e-5
-1.009, -9.093e-6
-1.008, -9.093e-6
-1.007, -9.093e-6
-1.006, -1.218e-5
-1.005, -1.218e-5
-1.004, -1.218e-5
-1.003, -1.218e-5
-1.002, -1.218e-5
-1.001, -1.218e-5
