Dec. 20, 2024   01:16:50
Cyclic Voltammetry
File: c:/users/guazh/data/banditlqround7_x0exp667_r5/2024-12-16-exp706\exp706-2024-12-20t01_08_57-arkoh\exp706_cv_sr_600mvs_efin_-1400mv.bin
Data Source:  Experiment
Instrument Model:  CHI760E
Header: CV ran at 600 mVs
Note: 

Init E (V) = -1
High E (V) = -1
Low E (V) = -1.4
Final E (V) = -1
Init P/N = N
Scan Rate (V/s) = 0.6
Segment = 3
Sample Interval (V) = 0.001
Quiet Time (sec) = 2
Sensitivity (A/V) = 0.01
Comp R (ohm) = 1.3

Results:

Channel 1:
Segment 1:

Segment 2:

Segment 3:

Potential/V, Current/A

-1.000, 9.405e-6
-1.001, 5.565e-5
-1.002, 6.798e-5
-1.003, 7.723e-5
-1.004, 8.648e-5
-1.005, 9.573e-5
-1.006, 1.019e-4
-1.007, 1.081e-4
-1.008, 1.142e-4
-1.009, 1.204e-4
-1.010, 1.204e-4
-1.011, 1.235e-4
-1.012, 1.266e-4
-1.013, 1.296e-4
-1.014, 1.327e-4
-1.015, 1.389e-4
-1.016, 1.451e-4
-1.017, 1.512e-4
-1.018, 1.543e-4
-1.019, 1.574e-4
-1.020, 1.605e-4
-1.021, 1.636e-4
-1.022, 1.636e-4
-1.023, 1.666e-4
-1.024, 1.728e-4
-1.025, 1.790e-4
-1.026, 1.851e-4
-1.027, 1.913e-4
-1.028, 1.975e-4
-1.029, 2.006e-4
-1.030, 2.036e-4
-1.031, 2.067e-4
-1.032, 2.098e-4
-1.033, 2.129e-4
-1.034, 2.191e-4
-1.035, 2.252e-4
-1.036, 2.345e-4
-1.037, 2.376e-4
-1.038, 2.468e-4
-1.039, 2.499e-4
-1.040, 2.561e-4
-1.041, 2.591e-4
-1.042, 2.622e-4
-1.043, 2.653e-4
-1.044, 2.715e-4
-1.045, 2.776e-4
-1.046, 2.869e-4
-1.047, 2.961e-4
-1.048, 3.023e-4
-1.049, 3.085e-4
-1.050, 3.146e-4
-1.051, 3.146e-4
-1.052, 3.177e-4
-1.053, 3.239e-4
-1.054, 3.300e-4
-1.055, 3.393e-4
-1.056, 3.455e-4
-1.057, 3.578e-4
-1.058, 3.640e-4
-1.059, 3.701e-4
-1.060, 3.763e-4
-1.061, 3.794e-4
-1.062, 3.825e-4
-1.063, 3.886e-4
-1.064, 3.917e-4
-1.065, 4.010e-4
-1.066, 4.102e-4
-1.067, 4.195e-4
-1.068, 4.256e-4
-1.069, 4.318e-4
-1.070, 4.349e-4
-1.071, 4.380e-4
-1.072, 4.410e-4
-1.073, 4.472e-4
-1.074, 4.503e-4
-1.075, 4.595e-4
-1.076, 4.688e-4
-1.077, 4.750e-4
-1.078, 4.811e-4
-1.079, 4.873e-4
-1.080, 4.904e-4
-1.081, 4.935e-4
-1.082, 4.935e-4
-1.083, 4.965e-4
-1.084, 5.027e-4
-1.085, 5.089e-4
-1.086, 5.150e-4
-1.087, 5.243e-4
-1.088, 5.305e-4
-1.089, 5.366e-4
-1.090, 5.366e-4
-1.091, 5.366e-4
-1.092, 5.397e-4
-1.093, 5.397e-4
-1.094, 5.428e-4
-1.095, 5.489e-4
-1.096, 5.551e-4
-1.097, 5.613e-4
-1.098, 5.674e-4
-1.099, 5.705e-4
-1.100, 5.705e-4
-1.101, 5.705e-4
-1.102, 5.705e-4
-1.103, 5.705e-4
-1.104, 5.736e-4
-1.105, 5.767e-4
-1.106, 5.829e-4
-1.107, 5.890e-4
-1.108, 5.921e-4
-1.109, 5.952e-4
-1.110, 5.952e-4
-1.111, 5.952e-4
-1.112, 5.921e-4
-1.113, 5.921e-4
-1.114, 5.921e-4
-1.115, 5.983e-4
-1.116, 6.044e-4
-1.117, 6.075e-4
-1.118, 6.106e-4
-1.119, 6.137e-4
-1.120, 6.106e-4
-1.121, 6.106e-4
-1.122, 6.075e-4
-1.123, 6.075e-4
-1.124, 6.075e-4
-1.125, 6.106e-4
-1.126, 6.137e-4
-1.127, 6.199e-4
-1.128, 6.229e-4
-1.129, 6.260e-4
-1.130, 6.229e-4
-1.131, 6.199e-4
-1.132, 6.168e-4
-1.133, 6.137e-4
-1.134, 6.137e-4
-1.135, 6.168e-4
-1.136, 6.199e-4
-1.137, 6.229e-4
-1.138, 6.260e-4
-1.139, 6.291e-4
-1.140, 6.260e-4
-1.141, 6.229e-4
-1.142, 6.199e-4
-1.143, 6.168e-4
-1.144, 6.168e-4
-1.145, 6.199e-4
-1.146, 6.229e-4
-1.147, 6.229e-4
-1.148, 6.260e-4
-1.149, 6.260e-4
-1.150, 6.229e-4
-1.151, 6.199e-4
-1.152, 6.137e-4
-1.153, 6.106e-4
-1.154, 6.075e-4
-1.155, 6.106e-4
-1.156, 6.137e-4
-1.157, 6.137e-4
-1.158, 6.168e-4
-1.159, 6.137e-4
-1.160, 6.106e-4
-1.161, 6.044e-4
-1.162, 6.014e-4
-1.163, 5.952e-4
-1.164, 5.952e-4
-1.165, 5.952e-4
-1.166, 5.952e-4
-1.167, 5.983e-4
-1.168, 5.983e-4
-1.169, 5.952e-4
-1.170, 5.890e-4
-1.171, 5.859e-4
-1.172, 5.798e-4
-1.173, 5.736e-4
-1.174, 5.705e-4
-1.175, 5.736e-4
-1.176, 5.736e-4
-1.177, 5.736e-4
-1.178, 5.736e-4
-1.179, 5.705e-4
-1.180, 5.644e-4
-1.181, 5.582e-4
-1.182, 5.551e-4
-1.183, 5.459e-4
-1.184, 5.459e-4
-1.185, 5.459e-4
-1.186, 5.459e-4
-1.187, 5.459e-4
-1.188, 5.428e-4
-1.189, 5.397e-4
-1.190, 5.366e-4
-1.191, 5.305e-4
-1.192, 5.243e-4
-1.193, 5.181e-4
-1.194, 5.150e-4
-1.195, 5.150e-4
-1.196, 5.150e-4
-1.197, 5.150e-4
-1.198, 5.150e-4
-1.199, 5.120e-4
-1.200, 5.058e-4
-1.201, 5.027e-4
-1.202, 4.935e-4
-1.203, 4.904e-4
-1.204, 4.873e-4
-1.205, 4.873e-4
-1.206, 4.873e-4
-1.207, 4.873e-4
-1.208, 4.873e-4
-1.209, 4.842e-4
-1.210, 4.780e-4
-1.211, 4.750e-4
-1.212, 4.688e-4
-1.213, 4.626e-4
-1.214, 4.595e-4
-1.215, 4.595e-4
-1.216, 4.595e-4
-1.217, 4.626e-4
-1.218, 4.595e-4
-1.219, 4.565e-4
-1.220, 4.534e-4
-1.221, 4.472e-4
-1.222, 4.410e-4
-1.223, 4.380e-4
-1.224, 4.349e-4
-1.225, 4.349e-4
-1.226, 4.349e-4
-1.227, 4.349e-4
-1.228, 4.349e-4
-1.229, 4.349e-4
-1.230, 4.318e-4
-1.231, 4.225e-4
-1.232, 4.195e-4
-1.233, 4.133e-4
-1.234, 4.133e-4
-1.235, 4.133e-4
-1.236, 4.133e-4
-1.237, 4.133e-4
-1.238, 4.133e-4
-1.239, 4.133e-4
-1.240, 4.071e-4
-1.241, 4.010e-4
-1.242, 3.979e-4
-1.243, 3.917e-4
-1.244, 3.917e-4
-1.245, 3.917e-4
-1.246, 3.917e-4
-1.247, 3.948e-4
-1.248, 3.948e-4
-1.249, 3.917e-4
-1.250, 3.855e-4
-1.251, 3.794e-4
-1.252, 3.763e-4
-1.253, 3.732e-4
-1.254, 3.732e-4
-1.255, 3.732e-4
-1.256, 3.732e-4
-1.257, 3.763e-4
-1.258, 3.763e-4
-1.259, 3.732e-4
-1.260, 3.701e-4
-1.261, 3.640e-4
-1.262, 3.609e-4
-1.263, 3.578e-4
-1.264, 3.547e-4
-1.265, 3.578e-4
-1.266, 3.578e-4
-1.267, 3.609e-4
-1.268, 3.609e-4
-1.269, 3.578e-4
-1.270, 3.516e-4
-1.271, 3.485e-4
-1.272, 3.455e-4
-1.273, 3.424e-4
-1.274, 3.393e-4
-1.275, 3.424e-4
-1.276, 3.455e-4
-1.277, 3.455e-4
-1.278, 3.455e-4
-1.279, 3.455e-4
-1.280, 3.393e-4
-1.281, 3.362e-4
-1.282, 3.331e-4
-1.283, 3.300e-4
-1.284, 3.300e-4
-1.285, 3.300e-4
-1.286, 3.331e-4
-1.287, 3.362e-4
-1.288, 3.331e-4
-1.289, 3.331e-4
-1.290, 3.300e-4
-1.291, 3.270e-4
-1.292, 3.208e-4
-1.293, 3.208e-4
-1.294, 3.208e-4
-1.295, 3.239e-4
-1.296, 3.239e-4
-1.297, 3.270e-4
-1.298, 3.270e-4
-1.299, 3.239e-4
-1.300, 3.208e-4
-1.301, 3.177e-4
-1.302, 3.146e-4
-1.303, 3.146e-4
-1.304, 3.115e-4
-1.305, 3.146e-4
-1.306, 3.177e-4
-1.307, 3.208e-4
-1.308, 3.208e-4
-1.309, 3.208e-4
-1.310, 3.177e-4
-1.311, 3.146e-4
-1.312, 3.115e-4
-1.313, 3.115e-4
-1.314, 3.115e-4
-1.315, 3.115e-4
-1.316, 3.146e-4
-1.317, 3.177e-4
-1.318, 3.208e-4
-1.319, 3.177e-4
-1.320, 3.146e-4
-1.321, 3.115e-4
-1.322, 3.115e-4
-1.323, 3.115e-4
-1.324, 3.115e-4
-1.325, 3.146e-4
-1.326, 3.177e-4
-1.327, 3.208e-4
-1.328, 3.208e-4
-1.329, 3.239e-4
-1.330, 3.208e-4
-1.331, 3.177e-4
-1.332, 3.177e-4
-1.333, 3.177e-4
-1.334, 3.177e-4
-1.335, 3.239e-4
-1.336, 3.270e-4
-1.337, 3.300e-4
-1.338, 3.300e-4
-1.339, 3.331e-4
-1.340, 3.331e-4
-1.341, 3.331e-4
-1.342, 3.300e-4
-1.343, 3.331e-4
-1.344, 3.362e-4
-1.345, 3.393e-4
-1.346, 3.455e-4
-1.347, 3.516e-4
-1.348, 3.547e-4
-1.349, 3.578e-4
-1.350, 3.578e-4
-1.351, 3.578e-4
-1.352, 3.609e-4
-1.353, 3.640e-4
-1.354, 3.670e-4
-1.355, 3.763e-4
-1.356, 3.825e-4
-1.357, 3.917e-4
-1.358, 3.948e-4
-1.359, 4.010e-4
-1.360, 4.040e-4
-1.361, 4.102e-4
-1.362, 4.133e-4
-1.363, 4.225e-4
-1.364, 4.318e-4
-1.365, 4.410e-4
-1.366, 4.565e-4
-1.367, 4.688e-4
-1.368, 4.780e-4
-1.369, 4.935e-4
-1.370, 5.027e-4
-1.371, 5.150e-4
-1.372, 5.274e-4
-1.373, 5.459e-4
-1.374, 5.644e-4
-1.375, 5.859e-4
-1.376, 6.075e-4
-1.377, 6.322e-4
-1.378, 6.569e-4
-1.379, 6.815e-4
-1.380, 7.093e-4
-1.381, 7.339e-4
-1.382, 7.648e-4
-1.383, 7.987e-4
-1.384, 8.326e-4
-1.385, 8.758e-4
-1.386, 9.158e-4
-1.387, 9.621e-4
-1.388, 1.008e-3
-1.389, 1.058e-3
-1.390, 1.107e-3
-1.391, 1.159e-3
-1.392, 1.212e-3
-1.393, 1.273e-3
-1.394, 1.335e-3
-1.395, 1.403e-3
-1.396, 1.474e-3
-1.397, 1.548e-3
-1.398, 1.625e-3
-1.399, 1.705e-3
-1.400, 1.714e-3
-1.399, 1.674e-3
-1.398, 1.665e-3
-1.397, 1.665e-3
-1.396, 1.662e-3
-1.395, 1.662e-3
-1.394, 1.659e-3
-1.393, 1.656e-3
-1.392, 1.647e-3
-1.391, 1.637e-3
-1.390, 1.625e-3
-1.389, 1.613e-3
-1.388, 1.594e-3
-1.387, 1.579e-3
-1.386, 1.560e-3
-1.385, 1.545e-3
-1.384, 1.529e-3
-1.383, 1.514e-3
-1.382, 1.492e-3
-1.381, 1.471e-3
-1.380, 1.446e-3
-1.379, 1.425e-3
-1.378, 1.400e-3
-1.377, 1.375e-3
-1.376, 1.351e-3
-1.375, 1.329e-3
-1.374, 1.301e-3
-1.373, 1.280e-3
-1.372, 1.255e-3
-1.371, 1.230e-3
-1.370, 1.203e-3
-1.369, 1.175e-3
-1.368, 1.147e-3
-1.367, 1.116e-3
-1.366, 1.092e-3
-1.365, 1.067e-3
-1.364, 1.042e-3
-1.363, 1.018e-3
-1.362, 9.929e-4
-1.361, 9.652e-4
-1.360, 9.405e-4
-1.359, 9.097e-4
-1.358, 8.819e-4
-1.357, 8.573e-4
-1.356, 8.295e-4
-1.355, 8.110e-4
-1.354, 7.863e-4
-1.353, 7.648e-4
-1.352, 7.432e-4
-1.351, 7.185e-4
-1.350, 6.939e-4
-1.349, 6.692e-4
-1.348, 6.445e-4
-1.347, 6.229e-4
-1.346, 6.014e-4
-1.345, 5.829e-4
-1.344, 5.644e-4
-1.343, 5.489e-4
-1.342, 5.274e-4
-1.341, 5.089e-4
-1.340, 4.873e-4
-1.339, 4.657e-4
-1.338, 4.472e-4
-1.337, 4.287e-4
-1.336, 4.133e-4
-1.335, 3.979e-4
-1.334, 3.825e-4
-1.333, 3.701e-4
-1.332, 3.547e-4
-1.331, 3.393e-4
-1.330, 3.208e-4
-1.329, 3.054e-4
-1.328, 2.900e-4
-1.327, 2.746e-4
-1.326, 2.622e-4
-1.325, 2.499e-4
-1.324, 2.406e-4
-1.323, 2.314e-4
-1.322, 2.191e-4
-1.321, 2.067e-4
-1.320, 1.944e-4
-1.319, 1.821e-4
-1.318, 1.666e-4
-1.317, 1.574e-4
-1.316, 1.481e-4
-1.315, 1.420e-4
-1.314, 1.327e-4
-1.313, 1.266e-4
-1.312, 1.173e-4
-1.311, 1.081e-4
-1.310, 9.573e-5
-1.309, 8.648e-5
-1.308, 7.723e-5
-1.307, 6.798e-5
-1.306, 5.873e-5
-1.305, 5.565e-5
-1.304, 4.949e-5
-1.303, 4.640e-5
-1.302, 3.715e-5
-1.301, 3.099e-5
-1.300, 2.174e-5
-1.299, 1.557e-5
-1.298, 6.322e-6
-1.297, 1.559e-7
-1.296, -6.010e-6
-1.295, -9.093e-6
-1.294, -1.218e-5
-1.293, -1.526e-5
-1.292, -2.143e-5
-1.291, -2.451e-5
-1.290, -3.376e-5
-1.289, -3.992e-5
-1.288, -4.609e-5
-1.287, -4.917e-5
-1.286, -5.534e-5
-1.285, -5.534e-5
-1.284, -5.842e-5
-1.283, -6.151e-5
-1.282, -6.459e-5
-1.281, -6.767e-5
-1.280, -7.692e-5
-1.279, -8.309e-5
-1.278, -8.925e-5
-1.277, -9.234e-5
-1.276, -9.542e-5
-1.275, -9.542e-5
-1.274, -9.850e-5
-1.273, -9.850e-5
-1.272, -1.016e-4
-1.271, -1.047e-4
-1.270, -1.108e-4
-1.269, -1.170e-4
-1.268, -1.232e-4
-1.267, -1.232e-4
-1.266, -1.263e-4
-1.265, -1.263e-4
-1.264, -1.293e-4
-1.263, -1.293e-4
-1.262, -1.324e-4
-1.261, -1.355e-4
-1.260, -1.417e-4
-1.259, -1.448e-4
-1.258, -1.509e-4
-1.257, -1.509e-4
-1.256, -1.540e-4
-1.255, -1.540e-4
-1.254, -1.540e-4
-1.253, -1.540e-4
-1.252, -1.571e-4
-1.251, -1.602e-4
-1.250, -1.663e-4
-1.249, -1.694e-4
-1.248, -1.756e-4
-1.247, -1.787e-4
-1.246, -1.787e-4
-1.245, -1.787e-4
-1.244, -1.787e-4
-1.243, -1.787e-4
-1.242, -1.817e-4
-1.241, -1.848e-4
-1.240, -1.879e-4
-1.239, -1.941e-4
-1.238, -2.002e-4
-1.237, -2.002e-4
-1.236, -2.033e-4
-1.235, -2.033e-4
-1.234, -2.033e-4
-1.233, -2.002e-4
-1.232, -2.033e-4
-1.231, -2.064e-4
-1.230, -2.126e-4
-1.229, -2.187e-4
-1.228, -2.218e-4
-1.227, -2.249e-4
-1.226, -2.249e-4
-1.225, -2.249e-4
-1.224, -2.249e-4
-1.223, -2.249e-4
-1.222, -2.280e-4
-1.221, -2.280e-4
-1.220, -2.342e-4
-1.219, -2.403e-4
-1.218, -2.434e-4
-1.217, -2.465e-4
-1.216, -2.496e-4
-1.215, -2.496e-4
-1.214, -2.465e-4
-1.213, -2.465e-4
-1.212, -2.496e-4
-1.211, -2.496e-4
-1.210, -2.588e-4
-1.209, -2.619e-4
-1.208, -2.650e-4
-1.207, -2.681e-4
-1.206, -2.712e-4
-1.205, -2.712e-4
-1.204, -2.712e-4
-1.203, -2.681e-4
-1.202, -2.712e-4
-1.201, -2.742e-4
-1.200, -2.804e-4
-1.199, -2.866e-4
-1.198, -2.897e-4
-1.197, -2.927e-4
-1.196, -2.958e-4
-1.195, -2.927e-4
-1.194, -2.927e-4
-1.193, -2.927e-4
-1.192, -2.958e-4
-1.191, -2.989e-4
-1.190, -3.051e-4
-1.189, -3.082e-4
-1.188, -3.143e-4
-1.187, -3.143e-4
-1.186, -3.174e-4
-1.185, -3.174e-4
-1.184, -3.174e-4
-1.183, -3.174e-4
-1.182, -3.174e-4
-1.181, -3.205e-4
-1.180, -3.267e-4
-1.179, -3.328e-4
-1.178, -3.359e-4
-1.177, -3.390e-4
-1.176, -3.421e-4
-1.175, -3.421e-4
-1.174, -3.421e-4
-1.173, -3.390e-4
-1.172, -3.421e-4
-1.171, -3.452e-4
-1.170, -3.513e-4
-1.169, -3.544e-4
-1.168, -3.606e-4
-1.167, -3.637e-4
-1.166, -3.667e-4
-1.165, -3.667e-4
-1.164, -3.667e-4
-1.163, -3.637e-4
-1.162, -3.667e-4
-1.161, -3.698e-4
-1.160, -3.729e-4
-1.159, -3.791e-4
-1.158, -3.821e-4
-1.157, -3.883e-4
-1.156, -3.883e-4
-1.155, -3.883e-4
-1.154, -3.883e-4
-1.153, -3.883e-4
-1.152, -3.883e-4
-1.151, -3.914e-4
-1.150, -3.976e-4
-1.149, -4.006e-4
-1.148, -4.099e-4
-1.147, -4.099e-4
-1.146, -4.130e-4
-1.145, -4.130e-4
-1.144, -4.099e-4
-1.143, -4.099e-4
-1.142, -4.130e-4
-1.141, -4.130e-4
-1.140, -4.222e-4
-1.139, -4.253e-4
-1.138, -4.315e-4
-1.137, -4.346e-4
-1.136, -4.376e-4
-1.135, -4.376e-4
-1.134, -4.346e-4
-1.133, -4.346e-4
-1.132, -4.376e-4
-1.131, -4.407e-4
-1.130, -4.438e-4
-1.129, -4.500e-4
-1.128, -4.561e-4
-1.127, -4.592e-4
-1.126, -4.623e-4
-1.125, -4.623e-4
-1.124, -4.623e-4
-1.123, -4.592e-4
-1.122, -4.623e-4
-1.121, -4.654e-4
-1.120, -4.685e-4
-1.119, -4.746e-4
-1.118, -4.808e-4
-1.117, -4.839e-4
-1.116, -4.870e-4
-1.115, -4.870e-4
-1.114, -4.839e-4
-1.113, -4.839e-4
-1.112, -4.870e-4
-1.111, -4.901e-4
-1.110, -4.931e-4
-1.109, -4.993e-4
-1.108, -5.055e-4
-1.107, -5.086e-4
-1.106, -5.116e-4
-1.105, -5.116e-4
-1.104, -5.086e-4
-1.103, -5.086e-4
-1.102, -5.116e-4
-1.101, -5.147e-4
-1.100, -5.209e-4
-1.099, -5.240e-4
-1.098, -5.332e-4
-1.097, -5.332e-4
-1.096, -5.363e-4
-1.095, -5.363e-4
-1.094, -5.363e-4
-1.093, -5.332e-4
-1.092, -5.363e-4
-1.091, -5.394e-4
-1.090, -5.456e-4
-1.089, -5.517e-4
-1.088, -5.579e-4
-1.087, -5.579e-4
-1.086, -5.641e-4
-1.085, -5.610e-4
-1.084, -5.610e-4
-1.083, -5.610e-4
-1.082, -5.641e-4
-1.081, -5.671e-4
-1.080, -5.702e-4
-1.079, -5.764e-4
-1.078, -5.826e-4
-1.077, -5.856e-4
-1.076, -5.887e-4
-1.075, -5.918e-4
-1.074, -5.887e-4
-1.073, -5.887e-4
-1.072, -5.918e-4
-1.071, -5.949e-4
-1.070, -5.980e-4
-1.069, -6.041e-4
-1.068, -6.103e-4
-1.067, -6.134e-4
-1.066, -6.165e-4
-1.065, -6.165e-4
-1.064, -6.165e-4
-1.063, -6.165e-4
-1.062, -6.165e-4
-1.061, -6.195e-4
-1.060, -6.257e-4
-1.059, -6.319e-4
-1.058, -6.380e-4
-1.057, -6.411e-4
-1.056, -6.442e-4
-1.055, -6.442e-4
-1.054, -6.442e-4
-1.053, -6.442e-4
-1.052, -6.473e-4
-1.051, -6.504e-4
-1.050, -6.535e-4
-1.049, -6.596e-4
-1.048, -6.658e-4
-1.047, -6.720e-4
-1.046, -6.750e-4
-1.045, -6.750e-4
-1.044, -6.750e-4
-1.043, -6.750e-4
-1.042, -6.750e-4
-1.041, -6.812e-4
-1.040, -6.843e-4
-1.039, -6.905e-4
-1.038, -6.966e-4
-1.037, -7.028e-4
-1.036, -7.059e-4
-1.035, -7.059e-4
-1.034, -7.059e-4
-1.033, -7.059e-4
-1.032, -7.090e-4
-1.031, -7.090e-4
-1.030, -7.182e-4
-1.029, -7.244e-4
-1.028, -7.305e-4
-1.027, -7.336e-4
-1.026, -7.398e-4
-1.025, -7.398e-4
-1.024, -7.398e-4
-1.023, -7.398e-4
-1.022, -7.429e-4
-1.021, -7.460e-4
-1.020, -7.521e-4
-1.019, -7.583e-4
-1.018, -7.675e-4
-1.017, -7.706e-4
-1.016, -7.768e-4
-1.015, -7.768e-4
-1.014, -7.768e-4
-1.013, -7.768e-4
-1.012, -7.799e-4
-1.011, -7.830e-4
-1.010, -7.891e-4
-1.009, -7.984e-4
-1.008, -8.045e-4
-1.007, -8.107e-4
-1.006, -8.138e-4
-1.005, -8.169e-4
-1.004, -8.169e-4
-1.003, -8.169e-4
-1.002, -8.230e-4
-1.001, -8.261e-4
