Potential V vs RHE, Current mA cm-2
0.013299999999999867,0.09522421759391562
0.012299999999999978,0.08656618443874159
0.011299999999999866,0.0811195459342612
0.010299999999999976,0.07540411228280645
0.009299999999999864,0.07093362457523293
0.008299999999999974,0.06493524866380519
0.007299999999999862,0.06101649836317903
0.006299999999999972,0.05753630856551105
0.00529999999999986,0.05306582085793753
0.0042999999999999705,0.04930268880029653
0.0032999999999998586,0.046232765279589395
0.0022999999999999687,0.04176227757201588
0.0012999999999998568,0.036740052457495
0.00029999999999996696,0.03436333747372174
-0.000700000000000145,0.03171782734297412
-0.0017000000000000348,0.029341112359200863
-0.0027000000000001467,0.0269643973754276
-0.0037000000000000366,0.024729153521640842
-0.0047000000000001485,0.02124896372397285
-0.005700000000000038,0.019565457277133456
-0.00670000000000015,0.017754626813306213
-0.00770000000000004,0.013008270402259013
-0.008700000000000152,0.011892063186665499
-0.009700000000000042,0.010775855971071984
-0.010700000000000154,0.006308197686098199
-0.011700000000000044,0.004913292344431272
-0.012700000000000156,0.002819519620631018
-0.013700000000000045,0.0017033124050375042
-0.014700000000000157,-0.0029029875873230553
-0.015700000000000047,-0.0031816857133964674
-0.01670000000000016,-0.004019194802916569
-0.01770000000000005,-0.008346796669203717
-0.01870000000000016,-0.006950476616236925
-0.01970000000000005,-0.009881758429557281
-0.020700000000000163,-0.011138022063837433
-0.021700000000000053,-0.012534342116804225
-0.022700000000000164,-0.012953096661564276
-0.023700000000000054,-0.015321323377538347
-0.024700000000000166,-0.017556567231325104
-0.025700000000000056,-0.018249775768258973
-0.026700000000000168,-0.01950886882513886
-0.027700000000000058,-0.02272026347583249
-0.02870000000000017,-0.022437321215859483
-0.02970000000000006,-0.022168526068885124
-0.03070000000000017,-0.025648715866553113
-0.03170000000000006,-0.025238449589592253
-0.03270000000000017,-0.027332222313392506
-0.03370000000000006,-0.028860110517246747
-0.034700000000000175,-0.029977732444140127
-0.035700000000000065,-0.02969479018416712
-0.03670000000000018,-0.032637389687886396
-0.03770000000000007,-0.034731162411686646
-0.03870000000000018,-0.03375501161477978
-0.03970000000000007,-0.034731162411686646
-0.04070000000000018,-0.037235201412447766
-0.04170000000000007,-0.0369664062654734
-0.04270000000000018,-0.03765961480240728
-0.04370000000000007,-0.039328974136248016
-0.044700000000000184,-0.03891870785928716
-0.045700000000000074,-0.039894858656194035
-0.046700000000000186,-0.04058806719312791
-0.047700000000000076,-0.04351651958384853
-0.04870000000000019,-0.04225742652696864
-0.04970000000000008,-0.0443511992507689
-0.05070000000000019,-0.04756259390146254
-0.05170000000000008,-0.04910462921831542
-0.05270000000000019,-0.05650356931660957
-0.05370000000000008,-0.060959909911184426
-0.05470000000000019,-0.06110138104117093
-0.05570000000000008,-0.058031457520463806
-0.056700000000000195,-0.05510300512974318
-0.057700000000000085,-0.052584819015983414
-0.058700000000000196,-0.0502222511452088
-0.059700000000000086,-0.05203308160903605
-0.0607000000000002,-0.05133987307210218
-0.06170000000000009,-0.05189161047904954
-0.0627000000000002,-0.052584819015983414
-0.06370000000000009,-0.05329217466591593
-0.0647000000000002,-0.053433645795902436
-0.06570000000000009,-0.054820062869770175
-0.0667000000000002,-0.05622062705663656
-0.0677000000000001,-0.05538594738971618
-0.0687000000000002,-0.05496153399975667
-0.0697000000000001,-0.056362098186623064
-0.07070000000000021,-0.05762119124350294
-0.0717000000000001,-0.055796213666677044
-0.07270000000000021,-0.05873881317039633
-0.0737000000000001,-0.057479720113516444
-0.07470000000000021,-0.05886613718738417
-0.0757000000000001,-0.0598564350972897
-0.07670000000000021,-0.05998375911427755
-0.0777000000000001,-0.060832585894196586
-0.07870000000000021,-0.060959909911184426
-0.0797000000000001,-0.062360474098050823
-0.08070000000000022,-0.06221900296806432
-0.0817000000000001,-0.06278488748801032
-0.08270000000000022,-0.06445424682185108
-0.08370000000000011,-0.06333662489495769
-0.08470000000000022,-0.06514745535878494
-0.08570000000000011,-0.06292635861799684
-0.08670000000000022,-0.06305368263498468
-0.08770000000000011,-0.06543039761875795
-0.08870000000000022,-0.06502013134179709
-0.08970000000000011,-0.06612360615569181
-0.09070000000000022,-0.06459571795183758
-0.09170000000000011,-0.06543039761875795
-0.09270000000000023,-0.06612360615569181
-0.09370000000000012,-0.06514745535878494
-0.09470000000000023,-0.06711390406559734
-0.09570000000000012,-0.06780711260253121
-0.09670000000000023,-0.0676656414725447
-0.09770000000000012,-0.06864179226945158
-0.09870000000000023,-0.0673826992125717
-0.09970000000000012,-0.06809005486250422
-0.10070000000000023,-0.06780711260253121
-0.10170000000000012,-0.06711390406559734
-0.10270000000000024,-0.06892473452942459
-0.10370000000000013,-0.06864179226945158
-0.10470000000000024,-0.06975941419634496
-0.10570000000000013,-0.06892473452942459
-0.10670000000000024,-0.06933500080638545
-0.10770000000000013,-0.0690662056594111
-0.10870000000000024,-0.06947647193637195
-0.10970000000000013,-0.06990088532633146
-0.11070000000000024,-0.07130144951319785
-0.11170000000000013,-0.07087703612323834
-0.11270000000000002,-0.07227760031010473
-0.11370000000000013,-0.07185318692014521
-0.11470000000000002,-0.0732537511070116
-0.11570000000000014,-0.07282933771705208
-0.11670000000000003,-0.0717117157901587
-0.11770000000000014,-0.07282933771705208
-0.11870000000000003,-0.07240492432709257
-0.11970000000000014,-0.0732537511070116
-0.12070000000000003,-0.0733952222369981
-0.12170000000000014,-0.07227760031010473
-0.12270000000000003,-0.07394695964394547
-0.12370000000000014,-0.07408843077393197
-0.12470000000000003,-0.07520605270082535
-0.12570000000000014,-0.07464016818087933
-0.12670000000000003,-0.07534752383081185
-0.12770000000000015,-0.07548899496079836
-0.12870000000000004,-0.07534752383081185
-0.12970000000000015,-0.07437137303390498
-0.13070000000000004,-0.0756163189777862
-0.13170000000000015,-0.07408843077393197
-0.13270000000000004,-0.0767339409046796
-0.13370000000000015,-0.07548899496079836
-0.13470000000000004,-0.07575779010777271
-0.13570000000000015,-0.07646514575770523
-0.13670000000000004,-0.0768754120346661
-0.13770000000000016,-0.07534752383081185
-0.13870000000000005,-0.0765924697746931
-0.13970000000000016,-0.07534752383081185
-0.14070000000000005,-0.0772998254246256
-0.14170000000000016,-0.07646514575770523
-0.14270000000000005,-0.07646514575770523
-0.14370000000000016,-0.0756163189777862
-0.14470000000000005,-0.07701688316465259
-0.14570000000000016,-0.07756862057159995
-0.14670000000000005,-0.07646514575770523
-0.14770000000000016,-0.0774412965546121
-0.14870000000000005,-0.07632367462771873
-0.14970000000000017,-0.07575779010777271
-0.15070000000000006,-0.0771583542946391
-0.15170000000000017,-0.07785156283157296
-0.15270000000000006,-0.0774412965546121
-0.15370000000000017,-0.07799303396155947
-0.15470000000000006,-0.07855891848150548
-0.15570000000000017,-0.07799303396155947
-0.15670000000000006,-0.07827597622153248
-0.15770000000000017,-0.07785156283157296
-0.15870000000000006,-0.07771009170158645
-0.15970000000000018,-0.0768754120346661
-0.16070000000000007,-0.07813450509154597
-0.16170000000000018,-0.07756862057159995
-0.16270000000000007,-0.07771009170158645
-0.16370000000000018,-0.0756163189777862
-0.16470000000000007,-0.0774412965546121
-0.16570000000000018,-0.07799303396155947
-0.16670000000000007,-0.07855891848150548
-0.16770000000000018,-0.07868624249849335
-0.16870000000000007,-0.07604073236774572
-0.16970000000000018,-0.07882771362847985
-0.17070000000000007,-0.07882771362847985
-0.17170000000000019,-0.07771009170158645
-0.17270000000000008,-0.08022827781534624
-0.1737000000000002,-0.07868624249849335
-0.17470000000000008,-0.07953506927841236
-0.1757000000000002,-0.08022827781534624
-0.17670000000000008,-0.07980386442538671
-0.1777000000000002,-0.0813458997422396
-0.17870000000000008,-0.07925212701843935
-0.1797000000000002,-0.07980386442538671
-0.18070000000000008,-0.08051122007531925
-0.1817000000000002,-0.07827597622153248
-0.18270000000000008,-0.07994533555537323
-0.1837000000000002,-0.07966239329540022
-0.1847000000000001,-0.08051122007531925
-0.1857000000000002,-0.07980386442538671
-0.1867000000000001,-0.0813458997422396
-0.1877000000000002,-0.08162884200221261
-0.1887000000000001,-0.07953506927841236
-0.1897000000000002,-0.08051122007531925
-0.1907000000000001,-0.08175616601920047
-0.1917000000000001,-0.08162884200221261
-0.19269999999999998,-0.08232205053914649
-0.1937000000000001,-0.0809214863522801
-0.19469999999999998,-0.08246352166913298
-0.1957000000000001,-0.0812044286122531
-0.19669999999999999,-0.08274646392910599
-0.1977000000000001,-0.08315673020606687
-0.1987,-0.08343967246603987
-0.1997000000000001,-0.08441582326294673
-0.2007,-0.08301525907608036
-0.2017000000000001,-0.08218057940915997
-0.2027,-0.08399140987298723
-0.2037000000000001,-0.08287378794609385
-0.2047,-0.08315673020606687
-0.2057000000000001,-0.08399140987298723
-0.2067,-0.08274646392910599
-0.2077000000000001,-0.08189763714918698
-0.2087,-0.08287378794609385
-0.2097000000000001,-0.08246352166913298
-0.2107,-0.0826049927991195
-0.2117000000000001,-0.0812044286122531
-0.2127,-0.08287378794609385
-0.2137000000000001,-0.08189763714918698
-0.2147,-0.08343967246603987
-0.2157000000000001,-0.08594371146680099
-0.2167,-0.08441582326294673
-0.21770000000000012,-0.08594371146680099
-0.2187,-0.08329820133605337
-0.21970000000000012,-0.08539197405985362
-0.2207,-0.08525050292986712
-0.22170000000000012,-0.08469876552291973
-0.2227,-0.08484023665290626
-0.22370000000000012,-0.08608518259678749
-0.2247,-0.0863681248567605
-0.22570000000000012,-0.086509595986747
-0.2267,-0.08510903179988061
-0.22770000000000012,-0.08608518259678749
-0.22870000000000001,-0.08484023665290626
-0.22970000000000013,-0.08679253824672
-0.23070000000000002,-0.0863681248567605
-0.23170000000000013,-0.08525050292986712
-0.23270000000000002,-0.0863681248567605
-0.23370000000000013,-0.08484023665290626
-0.23470000000000002,-0.08581638744981313
-0.23570000000000013,-0.08622665372677399
-0.23670000000000002,-0.0866510671167335
-0.2376999999999999,-0.08734427565366736
-0.23870000000000002,-0.08679253824672
-0.2396999999999999,-0.08791016017361337
-0.24070000000000003,-0.08791016017361337
-0.24169999999999991,-0.08608518259678749
-0.24270000000000003,-0.08791016017361337
-0.24369999999999992,-0.08832042645057424
-0.24470000000000003,-0.08803748419060124
-0.24569999999999992,-0.08776868904362688
-0.24670000000000003,-0.08817895532058774
-0.24769999999999992,-0.08874483984053375
-0.24870000000000003,-0.08706133339369435
-0.24969999999999992,-0.08803748419060124
-0.25070000000000003,-0.08762721791364038
-0.2516999999999999,-0.08720280452368086
-0.25270000000000004,-0.09027272804438799
-0.2536999999999999,-0.08986246176742714
-0.25470000000000004,-0.08957951950745412
-0.2556999999999999,-0.08915510611749461
-0.25670000000000004,-0.09000393289741364
-0.25769999999999993,-0.09124887884129487
-0.25870000000000004,-0.08832042645057424
-0.25969999999999993,-0.08915510611749461
-0.26070000000000004,-0.08929657724748112
-0.26169999999999993,-0.08791016017361337
-0.26270000000000004,-0.08832042645057424
-0.26369999999999993,-0.09000393289741364
-0.26470000000000005,-0.08943804837746762
-0.26569999999999994,-0.09013125691440148
-0.26670000000000005,-0.0904141991743745
-0.26769999999999994,-0.09139034997128137
-0.26870000000000005,-0.09098008369432051
-0.26969999999999994,-0.09195623449122738
-0.27070000000000005,-0.08972099063744063
-0.27169999999999994,-0.09098008369432051
-0.27270000000000005,-0.0906971414343475
-0.27369999999999994,-0.09110740771130836
-0.27470000000000006,-0.09167329223125438
-0.27569999999999995,-0.09124887884129487
-0.27670000000000006,-0.09236650076818824
-0.27769999999999995,-0.09293238528813427
-0.27870000000000006,-0.090838612564334
-0.27969999999999995,-0.09139034997128137
-0.28070000000000006,-0.09279091415814776
-0.28169999999999995,-0.09181476336124088
-0.28270000000000006,-0.09320118043510862
-0.28369999999999995,-0.09279091415814776
-0.28470000000000006,-0.09250797189817477
-0.28569999999999995,-0.09293238528813427
-0.28670000000000007,-0.09293238528813427
-0.28769999999999996,-0.09376706495505463
-0.28870000000000007,-0.09307385641812077
-0.28969999999999996,-0.09293238528813427
-0.29070000000000007,-0.09529495315890889
-0.29169999999999996,-0.09362559382506812
-0.29270000000000007,-0.094601744621975
-0.29369999999999996,-0.09431880236200199
-0.2947000000000001,-0.0944602734919885
-0.29569999999999996,-0.09488468688194801
-0.2967000000000001,-0.09557789541888188
-0.29769999999999996,-0.0947432157519615
-0.2987000000000001,-0.09431880236200199
-0.29969999999999997,-0.094601744621975
-0.3007000000000001,-0.09600230880884139
-0.30169999999999997,-0.09557789541888188
-0.3027000000000001,-0.09711993073573477
-0.30369999999999997,-0.09419147834501414
-0.3047000000000001,-0.0958608376788549
-0.30569999999999997,-0.09655404621578875
-0.3067000000000001,-0.09669551734577525
-0.3077,-0.09641257508580224
-0.3087000000000001,-0.09697845960574826
-0.3097,-0.09669551734577525
-0.3107000000000001,-0.09809608153264164
-0.3117,-0.09600230880884139
-0.3127000000000001,-0.09809608153264164
-0.3137,-0.09781313927266864
-0.3147000000000001,-0.09850634780960252
-0.3157,-0.09837902379261465
-0.3167000000000001,-0.09878929006957551
-0.3177,-0.10214215585025564
-0.3187000000000001,-0.10074159166338927
-0.3197,-0.1003313253864284
-0.3207000000000001,-0.10116600505334877
-0.3217,-0.10116600505334877
-0.3227000000000001,-0.10214215585025564
-0.3237,-0.10102453392336228
-0.3247000000000001,-0.10354272003712203
-0.3257,-0.10325977777714902
-0.3267000000000001,-0.10171774246029613
-0.3277,-0.10325977777714902
-0.3287000000000001,-0.10297683551717601
-0.3297,-0.10242509811022867
-0.3307000000000001,-0.1038115151840964
-0.3317,-0.10618823016786964
-0.3327000000000001,-0.10647117242784265
-0.3337,-0.1056364927609223
-0.3347000000000001,-0.10647117242784265
-0.3357,-0.1040944574440694
-0.3367000000000001,-0.10437739970404242
-0.3377,-0.10478766598100327
-0.3387000000000001,-0.10521207937096277
-0.3397,-0.10673996757481702
-0.3407000000000001,-0.10590528790789665
-0.3417,-0.1079990606316969
-0.3427000000000001,-0.10856494515164292
-0.3437,-0.10842347402165642
-0.3447000000000001,-0.10911668255859029
-0.3457,-0.11037577561547016
-0.3467000000000001,-0.10925815368857679
-0.3477,-0.11204513494931091
-0.3487000000000001,-0.11135192641237703
-0.3497,-0.11092751302241752
-0.3507000000000001,-0.11135192641237703
-0.3517,-0.11218660607929741
-0.3527000000000001,-0.1135871702661638
-0.3537,-0.1134456991361773
-0.3547000000000001,-0.11289396172922993
-0.3557,-0.11302128574621777
-0.35670000000000013,-0.11442184993308416
-0.3577,-0.11498773445303019
-0.35870000000000013,-0.11553947185997754
-0.3597,-0.11665709378687093
-0.36070000000000013,-0.11609120926692493
-0.3617,-0.11679856491685743
-0.3626999999999999,-0.11805765797373731
-0.3637,-0.11805765797373731
-0.3646999999999999,-0.11860939538068467
-0.3657,-0.11944407504760506
-0.3666999999999999,-0.11958554617759155
-0.3677,-0.12098611036445794
-0.3686999999999999,-0.12112758149444444
-0.36970000000000003,-0.12419750501515157
-0.3706999999999999,-0.12349014936521906
-0.37170000000000003,-0.12433897614513807
-0.3726999999999999,-0.12503218468207195
-0.37370000000000003,-0.12391456275517856
-0.3746999999999999,-0.12614980660896533
-0.37570000000000003,-0.1274088996658452
-0.3766999999999999,-0.1265600728859262
-0.37770000000000004,-0.12781916594280607
-0.3786999999999999,-0.12907825899968592
-0.37970000000000004,-0.1299129386666063
-0.3806999999999999,-0.1299129386666063
-0.38170000000000004,-0.13186524026042007
-0.38269999999999993,-0.13410048411420683
-0.38370000000000004,-0.1327140670403391
-0.38469999999999993,-0.1352181060411002
-0.38570000000000004,-0.1355010483010732
-0.38669999999999993,-0.1366186702279666
-0.38770000000000004,-0.1366186702279666
-0.38869999999999993,-0.1394056514887007
-0.38970000000000005,-0.1367601413579531
-0.39069999999999994,-0.13885391408175335
-0.39170000000000005,-0.13983006487866023
-0.39269999999999994,-0.14108915793554008
-0.39370000000000005,-0.14175407224647668
-0.39469999999999994,-0.1424614278964092
-0.39570000000000005,-0.14514937936615277
-0.39669999999999994,-0.14444202371622025
-0.39770000000000005,-0.14712997518596382
-0.39869999999999994,-0.1465640906660178
-0.39970000000000006,-0.1467055617960043
-0.40069999999999995,-0.14854468648582883
-0.40170000000000006,-0.1498179266557074
-0.40269999999999995,-0.1503838111756534
-0.40370000000000006,-0.15193999360550495
-0.40469999999999995,-0.15293029151541046
-0.40570000000000006,-0.154203531685289
-0.40669999999999995,-0.15307176264539696
-0.40770000000000006,-0.1574573676749786
-0.40869999999999995,-0.1574573676749786
-0.40970000000000006,-0.15689148315503257
-0.41069999999999995,-0.16071120366466815
-0.41170000000000007,-0.16071120366466815
-0.41269999999999996,-0.16396503965435774
-0.41370000000000007,-0.1625503283544927
-0.41469999999999996,-0.1655212220842093
-0.41570000000000007,-0.16509680869424978
-0.41669999999999996,-0.1667944622540878
-0.41770000000000007,-0.16905800033387192
-0.41869999999999996,-0.16707740451406086
-0.4197000000000001,-0.1696238848538179
-0.42069999999999996,-0.1728777208435075
-0.4217000000000001,-0.17415096101338604
-0.42269999999999996,-0.17584861457322407
-0.4237000000000001,-0.17584861457322407
-0.42469999999999997,-0.1771218547431026
-0.4257000000000001,-0.17910245056291366
-0.42669999999999997,-0.18009274847281917
-0.4277000000000001,-0.18150745977268423
-0.42869999999999997,-0.18150745977268423
-0.4297000000000001,-0.1847612957623738
-0.43069999999999997,-0.18660042045219835
-0.4317000000000001,-0.18716630497214437
-0.4327,-0.19027866983184744
-0.4337000000000001,-0.19056161209182043
-0.4347,-0.19126896774175295
-0.4357000000000001,-0.1936739769515235
-0.4367,-0.19551310164134805
-0.4377000000000001,-0.19692781294121312
-0.4387,-0.19890840876102414
-0.4397000000000001,-0.2008890045808352
-0.4407,-0.2011719468408082
-0.4417000000000001,-0.20216224475071373
-0.4427,-0.20329401379060577
-0.4437000000000001,-0.20598196526034934
-0.4447,-0.20838697447011992
-0.4457000000000001,-0.2088113878600794
-0.4467,-0.21121639706985
-0.4477000000000001,-0.21347993514963404
-0.4487,-0.21362140627962053
-0.4497000000000001,-0.21744112678925615
-0.4507,-0.21786554017921567
-0.4517000000000001,-0.22012907825899972
-0.4527,-0.22196820294882427
-0.4537000000000001,-0.22366585650866228
-0.4547,-0.22649527910839237
-0.4557000000000001,-0.2273441058883114
-0.4567,-0.22875881718817642
-0.4577000000000001,-0.23031499961802795
-0.4587,-0.2321541243078525
-0.4597000000000001,-0.2359738448174881
-0.4607,-0.23809591176728565
-0.4617000000000001,-0.23908620967719119
-0.4627,-0.24064239210704275
-0.4637000000000001,-0.24347181470677282
-0.4647,-0.24573535278655687
-0.4657000000000001,-0.25096978459605745
-0.4667,-0.2521015536359495
-0.4677000000000001,-0.25295038041586854
-0.4687,-0.2515356691160035
-0.4697000000000001,-0.2571945143154637
-0.4707,-0.2628533595149239
-0.4717000000000001,-0.2617215904750318
-0.4727,-0.2661071955046134
-0.4737000000000001,-0.2661071955046134
-0.4747,-0.26851220471438403
-0.4757000000000001,-0.26907808923433
-0.4767,-0.2737466365238846
-0.4777000000000001,-0.28294225997300737
-0.4787,-0.27898106833338526
-0.4797000000000001,-0.28322520223298037
-0.4807,-0.28294225997300737
-0.48170000000000013,-0.2854887403127644
-0.4827,-0.288742576302454
-0.48370000000000013,-0.2921378834221301
-0.4847,-0.2941184792419411
-0.48570000000000013,-0.2946843637618871
-0.4867,-0.29807967088156323
-0.4876999999999999,-0.3007676223513068
