Potential V vs RHE, Current mA cm-2
0.013299999999999867,35.594136304604326
0.012299999999999978,32.368594540912035
0.011299999999999866,28.56302114427509
0.010299999999999976,23.894473854720466
0.009299999999999864,20.75381476902009
0.008299999999999974,17.924392169290012
0.007299999999999862,16.877505807389888
0.006299999999999972,17.047271163373694
0.00529999999999986,17.797068152302163
0.0042999999999999705,19.49472171214021
0.0032999999999998586,19.70692840711996
0.0022999999999999687,19.1834852261699
0.0012999999999998568,17.316066310348052
0.00029999999999996696,14.217848563643619
-0.000700000000000145,10.727755786876573
-0.0017000000000000348,6.75807587945528
-0.0027000000000001467,3.7051288943465317
-0.0037000000000000366,2.0909433012005243
-0.0047000000000001485,1.349917522331218
-0.005700000000000038,1.9607898616129409
-0.00670000000000015,2.963820173217252
-0.00770000000000004,4.01070653511738
-0.008700000000000152,4.6218618166590755
-0.009700000000000042,3.5749754547589476
-0.010700000000000154,1.6113561705462767
-0.011700000000000044,-1.3107300193249565
-0.012700000000000156,-5.0618370309171015
-0.013700000000000045,-8.070927965730034
-0.014700000000000157,-10.775855971071984
-0.015700000000000047,-11.82274233297211
-0.01670000000000016,-11.691174182084664
-0.01770000000000005,-11.123874950838783
-0.01870000000000016,-9.467248018696827
-0.01970000000000005,-8.85609273715513
-0.020700000000000163,-8.332649556205066
-0.021700000000000053,-9.772825659467674
-0.022700000000000164,-12.346185513922174
-0.023700000000000054,-15.533530072518102
-0.024700000000000166,-19.636192842126707
-0.025700000000000056,-22.253408746877028
-0.026700000000000168,-24.64427084364894
-0.027700000000000058,-25.210155363594954
-0.02870000000000017,-24.686712182644893
-0.02970000000000006,-23.639825820744765
-0.03070000000000017,-21.58849443594046
-0.03170000000000006,-21.248963723972853
-0.03270000000000017,-21.418729079956652
-0.03370000000000006,-23.031499961802798
-0.034700000000000175,-25.86092256153287
-0.035700000000000065,-29.100611438223805
-0.03670000000000018,-32.892037721862096
-0.03770000000000007,-35.721460321592176
-0.03870000000000018,-36.99470049147071
-0.03970000000000007,-37.376672542434264
-0.04070000000000018,-36.37222751953009
-0.04170000000000007,-34.94336910666641
-0.04270000000000018,-33.627687597791926
-0.04370000000000007,-32.764713704874254
-0.044700000000000184,-33.85404140577033
-0.045700000000000074,-35.763901660588125
-0.046700000000000186,-38.734795390304704
-0.047700000000000076,-42.526221673943
-0.04870000000000019,-45.53955674265553
-0.04970000000000008,-48.24165532539775
-0.05070000000000019,-48.97730520132757
-0.05170000000000008,-48.55289181136806
-0.05270000000000019,-47.590888127459834
-0.05370000000000008,-45.45467406466363
-0.05470000000000019,-44.66243573673921
-0.05570000000000008,-43.88434452181344
-0.056700000000000195,-45.32735004767578
-0.057700000000000085,-47.93041883942744
-0.058700000000000196,-50.98619524713592
-0.059700000000000086,-55.25862337272834
-0.0607000000000002,-57.70607392149485
-0.06170000000000009,-59.9696120012789
-0.0627000000000002,-60.36573116524111
-0.06370000000000009,-59.54519861131939
-0.0647000000000002,-58.22951710244491
-0.06570000000000009,-55.9235376836649
-0.0667000000000002,-55.357653163718886
-0.0677000000000001,-55.357653163718886
-0.0687000000000002,-56.927982706569075
-0.0697000000000001,-59.7149639673032
-0.07070000000000021,-62.81318171400764
-0.0717000000000001,-66.56216665864997
-0.07270000000000021,-69.26426524139221
-0.0737000000000001,-70.31115160329232
-0.07470000000000021,-70.62238808926263
-0.0757000000000001,-69.4906190493706
-0.07670000000000021,-68.0051721845123
-0.0777000000000001,-66.56216665864997
-0.07870000000000021,-65.5577216357458
-0.0797000000000001,-66.60460799764593
-0.08070000000000022,-68.38714423547587
-0.0817000000000001,-71.35803796519245
-0.08270000000000022,-75.1070229098348
-0.08370000000000011,-77.99303396155948
-0.08470000000000022,-80.61024986630979
-0.08570000000000011,-81.26101706424771
-0.08670000000000022,-80.73757388329766
-0.08770000000000011,-79.60580484340561
-0.08870000000000022,-77.42714944161345
-0.08970000000000011,-76.46514575770523
-0.09070000000000022,-75.5880247517889
-0.09170000000000011,-76.94614759965934
-0.09270000000000023,-79.52092216541372
-0.09370000000000012,-82.61913991211814
-0.09470000000000023,-86.7076555687281
-0.09570000000000012,-89.19754745649055
-0.09670000000000023,-91.51767398826922
-0.09770000000000012,-91.77232202224494
-0.09870000000000023,-90.85275967733266
-0.09970000000000012,-89.46634260346492
-0.10070000000000023,-87.14621607168625
-0.10170000000000012,-86.58033155174023
-0.10270000000000024,-86.45300753475239
-0.10370000000000013,-87.98089573860662
-0.10470000000000024,-90.76787699934074
-0.10570000000000013,-93.86609474604518
-0.10670000000000024,-97.61507969068752
-0.10770000000000013,-100.35961961242569
-0.10870000000000024,-101.54797710431234
-0.10970000000000013,-101.84506647728399
-0.11070000000000024,-100.71329743739196
-0.11170000000000013,-99.22785057253368
-0.11270000000000002,-97.69996236867944
-0.11370000000000013,-96.61063466778336
-0.11470000000000002,-97.61507969068752
-0.11570000000000014,-99.35517458952152
-0.11670000000000003,-102.3260683192381
-0.11770000000000014,-106.07505326388046
-0.11870000000000003,-109.04594699359701
-0.11970000000000014,-111.66316289834735
-0.12070000000000003,-112.31393009628526
-0.12170000000000014,-111.7904869153352
-0.12270000000000003,-110.74360055343507
-0.12370000000000014,-108.56494515164292
-0.12470000000000003,-107.64538280673065
-0.12570000000000014,-106.78240891381296
-0.12670000000000003,-108.12638464868475
-0.12770000000000015,-110.65871787544317
-0.12870000000000004,-113.67205294415571
-0.12970000000000015,-117.90203973075215
-0.13070000000000004,-120.43437295751058
-0.13170000000000015,-122.82523505428249
-0.13270000000000004,-123.2213542182447
-0.13370000000000015,-122.30179187333242
-0.13470000000000004,-120.95781613846064
-0.13570000000000015,-118.51036558969413
-0.13670000000000004,-118.02936374774
-0.13770000000000016,-117.85959839175621
-0.13870000000000005,-119.3450452566145
-0.13970000000000016,-122.0471438393567
-0.14070000000000005,-125.23024426405304
-0.14170000000000016,-129.02167054769134
-0.14270000000000005,-131.72376913043357
-0.14370000000000016,-132.8555381703256
-0.14470000000000005,-133.1667746562959
-0.14570000000000016,-131.95012293841197
-0.14670000000000005,-130.46467607355368
-0.14770000000000016,-128.93678786969946
-0.14870000000000005,-127.80501882980741
-0.14970000000000017,-128.71043406172103
-0.15070000000000006,-130.50711741254963
-0.15170000000000017,-133.4214226902716
-0.15270000000000006,-137.12796629591801
-0.15370000000000017,-140.14130136463055
-0.15470000000000006,-142.7443701563822
-0.15570000000000017,-143.4517258063147
-0.15670000000000006,-143.0273124163552
-0.15770000000000017,-141.89554337646317
-0.15870000000000006,-139.80177065266292
-0.15970000000000018,-138.79732562975875
-0.16070000000000007,-137.9626459628384
-0.16170000000000018,-139.27832747171286
-0.16270000000000007,-141.89554337646317
-0.16370000000000018,-145.00790823616626
-0.16470000000000007,-149.1105710057749
-0.16570000000000018,-151.65705134553193
-0.16670000000000007,-154.0620605553025
-0.16770000000000018,-154.3450028152755
-0.16870000000000007,-153.35470490536997
-0.16970000000000018,-152.0814647354914
-0.17070000000000007,-149.6764555257209
-0.17170000000000019,-149.1105710057749
-0.17270000000000008,-148.82762874580186
-0.1737000000000002,-150.24234004566688
-0.17470000000000008,-153.07176264539694
-0.1757000000000002,-156.18412750510007
-0.17670000000000008,-160.14531914472215
-0.1777000000000002,-162.97474174445222
-0.17870000000000008,-163.96503965435775
-0.1797000000000002,-164.38945304431726
-0.18070000000000008,-163.25768400442522
-0.1817000000000002,-161.84297270456022
-0.18270000000000008,-160.14531914472215
-0.1837000000000002,-159.01355010483013
-0.1847000000000001,-160.00384801473567
-0.1857000000000002,-161.70150157457368
-0.1867000000000001,-164.53092417430375
-0.1877000000000002,-168.20917355395284
-0.1887000000000001,-171.32153841365593
-0.1897000000000002,-174.0094898833995
-0.1907000000000001,-174.85831666331853
-0.1917000000000001,-174.43390327335902
-0.19269999999999998,-173.44360536345349
-0.1937000000000001,-171.32153841365593
-0.19469999999999998,-170.33124050375042
-0.1957000000000001,-169.6238848538179
-0.19669999999999999,-170.89712502369645
-0.1977000000000001,-173.44360536345349
-0.1987,-176.4144990931701
-0.1997000000000001,-180.65863299276518
-0.2007,-183.20511333252225
-0.2017000000000001,-185.6101225422928
-0.2027,-186.03453593225234
-0.2037000000000001,-185.0442380223468
-0.2047,-183.62952672248176
-0.2057000000000001,-181.2245175127112
-0.2067,-180.65863299276518
-0.2077000000000001,-180.23421960280567
-0.2087,-181.79040203265723
-0.2097000000000001,-184.47835350240078
-0.2107,-187.44924723211736
-0.2117000000000001,-191.41043887173947
-0.2127,-194.09839034148303
-0.2137000000000001,-195.37163051136156
-0.2147,-195.79604390132107
-0.2157000000000001,-194.66427486142905
-0.2167,-193.3910346915505
-0.21770000000000012,-191.69338113171247
-0.2187,-190.70308322180696
-0.21970000000000012,-191.551910001726
-0.2207,-193.3910346915505
-0.22170000000000012,-196.3619284212671
-0.2227,-200.04017780091618
-0.22370000000000012,-203.01107153063276
-0.2247,-205.84049413036286
-0.22570000000000012,-206.54784978029537
-0.2267,-206.12343639033585
-0.22770000000000012,-205.13313848043032
-0.22870000000000001,-203.01107153063276
-0.22970000000000013,-201.87930249074074
-0.23070000000000002,-201.03047571082172
-0.23170000000000013,-202.30371588070025
-0.23270000000000002,-204.7087250904708
-0.23370000000000013,-207.67961882018741
-0.23470000000000002,-211.782281589796
-0.23570000000000013,-214.47023305953954
-0.23670000000000002,-217.01671339929663
-0.2376999999999999,-217.29965565926966
-0.23870000000000002,-216.4508288793506
-0.2396999999999999,-215.03611757948556
-0.24070000000000003,-212.48963723972852
-0.24169999999999991,-211.9237527197825
-0.24270000000000003,-211.64081045980947
-0.24369999999999992,-213.19699288966103
-0.24470000000000003,-215.88494435940459
-0.24569999999999992,-218.85583808912116
-0.24670000000000003,-222.9585008587298
-0.24769999999999992,-225.64645232847332
-0.24870000000000003,-226.91969249835188
-0.24969999999999992,-227.34410588831142
-0.25070000000000003,-226.21233684841937
-0.2516999999999999,-224.93909667854084
-0.25270000000000004,-223.2414431187028
-0.2536999999999999,-222.25114520879725
-0.25470000000000004,-223.09997198871628
-0.2556999999999999,-224.79762554855435
-0.25670000000000004,-227.7685192782709
-0.25769999999999993,-231.5882397879065
-0.25870000000000004,-234.55913351762308
-0.25969999999999993,-237.53002724733966
-0.26070000000000004,-238.37885402725868
-0.26169999999999993,-238.0959117672857
-0.26270000000000004,-236.96414272739366
-0.26369999999999993,-234.9835469075826
-0.26470000000000005,-233.99324899767706
-0.26569999999999994,-233.28589334774458
-0.26670000000000005,-234.4176623876366
-0.26769999999999994,-236.96414272739366
-0.26870000000000005,-239.93503645711021
-0.26969999999999994,-244.03769922671884
-0.27070000000000005,-246.8671218264489
-0.27169999999999994,-249.41360216620598
-0.27270000000000005,-249.83801555616546
-0.27369999999999994,-249.13065990623298
-0.27470000000000006,-247.71594860636796
-0.27569999999999995,-245.31093939659738
-0.27670000000000006,-244.74505487665132
-0.27769999999999995,-244.32064148669184
-0.27870000000000006,-245.87682391654337
-0.27969999999999995,-248.56477538628693
-0.28070000000000006,-251.67714024599002
-0.28169999999999995,-255.77980301559862
-0.28270000000000006,-258.32628335535566
-0.28369999999999995,-259.7409946552208
-0.28470000000000006,-260.3068791751668
-0.28569999999999995,-259.17511013527474
-0.28670000000000007,-257.76039883540966
-0.28769999999999996,-256.0627452755717
-0.28870000000000007,-254.93097623567962
-0.28969999999999996,-255.77980301559862
-0.29070000000000007,-257.4774565754367
-0.29169999999999996,-260.4483503051532
-0.29270000000000007,-264.12659968480233
-0.29369999999999996,-267.23896454450545
-0.2947000000000001,-270.0683871442355
-0.29569999999999996,-270.775742794168
-0.2967000000000001,-270.63427166418154
-0.29769999999999996,-269.5025026242895
-0.2987000000000001,-267.38043567449193
-0.29969999999999997,-266.3901377645864
-0.3007000000000001,-265.6827821146539
-0.30169999999999997,-266.6730800245594
-0.3027000000000001,-269.361031494303
-0.30369999999999997,-272.3319252240195
-0.3047000000000001,-276.43458799362816
-0.30569999999999997,-279.26401059335825
-0.3067000000000001,-281.9519620631018
-0.3077,-282.3763754530613
-0.3087000000000001,-281.66901980312883
-0.3097,-280.3957796332503
-0.3107000000000001,-277.9907704234797
-0.3117,-277.4248859035337
-0.3127000000000001,-276.8590013835877
-0.3137,-278.2737126834527
-0.3147000000000001,-280.67872189322327
-0.3157,-283.79108675292633
-0.3167000000000001,-287.893749522535
-0.3177,-290.5817009922785
-0.3187000000000001,-292.2793545521166
-0.3197,-292.8452390720626
-0.3207000000000001,-291.85494116215705
-0.3217,-290.723172122265
-0.3227000000000001,-289.02551856242695
-0.3237,-287.893749522535
-0.3247000000000001,-288.8840474324405
-0.3257,-290.5817009922785
-0.3267000000000001,-293.55259472199515
-0.3277,-297.0893729716577
-0.3287000000000001,-300.2017378313608
-0.3297,-303.0311604310908
-0.3307000000000001,-303.73851608102336
-0.3317,-303.4555738210504
-0.3327000000000001,-302.32380478115834
-0.3337,-300.2017378313608
-0.3347000000000001,-299.06996879146874
-0.3357,-298.2211420115498
-0.3367000000000001,-299.3529110514418
-0.3377,-301.8993913911989
-0.3387000000000001,-304.72881399092887
-0.3397,-308.8314767605375
-0.3407000000000001,-311.80237049025413
-0.3417,-314.49032195999763
-0.3427000000000001,-314.91473534995714
-0.3437,-314.20737970002466
-0.3447000000000001,-312.9341395301461
-0.3457,-310.52913032037554
-0.3467000000000001,-310.10471693041603
-0.3477,-309.6803035404565
-0.3487000000000001,-311.2364859703081
-0.3497,-313.9244374400517
-0.3507000000000001,-317.1782734297412
-0.3517,-321.2809361993498
-0.3527000000000001,-323.8274165391069
-0.3537,-325.5250700989449
-0.3547000000000001,-325.94948348890443
-0.3557,-324.9591855789989
-0.35670000000000013,-323.68594540912045
-0.3577,-321.7053495893094
-0.35870000000000013,-320.71505167940376
-0.3597,-321.56387845932284
-0.36070000000000013,-323.2615320191609
-0.3617,-326.23242574887746
-0.3626999999999999,-329.76920399854004
-0.3637,-333.02303998822964
-0.3646999999999999,-335.9939337179462
-0.3657,-336.70128936787876
-0.3666999999999999,-336.70128936787876
-0.3677,-335.5695203279867
-0.3686999999999999,-333.5889245081757
-0.36970000000000003,-332.7400977282566
-0.3706999999999999,-332.03274207832413
-0.37170000000000003,-333.1645111182162
-0.3726999999999999,-335.9939337179462
-0.37370000000000003,-339.2477697076358
-0.3746999999999999,-343.63337473721737
-0.37570000000000003,-346.604268466934
-0.3766999999999999,-349.71663332663707
-0.37770000000000004,-350.2825178465831
-0.3786999999999999,-349.5751621966506
-0.37970000000000004,-348.301922026772
-0.3806999999999999,-345.89691281700146
-0.38170000000000004,-345.1895571670689
-0.38269999999999993,-344.7651437771094
-0.38370000000000004,-346.1798550769745
-0.38469999999999993,-348.72633541673156
-0.38570000000000004,-351.8387002764346
-0.38669999999999993,-353.5363538362726
-0.38570000000000004,-352.68752705635364
-0.38469999999999993,-350.7069312365426
-0.38370000000000004,-347.87750863681254
-0.38269999999999993,-343.49190360723094
-0.38170000000000004,-338.96482744766274
-0.3806999999999999,-333.87186676814866
-0.37970000000000004,-329.62773286855355
-0.3786999999999999,-327.3641947887695
-0.37770000000000004,-325.80801235891795
-0.3766999999999999,-325.6665412289314
-0.37570000000000003,-326.23242574887746
-0.3746999999999999,-326.373896878864
-0.37370000000000003,-326.23242574887746
-0.3726999999999999,-324.1103587990799
-0.37170000000000003,-320.9979939393768
-0.3706999999999999,-317.03680229975475
-0.36970000000000003,-311.94384162024056
-0.3686999999999999,-307.841178850632
-0.3677,-304.1629294709828
-0.3666999999999999,-302.32380478115834
-0.3657,-301.8993913911989
-0.3646999999999999,-301.7579202612123
-0.3637,-303.0311604310908
-0.3626999999999999,-302.74821817111786
-0.3617,-302.4652759111449
-0.36070000000000013,-299.91879557138776
-0.3597,-296.0990750617522
-0.35870000000000013,-291.85494116215705
-0.3577,-286.47903822266994
-0.35670000000000013,-282.8007888430208
-0.3557,-279.26401059335825
-0.3547000000000001,-277.84929929349323
-0.3537,-277.7078281635067
-0.3527000000000001,-277.9907704234797
-0.3517,-279.40548172334474
-0.3507000000000001,-279.1225394633717
-0.3497,-277.9907704234797
-0.3487000000000001,-275.7272323436957
-0.3477,-271.7660407040736
-0.3467000000000001,-267.6633779344649
-0.3457,-262.9948306449103
-0.3447000000000001,-259.0336390052882
-0.3437,-256.91157205549064
-0.3427000000000001,-255.63833188561213
-0.3417,-255.77980301559862
-0.3407000000000001,-256.4871586655312
-0.3397,-256.91157205549064
-0.3387000000000001,-257.0530431854772
-0.3377,-255.07244736566614
-0.3367000000000001,-252.243024765936
-0.3357,-248.42330425630044
-0.3347000000000001,-243.47181470677282
-0.3337,-239.65209419713722
-0.3327000000000001,-236.1153159474746
-0.3317,-234.27619125765005
-0.3307000000000001,-233.99324899767706
-0.3297,-234.13472012766357
-0.3287000000000001,-235.40796029754208
-0.3277,-235.40796029754208
-0.3267000000000001,-235.26648916755556
-0.3257,-233.00295108777152
-0.3247000000000001,-229.46617283810895
-0.3237,-225.22203893851383
-0.3227000000000001,-220.1290782589997
-0.3217,-216.73377113932364
-0.3207000000000001,-213.33846401964755
-0.3197,-212.2066949797555
-0.3187000000000001,-212.2066949797555
-0.3177,-212.77257949970152
-0.3167000000000001,-214.32876192955305
-0.3157,-214.04581966958003
-0.3147000000000001,-213.19699288966103
-0.3137,-210.93345480987696
-0.3127000000000001,-207.25520543022787
-0.3117,-203.29401379060576
-0.3107000000000001,-198.62546650105114
-0.3097,-195.08868825138856
-0.3087000000000001,-193.10809243157752
-0.3077,-191.9763233916855
-0.3067000000000001,-192.40073678164498
-0.30569999999999997,-193.249563561564
-0.3047000000000001,-193.81544808151003
-0.30369999999999997,-194.2398614714695
-0.3027000000000001,-192.40073678164498
-0.30169999999999997,-189.71278531190143
-0.3007000000000001,-186.03453593225234
-0.29969999999999997,-181.36598864269772
-0.2987000000000001,-177.54626813306209
-0.29769999999999996,-174.0094898833995
-0.2967000000000001,-172.45330745354798
-0.29569999999999996,-172.17036519357498
-0.2947000000000001,-172.31183632356147
-0.29369999999999996,-173.72654762342648
-0.29270000000000007,-173.86801875341303
-0.29169999999999996,-174.0094898833995
-0.29070000000000007,-172.17036519357498
-0.28969999999999996,-168.91652920388537
-0.28870000000000007,-165.09680869424977
-0.28769999999999996,-160.14531914472215
-0.28670000000000007,-156.75001202504606
-0.28569999999999995,-153.63764716534297
-0.28470000000000006,-152.78882038542397
-0.28369999999999995,-152.78882038542397
-0.28270000000000006,-153.35470490536997
-0.28169999999999995,-155.05235846520802
-0.28070000000000006,-154.9108873352215
-0.27969999999999995,-154.203531685289
-0.27870000000000006,-151.93999360550492
-0.27769999999999995,-148.40321535584232
-0.27670000000000006,-144.44202371622026
-0.27569999999999995,-140.01397734764268
-0.27470000000000006,-136.60452311496792
-0.27369999999999994,-134.77954553814206
-0.27270000000000005,-133.81754185423384
-0.27169999999999994,-134.38342637417986
-0.27070000000000005,-135.26054738009617
-0.26969999999999994,-136.2225510640044
-0.26870000000000005,-136.74599424495443
-0.26769999999999994,-135.17566470210423
