Potential V vs RHE, Current mA cm-2
0.013299999999999867,30.317263156107735
0.012299999999999978,30.04846800913338
0.011299999999999866,29.836261314153624
0.010299999999999976,27.869812607341224
0.009299999999999864,24.814036199632742
0.008299999999999974,21.58849443594046
0.007299999999999862,17.75462681330621
0.006299999999999972,14.472496597619326
0.00529999999999986,11.469064508005852
0.0042999999999999705,9.680869424976446
0.0032999999999998586,8.328405422305472
0.0022999999999999687,8.416117522897103
0.0012999999999998568,8.851848603255535
0.00029999999999996696,10.37832209580991
-0.000700000000000145,10.509890246697358
-0.0017000000000000348,10.596187635989125
-0.0027000000000001467,9.245138344618015
-0.0037000000000000366,7.281519060405343
-0.0047000000000001485,4.360140226184043
-0.005700000000000038,1.4373466806628774
-0.00670000000000015,-2.4007650758709675
-0.00770000000000004,-4.887827541033701
-0.008700000000000152,-7.37347529489657
-0.009700000000000042,-8.332649556205066
-0.010700000000000154,-8.070927965730034
-0.011700000000000044,-7.635196885371603
-0.012700000000000156,-6.6760226240631075
-0.013700000000000045,-6.064867342521412
-0.014700000000000157,-5.759289701750564
-0.015700000000000047,-6.54445447317566
-0.01670000000000016,-7.809206375255003
-0.01770000000000005,-10.340124890713554
-0.01870000000000016,-13.3930718758223
-0.01970000000000005,-17.358507649344002
-0.020700000000000163,-20.01816489309027
-0.021700000000000053,-22.46561544185678
-0.022700000000000164,-23.300295108777156
-0.023700000000000054,-23.724708498736668
-0.024700000000000166,-23.2012653177866
-0.025700000000000056,-22.63538079784059
-0.026700000000000168,-20.93772723800254
-0.027700000000000058,-20.683079204026836
-0.02870000000000017,-20.414284057052477
-0.02970000000000006,-22.027054938898623
-0.03070000000000017,-24.64427084364894
-0.03170000000000006,-27.43125210438306
-0.03270000000000017,-30.8407063370578
-0.03370000000000006,-33.712570275783825
-0.034700000000000175,-36.4288159715247
-0.035700000000000065,-37.645467689408626
-0.03670000000000018,-38.6499127123128
-0.03770000000000007,-38.211352209354644
-0.03870000000000018,-37.334231203438314
-0.03970000000000007,-35.32534115762997
-0.04070000000000018,-35.02825178465831
-0.04170000000000007,-34.58969128170015
-0.04270000000000018,-35.90537279057463
-0.04370000000000007,-37.77279170639648
-0.044700000000000184,-40.4748902891387
-0.045700000000000074,-43.31846000186743
-0.046700000000000186,-47.15232762450167
-0.047700000000000076,-49.557336834272235
-0.04870000000000019,-51.82087491405629
-0.04970000000000008,-52.471642111994214
-0.05070000000000019,-51.82087491405629
-0.05170000000000008,-51.127666377122424
-0.05270000000000019,-49.642219512264134
-0.05370000000000008,-48.89242252333566
-0.05470000000000019,-48.32653800338966
-0.05570000000000008,-49.03389365332217
-0.056700000000000195,-50.20810403221015
-0.057700000000000085,-52.74043725896857
-0.058700000000000196,-55.612301197694585
-0.059700000000000086,-59.587639950315335
-0.0607000000000002,-61.97850204708726
-0.06170000000000009,-64.34106991786187
-0.0627000000000002,-64.86451309881193
-0.06370000000000009,-64.99183711579978
-0.0647000000000002,-64.11471610988345
-0.06570000000000009,-63.37906623395363
-0.0667000000000002,-61.455058866137186
-0.0677000000000001,-61.11552815416958
-0.0687000000000002,-60.63452631221547
-0.0697000000000001,-62.02094338608321
-0.07070000000000021,-64.59571795183757
-0.0717000000000001,-67.25537519558385
-0.07270000000000021,-70.62238808926263
-0.0737000000000001,-73.40936934999675
-0.07470000000000021,-75.8992612377592
-0.0757000000000001,-76.98858893865528
-0.07670000000000021,-77.80912149257702
-0.0777000000000001,-77.0734716166472
-0.07870000000000021,-76.06902659374302
-0.0797000000000001,-73.97525386994278
-0.08070000000000022,-73.49425202798865
-0.0817000000000001,-72.97080884703858
-0.08270000000000022,-74.37137303390499
-0.08370000000000011,-76.11146793273898
-0.08470000000000022,-78.64380115949739
-0.08570000000000011,-81.38834108123557
-0.08670000000000022,-85.13732602587791
-0.08770000000000011,-87.41501121866061
-0.08870000000000022,-89.63610795944872
-0.08970000000000011,-90.15955114039879
-0.09070000000000022,-89.36731281247435
-0.09170000000000011,-88.46189758056073
-0.09270000000000023,-86.97645071570246
-0.09370000000000012,-86.05688837079018
-0.09470000000000023,-85.36367983385631
-0.09570000000000012,-85.92956435380233
-0.09670000000000023,-87.10377473269031
-0.09770000000000012,-89.55122528145681
-0.09870000000000023,-92.3806478811869
-0.09970000000000012,-96.21451550382113
-0.10070000000000023,-98.57708337459576
-0.10170000000000012,-100.92550413237171
-0.10270000000000024,-101.40650597432582
-0.10370000000000013,-101.59041844330828
-0.10470000000000024,-100.71329743739196
-0.10570000000000013,-99.93520622246619
-0.10670000000000024,-97.88387483766188
-0.10770000000000013,-97.44531433470372
-0.10870000000000024,-96.96431249274961
-0.10970000000000013,-98.3082882276214
-0.11070000000000024,-100.92550413237171
-0.11170000000000013,-103.64174982811258
-0.11270000000000002,-106.95217426979677
-0.11370000000000013,-109.654272852539
-0.11470000000000002,-112.18660607929739
-0.11570000000000014,-113.36081645818538
-0.11670000000000003,-114.11061344711386
-0.11770000000000014,-113.53058181416918
-0.11870000000000003,-112.3563714352812
-0.11970000000000014,-110.26259871148096
-0.12070000000000003,-109.8806266605174
-0.12170000000000014,-109.21571234958083
-0.12270000000000003,-110.48895251945936
-0.12370000000000014,-112.27148875728932
-0.12470000000000003,-114.88870466203963
-0.12570000000000014,-117.54836190578591
-0.12670000000000003,-121.2549055114323
-0.12770000000000015,-123.70235606019881
-0.12870000000000004,-125.83857012299501
-0.12970000000000015,-126.40445464294103
-0.13070000000000004,-125.5273336370247
-0.13170000000000015,-124.62191840511109
-0.13270000000000004,-123.09403020125686
-0.13370000000000015,-122.21690919534053
-0.13470000000000004,-121.52370065840667
-0.13570000000000015,-122.08958517835266
-0.13670000000000004,-123.3062368962366
-0.13770000000000016,-125.71124610600715
-0.13870000000000005,-128.5831100447332
-0.13970000000000016,-132.47356611936203
-0.14070000000000005,-134.86442821613394
-0.14170000000000016,-137.2694374259045
-0.14270000000000005,-137.83532194585052
-0.14370000000000016,-137.87776328484648
-0.14470000000000005,-137.04308361792607
-0.14570000000000016,-136.26499240300032
-0.14670000000000005,-134.256102357192
-0.14770000000000016,-133.8599831932298
-0.14870000000000005,-133.3365400122797
-0.14970000000000017,-134.6522215211542
-0.15070000000000006,-137.31187876490046
-0.15170000000000017,-140.01397734764268
-0.15270000000000006,-143.3102546763282
-0.15370000000000017,-146.1396772760583
-0.15470000000000006,-148.68615761581535
-0.15570000000000017,-149.6764555257209
-0.15670000000000006,-150.66675343562642
-0.15770000000000017,-149.95939778569388
-0.15870000000000006,-148.96909987578834
-0.15970000000000018,-146.7055617960043
-0.16070000000000007,-146.1396772760583
-0.16170000000000018,-145.57379275611228
-0.16270000000000007,-146.9885040559773
-0.16370000000000018,-148.68615761581535
-0.16470000000000007,-151.23263795557244
-0.16570000000000018,-153.920589425316
-0.16670000000000007,-157.7403099349516
-0.16770000000000018,-160.00384801473567
-0.16870000000000007,-162.2673860945197
-0.16970000000000018,-162.6917994844792
-0.17070000000000007,-161.84297270456022
-0.17170000000000019,-160.99414592464117
-0.17270000000000008,-159.43796349478964
-0.1737000000000002,-158.4476655848841
-0.17470000000000008,-157.7403099349516
-0.1757000000000002,-158.4476655848841
-0.17670000000000008,-159.72090575476264
-0.1777000000000002,-162.12591496453322
-0.17870000000000008,-165.2382798242363
-0.1797000000000002,-169.3409425938449
-0.18070000000000008,-171.60448067362896
-0.1817000000000002,-174.0094898833995
-0.18270000000000008,-174.57537440334553
-0.1837000000000002,-174.71684553333202
-0.1847000000000001,-174.0094898833995
-0.1857000000000002,-173.16066310348046
-0.1867000000000001,-171.18006728366944
-0.1877000000000002,-170.75565389370993
-0.1887000000000001,-170.18976937376394
-0.1897000000000002,-171.60448067362896
-0.1907000000000001,-174.2924321433725
-0.1917000000000001,-176.98038361311612
-0.19269999999999998,-180.37569073279218
-0.1937000000000001,-183.06364220253573
-0.19469999999999998,-185.6101225422928
-0.1957000000000001,-186.74189158218485
-0.19669999999999999,-187.59071836210387
-0.1977000000000001,-187.02483384215788
-0.1987,-185.7515936722793
-0.1997000000000001,-183.62952672248176
-0.2007,-183.06364220253573
-0.2017000000000001,-182.49775768258974
-0.2027,-183.62952672248176
-0.2037000000000001,-185.46865141230631
-0.2047,-188.01513175206335
-0.2057000000000001,-190.56161209182042
-0.2067,-194.52280373144254
-0.2077000000000001,-196.7863418112266
-0.2087,-199.04987989101065
-0.2097000000000001,-199.61576441095667
-0.2107,-198.90840876102413
-0.2117000000000001,-198.05958198110514
-0.2127,-196.50339955125358
-0.2137000000000001,-195.51310164134807
-0.2147,-194.80574599141553
-0.2157000000000001,-195.37163051136156
-0.2167,-196.6448706812401
-0.21770000000000012,-198.90840876102413
-0.2187,-201.87930249074074
-0.21970000000000012,-205.84049413036286
-0.2207,-208.24550334013338
-0.22170000000000012,-210.65051254990397
-0.2227,-211.21639706985
-0.22370000000000012,-211.21639706985
-0.2247,-210.65051254990397
-0.22570000000000012,-209.8016857699849
-0.2267,-207.67961882018741
-0.22770000000000012,-207.25520543022787
-0.22870000000000001,-206.54784978029537
-0.22970000000000013,-208.1040322101469
-0.23070000000000002,-210.65051254990397
-0.23170000000000013,-213.19699288966103
-0.23270000000000002,-216.59230000933712
-0.23370000000000013,-219.28025147908068
-0.23470000000000002,-221.82673181883774
-0.23570000000000013,-222.9585008587298
-0.23670000000000002,-223.80732763864881
-0.2376999999999999,-223.38291424868927
-0.23870000000000002,-222.25114520879725
-0.2396999999999999,-220.2705493889862
-0.24070000000000003,-219.7046648690402
-0.24169999999999991,-219.28025147908068
-0.24270000000000003,-220.5534916489592
-0.24369999999999992,-222.3926163387838
-0.24470000000000003,-225.08056780852735
-0.24569999999999992,-227.7685192782709
-0.24670000000000003,-231.5882397879065
-0.24769999999999992,-233.99324899767706
-0.24870000000000003,-236.3982582074476
-0.24969999999999992,-236.96414272739366
-0.25070000000000003,-236.25678707746113
-0.2516999999999999,-235.26648916755556
-0.25270000000000004,-233.56883560771757
-0.2536999999999999,-232.72000882779852
-0.25470000000000004,-231.8711820478795
-0.2556999999999999,-232.43706656782552
-0.25670000000000004,-233.56883560771757
-0.25769999999999993,-235.97384481748813
-0.25870000000000004,-238.94473854720468
-0.25969999999999993,-242.76445905684034
-0.26070000000000004,-245.16946826661086
-0.26169999999999993,-247.57447747638145
-0.26270000000000004,-248.14036199632744
-0.26369999999999993,-248.28183312631393
-0.26470000000000005,-247.4330063463949
-0.26569999999999994,-246.5841795664759
-0.26670000000000005,-244.60358374666484
-0.26769999999999994,-244.03769922671884
-0.26870000000000005,-243.6132858367593
-0.26969999999999994,-244.8865260066378
-0.27070000000000005,-247.71594860636796
-0.27169999999999994,-250.545371206098
-0.27270000000000005,-253.79920719578757
-0.27369999999999994,-256.62862979551767
-0.27470000000000006,-259.3165812652612
-0.27569999999999995,-260.58982143513975
-0.27670000000000006,-261.2971770850723
-0.27769999999999995,-260.73129256512624
-0.27870000000000006,-259.59952352523425
-0.27969999999999995,-257.4774565754367
-0.28070000000000006,-257.0530431854772
-0.28169999999999995,-256.4871586655312
-0.28270000000000006,-257.76039883540966
-0.28369999999999995,-259.4580523952477
-0.28470000000000006,-262.1460038649913
-0.28569999999999995,-264.83395533473487
-0.28670000000000007,-268.79514697435695
-0.28769999999999996,-271.20015618412754
-0.28870000000000007,-273.60516539389806
-0.28969999999999996,-274.31252104383066
-0.29070000000000007,-273.4636942639116
-0.29169999999999996,-272.61486748399255
-0.29270000000000007,-271.20015618412754
-0.29369999999999996,-270.35132940420846
-0.2947000000000001,-269.64397375427603
-0.29569999999999996,-270.20985827422203
-0.2967000000000001,-271.4830984441005
-0.29769999999999996,-273.8881076538711
-0.2987000000000001,-276.7175302536012
-0.29969999999999997,-280.82019302320975
-0.3007000000000001,-282.9422599730073
-0.30169999999999997,-285.6302114427509
-0.3027000000000001,-286.0546248327104
-0.30369999999999997,-286.196095962697
-0.3047000000000001,-285.2057980527914
-0.30569999999999997,-284.49844240285887
-0.3067000000000001,-282.51784658304786
-0.3077,-282.09343319308834
-0.3087000000000001,-281.3860775431558
-0.3097,-282.8007888430208
-0.3107000000000001,-285.3472691827779
-0.3117,-288.03522065252145
-0.3127000000000001,-291.571998902184
-0.3137,-294.2599503719276
-0.3147000000000001,-296.94790184167124
-0.3157,-297.9381997515767
-0.3167000000000001,-298.78702653149577
-0.3177,-298.07967088156323
-0.3187000000000001,-297.0893729716577
-0.3197,-294.8258348918736
-0.3207000000000001,-294.4014215019141
-0.3217,-293.8355369819681
-0.3227000000000001,-295.10877715184665
-0.3237,-296.94790184167124
-0.3247000000000001,-299.6358533114148
-0.3257,-302.18233365117186
-0.3267000000000001,-306.1435252907939
-0.3277,-308.54853450056453
-0.3287000000000001,-311.09501484032154
-0.3297,-311.80237049025413
-0.3307000000000001,-310.95354371033505
-0.3317,-310.38765919038906
-0.3327000000000001,-308.972947890524
-0.3337,-308.124121110605
-0.3347000000000001,-307.69970772064545
-0.3357,-308.2655922405915
-0.3367000000000001,-309.53883241047004
-0.3377,-311.80237049025413
-0.3387000000000001,-315.0562064799437
-0.3397,-319.01739811956577
-0.3407000000000001,-321.2809361993498
-0.3417,-323.8274165391069
-0.3427000000000001,-324.5347721890394
-0.3437,-324.67624331902596
-0.3447000000000001,-323.8274165391069
-0.3457,-322.97858975918786
-0.3467000000000001,-320.8565228093903
-0.3477,-320.4321094194308
-0.3487000000000001,-319.8662248994848
-0.3497,-321.1394650693634
-0.3507000000000001,-323.9688876690934
-0.3517,-326.656839138837
-0.3527000000000001,-330.19361738849955
-0.3537,-332.8815688582431
-0.3547000000000001,-335.71099145797325
-0.3557,-336.84276049786524
-0.35670000000000013,-337.69158727778427
-0.3577,-337.12570275783827
-0.35870000000000013,-336.1354048479327
-0.3597,-333.87186676814866
-0.36070000000000013,-333.44745337818915
-0.3617,-333.02303998822964
-0.3626999999999999,-334.2962801581082
-0.3637,-336.1354048479327
-0.3646999999999999,-338.96482744766274
-0.3657,-341.65277891740635
-0.3666999999999999,-345.6139705570285
-0.3677,-348.16045089678556
-0.3686999999999999,-350.5654601065561
-0.36970000000000003,-351.2728157564886
-0.3706999999999999,-350.5654601065561
-0.37170000000000003,-349.85810445662355
-0.3726999999999999,-348.44339315675853
-0.37370000000000003,-347.45309524685297
-0.3746999999999999,-346.7457395969205
-0.37570000000000003,-347.45309524685297
-0.3766999999999999,-348.584864286745
-0.37770000000000004,-351.1313446265021
-0.3786999999999999,-353.96076722623224
-0.37970000000000004,-358.0634299958408
-0.3806999999999999,-360.46843920561133
-0.38170000000000004,-362.87344841538186
-0.38269999999999993,-363.4393329353279
-0.38370000000000004,-363.72227519530094
-0.38469999999999993,-362.87344841538186
-0.38570000000000004,-362.0246216354629
-0.38669999999999993,-357.92195886585426
-0.38570000000000004,-353.96076722623224
-0.38469999999999993,-349.9995755866101
-0.38370000000000004,-348.16045089678556
-0.38269999999999993,-347.3116241168665
-0.38170000000000004,-346.7457395969205
-0.3806999999999999,-347.0286818568935
-0.37970000000000004,-346.604268466934
-0.3786999999999999,-346.3213262069609
-0.37770000000000004,-344.34073038714996
-0.3766999999999999,-342.07719230736586
-0.37570000000000003,-338.6818851876898
-0.3746999999999999,-334.43775128809466
-0.37370000000000003,-329.48626173856707
-0.3726999999999999,-326.090954618891
-0.37170000000000003,-322.41270523924186
-0.3706999999999999,-320.8565228093903
-0.36970000000000003,-319.72475376949825
-0.3686999999999999,-319.30034037953874
-0.3677,-319.15886924955225
-0.3666999999999999,-320.00769602947133
-0.3657,-319.4418115095253
-0.3646999999999999,-318.8759269895793
-0.3637,-316.3294466498222
-0.3626999999999999,-312.50972614018656
-0.3617,-308.690005630551
-0.36070000000000013,-304.0214583409964
-0.3597,-300.2017378313608
-0.35870000000000013,-296.2405461917387
-0.3577,-293.6940658519816
-0.35670000000000013,-291.85494116215705
-0.3557,-291.14758551222457
-0.3547000000000001,-291.14758551222457
-0.3537,-291.9964122921436
-0.3527000000000001,-291.28905664221105
-0.3517,-290.86464325225154
-0.3507000000000001,-288.45963404248096
-0.3497,-285.6302114427509
-0.3487000000000001,-281.8104909331153
-0.3477,-277.9907704234797
-0.3467000000000001,-273.1807520039386
-0.3457,-269.78544488426246
-0.3447000000000001,-266.3901377645864
-0.3437,-264.83395533473487
-0.3427000000000001,-264.55101307476184
-0.3417,-264.55101307476184
-0.3407000000000001,-265.2583687246944
-0.3397,-264.9754264647214
-0.3387000000000001,-265.11689759470784
-0.3377,-263.27777290488336
-0.3367000000000001,-261.2971770850723
-0.3357,-257.90186996539614
-0.3347000000000001,-253.94067832577412
-0.3337,-248.9891887762465
-0.3327000000000001,-245.73535278655686
-0.3317,-242.34004566688077
-0.3307000000000001,-240.78386323702924
-0.3297,-239.7935653271237
-0.3287000000000001,-239.65209419713722
-0.3277,-239.65209419713722
-0.3267000000000001,-240.78386323702924
-0.3257,-240.50092097705624
-0.3247000000000001,-240.21797871708318
-0.3237,-237.9544406372992
-0.3227000000000001,-234.4176623876366
-0.3217,-230.880884137974
-0.3207000000000001,-226.63675023837888
-0.3197,-222.9585008587298
-0.3187000000000001,-219.42172260906716
-0.3177,-217.44112678925615
-0.3167000000000001,-215.7434732294181
-0.3157,-215.31905983945856
-0.3147000000000001,-215.7434732294181
-0.3137,-217.01671339929663
-0.3127000000000001,-216.59230000933712
-0.3117,-216.3093577493641
-0.3107000000000001,-214.18729079956654
-0.3097,-211.64081045980947
-0.3087000000000001,-208.1040322101469
-0.3077,-204.5672539604843
-0.3067000000000001,-199.75723554094319
-0.30569999999999997,-196.6448706812401
-0.3047000000000001,-193.3910346915505
-0.30369999999999997,-192.2592656516585
-0.3027000000000001,-192.11779452167198
-0.30169999999999997,-192.2592656516585
-0.3007000000000001,-193.10809243157752
-0.29969999999999997,-193.249563561564
-0.2987000000000001,-193.249563561564
-0.29769999999999996,-191.83485226169896
-0.2967000000000001,-189.8542564418879
-0.29569999999999996,-186.74189158218485
-0.2947000000000001,-182.92217107254925
-0.29369999999999996,-178.1121526530081
-0.29270000000000007,-175.14125892329156
-0.29169999999999996,-171.88742293360195
-0.29070000000000007,-170.61418276372342
-0.28969999999999996,-169.7653559838044
-0.28870000000000007,-169.7653559838044
-0.28769999999999996,-169.9068271137909
-0.28670000000000007,-171.18006728366944
-0.28569999999999995,-171.03859615368293
-0.28470000000000006,-170.75565389370993
-0.28369999999999995,-168.77505807389886
-0.28270000000000006,-165.3797509542228
-0.28169999999999995,-161.9844438345467
-0.28070000000000006,-157.7403099349516
-0.27969999999999995,-154.486473945262
-0.27870000000000006,-150.94969569559944
-0.27769999999999995,-149.1105710057749
-0.27670000000000006,-147.83733083589632
-0.27569999999999995,-147.6958597059098
-0.27470000000000006,-148.40321535584232
-0.27369999999999994,-149.8179266557074
-0.27270000000000005,-149.8179266557074
-0.27169999999999994,-149.8179266557074
-0.27070000000000005,-147.83733083589632
-0.26969999999999994,-145.29085049613926
-0.26870000000000005,-142.03701450644968
-0.26769999999999994,-138.6982958387682
