Potential V vs RHE, Current mA cm-2
0.013299999999999867,0.40856862340102257
0.012299999999999978,-0.6683096180562434
0.011299999999999866,-1.4684703292599082
0.010299999999999976,-2.095187435100119
0.009299999999999864,-2.618630616050183
0.008299999999999974,-3.08690005630551
0.007299999999999862,-3.541022383562187
0.006299999999999972,-3.9555327944226426
0.00529999999999986,-4.302137062889576
0.0042999999999999705,-4.604885281060694
0.0032999999999998586,-4.913292344431272
0.0022999999999999687,-5.23301709820077
0.0012999999999998568,-5.540009450271484
0.00029999999999996696,-5.801731040746516
-0.000700000000000145,-6.037987827823977
-0.0017000000000000348,-6.286977016600223
-0.0027000000000001467,-6.545869184475525
-0.0037000000000000366,-6.809005486250422
-0.0047000000000001485,-7.038188716828557
-0.005700000000000038,-7.2334188762099325
-0.00670000000000015,-7.456943261588608
-0.00770000000000004,-7.691785337366205
-0.008700000000000152,-7.935115680942991
-0.009700000000000042,-8.145907664622882
-0.010700000000000154,-8.338308401404527
-0.011700000000000044,-8.547685673784551
-0.012700000000000156,-8.781113038262282
-0.013700000000000045,-9.017369825339744
-0.014700000000000157,-9.22391767512004
-0.015700000000000047,-9.399341876303303
-0.01670000000000016,-9.60306030348387
-0.01770000000000005,-9.846390647060655
-0.01870000000000016,-10.085476856737847
-0.01970000000000005,-10.300512974317332
-0.020700000000000163,-10.487254865899517
-0.021700000000000053,-10.695217426979678
-0.022700000000000164,-10.937133059256597
-0.023700000000000054,-11.181878114133252
-0.024700000000000166,-11.39267009781314
-0.025700000000000056,-11.602047370193167
-0.026700000000000168,-11.83406002337103
-0.027700000000000058,-12.097196325145928
-0.02870000000000017,-12.364576760820421
-0.02970000000000006,-12.593759991398557
-0.03070000000000017,-12.808796108978042
-0.03170000000000006,-13.053541163854694
-0.03270000000000017,-13.337898135127567
-0.03370000000000006,-13.612352127301383
-0.034700000000000175,-13.852853048278439
-0.035700000000000065,-14.082036278856576
-0.03670000000000018,-14.345172580631472
-0.03770000000000007,-14.65640906660178
-0.03870000000000018,-14.939351326574789
-0.03970000000000007,-15.208146473549144
-0.04070000000000018,-15.462794507524851
-0.04170000000000007,-15.717442541500558
-0.04270000000000018,-16.04282614046952
-0.04370000000000007,-16.354062626439823
-0.044700000000000184,-16.622857773414182
-0.045700000000000074,-16.891652920388537
-0.046700000000000186,-17.20288940635885
-0.047700000000000076,-17.528273005327804
-0.04870000000000019,-17.867803717295413
-0.04970000000000008,-18.15074597726842
-0.05070000000000019,-18.433688237241427
-0.05170000000000008,-18.744924723211735
-0.05270000000000019,-19.084455435179343
-0.05370000000000008,-19.466427486142905
-0.05470000000000019,-19.791811085111863
-0.05570000000000008,-20.10304757108217
-0.056700000000000195,-20.44257828304978
-0.057700000000000085,-20.810403221014692
-0.058700000000000196,-21.16408104598095
-0.059700000000000086,-21.51775887094721
-0.0607000000000002,-21.800701130920213
-0.06170000000000009,-22.168526068885125
-0.0627000000000002,-22.564645232847337
-0.06370000000000009,-22.960764396809545
-0.0647000000000002,-23.328589334774456
-0.06570000000000009,-23.696414272739364
-0.0667000000000002,-24.064239210704276
-0.0677000000000001,-24.474505487665134
-0.0687000000000002,-24.870624651627345
-0.0697000000000001,-25.252596702590903
-0.07070000000000021,-25.592127414558515
-0.0717000000000001,-25.94580523952477
-0.07270000000000021,-26.370218629484285
-0.0737000000000001,-26.794632019443796
-0.07470000000000021,-27.190751183406004
-0.0757000000000001,-27.544429008372262
-0.07670000000000021,-27.940548172334477
-0.0777000000000001,-28.336667336296685
-0.07870000000000021,-28.775227839254843
-0.0797000000000001,-29.157199890218404
-0.08070000000000022,-29.55331905418062
-0.0817000000000001,-29.977732444140123
-0.08270000000000022,-30.444587173095588
-0.08370000000000011,-30.897294789052403
-0.08470000000000022,-31.30756106601326
-0.08570000000000011,-31.717827342974125
-0.08670000000000022,-32.15638784593229
-0.08770000000000011,-32.59494834889044
-0.08870000000000022,-33.04765596484726
-0.08970000000000011,-33.45792224180811
-0.09070000000000022,-33.89648274476628
-0.09170000000000011,-34.377484586720385
-0.09270000000000023,-34.84433931567585
-0.09370000000000012,-35.268752705635364
-0.09470000000000023,-35.664871869597576
-0.09570000000000012,-36.08928525955708
-0.09670000000000023,-36.55613998851254
-0.09770000000000012,-37.05128894346531
-0.09870000000000023,-37.50399655942213
-0.09970000000000012,-37.95670417537893
-0.10070000000000023,-38.38111756533845
-0.10170000000000012,-38.84797229429391
-0.10270000000000024,-39.35726836224533
-0.10370000000000013,-39.79582886520348
-0.10470000000000024,-40.234389368161644
-0.10570000000000013,-40.65880275812115
-0.10670000000000024,-41.139804600075266
-0.10770000000000013,-41.63495355502803
-0.10870000000000024,-42.14424962297944
-0.10970000000000013,-42.625251464933555
-0.11070000000000024,-43.06381196789171
-0.11170000000000013,-43.53066669684718
-0.11270000000000002,-43.99752142580264
-0.11370000000000013,-44.45022904175945
-0.11470000000000002,-44.90293665771627
-0.11570000000000014,-45.31320293467712
-0.11670000000000003,-45.76591055063393
-0.11770000000000014,-46.289353731584
-0.11870000000000003,-46.79864979953541
-0.11970000000000014,-47.27965164148953
-0.12070000000000003,-47.74650637044499
-0.12170000000000014,-48.18506687340315
-0.12270000000000003,-48.70851005435321
-0.12370000000000014,-49.27439457429922
-0.12470000000000003,-49.74124930325469
-0.12570000000000014,-50.1939569192115
-0.12670000000000003,-50.67495876116561
-0.12770000000000015,-51.19840194211567
-0.12870000000000004,-51.73599223606439
-0.12970000000000015,-52.20284696501985
-0.13070000000000004,-52.65555458097666
-0.13170000000000015,-53.17899776192673
-0.13270000000000004,-53.70244094287679
-0.13370000000000015,-54.18344278483091
-0.13470000000000004,-54.59370906179176
-0.13570000000000015,-55.032269564749924
-0.13670000000000004,-55.484977180706736
-0.13770000000000016,-56.05086170065276
-0.13870000000000005,-56.58845199460147
-0.13970000000000016,-57.097748062552874
-0.14070000000000005,-57.53630856551105
-0.14170000000000016,-58.00316329446651
-0.14270000000000005,-58.498312249419264
-0.14370000000000016,-59.035902543367975
-0.14470000000000005,-59.55934572431805
-0.14570000000000016,-60.09693601826676
-0.14670000000000005,-60.64867342521412
-0.14770000000000016,-61.15796949316553
-0.14870000000000005,-61.66726556111695
-0.14970000000000017,-62.14826740307106
-0.15070000000000006,-62.629269245025185
-0.15170000000000017,-63.11027108697928
-0.15270000000000006,-63.61956715493069
-0.15370000000000017,-64.11471610988345
-0.15470000000000006,-64.60986506483623
-0.15570000000000017,-65.02013134179708
-0.15670000000000006,-65.54357452274715
-0.15770000000000017,-66.12360615569182
-0.15870000000000006,-66.59046088464727
-0.15970000000000018,-67.05731561360274
-0.16070000000000007,-67.4958761165609
-0.16170000000000018,-67.96273084551636
-0.16270000000000007,-68.55690959145967
-0.16370000000000018,-69.13694122440434
-0.16470000000000007,-69.6037959533598
-0.16570000000000018,-70.01406223032066
-0.16670000000000007,-70.48091695927613
-0.16770000000000018,-70.94777168823158
-0.16870000000000007,-71.44292064318435
-0.16970000000000018,-71.8814811461425
-0.17070000000000007,-72.33418876209933
-0.17170000000000019,-72.73030792606153
-0.17270000000000008,-73.18301554201834
-0.1737000000000002,-73.66401738397246
-0.17470000000000008,-74.08843077393198
-0.1757000000000002,-74.42796148589959
-0.17670000000000008,-74.8523748758591
-0.1777000000000002,-75.36167094381051
-0.17870000000000008,-75.94170257675518
-0.1797000000000002,-76.55002843569714
-0.18070000000000008,-76.97444182565664
-0.1817000000000002,-77.38470810261751
-0.18270000000000008,-77.82326860557566
-0.1837000000000002,-78.24768199553519
-0.1847000000000001,-78.67209538549469
-0.1857000000000002,-79.05406743645825
-0.1867000000000001,-79.53506927841237
-0.1877000000000002,-80.01607112036648
-0.1887000000000001,-80.53951430131653
-0.1897000000000002,-80.9780748042747
-0.1907000000000001,-81.36004685523827
-0.1917000000000001,-81.7986073581964
-0.19269999999999998,-82.29375631314919
-0.1937000000000001,-82.73231681610734
-0.19469999999999998,-83.12843598006955
-0.1957000000000001,-83.51040803103311
-0.19669999999999999,-83.92067430799398
-0.1977000000000001,-84.37338192395079
-0.1987,-84.8260895399076
-0.1997000000000001,-85.2222087038698
-0.2007,-85.59003364183472
-0.2017000000000001,-85.90127012780503
-0.2027,-86.26909506576993
-0.2037000000000001,-86.6793613427308
-0.2047,-87.0471862806957
-0.2057000000000001,-87.31598142767007
-0.2067,-87.71210059163228
-0.2077000000000001,-88.16480820758908
-0.2087,-88.5609273715513
-0.2097000000000001,-88.87216385752161
-0.2107,-89.18340034349191
-0.2117000000000001,-89.63610795944872
-0.2127,-90.01808001041228
-0.2137000000000001,-90.3576107223799
-0.2147,-90.6688472083502
-0.2157000000000001,-91.13570193730567
-0.2167,-91.44693842327598
-0.21770000000000012,-91.84305758723818
-0.2187,-92.18258829920579
-0.21970000000000012,-92.40894210718419
-0.2207,-92.62114880216394
-0.22170000000000012,-92.84750261014237
-0.2227,-93.20118043510863
-0.22370000000000012,-93.54071114707622
-0.2247,-93.86609474604518
-0.22570000000000012,-94.12074278002089
-0.2267,-94.36124370099793
-0.22770000000000012,-94.6300388479723
-0.22870000000000001,-94.94127533394261
-0.22970000000000013,-95.19592336791831
-0.23070000000000002,-95.45057140189402
-0.23170000000000013,-95.53545407988594
-0.23270000000000002,-95.6344838708765
-0.23370000000000013,-95.88913190485218
-0.23470000000000002,-96.14377993882789
-0.23570000000000013,-96.38428085980493
-0.23670000000000002,-96.63892889378066
-0.2376999999999999,-96.92187115375367
-0.23870000000000002,-97.23310763972397
-0.2396999999999999,-97.55849123869294
-0.24070000000000003,-97.74240370767538
-0.24169999999999991,-98.03949308064705
-0.24270000000000003,-98.25169977562679
-0.24369999999999992,-98.37902379261465
-0.24470000000000003,-98.5063478096025
-0.24569999999999992,-98.67611316558632
-0.24670000000000003,-98.84587852157011
-0.24769999999999992,-99.08637944254717
-0.24870000000000003,-99.31273325052557
-0.24969999999999992,-99.45420438051207
-0.25070000000000003,-99.63811684949452
-0.2516999999999999,-99.77958797948104
-0.25270000000000004,-100.04838312645539
-0.2536999999999999,-100.2464427084365
-0.25470000000000004,-100.4162080644203
-0.2556999999999999,-100.5010907424122
-0.25670000000000004,-100.71329743739196
-0.25769999999999993,-100.84062145437981
-0.25870000000000004,-100.91135701937307
-0.25969999999999993,-100.88306279337576
-0.26070000000000004,-100.91135701937307
-0.26169999999999993,-101.13771082735147
-0.26270000000000004,-101.29332907033663
-0.26369999999999993,-101.50553576531638
-0.26470000000000005,-101.77433091229074
-0.26569999999999994,-101.87336070328129
-0.26670000000000005,-102.00068472026915
-0.26769999999999994,-102.08556739826105
-0.26870000000000005,-102.17045007625295
-0.26969999999999994,-102.24118564124619
-0.27070000000000005,-102.34021543223676
-0.27169999999999994,-102.45339233622596
-0.27270000000000005,-102.62315769220976
-0.27369999999999994,-102.89195283918411
-0.27470000000000006,-102.97683551717601
-0.27569999999999995,-103.03342396917063
-0.27670000000000006,-103.16074798615847
-0.27769999999999995,-103.31636622914363
-0.27870000000000006,-103.3871017941369
-0.27969999999999995,-103.54272003712204
-0.28070000000000006,-103.5568671501207
-0.28169999999999995,-103.68419116710854
-0.28270000000000006,-103.78322095809908
-0.28369999999999995,-103.89639786208829
-0.28470000000000006,-103.93883920108425
-0.28569999999999995,-104.05201610507345
-0.28670000000000007,-104.13689878306535
-0.28769999999999996,-104.26422280005319
-0.28870000000000007,-104.4056939300397
-0.28969999999999996,-104.64619485101677
-0.29070000000000007,-104.70278330301136
-0.29169999999999996,-104.91498999799111
-0.29270000000000007,-105.12719669297088
-0.29369999999999996,-105.33940338795064
-0.2947000000000001,-105.48087451793714
-0.29569999999999996,-105.52331585693308
-0.2967000000000001,-105.7779638909088
-0.29769999999999996,-105.83455234290338
-0.2987000000000001,-105.93358213389395
-0.29969999999999997,-105.82040522990474
-0.3007000000000001,-105.76381677791014
-0.30169999999999997,-105.96187635989125
-0.3027000000000001,-106.13164171587505
-0.30369999999999997,-106.24481861986426
-0.3047000000000001,-106.47117242784265
-0.30569999999999997,-106.66923200982377
-0.3067000000000001,-106.92388004379946
-0.3077,-107.12193962578058
-0.3087000000000001,-107.41902899875224
-0.3097,-107.6029414677347
-0.3107000000000001,-107.631235693732
-0.3117,-107.87173661470905
-0.3127000000000001,-108.21126732667666
-0.3137,-108.40932690865776
-0.3147000000000001,-108.60738649063886
-0.3157,-108.83374029861727
-0.3167000000000001,-109.17327101058488
-0.3177,-109.56939017454708
-0.3187000000000001,-109.83818532152145
-0.3197,-110.03624490350255
-0.3207000000000001,-110.29089293747826
-0.3217,-110.54554097145396
-0.3227000000000001,-110.77189477943237
-0.3237,-111.05483703940537
-0.3247000000000001,-111.3094850733811
-0.3257,-111.5641331073568
-0.3267000000000001,-111.66316289834735
-0.3277,-111.90366381932441
-0.3287000000000001,-112.03098783631226
-0.3297,-112.21490030529472
-0.3307000000000001,-112.45540122627176
-0.3317,-112.71004926024747
-0.3327000000000001,-113.00713863321914
-0.3337,-113.3042280061908
-0.3347000000000001,-113.4739933621746
-0.3357,-113.74278850914895
-0.3367000000000001,-114.0115836561233
-0.3377,-114.43599704608283
-0.3387000000000001,-114.66235085406122
-0.3397,-114.87455754904099
-0.3407000000000001,-115.19994114800993
-0.3417,-115.53947185997755
-0.3427000000000001,-115.83656123294922
-0.3437,-116.21853328391276
-0.3447000000000001,-116.45903420488982
-0.3457,-116.85515336885203
-0.3467000000000001,-117.30786098480884
-0.3477,-117.61909747077915
-0.3487000000000001,-117.8030099397616
-0.3497,-117.87374550475487
-0.3507000000000001,-118.12839353873056
-0.3517,-118.5386598156914
-0.3527000000000001,-119.04795588364286
-0.3537,-119.4299279346064
-0.3547000000000001,-119.82604709856861
-0.3557,-120.00995956755105
-0.35670000000000013,-120.49096140950518
-0.3577,-120.39193161851462
-0.35870000000000013,-120.83049212147279
-0.3597,-121.28319973742961
-0.36070000000000013,-121.63687756239585
-0.3617,-121.69346601439047
-0.3626999999999999,-122.075438065354
-0.3637,-122.61302835930273
-0.3646999999999999,-122.8535292802798
-0.3657,-123.2213542182447
-0.3666999999999999,-123.49014936521905
-0.3677,-123.57503204321095
-0.3686999999999999,-124.07018099816372
-0.36970000000000003,-124.43800593612862
-0.3706999999999999,-124.86241932608814
-0.37170000000000003,-125.03218468207194
-0.3726999999999999,-125.44245095903281
-0.37370000000000003,-125.83857012299501
-0.3746999999999999,-126.37616041694372
-0.37570000000000003,-126.8147209199019
-0.3766999999999999,-126.97033916288706
-0.37770000000000004,-127.46548811783981
-0.3786999999999999,-127.86160728180201
-0.37970000000000004,-128.04551975078445
-0.3806999999999999,-128.51237447973992
-0.38170000000000004,-128.8377580787089
-0.38269999999999993,-129.36120125965894
-0.38370000000000004,-129.79976176261712
-0.38469999999999993,-129.8563502146117
-0.38570000000000004,-130.12514536158608
-0.38669999999999993,-128.9226407567008
-0.38570000000000004,-126.19224794796128
-0.38469999999999993,-123.74479739919475
-0.38370000000000004,-121.55199488440397
-0.38269999999999993,-119.38748659561045
-0.38170000000000004,-117.53421479278724
-0.3806999999999999,-115.62435453796945
-0.37970000000000004,-113.94084809113006
-0.3786999999999999,-112.05928206230955
-0.37770000000000004,-110.26259871148096
-0.3766999999999999,-108.52250381264696
-0.37570000000000003,-106.81070313981027
-0.3746999999999999,-105.19793225796413
-0.37370000000000003,-103.62760271511394
-0.3726999999999999,-102.04312605926509
-0.37170000000000003,-100.4727965164149
-0.3706999999999999,-99.04393810355123
-0.36970000000000003,-97.45946144770237
-0.3686999999999999,-95.84669056585624
-0.3677,-94.3753908139966
-0.3666999999999999,-93.01726796612617
-0.3657,-91.58840955326248
-0.3646999999999999,-90.32931649638259
-0.3637,-88.9004580835189
-0.3626999999999999,-87.45745255765657
-0.3617,-86.19835950077669
-0.36070000000000013,-84.9109722178995
-0.3597,-83.55284937002907
-0.35870000000000013,-82.09569673116808
-0.3577,-80.69513254430169
-0.35670000000000013,-79.63409906940291
-0.3557,-78.57306559450414
-0.3547000000000001,-77.41300232861481
-0.3537,-76.12561504573763
-0.3527000000000001,-74.93725755385098
-0.3517,-73.76304717496302
-0.3507000000000001,-72.57468968307639
-0.3497,-71.5136562081776
-0.3487000000000001,-70.43847562028017
-0.3477,-69.3208536933868
-0.3467000000000001,-68.23152599249072
-0.3457,-67.17049251759194
-0.3447000000000001,-66.10945904269316
-0.3437,-65.00598422879844
-0.3427000000000001,-63.88836230190506
-0.3417,-62.75659326201302
-0.3407000000000001,-61.6814126741156
-0.3397,-60.67696765121143
-0.3387000000000001,-59.67252262830725
-0.3377,-58.63978337940577
-0.3367000000000001,-57.59289701750564
-0.3357,-56.67333467259337
-0.3347000000000001,-55.76791944067975
-0.3337,-54.834209982768826
-0.3327000000000001,-53.88635341185925
-0.3317,-52.91020261495237
-0.3307000000000001,-52.033081609036046
-0.3297,-51.113519264123774
-0.3287000000000001,-50.2505453712061
-0.3277,-49.27439457429922
-0.3267000000000001,-48.46800913337616
-0.3257,-47.54844678846388
-0.3247000000000001,-46.85523825153001
-0.3237,-46.062999923605595
-0.3227000000000001,-45.22832025668522
-0.3217,-44.4926703807554
-0.3207000000000001,-43.82775606981884
-0.3197,-43.06381196789171
-0.3187000000000001,-42.229132300971344
-0.3177,-41.46518819904423
-0.3167000000000001,-40.77197966211036
-0.3157,-40.05047689917919
-0.3147000000000001,-39.44215104023723
-0.3137,-38.734795390304704
-0.3127000000000001,-37.98499840137623
-0.3117,-37.235201412447765
-0.3107000000000001,-36.48540442351929
-0.3097,-35.83463722558138
-0.3087000000000001,-35.07069312365426
-0.3077,-34.34919036072309
-0.3067000000000001,-33.68427604978652
-0.30569999999999997,-33.01936173884996
-0.3047000000000001,-32.31200608891744
-0.30369999999999997,-31.632944664982226
-0.3027000000000001,-30.968030354045652
-0.30169999999999997,-30.345557382105042
-0.3007000000000001,-29.73723152316307
-0.29969999999999997,-29.14305277721976
-0.2987000000000001,-28.52057980527914
-0.29769999999999996,-27.883959720339874
-0.2967000000000001,-27.261486748399253
-0.29569999999999996,-26.667308002455943
-0.2947000000000001,-26.058982143513976
-0.29369999999999996,-25.45065628457201
-0.29270000000000007,-24.842330425630045
-0.29169999999999996,-24.262298792685378
-0.29070000000000007,-23.724708498736668
-0.28969999999999996,-23.2012653177866
-0.28870000000000007,-22.607086571843286
-0.28769999999999996,-22.012907825899973
-0.28670000000000007,-21.447023305953955
-0.28569999999999995,-20.923580125003895
-0.28470000000000006,-20.400136944053827
-0.28369999999999995,-19.820105311109163
-0.28270000000000006,-19.25422079116315
-0.28169999999999995,-18.716630497214435
-0.28070000000000006,-18.23562865526032
-0.27969999999999995,-17.71218547431026
-0.27870000000000006,-17.160448067362896
-0.27769999999999995,-16.637004886412832
-0.27670000000000006,-16.141855931460068
-0.27569999999999995,-15.689148315503255
-0.27470000000000006,-15.222293586547794
-0.27369999999999994,-14.69885040559773
-0.27270000000000005,-14.189554337646317
-0.27169999999999994,-13.72128489739099
-0.27070000000000005,-13.248771323236069
-0.26969999999999994,-12.78050188298074
-0.26870000000000005,-12.272620526329193
-0.26769999999999994,-11.761909747077915
-0.26670000000000005,-11.276663771224207
