Apr. 19, 2025   14:42:31
Cyclic Voltammetry
File: c:/users/guazh/data/banditlqround7_x0exp590_r20/2025-04-16-exp1128\exp1128-2025-04-19t14_24_52-h2koh\exp1128_cv_sr_100mvs_efin_-1700mv.bin
Data Source:  Experiment
Instrument Model:  CHI760E
Header: CV ran at 100 mVs
Note: 

Init E (V) = -1
High E (V) = -1
Low E (V) = -1.7
Final E (V) = -1
Init P/N = N
Scan Rate (V/s) = 0.1
Segment = 3
Sample Interval (V) = 0.001
Quiet Time (sec) = 2
Sensitivity (A/V) = 0.01
Comp R (ohm) = 1.7

Results:

Channel 1:
Segment 1:

Segment 2:

Segment 3:

Potential/V, Current/A

-1.000, 1.877e-5
-1.001, 2.348e-5
-1.002, 2.511e-5
-1.003, 2.523e-5
-1.004, 2.814e-5
-1.005, 2.703e-5
-1.006, 2.905e-5
-1.007, 2.939e-5
-1.008, 2.872e-5
-1.009, 3.107e-5
-1.010, 2.962e-5
-1.011, 3.121e-5
-1.012, 3.129e-5
-1.013, 3.048e-5
-1.014, 3.264e-5
-1.015, 3.088e-5
-1.016, 3.238e-5
-1.017, 3.244e-5
-1.018, 3.160e-5
-1.019, 3.345e-5
-1.020, 3.170e-5
-1.021, 3.324e-5
-1.022, 3.323e-5
-1.023, 3.228e-5
-1.024, 3.435e-5
-1.025, 3.270e-5
-1.026, 3.414e-5
-1.027, 3.405e-5
-1.028, 3.315e-5
-1.029, 3.522e-5
-1.030, 3.333e-5
-1.031, 3.475e-5
-1.032, 3.466e-5
-1.033, 3.370e-5
-1.034, 3.564e-5
-1.035, 3.375e-5
-1.036, 3.510e-5
-1.037, 3.504e-5
-1.038, 3.406e-5
-1.039, 3.615e-5
-1.040, 3.418e-5
-1.041, 3.568e-5
-1.042, 3.546e-5
-1.043, 3.450e-5
-1.044, 3.676e-5
-1.045, 3.478e-5
-1.046, 3.608e-5
-1.047, 3.597e-5
-1.048, 3.499e-5
-1.049, 3.695e-5
-1.050, 3.524e-5
-1.051, 3.651e-5
-1.052, 3.653e-5
-1.053, 3.543e-5
-1.054, 3.761e-5
-1.055, 3.561e-5
-1.056, 3.715e-5
-1.057, 3.692e-5
-1.058, 3.612e-5
-1.059, 3.793e-5
-1.060, 3.605e-5
-1.061, 3.742e-5
-1.062, 3.735e-5
-1.063, 3.644e-5
-1.064, 3.833e-5
-1.065, 3.661e-5
-1.066, 3.801e-5
-1.067, 3.771e-5
-1.068, 3.690e-5
-1.069, 3.885e-5
-1.070, 3.698e-5
-1.071, 3.844e-5
-1.072, 3.823e-5
-1.073, 3.723e-5
-1.074, 3.922e-5
-1.075, 3.743e-5
-1.076, 3.893e-5
-1.077, 3.859e-5
-1.078, 3.771e-5
-1.079, 3.975e-5
-1.080, 3.773e-5
-1.081, 3.935e-5
-1.082, 3.915e-5
-1.083, 3.818e-5
-1.084, 4.006e-5
-1.085, 3.825e-5
-1.086, 3.948e-5
-1.087, 3.948e-5
-1.088, 3.865e-5
-1.089, 4.045e-5
-1.090, 3.874e-5
-1.091, 4.012e-5
-1.092, 3.970e-5
-1.093, 3.885e-5
-1.094, 4.075e-5
-1.095, 3.904e-5
-1.096, 4.029e-5
-1.097, 3.991e-5
-1.098, 3.912e-5
-1.099, 4.081e-5
-1.100, 3.913e-5
-1.101, 4.046e-5
-1.102, 4.025e-5
-1.103, 3.947e-5
-1.104, 4.142e-5
-1.105, 3.954e-5
-1.106, 4.105e-5
-1.107, 4.066e-5
-1.108, 3.983e-5
-1.109, 4.169e-5
-1.110, 3.981e-5
-1.111, 4.111e-5
-1.112, 4.075e-5
-1.113, 3.998e-5
-1.114, 4.186e-5
-1.115, 4.001e-5
-1.116, 4.137e-5
-1.117, 4.105e-5
-1.118, 4.022e-5
-1.119, 4.217e-5
-1.120, 4.008e-5
-1.121, 4.140e-5
-1.122, 4.137e-5
-1.123, 4.042e-5
-1.124, 4.232e-5
-1.125, 4.033e-5
-1.126, 4.182e-5
-1.127, 4.153e-5
-1.128, 4.060e-5
-1.129, 4.238e-5
-1.130, 4.053e-5
-1.131, 4.182e-5
-1.132, 4.147e-5
-1.133, 4.065e-5
-1.134, 4.259e-5
-1.135, 4.062e-5
-1.136, 4.189e-5
-1.137, 4.166e-5
-1.138, 4.082e-5
-1.139, 4.274e-5
-1.140, 4.067e-5
-1.141, 4.233e-5
-1.142, 4.179e-5
-1.143, 4.107e-5
-1.144, 4.283e-5
-1.145, 4.105e-5
-1.146, 4.235e-5
-1.147, 4.192e-5
-1.148, 4.119e-5
-1.149, 4.300e-5
-1.150, 4.105e-5
-1.151, 4.239e-5
-1.152, 4.199e-5
-1.153, 4.128e-5
-1.154, 4.293e-5
-1.155, 4.102e-5
-1.156, 4.230e-5
-1.157, 4.208e-5
-1.158, 4.125e-5
-1.159, 4.305e-5
-1.160, 4.098e-5
-1.161, 4.241e-5
-1.162, 4.220e-5
-1.163, 4.133e-5
-1.164, 4.323e-5
-1.165, 4.144e-5
-1.166, 4.298e-5
-1.167, 4.261e-5
-1.168, 4.174e-5
-1.169, 4.335e-5
-1.170, 4.168e-5
-1.171, 4.298e-5
-1.172, 4.258e-5
-1.173, 4.173e-5
-1.174, 4.336e-5
-1.175, 4.164e-5
-1.176, 4.283e-5
-1.177, 4.257e-5
-1.178, 4.183e-5
-1.179, 4.354e-5
-1.180, 4.164e-5
-1.181, 4.305e-5
-1.182, 4.260e-5
-1.183, 4.195e-5
-1.184, 4.357e-5
-1.185, 4.169e-5
-1.186, 4.322e-5
-1.187, 4.260e-5
-1.188, 4.199e-5
-1.189, 4.350e-5
-1.190, 4.188e-5
-1.191, 4.323e-5
-1.192, 4.276e-5
-1.193, 4.203e-5
-1.194, 4.374e-5
-1.195, 4.200e-5
-1.196, 4.329e-5
-1.197, 4.307e-5
-1.198, 4.220e-5
-1.199, 4.398e-5
-1.200, 4.222e-5
-1.201, 4.357e-5
-1.202, 4.347e-5
-1.203, 4.261e-5
-1.204, 4.442e-5
-1.205, 4.258e-5
-1.206, 4.402e-5
-1.207, 4.364e-5
-1.208, 4.286e-5
-1.209, 4.431e-5
-1.210, 4.264e-5
-1.211, 4.400e-5
-1.212, 4.359e-5
-1.213, 4.292e-5
-1.214, 4.463e-5
-1.215, 4.283e-5
-1.216, 4.413e-5
-1.217, 4.372e-5
-1.218, 4.304e-5
-1.219, 4.466e-5
-1.220, 4.279e-5
-1.221, 4.429e-5
-1.222, 4.399e-5
-1.223, 4.312e-5
-1.224, 4.487e-5
-1.225, 4.321e-5
-1.226, 4.449e-5
-1.227, 4.414e-5
-1.228, 4.342e-5
-1.229, 4.531e-5
-1.230, 4.353e-5
-1.231, 4.508e-5
-1.232, 4.453e-5
-1.233, 4.362e-5
-1.234, 4.556e-5
-1.235, 4.358e-5
-1.236, 4.507e-5
-1.237, 4.479e-5
-1.238, 4.403e-5
-1.239, 4.569e-5
-1.240, 4.394e-5
-1.241, 4.551e-5
-1.242, 4.509e-5
-1.243, 4.453e-5
-1.244, 4.609e-5
-1.245, 4.443e-5
-1.246, 4.583e-5
-1.247, 4.551e-5
-1.248, 4.479e-5
-1.249, 4.653e-5
-1.250, 4.458e-5
-1.251, 4.612e-5
-1.252, 4.581e-5
-1.253, 4.512e-5
-1.254, 4.681e-5
-1.255, 4.507e-5
-1.256, 4.653e-5
-1.257, 4.605e-5
-1.258, 4.537e-5
-1.259, 4.710e-5
-1.260, 4.531e-5
-1.261, 4.679e-5
-1.262, 4.639e-5
-1.263, 4.568e-5
-1.264, 4.744e-5
-1.265, 4.553e-5
-1.266, 4.722e-5
-1.267, 4.679e-5
-1.268, 4.624e-5
-1.269, 4.792e-5
-1.270, 4.615e-5
-1.271, 4.789e-5
-1.272, 4.719e-5
-1.273, 4.673e-5
-1.274, 4.858e-5
-1.275, 4.663e-5
-1.276, 4.823e-5
-1.277, 4.782e-5
-1.278, 4.724e-5
-1.279, 4.883e-5
-1.280, 4.741e-5
-1.281, 4.893e-5
-1.282, 4.848e-5
-1.283, 4.785e-5
-1.284, 4.952e-5
-1.285, 4.775e-5
-1.286, 4.933e-5
-1.287, 4.898e-5
-1.288, 4.842e-5
-1.289, 5.015e-5
-1.290, 4.840e-5
-1.291, 5.019e-5
-1.292, 4.965e-5
-1.293, 4.934e-5
-1.294, 5.098e-5
-1.295, 4.923e-5
-1.296, 5.094e-5
-1.297, 5.059e-5
-1.298, 5.024e-5
-1.299, 5.207e-5
-1.300, 5.045e-5
-1.301, 5.206e-5
-1.302, 5.159e-5
-1.303, 5.129e-5
-1.304, 5.286e-5
-1.305, 5.107e-5
-1.306, 5.301e-5
-1.307, 5.254e-5
-1.308, 5.208e-5
-1.309, 5.388e-5
-1.310, 5.216e-5
-1.311, 5.394e-5
-1.312, 5.336e-5
-1.313, 5.316e-5
-1.314, 5.474e-5
-1.315, 5.309e-5
-1.316, 5.494e-5
-1.317, 5.449e-5
-1.318, 5.417e-5
-1.319, 5.612e-5
-1.320, 5.448e-5
-1.321, 5.641e-5
-1.322, 5.587e-5
-1.323, 5.562e-5
-1.324, 5.747e-5
-1.325, 5.585e-5
-1.326, 5.775e-5
-1.327, 5.735e-5
-1.328, 5.722e-5
-1.329, 5.892e-5
-1.330, 5.751e-5
-1.331, 5.942e-5
-1.332, 5.914e-5
-1.333, 5.905e-5
-1.334, 6.087e-5
-1.335, 5.953e-5
-1.336, 6.149e-5
-1.337, 6.124e-5
-1.338, 6.119e-5
-1.339, 6.287e-5
-1.340, 6.146e-5
-1.341, 6.361e-5
-1.342, 6.314e-5
-1.343, 6.327e-5
-1.344, 6.518e-5
-1.345, 6.387e-5
-1.346, 6.572e-5
-1.347, 6.559e-5
-1.348, 6.555e-5
-1.349, 6.739e-5
-1.350, 6.591e-5
-1.351, 6.815e-5
-1.352, 6.774e-5
-1.353, 6.790e-5
-1.354, 6.977e-5
-1.355, 6.844e-5
-1.356, 7.054e-5
-1.357, 7.021e-5
-1.358, 7.049e-5
-1.359, 7.248e-5
-1.360, 7.109e-5
-1.361, 7.351e-5
-1.362, 7.330e-5
-1.363, 7.352e-5
-1.364, 7.550e-5
-1.365, 7.445e-5
-1.366, 7.660e-5
-1.367, 7.647e-5
-1.368, 7.636e-5
-1.369, 7.848e-5
-1.370, 7.729e-5
-1.371, 7.965e-5
-1.372, 7.938e-5
-1.373, 7.955e-5
-1.374, 8.175e-5
-1.375, 8.064e-5
-1.376, 8.296e-5
-1.377, 8.278e-5
-1.378, 8.327e-5
-1.379, 8.527e-5
-1.380, 8.437e-5
-1.381, 8.680e-5
-1.382, 8.679e-5
-1.383, 8.722e-5
-1.384, 8.956e-5
-1.385, 8.862e-5
-1.386, 9.099e-5
-1.387, 9.099e-5
-1.388, 9.164e-5
-1.389, 9.392e-5
-1.390, 9.296e-5
-1.391, 9.538e-5
-1.392, 9.562e-5
-1.393, 9.632e-5
-1.394, 9.874e-5
-1.395, 9.786e-5
-1.396, 1.006e-4
-1.397, 1.009e-4
-1.398, 1.018e-4
-1.399, 1.043e-4
-1.400, 1.034e-4
-1.401, 1.063e-4
-1.402, 1.066e-4
-1.403, 1.072e-4
-1.404, 1.097e-4
-1.405, 1.090e-4
-1.406, 1.120e-4
-1.407, 1.123e-4
-1.408, 1.132e-4
-1.409, 1.159e-4
-1.410, 1.154e-4
-1.411, 1.182e-4
-1.412, 1.186e-4
-1.413, 1.196e-4
-1.414, 1.221e-4
-1.415, 1.216e-4
-1.416, 1.246e-4
-1.417, 1.251e-4
-1.418, 1.262e-4
-1.419, 1.289e-4
-1.420, 1.286e-4
-1.421, 1.320e-4
-1.422, 1.325e-4
-1.423, 1.339e-4
-1.424, 1.367e-4
-1.425, 1.366e-4
-1.426, 1.400e-4
-1.427, 1.406e-4
-1.428, 1.421e-4
-1.429, 1.449e-4
-1.430, 1.447e-4
-1.431, 1.481e-4
-1.432, 1.490e-4
-1.433, 1.506e-4
-1.434, 1.540e-4
-1.435, 1.539e-4
-1.436, 1.574e-4
-1.437, 1.585e-4
-1.438, 1.602e-4
-1.439, 1.635e-4
-1.440, 1.633e-4
-1.441, 1.673e-4
-1.442, 1.684e-4
-1.443, 1.701e-4
-1.444, 1.736e-4
-1.445, 1.739e-4
-1.446, 1.777e-4
-1.447, 1.790e-4
-1.448, 1.809e-4
-1.449, 1.844e-4
-1.450, 1.848e-4
-1.451, 1.888e-4
-1.452, 1.902e-4
-1.453, 1.923e-4
-1.454, 1.959e-4
-1.455, 1.962e-4
-1.456, 2.007e-4
-1.457, 2.024e-4
-1.458, 2.049e-4
-1.459, 2.085e-4
-1.460, 2.094e-4
-1.461, 2.137e-4
-1.462, 2.153e-4
-1.463, 2.179e-4
-1.464, 2.217e-4
-1.465, 2.227e-4
-1.466, 2.275e-4
-1.467, 2.291e-4
-1.468, 2.320e-4
-1.469, 2.361e-4
-1.470, 2.371e-4
-1.471, 2.421e-4
-1.472, 2.437e-4
-1.473, 2.467e-4
-1.474, 2.510e-4
-1.475, 2.523e-4
-1.476, 2.577e-4
-1.477, 2.597e-4
-1.478, 2.633e-4
-1.479, 2.679e-4
-1.480, 2.695e-4
-1.481, 2.749e-4
-1.482, 2.773e-4
-1.483, 2.808e-4
-1.484, 2.854e-4
-1.485, 2.875e-4
-1.486, 2.929e-4
-1.487, 2.955e-4
-1.488, 2.993e-4
-1.489, 3.045e-4
-1.490, 3.069e-4
-1.491, 3.127e-4
-1.492, 3.157e-4
-1.493, 3.192e-4
-1.494, 3.246e-4
-1.495, 3.275e-4
-1.496, 3.337e-4
-1.497, 3.369e-4
-1.498, 3.420e-4
-1.499, 3.477e-4
-1.500, 3.498e-4
-1.501, 3.562e-4
-1.502, 3.597e-4
-1.503, 3.647e-4
-1.504, 3.706e-4
-1.505, 3.739e-4
-1.506, 3.810e-4
-1.507, 3.844e-4
-1.508, 3.898e-4
-1.509, 3.960e-4
-1.510, 3.998e-4
-1.511, 4.074e-4
-1.512, 4.108e-4
-1.513, 4.163e-4
-1.514, 4.229e-4
-1.515, 4.269e-4
-1.516, 4.348e-4
-1.517, 4.387e-4
-1.518, 4.450e-4
-1.519, 4.522e-4
-1.520, 4.565e-4
-1.521, 4.640e-4
-1.522, 4.691e-4
-1.523, 4.766e-4
-1.524, 4.831e-4
-1.525, 4.881e-4
-1.526, 4.973e-4
-1.527, 5.012e-4
-1.528, 5.091e-4
-1.529, 5.169e-4
-1.530, 5.219e-4
-1.531, 5.315e-4
-1.532, 5.362e-4
-1.533, 5.447e-4
-1.534, 5.529e-4
-1.535, 5.585e-4
-1.536, 5.691e-4
-1.537, 5.742e-4
-1.538, 5.834e-4
-1.539, 5.923e-4
-1.540, 5.980e-4
-1.541, 6.092e-4
-1.542, 6.150e-4
-1.543, 6.242e-4
-1.544, 6.340e-4
-1.545, 6.412e-4
-1.546, 6.522e-4
-1.547, 6.594e-4
-1.548, 6.695e-4
-1.549, 6.798e-4
-1.550, 6.878e-4
-1.551, 6.997e-4
-1.552, 7.076e-4
-1.553, 7.187e-4
-1.554, 7.294e-4
-1.555, 7.382e-4
-1.556, 7.513e-4
-1.557, 7.608e-4
-1.558, 7.717e-4
-1.559, 7.843e-4
-1.560, 7.932e-4
-1.561, 8.078e-4
-1.562, 8.176e-4
-1.563, 8.298e-4
-1.564, 8.429e-4
-1.565, 8.533e-4
-1.566, 8.683e-4
-1.567, 8.788e-4
-1.568, 8.930e-4
-1.569, 9.067e-4
-1.570, 9.189e-4
-1.571, 9.352e-4
-1.572, 9.466e-4
-1.573, 9.618e-4
-1.574, 9.774e-4
-1.575, 9.908e-4
-1.576, 1.009e-3
-1.577, 1.021e-3
-1.578, 1.038e-3
-1.579, 1.056e-3
-1.580, 1.073e-3
-1.581, 1.092e-3
-1.582, 1.106e-3
-1.583, 1.124e-3
-1.584, 1.142e-3
-1.585, 1.159e-3
-1.586, 1.182e-3
-1.587, 1.198e-3
-1.588, 1.218e-3
-1.589, 1.238e-3
-1.590, 1.256e-3
-1.591, 1.280e-3
-1.592, 1.299e-3
-1.593, 1.322e-3
-1.594, 1.345e-3
-1.595, 1.366e-3
-1.596, 1.392e-3
-1.597, 1.413e-3
-1.598, 1.438e-3
-1.599, 1.463e-3
-1.600, 1.487e-3
-1.601, 1.516e-3
-1.602, 1.539e-3
-1.603, 1.569e-3
-1.604, 1.596e-3
-1.605, 1.622e-3
-1.606, 1.653e-3
-1.607, 1.678e-3
-1.608, 1.710e-3
-1.609, 1.738e-3
-1.610, 1.767e-3
-1.611, 1.802e-3
-1.612, 1.830e-3
-1.613, 1.864e-3
-1.614, 1.898e-3
-1.615, 1.929e-3
-1.616, 1.968e-3
-1.617, 1.999e-3
-1.618, 2.038e-3
-1.619, 2.072e-3
-1.620, 2.107e-3
-1.621, 2.149e-3
-1.622, 2.184e-3
-1.623, 2.227e-3
-1.624, 2.266e-3
-1.625, 2.305e-3
-1.626, 2.349e-3
-1.627, 2.388e-3
-1.628, 2.436e-3
-1.629, 2.477e-3
-1.630, 2.519e-3
-1.631, 2.570e-3
-1.632, 2.610e-3
-1.633, 2.660e-3
-1.634, 2.704e-3
-1.635, 2.749e-3
-1.636, 2.801e-3
-1.637, 2.846e-3
-1.638, 2.899e-3
-1.639, 2.948e-3
-1.640, 2.998e-3
-1.641, 3.054e-3
-1.642, 3.103e-3
-1.643, 3.164e-3
-1.644, 3.219e-3
-1.645, 3.273e-3
-1.646, 3.333e-3
-1.647, 3.383e-3
-1.648, 3.444e-3
-1.649, 3.499e-3
-1.650, 3.557e-3
-1.651, 3.620e-3
-1.652, 3.672e-3
-1.653, 3.736e-3
-1.654, 3.797e-3
-1.655, 3.859e-3
-1.656, 3.926e-3
-1.657, 3.983e-3
-1.658, 4.054e-3
-1.659, 4.118e-3
-1.660, 4.183e-3
-1.661, 4.257e-3
-1.662, 4.319e-3
-1.663, 4.393e-3
-1.664, 4.460e-3
-1.665, 4.530e-3
-1.666, 4.608e-3
-1.667, 4.675e-3
-1.668, 4.753e-3
-1.669, 4.821e-3
-1.670, 4.892e-3
-1.671, 4.969e-3
-1.672, 5.034e-3
-1.673, 5.112e-3
-1.674, 5.184e-3
-1.675, 5.260e-3
-1.676, 5.345e-3
-1.677, 5.414e-3
-1.678, 5.498e-3
-1.679, 5.572e-3
-1.680, 5.649e-3
-1.681, 5.734e-3
-1.682, 5.808e-3
-1.683, 5.898e-3
-1.684, 5.974e-3
-1.685, 6.055e-3
-1.686, 6.146e-3
-1.687, 6.225e-3
-1.688, 6.323e-3
-1.689, 6.408e-3
-1.690, 6.495e-3
-1.691, 6.589e-3
-1.692, 6.675e-3
-1.693, 6.774e-3
-1.694, 6.862e-3
-1.695, 6.951e-3
-1.696, 7.044e-3
-1.697, 7.127e-3
-1.698, 7.229e-3
-1.699, 7.315e-3
-1.700, 7.334e-3
-1.699, 7.289e-3
-1.698, 7.237e-3
-1.697, 7.199e-3
-1.696, 7.131e-3
-1.695, 7.078e-3
-1.694, 7.033e-3
-1.693, 6.984e-3
-1.692, 6.960e-3
-1.691, 6.919e-3
-1.690, 6.869e-3
-1.689, 6.822e-3
-1.688, 6.762e-3
-1.687, 6.724e-3
-1.686, 6.681e-3
-1.685, 6.637e-3
-1.684, 6.586e-3
-1.683, 6.516e-3
-1.682, 6.468e-3
-1.681, 6.405e-3
-1.680, 6.347e-3
-1.679, 6.301e-3
-1.678, 6.240e-3
-1.677, 6.190e-3
-1.676, 6.127e-3
-1.675, 6.069e-3
-1.674, 6.021e-3
-1.673, 5.963e-3
-1.672, 5.919e-3
-1.671, 5.864e-3
-1.670, 5.813e-3
-1.669, 5.766e-3
-1.668, 5.706e-3
-1.667, 5.660e-3
-1.666, 5.606e-3
-1.665, 5.553e-3
-1.664, 5.506e-3
-1.663, 5.448e-3
-1.662, 5.403e-3
-1.661, 5.348e-3
-1.660, 5.294e-3
-1.659, 5.250e-3
-1.658, 5.192e-3
-1.657, 5.150e-3
-1.656, 5.099e-3
-1.655, 5.042e-3
-1.654, 4.993e-3
-1.653, 4.933e-3
-1.652, 4.881e-3
-1.651, 4.826e-3
-1.650, 4.777e-3
-1.649, 4.735e-3
-1.648, 4.679e-3
-1.647, 4.636e-3
-1.646, 4.585e-3
-1.645, 4.538e-3
-1.644, 4.497e-3
-1.643, 4.444e-3
-1.642, 4.403e-3
-1.641, 4.352e-3
-1.640, 4.303e-3
-1.639, 4.262e-3
-1.638, 4.209e-3
-1.637, 4.173e-3
-1.636, 4.127e-3
-1.635, 4.080e-3
-1.634, 4.038e-3
-1.633, 3.986e-3
-1.632, 3.951e-3
-1.631, 3.906e-3
-1.630, 3.862e-3
-1.629, 3.823e-3
-1.628, 3.775e-3
-1.627, 3.739e-3
-1.626, 3.694e-3
-1.625, 3.650e-3
-1.624, 3.612e-3
-1.623, 3.564e-3
-1.622, 3.529e-3
-1.621, 3.486e-3
-1.620, 3.445e-3
-1.619, 3.409e-3
-1.618, 3.365e-3
-1.617, 3.332e-3
-1.616, 3.290e-3
-1.615, 3.249e-3
-1.614, 3.215e-3
-1.613, 3.171e-3
-1.612, 3.141e-3
-1.611, 3.102e-3
-1.610, 3.063e-3
-1.609, 3.028e-3
-1.608, 2.987e-3
-1.607, 2.955e-3
-1.606, 2.916e-3
-1.605, 2.880e-3
-1.604, 2.850e-3
-1.603, 2.811e-3
-1.602, 2.783e-3
-1.601, 2.747e-3
-1.600, 2.711e-3
-1.599, 2.681e-3
-1.598, 2.640e-3
-1.597, 2.614e-3
-1.596, 2.581e-3
-1.595, 2.548e-3
-1.594, 2.519e-3
-1.593, 2.483e-3
-1.592, 2.457e-3
-1.591, 2.424e-3
-1.590, 2.392e-3
-1.589, 2.365e-3
-1.588, 2.332e-3
-1.587, 2.306e-3
-1.586, 2.275e-3
-1.585, 2.245e-3
-1.584, 2.221e-3
-1.583, 2.190e-3
-1.582, 2.166e-3
-1.581, 2.136e-3
-1.580, 2.107e-3
-1.579, 2.083e-3
-1.578, 2.051e-3
-1.577, 2.028e-3
-1.576, 2.000e-3
-1.575, 1.974e-3
-1.574, 1.952e-3
-1.573, 1.923e-3
-1.572, 1.901e-3
-1.571, 1.875e-3
-1.570, 1.849e-3
-1.569, 1.828e-3
-1.568, 1.801e-3
-1.567, 1.781e-3
-1.566, 1.756e-3
-1.565, 1.732e-3
-1.564, 1.712e-3
-1.563, 1.686e-3
-1.562, 1.667e-3
-1.561, 1.643e-3
-1.560, 1.620e-3
-1.559, 1.601e-3
-1.558, 1.576e-3
-1.557, 1.558e-3
-1.556, 1.536e-3
-1.555, 1.515e-3
-1.554, 1.498e-3
-1.553, 1.475e-3
-1.552, 1.458e-3
-1.551, 1.437e-3
-1.550, 1.417e-3
-1.549, 1.400e-3
-1.548, 1.377e-3
-1.547, 1.361e-3
-1.546, 1.341e-3
-1.545, 1.321e-3
-1.544, 1.307e-3
-1.543, 1.286e-3
-1.542, 1.270e-3
-1.541, 1.252e-3
-1.540, 1.233e-3
-1.539, 1.218e-3
-1.538, 1.200e-3
-1.537, 1.186e-3
-1.536, 1.169e-3
-1.535, 1.151e-3
-1.534, 1.138e-3
-1.533, 1.119e-3
-1.532, 1.106e-3
-1.531, 1.091e-3
-1.530, 1.074e-3
-1.529, 1.061e-3
-1.528, 1.044e-3
-1.527, 1.030e-3
-1.526, 1.015e-3
-1.525, 9.996e-4
-1.524, 9.875e-4
-1.523, 9.703e-4
-1.522, 9.584e-4
-1.521, 9.431e-4
-1.520, 9.286e-4
-1.519, 9.176e-4
-1.518, 9.010e-4
-1.517, 8.904e-4
-1.516, 8.771e-4
-1.515, 8.625e-4
-1.514, 8.524e-4
-1.513, 8.368e-4
-1.512, 8.262e-4
-1.511, 8.131e-4
-1.510, 7.994e-4
-1.509, 7.901e-4
-1.508, 7.749e-4
-1.507, 7.653e-4
-1.506, 7.534e-4
-1.505, 7.411e-4
-1.504, 7.326e-4
-1.503, 7.194e-4
-1.502, 7.104e-4
-1.501, 6.986e-4
-1.500, 6.876e-4
-1.499, 6.786e-4
-1.498, 6.663e-4
-1.497, 6.573e-4
-1.496, 6.468e-4
-1.495, 6.359e-4
-1.494, 6.283e-4
-1.493, 6.166e-4
-1.492, 6.085e-4
-1.491, 5.994e-4
-1.490, 5.888e-4
-1.489, 5.821e-4
-1.488, 5.704e-4
-1.487, 5.628e-4
-1.486, 5.539e-4
-1.485, 5.433e-4
-1.484, 5.371e-4
-1.483, 5.265e-4
-1.482, 5.195e-4
-1.481, 5.112e-4
-1.480, 5.018e-4
-1.479, 4.961e-4
-1.478, 4.855e-4
-1.477, 4.793e-4
-1.476, 4.715e-4
-1.475, 4.628e-4
-1.474, 4.577e-4
-1.473, 4.473e-4
-1.472, 4.417e-4
-1.471, 4.341e-4
-1.470, 4.260e-4
-1.469, 4.214e-4
-1.468, 4.123e-4
-1.467, 4.071e-4
-1.466, 4.002e-4
-1.465, 3.923e-4
-1.464, 3.881e-4
-1.463, 3.790e-4
-1.462, 3.741e-4
-1.461, 3.678e-4
-1.460, 3.601e-4
-1.459, 3.561e-4
-1.458, 3.483e-4
-1.457, 3.432e-4
-1.456, 3.376e-4
-1.455, 3.308e-4
-1.454, 3.269e-4
-1.453, 3.198e-4
-1.452, 3.154e-4
-1.451, 3.093e-4
-1.450, 3.030e-4
-1.449, 2.997e-4
-1.448, 2.922e-4
-1.447, 2.884e-4
-1.446, 2.834e-4
-1.445, 2.770e-4
-1.444, 2.742e-4
-1.443, 2.677e-4
-1.442, 2.638e-4
-1.441, 2.589e-4
-1.440, 2.532e-4
-1.439, 2.503e-4
-1.438, 2.442e-4
-1.437, 2.409e-4
-1.436, 2.366e-4
-1.435, 2.309e-4
-1.434, 2.286e-4
-1.433, 2.228e-4
-1.432, 2.196e-4
-1.431, 2.158e-4
-1.430, 2.108e-4
-1.429, 2.087e-4
-1.428, 2.027e-4
-1.427, 1.998e-4
-1.426, 1.962e-4
-1.425, 1.914e-4
-1.424, 1.896e-4
-1.423, 1.841e-4
-1.422, 1.816e-4
-1.421, 1.783e-4
-1.420, 1.737e-4
-1.419, 1.717e-4
-1.418, 1.668e-4
-1.417, 1.647e-4
-1.416, 1.615e-4
-1.415, 1.572e-4
-1.414, 1.559e-4
-1.413, 1.513e-4
-1.412, 1.492e-4
-1.411, 1.464e-4
-1.410, 1.422e-4
-1.409, 1.412e-4
-1.408, 1.368e-4
-1.407, 1.350e-4
-1.406, 1.324e-4
-1.405, 1.283e-4
-1.404, 1.276e-4
-1.403, 1.233e-4
-1.402, 1.217e-4
-1.401, 1.192e-4
-1.400, 1.156e-4
-1.399, 1.148e-4
-1.398, 1.109e-4
-1.397, 1.096e-4
-1.396, 1.074e-4
-1.395, 1.039e-4
-1.394, 1.038e-4
-1.393, 9.977e-5
-1.392, 9.852e-5
-1.391, 9.659e-5
-1.390, 9.342e-5
-1.389, 9.301e-5
-1.388, 8.931e-5
-1.387, 8.828e-5
-1.386, 8.647e-5
-1.385, 8.330e-5
-1.384, 8.345e-5
-1.383, 7.985e-5
-1.382, 7.886e-5
-1.381, 7.728e-5
-1.380, 7.429e-5
-1.379, 7.444e-5
-1.378, 7.115e-5
-1.377, 7.028e-5
-1.376, 6.884e-5
-1.375, 6.627e-5
-1.374, 6.645e-5
-1.373, 6.334e-5
-1.372, 6.266e-5
-1.371, 6.131e-5
-1.370, 5.866e-5
-1.369, 5.912e-5
-1.368, 5.588e-5
-1.367, 5.545e-5
-1.366, 5.429e-5
-1.365, 5.184e-5
-1.364, 5.236e-5
-1.363, 4.924e-5
-1.362, 4.913e-5
-1.361, 4.803e-5
-1.360, 4.558e-5
-1.359, 4.628e-5
-1.358, 4.343e-5
-1.357, 4.311e-5
-1.356, 4.206e-5
-1.355, 3.974e-5
-1.354, 4.054e-5
-1.353, 3.773e-5
-1.352, 3.754e-5
-1.351, 3.661e-5
-1.350, 3.453e-5
-1.349, 3.531e-5
-1.348, 3.265e-5
-1.347, 3.276e-5
-1.346, 3.202e-5
-1.345, 2.980e-5
-1.344, 3.075e-5
-1.343, 2.804e-5
-1.342, 2.816e-5
-1.341, 2.754e-5
-1.340, 2.538e-5
-1.339, 2.651e-5
-1.338, 2.397e-5
-1.337, 2.413e-5
-1.336, 2.359e-5
-1.335, 2.165e-5
-1.334, 2.264e-5
-1.333, 2.031e-5
-1.332, 2.056e-5
-1.331, 1.979e-5
-1.330, 1.794e-5
-1.329, 1.918e-5
-1.328, 1.671e-5
-1.327, 1.706e-5
-1.326, 1.641e-5
-1.325, 1.480e-5
-1.324, 1.590e-5
-1.323, 1.361e-5
-1.322, 1.404e-5
-1.321, 1.348e-5
-1.320, 1.190e-5
-1.319, 1.311e-5
-1.318, 1.075e-5
-1.317, 1.132e-5
-1.316, 1.087e-5
-1.315, 9.351e-6
-1.314, 1.064e-5
-1.313, 8.542e-6
-1.312, 8.976e-6
-1.311, 8.572e-6
-1.310, 6.934e-6
-1.309, 8.404e-6
-1.308, 6.302e-6
-1.307, 6.835e-6
-1.306, 6.519e-6
-1.305, 4.852e-6
-1.304, 6.421e-6
-1.303, 4.290e-6
-1.302, 4.882e-6
-1.301, 4.448e-6
-1.300, 3.047e-6
-1.299, 4.487e-6
-1.298, 2.553e-6
-1.297, 2.997e-6
-1.296, 2.918e-6
-1.295, 1.429e-6
-1.294, 2.820e-6
-1.293, 9.156e-7
-1.292, 1.567e-6
-1.291, 1.221e-6
-1.290, -6.117e-8
-1.289, 1.458e-6
-1.288, -6.137e-7
-1.287, 1.164e-7
-1.286, -3.157e-8
-1.285, -1.403e-6
-1.284, 2.447e-7
-1.283, -1.738e-6
-1.282, -1.067e-6
-1.281, -1.265e-6
-1.280, -2.715e-6
-1.279, -9.294e-7
-1.278, -3.051e-6
-1.277, -2.232e-6
-1.276, -2.449e-6
-1.275, -3.810e-6
-1.274, -2.123e-6
-1.273, -4.057e-6
-1.272, -3.258e-6
-1.271, -3.445e-6
-1.270, -4.698e-6
-1.269, -3.120e-6
-1.268, -5.132e-6
-1.267, -4.284e-6
-1.266, -4.343e-6
-1.265, -5.714e-6
-1.264, -3.800e-6
-1.263, -5.931e-6
-1.262, -5.014e-6
-1.261, -5.172e-6
-1.260, -6.326e-6
-1.259, -4.757e-6
-1.258, -6.602e-6
-1.257, -5.685e-6
-1.256, -5.882e-6
-1.255, -7.125e-6
-1.254, -5.487e-6
-1.253, -7.293e-6
-1.252, -6.444e-6
-1.251, -6.602e-6
-1.250, -7.875e-6
-1.249, -6.099e-6
-1.248, -8.181e-6
-1.247, -7.155e-6
-1.246, -7.362e-6
-1.245, -8.477e-6
-1.244, -6.711e-6
-1.243, -8.743e-6
-1.242, -7.688e-6
-1.241, -8.023e-6
-1.240, -9.108e-6
-1.239, -7.283e-6
-1.238, -9.454e-6
-1.237, -8.349e-6
-1.236, -8.447e-6
-1.235, -9.779e-6
-1.234, -7.984e-6
-1.233, -9.858e-6
-1.232, -8.822e-6
-1.231, -9.049e-6
-1.230, -1.029e-5
-1.229, -8.763e-6
-1.228, -1.068e-5
-1.227, -9.582e-6
-1.226, -9.769e-6
-1.225, -1.103e-5
-1.224, -9.069e-6
-1.223, -1.115e-5
-1.222, -9.967e-6
-1.221, -1.020e-5
-1.220, -1.134e-5
-1.219, -9.532e-6
-1.218, -1.143e-5
-1.217, -1.042e-5
-1.216, -1.052e-5
-1.215, -1.175e-5
-1.214, -9.828e-6
-1.213, -1.180e-5
-1.212, -1.083e-5
-1.211, -1.104e-5
-1.210, -1.222e-5
-1.209, -1.053e-5
-1.208, -1.247e-5
-1.207, -1.129e-5
-1.206, -1.155e-5
-1.205, -1.270e-5
-1.204, -1.070e-5
-1.203, -1.280e-5
-1.202, -1.179e-5
-1.201, -1.178e-5
-1.200, -1.292e-5
-1.199, -1.109e-5
-1.198, -1.316e-5
-1.197, -1.197e-5
-1.196, -1.223e-5
-1.195, -1.334e-5
-1.194, -1.158e-5
-1.193, -1.361e-5
-1.192, -1.234e-5
-1.191, -1.258e-5
-1.190, -1.376e-5
-1.189, -1.198e-5
-1.188, -1.390e-5
-1.187, -1.280e-5
-1.186, -1.282e-5
-1.185, -1.408e-5
-1.184, -1.209e-5
-1.183, -1.408e-5
-1.182, -1.291e-5
-1.181, -1.308e-5
-1.180, -1.429e-5
-1.179, -1.240e-5
-1.178, -1.456e-5
-1.177, -1.336e-5
-1.176, -1.359e-5
-1.175, -1.472e-5
-1.174, -1.288e-5
-1.173, -1.483e-5
-1.172, -1.383e-5
-1.171, -1.402e-5
-1.170, -1.508e-5
-1.169, -1.319e-5
-1.168, -1.535e-5
-1.167, -1.404e-5
-1.166, -1.433e-5
-1.165, -1.548e-5
-1.164, -1.367e-5
-1.163, -1.569e-5
-1.162, -1.433e-5
-1.161, -1.477e-5
-1.160, -1.578e-5
-1.159, -1.389e-5
-1.158, -1.605e-5
-1.157, -1.455e-5
-1.156, -1.507e-5
-1.155, -1.612e-5
-1.154, -1.418e-5
-1.153, -1.637e-5
-1.152, -1.510e-5
-1.151, -1.528e-5
-1.150, -1.641e-5
-1.149, -1.441e-5
-1.148, -1.650e-5
-1.147, -1.500e-5
-1.146, -1.526e-5
-1.145, -1.644e-5
-1.144, -1.449e-5
-1.143, -1.658e-5
-1.142, -1.524e-5
-1.141, -1.551e-5
-1.140, -1.666e-5
-1.139, -1.487e-5
-1.138, -1.699e-5
-1.137, -1.568e-5
-1.136, -1.600e-5
-1.135, -1.724e-5
-1.134, -1.528e-5
-1.133, -1.731e-5
-1.132, -1.603e-5
-1.131, -1.639e-5
-1.130, -1.734e-5
-1.129, -1.532e-5
-1.128, -1.746e-5
-1.127, -1.605e-5
-1.126, -1.649e-5
-1.125, -1.747e-5
-1.124, -1.552e-5
-1.123, -1.767e-5
-1.122, -1.624e-5
-1.121, -1.673e-5
-1.120, -1.787e-5
-1.119, -1.586e-5
-1.118, -1.814e-5
-1.117, -1.663e-5
-1.116, -1.705e-5
-1.115, -1.831e-5
-1.114, -1.634e-5
-1.113, -1.864e-5
-1.112, -1.720e-5
-1.111, -1.760e-5
-1.110, -1.862e-5
-1.109, -1.652e-5
-1.108, -1.870e-5
-1.107, -1.745e-5
-1.106, -1.766e-5
-1.105, -1.882e-5
-1.104, -1.694e-5
-1.103, -1.897e-5
-1.102, -1.770e-5
-1.101, -1.804e-5
-1.100, -1.912e-5
-1.099, -1.731e-5
-1.098, -1.962e-5
-1.097, -1.805e-5
-1.096, -1.852e-5
-1.095, -1.960e-5
-1.094, -1.764e-5
-1.093, -1.988e-5
-1.092, -1.844e-5
-1.091, -1.896e-5
-1.090, -1.984e-5
-1.089, -1.809e-5
-1.088, -2.018e-5
-1.087, -1.879e-5
-1.086, -1.934e-5
-1.085, -2.014e-5
-1.084, -1.831e-5
-1.083, -2.047e-5
-1.082, -1.901e-5
-1.081, -1.953e-5
-1.080, -2.064e-5
-1.079, -1.868e-5
-1.078, -2.093e-5
-1.077, -1.937e-5
-1.076, -1.975e-5
-1.075, -2.103e-5
-1.074, -1.910e-5
-1.073, -2.110e-5
-1.072, -1.956e-5
-1.071, -1.991e-5
-1.070, -2.098e-5
-1.069, -1.907e-5
-1.068, -2.129e-5
-1.067, -1.990e-5
-1.066, -2.042e-5
-1.065, -2.148e-5
-1.064, -1.964e-5
-1.063, -2.187e-5
-1.062, -2.039e-5
-1.061, -2.091e-5
-1.060, -2.180e-5
-1.059, -1.991e-5
-1.058, -2.215e-5
-1.057, -2.058e-5
-1.056, -2.095e-5
-1.055, -2.217e-5
-1.054, -2.040e-5
-1.053, -2.244e-5
-1.052, -2.086e-5
-1.051, -2.161e-5
-1.050, -2.265e-5
-1.049, -2.086e-5
-1.048, -2.301e-5
-1.047, -2.153e-5
-1.046, -2.212e-5
-1.045, -2.310e-5
-1.044, -2.105e-5
-1.043, -2.348e-5
-1.042, -2.173e-5
-1.041, -2.228e-5
-1.040, -2.333e-5
-1.039, -2.138e-5
-1.038, -2.370e-5
-1.037, -2.208e-5
-1.036, -2.283e-5
-1.035, -2.381e-5
-1.034, -2.198e-5
-1.033, -2.417e-5
-1.032, -2.254e-5
-1.031, -2.324e-5
-1.030, -2.434e-5
-1.029, -2.235e-5
-1.028, -2.479e-5
-1.027, -2.310e-5
-1.026, -2.380e-5
-1.025, -2.471e-5
-1.024, -2.282e-5
-1.023, -2.531e-5
-1.022, -2.365e-5
-1.021, -2.432e-5
-1.020, -2.524e-5
-1.019, -2.326e-5
-1.018, -2.550e-5
-1.017, -2.391e-5
-1.016, -2.460e-5
-1.015, -2.583e-5
-1.014, -2.379e-5
-1.013, -2.617e-5
-1.012, -2.438e-5
-1.011, -2.522e-5
-1.010, -2.624e-5
-1.009, -2.438e-5
-1.008, -2.677e-5
-1.007, -2.500e-5
-1.006, -2.566e-5
-1.005, -2.671e-5
-1.004, -2.473e-5
-1.003, -2.717e-5
-1.002, -2.537e-5
-1.001, -2.634e-5
