Aug. 12, 2024   11:00:07
Linear Sweep Voltammetry
File: c:/users/guazh/data/20240802_batch_500/2024-08-02-exp91\1acid_1ac-2024-08-12t10_57_00-lsvinphos\1acid_1ac_lsv_50mvs_efin_-2100mv.bin
Data Source:  Experiment
Instrument Model:  CHI760E
Header: LSV ran at 50 mVs with Efin at -2100mV
Note: 

Init E (V) = -0.6
Final E (V) = -2.1
Scan Rate (V/s) = 0.05
Sample Interval (V) = 0.001
Quiet Time (sec) = 2
Sensitivity (A/V) = 1e-4
Comp R (ohm) = 7.5

Results:

Channel 1:
Ep = -1.117V
ip = 8.751e-4A
Ah = 1.113e-3C

Potential/V, Current/A

-0.600, 9.310e-6
-0.601, 9.421e-6
-0.602, 9.485e-6
-0.603, 9.529e-6
-0.604, 9.569e-6
-0.605, 9.603e-6
-0.606, 9.636e-6
-0.607, 9.665e-6
-0.608, 9.692e-6
-0.609, 9.719e-6
-0.610, 9.743e-6
-0.611, 9.767e-6
-0.612, 9.791e-6
-0.613, 9.811e-6
-0.614, 9.832e-6
-0.615, 9.853e-6
-0.616, 9.871e-6
-0.617, 9.888e-6
-0.618, 9.902e-6
-0.619, 9.919e-6
-0.620, 9.933e-6
-0.621, 9.948e-6
-0.622, 9.963e-6
-0.623, 9.972e-6
-0.624, 9.985e-6
-0.625, 9.996e-6
-0.626, 1.001e-5
-0.627, 1.002e-5
-0.628, 1.002e-5
-0.629, 1.003e-5
-0.630, 1.004e-5
-0.631, 1.005e-5
-0.632, 1.006e-5
-0.633, 1.006e-5
-0.634, 1.007e-5
-0.635, 1.007e-5
-0.636, 1.008e-5
-0.637, 1.008e-5
-0.638, 1.008e-5
-0.639, 1.009e-5
-0.640, 1.009e-5
-0.641, 1.009e-5
-0.642, 1.009e-5
-0.643, 1.010e-5
-0.644, 1.010e-5
-0.645, 1.010e-5
-0.646, 1.010e-5
-0.647, 1.010e-5
-0.648, 1.010e-5
-0.649, 1.010e-5
-0.650, 1.010e-5
-0.651, 1.010e-5
-0.652, 1.010e-5
-0.653, 1.010e-5
-0.654, 1.010e-5
-0.655, 1.009e-5
-0.656, 1.009e-5
-0.657, 1.009e-5
-0.658, 1.009e-5
-0.659, 1.009e-5
-0.660, 1.008e-5
-0.661, 1.008e-5
-0.662, 1.008e-5
-0.663, 1.008e-5
-0.664, 1.007e-5
-0.665, 1.007e-5
-0.666, 1.007e-5
-0.667, 1.006e-5
-0.668, 1.006e-5
-0.669, 1.006e-5
-0.670, 1.005e-5
-0.671, 1.005e-5
-0.672, 1.005e-5
-0.673, 1.004e-5
-0.674, 1.004e-5
-0.675, 1.004e-5
-0.676, 1.004e-5
-0.677, 1.003e-5
-0.678, 1.003e-5
-0.679, 1.003e-5
-0.680, 1.002e-5
-0.681, 1.002e-5
-0.682, 1.002e-5
-0.683, 1.001e-5
-0.684, 1.001e-5
-0.685, 1.001e-5
-0.686, 1.001e-5
-0.687, 1.000e-5
-0.688, 1.001e-5
-0.689, 1.000e-5
-0.690, 9.999e-6
-0.691, 1.000e-5
-0.692, 9.998e-6
-0.693, 9.995e-6
-0.694, 9.995e-6
-0.695, 9.994e-6
-0.696, 9.990e-6
-0.697, 9.991e-6
-0.698, 9.991e-6
-0.699, 9.988e-6
-0.700, 9.990e-6
-0.701, 9.989e-6
-0.702, 9.986e-6
-0.703, 9.986e-6
-0.704, 9.989e-6
-0.705, 9.988e-6
-0.706, 9.989e-6
-0.707, 9.988e-6
-0.708, 9.990e-6
-0.709, 9.991e-6
-0.710, 9.993e-6
-0.711, 9.994e-6
-0.712, 9.995e-6
-0.713, 9.995e-6
-0.714, 9.997e-6
-0.715, 1.000e-5
-0.716, 1.000e-5
-0.717, 1.001e-5
-0.718, 1.001e-5
-0.719, 1.001e-5
-0.720, 1.001e-5
-0.721, 1.002e-5
-0.722, 1.002e-5
-0.723, 1.002e-5
-0.724, 1.003e-5
-0.725, 1.003e-5
-0.726, 1.004e-5
-0.727, 1.004e-5
-0.728, 1.004e-5
-0.729, 1.005e-5
-0.730, 1.005e-5
-0.731, 1.005e-5
-0.732, 1.006e-5
-0.733, 1.007e-5
-0.734, 1.007e-5
-0.735, 1.008e-5
-0.736, 1.008e-5
-0.737, 1.009e-5
-0.738, 1.009e-5
-0.739, 1.010e-5
-0.740, 1.011e-5
-0.741, 1.011e-5
-0.742, 1.012e-5
-0.743, 1.013e-5
-0.744, 1.013e-5
-0.745, 1.014e-5
-0.746, 1.015e-5
-0.747, 1.016e-5
-0.748, 1.016e-5
-0.749, 1.017e-5
-0.750, 1.018e-5
-0.751, 1.019e-5
-0.752, 1.020e-5
-0.753, 1.021e-5
-0.754, 1.022e-5
-0.755, 1.023e-5
-0.756, 1.024e-5
-0.757, 1.025e-5
-0.758, 1.026e-5
-0.759, 1.027e-5
-0.760, 1.028e-5
-0.761, 1.030e-5
-0.762, 1.031e-5
-0.763, 1.032e-5
-0.764, 1.033e-5
-0.765, 1.034e-5
-0.766, 1.036e-5
-0.767, 1.037e-5
-0.768, 1.039e-5
-0.769, 1.040e-5
-0.770, 1.042e-5
-0.771, 1.043e-5
-0.772, 1.045e-5
-0.773, 1.047e-5
-0.774, 1.048e-5
-0.775, 1.050e-5
-0.776, 1.052e-5
-0.777, 1.054e-5
-0.778, 1.055e-5
-0.779, 1.057e-5
-0.780, 1.059e-5
-0.781, 1.062e-5
-0.782, 1.064e-5
-0.783, 1.066e-5
-0.784, 1.068e-5
-0.785, 1.071e-5
-0.786, 1.073e-5
-0.787, 1.076e-5
-0.788, 1.078e-5
-0.789, 1.081e-5
-0.790, 1.084e-5
-0.791, 1.088e-5
-0.792, 1.091e-5
-0.793, 1.095e-5
-0.794, 1.099e-5
-0.795, 1.102e-5
-0.796, 1.106e-5
-0.797, 1.110e-5
-0.798, 1.114e-5
-0.799, 1.118e-5
-0.800, 1.122e-5
-0.801, 1.127e-5
-0.802, 1.131e-5
-0.803, 1.135e-5
-0.804, 1.139e-5
-0.805, 1.144e-5
-0.806, 1.148e-5
-0.807, 1.153e-5
-0.808, 1.157e-5
-0.809, 1.162e-5
-0.810, 1.166e-5
-0.811, 1.171e-5
-0.812, 1.176e-5
-0.813, 1.180e-5
-0.814, 1.185e-5
-0.815, 1.190e-5
-0.816, 1.195e-5
-0.817, 1.199e-5
-0.818, 1.204e-5
-0.819, 1.208e-5
-0.820, 1.213e-5
-0.821, 1.218e-5
-0.822, 1.223e-5
-0.823, 1.229e-5
-0.824, 1.235e-5
-0.825, 1.240e-5
-0.826, 1.246e-5
-0.827, 1.251e-5
-0.828, 1.257e-5
-0.829, 1.264e-5
-0.830, 1.270e-5
-0.831, 1.276e-5
-0.832, 1.282e-5
-0.833, 1.289e-5
-0.834, 1.296e-5
-0.835, 1.303e-5
-0.836, 1.310e-5
-0.837, 1.317e-5
-0.838, 1.325e-5
-0.839, 1.333e-5
-0.840, 1.341e-5
-0.841, 1.349e-5
-0.842, 1.358e-5
-0.843, 1.367e-5
-0.844, 1.375e-5
-0.845, 1.384e-5
-0.846, 1.394e-5
-0.847, 1.403e-5
-0.848, 1.414e-5
-0.849, 1.424e-5
-0.850, 1.434e-5
-0.851, 1.446e-5
-0.852, 1.457e-5
-0.853, 1.469e-5
-0.854, 1.481e-5
-0.855, 1.494e-5
-0.856, 1.507e-5
-0.857, 1.521e-5
-0.858, 1.534e-5
-0.859, 1.550e-5
-0.860, 1.565e-5
-0.861, 1.580e-5
-0.862, 1.597e-5
-0.863, 1.614e-5
-0.864, 1.632e-5
-0.865, 1.651e-5
-0.866, 1.670e-5
-0.867, 1.689e-5
-0.868, 1.710e-5
-0.869, 1.732e-5
-0.870, 1.754e-5
-0.871, 1.778e-5
-0.872, 1.802e-5
-0.873, 1.827e-5
-0.874, 1.854e-5
-0.875, 1.882e-5
-0.876, 1.910e-5
-0.877, 1.941e-5
-0.878, 1.972e-5
-0.879, 2.005e-5
-0.880, 2.040e-5
-0.881, 2.075e-5
-0.882, 2.114e-5
-0.883, 2.153e-5
-0.884, 2.193e-5
-0.885, 2.237e-5
-0.886, 2.282e-5
-0.887, 2.329e-5
-0.888, 2.379e-5
-0.889, 2.431e-5
-0.890, 2.484e-5
-0.891, 2.541e-5
-0.892, 2.598e-5
-0.893, 2.660e-5
-0.894, 2.724e-5
-0.895, 2.788e-5
-0.896, 2.857e-5
-0.897, 2.929e-5
-0.898, 3.002e-5
-0.899, 3.080e-5
-0.900, 3.160e-5
-0.901, 3.244e-5
-0.902, 3.330e-5
-0.903, 3.418e-5
-0.904, 3.510e-5
-0.905, 3.604e-5
-0.906, 3.703e-5
-0.907, 3.803e-5
-0.908, 3.907e-5
-0.909, 4.015e-5
-0.910, 4.125e-5
-0.911, 4.238e-5
-0.912, 4.354e-5
-0.913, 4.473e-5
-0.914, 4.595e-5
-0.915, 4.721e-5
-0.916, 4.851e-5
-0.917, 4.983e-5
-0.918, 5.119e-5
-0.919, 5.257e-5
-0.920, 5.399e-5
-0.921, 5.546e-5
-0.922, 5.695e-5
-0.923, 5.848e-5
-0.924, 6.003e-5
-0.925, 6.161e-5
-0.926, 6.324e-5
-0.927, 6.490e-5
-0.928, 6.659e-5
-0.929, 6.831e-5
-0.930, 7.006e-5
-0.931, 7.184e-5
-0.932, 7.366e-5
-0.933, 7.549e-5
-0.934, 7.733e-5
-0.935, 7.923e-5
-0.936, 8.114e-5
-0.937, 8.306e-5
-0.938, 8.501e-5
-0.939, 8.696e-5
-0.940, 8.893e-5
-0.941, 9.091e-5
-0.942, 9.289e-5
-0.943, 9.489e-5
-0.944, 9.689e-5
-0.945, 9.888e-5
-0.946, 1.009e-4
-0.947, 1.029e-4
-0.948, 1.049e-4
-0.949, 1.069e-4
-0.950, 1.088e-4
-0.951, 1.108e-4
-0.952, 1.128e-4
-0.953, 1.147e-4
-0.954, 1.167e-4
-0.955, 1.187e-4
-0.956, 1.206e-4
-0.957, 1.225e-4
-0.958, 1.245e-4
-0.959, 1.264e-4
-0.960, 1.284e-4
-0.961, 1.303e-4
-0.962, 1.322e-4
-0.963, 1.342e-4
-0.964, 1.361e-4
-0.965, 1.380e-4
-0.966, 1.400e-4
-0.967, 1.419e-4
-0.968, 1.439e-4
-0.969, 1.459e-4
-0.970, 1.478e-4
-0.971, 1.498e-4
-0.972, 1.518e-4
-0.973, 1.539e-4
-0.974, 1.559e-4
-0.975, 1.579e-4
-0.976, 1.600e-4
-0.977, 1.621e-4
-0.978, 1.642e-4
-0.979, 1.663e-4
-0.980, 1.684e-4
-0.981, 1.706e-4
-0.982, 1.727e-4
-0.983, 1.749e-4
-0.984, 1.772e-4
-0.985, 1.794e-4
-0.986, 1.817e-4
-0.987, 1.840e-4
-0.988, 1.863e-4
-0.989, 1.887e-4
-0.990, 1.911e-4
-0.991, 1.935e-4
-0.992, 1.960e-4
-0.993, 1.985e-4
-0.994, 2.010e-4
-0.995, 2.036e-4
-0.996, 2.062e-4
-0.997, 2.088e-4
-0.998, 2.115e-4
-0.999, 2.142e-4
-1.000, 2.170e-4
-1.001, 2.198e-4
-1.002, 2.226e-4
-1.003, 2.255e-4
-1.004, 2.284e-4
-1.005, 2.314e-4
-1.006, 2.344e-4
-1.007, 2.374e-4
-1.008, 2.405e-4
-1.009, 2.437e-4
-1.010, 2.469e-4
-1.011, 2.501e-4
-1.012, 2.534e-4
-1.013, 2.568e-4
-1.014, 2.602e-4
-1.015, 2.637e-4
-1.016, 2.672e-4
-1.017, 2.707e-4
-1.018, 2.743e-4
-1.019, 2.780e-4
-1.020, 2.817e-4
-1.021, 2.855e-4
-1.022, 2.894e-4
-1.023, 2.933e-4
-1.024, 2.973e-4
-1.025, 3.014e-4
-1.026, 3.054e-4
-1.027, 3.096e-4
-1.028, 3.138e-4
-1.029, 3.182e-4
-1.030, 3.225e-4
-1.031, 3.270e-4
-1.032, 3.315e-4
-1.033, 3.361e-4
-1.034, 3.407e-4
-1.035, 3.455e-4
-1.036, 3.502e-4
-1.037, 3.551e-4
-1.038, 3.601e-4
-1.039, 3.652e-4
-1.040, 3.703e-4
-1.041, 3.755e-4
-1.042, 3.807e-4
-1.043, 3.861e-4
-1.044, 3.916e-4
-1.045, 3.971e-4
-1.046, 4.027e-4
-1.047, 4.084e-4
-1.048, 4.142e-4
-1.049, 4.201e-4
-1.050, 4.260e-4
-1.051, 4.321e-4
-1.052, 4.382e-4
-1.053, 4.444e-4
-1.054, 4.508e-4
-1.055, 4.572e-4
-1.056, 4.637e-4
-1.057, 4.703e-4
-1.058, 4.770e-4
-1.059, 4.838e-4
-1.060, 4.907e-4
-1.061, 4.976e-4
-1.062, 5.047e-4
-1.063, 5.119e-4
-1.064, 5.191e-4
-1.065, 5.264e-4
-1.066, 5.339e-4
-1.067, 5.415e-4
-1.068, 5.491e-4
-1.069, 5.568e-4
-1.070, 5.646e-4
-1.071, 5.725e-4
-1.072, 5.805e-4
-1.073, 5.886e-4
-1.074, 5.968e-4
-1.075, 6.051e-4
-1.076, 6.135e-4
-1.077, 6.219e-4
-1.078, 6.304e-4
-1.079, 6.391e-4
-1.080, 6.477e-4
-1.081, 6.565e-4
-1.082, 6.654e-4
-1.083, 6.743e-4
-1.084, 6.833e-4
-1.085, 6.925e-4
-1.086, 7.017e-4
-1.087, 7.110e-4
-1.088, 7.204e-4
-1.089, 7.299e-4
-1.090, 7.395e-4
-1.091, 7.491e-4
-1.092, 7.589e-4
-1.093, 7.686e-4
-1.094, 7.785e-4
-1.095, 7.884e-4
-1.096, 7.985e-4
-1.097, 8.086e-4
-1.098, 8.187e-4
-1.099, 8.289e-4
-1.100, 8.392e-4
-1.101, 8.495e-4
-1.102, 8.600e-4
-1.103, 8.705e-4
-1.104, 8.811e-4
-1.105, 8.917e-4
-1.106, 9.024e-4
-1.107, 9.131e-4
-1.108, 9.239e-4
-1.109, 9.348e-4
-1.110, 9.457e-4
-1.111, 9.566e-4
-1.112, 9.676e-4
-1.113, 9.786e-4
-1.114, 9.898e-4
-1.115, 1.001e-3
-1.116, 1.010e-3
-1.117, 1.011e-3
-1.118, 1.011e-3
-1.119, 1.011e-3
-1.120, 1.011e-3
-1.121, 1.011e-3
-1.122, 1.011e-3
-1.123, 1.011e-3
-1.124, 1.011e-3
-1.125, 1.011e-3
-1.126, 1.011e-3
-1.127, 1.011e-3
-1.128, 1.011e-3
-1.129, 1.011e-3
-1.130, 1.011e-3
-1.131, 1.011e-3
-1.132, 1.011e-3
-1.133, 1.011e-3
-1.134, 1.011e-3
-1.135, 1.011e-3
-1.136, 1.011e-3
-1.137, 1.011e-3
-1.138, 1.011e-3
-1.139, 1.011e-3
-1.140, 1.011e-3
-1.141, 1.011e-3
-1.142, 1.011e-3
-1.143, 1.011e-3
-1.144, 1.011e-3
-1.145, 1.011e-3
-1.146, 1.011e-3
-1.147, 1.011e-3
-1.148, 1.011e-3
-1.149, 1.011e-3
-1.150, 1.011e-3
-1.151, 1.011e-3
-1.152, 1.011e-3
-1.153, 1.011e-3
-1.154, 1.011e-3
-1.155, 1.011e-3
-1.156, 1.011e-3
-1.157, 1.011e-3
-1.158, 1.011e-3
-1.159, 1.011e-3
-1.160, 1.011e-3
-1.161, 1.011e-3
-1.162, 1.011e-3
-1.163, 1.011e-3
-1.164, 1.011e-3
-1.165, 1.011e-3
-1.166, 1.011e-3
-1.167, 1.011e-3
-1.168, 1.011e-3
-1.169, 1.011e-3
-1.170, 1.011e-3
-1.171, 1.011e-3
-1.172, 1.011e-3
-1.173, 1.011e-3
-1.174, 1.011e-3
-1.175, 1.011e-3
-1.176, 1.011e-3
-1.177, 1.011e-3
-1.178, 1.011e-3
-1.179, 1.011e-3
-1.180, 1.011e-3
-1.181, 1.011e-3
-1.182, 1.011e-3
-1.183, 1.011e-3
-1.184, 1.011e-3
-1.185, 1.011e-3
-1.186, 1.011e-3
-1.187, 1.011e-3
-1.188, 1.011e-3
-1.189, 1.011e-3
-1.190, 1.011e-3
-1.191, 1.011e-3
-1.192, 1.011e-3
-1.193, 1.011e-3
-1.194, 1.011e-3
-1.195, 1.011e-3
-1.196, 1.011e-3
-1.197, 1.011e-3
-1.198, 1.011e-3
-1.199, 1.011e-3
-1.200, 1.011e-3
-1.201, 1.011e-3
-1.202, 1.011e-3
-1.203, 1.011e-3
-1.204, 1.011e-3
-1.205, 1.011e-3
-1.206, 1.011e-3
-1.207, 1.011e-3
-1.208, 1.011e-3
-1.209, 1.011e-3
-1.210, 1.011e-3
-1.211, 1.011e-3
-1.212, 1.011e-3
-1.213, 1.011e-3
-1.214, 1.011e-3
-1.215, 1.011e-3
-1.216, 1.011e-3
-1.217, 1.011e-3
-1.218, 1.011e-3
-1.219, 1.011e-3
-1.220, 1.011e-3
-1.221, 1.011e-3
-1.222, 1.011e-3
-1.223, 1.011e-3
-1.224, 1.011e-3
-1.225, 1.011e-3
-1.226, 1.011e-3
-1.227, 1.011e-3
-1.228, 1.011e-3
-1.229, 1.011e-3
-1.230, 1.011e-3
-1.231, 1.011e-3
-1.232, 1.011e-3
-1.233, 1.011e-3
-1.234, 1.011e-3
-1.235, 1.011e-3
-1.236, 1.011e-3
-1.237, 1.011e-3
-1.238, 1.011e-3
-1.239, 1.011e-3
-1.240, 1.011e-3
-1.241, 1.011e-3
-1.242, 1.011e-3
-1.243, 1.011e-3
-1.244, 1.011e-3
-1.245, 1.011e-3
-1.246, 1.011e-3
-1.247, 1.011e-3
-1.248, 1.011e-3
-1.249, 1.011e-3
-1.250, 1.011e-3
-1.251, 1.011e-3
-1.252, 1.011e-3
-1.253, 1.011e-3
-1.254, 1.011e-3
-1.255, 1.011e-3
-1.256, 1.011e-3
-1.257, 1.011e-3
-1.258, 1.011e-3
-1.259, 1.011e-3
-1.260, 1.011e-3
-1.261, 1.011e-3
-1.262, 1.011e-3
-1.263, 1.011e-3
-1.264, 1.011e-3
-1.265, 1.011e-3
-1.266, 1.011e-3
-1.267, 1.011e-3
-1.268, 1.011e-3
-1.269, 1.011e-3
-1.270, 1.011e-3
-1.271, 1.011e-3
-1.272, 1.011e-3
-1.273, 1.011e-3
-1.274, 1.011e-3
-1.275, 1.011e-3
-1.276, 1.011e-3
-1.277, 1.011e-3
-1.278, 1.011e-3
-1.279, 1.011e-3
-1.280, 1.011e-3
-1.281, 1.011e-3
-1.282, 1.011e-3
-1.283, 1.011e-3
-1.284, 1.011e-3
-1.285, 1.011e-3
-1.286, 1.011e-3
-1.287, 1.011e-3
-1.288, 1.011e-3
-1.289, 1.011e-3
-1.290, 1.011e-3
-1.291, 1.011e-3
-1.292, 1.011e-3
-1.293, 1.011e-3
-1.294, 1.011e-3
-1.295, 1.011e-3
-1.296, 1.011e-3
-1.297, 1.011e-3
-1.298, 1.011e-3
-1.299, 1.011e-3
-1.300, 1.011e-3
-1.301, 1.011e-3
-1.302, 1.011e-3
-1.303, 1.011e-3
-1.304, 1.011e-3
-1.305, 1.011e-3
-1.306, 1.011e-3
-1.307, 1.011e-3
-1.308, 1.011e-3
-1.309, 1.011e-3
-1.310, 1.011e-3
-1.311, 1.011e-3
-1.312, 1.011e-3
-1.313, 1.011e-3
-1.314, 1.011e-3
-1.315, 1.011e-3
-1.316, 1.011e-3
-1.317, 1.011e-3
-1.318, 1.011e-3
-1.319, 1.011e-3
-1.320, 1.011e-3
-1.321, 1.011e-3
-1.322, 1.011e-3
-1.323, 1.011e-3
-1.324, 1.011e-3
-1.325, 1.011e-3
-1.326, 1.011e-3
-1.327, 1.011e-3
-1.328, 1.011e-3
-1.329, 1.011e-3
-1.330, 1.011e-3
-1.331, 1.011e-3
-1.332, 1.011e-3
-1.333, 1.011e-3
-1.334, 1.011e-3
-1.335, 1.011e-3
-1.336, 1.011e-3
-1.337, 1.011e-3
-1.338, 1.011e-3
-1.339, 1.011e-3
-1.340, 1.011e-3
-1.341, 1.011e-3
-1.342, 1.011e-3
-1.343, 1.011e-3
-1.344, 1.011e-3
-1.345, 1.011e-3
-1.346, 1.011e-3
-1.347, 1.011e-3
-1.348, 1.011e-3
-1.349, 1.011e-3
-1.350, 1.011e-3
-1.351, 1.011e-3
-1.352, 1.011e-3
-1.353, 1.011e-3
-1.354, 1.011e-3
-1.355, 1.011e-3
-1.356, 1.011e-3
-1.357, 1.011e-3
-1.358, 1.011e-3
-1.359, 1.011e-3
-1.360, 1.011e-3
-1.361, 1.011e-3
-1.362, 1.011e-3
-1.363, 1.011e-3
-1.364, 1.011e-3
-1.365, 1.011e-3
-1.366, 1.011e-3
-1.367, 1.011e-3
-1.368, 1.011e-3
-1.369, 1.011e-3
-1.370, 1.011e-3
-1.371, 1.011e-3
-1.372, 1.011e-3
-1.373, 1.011e-3
-1.374, 1.011e-3
-1.375, 1.011e-3
-1.376, 1.011e-3
-1.377, 1.011e-3
-1.378, 1.011e-3
-1.379, 1.011e-3
-1.380, 1.011e-3
-1.381, 1.011e-3
-1.382, 1.011e-3
-1.383, 1.011e-3
-1.384, 1.011e-3
-1.385, 1.011e-3
-1.386, 1.011e-3
-1.387, 1.011e-3
-1.388, 1.011e-3
-1.389, 1.011e-3
-1.390, 1.011e-3
-1.391, 1.011e-3
-1.392, 1.011e-3
-1.393, 1.011e-3
-1.394, 1.011e-3
-1.395, 1.011e-3
-1.396, 1.011e-3
-1.397, 1.011e-3
-1.398, 1.011e-3
-1.399, 1.011e-3
-1.400, 1.011e-3
-1.401, 1.011e-3
-1.402, 1.011e-3
-1.403, 1.011e-3
-1.404, 1.011e-3
-1.405, 1.011e-3
-1.406, 1.011e-3
-1.407, 1.011e-3
-1.408, 1.011e-3
-1.409, 1.011e-3
-1.410, 1.011e-3
-1.411, 1.011e-3
-1.412, 1.011e-3
-1.413, 1.011e-3
-1.414, 1.011e-3
-1.415, 1.011e-3
-1.416, 1.011e-3
-1.417, 1.011e-3
-1.418, 1.011e-3
-1.419, 1.011e-3
-1.420, 1.011e-3
-1.421, 1.011e-3
-1.422, 1.011e-3
-1.423, 1.011e-3
-1.424, 1.011e-3
-1.425, 1.011e-3
-1.426, 1.011e-3
-1.427, 1.011e-3
-1.428, 1.011e-3
-1.429, 1.011e-3
-1.430, 1.011e-3
-1.431, 1.011e-3
-1.432, 1.011e-3
-1.433, 1.011e-3
-1.434, 1.011e-3
-1.435, 1.011e-3
-1.436, 1.011e-3
-1.437, 1.011e-3
-1.438, 1.011e-3
-1.439, 1.011e-3
-1.440, 1.011e-3
-1.441, 1.011e-3
-1.442, 1.011e-3
-1.443, 1.011e-3
-1.444, 1.011e-3
-1.445, 1.011e-3
-1.446, 1.011e-3
-1.447, 1.011e-3
-1.448, 1.011e-3
-1.449, 1.011e-3
-1.450, 1.011e-3
-1.451, 1.011e-3
-1.452, 1.011e-3
-1.453, 1.011e-3
-1.454, 1.011e-3
-1.455, 1.011e-3
-1.456, 1.011e-3
-1.457, 1.011e-3
-1.458, 1.011e-3
-1.459, 1.011e-3
-1.460, 1.011e-3
-1.461, 1.011e-3
-1.462, 1.011e-3
-1.463, 1.011e-3
-1.464, 1.011e-3
-1.465, 1.011e-3
-1.466, 1.011e-3
-1.467, 1.011e-3
-1.468, 1.011e-3
-1.469, 1.011e-3
-1.470, 1.011e-3
-1.471, 1.011e-3
-1.472, 1.011e-3
-1.473, 1.011e-3
-1.474, 1.011e-3
-1.475, 1.011e-3
-1.476, 1.011e-3
-1.477, 1.011e-3
-1.478, 1.011e-3
-1.479, 1.011e-3
-1.480, 1.011e-3
-1.481, 1.011e-3
-1.482, 1.011e-3
-1.483, 1.011e-3
-1.484, 1.011e-3
-1.485, 1.011e-3
-1.486, 1.011e-3
-1.487, 1.011e-3
-1.488, 1.011e-3
-1.489, 1.011e-3
-1.490, 1.011e-3
-1.491, 1.011e-3
-1.492, 1.011e-3
-1.493, 1.011e-3
-1.494, 1.011e-3
-1.495, 1.011e-3
-1.496, 1.011e-3
-1.497, 1.011e-3
-1.498, 1.011e-3
-1.499, 1.011e-3
-1.500, 1.011e-3
-1.501, 1.011e-3
-1.502, 1.011e-3
-1.503, 1.011e-3
-1.504, 1.011e-3
-1.505, 1.011e-3
-1.506, 1.011e-3
-1.507, 1.011e-3
-1.508, 1.011e-3
-1.509, 1.011e-3
-1.510, 1.011e-3
-1.511, 1.011e-3
-1.512, 1.011e-3
-1.513, 1.011e-3
-1.514, 1.011e-3
-1.515, 1.011e-3
-1.516, 1.011e-3
-1.517, 1.011e-3
-1.518, 1.011e-3
-1.519, 1.011e-3
-1.520, 1.011e-3
-1.521, 1.011e-3
-1.522, 1.011e-3
-1.523, 1.011e-3
-1.524, 1.011e-3
-1.525, 1.011e-3
-1.526, 1.011e-3
-1.527, 1.011e-3
-1.528, 1.011e-3
-1.529, 1.011e-3
-1.530, 1.011e-3
-1.531, 1.011e-3
-1.532, 1.011e-3
-1.533, 1.011e-3
-1.534, 1.011e-3
-1.535, 1.011e-3
-1.536, 1.011e-3
-1.537, 1.011e-3
-1.538, 1.011e-3
-1.539, 1.011e-3
-1.540, 1.011e-3
-1.541, 1.011e-3
-1.542, 1.011e-3
-1.543, 1.011e-3
-1.544, 1.011e-3
-1.545, 1.011e-3
-1.546, 1.011e-3
-1.547, 1.011e-3
-1.548, 1.011e-3
-1.549, 1.011e-3
-1.550, 1.011e-3
-1.551, 1.011e-3
-1.552, 1.011e-3
-1.553, 1.011e-3
-1.554, 1.011e-3
-1.555, 1.011e-3
-1.556, 1.011e-3
-1.557, 1.011e-3
-1.558, 1.011e-3
-1.559, 1.011e-3
-1.560, 1.011e-3
-1.561, 1.011e-3
-1.562, 1.011e-3
-1.563, 1.011e-3
-1.564, 1.011e-3
-1.565, 1.011e-3
-1.566, 1.011e-3
-1.567, 1.011e-3
-1.568, 1.011e-3
-1.569, 1.011e-3
-1.570, 1.011e-3
-1.571, 1.011e-3
-1.572, 1.011e-3
-1.573, 1.011e-3
-1.574, 1.011e-3
-1.575, 1.011e-3
-1.576, 1.011e-3
-1.577, 1.011e-3
-1.578, 1.011e-3
-1.579, 1.011e-3
-1.580, 1.011e-3
-1.581, 1.011e-3
-1.582, 1.011e-3
-1.583, 1.011e-3
-1.584, 1.011e-3
-1.585, 1.011e-3
-1.586, 1.011e-3
-1.587, 1.011e-3
-1.588, 1.011e-3
-1.589, 1.011e-3
-1.590, 1.011e-3
-1.591, 1.011e-3
-1.592, 1.011e-3
-1.593, 1.011e-3
-1.594, 1.011e-3
-1.595, 1.011e-3
-1.596, 1.011e-3
-1.597, 1.011e-3
-1.598, 1.011e-3
-1.599, 1.011e-3
-1.600, 1.011e-3
-1.601, 1.011e-3
-1.602, 1.011e-3
-1.603, 1.011e-3
-1.604, 1.011e-3
-1.605, 1.011e-3
-1.606, 1.011e-3
-1.607, 1.011e-3
-1.608, 1.011e-3
-1.609, 1.011e-3
-1.610, 1.011e-3
-1.611, 1.011e-3
-1.612, 1.011e-3
-1.613, 1.011e-3
-1.614, 1.011e-3
-1.615, 1.011e-3
-1.616, 1.011e-3
-1.617, 1.011e-3
-1.618, 1.011e-3
-1.619, 1.011e-3
-1.620, 1.011e-3
-1.621, 1.011e-3
-1.622, 1.011e-3
-1.623, 1.011e-3
-1.624, 1.011e-3
-1.625, 1.011e-3
-1.626, 1.011e-3
-1.627, 1.011e-3
-1.628, 1.011e-3
-1.629, 1.011e-3
-1.630, 1.011e-3
-1.631, 1.011e-3
-1.632, 1.011e-3
-1.633, 1.011e-3
-1.634, 1.011e-3
-1.635, 1.011e-3
-1.636, 1.011e-3
-1.637, 1.011e-3
-1.638, 1.011e-3
-1.639, 1.011e-3
-1.640, 1.011e-3
-1.641, 1.011e-3
-1.642, 1.011e-3
-1.643, 1.011e-3
-1.644, 1.011e-3
-1.645, 1.011e-3
-1.646, 1.011e-3
-1.647, 1.011e-3
-1.648, 1.011e-3
-1.649, 1.011e-3
-1.650, 1.011e-3
-1.651, 1.011e-3
-1.652, 1.011e-3
-1.653, 1.011e-3
-1.654, 1.011e-3
-1.655, 1.011e-3
-1.656, 1.011e-3
-1.657, 1.011e-3
-1.658, 1.011e-3
-1.659, 1.011e-3
-1.660, 1.011e-3
-1.661, 1.011e-3
-1.662, 1.011e-3
-1.663, 1.011e-3
-1.664, 1.011e-3
-1.665, 1.011e-3
-1.666, 1.011e-3
-1.667, 1.011e-3
-1.668, 1.011e-3
-1.669, 1.011e-3
-1.670, 1.011e-3
-1.671, 1.011e-3
-1.672, 1.011e-3
-1.673, 1.011e-3
-1.674, 1.011e-3
-1.675, 1.011e-3
-1.676, 1.011e-3
-1.677, 1.011e-3
-1.678, 1.011e-3
-1.679, 1.011e-3
-1.680, 1.011e-3
-1.681, 1.011e-3
-1.682, 1.011e-3
-1.683, 1.011e-3
-1.684, 1.011e-3
-1.685, 1.011e-3
-1.686, 1.011e-3
-1.687, 1.011e-3
-1.688, 1.011e-3
-1.689, 1.011e-3
-1.690, 1.011e-3
-1.691, 1.011e-3
-1.692, 1.011e-3
-1.693, 1.011e-3
-1.694, 1.011e-3
-1.695, 1.011e-3
-1.696, 1.011e-3
-1.697, 1.011e-3
-1.698, 1.011e-3
-1.699, 1.011e-3
-1.700, 1.011e-3
-1.701, 1.011e-3
-1.702, 1.011e-3
-1.703, 1.011e-3
-1.704, 1.011e-3
-1.705, 1.011e-3
-1.706, 1.011e-3
-1.707, 1.011e-3
-1.708, 1.011e-3
-1.709, 1.011e-3
-1.710, 1.011e-3
-1.711, 1.011e-3
-1.712, 1.011e-3
-1.713, 1.011e-3
-1.714, 1.011e-3
-1.715, 1.011e-3
-1.716, 1.011e-3
-1.717, 1.011e-3
-1.718, 1.011e-3
-1.719, 1.011e-3
-1.720, 1.011e-3
-1.721, 1.011e-3
-1.722, 1.011e-3
-1.723, 1.011e-3
-1.724, 1.011e-3
-1.725, 1.011e-3
-1.726, 1.011e-3
-1.727, 1.011e-3
-1.728, 1.011e-3
-1.729, 1.011e-3
-1.730, 1.011e-3
-1.731, 1.011e-3
-1.732, 1.011e-3
-1.733, 1.011e-3
-1.734, 1.011e-3
-1.735, 1.011e-3
-1.736, 1.011e-3
-1.737, 1.011e-3
-1.738, 1.011e-3
-1.739, 1.011e-3
-1.740, 1.011e-3
-1.741, 1.011e-3
-1.742, 1.011e-3
-1.743, 1.011e-3
-1.744, 1.011e-3
-1.745, 1.011e-3
-1.746, 1.011e-3
-1.747, 1.011e-3
-1.748, 1.011e-3
-1.749, 1.011e-3
-1.750, 1.011e-3
-1.751, 1.011e-3
-1.752, 1.011e-3
-1.753, 1.011e-3
-1.754, 1.011e-3
-1.755, 1.011e-3
-1.756, 1.011e-3
-1.757, 1.011e-3
-1.758, 1.011e-3
-1.759, 1.011e-3
-1.760, 1.011e-3
-1.761, 1.011e-3
-1.762, 1.011e-3
-1.763, 1.011e-3
-1.764, 1.011e-3
-1.765, 1.011e-3
-1.766, 1.011e-3
-1.767, 1.011e-3
-1.768, 1.011e-3
-1.769, 1.011e-3
-1.770, 1.011e-3
-1.771, 1.011e-3
-1.772, 1.011e-3
-1.773, 1.011e-3
-1.774, 1.011e-3
-1.775, 1.011e-3
-1.776, 1.011e-3
-1.777, 1.011e-3
-1.778, 1.011e-3
-1.779, 1.011e-3
-1.780, 1.011e-3
-1.781, 1.011e-3
-1.782, 1.011e-3
-1.783, 1.011e-3
-1.784, 1.011e-3
-1.785, 1.011e-3
-1.786, 1.011e-3
-1.787, 1.011e-3
-1.788, 1.011e-3
-1.789, 1.011e-3
-1.790, 1.011e-3
-1.791, 1.011e-3
-1.792, 1.011e-3
-1.793, 1.011e-3
-1.794, 1.011e-3
-1.795, 1.011e-3
-1.796, 1.011e-3
-1.797, 1.011e-3
-1.798, 1.011e-3
-1.799, 1.011e-3
-1.800, 1.011e-3
-1.801, 1.011e-3
-1.802, 1.011e-3
-1.803, 1.011e-3
-1.804, 1.011e-3
-1.805, 1.011e-3
-1.806, 1.011e-3
-1.807, 1.011e-3
-1.808, 1.011e-3
-1.809, 1.011e-3
-1.810, 1.011e-3
-1.811, 1.011e-3
-1.812, 1.011e-3
-1.813, 1.011e-3
-1.814, 1.011e-3
-1.815, 1.011e-3
-1.816, 1.011e-3
-1.817, 1.011e-3
-1.818, 1.011e-3
-1.819, 1.011e-3
-1.820, 1.011e-3
-1.821, 1.011e-3
-1.822, 1.011e-3
-1.823, 1.011e-3
-1.824, 1.011e-3
-1.825, 1.011e-3
-1.826, 1.011e-3
-1.827, 1.011e-3
-1.828, 1.011e-3
-1.829, 1.011e-3
-1.830, 1.011e-3
-1.831, 1.011e-3
-1.832, 1.011e-3
-1.833, 1.011e-3
-1.834, 1.011e-3
-1.835, 1.011e-3
-1.836, 1.011e-3
-1.837, 1.011e-3
-1.838, 1.011e-3
-1.839, 1.011e-3
-1.840, 1.011e-3
-1.841, 1.011e-3
-1.842, 1.011e-3
-1.843, 1.011e-3
-1.844, 1.011e-3
-1.845, 1.011e-3
-1.846, 1.011e-3
-1.847, 1.011e-3
-1.848, 1.011e-3
-1.849, 1.011e-3
-1.850, 1.011e-3
-1.851, 1.011e-3
-1.852, 1.011e-3
-1.853, 1.011e-3
-1.854, 1.011e-3
-1.855, 1.011e-3
-1.856, 1.011e-3
-1.857, 1.011e-3
-1.858, 1.011e-3
-1.859, 1.011e-3
-1.860, 1.011e-3
-1.861, 1.011e-3
-1.862, 1.011e-3
-1.863, 1.011e-3
-1.864, 1.011e-3
-1.865, 1.011e-3
-1.866, 1.011e-3
-1.867, 1.011e-3
-1.868, 1.011e-3
-1.869, 1.011e-3
-1.870, 1.011e-3
-1.871, 1.011e-3
-1.872, 1.011e-3
-1.873, 1.011e-3
-1.874, 1.011e-3
-1.875, 1.011e-3
-1.876, 1.011e-3
-1.877, 1.011e-3
-1.878, 1.011e-3
-1.879, 1.011e-3
-1.880, 1.011e-3
-1.881, 1.011e-3
-1.882, 1.011e-3
-1.883, 1.011e-3
-1.884, 1.011e-3
-1.885, 1.011e-3
-1.886, 1.011e-3
-1.887, 1.011e-3
-1.888, 1.011e-3
-1.889, 1.011e-3
-1.890, 1.011e-3
-1.891, 1.011e-3
-1.892, 1.011e-3
-1.893, 1.011e-3
-1.894, 1.011e-3
-1.895, 1.011e-3
-1.896, 1.011e-3
-1.897, 1.011e-3
-1.898, 1.011e-3
-1.899, 1.011e-3
-1.900, 1.011e-3
-1.901, 1.011e-3
-1.902, 1.011e-3
-1.903, 1.011e-3
-1.904, 1.011e-3
-1.905, 1.011e-3
-1.906, 1.011e-3
-1.907, 1.011e-3
-1.908, 1.011e-3
-1.909, 1.011e-3
-1.910, 1.011e-3
-1.911, 1.011e-3
-1.912, 1.011e-3
-1.913, 1.011e-3
-1.914, 1.011e-3
-1.915, 1.011e-3
-1.916, 1.011e-3
-1.917, 1.011e-3
-1.918, 1.011e-3
-1.919, 1.011e-3
-1.920, 1.011e-3
-1.921, 1.011e-3
-1.922, 1.011e-3
-1.923, 1.011e-3
-1.924, 1.011e-3
-1.925, 1.011e-3
-1.926, 1.011e-3
-1.927, 1.011e-3
-1.928, 1.011e-3
-1.929, 1.011e-3
-1.930, 1.011e-3
-1.931, 1.011e-3
-1.932, 1.011e-3
-1.933, 1.011e-3
-1.934, 1.011e-3
-1.935, 1.011e-3
-1.936, 1.011e-3
-1.937, 1.011e-3
-1.938, 1.011e-3
-1.939, 1.011e-3
-1.940, 1.011e-3
-1.941, 1.011e-3
-1.942, 1.011e-3
-1.943, 1.011e-3
-1.944, 1.011e-3
-1.945, 1.011e-3
-1.946, 1.011e-3
-1.947, 1.011e-3
-1.948, 1.011e-3
-1.949, 1.011e-3
-1.950, 1.011e-3
-1.951, 1.011e-3
-1.952, 1.011e-3
-1.953, 1.011e-3
-1.954, 1.011e-3
-1.955, 1.011e-3
-1.956, 1.011e-3
-1.957, 1.011e-3
-1.958, 1.011e-3
-1.959, 1.011e-3
-1.960, 1.011e-3
-1.961, 1.011e-3
-1.962, 1.011e-3
-1.963, 1.011e-3
-1.964, 1.011e-3
-1.965, 1.011e-3
-1.966, 1.011e-3
-1.967, 1.011e-3
-1.968, 1.011e-3
-1.969, 1.011e-3
-1.970, 1.011e-3
-1.971, 1.011e-3
-1.972, 1.011e-3
-1.973, 1.011e-3
-1.974, 1.011e-3
-1.975, 1.011e-3
-1.976, 1.011e-3
-1.977, 1.011e-3
-1.978, 1.011e-3
-1.979, 1.011e-3
-1.980, 1.011e-3
-1.981, 1.011e-3
-1.982, 1.011e-3
-1.983, 1.011e-3
-1.984, 1.011e-3
-1.985, 1.011e-3
-1.986, 1.011e-3
-1.987, 1.011e-3
-1.988, 1.011e-3
-1.989, 1.011e-3
-1.990, 1.011e-3
-1.991, 1.011e-3
-1.992, 1.011e-3
-1.993, 1.011e-3
-1.994, 1.011e-3
-1.995, 1.011e-3
-1.996, 1.011e-3
-1.997, 1.011e-3
-1.998, 1.011e-3
-1.999, 1.011e-3
-2.000, 1.011e-3
-2.001, 1.011e-3
-2.002, 1.011e-3
-2.003, 1.011e-3
-2.004, 1.011e-3
-2.005, 1.011e-3
-2.006, 1.011e-3
-2.007, 1.011e-3
-2.008, 1.011e-3
-2.009, 1.011e-3
-2.010, 1.011e-3
-2.011, 1.011e-3
-2.012, 1.011e-3
-2.013, 1.011e-3
-2.014, 1.011e-3
-2.015, 1.011e-3
-2.016, 1.011e-3
-2.017, 1.011e-3
-2.018, 1.011e-3
-2.019, 1.011e-3
-2.020, 1.011e-3
-2.021, 1.011e-3
-2.022, 1.011e-3
-2.023, 1.011e-3
-2.024, 1.011e-3
-2.025, 1.011e-3
-2.026, 1.011e-3
-2.027, 1.011e-3
-2.028, 1.011e-3
-2.029, 1.011e-3
-2.030, 1.011e-3
-2.031, 1.011e-3
-2.032, 1.011e-3
-2.033, 1.011e-3
-2.034, 1.011e-3
-2.035, 1.011e-3
-2.036, 1.011e-3
-2.037, 1.011e-3
-2.038, 1.011e-3
-2.039, 1.011e-3
-2.040, 1.011e-3
-2.041, 1.011e-3
-2.042, 1.011e-3
-2.043, 1.011e-3
-2.044, 1.011e-3
-2.045, 1.011e-3
-2.046, 1.011e-3
-2.047, 1.011e-3
-2.048, 1.011e-3
-2.049, 1.011e-3
-2.050, 1.011e-3
-2.051, 1.011e-3
-2.052, 1.011e-3
-2.053, 1.011e-3
-2.054, 1.011e-3
-2.055, 1.011e-3
-2.056, 1.011e-3
-2.057, 1.011e-3
-2.058, 1.011e-3
-2.059, 1.011e-3
-2.060, 1.011e-3
-2.061, 1.011e-3
-2.062, 1.011e-3
-2.063, 1.011e-3
-2.064, 1.011e-3
-2.065, 1.011e-3
-2.066, 1.011e-3
-2.067, 1.011e-3
-2.068, 1.011e-3
-2.069, 1.011e-3
-2.070, 1.011e-3
-2.071, 1.011e-3
-2.072, 1.011e-3
-2.073, 1.011e-3
-2.074, 1.011e-3
-2.075, 1.011e-3
-2.076, 1.011e-3
-2.077, 1.011e-3
-2.078, 1.011e-3
-2.079, 1.011e-3
-2.080, 1.011e-3
-2.081, 1.011e-3
-2.082, 1.011e-3
-2.083, 1.011e-3
-2.084, 1.011e-3
-2.085, 1.011e-3
-2.086, 1.011e-3
-2.087, 1.011e-3
-2.088, 1.011e-3
-2.089, 1.011e-3
-2.090, 1.011e-3
-2.091, 1.011e-3
-2.092, 1.011e-3
-2.093, 1.011e-3
-2.094, 1.011e-3
-2.095, 1.011e-3
-2.096, 1.011e-3
-2.097, 1.011e-3
-2.098, 1.011e-3
-2.099, 1.011e-3
