Mar. 13, 2025   20:05:40
Cyclic Voltammetry
File: c:/users/guazh/data/banditlqround7_x0exp891_r5/2025-03-03-exp886\exp886-2025-03-13t19_55_09-h2koh\exp886_cv_sr_300mvs_efin_-1500mv.bin
Data Source:  Experiment
Instrument Model:  CHI760E
Header: CV ran at 300 mVs
Note: 

Init E (V) = -1
High E (V) = -1
Low E (V) = -1.5
Final E (V) = -1
Init P/N = N
Scan Rate (V/s) = 0.3
Segment = 3
Sample Interval (V) = 0.001
Quiet Time (sec) = 2
Sensitivity (A/V) = 0.01
Comp R (ohm) = 1.7

Results:

Channel 1:
Segment 1:

Segment 2:

Segment 3:

Potential/V, Current/A

-1.000, 1.249e-5
-1.001, 2.790e-5
-1.002, 3.715e-5
-1.003, 4.024e-5
-1.004, 4.640e-5
-1.005, 4.949e-5
-1.006, 4.949e-5
-1.007, 5.257e-5
-1.008, 5.565e-5
-1.009, 5.257e-5
-1.010, 5.565e-5
-1.011, 5.565e-5
-1.012, 5.565e-5
-1.013, 5.565e-5
-1.014, 5.873e-5
-1.015, 5.873e-5
-1.016, 5.873e-5
-1.017, 5.873e-5
-1.018, 5.873e-5
-1.019, 5.873e-5
-1.020, 5.873e-5
-1.021, 5.873e-5
-1.022, 6.182e-5
-1.023, 6.182e-5
-1.024, 5.873e-5
-1.025, 5.873e-5
-1.026, 6.182e-5
-1.027, 6.182e-5
-1.028, 6.182e-5
-1.029, 5.873e-5
-1.030, 6.182e-5
-1.031, 6.182e-5
-1.032, 6.182e-5
-1.033, 6.182e-5
-1.034, 6.182e-5
-1.035, 6.182e-5
-1.036, 6.182e-5
-1.037, 6.182e-5
-1.038, 6.182e-5
-1.039, 6.182e-5
-1.040, 6.182e-5
-1.041, 6.182e-5
-1.042, 6.182e-5
-1.043, 6.182e-5
-1.044, 6.182e-5
-1.045, 6.182e-5
-1.046, 6.182e-5
-1.047, 6.182e-5
-1.048, 6.490e-5
-1.049, 6.182e-5
-1.050, 6.182e-5
-1.051, 6.490e-5
-1.052, 6.490e-5
-1.053, 6.490e-5
-1.054, 6.490e-5
-1.055, 6.490e-5
-1.056, 6.490e-5
-1.057, 6.490e-5
-1.058, 6.490e-5
-1.059, 6.490e-5
-1.060, 6.490e-5
-1.061, 6.490e-5
-1.062, 6.490e-5
-1.063, 6.490e-5
-1.064, 6.490e-5
-1.065, 6.490e-5
-1.066, 6.490e-5
-1.067, 6.490e-5
-1.068, 6.490e-5
-1.069, 6.490e-5
-1.070, 6.798e-5
-1.071, 6.490e-5
-1.072, 6.490e-5
-1.073, 6.490e-5
-1.074, 6.490e-5
-1.075, 6.490e-5
-1.076, 6.798e-5
-1.077, 6.490e-5
-1.078, 6.490e-5
-1.079, 6.490e-5
-1.080, 6.490e-5
-1.081, 6.798e-5
-1.082, 6.798e-5
-1.083, 6.490e-5
-1.084, 6.490e-5
-1.085, 6.490e-5
-1.086, 6.490e-5
-1.087, 6.490e-5
-1.088, 6.490e-5
-1.089, 6.490e-5
-1.090, 6.798e-5
-1.091, 6.490e-5
-1.092, 6.798e-5
-1.093, 6.490e-5
-1.094, 6.798e-5
-1.095, 6.798e-5
-1.096, 6.798e-5
-1.097, 6.798e-5
-1.098, 6.798e-5
-1.099, 6.798e-5
-1.100, 6.798e-5
-1.101, 6.798e-5
-1.102, 6.798e-5
-1.103, 6.798e-5
-1.104, 6.798e-5
-1.105, 6.798e-5
-1.106, 6.798e-5
-1.107, 6.798e-5
-1.108, 6.798e-5
-1.109, 6.798e-5
-1.110, 6.798e-5
-1.111, 6.798e-5
-1.112, 6.798e-5
-1.113, 6.798e-5
-1.114, 6.798e-5
-1.115, 6.798e-5
-1.116, 7.107e-5
-1.117, 7.107e-5
-1.118, 7.107e-5
-1.119, 6.798e-5
-1.120, 7.107e-5
-1.121, 7.107e-5
-1.122, 7.107e-5
-1.123, 7.107e-5
-1.124, 7.107e-5
-1.125, 7.107e-5
-1.126, 7.107e-5
-1.127, 7.107e-5
-1.128, 7.107e-5
-1.129, 7.107e-5
-1.130, 7.107e-5
-1.131, 7.415e-5
-1.132, 7.415e-5
-1.133, 7.415e-5
-1.134, 7.415e-5
-1.135, 7.415e-5
-1.136, 7.415e-5
-1.137, 7.415e-5
-1.138, 7.415e-5
-1.139, 7.107e-5
-1.140, 7.415e-5
-1.141, 7.415e-5
-1.142, 7.415e-5
-1.143, 7.415e-5
-1.144, 7.415e-5
-1.145, 7.415e-5
-1.146, 7.415e-5
-1.147, 7.415e-5
-1.148, 7.415e-5
-1.149, 7.415e-5
-1.150, 7.415e-5
-1.151, 7.415e-5
-1.152, 7.415e-5
-1.153, 7.723e-5
-1.154, 7.415e-5
-1.155, 7.415e-5
-1.156, 7.723e-5
-1.157, 7.723e-5
-1.158, 7.415e-5
-1.159, 7.415e-5
-1.160, 7.415e-5
-1.161, 7.723e-5
-1.162, 7.723e-5
-1.163, 7.723e-5
-1.164, 7.723e-5
-1.165, 7.723e-5
-1.166, 7.723e-5
-1.167, 7.723e-5
-1.168, 7.723e-5
-1.169, 7.723e-5
-1.170, 8.032e-5
-1.171, 8.032e-5
-1.172, 8.032e-5
-1.173, 8.032e-5
-1.174, 7.723e-5
-1.175, 8.032e-5
-1.176, 8.032e-5
-1.177, 8.032e-5
-1.178, 8.340e-5
-1.179, 8.032e-5
-1.180, 8.340e-5
-1.181, 8.340e-5
-1.182, 8.340e-5
-1.183, 8.340e-5
-1.184, 8.340e-5
-1.185, 8.340e-5
-1.186, 8.340e-5
-1.187, 8.340e-5
-1.188, 8.340e-5
-1.189, 8.340e-5
-1.190, 8.340e-5
-1.191, 8.340e-5
-1.192, 8.340e-5
-1.193, 8.340e-5
-1.194, 8.340e-5
-1.195, 8.340e-5
-1.196, 8.648e-5
-1.197, 8.648e-5
-1.198, 8.340e-5
-1.199, 8.340e-5
-1.200, 8.648e-5
-1.201, 8.648e-5
-1.202, 8.648e-5
-1.203, 8.648e-5
-1.204, 8.648e-5
-1.205, 8.648e-5
-1.206, 8.957e-5
-1.207, 8.648e-5
-1.208, 8.648e-5
-1.209, 8.648e-5
-1.210, 8.957e-5
-1.211, 8.648e-5
-1.212, 8.957e-5
-1.213, 8.648e-5
-1.214, 8.957e-5
-1.215, 8.957e-5
-1.216, 8.957e-5
-1.217, 8.957e-5
-1.218, 8.957e-5
-1.219, 8.957e-5
-1.220, 8.957e-5
-1.221, 8.957e-5
-1.222, 8.957e-5
-1.223, 8.957e-5
-1.224, 8.957e-5
-1.225, 8.957e-5
-1.226, 8.957e-5
-1.227, 8.957e-5
-1.228, 8.957e-5
-1.229, 8.957e-5
-1.230, 9.265e-5
-1.231, 9.265e-5
-1.232, 9.265e-5
-1.233, 9.265e-5
-1.234, 9.265e-5
-1.235, 9.265e-5
-1.236, 9.573e-5
-1.237, 9.265e-5
-1.238, 9.265e-5
-1.239, 9.265e-5
-1.240, 9.265e-5
-1.241, 9.265e-5
-1.242, 9.265e-5
-1.243, 9.265e-5
-1.244, 9.265e-5
-1.245, 9.573e-5
-1.246, 9.573e-5
-1.247, 9.573e-5
-1.248, 9.573e-5
-1.249, 9.265e-5
-1.250, 9.265e-5
-1.251, 9.265e-5
-1.252, 9.573e-5
-1.253, 9.265e-5
-1.254, 9.573e-5
-1.255, 9.573e-5
-1.256, 9.573e-5
-1.257, 9.573e-5
-1.258, 9.573e-5
-1.259, 9.573e-5
-1.260, 9.573e-5
-1.261, 9.573e-5
-1.262, 9.573e-5
-1.263, 9.573e-5
-1.264, 9.573e-5
-1.265, 9.573e-5
-1.266, 9.573e-5
-1.267, 9.882e-5
-1.268, 9.882e-5
-1.269, 9.882e-5
-1.270, 9.882e-5
-1.271, 9.882e-5
-1.272, 9.882e-5
-1.273, 1.019e-4
-1.274, 9.882e-5
-1.275, 1.019e-4
-1.276, 1.019e-4
-1.277, 1.019e-4
-1.278, 1.019e-4
-1.279, 1.019e-4
-1.280, 1.019e-4
-1.281, 1.019e-4
-1.282, 1.050e-4
-1.283, 1.019e-4
-1.284, 1.050e-4
-1.285, 1.050e-4
-1.286, 1.050e-4
-1.287, 1.081e-4
-1.288, 1.081e-4
-1.289, 1.081e-4
-1.290, 1.081e-4
-1.291, 1.081e-4
-1.292, 1.081e-4
-1.293, 1.081e-4
-1.294, 1.081e-4
-1.295, 1.081e-4
-1.296, 1.111e-4
-1.297, 1.111e-4
-1.298, 1.111e-4
-1.299, 1.111e-4
-1.300, 1.142e-4
-1.301, 1.142e-4
-1.302, 1.173e-4
-1.303, 1.173e-4
-1.304, 1.173e-4
-1.305, 1.204e-4
-1.306, 1.204e-4
-1.307, 1.204e-4
-1.308, 1.235e-4
-1.309, 1.235e-4
-1.310, 1.266e-4
-1.311, 1.296e-4
-1.312, 1.296e-4
-1.313, 1.296e-4
-1.314, 1.327e-4
-1.315, 1.358e-4
-1.316, 1.389e-4
-1.317, 1.420e-4
-1.318, 1.420e-4
-1.319, 1.451e-4
-1.320, 1.481e-4
-1.321, 1.512e-4
-1.322, 1.512e-4
-1.323, 1.543e-4
-1.324, 1.574e-4
-1.325, 1.605e-4
-1.326, 1.636e-4
-1.327, 1.697e-4
-1.328, 1.728e-4
-1.329, 1.759e-4
-1.330, 1.821e-4
-1.331, 1.882e-4
-1.332, 1.913e-4
-1.333, 1.975e-4
-1.334, 2.036e-4
-1.335, 2.098e-4
-1.336, 2.191e-4
-1.337, 2.252e-4
-1.338, 2.345e-4
-1.339, 2.437e-4
-1.340, 2.530e-4
-1.341, 2.622e-4
-1.342, 2.746e-4
-1.343, 2.900e-4
-1.344, 3.023e-4
-1.345, 3.208e-4
-1.346, 3.424e-4
-1.347, 3.640e-4
-1.348, 3.886e-4
-1.349, 4.133e-4
-1.350, 4.441e-4
-1.351, 4.780e-4
-1.352, 5.150e-4
-1.353, 5.582e-4
-1.354, 6.014e-4
-1.355, 6.507e-4
-1.356, 7.000e-4
-1.357, 7.524e-4
-1.358, 8.079e-4
-1.359, 8.634e-4
-1.360, 9.220e-4
-1.361, 9.775e-4
-1.362, 1.033e-3
-1.363, 1.092e-3
-1.364, 1.153e-3
-1.365, 1.215e-3
-1.366, 1.283e-3
-1.367, 1.341e-3
-1.368, 1.403e-3
-1.369, 1.468e-3
-1.370, 1.536e-3
-1.371, 1.606e-3
-1.372, 1.671e-3
-1.373, 1.736e-3
-1.374, 1.801e-3
-1.375, 1.862e-3
-1.376, 1.921e-3
-1.377, 1.989e-3
-1.378, 2.057e-3
-1.379, 2.118e-3
-1.380, 2.189e-3
-1.381, 2.245e-3
-1.382, 2.300e-3
-1.383, 2.356e-3
-1.384, 2.405e-3
-1.385, 2.464e-3
-1.386, 2.504e-3
-1.387, 2.553e-3
-1.388, 2.608e-3
-1.389, 2.655e-3
-1.390, 2.695e-3
-1.391, 2.741e-3
-1.392, 2.793e-3
-1.393, 2.840e-3
-1.394, 2.877e-3
-1.395, 2.901e-3
-1.396, 2.935e-3
-1.397, 2.966e-3
-1.398, 3.006e-3
-1.399, 3.052e-3
-1.400, 3.080e-3
-1.401, 3.136e-3
-1.402, 3.182e-3
-1.403, 3.191e-3
-1.404, 3.213e-3
-1.405, 3.234e-3
-1.406, 3.278e-3
-1.407, 3.327e-3
-1.408, 3.358e-3
-1.409, 3.388e-3
-1.410, 3.425e-3
-1.411, 3.453e-3
-1.412, 3.459e-3
-1.413, 3.506e-3
-1.414, 3.561e-3
-1.415, 3.601e-3
-1.416, 3.638e-3
-1.417, 3.672e-3
-1.418, 3.694e-3
-1.419, 3.734e-3
-1.420, 3.783e-3
-1.421, 3.836e-3
-1.422, 3.900e-3
-1.423, 3.962e-3
-1.424, 3.953e-3
-1.425, 3.987e-3
-1.426, 4.017e-3
-1.427, 4.064e-3
-1.428, 4.107e-3
-1.429, 4.162e-3
-1.430, 4.206e-3
-1.431, 4.224e-3
-1.432, 4.252e-3
-1.433, 4.267e-3
-1.434, 4.320e-3
-1.435, 4.344e-3
-1.436, 4.357e-3
-1.437, 4.369e-3
-1.438, 4.421e-3
-1.439, 4.455e-3
-1.440, 4.471e-3
-1.441, 4.480e-3
-1.442, 4.458e-3
-1.443, 4.489e-3
-1.444, 4.514e-3
-1.445, 4.542e-3
-1.446, 4.585e-3
-1.447, 4.622e-3
-1.448, 4.653e-3
-1.449, 4.714e-3
-1.450, 4.742e-3
-1.451, 4.767e-3
-1.452, 4.834e-3
-1.453, 4.902e-3
-1.454, 4.912e-3
-1.455, 4.933e-3
-1.456, 4.995e-3
-1.457, 5.019e-3
-1.458, 5.066e-3
-1.459, 5.149e-3
-1.460, 5.164e-3
-1.461, 5.164e-3
-1.462, 5.217e-3
-1.463, 5.251e-3
-1.464, 5.266e-3
-1.465, 5.275e-3
-1.466, 5.325e-3
-1.467, 5.356e-3
-1.468, 5.386e-3
-1.469, 5.411e-3
-1.470, 5.448e-3
-1.471, 5.491e-3
-1.472, 5.547e-3
-1.473, 5.584e-3
-1.474, 5.624e-3
-1.475, 5.695e-3
-1.476, 5.692e-3
-1.477, 5.732e-3
-1.478, 5.759e-3
-1.479, 5.846e-3
-1.480, 5.904e-3
-1.481, 5.917e-3
-1.482, 5.963e-3
-1.483, 5.988e-3
-1.484, 6.046e-3
-1.485, 6.105e-3
-1.486, 6.179e-3
-1.487, 6.182e-3
-1.488, 6.225e-3
-1.489, 6.277e-3
-1.490, 6.333e-3
-1.491, 6.370e-3
-1.492, 6.407e-3
-1.493, 6.438e-3
-1.494, 6.453e-3
-1.495, 6.478e-3
-1.496, 6.530e-3
-1.497, 6.576e-3
-1.498, 6.595e-3
-1.499, 6.629e-3
-1.500, 6.610e-3
-1.499, 6.527e-3
-1.498, 6.453e-3
-1.497, 6.425e-3
-1.496, 6.336e-3
-1.495, 6.296e-3
-1.494, 6.197e-3
-1.493, 6.173e-3
-1.492, 6.160e-3
-1.491, 6.092e-3
-1.490, 6.021e-3
-1.489, 5.994e-3
-1.488, 5.963e-3
-1.487, 5.917e-3
-1.486, 5.864e-3
-1.485, 5.812e-3
-1.484, 5.762e-3
-1.483, 5.698e-3
-1.482, 5.667e-3
-1.481, 5.651e-3
-1.480, 5.574e-3
-1.479, 5.507e-3
-1.478, 5.454e-3
-1.477, 5.414e-3
-1.476, 5.386e-3
-1.475, 5.337e-3
-1.474, 5.300e-3
-1.473, 5.309e-3
-1.472, 5.260e-3
-1.471, 5.229e-3
-1.470, 5.226e-3
-1.469, 5.164e-3
-1.468, 5.127e-3
-1.467, 5.066e-3
-1.466, 4.995e-3
-1.465, 4.979e-3
-1.464, 4.924e-3
-1.463, 4.871e-3
-1.462, 4.822e-3
-1.461, 4.767e-3
-1.460, 4.745e-3
-1.459, 4.739e-3
-1.458, 4.696e-3
-1.457, 4.693e-3
-1.456, 4.628e-3
-1.455, 4.637e-3
-1.454, 4.597e-3
-1.453, 4.529e-3
-1.452, 4.461e-3
-1.451, 4.431e-3
-1.450, 4.394e-3
-1.449, 4.347e-3
-1.448, 4.298e-3
-1.447, 4.249e-3
-1.446, 4.206e-3
-1.445, 4.150e-3
-1.444, 4.119e-3
-1.443, 4.098e-3
-1.442, 4.054e-3
-1.441, 4.014e-3
-1.440, 4.002e-3
-1.439, 3.953e-3
-1.438, 3.869e-3
-1.437, 3.860e-3
-1.436, 3.826e-3
-1.435, 3.765e-3
-1.434, 3.721e-3
-1.433, 3.675e-3
-1.432, 3.666e-3
-1.431, 3.651e-3
-1.430, 3.604e-3
-1.429, 3.567e-3
-1.428, 3.533e-3
-1.427, 3.493e-3
-1.426, 3.447e-3
-1.425, 3.453e-3
-1.424, 3.422e-3
-1.423, 3.376e-3
-1.422, 3.345e-3
-1.421, 3.333e-3
-1.420, 3.268e-3
-1.419, 3.222e-3
-1.418, 3.191e-3
-1.417, 3.170e-3
-1.416, 3.123e-3
-1.415, 3.096e-3
-1.414, 3.059e-3
-1.413, 3.028e-3
-1.412, 2.991e-3
-1.411, 2.969e-3
-1.410, 2.938e-3
-1.409, 2.911e-3
-1.408, 2.880e-3
-1.407, 2.849e-3
-1.406, 2.821e-3
-1.405, 2.781e-3
-1.404, 2.744e-3
-1.403, 2.719e-3
-1.402, 2.686e-3
-1.401, 2.655e-3
-1.400, 2.618e-3
-1.399, 2.596e-3
-1.398, 2.571e-3
-1.397, 2.528e-3
-1.396, 2.476e-3
-1.395, 2.436e-3
-1.394, 2.417e-3
-1.393, 2.414e-3
-1.392, 2.377e-3
-1.391, 2.371e-3
-1.390, 2.340e-3
-1.389, 2.319e-3
-1.388, 2.279e-3
-1.387, 2.242e-3
-1.386, 2.208e-3
-1.385, 2.186e-3
-1.384, 2.186e-3
-1.383, 2.174e-3
-1.382, 2.152e-3
-1.381, 2.121e-3
-1.380, 2.091e-3
-1.379, 2.063e-3
-1.378, 2.035e-3
-1.377, 2.017e-3
-1.376, 1.998e-3
-1.375, 1.976e-3
-1.374, 1.943e-3
-1.373, 1.924e-3
-1.372, 1.902e-3
-1.371, 1.875e-3
-1.370, 1.841e-3
-1.369, 1.813e-3
-1.368, 1.767e-3
-1.367, 1.724e-3
-1.366, 1.708e-3
-1.365, 1.684e-3
-1.364, 1.650e-3
-1.363, 1.628e-3
-1.362, 1.594e-3
-1.361, 1.576e-3
-1.360, 1.557e-3
-1.359, 1.517e-3
-1.358, 1.495e-3
-1.357, 1.477e-3
-1.356, 1.449e-3
-1.355, 1.425e-3
-1.354, 1.397e-3
-1.353, 1.378e-3
-1.352, 1.363e-3
-1.351, 1.335e-3
-1.350, 1.314e-3
-1.349, 1.286e-3
-1.348, 1.277e-3
-1.347, 1.261e-3
-1.346, 1.240e-3
-1.345, 1.215e-3
-1.344, 1.199e-3
-1.343, 1.178e-3
-1.342, 1.147e-3
-1.341, 1.125e-3
-1.340, 1.104e-3
-1.339, 1.088e-3
-1.338, 1.082e-3
-1.337, 1.070e-3
-1.336, 1.055e-3
-1.335, 1.030e-3
-1.334, 1.018e-3
-1.333, 1.008e-3
-1.332, 9.960e-4
-1.331, 9.683e-4
-1.330, 9.498e-4
-1.329, 9.313e-4
-1.328, 9.128e-4
-1.327, 8.912e-4
-1.326, 8.758e-4
-1.325, 8.603e-4
-1.324, 8.449e-4
-1.323, 8.326e-4
-1.322, 8.079e-4
-1.321, 7.863e-4
-1.320, 7.648e-4
-1.319, 7.463e-4
-1.318, 7.432e-4
-1.317, 7.309e-4
-1.316, 7.154e-4
-1.315, 7.000e-4
-1.314, 6.969e-4
-1.313, 6.815e-4
-1.312, 6.630e-4
-1.311, 6.414e-4
-1.310, 6.260e-4
-1.309, 6.168e-4
-1.308, 6.014e-4
-1.307, 5.859e-4
-1.306, 5.767e-4
-1.305, 5.582e-4
-1.304, 5.459e-4
-1.303, 5.366e-4
-1.302, 5.305e-4
-1.301, 5.181e-4
-1.300, 5.089e-4
-1.299, 4.904e-4
-1.298, 4.750e-4
-1.297, 4.595e-4
-1.296, 4.472e-4
-1.295, 4.287e-4
-1.294, 4.164e-4
-1.293, 4.071e-4
-1.292, 3.948e-4
-1.291, 3.825e-4
-1.290, 3.732e-4
-1.289, 3.701e-4
-1.288, 3.609e-4
-1.287, 3.516e-4
-1.286, 3.424e-4
-1.285, 3.362e-4
-1.284, 3.270e-4
-1.283, 3.177e-4
-1.282, 3.115e-4
-1.281, 3.023e-4
-1.280, 2.931e-4
-1.279, 2.807e-4
-1.278, 2.746e-4
-1.277, 2.653e-4
-1.276, 2.561e-4
-1.275, 2.499e-4
-1.274, 2.406e-4
-1.273, 2.345e-4
-1.272, 2.283e-4
-1.271, 2.191e-4
-1.270, 2.129e-4
-1.269, 2.067e-4
-1.268, 2.006e-4
-1.267, 1.944e-4
-1.266, 1.882e-4
-1.265, 1.821e-4
-1.264, 1.759e-4
-1.263, 1.666e-4
-1.262, 1.605e-4
-1.261, 1.512e-4
-1.260, 1.451e-4
-1.259, 1.389e-4
-1.258, 1.358e-4
-1.257, 1.327e-4
-1.256, 1.266e-4
-1.255, 1.204e-4
-1.254, 1.142e-4
-1.253, 1.111e-4
-1.252, 1.050e-4
-1.251, 9.882e-5
-1.250, 9.573e-5
-1.249, 9.265e-5
-1.248, 8.648e-5
-1.247, 8.032e-5
-1.246, 7.415e-5
-1.245, 7.107e-5
-1.244, 6.798e-5
-1.243, 6.490e-5
-1.242, 5.873e-5
-1.241, 5.565e-5
-1.240, 5.257e-5
-1.239, 4.949e-5
-1.238, 4.640e-5
-1.237, 4.332e-5
-1.236, 3.715e-5
-1.235, 3.715e-5
-1.234, 3.407e-5
-1.233, 3.099e-5
-1.232, 2.790e-5
-1.231, 2.482e-5
-1.230, 2.174e-5
-1.229, 1.865e-5
-1.228, 1.249e-5
-1.227, 1.249e-5
-1.226, 9.405e-6
-1.225, 6.322e-6
-1.224, 6.322e-6
-1.223, 3.239e-6
-1.222, 1.559e-7
-1.221, -2.927e-6
-1.220, -2.927e-6
-1.219, -6.010e-6
-1.218, -9.093e-6
-1.217, -9.093e-6
-1.216, -1.218e-5
-1.215, -1.218e-5
-1.214, -1.526e-5
-1.213, -1.526e-5
-1.212, -1.834e-5
-1.211, -2.143e-5
-1.210, -2.143e-5
-1.209, -2.451e-5
-1.208, -2.451e-5
-1.207, -2.451e-5
-1.206, -2.759e-5
-1.205, -3.068e-5
-1.204, -3.068e-5
-1.203, -3.068e-5
-1.202, -3.376e-5
-1.201, -3.376e-5
-1.200, -3.684e-5
-1.199, -3.684e-5
-1.198, -3.684e-5
-1.197, -3.992e-5
-1.196, -3.992e-5
-1.195, -4.301e-5
-1.194, -4.301e-5
-1.193, -4.301e-5
-1.192, -4.301e-5
-1.191, -4.609e-5
-1.190, -4.609e-5
-1.189, -4.609e-5
-1.188, -4.609e-5
-1.187, -4.917e-5
-1.186, -4.917e-5
-1.185, -4.917e-5
-1.184, -4.917e-5
-1.183, -5.226e-5
-1.182, -5.226e-5
-1.181, -5.226e-5
-1.180, -5.534e-5
-1.179, -5.534e-5
-1.178, -5.534e-5
-1.177, -5.534e-5
-1.176, -5.842e-5
-1.175, -5.842e-5
-1.174, -5.842e-5
-1.173, -5.842e-5
-1.172, -5.842e-5
-1.171, -6.151e-5
-1.170, -6.151e-5
-1.169, -6.151e-5
-1.168, -6.151e-5
-1.167, -6.151e-5
-1.166, -6.459e-5
-1.165, -6.459e-5
-1.164, -6.459e-5
-1.163, -6.459e-5
-1.162, -6.459e-5
-1.161, -6.767e-5
-1.160, -6.767e-5
-1.159, -6.767e-5
-1.158, -6.767e-5
-1.157, -6.767e-5
-1.156, -6.767e-5
-1.155, -6.767e-5
-1.154, -6.767e-5
-1.153, -6.767e-5
-1.152, -6.767e-5
-1.151, -7.076e-5
-1.150, -7.384e-5
-1.149, -7.384e-5
-1.148, -7.384e-5
-1.147, -7.076e-5
-1.146, -7.076e-5
-1.145, -7.384e-5
-1.144, -7.076e-5
-1.143, -7.384e-5
-1.142, -7.076e-5
-1.141, -7.384e-5
-1.140, -7.384e-5
-1.139, -7.384e-5
-1.138, -7.384e-5
-1.137, -7.384e-5
-1.136, -7.384e-5
-1.135, -7.384e-5
-1.134, -7.384e-5
-1.133, -7.384e-5
-1.132, -7.692e-5
-1.131, -7.692e-5
-1.130, -7.692e-5
-1.129, -7.692e-5
-1.128, -7.692e-5
-1.127, -7.692e-5
-1.126, -7.692e-5
-1.125, -7.692e-5
-1.124, -7.692e-5
-1.123, -8.309e-5
-1.122, -8.309e-5
-1.121, -8.309e-5
-1.120, -8.000e-5
-1.119, -8.000e-5
-1.118, -8.000e-5
-1.117, -8.000e-5
-1.116, -8.000e-5
-1.115, -7.692e-5
-1.114, -7.692e-5
-1.113, -7.692e-5
-1.112, -8.000e-5
-1.111, -8.000e-5
-1.110, -7.692e-5
-1.109, -8.000e-5
-1.108, -8.000e-5
-1.107, -8.000e-5
-1.106, -8.000e-5
-1.105, -8.000e-5
-1.104, -8.000e-5
-1.103, -8.000e-5
-1.102, -8.000e-5
-1.101, -8.000e-5
-1.100, -8.000e-5
-1.099, -8.000e-5
-1.098, -8.000e-5
-1.097, -8.000e-5
-1.096, -8.309e-5
-1.095, -8.309e-5
-1.094, -8.000e-5
-1.093, -8.000e-5
-1.092, -8.309e-5
-1.091, -8.309e-5
-1.090, -8.309e-5
-1.089, -8.309e-5
-1.088, -8.309e-5
-1.087, -8.309e-5
-1.086, -8.309e-5
-1.085, -8.309e-5
-1.084, -8.309e-5
-1.083, -8.309e-5
-1.082, -8.309e-5
-1.081, -8.309e-5
-1.080, -8.000e-5
-1.079, -8.000e-5
-1.078, -8.000e-5
-1.077, -8.000e-5
-1.076, -8.000e-5
-1.075, -8.000e-5
-1.074, -8.000e-5
-1.073, -8.000e-5
-1.072, -8.000e-5
-1.071, -8.309e-5
-1.070, -8.309e-5
-1.069, -8.309e-5
-1.068, -8.309e-5
-1.067, -8.309e-5
-1.066, -8.309e-5
-1.065, -8.309e-5
-1.064, -8.309e-5
-1.063, -8.309e-5
-1.062, -8.309e-5
-1.061, -8.309e-5
-1.060, -8.309e-5
-1.059, -8.309e-5
-1.058, -8.000e-5
-1.057, -8.309e-5
-1.056, -8.309e-5
-1.055, -8.309e-5
-1.054, -8.309e-5
-1.053, -8.309e-5
-1.052, -8.309e-5
-1.051, -8.617e-5
-1.050, -8.617e-5
-1.049, -8.309e-5
-1.048, -8.309e-5
-1.047, -8.309e-5
-1.046, -8.309e-5
-1.045, -8.309e-5
-1.044, -8.309e-5
-1.043, -8.309e-5
-1.042, -8.309e-5
-1.041, -8.617e-5
-1.040, -8.617e-5
-1.039, -8.617e-5
-1.038, -8.309e-5
-1.037, -8.309e-5
-1.036, -8.617e-5
-1.035, -8.617e-5
-1.034, -8.617e-5
-1.033, -8.617e-5
-1.032, -8.617e-5
-1.031, -8.617e-5
-1.030, -8.617e-5
-1.029, -8.617e-5
-1.028, -8.617e-5
-1.027, -8.617e-5
-1.026, -8.925e-5
-1.025, -8.925e-5
-1.024, -8.925e-5
-1.023, -8.925e-5
-1.022, -8.925e-5
-1.021, -9.234e-5
-1.020, -8.925e-5
-1.019, -8.925e-5
-1.018, -8.925e-5
-1.017, -8.925e-5
-1.016, -8.925e-5
-1.015, -8.925e-5
-1.014, -8.925e-5
-1.013, -8.925e-5
-1.012, -8.925e-5
-1.011, -9.234e-5
-1.010, -9.234e-5
-1.009, -8.925e-5
-1.008, -9.234e-5
-1.007, -9.234e-5
-1.006, -9.234e-5
-1.005, -8.925e-5
-1.004, -9.234e-5
-1.003, -9.234e-5
-1.002, -9.234e-5
-1.001, -9.234e-5
