Apr. 9, 2025   19:20:03
Cyclic Voltammetry
File: c:/users/guazh/data/banditlqround7_x0exp994_r5/2025-03-28-exp1031\exp1031-2025-04-09t19_12_58-h2koh\exp1031_cv_sr_400mvs_efin_-1400mv.bin
Data Source:  Experiment
Instrument Model:  CHI760E
Header: CV ran at 400 mVs
Note: 

Init E (V) = -1
High E (V) = -1
Low E (V) = -1.4
Final E (V) = -1
Init P/N = N
Scan Rate (V/s) = 0.4
Segment = 3
Sample Interval (V) = 0.001
Quiet Time (sec) = 2
Sensitivity (A/V) = 0.01
Comp R (ohm) = 1.6

Results:

Channel 1:
Segment 1:

Segment 2:

Segment 3:

Potential/V, Current/A

-1.000, -1.324e-4
-1.001, -2.927e-6
-1.002, 9.882e-5
-1.003, 1.913e-4
-1.004, 2.653e-4
-1.005, 3.270e-4
-1.006, 3.794e-4
-1.007, 4.287e-4
-1.008, 4.750e-4
-1.009, 5.243e-4
-1.010, 5.674e-4
-1.011, 6.075e-4
-1.012, 6.414e-4
-1.013, 6.692e-4
-1.014, 7.000e-4
-1.015, 7.309e-4
-1.016, 7.648e-4
-1.017, 7.956e-4
-1.018, 8.233e-4
-1.019, 8.449e-4
-1.020, 8.665e-4
-1.021, 8.912e-4
-1.022, 9.189e-4
-1.023, 9.498e-4
-1.024, 9.775e-4
-1.025, 9.991e-4
-1.026, 1.018e-3
-1.027, 1.039e-3
-1.028, 1.061e-3
-1.029, 1.088e-3
-1.030, 1.116e-3
-1.031, 1.141e-3
-1.032, 1.159e-3
-1.033, 1.178e-3
-1.034, 1.193e-3
-1.035, 1.218e-3
-1.036, 1.246e-3
-1.037, 1.270e-3
-1.038, 1.292e-3
-1.039, 1.314e-3
-1.040, 1.332e-3
-1.041, 1.354e-3
-1.042, 1.381e-3
-1.043, 1.412e-3
-1.044, 1.440e-3
-1.045, 1.462e-3
-1.046, 1.483e-3
-1.047, 1.502e-3
-1.048, 1.529e-3
-1.049, 1.557e-3
-1.050, 1.588e-3
-1.051, 1.616e-3
-1.052, 1.640e-3
-1.053, 1.659e-3
-1.054, 1.687e-3
-1.055, 1.711e-3
-1.056, 1.742e-3
-1.057, 1.776e-3
-1.058, 1.804e-3
-1.059, 1.825e-3
-1.060, 1.850e-3
-1.061, 1.875e-3
-1.062, 1.906e-3
-1.063, 1.939e-3
-1.064, 1.970e-3
-1.065, 1.998e-3
-1.066, 2.023e-3
-1.067, 2.047e-3
-1.068, 2.075e-3
-1.069, 2.106e-3
-1.070, 2.140e-3
-1.071, 2.174e-3
-1.072, 2.201e-3
-1.073, 2.232e-3
-1.074, 2.260e-3
-1.075, 2.291e-3
-1.076, 2.328e-3
-1.077, 2.362e-3
-1.078, 2.396e-3
-1.079, 2.423e-3
-1.080, 2.448e-3
-1.081, 2.476e-3
-1.082, 2.513e-3
-1.083, 2.550e-3
-1.084, 2.584e-3
-1.085, 2.612e-3
-1.086, 2.639e-3
-1.087, 2.667e-3
-1.088, 2.698e-3
-1.089, 2.732e-3
-1.090, 2.769e-3
-1.091, 2.803e-3
-1.092, 2.834e-3
-1.093, 2.861e-3
-1.094, 2.892e-3
-1.095, 2.926e-3
-1.096, 2.960e-3
-1.097, 3.000e-3
-1.098, 3.031e-3
-1.099, 3.059e-3
-1.100, 3.086e-3
-1.101, 3.120e-3
-1.102, 3.157e-3
-1.103, 3.197e-3
-1.104, 3.231e-3
-1.105, 3.262e-3
-1.106, 3.293e-3
-1.107, 3.324e-3
-1.108, 3.358e-3
-1.109, 3.392e-3
-1.110, 3.432e-3
-1.111, 3.466e-3
-1.112, 3.496e-3
-1.113, 3.524e-3
-1.114, 3.552e-3
-1.115, 3.586e-3
-1.116, 3.623e-3
-1.117, 3.657e-3
-1.118, 3.691e-3
-1.119, 3.721e-3
-1.120, 3.746e-3
-1.121, 3.777e-3
-1.122, 3.811e-3
-1.123, 3.848e-3
-1.124, 3.882e-3
-1.125, 3.916e-3
-1.126, 3.943e-3
-1.127, 3.974e-3
-1.128, 4.008e-3
-1.129, 4.048e-3
-1.130, 4.088e-3
-1.131, 4.125e-3
-1.132, 4.153e-3
-1.133, 4.184e-3
-1.134, 4.212e-3
-1.135, 4.246e-3
-1.136, 4.283e-3
-1.137, 4.320e-3
-1.138, 4.350e-3
-1.139, 4.378e-3
-1.140, 4.403e-3
-1.141, 4.434e-3
-1.142, 4.471e-3
-1.143, 4.511e-3
-1.144, 4.548e-3
-1.145, 4.582e-3
-1.146, 4.612e-3
-1.147, 4.640e-3
-1.148, 4.674e-3
-1.149, 4.711e-3
-1.150, 4.745e-3
-1.151, 4.782e-3
-1.152, 4.813e-3
-1.153, 4.841e-3
-1.154, 4.871e-3
-1.155, 4.908e-3
-1.156, 4.945e-3
-1.157, 4.982e-3
-1.158, 5.013e-3
-1.159, 5.041e-3
-1.160, 5.066e-3
-1.161, 5.093e-3
-1.162, 5.130e-3
-1.163, 5.171e-3
-1.164, 5.211e-3
-1.165, 5.238e-3
-1.166, 5.266e-3
-1.167, 5.291e-3
-1.168, 5.322e-3
-1.169, 5.356e-3
-1.170, 5.393e-3
-1.171, 5.430e-3
-1.172, 5.460e-3
-1.173, 5.488e-3
-1.174, 5.519e-3
-1.175, 5.550e-3
-1.176, 5.584e-3
-1.177, 5.621e-3
-1.178, 5.655e-3
-1.179, 5.682e-3
-1.180, 5.713e-3
-1.181, 5.744e-3
-1.182, 5.781e-3
-1.183, 5.821e-3
-1.184, 5.858e-3
-1.185, 5.889e-3
-1.186, 5.917e-3
-1.187, 5.944e-3
-1.188, 5.978e-3
-1.189, 6.012e-3
-1.190, 6.049e-3
-1.191, 6.083e-3
-1.192, 6.111e-3
-1.193, 6.136e-3
-1.194, 6.166e-3
-1.195, 6.200e-3
-1.196, 6.237e-3
-1.197, 6.274e-3
-1.198, 6.308e-3
-1.199, 6.342e-3
-1.200, 6.370e-3
-1.201, 6.404e-3
-1.202, 6.441e-3
-1.203, 6.484e-3
-1.204, 6.521e-3
-1.205, 6.555e-3
-1.206, 6.580e-3
-1.207, 6.610e-3
-1.208, 6.644e-3
-1.209, 6.681e-3
-1.210, 6.718e-3
-1.211, 6.752e-3
-1.212, 6.777e-3
-1.213, 6.801e-3
-1.214, 6.826e-3
-1.215, 6.854e-3
-1.216, 6.885e-3
-1.217, 6.916e-3
-1.218, 6.937e-3
-1.219, 6.959e-3
-1.220, 6.977e-3
-1.221, 6.999e-3
-1.222, 7.027e-3
-1.223, 7.057e-3
-1.224, 7.085e-3
-1.225, 7.104e-3
-1.226, 7.125e-3
-1.227, 7.141e-3
-1.228, 7.159e-3
-1.229, 7.187e-3
-1.230, 7.215e-3
-1.231, 7.239e-3
-1.232, 7.258e-3
-1.233, 7.270e-3
-1.234, 7.282e-3
-1.235, 7.310e-3
-1.236, 7.338e-3
-1.237, 7.363e-3
-1.238, 7.381e-3
-1.239, 7.393e-3
-1.240, 7.393e-3
-1.241, 7.403e-3
-1.242, 7.418e-3
-1.243, 7.434e-3
-1.244, 7.452e-3
-1.245, 7.458e-3
-1.246, 7.461e-3
-1.247, 7.464e-3
-1.248, 7.467e-3
-1.249, 7.477e-3
-1.250, 7.492e-3
-1.251, 7.498e-3
-1.252, 7.498e-3
-1.253, 7.501e-3
-1.254, 7.501e-3
-1.255, 7.504e-3
-1.256, 7.508e-3
-1.257, 7.514e-3
-1.258, 7.514e-3
-1.259, 7.511e-3
-1.260, 7.504e-3
-1.261, 7.498e-3
-1.262, 7.498e-3
-1.263, 7.498e-3
-1.264, 7.495e-3
-1.265, 7.489e-3
-1.266, 7.471e-3
-1.267, 7.452e-3
-1.268, 7.437e-3
-1.269, 7.424e-3
-1.270, 7.409e-3
-1.271, 7.390e-3
-1.272, 7.360e-3
-1.273, 7.329e-3
-1.274, 7.298e-3
-1.275, 7.270e-3
-1.276, 7.245e-3
-1.277, 7.224e-3
-1.278, 7.193e-3
-1.279, 7.153e-3
-1.280, 7.110e-3
-1.281, 7.067e-3
-1.282, 7.027e-3
-1.283, 6.990e-3
-1.284, 6.949e-3
-1.285, 6.909e-3
-1.286, 6.869e-3
-1.287, 6.820e-3
-1.288, 6.780e-3
-1.289, 6.746e-3
-1.290, 6.706e-3
-1.291, 6.666e-3
-1.292, 6.620e-3
-1.293, 6.570e-3
-1.294, 6.524e-3
-1.295, 6.481e-3
-1.296, 6.438e-3
-1.297, 6.401e-3
-1.298, 6.354e-3
-1.299, 6.302e-3
-1.300, 6.250e-3
-1.301, 6.200e-3
-1.302, 6.154e-3
-1.303, 6.111e-3
-1.304, 6.065e-3
-1.305, 6.015e-3
-1.306, 5.957e-3
-1.307, 5.901e-3
-1.308, 5.846e-3
-1.309, 5.793e-3
-1.310, 5.750e-3
-1.311, 5.704e-3
-1.312, 5.651e-3
-1.313, 5.599e-3
-1.314, 5.547e-3
-1.315, 5.497e-3
-1.316, 5.454e-3
-1.317, 5.414e-3
-1.318, 5.368e-3
-1.319, 5.315e-3
-1.320, 5.260e-3
-1.321, 5.214e-3
-1.322, 5.171e-3
-1.323, 5.130e-3
-1.324, 5.093e-3
-1.325, 5.050e-3
-1.326, 5.010e-3
-1.327, 4.967e-3
-1.328, 4.930e-3
-1.329, 4.899e-3
-1.330, 4.868e-3
-1.331, 4.841e-3
-1.332, 4.807e-3
-1.333, 4.767e-3
-1.334, 4.733e-3
-1.335, 4.705e-3
-1.336, 4.683e-3
-1.337, 4.662e-3
-1.338, 4.634e-3
-1.339, 4.606e-3
-1.340, 4.582e-3
-1.341, 4.560e-3
-1.342, 4.545e-3
-1.343, 4.535e-3
-1.344, 4.526e-3
-1.345, 4.511e-3
-1.346, 4.492e-3
-1.347, 4.477e-3
-1.348, 4.464e-3
-1.349, 4.455e-3
-1.350, 4.449e-3
-1.351, 4.443e-3
-1.352, 4.434e-3
-1.353, 4.421e-3
-1.354, 4.415e-3
-1.355, 4.415e-3
-1.356, 4.421e-3
-1.357, 4.428e-3
-1.358, 4.431e-3
-1.359, 4.428e-3
-1.360, 4.421e-3
-1.361, 4.421e-3
-1.362, 4.431e-3
-1.363, 4.440e-3
-1.364, 4.449e-3
-1.365, 4.455e-3
-1.366, 4.458e-3
-1.367, 4.461e-3
-1.368, 4.468e-3
-1.369, 4.477e-3
-1.370, 4.489e-3
-1.371, 4.505e-3
-1.372, 4.511e-3
-1.373, 4.517e-3
-1.374, 4.526e-3
-1.375, 4.542e-3
-1.376, 4.563e-3
-1.377, 4.585e-3
-1.378, 4.600e-3
-1.379, 4.612e-3
-1.380, 4.628e-3
-1.381, 4.643e-3
-1.382, 4.665e-3
-1.383, 4.693e-3
-1.384, 4.714e-3
-1.385, 4.730e-3
-1.386, 4.742e-3
-1.387, 4.757e-3
-1.388, 4.779e-3
-1.389, 4.801e-3
-1.390, 4.828e-3
-1.391, 4.853e-3
-1.392, 4.871e-3
-1.393, 4.887e-3
-1.394, 4.905e-3
-1.395, 4.930e-3
-1.396, 4.958e-3
-1.397, 4.982e-3
-1.398, 5.007e-3
-1.399, 5.026e-3
-1.400, 4.927e-3
-1.399, 4.649e-3
-1.398, 4.418e-3
-1.397, 4.215e-3
-1.396, 4.033e-3
-1.395, 3.860e-3
-1.394, 3.700e-3
-1.393, 3.549e-3
-1.392, 3.413e-3
-1.391, 3.290e-3
-1.390, 3.176e-3
-1.389, 3.065e-3
-1.388, 2.951e-3
-1.387, 2.843e-3
-1.386, 2.741e-3
-1.385, 2.649e-3
-1.384, 2.562e-3
-1.383, 2.479e-3
-1.382, 2.393e-3
-1.381, 2.303e-3
-1.380, 2.217e-3
-1.379, 2.137e-3
-1.378, 2.066e-3
-1.377, 1.995e-3
-1.376, 1.927e-3
-1.375, 1.856e-3
-1.374, 1.782e-3
-1.373, 1.711e-3
-1.372, 1.643e-3
-1.371, 1.585e-3
-1.370, 1.529e-3
-1.369, 1.468e-3
-1.368, 1.406e-3
-1.367, 1.341e-3
-1.366, 1.280e-3
-1.365, 1.227e-3
-1.364, 1.178e-3
-1.363, 1.132e-3
-1.362, 1.076e-3
-1.361, 1.024e-3
-1.360, 9.683e-4
-1.359, 9.158e-4
-1.358, 8.727e-4
-1.357, 8.295e-4
-1.356, 7.863e-4
-1.355, 7.401e-4
-1.354, 6.908e-4
-1.353, 6.414e-4
-1.352, 5.983e-4
-1.351, 5.613e-4
-1.350, 5.243e-4
-1.349, 4.873e-4
-1.348, 4.410e-4
-1.347, 4.010e-4
-1.346, 3.578e-4
-1.345, 3.208e-4
-1.344, 2.900e-4
-1.343, 2.591e-4
-1.342, 2.252e-4
-1.341, 1.851e-4
-1.340, 1.451e-4
-1.339, 1.111e-4
-1.338, 8.340e-5
-1.337, 5.257e-5
-1.336, 2.482e-5
-1.335, -6.010e-6
-1.334, -4.301e-5
-1.333, -7.692e-5
-1.332, -1.047e-4
-1.331, -1.293e-4
-1.330, -1.540e-4
-1.329, -1.787e-4
-1.328, -2.095e-4
-1.327, -2.434e-4
-1.326, -2.712e-4
-1.325, -2.958e-4
-1.324, -3.174e-4
-1.323, -3.359e-4
-1.322, -3.606e-4
-1.321, -3.883e-4
-1.320, -4.161e-4
-1.319, -4.438e-4
-1.318, -4.623e-4
-1.317, -4.777e-4
-1.316, -4.993e-4
-1.315, -5.209e-4
-1.314, -5.486e-4
-1.313, -5.733e-4
-1.312, -5.949e-4
-1.311, -6.103e-4
-1.310, -6.226e-4
-1.309, -6.411e-4
-1.308, -6.627e-4
-1.307, -6.874e-4
-1.306, -7.090e-4
-1.305, -7.275e-4
-1.304, -7.398e-4
-1.303, -7.552e-4
-1.302, -7.706e-4
-1.301, -7.922e-4
-1.300, -8.138e-4
-1.299, -8.323e-4
-1.298, -8.446e-4
-1.297, -8.569e-4
-1.296, -8.662e-4
-1.295, -8.847e-4
-1.294, -9.063e-4
-1.293, -9.248e-4
-1.292, -9.433e-4
-1.291, -9.556e-4
-1.290, -9.618e-4
-1.289, -9.772e-4
-1.288, -9.926e-4
-1.287, -1.017e-3
-1.286, -1.033e-3
-1.285, -1.045e-3
-1.284, -1.054e-3
-1.283, -1.060e-3
-1.282, -1.073e-3
-1.281, -1.088e-3
-1.280, -1.110e-3
-1.279, -1.125e-3
-1.278, -1.134e-3
-1.277, -1.138e-3
-1.276, -1.147e-3
-1.275, -1.159e-3
-1.274, -1.175e-3
-1.273, -1.190e-3
-1.272, -1.199e-3
-1.271, -1.208e-3
-1.270, -1.215e-3
-1.269, -1.221e-3
-1.268, -1.236e-3
-1.267, -1.255e-3
-1.266, -1.267e-3
-1.265, -1.276e-3
-1.264, -1.279e-3
-1.263, -1.286e-3
-1.262, -1.298e-3
-1.261, -1.310e-3
-1.260, -1.326e-3
-1.259, -1.338e-3
-1.258, -1.344e-3
-1.257, -1.350e-3
-1.256, -1.356e-3
-1.255, -1.366e-3
-1.254, -1.384e-3
-1.253, -1.396e-3
-1.252, -1.406e-3
-1.251, -1.412e-3
-1.250, -1.415e-3
-1.249, -1.424e-3
-1.248, -1.433e-3
-1.247, -1.449e-3
-1.246, -1.461e-3
-1.245, -1.467e-3
-1.244, -1.470e-3
-1.243, -1.477e-3
-1.242, -1.486e-3
-1.241, -1.498e-3
-1.240, -1.511e-3
-1.239, -1.523e-3
-1.238, -1.529e-3
-1.237, -1.529e-3
-1.236, -1.535e-3
-1.235, -1.548e-3
-1.234, -1.560e-3
-1.233, -1.572e-3
-1.232, -1.581e-3
-1.231, -1.588e-3
-1.230, -1.591e-3
-1.229, -1.597e-3
-1.228, -1.612e-3
-1.227, -1.625e-3
-1.226, -1.634e-3
-1.225, -1.643e-3
-1.224, -1.646e-3
-1.223, -1.649e-3
-1.222, -1.655e-3
-1.221, -1.668e-3
-1.220, -1.683e-3
-1.219, -1.692e-3
-1.218, -1.699e-3
-1.217, -1.699e-3
-1.216, -1.702e-3
-1.215, -1.711e-3
-1.214, -1.726e-3
-1.213, -1.739e-3
-1.212, -1.748e-3
-1.211, -1.751e-3
-1.210, -1.757e-3
-1.209, -1.763e-3
-1.208, -1.776e-3
-1.207, -1.788e-3
-1.206, -1.803e-3
-1.205, -1.810e-3
-1.204, -1.816e-3
-1.203, -1.819e-3
-1.202, -1.831e-3
-1.201, -1.844e-3
-1.200, -1.859e-3
-1.199, -1.871e-3
-1.198, -1.877e-3
-1.197, -1.881e-3
-1.196, -1.887e-3
-1.195, -1.896e-3
-1.194, -1.908e-3
-1.193, -1.924e-3
-1.192, -1.933e-3
-1.191, -1.939e-3
-1.190, -1.942e-3
-1.189, -1.951e-3
-1.188, -1.964e-3
-1.187, -1.979e-3
-1.186, -1.992e-3
-1.185, -2.001e-3
-1.184, -2.007e-3
-1.183, -2.016e-3
-1.182, -2.029e-3
-1.181, -2.044e-3
-1.180, -2.062e-3
-1.179, -2.078e-3
-1.178, -2.090e-3
-1.177, -2.099e-3
-1.176, -2.109e-3
-1.175, -2.121e-3
-1.174, -2.140e-3
-1.173, -2.158e-3
-1.172, -2.173e-3
-1.171, -2.186e-3
-1.170, -2.195e-3
-1.169, -2.210e-3
-1.168, -2.229e-3
-1.167, -2.251e-3
-1.166, -2.269e-3
-1.165, -2.284e-3
-1.164, -2.297e-3
-1.163, -2.303e-3
-1.162, -2.315e-3
-1.161, -2.337e-3
-1.160, -2.355e-3
-1.159, -2.374e-3
-1.158, -2.389e-3
-1.157, -2.399e-3
-1.156, -2.414e-3
-1.155, -2.432e-3
-1.154, -2.454e-3
-1.153, -2.479e-3
-1.152, -2.497e-3
-1.151, -2.513e-3
-1.150, -2.528e-3
-1.149, -2.546e-3
-1.148, -2.571e-3
-1.147, -2.596e-3
-1.146, -2.617e-3
-1.145, -2.639e-3
-1.144, -2.654e-3
-1.143, -2.673e-3
-1.142, -2.698e-3
-1.141, -2.722e-3
-1.140, -2.753e-3
-1.139, -2.781e-3
-1.138, -2.799e-3
-1.137, -2.821e-3
-1.136, -2.839e-3
-1.135, -2.867e-3
-1.134, -2.898e-3
-1.133, -2.926e-3
-1.132, -2.953e-3
-1.131, -2.972e-3
-1.130, -2.990e-3
-1.129, -3.015e-3
-1.128, -3.040e-3
-1.127, -3.068e-3
-1.126, -3.098e-3
-1.125, -3.123e-3
-1.124, -3.145e-3
-1.123, -3.166e-3
-1.122, -3.194e-3
-1.121, -3.225e-3
-1.120, -3.256e-3
-1.119, -3.286e-3
-1.118, -3.311e-3
-1.117, -3.333e-3
-1.116, -3.360e-3
-1.115, -3.391e-3
-1.114, -3.425e-3
-1.113, -3.459e-3
-1.112, -3.490e-3
-1.111, -3.518e-3
-1.110, -3.539e-3
-1.109, -3.567e-3
-1.108, -3.598e-3
-1.107, -3.632e-3
-1.106, -3.663e-3
-1.105, -3.690e-3
-1.104, -3.715e-3
-1.103, -3.740e-3
-1.102, -3.770e-3
-1.101, -3.804e-3
-1.100, -3.841e-3
-1.099, -3.872e-3
-1.098, -3.900e-3
-1.097, -3.925e-3
-1.096, -3.955e-3
-1.095, -3.992e-3
-1.094, -4.029e-3
-1.093, -4.066e-3
-1.092, -4.100e-3
-1.091, -4.128e-3
-1.090, -4.156e-3
-1.089, -4.184e-3
-1.088, -4.218e-3
-1.087, -4.255e-3
-1.086, -4.292e-3
-1.085, -4.319e-3
-1.084, -4.347e-3
-1.083, -4.372e-3
-1.082, -4.403e-3
-1.081, -4.436e-3
-1.080, -4.467e-3
-1.079, -4.498e-3
-1.078, -4.526e-3
-1.077, -4.551e-3
-1.076, -4.581e-3
-1.075, -4.615e-3
-1.074, -4.655e-3
-1.073, -4.692e-3
-1.072, -4.729e-3
-1.071, -4.760e-3
-1.070, -4.788e-3
-1.069, -4.819e-3
-1.068, -4.856e-3
-1.067, -4.890e-3
-1.066, -4.920e-3
-1.065, -4.948e-3
-1.064, -4.970e-3
-1.063, -4.994e-3
-1.062, -5.019e-3
-1.061, -5.047e-3
-1.060, -5.081e-3
-1.059, -5.109e-3
-1.058, -5.133e-3
-1.057, -5.158e-3
-1.056, -5.186e-3
-1.055, -5.220e-3
-1.054, -5.253e-3
-1.053, -5.287e-3
-1.052, -5.318e-3
-1.051, -5.346e-3
-1.050, -5.368e-3
-1.049, -5.395e-3
-1.048, -5.426e-3
-1.047, -5.460e-3
-1.046, -5.494e-3
-1.045, -5.522e-3
-1.044, -5.540e-3
-1.043, -5.565e-3
-1.042, -5.596e-3
-1.041, -5.627e-3
-1.040, -5.660e-3
-1.039, -5.691e-3
-1.038, -5.719e-3
-1.037, -5.744e-3
-1.036, -5.771e-3
-1.035, -5.799e-3
-1.034, -5.833e-3
-1.033, -5.864e-3
-1.032, -5.889e-3
-1.031, -5.913e-3
-1.030, -5.935e-3
-1.029, -5.956e-3
-1.028, -5.984e-3
-1.027, -6.012e-3
-1.026, -6.040e-3
-1.025, -6.061e-3
-1.024, -6.080e-3
-1.023, -6.095e-3
-1.022, -6.114e-3
-1.021, -6.141e-3
-1.020, -6.169e-3
-1.019, -6.197e-3
-1.018, -6.215e-3
-1.017, -6.237e-3
-1.016, -6.259e-3
-1.015, -6.286e-3
-1.014, -6.314e-3
-1.013, -6.342e-3
-1.012, -6.366e-3
-1.011, -6.388e-3
-1.010, -6.407e-3
-1.009, -6.431e-3
-1.008, -6.456e-3
-1.007, -6.484e-3
-1.006, -6.508e-3
-1.005, -6.530e-3
-1.004, -6.548e-3
-1.003, -6.567e-3
-1.002, -6.588e-3
-1.001, -6.610e-3
