Potential V vs RHE, Current mA cm-2
0.013299999999999867,1.9169338113171246
0.012299999999999978,0.2594580523952477
0.011299999999999866,-1.0054353208140816
0.010299999999999976,-2.1390434853959355
0.009299999999999864,-3.0996324580042955
0.008299999999999974,-3.7970851288377587
0.007299999999999862,-4.406825699079589
0.006299999999999972,-5.017980980621284
0.00529999999999986,-5.672992312458796
0.0042999999999999705,-6.196435493408861
0.0032999999999998586,-6.632166573767292
0.0022999999999999687,-6.981600264833956
0.0012999999999998568,-7.4173313451923875
0.00029999999999996696,-7.853062425550818
-0.000700000000000145,-8.288793505909249
-0.0017000000000000348,-8.638227196975913
-0.0027000000000001467,-8.899948787450944
-0.0037000000000000366,-9.205526428221793
-0.0047000000000001485,-9.641257508580225
-0.005700000000000038,-9.946835149351072
-0.00670000000000015,-10.208556739826104
-0.00770000000000004,-10.470278330301136
-0.008700000000000152,-10.731999920776168
-0.009700000000000042,-11.081433611842833
-0.010700000000000154,-11.473308641905447
-0.011700000000000044,-11.691174182084664
-0.012700000000000156,-11.909039722263879
-0.013700000000000045,-12.170761312738911
-0.014700000000000157,-12.520195003805576
-0.015700000000000047,-12.869628694872238
-0.01670000000000016,-13.087494235051453
-0.01770000000000005,-13.261503724934855
-0.01870000000000016,-13.523225315409885
-0.01970000000000005,-13.872659006476551
-0.020700000000000163,-14.217848563643619
-0.021700000000000053,-14.401761032626075
-0.022700000000000164,-14.61396772760583
-0.023700000000000054,-14.868615761581536
-0.024700000000000166,-15.264734925543747
-0.025700000000000056,-15.618412750510005
-0.026700000000000168,-15.830619445489761
-0.027700000000000058,-16.056973253468165
-0.02870000000000017,-16.354062626439823
-0.02970000000000006,-16.70774045140608
-0.03070000000000017,-17.103859615368293
-0.03170000000000006,-17.316066310348052
-0.03270000000000017,-17.48583166633185
-0.03370000000000006,-17.797068152302163
-0.034700000000000175,-18.19318731626437
-0.035700000000000065,-18.53271802823198
-0.03670000000000018,-18.80151317520634
-0.03770000000000007,-19.01371987018609
-0.03870000000000018,-19.367397695152352
-0.03970000000000007,-19.763516859114564
-0.04070000000000018,-20.10304757108217
-0.04170000000000007,-20.414284057052477
-0.04270000000000018,-20.584049413036283
-0.04370000000000007,-20.93772723800254
-0.044700000000000184,-21.333846401964752
-0.045700000000000074,-21.67337711393236
-0.046700000000000186,-21.98461359990267
-0.047700000000000076,-22.196820294882425
-0.04870000000000019,-22.550498119848687
-0.04970000000000008,-22.989058622806844
-0.05070000000000019,-23.385177786769056
-0.05170000000000008,-23.682267159740714
-0.05270000000000019,-23.951062306715073
-0.05370000000000008,-24.24815167968673
-0.05470000000000019,-24.729153521640843
-0.05570000000000008,-25.0828313466071
-0.056700000000000195,-25.39406783257741
-0.057700000000000085,-25.691157205549064
-0.058700000000000196,-26.002393691519377
-0.059700000000000086,-26.483395533473487
-0.0607000000000002,-26.907808923433
-0.06170000000000009,-27.219045409403304
-0.0627000000000002,-27.487840556377662
-0.06370000000000009,-27.827371268345274
-0.0647000000000002,-28.265931771303435
-0.06570000000000009,-28.662050935265643
-0.0667000000000002,-29.001581647233255
-0.0677000000000001,-29.31281813320356
-0.0687000000000002,-29.66649595816982
-0.0697000000000001,-30.10505646112798
-0.07070000000000021,-30.529469851087494
-0.0717000000000001,-30.8407063370578
-0.07270000000000021,-31.095354371033505
-0.0737000000000001,-31.49147353499572
-0.07470000000000021,-31.930034037953877
-0.0757000000000001,-32.368594540912035
-0.07670000000000021,-32.66568391388369
-0.0777000000000001,-32.97692039985401
-0.07870000000000021,-33.41548090281216
-0.0797000000000001,-33.89648274476628
-0.08070000000000022,-34.33504324772444
-0.0817000000000001,-34.632132620696105
-0.08270000000000022,-34.90092776767045
-0.08370000000000011,-35.240458479638065
-0.08470000000000022,-35.636577643600276
-0.08570000000000011,-36.03269680756248
-0.08670000000000022,-36.329786180534136
-0.08770000000000011,-36.5985813275085
-0.08870000000000022,-36.99470049147071
-0.08970000000000011,-37.47570233342482
-0.09070000000000022,-37.85767438438838
-0.09170000000000011,-38.211352209354644
-0.09270000000000023,-38.46600024333035
-0.09370000000000012,-38.86211940729255
-0.09470000000000023,-39.30067991025072
-0.09570000000000012,-39.739240413208876
-0.09670000000000023,-40.092918238175145
-0.09770000000000012,-40.34756627215084
-0.09870000000000023,-40.743685436113054
-0.09970000000000012,-41.22468727806717
-0.10070000000000023,-41.66324778102533
-0.10170000000000012,-42.00277849299294
-0.10270000000000024,-42.2715736399673
-0.10370000000000013,-42.6111043519349
-0.10470000000000024,-43.04966485489307
-0.10570000000000013,-43.48822535785123
-0.10670000000000024,-43.84190318281749
-0.10770000000000013,-44.096551216793195
-0.10870000000000024,-44.4926703807554
-0.10970000000000013,-44.97367222270952
-0.11070000000000024,-45.412232725667685
-0.11170000000000013,-45.75176343763528
-0.11270000000000002,-46.02055858460964
-0.11370000000000013,-46.45911908756781
-0.11470000000000002,-46.88353247752732
-0.11570000000000014,-47.36453431948143
-0.11670000000000003,-47.67577080545174
-0.11770000000000014,-47.987007291422046
-0.11870000000000003,-48.36897934238561
-0.11970000000000014,-48.84998118433972
-0.12070000000000003,-49.33098302629383
-0.12170000000000014,-49.68466085126009
-0.12270000000000003,-49.98175022423175
-0.12370000000000014,-50.335428049198
-0.12470000000000003,-50.77398855215617
-0.12570000000000014,-51.25499039411028
-0.12670000000000003,-51.55207976708194
-0.12770000000000015,-51.82087491405629
-0.12870000000000004,-52.17455273902255
-0.12970000000000015,-52.64140746797801
-0.13070000000000004,-53.12240930993213
-0.13170000000000015,-53.476087134898386
-0.13270000000000004,-53.7873236208687
-0.13370000000000015,-54.16929567183226
-0.13470000000000004,-54.65029751378637
-0.13570000000000015,-55.13129935574048
-0.13670000000000004,-55.484977180706736
-0.13770000000000016,-55.838655005673
-0.13870000000000005,-56.22062705663656
-0.13970000000000016,-56.74407023758662
-0.14070000000000005,-57.182630740544774
-0.14170000000000016,-57.53630856551105
-0.14270000000000005,-57.87583927747865
-0.14370000000000016,-58.22951710244491
-0.14470000000000005,-58.75296028339497
-0.14570000000000016,-59.19152078635314
-0.14670000000000005,-59.502757272323436
-0.14770000000000016,-59.842287984291055
-0.14870000000000005,-60.23840714825326
-0.14970000000000017,-60.71940899020737
-0.15070000000000006,-61.20041083216149
-0.15170000000000017,-61.53994154412909
-0.15270000000000006,-61.851178030099405
-0.15370000000000017,-62.24729719406162
-0.15470000000000006,-62.68585769701977
-0.15570000000000017,-63.15271242597524
-0.15670000000000006,-63.5063902509415
-0.15770000000000017,-63.860068075907755
-0.15870000000000006,-64.25618723986996
-0.15970000000000018,-64.77963042082003
-0.16070000000000007,-65.3030736017701
-0.16170000000000018,-65.68504565273366
-0.16270000000000007,-65.99628213870396
-0.16370000000000018,-66.39240130266617
-0.16470000000000007,-66.91584448361623
-0.16570000000000018,-67.39684632557035
-0.16670000000000007,-67.82125971552985
-0.16770000000000018,-68.17493754049613
-0.16870000000000007,-68.61349804345427
-0.16970000000000018,-69.0944998854084
-0.17070000000000007,-69.61794306635846
-0.17170000000000019,-70.01406223032066
-0.17270000000000008,-70.35359294228827
-0.1737000000000002,-70.8345947842424
-0.17470000000000008,-71.4004793041884
-0.1757000000000002,-71.8814811461425
-0.17670000000000008,-72.32004164910067
-0.1777000000000002,-72.67371947406694
-0.17870000000000008,-73.0556915250305
-0.1797000000000002,-73.45181068899271
-0.18070000000000008,-73.80548851395896
-0.1817000000000002,-74.14501922592657
-0.18270000000000008,-74.45625571189689
-0.1837000000000002,-74.89481621485504
-0.1847000000000001,-75.33337671781321
-0.1857000000000002,-75.77193722077136
-0.1867000000000001,-76.11146793273898
-0.1877000000000002,-76.46514575770523
-0.1887000000000001,-76.81882358267148
-0.1897000000000002,-77.28567831162695
-0.1907000000000001,-77.7242388145851
-0.1917000000000001,-77.99303396155948
-0.19269999999999998,-78.24768199553519
-0.1937000000000001,-78.55891848150549
-0.19469999999999998,-78.9550376454677
-0.1957000000000001,-79.37945103542721
-0.19669999999999999,-79.60580484340561
-0.1977000000000001,-79.81801153838538
-0.1987,-80.08680668535972
-0.1997000000000001,-80.38389605833139
-0.2007,-80.73757388329766
-0.2017000000000001,-80.9497805782774
-0.2027,-81.13369304725985
-0.2037000000000001,-81.3458997422396
-0.2047,-81.57225355021802
-0.2057000000000001,-81.78446024519776
-0.2067,-81.95422560118158
-0.2077000000000001,-82.09569673116808
-0.2087,-82.30790342614785
-0.2097000000000001,-82.56255146012353
-0.2107,-82.87378794609386
-0.2117000000000001,-83.08599464107361
-0.2127,-83.26990711005605
-0.2137000000000001,-83.43967246603985
-0.2147,-83.70846761301424
-0.2157000000000001,-83.96311564698992
-0.2167,-84.00555698598588
-0.21770000000000012,-83.96311564698992
-0.2187,-84.04799832498183
-0.21970000000000012,-84.23191079396429
-0.2207,-84.44411748894404
-0.22170000000000012,-84.52900016693594
-0.2227,-84.57144150593189
-0.22370000000000012,-84.61388284492786
-0.2247,-84.75535397491434
-0.22570000000000012,-84.7977953139103
-0.2267,-84.7129126359184
-0.22770000000000012,-84.52900016693594
-0.22870000000000001,-84.48655882793999
-0.22970000000000013,-84.44411748894404
-0.23070000000000002,-84.40167614994809
-0.23170000000000013,-84.23191079396429
-0.23270000000000002,-84.04799832498183
-0.23370000000000013,-83.92067430799398
-0.23470000000000002,-83.87823296899803
-0.23570000000000013,-83.79335029100612
-0.23670000000000002,-83.56699648302772
-0.2376999999999999,-83.31234844905201
-0.23870000000000002,-83.18502443206415
-0.2396999999999999,-83.14258309306821
-0.24070000000000003,-83.0011119630817
-0.24169999999999991,-82.8313466070979
-0.24270000000000003,-82.47766878213164
-0.24369999999999992,-82.22302074815593
-0.24470000000000003,-82.09569673116808
-0.24569999999999992,-81.82690158419373
-0.24670000000000003,-81.47322375922747
-0.24769999999999992,-81.04881036926795
-0.24870000000000003,-80.69513254430169
-0.24969999999999992,-80.38389605833139
-0.25070000000000003,-80.04436534636378
-0.2516999999999999,-79.56336350440966
-0.25270000000000004,-78.9550376454677
-0.2536999999999999,-78.43159446451764
-0.25470000000000004,-78.03547530055542
-0.2556999999999999,-77.55447345860131
-0.25670000000000004,-76.94614759965934
-0.25769999999999993,-76.38026307971333
-0.25870000000000004,-75.81437855976732
-0.25969999999999993,-75.37581805680915
-0.26070000000000004,-74.89481621485504
-0.26169999999999993,-74.32893169490903
-0.26270000000000004,-73.6781644969711
-0.26369999999999993,-73.09813286402644
-0.26470000000000005,-72.63127813507097
-0.26569999999999994,-72.10783495412092
-0.26670000000000005,-71.44292064318435
-0.26769999999999994,-70.74971210625048
-0.26870000000000005,-70.05650356931662
-0.26969999999999994,-69.4906190493706
-0.27070000000000005,-68.91058741642594
-0.27169999999999994,-68.21737887949207
-0.27270000000000005,-67.52417034255821
-0.27369999999999994,-66.91584448361623
-0.27470000000000006,-66.39240130266617
-0.27569999999999995,-65.82651678272015
-0.27670000000000006,-65.11916113278764
-0.27769999999999995,-64.38351125685783
-0.27870000000000006,-63.77518539791585
-0.27969999999999995,-63.20930087796983
-0.28070000000000006,-62.68585769701977
-0.28169999999999995,-62.02094338608321
-0.28270000000000006,-61.327734849149344
-0.28369999999999995,-60.761850329203334
-0.28470000000000006,-60.28084848724921
-0.28569999999999995,-59.7998466452951
-0.28670000000000007,-59.19152078635314
-0.28769999999999996,-58.54075358841522
-0.28870000000000007,-58.017310407465146
-0.28969999999999996,-57.57874990450699
-0.29070000000000007,-57.097748062552874
-0.29169999999999996,-56.53186354260687
-0.29270000000000007,-55.9235376836649
-0.29369999999999996,-55.400094502714836
-0.2947000000000001,-54.961533999756675
-0.29569999999999996,-54.52297349679851
-0.2967000000000001,-54.0419716548444
-0.29769999999999996,-53.39120445690648
-0.2987000000000001,-52.82531993696047
-0.29969999999999997,-52.514083450990164
-0.3007000000000001,-52.30187675601041
-0.30169999999999997,-51.990640270040096
-0.3027000000000001,-51.594521106077885
-0.30369999999999997,-51.29743173310623
-0.3047000000000001,-51.028636586131874
-0.30569999999999997,-50.73154721316022
-0.3067000000000001,-50.29298671020206
-0.3077,-49.939308885235796
-0.3087000000000001,-49.76954352925199
-0.3097,-49.68466085126009
-0.3107000000000001,-49.557336834272235
-0.3117,-49.33098302629383
-0.3127000000000001,-49.076334992318124
-0.3137,-48.80753984534376
-0.3147000000000001,-48.72265716735186
-0.3157,-48.63777448935996
-0.3167000000000001,-48.41142068138156
-0.3177,-48.156772647405845
-0.3187000000000001,-48.071889969413945
-0.3197,-48.071889969413945
-0.3207000000000001,-48.114331308409895
-0.3217,-48.071889969413945
-0.3227000000000001,-47.93041883942744
-0.3237,-47.987007291422046
-0.3247000000000001,-48.114331308409895
-0.3257,-48.156772647405845
-0.3267000000000001,-48.156772647405845
-0.3277,-48.071889969413945
-0.3287000000000001,-48.071889969413945
-0.3297,-48.1992139864018
-0.3307000000000001,-48.36897934238561
-0.3317,-48.41142068138156
-0.3327000000000001,-48.45386202037751
-0.3337,-48.55289181136806
-0.3347000000000001,-48.80753984534376
-0.3357,-48.97730520132757
-0.3367000000000001,-49.076334992318124
-0.3377,-49.118776331314066
-0.3387000000000001,-49.20365900930597
-0.3397,-49.458307043281685
-0.3407000000000001,-49.72710219025603
-0.3417,-49.85442620724389
-0.3427000000000001,-49.939308885235796
-0.3437,-50.12322135421825
-0.3447000000000001,-50.42031072718991
-0.3457,-50.64666453516831
-0.3467000000000001,-50.85887123014807
-0.3477,-50.98619524713592
-0.3487000000000001,-51.25499039411028
-0.3497,-51.55207976708194
-0.3507000000000001,-51.90575759204819
-0.3517,-52.11796428702795
-0.3527000000000001,-52.34431809500636
-0.3537,-52.59896612898206
-0.3547000000000001,-52.95264395394832
-0.3557,-53.26388043991864
-0.35670000000000013,-53.433645795902436
-0.3577,-53.56096981289029
-0.35870000000000013,-53.82976495986464
-0.3597,-54.08441299384035
-0.36070000000000013,-54.39564947981066
-0.3617,-54.56541483579447
-0.3626999999999999,-54.69273885278232
-0.3637,-54.961533999756675
-0.3646999999999999,-55.31521182472294
-0.3657,-55.65474253669055
-0.3666999999999999,-55.96597902266086
-0.3677,-56.093303039648696
-0.3686999999999999,-56.44698086461496
-0.36970000000000003,-56.82895291557852
-0.3706999999999999,-57.182630740544774
-0.37170000000000003,-57.408984548523186
-0.3726999999999999,-57.57874990450699
-0.37370000000000003,-57.87583927747865
-0.3746999999999999,-58.27195844144086
-0.37570000000000003,-58.62563626640712
-0.3766999999999999,-58.83784296138688
-0.37770000000000004,-59.02175543036933
-0.3786999999999999,-59.36128614233694
-0.37970000000000004,-59.842287984291055
-0.3806999999999999,-60.28084848724921
-0.38170000000000004,-60.63452631221547
-0.38269999999999993,-60.84673300719523
-0.38370000000000004,-61.20041083216149
-0.38469999999999993,-61.63897133511965
-0.38570000000000004,-61.97850204708726
-0.38669999999999993,-60.63452631221547
-0.38570000000000004,-56.786511576582576
-0.38469999999999993,-53.64585249088219
-0.38370000000000004,-51.127666377122424
-0.38269999999999993,-48.84998118433972
-0.38170000000000004,-46.628884443551605
-0.3806999999999999,-44.619994397743255
-0.37970000000000004,-42.87989949890926
-0.3786999999999999,-41.352011295055014
-0.37770000000000004,-39.90900576919269
-0.3766999999999999,-38.46600024333035
-0.37570000000000003,-37.07958316946261
-0.3746999999999999,-35.806342999584075
-0.37370000000000003,-34.67457395969205
-0.3726999999999999,-33.54280491980002
-0.37170000000000003,-32.283711862920136
-0.3706999999999999,-31.052913032037555
-0.36970000000000003,-29.96358533114148
-0.3686999999999999,-28.959140308237306
-0.3677,-28.05372507632368
-0.3666999999999999,-27.00683871442355
-0.3657,-25.959952352523427
-0.3646999999999999,-25.04039000761115
-0.3637,-24.24815167968673
-0.3626999999999999,-23.47006046476096
-0.3617,-22.550498119848687
-0.36070000000000013,-21.63093577493641
-0.3597,-20.810403221014692
-0.35870000000000013,-20.159636023076775
-0.3577,-19.409839034148305
-0.35670000000000013,-18.631747819222536
-0.3557,-17.797068152302163
-0.3547000000000001,-17.103859615368293
-0.3537,-16.495533756426326
-0.3527000000000001,-15.87306078448571
-0.3517,-15.179852247551842
-0.3507000000000001,-14.401761032626075
-0.3497,-13.784946905884919
-0.3487000000000001,-13.261503724934855
-0.3477,-12.73806054398479
-0.3467000000000001,-12.084463923447142
-0.3457,-11.385596541313816
-0.3447000000000001,-10.819712021367803
-0.3437,-10.382566229709504
-0.3427000000000001,-9.85912304875944
-0.3417,-9.293238528813426
-0.3407000000000001,-8.68208324727173
-0.3397,-8.202496116617484
-0.3387000000000001,-7.7653503249591855
-0.3377,-7.329619244600755
-0.3367000000000001,-6.806176063650692
-0.3357,-6.238876832404812
-0.3347000000000001,-5.80314575204638
-0.3337,-5.411270721983764
-0.3327000000000001,-5.0618370309171015
-0.3317,-4.582249900262854
-0.3307000000000001,-4.0588067193127895
-0.3297,-3.6655169779503103
-0.3287000000000001,-3.361354048479327
-0.3277,-3.0119203574126634
-0.3267000000000001,-2.576189277054232
-0.3257,-2.095187435100119
-0.3247000000000001,-1.7471684553333202
-0.3237,-1.4415908145624723
-0.3227000000000001,-1.1362961160515976
-0.3217,-0.7437137303390498
-0.3207000000000001,-0.30755823659065895
-0.3197,0.04140859974704963
-0.3187000000000001,0.3031726315610774
-0.3177,0.5211796428702795
-0.3167000000000001,0.9137620285828272
-0.3157,1.349917522331218
-0.3147000000000001,1.6113561705462767
-0.3137,1.8292217107254924
-0.3127000000000001,2.048501962204573
-0.3117,2.396520941971372
-0.3107000000000001,2.7898106833338523
-0.3097,3.0515322738088844
-0.3087000000000001,3.225541763692284
-0.3077,3.4434073038714996
-0.3067000000000001,3.748984944642347
-0.30569999999999997,4.140859974704963
-0.3047000000000001,4.360140226184043
-0.30369999999999997,4.534149716067443
-0.3027000000000001,4.708159205950842
-0.30169999999999997,5.01373684672169
-0.3007000000000001,5.319314487492538
-0.29969999999999997,5.581036077967569
-0.2987000000000001,5.667333467259336
-0.29769999999999996,5.8427576684426015
-0.2967000000000001,6.1044792589176335
-0.29569999999999996,6.410056899688482
-0.2947000000000001,6.627922439867697
-0.29369999999999996,6.75807587945528
-0.29270000000000007,6.889644030342729
-0.29169999999999996,7.15136562081776
-0.29070000000000007,7.456943261588608
-0.28969999999999996,7.630952751472008
-0.28870000000000007,7.7186648520636405
-0.28769999999999996,7.848818291651225
-0.28670000000000007,8.110539882126256
-0.28569999999999995,8.328405422305472
-0.28470000000000006,8.546270962484687
-0.28369999999999995,8.63398306307632
-0.28270000000000006,8.72169516366795
-0.28169999999999995,8.983416754142983
-0.28070000000000006,9.245138344618015
-0.27969999999999995,9.375291784205599
-0.27870000000000006,9.463003884797232
-0.27769999999999995,9.549301274088998
-0.27670000000000006,9.768581525568079
-0.27569999999999995,10.03030311604311
-0.27470000000000006,10.160456555630693
-0.27369999999999994,10.20431260592651
-0.27270000000000005,10.334466045514093
-0.27169999999999994,10.553746296993173
-0.27070000000000005,10.771611837172388
-0.26969999999999994,10.94562132705579
-0.26870000000000005,11.033333427647422
-0.26769999999999994,11.077189477943236
-0.26670000000000005,11.295055018122452
-0.26569999999999994,11.51292055830167
-0.26470000000000005,11.6006326588933
-0.26369999999999993,11.643073997889251
