Potential V vs RHE, Current mA cm-2
0.013299999999999867,0.3678249379649095
0.012299999999999978,-0.06933500080638545
0.011299999999999866,-0.27176604070407356
0.010299999999999976,-0.4190374870200239
0.009299999999999864,-0.5582450789267435
0.008299999999999974,-0.6705731561360274
0.007299999999999862,-0.771017658426445
0.006299999999999972,-0.8595785857979963
0.00529999999999986,-0.9386609474604518
0.0042999999999999705,-1.023826567712327
0.0032999999999998586,-1.1064457076244452
0.0022999999999999687,-1.1736444943680344
0.0012999999999998568,-1.2365991472120288
0.00029999999999996696,-1.2954511372864141
-0.000700000000000145,-1.3605278570802057
-0.0017000000000000348,-1.4302731241635522
-0.0027000000000001467,-1.4783733083589634
-0.0037000000000000366,-1.5264734925543744
-0.0047000000000001485,-1.5774030993495158
-0.005700000000000038,-1.6297474174445223
-0.00670000000000015,-1.693409425938449
-0.00770000000000004,-1.7316066310348048
-0.008700000000000152,-1.775462681330621
-0.009700000000000042,-1.8179040203265722
-0.010700000000000154,-1.8730777610213083
-0.011700000000000044,-1.92400736781645
-0.012700000000000156,-1.9622045729128061
-0.013700000000000045,-1.993328221509837
-0.014700000000000157,-2.038598983105518
-0.015700000000000047,-2.081040322101469
-0.01670000000000016,-2.1305552175967453
-0.01770000000000005,-2.1701671339929662
-0.01870000000000016,-2.1984613599902674
-0.01970000000000005,-2.2423174102860832
-0.020700000000000163,-2.284758749282034
-0.021700000000000053,-2.32861479957785
-0.022700000000000164,-2.3696414272739363
-0.023700000000000054,-2.3979356532712375
-0.024700000000000166,-2.4347181470677284
-0.025700000000000056,-2.4814036199632743
-0.026700000000000168,-2.5238449589592253
-0.027700000000000058,-2.5606274527557162
-0.02870000000000017,-2.5945805239524775
-0.02970000000000006,-2.6285335951492383
-0.03070000000000017,-2.6723896454450546
-0.03170000000000006,-2.7148309844410052
-0.03270000000000017,-2.7516134782374966
-0.03370000000000006,-2.7869812607341222
-0.034700000000000175,-2.819519620631018
-0.035700000000000065,-2.866205093526564
-0.03670000000000018,-2.91571998902184
-0.03770000000000007,-2.945428926319006
-0.03870000000000018,-2.9822114201154974
-0.03970000000000007,-3.0161644913122583
-0.04070000000000018,-3.0614352529079394
-0.04170000000000007,-3.110950148403216
-0.04270000000000018,-3.1434885083001114
-0.04370000000000007,-3.178856290796737
-0.044700000000000184,-3.2184682071929585
-0.045700000000000074,-3.2637389687886396
-0.046700000000000186,-3.3118391529840507
-0.047700000000000076,-3.3500363580804073
-0.04870000000000019,-3.3854041405770325
-0.04970000000000008,-3.4292601908728493
-0.05070000000000019,-3.4702868185689346
-0.05170000000000008,-3.519801714064211
-0.05270000000000019,-3.562243053060162
-0.05370000000000008,-3.5961961242569234
-0.05470000000000019,-3.641466885852605
-0.05570000000000008,-3.688152358748151
-0.056700000000000195,-3.7376672542434273
-0.057700000000000085,-3.782938015839108
-0.058700000000000196,-3.815476375736004
-0.059700000000000086,-3.8607471373316855
-0.0607000000000002,-3.914506166726557
-0.06170000000000009,-3.9725093300210226
-0.0627000000000002,-4.01636538031684
-0.06370000000000009,-4.04748902891387
-0.0647000000000002,-4.094174501809416
-0.06570000000000009,-4.146518819904423
-0.0667000000000002,-4.198863137999429
-0.0677000000000001,-4.245548610894974
-0.0687000000000002,-4.289404661190791
-0.0697000000000001,-4.3332607114866075
-0.07070000000000021,-4.388434452181344
-0.0717000000000001,-4.442193481576215
-0.07270000000000021,-4.493123088371357
-0.0737000000000001,-4.538393849967037
-0.07470000000000021,-4.585079322862584
-0.0757000000000001,-4.64308248615705
-0.07670000000000021,-4.702500360751382
-0.0777000000000001,-4.7463564110471985
-0.07870000000000021,-4.798700729142205
-0.0797000000000001,-4.846800913337615
-0.08070000000000022,-4.907633499231812
-0.0817000000000001,-4.9698807964258735
-0.08270000000000022,-5.01656626932142
-0.08370000000000011,-5.067495876116562
-0.08470000000000022,-5.122669616811298
-0.08570000000000011,-5.1792580688059
-0.08670000000000022,-5.2457494998995555
-0.08770000000000011,-5.300923240594293
-0.08870000000000022,-5.349023424789703
-0.08970000000000011,-5.409856010683901
-0.09070000000000022,-5.465029751378637
-0.09170000000000011,-5.534350605072024
-0.09270000000000023,-5.59235376836649
-0.09370000000000012,-5.643283375161632
-0.09470000000000023,-5.706945383655557
-0.09570000000000012,-5.772022103449349
-0.09670000000000023,-5.837098823243141
-0.09770000000000012,-5.899346120437204
-0.09870000000000023,-5.951690438532209
-0.09970000000000012,-6.01393773572627
-0.10070000000000023,-6.087502723319252
-0.10170000000000012,-6.1511647318131795
-0.10270000000000024,-6.2162414516069715
-0.10370000000000013,-6.271415192301707
-0.10470000000000024,-6.333662489495769
-0.10570000000000013,-6.410056899688482
-0.10670000000000024,-6.4793777533818675
-0.10770000000000013,-6.545869184475525
-0.10870000000000024,-6.608116481669587
-0.10970000000000013,-6.674607912763243
-0.11070000000000024,-6.753831745555685
-0.11170000000000013,-6.823152599249072
-0.11270000000000002,-6.893888164242324
-0.11370000000000013,-6.961794306635846
-0.11470000000000002,-7.0297004490293675
-0.11570000000000014,-7.110338993121674
-0.11670000000000003,-7.188148114614252
-0.11770000000000014,-7.260298390907368
-0.11870000000000003,-7.329619244600755
-0.11970000000000014,-7.396110675694412
-0.12070000000000003,-7.483822776286043
-0.12170000000000014,-7.571534876877676
-0.12270000000000003,-7.6408557305710625
-0.12370000000000014,-7.714420718164044
-0.12470000000000003,-7.796473973556218
-0.12570000000000014,-7.878527228948389
-0.12670000000000003,-7.971898174739481
-0.12770000000000015,-8.048292584932193
-0.12870000000000004,-8.117613438625579
-0.12970000000000015,-8.209569673116807
-0.13070000000000004,-8.293037639808846
-0.13170000000000015,-8.389238008199667
-0.13270000000000004,-8.47412068619157
-0.13370000000000015,-8.55051509638428
-0.13470000000000004,-8.643886042175374
-0.13570000000000015,-8.734427565366737
-0.13670000000000004,-8.833457356357288
-0.13770000000000016,-8.928243013448247
-0.13870000000000005,-9.006052134940823
-0.13970000000000016,-9.105081925931376
-0.14070000000000005,-9.206941139521659
-0.14170000000000016,-9.310215064411805
-0.14270000000000005,-9.40924485540236
-0.14370000000000016,-9.49695695599399
-0.14470000000000005,-9.594572035684678
-0.14570000000000016,-9.70774893967388
-0.14670000000000005,-9.809608153264165
-0.14770000000000016,-9.914296789454177
-0.14870000000000005,-10.014741291744594
-0.14970000000000017,-10.118015216634742
-0.15070000000000006,-10.239680388423137
-0.15170000000000017,-10.348613158512745
-0.15270000000000006,-10.461790062501947
-0.15370000000000017,-10.565063987392096
-0.15470000000000006,-10.67682618008143
-0.15570000000000017,-10.79990606316969
-0.15670000000000006,-10.921571234958083
-0.15770000000000017,-11.038992272846881
-0.15870000000000006,-11.153583888135948
-0.15970000000000018,-11.273834348624478
-0.16070000000000007,-11.402573076912194
-0.16170000000000018,-11.539800072999105
-0.16270000000000007,-11.661465244787498
-0.16370000000000018,-11.788789261775351
-0.16470000000000007,-11.924601546562394
-0.16570000000000018,-12.054754986149977
-0.16670000000000007,-12.197640827436347
-0.16770000000000018,-12.32779426702393
-0.16870000000000007,-12.460777129211243
-0.16970000000000018,-12.60649239309734
-0.17070000000000007,-12.745134100484115
-0.17170000000000019,-12.899337632169406
-0.17270000000000008,-13.043638184755638
-0.1737000000000002,-13.178035758242817
-0.17470000000000008,-13.337898135127567
-0.1757000000000002,-13.49068695551299
-0.17670000000000008,-13.657622888897064
-0.1777000000000002,-13.817485265781814
-0.17870000000000008,-13.967444663567507
-0.1797000000000002,-14.13438059695158
-0.18070000000000008,-14.30273124163552
-0.1817000000000002,-14.472496597619326
-0.18270000000000008,-14.642261953603128
-0.1837000000000002,-14.812027309586934
-0.1847000000000001,-14.98179266557074
-0.1857000000000002,-15.165705134553193
-0.1867000000000001,-15.363764716534297
-0.1877000000000002,-15.533530072518102
-0.1887000000000001,-15.717442541500558
-0.1897000000000002,-15.901355010483012
-0.1907000000000001,-16.099414592464115
-0.1917000000000001,-16.29747417444522
-0.19269999999999998,-16.495533756426326
-0.1937000000000001,-16.70774045140608
-0.19469999999999998,-16.891652920388537
-0.1957000000000001,-17.118006728366943
-0.19669999999999999,-17.3302134233467
-0.1977000000000001,-17.528273005327804
-0.1987,-17.75462681330621
-0.1997000000000001,-17.952686395287316
-0.2007,-18.19318731626437
-0.2017000000000001,-18.433688237241427
-0.2027,-18.645894932221182
-0.2037000000000001,-18.872248740199588
-0.2047,-19.112749661176647
-0.2057000000000001,-19.353250582153702
-0.2067,-19.60789861612941
-0.2077000000000001,-19.834252424107817
-0.2087,-20.088900458083522
-0.2097000000000001,-20.34354849205923
-0.2107,-20.598196526034933
-0.2117000000000001,-20.881138786007945
-0.2127,-21.13578681998365
-0.2137000000000001,-21.404581966958006
-0.2147,-21.68752422693101
-0.2157000000000001,-21.98461359990267
-0.2167,-22.267555859875678
-0.21770000000000012,-22.550498119848687
-0.2187,-22.833440379821692
-0.21970000000000012,-23.13052975279335
-0.2207,-23.427619125765005
-0.22170000000000012,-23.738855611735314
-0.2227,-24.050092097705623
-0.22370000000000012,-24.33303435767863
-0.2247,-24.65841795664759
-0.22570000000000012,-24.983801555616548
-0.2267,-25.309185154585506
-0.22770000000000012,-25.634568753554465
-0.22870000000000001,-25.959952352523427
-0.22970000000000013,-26.29948306449103
-0.23070000000000002,-26.63901377645864
-0.23170000000000013,-26.992691601424898
-0.23270000000000002,-27.34636942639116
-0.23370000000000013,-27.685900138358768
-0.23470000000000002,-28.05372507632368
-0.23570000000000013,-28.421550014288584
-0.23670000000000002,-28.80352206525215
-0.2376999999999999,-29.157199890218404
-0.23870000000000002,-29.539171941181966
-0.2396999999999999,-29.921143992145527
-0.24070000000000003,-30.303116043109085
-0.24169999999999991,-30.71338232006995
-0.24270000000000003,-31.095354371033505
-0.24369999999999992,-31.505620647994366
-0.24470000000000003,-31.901739811956578
-0.24569999999999992,-32.31200608891744
-0.24670000000000003,-32.73641947887695
-0.24769999999999992,-33.14668575583781
-0.24870000000000003,-33.57109914579732
-0.24969999999999992,-33.99551253575683
-0.25070000000000003,-34.43407303871499
-0.2516999999999999,-34.8867806546718
-0.25270000000000004,-35.311194044631314
-0.2536999999999999,-35.763901660588125
-0.25470000000000004,-36.21660927654494
-0.2556999999999999,-36.669316892501755
-0.25670000000000004,-37.136171621457216
-0.25769999999999993,-37.58887923741403
-0.25870000000000004,-38.05573396636949
-0.25969999999999993,-38.5084415823263
-0.26070000000000004,-38.98944342428042
-0.26169999999999993,-39.47044526623452
-0.26270000000000004,-39.93729999518999
-0.26369999999999993,-40.4183018371441
-0.26470000000000005,-40.8993036790982
-0.26569999999999994,-41.39445263405098
-0.26670000000000005,-41.90374870200238
-0.26769999999999994,-42.3847505439565
-0.26870000000000005,-42.89404661190791
-0.26969999999999994,-43.38919556686068
-0.27070000000000005,-43.92678586080939
-0.27169999999999994,-44.4077877027635
-0.27270000000000005,-44.91708377071491
-0.27369999999999994,-45.42637983866633
-0.27470000000000006,-45.93567590661774
-0.27569999999999995,-46.47326620056646
-0.27670000000000006,-46.982562268517874
-0.27769999999999995,-47.520152562466585
-0.27870000000000006,-48.01530151741934
-0.27969999999999995,-48.538744698369406
-0.28070000000000006,-49.076334992318124
-0.28169999999999995,-49.628072399265484
-0.28270000000000006,-50.1656626932142
-0.28369999999999995,-50.68910587416426
-0.28470000000000006,-51.25499039411028
-0.28569999999999995,-51.80672780105764
-0.28670000000000007,-52.37261232100366
-0.28769999999999996,-52.91020261495237
-0.28870000000000007,-53.46194002189973
-0.28969999999999996,-54.05611876784305
-0.29070000000000007,-54.62200328778906
-0.29169999999999996,-55.24447625972968
-0.29270000000000007,-55.8103607796757
-0.29369999999999996,-56.41868663861767
-0.2947000000000001,-57.012865384560975
-0.29569999999999996,-57.6353383565016
-0.2967000000000001,-58.25781132844221
-0.29769999999999996,-58.880284300382826
-0.2987000000000001,-59.51690438532209
-0.29969999999999997,-60.13937735726271
-0.3007000000000001,-60.818438781197926
-0.30169999999999997,-61.48335309213449
-0.3027000000000001,-62.11997317707376
-0.30369999999999997,-62.799034601008984
-0.3047000000000001,-63.4780960249442
-0.30569999999999997,-64.18545167487672
-0.3067000000000001,-64.90695443780788
-0.3077,-65.64260431373769
-0.3087000000000001,-66.36410707666887
-0.3097,-67.0997569525987
-0.3107000000000001,-67.8354068285285
-0.3117,-68.59935093045563
-0.3127000000000001,-69.33500080638545
-0.3137,-70.12723913430986
-0.3147000000000001,-70.90533034923564
-0.3157,-71.69756867716005
-0.3167000000000001,-72.60298390907369
-0.3177,-73.4235164629954
-0.3187000000000001,-74.25819612991579
-0.3197,-75.00799311884425
-0.3207000000000001,-75.82852567276596
-0.3217,-76.5924697746931
-0.3227000000000001,-77.34226676362155
-0.3237,-78.13450509154598
-0.3247000000000001,-78.8984491934731
-0.3257,-79.66239329540022
-0.3267000000000001,-80.44048451032599
-0.3277,-81.1761343862558
-0.3287000000000001,-81.94007848818292
-0.3297,-82.67572836411274
-0.3307000000000001,-83.49626091803447
-0.3317,-84.24605790696293
-0.3327000000000001,-84.99585489589141
-0.3337,-85.77394611081716
-0.3347000000000001,-86.50959598674699
-0.3357,-87.30183431467142
-0.3367000000000001,-88.07992552959718
-0.3377,-88.82972251852566
-0.3387000000000001,-89.62196084645008
-0.3397,-90.3576107223799
-0.3407000000000001,-91.19229038930027
-0.3417,-91.94208737822873
-0.3427000000000001,-92.6918843671572
-0.3437,-93.46997558208298
-0.3447000000000001,-94.20562545801279
-0.3457,-94.99786378593721
-0.3467000000000001,-95.74766077486568
-0.3477,-96.52575198979144
-0.3487000000000001,-97.27554897871993
-0.3497,-97.96875751565379
-0.3507000000000001,-98.77514295657687
-0.3517,-99.48249860650938
-0.3527000000000001,-100.21814848243919
-0.3537,-100.93965124537037
-0.3547000000000001,-101.63285978230424
-0.3557,-102.3826567712327
-0.35670000000000013,-103.07586530816658
-0.3577,-103.79736807109774
-0.35870000000000013,-104.44813526903565
-0.3597,-105.12719669297088
-0.36070000000000013,-105.8062581169061
-0.3617,-106.44287820184536
-0.3626999999999999,-107.12193962578058
-0.3637,-107.73026548472255
-0.3646999999999999,-108.38103268266046
-0.3657,-108.98935854160243
-0.3666999999999999,-109.61183151354304
-0.3677,-110.1918631464877
-0.3686999999999999,-110.77189477943237
-0.36970000000000003,-111.394367751373
-0.3706999999999999,-111.93195804532172
-0.37170000000000003,-112.55443101726232
-0.3726999999999999,-113.06372708521374
-0.37370000000000003,-113.62961160515974
-0.3746999999999999,-114.13890767311116
-0.37570000000000003,-114.64820374106257
-0.3766999999999999,-115.19994114800993
-0.37770000000000004,-115.70923721596135
-0.3786999999999999,-116.24682750991008
-0.37970000000000004,-116.77027069086012
-0.3806999999999999,-117.26541964581288
-0.38170000000000004,-117.8030099397616
-0.38269999999999993,-118.31230600771303
-0.38370000000000004,-118.82160207566443
-0.38469999999999993,-119.30260391761853
-0.38570000000000004,-119.84019421156725
-0.38669999999999993,-118.84989630166173
-0.38570000000000004,-116.51562265688442
-0.38469999999999993,-114.57746817606933
-0.38370000000000004,-112.71004926024747
-0.38269999999999993,-110.84263034442563
-0.38170000000000004,-109.07424121959433
-0.3806999999999999,-107.27755786876574
-0.37970000000000004,-105.5516100829304
-0.3786999999999999,-103.81151518409638
-0.37770000000000004,-102.1563029632543
-0.3766999999999999,-100.51523785541086
-0.37570000000000003,-98.88831986056607
-0.3746999999999999,-97.31799031771587
-0.37370000000000003,-95.70521943586974
-0.3726999999999999,-94.21977257101145
-0.37170000000000003,-92.67773725415857
-0.3706999999999999,-91.20643750229891
-0.36970000000000003,-89.73513775043928
-0.3686999999999999,-88.27798511157829
-0.3677,-86.9057151507092
-0.3666999999999999,-85.46270962484687
-0.3657,-84.11873388997508
-0.3646999999999999,-82.746463929106
-0.3637,-81.37419396823692
-0.3626999999999999,-80.10095379835838
-0.3617,-78.7852722894839
-0.36070000000000013,-77.49788500660672
-0.3597,-76.23879194972683
-0.35870000000000013,-74.97969889284694
-0.3577,-73.79134140096032
-0.35670000000000013,-72.56054257007773
-0.3557,-71.3721850781911
-0.3547000000000001,-70.16968047330582
-0.3537,-68.99547009441784
-0.3527000000000001,-67.8354068285285
-0.3517,-66.70363778863647
-0.3507000000000001,-65.5860158617431
-0.3497,-64.49668816084701
-0.3487000000000001,-63.40736045995095
-0.3477,-62.34632698505217
-0.3467000000000001,-61.27114639715474
-0.3457,-60.224260035254616
-0.3447000000000001,-59.14907944735718
-0.3437,-58.13048731145436
-0.3427000000000001,-57.12604228855018
-0.3417,-56.12159726564601
-0.3407000000000001,-55.15959358173778
-0.3397,-54.1268543328363
-0.3387000000000001,-53.16485064892808
-0.3377,-52.23114119101716
-0.3367000000000001,-51.29743173310623
-0.3357,-50.40616361419126
-0.3347000000000001,-49.444159930283035
-0.3337,-48.55289181136806
-0.3327000000000001,-47.67577080545174
-0.3317,-46.78450268653676
-0.3307000000000001,-45.93567590661774
-0.3297,-45.044407787702774
-0.3287000000000001,-44.2097281207824
-0.3277,-43.38919556686068
-0.3267000000000001,-42.568663012938956
-0.3257,-41.74813045901723
-0.3247000000000001,-40.92759790509552
-0.3237,-40.135359577171094
-0.3227000000000001,-39.35726836224533
-0.3217,-38.5650300343209
-0.3207000000000001,-37.81523304539243
-0.3197,-37.05128894346531
-0.3187000000000001,-36.30149195453684
-0.3177,-35.57998919160567
-0.3167000000000001,-34.85848642867451
-0.3157,-34.13698366574334
-0.3147000000000001,-33.41548090281216
-0.3137,-32.70812525287965
-0.3127000000000001,-32.01491671594578
-0.3117,-31.350002405009217
-0.3107000000000001,-30.670940981073993
-0.3097,-29.991879557138777
-0.3087000000000001,-29.34111235920086
-0.3077,-28.704492274261593
-0.3067000000000001,-28.082019302320973
-0.30569999999999997,-27.43125210438306
-0.3047000000000001,-26.808779132442442
-0.30369999999999997,-26.20045327350048
-0.3027000000000001,-25.620421640555815
-0.30169999999999997,-25.026242894612498
-0.3007000000000001,-24.417917035670534
-0.29969999999999997,-23.823738289727217
-0.2987000000000001,-23.257853769781203
-0.29769999999999996,-22.691969249835186
-0.2967000000000001,-22.140231842887825
-0.29569999999999996,-21.574347322941808
-0.2947000000000001,-21.036757028993097
-0.29369999999999996,-20.499166735044383
-0.29270000000000007,-19.97572355409432
-0.29169999999999996,-19.452280373144255
-0.29070000000000007,-18.94298430519284
-0.28969999999999996,-18.433688237241427
-0.28870000000000007,-17.924392169290012
-0.28769999999999996,-17.45753744033455
-0.28670000000000007,-16.97653559838044
-0.28569999999999995,-16.481386643427676
-0.28470000000000006,-16.014531914472215
-0.28369999999999995,-15.533530072518102
-0.28270000000000006,-15.094969569559943
-0.28169999999999995,-14.65640906660178
-0.28070000000000006,-14.203701450644967
-0.27969999999999995,-13.772214504186131
-0.27870000000000006,-13.329409867328376
-0.27769999999999995,-12.92055830166738
-0.27670000000000006,-12.511706736006385
-0.27569999999999995,-12.090122768646603
-0.27470000000000006,-11.688344759484933
-0.27369999999999994,-11.278078482524071
-0.27270000000000005,-10.897521142860379
-0.27169999999999994,-10.519793225796413
-0.27070000000000005,-10.132162329633392
-0.26969999999999994,-9.764337391668482
-0.26870000000000005,-9.392268319803978
-0.26769999999999994,-9.038590494837718
-0.26670000000000005,-8.67642440207227
