Potential V vs RHE, Current mA cm-2
0.013299999999999867,0.04140859974704963
0.012299999999999978,-1.92117794521672
0.011299999999999866,-3.5353635383627267
0.010299999999999976,-4.974124930325469
0.009299999999999864,-6.238876832404812
0.008299999999999974,-7.4173313451923875
0.007299999999999862,-8.55051509638428
0.006299999999999972,-9.55496011928846
0.00529999999999986,-10.514134380596953
0.0042999999999999705,-11.473308641905447
0.0032999999999998586,-12.302329463626359
0.0022999999999999687,-13.175206335643086
0.0012999999999998568,-13.916515056772363
0.00029999999999996696,-14.65640906660178
-0.000700000000000145,-15.349617603535648
-0.0017000000000000348,-16.056973253468165
-0.0027000000000001467,-16.665299112410132
-0.0037000000000000366,-17.231183632356142
-0.0047000000000001485,-17.75462681330621
-0.005700000000000038,-18.320511333252224
-0.00670000000000015,-18.843954514202288
-0.00770000000000004,-19.3249563561564
-0.008700000000000152,-19.805958198110513
-0.009700000000000042,-20.286960040064624
-0.010700000000000154,-20.76796188201874
-0.011700000000000044,-21.248963723972853
-0.012700000000000156,-21.67337711393236
-0.013700000000000045,-22.069496277894572
-0.014700000000000157,-22.508056780852733
-0.015700000000000047,-22.861734605818995
-0.01670000000000016,-23.24370665678255
-0.01770000000000005,-23.55494314275286
-0.01870000000000016,-23.86617962872317
-0.01970000000000005,-24.16326900169483
-0.020700000000000163,-24.474505487665134
-0.021700000000000053,-24.729153521640843
-0.022700000000000164,-24.997948668615198
-0.023700000000000054,-25.295038041586857
-0.024700000000000166,-25.563833188561212
-0.025700000000000056,-25.86092256153287
-0.026700000000000168,-26.129717708507226
-0.027700000000000058,-26.38436574248293
-0.02870000000000017,-26.69560222845324
-0.02970000000000006,-26.907808923433
-0.03070000000000017,-27.176604070407354
-0.03170000000000006,-27.34636942639116
-0.03270000000000017,-27.530281895373616
-0.03370000000000006,-27.742488590353368
-0.034700000000000175,-27.869812607341224
-0.035700000000000065,-28.05372507632368
-0.03670000000000018,-28.18104909331153
-0.03770000000000007,-28.350814449295335
-0.03870000000000018,-28.53472691827779
-0.03970000000000007,-28.704492274261593
-0.04070000000000018,-28.8742576302454
-0.04170000000000007,-29.001581647233255
-0.04270000000000018,-29.18549411621571
-0.04370000000000007,-29.35525947219951
-0.044700000000000184,-29.482583489187363
-0.045700000000000074,-29.62405461917387
-0.046700000000000186,-29.751378636161718
-0.047700000000000076,-29.836261314153624
-0.04870000000000019,-29.921143992145527
-0.04970000000000008,-29.96358533114148
-0.05070000000000019,-30.04846800913338
-0.05170000000000008,-30.147497800123933
-0.05270000000000019,-30.189939139119886
-0.05370000000000008,-30.232380478115836
-0.05470000000000019,-30.317263156107735
-0.05570000000000008,-30.402145834099635
-0.056700000000000195,-30.487028512091538
-0.057700000000000085,-30.571911190083444
-0.058700000000000196,-30.614352529079397
-0.059700000000000086,-30.71338232006995
-0.0607000000000002,-30.79826499806185
-0.06170000000000009,-30.88314767605375
-0.0627000000000002,-30.968030354045652
-0.06370000000000009,-31.010471693041605
-0.0647000000000002,-31.052913032037555
-0.06570000000000009,-31.095354371033505
-0.0667000000000002,-31.137795710029454
-0.0677000000000001,-31.23682550102001
-0.0687000000000002,-31.321708179011907
-0.0697000000000001,-31.36414951800786
-0.07070000000000021,-31.49147353499572
-0.0717000000000001,-31.57635621298762
-0.07270000000000021,-31.661238890979522
-0.0737000000000001,-31.76026868197007
-0.07470000000000021,-31.84515135996197
-0.0757000000000001,-31.930034037953877
-0.07670000000000021,-31.972475376949827
-0.0777000000000001,-32.01491671594578
-0.07870000000000021,-32.01491671594578
-0.0797000000000001,-31.972475376949827
-0.08070000000000022,-31.972475376949827
-0.0817000000000001,-31.930034037953877
-0.08270000000000022,-31.930034037953877
-0.08370000000000011,-31.930034037953877
-0.08470000000000022,-31.930034037953877
-0.08570000000000011,-31.930034037953877
-0.08670000000000022,-31.930034037953877
-0.08770000000000011,-31.930034037953877
-0.08870000000000022,-31.972475376949827
-0.08970000000000011,-31.972475376949827
-0.09070000000000022,-31.972475376949827
-0.09170000000000011,-31.972475376949827
-0.09270000000000023,-31.972475376949827
-0.09370000000000012,-31.972475376949827
-0.09470000000000023,-31.930034037953877
-0.09570000000000012,-31.930034037953877
-0.09670000000000023,-31.887592698957924
-0.09770000000000012,-31.930034037953877
-0.09870000000000023,-31.887592698957924
-0.09970000000000012,-31.930034037953877
-0.10070000000000023,-31.930034037953877
-0.10170000000000012,-31.972475376949827
-0.10270000000000024,-32.01491671594578
-0.10370000000000013,-32.05735805494172
-0.10470000000000024,-32.09979939393769
-0.10570000000000013,-32.09979939393769
-0.10670000000000024,-32.09979939393769
-0.10770000000000013,-32.09979939393769
-0.10870000000000024,-32.09979939393769
-0.10970000000000013,-32.05735805494172
-0.11070000000000024,-32.05735805494172
-0.11170000000000013,-32.01491671594578
-0.11270000000000002,-32.01491671594578
-0.11370000000000013,-31.972475376949827
-0.11470000000000002,-31.972475376949827
-0.11570000000000014,-31.972475376949827
-0.11670000000000003,-31.972475376949827
-0.11770000000000014,-31.972475376949827
-0.11870000000000003,-31.972475376949827
-0.11970000000000014,-31.930034037953877
-0.12070000000000003,-31.887592698957924
-0.12170000000000014,-31.84515135996197
-0.12270000000000003,-31.802710020966025
-0.12370000000000014,-31.76026868197007
-0.12470000000000003,-31.661238890979522
-0.12570000000000014,-31.57635621298762
-0.12670000000000003,-31.49147353499572
-0.12770000000000015,-31.40659085700382
-0.12870000000000004,-31.36414951800786
-0.12970000000000015,-31.321708179011907
-0.13070000000000004,-31.27926684001596
-0.13170000000000015,-31.27926684001596
-0.13270000000000004,-31.19438416202406
-0.13370000000000015,-31.19438416202406
-0.13470000000000004,-31.137795710029454
-0.13570000000000015,-31.095354371033505
-0.13670000000000004,-31.095354371033505
-0.13770000000000016,-31.052913032037555
-0.13870000000000005,-31.052913032037555
-0.13970000000000016,-31.010471693041605
-0.14070000000000005,-31.010471693041605
-0.14170000000000016,-30.968030354045652
-0.14270000000000005,-30.925589015049702
-0.14370000000000016,-30.88314767605375
-0.14470000000000005,-30.925589015049702
-0.14570000000000016,-30.925589015049702
-0.14670000000000005,-30.925589015049702
-0.14770000000000016,-30.925589015049702
-0.14870000000000005,-30.88314767605375
-0.14970000000000017,-30.88314767605375
-0.15070000000000006,-30.925589015049702
-0.15170000000000017,-30.88314767605375
-0.15270000000000006,-30.88314767605375
-0.15370000000000017,-30.88314767605375
-0.15470000000000006,-30.8407063370578
-0.15570000000000017,-30.79826499806185
-0.15670000000000006,-30.79826499806185
-0.15770000000000017,-30.7558236590659
-0.15870000000000006,-30.7558236590659
-0.15970000000000018,-30.7558236590659
-0.16070000000000007,-30.7558236590659
-0.16170000000000018,-30.7558236590659
-0.16270000000000007,-30.7558236590659
-0.16370000000000018,-30.79826499806185
-0.16470000000000007,-30.8407063370578
-0.16570000000000018,-30.79826499806185
-0.16670000000000007,-30.79826499806185
-0.16770000000000018,-30.7558236590659
-0.16870000000000007,-30.79826499806185
-0.16970000000000018,-30.71338232006995
-0.17070000000000007,-30.614352529079397
-0.17170000000000019,-30.571911190083444
-0.17270000000000008,-30.529469851087494
-0.1737000000000002,-30.487028512091538
-0.17470000000000008,-30.487028512091538
-0.1757000000000002,-30.487028512091538
-0.17670000000000008,-30.487028512091538
-0.1777000000000002,-30.487028512091538
-0.17870000000000008,-30.487028512091538
-0.1797000000000002,-30.487028512091538
-0.18070000000000008,-30.487028512091538
-0.1817000000000002,-30.529469851087494
-0.18270000000000008,-30.529469851087494
-0.1837000000000002,-30.529469851087494
-0.1847000000000001,-30.529469851087494
-0.1857000000000002,-30.529469851087494
-0.1867000000000001,-30.529469851087494
-0.1877000000000002,-30.487028512091538
-0.1887000000000001,-30.487028512091538
-0.1897000000000002,-30.529469851087494
-0.1907000000000001,-30.487028512091538
-0.1917000000000001,-30.487028512091538
-0.19269999999999998,-30.487028512091538
-0.1937000000000001,-30.487028512091538
-0.19469999999999998,-30.487028512091538
-0.1957000000000001,-30.487028512091538
-0.19669999999999999,-30.444587173095588
-0.1977000000000001,-30.444587173095588
-0.1987,-30.402145834099635
-0.1997000000000001,-30.402145834099635
-0.2007,-30.402145834099635
-0.2017000000000001,-30.359704495103685
-0.2027,-30.359704495103685
-0.2037000000000001,-30.402145834099635
-0.2047,-30.402145834099635
-0.2057000000000001,-30.444587173095588
-0.2067,-30.487028512091538
-0.2077000000000001,-30.529469851087494
-0.2087,-30.614352529079397
-0.2097000000000001,-30.614352529079397
-0.2107,-30.614352529079397
-0.2117000000000001,-30.614352529079397
-0.2127,-30.614352529079397
-0.2137000000000001,-30.614352529079397
-0.2147,-30.614352529079397
-0.2157000000000001,-30.670940981073993
-0.2167,-30.670940981073993
-0.21770000000000012,-30.71338232006995
-0.2187,-30.670940981073993
-0.21970000000000012,-30.7558236590659
-0.2207,-30.79826499806185
-0.22170000000000012,-30.8407063370578
-0.2227,-30.88314767605375
-0.22370000000000012,-30.88314767605375
-0.2247,-30.88314767605375
-0.22570000000000012,-30.88314767605375
-0.2267,-30.8407063370578
-0.22770000000000012,-30.8407063370578
-0.22870000000000001,-30.8407063370578
-0.22970000000000013,-30.8407063370578
-0.23070000000000002,-30.79826499806185
-0.23170000000000013,-30.79826499806185
-0.23270000000000002,-30.8407063370578
-0.23370000000000013,-30.79826499806185
-0.23470000000000002,-30.8407063370578
-0.23570000000000013,-30.88314767605375
-0.23670000000000002,-30.88314767605375
-0.2376999999999999,-30.925589015049702
-0.23870000000000002,-31.010471693041605
-0.2396999999999999,-31.010471693041605
-0.24070000000000003,-31.010471693041605
-0.24169999999999991,-31.052913032037555
-0.24270000000000003,-31.052913032037555
-0.24369999999999992,-31.095354371033505
-0.24470000000000003,-31.052913032037555
-0.24569999999999992,-31.052913032037555
-0.24670000000000003,-31.052913032037555
-0.24769999999999992,-31.052913032037555
-0.24870000000000003,-31.052913032037555
-0.24969999999999992,-31.052913032037555
-0.25070000000000003,-31.052913032037555
-0.2516999999999999,-31.052913032037555
-0.25270000000000004,-31.052913032037555
-0.2536999999999999,-31.095354371033505
-0.25470000000000004,-31.137795710029454
-0.2556999999999999,-31.095354371033505
-0.25670000000000004,-31.137795710029454
-0.25769999999999993,-31.19438416202406
-0.25870000000000004,-31.137795710029454
-0.25969999999999993,-31.137795710029454
-0.26070000000000004,-31.137795710029454
-0.26169999999999993,-31.137795710029454
-0.26270000000000004,-31.137795710029454
-0.26369999999999993,-31.137795710029454
-0.26470000000000005,-31.19438416202406
-0.26569999999999994,-31.19438416202406
-0.26670000000000005,-31.23682550102001
-0.26769999999999994,-31.27926684001596
-0.26870000000000005,-31.27926684001596
-0.26969999999999994,-31.27926684001596
-0.27070000000000005,-31.27926684001596
-0.27169999999999994,-31.27926684001596
-0.27270000000000005,-31.321708179011907
-0.27369999999999994,-31.321708179011907
-0.27470000000000006,-31.36414951800786
-0.27569999999999995,-31.40659085700382
-0.27670000000000006,-31.36414951800786
-0.27769999999999995,-31.36414951800786
-0.27870000000000006,-31.36414951800786
-0.27969999999999995,-31.40659085700382
-0.28070000000000006,-31.40659085700382
-0.28169999999999995,-31.40659085700382
-0.28270000000000006,-31.36414951800786
-0.28369999999999995,-31.40659085700382
-0.28470000000000006,-31.36414951800786
-0.28569999999999995,-31.36414951800786
-0.28670000000000007,-31.36414951800786
-0.28769999999999996,-31.321708179011907
-0.28870000000000007,-31.27926684001596
-0.28969999999999996,-31.27926684001596
-0.29070000000000007,-31.23682550102001
-0.29169999999999996,-31.23682550102001
-0.29270000000000007,-31.27926684001596
-0.29369999999999996,-31.23682550102001
-0.2947000000000001,-31.321708179011907
-0.29569999999999996,-31.321708179011907
-0.2967000000000001,-31.36414951800786
-0.29769999999999996,-31.40659085700382
-0.2987000000000001,-31.449032195999767
-0.29969999999999997,-31.40659085700382
-0.3007000000000001,-31.40659085700382
-0.30169999999999997,-31.321708179011907
-0.3027000000000001,-31.27926684001596
-0.30369999999999997,-31.19438416202406
-0.3047000000000001,-31.137795710029454
-0.30569999999999997,-31.137795710029454
-0.3067000000000001,-31.095354371033505
-0.3077,-31.052913032037555
-0.3087000000000001,-31.010471693041605
-0.3097,-31.052913032037555
-0.3107000000000001,-31.010471693041605
-0.3117,-30.968030354045652
-0.3127000000000001,-31.010471693041605
-0.3137,-31.010471693041605
-0.3147000000000001,-30.968030354045652
-0.3157,-30.968030354045652
-0.3167000000000001,-30.925589015049702
-0.3177,-30.925589015049702
-0.3187000000000001,-30.925589015049702
-0.3197,-30.925589015049702
-0.3207000000000001,-30.925589015049702
-0.3217,-30.968030354045652
-0.3227000000000001,-30.968030354045652
-0.3237,-31.010471693041605
-0.3247000000000001,-31.052913032037555
-0.3257,-31.095354371033505
-0.3267000000000001,-31.095354371033505
-0.3277,-31.095354371033505
-0.3287000000000001,-31.137795710029454
-0.3297,-31.137795710029454
-0.3307000000000001,-31.19438416202406
-0.3317,-31.19438416202406
-0.3327000000000001,-31.19438416202406
-0.3337,-31.23682550102001
-0.3347000000000001,-31.19438416202406
-0.3357,-31.19438416202406
-0.3367000000000001,-31.19438416202406
-0.3377,-31.19438416202406
-0.3387000000000001,-31.23682550102001
-0.3397,-31.23682550102001
-0.3407000000000001,-31.27926684001596
-0.3417,-31.321708179011907
-0.3427000000000001,-31.36414951800786
-0.3437,-31.40659085700382
-0.3447000000000001,-31.449032195999767
-0.3457,-31.49147353499572
-0.3467000000000001,-31.449032195999767
-0.3477,-31.49147353499572
-0.3487000000000001,-31.49147353499572
-0.3497,-31.49147353499572
-0.3507000000000001,-31.533914873991666
-0.3517,-31.57635621298762
-0.3527000000000001,-31.618797551983565
-0.3537,-31.661238890979522
-0.3547000000000001,-31.76026868197007
-0.3557,-31.802710020966025
-0.35670000000000013,-31.84515135996197
-0.3577,-31.930034037953877
-0.35870000000000013,-32.05735805494172
-0.3597,-32.05735805494172
-0.36070000000000013,-32.14224073293363
-0.3617,-32.14224073293363
-0.3626999999999999,-32.14224073293363
-0.3637,-32.184682071929586
-0.3646999999999999,-32.24127052392419
-0.3657,-32.24127052392419
-0.3666999999999999,-32.32615320191609
-0.3677,-32.32615320191609
-0.3686999999999999,-32.41103587990799
-0.36970000000000003,-32.45347721890394
-0.3706999999999999,-32.53835989689585
-0.37170000000000003,-32.58080123589179
-0.3726999999999999,-32.66568391388369
-0.37370000000000003,-32.764713704874254
-0.3746999999999999,-32.84959638286615
-0.37570000000000003,-32.93447906085806
-0.3766999999999999,-33.01936173884996
-0.37770000000000004,-33.10424441684186
-0.3786999999999999,-33.18912709483376
-0.37970000000000004,-33.288156885824314
-0.3806999999999999,-33.373039563816214
-0.38170000000000004,-33.45792224180811
-0.38269999999999993,-33.54280491980002
-0.38370000000000004,-33.627687597791926
-0.38469999999999993,-33.755011614779775
-0.38570000000000004,-33.89648274476628
-0.38669999999999993,-34.02380676175414
-0.38770000000000004,-34.15113077874198
-0.38869999999999993,-34.278454795729836
-0.38970000000000005,-34.41992592571634
-0.39069999999999994,-34.50480860370825
-0.39170000000000005,-34.58969128170015
-0.39269999999999994,-34.75945663768395
-0.39370000000000005,-34.8018979766799
-0.39469999999999994,-34.94336910666641
-0.39570000000000005,-35.07069312365426
-0.39669999999999994,-35.240458479638065
-0.39770000000000005,-35.38192960962457
-0.39869999999999994,-35.55169496560837
-0.39970000000000006,-35.721460321592176
-0.40069999999999995,-35.90537279057463
-0.40170000000000006,-36.03269680756248
-0.40269999999999995,-36.16002082455034
-0.40370000000000006,-36.37222751953009
-0.40469999999999995,-36.5136986495166
-0.40570000000000006,-36.6834640055004
-0.40669999999999995,-36.81078802248826
-0.40770000000000006,-36.95225915247476
-0.40869999999999995,-37.07958316946261
-0.40970000000000006,-37.206907186450465
-0.41069999999999995,-37.376672542434264
-0.41170000000000007,-37.51814367242077
-0.41269999999999996,-37.645467689408626
-0.41370000000000007,-37.81523304539243
-0.41469999999999996,-37.99914551437489
-0.41570000000000007,-38.211352209354644
-0.41669999999999996,-38.46600024333035
-0.41770000000000007,-38.777236729300654
-0.41869999999999996,-39.08847321527096
-0.4197000000000001,-39.34312124924667
-0.42069999999999996,-39.51288660523048
-0.4217000000000001,-39.696799074212926
-0.42269999999999996,-39.82412309120078
-0.4237000000000001,-39.86656443019674
-0.42469999999999997,-39.95144710818864
-0.4257000000000001,-39.99388844718459
-0.42669999999999997,-39.99388844718459
-0.4277000000000001,-40.092918238175145
-0.42869999999999997,-40.092918238175145
-0.4297000000000001,-40.177800916167044
-0.43069999999999997,-40.34756627215084
-0.4317000000000001,-40.51733162813464
-0.4327,-40.743685436113054
-0.4337000000000001,-41.083216148080666
-0.4347,-41.39445263405098
-0.4357000000000001,-41.79057179801318
-0.4367,-42.229132300971344
-0.4377000000000001,-42.653545690930855
-0.4387,-43.04966485489307
-0.4397000000000001,-43.44578401885527
-0.4407,-43.79946184382153
-0.4417000000000001,-44.181433894785094
-0.4427,-44.4926703807554
-0.4437000000000001,-44.80390686672572
-0.4447,-45.10099623969737
-0.4457000000000001,-45.412232725667685
-0.4467,-45.624439420647434
-0.4477000000000001,-45.89323456762179
-0.4487,-46.10544126260155
-0.4497000000000001,-46.37423640957591
-0.4507,-46.628884443551605
-0.4517000000000001,-46.94012092952192
-0.4527,-47.23721030249357
-0.4537000000000001,-47.54844678846388
-0.4547,-47.80309482243959
-0.4557000000000001,-48.114331308409895
-0.4567,-48.41142068138156
-0.4577000000000001,-48.72265716735186
-0.4587,-48.97730520132757
-0.4597000000000001,-49.33098302629383
-0.4607,-49.59977817326819
-0.4617000000000001,-49.939308885235796
-0.4627,-50.2505453712061
-0.4637000000000001,-50.60422319617236
-0.4647,-50.98619524713592
-0.4657000000000001,-51.38231441109813
-0.4667,-51.77843357506035
-0.4677000000000001,-52.2169940780185
-0.4687,-52.59896612898206
-0.4697000000000001,-52.995085292944275
-0.4707,-53.348763117910536
-0.4717000000000001,-53.68829382987814
-0.4727,-54.0419716548444
-0.4737000000000001,-54.31076680181876
-0.4747,-54.65029751378637
-0.4757000000000001,-55.046416677748574
-0.4767,-55.400094502714836
-0.4777000000000001,-55.838655005673
-0.4787,-56.30550973462846
-0.4797000000000001,-56.74407023758662
-0.4807,-57.182630740544774
-0.48170000000000013,-57.66363258249889
-0.4827,-58.18707576344896
-0.48370000000000013,-58.71051894439902
-0.4847,-59.14907944735718
-0.48570000000000013,-59.67252262830725
-0.4867,-58.583194927411164
-0.48570000000000013,-55.400094502714836
-0.4847,-52.91020261495237
-0.48370000000000013,-50.85887123014807
-0.4827,-49.076334992318124
-0.48170000000000013,-47.46356411047198
-0.4807,-46.062999923605595
-0.4797000000000001,-44.74731841473111
-0.4787,-43.53066669684718
-0.4777000000000001,-42.39889765695515
-0.4767,-41.30956995605907
-0.4757000000000001,-40.26268359415894
-0.4747,-39.30067991025072
-0.4737000000000001,-38.38111756533845
-0.4727,-37.51814367242077
-0.4717000000000001,-36.6834640055004
-0.4707,-35.90537279057463
-0.4697000000000001,-35.11313446265021
-0.4687,-34.41992592571634
-0.4677000000000001,-33.670128936787876
-0.4667,-33.01936173884996
-0.4657000000000001,-32.32615320191609
-0.4647,-31.661238890979522
