Potential V vs RHE, Current mA cm-2
0.013299999999999867,5.537180027671754
0.012299999999999978,4.316284175888227
0.011299999999999866,3.1378296631006513
0.010299999999999976,2.0909433012005243
0.009299999999999864,1.0446228238203432
0.008299999999999974,0.08502414912188871
0.007299999999999862,-0.8745745255765657
0.006299999999999972,-1.7910245056291363
0.00529999999999986,-2.662486666345999
0.0042999999999999705,-3.5353635383627267
0.0032999999999998586,-4.3205283097878215
0.0022999999999999687,-5.105693081212917
0.0012999999999998568,-5.847001802342197
0.00029999999999996696,-6.588310523471475
-0.000700000000000145,-7.28576319430494
-0.0017000000000000348,-7.940774526142452
-0.0027000000000001467,-8.55051509638428
-0.0037000000000000366,-9.161670377925978
-0.0047000000000001485,-9.728969609171857
-0.005700000000000038,-10.340124890713554
-0.00670000000000015,-10.906009410659568
-0.00770000000000004,-11.473308641905447
-0.008700000000000152,-12.040607873151327
-0.009700000000000042,-12.56405105410139
-0.010700000000000154,-13.087494235051453
-0.011700000000000044,-13.610937416001518
-0.012700000000000156,-14.13438059695158
-0.013700000000000045,-14.57152638860988
-0.014700000000000157,-15.05252823056399
-0.015700000000000047,-15.491088733522153
-0.01670000000000016,-15.91550212348166
-0.01770000000000005,-16.311621287443874
-0.01870000000000016,-16.70774045140608
-0.01970000000000005,-17.103859615368293
-0.020700000000000163,-17.4433903273359
-0.021700000000000053,-17.881950830294063
-0.022700000000000164,-18.320511333252224
-0.023700000000000054,-18.674189158218486
-0.024700000000000166,-19.112749661176647
-0.025700000000000056,-19.452280373144255
-0.026700000000000168,-19.848399537106463
-0.027700000000000058,-20.159636023076775
-0.02870000000000017,-20.499166735044383
-0.02970000000000006,-20.85284456001064
-0.03070000000000017,-21.149933932982297
-0.03170000000000006,-21.461170418952605
-0.03270000000000017,-21.814848243918867
-0.03370000000000006,-22.111937616890522
-0.034700000000000175,-22.42317410286083
-0.035700000000000065,-22.776851927827092
-0.03670000000000018,-23.1163826397947
-0.03770000000000007,-23.427619125765005
-0.03870000000000018,-23.724708498736668
-0.03970000000000007,-24.035944984706973
-0.04070000000000018,-24.34718147067728
-0.04170000000000007,-24.601829504652986
-0.04270000000000018,-24.870624651627345
-0.04370000000000007,-25.12527268560305
-0.044700000000000184,-25.39406783257741
-0.045700000000000074,-25.648715866553115
-0.046700000000000186,-25.86092256153287
-0.047700000000000076,-26.087276369511276
-0.04870000000000019,-26.29948306449103
-0.04970000000000008,-26.525836872469437
-0.05070000000000019,-26.738043567449193
-0.05170000000000008,-26.9643973754276
-0.05270000000000019,-27.176604070407354
-0.05370000000000008,-27.38881076538711
-0.05470000000000019,-27.615164573365515
-0.05570000000000008,-27.869812607341224
-0.056700000000000195,-28.13860775431558
-0.057700000000000085,-28.350814449295335
-0.058700000000000196,-28.662050935265643
-0.059700000000000086,-28.959140308237306
-0.0607000000000002,-29.27037679420761
-0.06170000000000009,-29.525024828183312
-0.0627000000000002,-29.793819975157668
-0.06370000000000009,-30.04846800913338
-0.0647000000000002,-30.274821817111786
-0.06570000000000009,-30.487028512091538
-0.0667000000000002,-30.670940981073993
-0.0677000000000001,-30.8407063370578
-0.0687000000000002,-31.052913032037555
-0.0697000000000001,-31.23682550102001
-0.07070000000000021,-31.49147353499572
-0.0717000000000001,-31.661238890979522
-0.07270000000000021,-31.930034037953877
-0.0737000000000001,-32.14224073293363
-0.07470000000000021,-32.368594540912035
-0.0757000000000001,-32.58080123589179
-0.07670000000000021,-32.764713704874254
-0.0777000000000001,-32.97692039985401
-0.07870000000000021,-33.18912709483376
-0.0797000000000001,-33.41548090281216
-0.08070000000000022,-33.670128936787876
-0.0817000000000001,-33.93892408376223
-0.08270000000000022,-34.236013456733886
-0.08370000000000011,-34.5472499427042
-0.08470000000000022,-34.8018979766799
-0.08570000000000011,-35.07069312365426
-0.08670000000000022,-35.32534115762997
-0.08770000000000011,-35.50925362661242
-0.08870000000000022,-35.679018982596226
-0.08970000000000011,-35.848784338580025
-0.09070000000000022,-35.94781412957058
-0.09170000000000011,-36.07513814655844
-0.09270000000000023,-36.20246216354629
-0.09370000000000012,-36.329786180534136
-0.09470000000000023,-36.5136986495166
-0.09570000000000012,-36.725905344496354
-0.09670000000000023,-36.89567070048016
-0.09770000000000012,-37.122024508458566
-0.09870000000000023,-37.334231203438314
-0.09970000000000012,-37.60302635041268
-0.10070000000000023,-37.85767438438838
-0.10170000000000012,-38.08402819236679
-0.10270000000000024,-38.38111756533845
-0.10370000000000013,-38.6499127123128
-0.10470000000000024,-38.94700208528445
-0.10570000000000013,-39.258238571254765
-0.10670000000000024,-39.51288660523048
-0.10770000000000013,-39.86656443019674
-0.10870000000000024,-40.177800916167044
-0.10970000000000013,-40.4748902891387
-0.11070000000000024,-40.78612677510901
-0.11170000000000013,-41.04077480908471
-0.11270000000000002,-41.352011295055014
-0.11370000000000013,-41.66324778102533
-0.11470000000000002,-41.91789581500104
-0.11570000000000014,-42.229132300971344
-0.11670000000000003,-42.483780334947056
-0.11770000000000014,-42.752575481921404
-0.11870000000000003,-43.007223515897124
-0.11970000000000014,-43.27601866287147
-0.12070000000000003,-43.48822535785123
-0.12170000000000014,-43.75702050482558
-0.12270000000000003,-43.96922719980534
-0.12370000000000014,-44.181433894785094
-0.12470000000000003,-44.4077877027635
-0.12570000000000014,-44.619994397743255
-0.12670000000000003,-44.80390686672572
-0.12770000000000015,-45.01611356170547
-0.12870000000000004,-45.22832025668522
-0.12970000000000015,-45.45467406466363
-0.13070000000000004,-45.666880759643384
-0.13170000000000015,-45.93567590661774
-0.13270000000000004,-46.147882601597495
-0.13370000000000015,-46.41667774857186
-0.13470000000000004,-46.713767121543505
-0.13570000000000015,-46.982562268517874
-0.13670000000000004,-47.27965164148953
-0.13770000000000016,-47.590888127459834
-0.13870000000000005,-47.93041883942744
-0.13970000000000016,-48.2840966643937
-0.14070000000000005,-48.72265716735186
-0.14170000000000016,-49.118776331314066
-0.14270000000000005,-49.50074838227763
-0.14370000000000016,-49.939308885235796
-0.14470000000000005,-50.335428049198
-0.14570000000000016,-50.73154721316022
-0.14670000000000005,-51.071077925127824
-0.14770000000000016,-51.46719708909004
-0.14870000000000005,-51.73599223606439
-0.14970000000000017,-52.075522948032
-0.15070000000000006,-52.386759434002315
-0.15170000000000017,-52.69799591997262
-0.15270000000000006,-52.995085292944275
-0.15370000000000017,-53.26388043991864
-0.15470000000000006,-53.518528473894335
-0.15570000000000017,-53.82976495986464
-0.15670000000000006,-54.1268543328363
-0.15770000000000017,-54.480532157802564
-0.15870000000000006,-54.791768643772876
-0.15970000000000018,-55.13129935574048
-0.16070000000000007,-55.484977180706736
-0.16170000000000018,-55.881096344668954
-0.16270000000000007,-56.22062705663656
-0.16370000000000018,-56.57430488160282
-0.16470000000000007,-56.927982706569075
-0.16570000000000018,-57.22507207954074
-0.16670000000000007,-57.493867226515086
-0.16770000000000018,-57.79095659948675
-0.16870000000000007,-58.05975174646111
-0.16970000000000018,-58.39928245842871
-0.17070000000000007,-58.75296028339497
-0.17170000000000019,-59.10663810836124
-0.17270000000000008,-59.502757272323436
-0.1737000000000002,-59.884729323287
-0.17470000000000008,-60.28084848724921
-0.1757000000000002,-60.71940899020737
-0.17670000000000008,-61.11552815416958
-0.1777000000000002,-61.455058866137186
-0.17870000000000008,-61.80873669110345
-0.1797000000000002,-62.16241451606972
-0.18070000000000008,-62.501945228037314
-0.1817000000000002,-62.81318171400764
-0.18270000000000008,-63.20930087796983
-0.1837000000000002,-63.54883158993744
-0.1847000000000001,-63.902509414903705
-0.1857000000000002,-64.29862857886593
-0.1867000000000001,-64.63815929083353
-0.1877000000000002,-65.03427845479574
-0.1887000000000001,-65.43039761875795
-0.1897000000000002,-65.86895812171612
-0.1907000000000001,-66.25093017267966
-0.1917000000000001,-66.60460799764593
-0.19269999999999998,-67.00072716160814
-0.1937000000000001,-67.39684632557035
-0.19469999999999998,-67.73637703753796
-0.1957000000000001,-68.13249620150016
-0.19669999999999999,-68.57105670445833
-0.1977000000000001,-68.91058741642594
-0.1987,-69.30670658038814
-0.1997000000000001,-69.6603844053544
-0.2007,-70.05650356931662
-0.2017000000000001,-70.39603428128423
-0.2027,-70.74971210625048
-0.2037000000000001,-71.1458312702127
-0.2047,-71.4004793041884
-0.2057000000000001,-71.75415712915466
-0.2067,-72.05124650212633
-0.2077000000000001,-72.40492432709259
-0.2087,-72.67371947406694
-0.2097000000000001,-72.97080884703858
-0.2107,-73.23960399401295
-0.2117000000000001,-73.49425202798865
-0.2127,-73.76304717496302
-0.2137000000000001,-74.0176952089387
-0.2147,-74.24404901691713
-0.2157000000000001,-74.49869705089283
-0.2167,-74.76749219786718
-0.21770000000000012,-75.06458157083884
-0.2187,-75.4182593958051
-0.21970000000000012,-75.85681989876326
-0.2207,-76.29538040172143
-0.22170000000000012,-76.81882358267148
-0.2227,-77.34226676362155
-0.22370000000000012,-77.86570994457162
-0.2247,-78.38915312552167
-0.22570000000000012,-78.9550376454677
-0.2267,-79.47848082641775
-0.22770000000000012,-80.00192400736783
-0.22870000000000001,-80.46877873632329
-0.22970000000000013,-80.9497805782774
-0.23070000000000002,-81.43078242023151
-0.23170000000000013,-81.91178426218562
-0.23270000000000002,-82.43522744313569
-0.23370000000000013,-82.95867062408576
-0.23470000000000002,-83.43967246603985
-0.23570000000000013,-83.92067430799398
-0.23670000000000002,-84.31679347195619
-0.2376999999999999,-84.7129126359184
-0.23870000000000002,-85.052443347886
-0.2396999999999999,-85.36367983385631
-0.24070000000000003,-85.61832786783202
-0.24169999999999991,-85.88712301480638
-0.24270000000000003,-86.09932970978613
-0.24369999999999992,-86.36812485676049
-0.24470000000000003,-86.58033155174023
-0.24569999999999992,-86.80668535971866
-0.24670000000000003,-87.06133339369435
-0.24769999999999992,-87.37256987966467
-0.24870000000000003,-87.71210059163228
-0.24969999999999992,-88.02333707760259
-0.25070000000000003,-88.37701490256885
-0.2516999999999999,-88.7589869535324
-0.25270000000000004,-89.15510611749461
-0.2536999999999999,-89.55122528145681
-0.25470000000000004,-90.03222712341093
-0.2556999999999999,-90.47078762636909
-0.25670000000000004,-90.93764235532454
-0.25769999999999993,-91.37620285828272
-0.25870000000000004,-91.89964603923279
-0.25969999999999993,-92.3806478811869
-0.26070000000000004,-92.90409106213696
-0.26169999999999993,-93.42753424308701
-0.26270000000000004,-93.99341876303303
-0.26369999999999993,-94.5168619439831
-0.26470000000000005,-95.04030512493317
-0.26569999999999994,-95.64863098387512
-0.26670000000000005,-96.31354529481169
-0.26769999999999994,-96.96431249274961
-0.26870000000000005,-97.6575210296835
-0.26969999999999994,-98.3082882276214
-0.27070000000000005,-98.88831986056607
-0.27169999999999994,-99.35517458952152
-0.27270000000000005,-99.7937350924797
-0.27369999999999994,-100.23229559543785
-0.27470000000000006,-100.75573877638791
-0.27569999999999995,-101.3640646353299
-0.27670000000000006,-101.97239049427183
-0.27769999999999995,-102.67974614420436
-0.27870000000000006,-103.37295468113824
-0.27969999999999995,-104.06616321807209
-0.28070000000000006,-104.73107752900866
-0.28169999999999995,-105.29696204895468
-0.28270000000000006,-105.7779638909088
-0.28369999999999995,-106.21652439386696
-0.28470000000000006,-106.55605510583456
-0.28569999999999995,-106.86729159180487
-0.28670000000000007,-107.12193962578058
-0.28769999999999996,-107.30585209476303
-0.28870000000000007,-107.51805878974278
-0.28969999999999996,-107.73026548472255
-0.29070000000000007,-107.99906063169689
-0.29169999999999996,-108.35273845666316
-0.29270000000000007,-108.73471050762672
-0.29369999999999996,-109.21571234958083
-0.2947000000000001,-109.78159686952685
-0.29569999999999996,-110.40406984146746
-0.2967000000000001,-111.05483703940537
-0.29769999999999996,-111.7904869153352
-0.2987000000000001,-112.66760792125153
-0.29969999999999997,-113.58717026616378
-0.3007000000000001,-114.4925854980774
-0.30169999999999997,-115.32726516499778
-0.3027000000000001,-116.10535637992358
-0.30369999999999997,-116.77027069086012
-0.3047000000000001,-117.19468408081964
-0.30569999999999997,-117.50592056678994
-0.3067000000000001,-117.71812726176971
-0.3077,-117.94448106974811
-0.3087000000000001,-118.1991291037238
-0.3097,-118.51036558969413
-0.3107000000000001,-118.99136743164823
-0.3117,-119.5996932905902
-0.3127000000000001,-120.43437295751058
-0.3137,-121.33978818942418
-0.3147000000000001,-122.30179187333242
-0.3157,-123.26379555724066
-0.3167000000000001,-124.18335790215292
-0.3177,-125.18780292505707
-0.3187000000000001,-126.19224794796128
-0.3197,-127.09766317987489
-0.3207000000000001,-127.97478418579122
-0.3217,-128.66799272272507
-0.3227000000000001,-129.27631858166706
-0.3237,-129.8563502146117
-0.3247000000000001,-130.28076360457123
-0.3257,-130.67688276853346
-0.3267000000000001,-131.03056059349967
-0.3277,-131.28520862747538
-0.3287000000000001,-131.63888645244168
-0.3297,-131.99256427740792
-0.3307000000000001,-132.37453632837148
-0.3317,-132.7706554923337
-0.3327000000000001,-133.1667746562959
-0.3337,-133.52045248126214
-0.3347000000000001,-133.94486587122168
-0.3357,-134.29854369618792
-0.3367000000000001,-134.73710419914607
-0.3377,-135.1332233631083
-0.3387000000000001,-135.47275407507593
-0.3397,-135.86887323903812
-0.3407000000000001,-136.34987508099226
-0.3417,-136.8733182619423
-0.3427000000000001,-137.52408545988024
-0.3437,-138.3163237878046
-0.3447000000000001,-139.27832747171286
-0.3457,-140.2686253816184
-0.3467000000000001,-141.41454153450906
-0.3477,-142.6028990263957
-0.3487000000000001,-143.73466806628772
-0.3497,-144.72496597619326
-0.3507000000000001,-145.7152638860988
-0.3517,-146.7055617960043
-0.3527000000000001,-147.6958597059098
-0.3537,-148.40321535584232
-0.3547000000000001,-149.25204213576137
-0.3557,-149.95939778569388
-0.35670000000000013,-150.66675343562642
-0.3577,-151.5155802155454
-0.35870000000000013,-152.36440699546444
-0.3597,-153.07176264539694
-0.36070000000000013,-153.77911829532948
-0.3617,-154.486473945262
-0.3626999999999999,-155.05235846520802
-0.3637,-155.61824298515404
-0.3646999999999999,-156.18412750510007
-0.3657,-156.60854089505958
-0.3666999999999999,-157.03295428501906
-0.3677,-157.45736767497857
-0.3686999999999999,-157.88178106493808
-0.36970000000000003,-158.4476655848841
-0.3706999999999999,-159.01355010483013
-0.37170000000000003,-159.57943462477613
-0.3726999999999999,-160.14531914472215
-0.37370000000000003,-160.5697325346817
-0.3746999999999999,-161.1356170546277
-0.37570000000000003,-161.5600304445872
-0.3766999999999999,-161.9844438345467
-0.37770000000000004,-162.40885722450622
-0.3786999999999999,-162.97474174445222
-0.37970000000000004,-163.39915513441173
-0.3806999999999999,-163.96503965435775
-0.38170000000000004,-164.67239530429026
-0.38269999999999993,-165.2382798242363
-0.38370000000000004,-166.0871066041553
-0.38469999999999993,-166.79446225408785
-0.38570000000000004,-167.6432890340068
-0.38669999999999993,-168.35064468393938
-0.38770000000000004,-169.19947146385837
-0.38869999999999993,-170.0482982437774
-0.38970000000000005,-170.89712502369645
-0.39069999999999994,-171.88742293360195
-0.39170000000000005,-172.87772084350746
-0.39269999999999994,-173.72654762342648
-0.39370000000000005,-174.57537440334553
-0.39469999999999994,-175.28273005327804
-0.39570000000000005,-175.84861457322407
-0.39669999999999994,-176.4144990931701
-0.39770000000000005,-176.98038361311612
-0.39869999999999994,-177.54626813306209
-0.39970000000000006,-177.9706815230216
-0.40069999999999995,-178.3950949129811
-0.40170000000000006,-178.81950830294062
-0.40269999999999995,-179.24392169290016
-0.40370000000000006,-179.80980621284618
-0.40469999999999995,-180.23421960280567
-0.40570000000000006,-180.65863299276518
-0.40669999999999995,-181.2245175127112
-0.40770000000000006,-181.64893090267074
-0.40869999999999995,-181.93187316264374
-0.40970000000000006,-182.21481542261674
-0.41069999999999995,-182.49775768258974
-0.41170000000000007,-182.78069994256273
-0.41269999999999996,-183.06364220253573
-0.41370000000000007,-183.48805559249527
-0.41469999999999996,-183.91246898245475
-0.41570000000000007,-184.33688237241427
-0.41669999999999996,-184.6198246323873
-0.41770000000000007,-185.0442380223468
-0.41869999999999996,-185.3271802823198
-0.4197000000000001,-185.7515936722793
-0.42069999999999996,-185.89306480226583
-0.4217000000000001,-186.17600706223882
-0.42269999999999996,-186.31747819222534
-0.4237000000000001,-186.45894932221185
-0.42469999999999997,-186.60042045219836
-0.4257000000000001,-186.88336271217133
-0.42669999999999997,-187.16630497214436
-0.4277000000000001,-187.44924723211736
-0.42869999999999997,-187.73218949209036
-0.4297000000000001,-188.01513175206335
-0.43069999999999997,-188.4395451420229
-0.4317000000000001,-188.58101627200938
-0.4327,-188.8639585319824
-0.4337000000000001,-189.1469007919554
-0.4347,-189.2883719219419
-0.4357000000000001,-189.42984305192843
-0.4367,-189.71278531190143
-0.4377000000000001,-189.8542564418879
-0.4387,-190.13719870186094
-0.4397000000000001,-190.27866983184742
-0.4407,-190.42014096183394
-0.4417000000000001,-190.56161209182042
-0.4427,-190.56161209182042
-0.4437000000000001,-190.70308322180696
-0.4447,-190.70308322180696
-0.4457000000000001,-190.70308322180696
-0.4467,-190.56161209182042
-0.4477000000000001,-190.42014096183394
-0.4487,-190.27866983184742
-0.4497000000000001,-189.99572757187443
-0.4507,-189.8542564418879
-0.4517000000000001,-189.71278531190143
-0.4527,-189.71278531190143
-0.4537000000000001,-189.57131418191491
-0.4547,-189.42984305192843
-0.4557000000000001,-189.42984305192843
-0.4567,-189.2883719219419
-0.4577000000000001,-189.2883719219419
-0.4587,-189.1469007919554
-0.4597000000000001,-189.1469007919554
-0.4607,-189.0054296619689
-0.4617000000000001,-188.8639585319824
-0.4627,-188.58101627200938
-0.4637000000000001,-188.4395451420229
-0.4647,-188.15660288204987
-0.4657000000000001,-187.87366062207687
-0.4667,-187.59071836210387
-0.4677000000000001,-187.30777610213087
-0.4687,-187.02483384215788
-0.4697000000000001,-186.74189158218485
-0.4707,-186.31747819222534
-0.4717000000000001,-186.03453593225234
-0.4727,-185.46865141230631
-0.4737000000000001,-185.0442380223468
-0.4747,-184.7612957623738
-0.4757000000000001,-184.47835350240078
-0.4767,-184.19541124242778
-0.4777000000000001,-184.05394011244127
-0.4787,-183.91246898245475
-0.4797000000000001,-183.91246898245475
-0.4807,-183.91246898245475
-0.48170000000000013,-183.91246898245475
-0.4827,-183.91246898245475
-0.48370000000000013,-183.91246898245475
-0.4847,-183.77099785246824
-0.48570000000000013,-183.48805559249527
-0.4867,-182.21481542261674
-0.48570000000000013,-179.24392169290016
-0.4847,-176.4144990931701
-0.48370000000000013,-173.86801875341303
-0.4827,-171.46300954364247
-0.48170000000000013,-169.19947146385837
-0.4807,-167.07740451406085
-0.4797000000000001,-165.09680869424977
-0.4787,-163.25768400442522
-0.4777000000000001,-161.41855931460069
-0.4767,-159.57943462477613
-0.4757000000000001,-157.7403099349516
-0.4747,-155.90118524512707
-0.4737000000000001,-153.920589425316
-0.4727,-151.93999360550492
-0.4717000000000001,-150.1008689156804
-0.4707,-148.26174422585584
-0.4697000000000001,-146.4226195360313
-0.4687,-144.86643710617977
-0.4677000000000001,-143.3102546763282
-0.4667,-141.75407224647665
-0.4657000000000001,-140.18374270362645
-0.4647,-138.57097182178035
