Potential V vs RHE, Current mA cm-2
0.013299999999999867,5.7111895175551535
0.012299999999999978,4.6218618166590755
0.011299999999999866,3.661272844050715
0.010299999999999976,2.745954633038036
0.009299999999999864,1.8730777610213083
0.008299999999999974,1.0881959318561862
0.007299999999999862,0.43403342679859325
0.006299999999999972,-0.1766974413531431
0.00529999999999986,-0.7437137303390498
0.0042999999999999705,-1.3107300193249565
0.0032999999999998586,-1.8773218949209036
0.0022999999999999687,-2.4007650758709675
0.0012999999999998568,-2.924208256821031
0.00029999999999996696,-3.361354048479327
-0.000700000000000145,-3.7532290785419424
-0.0017000000000000348,-4.1889601589003735
-0.0027000000000001467,-4.538393849967037
-0.0037000000000000366,-4.9302688800296535
-0.0047000000000001485,-5.323558621392133
-0.005700000000000038,-5.715433651454749
-0.00670000000000015,-6.064867342521412
-0.00770000000000004,-6.37044498329226
-0.008700000000000152,-6.719878674358924
-0.009700000000000042,-7.067897654125724
-0.010700000000000154,-7.461187395488204
-0.011700000000000044,-7.7653503249591855
-0.012700000000000156,-8.070927965730034
-0.013700000000000045,-8.332649556205066
-0.014700000000000157,-8.508073757388331
-0.015700000000000047,-8.725939297567548
-0.01670000000000016,-8.987660888042578
-0.01770000000000005,-9.24938247851761
-0.01870000000000016,-9.467248018696827
-0.01970000000000005,-9.685113558876042
-0.020700000000000163,-9.902979099055257
-0.021700000000000053,-10.164700689530287
-0.022700000000000164,-10.470278330301136
-0.023700000000000054,-10.731999920776168
-0.024700000000000166,-11.037577561547016
-0.025700000000000056,-11.255443101726232
-0.026700000000000168,-11.42945259160963
-0.027700000000000058,-11.604876792792895
-0.02870000000000017,-11.778886282676295
-0.02970000000000006,-11.952895772559694
-0.03070000000000017,-12.170761312738911
-0.03170000000000006,-12.346185513922174
-0.03270000000000017,-12.476338953509758
-0.03370000000000006,-12.607907104397206
-0.034700000000000175,-12.73806054398479
-0.035700000000000065,-12.913484745168056
-0.03670000000000018,-13.175206335643086
-0.03770000000000007,-13.436927926118118
-0.03870000000000018,-13.654793466297335
-0.03970000000000007,-13.828802956180734
-0.04070000000000018,-14.002812446064135
-0.04170000000000007,-14.13438059695158
-0.04270000000000018,-14.30273124163552
-0.04370000000000007,-14.486643710617974
-0.044700000000000184,-14.61396772760583
-0.045700000000000074,-14.783733083589633
-0.046700000000000186,-14.826174422585586
-0.047700000000000076,-14.868615761581536
-0.04870000000000019,-14.967645552572087
-0.04970000000000008,-15.094969569559943
-0.05070000000000019,-15.264734925543747
-0.05170000000000008,-15.448647394526201
-0.05270000000000019,-15.618412750510005
-0.05370000000000008,-15.830619445489761
-0.05470000000000019,-15.972090575476265
-0.05570000000000008,-16.184297270456018
-0.056700000000000195,-16.396503965435777
-0.057700000000000085,-16.622857773414182
-0.058700000000000196,-16.792623129397985
-0.059700000000000086,-16.962388485381787
-0.0607000000000002,-17.061418276372343
-0.06170000000000009,-17.146300954364243
-0.0627000000000002,-17.188742293360193
-0.06370000000000009,-17.316066310348052
-0.0647000000000002,-17.40094898833995
-0.06570000000000009,-17.48583166633185
-0.0667000000000002,-17.627302796318357
-0.0677000000000001,-17.75462681330621
-0.0687000000000002,-17.881950830294063
-0.0697000000000001,-18.10830463827247
-0.07070000000000021,-18.27806999425627
-0.0717000000000001,-18.49027668923603
-0.07270000000000021,-18.631747819222536
-0.0737000000000001,-18.759071836210385
-0.07470000000000021,-18.80151317520634
-0.0757000000000001,-18.88639585319824
-0.07670000000000021,-19.01371987018609
-0.0777000000000001,-19.197632339168546
-0.07870000000000021,-19.3249563561564
-0.0797000000000001,-19.49472171214021
-0.08070000000000022,-19.636192842126707
-0.0817000000000001,-19.805958198110513
-0.08270000000000022,-19.97572355409432
-0.08370000000000011,-20.202077362072725
-0.08470000000000022,-20.456725396048434
-0.08570000000000011,-20.626490752032236
-0.08670000000000022,-20.76796188201874
-0.08770000000000011,-20.810403221014692
-0.08870000000000022,-20.85284456001064
-0.08970000000000011,-20.980168576998494
-0.09070000000000022,-21.149933932982297
-0.09170000000000011,-21.291405062968803
-0.09270000000000023,-21.461170418952605
-0.09370000000000012,-21.58849443594046
-0.09470000000000023,-21.772406904922917
-0.09570000000000012,-21.98461359990267
-0.09670000000000023,-22.196820294882425
-0.09770000000000012,-22.46561544185678
-0.09870000000000023,-22.72026347583249
-0.09970000000000012,-22.946617283810895
-0.10070000000000023,-23.073941300798747
-0.10170000000000012,-23.15882397879065
-0.10270000000000024,-23.24370665678255
-0.10370000000000013,-23.385177786769056
-0.10470000000000024,-23.51250180375691
-0.10570000000000013,-23.682267159740714
-0.10670000000000024,-23.823738289727217
-0.10770000000000013,-23.993503645711023
-0.10870000000000024,-24.24815167968673
-0.10970000000000013,-24.516946826661083
-0.11070000000000024,-24.870624651627345
-0.11170000000000013,-25.167714024599
-0.11270000000000002,-25.43650917157336
-0.11370000000000013,-25.648715866553115
-0.11470000000000002,-25.81848122253692
-0.11570000000000014,-25.959952352523427
-0.11670000000000003,-26.087276369511276
-0.11770000000000014,-26.17215904750318
-0.11870000000000003,-26.29948306449103
-0.11970000000000014,-26.440954194477534
-0.12070000000000003,-26.525836872469437
-0.12170000000000014,-26.65316088945729
-0.12270000000000003,-26.822926245441096
-0.12370000000000014,-27.091721392415455
-0.12470000000000003,-27.38881076538711
-0.12570000000000014,-27.700047251357418
-0.12670000000000003,-27.954695285333123
-0.12770000000000015,-28.18104909331153
-0.12870000000000004,-28.393255788291288
-0.12970000000000015,-28.662050935265643
-0.13070000000000004,-28.8742576302454
-0.13170000000000015,-29.058170099227848
-0.13270000000000004,-29.18549411621571
-0.13370000000000015,-29.31281813320356
-0.13470000000000004,-29.482583489187363
-0.13570000000000015,-29.66649595816982
-0.13670000000000004,-29.921143992145527
-0.13770000000000016,-30.189939139119886
-0.13870000000000005,-30.359704495103685
-0.13970000000000016,-30.571911190083444
-0.14070000000000005,-30.71338232006995
-0.14170000000000016,-30.925589015049702
-0.14270000000000005,-31.137795710029454
-0.14370000000000016,-31.40659085700382
-0.14470000000000005,-31.717827342974125
-0.14570000000000016,-31.972475376949827
-0.14670000000000005,-32.24127052392419
-0.14770000000000016,-32.45347721890394
-0.14870000000000005,-32.66568391388369
-0.14970000000000017,-32.93447906085806
-0.15070000000000006,-33.18912709483376
-0.15170000000000017,-33.41548090281216
-0.15270000000000006,-33.58524625879597
-0.15370000000000017,-33.712570275783825
-0.15470000000000006,-33.89648274476628
-0.15570000000000017,-34.10868943974604
-0.15670000000000006,-34.278454795729836
-0.15770000000000017,-34.50480860370825
-0.15870000000000006,-34.67457395969205
-0.15970000000000018,-34.94336910666641
-0.16070000000000007,-35.198017140642115
-0.16170000000000018,-35.46681228761647
-0.16270000000000007,-35.763901660588125
-0.16370000000000018,-36.11757948555439
-0.16470000000000007,-36.55613998851254
-0.16570000000000018,-36.95225915247476
-0.16670000000000007,-37.206907186450465
-0.16770000000000018,-37.291789864442364
-0.16870000000000007,-37.291789864442364
-0.16970000000000018,-37.291789864442364
-0.17070000000000007,-37.376672542434264
-0.17170000000000019,-37.51814367242077
-0.17270000000000008,-37.60302635041268
-0.1737000000000002,-37.77279170639648
-0.17470000000000008,-37.99914551437489
-0.1757000000000002,-38.29623488734655
-0.17670000000000008,-38.734795390304704
-0.1777000000000002,-39.173355893262865
-0.17870000000000008,-39.61191639622103
-0.1797000000000002,-39.95144710818864
-0.18070000000000008,-40.30512493315489
-0.1817000000000002,-40.616361419125205
-0.18270000000000008,-40.87100945310091
-0.1837000000000002,-41.04077480908471
-0.1847000000000001,-41.139804600075266
-0.1857000000000002,-41.22468727806717
-0.1867000000000001,-41.30956995605907
-0.1877000000000002,-41.39445263405098
-0.1887000000000001,-41.52177665103883
-0.1897000000000002,-41.79057179801318
-0.1907000000000001,-42.087661170984845
-0.1917000000000001,-42.39889765695515
-0.19269999999999998,-42.752575481921404
-0.1937000000000001,-43.17698887188092
-0.19469999999999998,-43.57310803584313
-0.1957000000000001,-43.88434452181344
-0.19669999999999999,-44.138992555789144
-0.1977000000000001,-44.28046368577565
-0.1987,-44.45022904175945
-0.1997000000000001,-44.66243573673921
-0.2007,-44.93123088371356
-0.2017000000000001,-45.18587891768927
-0.2027,-45.412232725667685
-0.2037000000000001,-45.70932209863933
-0.2047,-46.10544126260155
-0.2057000000000001,-46.501560426563756
-0.2067,-46.79864979953541
-0.2077000000000001,-47.02500360751382
-0.2087,-47.23721030249357
-0.2097000000000001,-47.54844678846388
-0.2107,-47.93041883942744
-0.2117000000000001,-48.24165532539775
-0.2127,-48.51045047237211
-0.2137000000000001,-48.76509850634781
-0.2147,-49.03389365332217
-0.2157000000000001,-49.41586570428573
-0.2167,-49.72710219025603
-0.21770000000000012,-50.0807800152223
-0.2187,-50.37786938819396
-0.21970000000000012,-50.77398855215617
-0.2207,-51.127666377122424
-0.22170000000000012,-51.509638428085985
-0.2227,-51.90575759204819
-0.22370000000000012,-52.30187675601041
-0.2247,-52.74043725896857
-0.22570000000000012,-53.03752663194023
-0.2267,-53.26388043991864
-0.22770000000000012,-53.433645795902436
-0.22870000000000001,-53.74488228187274
-0.22970000000000013,-54.1268543328363
-0.23070000000000002,-54.56541483579447
-0.23170000000000013,-54.876651321764776
-0.23270000000000002,-55.17374069473642
-0.23370000000000013,-55.56985985869864
-0.23470000000000002,-56.05086170065276
-0.23570000000000013,-56.57430488160282
-0.23670000000000002,-56.97042404556503
-0.2376999999999999,-57.30995475753264
-0.23870000000000002,-57.62119124350295
-0.2396999999999999,-58.05975174646111
-0.24070000000000003,-58.498312249419264
-0.24169999999999991,-58.880284300382826
-0.24270000000000003,-59.10663810836124
-0.24369999999999992,-59.27640346434504
-0.24470000000000003,-59.587639950315335
-0.24569999999999992,-59.92717066228296
-0.24670000000000003,-60.23840714825326
-0.24769999999999992,-60.49305518222897
-0.24870000000000003,-60.80429166819927
-0.24969999999999992,-61.28529351015339
-0.25070000000000003,-61.7662953521075
-0.2516999999999999,-62.24729719406162
-0.25270000000000004,-62.58682790602922
-0.2536999999999999,-62.98294706999144
-0.25470000000000004,-63.54883158993744
-0.2556999999999999,-64.15715744887942
-0.25670000000000004,-64.63815929083353
-0.25769999999999993,-65.03427845479574
-0.25870000000000004,-65.34551494076604
-0.25969999999999993,-65.7274869917296
-0.26070000000000004,-66.12360615569182
-0.26169999999999993,-66.56216665864997
-0.26270000000000004,-66.9582858226122
-0.26369999999999993,-67.39684632557035
-0.26470000000000005,-67.96273084551636
-0.26569999999999994,-68.57105670445833
-0.26670000000000005,-69.0096172074165
-0.26769999999999994,-69.30670658038814
-0.26870000000000005,-69.57550172736251
-0.26969999999999994,-70.01406223032066
-0.27070000000000005,-70.48091695927613
-0.27169999999999994,-70.96191880123024
-0.27270000000000005,-71.4004793041884
-0.27369999999999994,-71.75415712915466
-0.27470000000000006,-72.23515897110877
-0.27569999999999995,-72.8859261690467
-0.27670000000000006,-73.53669336698461
-0.27769999999999995,-74.06013654793468
-0.27870000000000006,-74.41381437290093
-0.27969999999999995,-74.76749219786718
-0.28070000000000006,-75.14946424883075
-0.28169999999999995,-75.5880247517889
-0.28270000000000006,-76.02658525474708
-0.28369999999999995,-76.38026307971333
-0.28470000000000006,-76.81882358267148
-0.28569999999999995,-77.34226676362155
-0.28670000000000007,-77.95059262256353
-0.28769999999999996,-78.55891848150549
-0.28870000000000007,-79.16724434044745
-0.28969999999999996,-79.73312886039348
-0.29070000000000007,-80.42633739732734
-0.29169999999999996,-81.04881036926795
-0.29270000000000007,-81.51566509822342
-0.29369999999999996,-81.86934292318966
-0.2947000000000001,-82.13813807016405
-0.29569999999999996,-82.43522744313569
-0.2967000000000001,-82.8313466070979
-0.29769999999999996,-83.22746577106011
-0.2987000000000001,-83.48211380503581
-0.29969999999999997,-83.75090895201016
-0.3007000000000001,-84.04799832498183
-0.30169999999999997,-84.57144150593189
-0.3027000000000001,-85.17976736487385
-0.30369999999999997,-85.80224033681448
-0.3047000000000001,-86.36812485676049
-0.30569999999999997,-86.93400937670651
-0.3067000000000001,-87.45745255765657
-0.3077,-87.98089573860662
-0.3087000000000001,-88.54678025855264
-0.3097,-89.11266477849867
-0.3107000000000001,-89.59366662045278
-0.3117,-89.98978578441499
-0.3127000000000001,-90.37175783537855
-0.3137,-90.85275967733266
-0.3147000000000001,-91.33376151928677
-0.3157,-91.85720470023682
-0.3167000000000001,-92.33820654219093
-0.3177,-92.7767670451491
-0.3187000000000001,-93.25776888710321
-0.3197,-93.73877072905732
-0.3207000000000001,-94.26221391000739
-0.3217,-94.7432157519615
-0.3227000000000001,-95.18177625491967
-0.3237,-95.60618964487918
-0.3247000000000001,-96.04475014783733
-0.3257,-96.52575198979144
-0.3267000000000001,-96.92187115375367
-0.3277,-97.26140186572127
-0.3287000000000001,-97.61507969068752
-0.3297,-98.01119885464975
-0.3307000000000001,-98.4497593576079
-0.3317,-98.97320253855796
-0.3327000000000001,-99.49664571950804
-0.3337,-99.97764756146215
-0.3347000000000001,-100.45864940341626
-0.3357,-100.92550413237171
-0.3367000000000001,-101.50553576531638
-0.3377,-102.07142028526239
-0.3387000000000001,-102.59486346621246
-0.3397,-103.01927685617197
-0.3407000000000001,-103.33051334214227
-0.3417,-103.41539602013418
-0.3427000000000001,-103.24563066415038
-0.3437,-102.89195283918411
-0.3447000000000001,-102.59486346621246
-0.3457,-102.5524221272165
-0.3467000000000001,-102.76462882219626
-0.3477,-103.07586530816658
-0.3487000000000001,-103.41539602013418
-0.3497,-103.85395652309235
-0.3507000000000001,-104.3773997040424
-0.3517,-105.02816690198033
-0.3527000000000001,-105.63649276092228
-0.3537,-106.2589657328629
-0.3547000000000001,-106.59849644483052
-0.3557,-106.82485025280893
-0.35670000000000013,-106.78240891381296
-0.3577,-106.4287310888467
-0.35870000000000013,-105.90528790789664
-0.3597,-105.46672740493848
-0.36070000000000013,-105.07060824097626
-0.3617,-104.81596020700057
-0.3626999999999999,-104.68863619001272
-0.3637,-104.58960639902216
-0.3646999999999999,-104.64619485101677
-0.3657,-104.73107752900866
-0.3666999999999999,-104.90084288499246
-0.3677,-105.16963803196683
-0.3686999999999999,-105.50916874393444
-0.36970000000000003,-105.86284656890071
-0.3706999999999999,-105.99017058588855
-0.37170000000000003,-105.7779638909088
-0.3726999999999999,-105.21207937096277
-0.37370000000000003,-104.5471650600262
-0.3746999999999999,-103.89639786208829
-0.37570000000000003,-103.24563066415038
-0.3766999999999999,-102.67974614420436
-0.37770000000000004,-102.11386162425833
-0.3786999999999999,-101.63285978230424
-0.37970000000000004,-101.32162329633393
-0.3806999999999999,-101.15185794035013
-0.38170000000000004,-100.98209258436633
-0.38269999999999993,-100.58597342040412
-0.38370000000000004,-99.97764756146215
-0.38469999999999993,-99.35517458952152
-0.38570000000000004,-98.7892900695755
-0.38669999999999993,-98.3082882276214
-0.38770000000000004,-97.88387483766188
-0.38869999999999993,-97.53019701269562
-0.38970000000000005,-97.36043165671182
-0.39069999999999994,-97.26140186572127
-0.39170000000000005,-97.13407784873341
-0.39269999999999994,-96.79454713676581
-0.39370000000000005,-96.17207416482519
-0.39469999999999994,-95.60618964487918
-0.39570000000000005,-95.26665893291157
-0.39669999999999994,-95.04030512493317
-0.39770000000000005,-94.8280984299534
-0.39869999999999994,-94.55930328297906
-0.39970000000000006,-94.21977257101145
-0.40069999999999995,-93.86609474604518
-0.40170000000000006,-93.38509290409107
-0.40269999999999995,-92.7767670451491
-0.40370000000000006,-92.2108825252031
-0.40469999999999995,-91.89964603923279
-0.40570000000000006,-91.77232202224494
-0.40669999999999995,-91.72988068324898
-0.40770000000000006,-91.77232202224494
-0.40869999999999995,-91.98452871722468
-0.40970000000000006,-92.3806478811869
-0.41069999999999995,-92.73432570615316
-0.41170000000000007,-92.7767670451491
-0.41269999999999996,-92.29576520319499
-0.41370000000000007,-91.68743934425302
-0.41469999999999996,-91.29132018029082
-0.41570000000000007,-91.16399616330297
-0.41669999999999996,-90.93764235532454
-0.41770000000000007,-90.59811164335694
-0.41869999999999996,-90.24443381839069
-0.4197000000000001,-90.15955114039879
-0.42069999999999996,-90.24443381839069
-0.4217000000000001,-90.20199247939475
-0.42269999999999996,-89.80587331543254
-0.4237000000000001,-89.46634260346492
-0.42469999999999997,-89.36731281247435
-0.4257000000000001,-89.55122528145681
-0.42669999999999997,-89.67854929844468
-0.4277000000000001,-89.50878394246087
-0.42869999999999997,-89.11266477849867
-0.4297000000000001,-88.7589869535324
-0.43069999999999997,-88.63166293654454
-0.4317000000000001,-88.63166293654454
-0.4327,-88.5043389195567
-0.4337000000000001,-88.23554377258235
-0.4347,-88.02333707760259
-0.4357000000000001,-87.89601306061473
-0.4367,-87.85357172161878
-0.4377000000000001,-87.93845439961068
-0.4387,-88.15066109459043
-0.4397000000000001,-88.5892215975486
-0.4407,-89.11266477849867
-0.4417000000000001,-89.46634260346492
-0.4427,-89.55122528145681
-0.4437000000000001,-89.46634260346492
-0.4447,-89.36731281247435
-0.4457000000000001,-89.32487147347842
-0.4467,-89.36731281247435
-0.4477000000000001,-89.36731281247435
-0.4487,-89.46634260346492
-0.4497000000000001,-89.72099063744062
-0.4507,-90.07466846240689
-0.4517000000000001,-90.47078762636909
-0.4527,-90.89520101632861
-0.4537000000000001,-91.37620285828272
-0.4547,-92.12599984721119
-0.4557000000000001,-92.90409106213696
-0.4567,-93.38509290409107
-0.4577000000000001,-93.34265156509512
-0.4587,-93.25776888710321
-0.4597000000000001,-93.30021022609918
-0.4607,-93.38509290409107
-0.4617000000000001,-93.42753424308701
-0.4627,-93.34265156509512
-0.4637000000000001,-92.94653240113291
-0.4647,-92.7767670451491
-0.4657000000000001,-93.08800353111941
-0.4667,-93.99341876303303
-0.4677000000000001,-95.30910027190752
-0.4687,-96.5681933287874
-0.4697000000000001,-97.6575210296835
-0.4707,-98.57708337459576
-0.4717000000000001,-99.31273325052557
-0.4727,-99.75129375348374
-0.4737000000000001,-99.83617643147564
-0.4747,-99.7937350924797
-0.4757000000000001,-99.66641107549184
-0.4767,-99.45420438051207
-0.4777000000000001,-99.22785057253368
-0.4787,-99.01564387755391
-0.4797000000000001,-99.10052655554581
-0.4807,-99.31273325052557
-0.48170000000000013,-99.62396973649588
-0.4827,-100.14741291744595
-0.48370000000000013,-101.10941660135417
-0.4847,-102.36850965823406
-0.48570000000000013,-103.89639786208829
-0.4867,-104.3773997040424
-0.48570000000000013,-103.11830664716253
-0.4847,-101.6753011213002
-0.48370000000000013,-100.14741291744595
-0.4827,-98.4497593576079
-0.48170000000000013,-96.3984279728036
-0.4807,-94.17733123201549
-0.4797000000000001,-92.08355850821525
-0.4787,-90.85275967733266
-0.4777000000000001,-90.11710980140283
-0.4767,-89.42390126446898
-0.4757000000000001,-88.63166293654454
-0.4747,-87.71210059163228
-0.4737000000000001,-86.5378902127443
-0.4727,-85.17976736487385
-0.4717000000000001,-84.31679347195619
-0.4707,-84.13288100297372
-0.4697000000000001,-84.57144150593189
-0.4687,-84.8826779919022
-0.4677000000000001,-84.27435213296022
-0.4667,-82.95867062408576
-0.4657000000000001,-81.26101706424771
-0.4647,-79.64824618240156
-0.4637000000000001,-78.20524065653922
-0.4627,-76.86126492166746
