Potential V vs RHE, Current mA cm-2
0.05339999999999995,-0.04675620846053946
0.05239999999999995,-0.048086037082412596
0.051399999999999946,-0.048736804280350515
0.050399999999999945,-0.04924610034830192
0.049399999999999944,-0.04975539641625334
0.04839999999999994,-0.0502222511452088
0.04739999999999994,-0.05070325298716292
0.04639999999999994,-0.05115596060311973
0.04539999999999994,-0.051651109558072485
0.04439999999999994,-0.052132111400026604
0.04339999999999994,-0.05259896612898206
0.04239999999999994,-0.05305167374493888
0.04139999999999994,-0.053504381360895685
0.040399999999999936,-0.05398538320284981
0.039399999999999935,-0.05448053215780257
0.038399999999999934,-0.05494738688675803
0.03739999999999993,-0.05540009450271484
0.03639999999999993,-0.05586694923167029
0.03539999999999993,-0.05633380396062577
0.03439999999999993,-0.056800658689581215
0.03339999999999993,-0.057281660531535335
0.03239999999999993,-0.057720221034493494
0.03139999999999993,-0.05820122287644761
0.030399999999999927,-0.058653930492404416
0.029399999999999926,-0.059106638108361226
0.028399999999999925,-0.059573492837316694
0.027399999999999924,-0.0599979062272762
0.026399999999999924,-0.06049305518222897
0.025399999999999923,-0.060974057024183084
0.024399999999999922,-0.061440911753138545
0.02339999999999992,-0.06192191359509265
0.02239999999999992,-0.06240291543704677
0.02139999999999992,-0.06288391727900088
0.020399999999999918,-0.06336491912095499
0.019399999999999917,-0.06384592096290911
0.018399999999999916,-0.06435521703086051
0.017399999999999916,-0.06483621887281464
0.016399999999999915,-0.0653030736017701
0.015399999999999914,-0.06579822255672285
0.014399999999999913,-0.06626507728567832
0.013399999999999912,-0.06677437335362973
0.012399999999999911,-0.06725537519558383
0.01139999999999991,-0.06773637703753796
0.01039999999999991,-0.06821737887949207
0.009399999999999908,-0.06868423360844754
0.008399999999999908,-0.06916523545040164
0.007399999999999907,-0.0696603844053544
0.006399999999999906,-0.07014138624730852
0.005399999999999905,-0.07062238808926263
0.004399999999999904,-0.07114583127021269
0.003399999999999903,-0.07161268599916816
0.002399999999999902,-0.07209368784112226
0.0013999999999999013,-0.07260298390907369
0.00039999999999990044,-0.0730556915250305
-0.0006000000000001005,-0.07352254625398597
-0.0016000000000001013,-0.07401769520893872
-0.0026000000000001022,-0.07448454993789419
-0.003600000000000103,-0.07496555177984829
-0.004600000000000104,-0.07543240650880376
-0.005600000000000105,-0.07592755546375651
-0.006600000000000106,-0.07640855730571063
-0.007600000000000107,-0.07686126492166745
-0.008600000000000108,-0.0773564138766202
-0.009600000000000108,-0.07782326860557567
-0.01060000000000011,-0.07830427044752979
-0.01160000000000011,-0.07877112517648524
-0.012600000000000111,-0.07928042124443666
-0.013600000000000112,-0.07973312886039347
-0.014600000000000113,-0.08017168936335163
-0.015600000000000114,-0.08062439697930844
-0.016600000000000115,-0.0811195459342612
-0.017600000000000116,-0.08157225355021802
-0.018600000000000116,-0.08203910827917348
-0.019600000000000117,-0.08252011012112759
-0.020600000000000118,-0.0829445235110871
-0.02160000000000012,-0.08338308401404526
-0.02260000000000012,-0.08379335029100612
-0.02360000000000012,-0.08421776368096563
-0.024600000000000122,-0.08465632418392378
-0.025600000000000123,-0.08509488468688196
-0.026600000000000124,-0.08553344518984012
-0.027600000000000124,-0.08598615280579694
-0.028600000000000125,-0.08641056619575643
-0.029600000000000126,-0.08683497958571595
-0.030600000000000127,-0.08724524586267682
-0.03160000000000013,-0.08764136502663902
-0.03260000000000013,-0.08805163130359987
-0.03360000000000013,-0.08844775046756209
-0.03460000000000002,-0.08884386963152431
-0.03560000000000002,-0.08925413590848516
-0.03660000000000002,-0.08967854929844467
-0.03760000000000002,-0.09008881557540553
-0.03860000000000002,-0.09048493473936775
-0.039600000000000024,-0.09088105390332996
-0.040600000000000025,-0.09127717306729217
-0.041600000000000026,-0.09163085089225843
-0.04260000000000003,-0.092012822943222
-0.04360000000000003,-0.09242308922018284
-0.04460000000000003,-0.09276261993215046
-0.04560000000000003,-0.09313044487011536
-0.04660000000000003,-0.09349826980808028
-0.04760000000000003,-0.09383780052004788
-0.04860000000000003,-0.09419147834501414
-0.04960000000000003,-0.09451686194398311
-0.050600000000000034,-0.09487053976894937
-0.051600000000000035,-0.09521007048091697
-0.052600000000000036,-0.09553545407988592
-0.053600000000000037,-0.09587498479185352
-0.05460000000000004,-0.09617207416482519
-0.05560000000000004,-0.0964833106507955
-0.05660000000000004,-0.09680869424976446
-0.05760000000000004,-0.09710578362273611
-0.05860000000000004,-0.09740287299570777
-0.05960000000000004,-0.09765752102968349
-0.06060000000000004,-0.09795461040265514
-0.061600000000000044,-0.0982234055496295
-0.06260000000000004,-0.09850634780960252
-0.06360000000000005,-0.09877514295657686
-0.06460000000000005,-0.09902979099055256
-0.06560000000000005,-0.09927029191152963
-0.06660000000000005,-0.09951079283250668
-0.06760000000000005,-0.0997654408664824
-0.06860000000000005,-0.0999917946744608
-0.06960000000000005,-0.10023229559543784
-0.07060000000000005,-0.10045864940341626
-0.07160000000000005,-0.10065670898539736
-0.07260000000000005,-0.10086891568037712
-0.07360000000000005,-0.10108112237535687
-0.07460000000000006,-0.10126503484433932
-0.07560000000000006,-0.10146309442632043
-0.07660000000000006,-0.10166115400830154
-0.07760000000000006,-0.10183091936428534
-0.07860000000000006,-0.1020148318332678
-0.07960000000000006,-0.1021563029632543
-0.08060000000000006,-0.1023260683192381
-0.08160000000000006,-0.10246753944922461
-0.08260000000000006,-0.10260901057921111
-0.08360000000000006,-0.10276462882219627
-0.08460000000000006,-0.10286365861318682
-0.08560000000000006,-0.10300512974317333
-0.08660000000000007,-0.10314660087315983
-0.08760000000000007,-0.10323148355115172
-0.08860000000000007,-0.10335880756813957
-0.08960000000000007,-0.10345783735913014
-0.09060000000000007,-0.10355686715012069
-0.09160000000000007,-0.10364174982811258
-0.09260000000000007,-0.10372663250610449
-0.09360000000000007,-0.1038115151840964
-0.09460000000000007,-0.10388225074908965
-0.09560000000000007,-0.1039529863140829
-0.09660000000000007,-0.10400957476607749
-0.09760000000000008,-0.1040661632180721
-0.09860000000000008,-0.1041227516700667
-0.09960000000000008,-0.10416519300906264
-0.10060000000000008,-0.10422178146105725
-0.10160000000000008,-0.10425007568705455
-0.10260000000000008,-0.10427836991305185
-0.10360000000000008,-0.1043208112520478
-0.10460000000000008,-0.1043491054780451
-0.10560000000000008,-0.1043491054780451
-0.10660000000000008,-0.1043491054780451
-0.10760000000000008,-0.10436325259104375
-0.10860000000000009,-0.10437739970404242
-0.10960000000000009,-0.10436325259104375
-0.11060000000000009,-0.10436325259104375
-0.11160000000000009,-0.1043491054780451
-0.11260000000000009,-0.10433495836504646
-0.11360000000000009,-0.1043208112520478
-0.11460000000000009,-0.1043208112520478
-0.11560000000000009,-0.1042925170260505
-0.11660000000000009,-0.10425007568705455
-0.1176000000000001,-0.10422178146105725
-0.1186000000000001,-0.1042076343480586
-0.1196000000000001,-0.1041227516700667
-0.1206000000000001,-0.1040944574440694
-0.1216000000000001,-0.1040378689920748
-0.1226000000000001,-0.1039812805400802
-0.1236000000000001,-0.10393883920108424
-0.1246000000000001,-0.10386810363609099
-0.1256000000000001,-0.1038115151840964
-0.1266000000000001,-0.10374077961910314
-0.1276000000000001,-0.10367004405410989
-0.1286000000000001,-0.10361345560211528
-0.1296000000000001,-0.10352857292412339
-0.1306000000000001,-0.10344369024613147
-0.1316000000000001,-0.10335880756813957
-0.1326000000000001,-0.10325977777714902
-0.1336000000000001,-0.10320318932515443
-0.1346000000000001,-0.10310415953416388
-0.1356000000000001,-0.10303342396917063
-0.1366000000000001,-0.10293439417818008
-0.1376000000000001,-0.10284951150018817
-0.1386000000000001,-0.10275048170919761
-0.1396000000000001,-0.10267974614420436
-0.1406000000000001,-0.10258071635321381
-0.14160000000000011,-0.10246753944922461
-0.14260000000000012,-0.1023826567712327
-0.14360000000000012,-0.10228362698024217
-0.14460000000000012,-0.1021845971892516
-0.14560000000000012,-0.10209971451125968
-0.14660000000000012,-0.10198653760727049
-0.14760000000000012,-0.10187336070328129
-0.14860000000000012,-0.10177433091229074
-0.14960000000000012,-0.10164700689530289
-0.15060000000000012,-0.10154797710431233
-0.15160000000000012,-0.10143480020032314
-0.15260000000000012,-0.10132162329633393
-0.15360000000000013,-0.10122259350534336
-0.15460000000000013,-0.10110941660135417
-0.15560000000000013,-0.10103868103636092
-0.15660000000000013,-0.10089720990637441
-0.15760000000000013,-0.10078403300238521
-0.15860000000000013,-0.10067085609839602
-0.15960000000000002,-0.10052938496840952
-0.16060000000000002,-0.10041620806442031
-0.16160000000000002,-0.10030303116043109
-0.16260000000000002,-0.10018985425644189
-0.16360000000000002,-0.10009082446545134
-0.16460000000000002,-0.09993520622246618
-0.16560000000000002,-0.09987861777047159
-0.16660000000000003,-0.0997654408664824
-0.16760000000000003,-0.09963811684949454
-0.16860000000000003,-0.09952493994550533
-0.16960000000000003,-0.09939761592851748
-0.17060000000000003,-0.09929858613752693
-0.17160000000000003,-0.09917126212053906
-0.17260000000000003,-0.09905808521654987
-0.17360000000000003,-0.09895905542555931
-0.17460000000000003,-0.09880343718257417
-0.17560000000000003,-0.09871855450458226
-0.17660000000000003,-0.0985912304875944
-0.17760000000000004,-0.09849220069660385
-0.17860000000000004,-0.09839317090561331
-0.17960000000000004,-0.09827999400162409
-0.18060000000000004,-0.09818096421063353
-0.18160000000000004,-0.09806778730664434
-0.18260000000000004,-0.09794046328965648
-0.18360000000000004,-0.09785558061166459
-0.18460000000000004,-0.09775655082067403
-0.18560000000000004,-0.09765752102968349
-0.18660000000000004,-0.09754434412569428
-0.18760000000000004,-0.09744531433470371
-0.18860000000000005,-0.09733213743071452
-0.18960000000000005,-0.09723310763972397
-0.19060000000000005,-0.09716237207473072
-0.19160000000000005,-0.09706334228374017
-0.19260000000000005,-0.09696431249274962
-0.19360000000000005,-0.09686528270175906
-0.19460000000000005,-0.0967662529107685
-0.19560000000000005,-0.0966813702327766
-0.19660000000000005,-0.09658234044178605
-0.19760000000000005,-0.0965116048767928
-0.19860000000000005,-0.09644086931179956
-0.19960000000000006,-0.09629939818181305
-0.20060000000000006,-0.0962286626168198
-0.20160000000000006,-0.09612963282582924
-0.20260000000000006,-0.09604475014783734
-0.20360000000000006,-0.09597401458284409
-0.20460000000000006,-0.09587498479185352
-0.20560000000000006,-0.09580424922686027
-0.20660000000000006,-0.09570521943586972
-0.20760000000000006,-0.09564863098387513
-0.20860000000000006,-0.09557789541888188
-0.20960000000000006,-0.09547886562789133
-0.21060000000000006,-0.09542227717589671
-0.21160000000000007,-0.09535154161090346
-0.21260000000000007,-0.09526665893291157
-0.21360000000000007,-0.09519592336791832
-0.21460000000000007,-0.09513933491592372
-0.21560000000000007,-0.09506859935093047
-0.21660000000000007,-0.09501201089893586
-0.21760000000000007,-0.0949695695599399
-0.21860000000000007,-0.09489883399494665
-0.21960000000000007,-0.09484224554295206
-0.22060000000000007,-0.09479980420395612
-0.22160000000000007,-0.0947432157519615
-0.22260000000000008,-0.09467248018696825
-0.22360000000000008,-0.0946300388479723
-0.22460000000000008,-0.09457345039597771
-0.22560000000000008,-0.0945451561699804
-0.22660000000000008,-0.09450271483098445
-0.22760000000000008,-0.0944602734919885
-0.22860000000000008,-0.0944036850399939
-0.22960000000000008,-0.0943753908139966
-0.23060000000000008,-0.0943470965879993
-0.23160000000000008,-0.09429050813600469
-0.23260000000000008,-0.09429050813600469
-0.23360000000000009,-0.09424806679700874
-0.2346000000000001,-0.09421977257101144
-0.2356000000000001,-0.09421977257101144
-0.2366000000000001,-0.0941773312320155
-0.2376000000000001,-0.09419147834501414
-0.2386000000000001,-0.09414903700601819
-0.2396000000000001,-0.09413488989301955
-0.2406000000000001,-0.09414903700601819
-0.2416000000000001,-0.09410659566702224
-0.2426000000000001,-0.09413488989301955
-0.2436000000000001,-0.09413488989301955
-0.2446000000000001,-0.09410659566702224
-0.2456000000000001,-0.09413488989301955
-0.2466000000000001,-0.09413488989301955
-0.2476000000000001,-0.09413488989301955
-0.2486000000000001,-0.09419147834501414
-0.2496000000000001,-0.09419147834501414
-0.2506000000000001,-0.0942056254580128
-0.2516000000000001,-0.0942056254580128
-0.2526000000000001,-0.09421977257101144
-0.2536000000000001,-0.09429050813600469
-0.2546000000000001,-0.09431880236200199
-0.2556000000000001,-0.09438953792699524
-0.2566000000000001,-0.0944036850399939
-0.2576000000000001,-0.0944602734919885
-0.2586000000000001,-0.09451686194398311
-0.2596000000000001,-0.09455930328297905
-0.2606000000000001,-0.094601744621975
-0.2616000000000001,-0.09467248018696825
-0.2626000000000001,-0.09472906863896285
-0.2636000000000001,-0.09479980420395612
-0.2646000000000001,-0.09488468688194801
-0.2656000000000001,-0.09495542244694127
-0.2666000000000001,-0.09501201089893586
-0.2676000000000001,-0.0951110406899264
-0.2686000000000001,-0.09519592336791832
-0.2696000000000001,-0.09529495315890889
-0.2706000000000001,-0.09537983583690077
-0.2716000000000001,-0.09547886562789133
-0.2726000000000001,-0.09557789541888188
-0.2736000000000001,-0.09569107232287108
-0.2746000000000001,-0.09577595500086299
-0.2756000000000001,-0.09591742613084948
-0.2766000000000001,-0.09601645592184005
-0.2776000000000001,-0.09615792705182655
-0.2786000000000001,-0.0962852510688144
-0.2796000000000001,-0.09639842797280361
-0.2806000000000001,-0.09653989910279011
-0.28160000000000013,-0.09666722311977795
-0.28260000000000013,-0.09682284136276312
-0.28360000000000013,-0.09696431249274962
-0.2846,-0.09707748939673881
-0.2856,-0.09720481341372668
-0.2866,-0.09737457876971047
-0.2876,-0.09753019701269564
-0.2886,-0.09767166814268213
-0.2896,-0.09782728638566728
-0.2906,-0.09799705174165109
-0.2916,-0.09818096421063353
-0.2926,-0.0983365824536187
-0.2936,-0.09852049492260115
-0.29460000000000003,-0.09866196605258765
-0.29560000000000003,-0.09884587852157012
-0.29660000000000003,-0.09902979099055256
-0.29760000000000003,-0.09921370345953502
-0.29860000000000003,-0.09939761592851748
-0.29960000000000003,-0.0995673812845013
-0.30060000000000003,-0.0997654408664824
-0.30160000000000003,-0.09994935333546484
-0.30260000000000004,-0.1001332658044473
-0.30360000000000004,-0.10031717827342976
-0.30460000000000004,-0.10052938496840952
-0.30560000000000004,-0.10074159166338927
-0.30660000000000004,-0.10093965124537037
-0.30760000000000004,-0.10115185794035012
-0.30860000000000004,-0.10132162329633393
-0.30960000000000004,-0.10153382999131368
-0.31060000000000004,-0.1017601837992921
-0.31160000000000004,-0.10195824338127318
-0.31260000000000004,-0.1021845971892516
-0.31360000000000005,-0.1023826567712327
-0.31460000000000005,-0.10256656924021516
-0.31560000000000005,-0.10280707016119221
-0.31660000000000005,-0.10300512974317333
-0.31760000000000005,-0.10321733643815308
-0.31860000000000005,-0.10344369024613147
-0.31960000000000005,-0.10368419116710853
-0.32060000000000005,-0.1039246920880856
-0.32160000000000005,-0.1041227516700667
-0.32260000000000005,-0.10433495836504646
-0.32360000000000005,-0.10456131217302486
-0.32460000000000006,-0.10475937175500598
-0.32560000000000006,-0.10499987267598301
-0.32660000000000006,-0.10524037359696008
-0.32760000000000006,-0.10545258029193984
-0.32860000000000006,-0.10569308121291689
-0.32960000000000006,-0.10593358213389395
-0.33060000000000006,-0.10617408305487101
-0.33160000000000006,-0.10638628974985076
-0.33260000000000006,-0.10662679067082782
-0.33360000000000006,-0.10685314447880623
-0.33460000000000006,-0.10707949828678462
-0.33560000000000006,-0.10731999920776168
-0.33660000000000007,-0.10756050012873873
-0.33760000000000007,-0.10781514816271445
-0.33860000000000007,-0.1080556490836915
-0.33960000000000007,-0.10829615000466856
-0.34060000000000007,-0.10855079803864424
-0.34160000000000007,-0.10879129895962131
-0.34260000000000007,-0.10903179988059837
-0.34360000000000007,-0.10928644791457408
-0.3446000000000001,-0.10954109594854979
-0.3456000000000001,-0.1097674497565282
-0.3466000000000001,-0.11002209779050391
-0.34759999999999996,-0.11026259871148097
-0.3486000000000001,-0.11047480540646071
-0.34959999999999997,-0.11074360055343507
-0.3506000000000001,-0.11099824858741078
-0.35159999999999997,-0.11122460239538919
-0.3526000000000001,-0.1114792504293649
-0.35359999999999997,-0.1117056042373433
-0.3546000000000001,-0.11197439938431765
-0.35559999999999997,-0.1122149003052947
-0.3566000000000001,-0.11242710700027447
-0.3576,-0.11268175503425018
-0.3586000000000001,-0.11292225595522724
-0.3596,-0.11313446265020698
-0.3606000000000001,-0.11340325779718134
-0.3616,-0.11360131737916243
-0.3626000000000001,-0.11382767118714086
-0.3636,-0.11403987788212061
-0.3646000000000001,-0.11425208457710037
-0.3656,-0.11450673261107608
-0.3666000000000001,-0.11474723353205314
-0.3676,-0.11494529311403422
-0.3686000000000001,-0.11517164692201265
-0.3696,-0.11538385361699238
-0.3706000000000001,-0.11565264876396675
-0.3716,-0.11587900257194515
-0.3726000000000001,-0.1161195034929222
-0.3736,-0.11637415152689792
-0.3746000000000001,-0.11660050533487633
-0.3756,-0.11682685914285473
-0.3766000000000001,-0.11705321295083315
-0.3776,-0.11727956675881154
-0.3786000000000001,-0.11750592056678995
-0.3796,-0.11770398014877105
-0.3806000000000001,-0.11793033395674946
-0.3816,-0.11814254065172922
-0.3826000000000001,-0.11836889445970761
-0.3836,-0.11856695404168872
-0.3846000000000001,-0.11879330784966712
-0.3856,-0.11900551454464689
-0.3866000000000001,-0.11924601546562394
-0.3876,-0.11944407504760506
-0.3886000000000001,-0.11967042885558345
-0.3896,-0.11989678266356185
-0.3906000000000001,-0.1201372835845389
-0.3916,-0.12036363739251733
-0.3926000000000001,-0.12058999120049572
-0.3936,-0.12080219789547549
-0.3946000000000001,-0.12104269881645255
-0.3956,-0.1212549055114323
-0.3966000000000001,-0.12149540643240934
-0.3976,-0.12172176024038774
-0.3986000000000001,-0.12191981982236885
-0.3996,-0.12213202651734863
-0.4006000000000001,-0.12235838032532702
-0.4016,-0.12258473413330541
-0.4026000000000001,-0.12283938216728113
-0.4036,-0.12307988308825818
-0.4046000000000001,-0.1233062368962366
-0.4056,-0.12357503204321095
-0.40660000000000013,-0.12380138585118937
-0.4076,-0.12407018099816372
-0.40860000000000013,-0.12432482903213941
-0.4096,-0.1245936241791138
-0.41060000000000013,-0.12484827221308947
-0.4116,-0.12508877313406655
-0.41260000000000013,-0.12532927405504357
-0.4136,-0.1255839220890193
-0.41460000000000014,-0.12582442300999636
-0.4156,-0.1260932181569707
-0.41660000000000014,-0.1263620133039451
-0.4176,-0.12664495556391808
-0.41860000000000014,-0.12691375071089245
-0.41960000000000003,-0.12718254585786679
-0.42060000000000014,-0.12747963523083847
-0.42160000000000003,-0.1277625774908115
-0.42260000000000014,-0.1280455197507845
-0.42360000000000003,-0.12832846201075748
-0.42460000000000014,-0.12863969849672777
-0.42560000000000003,-0.1289226407567008
-0.42660000000000015,-0.12920558301667381
-0.42760000000000004,-0.12950267238964547
-0.42860000000000015,-0.1297714675366198
-0.42960000000000004,-0.13009685113558878
-0.43060000000000015,-0.1304363818475564
-0.43160000000000004,-0.13073347122052806
-0.43260000000000015,-0.13107300193249566
-0.43360000000000004,-0.13135594419246865
-0.43460000000000015,-0.13166718067843897
-0.43560000000000004,-0.13202085850340523
-0.43660000000000015,-0.13233209498937554
