Potential V vs RHE, Current mA cm-2
0.05339999999999995,-0.021008462802995797
0.05239999999999995,-0.02194217226090672
0.051399999999999946,-0.022338291424868928
0.050399999999999945,-0.022635380797840585
0.049399999999999944,-0.022946617283810897
0.04839999999999994,-0.0232012653177866
0.04739999999999994,-0.023427619125765006
0.04639999999999994,-0.023682267159740714
0.04539999999999994,-0.02393691519371642
0.04439999999999994,-0.02420571034069078
0.04339999999999994,-0.024460358374666487
0.04239999999999994,-0.024700859295643543
0.04139999999999994,-0.024927213103621948
0.040399999999999936,-0.025167714024599004
0.039399999999999935,-0.02546480339757066
0.038399999999999934,-0.025747745657543668
0.03739999999999993,-0.02591751101352747
0.03639999999999993,-0.02620045327350048
0.03539999999999993,-0.02645510130747619
0.03439999999999993,-0.02673804356744919
0.03339999999999993,-0.026978544488426247
0.03239999999999993,-0.027219045409403307
0.03139999999999993,-0.027473693443379014
0.030399999999999927,-0.027714194364356067
0.029399999999999926,-0.028011283737327728
0.028399999999999925,-0.02829422599730073
0.027399999999999924,-0.02852057980527914
0.026399999999999924,-0.028775227839254847
0.025399999999999923,-0.029058170099227856
0.024399999999999922,-0.02935525947219951
0.02339999999999992,-0.029638201732172516
0.02239999999999992,-0.029892849766148224
0.02139999999999992,-0.03014749780012393
0.020399999999999918,-0.030430440060096934
0.019399999999999917,-0.030755823659065897
0.018399999999999916,-0.031024618806040256
0.017399999999999916,-0.031222678388021355
0.016399999999999915,-0.031505620647994365
0.015399999999999914,-0.031788562907967374
0.014399999999999913,-0.03209979939393768
0.013399999999999912,-0.03236859454091204
0.012399999999999911,-0.0326656839138837
0.01139999999999991,-0.03294862617385671
0.01039999999999991,-0.03324571554682836
0.009399999999999908,-0.03357109914579732
0.008399999999999908,-0.03388233563176763
0.007399999999999907,-0.03416527789174064
0.006399999999999906,-0.034462367264712294
0.005399999999999905,-0.03475945663768395
0.004399999999999904,-0.03508484023665291
0.003399999999999903,-0.03539607672262322
0.002399999999999902,-0.03570731320859352
0.0013999999999999013,-0.03600440258156519
0.00039999999999990044,-0.03632978618053414
-0.0006000000000001005,-0.0366834640055004
-0.0016000000000001013,-0.03700884760446936
-0.0026000000000001022,-0.037320084090439666
-0.003600000000000103,-0.03764546768940863
-0.004600000000000104,-0.037970851288377586
-0.005600000000000105,-0.03832452911334384
-0.006600000000000106,-0.0386499127123128
-0.007600000000000107,-0.03897529631128176
-0.008600000000000108,-0.039314827023249364
-0.009600000000000108,-0.03965435773521698
-0.01060000000000011,-0.04003632978618053
-0.01160000000000011,-0.040375860498148154
-0.012600000000000111,-0.040729538323114406
-0.013600000000000112,-0.04105492192208336
-0.014600000000000113,-0.04143689397304692
-0.015600000000000114,-0.04183301313700913
-0.016600000000000115,-0.042186690961975394
-0.017600000000000116,-0.042526221673943
-0.018600000000000116,-0.04289404661190791
-0.019600000000000117,-0.04327601866287147
-0.020600000000000118,-0.04362969648783773
-0.02160000000000012,-0.044025815651799936
-0.02260000000000012,-0.044393640589764846
-0.02360000000000012,-0.044775612640728414
-0.024600000000000122,-0.04517173180469062
-0.025600000000000123,-0.04555370385565418
-0.026600000000000124,-0.04593567590661774
-0.027600000000000124,-0.046303500844582644
-0.028600000000000125,-0.04668547289554621
-0.029600000000000126,-0.04709573917250707
-0.030600000000000127,-0.047534299675465234
-0.03160000000000013,-0.04795871306542474
-0.03260000000000013,-0.0483406851163883
-0.03360000000000013,-0.048736804280350515
-0.03460000000000002,-0.04913292344431273
-0.03560000000000002,-0.04958563106026953
-0.03660000000000002,-0.04998175022423174
-0.03760000000000002,-0.050392016501192606
-0.03860000000000002,-0.05083057700415077
-0.039600000000000024,-0.05122669616811298
-0.040600000000000025,-0.051693550897068445
-0.041600000000000026,-0.052132111400026604
-0.04260000000000003,-0.05254237767698746
-0.04360000000000003,-0.052980938179945626
-0.04460000000000003,-0.053419498682903785
-0.04560000000000003,-0.053886353411859246
-0.04660000000000003,-0.054324913914817405
-0.04760000000000003,-0.054791768643772866
-0.04860000000000003,-0.055202034920733736
-0.04960000000000003,-0.05565474253669054
-0.050600000000000034,-0.05613574437864466
-0.051600000000000035,-0.05660259910760012
-0.052600000000000036,-0.05702701249755963
-0.053600000000000037,-0.05746557300051779
-0.05460000000000004,-0.05793242772947325
-0.05560000000000004,-0.05842757668442602
-0.05660000000000004,-0.05888028430038283
-0.05760000000000004,-0.05933299191633964
-0.05860000000000004,-0.059771552419297796
-0.05960000000000004,-0.06021011292225596
-0.06060000000000004,-0.06071940899020737
-0.061600000000000044,-0.06120041083216149
-0.06260000000000004,-0.06166726556111695
-0.06360000000000005,-0.06216241451606971
-0.06460000000000005,-0.06265756347102248
-0.06560000000000005,-0.06315271242597524
-0.06660000000000005,-0.063647861380928
-0.06760000000000005,-0.06415715744887941
-0.06860000000000005,-0.06466645351683083
-0.06960000000000005,-0.0651333082457863
-0.07060000000000005,-0.06568504565273366
-0.07160000000000005,-0.06616604749468777
-0.07260000000000005,-0.06667534356263917
-0.07360000000000005,-0.06717049251759194
-0.07460000000000006,-0.06769393569854201
-0.07560000000000006,-0.06823152599249073
-0.07660000000000006,-0.06872667494744349
-0.07760000000000006,-0.06922182390239626
-0.07860000000000006,-0.06971697285734901
-0.07960000000000006,-0.07024041603829907
-0.08060000000000006,-0.07082044767124374
-0.08160000000000006,-0.07132974373919515
-0.08260000000000006,-0.07185318692014521
-0.08360000000000006,-0.07237663010109527
-0.08460000000000006,-0.0728859261690467
-0.08560000000000006,-0.0734518106889927
-0.08660000000000007,-0.07397525386994278
-0.08760000000000007,-0.07448454993789419
-0.08860000000000007,-0.0750221402318429
-0.08960000000000007,-0.07557387763879025
-0.09060000000000007,-0.07612561504573763
-0.09160000000000007,-0.07664905822668767
-0.09260000000000007,-0.07714420718164045
-0.09360000000000007,-0.07771009170158645
-0.09460000000000007,-0.07827597622153248
-0.09560000000000007,-0.07882771362847985
-0.09660000000000007,-0.07936530392242855
-0.09760000000000008,-0.07990289421637728
-0.09860000000000008,-0.0804121902843287
-0.09960000000000008,-0.0809780748042747
-0.10060000000000008,-0.08154395932422072
-0.10160000000000008,-0.08209569673116808
-0.10260000000000008,-0.08264743413811544
-0.10360000000000008,-0.0831708773190655
-0.10460000000000008,-0.08369432050001557
-0.10560000000000008,-0.08423191079396428
-0.10660000000000008,-0.084769501087913
-0.10760000000000008,-0.08530709138186171
-0.10860000000000009,-0.08585882878880907
-0.10960000000000009,-0.08641056619575643
-0.11060000000000009,-0.08697645071570247
-0.11160000000000009,-0.08747159967065522
-0.11260000000000009,-0.08798089573860662
-0.11360000000000009,-0.08851848603255535
-0.11460000000000009,-0.08908437055250136
-0.11560000000000009,-0.08965025507244738
-0.11660000000000009,-0.09018784536639608
-0.1176000000000001,-0.0907254356603448
-0.1186000000000001,-0.0912630259542935
-0.1196000000000001,-0.09180061624824223
-0.1206000000000001,-0.09236650076818824
-0.1216000000000001,-0.09288994394913831
-0.1226000000000001,-0.09342753424308703
-0.1236000000000001,-0.09393683031103843
-0.1246000000000001,-0.0944602734919885
-0.1256000000000001,-0.09501201089893586
-0.1266000000000001,-0.09554960119288458
-0.1276000000000001,-0.09610133859983194
-0.1286000000000001,-0.096624781780782
-0.1296000000000001,-0.09713407784873342
-0.1306000000000001,-0.09767166814268213
-0.1316000000000001,-0.09818096421063353
-0.1326000000000001,-0.0986761131655863
-0.1336000000000001,-0.09918540923353773
-0.1346000000000001,-0.09972299952748644
-0.1356000000000001,-0.1002464427084365
-0.1366000000000001,-0.10074159166338927
-0.1376000000000001,-0.10123674061834202
-0.1386000000000001,-0.10171774246029613
-0.1396000000000001,-0.10222703852824755
-0.1406000000000001,-0.10273633459619896
-0.14160000000000011,-0.10321733643815308
-0.14260000000000012,-0.10368419116710853
-0.14360000000000012,-0.104151045896064
-0.14460000000000012,-0.10463204773801811
-0.14560000000000012,-0.10512719669297087
-0.14660000000000012,-0.105608198534925
-0.14760000000000012,-0.10607505326388045
-0.14860000000000012,-0.10649946665383996
-0.14960000000000012,-0.10698046849579408
-0.15060000000000012,-0.10746147033774818
-0.15160000000000012,-0.10790003084070635
-0.15260000000000012,-0.10835273845666317
-0.15360000000000013,-0.10877715184662266
-0.15460000000000013,-0.10922985946257947
-0.15560000000000013,-0.10971086130453359
-0.15660000000000013,-0.11009283335549715
-0.15760000000000013,-0.11051724674545668
-0.15860000000000013,-0.11094166013541619
-0.15960000000000002,-0.11138022063837434
-0.16060000000000002,-0.1118187811413325
-0.16160000000000002,-0.11222904741829336
-0.16260000000000002,-0.11261101946925692
-0.16360000000000002,-0.11299299152022048
-0.16460000000000002,-0.1133891106841827
-0.16560000000000002,-0.11382767118714086
-0.16660000000000003,-0.1142379374641017
-0.16760000000000003,-0.11460576240206662
-0.16860000000000003,-0.11494529311403422
-0.16960000000000003,-0.11531311805199915
-0.17060000000000003,-0.1156950901029627
-0.17160000000000003,-0.11606291504092761
-0.17260000000000003,-0.11643073997889253
-0.17360000000000003,-0.11675612357786147
-0.17460000000000003,-0.11713809562882503
-0.17560000000000003,-0.11749177345379128
-0.17660000000000003,-0.11781715705276027
-0.17760000000000004,-0.1181142464257319
-0.17860000000000004,-0.11839718868570492
-0.17960000000000004,-0.11870842517167522
-0.18060000000000004,-0.11901966165764555
-0.18160000000000004,-0.11931675103061717
-0.18260000000000004,-0.11961384040358886
-0.18360000000000004,-0.11988263555056322
-0.18460000000000004,-0.1201938720365335
-0.18560000000000004,-0.12049096140950517
-0.18660000000000004,-0.12073146233048222
-0.18760000000000004,-0.12097196325145929
-0.18860000000000005,-0.12121246417243635
-0.18960000000000005,-0.12146711220641206
-0.19060000000000005,-0.12172176024038774
-0.19160000000000005,-0.1219622611613648
-0.19260000000000005,-0.1221603207433459
-0.19360000000000005,-0.12234423321232836
-0.19460000000000005,-0.12257058702030678
-0.19560000000000005,-0.12281108794128386
-0.19660000000000005,-0.12300914752326494
-0.19760000000000005,-0.12320720710524605
-0.19860000000000005,-0.12339111957422852
-0.19960000000000006,-0.12358917915620962
-0.20060000000000006,-0.12382968007718667
-0.20160000000000006,-0.12397115120717317
-0.20260000000000006,-0.12414091656315696
-0.20360000000000006,-0.12429653480614214
-0.20460000000000006,-0.12446630016212593
-0.20560000000000006,-0.12465021263110838
-0.20660000000000006,-0.12480583087409354
-0.20760000000000006,-0.12491900777808274
-0.20860000000000006,-0.12504633179507058
-0.20960000000000006,-0.12518780292505707
-0.21060000000000006,-0.12531512694204497
-0.21160000000000007,-0.12542830384603415
-0.21260000000000007,-0.12551318652402607
-0.21360000000000007,-0.12562636342801525
-0.21460000000000007,-0.1257253932190058
-0.21560000000000007,-0.12585271723599367
-0.21660000000000007,-0.12596589413998285
-0.21760000000000007,-0.12605077681797475
-0.21860000000000007,-0.12610736526996935
-0.21960000000000007,-0.12623468928695725
-0.22060000000000007,-0.1263195719649491
-0.22160000000000007,-0.12637616041694374
-0.22260000000000008,-0.12643274886893832
-0.22360000000000008,-0.12650348443393158
-0.22460000000000008,-0.12657421999892482
-0.22560000000000008,-0.12664495556391808
-0.22660000000000008,-0.12668739690291403
-0.22760000000000008,-0.12671569112891135
-0.22860000000000008,-0.12674398535490863
-0.22960000000000008,-0.12681472091990187
-0.23060000000000008,-0.12688545648489513
-0.23160000000000008,-0.1268996035978938
-0.23260000000000008,-0.12691375071089245
-0.23360000000000009,-0.12691375071089245
-0.2346000000000001,-0.12697033916288702
-0.2356000000000001,-0.12699863338888437
-0.2366000000000001,-0.1269844862758857
-0.2376000000000001,-0.12699863338888437
-0.2386000000000001,-0.12699863338888437
-0.2396000000000001,-0.12701278050188297
-0.2406000000000001,-0.1270410747278803
-0.2416000000000001,-0.12701278050188297
-0.2426000000000001,-0.12701278050188297
-0.2436000000000001,-0.12699863338888437
-0.2446000000000001,-0.12699863338888437
-0.2456000000000001,-0.12699863338888437
-0.2466000000000001,-0.1269844862758857
-0.2476000000000001,-0.12694204493688974
-0.2486000000000001,-0.12691375071089245
-0.2496000000000001,-0.1269278978238911
-0.2506000000000001,-0.12688545648489513
-0.2516000000000001,-0.12685716225889784
-0.2526000000000001,-0.12681472091990187
-0.2536000000000001,-0.12677227958090595
-0.2546000000000001,-0.1267581324679073
-0.2556000000000001,-0.12674398535490863
-0.2566000000000001,-0.12667324978991537
-0.2576000000000001,-0.12663080845091942
-0.2586000000000001,-0.12658836711192348
-0.2596000000000001,-0.1265600728859262
-0.2606000000000001,-0.12651763154693024
-0.2616000000000001,-0.12647519020793427
-0.2626000000000001,-0.126404454642941
-0.2636000000000001,-0.12634786619094643
-0.2646000000000001,-0.1263195719649491
-0.2656000000000001,-0.1262771306259532
-0.2666000000000001,-0.12619224794796124
-0.2676000000000001,-0.12616395372196398
-0.2686000000000001,-0.1260790710439721
-0.2696000000000001,-0.12605077681797475
-0.2706000000000001,-0.1259941883659802
-0.2716000000000001,-0.12590930568798825
-0.2726000000000001,-0.12588101146199096
-0.2736000000000001,-0.12578198167100044
-0.2746000000000001,-0.12575368744500312
-0.2756000000000001,-0.12571124610600715
-0.2766000000000001,-0.1256405105410139
-0.2776000000000001,-0.125555627863022
-0.2786000000000001,-0.12548489229802873
-0.2796000000000001,-0.12542830384603415
-0.2806000000000001,-0.1254141567330355
-0.28160000000000013,-0.12534342116804223
-0.28260000000000013,-0.12525853849005034
-0.28360000000000013,-0.12520195003805573
-0.2846,-0.12514536158606115
-0.2856,-0.12511706736006384
-0.2866,-0.12501803756907331
-0.2876,-0.1249614491170787
-0.2886,-0.1248765664390868
-0.2896,-0.12481997798709218
-0.2906,-0.12479168376109491
-0.2916,-0.12470680108310296
-0.2926,-0.12460777129211242
-0.2936,-0.12455118284011783
-0.29460000000000003,-0.12450874150112187
-0.29560000000000003,-0.12446630016212593
-0.29660000000000003,-0.12438141748413403
-0.29760000000000003,-0.12429653480614214
-0.29860000000000003,-0.12422579924114888
-0.29960000000000003,-0.12418335790215292
-0.30060000000000003,-0.12414091656315696
-0.30160000000000003,-0.12405603388516506
-0.30260000000000004,-0.1239852983201718
-0.30360000000000004,-0.1239004156421799
-0.30460000000000004,-0.12387212141618263
-0.30560000000000004,-0.12380138585118937
-0.30660000000000004,-0.12374479739919475
-0.30760000000000004,-0.12367406183420152
-0.30860000000000004,-0.12358917915620962
-0.30960000000000004,-0.12356088493021229
-0.31060000000000004,-0.12350429647821769
-0.31160000000000004,-0.12343356091322445
-0.31260000000000004,-0.12334867823523256
-0.31360000000000005,-0.12329208978323794
-0.31460000000000005,-0.12326379555724064
-0.31560000000000005,-0.12322135421824468
-0.31660000000000005,-0.12315061865325144
-0.31760000000000005,-0.12306573597525952
-0.31860000000000005,-0.12300914752326494
-0.31960000000000005,-0.12299500041026629
-0.32060000000000005,-0.12295255907127035
-0.32160000000000005,-0.12285352928027979
-0.32260000000000005,-0.12281108794128386
-0.32360000000000005,-0.12275449948928924
-0.32460000000000006,-0.12271205815029328
-0.32560000000000006,-0.12265546969829867
-0.32660000000000006,-0.12259888124630408
-0.32760000000000006,-0.12254229279430948
-0.32860000000000006,-0.12248570434231489
-0.32960000000000006,-0.12245741011631758
-0.33060000000000006,-0.12241496877732162
-0.33160000000000006,-0.12235838032532702
-0.33260000000000006,-0.12228764476033378
-0.33360000000000006,-0.12225935053433647
-0.33460000000000006,-0.1222169091953405
-0.33560000000000006,-0.12218861496934323
-0.33660000000000007,-0.12213202651734863
-0.33760000000000007,-0.12207543806535401
-0.33860000000000007,-0.12203299672635806
-0.33960000000000007,-0.12199055538736212
-0.34060000000000007,-0.12197640827436346
-0.34160000000000007,-0.12190567270937022
-0.34260000000000007,-0.12184908425737562
-0.34360000000000007,-0.1218207900313783
-0.3446000000000001,-0.12179249580538101
-0.3456000000000001,-0.12177834869238235
-0.3466000000000001,-0.12172176024038774
-0.34759999999999996,-0.12170761312738912
-0.3486000000000001,-0.12166517178839317
-0.34959999999999997,-0.1216510246753945
-0.3506000000000001,-0.1216227304493972
-0.35159999999999997,-0.12158028911040124
-0.3526000000000001,-0.12153784777140529
-0.35359999999999997,-0.12148125931941069
-0.3546000000000001,-0.12148125931941069
-0.35559999999999997,-0.12146711220641206
-0.3566000000000001,-0.1213963766414188
-0.3576,-0.1213680824154215
-0.3586000000000001,-0.12133978818942417
-0.3596,-0.1213114939634269
-0.3606000000000001,-0.1213114939634269
-0.3616,-0.12126905262443094
-0.3626000000000001,-0.121226611285435
-0.3636,-0.12119831705943768
-0.3646000000000001,-0.12118416994643905
-0.3656,-0.12115587572044173
-0.3666000000000001,-0.12109928726844714
-0.3676,-0.12105684592945118
-0.3686000000000001,-0.12105684592945118
-0.3696,-0.12105684592945118
-0.3706000000000001,-0.12105684592945118
-0.3716,-0.12100025747745657
-0.3726000000000001,-0.12095781613846063
-0.3736,-0.12092952191246334
-0.3746000000000001,-0.12092952191246334
-0.3756,-0.12088708057346739
-0.3766000000000001,-0.12088708057346739
-0.3776,-0.12084463923447143
-0.3786000000000001,-0.12083049212147279
-0.3796,-0.12083049212147279
-0.3806000000000001,-0.12083049212147279
-0.3816,-0.12080219789547549
-0.3826000000000001,-0.12078805078247684
-0.3836,-0.12074560944348088
-0.3846000000000001,-0.12074560944348088
-0.3856,-0.12075975655647953
-0.3866000000000001,-0.12073146233048222
-0.3876,-0.12071731521748358
-0.3886000000000001,-0.12070316810448493
-0.3896,-0.12074560944348088
-0.3906000000000001,-0.12074560944348088
-0.3916,-0.12071731521748358
-0.3926000000000001,-0.12070316810448493
-0.3936,-0.12068902099148628
-0.3946000000000001,-0.12073146233048222
-0.3956,-0.12074560944348088
-0.3966000000000001,-0.12073146233048222
-0.3976,-0.12073146233048222
-0.3986000000000001,-0.12073146233048222
-0.3996,-0.12077390366947817
-0.4006000000000001,-0.12078805078247684
-0.4016,-0.12075975655647953
-0.4026000000000001,-0.12077390366947817
-0.4036,-0.12078805078247684
-0.4046000000000001,-0.12081634500847413
-0.4056,-0.12087293346046873
-0.40660000000000013,-0.12087293346046873
-0.4076,-0.12087293346046873
-0.40860000000000013,-0.12090122768646602
-0.4096,-0.120943669025462
-0.41060000000000013,-0.12097196325145929
-0.4116,-0.12100025747745657
-0.41260000000000013,-0.1210285517034539
-0.4136,-0.12105684592945118
-0.41460000000000014,-0.12112758149444444
-0.4156,-0.12119831705943768
-0.41660000000000014,-0.121226611285435
-0.4176,-0.1212549055114323
-0.41860000000000014,-0.12128319973742961
-0.41960000000000003,-0.1213680824154215
-0.42060000000000014,-0.12143881798041474
-0.42160000000000003,-0.12149540643240934
-0.42260000000000014,-0.12155199488440395
-0.42360000000000003,-0.12159443622339991
-0.42460000000000014,-0.12169346601439045
-0.42560000000000003,-0.12175005446638507
-0.42660000000000015,-0.12180664291837967
-0.42760000000000004,-0.1218773784833729
-0.42860000000000015,-0.1219622611613648
-0.42960000000000004,-0.12207543806535401
-0.43060000000000015,-0.12217446785634459
-0.43160000000000004,-0.12224520342133782
-0.43260000000000015,-0.12234423321232836
-0.43360000000000004,-0.12244326300331891
-0.43460000000000015,-0.12258473413330541
-0.43560000000000004,-0.12269791103729463
