Potential V vs RHE, Current mA cm-2
0.013299999999999867,0.21588494435940458
0.012299999999999978,-0.8745745255765657
0.011299999999999866,-1.4415908145624723
0.010299999999999976,-1.7910245056291363
0.009299999999999864,-2.052746096104168
0.008299999999999974,-2.2706116362833835
0.007299999999999862,-2.532333226758415
0.006299999999999972,-2.706342716641815
0.00529999999999986,-2.8803522065252145
0.0042999999999999705,-3.0119203574126634
0.0032999999999998586,-3.1859298472960624
0.0022999999999999687,-3.317497998183511
0.0012999999999998568,-3.4915074880669104
0.00029999999999996696,-3.623075638954359
-0.000700000000000145,-3.7970851288377587
-0.0017000000000000348,-3.971094618721158
-0.0027000000000001467,-4.1889601589003735
-0.0037000000000000366,-4.3205283097878215
-0.0047000000000001485,-4.494537799671222
-0.005700000000000038,-4.582249900262854
-0.00670000000000015,-4.712403339850438
-0.00770000000000004,-4.800115440442069
-0.008700000000000152,-4.974124930325469
-0.009700000000000042,-5.105693081212917
-0.010700000000000154,-5.279702571096316
-0.011700000000000044,-5.453712060979717
-0.012700000000000156,-5.629136262162981
-0.013700000000000045,-5.759289701750564
-0.014700000000000157,-5.890857852638012
-0.015700000000000047,-5.977155241929781
-0.01670000000000016,-6.108723392817228
-0.01770000000000005,-6.238876832404812
-0.01870000000000016,-6.37044498329226
-0.01970000000000005,-6.54445447317566
-0.020700000000000163,-6.6760226240631075
-0.021700000000000053,-6.850032113946507
-0.022700000000000164,-6.981600264833956
-0.023700000000000054,-7.111753704421539
-0.024700000000000166,-7.243321855308987
-0.025700000000000056,-7.329619244600755
-0.026700000000000168,-7.4173313451923875
-0.027700000000000058,-7.5474847847799715
-0.02870000000000017,-7.679052935667419
-0.02970000000000006,-7.809206375255003
-0.03070000000000017,-7.984630576438266
-0.03170000000000006,-8.11478401602585
-0.03270000000000017,-8.288793505909249
-0.03370000000000006,-8.376505606500881
-0.034700000000000175,-8.508073757388331
-0.035700000000000065,-8.638227196975913
-0.03670000000000018,-8.725939297567548
-0.03770000000000007,-8.812236686859313
-0.03870000000000018,-8.943804837746763
-0.03970000000000007,-9.073958277334345
-0.04070000000000018,-9.24938247851761
-0.04170000000000007,-9.379535918105192
-0.04270000000000018,-9.511104068992642
-0.04370000000000007,-9.641257508580225
-0.044700000000000184,-9.728969609171857
-0.045700000000000074,-9.85912304875944
-0.046700000000000186,-9.946835149351072
-0.047700000000000076,-10.034547249942705
-0.04870000000000019,-10.164700689530287
-0.04970000000000008,-10.296268840417738
-0.05070000000000019,-10.42642228000532
-0.05170000000000008,-10.557990430892769
-0.05270000000000019,-10.688143870480351
-0.05370000000000008,-10.819712021367803
-0.05470000000000019,-10.949865460955383
-0.05570000000000008,-10.993721511251199
-0.056700000000000195,-11.123874950838783
-0.057700000000000085,-11.1677310011346
-0.058700000000000196,-11.299299152022046
-0.059700000000000086,-11.473308641905447
-0.0607000000000002,-11.56102074249708
-0.06170000000000009,-11.73503023238048
-0.0627000000000002,-11.909039722263879
-0.06370000000000009,-11.952895772559694
-0.0647000000000002,-12.084463923447142
-0.06570000000000009,-12.170761312738911
-0.0667000000000002,-12.258473413330542
-0.0677000000000001,-12.346185513922174
-0.0687000000000002,-12.432482903213943
-0.0697000000000001,-12.56405105410139
-0.07070000000000021,-12.73806054398479
-0.0717000000000001,-12.825772644576423
-0.07270000000000021,-12.955926084164007
-0.0737000000000001,-13.087494235051453
-0.07470000000000021,-13.175206335643086
-0.0757000000000001,-13.261503724934855
-0.07670000000000021,-13.349215825526485
-0.0777000000000001,-13.436927926118118
-0.07870000000000021,-13.523225315409885
-0.0797000000000001,-13.654793466297335
-0.08070000000000022,-13.784946905884919
-0.0817000000000001,-13.916515056772363
-0.08270000000000022,-14.002812446064135
-0.08370000000000011,-14.13438059695158
-0.08470000000000022,-14.217848563643619
-0.08570000000000011,-14.30273124163552
-0.08670000000000022,-14.401761032626075
-0.08770000000000011,-14.486643710617974
-0.08870000000000022,-14.57152638860988
-0.08970000000000011,-14.65640906660178
-0.09070000000000022,-14.783733083589633
-0.09170000000000011,-14.967645552572087
-0.09270000000000023,-15.05252823056399
-0.09370000000000012,-15.137410908555893
-0.09470000000000023,-15.222293586547794
-0.09570000000000012,-15.307176264539699
-0.09670000000000023,-15.3920589425316
-0.09770000000000012,-15.491088733522153
-0.09870000000000023,-15.575971411514052
-0.09970000000000012,-15.70329542850191
-0.10070000000000023,-15.78817810649381
-0.10170000000000012,-15.972090575476265
-0.10270000000000024,-16.056973253468165
-0.10370000000000013,-16.141855931460068
-0.10470000000000024,-16.22673860945197
-0.10570000000000013,-16.311621287443874
-0.10670000000000024,-16.354062626439823
-0.10770000000000013,-16.396503965435777
-0.10870000000000024,-16.53797509542228
-0.10970000000000013,-16.665299112410132
-0.11070000000000024,-16.792623129397985
-0.11170000000000013,-16.877505807389888
-0.11270000000000002,-17.018976937376394
-0.11370000000000013,-17.103859615368293
-0.11470000000000002,-17.146300954364243
-0.11570000000000014,-17.231183632356142
-0.11670000000000003,-17.2736249713521
-0.11770000000000014,-17.358507649344002
-0.11870000000000003,-17.4433903273359
-0.11970000000000014,-17.542420118326454
-0.12070000000000003,-17.669744135314307
-0.12170000000000014,-17.797068152302163
-0.12270000000000003,-17.881950830294063
-0.12370000000000014,-17.966833508285966
-0.12470000000000003,-18.06586329927652
-0.12570000000000014,-18.15074597726842
-0.12670000000000003,-18.19318731626437
-0.12770000000000015,-18.23562865526032
-0.12870000000000004,-18.362952672248177
-0.12970000000000015,-18.44783535024008
-0.13070000000000004,-18.53271802823198
-0.13170000000000015,-18.674189158218486
-0.13270000000000004,-18.80151317520634
-0.13370000000000015,-18.88639585319824
-0.13470000000000004,-18.97127853119014
-0.13570000000000015,-19.01371987018609
-0.13670000000000004,-19.056161209182044
-0.13770000000000016,-19.155191000172596
-0.13870000000000005,-19.2400736781645
-0.13970000000000016,-19.3249563561564
-0.14070000000000005,-19.452280373144255
-0.14170000000000016,-19.537163051136158
-0.14270000000000005,-19.636192842126707
-0.14370000000000016,-19.721075520118614
-0.14470000000000005,-19.805958198110513
-0.14570000000000016,-19.848399537106463
-0.14670000000000005,-19.890840876102416
-0.14770000000000016,-19.97572355409432
-0.14870000000000005,-20.06060623208622
-0.14970000000000017,-20.159636023076775
-0.15070000000000006,-20.286960040064624
-0.15170000000000017,-20.371842718056527
-0.15270000000000006,-20.499166735044383
-0.15370000000000017,-20.541608074040333
-0.15470000000000006,-20.626490752032236
-0.15570000000000017,-20.683079204026836
-0.15670000000000006,-20.72552054302279
-0.15770000000000017,-20.76796188201874
-0.15870000000000006,-20.85284456001064
-0.15970000000000018,-20.980168576998494
-0.16070000000000007,-21.065051254990397
-0.16170000000000018,-21.149933932982297
-0.16270000000000007,-21.291405062968803
-0.16370000000000018,-21.376287740960702
-0.16470000000000007,-21.418729079956652
-0.16570000000000018,-21.461170418952605
-0.16670000000000007,-21.503611757948562
-0.16770000000000018,-21.54605309694451
-0.16870000000000007,-21.63093577493641
-0.16970000000000018,-21.729965565926964
-0.17070000000000007,-21.857289582914817
-0.17170000000000019,-21.94217226090672
-0.17270000000000008,-22.027054938898623
-0.1737000000000002,-22.111937616890522
-0.17470000000000008,-22.15437895588647
-0.1757000000000002,-22.196820294882425
-0.17670000000000008,-22.295850085872978
-0.1777000000000002,-22.33829142486893
-0.17870000000000008,-22.42317410286083
-0.1797000000000002,-22.508056780852733
-0.18070000000000008,-22.592939458844636
-0.1817000000000002,-22.67782213683654
-0.18270000000000008,-22.819293266823045
-0.1837000000000002,-22.861734605818995
-0.1847000000000001,-22.904175944814945
-0.1857000000000002,-22.989058622806844
-0.1867000000000001,-23.031499961802798
-0.1877000000000002,-23.073941300798747
-0.1887000000000001,-23.15882397879065
-0.1897000000000002,-23.24370665678255
-0.1907000000000001,-23.342736447773106
-0.1917000000000001,-23.427619125765005
-0.19269999999999998,-23.55494314275286
-0.1937000000000001,-23.597384481748815
-0.19469999999999998,-23.639825820744765
-0.1957000000000001,-23.682267159740714
-0.19669999999999999,-23.767149837732617
-0.1977000000000001,-23.767149837732617
-0.1987,-23.908620967719123
-0.1997000000000001,-23.951062306715073
-0.2007,-24.035944984706973
-0.2017000000000001,-24.16326900169483
-0.2027,-24.24815167968673
-0.2037000000000001,-24.290593018682678
-0.2047,-24.34718147067728
-0.2057000000000001,-24.389622809673234
-0.2067,-24.474505487665134
-0.2077000000000001,-24.516946826661083
-0.2087,-24.601829504652986
-0.2097000000000001,-24.64427084364894
-0.2107,-24.729153521640843
-0.2117000000000001,-24.870624651627345
-0.2127,-24.95550732961925
-0.2137000000000001,-24.997948668615198
-0.2147,-25.0828313466071
-0.2157000000000001,-25.12527268560305
-0.2167,-25.167714024599
-0.21770000000000012,-25.210155363594954
-0.2187,-25.295038041586857
-0.21970000000000012,-25.39406783257741
-0.2207,-25.43650917157336
-0.22170000000000012,-25.521391849565262
-0.2227,-25.648715866553115
-0.22370000000000012,-25.691157205549064
-0.2247,-25.77603988354097
-0.22570000000000012,-25.81848122253692
-0.2267,-25.86092256153287
-0.22770000000000012,-25.91751101352747
-0.22870000000000001,-26.002393691519377
-0.22970000000000013,-26.044835030515326
-0.23070000000000002,-26.17215904750318
-0.23170000000000013,-26.21460038649913
-0.23270000000000002,-26.34192440348698
-0.23370000000000013,-26.38436574248293
-0.23470000000000002,-26.483395533473487
-0.23570000000000013,-26.525836872469437
-0.23670000000000002,-26.568278211465387
-0.2376999999999999,-26.61071955046134
-0.23870000000000002,-26.69560222845324
-0.2396999999999999,-26.738043567449193
-0.24070000000000003,-26.86536758443705
-0.24169999999999991,-26.9643973754276
-0.24270000000000003,-27.049280053419505
-0.24369999999999992,-27.134162731411404
-0.24470000000000003,-27.176604070407354
-0.24569999999999992,-27.219045409403304
-0.24670000000000003,-27.261486748399253
-0.24769999999999992,-27.303928087395207
-0.24870000000000003,-27.38881076538711
-0.24969999999999992,-27.487840556377662
-0.25070000000000003,-27.572723234369565
-0.2516999999999999,-27.700047251357418
-0.25270000000000004,-27.78492992934932
-0.2536999999999999,-27.869812607341224
-0.25470000000000004,-27.912253946337174
-0.2556999999999999,-27.954695285333123
-0.25670000000000004,-28.011283737327723
-0.25769999999999993,-28.09616641531963
-0.25870000000000004,-28.18104909331153
-0.25969999999999993,-28.22349043230748
-0.26070000000000004,-28.308373110299385
-0.26169999999999993,-28.435697127287238
-0.26270000000000004,-28.53472691827779
-0.26369999999999993,-28.619609596269694
-0.26470000000000005,-28.662050935265643
-0.26569999999999994,-28.704492274261593
-0.26670000000000005,-28.789374952253496
-0.26769999999999994,-28.831816291249446
-0.26870000000000005,-28.91669896924135
-0.26969999999999994,-29.001581647233255
-0.27070000000000005,-29.14305277721976
-0.27169999999999994,-29.22793545521166
-0.27270000000000005,-29.35525947219951
-0.27369999999999994,-29.39770081119546
-0.27470000000000006,-29.482583489187363
-0.27569999999999995,-29.525024828183312
-0.27670000000000006,-29.62405461917387
-0.27769999999999995,-29.66649595816982
-0.27870000000000006,-29.751378636161718
-0.27969999999999995,-29.836261314153624
-0.28070000000000006,-29.96358533114148
-0.28169999999999995,-30.04846800913338
-0.28270000000000006,-30.189939139119886
-0.28369999999999995,-30.274821817111786
-0.28470000000000006,-30.359704495103685
-0.28569999999999995,-30.402145834099635
-0.28670000000000007,-30.487028512091538
-0.28769999999999996,-30.529469851087494
-0.28870000000000007,-30.670940981073993
-0.28969999999999996,-30.7558236590659
-0.29070000000000007,-30.88314767605375
-0.29169999999999996,-31.010471693041605
-0.29270000000000007,-31.095354371033505
-0.29369999999999996,-31.19438416202406
-0.2947000000000001,-31.321708179011907
-0.29569999999999996,-31.36414951800786
-0.2967000000000001,-31.449032195999767
-0.29769999999999996,-31.49147353499572
-0.2987000000000001,-31.618797551983565
-0.29969999999999997,-31.717827342974125
-0.3007000000000001,-31.84515135996197
-0.30169999999999997,-31.972475376949827
-0.3027000000000001,-32.14224073293363
-0.30369999999999997,-32.184682071929586
-0.3047000000000001,-32.283711862920136
-0.30569999999999997,-32.368594540912035
-0.3067000000000001,-32.45347721890394
-0.3077,-32.53835989689585
-0.3087000000000001,-32.66568391388369
-0.3097,-32.764713704874254
-0.3107000000000001,-32.892037721862096
-0.3117,-33.01936173884996
-0.3127000000000001,-33.18912709483376
-0.3137,-33.288156885824314
-0.3147000000000001,-33.373039563816214
-0.3157,-33.45792224180811
-0.3167000000000001,-33.58524625879597
-0.3177,-33.670128936787876
-0.3187000000000001,-33.81160006677438
-0.3197,-33.93892408376223
-0.3207000000000001,-34.06624810075008
-0.3217,-34.193572117737936
-0.3227000000000001,-34.377484586720385
-0.3237,-34.462367264712285
-0.3247000000000001,-34.58969128170015
-0.3257,-34.67457395969205
-0.3267000000000001,-34.75945663768395
-0.3277,-34.90092776767045
-0.3287000000000001,-35.02825178465831
-0.3297,-35.15557580164616
-0.3307000000000001,-35.282899818634014
-0.3317,-35.46681228761647
-0.3327000000000001,-35.636577643600276
-0.3337,-35.763901660588125
-0.3347000000000001,-35.90537279057463
-0.3357,-35.99025546856653
-0.3367000000000001,-36.11757948555439
-0.3377,-36.20246216354629
-0.3387000000000001,-36.37222751953009
-0.3397,-36.5136986495166
-0.3407000000000001,-36.6834640055004
-0.3417,-36.8532293614842
-0.3427000000000001,-37.037141830466666
-0.3437,-37.164465847454515
-0.3447000000000001,-37.291789864442364
-0.3457,-37.41911388143023
-0.3467000000000001,-37.51814367242077
-0.3477,-37.645467689408626
-0.3487000000000001,-37.81523304539243
-0.3497,-37.94255706238028
-0.3507000000000001,-38.16891087035869
-0.3517,-38.29623488734655
-0.3527000000000001,-38.522588695324956
-0.3537,-38.6499127123128
-0.3547000000000001,-38.777236729300654
-0.3557,-38.90456074628851
-0.35670000000000013,-39.046031876275016
-0.3577,-39.173355893262865
-0.35870000000000013,-39.34312124924667
-0.3597,-39.51288660523048
-0.36070000000000013,-39.696799074212926
-0.3617,-39.90900576919269
-0.3626999999999999,-40.092918238175145
-0.3637,-40.26268359415894
-0.3646999999999999,-40.3900076111468
-0.3657,-40.51733162813464
-0.3666999999999999,-40.701244097117105
-0.3677,-40.828568114104954
-0.3686999999999999,-40.99833347008877
-0.36970000000000003,-41.182245939071215
-0.3706999999999999,-41.352011295055014
-0.37170000000000003,-41.56421799003478
-0.3726999999999999,-41.79057179801318
-0.37370000000000003,-41.96033715399699
-0.3746999999999999,-42.130102509980794
-0.37570000000000003,-42.2715736399673
-0.3766999999999999,-42.4413389959511
-0.37770000000000004,-42.568663012938956
-0.3786999999999999,-42.752575481921404
-0.37970000000000004,-42.92234083790521
-0.3806999999999999,-43.134547532884966
-0.38170000000000004,-43.40334267985933
-0.38269999999999993,-43.57310803584313
-0.38370000000000004,-43.75702050482558
-0.38469999999999993,-43.92678586080939
-0.38570000000000004,-44.096551216793195
-0.38669999999999993,-44.28046368577565
-0.38770000000000004,-44.45022904175945
-0.38869999999999993,-44.619994397743255
-0.38970000000000005,-44.80390686672572
-0.39069999999999994,-45.01611356170547
-0.39170000000000005,-45.27076159568118
-0.39269999999999994,-45.497115403659585
-0.39370000000000005,-45.70932209863933
-0.39469999999999994,-45.89323456762179
-0.39570000000000005,-46.062999923605595
-0.39669999999999994,-46.2327652795894
-0.39770000000000005,-46.41667774857186
-0.39869999999999994,-46.628884443551605
-0.39970000000000006,-46.79864979953541
-0.40069999999999995,-47.02500360751382
-0.40170000000000006,-47.27965164148953
-0.40269999999999995,-47.506005449467935
-0.40370000000000006,-47.71821214444768
-0.40469999999999995,-47.93041883942744
-0.40570000000000006,-48.071889969413945
-0.40669999999999995,-48.2840966643937
-0.40770000000000006,-48.45386202037751
-0.40869999999999995,-48.68021582835591
-0.40970000000000006,-48.89242252333566
-0.41069999999999995,-49.118776331314066
-0.41170000000000007,-49.373424365289786
-0.41269999999999996,-49.642219512264134
-0.41370000000000007,-49.81198486824794
-0.41469999999999996,-50.024191563227696
-0.41570000000000007,-50.2505453712061
-0.41669999999999996,-50.42031072718991
-0.41770000000000007,-50.60422319617236
-0.41869999999999996,-50.81642989115212
-0.4197000000000001,-51.028636586131874
-0.42069999999999996,-51.29743173310623
-0.4217000000000001,-51.55207976708194
-0.42269999999999996,-51.82087491405629
-0.4237000000000001,-52.033081609036046
-0.42469999999999997,-52.25943541701445
-0.4257000000000001,-52.42920077299826
-0.42669999999999997,-52.64140746797801
-0.4277000000000001,-52.82531993696047
-0.42869999999999997,-53.079967970936174
-0.4297000000000001,-53.26388043991864
-0.43069999999999997,-53.56096981289029
-0.4317000000000001,-53.7873236208687
-0.4327,-54.08441299384035
-0.4337000000000001,-54.31076680181876
-0.4347,-54.52297349679851
-0.4357000000000001,-54.73518019177827
-0.4367,-54.961533999756675
-0.4377000000000001,-55.13129935574048
-0.4387,-55.400094502714836
-0.4397000000000001,-55.65474253669055
-0.4407,-55.9235376836649
-0.4417000000000001,-56.1781857176406
-0.4427,-56.44698086461496
-0.4437000000000001,-56.70162889859067
-0.4447,-56.927982706569075
-0.4457000000000001,-57.14018940154883
-0.4467,-57.352396096528594
-0.4477000000000001,-57.57874990450699
-0.4487,-57.79095659948675
-0.4497000000000001,-58.05975174646111
-0.4507,-58.31439978043681
-0.4517000000000001,-58.62563626640712
-0.4527,-58.880284300382826
-0.4537000000000001,-59.10663810836124
-0.4547,-59.36128614233694
-0.4557000000000001,-59.587639950315335
-0.4567,-59.7998466452951
-0.4577000000000001,-60.02620045327351
-0.4587,-60.28084848724921
-0.4597000000000001,-60.54964363422357
-0.4607,-60.80429166819927
-0.4617000000000001,-61.11552815416958
-0.4627,-61.37017618814529
-0.4637000000000001,-61.63897133511965
-0.4647,-61.851178030099405
-0.4657000000000001,-62.06338472507916
-0.4667,-62.28973853305756
-0.4677000000000001,-62.501945228037314
-0.4687,-62.77074037501168
-0.4697000000000001,-63.02538840898739
-0.4707,-63.3366248949577
-0.4717000000000001,-63.633714267929356
-0.4727,-63.902509414903705
-0.4737000000000001,-64.15715744887942
-0.4747,-64.42595259585376
-0.4757000000000001,-64.68060062982947
-0.4767,-64.90695443780788
-0.4777000000000001,-65.11916113278764
-0.4787,-65.38795627976201
-0.4797000000000001,-65.64260431373769
-0.4807,-65.95384079970802
-0.48170000000000013,-66.25093017267966
-0.4827,-66.56216665864997
-0.48370000000000013,-66.81681469262568
-0.4847,-67.08560983960004
-0.48570000000000013,-67.34025787357575
-0.4867,-67.6090530205501
-0.4876999999999999,-67.82125971552985
-0.4887,-68.13249620150016
-0.4896999999999999,-68.38714423547587
-0.4907,-68.69838072144618
-0.4916999999999999,-69.0096172074165
-0.4927,-69.30670658038814
-0.4936999999999999,-69.61794306635846
-0.49470000000000003,-69.87259110033416
-0.4956999999999999,-70.14138624730852
-0.49670000000000003,-70.39603428128423
-0.4976999999999999,-70.66482942825859
-0.49870000000000003,-70.91947746223428
-0.4996999999999999,-71.2307139482046
-0.5007,-71.58439177317086
-0.5016999999999999,-71.83903980714656
-0.5027,-72.19271763211282
-0.5036999999999999,-72.44736566608852
-0.5047,-72.75860215205884
-0.5056999999999999,-73.0556915250305
-0.5067,-73.2820453330089
-0.5076999999999999,-73.57913470598055
