Potential V vs RHE, Current mA cm-2
0.013299999999999867,0.6084673300719523
0.012299999999999978,-0.04582249900262853
0.011299999999999866,-0.3511313446265021
0.010299999999999976,-0.6128529351015338
0.009299999999999864,-0.7872868383748929
0.008299999999999974,-0.8745745255765657
0.007299999999999862,-1.0490084288499246
0.006299999999999972,-1.2671569112891135
0.00529999999999986,-1.4415908145624723
0.0042999999999999705,-1.5717442541500557
0.0032999999999998586,-1.6594563547416883
0.0022999999999999687,-1.7910245056291363
0.0012999999999998568,-2.008890045808352
0.00029999999999996696,-2.1828995356917518
-0.000700000000000145,-2.3144676865791998
-0.0017000000000000348,-2.4007650758709675
-0.0027000000000001467,-2.532333226758415
-0.0037000000000000366,-2.706342716641815
-0.0047000000000001485,-2.8803522065252145
-0.005700000000000038,-2.968064307116847
-0.00670000000000015,-3.055776407708479
-0.00770000000000004,-3.1859298472960624
-0.008700000000000152,-3.361354048479327
-0.009700000000000042,-3.5353635383627267
-0.010700000000000154,-3.623075638954359
-0.011700000000000044,-3.7093730282461257
-0.012700000000000156,-3.840941179133574
-0.013700000000000045,-4.014950669016974
-0.014700000000000157,-4.1889601589003735
-0.015700000000000047,-4.276672259492005
-0.01670000000000016,-4.3205283097878215
-0.01770000000000005,-4.450681749375406
-0.01870000000000016,-4.626105950558669
-0.01970000000000005,-4.756259390146253
-0.020700000000000163,-4.843971490737885
-0.021700000000000053,-4.887827541033701
-0.022700000000000164,-5.017980980621284
-0.023700000000000054,-5.149549131508733
-0.024700000000000166,-5.323558621392133
-0.025700000000000056,-5.411270721983764
-0.026700000000000168,-5.453712060979717
-0.027700000000000058,-5.585280211867165
-0.02870000000000017,-5.715433651454749
-0.02970000000000006,-5.890857852638012
-0.03070000000000017,-5.977155241929781
-0.03170000000000006,-6.021011292225596
-0.03270000000000017,-6.108723392817228
-0.03370000000000006,-6.282732882700628
-0.034700000000000175,-6.414301033588076
-0.035700000000000065,-6.500598422879844
-0.03670000000000018,-6.54445447317566
-0.03770000000000007,-6.632166573767292
-0.03870000000000018,-6.806176063650692
-0.03970000000000007,-6.93774421453814
-0.04070000000000018,-7.024041603829907
-0.04170000000000007,-7.067897654125724
-0.04270000000000018,-7.155609754717355
-0.04370000000000007,-7.28576319430494
-0.044700000000000184,-7.4173313451923875
-0.045700000000000074,-7.50504344578402
-0.046700000000000186,-7.5474847847799715
-0.047700000000000076,-7.635196885371603
-0.04870000000000019,-7.7653503249591855
-0.04970000000000008,-7.896918475846635
-0.05070000000000019,-7.984630576438266
-0.05170000000000008,-8.027071915434218
-0.05270000000000019,-8.11478401602585
-0.05370000000000008,-8.246352166913299
-0.05470000000000019,-8.376505606500881
-0.05570000000000008,-8.4203616567967
-0.056700000000000195,-8.464217707092514
-0.057700000000000085,-8.55051509638428
-0.058700000000000196,-8.68208324727173
-0.059700000000000086,-8.812236686859313
-0.0607000000000002,-8.85609273715513
-0.06170000000000009,-8.899948787450944
-0.0627000000000002,-8.987660888042578
-0.06370000000000009,-9.11781432763016
-0.0647000000000002,-9.24938247851761
-0.06570000000000009,-9.293238528813426
-0.0667000000000002,-9.335679867809377
-0.0677000000000001,-9.423391968401008
-0.0687000000000002,-9.55496011928846
-0.0697000000000001,-9.641257508580225
-0.07070000000000021,-9.728969609171857
-0.0717000000000001,-9.728969609171857
-0.07270000000000021,-9.81668170976349
-0.0737000000000001,-9.946835149351072
-0.07470000000000021,-10.034547249942705
-0.0757000000000001,-10.120844639234473
-0.07670000000000021,-10.120844639234473
-0.0777000000000001,-10.208556739826104
-0.07870000000000021,-10.340124890713554
-0.0797000000000001,-10.470278330301136
-0.08070000000000022,-10.470278330301136
-0.0817000000000001,-10.514134380596953
-0.08270000000000022,-10.557990430892769
-0.08370000000000011,-10.731999920776168
-0.08470000000000022,-10.819712021367803
-0.08570000000000011,-10.863568071663616
-0.08670000000000022,-10.906009410659568
-0.08770000000000011,-10.949865460955383
-0.08870000000000022,-11.081433611842833
-0.08970000000000011,-11.211587051430415
-0.09070000000000022,-11.211587051430415
-0.09170000000000011,-11.255443101726232
-0.09270000000000023,-11.343155202317865
-0.09370000000000012,-11.42945259160963
-0.09470000000000023,-11.517164692201263
-0.09570000000000012,-11.56102074249708
-0.09670000000000023,-11.604876792792895
-0.09770000000000012,-11.647318131788847
-0.09870000000000023,-11.778886282676295
-0.09970000000000012,-11.909039722263879
-0.10070000000000023,-11.909039722263879
-0.10170000000000012,-11.909039722263879
-0.10270000000000024,-11.996751822855511
-0.10370000000000013,-12.084463923447142
-0.10470000000000024,-12.214617363034726
-0.10570000000000013,-12.258473413330542
-0.10670000000000024,-12.258473413330542
-0.10770000000000013,-12.302329463626359
-0.10870000000000024,-12.432482903213943
-0.10970000000000013,-12.520195003805576
-0.11070000000000024,-12.56405105410139
-0.11170000000000013,-12.56405105410139
-0.11270000000000002,-12.651763154693022
-0.11370000000000013,-12.73806054398479
-0.11470000000000002,-12.825772644576423
-0.11570000000000014,-12.869628694872238
-0.11670000000000003,-12.869628694872238
-0.11770000000000014,-12.913484745168056
-0.11870000000000003,-13.043638184755638
-0.11970000000000014,-13.13135028534727
-0.12070000000000003,-13.13135028534727
-0.12170000000000014,-13.175206335643086
-0.12270000000000003,-13.217647674639037
-0.12370000000000014,-13.349215825526485
-0.12470000000000003,-13.3930718758223
-0.12570000000000014,-13.436927926118118
-0.12670000000000003,-13.436927926118118
-0.12770000000000015,-13.47936926511407
-0.12870000000000004,-13.610937416001518
-0.12970000000000015,-13.698649516593148
-0.13070000000000004,-13.698649516593148
-0.13170000000000015,-13.698649516593148
-0.13270000000000004,-13.784946905884919
-0.13370000000000015,-13.872659006476551
-0.13470000000000004,-13.960371107068182
-0.13570000000000015,-13.960371107068182
-0.13670000000000004,-13.960371107068182
-0.13770000000000016,-14.046668496359947
-0.13870000000000005,-14.13438059695158
-0.13970000000000016,-14.217848563643619
-0.14070000000000005,-14.217848563643619
-0.14170000000000016,-14.217848563643619
-0.14270000000000005,-14.26028990263957
-0.14370000000000016,-14.401761032626075
-0.14470000000000005,-14.444202371622024
-0.14570000000000016,-14.486643710617974
-0.14670000000000005,-14.486643710617974
-0.14770000000000016,-14.529085049613924
-0.14870000000000005,-14.61396772760583
-0.14970000000000017,-14.69885040559773
-0.15070000000000006,-14.741291744593681
-0.15170000000000017,-14.69885040559773
-0.15270000000000006,-14.741291744593681
-0.15370000000000017,-14.868615761581536
-0.15470000000000006,-14.925204213576137
-0.15570000000000017,-14.967645552572087
-0.15670000000000006,-14.967645552572087
-0.15770000000000017,-15.01008689156804
-0.15870000000000006,-15.094969569559943
-0.15970000000000018,-15.179852247551842
-0.16070000000000007,-15.179852247551842
-0.16170000000000018,-15.179852247551842
-0.16270000000000007,-15.222293586547794
-0.16370000000000018,-15.307176264539699
-0.16470000000000007,-15.3920589425316
-0.16570000000000018,-15.3920589425316
-0.16670000000000007,-15.3920589425316
-0.16770000000000018,-15.448647394526201
-0.16870000000000007,-15.533530072518102
-0.16970000000000018,-15.618412750510005
-0.17070000000000007,-15.618412750510005
-0.17170000000000019,-15.618412750510005
-0.17270000000000008,-15.660854089505953
-0.1737000000000002,-15.74573676749786
-0.17470000000000008,-15.830619445489761
-0.1757000000000002,-15.830619445489761
-0.17670000000000008,-15.830619445489761
-0.1777000000000002,-15.87306078448571
-0.17870000000000008,-15.972090575476265
-0.1797000000000002,-16.056973253468165
-0.18070000000000008,-16.056973253468165
-0.1817000000000002,-16.056973253468165
-0.18270000000000008,-16.099414592464115
-0.1837000000000002,-16.184297270456018
-0.1847000000000001,-16.269179948447924
-0.1857000000000002,-16.269179948447924
-0.1867000000000001,-16.22673860945197
-0.1877000000000002,-16.269179948447924
-0.1887000000000001,-16.396503965435777
-0.1897000000000002,-16.438945304431726
-0.1907000000000001,-16.438945304431726
-0.1917000000000001,-16.438945304431726
-0.19269999999999998,-16.495533756426326
-0.1937000000000001,-16.580416434418233
-0.19469999999999998,-16.665299112410132
-0.1957000000000001,-16.665299112410132
-0.19669999999999999,-16.665299112410132
-0.1977000000000001,-16.70774045140608
-0.1987,-16.792623129397985
-0.1997000000000001,-16.877505807389888
-0.2007,-16.877505807389888
-0.2017000000000001,-16.877505807389888
-0.2027,-16.877505807389888
-0.2037000000000001,-17.018976937376394
-0.2047,-17.061418276372343
-0.2057000000000001,-17.061418276372343
-0.2067,-17.061418276372343
-0.2077000000000001,-17.103859615368293
-0.2087,-17.188742293360193
-0.2097000000000001,-17.2736249713521
-0.2107,-17.2736249713521
-0.2117000000000001,-17.2736249713521
-0.2127,-17.316066310348052
-0.2137000000000001,-17.40094898833995
-0.2147,-17.48583166633185
-0.2157000000000001,-17.542420118326454
-0.2167,-17.48583166633185
-0.21770000000000012,-17.542420118326454
-0.2187,-17.627302796318357
-0.21970000000000012,-17.71218547431026
-0.2207,-17.71218547431026
-0.22170000000000012,-17.71218547431026
-0.2227,-17.75462681330621
-0.22370000000000012,-17.839509491298113
-0.2247,-17.924392169290012
-0.22570000000000012,-17.924392169290012
-0.2267,-17.924392169290012
-0.22770000000000012,-17.966833508285966
-0.22870000000000001,-18.06586329927652
-0.22970000000000013,-18.10830463827247
-0.23070000000000002,-18.19318731626437
-0.23170000000000013,-18.15074597726842
-0.23270000000000002,-18.19318731626437
-0.23370000000000013,-18.27806999425627
-0.23470000000000002,-18.362952672248177
-0.23570000000000013,-18.362952672248177
-0.23670000000000002,-18.362952672248177
-0.2376999999999999,-18.44783535024008
-0.23870000000000002,-18.53271802823198
-0.2396999999999999,-18.589306480226583
-0.24070000000000003,-18.631747819222536
-0.24169999999999991,-18.631747819222536
-0.24270000000000003,-18.674189158218486
-0.24369999999999992,-18.759071836210385
-0.24470000000000003,-18.843954514202288
-0.24569999999999992,-18.843954514202288
-0.24670000000000003,-18.843954514202288
-0.24769999999999992,-18.92883719219419
-0.24870000000000003,-19.01371987018609
-0.24969999999999992,-19.112749661176647
-0.25070000000000003,-19.112749661176647
-0.2516999999999999,-19.155191000172596
-0.25270000000000004,-19.197632339168546
-0.2536999999999999,-19.28251501716045
-0.25470000000000004,-19.367397695152352
-0.2556999999999999,-19.409839034148305
-0.25670000000000004,-19.409839034148305
-0.25769999999999993,-19.452280373144255
-0.25870000000000004,-19.537163051136158
-0.25969999999999993,-19.636192842126707
-0.26070000000000004,-19.636192842126707
-0.26169999999999993,-19.678634181122664
-0.26270000000000004,-19.721075520118614
-0.26369999999999993,-19.805958198110513
-0.26470000000000005,-19.93328221509837
-0.26569999999999994,-19.93328221509837
-0.26670000000000005,-19.97572355409432
-0.26769999999999994,-20.01816489309027
-0.26870000000000005,-20.10304757108217
-0.26969999999999994,-20.202077362072725
-0.27070000000000005,-20.286960040064624
-0.27169999999999994,-20.244518701068674
-0.27270000000000005,-20.329401379060574
-0.27369999999999994,-20.456725396048434
-0.27470000000000006,-20.541608074040333
-0.27569999999999995,-20.584049413036283
-0.27670000000000006,-20.584049413036283
-0.27769999999999995,-20.626490752032236
-0.27870000000000006,-20.76796188201874
-0.27969999999999995,-20.89528589900659
-0.28070000000000006,-20.89528589900659
-0.28169999999999995,-20.93772723800254
-0.28270000000000006,-21.022609915994444
-0.28369999999999995,-21.107492593986347
-0.28470000000000006,-21.248963723972853
-0.28569999999999995,-21.248963723972853
-0.28670000000000007,-21.291405062968803
-0.28769999999999996,-21.376287740960702
-0.28870000000000007,-21.503611757948562
-0.28969999999999996,-21.58849443594046
-0.29070000000000007,-21.63093577493641
-0.29169999999999996,-21.67337711393236
-0.29270000000000007,-21.772406904922917
-0.29369999999999996,-21.857289582914817
-0.2947000000000001,-21.98461359990267
-0.29569999999999996,-22.027054938898623
-0.2967000000000001,-22.069496277894572
-0.29769999999999996,-22.111937616890522
-0.2987000000000001,-22.253408746877028
-0.29969999999999997,-22.38073276386488
-0.3007000000000001,-22.42317410286083
-0.30169999999999997,-22.46561544185678
-0.3027000000000001,-22.550498119848687
-0.30369999999999997,-22.67782213683654
-0.3047000000000001,-22.819293266823045
-0.30569999999999997,-22.904175944814945
-0.3067000000000001,-22.904175944814945
-0.3077,-22.989058622806844
-0.3087000000000001,-23.15882397879065
-0.3097,-23.300295108777156
-0.3107000000000001,-23.342736447773106
-0.3117,-23.342736447773106
-0.3127000000000001,-23.47006046476096
-0.3137,-23.639825820744765
-0.3147000000000001,-23.724708498736668
-0.3157,-23.823738289727217
-0.3167000000000001,-23.86617962872317
-0.3177,-23.951062306715073
-0.3187000000000001,-24.120827662698876
-0.3197,-24.24815167968673
-0.3207000000000001,-24.34718147067728
-0.3217,-24.389622809673234
-0.3227000000000001,-24.474505487665134
-0.3237,-24.64427084364894
-0.3247000000000001,-24.771594860636792
-0.3257,-24.870624651627345
-0.3267000000000001,-24.9130659906233
-0.3277,-24.997948668615198
-0.3287000000000001,-25.167714024599
-0.3297,-25.337479380582806
-0.3307000000000001,-25.39406783257741
-0.3317,-25.478950510569312
-0.3327000000000001,-25.563833188561212
-0.3337,-25.73359854454502
-0.3347000000000001,-25.91751101352747
-0.3357,-25.959952352523427
-0.3367000000000001,-26.044835030515326
-0.3377,-26.17215904750318
-0.3387000000000001,-26.34192440348698
-0.3397,-26.483395533473487
-0.3407000000000001,-26.568278211465387
-0.3417,-26.65316088945729
-0.3427000000000001,-26.780484906445146
-0.3437,-26.907808923433
-0.3447000000000001,-27.134162731411404
-0.3457,-27.219045409403304
-0.3467000000000001,-27.261486748399253
-0.3477,-27.43125210438306
-0.3487000000000001,-27.615164573365515
-0.3497,-27.742488590353368
-0.3507000000000001,-27.869812607341224
-0.3517,-27.954695285333123
-0.3527000000000001,-28.09616641531963
-0.3537,-28.265931771303435
-0.3547000000000001,-28.435697127287238
-0.3557,-28.53472691827779
-0.35670000000000013,-28.619609596269694
-0.3577,-28.746933613257543
-0.35870000000000013,-28.959140308237306
-0.3597,-29.14305277721976
-0.36070000000000013,-29.22793545521166
-0.3617,-29.35525947219951
-0.3626999999999999,-29.482583489187363
-0.3637,-29.66649595816982
-0.3646999999999999,-29.836261314153624
-0.3657,-29.96358533114148
-0.3666999999999999,-30.04846800913338
-0.3677,-30.189939139119886
-0.3686999999999999,-30.402145834099635
-0.36970000000000003,-30.571911190083444
-0.3706999999999999,-30.71338232006995
-0.37170000000000003,-30.79826499806185
-0.3726999999999999,-30.968030354045652
-0.37370000000000003,-31.137795710029454
-0.3746999999999999,-31.321708179011907
-0.37570000000000003,-31.449032195999767
-0.3766999999999999,-31.57635621298762
-0.37770000000000004,-31.717827342974125
-0.3786999999999999,-31.930034037953877
-0.37970000000000004,-32.09979939393769
-0.3806999999999999,-32.24127052392419
-0.38170000000000004,-32.368594540912035
-0.38269999999999993,-32.49591855789989
-0.38370000000000004,-32.70812525287965
-0.38469999999999993,-32.892037721862096
-0.38570000000000004,-33.01936173884996
-0.38669999999999993,-33.14668575583781
-0.38770000000000004,-33.288156885824314
-0.38869999999999993,-33.50036358080407
-0.38970000000000005,-33.712570275783825
-0.39069999999999994,-33.85404140577033
-0.39170000000000005,-33.98136542275818
-0.39269999999999994,-34.10868943974604
-0.39370000000000005,-34.33504324772444
-0.39469999999999994,-34.5472499427042
-0.39570000000000005,-34.632132620696105
-0.39669999999999994,-34.75945663768395
-0.39770000000000005,-34.94336910666641
-0.39869999999999994,-35.15557580164616
-0.39970000000000006,-35.38192960962457
-0.40069999999999995,-35.50925362661242
-0.40170000000000006,-35.636577643600276
-0.40269999999999995,-35.806342999584075
-0.40370000000000006,-36.03269680756248
-0.40469999999999995,-36.20246216354629
-0.40570000000000006,-36.329786180534136
-0.40669999999999995,-36.5136986495166
-0.40770000000000006,-36.64102266650445
-0.40869999999999995,-36.8532293614842
-0.40970000000000006,-37.07958316946261
-0.41069999999999995,-37.206907186450465
-0.41170000000000007,-37.334231203438314
-0.41269999999999996,-37.51814367242077
-0.41370000000000007,-37.73035036740053
-0.41469999999999996,-37.94255706238028
-0.41570000000000007,-38.08402819236679
-0.41669999999999996,-38.211352209354644
-0.41770000000000007,-38.38111756533845
-0.41869999999999996,-38.607471373316855
-0.4197000000000001,-38.86211940729255
-0.42069999999999996,-38.98944342428042
-0.4217000000000001,-39.130914554266916
-0.42269999999999996,-39.30067991025072
-0.4237000000000001,-39.47044526623452
-0.42469999999999997,-39.696799074212926
-0.4257000000000001,-39.86656443019674
-0.42669999999999997,-39.95144710818864
-0.4277000000000001,-40.177800916167044
-0.42869999999999997,-40.3900076111468
-0.4297000000000001,-40.616361419125205
-0.43069999999999997,-40.743685436113054
-0.4317000000000001,-40.91345079209687
-0.4327,-41.083216148080666
-0.4337000000000001,-41.30956995605907
-0.4347,-41.52177665103883
-0.4357000000000001,-41.70568912002128
-0.4367,-41.83301313700913
-0.4377000000000001,-42.04521983198889
-0.4387,-42.2715736399673
-0.4397000000000001,-42.483780334947056
-0.4407,-42.653545690930855
-0.4417000000000001,-42.79501682091736
-0.4427,-42.96478217690117
-0.4437000000000001,-43.23357732387552
-0.4447,-43.44578401885527
-0.4457000000000001,-43.57310803584313
-0.4467,-43.75702050482558
-0.4477000000000001,-43.92678586080939
-0.4487,-44.138992555789144
-0.4497000000000001,-44.4077877027635
-0.4507,-44.577553058747306
-0.4517000000000001,-44.704877075735155
-0.4527,-44.93123088371356
-0.4537000000000001,-45.143437578693316
-0.4547,-45.412232725667685
-0.4557000000000001,-45.581998081651484
-0.4567,-45.70932209863933
-0.4577000000000001,-45.93567590661774
-0.4587,-46.19032394059345
-0.4597000000000001,-46.41667774857186
-0.4607,-46.586443104555656
-0.4617000000000001,-46.75620846053947
-0.4627,-46.94012092952192
-0.4637000000000001,-47.19476896349763
-0.4647,-47.46356411047198
-0.4657000000000001,-47.633329466455784
-0.4667,-47.80309482243959
-0.4677000000000001,-48.029448630417996
-0.4687,-48.24165532539775
-0.4697000000000001,-48.51045047237211
-0.4707,-48.68021582835591
-0.4717000000000001,-48.89242252333566
-0.4727,-49.076334992318124
-0.4737000000000001,-49.33098302629383
-0.4747,-49.59977817326819
-0.4757000000000001,-49.85442620724389
-0.4767,-49.98175022423175
-0.4777000000000001,-50.1656626932142
-0.4787,-50.46275206618586
-0.4797000000000001,-50.73154721316022
-0.4807,-50.90131256914402
-0.48170000000000013,-51.071077925127824
-0.4827,-51.29743173310623
-0.48370000000000013,-51.594521106077885
-0.4847,-51.86331625305225
-0.48570000000000013,-52.033081609036046
-0.4867,-52.25943541701445
-0.4876999999999999,-52.471642111994214
-0.4887,-52.78287859796452
-0.4896999999999999,-53.03752663194023
-0.4907,-53.26388043991864
-0.4916999999999999,-53.476087134898386
-0.4927,-53.68829382987814
-0.4936999999999999,-53.999530315848446
-0.49470000000000003,-54.31076680181876
-0.4956999999999999,-54.52297349679851
-0.49670000000000003,-54.69273885278232
-0.4976999999999999,-54.919092660760725
-0.49870000000000003,-55.21618203373238
-0.4996999999999999,-55.527418519702685
-0.5007,-55.73962521468245
-0.5016999999999999,-55.9235376836649
-0.5027,-56.1781857176406
-0.5036999999999999,-56.489422203610914
-0.5047,-56.74407023758662
-0.5056999999999999,-57.012865384560975
-0.5067,-57.182630740544774
