Potential V vs RHE, Current mA cm-2
0.4132999999999999,0.001301109982485874
0.4122999999999999,-0.00040446596063141394
0.4112999999999999,-0.0008957951950745413
0.4102999999999999,-0.0011720883119381831
0.4092999999999999,-0.0014038180228560758
0.4082999999999999,-0.0015519382959519451
0.4072999999999999,-0.0017457537440334554
0.4062999999999999,-0.0018957131418191493
0.4052999999999999,-0.0020584049413036286
0.4042999999999999,-0.0022069496277894573
0.4032999999999999,-0.0022989058622806847
0.4022999999999999,-0.0024347181470677284
0.4012999999999999,-0.002573359854454502
0.4002999999999999,-0.002662486666345999
0.3992999999999999,-0.0027869812607341222
0.3982999999999999,-0.0029072317212226503
0.3972999999999999,-0.0030147497800123934
0.3962999999999999,-0.003125097261401866
0.3952999999999999,-0.0032057358054941735
0.3942999999999999,-0.0032962773286855356
0.39329999999999987,-0.003388233563176763
0.39229999999999987,-0.003515557580164616
0.39129999999999987,-0.0036075138146558433
0.39029999999999987,-0.0036740052457495
0.38929999999999987,-0.0037404966768431573
0.38829999999999987,-0.0038550882921322242
0.38729999999999987,-0.0039385562588242625
0.38629999999999987,-0.004034756627215085
0.38529999999999986,-0.004119639305206987
0.38429999999999986,-0.004184716025000778
0.38329999999999986,-0.00426676928039295
0.38229999999999986,-0.004371457916582963
0.38129999999999986,-0.00443511992507689
0.38029999999999986,-0.0044987819335708164
0.37929999999999986,-0.004570932209863933
0.37829999999999986,-0.004637423640957591
0.37729999999999986,-0.004736453431948143
0.37629999999999986,-0.0047987007291422044
0.37529999999999986,-0.00484538620203775
0.37429999999999986,-0.004933098302629383
0.37329999999999985,-0.004999589733723039
0.37229999999999985,-0.0050901312569144016
0.37129999999999985,-0.005132572595910353
0.37029999999999985,-0.005203308160903605
0.36929999999999985,-0.005271214303297127
0.36829999999999985,-0.005316485064892808
0.36729999999999985,-0.005421173701082821
0.36629999999999985,-0.005472103307877962
0.36529999999999985,-0.005534350605072023
0.36429999999999985,-0.005612159726564601
0.36329999999999985,-0.005648942220361092
0.36229999999999984,-0.005750801433951375
0.36129999999999984,-0.005820122287644761
0.36029999999999984,-0.005855490070141387
0.35929999999999984,-0.005936128614233694
0.35829999999999984,-0.005964422840230995
0.35729999999999984,-0.006042231961723572
0.35629999999999984,-0.006107308681517363
0.35529999999999984,-0.006148335309213449
0.35429999999999984,-0.006210582606407511
0.35329999999999984,-0.006261512213202652
0.35229999999999984,-0.00634215075729496
0.35129999999999983,-0.006402983343189157
0.35029999999999983,-0.006441180548285512
0.34929999999999983,-0.006486451309881193
0.34829999999999983,-0.00653596620537647
0.34729999999999983,-0.006609531192969452
0.34629999999999983,-0.006684510891862298
0.34529999999999983,-0.00671846396305906
0.34429999999999983,-0.00675524645685555
0.3432999999999998,-0.006825982021848803
0.3422999999999998,-0.006886814607743
0.3412999999999998,-0.00695472075013652
0.3402999999999998,-0.0069915032439330106
0.3392999999999998,-0.007007065068231527
0.3382999999999998,-0.007069312365425588
0.3372999999999998,-0.007152780332117625
0.3362999999999998,-0.007183903980714656
0.3352999999999998,-0.007234833587509797
0.3342999999999998,-0.007295666173403994
0.3332999999999998,-0.0073508399140987295
0.3322999999999998,-0.007437137303390498
0.3312999999999998,-0.007472505085887124
0.3302999999999998,-0.007537581805680916
0.3292999999999998,-0.007587096701176191
0.3282999999999998,-0.007632367462771873
0.3272999999999998,-0.0077031030277651255
0.3262999999999998,-0.007745544366761076
0.3252999999999999,-0.007779497437957837
0.3242999999999999,-0.007824768199553517
0.3232999999999999,-0.007860135982050145
0.3222999999999999,-0.007953506927841237
0.3212999999999999,-0.008004436534636379
0.3202999999999999,-0.008012924802435569
0.3192999999999999,-0.008082245656128955
0.3182999999999999,-0.008127516417724636
0.3172999999999999,-0.008178446024519778
0.3162999999999999,-0.008230790342614784
0.3152999999999999,-0.008249181589513028
0.3142999999999999,-0.008318502443206416
0.3132999999999999,-0.008348211380503581
0.3122999999999999,-0.008416117522897103
0.3112999999999999,-0.008481194242690896
0.3102999999999999,-0.0085052443347886
0.3092999999999999,-0.008577394611081717
0.3082999999999999,-0.0086226653726774
0.3072999999999999,-0.008656618443874161
0.3062999999999999,-0.008714621607168627
0.3052999999999999,-0.00874715996706552
0.3042999999999999,-0.008774039481762958
0.3032999999999999,-0.008832042645057424
0.3022999999999999,-0.0088815575405527
0.3012999999999999,-0.008931072436047977
0.3002999999999999,-0.008967854929844466
0.2992999999999999,-0.009006052134940823
0.2982999999999999,-0.00905839645303583
0.2972999999999999,-0.009116399616330297
0.2962999999999999,-0.009189964603923278
0.2952999999999999,-0.009204111716921927
0.2942999999999999,-0.009223917675120038
0.2932999999999999,-0.009276261993215046
0.2922999999999999,-0.009362559382506812
0.2912999999999999,-0.009400756587603169
0.2902999999999999,-0.009441783215299255
0.2892999999999999,-0.009492712822094396
0.2882999999999999,-0.009508274646392912
0.2872999999999999,-0.00959457203568468
0.2862999999999999,-0.009618622127782386
0.2852999999999999,-0.009659648755478471
0.2842999999999999,-0.00970774893967388
0.2832999999999999,-0.009743116722170509
0.2822999999999999,-0.009809608153264164
0.2812999999999999,-0.009863367182659035
0.2802999999999999,-0.009895905542555932
0.2792999999999999,-0.009944005726751342
0.2782999999999999,-0.009980788220547833
0.2772999999999999,-0.010038791383842298
0.2762999999999999,-0.01008406214543798
0.2752999999999999,-0.010089720990637442
0.2742999999999999,-0.010129332907033663
0.2732999999999999,-0.01018167722512867
0.2722999999999999,-0.010225533275424485
0.2712999999999999,-0.010309001242116523
0.2702999999999999,-0.010320318932515442
0.2692999999999999,-0.010362760271511394
0.26829999999999987,-0.010410860455706805
0.26729999999999987,-0.010441984104303836
0.26629999999999987,-0.010504231401497898
0.26529999999999987,-0.010519793225796412
0.26429999999999987,-0.010584869945590204
0.26329999999999987,-0.01063155541848575
0.26229999999999987,-0.010681070313981028
0.26129999999999987,-0.010736244054675765
0.26029999999999986,-0.01076595299197293
0.25929999999999986,-0.010785758950171039
0.25829999999999986,-0.010839517979565911
0.25729999999999986,-0.010908838833259297
0.25629999999999986,-0.010956939017454708
0.25529999999999986,-0.010997965645150794
0.25429999999999986,-0.01099938035645066
0.25329999999999986,-0.011040406984146746
0.25229999999999986,-0.011121045528239054
0.25129999999999986,-0.01117338984633406
0.25029999999999986,-0.011205928206230956
0.24929999999999986,-0.011269590214724881
0.24829999999999985,-0.011319105110220157
0.24729999999999985,-0.011412476056011252
0.24629999999999985,-0.011412476056011252
0.24529999999999985,-0.011469064508005854
0.24429999999999985,-0.011515749980901399
0.24329999999999985,-0.011534141227799643
0.24229999999999985,-0.011606291504092762
0.24129999999999985,-0.011643073997889252
0.24029999999999985,-0.011652976976988307
0.23929999999999985,-0.011727956675881154
0.23829999999999985,-0.01175766561317832
0.23729999999999984,-0.011824157044271977
0.23629999999999984,-0.011892063186665499
0.23529999999999984,-0.011909039722263879
0.23429999999999984,-0.011947236927360235
0.23329999999999984,-0.011967042885558346
0.23229999999999984,-0.012025046048852812
0.23129999999999984,-0.012098611036445793
0.23029999999999984,-0.012097196325145929
0.22929999999999984,-0.012150955354540801
0.22829999999999984,-0.012201884961335941
0.22729999999999984,-0.012247155722931623
0.22629999999999983,-0.012306573597525955
0.22529999999999983,-0.012346185513922175
0.22429999999999983,-0.012357503204321095
0.22329999999999983,-0.012435312325813672
0.22229999999999983,-0.012477753664809623
0.22129999999999983,-0.012525853849005035
0.22029999999999983,-0.012559806920201795
0.21929999999999983,-0.012609321815697072
0.21829999999999983,-0.012658836711192348
0.21729999999999983,-0.012721084008386408
0.21629999999999983,-0.012767769481281955
0.21529999999999982,-0.01279464899597939
0.21429999999999982,-0.012832846201075748
0.21329999999999982,-0.012873872828771834
0.21229999999999982,-0.012955926084164005
0.21129999999999982,-0.012965829063263061
0.21029999999999982,-0.013013929247458473
0.20929999999999982,-0.013056370586454424
0.20829999999999982,-0.01309739721415051
0.20729999999999982,-0.013182279892142412
0.20629999999999982,-0.013216232963339174
0.20529999999999982,-0.013250186034535932
0.20429999999999982,-0.013325165733428781
0.20329999999999981,-0.013366192361124867
0.2022999999999998,-0.013446830905217174
0.2012999999999998,-0.013483613399013664
0.20029999999999992,-0.013489272244213124
0.19929999999999992,-0.013555763675306783
0.19829999999999992,-0.013588302035203677
0.19729999999999992,-0.013651964043697605
0.19629999999999992,-0.013707137784392339
0.19529999999999992,-0.01372128489739099
0.19429999999999992,-0.013827388244880869
0.19329999999999992,-0.0138868061194752
0.19229999999999992,-0.013896709098574253
0.19129999999999991,-0.013950468127969127
0.1902999999999999,-0.013961785818368048
0.1892999999999999,-0.01401554484776292
0.1882999999999999,-0.01407496272235725
0.1872999999999999,-0.014123062906552662
0.1862999999999999,-0.014161260111649017
0.1852999999999999,-0.014189554337646317
0.1842999999999999,-0.014231995676642267
0.1832999999999999,-0.014288584128636872
0.1822999999999999,-0.014359319693630123
0.1812999999999999,-0.014415908145624722
0.1802999999999999,-0.014444202371622025
0.1792999999999999,-0.014486643710617976
0.1782999999999999,-0.014529085049613928
0.1772999999999999,-0.014599820614607179
0.1762999999999999,-0.01465640906660178
0.1752999999999999,-0.014684703292599082
0.1742999999999999,-0.014741291744593682
0.1732999999999999,-0.014769585970590984
0.1722999999999999,-0.014854468648582884
0.1712999999999999,-0.014882762874580187
0.1702999999999999,-0.014939351326574786
0.1692999999999999,-0.014981792665570736
0.1682999999999999,-0.01503838111756534
0.1672999999999999,-0.015109116682558592
0.1662999999999999,-0.015151558021554544
0.1652999999999999,-0.015179852247551842
0.1642999999999999,-0.015236440699546445
0.1632999999999999,-0.015264734925543746
0.1622999999999999,-0.015349617603535646
0.1612999999999999,-0.015392058942531598
0.1602999999999999,-0.015406206055530251
0.1592999999999999,-0.015476941620523503
0.15829999999999989,-0.015505235846520802
0.15729999999999988,-0.015561824298515404
0.15629999999999988,-0.015632559863508654
0.15529999999999988,-0.015660854089505957
0.15429999999999988,-0.01568914831550326
0.15329999999999988,-0.01575988388049651
0.15229999999999988,-0.01580232521949246
0.15129999999999988,-0.01585891367148706
0.15029999999999988,-0.015873060784485714
0.14929999999999988,-0.015929649236480315
0.14829999999999988,-0.016000384801473564
0.14729999999999988,-0.016056973253468165
0.14629999999999987,-0.01611356170546277
0.14529999999999987,-0.01614185593146007
0.14429999999999987,-0.01619844438345467
0.14329999999999987,-0.016269179948447923
0.14229999999999987,-0.016325768400442524
0.14129999999999987,-0.016368209739438477
0.14029999999999987,-0.016410651078434424
0.13929999999999987,-0.016438945304431726
0.13829999999999987,-0.01650968086942498
0.13729999999999987,-0.01658041643441823
0.13629999999999987,-0.016637004886412832
0.13529999999999986,-0.016679446225408782
0.13429999999999986,-0.016721887564404736
0.13329999999999986,-0.016764328903400686
0.13229999999999986,-0.016849211581392583
0.13129999999999986,-0.016891652920388536
0.13029999999999986,-0.016948241372383138
0.12929999999999986,-0.017004829824377742
0.12829999999999986,-0.017047271163373692
0.12729999999999986,-0.017118006728366945
0.12629999999999986,-0.017174595180361543
0.12529999999999986,-0.017202889406358845
0.12429999999999986,-0.017259477858353446
0.12329999999999985,-0.0173019191973494
0.12229999999999985,-0.017372654762342652
0.12129999999999985,-0.017429243214337253
0.12029999999999985,-0.017457537440334552
0.11929999999999985,-0.0175282730053278
0.11829999999999985,-0.017584861457322406
0.11729999999999985,-0.01766974413531431
0.11629999999999985,-0.01772633258730891
0.11529999999999985,-0.017754626813306213
0.11429999999999985,-0.01781121526530081
0.11329999999999985,-0.01785365660429676
0.11229999999999984,-0.017924392169290013
0.11129999999999984,-0.017966833508285963
0.11029999999999984,-0.018009274847281917
0.10929999999999984,-0.018065863299276518
0.10829999999999984,-0.018150745977268422
0.10729999999999984,-0.01820733442926302
0.10629999999999984,-0.018263922881257624
0.10529999999999984,-0.018306364220253574
0.10429999999999984,-0.018348805559249524
0.10329999999999984,-0.018433688237241428
0.10229999999999984,-0.01850442380223468
0.10129999999999983,-0.01856101225422928
0.10029999999999983,-0.018603453593225232
0.09929999999999983,-0.018660042045219833
0.09829999999999983,-0.018730777610213082
0.09729999999999983,-0.018801513175206338
0.09629999999999983,-0.01885810162720094
0.09529999999999983,-0.01891469007919554
0.09429999999999983,-0.01897127853119014
0.09329999999999983,-0.019042014096183394
0.09229999999999983,-0.019126896774175294
0.09129999999999983,-0.0191551910001726
0.09029999999999982,-0.01922592656516585
0.08929999999999982,-0.01928251501716045
0.08829999999999982,-0.01933910346915505
0.08729999999999982,-0.019423986147146955
0.08629999999999982,-0.019480574599141553
0.08529999999999982,-0.019551310164134805
0.08429999999999982,-0.019607898616129407
0.08329999999999982,-0.01965033995512536
0.08229999999999982,-0.019749369746115915
0.08129999999999982,-0.019820105311109164
0.08029999999999982,-0.019876693763103765
0.07929999999999982,-0.019947429328097017
0.07829999999999981,-0.020018164893090266
0.07729999999999981,-0.02008890045808352
0.07629999999999981,-0.02015963602307677
0.07529999999999992,-0.02020207736207272
0.07429999999999992,-0.020272812927065977
0.07329999999999992,-0.020343548492059226
0.07229999999999992,-0.02042843117005113
0.07129999999999992,-0.020499166735044382
0.07029999999999992,-0.02055575518703898
0.06929999999999992,-0.020612343639033585
0.06829999999999992,-0.020683079204026837
0.06729999999999992,-0.020767961882018737
0.06629999999999991,-0.02086699167300929
0.06529999999999991,-0.020923580125003893
0.06429999999999991,-0.020966021463999843
0.06329999999999991,-0.021036757028993096
0.06229999999999991,-0.021135786819983647
0.06129999999999991,-0.0212065223849769
0.06029999999999991,-0.021277257949970152
0.05929999999999991,-0.021333846401964753
0.05829999999999991,-0.021418729079956657
0.05729999999999991,-0.021517758870947205
0.056299999999999906,-0.021560200209943158
0.055299999999999905,-0.02161678866193776
0.054299999999999904,-0.021687524226931015
0.0532999999999999,-0.021772406904922915
0.0522999999999999,-0.02185728958291482
0.0512999999999999,-0.02194217226090672
0.0502999999999999,-0.02199876071290132
0.0492999999999999,-0.02205534916489592
0.0482999999999999,-0.022140231842887825
0.0472999999999999,-0.022253408746877028
0.0462999999999999,-0.02230999719887163
0.045299999999999896,-0.02238073276386488
0.044299999999999895,-0.022479762554855433
0.043299999999999894,-0.022536351006850038
0.04229999999999989,-0.022621233684841938
0.04129999999999989,-0.02267782213683654
0.04029999999999989,-0.02276270481482844
0.03929999999999989,-0.022833440379821688
0.03829999999999989,-0.022890028831816296
0.03729999999999989,-0.022989058622806844
0.03629999999999989,-0.0230597941878001
0.03529999999999989,-0.023116382639794698
0.034299999999999886,-0.02318711820478795
0.033299999999999885,-0.023257853769781203
0.032299999999999884,-0.023356883560771757
0.031299999999999883,-0.02341347201276636
0.030299999999999883,-0.02347006046476096
0.02929999999999988,-0.02355494314275286
0.02829999999999988,-0.02365397293374341
0.02729999999999988,-0.02373885561173532
0.02629999999999988,-0.023809591176728567
0.025299999999999878,-0.023866179628723165
0.024299999999999877,-0.02393691519371642
0.023299999999999876,-0.024021797871708325
0.022299999999999875,-0.024106680549700225
0.021299999999999875,-0.02417741611469348
0.020299999999999874,-0.02426229879268538
0.019299999999999873,-0.024318887244679982
0.018299999999999872,-0.024417917035670533
0.01729999999999987,-0.024502799713662437
0.01629999999999987,-0.024545241052658383
0.01529999999999987,-0.024644270843648942
0.014299999999999868,-0.024729153521640842
0.013299999999999867,-0.02479988908663409
0.012299999999999978,-0.024898918877624646
0.011299999999999866,-0.024969654442617898
0.010299999999999976,-0.025040390007611147
0.009299999999999864,-0.0251111255726044
0.008299999999999974,-0.025196008250596303
0.007299999999999862,-0.025280890928588207
0.006299999999999972,-0.025365773606580107
0.00529999999999986,-0.02545065628457201
0.0042999999999999705,-0.025521391849565263
0.0032999999999998586,-0.025592127414558512
0.0022999999999999687,-0.02573359854454502
0.0012999999999998568,-0.025790186996539618
0.00029999999999996696,-0.025846775448534223
-0.000700000000000145,-0.02594580523952477
-0.0017000000000000348,-0.026016540804518026
-0.0027000000000001467,-0.02612971770850723
-0.0037000000000000366,-0.02622874749949778
-0.0047000000000001485,-0.02628533595149238
-0.005700000000000038,-0.026384365742482933
-0.00670000000000015,-0.02645510130747619
-0.00770000000000004,-0.026539983985468085
-0.008700000000000152,-0.026639013776458643
-0.009700000000000042,-0.026709749341451892
-0.010700000000000154,-0.02682292624544109
-0.011700000000000044,-0.026907808923433
-0.012700000000000156,-0.0270209858274222
-0.013700000000000045,-0.02709172139241545
-0.014700000000000157,-0.027148309844410055
-0.015700000000000047,-0.027247339635400606
-0.01670000000000016,-0.027332222313392506
-0.01770000000000005,-0.027445399217381712
-0.01870000000000016,-0.027516134782374965
-0.01970000000000005,-0.027601017460366868
-0.020700000000000163,-0.027657605912361466
-0.021700000000000053,-0.02775663570335202
-0.022700000000000164,-0.02788395972033987
-0.023700000000000054,-0.027954695285333123
-0.024700000000000166,-0.028053725076323675
-0.025700000000000056,-0.028124460641316927
-0.026700000000000168,-0.028237637545306133
-0.027700000000000058,-0.028350814449295336
-0.02870000000000017,-0.028421550014288588
-0.02970000000000006,-0.02852057980527914
-0.03070000000000017,-0.02860546248327104
-0.03170000000000006,-0.028690345161262943
-0.03270000000000017,-0.02880352206525215
-0.03370000000000006,-0.02888840474324405
-0.034700000000000175,-0.0289591403082373
-0.035700000000000065,-0.029058170099227856
-0.03670000000000018,-0.029143052777219756
-0.03770000000000007,-0.02927037679420761
-0.03870000000000018,-0.029369406585198165
-0.03970000000000007,-0.029425995037192763
-0.04070000000000018,-0.029553319054180613
-0.04170000000000007,-0.029624054619173872
-0.04270000000000018,-0.029765525749160374
-0.04370000000000007,-0.029836261314153626
-0.044700000000000184,-0.029892849766148224
-0.045700000000000074,-0.029991879557138775
-0.046700000000000186,-0.030090909348129333
-0.047700000000000076,-0.030204086252118532
-0.04870000000000019,-0.030317263156107735
-0.04970000000000008,-0.030387998721100987
-0.05070000000000019,-0.03047288139909289
-0.05170000000000008,-0.03058605830308209
-0.05270000000000019,-0.030699235207071292
-0.05370000000000008,-0.03079826499806185
-0.05470000000000019,-0.030883147676053754
-0.05570000000000008,-0.030939736128048352
-0.056700000000000195,-0.031052913032037555
-0.057700000000000085,-0.031151942823028106
-0.058700000000000196,-0.03123682550102001
-0.059700000000000086,-0.03133585529201056
-0.0607000000000002,-0.03140659085700381
-0.06170000000000009,-0.03151976776099302
-0.0627000000000002,-0.03164709177798087
