July 12, 2024   16:19:43
Cyclic Voltammetry
File: c:/users/guazh/data/20240709_batch67/2024-07-10-exp23\exp23-2024-07-12t16_10_58-arkoh\exp23_cv_50mvs_efin_-1600mv.bin
Data Source:  Experiment
Instrument Model:  CHI760E
Header: CV ran at 50 mVs
Note: 

Init E (V) = -1
High E (V) = -1
Low E (V) = -1.6
Final E (V) = -1
Init P/N = N
Scan Rate (V/s) = 0.05
Segment = 7
Sample Interval (V) = 0.001
Quiet Time (sec) = 60
Sensitivity (A/V) = 0.001
Comp R (ohm) = 1.7

Results:

Channel 1:
Segment 1:

Segment 2:

Segment 3:

Segment 4:

Segment 5:

Segment 6:

Segment 7:

Potential/V, Current/A

-1.000, 1.029e-6
-1.001, 1.000e-6
-1.002, 1.029e-6
-1.003, 1.223e-6
-1.004, 1.407e-6
-1.005, 1.438e-6
-1.006, 1.186e-6
-1.007, 1.230e-6
-1.008, 1.383e-6
-1.009, 1.525e-6
-1.010, 1.552e-6
-1.011, 1.356e-6
-1.012, 1.321e-6
-1.013, 1.525e-6
-1.014, 1.683e-6
-1.015, 1.660e-6
-1.016, 1.465e-6
-1.017, 1.452e-6
-1.018, 1.657e-6
-1.019, 1.744e-6
-1.020, 1.751e-6
-1.021, 1.549e-6
-1.022, 1.561e-6
-1.023, 1.741e-6
-1.024, 1.901e-6
-1.025, 1.906e-6
-1.026, 1.705e-6
-1.027, 1.653e-6
-1.028, 1.837e-6
-1.029, 2.012e-6
-1.030, 2.016e-6
-1.031, 1.812e-6
-1.032, 1.769e-6
-1.033, 1.929e-6
-1.034, 2.131e-6
-1.035, 2.122e-6
-1.036, 1.896e-6
-1.037, 1.903e-6
-1.038, 2.058e-6
-1.039, 2.222e-6
-1.040, 2.245e-6
-1.041, 2.020e-6
-1.042, 1.988e-6
-1.043, 2.172e-6
-1.044, 2.363e-6
-1.045, 2.381e-6
-1.046, 2.134e-6
-1.047, 2.150e-6
-1.048, 2.260e-6
-1.049, 2.475e-6
-1.050, 2.503e-6
-1.051, 2.265e-6
-1.052, 2.261e-6
-1.053, 2.440e-6
-1.054, 2.562e-6
-1.055, 2.616e-6
-1.056, 2.398e-6
-1.057, 2.381e-6
-1.058, 2.532e-6
-1.059, 2.672e-6
-1.060, 2.744e-6
-1.061, 2.528e-6
-1.062, 2.478e-6
-1.063, 2.681e-6
-1.064, 2.816e-6
-1.065, 2.851e-6
-1.066, 2.633e-6
-1.067, 2.638e-6
-1.068, 2.736e-6
-1.069, 2.966e-6
-1.070, 2.962e-6
-1.071, 2.777e-6
-1.072, 2.752e-6
-1.073, 2.884e-6
-1.074, 3.087e-6
-1.075, 3.129e-6
-1.076, 2.929e-6
-1.077, 2.890e-6
-1.078, 3.060e-6
-1.079, 3.217e-6
-1.080, 3.256e-6
-1.081, 3.050e-6
-1.082, 3.022e-6
-1.083, 3.187e-6
-1.084, 3.342e-6
-1.085, 3.424e-6
-1.086, 3.190e-6
-1.087, 3.103e-6
-1.088, 3.260e-6
-1.089, 3.432e-6
-1.090, 3.538e-6
-1.091, 3.264e-6
-1.092, 3.265e-6
-1.093, 3.408e-6
-1.094, 3.597e-6
-1.095, 3.647e-6
-1.096, 3.453e-6
-1.097, 3.379e-6
-1.098, 3.574e-6
-1.099, 3.725e-6
-1.100, 3.805e-6
-1.101, 3.554e-6
-1.102, 3.503e-6
-1.103, 3.690e-6
-1.104, 3.838e-6
-1.105, 3.909e-6
-1.106, 3.693e-6
-1.107, 3.638e-6
-1.108, 3.769e-6
-1.109, 3.993e-6
-1.110, 4.032e-6
-1.111, 3.807e-6
-1.112, 3.790e-6
-1.113, 3.892e-6
-1.114, 4.126e-6
-1.115, 4.164e-6
-1.116, 3.937e-6
-1.117, 3.896e-6
-1.118, 4.025e-6
-1.119, 4.237e-6
-1.120, 4.266e-6
-1.121, 4.043e-6
-1.122, 4.041e-6
-1.123, 4.130e-6
-1.124, 4.330e-6
-1.125, 4.390e-6
-1.126, 4.155e-6
-1.127, 4.133e-6
-1.128, 4.229e-6
-1.129, 4.429e-6
-1.130, 4.485e-6
-1.131, 4.276e-6
-1.132, 4.231e-6
-1.133, 4.379e-6
-1.134, 4.537e-6
-1.135, 4.585e-6
-1.136, 4.373e-6
-1.137, 4.344e-6
-1.138, 4.415e-6
-1.139, 4.645e-6
-1.140, 4.683e-6
-1.141, 4.462e-6
-1.142, 4.401e-6
-1.143, 4.559e-6
-1.144, 4.703e-6
-1.145, 4.746e-6
-1.146, 4.540e-6
-1.147, 4.470e-6
-1.148, 4.584e-6
-1.149, 4.792e-6
-1.150, 4.828e-6
-1.151, 4.573e-6
-1.152, 4.532e-6
-1.153, 4.637e-6
-1.154, 4.851e-6
-1.155, 4.870e-6
-1.156, 4.665e-6
-1.157, 4.618e-6
-1.158, 4.706e-6
-1.159, 4.885e-6
-1.160, 4.982e-6
-1.161, 4.740e-6
-1.162, 4.632e-6
-1.163, 4.754e-6
-1.164, 4.960e-6
-1.165, 4.994e-6
-1.166, 4.753e-6
-1.167, 4.705e-6
-1.168, 4.821e-6
-1.169, 4.997e-6
-1.170, 5.061e-6
-1.171, 4.830e-6
-1.172, 4.725e-6
-1.173, 4.869e-6
-1.174, 5.033e-6
-1.175, 5.083e-6
-1.176, 4.857e-6
-1.177, 4.778e-6
-1.178, 4.883e-6
-1.179, 5.051e-6
-1.180, 5.128e-6
-1.181, 4.926e-6
-1.182, 4.811e-6
-1.183, 4.953e-6
-1.184, 5.087e-6
-1.185, 5.134e-6
-1.186, 4.926e-6
-1.187, 4.820e-6
-1.188, 4.952e-6
-1.189, 5.168e-6
-1.190, 5.162e-6
-1.191, 4.992e-6
-1.192, 4.860e-6
-1.193, 4.954e-6
-1.194, 5.161e-6
-1.195, 5.245e-6
-1.196, 4.972e-6
-1.197, 4.925e-6
-1.198, 5.014e-6
-1.199, 5.202e-6
-1.200, 5.261e-6
-1.201, 4.969e-6
-1.202, 4.955e-6
-1.203, 5.030e-6
-1.204, 5.211e-6
-1.205, 5.314e-6
-1.206, 5.020e-6
-1.207, 4.960e-6
-1.208, 5.067e-6
-1.209, 5.216e-6
-1.210, 5.329e-6
-1.211, 5.057e-6
-1.212, 4.981e-6
-1.213, 5.078e-6
-1.214, 5.265e-6
-1.215, 5.346e-6
-1.216, 5.074e-6
-1.217, 5.017e-6
-1.218, 5.089e-6
-1.219, 5.270e-6
-1.220, 5.333e-6
-1.221, 5.086e-6
-1.222, 4.985e-6
-1.223, 5.136e-6
-1.224, 5.263e-6
-1.225, 5.298e-6
-1.226, 5.126e-6
-1.227, 4.988e-6
-1.228, 5.109e-6
-1.229, 5.317e-6
-1.230, 5.334e-6
-1.231, 5.124e-6
-1.232, 4.918e-6
-1.233, 5.088e-6
-1.234, 5.341e-6
-1.235, 5.340e-6
-1.236, 5.062e-6
-1.237, 4.970e-6
-1.238, 5.071e-6
-1.239, 5.269e-6
-1.240, 5.262e-6
-1.241, 5.061e-6
-1.242, 4.958e-6
-1.243, 5.042e-6
-1.244, 5.192e-6
-1.245, 5.248e-6
-1.246, 5.012e-6
-1.247, 4.940e-6
-1.248, 4.984e-6
-1.249, 5.196e-6
-1.250, 5.234e-6
-1.251, 5.051e-6
-1.252, 4.904e-6
-1.253, 4.959e-6
-1.254, 5.180e-6
-1.255, 5.233e-6
-1.256, 4.995e-6
-1.257, 4.888e-6
-1.258, 4.955e-6
-1.259, 5.146e-6
-1.260, 5.220e-6
-1.261, 4.970e-6
-1.262, 4.893e-6
-1.263, 4.994e-6
-1.264, 5.201e-6
-1.265, 5.199e-6
-1.266, 4.978e-6
-1.267, 4.880e-6
-1.268, 4.974e-6
-1.269, 5.191e-6
-1.270, 5.228e-6
-1.271, 4.994e-6
-1.272, 4.953e-6
-1.273, 5.010e-6
-1.274, 5.233e-6
-1.275, 5.237e-6
-1.276, 5.027e-6
-1.277, 4.999e-6
-1.278, 5.027e-6
-1.279, 5.252e-6
-1.280, 5.350e-6
-1.281, 5.053e-6
-1.282, 4.996e-6
-1.283, 5.100e-6
-1.284, 5.312e-6
-1.285, 5.339e-6
-1.286, 5.176e-6
-1.287, 5.068e-6
-1.288, 5.153e-6
-1.289, 5.350e-6
-1.290, 5.415e-6
-1.291, 5.230e-6
-1.292, 5.086e-6
-1.293, 5.241e-6
-1.294, 5.433e-6
-1.295, 5.464e-6
-1.296, 5.322e-6
-1.297, 5.216e-6
-1.298, 5.311e-6
-1.299, 5.534e-6
-1.300, 5.553e-6
-1.301, 5.342e-6
-1.302, 5.301e-6
-1.303, 5.368e-6
-1.304, 5.575e-6
-1.305, 5.631e-6
-1.306, 5.446e-6
-1.307, 5.349e-6
-1.308, 5.410e-6
-1.309, 5.671e-6
-1.310, 5.744e-6
-1.311, 5.546e-6
-1.312, 5.426e-6
-1.313, 5.511e-6
-1.314, 5.730e-6
-1.315, 5.804e-6
-1.316, 5.636e-6
-1.317, 5.459e-6
-1.318, 5.624e-6
-1.319, 5.829e-6
-1.320, 5.850e-6
-1.321, 5.691e-6
-1.322, 5.545e-6
-1.323, 5.708e-6
-1.324, 5.912e-6
-1.325, 5.973e-6
-1.326, 5.786e-6
-1.327, 5.692e-6
-1.328, 5.723e-6
-1.329, 5.951e-6
-1.330, 6.023e-6
-1.331, 5.877e-6
-1.332, 5.769e-6
-1.333, 5.871e-6
-1.334, 6.116e-6
-1.335, 6.099e-6
-1.336, 6.007e-6
-1.337, 5.857e-6
-1.338, 5.951e-6
-1.339, 6.229e-6
-1.340, 6.241e-6
-1.341, 6.057e-6
-1.342, 6.002e-6
-1.343, 6.066e-6
-1.344, 6.325e-6
-1.345, 6.399e-6
-1.346, 6.212e-6
-1.347, 6.145e-6
-1.348, 6.185e-6
-1.349, 6.492e-6
-1.350, 6.515e-6
-1.351, 6.335e-6
-1.352, 6.255e-6
-1.353, 6.366e-6
-1.354, 6.606e-6
-1.355, 6.634e-6
-1.356, 6.450e-6
-1.357, 6.437e-6
-1.358, 6.521e-6
-1.359, 6.749e-6
-1.360, 6.816e-6
-1.361, 6.597e-6
-1.362, 6.621e-6
-1.363, 6.652e-6
-1.364, 6.926e-6
-1.365, 6.990e-6
-1.366, 6.788e-6
-1.367, 6.720e-6
-1.368, 6.823e-6
-1.369, 7.080e-6
-1.370, 7.142e-6
-1.371, 6.978e-6
-1.372, 6.944e-6
-1.373, 7.029e-6
-1.374, 7.306e-6
-1.375, 7.325e-6
-1.376, 7.166e-6
-1.377, 7.100e-6
-1.378, 7.198e-6
-1.379, 7.458e-6
-1.380, 7.525e-6
-1.381, 7.369e-6
-1.382, 7.308e-6
-1.383, 7.408e-6
-1.384, 7.649e-6
-1.385, 7.758e-6
-1.386, 7.637e-6
-1.387, 7.492e-6
-1.388, 7.578e-6
-1.389, 7.934e-6
-1.390, 7.937e-6
-1.391, 7.828e-6
-1.392, 7.777e-6
-1.393, 7.821e-6
-1.394, 8.138e-6
-1.395, 8.192e-6
-1.396, 8.075e-6
-1.397, 8.019e-6
-1.398, 8.124e-6
-1.399, 8.367e-6
-1.400, 8.491e-6
-1.401, 8.310e-6
-1.402, 8.283e-6
-1.403, 8.370e-6
-1.404, 8.648e-6
-1.405, 8.764e-6
-1.406, 8.588e-6
-1.407, 8.574e-6
-1.408, 8.687e-6
-1.409, 8.962e-6
-1.410, 9.058e-6
-1.411, 8.956e-6
-1.412, 8.854e-6
-1.413, 8.990e-6
-1.414, 9.279e-6
-1.415, 9.389e-6
-1.416, 9.261e-6
-1.417, 9.188e-6
-1.418, 9.349e-6
-1.419, 9.670e-6
-1.420, 9.699e-6
-1.421, 9.631e-6
-1.422, 9.590e-6
-1.423, 9.667e-6
-1.424, 9.968e-6
-1.425, 1.014e-5
-1.426, 9.985e-6
-1.427, 9.945e-6
-1.428, 1.009e-5
-1.429, 1.041e-5
-1.430, 1.053e-5
-1.431, 1.045e-5
-1.432, 1.037e-5
-1.433, 1.050e-5
-1.434, 1.083e-5
-1.435, 1.099e-5
-1.436, 1.081e-5
-1.437, 1.090e-5
-1.438, 1.101e-5
-1.439, 1.135e-5
-1.440, 1.146e-5
-1.441, 1.139e-5
-1.442, 1.130e-5
-1.443, 1.149e-5
-1.444, 1.183e-5
-1.445, 1.201e-5
-1.446, 1.190e-5
-1.447, 1.186e-5
-1.448, 1.201e-5
-1.449, 1.233e-5
-1.450, 1.247e-5
-1.451, 1.244e-5
-1.452, 1.239e-5
-1.453, 1.260e-5
-1.454, 1.292e-5
-1.455, 1.306e-5
-1.456, 1.300e-5
-1.457, 1.299e-5
-1.458, 1.319e-5
-1.459, 1.356e-5
-1.460, 1.370e-5
-1.461, 1.365e-5
-1.462, 1.367e-5
-1.463, 1.386e-5
-1.464, 1.419e-5
-1.465, 1.440e-5
-1.466, 1.434e-5
-1.467, 1.435e-5
-1.468, 1.456e-5
-1.469, 1.496e-5
-1.470, 1.513e-5
-1.471, 1.511e-5
-1.472, 1.512e-5
-1.473, 1.533e-5
-1.474, 1.573e-5
-1.475, 1.596e-5
-1.476, 1.591e-5
-1.477, 1.596e-5
-1.478, 1.623e-5
-1.479, 1.657e-5
-1.480, 1.679e-5
-1.481, 1.682e-5
-1.482, 1.685e-5
-1.483, 1.707e-5
-1.484, 1.749e-5
-1.485, 1.773e-5
-1.486, 1.774e-5
-1.487, 1.783e-5
-1.488, 1.806e-5
-1.489, 1.847e-5
-1.490, 1.875e-5
-1.491, 1.876e-5
-1.492, 1.887e-5
-1.493, 1.917e-5
-1.494, 1.956e-5
-1.495, 1.989e-5
-1.496, 1.990e-5
-1.497, 2.002e-5
-1.498, 2.032e-5
-1.499, 2.079e-5
-1.500, 2.114e-5
-1.501, 2.118e-5
-1.502, 2.129e-5
-1.503, 2.162e-5
-1.504, 2.210e-5
-1.505, 2.248e-5
-1.506, 2.258e-5
-1.507, 2.268e-5
-1.508, 2.308e-5
-1.509, 2.359e-5
-1.510, 2.389e-5
-1.511, 2.405e-5
-1.512, 2.417e-5
-1.513, 2.460e-5
-1.514, 2.513e-5
-1.515, 2.551e-5
-1.516, 2.563e-5
-1.517, 2.580e-5
-1.518, 2.621e-5
-1.519, 2.682e-5
-1.520, 2.717e-5
-1.521, 2.741e-5
-1.522, 2.758e-5
-1.523, 2.808e-5
-1.524, 2.866e-5
-1.525, 2.914e-5
-1.526, 2.935e-5
-1.527, 2.963e-5
-1.528, 3.013e-5
-1.529, 3.073e-5
-1.530, 3.124e-5
-1.531, 3.143e-5
-1.532, 3.173e-5
-1.533, 3.231e-5
-1.534, 3.301e-5
-1.535, 3.352e-5
-1.536, 3.382e-5
-1.537, 3.419e-5
-1.538, 3.480e-5
-1.539, 3.549e-5
-1.540, 3.612e-5
-1.541, 3.646e-5
-1.542, 3.679e-5
-1.543, 3.748e-5
-1.544, 3.824e-5
-1.545, 3.885e-5
-1.546, 3.932e-5
-1.547, 3.973e-5
-1.548, 4.054e-5
-1.549, 4.132e-5
-1.550, 4.203e-5
-1.551, 4.255e-5
-1.552, 4.302e-5
-1.553, 4.380e-5
-1.554, 4.468e-5
-1.555, 4.549e-5
-1.556, 4.600e-5
-1.557, 4.659e-5
-1.558, 4.739e-5
-1.559, 4.842e-5
-1.560, 4.926e-5
-1.561, 4.992e-5
-1.562, 5.058e-5
-1.563, 5.145e-5
-1.564, 5.241e-5
-1.565, 5.327e-5
-1.566, 5.400e-5
-1.567, 5.466e-5
-1.568, 5.560e-5
-1.569, 5.673e-5
-1.570, 5.776e-5
-1.571, 5.854e-5
-1.572, 5.930e-5
-1.573, 6.038e-5
-1.574, 6.158e-5
-1.575, 6.269e-5
-1.576, 6.354e-5
-1.577, 6.440e-5
-1.578, 6.550e-5
-1.579, 6.682e-5
-1.580, 6.799e-5
-1.581, 6.901e-5
-1.582, 6.993e-5
-1.583, 7.117e-5
-1.584, 7.261e-5
-1.585, 7.385e-5
-1.586, 7.494e-5
-1.587, 7.607e-5
-1.588, 7.741e-5
-1.589, 7.885e-5
-1.590, 8.030e-5
-1.591, 8.144e-5
-1.592, 8.264e-5
-1.593, 8.401e-5
-1.594, 8.568e-5
-1.595, 8.722e-5
-1.596, 8.854e-5
-1.597, 8.972e-5
-1.598, 9.136e-5
-1.599, 9.305e-5
-1.600, 9.076e-5
-1.599, 8.801e-5
-1.598, 8.566e-5
-1.597, 8.377e-5
-1.596, 8.193e-5
-1.595, 8.017e-5
-1.594, 7.812e-5
-1.593, 7.606e-5
-1.592, 7.444e-5
-1.591, 7.286e-5
-1.590, 7.123e-5
-1.589, 6.946e-5
-1.588, 6.766e-5
-1.587, 6.614e-5
-1.586, 6.474e-5
-1.585, 6.334e-5
-1.584, 6.174e-5
-1.583, 6.014e-5
-1.582, 5.878e-5
-1.581, 5.759e-5
-1.580, 5.632e-5
-1.579, 5.490e-5
-1.578, 5.341e-5
-1.577, 5.222e-5
-1.576, 5.128e-5
-1.575, 5.018e-5
-1.574, 4.886e-5
-1.573, 4.756e-5
-1.572, 4.653e-5
-1.571, 4.565e-5
-1.570, 4.471e-5
-1.569, 4.352e-5
-1.568, 4.236e-5
-1.567, 4.144e-5
-1.566, 4.066e-5
-1.565, 3.985e-5
-1.564, 3.880e-5
-1.563, 3.768e-5
-1.562, 3.694e-5
-1.561, 3.625e-5
-1.560, 3.555e-5
-1.559, 3.458e-5
-1.558, 3.358e-5
-1.557, 3.297e-5
-1.556, 3.232e-5
-1.555, 3.171e-5
-1.554, 3.084e-5
-1.553, 2.988e-5
-1.552, 2.939e-5
-1.551, 2.883e-5
-1.550, 2.825e-5
-1.549, 2.751e-5
-1.548, 2.669e-5
-1.547, 2.615e-5
-1.546, 2.572e-5
-1.545, 2.520e-5
-1.544, 2.454e-5
-1.543, 2.382e-5
-1.542, 2.331e-5
-1.541, 2.296e-5
-1.540, 2.254e-5
-1.539, 2.186e-5
-1.538, 2.116e-5
-1.537, 2.078e-5
-1.536, 2.047e-5
-1.535, 2.008e-5
-1.534, 1.946e-5
-1.533, 1.887e-5
-1.532, 1.851e-5
-1.531, 1.823e-5
-1.530, 1.796e-5
-1.529, 1.735e-5
-1.528, 1.676e-5
-1.527, 1.649e-5
-1.526, 1.621e-5
-1.525, 1.603e-5
-1.524, 1.550e-5
-1.523, 1.489e-5
-1.522, 1.474e-5
-1.521, 1.442e-5
-1.520, 1.426e-5
-1.519, 1.376e-5
-1.518, 1.323e-5
-1.517, 1.306e-5
-1.516, 1.284e-5
-1.515, 1.264e-5
-1.514, 1.223e-5
-1.513, 1.173e-5
-1.512, 1.157e-5
-1.511, 1.141e-5
-1.510, 1.124e-5
-1.509, 1.083e-5
-1.508, 1.038e-5
-1.507, 1.025e-5
-1.506, 1.015e-5
-1.505, 9.995e-6
-1.504, 9.589e-6
-1.503, 9.182e-6
-1.502, 9.091e-6
-1.501, 8.998e-6
-1.500, 8.874e-6
-1.499, 8.521e-6
-1.498, 8.087e-6
-1.497, 8.027e-6
-1.496, 7.931e-6
-1.495, 7.842e-6
-1.494, 7.441e-6
-1.493, 7.139e-6
-1.492, 7.039e-6
-1.491, 6.941e-6
-1.490, 6.941e-6
-1.489, 6.552e-6
-1.488, 6.202e-6
-1.487, 6.186e-6
-1.486, 6.121e-6
-1.485, 6.065e-6
-1.484, 5.793e-6
-1.483, 5.379e-6
-1.482, 5.438e-6
-1.481, 5.342e-6
-1.480, 5.241e-6
-1.479, 5.003e-6
-1.478, 4.642e-6
-1.477, 4.663e-6
-1.476, 4.662e-6
-1.475, 4.603e-6
-1.474, 4.294e-6
-1.473, 3.993e-6
-1.472, 4.050e-6
-1.471, 4.040e-6
-1.470, 3.959e-6
-1.469, 3.706e-6
-1.468, 3.438e-6
-1.467, 3.431e-6
-1.466, 3.445e-6
-1.465, 3.465e-6
-1.464, 3.175e-6
-1.463, 2.892e-6
-1.462, 2.921e-6
-1.461, 2.909e-6
-1.460, 2.946e-6
-1.459, 2.692e-6
-1.458, 2.372e-6
-1.457, 2.455e-6
-1.456, 2.446e-6
-1.455, 2.459e-6
-1.454, 2.248e-6
-1.453, 1.952e-6
-1.452, 2.053e-6
-1.451, 2.047e-6
-1.450, 2.046e-6
-1.449, 1.815e-6
-1.448, 1.554e-6
-1.447, 1.648e-6
-1.446, 1.635e-6
-1.445, 1.681e-6
-1.444, 1.440e-6
-1.443, 1.166e-6
-1.442, 1.301e-6
-1.441, 1.292e-6
-1.440, 1.321e-6
-1.439, 1.075e-6
-1.438, 8.394e-7
-1.437, 9.519e-7
-1.436, 9.973e-7
-1.435, 9.992e-7
-1.434, 7.664e-7
-1.433, 5.296e-7
-1.432, 6.569e-7
-1.431, 6.598e-7
-1.430, 7.102e-7
-1.429, 5.345e-7
-1.428, 2.682e-7
-1.427, 3.352e-7
-1.426, 3.984e-7
-1.425, 4.309e-7
-1.424, 2.346e-7
-1.423, 1.460e-8
-1.422, 8.564e-8
-1.421, 1.813e-7
-1.420, 2.642e-7
-1.419, -1.302e-8
-1.418, -2.143e-7
-1.417, -1.048e-7
-1.416, -6.630e-8
-1.415, 1.164e-8
-1.414, -2.103e-7
-1.413, -3.771e-7
-1.412, -3.495e-7
-1.411, -2.577e-7
-1.410, -1.600e-7
-1.409, -4.096e-7
-1.408, -6.188e-7
-1.407, -4.678e-7
-1.406, -4.294e-7
-1.405, -2.952e-7
-1.404, -5.862e-7
-1.403, -7.905e-7
-1.402, -6.750e-7
-1.401, -6.020e-7
-1.400, -5.270e-7
-1.399, -7.214e-7
-1.398, -9.710e-7
-1.397, -8.289e-7
-1.396, -7.431e-7
-1.395, -7.076e-7
-1.394, -8.546e-7
-1.393, -1.071e-6
-1.392, -9.355e-7
-1.391, -8.743e-7
-1.390, -8.141e-7
-1.389, -1.003e-6
-1.388, -1.169e-6
-1.387, -1.076e-6
-1.386, -9.976e-7
-1.385, -8.990e-7
-1.384, -1.120e-6
-1.383, -1.289e-6
-1.382, -1.187e-6
-1.381, -1.130e-6
-1.380, -1.004e-6
-1.379, -1.219e-6
-1.378, -1.386e-6
-1.377, -1.294e-6
-1.376, -1.184e-6
-1.375, -1.125e-6
-1.374, -1.310e-6
-1.373, -1.529e-6
-1.372, -1.406e-6
-1.371, -1.285e-6
-1.370, -1.229e-6
-1.369, -1.418e-6
-1.368, -1.534e-6
-1.367, -1.454e-6
-1.366, -1.375e-6
-1.365, -1.281e-6
-1.364, -1.458e-6
-1.363, -1.658e-6
-1.362, -1.578e-6
-1.361, -1.476e-6
-1.360, -1.311e-6
-1.359, -1.535e-6
-1.358, -1.694e-6
-1.357, -1.616e-6
-1.356, -1.493e-6
-1.355, -1.369e-6
-1.354, -1.581e-6
-1.353, -1.810e-6
-1.352, -1.642e-6
-1.351, -1.547e-6
-1.350, -1.468e-6
-1.349, -1.643e-6
-1.348, -1.834e-6
-1.347, -1.731e-6
-1.346, -1.567e-6
-1.345, -1.550e-6
-1.344, -1.662e-6
-1.343, -1.876e-6
-1.342, -1.735e-6
-1.341, -1.617e-6
-1.340, -1.530e-6
-1.339, -1.740e-6
-1.338, -1.905e-6
-1.337, -1.804e-6
-1.336, -1.659e-6
-1.335, -1.576e-6
-1.334, -1.820e-6
-1.333, -1.937e-6
-1.332, -1.805e-6
-1.331, -1.781e-6
-1.330, -1.604e-6
-1.329, -1.825e-6
-1.328, -1.985e-6
-1.327, -1.858e-6
-1.326, -1.752e-6
-1.325, -1.659e-6
-1.324, -1.833e-6
-1.323, -2.053e-6
-1.322, -1.838e-6
-1.321, -1.768e-6
-1.320, -1.694e-6
-1.319, -1.817e-6
-1.318, -2.045e-6
-1.317, -1.926e-6
-1.316, -1.764e-6
-1.315, -1.714e-6
-1.314, -1.860e-6
-1.313, -2.039e-6
-1.312, -1.930e-6
-1.311, -1.806e-6
-1.310, -1.704e-6
-1.309, -1.871e-6
-1.308, -2.077e-6
-1.307, -1.928e-6
-1.306, -1.836e-6
-1.305, -1.718e-6
-1.304, -1.849e-6
-1.303, -2.063e-6
-1.302, -1.932e-6
-1.301, -1.773e-6
-1.300, -1.749e-6
-1.299, -1.876e-6
-1.298, -2.071e-6
-1.297, -2.010e-6
-1.296, -1.753e-6
-1.295, -1.724e-6
-1.294, -1.886e-6
-1.293, -2.023e-6
-1.292, -1.942e-6
-1.291, -1.793e-6
-1.290, -1.693e-6
-1.289, -1.917e-6
-1.288, -2.057e-6
-1.287, -1.932e-6
-1.286, -1.816e-6
-1.285, -1.698e-6
-1.284, -1.863e-6
-1.283, -2.072e-6
-1.282, -1.938e-6
-1.281, -1.811e-6
-1.280, -1.769e-6
-1.279, -1.871e-6
-1.278, -2.039e-6
-1.277, -1.937e-6
-1.276, -1.771e-6
-1.275, -1.762e-6
-1.274, -1.868e-6
-1.273, -2.029e-6
-1.272, -1.928e-6
-1.271, -1.771e-6
-1.270, -1.736e-6
-1.269, -1.872e-6
-1.268, -1.986e-6
-1.267, -1.951e-6
-1.266, -1.773e-6
-1.265, -1.650e-6
-1.264, -1.839e-6
-1.263, -2.010e-6
-1.262, -1.890e-6
-1.261, -1.741e-6
-1.260, -1.682e-6
-1.259, -1.855e-6
-1.258, -1.995e-6
-1.257, -1.908e-6
-1.256, -1.756e-6
-1.255, -1.697e-6
-1.254, -1.832e-6
-1.253, -1.984e-6
-1.252, -1.931e-6
-1.251, -1.737e-6
-1.250, -1.704e-6
-1.249, -1.828e-6
-1.248, -1.984e-6
-1.247, -1.948e-6
-1.246, -1.764e-6
-1.245, -1.666e-6
-1.244, -1.864e-6
-1.243, -1.986e-6
-1.242, -1.931e-6
-1.241, -1.744e-6
-1.240, -1.689e-6
-1.239, -1.839e-6
-1.238, -1.991e-6
-1.237, -1.933e-6
-1.236, -1.743e-6
-1.235, -1.676e-6
-1.234, -1.836e-6
-1.233, -2.007e-6
-1.232, -1.920e-6
-1.231, -1.755e-6
-1.230, -1.727e-6
-1.229, -1.859e-6
-1.228, -2.018e-6
-1.227, -1.936e-6
-1.226, -1.744e-6
-1.225, -1.727e-6
-1.224, -1.836e-6
-1.223, -1.977e-6
-1.222, -1.969e-6
-1.221, -1.740e-6
-1.220, -1.771e-6
-1.219, -1.875e-6
-1.218, -1.991e-6
-1.217, -2.014e-6
-1.216, -1.759e-6
-1.215, -1.735e-6
-1.214, -1.877e-6
-1.213, -1.996e-6
-1.212, -2.014e-6
-1.211, -1.769e-6
-1.210, -1.715e-6
-1.209, -1.871e-6
-1.208, -2.044e-6
-1.207, -1.977e-6
-1.206, -1.807e-6
-1.205, -1.735e-6
-1.204, -1.867e-6
-1.203, -2.058e-6
-1.202, -1.980e-6
-1.201, -1.810e-6
-1.200, -1.714e-6
-1.199, -1.884e-6
-1.198, -2.062e-6
-1.197, -2.026e-6
-1.196, -1.788e-6
-1.195, -1.759e-6
-1.194, -1.870e-6
-1.193, -2.025e-6
-1.192, -2.043e-6
-1.191, -1.738e-6
-1.190, -1.771e-6
-1.189, -1.889e-6
-1.188, -2.043e-6
-1.187, -2.076e-6
-1.186, -1.788e-6
-1.185, -1.802e-6
-1.184, -1.885e-6
-1.183, -2.058e-6
-1.182, -2.070e-6
-1.181, -1.803e-6
-1.180, -1.780e-6
-1.179, -1.937e-6
-1.178, -2.086e-6
-1.177, -2.092e-6
-1.176, -1.809e-6
-1.175, -1.817e-6
-1.174, -1.965e-6
-1.173, -2.068e-6
-1.172, -2.089e-6
-1.171, -1.889e-6
-1.170, -1.800e-6
-1.169, -1.982e-6
-1.168, -2.112e-6
-1.167, -2.058e-6
-1.166, -1.896e-6
-1.165, -1.828e-6
-1.164, -1.965e-6
-1.163, -2.163e-6
-1.162, -2.117e-6
-1.161, -1.895e-6
-1.160, -1.840e-6
-1.159, -1.985e-6
-1.158, -2.159e-6
-1.157, -2.120e-6
-1.156, -1.871e-6
-1.155, -1.886e-6
-1.154, -1.948e-6
-1.153, -2.142e-6
-1.152, -2.194e-6
-1.151, -1.892e-6
-1.150, -1.854e-6
-1.149, -2.035e-6
-1.148, -2.171e-6
-1.147, -2.211e-6
-1.146, -1.949e-6
-1.145, -1.894e-6
-1.144, -2.049e-6
-1.143, -2.150e-6
-1.142, -2.217e-6
-1.141, -1.924e-6
-1.140, -1.894e-6
-1.139, -2.073e-6
-1.138, -2.193e-6
-1.137, -2.248e-6
-1.136, -1.963e-6
-1.135, -1.912e-6
-1.134, -2.003e-6
-1.133, -2.199e-6
-1.132, -2.246e-6
-1.131, -2.009e-6
-1.130, -1.965e-6
-1.129, -2.076e-6
-1.128, -2.203e-6
-1.127, -2.254e-6
-1.126, -2.039e-6
-1.125, -1.942e-6
-1.124, -2.091e-6
-1.123, -2.219e-6
-1.122, -2.296e-6
-1.121, -2.030e-6
-1.120, -2.011e-6
-1.119, -2.103e-6
-1.118, -2.239e-6
-1.117, -2.295e-6
-1.116, -2.041e-6
-1.115, -1.975e-6
-1.114, -2.115e-6
-1.113, -2.311e-6
-1.112, -2.304e-6
-1.111, -2.090e-6
-1.110, -2.014e-6
-1.109, -2.143e-6
-1.108, -2.280e-6
-1.107, -2.333e-6
-1.106, -2.106e-6
-1.105, -2.042e-6
-1.104, -2.108e-6
-1.103, -2.338e-6
-1.102, -2.343e-6
-1.101, -2.119e-6
-1.100, -2.077e-6
-1.099, -2.164e-6
-1.098, -2.311e-6
-1.097, -2.363e-6
-1.096, -2.136e-6
-1.095, -2.038e-6
-1.094, -2.216e-6
-1.093, -2.308e-6
-1.092, -2.395e-6
-1.091, -2.191e-6
-1.090, -2.053e-6
-1.089, -2.236e-6
-1.088, -2.345e-6
-1.087, -2.424e-6
-1.086, -2.204e-6
-1.085, -2.054e-6
-1.084, -2.219e-6
-1.083, -2.375e-6
-1.082, -2.405e-6
-1.081, -2.228e-6
-1.080, -2.123e-6
-1.079, -2.264e-6
-1.078, -2.380e-6
-1.077, -2.442e-6
-1.076, -2.235e-6
-1.075, -2.167e-6
-1.074, -2.277e-6
-1.073, -2.460e-6
-1.072, -2.472e-6
-1.071, -2.265e-6
-1.070, -2.211e-6
-1.069, -2.292e-6
-1.068, -2.463e-6
-1.067, -2.491e-6
-1.066, -2.261e-6
-1.065, -2.185e-6
-1.064, -2.325e-6
-1.063, -2.440e-6
-1.062, -2.546e-6
-1.061, -2.256e-6
-1.060, -2.187e-6
-1.059, -2.320e-6
-1.058, -2.454e-6
-1.057, -2.506e-6
-1.056, -2.293e-6
-1.055, -2.200e-6
-1.054, -2.356e-6
-1.053, -2.491e-6
-1.052, -2.514e-6
-1.051, -2.333e-6
-1.050, -2.241e-6
-1.049, -2.357e-6
-1.048, -2.507e-6
-1.047, -2.565e-6
-1.046, -2.326e-6
-1.045, -2.244e-6
-1.044, -2.379e-6
-1.043, -2.578e-6
-1.042, -2.590e-6
-1.041, -2.370e-6
-1.040, -2.278e-6
-1.039, -2.403e-6
-1.038, -2.579e-6
-1.037, -2.617e-6
-1.036, -2.349e-6
-1.035, -2.315e-6
-1.034, -2.406e-6
-1.033, -2.602e-6
-1.032, -2.630e-6
-1.031, -2.401e-6
-1.030, -2.361e-6
-1.029, -2.414e-6
-1.028, -2.624e-6
-1.027, -2.643e-6
-1.026, -2.439e-6
-1.025, -2.336e-6
-1.024, -2.424e-6
-1.023, -2.642e-6
-1.022, -2.664e-6
-1.021, -2.444e-6
-1.020, -2.347e-6
-1.019, -2.508e-6
-1.018, -2.659e-6
-1.017, -2.716e-6
-1.016, -2.498e-6
-1.015, -2.408e-6
-1.014, -2.499e-6
-1.013, -2.711e-6
-1.012, -2.710e-6
-1.011, -2.533e-6
-1.010, -2.456e-6
-1.009, -2.526e-6
-1.008, -2.685e-6
-1.007, -2.762e-6
-1.006, -2.606e-6
-1.005, -2.489e-6
-1.004, -2.538e-6
-1.003, -2.747e-6
-1.002, -2.758e-6
-1.001, -2.592e-6
-1.000, -7.313e-7
-1.001, -3.712e-7
-1.002, -3.919e-7
-1.003, -3.258e-7
-1.004, -7.814e-8
-1.005, 1.261e-7
-1.006, 1.517e-7
-1.007, -3.177e-8
-1.008, -1.184e-9
-1.009, 2.632e-7
-1.010, 4.122e-7
-1.011, 4.053e-7
-1.012, 2.169e-7
-1.013, 2.613e-7
-1.014, 4.556e-7
-1.015, 6.322e-7
-1.016, 5.582e-7
-1.017, 4.171e-7
-1.018, 4.280e-7
-1.019, 6.342e-7
-1.020, 7.378e-7
-1.021, 7.092e-7
-1.022, 4.872e-7
-1.023, 5.572e-7
-1.024, 7.171e-7
-1.025, 8.345e-7
-1.026, 8.226e-7
-1.027, 6.184e-7
-1.028, 6.569e-7
-1.029, 8.512e-7
-1.030, 9.410e-7
-1.031, 9.085e-7
-1.032, 7.200e-7
-1.033, 7.545e-7
-1.034, 9.400e-7
-1.035, 1.043e-6
-1.036, 9.459e-7
-1.037, 8.256e-7
-1.038, 7.970e-7
-1.039, 9.746e-7
-1.040, 1.086e-6
-1.041, 1.077e-6
-1.042, 8.897e-7
-1.043, 8.739e-7
-1.044, 1.045e-6
-1.045, 1.184e-6
-1.046, 1.122e-6
-1.047, 9.529e-7
-1.048, 9.381e-7
-1.049, 1.115e-6
-1.050, 1.213e-6
-1.051, 1.202e-6
-1.052, 1.024e-6
-1.053, 1.045e-6
-1.054, 1.160e-6
-1.055, 1.292e-6
-1.056, 1.290e-6
-1.057, 1.053e-6
-1.058, 1.051e-6
-1.059, 1.225e-6
-1.060, 1.337e-6
-1.061, 1.294e-6
-1.062, 1.084e-6
-1.063, 1.101e-6
-1.064, 1.290e-6
-1.065, 1.414e-6
-1.066, 1.353e-6
-1.067, 1.192e-6
-1.068, 1.164e-6
-1.069, 1.358e-6
-1.070, 1.468e-6
-1.071, 1.386e-6
-1.072, 1.234e-6
-1.073, 1.253e-6
-1.074, 1.389e-6
-1.075, 1.530e-6
-1.076, 1.440e-6
-1.077, 1.265e-6
-1.078, 1.295e-6
-1.079, 1.430e-6
-1.080, 1.572e-6
-1.081, 1.504e-6
-1.082, 1.291e-6
-1.083, 1.285e-6
-1.084, 1.466e-6
-1.085, 1.607e-6
-1.086, 1.554e-6
-1.087, 1.355e-6
-1.088, 1.385e-6
-1.089, 1.512e-6
-1.090, 1.704e-6
-1.091, 1.550e-6
-1.092, 1.420e-6
-1.093, 1.375e-6
-1.094, 1.556e-6
-1.095, 1.744e-6
-1.096, 1.594e-6
-1.097, 1.476e-6
-1.098, 1.475e-6
-1.099, 1.626e-6
-1.100, 1.787e-6
-1.101, 1.684e-6
-1.102, 1.491e-6
-1.103, 1.512e-6
-1.104, 1.602e-6
-1.105, 1.783e-6
-1.106, 1.726e-6
-1.107, 1.574e-6
-1.108, 1.551e-6
-1.109, 1.685e-6
-1.110, 1.853e-6
-1.111, 1.757e-6
-1.112, 1.601e-6
-1.113, 1.571e-6
-1.114, 1.748e-6
-1.115, 1.853e-6
-1.116, 1.791e-6
-1.117, 1.657e-6
-1.118, 1.614e-6
-1.119, 1.748e-6
-1.120, 1.904e-6
-1.121, 1.832e-6
-1.122, 1.712e-6
-1.123, 1.630e-6
-1.124, 1.798e-6
-1.125, 1.958e-6
-1.126, 1.821e-6
-1.127, 1.770e-6
-1.128, 1.673e-6
-1.129, 1.821e-6
-1.130, 2.032e-6
-1.131, 1.900e-6
-1.132, 1.813e-6
-1.133, 1.718e-6
-1.134, 1.831e-6
-1.135, 2.082e-6
-1.136, 1.905e-6
-1.137, 1.841e-6
-1.138, 1.758e-6
-1.139, 1.884e-6
-1.140, 2.083e-6
-1.141, 1.948e-6
-1.142, 1.851e-6
-1.143, 1.803e-6
-1.144, 1.949e-6
-1.145, 2.062e-6
-1.146, 2.004e-6
-1.147, 1.908e-6
-1.148, 1.802e-6
-1.149, 1.919e-6
-1.150, 2.137e-6
-1.151, 2.029e-6
-1.152, 1.935e-6
-1.153, 1.881e-6
-1.154, 2.038e-6
-1.155, 2.208e-6
-1.156, 2.044e-6
-1.157, 1.973e-6
-1.158, 1.886e-6
-1.159, 2.060e-6
-1.160, 2.213e-6
-1.161, 2.072e-6
-1.162, 2.017e-6
-1.163, 1.896e-6
-1.164, 2.053e-6
-1.165, 2.262e-6
-1.166, 2.066e-6
-1.167, 2.036e-6
-1.168, 1.980e-6
-1.169, 2.074e-6
-1.170, 2.282e-6
-1.171, 2.135e-6
-1.172, 2.041e-6
-1.173, 2.027e-6
-1.174, 2.130e-6
-1.175, 2.310e-6
-1.176, 2.159e-6
-1.177, 2.132e-6
-1.178, 2.064e-6
-1.179, 2.124e-6
-1.180, 2.348e-6
-1.181, 2.241e-6
-1.182, 2.131e-6
-1.183, 2.065e-6
-1.184, 2.225e-6
-1.185, 2.320e-6
-1.186, 2.235e-6
-1.187, 2.138e-6
-1.188, 2.062e-6
-1.189, 2.255e-6
-1.190, 2.390e-6
-1.191, 2.277e-6
-1.192, 2.152e-6
-1.193, 2.067e-6
-1.194, 2.296e-6
-1.195, 2.408e-6
-1.196, 2.281e-6
-1.197, 2.204e-6
-1.198, 2.103e-6
-1.199, 2.312e-6
-1.200, 2.433e-6
-1.201, 2.288e-6
-1.202, 2.222e-6
-1.203, 2.133e-6
-1.204, 2.333e-6
-1.205, 2.511e-6
-1.206, 2.285e-6
-1.207, 2.239e-6
-1.208, 2.167e-6
-1.209, 2.333e-6
-1.210, 2.508e-6
-1.211, 2.349e-6
-1.212, 2.261e-6
-1.213, 2.216e-6
-1.214, 2.299e-6
-1.215, 2.534e-6
-1.216, 2.363e-6
-1.217, 2.272e-6
-1.218, 2.224e-6
-1.219, 2.360e-6
-1.220, 2.511e-6
-1.221, 2.378e-6
-1.222, 2.295e-6
-1.223, 2.254e-6
-1.224, 2.379e-6
-1.225, 2.547e-6
-1.226, 2.426e-6
-1.227, 2.346e-6
-1.228, 2.253e-6
-1.229, 2.402e-6
-1.230, 2.595e-6
-1.231, 2.433e-6
-1.232, 2.346e-6
-1.233, 2.320e-6
-1.234, 2.425e-6
-1.235, 2.620e-6
-1.236, 2.496e-6
-1.237, 2.386e-6
-1.238, 2.284e-6
-1.239, 2.462e-6
-1.240, 2.633e-6
-1.241, 2.500e-6
-1.242, 2.427e-6
-1.243, 2.320e-6
-1.244, 2.463e-6
-1.245, 2.665e-6
-1.246, 2.524e-6
-1.247, 2.439e-6
-1.248, 2.332e-6
-1.249, 2.482e-6
-1.250, 2.694e-6
-1.251, 2.548e-6
-1.252, 2.409e-6
-1.253, 2.351e-6
-1.254, 2.512e-6
-1.255, 2.698e-6
-1.256, 2.569e-6
-1.257, 2.459e-6
-1.258, 2.388e-6
-1.259, 2.544e-6
-1.260, 2.672e-6
-1.261, 2.588e-6
-1.262, 2.445e-6
-1.263, 2.404e-6
-1.264, 2.556e-6
-1.265, 2.713e-6
-1.266, 2.632e-6
-1.267, 2.479e-6
-1.268, 2.426e-6
-1.269, 2.578e-6
-1.270, 2.736e-6
-1.271, 2.632e-6
-1.272, 2.528e-6
-1.273, 2.439e-6
-1.274, 2.636e-6
-1.275, 2.784e-6
-1.276, 2.643e-6
-1.277, 2.518e-6
-1.278, 2.454e-6
-1.279, 2.609e-6
-1.280, 2.784e-6
-1.281, 2.675e-6
-1.282, 2.547e-6
-1.283, 2.446e-6
-1.284, 2.655e-6
-1.285, 2.812e-6
-1.286, 2.692e-6
-1.287, 2.604e-6
-1.288, 2.474e-6
-1.289, 2.668e-6
-1.290, 2.832e-6
-1.291, 2.696e-6
-1.292, 2.575e-6
-1.293, 2.533e-6
-1.294, 2.724e-6
-1.295, 2.840e-6
-1.296, 2.736e-6
-1.297, 2.586e-6
-1.298, 2.570e-6
-1.299, 2.714e-6
-1.300, 2.889e-6
-1.301, 2.774e-6
-1.302, 2.647e-6
-1.303, 2.613e-6
-1.304, 2.752e-6
-1.305, 2.932e-6
-1.306, 2.783e-6
-1.307, 2.630e-6
-1.308, 2.622e-6
-1.309, 2.765e-6
-1.310, 2.953e-6
-1.311, 2.851e-6
-1.312, 2.688e-6
-1.313, 2.648e-6
-1.314, 2.831e-6
-1.315, 2.994e-6
-1.316, 2.851e-6
-1.317, 2.749e-6
-1.318, 2.714e-6
-1.319, 2.853e-6
-1.320, 3.027e-6
-1.321, 2.872e-6
-1.322, 2.766e-6
-1.323, 2.716e-6
-1.324, 2.861e-6
-1.325, 3.064e-6
-1.326, 2.978e-6
-1.327, 2.832e-6
-1.328, 2.803e-6
-1.329, 2.917e-6
-1.330, 3.105e-6
-1.331, 3.015e-6
-1.332, 2.836e-6
-1.333, 2.814e-6
-1.334, 2.960e-6
-1.335, 3.146e-6
-1.336, 3.046e-6
-1.337, 2.884e-6
-1.338, 2.906e-6
-1.339, 2.995e-6
-1.340, 3.210e-6
-1.341, 3.113e-6
-1.342, 2.938e-6
-1.343, 2.947e-6
-1.344, 3.073e-6
-1.345, 3.246e-6
-1.346, 3.240e-6
-1.347, 2.985e-6
-1.348, 2.991e-6
-1.349, 3.075e-6
-1.350, 3.302e-6
-1.351, 3.313e-6
-1.352, 3.044e-6
-1.353, 3.066e-6
-1.354, 3.178e-6
-1.355, 3.401e-6
-1.356, 3.315e-6
-1.357, 3.077e-6
-1.358, 3.122e-6
-1.359, 3.288e-6
-1.360, 3.442e-6
-1.361, 3.450e-6
-1.362, 3.223e-6
-1.363, 3.203e-6
-1.364, 3.347e-6
-1.365, 3.538e-6
-1.366, 3.534e-6
-1.367, 3.305e-6
-1.368, 3.324e-6
-1.369, 3.421e-6
-1.370, 3.644e-6
-1.371, 3.588e-6
-1.372, 3.372e-6
-1.373, 3.373e-6
-1.374, 3.555e-6
-1.375, 3.710e-6
-1.376, 3.766e-6
-1.377, 3.497e-6
-1.378, 3.529e-6
-1.379, 3.629e-6
-1.380, 3.801e-6
-1.381, 3.868e-6
-1.382, 3.618e-6
-1.383, 3.655e-6
-1.384, 3.763e-6
-1.385, 3.979e-6
-1.386, 4.019e-6
-1.387, 3.746e-6
-1.388, 3.750e-6
-1.389, 3.895e-6
-1.390, 4.070e-6
-1.391, 4.061e-6
-1.392, 3.920e-6
-1.393, 3.875e-6
-1.394, 4.017e-6
-1.395, 4.231e-6
-1.396, 4.275e-6
-1.397, 4.059e-6
-1.398, 4.039e-6
-1.399, 4.153e-6
-1.400, 4.352e-6
-1.401, 4.419e-6
-1.402, 4.210e-6
-1.403, 4.163e-6
-1.404, 4.287e-6
-1.405, 4.553e-6
-1.406, 4.585e-6
-1.407, 4.383e-6
-1.408, 4.360e-6
-1.409, 4.490e-6
-1.410, 4.710e-6
-1.411, 4.745e-6
-1.412, 4.540e-6
-1.413, 4.517e-6
-1.414, 4.679e-6
-1.415, 4.908e-6
-1.416, 4.972e-6
-1.417, 4.707e-6
-1.418, 4.705e-6
-1.419, 4.866e-6
-1.420, 5.071e-6
-1.421, 5.144e-6
-1.422, 4.932e-6
-1.423, 4.901e-6
-1.424, 5.034e-6
-1.425, 5.270e-6
-1.426, 5.381e-6
-1.427, 5.135e-6
-1.428, 5.092e-6
-1.429, 5.339e-6
-1.430, 5.513e-6
-1.431, 5.652e-6
-1.432, 5.408e-6
-1.433, 5.395e-6
-1.434, 5.577e-6
-1.435, 5.736e-6
-1.436, 5.871e-6
-1.437, 5.659e-6
-1.438, 5.643e-6
-1.439, 5.795e-6
-1.440, 5.999e-6
-1.441, 6.107e-6
-1.442, 5.919e-6
-1.443, 5.913e-6
-1.444, 6.076e-6
-1.445, 6.307e-6
-1.446, 6.403e-6
-1.447, 6.246e-6
-1.448, 6.244e-6
-1.449, 6.379e-6
-1.450, 6.596e-6
-1.451, 6.720e-6
-1.452, 6.511e-6
-1.453, 6.570e-6
-1.454, 6.676e-6
-1.455, 6.948e-6
-1.456, 7.073e-6
-1.457, 6.865e-6
-1.458, 6.876e-6
-1.459, 7.046e-6
-1.460, 7.296e-6
-1.461, 7.412e-6
-1.462, 7.211e-6
-1.463, 7.256e-6
-1.464, 7.426e-6
-1.465, 7.695e-6
-1.466, 7.837e-6
-1.467, 7.645e-6
-1.468, 7.631e-6
-1.469, 7.824e-6
-1.470, 8.083e-6
-1.471, 8.237e-6
-1.472, 8.085e-6
-1.473, 8.101e-6
-1.474, 8.313e-6
-1.475, 8.529e-6
-1.476, 8.716e-6
-1.477, 8.547e-6
-1.478, 8.549e-6
-1.479, 8.794e-6
-1.480, 9.087e-6
-1.481, 9.192e-6
-1.482, 9.090e-6
-1.483, 9.085e-6
-1.484, 9.372e-6
-1.485, 9.593e-6
-1.486, 9.779e-6
-1.487, 9.602e-6
-1.488, 9.702e-6
-1.489, 9.904e-6
-1.490, 1.026e-5
-1.491, 1.037e-5
-1.492, 1.026e-5
-1.493, 1.030e-5
-1.494, 1.053e-5
-1.495, 1.083e-5
-1.496, 1.109e-5
-1.497, 1.090e-5
-1.498, 1.104e-5
-1.499, 1.123e-5
-1.500, 1.159e-5
-1.501, 1.177e-5
-1.502, 1.171e-5
-1.503, 1.175e-5
-1.504, 1.203e-5
-1.505, 1.234e-5
-1.506, 1.259e-5
-1.507, 1.254e-5
-1.508, 1.259e-5
-1.509, 1.284e-5
-1.510, 1.327e-5
-1.511, 1.350e-5
-1.512, 1.339e-5
-1.513, 1.352e-5
-1.514, 1.384e-5
-1.515, 1.419e-5
-1.516, 1.449e-5
-1.517, 1.445e-5
-1.518, 1.454e-5
-1.519, 1.489e-5
-1.520, 1.530e-5
-1.521, 1.561e-5
-1.522, 1.556e-5
-1.523, 1.569e-5
-1.524, 1.603e-5
-1.525, 1.652e-5
-1.526, 1.681e-5
-1.527, 1.683e-5
-1.528, 1.693e-5
-1.529, 1.736e-5
-1.530, 1.782e-5
-1.531, 1.815e-5
-1.532, 1.819e-5
-1.533, 1.837e-5
-1.534, 1.877e-5
-1.535, 1.929e-5
-1.536, 1.964e-5
-1.537, 1.973e-5
-1.538, 1.994e-5
-1.539, 2.042e-5
-1.540, 2.092e-5
-1.541, 2.135e-5
-1.542, 2.145e-5
-1.543, 2.173e-5
-1.544, 2.216e-5
-1.545, 2.274e-5
-1.546, 2.320e-5
-1.547, 2.329e-5
-1.548, 2.364e-5
-1.549, 2.411e-5
-1.550, 2.476e-5
-1.551, 2.529e-5
-1.552, 2.542e-5
-1.553, 2.577e-5
-1.554, 2.635e-5
-1.555, 2.695e-5
-1.556, 2.755e-5
-1.557, 2.788e-5
-1.558, 2.818e-5
-1.559, 2.881e-5
-1.560, 2.948e-5
-1.561, 3.013e-5
-1.562, 3.039e-5
-1.563, 3.081e-5
-1.564, 3.150e-5
-1.565, 3.231e-5
-1.566, 3.289e-5
-1.567, 3.327e-5
-1.568, 3.374e-5
-1.569, 3.447e-5
-1.570, 3.538e-5
-1.571, 3.602e-5
-1.572, 3.650e-5
-1.573, 3.704e-5
-1.574, 3.774e-5
-1.575, 3.882e-5
-1.576, 3.950e-5
-1.577, 3.998e-5
-1.578, 4.064e-5
-1.579, 4.146e-5
-1.580, 4.245e-5
-1.581, 4.334e-5
-1.582, 4.389e-5
-1.583, 4.465e-5
-1.584, 4.549e-5
-1.585, 4.658e-5
-1.586, 4.757e-5
-1.587, 4.823e-5
-1.588, 4.903e-5
-1.589, 5.005e-5
-1.590, 5.121e-5
-1.591, 5.225e-5
-1.592, 5.300e-5
-1.593, 5.392e-5
-1.594, 5.497e-5
-1.595, 5.623e-5
-1.596, 5.738e-5
-1.597, 5.830e-5
-1.598, 5.922e-5
-1.599, 6.043e-5
-1.600, 5.849e-5
-1.599, 5.681e-5
-1.598, 5.525e-5
-1.597, 5.395e-5
-1.596, 5.267e-5
-1.595, 5.182e-5
-1.594, 5.072e-5
-1.593, 4.939e-5
-1.592, 4.824e-5
-1.591, 4.717e-5
-1.590, 4.641e-5
-1.589, 4.544e-5
-1.588, 4.424e-5
-1.587, 4.313e-5
-1.586, 4.218e-5
-1.585, 4.149e-5
-1.584, 4.065e-5
-1.583, 3.957e-5
-1.582, 3.857e-5
-1.581, 3.771e-5
-1.580, 3.716e-5
-1.579, 3.633e-5
-1.578, 3.534e-5
-1.577, 3.443e-5
-1.576, 3.369e-5
-1.575, 3.318e-5
-1.574, 3.255e-5
-1.573, 3.163e-5
-1.572, 3.074e-5
-1.571, 3.014e-5
-1.570, 2.966e-5
-1.569, 2.910e-5
-1.568, 2.822e-5
-1.567, 2.745e-5
-1.566, 2.689e-5
-1.565, 2.652e-5
-1.564, 2.595e-5
-1.563, 2.522e-5
-1.562, 2.452e-5
-1.561, 2.404e-5
-1.560, 2.369e-5
-1.559, 2.326e-5
-1.558, 2.250e-5
-1.557, 2.189e-5
-1.556, 2.145e-5
-1.555, 2.115e-5
-1.554, 2.075e-5
-1.553, 2.007e-5
-1.552, 1.949e-5
-1.551, 1.913e-5
-1.550, 1.890e-5
-1.549, 1.851e-5
-1.548, 1.799e-5
-1.547, 1.733e-5
-1.546, 1.708e-5
-1.545, 1.691e-5
-1.544, 1.655e-5
-1.543, 1.600e-5
-1.542, 1.547e-5
-1.541, 1.522e-5
-1.540, 1.510e-5
-1.539, 1.475e-5
-1.538, 1.428e-5
-1.537, 1.377e-5
-1.536, 1.352e-5
-1.535, 1.344e-5
-1.534, 1.313e-5
-1.533, 1.272e-5
-1.532, 1.228e-5
-1.531, 1.207e-5
-1.530, 1.196e-5
-1.529, 1.173e-5
-1.528, 1.133e-5
-1.527, 1.091e-5
-1.526, 1.071e-5
-1.525, 1.066e-5
-1.524, 1.049e-5
-1.523, 1.004e-5
-1.522, 9.648e-6
-1.521, 9.434e-6
-1.520, 9.485e-6
-1.519, 9.319e-6
-1.518, 8.890e-6
-1.517, 8.510e-6
-1.516, 8.462e-6
-1.515, 8.396e-6
-1.514, 8.250e-6
-1.513, 7.899e-6
-1.512, 7.531e-6
-1.511, 7.482e-6
-1.510, 7.455e-6
-1.509, 7.309e-6
-1.508, 6.992e-6
-1.507, 6.654e-6
-1.506, 6.577e-6
-1.505, 6.567e-6
-1.504, 6.467e-6
-1.503, 6.200e-6
-1.502, 5.821e-6
-1.501, 5.816e-6
-1.500, 5.789e-6
-1.499, 5.711e-6
-1.498, 5.453e-6
-1.497, 5.072e-6
-1.496, 5.074e-6
-1.495, 5.088e-6
-1.494, 5.025e-6
-1.493, 4.720e-6
-1.492, 4.452e-6
-1.491, 4.392e-6
-1.490, 4.453e-6
-1.489, 4.340e-6
-1.488, 4.148e-6
-1.487, 3.879e-6
-1.486, 3.801e-6
-1.485, 3.883e-6
-1.484, 3.828e-6
-1.483, 3.573e-6
-1.482, 3.313e-6
-1.481, 3.307e-6
-1.480, 3.352e-6
-1.479, 3.344e-6
-1.478, 3.065e-6
-1.477, 2.833e-6
-1.476, 2.885e-6
-1.475, 2.809e-6
-1.474, 2.906e-6
-1.473, 2.603e-6
-1.472, 2.367e-6
-1.471, 2.392e-6
-1.470, 2.429e-6
-1.469, 2.470e-6
-1.468, 2.222e-6
-1.467, 1.933e-6
-1.466, 2.005e-6
-1.465, 2.014e-6
-1.464, 2.083e-6
-1.463, 1.876e-6
-1.462, 1.627e-6
-1.461, 1.663e-6
-1.460, 1.720e-6
-1.459, 1.712e-6
-1.458, 1.520e-6
-1.457, 1.238e-6
-1.456, 1.343e-6
-1.455, 1.432e-6
-1.454, 1.366e-6
-1.453, 1.214e-6
-1.452, 9.726e-7
-1.451, 1.052e-6
-1.450, 1.095e-6
-1.449, 1.128e-6
-1.448, 9.509e-7
-1.447, 6.875e-7
-1.446, 7.891e-7
-1.445, 8.404e-7
-1.444, 9.144e-7
-1.443, 6.283e-7
-1.442, 4.142e-7
-1.441, 5.237e-7
-1.440, 5.622e-7
-1.439, 6.391e-7
-1.438, 4.270e-7
-1.437, 2.465e-7
-1.436, 3.343e-7
-1.435, 3.510e-7
-1.434, 4.231e-7
-1.433, 1.892e-7
-1.432, -1.401e-8
-1.431, 1.419e-7
-1.430, 1.212e-7
-1.429, 2.050e-7
-1.428, 6.709e-9
-1.427, -2.281e-7
-1.426, -1.097e-7
-1.425, -5.446e-8
-1.424, 1.066e-8
-1.423, -1.344e-7
-1.422, -3.860e-7
-1.421, -2.192e-7
-1.420, -1.965e-7
-1.419, -1.768e-7
-1.418, -3.445e-7
-1.417, -5.704e-7
-1.416, -3.869e-7
-1.415, -4.017e-7
-1.414, -3.495e-7
-1.413, -4.728e-7
-1.412, -6.701e-7
-1.411, -6.060e-7
-1.410, -5.280e-7
-1.409, -4.205e-7
-1.408, -6.000e-7
-1.407, -8.368e-7
-1.406, -7.431e-7
-1.405, -6.296e-7
-1.404, -5.497e-7
-1.403, -7.786e-7
-1.402, -9.838e-7
-1.401, -8.684e-7
-1.400, -7.313e-7
-1.399, -6.849e-7
-1.398, -9.098e-7
-1.397, -1.067e-6
-1.396, -9.759e-7
-1.395, -8.753e-7
-1.394, -7.954e-7
-1.393, -1.026e-6
-1.392, -1.204e-6
-1.391, -1.074e-6
-1.390, -9.828e-7
-1.389, -8.921e-7
-1.388, -1.120e-6
-1.387, -1.286e-6
-1.386, -1.154e-6
-1.385, -1.076e-6
-1.384, -9.690e-7
-1.383, -1.213e-6
-1.382, -1.368e-6
-1.381, -1.263e-6
-1.380, -1.150e-6
-1.379, -1.098e-6
-1.378, -1.261e-6
-1.377, -1.490e-6
-1.376, -1.318e-6
-1.375, -1.265e-6
-1.374, -1.115e-6
-1.373, -1.331e-6
-1.372, -1.536e-6
-1.371, -1.349e-6
-1.370, -1.270e-6
-1.369, -1.193e-6
-1.368, -1.433e-6
-1.367, -1.553e-6
-1.366, -1.452e-6
-1.365, -1.335e-6
-1.364, -1.243e-6
-1.363, -1.425e-6
-1.362, -1.599e-6
-1.361, -1.491e-6
-1.360, -1.378e-6
-1.359, -1.301e-6
-1.358, -1.489e-6
-1.357, -1.667e-6
-1.356, -1.573e-6
-1.355, -1.433e-6
-1.354, -1.350e-6
-1.353, -1.510e-6
-1.352, -1.698e-6
-1.351, -1.591e-6
-1.350, -1.497e-6
-1.349, -1.413e-6
-1.348, -1.540e-6
-1.347, -1.781e-6
-1.346, -1.640e-6
-1.345, -1.487e-6
-1.344, -1.419e-6
-1.343, -1.578e-6
-1.342, -1.769e-6
-1.341, -1.691e-6
-1.340, -1.507e-6
-1.339, -1.467e-6
-1.338, -1.651e-6
-1.337, -1.802e-6
-1.336, -1.664e-6
-1.335, -1.525e-6
-1.334, -1.506e-6
-1.333, -1.631e-6
-1.332, -1.776e-6
-1.331, -1.732e-6
-1.330, -1.601e-6
-1.329, -1.516e-6
-1.328, -1.677e-6
-1.327, -1.863e-6
-1.326, -1.708e-6
-1.325, -1.584e-6
-1.324, -1.527e-6
-1.323, -1.695e-6
-1.322, -1.830e-6
-1.321, -1.714e-6
-1.320, -1.596e-6
-1.319, -1.562e-6
-1.318, -1.730e-6
-1.317, -1.806e-6
-1.316, -1.729e-6
-1.315, -1.638e-6
-1.314, -1.563e-6
-1.313, -1.693e-6
-1.312, -1.832e-6
-1.311, -1.769e-6
-1.310, -1.607e-6
-1.309, -1.561e-6
-1.308, -1.697e-6
-1.307, -1.866e-6
-1.306, -1.788e-6
-1.305, -1.645e-6
-1.304, -1.515e-6
-1.303, -1.671e-6
-1.302, -1.892e-6
-1.301, -1.804e-6
-1.300, -1.561e-6
-1.299, -1.554e-6
-1.298, -1.699e-6
-1.297, -1.866e-6
-1.296, -1.765e-6
-1.295, -1.574e-6
-1.294, -1.598e-6
-1.293, -1.723e-6
-1.292, -1.868e-6
-1.291, -1.814e-6
-1.290, -1.614e-6
-1.289, -1.548e-6
-1.288, -1.723e-6
-1.287, -1.876e-6
-1.286, -1.797e-6
-1.285, -1.609e-6
-1.284, -1.547e-6
-1.283, -1.739e-6
-1.282, -1.873e-6
-1.281, -1.781e-6
-1.280, -1.614e-6
-1.279, -1.576e-6
-1.278, -1.729e-6
-1.277, -1.849e-6
-1.276, -1.800e-6
-1.275, -1.601e-6
-1.274, -1.547e-6
-1.273, -1.752e-6
-1.272, -1.845e-6
-1.271, -1.775e-6
-1.270, -1.601e-6
-1.269, -1.592e-6
-1.268, -1.715e-6
-1.267, -1.910e-6
-1.266, -1.832e-6
-1.265, -1.617e-6
-1.264, -1.558e-6
-1.263, -1.720e-6
-1.262, -1.898e-6
-1.261, -1.828e-6
-1.260, -1.612e-6
-1.259, -1.606e-6
-1.258, -1.756e-6
-1.257, -1.871e-6
-1.256, -1.862e-6
-1.255, -1.645e-6
-1.254, -1.601e-6
-1.253, -1.712e-6
-1.252, -1.856e-6
-1.251, -1.892e-6
-1.250, -1.603e-6
-1.249, -1.596e-6
-1.248, -1.763e-6
-1.247, -1.869e-6
-1.246, -1.871e-6
-1.245, -1.645e-6
-1.244, -1.613e-6
-1.243, -1.754e-6
-1.242, -1.890e-6
-1.241, -1.910e-6
-1.240, -1.648e-6
-1.239, -1.577e-6
-1.238, -1.805e-6
-1.237, -1.916e-6
-1.236, -1.894e-6
-1.235, -1.648e-6
-1.234, -1.674e-6
-1.233, -1.740e-6
-1.232, -1.916e-6
-1.231, -1.905e-6
-1.230, -1.665e-6
-1.229, -1.652e-6
-1.228, -1.760e-6
-1.227, -1.943e-6
-1.226, -1.953e-6
-1.225, -1.682e-6
-1.224, -1.642e-6
-1.223, -1.805e-6
-1.222, -1.955e-6
-1.221, -1.956e-6
-1.220, -1.708e-6
-1.219, -1.663e-6
-1.218, -1.819e-6
-1.217, -1.950e-6
-1.216, -1.981e-6
-1.215, -1.764e-6
-1.214, -1.685e-6
-1.213, -1.764e-6
-1.212, -1.968e-6
-1.211, -2.016e-6
-1.210, -1.760e-6
-1.209, -1.697e-6
-1.208, -1.787e-6
-1.207, -1.948e-6
-1.206, -2.032e-6
-1.205, -1.729e-6
-1.204, -1.723e-6
-1.203, -1.872e-6
-1.202, -1.985e-6
-1.201, -2.046e-6
-1.200, -1.794e-6
-1.199, -1.676e-6
-1.198, -1.847e-6
-1.197, -1.998e-6
-1.196, -2.003e-6
-1.195, -1.810e-6
-1.194, -1.757e-6
-1.193, -1.855e-6
-1.192, -2.002e-6
-1.191, -2.043e-6
-1.190, -1.845e-6
-1.189, -1.752e-6
-1.188, -1.856e-6
-1.187, -2.054e-6
-1.186, -2.091e-6
-1.185, -1.853e-6
-1.184, -1.795e-6
-1.183, -1.943e-6
-1.182, -2.039e-6
-1.181, -2.119e-6
-1.180, -1.855e-6
-1.179, -1.838e-6
-1.178, -1.948e-6
-1.177, -2.055e-6
-1.176, -2.107e-6
-1.175, -1.891e-6
-1.174, -1.822e-6
-1.173, -1.943e-6
-1.172, -2.079e-6
-1.171, -2.162e-6
-1.170, -1.893e-6
-1.169, -1.809e-6
-1.168, -1.964e-6
-1.167, -2.126e-6
-1.166, -2.130e-6
-1.165, -1.919e-6
-1.164, -1.846e-6
-1.163, -1.947e-6
-1.162, -2.119e-6
-1.161, -2.184e-6
-1.160, -1.922e-6
-1.159, -1.860e-6
-1.158, -1.972e-6
-1.157, -2.166e-6
-1.156, -2.202e-6
-1.155, -2.003e-6
-1.154, -1.870e-6
-1.153, -1.995e-6
-1.152, -2.149e-6
-1.151, -2.166e-6
-1.150, -1.978e-6
-1.149, -1.840e-6
-1.148, -2.014e-6
-1.147, -2.183e-6
-1.146, -2.218e-6
-1.145, -1.996e-6
-1.144, -1.926e-6
-1.143, -2.006e-6
-1.142, -2.203e-6
-1.141, -2.191e-6
-1.140, -1.994e-6
-1.139, -1.954e-6
-1.138, -2.020e-6
-1.137, -2.236e-6
-1.136, -2.220e-6
-1.135, -2.008e-6
-1.134, -1.944e-6
-1.133, -2.049e-6
-1.132, -2.209e-6
-1.131, -2.254e-6
-1.130, -2.019e-6
-1.129, -1.964e-6
-1.128, -2.021e-6
-1.127, -2.217e-6
-1.126, -2.309e-6
-1.125, -2.048e-6
-1.124, -1.911e-6
-1.123, -2.091e-6
-1.122, -2.270e-6
-1.121, -2.237e-6
-1.120, -2.080e-6
-1.119, -1.966e-6
-1.118, -2.070e-6
-1.117, -2.243e-6
-1.116, -2.240e-6
-1.115, -2.095e-6
-1.114, -2.017e-6
-1.113, -2.082e-6
-1.112, -2.304e-6
-1.111, -2.319e-6
-1.110, -2.104e-6
-1.109, -1.991e-6
-1.108, -2.092e-6
-1.107, -2.278e-6
-1.106, -2.296e-6
-1.105, -2.113e-6
-1.104, -2.000e-6
-1.103, -2.090e-6
-1.102, -2.309e-6
-1.101, -2.270e-6
-1.100, -2.136e-6
-1.099, -2.109e-6
-1.098, -2.080e-6
-1.097, -2.326e-6
-1.096, -2.321e-6
-1.095, -2.132e-6
-1.094, -2.062e-6
-1.093, -2.113e-6
-1.092, -2.317e-6
-1.091, -2.330e-6
-1.090, -2.176e-6
-1.089, -2.068e-6
-1.088, -2.141e-6
-1.087, -2.329e-6
-1.086, -2.298e-6
-1.085, -2.191e-6
-1.084, -2.068e-6
-1.083, -2.129e-6
-1.082, -2.376e-6
-1.081, -2.354e-6
-1.080, -2.181e-6
-1.079, -2.142e-6
-1.078, -2.172e-6
-1.077, -2.371e-6
-1.076, -2.376e-6
-1.075, -2.230e-6
-1.074, -2.146e-6
-1.073, -2.197e-6
-1.072, -2.402e-6
-1.071, -2.407e-6
-1.070, -2.245e-6
-1.069, -2.131e-6
-1.068, -2.244e-6
-1.067, -2.389e-6
-1.066, -2.416e-6
-1.065, -2.267e-6
-1.064, -2.118e-6
-1.063, -2.231e-6
-1.062, -2.451e-6
-1.061, -2.415e-6
-1.060, -2.277e-6
-1.059, -2.196e-6
-1.058, -2.251e-6
-1.057, -2.492e-6
-1.056, -2.441e-6
-1.055, -2.320e-6
-1.054, -2.221e-6
-1.053, -2.287e-6
-1.052, -2.479e-6
-1.051, -2.516e-6
-1.050, -2.389e-6
-1.049, -2.235e-6
-1.048, -2.282e-6
-1.047, -2.517e-6
-1.046, -2.523e-6
-1.045, -2.382e-6
-1.044, -2.211e-6
-1.043, -2.367e-6
-1.042, -2.509e-6
-1.041, -2.565e-6
-1.040, -2.391e-6
-1.039, -2.232e-6
-1.038, -2.367e-6
-1.037, -2.525e-6
-1.036, -2.560e-6
-1.035, -2.443e-6
-1.034, -2.290e-6
-1.033, -2.426e-6
-1.032, -2.525e-6
-1.031, -2.575e-6
-1.030, -2.515e-6
-1.029, -2.330e-6
-1.028, -2.414e-6
-1.027, -2.585e-6
-1.026, -2.636e-6
-1.025, -2.509e-6
-1.024, -2.373e-6
-1.023, -2.484e-6
-1.022, -2.630e-6
-1.021, -2.656e-6
-1.020, -2.597e-6
-1.019, -2.440e-6
-1.018, -2.509e-6
-1.017, -2.632e-6
-1.016, -2.670e-6
-1.015, -2.596e-6
-1.014, -2.447e-6
-1.013, -2.534e-6
-1.012, -2.657e-6
-1.011, -2.748e-6
-1.010, -2.602e-6
-1.009, -2.474e-6
-1.008, -2.580e-6
-1.007, -2.687e-6
-1.006, -2.808e-6
-1.005, -2.637e-6
-1.004, -2.508e-6
-1.003, -2.628e-6
-1.002, -2.674e-6
-1.001, -2.814e-6
-1.000, -9.207e-7
-1.001, -3.199e-7
-1.002, -3.041e-7
-1.003, -2.834e-7
-1.004, -2.577e-7
-1.005, -6.433e-8
-1.006, 1.586e-7
-1.007, 1.014e-7
-1.008, 6.393e-8
-1.009, 5.998e-8
-1.010, 1.981e-7
-1.011, 4.428e-7
-1.012, 3.510e-7
-1.013, 3.185e-7
-1.014, 2.336e-7
-1.015, 4.349e-7
-1.016, 5.750e-7
-1.017, 5.345e-7
-1.018, 4.773e-7
-1.019, 3.777e-7
-1.020, 5.493e-7
-1.021, 7.388e-7
-1.022, 6.460e-7
-1.023, 6.125e-7
-1.024, 4.793e-7
-1.025, 6.845e-7
-1.026, 8.907e-7
-1.027, 7.595e-7
-1.028, 7.102e-7
-1.029, 6.174e-7
-1.030, 8.029e-7
-1.031, 9.933e-7
-1.032, 8.197e-7
-1.033, 7.911e-7
-1.034, 7.338e-7
-1.035, 8.483e-7
-1.036, 1.065e-6
-1.037, 9.430e-7
-1.038, 8.394e-7
-1.039, 8.276e-7
-1.040, 9.361e-7
-1.041, 1.122e-6
-1.042, 1.025e-6
-1.043, 9.045e-7
-1.044, 8.354e-7
-1.045, 1.032e-6
-1.046, 1.173e-6
-1.047, 1.074e-6
-1.048, 9.686e-7
-1.049, 9.173e-7
-1.050, 1.111e-6
-1.051, 1.225e-6
-1.052, 1.159e-6
-1.053, 1.093e-6
-1.054, 9.568e-7
-1.055, 1.172e-6
-1.056, 1.298e-6
-1.057, 1.197e-6
-1.058, 1.118e-6
-1.059, 9.963e-7
-1.060, 1.202e-6
-1.061, 1.401e-6
-1.062, 1.211e-6
-1.063, 1.141e-6
-1.064, 1.069e-6
-1.065, 1.248e-6
-1.066, 1.406e-6
-1.067, 1.254e-6
-1.068, 1.208e-6
-1.069, 1.148e-6
-1.070, 1.301e-6
-1.071, 1.470e-6
-1.072, 1.323e-6
-1.073, 1.270e-6
-1.074, 1.233e-6
-1.075, 1.324e-6
-1.076, 1.532e-6
-1.077, 1.408e-6
-1.078, 1.301e-6
-1.079, 1.247e-6
-1.080, 1.346e-6
-1.081, 1.577e-6
-1.082, 1.483e-6
-1.083, 1.360e-6
-1.084, 1.286e-6
-1.085, 1.422e-6
-1.086, 1.590e-6
-1.087, 1.478e-6
-1.088, 1.384e-6
-1.089, 1.317e-6
-1.090, 1.496e-6
-1.091, 1.619e-6
-1.092, 1.529e-6
-1.093, 1.448e-6
-1.094, 1.370e-6
-1.095, 1.515e-6
-1.096, 1.660e-6
-1.097, 1.558e-6
-1.098, 1.490e-6
-1.099, 1.435e-6
-1.100, 1.527e-6
-1.101, 1.733e-6
-1.102, 1.644e-6
-1.103, 1.484e-6
-1.104, 1.487e-6
-1.105, 1.552e-6
-1.106, 1.782e-6
-1.107, 1.704e-6
-1.108, 1.497e-6
-1.109, 1.516e-6
-1.110, 1.602e-6
-1.111, 1.774e-6
-1.112, 1.685e-6
-1.113, 1.563e-6
-1.114, 1.559e-6
-1.115, 1.649e-6
-1.116, 1.839e-6
-1.117, 1.765e-6
-1.118, 1.603e-6
-1.119, 1.555e-6
-1.120, 1.730e-6
-1.121, 1.882e-6
-1.122, 1.861e-6
-1.123, 1.641e-6
-1.124, 1.632e-6
-1.125, 1.779e-6
-1.126, 1.877e-6
-1.127, 1.888e-6
-1.128, 1.687e-6
-1.129, 1.653e-6
-1.130, 1.830e-6
-1.131, 1.941e-6
-1.132, 1.901e-6
-1.133, 1.730e-6
-1.134, 1.665e-6
-1.135, 1.875e-6
-1.136, 2.002e-6
-1.137, 1.949e-6
-1.138, 1.792e-6
-1.139, 1.722e-6
-1.140, 1.865e-6
-1.141, 2.045e-6
-1.142, 2.028e-6
-1.143, 1.814e-6
-1.144, 1.773e-6
-1.145, 1.876e-6
-1.146, 2.090e-6
-1.147, 2.010e-6
-1.148, 1.806e-6
-1.149, 1.851e-6
-1.150, 1.925e-6
-1.151, 2.101e-6
-1.152, 2.126e-6
-1.153, 1.869e-6
-1.154, 1.882e-6
-1.155, 1.984e-6
-1.156, 2.161e-6
-1.157, 2.116e-6
-1.158, 1.893e-6
-1.159, 1.914e-6
-1.160, 2.010e-6
-1.161, 2.161e-6
-1.162, 2.175e-6
-1.163, 1.946e-6
-1.164, 1.925e-6
-1.165, 2.068e-6
-1.166, 2.183e-6
-1.167, 2.255e-6
-1.168, 1.954e-6
-1.169, 1.936e-6
-1.170, 2.136e-6
-1.171, 2.230e-6
-1.172, 2.288e-6
-1.173, 2.016e-6
-1.174, 1.961e-6
-1.175, 2.164e-6
-1.176, 2.258e-6
-1.177, 2.290e-6
-1.178, 2.048e-6
-1.179, 1.948e-6
-1.180, 2.129e-6
-1.181, 2.300e-6
-1.182, 2.327e-6
-1.183, 2.087e-6
-1.184, 2.063e-6
-1.185, 2.128e-6
-1.186, 2.350e-6
-1.187, 2.379e-6
-1.188, 2.137e-6
-1.189, 2.091e-6
-1.190, 2.198e-6
-1.191, 2.397e-6
-1.192, 2.360e-6
-1.193, 2.167e-6
-1.194, 2.090e-6
-1.195, 2.247e-6
-1.196, 2.399e-6
-1.197, 2.420e-6
-1.198, 2.230e-6
-1.199, 2.129e-6
-1.200, 2.246e-6
-1.201, 2.424e-6
-1.202, 2.459e-6
-1.203, 2.188e-6
-1.204, 2.181e-6
-1.205, 2.294e-6
-1.206, 2.442e-6
-1.207, 2.472e-6
-1.208, 2.230e-6
-1.209, 2.224e-6
-1.210, 2.315e-6
-1.211, 2.459e-6
-1.212, 2.504e-6
-1.213, 2.234e-6
-1.214, 2.187e-6
-1.215, 2.343e-6
-1.216, 2.493e-6
-1.217, 2.572e-6
-1.218, 2.272e-6
-1.219, 2.210e-6
-1.220, 2.360e-6
-1.221, 2.525e-6
-1.222, 2.553e-6
-1.223, 2.303e-6
-1.224, 2.230e-6
-1.225, 2.368e-6
-1.226, 2.527e-6
-1.227, 2.596e-6
-1.228, 2.363e-6
-1.229, 2.279e-6
-1.230, 2.422e-6
-1.231, 2.541e-6
-1.232, 2.640e-6
-1.233, 2.359e-6
-1.234, 2.302e-6
-1.235, 2.440e-6
-1.236, 2.562e-6
-1.237, 2.655e-6
-1.238, 2.426e-6
-1.239, 2.279e-6
-1.240, 2.440e-6
-1.241, 2.603e-6
-1.242, 2.637e-6
-1.243, 2.415e-6
-1.244, 2.340e-6
-1.245, 2.459e-6
-1.246, 2.636e-6
-1.247, 2.666e-6
-1.248, 2.452e-6
-1.249, 2.318e-6
-1.250, 2.470e-6
-1.251, 2.652e-6
-1.252, 2.633e-6
-1.253, 2.462e-6
-1.254, 2.359e-6
-1.255, 2.520e-6
-1.256, 2.642e-6
-1.257, 2.687e-6
-1.258, 2.488e-6
-1.259, 2.389e-6
-1.260, 2.498e-6
-1.261, 2.660e-6
-1.262, 2.698e-6
-1.263, 2.453e-6
-1.264, 2.401e-6
-1.265, 2.472e-6
-1.266, 2.671e-6
-1.267, 2.709e-6
-1.268, 2.491e-6
-1.269, 2.450e-6
-1.270, 2.464e-6
-1.271, 2.667e-6
-1.272, 2.737e-6
-1.273, 2.513e-6
-1.274, 2.424e-6
-1.275, 2.517e-6
-1.276, 2.694e-6
-1.277, 2.775e-6
-1.278, 2.524e-6
-1.279, 2.452e-6
-1.280, 2.553e-6
-1.281, 2.730e-6
-1.282, 2.757e-6
-1.283, 2.521e-6
-1.284, 2.504e-6
-1.285, 2.554e-6
-1.286, 2.706e-6
-1.287, 2.785e-6
-1.288, 2.577e-6
-1.289, 2.494e-6
-1.290, 2.580e-6
-1.291, 2.714e-6
-1.292, 2.774e-6
-1.293, 2.609e-6
-1.294, 2.495e-6
-1.295, 2.592e-6
-1.296, 2.768e-6
-1.297, 2.803e-6
-1.298, 2.644e-6
-1.299, 2.517e-6
-1.300, 2.574e-6
-1.301, 2.813e-6
-1.302, 2.846e-6
-1.303, 2.639e-6
-1.304, 2.566e-6
-1.305, 2.597e-6
-1.306, 2.845e-6
-1.307, 2.839e-6
-1.308, 2.661e-6
-1.309, 2.598e-6
-1.310, 2.612e-6
-1.311, 2.877e-6
-1.312, 2.865e-6
-1.313, 2.674e-6
-1.314, 2.600e-6
-1.315, 2.650e-6
-1.316, 2.883e-6
-1.317, 2.940e-6
-1.318, 2.716e-6
-1.319, 2.617e-6
-1.320, 2.694e-6
-1.321, 2.907e-6
-1.322, 2.937e-6
-1.323, 2.751e-6
-1.324, 2.658e-6
-1.325, 2.728e-6
-1.326, 2.945e-6
-1.327, 2.960e-6
-1.328, 2.784e-6
-1.329, 2.698e-6
-1.330, 2.757e-6
-1.331, 3.011e-6
-1.332, 2.949e-6
-1.333, 2.839e-6
-1.334, 2.755e-6
-1.335, 2.801e-6
-1.336, 3.036e-6
-1.337, 3.039e-6
-1.338, 2.897e-6
-1.339, 2.767e-6
-1.340, 2.861e-6
-1.341, 3.096e-6
-1.342, 3.081e-6
-1.343, 2.918e-6
-1.344, 2.828e-6
-1.345, 2.894e-6
-1.346, 3.140e-6
-1.347, 3.164e-6
-1.348, 2.968e-6
-1.349, 2.904e-6
-1.350, 2.957e-6
-1.351, 3.216e-6
-1.352, 3.233e-6
-1.353, 3.033e-6
-1.354, 2.952e-6
-1.355, 3.048e-6
-1.356, 3.252e-6
-1.357, 3.342e-6
-1.358, 3.154e-6
-1.359, 3.038e-6
-1.360, 3.094e-6
-1.361, 3.343e-6
-1.362, 3.370e-6
-1.363, 3.240e-6
-1.364, 3.091e-6
-1.365, 3.240e-6
-1.366, 3.380e-6
-1.367, 3.452e-6
-1.368, 3.331e-6
-1.369, 3.175e-6
-1.370, 3.289e-6
-1.371, 3.529e-6
-1.372, 3.506e-6
-1.373, 3.408e-6
-1.374, 3.281e-6
-1.375, 3.341e-6
-1.376, 3.570e-6
-1.377, 3.629e-6
-1.378, 3.517e-6
-1.379, 3.358e-6
-1.380, 3.469e-6
-1.381, 3.676e-6
-1.382, 3.730e-6
-1.383, 3.606e-6
-1.384, 3.463e-6
-1.385, 3.602e-6
-1.386, 3.771e-6
-1.387, 3.885e-6
-1.388, 3.698e-6
-1.389, 3.594e-6
-1.390, 3.736e-6
-1.391, 3.888e-6
-1.392, 3.966e-6
-1.393, 3.833e-6
-1.394, 3.712e-6
-1.395, 3.866e-6
-1.396, 3.990e-6
-1.397, 4.091e-6
-1.398, 3.995e-6
-1.399, 3.836e-6
-1.400, 3.980e-6
-1.401, 4.098e-6
-1.402, 4.248e-6
-1.403, 4.105e-6
-1.404, 4.026e-6
-1.405, 4.094e-6
-1.406, 4.224e-6
-1.407, 4.400e-6
-1.408, 4.259e-6
-1.409, 4.148e-6
-1.410, 4.307e-6
-1.411, 4.418e-6
-1.412, 4.564e-6
-1.413, 4.408e-6
-1.414, 4.283e-6
-1.415, 4.508e-6
-1.416, 4.597e-6
-1.417, 4.689e-6
-1.418, 4.603e-6
-1.419, 4.447e-6
-1.420, 4.649e-6
-1.421, 4.776e-6
-1.422, 4.887e-6
-1.423, 4.799e-6
-1.424, 4.608e-6
-1.425, 4.779e-6
-1.426, 4.967e-6
-1.427, 5.096e-6
-1.428, 4.950e-6
-1.429, 4.820e-6
-1.430, 5.012e-6
-1.431, 5.169e-6
-1.432, 5.304e-6
-1.433, 5.166e-6
-1.434, 5.044e-6
-1.435, 5.283e-6
-1.436, 5.393e-6
-1.437, 5.554e-6
-1.438, 5.366e-6
-1.439, 5.303e-6
-1.440, 5.467e-6
-1.441, 5.612e-6
-1.442, 5.772e-6
-1.443, 5.595e-6
-1.444, 5.532e-6
-1.445, 5.697e-6
-1.446, 5.860e-6
-1.447, 5.999e-6
-1.448, 5.896e-6
-1.449, 5.728e-6
-1.450, 5.978e-6
-1.451, 6.114e-6
-1.452, 6.274e-6
-1.453, 6.183e-6
-1.454, 6.035e-6
-1.455, 6.238e-6
-1.456, 6.362e-6
-1.457, 6.578e-6
-1.458, 6.486e-6
-1.459, 6.342e-6
-1.460, 6.509e-6
-1.461, 6.681e-6
-1.462, 6.877e-6
-1.463, 6.805e-6
-1.464, 6.610e-6
-1.465, 6.835e-6
-1.466, 7.029e-6
-1.467, 7.181e-6
-1.468, 7.089e-6
-1.469, 6.961e-6
-1.470, 7.221e-6
-1.471, 7.387e-6
-1.472, 7.563e-6
-1.473, 7.463e-6
-1.474, 7.374e-6
-1.475, 7.610e-6
-1.476, 7.788e-6
-1.477, 7.950e-6
-1.478, 7.848e-6
-1.479, 7.794e-6
-1.480, 7.929e-6
-1.481, 8.194e-6
-1.482, 8.420e-6
-1.483, 8.243e-6
-1.484, 8.202e-6
-1.485, 8.403e-6
-1.486, 8.657e-6
-1.487, 8.868e-6
-1.488, 8.744e-6
-1.489, 8.692e-6
-1.490, 8.887e-6
-1.491, 9.140e-6
-1.492, 9.296e-6
-1.493, 9.300e-6
-1.494, 9.196e-6
-1.495, 9.421e-6
-1.496, 9.660e-6
-1.497, 9.855e-6
-1.498, 9.820e-6
-1.499, 9.767e-6
-1.500, 1.001e-5
-1.501, 1.027e-5
-1.502, 1.049e-5
-1.503, 1.046e-5
-1.504, 1.044e-5
-1.505, 1.058e-5
-1.506, 1.095e-5
-1.507, 1.113e-5
-1.508, 1.114e-5
-1.509, 1.110e-5
-1.510, 1.132e-5
-1.511, 1.163e-5
-1.512, 1.181e-5
-1.513, 1.183e-5
-1.514, 1.183e-5
-1.515, 1.207e-5
-1.516, 1.247e-5
-1.517, 1.268e-5
-1.518, 1.272e-5
-1.519, 1.267e-5
-1.520, 1.292e-5
-1.521, 1.331e-5
-1.522, 1.349e-5
-1.523, 1.358e-5
-1.524, 1.360e-5
-1.525, 1.384e-5
-1.526, 1.427e-5
-1.527, 1.453e-5
-1.528, 1.455e-5
-1.529, 1.462e-5
-1.530, 1.489e-5
-1.531, 1.534e-5
-1.532, 1.564e-5
-1.533, 1.569e-5
-1.534, 1.575e-5
-1.535, 1.609e-5
-1.536, 1.652e-5
-1.537, 1.678e-5
-1.538, 1.695e-5
-1.539, 1.700e-5
-1.540, 1.730e-5
-1.541, 1.782e-5
-1.542, 1.817e-5
-1.543, 1.829e-5
-1.544, 1.844e-5
-1.545, 1.870e-5
-1.546, 1.930e-5
-1.547, 1.970e-5
-1.548, 1.986e-5
-1.549, 2.000e-5
-1.550, 2.037e-5
-1.551, 2.099e-5
-1.552, 2.134e-5
-1.553, 2.160e-5
-1.554, 2.178e-5
-1.555, 2.211e-5
-1.556, 2.282e-5
-1.557, 2.323e-5
-1.558, 2.351e-5
-1.559, 2.375e-5
-1.560, 2.412e-5
-1.561, 2.483e-5
-1.562, 2.538e-5
-1.563, 2.561e-5
-1.564, 2.593e-5
-1.565, 2.637e-5
-1.566, 2.711e-5
-1.567, 2.772e-5
-1.568, 2.804e-5
-1.569, 2.840e-5
-1.570, 2.885e-5
-1.571, 2.960e-5
-1.572, 3.024e-5
-1.573, 3.071e-5
-1.574, 3.111e-5
-1.575, 3.166e-5
-1.576, 3.251e-5
-1.577, 3.319e-5
-1.578, 3.368e-5
-1.579, 3.410e-5
-1.580, 3.479e-5
-1.581, 3.567e-5
-1.582, 3.642e-5
-1.583, 3.700e-5
-1.584, 3.746e-5
-1.585, 3.810e-5
-1.586, 3.918e-5
-1.587, 4.000e-5
-1.588, 4.068e-5
-1.589, 4.123e-5
-1.590, 4.194e-5
-1.591, 4.307e-5
-1.592, 4.396e-5
-1.593, 4.476e-5
-1.594, 4.545e-5
-1.595, 4.621e-5
-1.596, 4.743e-5
-1.597, 4.846e-5
-1.598, 4.925e-5
-1.599, 5.009e-5
-1.600, 4.778e-5
-1.599, 4.654e-5
-1.598, 4.561e-5
-1.597, 4.444e-5
-1.596, 4.328e-5
-1.595, 4.219e-5
-1.594, 4.159e-5
-1.593, 4.075e-5
-1.592, 3.974e-5
-1.591, 3.867e-5
-1.590, 3.775e-5
-1.589, 3.723e-5
-1.588, 3.651e-5
-1.587, 3.552e-5
-1.586, 3.457e-5
-1.585, 3.373e-5
-1.584, 3.327e-5
-1.583, 3.263e-5
-1.582, 3.179e-5
-1.581, 3.090e-5
-1.580, 3.010e-5
-1.579, 2.974e-5
-1.578, 2.918e-5
-1.577, 2.841e-5
-1.576, 2.761e-5
-1.575, 2.692e-5
-1.574, 2.656e-5
-1.573, 2.610e-5
-1.572, 2.539e-5
-1.571, 2.464e-5
-1.570, 2.402e-5
-1.569, 2.375e-5
-1.568, 2.334e-5
-1.567, 2.268e-5
-1.566, 2.198e-5
-1.565, 2.143e-5
-1.564, 2.121e-5
-1.563, 2.086e-5
-1.562, 2.024e-5
-1.561, 1.957e-5
-1.560, 1.916e-5
-1.559, 1.892e-5
-1.558, 1.863e-5
-1.557, 1.812e-5
-1.556, 1.746e-5
-1.555, 1.700e-5
-1.554, 1.689e-5
-1.553, 1.662e-5
-1.552, 1.614e-5
-1.551, 1.558e-5
-1.550, 1.516e-5
-1.549, 1.512e-5
-1.548, 1.480e-5
-1.547, 1.437e-5
-1.546, 1.388e-5
-1.545, 1.348e-5
-1.544, 1.347e-5
-1.543, 1.322e-5
-1.542, 1.286e-5
-1.541, 1.233e-5
-1.540, 1.201e-5
-1.539, 1.194e-5
-1.538, 1.182e-5
-1.537, 1.137e-5
-1.536, 1.095e-5
-1.535, 1.064e-5
-1.534, 1.058e-5
-1.533, 1.052e-5
-1.532, 1.014e-5
-1.531, 9.684e-6
-1.530, 9.458e-6
-1.529, 9.442e-6
-1.528, 9.373e-6
-1.527, 9.057e-6
-1.526, 8.636e-6
-1.525, 8.358e-6
-1.524, 8.399e-6
-1.523, 8.284e-6
-1.522, 8.041e-6
-1.521, 7.580e-6
-1.520, 7.397e-6
-1.519, 7.461e-6
-1.518, 7.367e-6
-1.517, 7.087e-6
-1.516, 6.721e-6
-1.515, 6.499e-6
-1.514, 6.577e-6
-1.513, 6.504e-6
-1.512, 6.293e-6
-1.511, 5.891e-6
-1.510, 5.736e-6
-1.509, 5.819e-6
-1.508, 5.760e-6
-1.507, 5.497e-6
-1.506, 5.227e-6
-1.505, 5.024e-6
-1.504, 5.073e-6
-1.503, 5.140e-6
-1.502, 4.861e-6
-1.501, 4.568e-6
-1.500, 4.413e-6
-1.499, 4.414e-6
-1.498, 4.473e-6
-1.497, 4.321e-6
-1.496, 3.938e-6
-1.495, 3.844e-6
-1.494, 3.885e-6
-1.493, 3.930e-6
-1.492, 3.751e-6
-1.491, 3.403e-6
-1.490, 3.283e-6
-1.489, 3.395e-6
-1.488, 3.384e-6
-1.487, 3.293e-6
-1.486, 2.901e-6
-1.485, 2.840e-6
-1.484, 2.909e-6
-1.483, 2.895e-6
-1.482, 2.779e-6
-1.481, 2.485e-6
-1.480, 2.395e-6
-1.479, 2.483e-6
-1.478, 2.519e-6
-1.477, 2.415e-6
-1.476, 2.067e-6
-1.475, 2.047e-6
-1.474, 2.091e-6
-1.473, 2.128e-6
-1.472, 2.054e-6
-1.471, 1.712e-6
-1.470, 1.637e-6
-1.469, 1.798e-6
-1.468, 1.795e-6
-1.467, 1.667e-6
-1.466, 1.394e-6
-1.465, 1.321e-6
-1.464, 1.472e-6
-1.463, 1.495e-6
-1.462, 1.391e-6
-1.461, 1.093e-6
-1.460, 1.036e-6
-1.459, 1.159e-6
-1.458, 1.239e-6
-1.457, 1.126e-6
-1.456, 8.621e-7
-1.455, 7.526e-7
-1.454, 9.223e-7
-1.453, 9.923e-7
-1.452, 8.502e-7
-1.451, 5.681e-7
-1.450, 5.365e-7
-1.449, 6.145e-7
-1.448, 7.723e-7
-1.447, 6.204e-7
-1.446, 3.214e-7
-1.445, 2.997e-7
-1.444, 4.023e-7
-1.443, 5.099e-7
-1.442, 3.826e-7
-1.441, 1.508e-7
-1.440, 7.281e-8
-1.439, 2.346e-7
-1.438, 2.879e-7
-1.437, 2.425e-7
-1.436, -5.841e-8
-1.435, -1.077e-7
-1.434, 6.196e-8
-1.433, 1.685e-7
-1.432, 2.743e-8
-1.431, -1.965e-7
-1.430, -2.715e-7
-1.429, -1.778e-7
-1.428, -1.105e-8
-1.427, -1.590e-7
-1.426, -3.583e-7
-1.425, -4.461e-7
-1.424, -3.662e-7
-1.423, -1.699e-7
-1.422, -3.149e-7
-1.421, -5.428e-7
-1.420, -5.626e-7
-1.419, -4.895e-7
-1.418, -2.972e-7
-1.417, -4.580e-7
-1.416, -6.415e-7
-1.415, -6.898e-7
-1.414, -6.484e-7
-1.413, -4.373e-7
-1.412, -5.931e-7
-1.411, -7.717e-7
-1.410, -8.921e-7
-1.409, -7.175e-7
-1.408, -5.547e-7
-1.407, -6.967e-7
-1.406, -8.842e-7
-1.405, -9.907e-7
-1.404, -8.654e-7
-1.403, -7.115e-7
-1.402, -8.102e-7
-1.401, -1.005e-6
-1.400, -1.049e-6
-1.399, -9.513e-7
-1.398, -8.053e-7
-1.397, -9.158e-7
-1.396, -1.051e-6
-1.395, -1.134e-6
-1.394, -1.030e-6
-1.393, -8.891e-7
-1.392, -1.009e-6
-1.391, -1.156e-6
-1.390, -1.251e-6
-1.389, -1.103e-6
-1.388, -9.434e-7
-1.387, -1.119e-6
-1.386, -1.146e-6
-1.385, -1.330e-6
-1.384, -1.156e-6
-1.383, -9.680e-7
-1.382, -1.166e-6
-1.381, -1.272e-6
-1.380, -1.345e-6
-1.379, -1.283e-6
-1.378, -1.051e-6
-1.377, -1.233e-6
-1.376, -1.312e-6
-1.375, -1.380e-6
-1.374, -1.312e-6
-1.373, -1.119e-6
-1.372, -1.228e-6
-1.371, -1.387e-6
-1.370, -1.460e-6
-1.369, -1.310e-6
-1.368, -1.193e-6
-1.367, -1.274e-6
-1.366, -1.429e-6
-1.365, -1.483e-6
-1.364, -1.332e-6
-1.363, -1.209e-6
-1.362, -1.322e-6
-1.361, -1.451e-6
-1.360, -1.544e-6
-1.359, -1.374e-6
-1.358, -1.231e-6
-1.357, -1.389e-6
-1.356, -1.471e-6
-1.355, -1.578e-6
-1.354, -1.422e-6
-1.353, -1.258e-6
-1.352, -1.392e-6
-1.351, -1.507e-6
-1.350, -1.641e-6
-1.349, -1.470e-6
-1.348, -1.269e-6
-1.347, -1.457e-6
-1.346, -1.506e-6
-1.345, -1.633e-6
-1.344, -1.461e-6
-1.343, -1.288e-6
-1.342, -1.433e-6
-1.341, -1.519e-6
-1.340, -1.645e-6
-1.339, -1.507e-6
-1.338, -1.294e-6
-1.337, -1.485e-6
-1.336, -1.539e-6
-1.335, -1.633e-6
-1.334, -1.502e-6
-1.333, -1.318e-6
-1.332, -1.459e-6
-1.331, -1.597e-6
-1.330, -1.620e-6
-1.329, -1.566e-6
-1.328, -1.332e-6
-1.327, -1.494e-6
-1.326, -1.604e-6
-1.325, -1.667e-6
-1.324, -1.501e-6
-1.323, -1.370e-6
-1.322, -1.468e-6
-1.321, -1.613e-6
-1.320, -1.729e-6
-1.319, -1.536e-6
-1.318, -1.361e-6
-1.317, -1.515e-6
-1.316, -1.579e-6
-1.315, -1.704e-6
-1.314, -1.525e-6
-1.313, -1.395e-6
-1.312, -1.498e-6
-1.311, -1.641e-6
-1.310, -1.717e-6
-1.309, -1.586e-6
-1.308, -1.390e-6
-1.307, -1.496e-6
-1.306, -1.668e-6
-1.305, -1.720e-6
-1.304, -1.597e-6
-1.303, -1.409e-6
-1.302, -1.525e-6
-1.301, -1.693e-6
-1.300, -1.693e-6
-1.299, -1.603e-6
-1.298, -1.440e-6
-1.297, -1.535e-6
-1.296, -1.639e-6
-1.295, -1.721e-6
-1.294, -1.618e-6
-1.293, -1.445e-6
-1.292, -1.512e-6
-1.291, -1.719e-6
-1.290, -1.755e-6
-1.289, -1.613e-6
-1.288, -1.412e-6
-1.287, -1.519e-6
-1.286, -1.746e-6
-1.285, -1.736e-6
-1.284, -1.650e-6
-1.283, -1.483e-6
-1.282, -1.556e-6
-1.281, -1.734e-6
-1.280, -1.767e-6
-1.279, -1.630e-6
-1.278, -1.532e-6
-1.277, -1.547e-6
-1.276, -1.772e-6
-1.275, -1.743e-6
-1.274, -1.661e-6
-1.273, -1.553e-6
-1.272, -1.540e-6
-1.271, -1.772e-6
-1.270, -1.810e-6
-1.269, -1.702e-6
-1.268, -1.522e-6
-1.267, -1.600e-6
-1.266, -1.812e-6
-1.265, -1.824e-6
-1.264, -1.710e-6
-1.263, -1.536e-6
-1.262, -1.597e-6
-1.261, -1.810e-6
-1.260, -1.820e-6
-1.259, -1.759e-6
-1.258, -1.560e-6
-1.257, -1.574e-6
-1.256, -1.855e-6
-1.255, -1.847e-6
-1.254, -1.753e-6
-1.253, -1.596e-6
-1.252, -1.590e-6
-1.251, -1.862e-6
-1.250, -1.913e-6
-1.249, -1.756e-6
-1.248, -1.607e-6
-1.247, -1.664e-6
-1.246, -1.870e-6
-1.245, -1.912e-6
-1.244, -1.786e-6
-1.243, -1.609e-6
-1.242, -1.641e-6
-1.241, -1.884e-6
-1.240, -1.925e-6
-1.239, -1.818e-6
-1.238, -1.627e-6
-1.237, -1.640e-6
-1.236, -1.886e-6
-1.235, -1.971e-6
-1.234, -1.817e-6
-1.233, -1.671e-6
-1.232, -1.627e-6
-1.231, -1.875e-6
-1.230, -1.953e-6
-1.229, -1.886e-6
-1.228, -1.693e-6
-1.227, -1.702e-6
-1.226, -1.889e-6
-1.225, -1.993e-6
-1.224, -1.848e-6
-1.223, -1.691e-6
-1.222, -1.720e-6
-1.221, -1.949e-6
-1.220, -1.937e-6
-1.219, -1.877e-6
-1.218, -1.707e-6
-1.217, -1.709e-6
-1.216, -1.941e-6
-1.215, -2.001e-6
-1.214, -1.862e-6
-1.213, -1.720e-6
-1.212, -1.649e-6
-1.211, -1.955e-6
-1.210, -1.965e-6
-1.209, -1.864e-6
-1.208, -1.711e-6
-1.207, -1.687e-6
-1.206, -1.943e-6
-1.205, -2.013e-6
-1.204, -1.903e-6
-1.203, -1.730e-6
-1.202, -1.703e-6
-1.201, -1.949e-6
-1.200, -1.995e-6
-1.199, -1.950e-6
-1.198, -1.773e-6
-1.197, -1.720e-6
-1.196, -1.946e-6
-1.195, -2.035e-6
-1.194, -1.917e-6
-1.193, -1.787e-6
-1.192, -1.733e-6
-1.191, -1.938e-6
-1.190, -2.059e-6
-1.189, -1.899e-6
-1.188, -1.767e-6
-1.187, -1.745e-6
-1.186, -1.988e-6
-1.185, -2.063e-6
-1.184, -1.926e-6
-1.183, -1.814e-6
-1.182, -1.773e-6
-1.181, -1.990e-6
-1.180, -2.076e-6
-1.179, -1.961e-6
-1.178, -1.842e-6
-1.177, -1.764e-6
-1.176, -1.993e-6
-1.175, -2.141e-6
-1.174, -1.974e-6
-1.173, -1.802e-6
-1.172, -1.784e-6
-1.171, -2.006e-6
-1.170, -2.132e-6
-1.169, -1.968e-6
-1.168, -1.811e-6
-1.167, -1.807e-6
-1.166, -2.011e-6
-1.165, -2.122e-6
-1.164, -1.985e-6
-1.163, -1.868e-6
-1.162, -1.798e-6
-1.161, -2.056e-6
-1.160, -2.134e-6
-1.159, -2.004e-6
-1.158, -1.845e-6
-1.157, -1.809e-6
-1.156, -2.033e-6
-1.155, -2.123e-6
-1.154, -2.042e-6
-1.153, -1.883e-6
-1.152, -1.841e-6
-1.151, -2.042e-6
-1.150, -2.181e-6
-1.149, -2.064e-6
-1.148, -1.865e-6
-1.147, -1.834e-6
-1.146, -2.083e-6
-1.145, -2.200e-6
-1.144, -2.052e-6
-1.143, -1.899e-6
-1.142, -1.895e-6
-1.141, -2.090e-6
-1.140, -2.169e-6
-1.139, -2.123e-6
-1.138, -1.938e-6
-1.137, -1.931e-6
-1.136, -2.119e-6
-1.135, -2.193e-6
-1.134, -2.133e-6
-1.133, -1.906e-6
-1.132, -1.948e-6
-1.131, -2.138e-6
-1.130, -2.221e-6
-1.129, -2.146e-6
-1.128, -1.987e-6
-1.127, -1.950e-6
-1.126, -2.166e-6
-1.125, -2.252e-6
-1.124, -2.145e-6
-1.123, -2.004e-6
-1.122, -1.938e-6
-1.121, -2.193e-6
-1.120, -2.263e-6
-1.119, -2.159e-6
-1.118, -2.014e-6
-1.117, -1.982e-6
-1.116, -2.137e-6
-1.115, -2.277e-6
-1.114, -2.206e-6
-1.113, -2.039e-6
-1.112, -1.998e-6
-1.111, -2.190e-6
-1.110, -2.299e-6
-1.109, -2.224e-6
-1.108, -2.023e-6
-1.107, -2.060e-6
-1.106, -2.221e-6
-1.105, -2.296e-6
-1.104, -2.265e-6
-1.103, -2.031e-6
-1.102, -2.074e-6
-1.101, -2.266e-6
-1.100, -2.287e-6
-1.099, -2.281e-6
-1.098, -2.050e-6
-1.097, -2.062e-6
-1.096, -2.261e-6
-1.095, -2.334e-6
-1.094, -2.290e-6
-1.093, -2.087e-6
-1.092, -2.060e-6
-1.091, -2.298e-6
-1.090, -2.365e-6
-1.089, -2.290e-6
-1.088, -2.124e-6
-1.087, -2.093e-6
-1.086, -2.296e-6
-1.085, -2.386e-6
-1.084, -2.286e-6
-1.083, -2.171e-6
-1.082, -2.139e-6
-1.081, -2.304e-6
-1.080, -2.379e-6
-1.079, -2.314e-6
-1.078, -2.174e-6
-1.077, -2.164e-6
-1.076, -2.291e-6
-1.075, -2.433e-6
-1.074, -2.382e-6
-1.073, -2.189e-6
-1.072, -2.173e-6
-1.071, -2.315e-6
-1.070, -2.426e-6
-1.069, -2.376e-6
-1.068, -2.179e-6
-1.067, -2.193e-6
-1.066, -2.346e-6
-1.065, -2.474e-6
-1.064, -2.406e-6
-1.063, -2.203e-6
-1.062, -2.210e-6
-1.061, -2.349e-6
-1.060, -2.478e-6
-1.059, -2.407e-6
-1.058, -2.242e-6
-1.057, -2.211e-6
-1.056, -2.387e-6
-1.055, -2.505e-6
-1.054, -2.402e-6
-1.053, -2.252e-6
-1.052, -2.260e-6
-1.051, -2.371e-6
-1.050, -2.540e-6
-1.049, -2.459e-6
-1.048, -2.296e-6
-1.047, -2.256e-6
-1.046, -2.395e-6
-1.045, -2.558e-6
-1.044, -2.465e-6
-1.043, -2.317e-6
-1.042, -2.290e-6
-1.041, -2.450e-6
-1.040, -2.580e-6
-1.039, -2.509e-6
-1.038, -2.352e-6
-1.037, -2.304e-6
-1.036, -2.446e-6
-1.035, -2.597e-6
-1.034, -2.496e-6
-1.033, -2.370e-6
-1.032, -2.322e-6
-1.031, -2.457e-6
-1.030, -2.603e-6
-1.029, -2.540e-6
-1.028, -2.406e-6
-1.027, -2.407e-6
-1.026, -2.488e-6
-1.025, -2.645e-6
-1.024, -2.586e-6
-1.023, -2.480e-6
-1.022, -2.406e-6
-1.021, -2.516e-6
-1.020, -2.681e-6
-1.019, -2.633e-6
-1.018, -2.477e-6
-1.017, -2.444e-6
-1.016, -2.559e-6
-1.015, -2.681e-6
-1.014, -2.626e-6
-1.013, -2.526e-6
-1.012, -2.435e-6
-1.011, -2.603e-6
-1.010, -2.777e-6
-1.009, -2.644e-6
-1.008, -2.541e-6
-1.007, -2.454e-6
-1.006, -2.612e-6
-1.005, -2.777e-6
-1.004, -2.670e-6
-1.003, -2.600e-6
-1.002, -2.510e-6
-1.001, -2.650e-6
