Mar. 30, 2025   17:42:27
Linear Sweep Voltammetry
File: c:/users/guazh/data/banditlqround7_x0exp518_r20/2025-03-28-exp991\1acid_1ac-2025-03-30t17_39_17-lsvinphos\1acid_1ac_lsv_50mvs_efin_-2100mv.bin
Data Source:  Experiment
Instrument Model:  CHI760E
Header: LSV ran at 50 mVs with Efin at -2100mV
Note: 

Init E (V) = -0.6
Final E (V) = -2.1
Scan Rate (V/s) = 0.05
Sample Interval (V) = 0.001
Quiet Time (sec) = 2
Sensitivity (A/V) = 1e-4
Comp R (ohm) = 9.1

Results:

Channel 1:
Ep = -1.977V
ip = 7.324e-4A
Ah = 9.925e-4C

Potential/V, Current/A

-0.600, 2.747e-6
-0.601, 2.853e-6
-0.602, 2.898e-6
-0.603, 2.932e-6
-0.604, 2.961e-6
-0.605, 2.990e-6
-0.606, 3.019e-6
-0.607, 3.050e-6
-0.608, 3.081e-6
-0.609, 3.109e-6
-0.610, 3.137e-6
-0.611, 3.166e-6
-0.612, 3.197e-6
-0.613, 3.228e-6
-0.614, 3.255e-6
-0.615, 3.283e-6
-0.616, 3.312e-6
-0.617, 3.343e-6
-0.618, 3.374e-6
-0.619, 3.403e-6
-0.620, 3.432e-6
-0.621, 3.462e-6
-0.622, 3.492e-6
-0.623, 3.524e-6
-0.624, 3.552e-6
-0.625, 3.582e-6
-0.626, 3.610e-6
-0.627, 3.643e-6
-0.628, 3.676e-6
-0.629, 3.706e-6
-0.630, 3.736e-6
-0.631, 3.765e-6
-0.632, 3.798e-6
-0.633, 3.831e-6
-0.634, 3.863e-6
-0.635, 3.894e-6
-0.636, 3.924e-6
-0.637, 3.955e-6
-0.638, 3.989e-6
-0.639, 4.020e-6
-0.640, 4.051e-6
-0.641, 4.083e-6
-0.642, 4.113e-6
-0.643, 4.148e-6
-0.644, 4.177e-6
-0.645, 4.207e-6
-0.646, 4.240e-6
-0.647, 4.271e-6
-0.648, 4.306e-6
-0.649, 4.340e-6
-0.650, 4.370e-6
-0.651, 4.403e-6
-0.652, 4.437e-6
-0.653, 4.470e-6
-0.654, 4.505e-6
-0.655, 4.538e-6
-0.656, 4.572e-6
-0.657, 4.605e-6
-0.658, 4.639e-6
-0.659, 4.674e-6
-0.660, 4.706e-6
-0.661, 4.738e-6
-0.662, 4.773e-6
-0.663, 4.808e-6
-0.664, 4.841e-6
-0.665, 4.874e-6
-0.666, 4.910e-6
-0.667, 4.942e-6
-0.668, 4.978e-6
-0.669, 5.011e-6
-0.670, 5.045e-6
-0.671, 5.079e-6
-0.672, 5.113e-6
-0.673, 5.147e-6
-0.674, 5.181e-6
-0.675, 5.214e-6
-0.676, 5.247e-6
-0.677, 5.280e-6
-0.678, 5.317e-6
-0.679, 5.352e-6
-0.680, 5.383e-6
-0.681, 5.417e-6
-0.682, 5.449e-6
-0.683, 5.485e-6
-0.684, 5.519e-6
-0.685, 5.551e-6
-0.686, 5.585e-6
-0.687, 5.619e-6
-0.688, 5.652e-6
-0.689, 5.685e-6
-0.690, 5.716e-6
-0.691, 5.750e-6
-0.692, 5.784e-6
-0.693, 5.819e-6
-0.694, 5.852e-6
-0.695, 5.881e-6
-0.696, 5.912e-6
-0.697, 5.942e-6
-0.698, 5.975e-6
-0.699, 6.007e-6
-0.700, 6.036e-6
-0.701, 6.069e-6
-0.702, 6.100e-6
-0.703, 6.133e-6
-0.704, 6.162e-6
-0.705, 6.191e-6
-0.706, 6.218e-6
-0.707, 6.247e-6
-0.708, 6.279e-6
-0.709, 6.309e-6
-0.710, 6.338e-6
-0.711, 6.367e-6
-0.712, 6.397e-6
-0.713, 6.427e-6
-0.714, 6.454e-6
-0.715, 6.482e-6
-0.716, 6.510e-6
-0.717, 6.540e-6
-0.718, 6.568e-6
-0.719, 6.594e-6
-0.720, 6.621e-6
-0.721, 6.647e-6
-0.722, 6.670e-6
-0.723, 6.696e-6
-0.724, 6.724e-6
-0.725, 6.749e-6
-0.726, 6.773e-6
-0.727, 6.797e-6
-0.728, 6.822e-6
-0.729, 6.847e-6
-0.730, 6.869e-6
-0.731, 6.891e-6
-0.732, 6.913e-6
-0.733, 6.935e-6
-0.734, 6.959e-6
-0.735, 6.980e-6
-0.736, 7.000e-6
-0.737, 7.020e-6
-0.738, 7.042e-6
-0.739, 7.061e-6
-0.740, 7.079e-6
-0.741, 7.098e-6
-0.742, 7.117e-6
-0.743, 7.136e-6
-0.744, 7.154e-6
-0.745, 7.170e-6
-0.746, 7.187e-6
-0.747, 7.202e-6
-0.748, 7.220e-6
-0.749, 7.235e-6
-0.750, 7.249e-6
-0.751, 7.264e-6
-0.752, 7.276e-6
-0.753, 7.292e-6
-0.754, 7.306e-6
-0.755, 7.318e-6
-0.756, 7.330e-6
-0.757, 7.341e-6
-0.758, 7.356e-6
-0.759, 7.366e-6
-0.760, 7.376e-6
-0.761, 7.386e-6
-0.762, 7.395e-6
-0.763, 7.404e-6
-0.764, 7.414e-6
-0.765, 7.421e-6
-0.766, 7.430e-6
-0.767, 7.438e-6
-0.768, 7.449e-6
-0.769, 7.457e-6
-0.770, 7.462e-6
-0.771, 7.469e-6
-0.772, 7.472e-6
-0.773, 7.478e-6
-0.774, 7.485e-6
-0.775, 7.488e-6
-0.776, 7.491e-6
-0.777, 7.494e-6
-0.778, 7.498e-6
-0.779, 7.502e-6
-0.780, 7.504e-6
-0.781, 7.506e-6
-0.782, 7.508e-6
-0.783, 7.509e-6
-0.784, 7.512e-6
-0.785, 7.513e-6
-0.786, 7.512e-6
-0.787, 7.510e-6
-0.788, 7.512e-6
-0.789, 7.511e-6
-0.790, 7.510e-6
-0.791, 7.510e-6
-0.792, 7.506e-6
-0.793, 7.506e-6
-0.794, 7.505e-6
-0.795, 7.501e-6
-0.796, 7.498e-6
-0.797, 7.494e-6
-0.798, 7.492e-6
-0.799, 7.490e-6
-0.800, 7.486e-6
-0.801, 7.481e-6
-0.802, 7.475e-6
-0.803, 7.472e-6
-0.804, 7.467e-6
-0.805, 7.461e-6
-0.806, 7.455e-6
-0.807, 7.448e-6
-0.808, 7.442e-6
-0.809, 7.438e-6
-0.810, 7.430e-6
-0.811, 7.423e-6
-0.812, 7.416e-6
-0.813, 7.410e-6
-0.814, 7.404e-6
-0.815, 7.395e-6
-0.816, 7.387e-6
-0.817, 7.379e-6
-0.818, 7.371e-6
-0.819, 7.368e-6
-0.820, 7.360e-6
-0.821, 7.351e-6
-0.822, 7.341e-6
-0.823, 7.334e-6
-0.824, 7.325e-6
-0.825, 7.318e-6
-0.826, 7.306e-6
-0.827, 7.295e-6
-0.828, 7.287e-6
-0.829, 7.279e-6
-0.830, 7.269e-6
-0.831, 7.258e-6
-0.832, 7.249e-6
-0.833, 7.242e-6
-0.834, 7.232e-6
-0.835, 7.223e-6
-0.836, 7.213e-6
-0.837, 7.202e-6
-0.838, 7.193e-6
-0.839, 7.183e-6
-0.840, 7.170e-6
-0.841, 7.160e-6
-0.842, 7.148e-6
-0.843, 7.138e-6
-0.844, 7.130e-6
-0.845, 7.119e-6
-0.846, 7.109e-6
-0.847, 7.097e-6
-0.848, 7.086e-6
-0.849, 7.078e-6
-0.850, 7.065e-6
-0.851, 7.054e-6
-0.852, 7.043e-6
-0.853, 7.031e-6
-0.854, 7.022e-6
-0.855, 7.011e-6
-0.856, 7.000e-6
-0.857, 6.989e-6
-0.858, 6.978e-6
-0.859, 6.967e-6
-0.860, 6.955e-6
-0.861, 6.944e-6
-0.862, 6.934e-6
-0.863, 6.922e-6
-0.864, 6.913e-6
-0.865, 6.905e-6
-0.866, 6.892e-6
-0.867, 6.881e-6
-0.868, 6.871e-6
-0.869, 6.864e-6
-0.870, 6.854e-6
-0.871, 6.843e-6
-0.872, 6.830e-6
-0.873, 6.820e-6
-0.874, 6.809e-6
-0.875, 6.802e-6
-0.876, 6.790e-6
-0.877, 6.779e-6
-0.878, 6.767e-6
-0.879, 6.759e-6
-0.880, 6.747e-6
-0.881, 6.736e-6
-0.882, 6.725e-6
-0.883, 6.713e-6
-0.884, 6.707e-6
-0.885, 6.696e-6
-0.886, 6.687e-6
-0.887, 6.676e-6
-0.888, 6.664e-6
-0.889, 6.656e-6
-0.890, 6.645e-6
-0.891, 6.634e-6
-0.892, 6.624e-6
-0.893, 6.615e-6
-0.894, 6.606e-6
-0.895, 6.596e-6
-0.896, 6.585e-6
-0.897, 6.574e-6
-0.898, 6.563e-6
-0.899, 6.555e-6
-0.900, 6.543e-6
-0.901, 6.531e-6
-0.902, 6.524e-6
-0.903, 6.515e-6
-0.904, 6.509e-6
-0.905, 6.500e-6
-0.906, 6.488e-6
-0.907, 6.479e-6
-0.908, 6.471e-6
-0.909, 6.464e-6
-0.910, 6.456e-6
-0.911, 6.444e-6
-0.912, 6.436e-6
-0.913, 6.428e-6
-0.914, 6.420e-6
-0.915, 6.411e-6
-0.916, 6.404e-6
-0.917, 6.396e-6
-0.918, 6.387e-6
-0.919, 6.381e-6
-0.920, 6.372e-6
-0.921, 6.364e-6
-0.922, 6.355e-6
-0.923, 6.348e-6
-0.924, 6.342e-6
-0.925, 6.334e-6
-0.926, 6.325e-6
-0.927, 6.318e-6
-0.928, 6.311e-6
-0.929, 6.303e-6
-0.930, 6.295e-6
-0.931, 6.288e-6
-0.932, 6.280e-6
-0.933, 6.270e-6
-0.934, 6.267e-6
-0.935, 6.261e-6
-0.936, 6.253e-6
-0.937, 6.248e-6
-0.938, 6.239e-6
-0.939, 6.235e-6
-0.940, 6.229e-6
-0.941, 6.220e-6
-0.942, 6.215e-6
-0.943, 6.206e-6
-0.944, 6.203e-6
-0.945, 6.197e-6
-0.946, 6.190e-6
-0.947, 6.185e-6
-0.948, 6.180e-6
-0.949, 6.178e-6
-0.950, 6.173e-6
-0.951, 6.166e-6
-0.952, 6.162e-6
-0.953, 6.155e-6
-0.954, 6.150e-6
-0.955, 6.146e-6
-0.956, 6.139e-6
-0.957, 6.133e-6
-0.958, 6.126e-6
-0.959, 6.121e-6
-0.960, 6.116e-6
-0.961, 6.112e-6
-0.962, 6.107e-6
-0.963, 6.100e-6
-0.964, 6.096e-6
-0.965, 6.088e-6
-0.966, 6.082e-6
-0.967, 6.078e-6
-0.968, 6.074e-6
-0.969, 6.070e-6
-0.970, 6.065e-6
-0.971, 6.060e-6
-0.972, 6.055e-6
-0.973, 6.050e-6
-0.974, 6.048e-6
-0.975, 6.041e-6
-0.976, 6.038e-6
-0.977, 6.033e-6
-0.978, 6.028e-6
-0.979, 6.024e-6
-0.980, 6.023e-6
-0.981, 6.016e-6
-0.982, 6.012e-6
-0.983, 6.006e-6
-0.984, 6.004e-6
-0.985, 6.001e-6
-0.986, 5.995e-6
-0.987, 5.992e-6
-0.988, 5.988e-6
-0.989, 5.986e-6
-0.990, 5.983e-6
-0.991, 5.976e-6
-0.992, 5.972e-6
-0.993, 5.968e-6
-0.994, 5.967e-6
-0.995, 5.970e-6
-0.996, 5.970e-6
-0.997, 5.960e-6
-0.998, 5.956e-6
-0.999, 5.949e-6
-1.000, 5.944e-6
-1.001, 5.943e-6
-1.002, 5.938e-6
-1.003, 5.936e-6
-1.004, 5.938e-6
-1.005, 5.938e-6
-1.006, 5.931e-6
-1.007, 5.927e-6
-1.008, 5.925e-6
-1.009, 5.924e-6
-1.010, 5.921e-6
-1.011, 5.919e-6
-1.012, 5.916e-6
-1.013, 5.912e-6
-1.014, 5.911e-6
-1.015, 5.908e-6
-1.016, 5.906e-6
-1.017, 5.904e-6
-1.018, 5.901e-6
-1.019, 5.900e-6
-1.020, 5.900e-6
-1.021, 5.896e-6
-1.022, 5.894e-6
-1.023, 5.892e-6
-1.024, 5.891e-6
-1.025, 5.890e-6
-1.026, 5.886e-6
-1.027, 5.885e-6
-1.028, 5.883e-6
-1.029, 5.882e-6
-1.030, 5.881e-6
-1.031, 5.878e-6
-1.032, 5.875e-6
-1.033, 5.874e-6
-1.034, 5.872e-6
-1.035, 5.873e-6
-1.036, 5.870e-6
-1.037, 5.866e-6
-1.038, 5.866e-6
-1.039, 5.866e-6
-1.040, 5.866e-6
-1.041, 5.864e-6
-1.042, 5.863e-6
-1.043, 5.860e-6
-1.044, 5.861e-6
-1.045, 5.860e-6
-1.046, 5.863e-6
-1.047, 5.866e-6
-1.048, 5.865e-6
-1.049, 5.859e-6
-1.050, 5.860e-6
-1.051, 5.860e-6
-1.052, 5.858e-6
-1.053, 5.857e-6
-1.054, 5.857e-6
-1.055, 5.856e-6
-1.056, 5.851e-6
-1.057, 5.850e-6
-1.058, 5.849e-6
-1.059, 5.851e-6
-1.060, 5.850e-6
-1.061, 5.846e-6
-1.062, 5.844e-6
-1.063, 5.844e-6
-1.064, 5.843e-6
-1.065, 5.844e-6
-1.066, 5.842e-6
-1.067, 5.842e-6
-1.068, 5.841e-6
-1.069, 5.841e-6
-1.070, 5.845e-6
-1.071, 5.849e-6
-1.072, 5.851e-6
-1.073, 5.850e-6
-1.074, 5.849e-6
-1.075, 5.851e-6
-1.076, 5.850e-6
-1.077, 5.846e-6
-1.078, 5.846e-6
-1.079, 5.845e-6
-1.080, 5.847e-6
-1.081, 5.845e-6
-1.082, 5.844e-6
-1.083, 5.841e-6
-1.084, 5.838e-6
-1.085, 5.839e-6
-1.086, 5.838e-6
-1.087, 5.835e-6
-1.088, 5.835e-6
-1.089, 5.837e-6
-1.090, 5.837e-6
-1.091, 5.834e-6
-1.092, 5.832e-6
-1.093, 5.832e-6
-1.094, 5.833e-6
-1.095, 5.833e-6
-1.096, 5.831e-6
-1.097, 5.831e-6
-1.098, 5.830e-6
-1.099, 5.831e-6
-1.100, 5.832e-6
-1.101, 5.832e-6
-1.102, 5.834e-6
-1.103, 5.834e-6
-1.104, 5.845e-6
-1.105, 5.848e-6
-1.106, 5.843e-6
-1.107, 5.842e-6
-1.108, 5.843e-6
-1.109, 5.842e-6
-1.110, 5.843e-6
-1.111, 5.845e-6
-1.112, 5.842e-6
-1.113, 5.845e-6
-1.114, 5.845e-6
-1.115, 5.835e-6
-1.116, 5.833e-6
-1.117, 5.837e-6
-1.118, 5.840e-6
-1.119, 5.839e-6
-1.120, 5.834e-6
-1.121, 5.831e-6
-1.122, 5.828e-6
-1.123, 5.827e-6
-1.124, 5.826e-6
-1.125, 5.826e-6
-1.126, 5.825e-6
-1.127, 5.825e-6
-1.128, 5.825e-6
-1.129, 5.823e-6
-1.130, 5.826e-6
-1.131, 5.827e-6
-1.132, 5.827e-6
-1.133, 5.830e-6
-1.134, 5.831e-6
-1.135, 5.828e-6
-1.136, 5.830e-6
-1.137, 5.830e-6
-1.138, 5.823e-6
-1.139, 5.823e-6
-1.140, 5.824e-6
-1.141, 5.823e-6
-1.142, 5.824e-6
-1.143, 5.824e-6
-1.144, 5.825e-6
-1.145, 5.827e-6
-1.146, 5.826e-6
-1.147, 5.824e-6
-1.148, 5.826e-6
-1.149, 5.822e-6
-1.150, 5.830e-6
-1.151, 5.835e-6
-1.152, 5.838e-6
-1.153, 5.835e-6
-1.154, 5.840e-6
-1.155, 5.839e-6
-1.156, 5.839e-6
-1.157, 5.833e-6
-1.158, 5.831e-6
-1.159, 5.833e-6
-1.160, 5.836e-6
-1.161, 5.832e-6
-1.162, 5.828e-6
-1.163, 5.833e-6
-1.164, 5.833e-6
-1.165, 5.832e-6
-1.166, 5.832e-6
-1.167, 5.830e-6
-1.168, 5.831e-6
-1.169, 5.833e-6
-1.170, 5.827e-6
-1.171, 5.828e-6
-1.172, 5.828e-6
-1.173, 5.825e-6
-1.174, 5.826e-6
-1.175, 5.823e-6
-1.176, 5.825e-6
-1.177, 5.824e-6
-1.178, 5.823e-6
-1.179, 5.818e-6
-1.180, 5.820e-6
-1.181, 5.824e-6
-1.182, 5.824e-6
-1.183, 5.825e-6
-1.184, 5.845e-6
-1.185, 5.854e-6
-1.186, 5.857e-6
-1.187, 5.849e-6
-1.188, 5.851e-6
-1.189, 5.849e-6
-1.190, 5.854e-6
-1.191, 5.860e-6
-1.192, 5.860e-6
-1.193, 5.863e-6
-1.194, 5.857e-6
-1.195, 5.852e-6
-1.196, 5.839e-6
-1.197, 5.839e-6
-1.198, 5.849e-6
-1.199, 5.829e-6
-1.200, 5.826e-6
-1.201, 5.827e-6
-1.202, 5.827e-6
-1.203, 5.831e-6
-1.204, 5.852e-6
-1.205, 5.927e-6
-1.206, 5.927e-6
-1.207, 5.901e-6
-1.208, 5.887e-6
-1.209, 5.888e-6
-1.210, 5.891e-6
-1.211, 5.883e-6
-1.212, 5.889e-6
-1.213, 5.892e-6
-1.214, 5.889e-6
-1.215, 5.888e-6
-1.216, 5.892e-6
-1.217, 5.890e-6
-1.218, 5.879e-6
-1.219, 5.879e-6
-1.220, 5.848e-6
-1.221, 5.847e-6
-1.222, 5.839e-6
-1.223, 5.833e-6
-1.224, 5.830e-6
-1.225, 5.834e-6
-1.226, 5.863e-6
-1.227, 5.863e-6
-1.228, 5.863e-6
-1.229, 5.866e-6
-1.230, 5.865e-6
-1.231, 5.862e-6
-1.232, 5.856e-6
-1.233, 5.852e-6
-1.234, 5.847e-6
-1.235, 5.849e-6
-1.236, 5.856e-6
-1.237, 5.856e-6
-1.238, 5.860e-6
-1.239, 5.861e-6
-1.240, 5.858e-6
-1.241, 5.855e-6
-1.242, 5.864e-6
-1.243, 5.877e-6
-1.244, 5.881e-6
-1.245, 5.893e-6
-1.246, 5.889e-6
-1.247, 5.910e-6
-1.248, 5.918e-6
-1.249, 5.902e-6
-1.250, 5.887e-6
-1.251, 5.909e-6
-1.252, 5.938e-6
-1.253, 5.908e-6
-1.254, 5.896e-6
-1.255, 5.913e-6
-1.256, 5.932e-6
-1.257, 5.944e-6
-1.258, 5.950e-6
-1.259, 5.953e-6
-1.260, 5.957e-6
-1.261, 5.965e-6
-1.262, 5.959e-6
-1.263, 5.956e-6
-1.264, 5.965e-6
-1.265, 5.975e-6
-1.266, 5.978e-6
-1.267, 5.975e-6
-1.268, 5.971e-6
-1.269, 5.964e-6
-1.270, 5.961e-6
-1.271, 5.951e-6
-1.272, 5.943e-6
-1.273, 5.943e-6
-1.274, 5.941e-6
-1.275, 5.941e-6
-1.276, 5.942e-6
-1.277, 5.942e-6
-1.278, 5.944e-6
-1.279, 5.943e-6
-1.280, 5.946e-6
-1.281, 5.950e-6
-1.282, 5.949e-6
-1.283, 5.951e-6
-1.284, 5.953e-6
-1.285, 5.956e-6
-1.286, 5.960e-6
-1.287, 5.961e-6
-1.288, 5.963e-6
-1.289, 5.968e-6
-1.290, 5.972e-6
-1.291, 5.977e-6
-1.292, 5.981e-6
-1.293, 5.983e-6
-1.294, 5.987e-6
-1.295, 5.988e-6
-1.296, 5.992e-6
-1.297, 5.994e-6
-1.298, 5.999e-6
-1.299, 6.001e-6
-1.300, 6.005e-6
-1.301, 6.008e-6
-1.302, 6.012e-6
-1.303, 6.015e-6
-1.304, 6.018e-6
-1.305, 6.021e-6
-1.306, 6.026e-6
-1.307, 6.028e-6
-1.308, 6.031e-6
-1.309, 6.036e-6
-1.310, 6.041e-6
-1.311, 6.044e-6
-1.312, 6.050e-6
-1.313, 6.052e-6
-1.314, 6.056e-6
-1.315, 6.061e-6
-1.316, 6.064e-6
-1.317, 6.067e-6
-1.318, 6.071e-6
-1.319, 6.077e-6
-1.320, 6.083e-6
-1.321, 6.092e-6
-1.322, 6.096e-6
-1.323, 6.101e-6
-1.324, 6.104e-6
-1.325, 6.111e-6
-1.326, 6.118e-6
-1.327, 6.120e-6
-1.328, 6.126e-6
-1.329, 6.134e-6
-1.330, 6.141e-6
-1.331, 6.150e-6
-1.332, 6.154e-6
-1.333, 6.160e-6
-1.334, 6.167e-6
-1.335, 6.170e-6
-1.336, 6.174e-6
-1.337, 6.175e-6
-1.338, 6.182e-6
-1.339, 6.186e-6
-1.340, 6.193e-6
-1.341, 6.201e-6
-1.342, 6.205e-6
-1.343, 6.207e-6
-1.344, 6.211e-6
-1.345, 6.215e-6
-1.346, 6.225e-6
-1.347, 6.232e-6
-1.348, 6.238e-6
-1.349, 6.243e-6
-1.350, 6.250e-6
-1.351, 6.255e-6
-1.352, 6.260e-6
-1.353, 6.264e-6
-1.354, 6.272e-6
-1.355, 6.280e-6
-1.356, 6.287e-6
-1.357, 6.308e-6
-1.358, 6.319e-6
-1.359, 6.326e-6
-1.360, 6.333e-6
-1.361, 6.341e-6
-1.362, 6.344e-6
-1.363, 6.350e-6
-1.364, 6.357e-6
-1.365, 6.364e-6
-1.366, 6.374e-6
-1.367, 6.380e-6
-1.368, 6.387e-6
-1.369, 6.396e-6
-1.370, 6.400e-6
-1.371, 6.409e-6
-1.372, 6.417e-6
-1.373, 6.421e-6
-1.374, 6.431e-6
-1.375, 6.439e-6
-1.376, 6.451e-6
-1.377, 6.454e-6
-1.378, 6.468e-6
-1.379, 6.480e-6
-1.380, 6.488e-6
-1.381, 6.490e-6
-1.382, 6.503e-6
-1.383, 6.514e-6
-1.384, 6.524e-6
-1.385, 6.529e-6
-1.386, 6.538e-6
-1.387, 6.549e-6
-1.388, 6.558e-6
-1.389, 6.569e-6
-1.390, 6.582e-6
-1.391, 6.593e-6
-1.392, 6.604e-6
-1.393, 6.613e-6
-1.394, 6.630e-6
-1.395, 6.646e-6
-1.396, 6.660e-6
-1.397, 6.669e-6
-1.398, 6.680e-6
-1.399, 6.694e-6
-1.400, 6.715e-6
-1.401, 6.730e-6
-1.402, 6.738e-6
-1.403, 6.749e-6
-1.404, 6.765e-6
-1.405, 6.785e-6
-1.406, 6.803e-6
-1.407, 6.819e-6
-1.408, 6.836e-6
-1.409, 6.856e-6
-1.410, 6.872e-6
-1.411, 6.889e-6
-1.412, 6.910e-6
-1.413, 6.928e-6
-1.414, 6.944e-6
-1.415, 6.960e-6
-1.416, 6.989e-6
-1.417, 7.015e-6
-1.418, 7.031e-6
-1.419, 7.046e-6
-1.420, 7.064e-6
-1.421, 7.087e-6
-1.422, 7.103e-6
-1.423, 7.124e-6
-1.424, 7.139e-6
-1.425, 7.162e-6
-1.426, 7.157e-6
-1.427, 7.157e-6
-1.428, 7.180e-6
-1.429, 7.209e-6
-1.430, 7.238e-6
-1.431, 7.237e-6
-1.432, 7.257e-6
-1.433, 7.275e-6
-1.434, 7.288e-6
-1.435, 7.314e-6
-1.436, 7.353e-6
-1.437, 7.375e-6
-1.438, 7.387e-6
-1.439, 7.377e-6
-1.440, 7.402e-6
-1.441, 7.440e-6
-1.442, 7.438e-6
-1.443, 7.426e-6
-1.444, 7.438e-6
-1.445, 7.454e-6
-1.446, 7.475e-6
-1.447, 7.493e-6
-1.448, 7.510e-6
-1.449, 7.521e-6
-1.450, 7.535e-6
-1.451, 7.580e-6
-1.452, 7.614e-6
-1.453, 7.637e-6
-1.454, 7.643e-6
-1.455, 7.651e-6
-1.456, 7.670e-6
-1.457, 7.692e-6
-1.458, 7.710e-6
-1.459, 7.729e-6
-1.460, 7.742e-6
-1.461, 7.765e-6
-1.462, 7.783e-6
-1.463, 7.820e-6
-1.464, 7.880e-6
-1.465, 7.926e-6
-1.466, 7.956e-6
-1.467, 7.988e-6
-1.468, 8.018e-6
-1.469, 8.039e-6
-1.470, 8.051e-6
-1.471, 8.073e-6
-1.472, 8.107e-6
-1.473, 8.140e-6
-1.474, 8.180e-6
-1.475, 8.210e-6
-1.476, 8.235e-6
-1.477, 8.266e-6
-1.478, 8.312e-6
-1.479, 8.706e-6
-1.480, 8.966e-6
-1.481, 8.830e-6
-1.482, 8.828e-6
-1.483, 8.887e-6
-1.484, 8.892e-6
-1.485, 8.960e-6
-1.486, 9.041e-6
-1.487, 9.025e-6
-1.488, 9.109e-6
-1.489, 9.154e-6
-1.490, 9.128e-6
-1.491, 9.343e-6
-1.492, 9.467e-6
-1.493, 9.298e-6
-1.494, 9.341e-6
-1.495, 9.148e-6
-1.496, 9.155e-6
-1.497, 9.178e-6
-1.498, 9.243e-6
-1.499, 9.371e-6
-1.500, 9.336e-6
-1.501, 9.387e-6
-1.502, 9.467e-6
-1.503, 9.512e-6
-1.504, 9.524e-6
-1.505, 9.561e-6
-1.506, 9.627e-6
-1.507, 9.743e-6
-1.508, 9.749e-6
-1.509, 9.731e-6
-1.510, 9.763e-6
-1.511, 9.765e-6
-1.512, 9.817e-6
-1.513, 9.896e-6
-1.514, 9.954e-6
-1.515, 1.003e-5
-1.516, 1.011e-5
-1.517, 1.018e-5
-1.518, 1.026e-5
-1.519, 1.034e-5
-1.520, 1.039e-5
-1.521, 1.049e-5
-1.522, 1.055e-5
-1.523, 1.060e-5
-1.524, 1.063e-5
-1.525, 1.064e-5
-1.526, 1.076e-5
-1.527, 1.082e-5
-1.528, 1.080e-5
-1.529, 1.087e-5
-1.530, 1.096e-5
-1.531, 1.103e-5
-1.532, 1.113e-5
-1.533, 1.134e-5
-1.534, 1.156e-5
-1.535, 1.168e-5
-1.536, 1.164e-5
-1.537, 1.171e-5
-1.538, 1.196e-5
-1.539, 1.213e-5
-1.540, 1.219e-5
-1.541, 1.227e-5
-1.542, 1.235e-5
-1.543, 1.239e-5
-1.544, 1.247e-5
-1.545, 1.255e-5
-1.546, 1.266e-5
-1.547, 1.275e-5
-1.548, 1.272e-5
-1.549, 1.275e-5
-1.550, 1.286e-5
-1.551, 1.286e-5
-1.552, 1.286e-5
-1.553, 1.288e-5
-1.554, 1.285e-5
-1.555, 1.287e-5
-1.556, 1.300e-5
-1.557, 1.305e-5
-1.558, 1.310e-5
-1.559, 1.315e-5
-1.560, 1.332e-5
-1.561, 1.349e-5
-1.562, 1.358e-5
-1.563, 1.364e-5
-1.564, 1.370e-5
-1.565, 1.386e-5
-1.566, 1.398e-5
-1.567, 1.392e-5
-1.568, 1.380e-5
-1.569, 1.388e-5
-1.570, 1.407e-5
-1.571, 1.420e-5
-1.572, 1.432e-5
-1.573, 1.414e-5
-1.574, 1.372e-5
-1.575, 1.387e-5
-1.576, 1.391e-5
-1.577, 1.368e-5
-1.578, 1.326e-5
-1.579, 1.317e-5
-1.580, 1.322e-5
-1.581, 1.329e-5
-1.582, 1.338e-5
-1.583, 1.348e-5
-1.584, 1.358e-5
-1.585, 1.367e-5
-1.586, 1.376e-5
-1.587, 1.384e-5
-1.588, 1.394e-5
-1.589, 1.400e-5
-1.590, 1.408e-5
-1.591, 1.418e-5
-1.592, 1.426e-5
-1.593, 1.438e-5
-1.594, 1.449e-5
-1.595, 1.462e-5
-1.596, 1.473e-5
-1.597, 1.478e-5
-1.598, 1.492e-5
-1.599, 1.503e-5
-1.600, 1.499e-5
-1.601, 1.496e-5
-1.602, 1.503e-5
-1.603, 1.514e-5
-1.604, 1.525e-5
-1.605, 1.542e-5
-1.606, 1.567e-5
-1.607, 1.584e-5
-1.608, 1.592e-5
-1.609, 1.613e-5
-1.610, 1.625e-5
-1.611, 1.635e-5
-1.612, 1.646e-5
-1.613, 1.657e-5
-1.614, 1.668e-5
-1.615, 1.688e-5
-1.616, 1.705e-5
-1.617, 1.716e-5
-1.618, 1.728e-5
-1.619, 1.740e-5
-1.620, 1.750e-5
-1.621, 1.764e-5
-1.622, 1.776e-5
-1.623, 1.780e-5
-1.624, 1.796e-5
-1.625, 1.809e-5
-1.626, 1.819e-5
-1.627, 1.836e-5
-1.628, 1.849e-5
-1.629, 1.866e-5
-1.630, 1.879e-5
-1.631, 1.889e-5
-1.632, 1.900e-5
-1.633, 1.917e-5
-1.634, 1.936e-5
-1.635, 1.955e-5
-1.636, 1.971e-5
-1.637, 1.989e-5
-1.638, 2.006e-5
-1.639, 2.018e-5
-1.640, 2.031e-5
-1.641, 2.050e-5
-1.642, 2.077e-5
-1.643, 2.104e-5
-1.644, 2.138e-5
-1.645, 2.184e-5
-1.646, 2.181e-5
-1.647, 2.201e-5
-1.648, 2.220e-5
-1.649, 2.239e-5
-1.650, 2.259e-5
-1.651, 2.282e-5
-1.652, 2.300e-5
-1.653, 2.322e-5
-1.654, 2.342e-5
-1.655, 2.363e-5
-1.656, 2.389e-5
-1.657, 2.411e-5
-1.658, 2.432e-5
-1.659, 2.459e-5
-1.660, 2.485e-5
-1.661, 2.510e-5
-1.662, 2.531e-5
-1.663, 2.548e-5
-1.664, 2.571e-5
-1.665, 2.602e-5
-1.666, 2.627e-5
-1.667, 2.649e-5
-1.668, 2.675e-5
-1.669, 2.693e-5
-1.670, 2.712e-5
-1.671, 2.733e-5
-1.672, 2.759e-5
-1.673, 2.764e-5
-1.674, 2.774e-5
-1.675, 2.793e-5
-1.676, 2.811e-5
-1.677, 2.825e-5
-1.678, 2.843e-5
-1.679, 2.870e-5
-1.680, 2.905e-5
-1.681, 2.934e-5
-1.682, 2.959e-5
-1.683, 2.988e-5
-1.684, 3.035e-5
-1.685, 3.072e-5
-1.686, 3.084e-5
-1.687, 3.109e-5
-1.688, 3.121e-5
-1.689, 3.180e-5
-1.690, 3.216e-5
-1.691, 3.252e-5
-1.692, 3.290e-5
-1.693, 3.327e-5
-1.694, 3.361e-5
-1.695, 3.397e-5
-1.696, 3.425e-5
-1.697, 3.460e-5
-1.698, 3.525e-5
-1.699, 3.587e-5
-1.700, 3.601e-5
-1.701, 3.604e-5
-1.702, 3.632e-5
-1.703, 3.758e-5
-1.704, 3.772e-5
-1.705, 3.545e-5
-1.706, 3.644e-5
-1.707, 3.518e-5
-1.708, 3.475e-5
-1.709, 3.513e-5
-1.710, 3.553e-5
-1.711, 3.583e-5
-1.712, 3.607e-5
-1.713, 3.632e-5
-1.714, 3.673e-5
-1.715, 3.701e-5
-1.716, 3.743e-5
-1.717, 3.794e-5
-1.718, 3.839e-5
-1.719, 3.900e-5
-1.720, 4.091e-5
-1.721, 4.130e-5
-1.722, 4.182e-5
-1.723, 4.344e-5
-1.724, 4.529e-5
-1.725, 4.575e-5
-1.726, 4.546e-5
-1.727, 4.630e-5
-1.728, 4.516e-5
-1.729, 4.507e-5
-1.730, 4.539e-5
-1.731, 4.554e-5
-1.732, 4.626e-5
-1.733, 4.670e-5
-1.734, 4.731e-5
-1.735, 4.790e-5
-1.736, 4.830e-5
-1.737, 4.871e-5
-1.738, 4.932e-5
-1.739, 4.971e-5
-1.740, 5.006e-5
-1.741, 5.122e-5
-1.742, 5.228e-5
-1.743, 5.300e-5
-1.744, 5.344e-5
-1.745, 5.405e-5
-1.746, 5.481e-5
-1.747, 5.568e-5
-1.748, 5.672e-5
-1.749, 5.774e-5
-1.750, 6.104e-5
-1.751, 6.292e-5
-1.752, 6.325e-5
-1.753, 6.398e-5
-1.754, 6.487e-5
-1.755, 6.682e-5
-1.756, 6.929e-5
-1.757, 7.026e-5
-1.758, 7.096e-5
-1.759, 7.202e-5
-1.760, 7.337e-5
-1.761, 7.492e-5
-1.762, 7.629e-5
-1.763, 7.740e-5
-1.764, 7.915e-5
-1.765, 8.073e-5
-1.766, 8.290e-5
-1.767, 8.665e-5
-1.768, 8.867e-5
-1.769, 9.017e-5
-1.770, 8.951e-5
-1.771, 8.991e-5
-1.772, 9.026e-5
-1.773, 9.179e-5
-1.774, 9.368e-5
-1.775, 9.508e-5
-1.776, 9.697e-5
-1.777, 9.839e-5
-1.778, 9.962e-5
-1.779, 1.013e-4
-1.780, 1.046e-4
-1.781, 1.080e-4
-1.782, 1.126e-4
-1.783, 1.188e-4
-1.784, 1.186e-4
-1.785, 1.219e-4
-1.786, 1.246e-4
-1.787, 1.195e-4
-1.788, 1.118e-4
-1.789, 1.118e-4
-1.790, 1.110e-4
-1.791, 1.120e-4
-1.792, 1.127e-4
-1.793, 1.110e-4
-1.794, 1.122e-4
-1.795, 1.148e-4
-1.796, 1.171e-4
-1.797, 1.187e-4
-1.798, 1.198e-4
-1.799, 1.221e-4
-1.800, 1.253e-4
-1.801, 1.276e-4
-1.802, 1.286e-4
-1.803, 1.301e-4
-1.804, 1.322e-4
-1.805, 1.338e-4
-1.806, 1.359e-4
-1.807, 1.374e-4
-1.808, 1.392e-4
-1.809, 1.415e-4
-1.810, 1.439e-4
-1.811, 1.459e-4
-1.812, 1.480e-4
-1.813, 1.505e-4
-1.814, 1.531e-4
-1.815, 1.557e-4
-1.816, 1.580e-4
-1.817, 1.608e-4
-1.818, 1.628e-4
-1.819, 1.650e-4
-1.820, 1.668e-4
-1.821, 1.694e-4
-1.822, 1.712e-4
-1.823, 1.735e-4
-1.824, 1.757e-4
-1.825, 1.783e-4
-1.826, 1.808e-4
-1.827, 1.828e-4
-1.828, 1.851e-4
-1.829, 1.876e-4
-1.830, 1.906e-4
-1.831, 1.934e-4
-1.832, 1.965e-4
-1.833, 1.989e-4
-1.834, 2.010e-4
-1.835, 2.037e-4
-1.836, 2.063e-4
-1.837, 2.088e-4
-1.838, 2.110e-4
-1.839, 2.136e-4
-1.840, 2.167e-4
-1.841, 2.199e-4
-1.842, 2.229e-4
-1.843, 2.258e-4
-1.844, 2.293e-4
-1.845, 2.330e-4
-1.846, 2.363e-4
-1.847, 2.395e-4
-1.848, 2.426e-4
-1.849, 2.466e-4
-1.850, 2.512e-4
-1.851, 2.558e-4
-1.852, 2.592e-4
-1.853, 2.625e-4
-1.854, 2.661e-4
-1.855, 2.698e-4
-1.856, 2.736e-4
-1.857, 2.764e-4
-1.858, 2.800e-4
-1.859, 2.840e-4
-1.860, 2.874e-4
-1.861, 2.912e-4
-1.862, 2.951e-4
-1.863, 2.989e-4
-1.864, 3.029e-4
-1.865, 3.069e-4
-1.866, 3.107e-4
-1.867, 3.152e-4
-1.868, 3.193e-4
-1.869, 3.232e-4
-1.870, 3.271e-4
-1.871, 3.314e-4
-1.872, 3.375e-4
-1.873, 3.421e-4
-1.874, 3.465e-4
-1.875, 3.508e-4
-1.876, 3.555e-4
-1.877, 3.598e-4
-1.878, 3.645e-4
-1.879, 3.690e-4
-1.880, 3.734e-4
-1.881, 3.778e-4
-1.882, 3.824e-4
-1.883, 3.871e-4
-1.884, 3.922e-4
-1.885, 3.972e-4
-1.886, 4.025e-4
-1.887, 4.078e-4
-1.888, 4.132e-4
-1.889, 4.184e-4
-1.890, 4.233e-4
-1.891, 4.281e-4
-1.892, 4.331e-4
-1.893, 4.382e-4
-1.894, 4.433e-4
-1.895, 4.487e-4
-1.896, 4.539e-4
-1.897, 4.596e-4
-1.898, 4.656e-4
-1.899, 4.712e-4
-1.900, 4.769e-4
-1.901, 4.823e-4
-1.902, 4.880e-4
-1.903, 4.933e-4
-1.904, 4.986e-4
-1.905, 5.039e-4
-1.906, 5.093e-4
-1.907, 5.152e-4
-1.908, 5.216e-4
-1.909, 5.285e-4
-1.910, 5.350e-4
-1.911, 5.419e-4
-1.912, 5.478e-4
-1.913, 5.539e-4
-1.914, 5.598e-4
-1.915, 5.656e-4
-1.916, 5.712e-4
-1.917, 5.773e-4
-1.918, 5.837e-4
-1.919, 5.899e-4
-1.920, 5.955e-4
-1.921, 6.007e-4
-1.922, 6.057e-4
-1.923, 6.114e-4
-1.924, 6.181e-4
-1.925, 6.240e-4
-1.926, 6.312e-4
-1.927, 6.373e-4
-1.928, 6.444e-4
-1.929, 6.508e-4
-1.930, 6.578e-4
-1.931, 6.653e-4
-1.932, 6.725e-4
-1.933, 6.798e-4
-1.934, 6.859e-4
-1.935, 6.937e-4
-1.936, 7.006e-4
-1.937, 7.079e-4
-1.938, 7.132e-4
-1.939, 7.187e-4
-1.940, 7.249e-4
-1.941, 7.319e-4
-1.942, 7.400e-4
-1.943, 7.470e-4
-1.944, 7.534e-4
-1.945, 7.607e-4
-1.946, 7.686e-4
-1.947, 7.761e-4
-1.948, 7.829e-4
-1.949, 7.901e-4
-1.950, 7.991e-4
-1.951, 8.077e-4
-1.952, 8.158e-4
-1.953, 8.234e-4
-1.954, 8.313e-4
-1.955, 8.392e-4
-1.956, 8.464e-4
-1.957, 8.536e-4
-1.958, 8.618e-4
-1.959, 8.700e-4
-1.960, 8.778e-4
-1.961, 8.865e-4
-1.962, 8.946e-4
-1.963, 9.023e-4
-1.964, 9.102e-4
-1.965, 9.188e-4
-1.966, 9.265e-4
-1.967, 9.343e-4
-1.968, 9.424e-4
-1.969, 9.509e-4
-1.970, 9.580e-4
-1.971, 9.659e-4
-1.972, 9.742e-4
-1.973, 9.824e-4
-1.974, 9.899e-4
-1.975, 9.979e-4
-1.976, 1.007e-3
-1.977, 1.011e-3
-1.978, 1.011e-3
-1.979, 1.011e-3
-1.980, 1.011e-3
-1.981, 1.011e-3
-1.982, 1.011e-3
-1.983, 1.011e-3
-1.984, 1.011e-3
-1.985, 1.011e-3
-1.986, 1.011e-3
-1.987, 1.011e-3
-1.988, 1.011e-3
-1.989, 1.011e-3
-1.990, 1.011e-3
-1.991, 1.011e-3
-1.992, 1.011e-3
-1.993, 1.011e-3
-1.994, 1.011e-3
-1.995, 1.011e-3
-1.996, 1.011e-3
-1.997, 1.011e-3
-1.998, 1.011e-3
-1.999, 1.011e-3
-2.000, 1.011e-3
-2.001, 1.011e-3
-2.002, 1.011e-3
-2.003, 1.011e-3
-2.004, 1.011e-3
-2.005, 1.011e-3
-2.006, 1.011e-3
-2.007, 1.011e-3
-2.008, 1.011e-3
-2.009, 1.011e-3
-2.010, 1.011e-3
-2.011, 1.011e-3
-2.012, 1.011e-3
-2.013, 1.011e-3
-2.014, 1.011e-3
-2.015, 1.011e-3
-2.016, 1.011e-3
-2.017, 1.011e-3
-2.018, 1.011e-3
-2.019, 1.011e-3
-2.020, 1.011e-3
-2.021, 1.011e-3
-2.022, 1.011e-3
-2.023, 1.011e-3
-2.024, 1.011e-3
-2.025, 1.011e-3
-2.026, 1.011e-3
-2.027, 1.011e-3
-2.028, 1.011e-3
-2.029, 1.011e-3
-2.030, 1.011e-3
-2.031, 1.011e-3
-2.032, 1.011e-3
-2.033, 1.011e-3
-2.034, 1.011e-3
-2.035, 1.011e-3
-2.036, 1.011e-3
-2.037, 1.011e-3
-2.038, 1.011e-3
-2.039, 1.011e-3
-2.040, 1.011e-3
-2.041, 1.011e-3
-2.042, 1.011e-3
-2.043, 1.011e-3
-2.044, 1.011e-3
-2.045, 1.011e-3
-2.046, 1.011e-3
-2.047, 1.011e-3
-2.048, 1.011e-3
-2.049, 1.011e-3
-2.050, 1.011e-3
-2.051, 1.011e-3
-2.052, 1.011e-3
-2.053, 1.011e-3
-2.054, 1.011e-3
-2.055, 1.011e-3
-2.056, 1.011e-3
-2.057, 1.011e-3
-2.058, 1.011e-3
-2.059, 1.011e-3
-2.060, 1.011e-3
-2.061, 1.011e-3
-2.062, 1.011e-3
-2.063, 1.011e-3
-2.064, 1.011e-3
-2.065, 1.011e-3
-2.066, 1.011e-3
-2.067, 1.011e-3
-2.068, 1.011e-3
-2.069, 1.011e-3
-2.070, 1.011e-3
-2.071, 1.011e-3
-2.072, 1.011e-3
-2.073, 1.011e-3
-2.074, 1.011e-3
-2.075, 1.011e-3
-2.076, 1.011e-3
-2.077, 1.011e-3
-2.078, 1.011e-3
-2.079, 1.011e-3
-2.080, 1.011e-3
-2.081, 1.011e-3
-2.082, 1.011e-3
-2.083, 1.011e-3
-2.084, 1.011e-3
-2.085, 1.011e-3
-2.086, 1.011e-3
-2.087, 1.011e-3
-2.088, 1.011e-3
-2.089, 1.011e-3
-2.090, 1.011e-3
-2.091, 1.011e-3
-2.092, 1.011e-3
-2.093, 1.011e-3
-2.094, 1.011e-3
-2.095, 1.011e-3
-2.096, 1.011e-3
-2.097, 1.011e-3
-2.098, 1.011e-3
-2.099, 1.011e-3
