Potential V vs RHE, Current mA cm-2
0.013299999999999867,-0.26384365742482935
0.012299999999999978,-1.2234423321232837
0.011299999999999866,-1.9650339955125358
0.010299999999999976,-2.532333226758415
0.009299999999999864,-3.0119203574126634
0.008299999999999974,-3.403795387475278
0.007299999999999862,-3.7532290785419424
0.006299999999999972,-4.014950669016974
0.00529999999999986,-4.276672259492005
0.0042999999999999705,-4.494537799671222
0.0032999999999998586,-4.626105950558669
0.0022999999999999687,-4.800115440442069
0.0012999999999998568,-4.9302688800296535
0.00029999999999996696,-5.0618370309171015
-0.000700000000000145,-5.191990470504685
-0.0017000000000000348,-5.279702571096316
-0.0027000000000001467,-5.323558621392133
-0.0037000000000000366,-5.411270721983764
-0.0047000000000001485,-5.453712060979717
-0.005700000000000038,-5.497568111275533
-0.00670000000000015,-5.585280211867165
-0.00770000000000004,-5.585280211867165
-0.008700000000000152,-5.672992312458796
-0.009700000000000042,-5.715433651454749
-0.010700000000000154,-5.759289701750564
-0.011700000000000044,-5.759289701750564
-0.012700000000000156,-5.80314575204638
-0.013700000000000045,-5.847001802342197
-0.014700000000000157,-5.890857852638012
-0.015700000000000047,-5.890857852638012
-0.01670000000000016,-5.9347139029338285
-0.01770000000000005,-5.9347139029338285
-0.01870000000000016,-5.9347139029338285
-0.01970000000000005,-5.9347139029338285
-0.020700000000000163,-5.977155241929781
-0.021700000000000053,-5.977155241929781
-0.022700000000000164,-6.021011292225596
-0.023700000000000054,-6.021011292225596
-0.024700000000000166,-6.021011292225596
-0.025700000000000056,-6.021011292225596
-0.026700000000000168,-6.064867342521412
-0.027700000000000058,-6.064867342521412
-0.02870000000000017,-6.064867342521412
-0.02970000000000006,-6.064867342521412
-0.03070000000000017,-6.108723392817228
-0.03170000000000006,-6.108723392817228
-0.03270000000000017,-6.108723392817228
-0.03370000000000006,-6.108723392817228
-0.034700000000000175,-6.108723392817228
-0.035700000000000065,-6.108723392817228
-0.03670000000000018,-6.152579443113044
-0.03770000000000007,-6.152579443113044
-0.03870000000000018,-6.152579443113044
-0.03970000000000007,-6.152579443113044
-0.04070000000000018,-6.152579443113044
-0.04170000000000007,-6.196435493408861
-0.04270000000000018,-6.196435493408861
-0.04370000000000007,-6.152579443113044
-0.044700000000000184,-6.152579443113044
-0.045700000000000074,-6.152579443113044
-0.046700000000000186,-6.196435493408861
-0.047700000000000076,-6.152579443113044
-0.04870000000000019,-6.196435493408861
-0.04970000000000008,-6.196435493408861
-0.05070000000000019,-6.196435493408861
-0.05170000000000008,-6.196435493408861
-0.05270000000000019,-6.196435493408861
-0.05370000000000008,-6.196435493408861
-0.05470000000000019,-6.238876832404812
-0.05570000000000008,-6.238876832404812
-0.056700000000000195,-6.238876832404812
-0.057700000000000085,-6.196435493408861
-0.058700000000000196,-6.196435493408861
-0.059700000000000086,-6.196435493408861
-0.0607000000000002,-6.196435493408861
-0.06170000000000009,-6.196435493408861
-0.0627000000000002,-6.196435493408861
-0.06370000000000009,-6.238876832404812
-0.0647000000000002,-6.238876832404812
-0.06570000000000009,-6.196435493408861
-0.0667000000000002,-6.196435493408861
-0.0677000000000001,-6.238876832404812
-0.0687000000000002,-6.238876832404812
-0.0697000000000001,-6.238876832404812
-0.07070000000000021,-6.238876832404812
-0.0717000000000001,-6.238876832404812
-0.07270000000000021,-6.196435493408861
-0.0737000000000001,-6.238876832404812
-0.07470000000000021,-6.238876832404812
-0.0757000000000001,-6.238876832404812
-0.07670000000000021,-6.238876832404812
-0.0777000000000001,-6.238876832404812
-0.07870000000000021,-6.282732882700628
-0.0797000000000001,-6.238876832404812
-0.08070000000000022,-6.238876832404812
-0.0817000000000001,-6.282732882700628
-0.08270000000000022,-6.282732882700628
-0.08370000000000011,-6.282732882700628
-0.08470000000000022,-6.238876832404812
-0.08570000000000011,-6.238876832404812
-0.08670000000000022,-6.238876832404812
-0.08770000000000011,-6.238876832404812
-0.08870000000000022,-6.238876832404812
-0.08970000000000011,-6.238876832404812
-0.09070000000000022,-6.238876832404812
-0.09170000000000011,-6.282732882700628
-0.09270000000000023,-6.282732882700628
-0.09370000000000012,-6.282732882700628
-0.09470000000000023,-6.282732882700628
-0.09570000000000012,-6.282732882700628
-0.09670000000000023,-6.282732882700628
-0.09770000000000012,-6.282732882700628
-0.09870000000000023,-6.238876832404812
-0.09970000000000012,-6.238876832404812
-0.10070000000000023,-6.282732882700628
-0.10170000000000012,-6.282732882700628
-0.10270000000000024,-6.282732882700628
-0.10370000000000013,-6.282732882700628
-0.10470000000000024,-6.282732882700628
-0.10570000000000013,-6.282732882700628
-0.10670000000000024,-6.238876832404812
-0.10770000000000013,-6.282732882700628
-0.10870000000000024,-6.282732882700628
-0.10970000000000013,-6.282732882700628
-0.11070000000000024,-6.282732882700628
-0.11170000000000013,-6.282732882700628
-0.11270000000000002,-6.282732882700628
-0.11370000000000013,-6.282732882700628
-0.11470000000000002,-6.282732882700628
-0.11570000000000014,-6.282732882700628
-0.11670000000000003,-6.282732882700628
-0.11770000000000014,-6.282732882700628
-0.11870000000000003,-6.282732882700628
-0.11970000000000014,-6.282732882700628
-0.12070000000000003,-6.326588932996443
-0.12170000000000014,-6.282732882700628
-0.12270000000000003,-6.282732882700628
-0.12370000000000014,-6.282732882700628
-0.12470000000000003,-6.282732882700628
-0.12570000000000014,-6.282732882700628
-0.12670000000000003,-6.282732882700628
-0.12770000000000015,-6.282732882700628
-0.12870000000000004,-6.282732882700628
-0.12970000000000015,-6.282732882700628
-0.13070000000000004,-6.282732882700628
-0.13170000000000015,-6.282732882700628
-0.13270000000000004,-6.326588932996443
-0.13370000000000015,-6.326588932996443
-0.13470000000000004,-6.326588932996443
-0.13570000000000015,-6.326588932996443
-0.13670000000000004,-6.326588932996443
-0.13770000000000016,-6.326588932996443
-0.13870000000000005,-6.326588932996443
-0.13970000000000016,-6.326588932996443
-0.14070000000000005,-6.326588932996443
-0.14170000000000016,-6.326588932996443
-0.14270000000000005,-6.37044498329226
-0.14370000000000016,-6.326588932996443
-0.14470000000000005,-6.326588932996443
-0.14570000000000016,-6.326588932996443
-0.14670000000000005,-6.326588932996443
-0.14770000000000016,-6.37044498329226
-0.14870000000000005,-6.37044498329226
-0.14970000000000017,-6.37044498329226
-0.15070000000000006,-6.326588932996443
-0.15170000000000017,-6.326588932996443
-0.15270000000000006,-6.37044498329226
-0.15370000000000017,-6.37044498329226
-0.15470000000000006,-6.37044498329226
-0.15570000000000017,-6.37044498329226
-0.15670000000000006,-6.37044498329226
-0.15770000000000017,-6.414301033588076
-0.15870000000000006,-6.414301033588076
-0.15970000000000018,-6.414301033588076
-0.16070000000000007,-6.414301033588076
-0.16170000000000018,-6.414301033588076
-0.16270000000000007,-6.414301033588076
-0.16370000000000018,-6.458157083883892
-0.16470000000000007,-6.458157083883892
-0.16570000000000018,-6.458157083883892
-0.16670000000000007,-6.458157083883892
-0.16770000000000018,-6.458157083883892
-0.16870000000000007,-6.458157083883892
-0.16970000000000018,-6.458157083883892
-0.17070000000000007,-6.500598422879844
-0.17170000000000019,-6.54445447317566
-0.17270000000000008,-6.54445447317566
-0.1737000000000002,-6.54445447317566
-0.17470000000000008,-6.54445447317566
-0.1757000000000002,-6.54445447317566
-0.17670000000000008,-6.588310523471475
-0.1777000000000002,-6.588310523471475
-0.17870000000000008,-6.588310523471475
-0.1797000000000002,-6.588310523471475
-0.18070000000000008,-6.632166573767292
-0.1817000000000002,-6.588310523471475
-0.18270000000000008,-6.632166573767292
-0.1837000000000002,-6.632166573767292
-0.1847000000000001,-6.632166573767292
-0.1857000000000002,-6.6760226240631075
-0.1867000000000001,-6.6760226240631075
-0.1877000000000002,-6.719878674358924
-0.1887000000000001,-6.719878674358924
-0.1897000000000002,-6.762320013354876
-0.1907000000000001,-6.762320013354876
-0.1917000000000001,-6.762320013354876
-0.19269999999999998,-6.806176063650692
-0.1937000000000001,-6.806176063650692
-0.19469999999999998,-6.850032113946507
-0.1957000000000001,-6.850032113946507
-0.19669999999999999,-6.850032113946507
-0.1977000000000001,-6.893888164242324
-0.1987,-6.93774421453814
-0.1997000000000001,-6.93774421453814
-0.2007,-6.93774421453814
-0.2017000000000001,-6.981600264833956
-0.2027,-7.024041603829907
-0.2037000000000001,-7.024041603829907
-0.2047,-7.067897654125724
-0.2057000000000001,-7.067897654125724
-0.2067,-7.111753704421539
-0.2077000000000001,-7.111753704421539
-0.2087,-7.155609754717355
-0.2097000000000001,-7.199465805013171
-0.2107,-7.199465805013171
-0.2117000000000001,-7.243321855308987
-0.2127,-7.28576319430494
-0.2137000000000001,-7.329619244600755
-0.2147,-7.37347529489657
-0.2157000000000001,-7.37347529489657
-0.2167,-7.461187395488204
-0.21770000000000012,-7.461187395488204
-0.2187,-7.50504344578402
-0.21970000000000012,-7.5474847847799715
-0.2207,-7.5474847847799715
-0.22170000000000012,-7.591340835075788
-0.2227,-7.635196885371603
-0.22370000000000012,-7.679052935667419
-0.2247,-7.722908985963235
-0.22570000000000012,-7.7653503249591855
-0.2267,-7.809206375255003
-0.22770000000000012,-7.853062425550818
-0.22870000000000001,-7.896918475846635
-0.22970000000000013,-7.940774526142452
-0.23070000000000002,-7.984630576438266
-0.23170000000000013,-8.027071915434218
-0.23270000000000002,-8.070927965730034
-0.23370000000000013,-8.11478401602585
-0.23470000000000002,-8.158640066321666
-0.23570000000000013,-8.202496116617484
-0.23670000000000002,-8.288793505909249
-0.2376999999999999,-8.332649556205066
-0.23870000000000002,-8.376505606500881
-0.2396999999999999,-8.464217707092514
-0.24070000000000003,-8.508073757388331
-0.24169999999999991,-8.55051509638428
-0.24270000000000003,-8.594371146680096
-0.24369999999999992,-8.68208324727173
-0.24470000000000003,-8.725939297567548
-0.24569999999999992,-8.812236686859313
-0.24670000000000003,-8.85609273715513
-0.24769999999999992,-8.899948787450944
-0.24870000000000003,-8.987660888042578
-0.24969999999999992,-9.073958277334345
-0.25070000000000003,-9.11781432763016
-0.2516999999999999,-9.205526428221793
-0.25270000000000004,-9.24938247851761
-0.2536999999999999,-9.335679867809377
-0.25470000000000004,-9.423391968401008
-0.2556999999999999,-9.511104068992642
-0.25670000000000004,-9.55496011928846
-0.25769999999999993,-9.641257508580225
-0.25870000000000004,-9.728969609171857
-0.25969999999999993,-9.81668170976349
-0.26070000000000004,-9.85912304875944
-0.26169999999999993,-9.99069119964689
-0.26270000000000004,-10.078403300238522
-0.26369999999999993,-10.120844639234473
-0.26470000000000005,-10.25241279012192
-0.26569999999999994,-10.296268840417738
-0.26670000000000005,-10.382566229709504
-0.26769999999999994,-10.514134380596953
-0.26870000000000005,-10.601846481188586
-0.26969999999999994,-10.688143870480351
-0.27070000000000005,-10.775855971071984
-0.27169999999999994,-10.863568071663616
-0.27270000000000005,-10.993721511251199
-0.27369999999999994,-11.081433611842833
-0.27470000000000006,-11.1677310011346
-0.27569999999999995,-11.299299152022046
-0.27670000000000006,-11.385596541313816
-0.27769999999999995,-11.517164692201263
-0.27870000000000006,-11.604876792792895
-0.27969999999999995,-11.73503023238048
-0.28070000000000006,-11.82274233297211
-0.28169999999999995,-11.952895772559694
-0.28270000000000006,-12.040607873151327
-0.28369999999999995,-12.170761312738911
-0.28470000000000006,-12.258473413330542
-0.28569999999999995,-12.390041564217992
-0.28670000000000007,-12.56405105410139
-0.28769999999999996,-12.651763154693022
-0.28870000000000007,-12.781916594280606
-0.28969999999999996,-12.913484745168056
-0.29070000000000007,-13.087494235051453
-0.29169999999999996,-13.217647674639037
-0.29270000000000007,-13.349215825526485
-0.29369999999999996,-13.436927926118118
-0.2947000000000001,-13.610937416001518
-0.29569999999999996,-13.741090855589102
-0.2967000000000001,-13.872659006476551
-0.29769999999999996,-14.002812446064135
-0.2987000000000001,-14.13438059695158
-0.29969999999999997,-14.30273124163552
-0.3007000000000001,-14.444202371622024
-0.30169999999999997,-14.61396772760583
-0.3027000000000001,-14.741291744593681
-0.30369999999999997,-14.925204213576137
-0.3047000000000001,-15.094969569559943
-0.30569999999999997,-15.222293586547794
-0.3067000000000001,-15.3920589425316
-0.3077,-15.575971411514052
-0.3087000000000001,-15.74573676749786
-0.3097,-15.87306078448571
-0.3107000000000001,-16.056973253468165
-0.3117,-16.184297270456018
-0.3127000000000001,-16.354062626439823
-0.3137,-16.53797509542228
-0.3147000000000001,-16.70774045140608
-0.3157,-16.877505807389888
-0.3167000000000001,-17.103859615368293
-0.3177,-17.2736249713521
-0.3187000000000001,-17.4433903273359
-0.3197,-17.669744135314307
-0.3207000000000001,-17.839509491298113
-0.3217,-18.009274847281915
-0.3227000000000001,-18.23562865526032
-0.3237,-18.40539401124413
-0.3247000000000001,-18.589306480226583
-0.3257,-18.80151317520634
-0.3267000000000001,-19.01371987018609
-0.3277,-19.197632339168546
-0.3287000000000001,-19.409839034148305
-0.3297,-19.636192842126707
-0.3307000000000001,-19.805958198110513
-0.3317,-20.06060623208622
-0.3327000000000001,-20.286960040064624
-0.3337,-20.499166735044383
-0.3347000000000001,-20.72552054302279
-0.3357,-20.93772723800254
-0.3367000000000001,-21.149933932982297
-0.3377,-21.376287740960702
-0.3387000000000001,-21.58849443594046
-0.3397,-21.814848243918867
-0.3407000000000001,-22.069496277894572
-0.3417,-22.33829142486893
-0.3427000000000001,-22.550498119848687
-0.3437,-22.819293266823045
-0.3447000000000001,-23.073941300798747
-0.3457,-23.300295108777156
-0.3467000000000001,-23.55494314275286
-0.3477,-23.86617962872317
-0.3487000000000001,-24.078386323702922
-0.3497,-24.34718147067728
-0.3507000000000001,-24.601829504652986
-0.3517,-24.870624651627345
-0.3527000000000001,-25.0828313466071
-0.3537,-25.39406783257741
-0.3547000000000001,-25.648715866553115
-0.3557,-25.91751101352747
-0.35670000000000013,-26.21460038649913
-0.3577,-26.525836872469437
-0.35870000000000013,-26.780484906445146
-0.3597,-27.091721392415455
-0.36070000000000013,-27.34636942639116
-0.3617,-27.65760591236147
-0.3626999999999999,-27.912253946337174
-0.3637,-28.265931771303435
-0.3646999999999999,-28.53472691827779
-0.3657,-28.831816291249446
-0.3666999999999999,-29.058170099227848
-0.3677,-29.35525947219951
-0.3686999999999999,-29.62405461917387
-0.36970000000000003,-30.00602667013743
-0.3706999999999999,-30.317263156107735
-0.37170000000000003,-30.614352529079397
-0.3726999999999999,-30.925589015049702
-0.37370000000000003,-31.23682550102001
-0.3746999999999999,-31.57635621298762
-0.37570000000000003,-31.930034037953877
-0.3766999999999999,-32.24127052392419
-0.37770000000000004,-32.58080123589179
-0.3786999999999999,-32.892037721862096
-0.37970000000000004,-33.231568433829715
-0.3806999999999999,-33.50036358080407
-0.38170000000000004,-33.85404140577033
-0.38269999999999993,-34.193572117737936
-0.38370000000000004,-34.5472499427042
-0.38469999999999993,-34.90092776767045
-0.38570000000000004,-35.240458479638065
-0.38669999999999993,-35.55169496560837
-0.38770000000000004,-35.94781412957058
-0.38869999999999993,-36.329786180534136
-0.38970000000000005,-36.6834640055004
-0.39069999999999994,-37.122024508458566
-0.39170000000000005,-37.47570233342482
-0.39269999999999994,-37.85767438438838
-0.39370000000000005,-38.253793548350586
-0.39469999999999994,-38.5650300343209
-0.39570000000000005,-38.90456074628851
-0.39669999999999994,-39.30067991025072
-0.39770000000000005,-39.696799074212926
-0.39869999999999994,-40.03632978618054
-0.39970000000000006,-40.43244895014274
-0.40069999999999995,-40.828568114104954
-0.40170000000000006,-41.182245939071215
-0.40269999999999995,-41.56421799003478
-0.40370000000000006,-41.96033715399699
-0.40469999999999995,-42.3564563179592
-0.40570000000000006,-42.79501682091736
-0.40669999999999995,-43.17698887188092
-0.40770000000000006,-43.57310803584313
-0.40869999999999995,-43.96922719980534
-0.40970000000000006,-44.4077877027635
-0.41069999999999995,-44.80390686672572
-0.41170000000000007,-45.27076159568118
-0.41269999999999996,-45.666880759643384
-0.41370000000000007,-46.062999923605595
-0.41469999999999996,-46.501560426563756
-0.41570000000000007,-46.88353247752732
-0.41669999999999996,-47.32209298048547
-0.41770000000000007,-47.71821214444768
-0.41869999999999996,-48.114331308409895
-0.4197000000000001,-48.59533315036401
-0.42069999999999996,-49.076334992318124
-0.4217000000000001,-49.458307043281685
-0.42269999999999996,-49.89686754623985
-0.4237000000000001,-50.335428049198
-0.42469999999999997,-50.77398855215617
-0.4257000000000001,-51.21254905511432
-0.42669999999999997,-51.65110955807249
-0.4277000000000001,-52.11796428702795
-0.42869999999999997,-52.59896612898206
-0.4297000000000001,-53.03752663194023
-0.43069999999999997,-53.476087134898386
-0.4317000000000001,-53.9570889768525
-0.4327,-54.43809081880661
-0.4337000000000001,-54.876651321764776
-0.4347,-55.357653163718886
-0.4357000000000001,-55.7820665536784
-0.4367,-56.26306839563251
-0.4377000000000001,-56.74407023758662
-0.4387,-57.22507207954074
-0.4397000000000001,-57.7485152604908
-0.4407,-58.18707576344896
-0.4417000000000001,-58.66807760540307
-0.4427,-59.10663810836124
-0.4437000000000001,-59.6300812893113
-0.4447,-60.06864179226946
-0.4457000000000001,-60.59208497321952
-0.4467,-61.07308681517363
-0.4477000000000001,-61.53994154412909
-0.4487,-62.02094338608321
-0.4497000000000001,-62.544386567033264
-0.4507,-63.02538840898739
-0.4517000000000001,-63.59127292893339
-0.4527,-64.0722747708875
-0.4537000000000001,-64.59571795183757
-0.4547,-65.03427845479574
-0.4557000000000001,-65.51528029674984
-0.4567,-65.99628213870396
-0.4577000000000001,-66.56216665864997
-0.4587,-67.128051178596
-0.4597000000000001,-67.693935698542
-0.4607,-68.17493754049613
-0.4617000000000001,-68.65593938245023
-0.4627,-69.13694122440434
-0.4637000000000001,-69.61794306635846
-0.4647,-70.18382758630447
-0.4657000000000001,-70.70727076725453
-0.4667,-71.27315528720055
-0.4677000000000001,-71.7965984681506
-0.4687,-72.23515897110877
-0.4697000000000001,-72.67371947406694
-0.4707,-73.23960399401295
-0.4717000000000001,-73.80548851395896
-0.4727,-74.37137303390499
-0.4737000000000001,-74.93725755385098
-0.4747,-75.37581805680915
-0.4757000000000001,-75.85681989876326
-0.4767,-76.38026307971333
-0.4777000000000001,-76.9037062606634
-0.4787,-77.51203211960537
-0.4797000000000001,-78.07791663955136
-0.4807,-78.64380115949739
-0.48170000000000013,-79.08236166245555
-0.4827,-79.56336350440966
-0.48370000000000013,-80.08680668535972
-0.4847,-80.61024986630979
-0.48570000000000013,-81.13369304725985
-0.4867,-80.9497805782774
-0.48570000000000013,-79.60580484340561
-0.4847,-78.47403580351359
-0.48370000000000013,-77.51203211960537
-0.4827,-76.63491111368903
-0.48170000000000013,-75.81437855976732
-0.4807,-74.97969889284694
-0.4797000000000001,-74.14501922592657
-0.4787,-73.3669280110008
-0.4777000000000001,-72.57468968307639
-0.4767,-71.7965984681506
-0.4757000000000001,-71.0043601402262
-0.4747,-70.26871026429637
-0.4737000000000001,-69.57550172736251
-0.4727,-68.86814607742998
-0.4717000000000001,-68.17493754049613
-0.4707,-67.48172900356225
-0.4697000000000001,-66.77437335362974
-0.4687,-66.03872347769992
-0.4677000000000001,-65.34551494076604
-0.4667,-64.63815929083353
-0.4657000000000001,-63.944950753899654
-0.4647,-63.29418355596174
-0.4637000000000001,-62.58682790602922
-0.4627,-61.89361936909536
-0.4617000000000001,-61.242852171157445
-0.4607,-60.59208497321952
-0.4597000000000001,-59.92717066228296
