Mar. 4, 2025   09:17:06
Cyclic Voltammetry
File: c:/users/guazh/data/banditlqround7_x0exp169_r20_3/2025-03-03-exp866\exp866-2025-03-04t09_12_14-h2koh\exp866_cv_50mvs_efin_-1400mv.bin
Data Source:  Experiment
Instrument Model:  CHI760E
Header: CV ran at 50 mVs
Note: 

Init E (V) = -1
High E (V) = -1
Low E (V) = -1.4
Final E (V) = -1
Init P/N = N
Scan Rate (V/s) = 0.05
Segment = 7
Sample Interval (V) = 0.001
Quiet Time (sec) = 60
Sensitivity (A/V) = 0.001
Comp R (ohm) = 1.8

Results:

Channel 1:
Segment 1:

Segment 2:

Segment 3:

Segment 4:

Segment 5:

Segment 6:

Segment 7:

Potential/V, Current/A

-1.000, 2.374e-5
-1.001, 3.620e-5
-1.002, 3.879e-5
-1.003, 4.075e-5
-1.004, 4.254e-5
-1.005, 4.336e-5
-1.006, 4.344e-5
-1.007, 4.469e-5
-1.008, 4.534e-5
-1.009, 4.603e-5
-1.010, 4.705e-5
-1.011, 4.667e-5
-1.012, 4.753e-5
-1.013, 4.803e-5
-1.014, 5.027e-5
-1.015, 4.979e-5
-1.016, 4.904e-5
-1.017, 4.968e-5
-1.018, 5.057e-5
-1.019, 5.021e-5
-1.020, 5.071e-5
-1.021, 5.059e-5
-1.022, 5.099e-5
-1.023, 5.206e-5
-1.024, 5.237e-5
-1.025, 5.252e-5
-1.026, 5.265e-5
-1.027, 5.229e-5
-1.028, 5.354e-5
-1.029, 5.424e-5
-1.030, 5.427e-5
-1.031, 5.469e-5
-1.032, 5.401e-5
-1.033, 5.456e-5
-1.034, 5.563e-5
-1.035, 5.537e-5
-1.036, 5.608e-5
-1.037, 5.609e-5
-1.038, 5.639e-5
-1.039, 5.770e-5
-1.040, 5.728e-5
-1.041, 5.758e-5
-1.042, 5.762e-5
-1.043, 5.781e-5
-1.044, 5.925e-5
-1.045, 5.908e-5
-1.046, 5.928e-5
-1.047, 5.977e-5
-1.048, 5.962e-5
-1.049, 6.093e-5
-1.050, 6.111e-5
-1.051, 6.064e-5
-1.052, 6.204e-5
-1.053, 6.213e-5
-1.054, 6.237e-5
-1.055, 6.258e-5
-1.056, 6.216e-5
-1.057, 6.409e-5
-1.058, 6.463e-5
-1.059, 6.429e-5
-1.060, 6.513e-5
-1.061, 6.486e-5
-1.062, 6.509e-5
-1.063, 6.620e-5
-1.064, 6.662e-5
-1.065, 6.725e-5
-1.066, 6.748e-5
-1.067, 6.734e-5
-1.068, 6.866e-5
-1.069, 6.914e-5
-1.070, 6.918e-5
-1.071, 6.929e-5
-1.072, 6.964e-5
-1.073, 7.167e-5
-1.074, 7.169e-5
-1.075, 7.207e-5
-1.076, 7.314e-5
-1.077, 7.231e-5
-1.078, 7.323e-5
-1.079, 7.391e-5
-1.080, 7.385e-5
-1.081, 7.526e-5
-1.082, 7.546e-5
-1.083, 7.634e-5
-1.084, 7.748e-5
-1.085, 7.666e-5
-1.086, 7.754e-5
-1.087, 7.843e-5
-1.088, 7.887e-5
-1.089, 7.989e-5
-1.090, 8.033e-5
-1.091, 8.101e-5
-1.092, 8.143e-5
-1.093, 8.203e-5
-1.094, 8.367e-5
-1.095, 8.380e-5
-1.096, 8.372e-5
-1.097, 8.494e-5
-1.098, 8.535e-5
-1.099, 8.692e-5
-1.100, 8.742e-5
-1.101, 8.796e-5
-1.102, 8.935e-5
-1.103, 8.945e-5
-1.104, 9.052e-5
-1.105, 9.106e-5
-1.106, 9.149e-5
-1.107, 9.296e-5
-1.108, 9.357e-5
-1.109, 9.470e-5
-1.110, 9.606e-5
-1.111, 9.614e-5
-1.112, 9.767e-5
-1.113, 9.892e-5
-1.114, 9.946e-5
-1.115, 9.984e-5
-1.116, 1.007e-4
-1.117, 1.028e-4
-1.118, 1.037e-4
-1.119, 1.045e-4
-1.120, 1.065e-4
-1.121, 1.068e-4
-1.122, 1.076e-4
-1.123, 1.095e-4
-1.124, 1.099e-4
-1.125, 1.116e-4
-1.126, 1.133e-4
-1.127, 1.146e-4
-1.128, 1.160e-4
-1.129, 1.172e-4
-1.130, 1.187e-4
-1.131, 1.200e-4
-1.132, 1.205e-4
-1.133, 1.231e-4
-1.134, 1.248e-4
-1.135, 1.259e-4
-1.136, 1.280e-4
-1.137, 1.288e-4
-1.138, 1.308e-4
-1.139, 1.325e-4
-1.140, 1.350e-4
-1.141, 1.375e-4
-1.142, 1.383e-4
-1.143, 1.403e-4
-1.144, 1.427e-4
-1.145, 1.440e-4
-1.146, 1.465e-4
-1.147, 1.484e-4
-1.148, 1.510e-4
-1.149, 1.541e-4
-1.150, 1.552e-4
-1.151, 1.578e-4
-1.152, 1.611e-4
-1.153, 1.621e-4
-1.154, 1.665e-4
-1.155, 1.691e-4
-1.156, 1.713e-4
-1.157, 1.737e-4
-1.158, 1.751e-4
-1.159, 1.805e-4
-1.160, 1.834e-4
-1.161, 1.852e-4
-1.162, 1.905e-4
-1.163, 1.927e-4
-1.164, 1.961e-4
-1.165, 1.995e-4
-1.166, 2.021e-4
-1.167, 2.069e-4
-1.168, 2.105e-4
-1.169, 2.138e-4
-1.170, 2.198e-4
-1.171, 2.221e-4
-1.172, 2.258e-4
-1.173, 2.315e-4
-1.174, 2.359e-4
-1.175, 2.431e-4
-1.176, 2.483e-4
-1.177, 2.487e-4
-1.178, 2.527e-4
-1.179, 2.575e-4
-1.180, 2.648e-4
-1.181, 2.691e-4
-1.182, 2.743e-4
-1.183, 2.845e-4
-1.184, 2.893e-4
-1.185, 2.924e-4
-1.186, 2.977e-4
-1.187, 3.031e-4
-1.188, 3.120e-4
-1.189, 3.175e-4
-1.190, 3.231e-4
-1.191, 3.331e-4
-1.192, 3.369e-4
-1.193, 3.448e-4
-1.194, 3.522e-4
-1.195, 3.559e-4
-1.196, 3.664e-4
-1.197, 3.777e-4
-1.198, 3.824e-4
-1.199, 3.892e-4
-1.200, 3.949e-4
-1.201, 4.038e-4
-1.202, 4.156e-4
-1.203, 4.199e-4
-1.204, 4.282e-4
-1.205, 4.428e-4
-1.206, 4.488e-4
-1.207, 4.577e-4
-1.208, 4.651e-4
-1.209, 4.749e-4
-1.210, 4.887e-4
-1.211, 4.934e-4
-1.212, 5.035e-4
-1.213, 5.166e-4
-1.214, 5.237e-4
-1.215, 5.346e-4
-1.216, 5.454e-4
-1.217, 5.556e-4
-1.218, 5.717e-4
-1.219, 5.783e-4
-1.220, 5.910e-4
-1.221, 6.020e-4
-1.222, 6.096e-4
-1.223, 6.260e-4
-1.224, 6.351e-4
-1.225, 6.513e-4
-1.226, 6.636e-4
-1.227, 6.704e-4
-1.228, 6.890e-4
-1.229, 7.020e-4
-1.230, 7.108e-4
-1.231, 7.257e-4
-1.232, 7.402e-4
-1.233, 7.581e-4
-1.234, 7.671e-4
-1.235, 7.775e-4
-1.236, 8.014e-4
-1.237, 8.093e-4
-1.238, 8.269e-4
-1.239, 8.460e-4
-1.240, 8.522e-4
-1.241, 8.742e-4
-1.242, 8.916e-4
-1.243, 9.043e-4
-1.244, 9.230e-4
-1.245, 9.379e-4
-1.246, 9.593e-4
-1.247, 9.697e-4
-1.248, 9.864e-4
-1.249, 1.012e-3
-1.250, 1.019e-3
-1.251, 1.037e-3
-1.252, 1.062e-3
-1.253, 1.079e-3
-1.254, 1.098e-3
-1.255, 1.117e-3
-1.256, 1.142e-3
-1.257, 1.158e-3
-1.258, 1.167e-3
-1.259, 1.188e-3
-1.260, 1.214e-3
-1.261, 1.228e-3
-1.262, 1.259e-3
-1.263, 1.276e-3
-1.264, 1.303e-3
-1.265, 1.331e-3
-1.266, 1.331e-3
-1.267, 1.356e-3
-1.268, 1.382e-3
-1.269, 1.403e-3
-1.270, 1.436e-3
-1.271, 1.454e-3
-1.272, 1.484e-3
-1.273, 1.504e-3
-1.274, 1.528e-3
-1.275, 1.566e-3
-1.276, 1.581e-3
-1.277, 1.601e-3
-1.278, 1.629e-3
-1.279, 1.652e-3
-1.280, 1.694e-3
-1.281, 1.720e-3
-1.282, 1.747e-3
-1.283, 1.788e-3
-1.284, 1.811e-3
-1.285, 1.840e-3
-1.286, 1.878e-3
-1.287, 1.898e-3
-1.288, 1.939e-3
-1.289, 1.994e-3
-1.290, 2.030e-3
-1.291, 2.078e-3
-1.292, 2.106e-3
-1.293, 2.136e-3
-1.294, 2.179e-3
-1.295, 2.223e-3
-1.296, 2.284e-3
-1.297, 2.325e-3
-1.298, 2.371e-3
-1.299, 2.427e-3
-1.300, 2.469e-3
-1.301, 2.525e-3
-1.302, 2.567e-3
-1.303, 2.602e-3
-1.304, 2.677e-3
-1.305, 2.720e-3
-1.306, 2.775e-3
-1.307, 2.839e-3
-1.308, 2.872e-3
-1.309, 2.919e-3
-1.310, 2.973e-3
-1.311, 3.029e-3
-1.312, 3.106e-3
-1.313, 3.143e-3
-1.314, 3.186e-3
-1.315, 3.265e-3
-1.316, 3.300e-3
-1.317, 3.362e-3
-1.318, 3.424e-3
-1.319, 3.458e-3
-1.320, 3.541e-3
-1.321, 3.612e-3
-1.322, 3.656e-3
-1.323, 3.684e-3
-1.324, 3.708e-3
-1.325, 3.791e-3
-1.326, 3.848e-3
-1.327, 3.898e-3
-1.328, 3.985e-3
-1.329, 4.012e-3
-1.330, 4.088e-3
-1.331, 4.154e-3
-1.332, 4.174e-3
-1.333, 4.243e-3
-1.334, 4.291e-3
-1.335, 4.365e-3
-1.336, 4.428e-3
-1.337, 4.466e-3
-1.338, 4.540e-3
-1.339, 4.571e-3
-1.340, 4.619e-3
-1.341, 4.722e-3
-1.342, 4.753e-3
-1.343, 4.814e-3
-1.344, 4.861e-3
-1.345, 4.921e-3
-1.346, 4.995e-3
-1.347, 5.014e-3
-1.348, 5.085e-3
-1.349, 5.136e-3
-1.350, 5.179e-3
-1.351, 5.263e-3
-1.352, 5.288e-3
-1.353, 5.334e-3
-1.354, 5.411e-3
-1.355, 5.434e-3
-1.356, 5.493e-3
-1.357, 5.499e-3
-1.358, 5.582e-3
-1.359, 5.697e-3
-1.360, 5.718e-3
-1.361, 5.762e-3
-1.362, 5.769e-3
-1.363, 5.810e-3
-1.364, 5.868e-3
-1.365, 5.876e-3
-1.366, 5.959e-3
-1.367, 5.993e-3
-1.368, 6.002e-3
-1.369, 6.101e-3
-1.370, 6.113e-3
-1.371, 6.136e-3
-1.372, 6.154e-3
-1.373, 6.159e-3
-1.374, 6.225e-3
-1.375, 6.221e-3
-1.376, 6.258e-3
-1.377, 6.325e-3
-1.378, 6.319e-3
-1.379, 6.372e-3
-1.380, 6.399e-3
-1.381, 6.392e-3
-1.382, 6.449e-3
-1.383, 6.429e-3
-1.384, 6.467e-3
-1.385, 6.451e-3
-1.386, 6.413e-3
-1.387, 6.491e-3
-1.388, 6.486e-3
-1.389, 6.515e-3
-1.390, 6.502e-3
-1.391, 6.440e-3
-1.392, 6.435e-3
-1.393, 6.420e-3
-1.394, 6.478e-3
-1.395, 6.558e-3
-1.396, 6.513e-3
-1.397, 6.496e-3
-1.398, 6.443e-3
-1.399, 6.425e-3
-1.400, 6.374e-3
-1.399, 6.208e-3
-1.398, 6.081e-3
-1.397, 5.913e-3
-1.396, 5.862e-3
-1.395, 5.783e-3
-1.394, 5.605e-3
-1.393, 5.501e-3
-1.392, 5.388e-3
-1.391, 5.282e-3
-1.390, 5.186e-3
-1.389, 5.055e-3
-1.388, 4.986e-3
-1.387, 4.904e-3
-1.386, 4.811e-3
-1.385, 4.770e-3
-1.384, 4.676e-3
-1.383, 4.606e-3
-1.382, 4.546e-3
-1.381, 4.447e-3
-1.380, 4.379e-3
-1.379, 4.303e-3
-1.378, 4.248e-3
-1.377, 4.212e-3
-1.376, 4.116e-3
-1.375, 4.074e-3
-1.374, 4.045e-3
-1.373, 3.988e-3
-1.372, 3.932e-3
-1.371, 3.835e-3
-1.370, 3.785e-3
-1.369, 3.713e-3
-1.368, 3.663e-3
-1.367, 3.653e-3
-1.366, 3.595e-3
-1.365, 3.559e-3
-1.364, 3.519e-3
-1.363, 3.435e-3
-1.362, 3.412e-3
-1.361, 3.354e-3
-1.360, 3.269e-3
-1.359, 3.249e-3
-1.358, 3.204e-3
-1.357, 3.168e-3
-1.356, 3.137e-3
-1.355, 3.074e-3
-1.354, 3.048e-3
-1.353, 2.998e-3
-1.352, 2.935e-3
-1.351, 2.912e-3
-1.350, 2.869e-3
-1.349, 2.813e-3
-1.348, 2.779e-3
-1.347, 2.711e-3
-1.346, 2.683e-3
-1.345, 2.660e-3
-1.344, 2.633e-3
-1.343, 2.617e-3
-1.342, 2.552e-3
-1.341, 2.489e-3
-1.340, 2.464e-3
-1.339, 2.403e-3
-1.338, 2.363e-3
-1.337, 2.356e-3
-1.336, 2.316e-3
-1.335, 2.283e-3
-1.334, 2.239e-3
-1.333, 2.212e-3
-1.332, 2.176e-3
-1.331, 2.124e-3
-1.330, 2.097e-3
-1.329, 2.066e-3
-1.328, 2.033e-3
-1.327, 2.004e-3
-1.326, 1.958e-3
-1.325, 1.934e-3
-1.324, 1.902e-3
-1.323, 1.865e-3
-1.322, 1.841e-3
-1.321, 1.807e-3
-1.320, 1.776e-3
-1.319, 1.742e-3
-1.318, 1.712e-3
-1.317, 1.691e-3
-1.316, 1.659e-3
-1.315, 1.628e-3
-1.314, 1.606e-3
-1.313, 1.564e-3
-1.312, 1.540e-3
-1.311, 1.523e-3
-1.310, 1.489e-3
-1.309, 1.466e-3
-1.308, 1.433e-3
-1.307, 1.405e-3
-1.306, 1.388e-3
-1.305, 1.356e-3
-1.304, 1.337e-3
-1.303, 1.312e-3
-1.302, 1.278e-3
-1.301, 1.256e-3
-1.300, 1.221e-3
-1.299, 1.216e-3
-1.298, 1.193e-3
-1.297, 1.156e-3
-1.296, 1.137e-3
-1.295, 1.110e-3
-1.294, 1.091e-3
-1.293, 1.073e-3
-1.292, 1.041e-3
-1.291, 1.029e-3
-1.290, 1.007e-3
-1.289, 9.795e-4
-1.288, 9.650e-4
-1.287, 9.374e-4
-1.286, 9.205e-4
-1.285, 9.015e-4
-1.284, 8.771e-4
-1.283, 8.611e-4
-1.282, 8.392e-4
-1.281, 8.214e-4
-1.280, 8.040e-4
-1.279, 7.811e-4
-1.278, 7.682e-4
-1.277, 7.460e-4
-1.276, 7.228e-4
-1.275, 7.162e-4
-1.274, 6.950e-4
-1.273, 6.742e-4
-1.272, 6.573e-4
-1.271, 6.395e-4
-1.270, 6.274e-4
-1.269, 6.106e-4
-1.268, 5.943e-4
-1.267, 5.747e-4
-1.266, 5.557e-4
-1.265, 5.480e-4
-1.264, 5.324e-4
-1.263, 5.117e-4
-1.262, 4.998e-4
-1.261, 4.826e-4
-1.260, 4.685e-4
-1.259, 4.537e-4
-1.258, 4.370e-4
-1.257, 4.250e-4
-1.256, 4.094e-4
-1.255, 3.979e-4
-1.254, 3.854e-4
-1.253, 3.682e-4
-1.252, 3.568e-4
-1.251, 3.429e-4
-1.250, 3.304e-4
-1.249, 3.179e-4
-1.248, 3.025e-4
-1.247, 2.904e-4
-1.246, 2.780e-4
-1.245, 2.677e-4
-1.244, 2.558e-4
-1.243, 2.410e-4
-1.242, 2.314e-4
-1.241, 2.212e-4
-1.240, 2.081e-4
-1.239, 1.955e-4
-1.238, 1.838e-4
-1.237, 1.727e-4
-1.236, 1.605e-4
-1.235, 1.512e-4
-1.234, 1.417e-4
-1.233, 1.295e-4
-1.232, 1.192e-4
-1.231, 1.085e-4
-1.230, 9.665e-5
-1.229, 8.550e-5
-1.228, 7.502e-5
-1.227, 6.525e-5
-1.226, 5.604e-5
-1.225, 4.601e-5
-1.224, 3.628e-5
-1.223, 2.551e-5
-1.222, 1.587e-5
-1.221, 6.985e-6
-1.220, -2.970e-6
-1.219, -1.262e-5
-1.218, -2.219e-5
-1.217, -3.183e-5
-1.216, -4.059e-5
-1.215, -4.961e-5
-1.214, -5.928e-5
-1.213, -6.835e-5
-1.212, -7.751e-5
-1.211, -8.622e-5
-1.210, -9.467e-5
-1.209, -1.043e-4
-1.208, -1.132e-4
-1.207, -1.214e-4
-1.206, -1.303e-4
-1.205, -1.383e-4
-1.204, -1.471e-4
-1.203, -1.563e-4
-1.202, -1.650e-4
-1.201, -1.741e-4
-1.200, -1.804e-4
-1.199, -1.895e-4
-1.198, -1.992e-4
-1.197, -2.068e-4
-1.196, -2.151e-4
-1.195, -2.222e-4
-1.194, -2.307e-4
-1.193, -2.396e-4
-1.192, -2.467e-4
-1.191, -2.562e-4
-1.190, -2.640e-4
-1.189, -2.715e-4
-1.188, -2.821e-4
-1.187, -2.891e-4
-1.186, -2.962e-4
-1.185, -3.014e-4
-1.184, -3.112e-4
-1.183, -3.222e-4
-1.182, -3.282e-4
-1.181, -3.370e-4
-1.180, -3.446e-4
-1.179, -3.515e-4
-1.178, -3.614e-4
-1.177, -3.670e-4
-1.176, -3.759e-4
-1.175, -3.846e-4
-1.174, -3.909e-4
-1.173, -3.991e-4
-1.172, -4.055e-4
-1.171, -4.149e-4
-1.170, -4.233e-4
-1.169, -4.302e-4
-1.168, -4.398e-4
-1.167, -4.452e-4
-1.166, -4.526e-4
-1.165, -4.613e-4
-1.164, -4.676e-4
-1.163, -4.770e-4
-1.162, -4.837e-4
-1.161, -4.920e-4
-1.160, -4.995e-4
-1.159, -5.063e-4
-1.158, -5.157e-4
-1.157, -5.212e-4
-1.156, -5.286e-4
-1.155, -5.369e-4
-1.154, -5.431e-4
-1.153, -5.544e-4
-1.152, -5.590e-4
-1.151, -5.645e-4
-1.150, -5.783e-4
-1.149, -5.819e-4
-1.148, -5.886e-4
-1.147, -5.977e-4
-1.146, -6.061e-4
-1.145, -6.146e-4
-1.144, -6.164e-4
-1.143, -6.258e-4
-1.142, -6.368e-4
-1.141, -6.408e-4
-1.140, -6.493e-4
-1.139, -6.538e-4
-1.138, -6.625e-4
-1.137, -6.725e-4
-1.136, -6.773e-4
-1.135, -6.864e-4
-1.134, -6.929e-4
-1.133, -6.972e-4
-1.132, -7.093e-4
-1.131, -7.144e-4
-1.130, -7.229e-4
-1.129, -7.314e-4
-1.128, -7.344e-4
-1.127, -7.441e-4
-1.126, -7.496e-4
-1.125, -7.559e-4
-1.124, -7.657e-4
-1.123, -7.680e-4
-1.122, -7.783e-4
-1.121, -7.838e-4
-1.120, -7.889e-4
-1.119, -7.991e-4
-1.118, -8.039e-4
-1.117, -8.110e-4
-1.116, -8.178e-4
-1.115, -8.233e-4
-1.114, -8.332e-4
-1.113, -8.352e-4
-1.112, -8.447e-4
-1.111, -8.517e-4
-1.110, -8.524e-4
-1.109, -8.615e-4
-1.108, -8.687e-4
-1.107, -8.738e-4
-1.106, -8.821e-4
-1.105, -8.893e-4
-1.104, -8.950e-4
-1.103, -8.951e-4
-1.102, -8.953e-4
-1.101, -9.102e-4
-1.100, -9.154e-4
-1.099, -9.206e-4
-1.098, -9.332e-4
-1.097, -9.322e-4
-1.096, -9.379e-4
-1.095, -9.409e-4
-1.094, -9.455e-4
-1.093, -9.519e-4
-1.092, -9.562e-4
-1.091, -9.625e-4
-1.090, -9.632e-4
-1.089, -9.648e-4
-1.088, -9.727e-4
-1.087, -9.739e-4
-1.086, -9.771e-4
-1.085, -9.864e-4
-1.084, -9.860e-4
-1.083, -9.907e-4
-1.082, -9.954e-4
-1.081, -9.948e-4
-1.080, -1.002e-3
-1.079, -9.995e-4
-1.078, -9.996e-4
-1.077, -1.009e-3
-1.076, -1.004e-3
-1.075, -1.003e-3
-1.074, -1.008e-3
-1.073, -1.015e-3
-1.072, -1.012e-3
-1.071, -1.006e-3
-1.070, -1.001e-3
-1.069, -1.004e-3
-1.068, -9.998e-4
-1.067, -9.993e-4
-1.066, -9.969e-4
-1.065, -9.881e-4
-1.064, -9.841e-4
-1.063, -9.783e-4
-1.062, -9.757e-4
-1.061, -9.736e-4
-1.060, -9.640e-4
-1.059, -9.587e-4
-1.058, -9.490e-4
-1.057, -9.465e-4
-1.056, -9.440e-4
-1.055, -9.276e-4
-1.054, -9.170e-4
-1.053, -9.090e-4
-1.052, -8.964e-4
-1.051, -8.901e-4
-1.050, -8.843e-4
-1.049, -8.720e-4
-1.048, -8.628e-4
-1.047, -8.505e-4
-1.046, -8.398e-4
-1.045, -8.278e-4
-1.044, -8.169e-4
-1.043, -8.091e-4
-1.042, -7.979e-4
-1.041, -7.865e-4
-1.040, -7.752e-4
-1.039, -7.650e-4
-1.038, -7.550e-4
-1.037, -7.409e-4
-1.036, -7.343e-4
-1.035, -7.243e-4
-1.034, -7.132e-4
-1.033, -7.064e-4
-1.032, -6.936e-4
-1.031, -6.839e-4
-1.030, -6.763e-4
-1.029, -6.677e-4
-1.028, -6.612e-4
-1.027, -6.485e-4
-1.026, -6.405e-4
-1.025, -6.315e-4
-1.024, -6.244e-4
-1.023, -6.207e-4
-1.022, -6.100e-4
-1.021, -6.016e-4
-1.020, -5.959e-4
-1.019, -5.877e-4
-1.018, -5.824e-4
-1.017, -5.739e-4
-1.016, -5.662e-4
-1.015, -5.628e-4
-1.014, -5.548e-4
-1.013, -5.475e-4
-1.012, -5.439e-4
-1.011, -5.350e-4
-1.010, -5.296e-4
-1.009, -5.252e-4
-1.008, -5.207e-4
-1.007, -5.155e-4
-1.006, -5.081e-4
-1.005, -5.049e-4
-1.004, -5.005e-4
-1.003, -4.925e-4
-1.002, -4.897e-4
-1.001, -4.847e-4
-1.000, -4.346e-4
-1.001, -3.955e-4
-1.002, -3.780e-4
-1.003, -3.669e-4
-1.004, -3.576e-4
-1.005, -3.477e-4
-1.006, -3.397e-4
-1.007, -3.323e-4
-1.008, -3.249e-4
-1.009, -3.179e-4
-1.010, -3.107e-4
-1.011, -3.059e-4
-1.012, -3.007e-4
-1.013, -2.941e-4
-1.014, -2.883e-4
-1.015, -2.825e-4
-1.016, -2.775e-4
-1.017, -2.739e-4
-1.018, -2.683e-4
-1.019, -2.636e-4
-1.020, -2.590e-4
-1.021, -2.542e-4
-1.022, -2.501e-4
-1.023, -2.453e-4
-1.024, -2.408e-4
-1.025, -2.368e-4
-1.026, -2.329e-4
-1.027, -2.295e-4
-1.028, -2.256e-4
-1.029, -2.208e-4
-1.030, -2.169e-4
-1.031, -2.125e-4
-1.032, -2.085e-4
-1.033, -2.066e-4
-1.034, -2.029e-4
-1.035, -1.982e-4
-1.036, -1.954e-4
-1.037, -1.920e-4
-1.038, -1.882e-4
-1.039, -1.846e-4
-1.040, -1.808e-4
-1.041, -1.775e-4
-1.042, -1.750e-4
-1.043, -1.716e-4
-1.044, -1.688e-4
-1.045, -1.658e-4
-1.046, -1.627e-4
-1.047, -1.600e-4
-1.048, -1.565e-4
-1.049, -1.531e-4
-1.050, -1.501e-4
-1.051, -1.466e-4
-1.052, -1.440e-4
-1.053, -1.409e-4
-1.054, -1.371e-4
-1.055, -1.338e-4
-1.056, -1.306e-4
-1.057, -1.272e-4
-1.058, -1.237e-4
-1.059, -1.201e-4
-1.060, -1.165e-4
-1.061, -1.133e-4
-1.062, -1.096e-4
-1.063, -1.061e-4
-1.064, -1.024e-4
-1.065, -9.842e-5
-1.066, -9.524e-5
-1.067, -9.197e-5
-1.068, -8.808e-5
-1.069, -8.426e-5
-1.070, -8.024e-5
-1.071, -7.668e-5
-1.072, -7.363e-5
-1.073, -6.949e-5
-1.074, -6.547e-5
-1.075, -6.137e-5
-1.076, -5.786e-5
-1.077, -5.474e-5
-1.078, -5.083e-5
-1.079, -4.658e-5
-1.080, -4.279e-5
-1.081, -3.903e-5
-1.082, -3.551e-5
-1.083, -3.181e-5
-1.084, -2.759e-5
-1.085, -2.369e-5
-1.086, -2.021e-5
-1.087, -1.625e-5
-1.088, -1.271e-5
-1.089, -8.546e-6
-1.090, -4.294e-6
-1.091, -1.262e-6
-1.092, 2.474e-6
-1.093, 6.270e-6
-1.094, 1.026e-5
-1.095, 1.459e-5
-1.096, 1.754e-5
-1.097, 2.126e-5
-1.098, 2.501e-5
-1.099, 2.839e-5
-1.100, 3.298e-5
-1.101, 3.619e-5
-1.102, 3.933e-5
-1.103, 4.335e-5
-1.104, 4.690e-5
-1.105, 5.095e-5
-1.106, 5.401e-5
-1.107, 5.666e-5
-1.108, 6.090e-5
-1.109, 6.416e-5
-1.110, 6.732e-5
-1.111, 7.148e-5
-1.112, 7.406e-5
-1.113, 7.844e-5
-1.114, 8.270e-5
-1.115, 8.529e-5
-1.116, 8.856e-5
-1.117, 9.114e-5
-1.118, 9.486e-5
-1.119, 9.899e-5
-1.120, 1.018e-4
-1.121, 1.056e-4
-1.122, 1.094e-4
-1.123, 1.124e-4
-1.124, 1.168e-4
-1.125, 1.196e-4
-1.126, 1.224e-4
-1.127, 1.264e-4
-1.128, 1.301e-4
-1.129, 1.333e-4
-1.130, 1.373e-4
-1.131, 1.402e-4
-1.132, 1.433e-4
-1.133, 1.476e-4
-1.134, 1.508e-4
-1.135, 1.548e-4
-1.136, 1.579e-4
-1.137, 1.623e-4
-1.138, 1.663e-4
-1.139, 1.698e-4
-1.140, 1.753e-4
-1.141, 1.774e-4
-1.142, 1.793e-4
-1.143, 1.857e-4
-1.144, 1.898e-4
-1.145, 1.935e-4
-1.146, 1.984e-4
-1.147, 2.003e-4
-1.148, 2.058e-4
-1.149, 2.100e-4
-1.150, 2.134e-4
-1.151, 2.195e-4
-1.152, 2.227e-4
-1.153, 2.267e-4
-1.154, 2.327e-4
-1.155, 2.358e-4
-1.156, 2.408e-4
-1.157, 2.459e-4
-1.158, 2.501e-4
-1.159, 2.565e-4
-1.160, 2.600e-4
-1.161, 2.649e-4
-1.162, 2.690e-4
-1.163, 2.726e-4
-1.164, 2.814e-4
-1.165, 2.857e-4
-1.166, 2.887e-4
-1.167, 2.960e-4
-1.168, 3.006e-4
-1.169, 3.059e-4
-1.170, 3.093e-4
-1.171, 3.147e-4
-1.172, 3.240e-4
-1.173, 3.285e-4
-1.174, 3.342e-4
-1.175, 3.416e-4
-1.176, 3.435e-4
-1.177, 3.511e-4
-1.178, 3.595e-4
-1.179, 3.648e-4
-1.180, 3.709e-4
-1.181, 3.741e-4
-1.182, 3.823e-4
-1.183, 3.898e-4
-1.184, 3.940e-4
-1.185, 4.044e-4
-1.186, 4.095e-4
-1.187, 4.142e-4
-1.188, 4.224e-4
-1.189, 4.266e-4
-1.190, 4.382e-4
-1.191, 4.452e-4
-1.192, 4.484e-4
-1.193, 4.540e-4
-1.194, 4.621e-4
-1.195, 4.738e-4
-1.196, 4.796e-4
-1.197, 4.857e-4
-1.198, 4.971e-4
-1.199, 5.028e-4
-1.200, 5.088e-4
-1.201, 5.166e-4
-1.202, 5.234e-4
-1.203, 5.341e-4
-1.204, 5.410e-4
-1.205, 5.495e-4
-1.206, 5.578e-4
-1.207, 5.632e-4
-1.208, 5.772e-4
-1.209, 5.851e-4
-1.210, 5.867e-4
-1.211, 6.007e-4
-1.212, 6.098e-4
-1.213, 6.148e-4
-1.214, 6.253e-4
-1.215, 6.316e-4
-1.216, 6.445e-4
-1.217, 6.538e-4
-1.218, 6.621e-4
-1.219, 6.731e-4
-1.220, 6.773e-4
-1.221, 6.860e-4
-1.222, 6.960e-4
-1.223, 7.062e-4
-1.224, 7.196e-4
-1.225, 7.296e-4
-1.226, 7.357e-4
-1.227, 7.428e-4
-1.228, 7.510e-4
-1.229, 7.676e-4
-1.230, 7.758e-4
-1.231, 7.891e-4
-1.232, 8.021e-4
-1.233, 8.038e-4
-1.234, 8.171e-4
-1.235, 8.279e-4
-1.236, 8.345e-4
-1.237, 8.495e-4
-1.238, 8.571e-4
-1.239, 8.679e-4
-1.240, 8.873e-4
-1.241, 8.933e-4
-1.242, 8.997e-4
-1.243, 9.139e-4
-1.244, 9.213e-4
-1.245, 9.379e-4
-1.246, 9.509e-4
-1.247, 9.571e-4
-1.248, 9.727e-4
-1.249, 9.824e-4
-1.250, 9.960e-4
-1.251, 1.004e-3
-1.252, 1.010e-3
-1.253, 1.031e-3
-1.254, 1.043e-3
-1.255, 1.050e-3
-1.256, 1.066e-3
-1.257, 1.074e-3
-1.258, 1.092e-3
-1.259, 1.110e-3
-1.260, 1.112e-3
-1.261, 1.131e-3
-1.262, 1.144e-3
-1.263, 1.151e-3
-1.264, 1.165e-3
-1.265, 1.176e-3
-1.266, 1.194e-3
-1.267, 1.212e-3
-1.268, 1.226e-3
-1.269, 1.249e-3
-1.270, 1.254e-3
-1.271, 1.253e-3
-1.272, 1.272e-3
-1.273, 1.289e-3
-1.274, 1.306e-3
-1.275, 1.324e-3
-1.276, 1.332e-3
-1.277, 1.350e-3
-1.278, 1.363e-3
-1.279, 1.373e-3
-1.280, 1.391e-3
-1.281, 1.398e-3
-1.282, 1.414e-3
-1.283, 1.429e-3
-1.284, 1.440e-3
-1.285, 1.461e-3
-1.286, 1.470e-3
-1.287, 1.485e-3
-1.288, 1.503e-3
-1.289, 1.512e-3
-1.290, 1.529e-3
-1.291, 1.539e-3
-1.292, 1.552e-3
-1.293, 1.568e-3
-1.294, 1.575e-3
-1.295, 1.600e-3
-1.296, 1.611e-3
-1.297, 1.620e-3
-1.298, 1.641e-3
-1.299, 1.652e-3
-1.300, 1.666e-3
-1.301, 1.672e-3
-1.302, 1.683e-3
-1.303, 1.708e-3
-1.304, 1.713e-3
-1.305, 1.740e-3
-1.306, 1.762e-3
-1.307, 1.765e-3
-1.308, 1.781e-3
-1.309, 1.784e-3
-1.310, 1.798e-3
-1.311, 1.820e-3
-1.312, 1.837e-3
-1.313, 1.863e-3
-1.314, 1.869e-3
-1.315, 1.880e-3
-1.316, 1.907e-3
-1.317, 1.913e-3
-1.318, 1.937e-3
-1.319, 1.950e-3
-1.320, 1.961e-3
-1.321, 1.997e-3
-1.322, 2.004e-3
-1.323, 2.020e-3
-1.324, 2.045e-3
-1.325, 2.051e-3
-1.326, 2.081e-3
-1.327, 2.098e-3
-1.328, 2.114e-3
-1.329, 2.146e-3
-1.330, 2.157e-3
-1.331, 2.181e-3
-1.332, 2.199e-3
-1.333, 2.221e-3
-1.334, 2.257e-3
-1.335, 2.275e-3
-1.336, 2.308e-3
-1.337, 2.321e-3
-1.338, 2.329e-3
-1.339, 2.356e-3
-1.340, 2.373e-3
-1.341, 2.416e-3
-1.342, 2.442e-3
-1.343, 2.457e-3
-1.344, 2.502e-3
-1.345, 2.511e-3
-1.346, 2.529e-3
-1.347, 2.543e-3
-1.348, 2.573e-3
-1.349, 2.629e-3
-1.350, 2.645e-3
-1.351, 2.663e-3
-1.352, 2.702e-3
-1.353, 2.718e-3
-1.354, 2.742e-3
-1.355, 2.784e-3
-1.356, 2.820e-3
-1.357, 2.861e-3
-1.358, 2.871e-3
-1.359, 2.891e-3
-1.360, 2.937e-3
-1.361, 2.967e-3
-1.362, 3.007e-3
-1.363, 3.026e-3
-1.364, 3.074e-3
-1.365, 3.115e-3
-1.366, 3.124e-3
-1.367, 3.162e-3
-1.368, 3.198e-3
-1.369, 3.225e-3
-1.370, 3.283e-3
-1.371, 3.294e-3
-1.372, 3.318e-3
-1.373, 3.363e-3
-1.374, 3.402e-3
-1.375, 3.470e-3
-1.376, 3.482e-3
-1.377, 3.537e-3
-1.378, 3.571e-3
-1.379, 3.597e-3
-1.380, 3.650e-3
-1.381, 3.661e-3
-1.382, 3.728e-3
-1.383, 3.773e-3
-1.384, 3.788e-3
-1.385, 3.860e-3
-1.386, 3.895e-3
-1.387, 3.923e-3
-1.388, 3.968e-3
-1.389, 4.002e-3
-1.390, 4.039e-3
-1.391, 4.044e-3
-1.392, 4.104e-3
-1.393, 4.194e-3
-1.394, 4.219e-3
-1.395, 4.273e-3
-1.396, 4.295e-3
-1.397, 4.310e-3
-1.398, 4.365e-3
-1.399, 4.376e-3
-1.400, 4.414e-3
-1.399, 4.382e-3
-1.398, 4.323e-3
-1.397, 4.261e-3
-1.396, 4.178e-3
-1.395, 4.155e-3
-1.394, 4.099e-3
-1.393, 4.033e-3
-1.392, 4.015e-3
-1.391, 3.949e-3
-1.390, 3.941e-3
-1.389, 3.895e-3
-1.388, 3.803e-3
-1.387, 3.781e-3
-1.386, 3.727e-3
-1.385, 3.676e-3
-1.384, 3.656e-3
-1.383, 3.598e-3
-1.382, 3.578e-3
-1.381, 3.521e-3
-1.380, 3.463e-3
-1.379, 3.437e-3
-1.378, 3.393e-3
-1.377, 3.360e-3
-1.376, 3.313e-3
-1.375, 3.284e-3
-1.374, 3.257e-3
-1.373, 3.172e-3
-1.372, 3.130e-3
-1.371, 3.116e-3
-1.370, 3.074e-3
-1.369, 3.041e-3
-1.368, 2.986e-3
-1.367, 2.946e-3
-1.366, 2.928e-3
-1.365, 2.869e-3
-1.364, 2.847e-3
-1.363, 2.803e-3
-1.362, 2.767e-3
-1.361, 2.755e-3
-1.360, 2.711e-3
-1.359, 2.673e-3
-1.358, 2.634e-3
-1.357, 2.590e-3
-1.356, 2.563e-3
-1.355, 2.519e-3
-1.354, 2.489e-3
-1.353, 2.474e-3
-1.352, 2.432e-3
-1.351, 2.384e-3
-1.350, 2.358e-3
-1.349, 2.328e-3
-1.348, 2.310e-3
-1.347, 2.259e-3
-1.346, 2.223e-3
-1.345, 2.210e-3
-1.344, 2.177e-3
-1.343, 2.151e-3
-1.342, 2.131e-3
-1.341, 2.071e-3
-1.340, 2.041e-3
-1.339, 2.018e-3
-1.338, 1.989e-3
-1.337, 1.964e-3
-1.336, 1.920e-3
-1.335, 1.899e-3
-1.334, 1.881e-3
-1.333, 1.840e-3
-1.332, 1.821e-3
-1.331, 1.796e-3
-1.330, 1.755e-3
-1.329, 1.741e-3
-1.328, 1.712e-3
-1.327, 1.690e-3
-1.326, 1.665e-3
-1.325, 1.620e-3
-1.324, 1.599e-3
-1.323, 1.588e-3
-1.322, 1.556e-3
-1.321, 1.529e-3
-1.320, 1.498e-3
-1.319, 1.478e-3
-1.318, 1.461e-3
-1.317, 1.422e-3
-1.316, 1.401e-3
-1.315, 1.389e-3
-1.314, 1.358e-3
-1.313, 1.335e-3
-1.312, 1.311e-3
-1.311, 1.288e-3
-1.310, 1.268e-3
-1.309, 1.246e-3
-1.308, 1.230e-3
-1.307, 1.194e-3
-1.306, 1.161e-3
-1.305, 1.156e-3
-1.304, 1.137e-3
-1.303, 1.115e-3
-1.302, 1.109e-3
-1.301, 1.085e-3
-1.300, 1.066e-3
-1.299, 1.047e-3
-1.298, 1.014e-3
-1.297, 9.964e-4
-1.296, 9.827e-4
-1.295, 9.655e-4
-1.294, 9.494e-4
-1.293, 9.227e-4
-1.292, 9.046e-4
-1.291, 8.913e-4
-1.290, 8.628e-4
-1.289, 8.520e-4
-1.288, 8.375e-4
-1.287, 8.220e-4
-1.286, 8.064e-4
-1.285, 7.847e-4
-1.284, 7.711e-4
-1.283, 7.566e-4
-1.282, 7.355e-4
-1.281, 7.207e-4
-1.280, 7.037e-4
-1.279, 6.901e-4
-1.278, 6.778e-4
-1.277, 6.579e-4
-1.276, 6.462e-4
-1.275, 6.314e-4
-1.274, 6.121e-4
-1.273, 5.998e-4
-1.272, 5.839e-4
-1.271, 5.708e-4
-1.270, 5.591e-4
-1.269, 5.413e-4
-1.268, 5.288e-4
-1.267, 5.159e-4
-1.266, 5.020e-4
-1.265, 4.898e-4
-1.264, 4.731e-4
-1.263, 4.632e-4
-1.262, 4.535e-4
-1.261, 4.362e-4
-1.260, 4.277e-4
-1.259, 4.147e-4
-1.258, 4.004e-4
-1.257, 3.893e-4
-1.256, 3.764e-4
-1.255, 3.669e-4
-1.254, 3.551e-4
-1.253, 3.433e-4
-1.252, 3.359e-4
-1.251, 3.254e-4
-1.250, 3.134e-4
-1.249, 3.017e-4
-1.248, 2.908e-4
-1.247, 2.834e-4
-1.246, 2.712e-4
-1.245, 2.598e-4
-1.244, 2.515e-4
-1.243, 2.396e-4
-1.242, 2.304e-4
-1.241, 2.227e-4
-1.240, 2.132e-4
-1.239, 2.043e-4
-1.238, 1.943e-4
-1.237, 1.859e-4
-1.236, 1.787e-4
-1.235, 1.682e-4
-1.234, 1.597e-4
-1.233, 1.515e-4
-1.232, 1.423e-4
-1.231, 1.360e-4
-1.230, 1.268e-4
-1.229, 1.172e-4
-1.228, 1.104e-4
-1.227, 1.025e-4
-1.226, 9.538e-5
-1.225, 8.742e-5
-1.224, 7.952e-5
-1.223, 7.252e-5
-1.222, 6.488e-5
-1.221, 5.812e-5
-1.220, 5.126e-5
-1.219, 4.364e-5
-1.218, 3.649e-5
-1.217, 2.947e-5
-1.216, 2.310e-5
-1.215, 1.681e-5
-1.214, 9.533e-6
-1.213, 3.040e-6
-1.212, -3.185e-6
-1.211, -9.439e-6
-1.210, -1.575e-5
-1.209, -2.204e-5
-1.208, -2.775e-5
-1.207, -3.426e-5
-1.206, -3.959e-5
-1.205, -4.578e-5
-1.204, -5.243e-5
-1.203, -5.860e-5
-1.202, -6.324e-5
-1.201, -6.936e-5
-1.200, -7.470e-5
-1.199, -8.097e-5
-1.198, -8.679e-5
-1.197, -9.131e-5
-1.196, -9.673e-5
-1.195, -1.017e-4
-1.194, -1.071e-4
-1.193, -1.123e-4
-1.192, -1.166e-4
-1.191, -1.220e-4
-1.190, -1.276e-4
-1.189, -1.326e-4
-1.188, -1.370e-4
-1.187, -1.405e-4
-1.186, -1.454e-4
-1.185, -1.509e-4
-1.184, -1.553e-4
-1.183, -1.608e-4
-1.182, -1.662e-4
-1.181, -1.695e-4
-1.180, -1.744e-4
-1.179, -1.786e-4
-1.178, -1.814e-4
-1.177, -1.860e-4
-1.176, -1.893e-4
-1.175, -1.948e-4
-1.174, -2.005e-4
-1.173, -2.038e-4
-1.172, -2.080e-4
-1.171, -2.116e-4
-1.170, -2.152e-4
-1.169, -2.201e-4
-1.168, -2.192e-4
-1.167, -2.264e-4
-1.166, -2.322e-4
-1.165, -2.348e-4
-1.164, -2.393e-4
-1.163, -2.418e-4
-1.162, -2.454e-4
-1.161, -2.503e-4
-1.160, -2.494e-4
-1.159, -2.563e-4
-1.158, -2.634e-4
-1.157, -2.625e-4
-1.156, -2.664e-4
-1.155, -2.715e-4
-1.154, -2.735e-4
-1.153, -2.791e-4
-1.152, -2.817e-4
-1.151, -2.842e-4
-1.150, -2.870e-4
-1.149, -2.879e-4
-1.148, -2.934e-4
-1.147, -2.995e-4
-1.146, -3.031e-4
-1.145, -3.096e-4
-1.144, -3.095e-4
-1.143, -3.100e-4
-1.142, -3.135e-4
-1.141, -3.157e-4
-1.140, -3.194e-4
-1.139, -3.239e-4
-1.138, -3.231e-4
-1.137, -3.284e-4
-1.136, -3.295e-4
-1.135, -3.298e-4
-1.134, -3.326e-4
-1.133, -3.337e-4
-1.132, -3.374e-4
-1.131, -3.378e-4
-1.130, -3.384e-4
-1.129, -3.428e-4
-1.128, -3.424e-4
-1.127, -3.443e-4
-1.126, -3.475e-4
-1.125, -3.465e-4
-1.124, -3.478e-4
-1.123, -3.496e-4
-1.122, -3.491e-4
-1.121, -3.506e-4
-1.120, -3.497e-4
-1.119, -3.541e-4
-1.118, -3.543e-4
-1.117, -3.522e-4
-1.116, -3.552e-4
-1.115, -3.530e-4
-1.114, -3.549e-4
-1.113, -3.562e-4
-1.112, -3.534e-4
-1.111, -3.552e-4
-1.110, -3.545e-4
-1.109, -3.544e-4
-1.108, -3.575e-4
-1.107, -3.557e-4
-1.106, -3.529e-4
-1.105, -3.527e-4
-1.104, -3.538e-4
-1.103, -3.553e-4
-1.102, -3.521e-4
-1.101, -3.524e-4
-1.100, -3.511e-4
-1.099, -3.506e-4
-1.098, -3.513e-4
-1.097, -3.489e-4
-1.096, -3.466e-4
-1.095, -3.427e-4
-1.094, -3.470e-4
-1.093, -3.494e-4
-1.092, -3.424e-4
-1.091, -3.421e-4
-1.090, -3.416e-4
-1.089, -3.394e-4
-1.088, -3.390e-4
-1.087, -3.359e-4
-1.086, -3.354e-4
-1.085, -3.337e-4
-1.084, -3.319e-4
-1.083, -3.310e-4
-1.082, -3.280e-4
-1.081, -3.220e-4
-1.080, -3.249e-4
-1.079, -3.245e-4
-1.078, -3.239e-4
-1.077, -3.198e-4
-1.076, -3.164e-4
-1.075, -3.148e-4
-1.074, -3.123e-4
-1.073, -3.111e-4
-1.072, -3.083e-4
-1.071, -3.053e-4
-1.070, -3.056e-4
-1.069, -3.018e-4
-1.068, -3.001e-4
-1.067, -2.967e-4
-1.066, -2.943e-4
-1.065, -2.935e-4
-1.064, -2.887e-4
-1.063, -2.883e-4
-1.062, -2.876e-4
-1.061, -2.819e-4
-1.060, -2.795e-4
-1.059, -2.786e-4
-1.058, -2.767e-4
-1.057, -2.730e-4
-1.056, -2.695e-4
-1.055, -2.698e-4
-1.054, -2.671e-4
-1.053, -2.627e-4
-1.052, -2.615e-4
-1.051, -2.588e-4
-1.050, -2.566e-4
-1.049, -2.549e-4
-1.048, -2.509e-4
-1.047, -2.500e-4
-1.046, -2.472e-4
-1.045, -2.442e-4
-1.044, -2.416e-4
-1.043, -2.405e-4
-1.042, -2.388e-4
-1.041, -2.341e-4
-1.040, -2.322e-4
-1.039, -2.321e-4
-1.038, -2.279e-4
-1.037, -2.280e-4
-1.036, -2.256e-4
-1.035, -2.222e-4
-1.034, -2.210e-4
-1.033, -2.186e-4
-1.032, -2.167e-4
-1.031, -2.150e-4
-1.030, -2.137e-4
-1.029, -2.131e-4
-1.028, -2.101e-4
-1.027, -2.075e-4
-1.026, -2.071e-4
-1.025, -2.045e-4
-1.024, -2.040e-4
-1.023, -2.027e-4
-1.022, -2.009e-4
-1.021, -1.999e-4
-1.020, -1.971e-4
-1.019, -1.959e-4
-1.018, -1.962e-4
-1.017, -1.943e-4
-1.016, -1.925e-4
-1.015, -1.906e-4
-1.014, -1.903e-4
-1.013, -1.905e-4
-1.012, -1.888e-4
-1.011, -1.871e-4
-1.010, -1.853e-4
-1.009, -1.842e-4
-1.008, -1.845e-4
-1.007, -1.830e-4
-1.006, -1.803e-4
-1.005, -1.804e-4
-1.004, -1.797e-4
-1.003, -1.801e-4
-1.002, -1.785e-4
-1.001, -1.765e-4
-1.000, -1.315e-4
-1.001, -9.967e-5
-1.002, -9.110e-5
-1.003, -8.584e-5
-1.004, -8.043e-5
-1.005, -7.707e-5
-1.006, -7.399e-5
-1.007, -7.039e-5
-1.008, -6.754e-5
-1.009, -6.422e-5
-1.010, -6.160e-5
-1.011, -5.998e-5
-1.012, -5.707e-5
-1.013, -5.468e-5
-1.014, -5.244e-5
-1.015, -5.028e-5
-1.016, -4.886e-5
-1.017, -4.682e-5
-1.018, -4.400e-5
-1.019, -4.235e-5
-1.020, -4.123e-5
-1.021, -4.041e-5
-1.022, -3.883e-5
-1.023, -3.676e-5
-1.024, -3.488e-5
-1.025, -3.376e-5
-1.026, -3.269e-5
-1.027, -3.177e-5
-1.028, -2.973e-5
-1.029, -2.839e-5
-1.030, -2.723e-5
-1.031, -2.641e-5
-1.032, -2.550e-5
-1.033, -2.418e-5
-1.034, -2.233e-5
-1.035, -2.161e-5
-1.036, -2.064e-5
-1.037, -1.978e-5
-1.038, -1.857e-5
-1.039, -1.693e-5
-1.040, -1.627e-5
-1.041, -1.540e-5
-1.042, -1.429e-5
-1.043, -1.346e-5
-1.044, -1.175e-5
-1.045, -1.100e-5
-1.046, -1.053e-5
-1.047, -9.372e-6
-1.048, -8.281e-6
-1.049, -7.002e-6
-1.050, -6.128e-6
-1.051, -5.870e-6
-1.052, -3.683e-6
-1.053, -3.297e-6
-1.054, -2.446e-6
-1.055, -1.401e-6
-1.056, -1.211e-6
-1.057, -5.130e-9
-1.058, 1.240e-6
-1.059, 2.054e-6
-1.060, 3.367e-6
-1.061, 3.640e-6
-1.062, 4.259e-6
-1.063, 5.740e-6
-1.064, 6.742e-6
-1.065, 7.817e-6
-1.066, 8.510e-6
-1.067, 8.809e-6
-1.068, 1.073e-5
-1.069, 1.188e-5
-1.070, 1.246e-5
-1.071, 1.340e-5
-1.072, 1.399e-5
-1.073, 1.572e-5
-1.074, 1.674e-5
-1.075, 1.775e-5
-1.076, 1.870e-5
-1.077, 1.908e-5
-1.078, 2.067e-5
-1.079, 2.271e-5
-1.080, 2.312e-5
-1.081, 2.398e-5
-1.082, 2.500e-5
-1.083, 2.609e-5
-1.084, 2.810e-5
-1.085, 2.865e-5
-1.086, 2.930e-5
-1.087, 3.055e-5
-1.088, 3.194e-5
-1.089, 3.377e-5
-1.090, 3.463e-5
-1.091, 3.515e-5
-1.092, 3.680e-5
-1.093, 3.789e-5
-1.094, 3.983e-5
-1.095, 4.055e-5
-1.096, 4.146e-5
-1.097, 4.287e-5
-1.098, 4.413e-5
-1.099, 4.610e-5
-1.100, 4.753e-5
-1.101, 4.797e-5
-1.102, 4.976e-5
-1.103, 5.148e-5
-1.104, 5.298e-5
-1.105, 5.405e-5
-1.106, 5.469e-5
-1.107, 5.623e-5
-1.108, 5.883e-5
-1.109, 6.087e-5
-1.110, 6.181e-5
-1.111, 6.189e-5
-1.112, 6.394e-5
-1.113, 6.610e-5
-1.114, 6.778e-5
-1.115, 6.966e-5
-1.116, 7.041e-5
-1.117, 7.197e-5
-1.118, 7.440e-5
-1.119, 7.608e-5
-1.120, 7.760e-5
-1.121, 7.871e-5
-1.122, 8.038e-5
-1.123, 8.295e-5
-1.124, 8.468e-5
-1.125, 8.629e-5
-1.126, 8.844e-5
-1.127, 8.992e-5
-1.128, 9.160e-5
-1.129, 9.387e-5
-1.130, 9.567e-5
-1.131, 9.743e-5
-1.132, 9.840e-5
-1.133, 1.010e-4
-1.134, 1.041e-4
-1.135, 1.055e-4
-1.136, 1.075e-4
-1.137, 1.097e-4
-1.138, 1.120e-4
-1.139, 1.150e-4
-1.140, 1.158e-4
-1.141, 1.174e-4
-1.142, 1.201e-4
-1.143, 1.225e-4
-1.144, 1.250e-4
-1.145, 1.268e-4
-1.146, 1.298e-4
-1.147, 1.317e-4
-1.148, 1.334e-4
-1.149, 1.367e-4
-1.150, 1.388e-4
-1.151, 1.407e-4
-1.152, 1.440e-4
-1.153, 1.455e-4
-1.154, 1.489e-4
-1.155, 1.521e-4
-1.156, 1.525e-4
-1.157, 1.566e-4
-1.158, 1.594e-4
-1.159, 1.609e-4
-1.160, 1.645e-4
-1.161, 1.664e-4
-1.162, 1.696e-4
-1.163, 1.729e-4
-1.164, 1.753e-4
-1.165, 1.787e-4
-1.166, 1.808e-4
-1.167, 1.827e-4
-1.168, 1.863e-4
-1.169, 1.885e-4
-1.170, 1.924e-4
-1.171, 1.959e-4
-1.172, 1.986e-4
-1.173, 2.017e-4
-1.174, 2.036e-4
-1.175, 2.076e-4
-1.176, 2.110e-4
-1.177, 2.129e-4
-1.178, 2.175e-4
-1.179, 2.212e-4
-1.180, 2.239e-4
-1.181, 2.263e-4
-1.182, 2.285e-4
-1.183, 2.343e-4
-1.184, 2.386e-4
-1.185, 2.404e-4
-1.186, 2.438e-4
-1.187, 2.462e-4
-1.188, 2.510e-4
-1.189, 2.552e-4
-1.190, 2.577e-4
-1.191, 2.630e-4
-1.192, 2.648e-4
-1.193, 2.687e-4
-1.194, 2.733e-4
-1.195, 2.750e-4
-1.196, 2.802e-4
-1.197, 2.845e-4
-1.198, 2.865e-4
-1.199, 2.927e-4
-1.200, 2.971e-4
-1.201, 2.983e-4
-1.202, 3.040e-4
-1.203, 3.082e-4
-1.204, 3.123e-4
-1.205, 3.166e-4
-1.206, 3.184e-4
-1.207, 3.255e-4
-1.208, 3.298e-4
-1.209, 3.324e-4
-1.210, 3.396e-4
-1.211, 3.411e-4
-1.212, 3.455e-4
-1.213, 3.526e-4
-1.214, 3.562e-4
-1.215, 3.608e-4
-1.216, 3.652e-4
-1.217, 3.688e-4
-1.218, 3.761e-4
-1.219, 3.785e-4
-1.220, 3.831e-4
-1.221, 3.892e-4
-1.222, 3.947e-4
-1.223, 4.036e-4
-1.224, 4.057e-4
-1.225, 4.098e-4
-1.226, 4.151e-4
-1.227, 4.167e-4
-1.228, 4.240e-4
-1.229, 4.316e-4
-1.230, 4.398e-4
-1.231, 4.468e-4
-1.232, 4.461e-4
-1.233, 4.550e-4
-1.234, 4.620e-4
-1.235, 4.635e-4
-1.236, 4.671e-4
-1.237, 4.739e-4
-1.238, 4.871e-4
-1.239, 4.936e-4
-1.240, 4.957e-4
-1.241, 5.052e-4
-1.242, 5.090e-4
-1.243, 5.173e-4
-1.244, 5.244e-4
-1.245, 5.272e-4
-1.246, 5.376e-4
-1.247, 5.432e-4
-1.248, 5.491e-4
-1.249, 5.621e-4
-1.250, 5.640e-4
-1.251, 5.711e-4
-1.252, 5.823e-4
-1.253, 5.900e-4
-1.254, 5.987e-4
-1.255, 6.005e-4
-1.256, 6.072e-4
-1.257, 6.236e-4
-1.258, 6.337e-4
-1.259, 6.442e-4
-1.260, 6.476e-4
-1.261, 6.519e-4
-1.262, 6.641e-4
-1.263, 6.690e-4
-1.264, 6.825e-4
-1.265, 6.941e-4
-1.266, 7.021e-4
-1.267, 7.130e-4
-1.268, 7.178e-4
-1.269, 7.301e-4
-1.270, 7.455e-4
-1.271, 7.507e-4
-1.272, 7.623e-4
-1.273, 7.732e-4
-1.274, 7.833e-4
-1.275, 7.964e-4
-1.276, 8.018e-4
-1.277, 8.190e-4
-1.278, 8.335e-4
-1.279, 8.412e-4
-1.280, 8.557e-4
-1.281, 8.654e-4
-1.282, 8.785e-4
-1.283, 8.930e-4
-1.284, 8.973e-4
-1.285, 9.160e-4
-1.286, 9.378e-4
-1.287, 9.439e-4
-1.288, 9.544e-4
-1.289, 9.692e-4
-1.290, 9.815e-4
-1.291, 1.003e-3
-1.292, 1.015e-3
-1.293, 1.028e-3
-1.294, 1.048e-3
-1.295, 1.057e-3
-1.296, 1.078e-3
-1.297, 1.096e-3
-1.298, 1.104e-3
-1.299, 1.124e-3
-1.300, 1.141e-3
-1.301, 1.154e-3
-1.302, 1.176e-3
-1.303, 1.190e-3
-1.304, 1.208e-3
-1.305, 1.226e-3
-1.306, 1.246e-3
-1.307, 1.273e-3
-1.308, 1.286e-3
-1.309, 1.298e-3
-1.310, 1.321e-3
-1.311, 1.335e-3
-1.312, 1.359e-3
-1.313, 1.390e-3
-1.314, 1.399e-3
-1.315, 1.423e-3
-1.316, 1.445e-3
-1.317, 1.467e-3
-1.318, 1.487e-3
-1.319, 1.497e-3
-1.320, 1.526e-3
-1.321, 1.552e-3
-1.322, 1.570e-3
-1.323, 1.601e-3
-1.324, 1.613e-3
-1.325, 1.645e-3
-1.326, 1.680e-3
-1.327, 1.686e-3
-1.328, 1.711e-3
-1.329, 1.749e-3
-1.330, 1.759e-3
-1.331, 1.800e-3
-1.332, 1.824e-3
-1.333, 1.839e-3
-1.334, 1.871e-3
-1.335, 1.884e-3
-1.336, 1.918e-3
-1.337, 1.955e-3
-1.338, 1.969e-3
-1.339, 2.010e-3
-1.340, 2.031e-3
-1.341, 2.043e-3
-1.342, 2.090e-3
-1.343, 2.118e-3
-1.344, 2.152e-3
-1.345, 2.190e-3
-1.346, 2.202e-3
-1.347, 2.233e-3
-1.348, 2.258e-3
-1.349, 2.281e-3
-1.350, 2.325e-3
-1.351, 2.353e-3
-1.352, 2.381e-3
-1.353, 2.431e-3
-1.354, 2.455e-3
-1.355, 2.467e-3
-1.356, 2.495e-3
-1.357, 2.517e-3
-1.358, 2.578e-3
-1.359, 2.601e-3
-1.360, 2.625e-3
-1.361, 2.682e-3
-1.362, 2.704e-3
-1.363, 2.731e-3
-1.364, 2.785e-3
-1.365, 2.786e-3
-1.366, 2.825e-3
-1.367, 2.888e-3
-1.368, 2.902e-3
-1.369, 2.939e-3
-1.370, 2.969e-3
-1.371, 2.993e-3
-1.372, 3.050e-3
-1.373, 3.074e-3
-1.374, 3.109e-3
-1.375, 3.165e-3
-1.376, 3.174e-3
-1.377, 3.196e-3
-1.378, 3.269e-3
-1.379, 3.326e-3
-1.380, 3.395e-3
-1.381, 3.407e-3
-1.382, 3.388e-3
-1.383, 3.428e-3
-1.384, 3.458e-3
-1.385, 3.503e-3
-1.386, 3.582e-3
-1.387, 3.604e-3
-1.388, 3.661e-3
-1.389, 3.720e-3
-1.390, 3.739e-3
-1.391, 3.764e-3
-1.392, 3.785e-3
-1.393, 3.835e-3
-1.394, 3.910e-3
-1.395, 3.919e-3
-1.396, 3.958e-3
-1.397, 4.014e-3
-1.398, 4.028e-3
-1.399, 4.083e-3
-1.400, 4.089e-3
-1.399, 4.031e-3
-1.398, 3.985e-3
-1.397, 3.897e-3
-1.396, 3.846e-3
-1.395, 3.813e-3
-1.394, 3.745e-3
-1.393, 3.721e-3
-1.392, 3.690e-3
-1.391, 3.637e-3
-1.390, 3.611e-3
-1.389, 3.535e-3
-1.388, 3.474e-3
-1.387, 3.470e-3
-1.386, 3.422e-3
-1.385, 3.393e-3
-1.384, 3.358e-3
-1.383, 3.277e-3
-1.382, 3.243e-3
-1.381, 3.211e-3
-1.380, 3.166e-3
-1.379, 3.150e-3
-1.378, 3.082e-3
-1.377, 3.045e-3
-1.376, 3.029e-3
-1.375, 2.971e-3
-1.374, 2.926e-3
-1.373, 2.873e-3
-1.372, 2.836e-3
-1.371, 2.831e-3
-1.370, 2.797e-3
-1.369, 2.741e-3
-1.368, 2.709e-3
-1.367, 2.663e-3
-1.366, 2.623e-3
-1.365, 2.576e-3
-1.364, 2.556e-3
-1.363, 2.541e-3
-1.362, 2.492e-3
-1.361, 2.468e-3
-1.360, 2.436e-3
-1.359, 2.397e-3
-1.358, 2.372e-3
-1.357, 2.317e-3
-1.356, 2.286e-3
-1.355, 2.272e-3
-1.354, 2.228e-3
-1.353, 2.190e-3
-1.352, 2.167e-3
-1.351, 2.138e-3
-1.350, 2.115e-3
-1.349, 2.072e-3
-1.348, 2.039e-3
-1.347, 2.018e-3
-1.346, 1.991e-3
-1.345, 1.974e-3
-1.344, 1.939e-3
-1.343, 1.921e-3
-1.342, 1.897e-3
-1.341, 1.851e-3
-1.340, 1.829e-3
-1.339, 1.798e-3
-1.338, 1.771e-3
-1.337, 1.754e-3
-1.336, 1.719e-3
-1.335, 1.700e-3
-1.334, 1.669e-3
-1.333, 1.633e-3
-1.332, 1.626e-3
-1.331, 1.596e-3
-1.330, 1.562e-3
-1.329, 1.545e-3
-1.328, 1.511e-3
-1.327, 1.488e-3
-1.326, 1.464e-3
-1.325, 1.436e-3
-1.324, 1.424e-3
-1.323, 1.393e-3
-1.322, 1.376e-3
-1.321, 1.362e-3
-1.320, 1.321e-3
-1.319, 1.293e-3
-1.318, 1.272e-3
-1.317, 1.257e-3
-1.316, 1.253e-3
-1.315, 1.221e-3
-1.314, 1.191e-3
-1.313, 1.176e-3
-1.312, 1.150e-3
-1.311, 1.131e-3
-1.310, 1.113e-3
-1.309, 1.090e-3
-1.308, 1.078e-3
-1.307, 1.057e-3
-1.306, 1.037e-3
-1.305, 1.022e-3
-1.304, 9.956e-4
-1.303, 9.798e-4
-1.302, 9.654e-4
-1.301, 9.409e-4
-1.300, 9.272e-4
-1.299, 9.076e-4
-1.298, 8.862e-4
-1.297, 8.751e-4
-1.296, 8.550e-4
-1.295, 8.363e-4
-1.294, 8.274e-4
-1.293, 8.045e-4
-1.292, 7.926e-4
-1.291, 7.809e-4
-1.290, 7.578e-4
-1.289, 7.389e-4
-1.288, 7.261e-4
-1.287, 7.131e-4
-1.286, 7.022e-4
-1.285, 6.833e-4
-1.284, 6.710e-4
-1.283, 6.607e-4
-1.282, 6.402e-4
-1.281, 6.254e-4
-1.280, 6.103e-4
-1.279, 6.019e-4
-1.278, 5.926e-4
-1.277, 5.739e-4
-1.276, 5.605e-4
-1.275, 5.515e-4
-1.274, 5.377e-4
-1.273, 5.234e-4
-1.272, 5.086e-4
-1.271, 4.989e-4
-1.270, 4.922e-4
-1.269, 4.791e-4
-1.268, 4.668e-4
-1.267, 4.540e-4
-1.266, 4.416e-4
-1.265, 4.347e-4
-1.264, 4.223e-4
-1.263, 4.096e-4
-1.262, 4.034e-4
-1.261, 3.907e-4
-1.260, 3.823e-4
-1.259, 3.725e-4
-1.258, 3.583e-4
-1.257, 3.526e-4
-1.256, 3.433e-4
-1.255, 3.317e-4
-1.254, 3.235e-4
-1.253, 3.120e-4
-1.252, 3.046e-4
-1.251, 2.977e-4
-1.250, 2.855e-4
-1.249, 2.784e-4
-1.248, 2.698e-4
-1.247, 2.589e-4
-1.246, 2.524e-4
-1.245, 2.450e-4
-1.244, 2.373e-4
-1.243, 2.303e-4
-1.242, 2.220e-4
-1.241, 2.145e-4
-1.240, 2.061e-4
-1.239, 1.981e-4
-1.238, 1.915e-4
-1.237, 1.853e-4
-1.236, 1.782e-4
-1.235, 1.713e-4
-1.234, 1.637e-4
-1.233, 1.569e-4
-1.232, 1.512e-4
-1.231, 1.450e-4
-1.230, 1.388e-4
-1.229, 1.309e-4
-1.228, 1.261e-4
-1.227, 1.206e-4
-1.226, 1.135e-4
-1.225, 1.076e-4
-1.224, 1.027e-4
-1.223, 9.695e-5
-1.222, 9.192e-5
-1.221, 8.661e-5
-1.220, 7.999e-5
-1.219, 7.465e-5
-1.218, 7.652e-5
-1.217, 7.201e-5
-1.216, 6.223e-5
-1.215, 5.597e-5
-1.214, 5.054e-5
-1.213, 4.587e-5
-1.212, 4.137e-5
-1.211, 3.733e-5
-1.210, 3.263e-5
-1.209, 2.735e-5
-1.208, 2.328e-5
-1.207, 1.955e-5
-1.206, 1.549e-5
-1.205, 1.303e-5
-1.204, 7.454e-6
-1.203, 2.947e-6
-1.202, -7.461e-7
-1.201, -4.812e-6
-1.200, -8.645e-6
-1.199, -1.245e-5
-1.198, -1.604e-5
-1.197, -1.912e-5
-1.196, -2.225e-5
-1.195, -2.609e-5
-1.194, -2.963e-5
-1.193, -3.335e-5
-1.192, -3.624e-5
-1.191, -3.891e-5
-1.190, -4.215e-5
-1.189, -4.514e-5
-1.188, -4.815e-5
-1.187, -5.166e-5
-1.186, -5.385e-5
-1.185, -5.657e-5
-1.184, -5.958e-5
-1.183, -6.273e-5
-1.182, -6.519e-5
-1.181, -6.696e-5
-1.180, -7.017e-5
-1.179, -7.338e-5
-1.178, -7.479e-5
-1.177, -7.689e-5
-1.176, -7.966e-5
-1.175, -8.154e-5
-1.174, -8.550e-5
-1.173, -8.674e-5
-1.172, -8.852e-5
-1.171, -9.099e-5
-1.170, -9.237e-5
-1.169, -9.575e-5
-1.168, -9.720e-5
-1.167, -9.837e-5
-1.166, -1.014e-4
-1.165, -1.028e-4
-1.164, -1.048e-4
-1.163, -1.072e-4
-1.162, -1.075e-4
-1.161, -1.092e-4
-1.160, -1.110e-4
-1.159, -1.133e-4
-1.158, -1.155e-4
-1.157, -1.154e-4
-1.156, -1.173e-4
-1.155, -1.195e-4
-1.154, -1.202e-4
-1.153, -1.226e-4
-1.152, -1.227e-4
-1.151, -1.233e-4
-1.150, -1.254e-4
-1.149, -1.259e-4
-1.148, -1.280e-4
-1.147, -1.301e-4
-1.146, -1.297e-4
-1.145, -1.306e-4
-1.144, -1.306e-4
-1.143, -1.320e-4
-1.142, -1.337e-4
-1.141, -1.325e-4
-1.140, -1.351e-4
-1.139, -1.365e-4
-1.138, -1.362e-4
-1.137, -1.373e-4
-1.136, -1.356e-4
-1.135, -1.380e-4
-1.134, -1.400e-4
-1.133, -1.385e-4
-1.132, -1.397e-4
-1.131, -1.396e-4
-1.130, -1.402e-4
-1.129, -1.410e-4
-1.128, -1.401e-4
-1.127, -1.405e-4
-1.126, -1.415e-4
-1.125, -1.412e-4
-1.124, -1.424e-4
-1.123, -1.414e-4
-1.122, -1.425e-4
-1.121, -1.436e-4
-1.120, -1.417e-4
-1.119, -1.427e-4
-1.118, -1.440e-4
-1.117, -1.428e-4
-1.116, -1.437e-4
-1.115, -1.431e-4
-1.114, -1.431e-4
-1.113, -1.447e-4
-1.112, -1.431e-4
-1.111, -1.428e-4
-1.110, -1.429e-4
-1.109, -1.423e-4
-1.108, -1.436e-4
-1.107, -1.422e-4
-1.106, -1.414e-4
-1.105, -1.427e-4
-1.104, -1.423e-4
-1.103, -1.427e-4
-1.102, -1.408e-4
-1.101, -1.395e-4
-1.100, -1.421e-4
-1.099, -1.406e-4
-1.098, -1.394e-4
-1.097, -1.422e-4
-1.096, -1.401e-4
-1.095, -1.393e-4
-1.094, -1.409e-4
-1.093, -1.395e-4
-1.092, -1.390e-4
-1.091, -1.376e-4
-1.090, -1.371e-4
-1.089, -1.386e-4
-1.088, -1.394e-4
-1.087, -1.384e-4
-1.086, -1.366e-4
-1.085, -1.346e-4
-1.084, -1.356e-4
-1.083, -1.357e-4
-1.082, -1.351e-4
-1.081, -1.352e-4
-1.080, -1.337e-4
-1.079, -1.339e-4
-1.078, -1.343e-4
-1.077, -1.317e-4
-1.076, -1.320e-4
-1.075, -1.318e-4
-1.074, -1.312e-4
-1.073, -1.326e-4
-1.072, -1.300e-4
-1.071, -1.285e-4
-1.070, -1.316e-4
-1.069, -1.300e-4
-1.068, -1.276e-4
-1.067, -1.285e-4
-1.066, -1.267e-4
-1.065, -1.274e-4
-1.064, -1.267e-4
-1.063, -1.242e-4
-1.062, -1.242e-4
-1.061, -1.234e-4
-1.060, -1.249e-4
-1.059, -1.256e-4
-1.058, -1.231e-4
-1.057, -1.217e-4
-1.056, -1.217e-4
-1.055, -1.204e-4
-1.054, -1.206e-4
-1.053, -1.203e-4
-1.052, -1.195e-4
-1.051, -1.188e-4
-1.050, -1.179e-4
-1.049, -1.174e-4
-1.048, -1.183e-4
-1.047, -1.169e-4
-1.046, -1.145e-4
-1.045, -1.148e-4
-1.044, -1.124e-4
-1.043, -1.123e-4
-1.042, -1.137e-4
-1.041, -1.125e-4
-1.040, -1.128e-4
-1.039, -1.125e-4
-1.038, -1.115e-4
-1.037, -1.113e-4
-1.036, -1.096e-4
-1.035, -1.086e-4
-1.034, -1.104e-4
-1.033, -1.099e-4
-1.032, -1.086e-4
-1.031, -1.086e-4
-1.030, -1.076e-4
-1.029, -1.067e-4
-1.028, -1.072e-4
-1.027, -1.067e-4
-1.026, -1.067e-4
-1.025, -1.066e-4
-1.024, -1.057e-4
-1.023, -1.061e-4
-1.022, -1.055e-4
-1.021, -1.039e-4
-1.020, -1.048e-4
-1.019, -1.041e-4
-1.018, -1.047e-4
-1.017, -1.049e-4
-1.016, -1.028e-4
-1.015, -1.040e-4
-1.014, -1.048e-4
-1.013, -1.028e-4
-1.012, -1.030e-4
-1.011, -1.027e-4
-1.010, -1.026e-4
-1.009, -1.037e-4
-1.008, -1.029e-4
-1.007, -1.031e-4
-1.006, -1.023e-4
-1.005, -1.013e-4
-1.004, -1.033e-4
-1.003, -1.026e-4
-1.002, -1.018e-4
-1.001, -1.022e-4
