Potential V vs RHE, Current mA cm-2
0.013299999999999867,-0.3947044526623452
0.012299999999999978,-1.3107300193249565
0.011299999999999866,-1.8773218949209036
0.010299999999999976,-2.226755585987568
0.009299999999999864,-2.4884771764625997
0.008299999999999974,-2.706342716641815
0.007299999999999862,-2.8379108675292635
0.006299999999999972,-2.924208256821031
0.00529999999999986,-3.0119203574126634
0.0042999999999999705,-3.0996324580042955
0.0032999999999998586,-3.1420737970002466
0.0022999999999999687,-3.2297858975918787
0.0012999999999998568,-3.273641947887695
0.00029999999999996696,-3.273641947887695
-0.000700000000000145,-3.317497998183511
-0.0017000000000000348,-3.361354048479327
-0.0027000000000001467,-3.403795387475278
-0.0037000000000000366,-3.403795387475278
-0.0047000000000001485,-3.361354048479327
-0.005700000000000038,-3.403795387475278
-0.00670000000000015,-3.447651437771094
-0.00770000000000004,-3.403795387475278
-0.008700000000000152,-3.403795387475278
-0.009700000000000042,-3.403795387475278
-0.010700000000000154,-3.447651437771094
-0.011700000000000044,-3.447651437771094
-0.012700000000000156,-3.447651437771094
-0.013700000000000045,-3.447651437771094
-0.014700000000000157,-3.447651437771094
-0.015700000000000047,-3.447651437771094
-0.01670000000000016,-3.447651437771094
-0.01770000000000005,-3.4915074880669104
-0.01870000000000016,-3.4915074880669104
-0.01970000000000005,-3.447651437771094
-0.020700000000000163,-3.447651437771094
-0.021700000000000053,-3.4915074880669104
-0.022700000000000164,-3.4915074880669104
-0.023700000000000054,-3.4915074880669104
-0.024700000000000166,-3.4915074880669104
-0.025700000000000056,-3.4915074880669104
-0.026700000000000168,-3.5353635383627267
-0.027700000000000058,-3.5353635383627267
-0.02870000000000017,-3.4915074880669104
-0.02970000000000006,-3.4915074880669104
-0.03070000000000017,-3.5353635383627267
-0.03170000000000006,-3.5353635383627267
-0.03270000000000017,-3.579219588658543
-0.03370000000000006,-3.579219588658543
-0.034700000000000175,-3.579219588658543
-0.035700000000000065,-3.579219588658543
-0.03670000000000018,-3.579219588658543
-0.03770000000000007,-3.579219588658543
-0.03870000000000018,-3.579219588658543
-0.03970000000000007,-3.579219588658543
-0.04070000000000018,-3.579219588658543
-0.04170000000000007,-3.579219588658543
-0.04270000000000018,-3.623075638954359
-0.04370000000000007,-3.579219588658543
-0.044700000000000184,-3.579219588658543
-0.045700000000000074,-3.579219588658543
-0.046700000000000186,-3.623075638954359
-0.047700000000000076,-3.623075638954359
-0.04870000000000019,-3.579219588658543
-0.04970000000000008,-3.579219588658543
-0.05070000000000019,-3.579219588658543
-0.05170000000000008,-3.623075638954359
-0.05270000000000019,-3.623075638954359
-0.05370000000000008,-3.579219588658543
-0.05470000000000019,-3.579219588658543
-0.05570000000000008,-3.579219588658543
-0.056700000000000195,-3.623075638954359
-0.057700000000000085,-3.623075638954359
-0.058700000000000196,-3.579219588658543
-0.059700000000000086,-3.579219588658543
-0.0607000000000002,-3.579219588658543
-0.06170000000000009,-3.623075638954359
-0.0627000000000002,-3.623075638954359
-0.06370000000000009,-3.623075638954359
-0.0647000000000002,-3.579219588658543
-0.06570000000000009,-3.579219588658543
-0.0667000000000002,-3.623075638954359
-0.0677000000000001,-3.6655169779503103
-0.0687000000000002,-3.623075638954359
-0.0697000000000001,-3.623075638954359
-0.07070000000000021,-3.623075638954359
-0.0717000000000001,-3.6655169779503103
-0.07270000000000021,-3.6655169779503103
-0.0737000000000001,-3.623075638954359
-0.07470000000000021,-3.623075638954359
-0.0757000000000001,-3.623075638954359
-0.07670000000000021,-3.6655169779503103
-0.0777000000000001,-3.6655169779503103
-0.07870000000000021,-3.6655169779503103
-0.0797000000000001,-3.623075638954359
-0.08070000000000022,-3.6655169779503103
-0.0817000000000001,-3.6655169779503103
-0.08270000000000022,-3.6655169779503103
-0.08370000000000011,-3.6655169779503103
-0.08470000000000022,-3.6655169779503103
-0.08570000000000011,-3.6655169779503103
-0.08670000000000022,-3.7093730282461257
-0.08770000000000011,-3.6655169779503103
-0.08870000000000022,-3.6655169779503103
-0.08970000000000011,-3.623075638954359
-0.09070000000000022,-3.623075638954359
-0.09170000000000011,-3.6655169779503103
-0.09270000000000023,-3.6655169779503103
-0.09370000000000012,-3.6655169779503103
-0.09470000000000023,-3.6655169779503103
-0.09570000000000012,-3.6655169779503103
-0.09670000000000023,-3.7093730282461257
-0.09770000000000012,-3.7093730282461257
-0.09870000000000023,-3.6655169779503103
-0.09970000000000012,-3.6655169779503103
-0.10070000000000023,-3.6655169779503103
-0.10170000000000012,-3.7093730282461257
-0.10270000000000024,-3.7093730282461257
-0.10370000000000013,-3.7093730282461257
-0.10470000000000024,-3.7093730282461257
-0.10570000000000013,-3.7093730282461257
-0.10670000000000024,-3.7532290785419424
-0.10770000000000013,-3.7532290785419424
-0.10870000000000024,-3.7093730282461257
-0.10970000000000013,-3.7093730282461257
-0.11070000000000024,-3.7532290785419424
-0.11170000000000013,-3.7970851288377587
-0.11270000000000002,-3.7970851288377587
-0.11370000000000013,-3.7532290785419424
-0.11470000000000002,-3.7532290785419424
-0.11570000000000014,-3.7532290785419424
-0.11670000000000003,-3.7532290785419424
-0.11770000000000014,-3.7970851288377587
-0.11870000000000003,-3.7532290785419424
-0.11970000000000014,-3.7093730282461257
-0.12070000000000003,-3.7532290785419424
-0.12170000000000014,-3.7532290785419424
-0.12270000000000003,-3.7532290785419424
-0.12370000000000014,-3.7532290785419424
-0.12470000000000003,-3.7532290785419424
-0.12570000000000014,-3.7970851288377587
-0.12670000000000003,-3.840941179133574
-0.12770000000000015,-3.840941179133574
-0.12870000000000004,-3.840941179133574
-0.12970000000000015,-3.840941179133574
-0.13070000000000004,-3.840941179133574
-0.13170000000000015,-3.884797229429391
-0.13270000000000004,-3.884797229429391
-0.13370000000000015,-3.884797229429391
-0.13470000000000004,-3.884797229429391
-0.13570000000000015,-3.884797229429391
-0.13670000000000004,-3.884797229429391
-0.13770000000000016,-3.927238568425342
-0.13870000000000005,-3.927238568425342
-0.13970000000000016,-3.927238568425342
-0.14070000000000005,-3.884797229429391
-0.14170000000000016,-3.927238568425342
-0.14270000000000005,-3.971094618721158
-0.14370000000000016,-3.927238568425342
-0.14470000000000005,-3.927238568425342
-0.14570000000000016,-3.971094618721158
-0.14670000000000005,-3.971094618721158
-0.14770000000000016,-3.971094618721158
-0.14870000000000005,-3.971094618721158
-0.14970000000000017,-3.927238568425342
-0.15070000000000006,-3.927238568425342
-0.15170000000000017,-3.971094618721158
-0.15270000000000006,-3.971094618721158
-0.15370000000000017,-3.971094618721158
-0.15470000000000006,-3.927238568425342
-0.15570000000000017,-3.971094618721158
-0.15670000000000006,-4.014950669016974
-0.15770000000000017,-4.0588067193127895
-0.15870000000000006,-4.0588067193127895
-0.15970000000000018,-4.0588067193127895
-0.16070000000000007,-4.102662769608606
-0.16170000000000018,-4.146518819904423
-0.16270000000000007,-4.146518819904423
-0.16370000000000018,-4.146518819904423
-0.16470000000000007,-4.1889601589003735
-0.16570000000000018,-4.1889601589003735
-0.16670000000000007,-4.276672259492005
-0.16770000000000018,-4.276672259492005
-0.16870000000000007,-4.23281620919619
-0.16970000000000018,-4.23281620919619
-0.17070000000000007,-4.23281620919619
-0.17170000000000019,-4.276672259492005
-0.17270000000000008,-4.276672259492005
-0.1737000000000002,-4.276672259492005
-0.17470000000000008,-4.276672259492005
-0.1757000000000002,-4.3205283097878215
-0.17670000000000008,-4.364384360083638
-0.1777000000000002,-4.406825699079589
-0.17870000000000008,-4.406825699079589
-0.1797000000000002,-4.450681749375406
-0.18070000000000008,-4.494537799671222
-0.1817000000000002,-4.538393849967037
-0.18270000000000008,-4.626105950558669
-0.1837000000000002,-4.626105950558669
-0.1847000000000001,-4.582249900262854
-0.1857000000000002,-4.626105950558669
-0.1867000000000001,-4.668547289554621
-0.1877000000000002,-4.668547289554621
-0.1887000000000001,-4.668547289554621
-0.1897000000000002,-4.668547289554621
-0.1907000000000001,-4.712403339850438
-0.1917000000000001,-4.800115440442069
-0.19269999999999998,-4.843971490737885
-0.1937000000000001,-4.843971490737885
-0.19469999999999998,-4.887827541033701
-0.1957000000000001,-4.9302688800296535
-0.19669999999999999,-4.974124930325469
-0.1977000000000001,-5.0618370309171015
-0.1987,-5.0618370309171015
-0.1997000000000001,-5.105693081212917
-0.2007,-5.149549131508733
-0.2017000000000001,-5.191990470504685
-0.2027,-5.191990470504685
-0.2037000000000001,-5.235846520800501
-0.2047,-5.235846520800501
-0.2057000000000001,-5.279702571096316
-0.2067,-5.367414671687949
-0.2077000000000001,-5.367414671687949
-0.2087,-5.411270721983764
-0.2097000000000001,-5.411270721983764
-0.2107,-5.497568111275533
-0.2117000000000001,-5.585280211867165
-0.2127,-5.629136262162981
-0.2137000000000001,-5.629136262162981
-0.2147,-5.672992312458796
-0.2157000000000001,-5.80314575204638
-0.2167,-5.847001802342197
-0.21770000000000012,-5.9347139029338285
-0.2187,-5.9347139029338285
-0.21970000000000012,-6.021011292225596
-0.2207,-6.064867342521412
-0.22170000000000012,-6.152579443113044
-0.2227,-6.238876832404812
-0.22370000000000012,-6.282732882700628
-0.2247,-6.326588932996443
-0.22570000000000012,-6.414301033588076
-0.2267,-6.54445447317566
-0.22770000000000012,-6.632166573767292
-0.22870000000000001,-6.6760226240631075
-0.22970000000000013,-6.719878674358924
-0.23070000000000002,-6.850032113946507
-0.23170000000000013,-6.93774421453814
-0.23270000000000002,-7.024041603829907
-0.23370000000000013,-7.067897654125724
-0.23470000000000002,-7.155609754717355
-0.23570000000000013,-7.243321855308987
-0.23670000000000002,-7.329619244600755
-0.2376999999999999,-7.461187395488204
-0.23870000000000002,-7.5474847847799715
-0.2396999999999999,-7.591340835075788
-0.24070000000000003,-7.722908985963235
-0.24169999999999991,-7.896918475846635
-0.24270000000000003,-7.984630576438266
-0.24369999999999992,-8.070927965730034
-0.24470000000000003,-8.158640066321666
-0.24569999999999992,-8.288793505909249
-0.24670000000000003,-8.4203616567967
-0.24769999999999992,-8.508073757388331
-0.24870000000000003,-8.594371146680096
-0.24969999999999992,-8.68208324727173
-0.25070000000000003,-8.812236686859313
-0.2516999999999999,-8.943804837746763
-0.25270000000000004,-9.031516938338395
-0.2536999999999999,-9.161670377925978
-0.25470000000000004,-9.293238528813426
-0.2556999999999999,-9.423391968401008
-0.25670000000000004,-9.59740145828441
-0.25769999999999993,-9.728969609171857
-0.25870000000000004,-9.85912304875944
-0.25969999999999993,-9.946835149351072
-0.26070000000000004,-10.120844639234473
-0.26169999999999993,-10.296268840417738
-0.26270000000000004,-10.470278330301136
-0.26369999999999993,-10.601846481188586
-0.26470000000000005,-10.688143870480351
-0.26569999999999994,-10.863568071663616
-0.26670000000000005,-11.081433611842833
-0.26769999999999994,-11.255443101726232
-0.26870000000000005,-11.42945259160963
-0.26969999999999994,-11.604876792792895
-0.27070000000000005,-11.778886282676295
-0.27169999999999994,-11.996751822855511
-0.27270000000000005,-12.170761312738911
-0.27369999999999994,-12.346185513922174
-0.27470000000000006,-12.476338953509758
-0.27569999999999995,-12.694204493688973
-0.27670000000000006,-12.913484745168056
-0.27769999999999995,-13.087494235051453
-0.27870000000000006,-13.30535977523067
-0.27969999999999995,-13.436927926118118
-0.28070000000000006,-13.654793466297335
-0.28169999999999995,-13.916515056772363
-0.28270000000000006,-14.13438059695158
-0.28369999999999995,-14.345172580631472
-0.28470000000000006,-14.529085049613924
-0.28569999999999995,-14.783733083589633
-0.28670000000000007,-15.05252823056399
-0.28769999999999996,-15.264734925543747
-0.28870000000000007,-15.491088733522153
-0.28969999999999996,-15.70329542850191
-0.29070000000000007,-15.91550212348166
-0.29169999999999996,-16.22673860945197
-0.29270000000000007,-16.53797509542228
-0.29369999999999996,-16.792623129397985
-0.2947000000000001,-17.018976937376394
-0.29569999999999996,-17.2736249713521
-0.2967000000000001,-17.584861457322408
-0.29769999999999996,-17.797068152302163
-0.2987000000000001,-18.009274847281915
-0.29969999999999997,-18.27806999425627
-0.3007000000000001,-18.53271802823198
-0.30169999999999997,-18.843954514202288
-0.3027000000000001,-19.112749661176647
-0.30369999999999997,-19.3249563561564
-0.3047000000000001,-19.579604390132108
-0.30569999999999997,-19.848399537106463
-0.3067000000000001,-20.159636023076775
-0.3077,-20.414284057052477
-0.3087000000000001,-20.72552054302279
-0.3097,-20.980168576998494
-0.3107000000000001,-21.333846401964752
-0.3117,-21.63093577493641
-0.3127000000000001,-21.98461359990267
-0.3137,-22.295850085872978
-0.3147000000000001,-22.63538079784059
-0.3157,-22.989058622806844
-0.3167000000000001,-23.385177786769056
-0.3177,-23.724708498736668
-0.3187000000000001,-24.035944984706973
-0.3197,-24.34718147067728
-0.3207000000000001,-24.686712182644893
-0.3217,-25.0828313466071
-0.3227000000000001,-25.39406783257741
-0.3237,-25.77603988354097
-0.3247000000000001,-26.129717708507226
-0.3257,-26.525836872469437
-0.3267000000000001,-26.86536758443705
-0.3277,-27.134162731411404
-0.3287000000000001,-27.43125210438306
-0.3297,-27.700047251357418
-0.3307000000000001,-28.011283737327723
-0.3317,-28.393255788291288
-0.3327000000000001,-28.789374952253496
-0.3337,-29.14305277721976
-0.3347000000000001,-29.440142150191413
-0.3357,-29.793819975157668
-0.3367000000000001,-30.147497800123933
-0.3377,-30.487028512091538
-0.3387000000000001,-30.79826499806185
-0.3397,-31.095354371033505
-0.3407000000000001,-31.449032195999767
-0.3417,-31.802710020966025
-0.3427000000000001,-32.184682071929586
-0.3437,-32.53835989689585
-0.3447000000000001,-32.93447906085806
-0.3457,-33.373039563816214
-0.3467000000000001,-33.85404140577033
-0.3477,-34.377484586720385
-0.3487000000000001,-34.8018979766799
-0.3497,-35.282899818634014
-0.3507000000000001,-35.806342999584075
-0.3517,-36.37222751953009
-0.3527000000000001,-36.99470049147071
-0.3537,-37.56058501141672
-0.3547000000000001,-38.08402819236679
-0.3557,-38.6499127123128
-0.35670000000000013,-39.21579723225882
-0.3577,-39.696799074212926
-0.35870000000000013,-40.092918238175145
-0.3597,-40.4748902891387
-0.36070000000000013,-40.87100945310091
-0.3617,-41.352011295055014
-0.3626999999999999,-41.79057179801318
-0.3637,-42.229132300971344
-0.3646999999999999,-42.71013414292546
-0.3657,-43.23357732387552
-0.3666999999999999,-43.75702050482558
-0.3677,-44.223875233781044
-0.3686999999999999,-44.577553058747306
-0.36970000000000003,-44.97367222270952
-0.3706999999999999,-45.412232725667685
-0.37170000000000003,-45.89323456762179
-0.3726999999999999,-46.37423640957591
-0.37370000000000003,-46.75620846053947
-0.3746999999999999,-47.10988628550572
-0.37570000000000003,-47.54844678846388
-0.3766999999999999,-48.029448630417996
-0.37770000000000004,-48.55289181136806
-0.3786999999999999,-48.97730520132757
-0.37970000000000004,-49.458307043281685
-0.3806999999999999,-49.89686754623985
-0.38170000000000004,-50.29298671020206
-0.38269999999999993,-50.64666453516831
-0.38370000000000004,-50.90131256914402
-0.38469999999999993,-51.21254905511432
-0.38570000000000004,-51.594521106077885
-0.38669999999999993,-52.033081609036046
-0.38770000000000004,-52.42920077299826
-0.38869999999999993,-52.91020261495237
-0.38970000000000005,-53.433645795902436
-0.39069999999999994,-53.999530315848446
-0.39170000000000005,-54.56541483579447
-0.39269999999999994,-55.17374069473642
-0.39370000000000005,-55.838655005673
-0.39469999999999994,-56.404539525619015
-0.39570000000000005,-57.012865384560975
-0.39669999999999994,-57.66363258249889
-0.39770000000000005,-58.22951710244491
-0.39869999999999994,-58.83784296138688
-0.39970000000000006,-59.36128614233694
-0.40069999999999995,-60.02620045327351
-0.40170000000000006,-60.67696765121143
-0.40269999999999995,-61.242852171157445
-0.40370000000000006,-61.6814126741156
-0.40469999999999995,-62.02094338608321
-0.40570000000000006,-62.41706255004542
-0.40669999999999995,-62.855623053003576
-0.40770000000000006,-63.3366248949577
-0.40869999999999995,-63.81762673691181
-0.40970000000000006,-64.34106991786187
-0.41069999999999995,-64.99183711579978
-0.41170000000000007,-65.7274869917296
-0.41269999999999996,-66.39240130266617
-0.41370000000000007,-67.00072716160814
-0.41469999999999996,-67.56661168155415
-0.41570000000000007,-68.13249620150016
-0.41669999999999996,-68.82570473843404
-0.41770000000000007,-69.57550172736251
-0.41869999999999996,-70.31115160329232
-0.4197000000000001,-71.0043601402262
-0.42069999999999996,-71.7117157901587
-0.4217000000000001,-72.32004164910067
-0.42269999999999996,-72.92836750804264
-0.4237000000000001,-73.40936934999675
-0.42469999999999997,-73.93281253094682
-0.4257000000000001,-74.49869705089283
-0.42669999999999997,-75.02214023184291
-0.4277000000000001,-75.54558341279296
-0.42869999999999997,-75.98414391575112
-0.4297000000000001,-76.19635061073087
-0.43069999999999997,-76.55002843569714
-0.4317000000000001,-76.94614759965934
-0.4327,-77.55447345860131
-0.4337000000000001,-78.12035797854733
-0.4347,-78.60135982050144
-0.4357000000000001,-79.16724434044745
-0.4367,-79.73312886039348
-0.4377000000000001,-80.25657204134353
-0.4387,-80.82245656128954
-0.4397000000000001,-81.47322375922747
-0.4407,-82.13813807016405
-0.4417000000000001,-82.8313466070979
-0.4427,-83.56699648302772
-0.4437000000000001,-84.23191079396429
-0.4447,-84.84023665290624
-0.4457000000000001,-85.32123849486035
-0.4467,-85.80224033681448
-0.4477000000000001,-86.32568351776455
-0.4487,-86.84912669871461
-0.4497000000000001,-87.33012854066871
-0.4507,-87.85357172161878
-0.4517000000000001,-88.4194562415648
-0.4527,-88.9004580835189
-0.4537000000000001,-89.36731281247435
-0.4547,-89.89075599342443
-0.4557000000000001,-90.47078762636909
-0.4567,-91.16399616330297
-0.4577000000000001,-91.94208737822873
-0.4587,-92.86164972314101
-0.4597000000000001,-93.69632939006138
-0.4607,-94.6583330739696
-0.4617000000000001,-95.43642428889537
-0.4627,-96.21451550382113
-0.4637000000000001,-97.00675383174556
-0.4647,-97.92631617665783
-0.4657000000000001,-98.83173140857146
-0.4667,-99.62396973649588
-0.4677000000000001,-100.2747369344338
-0.4687,-100.88306279337576
-0.4697000000000001,-101.3640646353299
-0.4707,-101.92994915527588
-0.4717000000000001,-102.72218748320032
-0.4727,-103.59930848911664
-0.4737000000000001,-104.41984104303836
-0.4747,-105.07060824097626
-0.4757000000000001,-105.94772924689259
-0.4767,-106.82485025280893
-0.4777000000000001,-107.64538280673065
-0.4787,-108.2537086656726
-0.4797000000000001,-108.73471050762672
-0.4807,-109.21571234958083
-0.48170000000000013,-109.73915553053091
-0.4827,-110.1352746944931
-0.48370000000000013,-110.65871787544317
-0.4847,-111.18216105639323
-0.48570000000000013,-111.8753695933271
-0.4867,-111.74804557633925
-0.48570000000000013,-110.34748138947285
-0.4847,-109.30059502757274
-0.48370000000000013,-108.21126732667666
-0.4827,-107.20682230377247
-0.48170000000000013,-106.21652439386696
-0.4807,-105.07060824097626
-0.4797000000000001,-103.98128054008019
-0.4787,-102.63730480520842
-0.4777000000000001,-101.3640646353299
-0.4767,-100.06253023945405
-0.4757000000000001,-99.01564387755391
-0.4747,-98.01119885464975
-0.4737000000000001,-96.96431249274961
-0.4727,-96.00230880884139
-0.4717000000000001,-95.04030512493317
-0.4707,-94.07830144102493
-0.4697000000000001,-93.08800353111941
-0.4687,-92.12599984721119
-0.4677000000000001,-91.33376151928677
-0.4667,-90.59811164335694
-0.4657000000000001,-89.89075599342443
-0.4647,-89.23998879548651
-0.4637000000000001,-88.5892215975486
-0.4627,-87.89601306061473
