Potential V vs RHE, Current mA cm-2
0.013299999999999867,5.7111895175551535
0.012299999999999978,4.360140226184043
0.011299999999999866,3.1378296631006513
0.010299999999999976,2.004645911908757
0.009299999999999864,0.9137620285828272
0.008299999999999974,-0.002205534916489592
0.007299999999999862,-0.8308599464107361
0.006299999999999972,-1.6156003044458718
0.00529999999999986,-2.4446211261667834
0.0042999999999999705,-3.1859298472960624
0.0032999999999998586,-3.884797229429391
0.0022999999999999687,-4.450681749375406
0.0012999999999998568,-5.0618370309171015
0.00029999999999996696,-5.672992312458796
-0.000700000000000145,-6.326588932996443
-0.0017000000000000348,-6.893888164242324
-0.0027000000000001467,-7.329619244600755
-0.0037000000000000366,-7.853062425550818
-0.0047000000000001485,-8.376505606500881
-0.005700000000000038,-8.85609273715513
-0.00670000000000015,-9.335679867809377
-0.00770000000000004,-9.685113558876042
-0.008700000000000152,-10.120844639234473
-0.009700000000000042,-10.557990430892769
-0.010700000000000154,-11.037577561547016
-0.011700000000000044,-11.42945259160963
-0.012700000000000156,-11.778886282676295
-0.013700000000000045,-12.170761312738911
-0.014700000000000157,-12.651763154693022
-0.015700000000000047,-13.13135028534727
-0.01670000000000016,-13.567081365705702
-0.01770000000000005,-13.872659006476551
-0.01870000000000016,-14.175407224647667
-0.01970000000000005,-14.529085049613924
-0.020700000000000163,-14.868615761581536
-0.021700000000000053,-15.222293586547794
-0.022700000000000164,-15.533530072518102
-0.023700000000000054,-15.91550212348166
-0.024700000000000166,-16.354062626439823
-0.025700000000000056,-16.792623129397985
-0.026700000000000168,-17.146300954364243
-0.027700000000000058,-17.40094898833995
-0.02870000000000017,-17.669744135314307
-0.02970000000000006,-18.06586329927652
-0.03070000000000017,-18.49027668923603
-0.03170000000000006,-18.80151317520634
-0.03270000000000017,-19.056161209182044
-0.03370000000000006,-19.367397695152352
-0.034700000000000175,-19.763516859114564
-0.035700000000000065,-20.202077362072725
-0.03670000000000018,-20.584049413036283
-0.03770000000000007,-20.89528589900659
-0.03870000000000018,-21.248963723972853
-0.03970000000000007,-21.63093577493641
-0.04070000000000018,-22.069496277894572
-0.04170000000000007,-22.46561544185678
-0.04270000000000018,-22.776851927827092
-0.04370000000000007,-23.073941300798747
-0.044700000000000184,-23.385177786769056
-0.045700000000000074,-23.682267159740714
-0.046700000000000186,-23.993503645711023
-0.047700000000000076,-24.24815167968673
-0.04870000000000019,-24.64427084364894
-0.04970000000000008,-25.12527268560305
-0.05070000000000019,-25.648715866553115
-0.05170000000000008,-26.087276369511276
-0.05270000000000019,-26.38436574248293
-0.05370000000000008,-26.738043567449193
-0.05470000000000019,-27.049280053419505
-0.05570000000000008,-27.303928087395207
-0.056700000000000195,-27.530281895373616
-0.057700000000000085,-27.742488590353368
-0.058700000000000196,-28.13860775431558
-0.059700000000000086,-28.704492274261593
-0.0607000000000002,-29.22793545521166
-0.06170000000000009,-29.62405461917387
-0.0627000000000002,-29.921143992145527
-0.06370000000000009,-30.189939139119886
-0.0647000000000002,-30.529469851087494
-0.06570000000000009,-30.968030354045652
-0.0667000000000002,-31.36414951800786
-0.0677000000000001,-31.76026868197007
-0.0687000000000002,-32.14224073293363
-0.0697000000000001,-32.66568391388369
-0.07070000000000021,-33.10424441684186
-0.0717000000000001,-33.45792224180811
-0.07270000000000021,-33.712570275783825
-0.0737000000000001,-33.93892408376223
-0.07470000000000021,-34.33504324772444
-0.0757000000000001,-34.717015298688004
-0.07670000000000021,-35.07069312365426
-0.0777000000000001,-35.46681228761647
-0.07870000000000021,-35.806342999584075
-0.0797000000000001,-36.20246216354629
-0.08070000000000022,-36.64102266650445
-0.0817000000000001,-36.99470049147071
-0.08270000000000022,-37.249348525446415
-0.08370000000000011,-37.60302635041268
-0.08470000000000022,-37.94255706238028
-0.08570000000000011,-38.42355890433439
-0.08670000000000022,-38.86211940729255
-0.08770000000000011,-39.21579723225882
-0.08870000000000022,-39.56947505722508
-0.08970000000000011,-39.99388844718459
-0.09070000000000022,-40.34756627215084
-0.09170000000000011,-40.559772967130606
-0.09270000000000023,-40.743685436113054
-0.09370000000000012,-40.91345079209687
-0.09470000000000023,-41.22468727806717
-0.09570000000000012,-41.74813045901723
-0.09670000000000023,-42.229132300971344
-0.09770000000000012,-42.6111043519349
-0.09870000000000023,-42.92234083790521
-0.09970000000000012,-43.27601866287147
-0.10070000000000023,-43.657990713835034
-0.10170000000000012,-43.92678586080939
-0.10270000000000024,-44.223875233781044
-0.10370000000000013,-44.4926703807554
-0.10470000000000024,-44.88878954471762
-0.10570000000000013,-45.32735004767578
-0.10670000000000024,-45.666880759643384
-0.10770000000000013,-45.97811724561369
-0.10870000000000024,-46.27520661858535
-0.10970000000000013,-46.628884443551605
-0.11070000000000024,-46.982562268517874
-0.11170000000000013,-47.23721030249357
-0.11270000000000002,-47.506005449467935
-0.11370000000000013,-47.76065348344364
-0.11470000000000002,-48.114331308409895
-0.11570000000000014,-48.63777448935996
-0.11670000000000003,-49.03389365332217
-0.11770000000000014,-49.373424365289786
-0.11870000000000003,-49.642219512264134
-0.11970000000000014,-49.72710219025603
-0.12070000000000003,-49.85442620724389
-0.12170000000000014,-50.024191563227696
-0.12270000000000003,-50.42031072718991
-0.12370000000000014,-50.943753908139975
-0.12470000000000003,-51.509638428085985
-0.12570000000000014,-51.990640270040096
-0.12670000000000003,-52.30187675601041
-0.12770000000000015,-52.42920077299826
-0.12870000000000004,-52.69799591997262
-0.12970000000000015,-53.03752663194023
-0.13070000000000004,-53.433645795902436
-0.13170000000000015,-53.68829382987814
-0.13270000000000004,-53.872206298860604
-0.13370000000000015,-54.1268543328363
-0.13470000000000004,-54.52297349679851
-0.13570000000000015,-54.961533999756675
-0.13670000000000004,-55.400094502714836
-0.13770000000000016,-55.65474253669055
-0.13870000000000005,-55.838655005673
-0.13970000000000016,-56.093303039648696
-0.14070000000000005,-56.404539525619015
-0.14170000000000016,-56.70162889859067
-0.14270000000000005,-56.88554136757313
-0.14370000000000016,-57.097748062552874
-0.14470000000000005,-57.30995475753264
-0.14570000000000016,-57.62119124350295
-0.14670000000000005,-58.017310407465146
-0.14770000000000016,-58.39928245842871
-0.14870000000000005,-58.79540162239092
-0.14970000000000017,-59.10663810836124
-0.15070000000000006,-59.27640346434504
-0.15170000000000017,-59.27640346434504
-0.15270000000000006,-59.31884480334099
-0.15370000000000017,-59.502757272323436
-0.15470000000000006,-59.7998466452951
-0.15570000000000017,-60.23840714825326
-0.15670000000000006,-60.71940899020737
-0.15770000000000017,-60.974057024183075
-0.15870000000000006,-61.20041083216149
-0.15970000000000018,-61.20041083216149
-0.16070000000000007,-61.28529351015339
-0.16170000000000018,-61.5965299961237
-0.16270000000000007,-62.06338472507916
-0.16370000000000018,-62.544386567033264
-0.16470000000000007,-62.77074037501168
-0.16570000000000018,-62.855623053003576
-0.16670000000000007,-62.72829903601572
-0.16770000000000018,-62.68585769701977
-0.16870000000000007,-62.89806439199953
-0.16970000000000018,-63.3366248949577
-0.17070000000000007,-63.81762673691181
-0.17170000000000019,-64.25618723986996
-0.17270000000000008,-64.38351125685783
-0.1737000000000002,-64.42595259585376
-0.17470000000000008,-64.55327661284163
-0.1757000000000002,-64.86451309881193
-0.17670000000000008,-65.2464851497755
-0.1777000000000002,-65.5577216357458
-0.17870000000000008,-65.82651678272015
-0.1797000000000002,-66.08116481669586
-0.18070000000000008,-66.29337151167562
-0.1817000000000002,-66.43484264166212
-0.18270000000000008,-66.43484264166212
-0.1837000000000002,-66.56216665864997
-0.1847000000000001,-66.91584448361623
-0.1857000000000002,-67.2978165345798
-0.1867000000000001,-67.6090530205501
-0.1877000000000002,-67.86370105452582
-0.1887000000000001,-68.13249620150016
-0.1897000000000002,-68.48617402646643
-0.1907000000000001,-68.82570473843404
-0.1917000000000001,-69.05205854641244
-0.19269999999999998,-69.0944998854084
-0.1937000000000001,-69.05205854641244
-0.19469999999999998,-69.13694122440434
-0.1957000000000001,-69.39158925838004
-0.19669999999999999,-69.6603844053544
-0.1977000000000001,-69.8301497613382
-0.1987,-69.95747377832606
-0.1997000000000001,-70.18382758630447
-0.2007,-70.43847562028017
-0.2017000000000001,-70.74971210625048
-0.2027,-71.0043601402262
-0.2037000000000001,-71.18827260920865
-0.2047,-71.31559662619651
-0.2057000000000001,-71.48536198218031
-0.2067,-72.00880516313036
-0.2077000000000001,-72.57468968307639
-0.2087,-73.01325018603454
-0.2097000000000001,-73.32448667200485
-0.2107,-73.40936934999675
-0.2117000000000001,-73.45181068899271
-0.2127,-73.53669336698461
-0.2137000000000001,-73.72060583596706
-0.2147,-74.10257788693062
-0.2157000000000001,-74.54113838988879
-0.2167,-74.93725755385098
-0.21770000000000012,-75.2484940398213
-0.2187,-75.71534876877676
-0.21970000000000012,-76.29538040172143
-0.2207,-76.5924697746931
-0.22170000000000012,-76.5924697746931
-0.2227,-76.29538040172143
-0.22370000000000012,-75.94170257675518
-0.2247,-75.8992612377592
-0.22570000000000012,-76.11146793273898
-0.2267,-76.5924697746931
-0.22770000000000012,-77.20079563363505
-0.22870000000000001,-77.76668015358106
-0.22970000000000013,-78.20524065653922
-0.23070000000000002,-78.43159446451764
-0.23170000000000013,-78.43159446451764
-0.23270000000000002,-78.29012333453113
-0.23370000000000013,-78.03547530055542
-0.23470000000000002,-77.99303396155948
-0.23570000000000013,-78.16279931754329
-0.23670000000000002,-78.60135982050144
-0.2376999999999999,-79.08236166245555
-0.23870000000000002,-79.52092216541372
-0.2396999999999999,-79.90289421637728
-0.24070000000000003,-80.08680668535972
-0.24169999999999991,-80.17168936335163
-0.24270000000000003,-80.12924802435568
-0.24369999999999992,-80.04436534636378
-0.24470000000000003,-80.17168936335163
-0.24569999999999992,-80.34145471933543
-0.24670000000000003,-80.65269120530574
-0.24769999999999992,-81.04881036926795
-0.24870000000000003,-81.3458997422396
-0.24969999999999992,-81.61469488921396
-0.25070000000000003,-81.82690158419373
-0.2516999999999999,-81.91178426218562
-0.25270000000000004,-81.95422560118158
-0.2536999999999999,-81.99666694017753
-0.25470000000000004,-82.18057940915998
-0.2556999999999999,-82.56255146012353
-0.25670000000000004,-83.0011119630817
-0.25769999999999993,-83.43967246603985
-0.25870000000000004,-83.70846761301424
-0.25969999999999993,-83.92067430799398
-0.26070000000000004,-84.09043966397778
-0.26169999999999993,-84.18946945496833
-0.26270000000000004,-84.35923481095215
-0.26369999999999993,-84.61388284492786
-0.26470000000000005,-85.01000200889004
-0.26569999999999994,-85.36367983385631
-0.26670000000000005,-85.49100385084417
-0.26769999999999994,-85.53344518984011
-0.26870000000000005,-85.44856251184822
-0.26969999999999994,-85.44856251184822
-0.27070000000000005,-85.57588652883607
-0.27169999999999994,-85.70321054582392
-0.27270000000000005,-85.80224033681448
-0.27369999999999994,-86.05688837079018
-0.27470000000000006,-86.45300753475239
-0.27569999999999995,-86.89156803771054
-0.27670000000000006,-87.14621607168625
-0.27769999999999995,-87.33012854066871
-0.27870000000000006,-87.41501121866061
-0.27969999999999995,-87.49989389665252
-0.28070000000000006,-87.66965925263632
-0.28169999999999995,-87.75454193062824
-0.28270000000000006,-87.89601306061473
-0.28369999999999995,-88.06577841659853
-0.28470000000000006,-88.27798511157829
-0.28569999999999995,-88.63166293654454
-0.28670000000000007,-88.80142829252836
-0.28769999999999996,-88.8438696315243
-0.28870000000000007,-88.8438696315243
-0.28969999999999996,-88.9004580835189
-0.29070000000000007,-89.15510611749461
-0.29169999999999996,-89.42390126446898
-0.29270000000000007,-89.59366662045278
-0.29369999999999996,-89.80587331543254
-0.2947000000000001,-90.03222712341093
-0.29569999999999996,-90.24443381839069
-0.2967000000000001,-90.41419917437449
-0.29769999999999996,-90.37175783537855
-0.2987000000000001,-90.37175783537855
-0.29969999999999997,-90.41419917437449
-0.3007000000000001,-90.55567030436099
-0.30169999999999997,-90.81031833833671
-0.3027000000000001,-91.03667214631511
-0.30369999999999997,-91.29132018029082
-0.3047000000000001,-91.56011532726518
-0.30569999999999997,-91.72988068324898
-0.3067000000000001,-91.85720470023682
-0.3077,-91.85720470023682
-0.3087000000000001,-91.81476336124088
-0.3097,-91.89964603923279
-0.3107000000000001,-92.04111716921928
-0.3117,-92.25332386419905
-0.3127000000000001,-92.4655305591788
-0.3137,-92.6918843671572
-0.3147000000000001,-92.81920838414506
-0.3157,-92.86164972314101
-0.3167000000000001,-92.86164972314101
-0.3177,-92.73432570615316
-0.3187000000000001,-92.6918843671572
-0.3197,-92.73432570615316
-0.3207000000000001,-92.90409106213696
-0.3217,-93.30021022609918
-0.3227000000000001,-93.55485826007487
-0.3237,-93.90853608504113
-0.3247000000000001,-94.17733123201549
-0.3257,-94.26221391000739
-0.3267000000000001,-94.21977257101145
-0.3277,-93.95097742403709
-0.3287000000000001,-93.82365340704924
-0.3297,-93.90853608504113
-0.3307000000000001,-93.95097742403709
-0.3317,-94.03586010202899
-0.3327000000000001,-94.17733123201549
-0.3337,-94.5168619439831
-0.3347000000000001,-94.87053976894937
-0.3357,-94.8280984299534
-0.3367000000000001,-94.601744621975
-0.3377,-94.17733123201549
-0.3387000000000001,-93.90853608504113
-0.3397,-93.99341876303303
-0.3407000000000001,-94.30465524900335
-0.3417,-94.6583330739696
-0.3427000000000001,-94.78565709095746
-0.3437,-94.78565709095746
-0.3447000000000001,-95.08274646392913
-0.3457,-95.52130696688728
-0.3467000000000001,-95.79010211386164
-0.3477,-95.91742613084948
-0.3487000000000001,-95.87498479185354
-0.3497,-95.69107232287108
-0.3507000000000001,-95.35154161090348
-0.3517,-94.99786378593721
-0.3527000000000001,-94.78565709095746
-0.3537,-94.78565709095746
-0.3547000000000001,-94.95542244694126
-0.3557,-94.99786378593721
-0.35670000000000013,-94.95542244694126
-0.3577,-94.8280984299534
-0.35870000000000013,-94.8280984299534
-0.3597,-94.91298110794531
-0.36070000000000013,-94.99786378593721
-0.3617,-95.22421759391563
-0.3626999999999999,-95.43642428889537
-0.3637,-95.69107232287108
-0.3646999999999999,-95.91742613084948
-0.3657,-95.79010211386164
-0.3666999999999999,-95.52130696688728
-0.3677,-95.18177625491967
-0.3686999999999999,-94.7432157519615
-0.36970000000000003,-94.6583330739696
-0.3706999999999999,-94.70077441296557
-0.37170000000000003,-94.87053976894937
-0.3726999999999999,-95.08274646392913
-0.37370000000000003,-95.30910027190752
-0.3746999999999999,-95.47886562789132
-0.37570000000000003,-95.43642428889537
-0.3766999999999999,-95.18177625491967
-0.37770000000000004,-94.91298110794531
-0.3786999999999999,-94.87053976894937
-0.37970000000000004,-95.22421759391563
-0.3806999999999999,-95.52130696688728
-0.38170000000000004,-95.47886562789132
-0.38269999999999993,-95.04030512493317
-0.38370000000000004,-94.5168619439831
-0.38469999999999993,-94.30465524900335
-0.38570000000000004,-94.4319792659912
-0.38669999999999993,-94.8280984299534
-0.38770000000000004,-95.08274646392913
-0.38869999999999993,-95.22421759391563
-0.38970000000000005,-95.35154161090348
-0.39069999999999994,-95.35154161090348
-0.39170000000000005,-95.30910027190752
-0.39269999999999994,-95.18177625491967
-0.39370000000000005,-95.08274646392913
-0.39469999999999994,-95.12518780292505
-0.39570000000000005,-95.08274646392913
-0.39669999999999994,-94.95542244694126
-0.39770000000000005,-94.87053976894937
-0.39869999999999994,-95.04030512493317
-0.39970000000000006,-95.39398294989942
-0.40069999999999995,-95.60618964487918
-0.40170000000000006,-95.47886562789132
-0.40269999999999995,-95.26665893291157
-0.40370000000000006,-94.95542244694126
-0.40469999999999995,-94.95542244694126
-0.40570000000000006,-95.12518780292505
-0.40669999999999995,-95.22421759391563
-0.40770000000000006,-95.26665893291157
-0.40869999999999995,-95.35154161090348
-0.40970000000000006,-95.60618964487918
-0.41069999999999995,-95.95986746984543
-0.41170000000000007,-96.00230880884139
-0.41269999999999996,-96.04475014783733
-0.41370000000000007,-96.04475014783733
-0.41469999999999996,-96.04475014783733
-0.41570000000000007,-96.00230880884139
-0.41669999999999996,-95.79010211386164
-0.41770000000000007,-95.47886562789132
-0.41869999999999996,-95.22421759391563
-0.4197000000000001,-95.22421759391563
-0.42069999999999996,-95.43642428889537
-0.4217000000000001,-95.74766077486568
-0.42269999999999996,-95.87498479185354
-0.4237000000000001,-95.79010211386164
-0.42469999999999997,-95.60618964487918
-0.4257000000000001,-95.60618964487918
-0.42669999999999997,-95.79010211386164
-0.4277000000000001,-96.12963282582925
-0.42869999999999997,-96.35598663380765
-0.4297000000000001,-96.83698847576176
-0.43069999999999997,-97.36043165671182
-0.4317000000000001,-97.6575210296835
-0.4327,-97.78484504667132
-0.4337000000000001,-97.6575210296835
-0.4347,-97.40287299570777
-0.4357000000000001,-97.36043165671182
-0.4367,-97.74240370767538
-0.4377000000000001,-98.49220069660386
-0.4387,-99.18540923353773
-0.4397000000000001,-99.45420438051207
-0.4407,-99.35517458952152
-0.4417000000000001,-98.93076119956201
-0.4427,-98.7892900695755
-0.4437000000000001,-98.83173140857146
-0.4447,-99.01564387755391
-0.4457000000000001,-99.27029191152963
-0.4467,-99.45420438051207
-0.4477000000000001,-99.58152839749994
-0.4487,-99.70885241448778
-0.4497000000000001,-100.02008890045809
-0.4507,-100.31717827342976
-0.4517000000000001,-100.5010907424122
-0.4527,-100.71329743739196
-0.4537000000000001,-100.98209258436633
-0.4547,-101.3640646353299
-0.4557000000000001,-101.6753011213002
-0.4567,-101.71774246029614
-0.4577000000000001,-101.71774246029614
-0.4587,-101.97239049427183
-0.4597000000000001,-102.36850965823406
-0.4607,-102.89195283918411
-0.4617000000000001,-103.28807200314633
-0.4627,-103.59930848911664
-0.4637000000000001,-103.64174982811258
-0.4647,-103.68419116710854
-0.4657000000000001,-103.64174982811258
-0.4667,-103.59930848911664
-0.4677000000000001,-103.93883920108425
-0.4687,-104.33495836504645
-0.4697000000000001,-104.73107752900866
-0.4707,-105.02816690198033
-0.4717000000000001,-105.16963803196683
-0.4727,-105.46672740493848
-0.4737000000000001,-105.99017058588855
-0.4747,-106.73996757481702
-0.4757000000000001,-107.68782414572658
-0.4767,-108.2537086656726
-0.4777000000000001,-108.39517979565912
-0.4787,-108.21126732667666
-0.4797000000000001,-108.0839433096888
-0.4807,-108.56494515164292
-0.48170000000000013,-109.35718347956733
-0.4827,-110.34748138947285
-0.48370000000000013,-111.35192641237703
-0.4847,-112.27148875728932
-0.48570000000000013,-112.96469729422319
-0.4867,-112.18660607929739
-0.48570000000000013,-109.52694883555114
-0.4847,-107.4331761117509
-0.48370000000000013,-106.0326119248845
-0.4827,-105.07060824097626
-0.48170000000000013,-103.98128054008019
-0.4807,-102.59486346621246
-0.4797000000000001,-100.84062145437981
-0.4787,-99.05808521654988
-0.4777000000000001,-97.61507969068752
-0.4767,-96.44086931179956
-0.4757000000000001,-95.52130696688728
-0.4747,-94.87053976894937
-0.4737000000000001,-94.13488989301955
-0.4727,-93.25776888710321
-0.4717000000000001,-92.2108825252031
-0.4707,-91.03667214631511
-0.4697000000000001,-90.03222712341093
-0.4687,-89.11266477849867
-0.4677000000000001,-88.46189758056073
-0.4667,-87.93845439961068
-0.4657000000000001,-87.33012854066871
-0.4647,-86.66521422973216
-0.4637000000000001,-85.80224033681448
-0.4627,-84.75535397491434
-0.4617000000000001,-83.66602627401826
-0.4607,-82.52011012112759
