Apr. 24, 2025   06:43:29
Cyclic Voltammetry
File: c:/users/guazh/data/banditlqround7_x0exp590_r20/2025-04-16-exp1173\exp1173-2025-04-24t06_34_58-arkoh\exp1173_cv_50mvs_efin_-1500mv.bin
Data Source:  Experiment
Instrument Model:  CHI760E
Header: CV ran at 50 mVs
Note: 

Init E (V) = -1
High E (V) = -1
Low E (V) = -1.5
Final E (V) = -1
Init P/N = N
Scan Rate (V/s) = 0.05
Segment = 7
Sample Interval (V) = 0.001
Quiet Time (sec) = 60
Sensitivity (A/V) = 0.001
Comp R (ohm) = 3.1

Results:

Channel 1:
Segment 1:

Segment 2:

Segment 3:

Segment 4:

Segment 5:

Segment 6:

Segment 7:

Potential/V, Current/A

-1.000, 3.978e-6
-1.001, 5.036e-6
-1.002, 5.540e-6
-1.003, 5.709e-6
-1.004, 5.775e-6
-1.005, 6.026e-6
-1.006, 6.214e-6
-1.007, 6.437e-6
-1.008, 6.453e-6
-1.009, 6.391e-6
-1.010, 6.524e-6
-1.011, 6.648e-6
-1.012, 6.828e-6
-1.013, 6.767e-6
-1.014, 6.710e-6
-1.015, 6.819e-6
-1.016, 6.876e-6
-1.017, 7.031e-6
-1.018, 6.987e-6
-1.019, 6.903e-6
-1.020, 6.941e-6
-1.021, 7.102e-6
-1.022, 7.180e-6
-1.023, 7.128e-6
-1.024, 7.053e-6
-1.025, 7.057e-6
-1.026, 7.276e-6
-1.027, 7.358e-6
-1.028, 7.335e-6
-1.029, 7.185e-6
-1.030, 7.265e-6
-1.031, 7.394e-6
-1.032, 7.459e-6
-1.033, 7.447e-6
-1.034, 7.351e-6
-1.035, 7.374e-6
-1.036, 7.491e-6
-1.037, 7.647e-6
-1.038, 7.608e-6
-1.039, 7.512e-6
-1.040, 7.526e-6
-1.041, 7.658e-6
-1.042, 7.818e-6
-1.043, 7.691e-6
-1.044, 7.634e-6
-1.045, 7.683e-6
-1.046, 7.807e-6
-1.047, 7.943e-6
-1.048, 7.875e-6
-1.049, 7.764e-6
-1.050, 7.810e-6
-1.051, 7.969e-6
-1.052, 8.083e-6
-1.053, 8.081e-6
-1.054, 7.987e-6
-1.055, 7.993e-6
-1.056, 8.158e-6
-1.057, 8.226e-6
-1.058, 8.228e-6
-1.059, 8.128e-6
-1.060, 8.203e-6
-1.061, 8.332e-6
-1.062, 8.378e-6
-1.063, 8.436e-6
-1.064, 8.301e-6
-1.065, 8.376e-6
-1.066, 8.539e-6
-1.067, 8.589e-6
-1.068, 8.580e-6
-1.069, 8.540e-6
-1.070, 8.573e-6
-1.071, 8.750e-6
-1.072, 8.810e-6
-1.073, 8.780e-6
-1.074, 8.748e-6
-1.075, 8.776e-6
-1.076, 8.948e-6
-1.077, 9.077e-6
-1.078, 8.964e-6
-1.079, 8.951e-6
-1.080, 8.999e-6
-1.081, 9.150e-6
-1.082, 9.297e-6
-1.083, 9.174e-6
-1.084, 9.186e-6
-1.085, 9.243e-6
-1.086, 9.392e-6
-1.087, 9.509e-6
-1.088, 9.441e-6
-1.089, 9.404e-6
-1.090, 9.504e-6
-1.091, 9.629e-6
-1.092, 9.738e-6
-1.093, 9.766e-6
-1.094, 9.658e-6
-1.095, 9.736e-6
-1.096, 9.857e-6
-1.097, 9.990e-6
-1.098, 9.996e-6
-1.099, 9.905e-6
-1.100, 9.995e-6
-1.101, 1.019e-5
-1.102, 1.031e-5
-1.103, 1.025e-5
-1.104, 1.020e-5
-1.105, 1.027e-5
-1.106, 1.046e-5
-1.107, 1.056e-5
-1.108, 1.057e-5
-1.109, 1.046e-5
-1.110, 1.051e-5
-1.111, 1.071e-5
-1.112, 1.086e-5
-1.113, 1.079e-5
-1.114, 1.077e-5
-1.115, 1.084e-5
-1.116, 1.103e-5
-1.117, 1.118e-5
-1.118, 1.110e-5
-1.119, 1.109e-5
-1.120, 1.113e-5
-1.121, 1.132e-5
-1.122, 1.147e-5
-1.123, 1.137e-5
-1.124, 1.136e-5
-1.125, 1.145e-5
-1.126, 1.163e-5
-1.127, 1.173e-5
-1.128, 1.170e-5
-1.129, 1.163e-5
-1.130, 1.177e-5
-1.131, 1.194e-5
-1.132, 1.205e-5
-1.133, 1.200e-5
-1.134, 1.197e-5
-1.135, 1.206e-5
-1.136, 1.221e-5
-1.137, 1.233e-5
-1.138, 1.229e-5
-1.139, 1.227e-5
-1.140, 1.236e-5
-1.141, 1.256e-5
-1.142, 1.268e-5
-1.143, 1.264e-5
-1.144, 1.259e-5
-1.145, 1.268e-5
-1.146, 1.290e-5
-1.147, 1.297e-5
-1.148, 1.294e-5
-1.149, 1.288e-5
-1.150, 1.300e-5
-1.151, 1.322e-5
-1.152, 1.331e-5
-1.153, 1.328e-5
-1.154, 1.327e-5
-1.155, 1.331e-5
-1.156, 1.355e-5
-1.157, 1.368e-5
-1.158, 1.358e-5
-1.159, 1.360e-5
-1.160, 1.364e-5
-1.161, 1.384e-5
-1.162, 1.404e-5
-1.163, 1.392e-5
-1.164, 1.388e-5
-1.165, 1.399e-5
-1.166, 1.417e-5
-1.167, 1.433e-5
-1.168, 1.426e-5
-1.169, 1.424e-5
-1.170, 1.435e-5
-1.171, 1.449e-5
-1.172, 1.467e-5
-1.173, 1.459e-5
-1.174, 1.454e-5
-1.175, 1.467e-5
-1.176, 1.482e-5
-1.177, 1.500e-5
-1.178, 1.497e-5
-1.179, 1.489e-5
-1.180, 1.502e-5
-1.181, 1.517e-5
-1.182, 1.535e-5
-1.183, 1.531e-5
-1.184, 1.524e-5
-1.185, 1.534e-5
-1.186, 1.553e-5
-1.187, 1.565e-5
-1.188, 1.563e-5
-1.189, 1.559e-5
-1.190, 1.569e-5
-1.191, 1.593e-5
-1.192, 1.601e-5
-1.193, 1.597e-5
-1.194, 1.599e-5
-1.195, 1.601e-5
-1.196, 1.630e-5
-1.197, 1.635e-5
-1.198, 1.632e-5
-1.199, 1.635e-5
-1.200, 1.646e-5
-1.201, 1.659e-5
-1.202, 1.675e-5
-1.203, 1.672e-5
-1.204, 1.671e-5
-1.205, 1.684e-5
-1.206, 1.702e-5
-1.207, 1.717e-5
-1.208, 1.708e-5
-1.209, 1.706e-5
-1.210, 1.730e-5
-1.211, 1.738e-5
-1.212, 1.755e-5
-1.213, 1.751e-5
-1.214, 1.751e-5
-1.215, 1.766e-5
-1.216, 1.778e-5
-1.217, 1.798e-5
-1.218, 1.796e-5
-1.219, 1.792e-5
-1.220, 1.805e-5
-1.221, 1.830e-5
-1.222, 1.842e-5
-1.223, 1.841e-5
-1.224, 1.835e-5
-1.225, 1.852e-5
-1.226, 1.882e-5
-1.227, 1.898e-5
-1.228, 1.893e-5
-1.229, 1.898e-5
-1.230, 1.907e-5
-1.231, 1.936e-5
-1.232, 1.947e-5
-1.233, 1.944e-5
-1.234, 1.951e-5
-1.235, 1.960e-5
-1.236, 1.988e-5
-1.237, 2.005e-5
-1.238, 2.003e-5
-1.239, 2.010e-5
-1.240, 2.030e-5
-1.241, 2.050e-5
-1.242, 2.071e-5
-1.243, 2.071e-5
-1.244, 2.073e-5
-1.245, 2.091e-5
-1.246, 2.117e-5
-1.247, 2.139e-5
-1.248, 2.136e-5
-1.249, 2.146e-5
-1.250, 2.166e-5
-1.251, 2.192e-5
-1.252, 2.215e-5
-1.253, 2.217e-5
-1.254, 2.227e-5
-1.255, 2.251e-5
-1.256, 2.275e-5
-1.257, 2.299e-5
-1.258, 2.304e-5
-1.259, 2.313e-5
-1.260, 2.345e-5
-1.261, 2.373e-5
-1.262, 2.391e-5
-1.263, 2.403e-5
-1.264, 2.416e-5
-1.265, 2.446e-5
-1.266, 2.478e-5
-1.267, 2.496e-5
-1.268, 2.510e-5
-1.269, 2.528e-5
-1.270, 2.553e-5
-1.271, 2.597e-5
-1.272, 2.615e-5
-1.273, 2.628e-5
-1.274, 2.658e-5
-1.275, 2.683e-5
-1.276, 2.724e-5
-1.277, 2.756e-5
-1.278, 2.773e-5
-1.279, 2.787e-5
-1.280, 2.829e-5
-1.281, 2.874e-5
-1.282, 2.903e-5
-1.283, 2.924e-5
-1.284, 2.946e-5
-1.285, 2.986e-5
-1.286, 3.030e-5
-1.287, 3.075e-5
-1.288, 3.092e-5
-1.289, 3.127e-5
-1.290, 3.171e-5
-1.291, 3.219e-5
-1.292, 3.259e-5
-1.293, 3.292e-5
-1.294, 3.321e-5
-1.295, 3.376e-5
-1.296, 3.428e-5
-1.297, 3.474e-5
-1.298, 3.509e-5
-1.299, 3.544e-5
-1.300, 3.603e-5
-1.301, 3.663e-5
-1.302, 3.716e-5
-1.303, 3.755e-5
-1.304, 3.794e-5
-1.305, 3.854e-5
-1.306, 3.929e-5
-1.307, 3.987e-5
-1.308, 4.031e-5
-1.309, 4.081e-5
-1.310, 4.150e-5
-1.311, 4.225e-5
-1.312, 4.288e-5
-1.313, 4.343e-5
-1.314, 4.404e-5
-1.315, 4.475e-5
-1.316, 4.560e-5
-1.317, 4.635e-5
-1.318, 4.694e-5
-1.319, 4.764e-5
-1.320, 4.849e-5
-1.321, 4.946e-5
-1.322, 5.029e-5
-1.323, 5.098e-5
-1.324, 5.177e-5
-1.325, 5.270e-5
-1.326, 5.373e-5
-1.327, 5.467e-5
-1.328, 5.546e-5
-1.329, 5.635e-5
-1.330, 5.741e-5
-1.331, 5.862e-5
-1.332, 5.966e-5
-1.333, 6.061e-5
-1.334, 6.165e-5
-1.335, 6.288e-5
-1.336, 6.410e-5
-1.337, 6.524e-5
-1.338, 6.640e-5
-1.339, 6.757e-5
-1.340, 6.897e-5
-1.341, 7.037e-5
-1.342, 7.170e-5
-1.343, 7.299e-5
-1.344, 7.432e-5
-1.345, 7.579e-5
-1.346, 7.743e-5
-1.347, 7.887e-5
-1.348, 8.038e-5
-1.349, 8.178e-5
-1.350, 8.345e-5
-1.351, 8.528e-5
-1.352, 8.686e-5
-1.353, 8.848e-5
-1.354, 9.010e-5
-1.355, 9.193e-5
-1.356, 9.386e-5
-1.357, 9.569e-5
-1.358, 9.737e-5
-1.359, 9.922e-5
-1.360, 1.012e-4
-1.361, 1.033e-4
-1.362, 1.053e-4
-1.363, 1.072e-4
-1.364, 1.092e-4
-1.365, 1.114e-4
-1.366, 1.137e-4
-1.367, 1.158e-4
-1.368, 1.179e-4
-1.369, 1.201e-4
-1.370, 1.225e-4
-1.371, 1.250e-4
-1.372, 1.274e-4
-1.373, 1.298e-4
-1.374, 1.322e-4
-1.375, 1.348e-4
-1.376, 1.375e-4
-1.377, 1.401e-4
-1.378, 1.427e-4
-1.379, 1.453e-4
-1.380, 1.483e-4
-1.381, 1.512e-4
-1.382, 1.542e-4
-1.383, 1.571e-4
-1.384, 1.599e-4
-1.385, 1.631e-4
-1.386, 1.664e-4
-1.387, 1.695e-4
-1.388, 1.727e-4
-1.389, 1.759e-4
-1.390, 1.793e-4
-1.391, 1.828e-4
-1.392, 1.862e-4
-1.393, 1.896e-4
-1.394, 1.931e-4
-1.395, 1.968e-4
-1.396, 2.006e-4
-1.397, 2.044e-4
-1.398, 2.081e-4
-1.399, 2.119e-4
-1.400, 2.159e-4
-1.401, 2.200e-4
-1.402, 2.242e-4
-1.403, 2.281e-4
-1.404, 2.323e-4
-1.405, 2.366e-4
-1.406, 2.410e-4
-1.407, 2.454e-4
-1.408, 2.498e-4
-1.409, 2.542e-4
-1.410, 2.589e-4
-1.411, 2.637e-4
-1.412, 2.684e-4
-1.413, 2.730e-4
-1.414, 2.779e-4
-1.415, 2.830e-4
-1.416, 2.880e-4
-1.417, 2.931e-4
-1.418, 2.983e-4
-1.419, 3.034e-4
-1.420, 3.088e-4
-1.421, 3.143e-4
-1.422, 3.199e-4
-1.423, 3.253e-4
-1.424, 3.308e-4
-1.425, 3.366e-4
-1.426, 3.427e-4
-1.427, 3.485e-4
-1.428, 3.544e-4
-1.429, 3.603e-4
-1.430, 3.666e-4
-1.431, 3.730e-4
-1.432, 3.793e-4
-1.433, 3.857e-4
-1.434, 3.921e-4
-1.435, 3.988e-4
-1.436, 4.057e-4
-1.437, 4.124e-4
-1.438, 4.194e-4
-1.439, 4.264e-4
-1.440, 4.332e-4
-1.441, 4.404e-4
-1.442, 4.478e-4
-1.443, 4.550e-4
-1.444, 4.624e-4
-1.445, 4.699e-4
-1.446, 4.779e-4
-1.447, 4.858e-4
-1.448, 4.935e-4
-1.449, 5.014e-4
-1.450, 5.096e-4
-1.451, 5.180e-4
-1.452, 5.263e-4
-1.453, 5.346e-4
-1.454, 5.431e-4
-1.455, 5.520e-4
-1.456, 5.609e-4
-1.457, 5.698e-4
-1.458, 5.789e-4
-1.459, 5.879e-4
-1.460, 5.972e-4
-1.461, 6.065e-4
-1.462, 6.161e-4
-1.463, 6.256e-4
-1.464, 6.353e-4
-1.465, 6.454e-4
-1.466, 6.559e-4
-1.467, 6.657e-4
-1.468, 6.758e-4
-1.469, 6.865e-4
-1.470, 6.972e-4
-1.471, 7.078e-4
-1.472, 7.189e-4
-1.473, 7.299e-4
-1.474, 7.409e-4
-1.475, 7.520e-4
-1.476, 7.636e-4
-1.477, 7.754e-4
-1.478, 7.868e-4
-1.479, 7.987e-4
-1.480, 8.109e-4
-1.481, 8.232e-4
-1.482, 8.358e-4
-1.483, 8.481e-4
-1.484, 8.609e-4
-1.485, 8.740e-4
-1.486, 8.870e-4
-1.487, 8.998e-4
-1.488, 9.135e-4
-1.489, 9.273e-4
-1.490, 9.408e-4
-1.491, 9.548e-4
-1.492, 9.694e-4
-1.493, 9.839e-4
-1.494, 9.981e-4
-1.495, 1.012e-3
-1.496, 1.027e-3
-1.497, 1.042e-3
-1.498, 1.057e-3
-1.499, 1.072e-3
-1.500, 1.070e-3
-1.499, 1.052e-3
-1.498, 1.034e-3
-1.497, 1.016e-3
-1.496, 9.991e-4
-1.495, 9.819e-4
-1.494, 9.652e-4
-1.493, 9.494e-4
-1.492, 9.330e-4
-1.491, 9.173e-4
-1.490, 9.015e-4
-1.489, 8.862e-4
-1.488, 8.715e-4
-1.487, 8.564e-4
-1.486, 8.418e-4
-1.485, 8.276e-4
-1.484, 8.134e-4
-1.483, 7.996e-4
-1.482, 7.860e-4
-1.481, 7.723e-4
-1.480, 7.593e-4
-1.479, 7.466e-4
-1.478, 7.327e-4
-1.477, 7.030e-4
-1.476, 6.946e-4
-1.475, 6.835e-4
-1.474, 6.725e-4
-1.473, 6.615e-4
-1.472, 6.504e-4
-1.471, 6.392e-4
-1.470, 6.287e-4
-1.469, 6.175e-4
-1.468, 6.058e-4
-1.467, 5.957e-4
-1.466, 5.857e-4
-1.465, 5.757e-4
-1.464, 5.660e-4
-1.463, 5.566e-4
-1.462, 5.470e-4
-1.461, 5.375e-4
-1.460, 5.282e-4
-1.459, 5.193e-4
-1.458, 5.104e-4
-1.457, 5.015e-4
-1.456, 4.929e-4
-1.455, 4.844e-4
-1.454, 4.762e-4
-1.453, 4.680e-4
-1.452, 4.597e-4
-1.451, 4.516e-4
-1.450, 4.440e-4
-1.449, 4.364e-4
-1.448, 4.289e-4
-1.447, 4.214e-4
-1.446, 4.141e-4
-1.445, 4.069e-4
-1.444, 3.998e-4
-1.443, 3.929e-4
-1.442, 3.859e-4
-1.441, 3.791e-4
-1.440, 3.726e-4
-1.439, 3.662e-4
-1.438, 3.598e-4
-1.437, 3.533e-4
-1.436, 3.471e-4
-1.435, 3.412e-4
-1.434, 3.352e-4
-1.433, 3.292e-4
-1.432, 3.232e-4
-1.431, 3.175e-4
-1.430, 3.120e-4
-1.429, 3.066e-4
-1.428, 3.010e-4
-1.427, 2.956e-4
-1.426, 2.902e-4
-1.425, 2.851e-4
-1.424, 2.802e-4
-1.423, 2.750e-4
-1.422, 2.700e-4
-1.421, 2.651e-4
-1.420, 2.604e-4
-1.419, 2.558e-4
-1.418, 2.511e-4
-1.417, 2.464e-4
-1.416, 2.419e-4
-1.415, 2.376e-4
-1.414, 2.332e-4
-1.413, 2.291e-4
-1.412, 2.247e-4
-1.411, 2.206e-4
-1.410, 2.165e-4
-1.409, 2.126e-4
-1.408, 2.088e-4
-1.407, 2.047e-4
-1.406, 2.008e-4
-1.405, 1.972e-4
-1.404, 1.936e-4
-1.403, 1.900e-4
-1.402, 1.864e-4
-1.401, 1.828e-4
-1.400, 1.796e-4
-1.399, 1.762e-4
-1.398, 1.728e-4
-1.397, 1.695e-4
-1.396, 1.662e-4
-1.395, 1.631e-4
-1.394, 1.601e-4
-1.393, 1.570e-4
-1.392, 1.539e-4
-1.391, 1.509e-4
-1.390, 1.481e-4
-1.389, 1.454e-4
-1.388, 1.425e-4
-1.387, 1.396e-4
-1.386, 1.369e-4
-1.385, 1.343e-4
-1.384, 1.318e-4
-1.383, 1.292e-4
-1.382, 1.265e-4
-1.381, 1.240e-4
-1.380, 1.217e-4
-1.379, 1.194e-4
-1.378, 1.170e-4
-1.377, 1.146e-4
-1.376, 1.123e-4
-1.375, 1.101e-4
-1.374, 1.080e-4
-1.373, 1.058e-4
-1.372, 1.036e-4
-1.371, 1.014e-4
-1.370, 9.954e-5
-1.369, 9.752e-5
-1.368, 9.554e-5
-1.367, 9.346e-5
-1.366, 9.150e-5
-1.365, 8.969e-5
-1.364, 8.792e-5
-1.363, 8.603e-5
-1.362, 8.414e-5
-1.361, 8.236e-5
-1.360, 8.076e-5
-1.359, 7.910e-5
-1.358, 7.738e-5
-1.357, 7.560e-5
-1.356, 7.404e-5
-1.355, 7.246e-5
-1.354, 7.104e-5
-1.353, 6.946e-5
-1.352, 6.782e-5
-1.351, 6.636e-5
-1.350, 6.498e-5
-1.349, 6.371e-5
-1.348, 6.221e-5
-1.347, 6.073e-5
-1.346, 5.940e-5
-1.345, 5.815e-5
-1.344, 5.694e-5
-1.343, 5.558e-5
-1.342, 5.421e-5
-1.341, 5.309e-5
-1.340, 5.195e-5
-1.339, 5.081e-5
-1.338, 4.962e-5
-1.337, 4.834e-5
-1.336, 4.725e-5
-1.335, 4.623e-5
-1.334, 4.521e-5
-1.333, 4.417e-5
-1.332, 4.302e-5
-1.331, 4.197e-5
-1.330, 4.105e-5
-1.329, 4.018e-5
-1.328, 3.919e-5
-1.327, 3.807e-5
-1.326, 3.714e-5
-1.325, 3.638e-5
-1.324, 3.555e-5
-1.323, 3.462e-5
-1.322, 3.367e-5
-1.321, 3.283e-5
-1.320, 3.213e-5
-1.319, 3.144e-5
-1.318, 3.050e-5
-1.317, 2.967e-5
-1.316, 2.891e-5
-1.315, 2.822e-5
-1.314, 2.761e-5
-1.313, 2.680e-5
-1.312, 2.602e-5
-1.311, 2.535e-5
-1.310, 2.475e-5
-1.309, 2.419e-5
-1.308, 2.350e-5
-1.307, 2.277e-5
-1.306, 2.215e-5
-1.305, 2.162e-5
-1.304, 2.111e-5
-1.303, 2.045e-5
-1.302, 1.980e-5
-1.301, 1.926e-5
-1.300, 1.876e-5
-1.299, 1.833e-5
-1.298, 1.777e-5
-1.297, 1.709e-5
-1.296, 1.662e-5
-1.295, 1.626e-5
-1.294, 1.584e-5
-1.293, 1.530e-5
-1.292, 1.478e-5
-1.291, 1.433e-5
-1.290, 1.395e-5
-1.289, 1.357e-5
-1.288, 1.312e-5
-1.287, 1.256e-5
-1.286, 1.220e-5
-1.285, 1.192e-5
-1.284, 1.158e-5
-1.283, 1.115e-5
-1.282, 1.070e-5
-1.281, 1.032e-5
-1.280, 1.004e-5
-1.279, 9.845e-6
-1.278, 9.344e-6
-1.277, 8.991e-6
-1.276, 8.694e-6
-1.275, 8.393e-6
-1.274, 8.221e-6
-1.273, 7.758e-6
-1.272, 7.449e-6
-1.271, 7.165e-6
-1.270, 6.924e-6
-1.269, 6.753e-6
-1.268, 6.457e-6
-1.267, 6.021e-6
-1.266, 5.780e-6
-1.265, 5.628e-6
-1.264, 5.491e-6
-1.263, 5.200e-6
-1.262, 4.803e-6
-1.261, 4.619e-6
-1.260, 4.471e-6
-1.259, 4.337e-6
-1.258, 4.080e-6
-1.257, 3.732e-6
-1.256, 3.526e-6
-1.255, 3.454e-6
-1.254, 3.244e-6
-1.253, 3.044e-6
-1.252, 2.754e-6
-1.251, 2.590e-6
-1.250, 2.491e-6
-1.249, 2.385e-6
-1.248, 2.179e-6
-1.247, 1.905e-6
-1.246, 1.729e-6
-1.245, 1.661e-6
-1.244, 1.579e-6
-1.243, 1.347e-6
-1.242, 1.121e-6
-1.241, 9.657e-7
-1.240, 8.986e-7
-1.239, 8.838e-7
-1.238, 6.687e-7
-1.237, 4.181e-7
-1.236, 3.126e-7
-1.235, 1.892e-7
-1.234, 1.942e-7
-1.233, -1.302e-8
-1.232, -2.212e-7
-1.231, -3.070e-7
-1.230, -3.800e-7
-1.229, -4.708e-7
-1.228, -5.754e-7
-1.227, -8.388e-7
-1.226, -8.990e-7
-1.225, -9.641e-7
-1.224, -9.513e-7
-1.223, -1.106e-6
-1.222, -1.339e-6
-1.221, -1.376e-6
-1.220, -1.427e-6
-1.219, -1.514e-6
-1.218, -1.601e-6
-1.217, -1.828e-6
-1.216, -1.896e-6
-1.215, -1.880e-6
-1.214, -1.930e-6
-1.213, -2.015e-6
-1.212, -2.223e-6
-1.211, -2.298e-6
-1.210, -2.284e-6
-1.209, -2.255e-6
-1.208, -2.414e-6
-1.207, -2.575e-6
-1.206, -2.666e-6
-1.205, -2.642e-6
-1.204, -2.596e-6
-1.203, -2.758e-6
-1.202, -2.927e-6
-1.201, -2.990e-6
-1.200, -3.003e-6
-1.199, -2.961e-6
-1.198, -3.104e-6
-1.197, -3.226e-6
-1.196, -3.320e-6
-1.195, -3.295e-6
-1.194, -3.249e-6
-1.193, -3.422e-6
-1.192, -3.531e-6
-1.191, -3.637e-6
-1.190, -3.592e-6
-1.189, -3.486e-6
-1.188, -3.675e-6
-1.187, -3.839e-6
-1.186, -3.860e-6
-1.185, -3.829e-6
-1.184, -3.793e-6
-1.183, -3.938e-6
-1.182, -4.159e-6
-1.181, -4.134e-6
-1.180, -4.065e-6
-1.179, -4.108e-6
-1.178, -4.223e-6
-1.177, -4.409e-6
-1.176, -4.388e-6
-1.175, -4.343e-6
-1.174, -4.388e-6
-1.173, -4.443e-6
-1.172, -4.592e-6
-1.171, -4.678e-6
-1.170, -4.595e-6
-1.169, -4.650e-6
-1.168, -4.728e-6
-1.167, -4.849e-6
-1.166, -4.914e-6
-1.165, -4.863e-6
-1.164, -4.839e-6
-1.163, -4.956e-6
-1.162, -5.099e-6
-1.161, -5.168e-6
-1.160, -5.079e-6
-1.159, -5.051e-6
-1.158, -5.185e-6
-1.157, -5.354e-6
-1.156, -5.331e-6
-1.155, -5.302e-6
-1.154, -5.253e-6
-1.153, -5.402e-6
-1.152, -5.562e-6
-1.151, -5.565e-6
-1.150, -5.535e-6
-1.149, -5.479e-6
-1.148, -5.614e-6
-1.147, -5.740e-6
-1.146, -5.773e-6
-1.145, -5.708e-6
-1.144, -5.678e-6
-1.143, -5.830e-6
-1.142, -5.969e-6
-1.141, -5.978e-6
-1.140, -5.904e-6
-1.139, -5.893e-6
-1.138, -5.983e-6
-1.137, -6.206e-6
-1.136, -6.199e-6
-1.135, -6.104e-6
-1.134, -6.104e-6
-1.133, -6.197e-6
-1.132, -6.357e-6
-1.131, -6.399e-6
-1.130, -6.357e-6
-1.129, -6.332e-6
-1.128, -6.387e-6
-1.127, -6.574e-6
-1.126, -6.598e-6
-1.125, -6.511e-6
-1.124, -6.483e-6
-1.123, -6.668e-6
-1.122, -6.748e-6
-1.121, -6.825e-6
-1.120, -6.746e-6
-1.119, -6.672e-6
-1.118, -6.882e-6
-1.117, -6.931e-6
-1.116, -6.972e-6
-1.115, -6.957e-6
-1.114, -6.907e-6
-1.113, -7.044e-6
-1.112, -7.153e-6
-1.111, -7.181e-6
-1.110, -7.142e-6
-1.109, -7.037e-6
-1.108, -7.206e-6
-1.107, -7.386e-6
-1.106, -7.390e-6
-1.105, -7.287e-6
-1.104, -7.229e-6
-1.103, -7.376e-6
-1.102, -7.545e-6
-1.101, -7.535e-6
-1.100, -7.473e-6
-1.099, -7.468e-6
-1.098, -7.576e-6
-1.097, -7.710e-6
-1.096, -7.752e-6
-1.095, -7.644e-6
-1.094, -7.673e-6
-1.093, -7.759e-6
-1.092, -7.896e-6
-1.091, -7.947e-6
-1.090, -7.830e-6
-1.089, -7.871e-6
-1.088, -7.927e-6
-1.087, -8.097e-6
-1.086, -8.119e-6
-1.085, -8.023e-6
-1.084, -7.974e-6
-1.083, -8.144e-6
-1.082, -8.292e-6
-1.081, -8.313e-6
-1.080, -8.262e-6
-1.079, -8.202e-6
-1.078, -8.341e-6
-1.077, -8.409e-6
-1.076, -8.537e-6
-1.075, -8.438e-6
-1.074, -8.408e-6
-1.073, -8.509e-6
-1.072, -8.638e-6
-1.071, -8.687e-6
-1.070, -8.619e-6
-1.069, -8.584e-6
-1.068, -8.677e-6
-1.067, -8.883e-6
-1.066, -8.853e-6
-1.065, -8.824e-6
-1.064, -8.730e-6
-1.063, -8.913e-6
-1.062, -9.055e-6
-1.061, -9.062e-6
-1.060, -8.973e-6
-1.059, -8.958e-6
-1.058, -9.073e-6
-1.057, -9.217e-6
-1.056, -9.190e-6
-1.055, -9.129e-6
-1.054, -9.146e-6
-1.053, -9.249e-6
-1.052, -9.394e-6
-1.051, -9.440e-6
-1.050, -9.328e-6
-1.049, -9.329e-6
-1.048, -9.457e-6
-1.047, -9.533e-6
-1.046, -9.658e-6
-1.045, -9.541e-6
-1.044, -9.479e-6
-1.043, -9.683e-6
-1.042, -9.765e-6
-1.041, -9.824e-6
-1.040, -9.736e-6
-1.039, -9.731e-6
-1.038, -9.848e-6
-1.037, -9.945e-6
-1.036, -9.959e-6
-1.035, -9.919e-6
-1.034, -9.870e-6
-1.033, -1.004e-5
-1.032, -1.014e-5
-1.031, -1.017e-5
-1.030, -1.010e-5
-1.029, -1.002e-5
-1.028, -1.020e-5
-1.027, -1.036e-5
-1.026, -1.035e-5
-1.025, -1.027e-5
-1.024, -1.028e-5
-1.023, -1.040e-5
-1.022, -1.057e-5
-1.021, -1.056e-5
-1.020, -1.046e-5
-1.019, -1.050e-5
-1.018, -1.058e-5
-1.017, -1.075e-5
-1.016, -1.073e-5
-1.015, -1.068e-5
-1.014, -1.068e-5
-1.013, -1.073e-5
-1.012, -1.092e-5
-1.011, -1.093e-5
-1.010, -1.086e-5
-1.009, -1.085e-5
-1.008, -1.094e-5
-1.007, -1.109e-5
-1.006, -1.113e-5
-1.005, -1.103e-5
-1.004, -1.096e-5
-1.003, -1.115e-5
-1.002, -1.125e-5
-1.001, -1.132e-5
-1.000, -5.951e-6
-1.001, -3.272e-6
-1.002, -2.236e-6
-1.003, -1.517e-6
-1.004, -8.536e-7
-1.005, -1.768e-7
-1.006, 3.678e-7
-1.007, 7.309e-7
-1.008, 9.499e-7
-1.009, 1.282e-6
-1.010, 1.788e-6
-1.011, 2.181e-6
-1.012, 2.260e-6
-1.013, 2.436e-6
-1.014, 2.690e-6
-1.015, 3.032e-6
-1.016, 3.288e-6
-1.017, 3.332e-6
-1.018, 3.474e-6
-1.019, 3.608e-6
-1.020, 3.908e-6
-1.021, 4.103e-6
-1.022, 4.187e-6
-1.023, 4.233e-6
-1.024, 4.364e-6
-1.025, 4.602e-6
-1.026, 4.824e-6
-1.027, 4.770e-6
-1.028, 4.792e-6
-1.029, 4.912e-6
-1.030, 5.140e-6
-1.031, 5.317e-6
-1.032, 5.263e-6
-1.033, 5.276e-6
-1.034, 5.407e-6
-1.035, 5.562e-6
-1.036, 5.703e-6
-1.037, 5.699e-6
-1.038, 5.713e-6
-1.039, 5.763e-6
-1.040, 5.939e-6
-1.041, 6.057e-6
-1.042, 6.076e-6
-1.043, 6.005e-6
-1.044, 6.134e-6
-1.045, 6.304e-6
-1.046, 6.394e-6
-1.047, 6.375e-6
-1.048, 6.283e-6
-1.049, 6.364e-6
-1.050, 6.560e-6
-1.051, 6.684e-6
-1.052, 6.620e-6
-1.053, 6.513e-6
-1.054, 6.606e-6
-1.055, 6.822e-6
-1.056, 6.899e-6
-1.057, 6.770e-6
-1.058, 6.810e-6
-1.059, 6.828e-6
-1.060, 7.008e-6
-1.061, 7.120e-6
-1.062, 7.062e-6
-1.063, 7.039e-6
-1.064, 7.053e-6
-1.065, 7.204e-6
-1.066, 7.368e-6
-1.067, 7.238e-6
-1.068, 7.243e-6
-1.069, 7.239e-6
-1.070, 7.429e-6
-1.071, 7.519e-6
-1.072, 7.408e-6
-1.073, 7.359e-6
-1.074, 7.459e-6
-1.075, 7.612e-6
-1.076, 7.692e-6
-1.077, 7.623e-6
-1.078, 7.566e-6
-1.079, 7.634e-6
-1.080, 7.777e-6
-1.081, 7.867e-6
-1.082, 7.751e-6
-1.083, 7.703e-6
-1.084, 7.762e-6
-1.085, 7.932e-6
-1.086, 8.014e-6
-1.087, 7.931e-6
-1.088, 7.824e-6
-1.089, 7.935e-6
-1.090, 8.048e-6
-1.091, 8.128e-6
-1.092, 8.080e-6
-1.093, 8.006e-6
-1.094, 8.054e-6
-1.095, 8.228e-6
-1.096, 8.270e-6
-1.097, 8.180e-6
-1.098, 8.158e-6
-1.099, 8.159e-6
-1.100, 8.314e-6
-1.101, 8.462e-6
-1.102, 8.362e-6
-1.103, 8.328e-6
-1.104, 8.341e-6
-1.105, 8.489e-6
-1.106, 8.555e-6
-1.107, 8.481e-6
-1.108, 8.468e-6
-1.109, 8.511e-6
-1.110, 8.657e-6
-1.111, 8.782e-6
-1.112, 8.632e-6
-1.113, 8.549e-6
-1.114, 8.692e-6
-1.115, 8.774e-6
-1.116, 8.900e-6
-1.117, 8.798e-6
-1.118, 8.778e-6
-1.119, 8.818e-6
-1.120, 8.927e-6
-1.121, 9.023e-6
-1.122, 8.967e-6
-1.123, 8.880e-6
-1.124, 8.928e-6
-1.125, 9.126e-6
-1.126, 9.189e-6
-1.127, 9.077e-6
-1.128, 9.056e-6
-1.129, 9.070e-6
-1.130, 9.258e-6
-1.131, 9.328e-6
-1.132, 9.228e-6
-1.133, 9.189e-6
-1.134, 9.222e-6
-1.135, 9.406e-6
-1.136, 9.502e-6
-1.137, 9.393e-6
-1.138, 9.323e-6
-1.139, 9.383e-6
-1.140, 9.575e-6
-1.141, 9.653e-6
-1.142, 9.547e-6
-1.143, 9.543e-6
-1.144, 9.570e-6
-1.145, 9.692e-6
-1.146, 9.813e-6
-1.147, 9.727e-6
-1.148, 9.653e-6
-1.149, 9.737e-6
-1.150, 9.838e-6
-1.151, 9.974e-6
-1.152, 9.836e-6
-1.153, 9.804e-6
-1.154, 9.913e-6
-1.155, 1.005e-5
-1.156, 1.007e-5
-1.157, 9.984e-6
-1.158, 9.982e-6
-1.159, 1.007e-5
-1.160, 1.015e-5
-1.161, 1.026e-5
-1.162, 1.017e-5
-1.163, 1.010e-5
-1.164, 1.022e-5
-1.165, 1.028e-5
-1.166, 1.042e-5
-1.167, 1.034e-5
-1.168, 1.027e-5
-1.169, 1.038e-5
-1.170, 1.056e-5
-1.171, 1.056e-5
-1.172, 1.050e-5
-1.173, 1.045e-5
-1.174, 1.052e-5
-1.175, 1.064e-5
-1.176, 1.072e-5
-1.177, 1.065e-5
-1.178, 1.067e-5
-1.179, 1.067e-5
-1.180, 1.083e-5
-1.181, 1.093e-5
-1.182, 1.085e-5
-1.183, 1.074e-5
-1.184, 1.087e-5
-1.185, 1.099e-5
-1.186, 1.113e-5
-1.187, 1.104e-5
-1.188, 1.101e-5
-1.189, 1.106e-5
-1.190, 1.119e-5
-1.191, 1.129e-5
-1.192, 1.118e-5
-1.193, 1.112e-5
-1.194, 1.127e-5
-1.195, 1.138e-5
-1.196, 1.150e-5
-1.197, 1.142e-5
-1.198, 1.137e-5
-1.199, 1.142e-5
-1.200, 1.156e-5
-1.201, 1.167e-5
-1.202, 1.162e-5
-1.203, 1.157e-5
-1.204, 1.170e-5
-1.205, 1.180e-5
-1.206, 1.188e-5
-1.207, 1.178e-5
-1.208, 1.174e-5
-1.209, 1.186e-5
-1.210, 1.201e-5
-1.211, 1.211e-5
-1.212, 1.206e-5
-1.213, 1.201e-5
-1.214, 1.207e-5
-1.215, 1.230e-5
-1.216, 1.238e-5
-1.217, 1.225e-5
-1.218, 1.227e-5
-1.219, 1.235e-5
-1.220, 1.251e-5
-1.221, 1.262e-5
-1.222, 1.253e-5
-1.223, 1.259e-5
-1.224, 1.263e-5
-1.225, 1.282e-5
-1.226, 1.296e-5
-1.227, 1.284e-5
-1.228, 1.287e-5
-1.229, 1.300e-5
-1.230, 1.315e-5
-1.231, 1.329e-5
-1.232, 1.320e-5
-1.233, 1.323e-5
-1.234, 1.332e-5
-1.235, 1.353e-5
-1.236, 1.358e-5
-1.237, 1.357e-5
-1.238, 1.355e-5
-1.239, 1.369e-5
-1.240, 1.391e-5
-1.241, 1.401e-5
-1.242, 1.399e-5
-1.243, 1.396e-5
-1.244, 1.413e-5
-1.245, 1.430e-5
-1.246, 1.442e-5
-1.247, 1.444e-5
-1.248, 1.444e-5
-1.249, 1.460e-5
-1.250, 1.481e-5
-1.251, 1.490e-5
-1.252, 1.492e-5
-1.253, 1.502e-5
-1.254, 1.513e-5
-1.255, 1.535e-5
-1.256, 1.552e-5
-1.257, 1.548e-5
-1.258, 1.560e-5
-1.259, 1.577e-5
-1.260, 1.602e-5
-1.261, 1.615e-5
-1.262, 1.618e-5
-1.263, 1.627e-5
-1.264, 1.646e-5
-1.265, 1.671e-5
-1.266, 1.691e-5
-1.267, 1.693e-5
-1.268, 1.707e-5
-1.269, 1.721e-5
-1.270, 1.750e-5
-1.271, 1.769e-5
-1.272, 1.774e-5
-1.273, 1.789e-5
-1.274, 1.813e-5
-1.275, 1.839e-5
-1.276, 1.861e-5
-1.277, 1.870e-5
-1.278, 1.881e-5
-1.279, 1.912e-5
-1.280, 1.945e-5
-1.281, 1.968e-5
-1.282, 1.982e-5
-1.283, 1.995e-5
-1.284, 2.024e-5
-1.285, 2.057e-5
-1.286, 2.081e-5
-1.287, 2.107e-5
-1.288, 2.122e-5
-1.289, 2.151e-5
-1.290, 2.192e-5
-1.291, 2.217e-5
-1.292, 2.238e-5
-1.293, 2.262e-5
-1.294, 2.298e-5
-1.295, 2.344e-5
-1.296, 2.369e-5
-1.297, 2.396e-5
-1.298, 2.423e-5
-1.299, 2.462e-5
-1.300, 2.505e-5
-1.301, 2.546e-5
-1.302, 2.571e-5
-1.303, 2.604e-5
-1.304, 2.648e-5
-1.305, 2.698e-5
-1.306, 2.742e-5
-1.307, 2.770e-5
-1.308, 2.811e-5
-1.309, 2.861e-5
-1.310, 2.918e-5
-1.311, 2.963e-5
-1.312, 3.000e-5
-1.313, 3.033e-5
-1.314, 3.094e-5
-1.315, 3.154e-5
-1.316, 3.208e-5
-1.317, 3.250e-5
-1.318, 3.301e-5
-1.319, 3.368e-5
-1.320, 3.429e-5
-1.321, 3.487e-5
-1.322, 3.544e-5
-1.323, 3.594e-5
-1.324, 3.662e-5
-1.325, 3.740e-5
-1.326, 3.802e-5
-1.327, 3.865e-5
-1.328, 3.922e-5
-1.329, 3.998e-5
-1.330, 4.088e-5
-1.331, 4.159e-5
-1.332, 4.228e-5
-1.333, 4.301e-5
-1.334, 4.380e-5
-1.335, 4.479e-5
-1.336, 4.562e-5
-1.337, 4.634e-5
-1.338, 4.721e-5
-1.339, 4.810e-5
-1.340, 4.913e-5
-1.341, 5.007e-5
-1.342, 5.093e-5
-1.343, 5.186e-5
-1.344, 5.288e-5
-1.345, 5.404e-5
-1.346, 5.513e-5
-1.347, 5.607e-5
-1.348, 5.708e-5
-1.349, 5.825e-5
-1.350, 5.952e-5
-1.351, 6.068e-5
-1.352, 6.176e-5
-1.353, 6.292e-5
-1.354, 6.425e-5
-1.355, 6.561e-5
-1.356, 6.692e-5
-1.357, 6.814e-5
-1.358, 6.943e-5
-1.359, 7.089e-5
-1.360, 7.239e-5
-1.361, 7.384e-5
-1.362, 7.524e-5
-1.363, 7.670e-5
-1.364, 7.832e-5
-1.365, 7.996e-5
-1.366, 8.158e-5
-1.367, 8.317e-5
-1.368, 8.478e-5
-1.369, 8.653e-5
-1.370, 8.841e-5
-1.371, 9.022e-5
-1.372, 9.196e-5
-1.373, 9.372e-5
-1.374, 9.563e-5
-1.375, 9.769e-5
-1.376, 9.964e-5
-1.377, 1.015e-4
-1.378, 1.036e-4
-1.379, 1.056e-4
-1.380, 1.079e-4
-1.381, 1.101e-4
-1.382, 1.122e-4
-1.383, 1.144e-4
-1.384, 1.167e-4
-1.385, 1.192e-4
-1.386, 1.216e-4
-1.387, 1.238e-4
-1.388, 1.262e-4
-1.389, 1.287e-4
-1.390, 1.315e-4
-1.391, 1.341e-4
-1.392, 1.366e-4
-1.393, 1.392e-4
-1.394, 1.421e-4
-1.395, 1.450e-4
-1.396, 1.479e-4
-1.397, 1.507e-4
-1.398, 1.535e-4
-1.399, 1.567e-4
-1.400, 1.599e-4
-1.401, 1.631e-4
-1.402, 1.662e-4
-1.403, 1.692e-4
-1.404, 1.726e-4
-1.405, 1.761e-4
-1.406, 1.796e-4
-1.407, 1.830e-4
-1.408, 1.863e-4
-1.409, 1.900e-4
-1.410, 1.938e-4
-1.411, 1.975e-4
-1.412, 2.013e-4
-1.413, 2.050e-4
-1.414, 2.088e-4
-1.415, 2.130e-4
-1.416, 2.170e-4
-1.417, 2.210e-4
-1.418, 2.252e-4
-1.419, 2.294e-4
-1.420, 2.338e-4
-1.421, 2.382e-4
-1.422, 2.426e-4
-1.423, 2.471e-4
-1.424, 2.518e-4
-1.425, 2.565e-4
-1.426, 2.613e-4
-1.427, 2.659e-4
-1.428, 2.708e-4
-1.429, 2.759e-4
-1.430, 2.810e-4
-1.431, 2.860e-4
-1.432, 2.911e-4
-1.433, 2.965e-4
-1.434, 3.019e-4
-1.435, 3.076e-4
-1.436, 3.132e-4
-1.437, 3.186e-4
-1.438, 3.243e-4
-1.439, 3.301e-4
-1.440, 3.364e-4
-1.441, 3.424e-4
-1.442, 3.484e-4
-1.443, 3.542e-4
-1.444, 3.604e-4
-1.445, 3.669e-4
-1.446, 3.735e-4
-1.447, 3.801e-4
-1.448, 3.866e-4
-1.449, 3.933e-4
-1.450, 4.001e-4
-1.451, 4.071e-4
-1.452, 4.142e-4
-1.453, 4.212e-4
-1.454, 4.285e-4
-1.455, 4.359e-4
-1.456, 4.433e-4
-1.457, 4.506e-4
-1.458, 4.581e-4
-1.459, 4.660e-4
-1.460, 4.741e-4
-1.461, 4.819e-4
-1.462, 4.898e-4
-1.463, 4.982e-4
-1.464, 5.068e-4
-1.465, 5.154e-4
-1.466, 5.239e-4
-1.467, 5.321e-4
-1.468, 5.407e-4
-1.469, 5.499e-4
-1.470, 5.593e-4
-1.471, 5.683e-4
-1.472, 5.777e-4
-1.473, 5.869e-4
-1.474, 5.963e-4
-1.475, 6.063e-4
-1.476, 6.162e-4
-1.477, 6.256e-4
-1.478, 6.360e-4
-1.479, 6.466e-4
-1.480, 6.568e-4
-1.481, 6.672e-4
-1.482, 6.779e-4
-1.483, 6.886e-4
-1.484, 6.996e-4
-1.485, 7.111e-4
-1.486, 7.223e-4
-1.487, 7.335e-4
-1.488, 7.448e-4
-1.489, 7.565e-4
-1.490, 7.685e-4
-1.491, 7.806e-4
-1.492, 7.928e-4
-1.493, 8.050e-4
-1.494, 8.176e-4
-1.495, 8.302e-4
-1.496, 8.428e-4
-1.497, 8.564e-4
-1.498, 8.696e-4
-1.499, 8.826e-4
-1.500, 8.809e-4
-1.499, 8.651e-4
-1.498, 8.496e-4
-1.497, 8.343e-4
-1.496, 8.195e-4
-1.495, 8.048e-4
-1.494, 7.905e-4
-1.493, 7.768e-4
-1.492, 7.633e-4
-1.491, 7.498e-4
-1.490, 7.370e-4
-1.489, 7.238e-4
-1.488, 7.111e-4
-1.487, 6.985e-4
-1.486, 6.860e-4
-1.485, 6.742e-4
-1.484, 6.623e-4
-1.483, 6.506e-4
-1.482, 6.394e-4
-1.481, 6.284e-4
-1.480, 6.176e-4
-1.479, 6.066e-4
-1.478, 5.959e-4
-1.477, 5.858e-4
-1.476, 5.756e-4
-1.475, 5.656e-4
-1.474, 5.559e-4
-1.473, 5.463e-4
-1.472, 5.368e-4
-1.471, 5.274e-4
-1.470, 5.182e-4
-1.469, 5.092e-4
-1.468, 5.003e-4
-1.467, 4.915e-4
-1.466, 4.831e-4
-1.465, 4.747e-4
-1.464, 4.666e-4
-1.463, 4.584e-4
-1.462, 4.503e-4
-1.461, 4.425e-4
-1.460, 4.349e-4
-1.459, 4.274e-4
-1.458, 4.199e-4
-1.457, 4.124e-4
-1.456, 4.055e-4
-1.455, 3.984e-4
-1.454, 3.914e-4
-1.453, 3.845e-4
-1.452, 3.777e-4
-1.451, 3.711e-4
-1.450, 3.648e-4
-1.449, 3.584e-4
-1.448, 3.521e-4
-1.447, 3.459e-4
-1.446, 3.397e-4
-1.445, 3.338e-4
-1.444, 3.280e-4
-1.443, 3.221e-4
-1.442, 3.163e-4
-1.441, 3.107e-4
-1.440, 3.054e-4
-1.439, 2.999e-4
-1.438, 2.944e-4
-1.437, 2.892e-4
-1.436, 2.842e-4
-1.435, 2.792e-4
-1.434, 2.743e-4
-1.433, 2.693e-4
-1.432, 2.644e-4
-1.431, 2.597e-4
-1.430, 2.552e-4
-1.429, 2.507e-4
-1.428, 2.460e-4
-1.427, 2.414e-4
-1.426, 2.371e-4
-1.425, 2.328e-4
-1.424, 2.287e-4
-1.423, 2.244e-4
-1.422, 2.202e-4
-1.421, 2.163e-4
-1.420, 2.125e-4
-1.419, 2.086e-4
-1.418, 2.047e-4
-1.417, 2.008e-4
-1.416, 1.972e-4
-1.415, 1.937e-4
-1.414, 1.901e-4
-1.413, 1.865e-4
-1.412, 1.830e-4
-1.411, 1.796e-4
-1.410, 1.765e-4
-1.409, 1.732e-4
-1.408, 1.698e-4
-1.407, 1.666e-4
-1.406, 1.635e-4
-1.405, 1.606e-4
-1.404, 1.575e-4
-1.403, 1.544e-4
-1.402, 1.514e-4
-1.401, 1.486e-4
-1.400, 1.459e-4
-1.399, 1.431e-4
-1.398, 1.403e-4
-1.397, 1.375e-4
-1.396, 1.349e-4
-1.395, 1.325e-4
-1.394, 1.300e-4
-1.393, 1.273e-4
-1.392, 1.249e-4
-1.391, 1.225e-4
-1.390, 1.202e-4
-1.389, 1.179e-4
-1.388, 1.155e-4
-1.387, 1.132e-4
-1.386, 1.111e-4
-1.385, 1.090e-4
-1.384, 1.069e-4
-1.383, 1.046e-4
-1.382, 1.025e-4
-1.381, 1.006e-4
-1.380, 9.867e-5
-1.379, 9.664e-5
-1.378, 9.460e-5
-1.377, 9.262e-5
-1.376, 9.087e-5
-1.375, 8.916e-5
-1.374, 8.727e-5
-1.373, 8.542e-5
-1.372, 8.359e-5
-1.371, 8.195e-5
-1.370, 8.040e-5
-1.369, 7.867e-5
-1.368, 7.693e-5
-1.367, 7.531e-5
-1.366, 7.373e-5
-1.365, 7.237e-5
-1.364, 7.081e-5
-1.363, 6.916e-5
-1.362, 6.768e-5
-1.361, 6.634e-5
-1.360, 6.501e-5
-1.359, 6.361e-5
-1.358, 6.212e-5
-1.357, 6.072e-5
-1.356, 5.949e-5
-1.355, 5.830e-5
-1.354, 5.701e-5
-1.353, 5.568e-5
-1.352, 5.442e-5
-1.351, 5.326e-5
-1.350, 5.214e-5
-1.349, 5.103e-5
-1.348, 4.981e-5
-1.347, 4.862e-5
-1.346, 4.764e-5
-1.345, 4.663e-5
-1.344, 4.560e-5
-1.343, 4.442e-5
-1.342, 4.338e-5
-1.341, 4.246e-5
-1.340, 4.157e-5
-1.339, 4.066e-5
-1.338, 3.960e-5
-1.337, 3.859e-5
-1.336, 3.783e-5
-1.335, 3.704e-5
-1.334, 3.618e-5
-1.333, 3.521e-5
-1.332, 3.432e-5
-1.331, 3.358e-5
-1.330, 3.284e-5
-1.329, 3.206e-5
-1.328, 3.119e-5
-1.327, 3.035e-5
-1.326, 2.968e-5
-1.325, 2.909e-5
-1.324, 2.839e-5
-1.323, 2.751e-5
-1.322, 2.681e-5
-1.321, 2.620e-5
-1.320, 2.568e-5
-1.319, 2.498e-5
-1.318, 2.422e-5
-1.317, 2.357e-5
-1.316, 2.307e-5
-1.315, 2.253e-5
-1.314, 2.201e-5
-1.313, 2.125e-5
-1.312, 2.068e-5
-1.311, 2.022e-5
-1.310, 1.976e-5
-1.309, 1.923e-5
-1.308, 1.860e-5
-1.307, 1.807e-5
-1.306, 1.767e-5
-1.305, 1.726e-5
-1.304, 1.677e-5
-1.303, 1.619e-5
-1.302, 1.568e-5
-1.301, 1.532e-5
-1.300, 1.501e-5
-1.299, 1.459e-5
-1.298, 1.402e-5
-1.297, 1.359e-5
-1.296, 1.330e-5
-1.295, 1.300e-5
-1.294, 1.257e-5
-1.293, 1.210e-5
-1.292, 1.170e-5
-1.291, 1.146e-5
-1.290, 1.119e-5
-1.289, 1.078e-5
-1.288, 1.038e-5
-1.287, 9.989e-6
-1.286, 9.762e-6
-1.285, 9.491e-6
-1.284, 9.229e-6
-1.283, 8.754e-6
-1.282, 8.443e-6
-1.281, 8.221e-6
-1.280, 8.016e-6
-1.279, 7.750e-6
-1.278, 7.337e-6
-1.277, 7.037e-6
-1.276, 6.910e-6
-1.275, 6.678e-6
-1.274, 6.461e-6
-1.273, 6.051e-6
-1.272, 5.811e-6
-1.271, 5.662e-6
-1.270, 5.510e-6
-1.269, 5.274e-6
-1.268, 4.916e-6
-1.267, 4.641e-6
-1.266, 4.574e-6
-1.265, 4.439e-6
-1.264, 4.222e-6
-1.263, 3.878e-6
-1.262, 3.626e-6
-1.261, 3.607e-6
-1.260, 3.506e-6
-1.259, 3.258e-6
-1.258, 2.993e-6
-1.257, 2.731e-6
-1.256, 2.705e-6
-1.255, 2.603e-6
-1.254, 2.408e-6
-1.253, 2.161e-6
-1.252, 1.929e-6
-1.251, 1.891e-6
-1.250, 1.862e-6
-1.249, 1.665e-6
-1.248, 1.478e-6
-1.247, 1.184e-6
-1.246, 1.184e-6
-1.245, 1.159e-6
-1.244, 1.018e-6
-1.243, 7.447e-7
-1.242, 5.710e-7
-1.241, 5.493e-7
-1.240, 5.188e-7
-1.239, 3.836e-7
-1.238, 1.142e-7
-1.237, -1.500e-8
-1.236, 1.362e-8
-1.235, -3.275e-8
-1.234, -1.679e-7
-1.233, -4.254e-7
-1.232, -5.290e-7
-1.231, -5.438e-7
-1.230, -5.389e-7
-1.229, -8.102e-7
-1.228, -9.227e-7
-1.227, -1.018e-6
-1.226, -1.028e-6
-1.225, -1.005e-6
-1.224, -1.132e-6
-1.223, -1.314e-6
-1.222, -1.459e-6
-1.221, -1.451e-6
-1.220, -1.450e-6
-1.219, -1.578e-6
-1.218, -1.739e-6
-1.217, -1.920e-6
-1.216, -1.814e-6
-1.215, -1.845e-6
-1.214, -1.977e-6
-1.213, -2.150e-6
-1.212, -2.263e-6
-1.211, -2.177e-6
-1.210, -2.157e-6
-1.209, -2.282e-6
-1.208, -2.459e-6
-1.207, -2.534e-6
-1.206, -2.531e-6
-1.205, -2.463e-6
-1.204, -2.609e-6
-1.203, -2.785e-6
-1.202, -2.799e-6
-1.201, -2.789e-6
-1.200, -2.750e-6
-1.199, -2.870e-6
-1.198, -3.094e-6
-1.197, -3.092e-6
-1.196, -3.080e-6
-1.195, -3.081e-6
-1.194, -3.153e-6
-1.193, -3.398e-6
-1.192, -3.387e-6
-1.191, -3.353e-6
-1.190, -3.338e-6
-1.189, -3.412e-6
-1.188, -3.596e-6
-1.187, -3.691e-6
-1.186, -3.630e-6
-1.185, -3.577e-6
-1.184, -3.685e-6
-1.183, -3.829e-6
-1.182, -3.912e-6
-1.181, -3.832e-6
-1.180, -3.819e-6
-1.179, -3.955e-6
-1.178, -4.145e-6
-1.177, -4.176e-6
-1.176, -4.088e-6
-1.175, -4.006e-6
-1.174, -4.216e-6
-1.173, -4.312e-6
-1.172, -4.367e-6
-1.171, -4.367e-6
-1.170, -4.275e-6
-1.169, -4.403e-6
-1.168, -4.574e-6
-1.167, -4.547e-6
-1.166, -4.569e-6
-1.165, -4.555e-6
-1.164, -4.617e-6
-1.163, -4.812e-6
-1.162, -4.827e-6
-1.161, -4.809e-6
-1.160, -4.730e-6
-1.159, -4.827e-6
-1.158, -4.987e-6
-1.157, -5.013e-6
-1.156, -4.951e-6
-1.155, -4.999e-6
-1.154, -5.053e-6
-1.153, -5.245e-6
-1.152, -5.276e-6
-1.151, -5.191e-6
-1.150, -5.179e-6
-1.149, -5.220e-6
-1.148, -5.406e-6
-1.147, -5.458e-6
-1.146, -5.411e-6
-1.145, -5.345e-6
-1.144, -5.409e-6
-1.143, -5.580e-6
-1.142, -5.602e-6
-1.141, -5.568e-6
-1.140, -5.508e-6
-1.139, -5.659e-6
-1.138, -5.818e-6
-1.137, -5.805e-6
-1.136, -5.737e-6
-1.135, -5.707e-6
-1.134, -5.828e-6
-1.133, -5.968e-6
-1.132, -6.012e-6
-1.131, -5.968e-6
-1.130, -5.909e-6
-1.129, -6.024e-6
-1.128, -6.119e-6
-1.127, -6.152e-6
-1.126, -6.160e-6
-1.125, -6.066e-6
-1.124, -6.189e-6
-1.123, -6.369e-6
-1.122, -6.386e-6
-1.121, -6.315e-6
-1.120, -6.231e-6
-1.119, -6.335e-6
-1.118, -6.516e-6
-1.117, -6.516e-6
-1.116, -6.495e-6
-1.115, -6.502e-6
-1.114, -6.521e-6
-1.113, -6.716e-6
-1.112, -6.708e-6
-1.111, -6.663e-6
-1.110, -6.632e-6
-1.109, -6.716e-6
-1.108, -6.902e-6
-1.107, -6.955e-6
-1.106, -6.835e-6
-1.105, -6.823e-6
-1.104, -6.932e-6
-1.103, -7.061e-6
-1.102, -7.103e-6
-1.101, -7.055e-6
-1.100, -7.040e-6
-1.099, -7.150e-6
-1.098, -7.228e-6
-1.097, -7.357e-6
-1.096, -7.246e-6
-1.095, -7.164e-6
-1.094, -7.338e-6
-1.093, -7.488e-6
-1.092, -7.490e-6
-1.091, -7.421e-6
-1.090, -7.350e-6
-1.089, -7.528e-6
-1.088, -7.643e-6
-1.087, -7.672e-6
-1.086, -7.583e-6
-1.085, -7.561e-6
-1.084, -7.692e-6
-1.083, -7.826e-6
-1.082, -7.872e-6
-1.081, -7.786e-6
-1.080, -7.742e-6
-1.079, -7.846e-6
-1.078, -8.019e-6
-1.077, -7.998e-6
-1.076, -7.969e-6
-1.075, -7.941e-6
-1.074, -8.056e-6
-1.073, -8.203e-6
-1.072, -8.226e-6
-1.071, -8.147e-6
-1.070, -8.148e-6
-1.069, -8.230e-6
-1.068, -8.442e-6
-1.067, -8.435e-6
-1.066, -8.353e-6
-1.065, -8.345e-6
-1.064, -8.417e-6
-1.063, -8.556e-6
-1.062, -8.682e-6
-1.061, -8.540e-6
-1.060, -8.497e-6
-1.059, -8.663e-6
-1.058, -8.770e-6
-1.057, -8.851e-6
-1.056, -8.732e-6
-1.055, -8.701e-6
-1.054, -8.869e-6
-1.053, -9.014e-6
-1.052, -9.013e-6
-1.051, -8.944e-6
-1.050, -8.899e-6
-1.049, -9.092e-6
-1.048, -9.167e-6
-1.047, -9.244e-6
-1.046, -9.138e-6
-1.045, -9.100e-6
-1.044, -9.225e-6
-1.043, -9.420e-6
-1.042, -9.408e-6
-1.041, -9.335e-6
-1.040, -9.316e-6
-1.039, -9.447e-6
-1.038, -9.606e-6
-1.037, -9.608e-6
-1.036, -9.556e-6
-1.035, -9.549e-6
-1.034, -9.687e-6
-1.033, -9.831e-6
-1.032, -9.849e-6
-1.031, -9.791e-6
-1.030, -9.778e-6
-1.029, -9.913e-6
-1.028, -1.005e-5
-1.027, -1.013e-5
-1.026, -9.992e-6
-1.025, -1.002e-5
-1.024, -1.020e-5
-1.023, -1.030e-5
-1.022, -1.032e-5
-1.021, -1.027e-5
-1.020, -1.022e-5
-1.019, -1.041e-5
-1.018, -1.056e-5
-1.017, -1.058e-5
-1.016, -1.048e-5
-1.015, -1.048e-5
-1.014, -1.064e-5
-1.013, -1.078e-5
-1.012, -1.079e-5
-1.011, -1.081e-5
-1.010, -1.071e-5
-1.009, -1.094e-5
-1.008, -1.103e-5
-1.007, -1.108e-5
-1.006, -1.106e-5
-1.005, -1.098e-5
-1.004, -1.115e-5
-1.003, -1.131e-5
-1.002, -1.132e-5
-1.001, -1.127e-5
-1.000, -5.786e-6
-1.001, -3.219e-6
-1.002, -2.184e-6
-1.003, -1.349e-6
-1.004, -5.182e-7
-1.005, 1.123e-7
-1.006, 4.566e-7
-1.007, 8.542e-7
-1.008, 1.210e-6
-1.009, 1.649e-6
-1.010, 2.067e-6
-1.011, 2.227e-6
-1.012, 2.383e-6
-1.013, 2.658e-6
-1.014, 3.017e-6
-1.015, 3.289e-6
-1.016, 3.340e-6
-1.017, 3.432e-6
-1.018, 3.677e-6
-1.019, 3.959e-6
-1.020, 4.193e-6
-1.021, 4.200e-6
-1.022, 4.182e-6
-1.023, 4.405e-6
-1.024, 4.660e-6
-1.025, 4.840e-6
-1.026, 4.809e-6
-1.027, 4.837e-6
-1.028, 5.035e-6
-1.029, 5.207e-6
-1.030, 5.340e-6
-1.031, 5.349e-6
-1.032, 5.308e-6
-1.033, 5.482e-6
-1.034, 5.690e-6
-1.035, 5.781e-6
-1.036, 5.722e-6
-1.037, 5.787e-6
-1.038, 5.828e-6
-1.039, 6.082e-6
-1.040, 6.101e-6
-1.041, 6.063e-6
-1.042, 6.072e-6
-1.043, 6.171e-6
-1.044, 6.360e-6
-1.045, 6.427e-6
-1.046, 6.375e-6
-1.047, 6.351e-6
-1.048, 6.433e-6
-1.049, 6.642e-6
-1.050, 6.718e-6
-1.051, 6.620e-6
-1.052, 6.594e-6
-1.053, 6.699e-6
-1.054, 6.837e-6
-1.055, 6.938e-6
-1.056, 6.855e-6
-1.057, 6.814e-6
-1.058, 6.925e-6
-1.059, 7.041e-6
-1.060, 7.113e-6
-1.061, 7.011e-6
-1.062, 6.999e-6
-1.063, 7.119e-6
-1.064, 7.224e-6
-1.065, 7.279e-6
-1.066, 7.261e-6
-1.067, 7.158e-6
-1.068, 7.239e-6
-1.069, 7.414e-6
-1.070, 7.429e-6
-1.071, 7.448e-6
-1.072, 7.287e-6
-1.073, 7.395e-6
-1.074, 7.603e-6
-1.075, 7.573e-6
-1.076, 7.544e-6
-1.077, 7.480e-6
-1.078, 7.554e-6
-1.079, 7.759e-6
-1.080, 7.725e-6
-1.081, 7.671e-6
-1.082, 7.630e-6
-1.083, 7.681e-6
-1.084, 7.849e-6
-1.085, 7.877e-6
-1.086, 7.784e-6
-1.087, 7.728e-6
-1.088, 7.807e-6
-1.089, 8.023e-6
-1.090, 7.964e-6
-1.091, 7.893e-6
-1.092, 7.858e-6
-1.093, 7.971e-6
-1.094, 8.070e-6
-1.095, 8.118e-6
-1.096, 8.055e-6
-1.097, 7.994e-6
-1.098, 8.124e-6
-1.099, 8.244e-6
-1.100, 8.252e-6
-1.101, 8.180e-6
-1.102, 8.121e-6
-1.103, 8.212e-6
-1.104, 8.319e-6
-1.105, 8.343e-6
-1.106, 8.272e-6
-1.107, 8.183e-6
-1.108, 8.366e-6
-1.109, 8.483e-6
-1.110, 8.489e-6
-1.111, 8.420e-6
-1.112, 8.352e-6
-1.113, 8.412e-6
-1.114, 8.633e-6
-1.115, 8.598e-6
-1.116, 8.521e-6
-1.117, 8.470e-6
-1.118, 8.578e-6
-1.119, 8.724e-6
-1.120, 8.730e-6
-1.121, 8.634e-6
-1.122, 8.595e-6
-1.123, 8.641e-6
-1.124, 8.854e-6
-1.125, 8.871e-6
-1.126, 8.769e-6
-1.127, 8.771e-6
-1.128, 8.869e-6
-1.129, 8.980e-6
-1.130, 9.050e-6
-1.131, 8.957e-6
-1.132, 8.883e-6
-1.133, 8.977e-6
-1.134, 9.084e-6
-1.135, 9.139e-6
-1.136, 9.016e-6
-1.137, 8.959e-6
-1.138, 9.136e-6
-1.139, 9.207e-6
-1.140, 9.276e-6
-1.141, 9.140e-6
-1.142, 9.118e-6
-1.143, 9.264e-6
-1.144, 9.363e-6
-1.145, 9.362e-6
-1.146, 9.273e-6
-1.147, 9.246e-6
-1.148, 9.394e-6
-1.149, 9.531e-6
-1.150, 9.476e-6
-1.151, 9.452e-6
-1.152, 9.385e-6
-1.153, 9.526e-6
-1.154, 9.620e-6
-1.155, 9.649e-6
-1.156, 9.577e-6
-1.157, 9.549e-6
-1.158, 9.660e-6
-1.159, 9.824e-6
-1.160, 9.764e-6
-1.161, 9.691e-6
-1.162, 9.652e-6
-1.163, 9.771e-6
-1.164, 9.894e-6
-1.165, 9.958e-6
-1.166, 9.862e-6
-1.167, 9.835e-6
-1.168, 9.900e-6
-1.169, 1.009e-5
-1.170, 1.008e-5
-1.171, 9.963e-6
-1.172, 9.997e-6
-1.173, 1.011e-5
-1.174, 1.022e-5
-1.175, 1.024e-5
-1.176, 1.005e-5
-1.177, 1.009e-5
-1.178, 1.030e-5
-1.179, 1.037e-5
-1.180, 1.041e-5
-1.181, 1.031e-5
-1.182, 1.026e-5
-1.183, 1.042e-5
-1.184, 1.051e-5
-1.185, 1.055e-5
-1.186, 1.045e-5
-1.187, 1.041e-5
-1.188, 1.056e-5
-1.189, 1.071e-5
-1.190, 1.066e-5
-1.191, 1.067e-5
-1.192, 1.060e-5
-1.193, 1.074e-5
-1.194, 1.088e-5
-1.195, 1.087e-5
-1.196, 1.079e-5
-1.197, 1.081e-5
-1.198, 1.092e-5
-1.199, 1.107e-5
-1.200, 1.101e-5
-1.201, 1.097e-5
-1.202, 1.097e-5
-1.203, 1.108e-5
-1.204, 1.123e-5
-1.205, 1.129e-5
-1.206, 1.113e-5
-1.207, 1.118e-5
-1.208, 1.131e-5
-1.209, 1.143e-5
-1.210, 1.145e-5
-1.211, 1.133e-5
-1.212, 1.137e-5
-1.213, 1.154e-5
-1.214, 1.164e-5
-1.215, 1.167e-5
-1.216, 1.159e-5
-1.217, 1.159e-5
-1.218, 1.180e-5
-1.219, 1.185e-5
-1.220, 1.185e-5
-1.221, 1.182e-5
-1.222, 1.183e-5
-1.223, 1.199e-5
-1.224, 1.214e-5
-1.225, 1.210e-5
-1.226, 1.212e-5
-1.227, 1.207e-5
-1.228, 1.231e-5
-1.229, 1.242e-5
-1.230, 1.242e-5
-1.231, 1.234e-5
-1.232, 1.240e-5
-1.233, 1.252e-5
-1.234, 1.269e-5
-1.235, 1.268e-5
-1.236, 1.260e-5
-1.237, 1.273e-5
-1.238, 1.285e-5
-1.239, 1.304e-5
-1.240, 1.299e-5
-1.241, 1.296e-5
-1.242, 1.308e-5
-1.243, 1.318e-5
-1.244, 1.338e-5
-1.245, 1.341e-5
-1.246, 1.332e-5
-1.247, 1.348e-5
-1.248, 1.364e-5
-1.249, 1.382e-5
-1.250, 1.382e-5
-1.251, 1.379e-5
-1.252, 1.390e-5
-1.253, 1.410e-5
-1.254, 1.426e-5
-1.255, 1.434e-5
-1.256, 1.427e-5
-1.257, 1.437e-5
-1.258, 1.461e-5
-1.259, 1.480e-5
-1.260, 1.486e-5
-1.261, 1.484e-5
-1.262, 1.503e-5
-1.263, 1.522e-5
-1.264, 1.539e-5
-1.265, 1.545e-5
-1.266, 1.548e-5
-1.267, 1.558e-5
-1.268, 1.591e-5
-1.269, 1.610e-5
-1.270, 1.616e-5
-1.271, 1.617e-5
-1.272, 1.639e-5
-1.273, 1.659e-5
-1.274, 1.690e-5
-1.275, 1.695e-5
-1.276, 1.702e-5
-1.277, 1.718e-5
-1.278, 1.743e-5
-1.279, 1.776e-5
-1.280, 1.789e-5
-1.281, 1.791e-5
-1.282, 1.816e-5
-1.283, 1.837e-5
-1.284, 1.876e-5
-1.285, 1.882e-5
-1.286, 1.898e-5
-1.287, 1.919e-5
-1.288, 1.947e-5
-1.289, 1.978e-5
-1.290, 1.999e-5
-1.291, 2.006e-5
-1.292, 2.034e-5
-1.293, 2.068e-5
-1.294, 2.101e-5
-1.295, 2.127e-5
-1.296, 2.140e-5
-1.297, 2.167e-5
-1.298, 2.210e-5
-1.299, 2.242e-5
-1.300, 2.269e-5
-1.301, 2.290e-5
-1.302, 2.322e-5
-1.303, 2.364e-5
-1.304, 2.401e-5
-1.305, 2.432e-5
-1.306, 2.453e-5
-1.307, 2.493e-5
-1.308, 2.538e-5
-1.309, 2.585e-5
-1.310, 2.612e-5
-1.311, 2.641e-5
-1.312, 2.680e-5
-1.313, 2.735e-5
-1.314, 2.786e-5
-1.315, 2.811e-5
-1.316, 2.852e-5
-1.317, 2.901e-5
-1.318, 2.955e-5
-1.319, 3.012e-5
-1.320, 3.050e-5
-1.321, 3.087e-5
-1.322, 3.145e-5
-1.323, 3.207e-5
-1.324, 3.265e-5
-1.325, 3.312e-5
-1.326, 3.361e-5
-1.327, 3.422e-5
-1.328, 3.486e-5
-1.329, 3.555e-5
-1.330, 3.611e-5
-1.331, 3.660e-5
-1.332, 3.725e-5
-1.333, 3.801e-5
-1.334, 3.878e-5
-1.335, 3.940e-5
-1.336, 3.999e-5
-1.337, 4.073e-5
-1.338, 4.159e-5
-1.339, 4.238e-5
-1.340, 4.308e-5
-1.341, 4.382e-5
-1.342, 4.461e-5
-1.343, 4.556e-5
-1.344, 4.646e-5
-1.345, 4.722e-5
-1.346, 4.805e-5
-1.347, 4.896e-5
-1.348, 5.000e-5
-1.349, 5.107e-5
-1.350, 5.191e-5
-1.351, 5.283e-5
-1.352, 5.381e-5
-1.353, 5.498e-5
-1.354, 5.613e-5
-1.355, 5.708e-5
-1.356, 5.807e-5
-1.357, 5.931e-5
-1.358, 6.058e-5
-1.359, 6.184e-5
-1.360, 6.294e-5
-1.361, 6.409e-5
-1.362, 6.538e-5
-1.363, 6.677e-5
-1.364, 6.821e-5
-1.365, 6.944e-5
-1.366, 7.071e-5
-1.367, 7.220e-5
-1.368, 7.369e-5
-1.369, 7.529e-5
-1.370, 7.668e-5
-1.371, 7.812e-5
-1.372, 7.975e-5
-1.373, 8.147e-5
-1.374, 8.321e-5
-1.375, 8.480e-5
-1.376, 8.643e-5
-1.377, 8.817e-5
-1.378, 9.009e-5
-1.379, 9.197e-5
-1.380, 9.371e-5
-1.381, 9.553e-5
-1.382, 9.758e-5
-1.383, 9.967e-5
-1.384, 1.017e-4
-1.385, 1.037e-4
-1.386, 1.057e-4
-1.387, 1.079e-4
-1.388, 1.102e-4
-1.389, 1.125e-4
-1.390, 1.146e-4
-1.391, 1.169e-4
-1.392, 1.192e-4
-1.393, 1.217e-4
-1.394, 1.242e-4
-1.395, 1.266e-4
-1.396, 1.291e-4
-1.397, 1.318e-4
-1.398, 1.345e-4
-1.399, 1.374e-4
-1.400, 1.399e-4
-1.401, 1.427e-4
-1.402, 1.456e-4
-1.403, 1.487e-4
-1.404, 1.516e-4
-1.405, 1.546e-4
-1.406, 1.576e-4
-1.407, 1.608e-4
-1.408, 1.641e-4
-1.409, 1.674e-4
-1.410, 1.707e-4
-1.411, 1.740e-4
-1.412, 1.775e-4
-1.413, 1.811e-4
-1.414, 1.847e-4
-1.415, 1.882e-4
-1.416, 1.918e-4
-1.417, 1.956e-4
-1.418, 1.995e-4
-1.419, 2.035e-4
-1.420, 2.074e-4
-1.421, 2.113e-4
-1.422, 2.154e-4
-1.423, 2.197e-4
-1.424, 2.242e-4
-1.425, 2.284e-4
-1.426, 2.326e-4
-1.427, 2.371e-4
-1.428, 2.418e-4
-1.429, 2.465e-4
-1.430, 2.510e-4
-1.431, 2.558e-4
-1.432, 2.606e-4
-1.433, 2.656e-4
-1.434, 2.708e-4
-1.435, 2.757e-4
-1.436, 2.808e-4
-1.437, 2.860e-4
-1.438, 2.914e-4
-1.439, 2.969e-4
-1.440, 3.024e-4
-1.441, 3.079e-4
-1.442, 3.135e-4
-1.443, 3.195e-4
-1.444, 3.254e-4
-1.445, 3.313e-4
-1.446, 3.373e-4
-1.447, 3.435e-4
-1.448, 3.499e-4
-1.449, 3.562e-4
-1.450, 3.626e-4
-1.451, 3.693e-4
-1.452, 3.763e-4
-1.453, 3.828e-4
-1.454, 3.894e-4
-1.455, 3.962e-4
-1.456, 4.030e-4
-1.457, 4.102e-4
-1.458, 4.176e-4
-1.459, 4.251e-4
-1.460, 4.323e-4
-1.461, 4.395e-4
-1.462, 4.473e-4
-1.463, 4.552e-4
-1.464, 4.630e-4
-1.465, 4.710e-4
-1.466, 4.791e-4
-1.467, 4.872e-4
-1.468, 4.958e-4
-1.469, 5.043e-4
-1.470, 5.127e-4
-1.471, 5.215e-4
-1.472, 5.302e-4
-1.473, 5.391e-4
-1.474, 5.484e-4
-1.475, 5.574e-4
-1.476, 5.666e-4
-1.477, 5.761e-4
-1.478, 5.859e-4
-1.479, 5.952e-4
-1.480, 6.054e-4
-1.481, 6.151e-4
-1.482, 6.252e-4
-1.483, 6.361e-4
-1.484, 6.464e-4
-1.485, 6.568e-4
-1.486, 6.677e-4
-1.487, 6.784e-4
-1.488, 6.894e-4
-1.489, 7.006e-4
-1.490, 7.117e-4
-1.491, 7.235e-4
-1.492, 7.352e-4
-1.493, 7.466e-4
-1.494, 7.584e-4
-1.495, 7.706e-4
-1.496, 7.825e-4
-1.497, 7.947e-4
-1.498, 8.079e-4
-1.499, 8.208e-4
-1.500, 8.186e-4
-1.499, 8.029e-4
-1.498, 7.888e-4
-1.497, 7.751e-4
-1.496, 7.606e-4
-1.495, 7.467e-4
-1.494, 7.332e-4
-1.493, 7.205e-4
-1.492, 7.074e-4
-1.491, 6.946e-4
-1.490, 6.821e-4
-1.489, 6.699e-4
-1.488, 6.580e-4
-1.487, 6.465e-4
-1.486, 6.356e-4
-1.485, 6.241e-4
-1.484, 6.124e-4
-1.483, 6.018e-4
-1.482, 5.917e-4
-1.481, 5.812e-4
-1.480, 5.703e-4
-1.479, 5.601e-4
-1.478, 5.502e-4
-1.477, 5.405e-4
-1.476, 5.311e-4
-1.475, 5.219e-4
-1.474, 5.129e-4
-1.473, 5.037e-4
-1.472, 4.950e-4
-1.471, 4.867e-4
-1.470, 4.777e-4
-1.469, 4.690e-4
-1.468, 4.608e-4
-1.467, 4.531e-4
-1.466, 4.451e-4
-1.465, 4.372e-4
-1.464, 4.295e-4
-1.463, 4.219e-4
-1.462, 4.146e-4
-1.461, 4.074e-4
-1.460, 4.001e-4
-1.459, 3.928e-4
-1.458, 3.859e-4
-1.457, 3.792e-4
-1.456, 3.726e-4
-1.455, 3.660e-4
-1.454, 3.596e-4
-1.453, 3.532e-4
-1.452, 3.472e-4
-1.451, 3.410e-4
-1.450, 3.349e-4
-1.449, 3.288e-4
-1.448, 3.230e-4
-1.447, 3.172e-4
-1.446, 3.114e-4
-1.445, 3.058e-4
-1.444, 3.003e-4
-1.443, 2.950e-4
-1.442, 2.899e-4
-1.441, 2.848e-4
-1.440, 2.796e-4
-1.439, 2.744e-4
-1.438, 2.696e-4
-1.437, 2.651e-4
-1.436, 2.603e-4
-1.435, 2.554e-4
-1.434, 2.508e-4
-1.433, 2.463e-4
-1.432, 2.420e-4
-1.431, 2.376e-4
-1.430, 2.331e-4
-1.429, 2.288e-4
-1.428, 2.247e-4
-1.427, 2.208e-4
-1.426, 2.167e-4
-1.425, 2.126e-4
-1.424, 2.088e-4
-1.423, 2.049e-4
-1.422, 2.013e-4
-1.421, 1.977e-4
-1.420, 1.939e-4
-1.419, 1.902e-4
-1.418, 1.868e-4
-1.417, 1.834e-4
-1.416, 1.800e-4
-1.415, 1.765e-4
-1.414, 1.731e-4
-1.413, 1.700e-4
-1.412, 1.670e-4
-1.411, 1.638e-4
-1.410, 1.607e-4
-1.409, 1.574e-4
-1.408, 1.546e-4
-1.407, 1.518e-4
-1.406, 1.489e-4
-1.405, 1.459e-4
-1.404, 1.431e-4
-1.403, 1.405e-4
-1.402, 1.379e-4
-1.401, 1.352e-4
-1.400, 1.325e-4
-1.399, 1.300e-4
-1.398, 1.275e-4
-1.397, 1.252e-4
-1.396, 1.227e-4
-1.395, 1.202e-4
-1.394, 1.179e-4
-1.393, 1.156e-4
-1.392, 1.135e-4
-1.391, 1.112e-4
-1.390, 1.089e-4
-1.389, 1.067e-4
-1.388, 1.048e-4
-1.387, 1.027e-4
-1.386, 1.007e-4
-1.385, 9.857e-5
-1.384, 9.658e-5
-1.383, 9.467e-5
-1.382, 9.281e-5
-1.381, 9.101e-5
-1.380, 8.897e-5
-1.379, 8.710e-5
-1.378, 8.546e-5
-1.377, 8.373e-5
-1.376, 8.203e-5
-1.375, 8.022e-5
-1.374, 7.850e-5
-1.373, 7.701e-5
-1.372, 7.553e-5
-1.371, 7.387e-5
-1.370, 7.226e-5
-1.369, 7.063e-5
-1.368, 6.929e-5
-1.367, 6.791e-5
-1.366, 6.638e-5
-1.365, 6.494e-5
-1.364, 6.351e-5
-1.363, 6.222e-5
-1.362, 6.100e-5
-1.361, 5.966e-5
-1.360, 5.827e-5
-1.359, 5.695e-5
-1.358, 5.579e-5
-1.357, 5.472e-5
-1.356, 5.343e-5
-1.355, 5.215e-5
-1.354, 5.106e-5
-1.353, 4.998e-5
-1.352, 4.893e-5
-1.351, 4.783e-5
-1.350, 4.665e-5
-1.349, 4.559e-5
-1.348, 4.460e-5
-1.347, 4.372e-5
-1.346, 4.270e-5
-1.345, 4.164e-5
-1.344, 4.064e-5
-1.343, 3.981e-5
-1.342, 3.897e-5
-1.341, 3.801e-5
-1.340, 3.702e-5
-1.339, 3.617e-5
-1.338, 3.540e-5
-1.337, 3.462e-5
-1.336, 3.379e-5
-1.335, 3.291e-5
-1.334, 3.207e-5
-1.333, 3.141e-5
-1.332, 3.077e-5
-1.331, 2.993e-5
-1.330, 2.917e-5
-1.329, 2.841e-5
-1.328, 2.783e-5
-1.327, 2.723e-5
-1.326, 2.652e-5
-1.325, 2.571e-5
-1.324, 2.508e-5
-1.323, 2.453e-5
-1.322, 2.402e-5
-1.321, 2.331e-5
-1.320, 2.261e-5
-1.319, 2.208e-5
-1.318, 2.156e-5
-1.317, 2.114e-5
-1.316, 2.049e-5
-1.315, 1.984e-5
-1.314, 1.935e-5
-1.313, 1.890e-5
-1.312, 1.851e-5
-1.311, 1.801e-5
-1.310, 1.733e-5
-1.309, 1.694e-5
-1.308, 1.654e-5
-1.307, 1.614e-5
-1.306, 1.564e-5
-1.305, 1.508e-5
-1.304, 1.467e-5
-1.303, 1.437e-5
-1.302, 1.403e-5
-1.301, 1.360e-5
-1.300, 1.303e-5
-1.299, 1.268e-5
-1.298, 1.239e-5
-1.297, 1.208e-5
-1.296, 1.165e-5
-1.295, 1.120e-5
-1.294, 1.087e-5
-1.293, 1.061e-5
-1.292, 1.037e-5
-1.291, 9.956e-6
-1.290, 9.551e-6
-1.289, 9.245e-6
-1.288, 9.022e-6
-1.287, 8.837e-6
-1.286, 8.430e-6
-1.285, 8.086e-6
-1.284, 7.762e-6
-1.283, 7.606e-6
-1.282, 7.388e-6
-1.281, 7.103e-6
-1.280, 6.689e-6
-1.279, 6.449e-6
-1.278, 6.297e-6
-1.277, 6.195e-6
-1.276, 5.798e-6
-1.275, 5.483e-6
-1.274, 5.223e-6
-1.273, 5.164e-6
-1.272, 5.028e-6
-1.271, 4.738e-6
-1.270, 4.349e-6
-1.269, 4.218e-6
-1.268, 4.140e-6
-1.267, 3.975e-6
-1.266, 3.692e-6
-1.265, 3.381e-6
-1.264, 3.283e-6
-1.263, 3.191e-6
-1.262, 3.073e-6
-1.261, 2.838e-6
-1.260, 2.603e-6
-1.259, 2.427e-6
-1.258, 2.355e-6
-1.257, 2.223e-6
-1.256, 2.004e-6
-1.255, 1.836e-6
-1.254, 1.574e-6
-1.253, 1.630e-6
-1.252, 1.518e-6
-1.251, 1.276e-6
-1.250, 1.033e-6
-1.249, 8.848e-7
-1.248, 9.381e-7
-1.247, 8.591e-7
-1.246, 6.293e-7
-1.245, 4.083e-7
-1.244, 3.402e-7
-1.243, 2.830e-7
-1.242, 2.701e-7
-1.241, 2.743e-8
-1.240, -1.581e-7
-1.239, -2.202e-7
-1.238, -2.745e-7
-1.237, -2.725e-7
-1.236, -4.757e-7
-1.235, -6.918e-7
-1.234, -7.204e-7
-1.233, -7.411e-7
-1.232, -7.451e-7
-1.231, -9.237e-7
-1.230, -1.170e-6
-1.229, -1.279e-6
-1.228, -1.221e-6
-1.227, -1.257e-6
-1.226, -1.446e-6
-1.225, -1.606e-6
-1.224, -1.629e-6
-1.223, -1.603e-6
-1.222, -1.668e-6
-1.221, -1.806e-6
-1.220, -1.966e-6
-1.219, -2.067e-6
-1.218, -1.975e-6
-1.217, -2.022e-6
-1.216, -2.173e-6
-1.215, -2.310e-6
-1.214, -2.376e-6
-1.213, -2.329e-6
-1.212, -2.363e-6
-1.211, -2.536e-6
-1.210, -2.679e-6
-1.209, -2.699e-6
-1.208, -2.657e-6
-1.207, -2.643e-6
-1.206, -2.836e-6
-1.205, -2.944e-6
-1.204, -3.011e-6
-1.203, -2.981e-6
-1.202, -2.952e-6
-1.201, -3.112e-6
-1.200, -3.258e-6
-1.199, -3.240e-6
-1.198, -3.269e-6
-1.197, -3.213e-6
-1.196, -3.397e-6
-1.195, -3.545e-6
-1.194, -3.563e-6
-1.193, -3.518e-6
-1.192, -3.465e-6
-1.191, -3.638e-6
-1.190, -3.822e-6
-1.189, -3.751e-6
-1.188, -3.760e-6
-1.187, -3.725e-6
-1.186, -3.881e-6
-1.185, -4.034e-6
-1.184, -4.007e-6
-1.183, -3.951e-6
-1.182, -3.974e-6
-1.181, -4.120e-6
-1.180, -4.221e-6
-1.179, -4.248e-6
-1.178, -4.222e-6
-1.177, -4.152e-6
-1.176, -4.344e-6
-1.175, -4.452e-6
-1.174, -4.477e-6
-1.173, -4.408e-6
-1.172, -4.380e-6
-1.171, -4.577e-6
-1.170, -4.673e-6
-1.169, -4.664e-6
-1.168, -4.616e-6
-1.167, -4.597e-6
-1.166, -4.758e-6
-1.165, -4.890e-6
-1.164, -4.884e-6
-1.163, -4.799e-6
-1.162, -4.810e-6
-1.161, -4.986e-6
-1.160, -5.073e-6
-1.159, -5.102e-6
-1.158, -5.039e-6
-1.157, -5.005e-6
-1.156, -5.162e-6
-1.155, -5.324e-6
-1.154, -5.249e-6
-1.153, -5.163e-6
-1.152, -5.199e-6
-1.151, -5.370e-6
-1.150, -5.512e-6
-1.149, -5.417e-6
-1.148, -5.361e-6
-1.147, -5.428e-6
-1.146, -5.530e-6
-1.145, -5.678e-6
-1.144, -5.613e-6
-1.143, -5.514e-6
-1.142, -5.608e-6
-1.141, -5.726e-6
-1.140, -5.797e-6
-1.139, -5.873e-6
-1.138, -5.715e-6
-1.137, -5.792e-6
-1.136, -5.901e-6
-1.135, -6.016e-6
-1.134, -6.026e-6
-1.133, -5.911e-6
-1.132, -5.978e-6
-1.131, -6.078e-6
-1.130, -6.153e-6
-1.129, -6.196e-6
-1.128, -6.047e-6
-1.127, -6.142e-6
-1.126, -6.308e-6
-1.125, -6.381e-6
-1.124, -6.321e-6
-1.123, -6.292e-6
-1.122, -6.287e-6
-1.121, -6.425e-6
-1.120, -6.525e-6
-1.119, -6.536e-6
-1.118, -6.455e-6
-1.117, -6.482e-6
-1.116, -6.634e-6
-1.115, -6.740e-6
-1.114, -6.696e-6
-1.113, -6.628e-6
-1.112, -6.673e-6
-1.111, -6.775e-6
-1.110, -6.964e-6
-1.109, -6.898e-6
-1.108, -6.814e-6
-1.107, -6.854e-6
-1.106, -6.950e-6
-1.105, -7.130e-6
-1.104, -7.022e-6
-1.103, -7.000e-6
-1.102, -7.039e-6
-1.101, -7.151e-6
-1.100, -7.271e-6
-1.099, -7.234e-6
-1.098, -7.140e-6
-1.097, -7.183e-6
-1.096, -7.335e-6
-1.095, -7.425e-6
-1.094, -7.456e-6
-1.093, -7.341e-6
-1.092, -7.372e-6
-1.091, -7.503e-6
-1.090, -7.602e-6
-1.089, -7.627e-6
-1.088, -7.502e-6
-1.087, -7.562e-6
-1.086, -7.720e-6
-1.085, -7.807e-6
-1.084, -7.774e-6
-1.083, -7.713e-6
-1.082, -7.754e-6
-1.081, -7.896e-6
-1.080, -7.965e-6
-1.079, -7.956e-6
-1.078, -7.903e-6
-1.077, -7.950e-6
-1.076, -8.062e-6
-1.075, -8.245e-6
-1.074, -8.171e-6
-1.073, -8.081e-6
-1.072, -8.112e-6
-1.071, -8.261e-6
-1.070, -8.393e-6
-1.069, -8.354e-6
-1.068, -8.262e-6
-1.067, -8.351e-6
-1.066, -8.450e-6
-1.065, -8.591e-6
-1.064, -8.551e-6
-1.063, -8.465e-6
-1.062, -8.530e-6
-1.061, -8.680e-6
-1.060, -8.740e-6
-1.059, -8.809e-6
-1.058, -8.662e-6
-1.057, -8.701e-6
-1.056, -8.862e-6
-1.055, -8.953e-6
-1.054, -8.978e-6
-1.053, -8.857e-6
-1.052, -8.920e-6
-1.051, -9.134e-6
-1.050, -9.188e-6
-1.049, -9.214e-6
-1.048, -9.074e-6
-1.047, -9.126e-6
-1.046, -9.359e-6
-1.045, -9.370e-6
-1.044, -9.376e-6
-1.043, -9.316e-6
-1.042, -9.315e-6
-1.041, -9.525e-6
-1.040, -9.607e-6
-1.039, -9.576e-6
-1.038, -9.536e-6
-1.037, -9.557e-6
-1.036, -9.755e-6
-1.035, -9.886e-6
-1.034, -9.798e-6
-1.033, -9.730e-6
-1.032, -9.784e-6
-1.031, -9.929e-6
-1.030, -1.009e-5
-1.029, -9.998e-6
-1.028, -9.972e-6
-1.027, -9.995e-6
-1.026, -1.018e-5
-1.025, -1.033e-5
-1.024, -1.028e-5
-1.023, -1.021e-5
-1.022, -1.027e-5
-1.021, -1.046e-5
-1.020, -1.051e-5
-1.019, -1.054e-5
-1.018, -1.047e-5
-1.017, -1.055e-5
-1.016, -1.069e-5
-1.015, -1.081e-5
-1.014, -1.081e-5
-1.013, -1.065e-5
-1.012, -1.081e-5
-1.011, -1.099e-5
-1.010, -1.108e-5
-1.009, -1.106e-5
-1.008, -1.094e-5
-1.007, -1.109e-5
-1.006, -1.124e-5
-1.005, -1.135e-5
-1.004, -1.136e-5
-1.003, -1.128e-5
-1.002, -1.134e-5
-1.001, -1.157e-5
