Apr. 2, 2025   13:06:45
Cyclic Voltammetry
File: c:/users/guazh/data/banditlqround7_x0exp518_r20/2025-03-28-exp1020\exp1020-2025-04-02t12_59_30-h2koh\exp1020_cv_sr_500mvs_efin_-1400mv.bin
Data Source:  Experiment
Instrument Model:  CHI760E
Header: CV ran at 500 mVs
Note: 

Init E (V) = -1
High E (V) = -1
Low E (V) = -1.4
Final E (V) = -1
Init P/N = N
Scan Rate (V/s) = 0.5
Segment = 3
Sample Interval (V) = 0.001
Quiet Time (sec) = 2
Sensitivity (A/V) = 0.01
Comp R (ohm) = 1.8

Results:

Channel 1:
Segment 1:
Ep = -1.256V
ip = 1.304e-3A
Ah = 2.522e-4C

Segment 2:

Segment 3:

Potential/V, Current/A

-1.000, -4.609e-5
-1.001, 9.265e-5
-1.002, 2.006e-4
-1.003, 2.838e-4
-1.004, 3.516e-4
-1.005, 4.040e-4
-1.006, 4.472e-4
-1.007, 4.842e-4
-1.008, 5.181e-4
-1.009, 5.551e-4
-1.010, 5.859e-4
-1.011, 6.137e-4
-1.012, 6.414e-4
-1.013, 6.599e-4
-1.014, 6.815e-4
-1.015, 7.000e-4
-1.016, 7.154e-4
-1.017, 7.370e-4
-1.018, 7.555e-4
-1.019, 7.771e-4
-1.020, 7.956e-4
-1.021, 8.110e-4
-1.022, 8.295e-4
-1.023, 8.418e-4
-1.024, 8.573e-4
-1.025, 8.727e-4
-1.026, 8.912e-4
-1.027, 9.097e-4
-1.028, 9.313e-4
-1.029, 9.467e-4
-1.030, 9.621e-4
-1.031, 9.775e-4
-1.032, 9.898e-4
-1.033, 1.008e-3
-1.034, 1.024e-3
-1.035, 1.042e-3
-1.036, 1.064e-3
-1.037, 1.082e-3
-1.038, 1.098e-3
-1.039, 1.113e-3
-1.040, 1.129e-3
-1.041, 1.144e-3
-1.042, 1.166e-3
-1.043, 1.184e-3
-1.044, 1.206e-3
-1.045, 1.224e-3
-1.046, 1.246e-3
-1.047, 1.264e-3
-1.048, 1.280e-3
-1.049, 1.301e-3
-1.050, 1.317e-3
-1.051, 1.338e-3
-1.052, 1.360e-3
-1.053, 1.384e-3
-1.054, 1.406e-3
-1.055, 1.421e-3
-1.056, 1.437e-3
-1.057, 1.455e-3
-1.058, 1.477e-3
-1.059, 1.499e-3
-1.060, 1.523e-3
-1.061, 1.545e-3
-1.062, 1.569e-3
-1.063, 1.588e-3
-1.064, 1.606e-3
-1.065, 1.628e-3
-1.066, 1.650e-3
-1.067, 1.674e-3
-1.068, 1.702e-3
-1.069, 1.727e-3
-1.070, 1.751e-3
-1.071, 1.773e-3
-1.072, 1.791e-3
-1.073, 1.810e-3
-1.074, 1.828e-3
-1.075, 1.847e-3
-1.076, 1.872e-3
-1.077, 1.893e-3
-1.078, 1.918e-3
-1.079, 1.946e-3
-1.080, 1.967e-3
-1.081, 1.992e-3
-1.082, 2.010e-3
-1.083, 2.032e-3
-1.084, 2.060e-3
-1.085, 2.081e-3
-1.086, 2.109e-3
-1.087, 2.131e-3
-1.088, 2.155e-3
-1.089, 2.174e-3
-1.090, 2.192e-3
-1.091, 2.214e-3
-1.092, 2.235e-3
-1.093, 2.260e-3
-1.094, 2.288e-3
-1.095, 2.312e-3
-1.096, 2.334e-3
-1.097, 2.353e-3
-1.098, 2.371e-3
-1.099, 2.390e-3
-1.100, 2.411e-3
-1.101, 2.433e-3
-1.102, 2.454e-3
-1.103, 2.479e-3
-1.104, 2.501e-3
-1.105, 2.522e-3
-1.106, 2.541e-3
-1.107, 2.562e-3
-1.108, 2.584e-3
-1.109, 2.605e-3
-1.110, 2.630e-3
-1.111, 2.652e-3
-1.112, 2.673e-3
-1.113, 2.689e-3
-1.114, 2.704e-3
-1.115, 2.719e-3
-1.116, 2.738e-3
-1.117, 2.760e-3
-1.118, 2.781e-3
-1.119, 2.800e-3
-1.120, 2.821e-3
-1.121, 2.843e-3
-1.122, 2.861e-3
-1.123, 2.880e-3
-1.124, 2.898e-3
-1.125, 2.920e-3
-1.126, 2.948e-3
-1.127, 2.972e-3
-1.128, 2.997e-3
-1.129, 3.019e-3
-1.130, 3.040e-3
-1.131, 3.059e-3
-1.132, 3.080e-3
-1.133, 3.105e-3
-1.134, 3.133e-3
-1.135, 3.157e-3
-1.136, 3.188e-3
-1.137, 3.216e-3
-1.138, 3.241e-3
-1.139, 3.265e-3
-1.140, 3.290e-3
-1.141, 3.314e-3
-1.142, 3.342e-3
-1.143, 3.373e-3
-1.144, 3.401e-3
-1.145, 3.429e-3
-1.146, 3.450e-3
-1.147, 3.475e-3
-1.148, 3.493e-3
-1.149, 3.509e-3
-1.150, 3.530e-3
-1.151, 3.555e-3
-1.152, 3.577e-3
-1.153, 3.601e-3
-1.154, 3.626e-3
-1.155, 3.647e-3
-1.156, 3.669e-3
-1.157, 3.694e-3
-1.158, 3.721e-3
-1.159, 3.749e-3
-1.160, 3.777e-3
-1.161, 3.808e-3
-1.162, 3.836e-3
-1.163, 3.857e-3
-1.164, 3.882e-3
-1.165, 3.903e-3
-1.166, 3.925e-3
-1.167, 3.950e-3
-1.168, 3.977e-3
-1.169, 3.999e-3
-1.170, 4.021e-3
-1.171, 4.039e-3
-1.172, 4.061e-3
-1.173, 4.079e-3
-1.174, 4.104e-3
-1.175, 4.135e-3
-1.176, 4.165e-3
-1.177, 4.202e-3
-1.178, 4.233e-3
-1.179, 4.267e-3
-1.180, 4.295e-3
-1.181, 4.323e-3
-1.182, 4.347e-3
-1.183, 4.375e-3
-1.184, 4.406e-3
-1.185, 4.440e-3
-1.186, 4.474e-3
-1.187, 4.508e-3
-1.188, 4.538e-3
-1.189, 4.563e-3
-1.190, 4.591e-3
-1.191, 4.619e-3
-1.192, 4.653e-3
-1.193, 4.690e-3
-1.194, 4.720e-3
-1.195, 4.757e-3
-1.196, 4.794e-3
-1.197, 4.825e-3
-1.198, 4.856e-3
-1.199, 4.887e-3
-1.200, 4.918e-3
-1.201, 4.952e-3
-1.202, 4.989e-3
-1.203, 5.023e-3
-1.204, 5.053e-3
-1.205, 5.084e-3
-1.206, 5.112e-3
-1.207, 5.137e-3
-1.208, 5.161e-3
-1.209, 5.186e-3
-1.210, 5.217e-3
-1.211, 5.241e-3
-1.212, 5.269e-3
-1.213, 5.291e-3
-1.214, 5.312e-3
-1.215, 5.334e-3
-1.216, 5.359e-3
-1.217, 5.383e-3
-1.218, 5.414e-3
-1.219, 5.445e-3
-1.220, 5.473e-3
-1.221, 5.500e-3
-1.222, 5.525e-3
-1.223, 5.553e-3
-1.224, 5.578e-3
-1.225, 5.596e-3
-1.226, 5.611e-3
-1.227, 5.624e-3
-1.228, 5.639e-3
-1.229, 5.658e-3
-1.230, 5.673e-3
-1.231, 5.695e-3
-1.232, 5.719e-3
-1.233, 5.747e-3
-1.234, 5.778e-3
-1.235, 5.812e-3
-1.236, 5.843e-3
-1.237, 5.870e-3
-1.238, 5.895e-3
-1.239, 5.914e-3
-1.240, 5.932e-3
-1.241, 5.947e-3
-1.242, 5.969e-3
-1.243, 5.994e-3
-1.244, 6.015e-3
-1.245, 6.037e-3
-1.246, 6.055e-3
-1.247, 6.071e-3
-1.248, 6.083e-3
-1.249, 6.099e-3
-1.250, 6.114e-3
-1.251, 6.136e-3
-1.252, 6.154e-3
-1.253, 6.173e-3
-1.254, 6.188e-3
-1.255, 6.197e-3
-1.256, 6.203e-3
-1.257, 6.203e-3
-1.258, 6.203e-3
-1.259, 6.203e-3
-1.260, 6.203e-3
-1.261, 6.200e-3
-1.262, 6.197e-3
-1.263, 6.191e-3
-1.264, 6.182e-3
-1.265, 6.179e-3
-1.266, 6.169e-3
-1.267, 6.166e-3
-1.268, 6.163e-3
-1.269, 6.160e-3
-1.270, 6.154e-3
-1.271, 6.145e-3
-1.272, 6.129e-3
-1.273, 6.117e-3
-1.274, 6.099e-3
-1.275, 6.083e-3
-1.276, 6.068e-3
-1.277, 6.049e-3
-1.278, 6.031e-3
-1.279, 6.009e-3
-1.280, 5.991e-3
-1.281, 5.963e-3
-1.282, 5.932e-3
-1.283, 5.898e-3
-1.284, 5.867e-3
-1.285, 5.836e-3
-1.286, 5.803e-3
-1.287, 5.766e-3
-1.288, 5.725e-3
-1.289, 5.682e-3
-1.290, 5.636e-3
-1.291, 5.593e-3
-1.292, 5.550e-3
-1.293, 5.507e-3
-1.294, 5.467e-3
-1.295, 5.423e-3
-1.296, 5.377e-3
-1.297, 5.328e-3
-1.298, 5.272e-3
-1.299, 5.226e-3
-1.300, 5.180e-3
-1.301, 5.137e-3
-1.302, 5.093e-3
-1.303, 5.047e-3
-1.304, 4.998e-3
-1.305, 4.945e-3
-1.306, 4.890e-3
-1.307, 4.838e-3
-1.308, 4.788e-3
-1.309, 4.739e-3
-1.310, 4.690e-3
-1.311, 4.643e-3
-1.312, 4.591e-3
-1.313, 4.542e-3
-1.314, 4.483e-3
-1.315, 4.424e-3
-1.316, 4.366e-3
-1.317, 4.313e-3
-1.318, 4.264e-3
-1.319, 4.215e-3
-1.320, 4.162e-3
-1.321, 4.110e-3
-1.322, 4.058e-3
-1.323, 4.008e-3
-1.324, 3.962e-3
-1.325, 3.919e-3
-1.326, 3.882e-3
-1.327, 3.842e-3
-1.328, 3.805e-3
-1.329, 3.768e-3
-1.330, 3.725e-3
-1.331, 3.681e-3
-1.332, 3.638e-3
-1.333, 3.598e-3
-1.334, 3.558e-3
-1.335, 3.527e-3
-1.336, 3.496e-3
-1.337, 3.466e-3
-1.338, 3.432e-3
-1.339, 3.404e-3
-1.340, 3.373e-3
-1.341, 3.345e-3
-1.342, 3.321e-3
-1.343, 3.296e-3
-1.344, 3.274e-3
-1.345, 3.253e-3
-1.346, 3.228e-3
-1.347, 3.207e-3
-1.348, 3.179e-3
-1.349, 3.151e-3
-1.350, 3.130e-3
-1.351, 3.111e-3
-1.352, 3.099e-3
-1.353, 3.089e-3
-1.354, 3.080e-3
-1.355, 3.068e-3
-1.356, 3.052e-3
-1.357, 3.037e-3
-1.358, 3.025e-3
-1.359, 3.015e-3
-1.360, 3.006e-3
-1.361, 3.006e-3
-1.362, 2.997e-3
-1.363, 2.991e-3
-1.364, 2.982e-3
-1.365, 2.972e-3
-1.366, 2.969e-3
-1.367, 2.972e-3
-1.368, 2.975e-3
-1.369, 2.982e-3
-1.370, 2.982e-3
-1.371, 2.982e-3
-1.372, 2.978e-3
-1.373, 2.972e-3
-1.374, 2.975e-3
-1.375, 2.975e-3
-1.376, 2.978e-3
-1.377, 2.991e-3
-1.378, 2.997e-3
-1.379, 3.006e-3
-1.380, 3.015e-3
-1.381, 3.022e-3
-1.382, 3.031e-3
-1.383, 3.043e-3
-1.384, 3.056e-3
-1.385, 3.071e-3
-1.386, 3.086e-3
-1.387, 3.099e-3
-1.388, 3.111e-3
-1.389, 3.120e-3
-1.390, 3.133e-3
-1.391, 3.145e-3
-1.392, 3.157e-3
-1.393, 3.176e-3
-1.394, 3.191e-3
-1.395, 3.210e-3
-1.396, 3.222e-3
-1.397, 3.234e-3
-1.398, 3.250e-3
-1.399, 3.265e-3
-1.400, 3.163e-3
-1.399, 2.877e-3
-1.398, 2.636e-3
-1.397, 2.427e-3
-1.396, 2.242e-3
-1.395, 2.075e-3
-1.394, 1.924e-3
-1.393, 1.791e-3
-1.392, 1.674e-3
-1.391, 1.563e-3
-1.390, 1.468e-3
-1.389, 1.381e-3
-1.388, 1.295e-3
-1.387, 1.218e-3
-1.386, 1.141e-3
-1.385, 1.067e-3
-1.384, 1.002e-3
-1.383, 9.374e-4
-1.382, 8.788e-4
-1.381, 8.264e-4
-1.380, 7.709e-4
-1.379, 7.185e-4
-1.378, 6.661e-4
-1.377, 6.137e-4
-1.376, 5.644e-4
-1.375, 5.181e-4
-1.374, 4.780e-4
-1.373, 4.380e-4
-1.372, 3.979e-4
-1.371, 3.578e-4
-1.370, 3.177e-4
-1.369, 2.746e-4
-1.368, 2.376e-4
-1.367, 1.975e-4
-1.366, 1.666e-4
-1.365, 1.358e-4
-1.364, 1.050e-4
-1.363, 7.415e-5
-1.362, 4.024e-5
-1.361, 9.405e-6
-1.360, -2.451e-5
-1.359, -5.534e-5
-1.358, -8.000e-5
-1.357, -1.047e-4
-1.356, -1.293e-4
-1.355, -1.540e-4
-1.354, -1.787e-4
-1.353, -2.064e-4
-1.352, -2.311e-4
-1.351, -2.588e-4
-1.350, -2.835e-4
-1.349, -3.020e-4
-1.348, -3.236e-4
-1.347, -3.421e-4
-1.346, -3.637e-4
-1.345, -3.852e-4
-1.344, -4.068e-4
-1.343, -4.284e-4
-1.342, -4.500e-4
-1.341, -4.654e-4
-1.340, -4.839e-4
-1.339, -4.993e-4
-1.338, -5.147e-4
-1.337, -5.332e-4
-1.336, -5.517e-4
-1.335, -5.733e-4
-1.334, -5.887e-4
-1.333, -6.041e-4
-1.332, -6.165e-4
-1.331, -6.288e-4
-1.330, -6.442e-4
-1.329, -6.596e-4
-1.328, -6.720e-4
-1.327, -6.905e-4
-1.326, -7.059e-4
-1.325, -7.182e-4
-1.324, -7.336e-4
-1.323, -7.429e-4
-1.322, -7.583e-4
-1.321, -7.706e-4
-1.320, -7.860e-4
-1.319, -8.045e-4
-1.318, -8.200e-4
-1.317, -8.323e-4
-1.316, -8.477e-4
-1.315, -8.539e-4
-1.314, -8.600e-4
-1.313, -8.662e-4
-1.312, -8.754e-4
-1.311, -8.878e-4
-1.310, -9.001e-4
-1.309, -9.124e-4
-1.308, -9.217e-4
-1.307, -9.279e-4
-1.306, -9.371e-4
-1.305, -9.433e-4
-1.304, -9.525e-4
-1.303, -9.649e-4
-1.302, -9.772e-4
-1.301, -9.864e-4
-1.300, -9.957e-4
-1.299, -9.988e-4
-1.298, -1.005e-3
-1.297, -1.011e-3
-1.296, -1.017e-3
-1.295, -1.030e-3
-1.294, -1.039e-3
-1.293, -1.051e-3
-1.292, -1.064e-3
-1.291, -1.067e-3
-1.290, -1.070e-3
-1.289, -1.076e-3
-1.288, -1.082e-3
-1.287, -1.088e-3
-1.286, -1.101e-3
-1.285, -1.110e-3
-1.284, -1.116e-3
-1.283, -1.122e-3
-1.282, -1.128e-3
-1.281, -1.131e-3
-1.280, -1.138e-3
-1.279, -1.147e-3
-1.278, -1.156e-3
-1.277, -1.165e-3
-1.276, -1.178e-3
-1.275, -1.184e-3
-1.274, -1.190e-3
-1.273, -1.193e-3
-1.272, -1.199e-3
-1.271, -1.205e-3
-1.270, -1.215e-3
-1.269, -1.221e-3
-1.268, -1.230e-3
-1.267, -1.239e-3
-1.266, -1.245e-3
-1.265, -1.249e-3
-1.264, -1.252e-3
-1.263, -1.255e-3
-1.262, -1.264e-3
-1.261, -1.270e-3
-1.260, -1.282e-3
-1.259, -1.289e-3
-1.258, -1.295e-3
-1.257, -1.298e-3
-1.256, -1.301e-3
-1.255, -1.307e-3
-1.254, -1.313e-3
-1.253, -1.322e-3
-1.252, -1.332e-3
-1.251, -1.341e-3
-1.250, -1.347e-3
-1.249, -1.350e-3
-1.248, -1.356e-3
-1.247, -1.359e-3
-1.246, -1.366e-3
-1.245, -1.375e-3
-1.244, -1.384e-3
-1.243, -1.390e-3
-1.242, -1.400e-3
-1.241, -1.403e-3
-1.240, -1.409e-3
-1.239, -1.415e-3
-1.238, -1.418e-3
-1.237, -1.427e-3
-1.236, -1.437e-3
-1.235, -1.446e-3
-1.234, -1.452e-3
-1.233, -1.458e-3
-1.232, -1.464e-3
-1.231, -1.467e-3
-1.230, -1.474e-3
-1.229, -1.483e-3
-1.228, -1.492e-3
-1.227, -1.501e-3
-1.226, -1.511e-3
-1.225, -1.520e-3
-1.224, -1.523e-3
-1.223, -1.532e-3
-1.222, -1.538e-3
-1.221, -1.548e-3
-1.220, -1.563e-3
-1.219, -1.572e-3
-1.218, -1.585e-3
-1.217, -1.594e-3
-1.216, -1.597e-3
-1.215, -1.603e-3
-1.214, -1.606e-3
-1.213, -1.612e-3
-1.212, -1.622e-3
-1.211, -1.634e-3
-1.210, -1.646e-3
-1.209, -1.655e-3
-1.208, -1.662e-3
-1.207, -1.671e-3
-1.206, -1.677e-3
-1.205, -1.683e-3
-1.204, -1.696e-3
-1.203, -1.705e-3
-1.202, -1.720e-3
-1.201, -1.736e-3
-1.200, -1.748e-3
-1.199, -1.760e-3
-1.198, -1.770e-3
-1.197, -1.779e-3
-1.196, -1.791e-3
-1.195, -1.807e-3
-1.194, -1.822e-3
-1.193, -1.837e-3
-1.192, -1.850e-3
-1.191, -1.862e-3
-1.190, -1.874e-3
-1.189, -1.884e-3
-1.188, -1.899e-3
-1.187, -1.914e-3
-1.186, -1.939e-3
-1.185, -1.964e-3
-1.184, -1.988e-3
-1.183, -2.016e-3
-1.182, -2.035e-3
-1.181, -2.050e-3
-1.180, -2.062e-3
-1.179, -2.072e-3
-1.178, -2.084e-3
-1.177, -2.099e-3
-1.176, -2.106e-3
-1.175, -2.118e-3
-1.174, -2.130e-3
-1.173, -2.140e-3
-1.172, -2.155e-3
-1.171, -2.173e-3
-1.170, -2.195e-3
-1.169, -2.220e-3
-1.168, -2.244e-3
-1.167, -2.269e-3
-1.166, -2.291e-3
-1.165, -2.309e-3
-1.164, -2.334e-3
-1.163, -2.352e-3
-1.162, -2.374e-3
-1.161, -2.395e-3
-1.160, -2.417e-3
-1.159, -2.439e-3
-1.158, -2.454e-3
-1.157, -2.472e-3
-1.156, -2.491e-3
-1.155, -2.509e-3
-1.154, -2.531e-3
-1.153, -2.556e-3
-1.152, -2.580e-3
-1.151, -2.608e-3
-1.150, -2.633e-3
-1.149, -2.651e-3
-1.148, -2.670e-3
-1.147, -2.688e-3
-1.146, -2.710e-3
-1.145, -2.731e-3
-1.144, -2.753e-3
-1.143, -2.775e-3
-1.142, -2.799e-3
-1.141, -2.821e-3
-1.140, -2.842e-3
-1.139, -2.864e-3
-1.138, -2.886e-3
-1.137, -2.910e-3
-1.136, -2.935e-3
-1.135, -2.960e-3
-1.134, -2.984e-3
-1.133, -3.009e-3
-1.132, -3.034e-3
-1.131, -3.055e-3
-1.130, -3.074e-3
-1.129, -3.092e-3
-1.128, -3.111e-3
-1.127, -3.135e-3
-1.126, -3.160e-3
-1.125, -3.188e-3
-1.124, -3.219e-3
-1.123, -3.246e-3
-1.122, -3.271e-3
-1.121, -3.296e-3
-1.120, -3.314e-3
-1.119, -3.333e-3
-1.118, -3.351e-3
-1.117, -3.367e-3
-1.116, -3.388e-3
-1.115, -3.407e-3
-1.114, -3.428e-3
-1.113, -3.453e-3
-1.112, -3.478e-3
-1.111, -3.499e-3
-1.110, -3.524e-3
-1.109, -3.542e-3
-1.108, -3.564e-3
-1.107, -3.579e-3
-1.106, -3.598e-3
-1.105, -3.619e-3
-1.104, -3.641e-3
-1.103, -3.669e-3
-1.102, -3.693e-3
-1.101, -3.718e-3
-1.100, -3.743e-3
-1.099, -3.764e-3
-1.098, -3.783e-3
-1.097, -3.807e-3
-1.096, -3.826e-3
-1.095, -3.851e-3
-1.094, -3.875e-3
-1.093, -3.897e-3
-1.092, -3.922e-3
-1.091, -3.943e-3
-1.090, -3.962e-3
-1.089, -3.980e-3
-1.088, -3.999e-3
-1.087, -4.023e-3
-1.086, -4.045e-3
-1.085, -4.070e-3
-1.084, -4.097e-3
-1.083, -4.119e-3
-1.082, -4.137e-3
-1.081, -4.156e-3
-1.080, -4.174e-3
-1.079, -4.196e-3
-1.078, -4.221e-3
-1.077, -4.242e-3
-1.076, -4.270e-3
-1.075, -4.295e-3
-1.074, -4.316e-3
-1.073, -4.335e-3
-1.072, -4.350e-3
-1.071, -4.372e-3
-1.070, -4.393e-3
-1.069, -4.415e-3
-1.068, -4.436e-3
-1.067, -4.452e-3
-1.066, -4.467e-3
-1.065, -4.480e-3
-1.064, -4.495e-3
-1.063, -4.510e-3
-1.062, -4.535e-3
-1.061, -4.554e-3
-1.060, -4.575e-3
-1.059, -4.591e-3
-1.058, -4.606e-3
-1.057, -4.618e-3
-1.056, -4.631e-3
-1.055, -4.643e-3
-1.054, -4.662e-3
-1.053, -4.677e-3
-1.052, -4.695e-3
-1.051, -4.711e-3
-1.050, -4.726e-3
-1.049, -4.739e-3
-1.048, -4.748e-3
-1.047, -4.760e-3
-1.046, -4.776e-3
-1.045, -4.794e-3
-1.044, -4.813e-3
-1.043, -4.831e-3
-1.042, -4.846e-3
-1.041, -4.856e-3
-1.040, -4.865e-3
-1.039, -4.877e-3
-1.038, -4.890e-3
-1.037, -4.899e-3
-1.036, -4.911e-3
-1.035, -4.924e-3
-1.034, -4.936e-3
-1.033, -4.942e-3
-1.032, -4.945e-3
-1.031, -4.951e-3
-1.030, -4.961e-3
-1.029, -4.967e-3
-1.028, -4.979e-3
-1.027, -4.991e-3
-1.026, -5.004e-3
-1.025, -5.013e-3
-1.024, -5.022e-3
-1.023, -5.031e-3
-1.022, -5.038e-3
-1.021, -5.047e-3
-1.020, -5.053e-3
-1.019, -5.062e-3
-1.018, -5.072e-3
-1.017, -5.081e-3
-1.016, -5.084e-3
-1.015, -5.090e-3
-1.014, -5.096e-3
-1.013, -5.102e-3
-1.012, -5.112e-3
-1.011, -5.118e-3
-1.010, -5.127e-3
-1.009, -5.136e-3
-1.008, -5.142e-3
-1.007, -5.146e-3
-1.006, -5.149e-3
-1.005, -5.158e-3
-1.004, -5.164e-3
-1.003, -5.173e-3
-1.002, -5.186e-3
-1.001, -5.198e-3
