Potential V vs RHE, Current mA cm-2
0.013299999999999867,-0.3511313446265021
0.012299999999999978,-1.6594563547416883
0.011299999999999866,-2.532333226758415
0.010299999999999976,-3.0996324580042955
0.009299999999999864,-3.5353635383627267
0.008299999999999974,-3.884797229429391
0.007299999999999862,-4.146518819904423
0.006299999999999972,-4.450681749375406
0.00529999999999986,-4.668547289554621
0.0042999999999999705,-4.843971490737885
0.0032999999999998586,-4.9302688800296535
0.0022999999999999687,-4.974124930325469
0.0012999999999998568,-5.105693081212917
0.00029999999999996696,-5.191990470504685
-0.000700000000000145,-5.323558621392133
-0.0017000000000000348,-5.453712060979717
-0.0027000000000001467,-5.497568111275533
-0.0037000000000000366,-5.497568111275533
-0.0047000000000001485,-5.5414241615713475
-0.005700000000000038,-5.629136262162981
-0.00670000000000015,-5.715433651454749
-0.00770000000000004,-5.80314575204638
-0.008700000000000152,-5.890857852638012
-0.009700000000000042,-5.890857852638012
-0.010700000000000154,-5.9347139029338285
-0.011700000000000044,-5.9347139029338285
-0.012700000000000156,-5.977155241929781
-0.013700000000000045,-6.108723392817228
-0.014700000000000157,-6.196435493408861
-0.015700000000000047,-6.238876832404812
-0.01670000000000016,-6.238876832404812
-0.01770000000000005,-6.238876832404812
-0.01870000000000016,-6.282732882700628
-0.01970000000000005,-6.326588932996443
-0.020700000000000163,-6.414301033588076
-0.021700000000000053,-6.500598422879844
-0.022700000000000164,-6.54445447317566
-0.023700000000000054,-6.54445447317566
-0.024700000000000166,-6.54445447317566
-0.025700000000000056,-6.588310523471475
-0.026700000000000168,-6.6760226240631075
-0.027700000000000058,-6.762320013354876
-0.02870000000000017,-6.850032113946507
-0.02970000000000006,-6.850032113946507
-0.03070000000000017,-6.850032113946507
-0.03170000000000006,-6.850032113946507
-0.03270000000000017,-6.93774421453814
-0.03370000000000006,-7.024041603829907
-0.034700000000000175,-7.111753704421539
-0.035700000000000065,-7.155609754717355
-0.03670000000000018,-7.155609754717355
-0.03770000000000007,-7.155609754717355
-0.03870000000000018,-7.199465805013171
-0.03970000000000007,-7.243321855308987
-0.04070000000000018,-7.329619244600755
-0.04170000000000007,-7.37347529489657
-0.04270000000000018,-7.4173313451923875
-0.04370000000000007,-7.4173313451923875
-0.044700000000000184,-7.4173313451923875
-0.045700000000000074,-7.461187395488204
-0.046700000000000186,-7.5474847847799715
-0.047700000000000076,-7.635196885371603
-0.04870000000000019,-7.679052935667419
-0.04970000000000008,-7.679052935667419
-0.05070000000000019,-7.679052935667419
-0.05170000000000008,-7.679052935667419
-0.05270000000000019,-7.722908985963235
-0.05370000000000008,-7.809206375255003
-0.05470000000000019,-7.896918475846635
-0.05570000000000008,-7.940774526142452
-0.056700000000000195,-7.940774526142452
-0.057700000000000085,-7.896918475846635
-0.058700000000000196,-7.940774526142452
-0.059700000000000086,-7.984630576438266
-0.0607000000000002,-8.027071915434218
-0.06170000000000009,-8.11478401602585
-0.0627000000000002,-8.158640066321666
-0.06370000000000009,-8.11478401602585
-0.0647000000000002,-8.11478401602585
-0.06570000000000009,-8.202496116617484
-0.0667000000000002,-8.246352166913299
-0.0677000000000001,-8.288793505909249
-0.0687000000000002,-8.332649556205066
-0.0697000000000001,-8.332649556205066
-0.07070000000000021,-8.332649556205066
-0.0717000000000001,-8.288793505909249
-0.07270000000000021,-8.332649556205066
-0.0737000000000001,-8.4203616567967
-0.07470000000000021,-8.464217707092514
-0.0757000000000001,-8.508073757388331
-0.07670000000000021,-8.464217707092514
-0.0777000000000001,-8.464217707092514
-0.07870000000000021,-8.464217707092514
-0.0797000000000001,-8.508073757388331
-0.08070000000000022,-8.594371146680096
-0.0817000000000001,-8.638227196975913
-0.08270000000000022,-8.638227196975913
-0.08370000000000011,-8.594371146680096
-0.08470000000000022,-8.594371146680096
-0.08570000000000011,-8.594371146680096
-0.08670000000000022,-8.68208324727173
-0.08770000000000011,-8.725939297567548
-0.08870000000000022,-8.769795347863363
-0.08970000000000011,-8.725939297567548
-0.09070000000000022,-8.725939297567548
-0.09170000000000011,-8.725939297567548
-0.09270000000000023,-8.769795347863363
-0.09370000000000012,-8.812236686859313
-0.09470000000000023,-8.899948787450944
-0.09570000000000012,-8.899948787450944
-0.09670000000000023,-8.85609273715513
-0.09770000000000012,-8.85609273715513
-0.09870000000000023,-8.85609273715513
-0.09970000000000012,-8.943804837746763
-0.10070000000000023,-8.987660888042578
-0.10170000000000012,-9.031516938338395
-0.10270000000000024,-9.031516938338395
-0.10370000000000013,-8.987660888042578
-0.10470000000000024,-8.987660888042578
-0.10570000000000013,-8.987660888042578
-0.10670000000000024,-9.031516938338395
-0.10770000000000013,-9.11781432763016
-0.10870000000000024,-9.161670377925978
-0.10970000000000013,-9.161670377925978
-0.11070000000000024,-9.11781432763016
-0.11170000000000013,-9.11781432763016
-0.11270000000000002,-9.11781432763016
-0.11370000000000013,-9.205526428221793
-0.11470000000000002,-9.24938247851761
-0.11570000000000014,-9.293238528813426
-0.11670000000000003,-9.24938247851761
-0.11770000000000014,-9.24938247851761
-0.11870000000000003,-9.205526428221793
-0.11970000000000014,-9.293238528813426
-0.12070000000000003,-9.335679867809377
-0.12170000000000014,-9.379535918105192
-0.12270000000000003,-9.335679867809377
-0.12370000000000014,-9.335679867809377
-0.12470000000000003,-9.335679867809377
-0.12570000000000014,-9.379535918105192
-0.12670000000000003,-9.467248018696827
-0.12770000000000015,-9.511104068992642
-0.12870000000000004,-9.55496011928846
-0.12970000000000015,-9.511104068992642
-0.13070000000000004,-9.467248018696827
-0.13170000000000015,-9.423391968401008
-0.13270000000000004,-9.467248018696827
-0.13370000000000015,-9.55496011928846
-0.13470000000000004,-9.641257508580225
-0.13570000000000015,-9.641257508580225
-0.13670000000000004,-9.59740145828441
-0.13770000000000016,-9.55496011928846
-0.13870000000000005,-9.511104068992642
-0.13970000000000016,-9.55496011928846
-0.14070000000000005,-9.641257508580225
-0.14170000000000016,-9.685113558876042
-0.14270000000000005,-9.685113558876042
-0.14370000000000016,-9.685113558876042
-0.14470000000000005,-9.59740145828441
-0.14570000000000016,-9.641257508580225
-0.14670000000000005,-9.685113558876042
-0.14770000000000016,-9.728969609171857
-0.14870000000000005,-9.772825659467674
-0.14970000000000017,-9.728969609171857
-0.15070000000000006,-9.728969609171857
-0.15170000000000017,-9.728969609171857
-0.15270000000000006,-9.728969609171857
-0.15370000000000017,-9.772825659467674
-0.15470000000000006,-9.81668170976349
-0.15570000000000017,-9.81668170976349
-0.15670000000000006,-9.772825659467674
-0.15770000000000017,-9.728969609171857
-0.15870000000000006,-9.728969609171857
-0.15970000000000018,-9.772825659467674
-0.16070000000000007,-9.81668170976349
-0.16170000000000018,-9.85912304875944
-0.16270000000000007,-9.81668170976349
-0.16370000000000018,-9.772825659467674
-0.16470000000000007,-9.772825659467674
-0.16570000000000018,-9.772825659467674
-0.16670000000000007,-9.81668170976349
-0.16770000000000018,-9.85912304875944
-0.16870000000000007,-9.85912304875944
-0.16970000000000018,-9.81668170976349
-0.17070000000000007,-9.772825659467674
-0.17170000000000019,-9.728969609171857
-0.17270000000000008,-9.728969609171857
-0.1737000000000002,-9.772825659467674
-0.17470000000000008,-9.81668170976349
-0.1757000000000002,-9.81668170976349
-0.17670000000000008,-9.772825659467674
-0.1777000000000002,-9.728969609171857
-0.17870000000000008,-9.685113558876042
-0.1797000000000002,-9.728969609171857
-0.18070000000000008,-9.772825659467674
-0.1817000000000002,-9.81668170976349
-0.18270000000000008,-9.772825659467674
-0.1837000000000002,-9.728969609171857
-0.1847000000000001,-9.685113558876042
-0.1857000000000002,-9.685113558876042
-0.1867000000000001,-9.685113558876042
-0.1877000000000002,-9.772825659467674
-0.1887000000000001,-9.772825659467674
-0.1897000000000002,-9.772825659467674
-0.1907000000000001,-9.685113558876042
-0.1917000000000001,-9.641257508580225
-0.19269999999999998,-9.641257508580225
-0.1937000000000001,-9.685113558876042
-0.19469999999999998,-9.728969609171857
-0.1957000000000001,-9.728969609171857
-0.19669999999999999,-9.641257508580225
-0.1977000000000001,-9.59740145828441
-0.1987,-9.59740145828441
-0.1997000000000001,-9.59740145828441
-0.2007,-9.641257508580225
-0.2017000000000001,-9.685113558876042
-0.2027,-9.641257508580225
-0.2037000000000001,-9.59740145828441
-0.2047,-9.55496011928846
-0.2057000000000001,-9.511104068992642
-0.2067,-9.55496011928846
-0.2077000000000001,-9.59740145828441
-0.2087,-9.641257508580225
-0.2097000000000001,-9.59740145828441
-0.2107,-9.55496011928846
-0.2117000000000001,-9.511104068992642
-0.2127,-9.511104068992642
-0.2137000000000001,-9.511104068992642
-0.2147,-9.55496011928846
-0.2157000000000001,-9.59740145828441
-0.2167,-9.55496011928846
-0.21770000000000012,-9.511104068992642
-0.2187,-9.467248018696827
-0.21970000000000012,-9.511104068992642
-0.2207,-9.511104068992642
-0.22170000000000012,-9.55496011928846
-0.2227,-9.511104068992642
-0.22370000000000012,-9.467248018696827
-0.2247,-9.423391968401008
-0.22570000000000012,-9.423391968401008
-0.2267,-9.467248018696827
-0.22770000000000012,-9.511104068992642
-0.22870000000000001,-9.511104068992642
-0.22970000000000013,-9.467248018696827
-0.23070000000000002,-9.423391968401008
-0.23170000000000013,-9.379535918105192
-0.23270000000000002,-9.379535918105192
-0.23370000000000013,-9.423391968401008
-0.23470000000000002,-9.423391968401008
-0.23570000000000013,-9.511104068992642
-0.23670000000000002,-9.467248018696827
-0.2376999999999999,-9.335679867809377
-0.23870000000000002,-9.293238528813426
-0.2396999999999999,-9.293238528813426
-0.24070000000000003,-9.379535918105192
-0.24169999999999991,-9.423391968401008
-0.24270000000000003,-9.423391968401008
-0.24369999999999992,-9.379535918105192
-0.24470000000000003,-9.293238528813426
-0.24569999999999992,-9.293238528813426
-0.24670000000000003,-9.293238528813426
-0.24769999999999992,-9.335679867809377
-0.24870000000000003,-9.379535918105192
-0.24969999999999992,-9.379535918105192
-0.25070000000000003,-9.335679867809377
-0.2516999999999999,-9.293238528813426
-0.25270000000000004,-9.293238528813426
-0.2536999999999999,-9.335679867809377
-0.25470000000000004,-9.335679867809377
-0.2556999999999999,-9.379535918105192
-0.25670000000000004,-9.335679867809377
-0.25769999999999993,-9.293238528813426
-0.25870000000000004,-9.24938247851761
-0.25969999999999993,-9.293238528813426
-0.26070000000000004,-9.335679867809377
-0.26169999999999993,-9.335679867809377
-0.26270000000000004,-9.335679867809377
-0.26369999999999993,-9.293238528813426
-0.26470000000000005,-9.293238528813426
-0.26569999999999994,-9.293238528813426
-0.26670000000000005,-9.335679867809377
-0.26769999999999994,-9.379535918105192
-0.26870000000000005,-9.423391968401008
-0.26969999999999994,-9.379535918105192
-0.27070000000000005,-9.335679867809377
-0.27169999999999994,-9.335679867809377
-0.27270000000000005,-9.335679867809377
-0.27369999999999994,-9.379535918105192
-0.27470000000000006,-9.467248018696827
-0.27569999999999995,-9.467248018696827
-0.27670000000000006,-9.423391968401008
-0.27769999999999995,-9.379535918105192
-0.27870000000000006,-9.379535918105192
-0.27969999999999995,-9.423391968401008
-0.28070000000000006,-9.467248018696827
-0.28169999999999995,-9.511104068992642
-0.28270000000000006,-9.511104068992642
-0.28369999999999995,-9.511104068992642
-0.28470000000000006,-9.467248018696827
-0.28569999999999995,-9.511104068992642
-0.28670000000000007,-9.55496011928846
-0.28769999999999996,-9.59740145828441
-0.28870000000000007,-9.641257508580225
-0.28969999999999996,-9.641257508580225
-0.29070000000000007,-9.59740145828441
-0.29169999999999996,-9.59740145828441
-0.29270000000000007,-9.641257508580225
-0.29369999999999996,-9.728969609171857
-0.2947000000000001,-9.772825659467674
-0.29569999999999996,-9.81668170976349
-0.2967000000000001,-9.81668170976349
-0.29769999999999996,-9.81668170976349
-0.2987000000000001,-9.81668170976349
-0.29969999999999997,-9.85912304875944
-0.3007000000000001,-9.946835149351072
-0.30169999999999997,-10.034547249942705
-0.3027000000000001,-10.034547249942705
-0.30369999999999997,-10.034547249942705
-0.3047000000000001,-10.034547249942705
-0.30569999999999997,-10.120844639234473
-0.3067000000000001,-10.208556739826104
-0.3077,-10.296268840417738
-0.3087000000000001,-10.340124890713554
-0.3097,-10.382566229709504
-0.3107000000000001,-10.382566229709504
-0.3117,-10.42642228000532
-0.3127000000000001,-10.514134380596953
-0.3137,-10.644287820184536
-0.3147000000000001,-10.731999920776168
-0.3157,-10.819712021367803
-0.3167000000000001,-10.863568071663616
-0.3177,-10.906009410659568
-0.3187000000000001,-10.993721511251199
-0.3197,-11.081433611842833
-0.3207000000000001,-11.255443101726232
-0.3217,-11.385596541313816
-0.3227000000000001,-11.473308641905447
-0.3237,-11.56102074249708
-0.3247000000000001,-11.647318131788847
-0.3257,-11.778886282676295
-0.3267000000000001,-11.952895772559694
-0.3277,-12.12831997374296
-0.3287000000000001,-12.302329463626359
-0.3297,-12.432482903213943
-0.3307000000000001,-12.56405105410139
-0.3317,-12.73806054398479
-0.3327000000000001,-12.913484745168056
-0.3337,-13.175206335643086
-0.3347000000000001,-13.3930718758223
-0.3357,-13.610937416001518
-0.3367000000000001,-13.828802956180734
-0.3377,-14.002812446064135
-0.3387000000000001,-14.26028990263957
-0.3397,-14.529085049613924
-0.3407000000000001,-14.868615761581536
-0.3417,-15.179852247551842
-0.3427000000000001,-15.491088733522153
-0.3437,-15.78817810649381
-0.3447000000000001,-16.141855931460068
-0.3457,-16.53797509542228
-0.3467000000000001,-16.962388485381787
-0.3477,-17.40094898833995
-0.3487000000000001,-17.839509491298113
-0.3497,-18.320511333252224
-0.3507000000000001,-18.80151317520634
-0.3517,-19.3249563561564
-0.3527000000000001,-19.93328221509837
-0.3537,-20.541608074040333
-0.3547000000000001,-21.2065223849769
-0.3557,-21.94217226090672
-0.35670000000000013,-22.63538079784059
-0.3577,-23.385177786769056
-0.35870000000000013,-24.20571034069078
-0.3597,-25.0828313466071
-0.36070000000000013,-26.044835030515326
-0.3617,-27.049280053419505
-0.3626999999999999,-28.05372507632368
-0.3637,-29.100611438223805
-0.3646999999999999,-30.189939139119886
-0.3657,-31.36414951800786
-0.3666999999999999,-32.62324257488775
-0.3677,-33.93892408376223
-0.3686999999999999,-35.32534115762997
-0.36970000000000003,-36.6834640055004
-0.3706999999999999,-38.12646953136274
-0.37170000000000003,-39.654357735216976
-0.3726999999999999,-41.22468727806717
-0.37370000000000003,-42.92234083790521
-0.3746999999999999,-44.66243573673921
-0.37570000000000003,-46.41667774857186
-0.3766999999999999,-48.156772647405845
-0.37770000000000004,-49.89686754623985
-0.3786999999999999,-51.73599223606439
-0.37970000000000004,-53.68829382987814
-0.3806999999999999,-55.7820665536784
-0.38170000000000004,-57.93242772947325
-0.38269999999999993,-60.06864179226946
-0.38370000000000004,-62.11997317707376
-0.38469999999999993,-64.29862857886593
-0.38570000000000004,-66.51972531965401
-0.38669999999999993,-67.7788183765339
-0.38570000000000004,-67.73637703753796
-0.38469999999999993,-68.04761352350828
-0.38370000000000004,-68.21737887949207
-0.38269999999999993,-68.34470289647993
-0.38170000000000004,-68.44373268747047
-0.3806999999999999,-68.52861536546239
-0.37970000000000004,-68.57105670445833
-0.3786999999999999,-68.61349804345427
-0.37770000000000004,-68.52861536546239
-0.3766999999999999,-68.30226155748396
-0.37570000000000003,-68.04761352350828
-0.3746999999999999,-67.7788183765339
-0.37370000000000003,-67.48172900356225
-0.3726999999999999,-67.17049251759194
-0.37170000000000003,-66.77437335362974
-0.3706999999999999,-66.29337151167562
-0.36970000000000003,-65.7274869917296
-0.3686999999999999,-65.16160247178358
-0.3677,-64.63815929083353
-0.3666999999999999,-64.11471610988345
-0.3657,-63.54883158993744
-0.3646999999999999,-62.94050573099548
-0.3637,-62.24729719406162
-0.3626999999999999,-61.53994154412909
-0.3617,-60.80429166819927
-0.36070000000000013,-60.11108313126541
-0.3597,-59.403727481332886
-0.35870000000000013,-58.71051894439902
-0.3577,-57.974869068469204
-0.35670000000000013,-57.14018940154883
-0.3557,-56.36209818662306
-0.3547000000000001,-55.484977180706736
-0.3537,-54.65029751378637
-0.3527000000000001,-53.872206298860604
-0.3517,-53.079967970936174
-0.3507000000000001,-52.30187675601041
-0.3497,-51.46719708909004
-0.3487000000000001,-50.60422319617236
-0.3477,-49.642219512264134
-0.3467000000000001,-48.76509850634781
-0.3457,-47.8879775004315
-0.3447000000000001,-47.10988628550572
-0.3437,-46.27520661858535
-0.3427000000000001,-45.412232725667685
-0.3417,-44.535111719751356
-0.3407000000000001,-43.75702050482558
-0.3397,-42.92234083790521
-0.3387000000000001,-42.130102509980794
-0.3377,-41.352011295055014
-0.3367000000000001,-40.4748902891387
-0.3357,-39.696799074212926
-0.3347000000000001,-38.86211940729255
-0.3337,-38.12646953136274
-0.3327000000000001,-37.334231203438314
-0.3317,-36.5985813275085
-0.3307000000000001,-35.806342999584075
-0.3297,-34.98581044566235
-0.3287000000000001,-34.193572117737936
-0.3277,-33.45792224180811
-0.3267000000000001,-32.764713704874254
-0.3257,-32.05735805494172
-0.3247000000000001,-31.321708179011907
-0.3237,-30.571911190083444
-0.3227000000000001,-29.836261314153624
-0.3217,-29.100611438223805
-0.3207000000000001,-28.435697127287238
-0.3197,-27.78492992934932
-0.3187000000000001,-27.176604070407354
-0.3177,-26.483395533473487
-0.3167000000000001,-25.77603988354097
-0.3157,-25.0828313466071
-0.3147000000000001,-24.432064148669184
-0.3137,-23.823738289727217
-0.3127000000000001,-23.24370665678255
-0.3117,-22.67782213683654
-0.3107000000000001,-22.027054938898623
-0.3097,-21.418729079956652
-0.3087000000000001,-20.76796188201874
-0.3077,-20.202077362072725
-0.3067000000000001,-19.678634181122664
-0.30569999999999997,-19.155191000172596
-0.3047000000000001,-18.589306480226583
-0.30369999999999997,-18.009274847281915
-0.3027000000000001,-17.4433903273359
-0.30169999999999997,-16.962388485381787
-0.3007000000000001,-16.495533756426326
-0.29969999999999997,-15.972090575476265
-0.2987000000000001,-15.533530072518102
-0.29769999999999996,-15.05252823056399
-0.2967000000000001,-14.529085049613924
-0.29569999999999996,-14.046668496359947
-0.2947000000000001,-13.567081365705702
-0.29369999999999996,-13.13135028534727
-0.29270000000000007,-12.73806054398479
-0.29169999999999996,-12.346185513922174
-0.29070000000000007,-11.909039722263879
-0.28969999999999996,-11.473308641905447
-0.28870000000000007,-11.037577561547016
-0.28769999999999996,-10.644287820184536
-0.28670000000000007,-10.296268840417738
-0.28569999999999995,-9.946835149351072
-0.28470000000000006,-9.59740145828441
-0.28369999999999995,-9.161670377925978
-0.28270000000000006,-8.812236686859313
-0.28169999999999995,-8.4203616567967
-0.28070000000000006,-8.11478401602585
-0.27969999999999995,-7.809206375255003
-0.27870000000000006,-7.5474847847799715
-0.27769999999999995,-7.199465805013171
-0.27670000000000006,-6.893888164242324
-0.27569999999999995,-6.54445447317566
-0.27470000000000006,-6.238876832404812
-0.27369999999999994,-5.977155241929781
-0.27270000000000005,-5.715433651454749
-0.27169999999999994,-5.497568111275533
-0.27070000000000005,-5.191990470504685
-0.26969999999999994,-4.9302688800296535
-0.26870000000000005,-4.626105950558669
-0.26769999999999994,-4.364384360083638
-0.26670000000000005,-4.146518819904423
-0.26569999999999994,-3.971094618721158
-0.26470000000000005,-3.7532290785419424
-0.26369999999999993,-3.5353635383627267
-0.26270000000000004,-3.273641947887695
