Potential V vs RHE, Current mA cm-2
0.013299999999999867,-0.4384190318281749
0.012299999999999978,-1.8334658446250875
0.011299999999999866,-3.0119203574126634
0.010299999999999976,-3.927238568425342
0.009299999999999864,-4.756259390146253
0.008299999999999974,-5.453712060979717
0.007299999999999862,-6.021011292225596
0.006299999999999972,-6.54445447317566
0.00529999999999986,-6.981600264833956
0.0042999999999999705,-7.329619244600755
0.0032999999999998586,-7.679052935667419
0.0022999999999999687,-7.940774526142452
0.0012999999999998568,-8.158640066321666
0.00029999999999996696,-8.376505606500881
-0.000700000000000145,-8.55051509638428
-0.0017000000000000348,-8.725939297567548
-0.0027000000000001467,-8.85609273715513
-0.0037000000000000366,-9.031516938338395
-0.0047000000000001485,-9.161670377925978
-0.005700000000000038,-9.293238528813426
-0.00670000000000015,-9.423391968401008
-0.00770000000000004,-9.55496011928846
-0.008700000000000152,-9.641257508580225
-0.009700000000000042,-9.772825659467674
-0.010700000000000154,-9.902979099055257
-0.011700000000000044,-9.946835149351072
-0.012700000000000156,-10.034547249942705
-0.013700000000000045,-10.078403300238522
-0.014700000000000157,-10.164700689530287
-0.015700000000000047,-10.25241279012192
-0.01670000000000016,-10.296268840417738
-0.01770000000000005,-10.382566229709504
-0.01870000000000016,-10.470278330301136
-0.01970000000000005,-10.601846481188586
-0.020700000000000163,-10.688143870480351
-0.021700000000000053,-10.775855971071984
-0.022700000000000164,-10.863568071663616
-0.023700000000000054,-10.906009410659568
-0.024700000000000166,-10.949865460955383
-0.025700000000000056,-11.037577561547016
-0.026700000000000168,-11.081433611842833
-0.027700000000000058,-11.123874950838783
-0.02870000000000017,-11.211587051430415
-0.02970000000000006,-11.255443101726232
-0.03070000000000017,-11.343155202317865
-0.03170000000000006,-11.473308641905447
-0.03270000000000017,-11.56102074249708
-0.03370000000000006,-11.647318131788847
-0.034700000000000175,-11.73503023238048
-0.035700000000000065,-11.82274233297211
-0.03670000000000018,-11.909039722263879
-0.03770000000000007,-11.952895772559694
-0.03870000000000018,-11.996751822855511
-0.03970000000000007,-12.040607873151327
-0.04070000000000018,-12.084463923447142
-0.04170000000000007,-12.170761312738911
-0.04270000000000018,-12.214617363034726
-0.04370000000000007,-12.302329463626359
-0.044700000000000184,-12.390041564217992
-0.045700000000000074,-12.476338953509758
-0.046700000000000186,-12.56405105410139
-0.047700000000000076,-12.694204493688973
-0.04870000000000019,-12.781916594280606
-0.04970000000000008,-12.825772644576423
-0.05070000000000019,-12.869628694872238
-0.05170000000000008,-12.913484745168056
-0.05270000000000019,-12.955926084164007
-0.05370000000000008,-12.99978213445982
-0.05470000000000019,-13.043638184755638
-0.05570000000000008,-13.087494235051453
-0.056700000000000195,-13.175206335643086
-0.057700000000000085,-13.261503724934855
-0.058700000000000196,-13.349215825526485
-0.059700000000000086,-13.436927926118118
-0.0607000000000002,-13.523225315409885
-0.06170000000000009,-13.610937416001518
-0.0627000000000002,-13.698649516593148
-0.06370000000000009,-13.741090855589102
-0.0647000000000002,-13.784946905884919
-0.06570000000000009,-13.828802956180734
-0.0667000000000002,-13.828802956180734
-0.0677000000000001,-13.872659006476551
-0.0687000000000002,-13.872659006476551
-0.0697000000000001,-13.916515056772363
-0.07070000000000021,-14.002812446064135
-0.0717000000000001,-14.046668496359947
-0.07270000000000021,-14.13438059695158
-0.0737000000000001,-14.175407224647667
-0.07470000000000021,-14.26028990263957
-0.0757000000000001,-14.345172580631472
-0.07670000000000021,-14.401761032626075
-0.0777000000000001,-14.444202371622024
-0.07870000000000021,-14.486643710617974
-0.0797000000000001,-14.486643710617974
-0.08070000000000022,-14.486643710617974
-0.0817000000000001,-14.529085049613924
-0.08270000000000022,-14.529085049613924
-0.08370000000000011,-14.57152638860988
-0.08470000000000022,-14.65640906660178
-0.08570000000000011,-14.69885040559773
-0.08670000000000022,-14.783733083589633
-0.08770000000000011,-14.868615761581536
-0.08870000000000022,-14.925204213576137
-0.08970000000000011,-15.01008689156804
-0.09070000000000022,-15.01008689156804
-0.09170000000000011,-15.05252823056399
-0.09270000000000023,-15.05252823056399
-0.09370000000000012,-15.05252823056399
-0.09470000000000023,-15.094969569559943
-0.09570000000000012,-15.137410908555893
-0.09670000000000023,-15.137410908555893
-0.09770000000000012,-15.179852247551842
-0.09870000000000023,-15.222293586547794
-0.09970000000000012,-15.307176264539699
-0.10070000000000023,-15.3920589425316
-0.10170000000000012,-15.448647394526201
-0.10270000000000024,-15.533530072518102
-0.10370000000000013,-15.533530072518102
-0.10470000000000024,-15.575971411514052
-0.10570000000000013,-15.575971411514052
-0.10670000000000024,-15.575971411514052
-0.10770000000000013,-15.618412750510005
-0.10870000000000024,-15.618412750510005
-0.10970000000000013,-15.660854089505953
-0.11070000000000024,-15.70329542850191
-0.11170000000000013,-15.74573676749786
-0.11270000000000002,-15.78817810649381
-0.11370000000000013,-15.830619445489761
-0.11470000000000002,-15.91550212348166
-0.11570000000000014,-15.972090575476265
-0.11670000000000003,-16.014531914472215
-0.11770000000000014,-16.014531914472215
-0.11870000000000003,-16.056973253468165
-0.11970000000000014,-16.056973253468165
-0.12070000000000003,-16.099414592464115
-0.12170000000000014,-16.099414592464115
-0.12270000000000003,-16.099414592464115
-0.12370000000000014,-16.141855931460068
-0.12470000000000003,-16.22673860945197
-0.12570000000000014,-16.269179948447924
-0.12670000000000003,-16.311621287443874
-0.12770000000000015,-16.354062626439823
-0.12870000000000004,-16.396503965435777
-0.12970000000000015,-16.495533756426326
-0.13070000000000004,-16.495533756426326
-0.13170000000000015,-16.495533756426326
-0.13270000000000004,-16.495533756426326
-0.13370000000000015,-16.53797509542228
-0.13470000000000004,-16.53797509542228
-0.13570000000000015,-16.580416434418233
-0.13670000000000004,-16.580416434418233
-0.13770000000000016,-16.622857773414182
-0.13870000000000005,-16.665299112410132
-0.13970000000000016,-16.70774045140608
-0.14070000000000005,-16.792623129397985
-0.14170000000000016,-16.835064468393938
-0.14270000000000005,-16.877505807389888
-0.14370000000000016,-16.877505807389888
-0.14470000000000005,-16.919947146385837
-0.14570000000000016,-16.919947146385837
-0.14670000000000005,-16.919947146385837
-0.14770000000000016,-16.919947146385837
-0.14870000000000005,-16.877505807389888
-0.14970000000000017,-16.877505807389888
-0.15070000000000006,-16.919947146385837
-0.15170000000000017,-16.962388485381787
-0.15270000000000006,-16.962388485381787
-0.15370000000000017,-17.018976937376394
-0.15470000000000006,-17.061418276372343
-0.15570000000000017,-17.061418276372343
-0.15670000000000006,-17.103859615368293
-0.15770000000000017,-17.103859615368293
-0.15870000000000006,-17.103859615368293
-0.15970000000000018,-17.103859615368293
-0.16070000000000007,-17.061418276372343
-0.16170000000000018,-17.061418276372343
-0.16270000000000007,-17.103859615368293
-0.16370000000000018,-17.103859615368293
-0.16470000000000007,-17.146300954364243
-0.16570000000000018,-17.146300954364243
-0.16670000000000007,-17.188742293360193
-0.16770000000000018,-17.231183632356142
-0.16870000000000007,-17.231183632356142
-0.16970000000000018,-17.231183632356142
-0.17070000000000007,-17.231183632356142
-0.17170000000000019,-17.188742293360193
-0.17270000000000008,-17.188742293360193
-0.1737000000000002,-17.188742293360193
-0.17470000000000008,-17.188742293360193
-0.1757000000000002,-17.188742293360193
-0.17670000000000008,-17.188742293360193
-0.1777000000000002,-17.188742293360193
-0.17870000000000008,-17.231183632356142
-0.1797000000000002,-17.231183632356142
-0.18070000000000008,-17.2736249713521
-0.1817000000000002,-17.2736249713521
-0.18270000000000008,-17.2736249713521
-0.1837000000000002,-17.2736249713521
-0.1847000000000001,-17.231183632356142
-0.1857000000000002,-17.188742293360193
-0.1867000000000001,-17.188742293360193
-0.1877000000000002,-17.146300954364243
-0.1887000000000001,-17.146300954364243
-0.1897000000000002,-17.146300954364243
-0.1907000000000001,-17.146300954364243
-0.1917000000000001,-17.188742293360193
-0.19269999999999998,-17.188742293360193
-0.1937000000000001,-17.188742293360193
-0.19469999999999998,-17.188742293360193
-0.1957000000000001,-17.231183632356142
-0.19669999999999999,-17.188742293360193
-0.1977000000000001,-17.188742293360193
-0.1987,-17.146300954364243
-0.1997000000000001,-17.146300954364243
-0.2007,-17.103859615368293
-0.2017000000000001,-17.061418276372343
-0.2027,-17.061418276372343
-0.2037000000000001,-17.061418276372343
-0.2047,-17.061418276372343
-0.2057000000000001,-17.103859615368293
-0.2067,-17.061418276372343
-0.2077000000000001,-17.103859615368293
-0.2087,-17.103859615368293
-0.2097000000000001,-17.103859615368293
-0.2107,-17.103859615368293
-0.2117000000000001,-17.061418276372343
-0.2127,-17.018976937376394
-0.2137000000000001,-16.962388485381787
-0.2147,-16.962388485381787
-0.2157000000000001,-16.962388485381787
-0.2167,-16.919947146385837
-0.21770000000000012,-16.919947146385837
-0.2187,-16.919947146385837
-0.21970000000000012,-16.919947146385837
-0.2207,-16.962388485381787
-0.22170000000000012,-16.919947146385837
-0.2227,-16.919947146385837
-0.22370000000000012,-16.919947146385837
-0.2247,-16.877505807389888
-0.22570000000000012,-16.877505807389888
-0.2267,-16.835064468393938
-0.22770000000000012,-16.792623129397985
-0.22870000000000001,-16.792623129397985
-0.22970000000000013,-16.750181790402035
-0.23070000000000002,-16.750181790402035
-0.23170000000000013,-16.750181790402035
-0.23270000000000002,-16.750181790402035
-0.23370000000000013,-16.750181790402035
-0.23470000000000002,-16.750181790402035
-0.23570000000000013,-16.750181790402035
-0.23670000000000002,-16.792623129397985
-0.2376999999999999,-16.750181790402035
-0.23870000000000002,-16.70774045140608
-0.2396999999999999,-16.70774045140608
-0.24070000000000003,-16.665299112410132
-0.24169999999999991,-16.622857773414182
-0.24270000000000003,-16.622857773414182
-0.24369999999999992,-16.622857773414182
-0.24470000000000003,-16.622857773414182
-0.24569999999999992,-16.622857773414182
-0.24670000000000003,-16.622857773414182
-0.24769999999999992,-16.622857773414182
-0.24870000000000003,-16.622857773414182
-0.24969999999999992,-16.622857773414182
-0.25070000000000003,-16.622857773414182
-0.2516999999999999,-16.580416434418233
-0.25270000000000004,-16.53797509542228
-0.2536999999999999,-16.53797509542228
-0.25470000000000004,-16.495533756426326
-0.2556999999999999,-16.495533756426326
-0.25670000000000004,-16.495533756426326
-0.25769999999999993,-16.495533756426326
-0.25870000000000004,-16.495533756426326
-0.25969999999999993,-16.53797509542228
-0.26070000000000004,-16.53797509542228
-0.26169999999999993,-16.53797509542228
-0.26270000000000004,-16.580416434418233
-0.26369999999999993,-16.53797509542228
-0.26470000000000005,-16.495533756426326
-0.26569999999999994,-16.438945304431726
-0.26670000000000005,-16.438945304431726
-0.26769999999999994,-16.396503965435777
-0.26870000000000005,-16.396503965435777
-0.26969999999999994,-16.354062626439823
-0.27070000000000005,-16.354062626439823
-0.27169999999999994,-16.354062626439823
-0.27270000000000005,-16.396503965435777
-0.27369999999999994,-16.438945304431726
-0.27470000000000006,-16.438945304431726
-0.27569999999999995,-16.438945304431726
-0.27670000000000006,-16.438945304431726
-0.27769999999999995,-16.396503965435777
-0.27870000000000006,-16.396503965435777
-0.27969999999999995,-16.354062626439823
-0.28070000000000006,-16.311621287443874
-0.28169999999999995,-16.311621287443874
-0.28270000000000006,-16.269179948447924
-0.28369999999999995,-16.311621287443874
-0.28470000000000006,-16.311621287443874
-0.28569999999999995,-16.354062626439823
-0.28670000000000007,-16.354062626439823
-0.28769999999999996,-16.354062626439823
-0.28870000000000007,-16.354062626439823
-0.28969999999999996,-16.396503965435777
-0.29070000000000007,-16.354062626439823
-0.29169999999999996,-16.354062626439823
-0.29270000000000007,-16.354062626439823
-0.29369999999999996,-16.311621287443874
-0.2947000000000001,-16.311621287443874
-0.29569999999999996,-16.311621287443874
-0.2967000000000001,-16.311621287443874
-0.29769999999999996,-16.311621287443874
-0.2987000000000001,-16.311621287443874
-0.29969999999999997,-16.354062626439823
-0.3007000000000001,-16.396503965435777
-0.30169999999999997,-16.396503965435777
-0.3027000000000001,-16.396503965435777
-0.30369999999999997,-16.396503965435777
-0.3047000000000001,-16.396503965435777
-0.30569999999999997,-16.396503965435777
-0.3067000000000001,-16.396503965435777
-0.3077,-16.396503965435777
-0.3087000000000001,-16.396503965435777
-0.3097,-16.396503965435777
-0.3107000000000001,-16.438945304431726
-0.3117,-16.495533756426326
-0.3127000000000001,-16.495533756426326
-0.3137,-16.53797509542228
-0.3147000000000001,-16.580416434418233
-0.3157,-16.622857773414182
-0.3167000000000001,-16.665299112410132
-0.3177,-16.665299112410132
-0.3187000000000001,-16.665299112410132
-0.3197,-16.665299112410132
-0.3207000000000001,-16.665299112410132
-0.3217,-16.70774045140608
-0.3227000000000001,-16.750181790402035
-0.3237,-16.750181790402035
-0.3247000000000001,-16.835064468393938
-0.3257,-16.877505807389888
-0.3267000000000001,-16.919947146385837
-0.3277,-17.018976937376394
-0.3287000000000001,-17.061418276372343
-0.3297,-17.146300954364243
-0.3307000000000001,-17.188742293360193
-0.3317,-17.231183632356142
-0.3327000000000001,-17.2736249713521
-0.3337,-17.316066310348052
-0.3347000000000001,-17.358507649344002
-0.3357,-17.40094898833995
-0.3367000000000001,-17.48583166633185
-0.3377,-17.584861457322408
-0.3387000000000001,-17.669744135314307
-0.3397,-17.797068152302163
-0.3407000000000001,-17.881950830294063
-0.3417,-18.009274847281915
-0.3427000000000001,-18.15074597726842
-0.3437,-18.23562865526032
-0.3447000000000001,-18.320511333252224
-0.3457,-18.44783535024008
-0.3467000000000001,-18.53271802823198
-0.3477,-18.674189158218486
-0.3487000000000001,-18.80151317520634
-0.3497,-18.92883719219419
-0.3507000000000001,-19.112749661176647
-0.3517,-19.28251501716045
-0.3527000000000001,-19.452280373144255
-0.3537,-19.678634181122664
-0.3547000000000001,-19.848399537106463
-0.3557,-20.06060623208622
-0.35670000000000013,-20.286960040064624
-0.3577,-20.499166735044383
-0.35870000000000013,-20.72552054302279
-0.3597,-20.93772723800254
-0.36070000000000013,-21.107492593986347
-0.3617,-21.376287740960702
-0.3626999999999999,-21.63093577493641
-0.3637,-21.94217226090672
-0.3646999999999999,-22.253408746877028
-0.3657,-22.592939458844636
-0.3666999999999999,-22.946617283810895
-0.3677,-23.300295108777156
-0.3686999999999999,-23.682267159740714
-0.36970000000000003,-24.078386323702922
-0.3706999999999999,-24.474505487665134
-0.37170000000000003,-24.9130659906233
-0.3726999999999999,-25.337479380582806
-0.37370000000000003,-25.73359854454502
-0.3746999999999999,-26.21460038649913
-0.37570000000000003,-26.738043567449193
-0.3766999999999999,-27.303928087395207
-0.37770000000000004,-27.869812607341224
-0.3786999999999999,-28.478138466283188
-0.37970000000000004,-29.18549411621571
-0.3806999999999999,-29.878702653149578
-0.38170000000000004,-30.571911190083444
-0.38269999999999993,-31.321708179011907
-0.38370000000000004,-32.05735805494172
-0.38469999999999993,-32.84959638286615
-0.38570000000000004,-33.712570275783825
-0.38669999999999993,-33.41548090281216
-0.38570000000000004,-31.618797551983565
-0.38469999999999993,-30.529469851087494
-0.38370000000000004,-29.751378636161718
-0.38269999999999993,-29.22793545521166
-0.38170000000000004,-28.789374952253496
-0.3806999999999999,-28.435697127287238
-0.37970000000000004,-28.13860775431558
-0.3786999999999999,-27.869812607341224
-0.37770000000000004,-27.615164573365515
-0.3766999999999999,-27.34636942639116
-0.37570000000000003,-27.091721392415455
-0.3746999999999999,-26.822926245441096
-0.37370000000000003,-26.568278211465387
-0.3726999999999999,-26.29948306449103
-0.37170000000000003,-26.044835030515326
-0.3706999999999999,-25.81848122253692
-0.36970000000000003,-25.563833188561212
-0.3686999999999999,-25.337479380582806
-0.3677,-25.12527268560305
-0.3666999999999999,-24.870624651627345
-0.3657,-24.601829504652986
-0.3646999999999999,-24.34718147067728
-0.3637,-24.078386323702922
-0.3626999999999999,-23.823738289727217
-0.3617,-23.47006046476096
-0.36070000000000013,-23.15882397879065
-0.3597,-22.861734605818995
-0.35870000000000013,-22.550498119848687
-0.3577,-22.253408746877028
-0.35670000000000013,-21.94217226090672
-0.3557,-21.63093577493641
-0.3547000000000001,-21.333846401964752
-0.3537,-21.022609915994444
-0.3527000000000001,-20.72552054302279
-0.3517,-20.414284057052477
-0.3507000000000001,-20.06060623208622
-0.3497,-19.721075520118614
-0.3487000000000001,-19.367397695152352
-0.3477,-18.97127853119014
-0.3467000000000001,-18.631747819222536
-0.3457,-18.23562865526032
-0.3447000000000001,-17.924392169290012
-0.3437,-17.584861457322408
-0.3427000000000001,-17.231183632356142
-0.3417,-16.919947146385837
-0.3407000000000001,-16.622857773414182
-0.3397,-16.269179948447924
-0.3387000000000001,-15.91550212348166
-0.3377,-15.575971411514052
-0.3367000000000001,-15.222293586547794
-0.3357,-14.826174422585586
-0.3347000000000001,-14.486643710617974
-0.3337,-14.090524546655764
-0.3327000000000001,-13.741090855589102
-0.3317,-13.3930718758223
-0.3307000000000001,-13.043638184755638
-0.3297,-12.694204493688973
-0.3287000000000001,-12.390041564217992
-0.3277,-12.084463923447142
-0.3267000000000001,-11.73503023238048
-0.3257,-11.42945259160963
-0.3247000000000001,-11.123874950838783
-0.3237,-10.775855971071984
-0.3227000000000001,-10.42642228000532
-0.3217,-10.120844639234473
-0.3207000000000001,-9.772825659467674
-0.3197,-9.423391968401008
-0.3187000000000001,-9.073958277334345
-0.3177,-8.769795347863363
-0.3167000000000001,-8.508073757388331
-0.3157,-8.202496116617484
-0.3147000000000001,-7.940774526142452
-0.3137,-7.635196885371603
-0.3127000000000001,-7.37347529489657
-0.3117,-7.111753704421539
-0.3107000000000001,-6.806176063650692
-0.3097,-6.54445447317566
-0.3087000000000001,-6.238876832404812
-0.3077,-5.9347139029338285
-0.3067000000000001,-5.672992312458796
-0.30569999999999997,-5.367414671687949
-0.3047000000000001,-5.105693081212917
-0.30369999999999997,-4.843971490737885
-0.3027000000000001,-4.582249900262854
-0.30169999999999997,-4.364384360083638
-0.3007000000000001,-4.146518819904423
-0.29969999999999997,-3.927238568425342
-0.2987000000000001,-3.7093730282461257
-0.29769999999999996,-3.447651437771094
-0.2967000000000001,-3.2297858975918787
-0.29569999999999996,-3.0119203574126634
-0.2947000000000001,-2.7501987669376318
-0.29369999999999996,-2.532333226758415
-0.29270000000000007,-2.2706116362833835
-0.29169999999999996,-2.052746096104168
-0.29070000000000007,-1.8334658446250875
-0.28969999999999996,-1.6594563547416883
-0.28870000000000007,-1.4415908145624723
-0.28769999999999996,-1.3107300193249565
-0.28670000000000007,-1.0925815368857679
-0.28569999999999995,-0.9617207416482519
-0.28470000000000006,-0.7872868383748929
-0.28369999999999995,-0.5692798270656908
-0.28270000000000006,-0.3947044526623452
-0.28169999999999995,-0.1766974413531431
-0.28070000000000006,0.04140859974704963
-0.27969999999999995,0.21588494435940458
-0.27870000000000006,0.3903188476327636
-0.27769999999999995,0.5647527509061226
-0.27670000000000006,0.6956135461436386
-0.27569999999999995,0.8264743413811545
-0.27470000000000006,1.0010497157844997
-0.27369999999999994,1.1317690398920295
-0.27270000000000005,1.219056727093702
-0.27169999999999994,1.3934906303670611
-0.27070000000000005,1.5250587812545096
