Sept. 27, 2024   15:56:47
Cyclic Voltammetry
File: c:/users/guazh/data/20240922_batch_417_500/2024-09-22-exp464\exp464-2024-09-27t15_36_34-h2koh\exp464_cv_sr_200mvs_efin_-1900mv.bin
Data Source:  Experiment
Instrument Model:  CHI760E
Header: CV ran at 200 mVs
Note: 

Init E (V) = -1
High E (V) = -1
Low E (V) = -1.9
Final E (V) = -1
Init P/N = N
Scan Rate (V/s) = 0.2
Segment = 3
Sample Interval (V) = 0.001
Quiet Time (sec) = 2
Sensitivity (A/V) = 0.01
Comp R (ohm) = 3.2

Results:

Channel 1:
Segment 1:

Segment 2:

Segment 3:

Potential/V, Current/A

-1.000, -2.782e-7
-1.001, -8.090e-8
-1.002, -1.302e-7
-1.003, -1.006e-7
-1.004, -1.598e-7
-1.005, -6.117e-8
-1.006, 5.722e-8
-1.007, -1.500e-7
-1.008, 9.669e-8
-1.009, -2.171e-8
-1.010, -1.973e-9
-1.011, 3.729e-7
-1.012, 8.682e-8
-1.013, 4.223e-7
-1.014, 1.460e-7
-1.015, 1.559e-7
-1.016, 9.669e-8
-1.017, -3.473e-7
-1.018, 1.362e-7
-1.019, 9.669e-8
-1.020, 4.025e-7
-1.021, 5.604e-7
-1.022, 2.841e-7
-1.023, 4.519e-7
-1.024, 4.519e-7
-1.025, 2.151e-7
-1.026, 4.025e-7
-1.027, 3.137e-7
-1.028, 6.492e-7
-1.029, 4.420e-7
-1.030, 4.716e-7
-1.031, 5.111e-7
-1.032, 5.012e-7
-1.033, 6.097e-7
-1.034, 6.294e-7
-1.035, 4.815e-7
-1.036, 5.012e-7
-1.037, 5.012e-7
-1.038, 7.676e-7
-1.039, 5.209e-7
-1.040, 5.111e-7
-1.041, 8.465e-7
-1.042, 4.815e-7
-1.043, 8.662e-7
-1.044, 5.801e-7
-1.045, 6.689e-7
-1.046, 7.084e-7
-1.047, 6.294e-7
-1.048, 8.761e-7
-1.049, 6.689e-7
-1.050, 8.761e-7
-1.051, 8.268e-7
-1.052, 6.788e-7
-1.053, 7.281e-7
-1.054, 1.103e-6
-1.055, 7.774e-7
-1.056, 9.748e-7
-1.057, 8.465e-7
-1.058, 9.748e-7
-1.059, 8.366e-7
-1.060, 1.054e-6
-1.061, 1.054e-6
-1.062, 7.972e-7
-1.063, 1.172e-6
-1.064, 1.004e-6
-1.065, 9.945e-7
-1.066, 1.162e-6
-1.067, 9.846e-7
-1.068, 1.024e-6
-1.069, 1.014e-6
-1.070, 8.860e-7
-1.071, 1.379e-6
-1.072, 7.972e-7
-1.073, 9.353e-7
-1.074, 1.093e-6
-1.075, 1.123e-6
-1.076, 1.192e-6
-1.077, 1.310e-6
-1.078, 1.152e-6
-1.079, 1.152e-6
-1.080, 1.320e-6
-1.081, 1.290e-6
-1.082, 1.142e-6
-1.083, 1.172e-6
-1.084, 1.488e-6
-1.085, 1.290e-6
-1.086, 1.458e-6
-1.087, 1.478e-6
-1.088, 1.468e-6
-1.089, 1.340e-6
-1.090, 1.369e-6
-1.091, 1.251e-6
-1.092, 1.064e-6
-1.093, 1.073e-6
-1.094, 1.350e-6
-1.095, 1.182e-6
-1.096, 1.409e-6
-1.097, 1.271e-6
-1.098, 1.438e-6
-1.099, 1.271e-6
-1.100, 1.488e-6
-1.101, 1.557e-6
-1.102, 1.498e-6
-1.103, 1.300e-6
-1.104, 1.646e-6
-1.105, 1.261e-6
-1.106, 1.665e-6
-1.107, 1.409e-6
-1.108, 1.646e-6
-1.109, 1.340e-6
-1.110, 1.350e-6
-1.111, 1.685e-6
-1.112, 1.488e-6
-1.113, 1.725e-6
-1.114, 1.656e-6
-1.115, 1.606e-6
-1.116, 1.646e-6
-1.117, 1.419e-6
-1.118, 1.596e-6
-1.119, 1.468e-6
-1.120, 1.803e-6
-1.121, 1.902e-6
-1.122, 1.813e-6
-1.123, 1.685e-6
-1.124, 1.636e-6
-1.125, 1.685e-6
-1.126, 1.656e-6
-1.127, 1.665e-6
-1.128, 1.951e-6
-1.129, 1.685e-6
-1.130, 1.508e-6
-1.131, 1.942e-6
-1.132, 1.715e-6
-1.133, 2.011e-6
-1.134, 1.399e-6
-1.135, 2.060e-6
-1.136, 1.951e-6
-1.137, 1.626e-6
-1.138, 1.922e-6
-1.139, 1.675e-6
-1.140, 1.843e-6
-1.141, 1.971e-6
-1.142, 1.823e-6
-1.143, 1.932e-6
-1.144, 1.873e-6
-1.145, 1.764e-6
-1.146, 2.149e-6
-1.147, 1.646e-6
-1.148, 2.011e-6
-1.149, 1.961e-6
-1.150, 2.238e-6
-1.151, 2.208e-6
-1.152, 2.090e-6
-1.153, 2.218e-6
-1.154, 2.188e-6
-1.155, 1.951e-6
-1.156, 2.159e-6
-1.157, 1.912e-6
-1.158, 2.021e-6
-1.159, 2.139e-6
-1.160, 2.080e-6
-1.161, 2.336e-6
-1.162, 1.873e-6
-1.163, 2.563e-6
-1.164, 2.021e-6
-1.165, 2.139e-6
-1.166, 2.159e-6
-1.167, 2.109e-6
-1.168, 2.090e-6
-1.169, 2.119e-6
-1.170, 2.021e-6
-1.171, 2.573e-6
-1.172, 2.021e-6
-1.173, 2.178e-6
-1.174, 2.415e-6
-1.175, 2.238e-6
-1.176, 2.297e-6
-1.177, 2.307e-6
-1.178, 2.514e-6
-1.179, 2.386e-6
-1.180, 2.395e-6
-1.181, 2.415e-6
-1.182, 2.208e-6
-1.183, 2.405e-6
-1.184, 2.563e-6
-1.185, 2.238e-6
-1.186, 2.632e-6
-1.187, 2.395e-6
-1.188, 2.465e-6
-1.189, 2.228e-6
-1.190, 2.465e-6
-1.191, 2.593e-6
-1.192, 2.297e-6
-1.193, 2.583e-6
-1.194, 2.711e-6
-1.195, 2.159e-6
-1.196, 2.524e-6
-1.197, 2.218e-6
-1.198, 2.563e-6
-1.199, 2.553e-6
-1.200, 2.524e-6
-1.201, 2.672e-6
-1.202, 2.395e-6
-1.203, 2.543e-6
-1.204, 2.741e-6
-1.205, 2.277e-6
-1.206, 2.682e-6
-1.207, 2.682e-6
-1.208, 2.504e-6
-1.209, 2.672e-6
-1.210, 2.830e-6
-1.211, 2.642e-6
-1.212, 2.622e-6
-1.213, 2.731e-6
-1.214, 2.928e-6
-1.215, 2.336e-6
-1.216, 2.622e-6
-1.217, 2.741e-6
-1.218, 2.652e-6
-1.219, 3.037e-6
-1.220, 2.859e-6
-1.221, 2.711e-6
-1.222, 2.780e-6
-1.223, 2.751e-6
-1.224, 2.849e-6
-1.225, 2.534e-6
-1.226, 2.849e-6
-1.227, 2.652e-6
-1.228, 2.701e-6
-1.229, 2.899e-6
-1.230, 2.751e-6
-1.231, 2.968e-6
-1.232, 2.770e-6
-1.233, 2.908e-6
-1.234, 3.096e-6
-1.235, 2.662e-6
-1.236, 2.997e-6
-1.237, 2.918e-6
-1.238, 3.066e-6
-1.239, 3.047e-6
-1.240, 3.214e-6
-1.241, 3.047e-6
-1.242, 3.165e-6
-1.243, 3.224e-6
-1.244, 3.126e-6
-1.245, 2.889e-6
-1.246, 3.274e-6
-1.247, 3.007e-6
-1.248, 3.106e-6
-1.249, 3.204e-6
-1.250, 3.086e-6
-1.251, 3.224e-6
-1.252, 2.879e-6
-1.253, 3.274e-6
-1.254, 3.333e-6
-1.255, 2.987e-6
-1.256, 3.382e-6
-1.257, 3.313e-6
-1.258, 3.145e-6
-1.259, 3.293e-6
-1.260, 3.126e-6
-1.261, 3.323e-6
-1.262, 3.195e-6
-1.263, 3.402e-6
-1.264, 3.451e-6
-1.265, 2.958e-6
-1.266, 3.323e-6
-1.267, 3.402e-6
-1.268, 3.619e-6
-1.269, 3.412e-6
-1.270, 3.431e-6
-1.271, 3.451e-6
-1.272, 3.303e-6
-1.273, 3.313e-6
-1.274, 3.796e-6
-1.275, 3.056e-6
-1.276, 3.510e-6
-1.277, 3.491e-6
-1.278, 3.412e-6
-1.279, 3.333e-6
-1.280, 3.441e-6
-1.281, 3.579e-6
-1.282, 3.372e-6
-1.283, 3.678e-6
-1.284, 3.491e-6
-1.285, 3.116e-6
-1.286, 3.767e-6
-1.287, 3.382e-6
-1.288, 3.717e-6
-1.289, 3.639e-6
-1.290, 3.717e-6
-1.291, 3.560e-6
-1.292, 3.520e-6
-1.293, 3.875e-6
-1.294, 3.836e-6
-1.295, 3.500e-6
-1.296, 3.717e-6
-1.297, 3.579e-6
-1.298, 3.550e-6
-1.299, 3.668e-6
-1.300, 3.944e-6
-1.301, 3.816e-6
-1.302, 3.579e-6
-1.303, 4.053e-6
-1.304, 3.895e-6
-1.305, 3.402e-6
-1.306, 4.152e-6
-1.307, 3.787e-6
-1.308, 3.836e-6
-1.309, 3.984e-6
-1.310, 4.033e-6
-1.311, 3.984e-6
-1.312, 3.925e-6
-1.313, 3.747e-6
-1.314, 4.073e-6
-1.315, 3.757e-6
-1.316, 3.974e-6
-1.317, 3.836e-6
-1.318, 4.073e-6
-1.319, 4.033e-6
-1.320, 4.112e-6
-1.321, 4.092e-6
-1.322, 3.895e-6
-1.323, 4.161e-6
-1.324, 4.161e-6
-1.325, 3.787e-6
-1.326, 4.319e-6
-1.327, 3.954e-6
-1.328, 4.260e-6
-1.329, 4.221e-6
-1.330, 4.142e-6
-1.331, 4.418e-6
-1.332, 4.408e-6
-1.333, 4.122e-6
-1.334, 4.448e-6
-1.335, 4.073e-6
-1.336, 4.122e-6
-1.337, 4.171e-6
-1.338, 4.388e-6
-1.339, 4.448e-6
-1.340, 4.556e-6
-1.341, 4.507e-6
-1.342, 4.615e-6
-1.343, 4.724e-6
-1.344, 4.517e-6
-1.345, 4.339e-6
-1.346, 4.369e-6
-1.347, 4.655e-6
-1.348, 4.546e-6
-1.349, 4.605e-6
-1.350, 4.487e-6
-1.351, 4.842e-6
-1.352, 4.369e-6
-1.353, 4.536e-6
-1.354, 4.753e-6
-1.355, 4.428e-6
-1.356, 4.369e-6
-1.357, 4.734e-6
-1.358, 4.931e-6
-1.359, 4.901e-6
-1.360, 4.773e-6
-1.361, 4.832e-6
-1.362, 4.605e-6
-1.363, 4.536e-6
-1.364, 5.109e-6
-1.365, 4.517e-6
-1.366, 4.744e-6
-1.367, 4.892e-6
-1.368, 4.744e-6
-1.369, 5.030e-6
-1.370, 4.753e-6
-1.371, 5.266e-6
-1.372, 5.049e-6
-1.373, 5.109e-6
-1.374, 5.128e-6
-1.375, 4.744e-6
-1.376, 5.010e-6
-1.377, 5.040e-6
-1.378, 5.059e-6
-1.379, 5.148e-6
-1.380, 5.197e-6
-1.381, 5.197e-6
-1.382, 4.990e-6
-1.383, 5.395e-6
-1.384, 5.405e-6
-1.385, 5.286e-6
-1.386, 5.355e-6
-1.387, 5.109e-6
-1.388, 5.454e-6
-1.389, 5.375e-6
-1.390, 5.010e-6
-1.391, 5.503e-6
-1.392, 5.296e-6
-1.393, 5.464e-6
-1.394, 5.750e-6
-1.395, 5.464e-6
-1.396, 5.641e-6
-1.397, 5.671e-6
-1.398, 5.691e-6
-1.399, 5.474e-6
-1.400, 5.454e-6
-1.401, 6.016e-6
-1.402, 5.553e-6
-1.403, 6.105e-6
-1.404, 6.026e-6
-1.405, 5.681e-6
-1.406, 6.026e-6
-1.407, 5.809e-6
-1.408, 6.036e-6
-1.409, 5.987e-6
-1.410, 5.987e-6
-1.411, 6.214e-6
-1.412, 5.898e-6
-1.413, 6.174e-6
-1.414, 6.470e-6
-1.415, 6.214e-6
-1.416, 6.342e-6
-1.417, 6.184e-6
-1.418, 6.391e-6
-1.419, 6.529e-6
-1.420, 6.332e-6
-1.421, 6.539e-6
-1.422, 6.638e-6
-1.423, 6.608e-6
-1.424, 6.608e-6
-1.425, 6.519e-6
-1.426, 6.717e-6
-1.427, 6.865e-6
-1.428, 6.598e-6
-1.429, 7.111e-6
-1.430, 6.736e-6
-1.431, 7.141e-6
-1.432, 7.180e-6
-1.433, 7.190e-6
-1.434, 7.200e-6
-1.435, 7.111e-6
-1.436, 7.388e-6
-1.437, 7.180e-6
-1.438, 7.417e-6
-1.439, 7.338e-6
-1.440, 7.328e-6
-1.441, 7.526e-6
-1.442, 7.684e-6
-1.443, 7.753e-6
-1.444, 7.555e-6
-1.445, 7.486e-6
-1.446, 7.763e-6
-1.447, 7.763e-6
-1.448, 7.703e-6
-1.449, 7.763e-6
-1.450, 7.851e-6
-1.451, 8.049e-6
-1.452, 8.276e-6
-1.453, 8.276e-6
-1.454, 8.591e-6
-1.455, 7.970e-6
-1.456, 8.394e-6
-1.457, 8.226e-6
-1.458, 8.710e-6
-1.459, 8.483e-6
-1.460, 8.463e-6
-1.461, 8.877e-6
-1.462, 8.877e-6
-1.463, 8.690e-6
-1.464, 8.858e-6
-1.465, 8.858e-6
-1.466, 9.045e-6
-1.467, 9.104e-6
-1.468, 9.124e-6
-1.469, 9.321e-6
-1.470, 9.233e-6
-1.471, 9.568e-6
-1.472, 9.400e-6
-1.473, 9.726e-6
-1.474, 9.815e-6
-1.475, 1.002e-5
-1.476, 9.815e-6
-1.477, 1.007e-5
-1.478, 1.001e-5
-1.479, 1.022e-5
-1.480, 9.894e-6
-1.481, 1.032e-5
-1.482, 1.057e-5
-1.483, 1.041e-5
-1.484, 1.089e-5
-1.485, 1.079e-5
-1.486, 1.103e-5
-1.487, 1.100e-5
-1.488, 1.153e-5
-1.489, 1.129e-5
-1.490, 1.130e-5
-1.491, 1.158e-5
-1.492, 1.164e-5
-1.493, 1.164e-5
-1.494, 1.214e-5
-1.495, 1.176e-5
-1.496, 1.200e-5
-1.497, 1.221e-5
-1.498, 1.246e-5
-1.499, 1.252e-5
-1.500, 1.250e-5
-1.501, 1.287e-5
-1.502, 1.270e-5
-1.503, 1.292e-5
-1.504, 1.328e-5
-1.505, 1.313e-5
-1.506, 1.345e-5
-1.507, 1.376e-5
-1.508, 1.354e-5
-1.509, 1.387e-5
-1.510, 1.384e-5
-1.511, 1.449e-5
-1.512, 1.434e-5
-1.513, 1.452e-5
-1.514, 1.489e-5
-1.515, 1.490e-5
-1.516, 1.501e-5
-1.517, 1.523e-5
-1.518, 1.521e-5
-1.519, 1.551e-5
-1.520, 1.560e-5
-1.521, 1.616e-5
-1.522, 1.581e-5
-1.523, 1.620e-5
-1.524, 1.682e-5
-1.525, 1.666e-5
-1.526, 1.702e-5
-1.527, 1.715e-5
-1.528, 1.714e-5
-1.529, 1.757e-5
-1.530, 1.793e-5
-1.531, 1.821e-5
-1.532, 1.804e-5
-1.533, 1.833e-5
-1.534, 1.889e-5
-1.535, 1.903e-5
-1.536, 1.928e-5
-1.537, 1.953e-5
-1.538, 1.983e-5
-1.539, 2.010e-5
-1.540, 2.026e-5
-1.541, 2.081e-5
-1.542, 2.083e-5
-1.543, 2.134e-5
-1.544, 2.141e-5
-1.545, 2.188e-5
-1.546, 2.213e-5
-1.547, 2.272e-5
-1.548, 2.278e-5
-1.549, 2.322e-5
-1.550, 2.343e-5
-1.551, 2.387e-5
-1.552, 2.425e-5
-1.553, 2.453e-5
-1.554, 2.509e-5
-1.555, 2.512e-5
-1.556, 2.587e-5
-1.557, 2.588e-5
-1.558, 2.640e-5
-1.559, 2.679e-5
-1.560, 2.714e-5
-1.561, 2.784e-5
-1.562, 2.807e-5
-1.563, 2.857e-5
-1.564, 2.901e-5
-1.565, 2.910e-5
-1.566, 3.002e-5
-1.567, 3.050e-5
-1.568, 3.104e-5
-1.569, 3.142e-5
-1.570, 3.172e-5
-1.571, 3.254e-5
-1.572, 3.281e-5
-1.573, 3.319e-5
-1.574, 3.416e-5
-1.575, 3.469e-5
-1.576, 3.527e-5
-1.577, 3.594e-5
-1.578, 3.630e-5
-1.579, 3.702e-5
-1.580, 3.766e-5
-1.581, 3.855e-5
-1.582, 3.901e-5
-1.583, 3.955e-5
-1.584, 4.069e-5
-1.585, 4.101e-5
-1.586, 4.165e-5
-1.587, 4.278e-5
-1.588, 4.316e-5
-1.589, 4.418e-5
-1.590, 4.485e-5
-1.591, 4.606e-5
-1.592, 4.634e-5
-1.593, 4.737e-5
-1.594, 4.825e-5
-1.595, 4.879e-5
-1.596, 4.992e-5
-1.597, 5.098e-5
-1.598, 5.165e-5
-1.599, 5.283e-5
-1.600, 5.366e-5
-1.601, 5.497e-5
-1.602, 5.557e-5
-1.603, 5.687e-5
-1.604, 5.795e-5
-1.605, 5.877e-5
-1.606, 6.032e-5
-1.607, 6.116e-5
-1.608, 6.212e-5
-1.609, 6.369e-5
-1.610, 6.491e-5
-1.611, 6.626e-5
-1.612, 6.699e-5
-1.613, 6.860e-5
-1.614, 6.994e-5
-1.615, 7.109e-5
-1.616, 7.250e-5
-1.617, 7.435e-5
-1.618, 7.539e-5
-1.619, 7.708e-5
-1.620, 7.874e-5
-1.621, 8.038e-5
-1.622, 8.154e-5
-1.623, 8.330e-5
-1.624, 8.491e-5
-1.625, 8.651e-5
-1.626, 8.831e-5
-1.627, 9.025e-5
-1.628, 9.202e-5
-1.629, 9.389e-5
-1.630, 9.567e-5
-1.631, 9.811e-5
-1.632, 9.988e-5
-1.633, 1.016e-4
-1.634, 1.040e-4
-1.635, 1.059e-4
-1.636, 1.080e-4
-1.637, 1.107e-4
-1.638, 1.125e-4
-1.639, 1.151e-4
-1.640, 1.176e-4
-1.641, 1.199e-4
-1.642, 1.225e-4
-1.643, 1.248e-4
-1.644, 1.276e-4
-1.645, 1.300e-4
-1.646, 1.330e-4
-1.647, 1.359e-4
-1.648, 1.385e-4
-1.649, 1.415e-4
-1.650, 1.443e-4
-1.651, 1.479e-4
-1.652, 1.501e-4
-1.653, 1.538e-4
-1.654, 1.572e-4
-1.655, 1.601e-4
-1.656, 1.635e-4
-1.657, 1.677e-4
-1.658, 1.709e-4
-1.659, 1.745e-4
-1.660, 1.779e-4
-1.661, 1.819e-4
-1.662, 1.858e-4
-1.663, 1.897e-4
-1.664, 1.942e-4
-1.665, 1.981e-4
-1.666, 2.023e-4
-1.667, 2.064e-4
-1.668, 2.107e-4
-1.669, 2.153e-4
-1.670, 2.199e-4
-1.671, 2.250e-4
-1.672, 2.293e-4
-1.673, 2.339e-4
-1.674, 2.392e-4
-1.675, 2.443e-4
-1.676, 2.496e-4
-1.677, 2.549e-4
-1.678, 2.600e-4
-1.679, 2.655e-4
-1.680, 2.717e-4
-1.681, 2.776e-4
-1.682, 2.833e-4
-1.683, 2.889e-4
-1.684, 2.959e-4
-1.685, 3.014e-4
-1.686, 3.084e-4
-1.687, 3.148e-4
-1.688, 3.212e-4
-1.689, 3.281e-4
-1.690, 3.358e-4
-1.691, 3.431e-4
-1.692, 3.498e-4
-1.693, 3.573e-4
-1.694, 3.651e-4
-1.695, 3.727e-4
-1.696, 3.809e-4
-1.697, 3.890e-4
-1.698, 3.967e-4
-1.699, 4.055e-4
-1.700, 4.142e-4
-1.701, 4.232e-4
-1.702, 4.318e-4
-1.703, 4.407e-4
-1.704, 4.500e-4
-1.705, 4.593e-4
-1.706, 4.688e-4
-1.707, 4.788e-4
-1.708, 4.886e-4
-1.709, 4.989e-4
-1.710, 5.093e-4
-1.711, 5.202e-4
-1.712, 5.304e-4
-1.713, 5.411e-4
-1.714, 5.532e-4
-1.715, 5.640e-4
-1.716, 5.753e-4
-1.717, 5.870e-4
-1.718, 5.994e-4
-1.719, 6.110e-4
-1.720, 6.236e-4
-1.721, 6.365e-4
-1.722, 6.493e-4
-1.723, 6.620e-4
-1.724, 6.755e-4
-1.725, 6.887e-4
-1.726, 7.026e-4
-1.727, 7.169e-4
-1.728, 7.309e-4
-1.729, 7.450e-4
-1.730, 7.599e-4
-1.731, 7.757e-4
-1.732, 7.903e-4
-1.733, 8.059e-4
-1.734, 8.221e-4
-1.735, 8.384e-4
-1.736, 8.548e-4
-1.737, 8.717e-4
-1.738, 8.880e-4
-1.739, 9.049e-4
-1.740, 9.227e-4
-1.741, 9.408e-4
-1.742, 9.583e-4
-1.743, 9.761e-4
-1.744, 9.951e-4
-1.745, 1.014e-3
-1.746, 1.032e-3
-1.747, 1.052e-3
-1.748, 1.070e-3
-1.749, 1.089e-3
-1.750, 1.110e-3
-1.751, 1.130e-3
-1.752, 1.150e-3
-1.753, 1.170e-3
-1.754, 1.192e-3
-1.755, 1.212e-3
-1.756, 1.233e-3
-1.757, 1.255e-3
-1.758, 1.278e-3
-1.759, 1.301e-3
-1.760, 1.325e-3
-1.761, 1.348e-3
-1.762, 1.370e-3
-1.763, 1.394e-3
-1.764, 1.417e-3
-1.765, 1.440e-3
-1.766, 1.464e-3
-1.767, 1.490e-3
-1.768, 1.514e-3
-1.769, 1.539e-3
-1.770, 1.569e-3
-1.771, 1.597e-3
-1.772, 1.615e-3
-1.773, 1.635e-3
-1.774, 1.665e-3
-1.775, 1.698e-3
-1.776, 1.726e-3
-1.777, 1.750e-3
-1.778, 1.772e-3
-1.779, 1.803e-3
-1.780, 1.837e-3
-1.781, 1.866e-3
-1.782, 1.885e-3
-1.783, 1.907e-3
-1.784, 1.941e-3
-1.785, 1.978e-3
-1.786, 2.009e-3
-1.787, 2.033e-3
-1.788, 2.060e-3
-1.789, 2.094e-3
-1.790, 2.131e-3
-1.791, 2.159e-3
-1.792, 2.183e-3
-1.793, 2.210e-3
-1.794, 2.246e-3
-1.795, 2.282e-3
-1.796, 2.314e-3
-1.797, 2.343e-3
-1.798, 2.373e-3
-1.799, 2.410e-3
-1.800, 2.447e-3
-1.801, 2.481e-3
-1.802, 2.512e-3
-1.803, 2.544e-3
-1.804, 2.582e-3
-1.805, 2.619e-3
-1.806, 2.656e-3
-1.807, 2.691e-3
-1.808, 2.726e-3
-1.809, 2.763e-3
-1.810, 2.799e-3
-1.811, 2.835e-3
-1.812, 2.870e-3
-1.813, 2.906e-3
-1.814, 2.943e-3
-1.815, 2.979e-3
-1.816, 3.013e-3
-1.817, 3.048e-3
-1.818, 3.086e-3
-1.819, 3.121e-3
-1.820, 3.159e-3
-1.821, 3.197e-3
-1.822, 3.239e-3
-1.823, 3.274e-3
-1.824, 3.305e-3
-1.825, 3.342e-3
-1.826, 3.382e-3
-1.827, 3.426e-3
-1.828, 3.463e-3
-1.829, 3.496e-3
-1.830, 3.536e-3
-1.831, 3.580e-3
-1.832, 3.623e-3
-1.833, 3.663e-3
-1.834, 3.699e-3
-1.835, 3.738e-3
-1.836, 3.782e-3
-1.837, 3.827e-3
-1.838, 3.867e-3
-1.839, 3.903e-3
-1.840, 3.947e-3
-1.841, 3.991e-3
-1.842, 4.034e-3
-1.843, 4.075e-3
-1.844, 4.113e-3
-1.845, 4.153e-3
-1.846, 4.196e-3
-1.847, 4.240e-3
-1.848, 4.279e-3
-1.849, 4.319e-3
-1.850, 4.369e-3
-1.851, 4.423e-3
-1.852, 4.457e-3
-1.853, 4.491e-3
-1.854, 4.537e-3
-1.855, 4.589e-3
-1.856, 4.617e-3
-1.857, 4.643e-3
-1.858, 4.701e-3
-1.859, 4.764e-3
-1.860, 4.813e-3
-1.861, 4.844e-3
-1.862, 4.863e-3
-1.863, 4.910e-3
-1.864, 4.974e-3
-1.865, 5.022e-3
-1.866, 5.053e-3
-1.867, 5.082e-3
-1.868, 5.131e-3
-1.869, 5.198e-3
-1.870, 5.251e-3
-1.871, 5.288e-3
-1.872, 5.319e-3
-1.873, 5.363e-3
-1.874, 5.421e-3
-1.875, 5.467e-3
-1.876, 5.502e-3
-1.877, 5.540e-3
-1.878, 5.589e-3
-1.879, 5.644e-3
-1.880, 5.695e-3
-1.881, 5.735e-3
-1.882, 5.778e-3
-1.883, 5.833e-3
-1.884, 5.896e-3
-1.885, 5.950e-3
-1.886, 5.993e-3
-1.887, 6.041e-3
-1.888, 6.098e-3
-1.889, 6.157e-3
-1.890, 6.204e-3
-1.891, 6.250e-3
-1.892, 6.306e-3
-1.893, 6.352e-3
-1.894, 6.393e-3
-1.895, 6.436e-3
-1.896, 6.479e-3
-1.897, 6.531e-3
-1.898, 6.576e-3
-1.899, 6.616e-3
-1.900, 6.626e-3
-1.899, 6.598e-3
-1.898, 6.587e-3
-1.897, 6.554e-3
-1.896, 6.492e-3
-1.895, 6.445e-3
-1.894, 6.412e-3
-1.893, 6.392e-3
-1.892, 6.354e-3
-1.891, 6.297e-3
-1.890, 6.252e-3
-1.889, 6.221e-3
-1.888, 6.194e-3
-1.887, 6.158e-3
-1.886, 6.111e-3
-1.885, 6.068e-3
-1.884, 6.037e-3
-1.883, 6.009e-3
-1.882, 5.971e-3
-1.881, 5.925e-3
-1.880, 5.887e-3
-1.879, 5.853e-3
-1.878, 5.819e-3
-1.877, 5.780e-3
-1.876, 5.738e-3
-1.875, 5.697e-3
-1.874, 5.660e-3
-1.873, 5.624e-3
-1.872, 5.578e-3
-1.871, 5.532e-3
-1.870, 5.492e-3
-1.869, 5.455e-3
-1.868, 5.416e-3
-1.867, 5.374e-3
-1.866, 5.335e-3
-1.865, 5.295e-3
-1.864, 5.258e-3
-1.863, 5.223e-3
-1.862, 5.192e-3
-1.861, 5.157e-3
-1.860, 5.106e-3
-1.859, 5.064e-3
-1.858, 5.029e-3
-1.857, 4.992e-3
-1.856, 4.956e-3
-1.855, 4.910e-3
-1.854, 4.872e-3
-1.853, 4.844e-3
-1.852, 4.810e-3
-1.851, 4.789e-3
-1.850, 4.745e-3
-1.849, 4.673e-3
-1.848, 4.616e-3
-1.847, 4.594e-3
-1.846, 4.582e-3
-1.845, 4.543e-3
-1.844, 4.487e-3
-1.843, 4.439e-3
-1.842, 4.415e-3
-1.841, 4.403e-3
-1.840, 4.369e-3
-1.839, 4.300e-3
-1.838, 4.252e-3
-1.837, 4.234e-3
-1.836, 4.220e-3
-1.835, 4.180e-3
-1.834, 4.133e-3
-1.833, 4.096e-3
-1.832, 4.074e-3
-1.831, 4.047e-3
-1.830, 4.003e-3
-1.829, 3.958e-3
-1.828, 3.918e-3
-1.827, 3.898e-3
-1.826, 3.871e-3
-1.825, 3.830e-3
-1.824, 3.788e-3
-1.823, 3.754e-3
-1.822, 3.730e-3
-1.821, 3.705e-3
-1.820, 3.672e-3
-1.819, 3.633e-3
-1.818, 3.594e-3
-1.817, 3.566e-3
-1.816, 3.541e-3
-1.815, 3.509e-3
-1.814, 3.471e-3
-1.813, 3.440e-3
-1.812, 3.416e-3
-1.811, 3.384e-3
-1.810, 3.348e-3
-1.809, 3.312e-3
-1.808, 3.282e-3
-1.807, 3.258e-3
-1.806, 3.232e-3
-1.805, 3.198e-3
-1.804, 3.163e-3
-1.803, 3.133e-3
-1.802, 3.107e-3
-1.801, 3.080e-3
-1.800, 3.048e-3
-1.799, 3.017e-3
-1.798, 2.987e-3
-1.797, 2.959e-3
-1.796, 2.931e-3
-1.795, 2.900e-3
-1.794, 2.870e-3
-1.793, 2.843e-3
-1.792, 2.814e-3
-1.791, 2.785e-3
-1.790, 2.758e-3
-1.789, 2.730e-3
-1.788, 2.703e-3
-1.787, 2.679e-3
-1.786, 2.656e-3
-1.785, 2.627e-3
-1.784, 2.598e-3
-1.783, 2.572e-3
-1.782, 2.547e-3
-1.781, 2.522e-3
-1.780, 2.495e-3
-1.779, 2.468e-3
-1.778, 2.443e-3
-1.777, 2.419e-3
-1.776, 2.395e-3
-1.775, 2.368e-3
-1.774, 2.341e-3
-1.773, 2.319e-3
-1.772, 2.295e-3
-1.771, 2.272e-3
-1.770, 2.247e-3
-1.769, 2.222e-3
-1.768, 2.197e-3
-1.767, 2.174e-3
-1.766, 2.152e-3
-1.765, 2.129e-3
-1.764, 2.104e-3
-1.763, 2.081e-3
-1.762, 2.057e-3
-1.761, 2.035e-3
-1.760, 2.014e-3
-1.759, 1.992e-3
-1.758, 1.968e-3
-1.757, 1.946e-3
-1.756, 1.926e-3
-1.755, 1.904e-3
-1.754, 1.882e-3
-1.753, 1.863e-3
-1.752, 1.842e-3
-1.751, 1.819e-3
-1.750, 1.800e-3
-1.749, 1.780e-3
-1.748, 1.760e-3
-1.747, 1.740e-3
-1.746, 1.720e-3
-1.745, 1.698e-3
-1.744, 1.679e-3
-1.743, 1.661e-3
-1.742, 1.641e-3
-1.741, 1.620e-3
-1.740, 1.602e-3
-1.739, 1.585e-3
-1.738, 1.565e-3
-1.737, 1.546e-3
-1.736, 1.528e-3
-1.735, 1.510e-3
-1.734, 1.493e-3
-1.733, 1.476e-3
-1.732, 1.457e-3
-1.731, 1.439e-3
-1.730, 1.423e-3
-1.729, 1.406e-3
-1.728, 1.389e-3
-1.727, 1.373e-3
-1.726, 1.356e-3
-1.725, 1.337e-3
-1.724, 1.321e-3
-1.723, 1.307e-3
-1.722, 1.290e-3
-1.721, 1.273e-3
-1.720, 1.257e-3
-1.719, 1.241e-3
-1.718, 1.228e-3
-1.717, 1.216e-3
-1.716, 1.198e-3
-1.715, 1.177e-3
-1.714, 1.162e-3
-1.713, 1.152e-3
-1.712, 1.138e-3
-1.711, 1.122e-3
-1.710, 1.105e-3
-1.709, 1.092e-3
-1.708, 1.080e-3
-1.707, 1.067e-3
-1.706, 1.052e-3
-1.705, 1.034e-3
-1.704, 1.021e-3
-1.703, 1.010e-3
-1.702, 9.981e-4
-1.701, 9.834e-4
-1.700, 9.691e-4
-1.699, 9.562e-4
-1.698, 9.452e-4
-1.697, 9.336e-4
-1.696, 9.206e-4
-1.695, 9.057e-4
-1.694, 8.933e-4
-1.693, 8.837e-4
-1.692, 8.724e-4
-1.691, 8.601e-4
-1.690, 8.477e-4
-1.689, 8.361e-4
-1.688, 8.254e-4
-1.687, 8.148e-4
-1.686, 8.035e-4
-1.685, 7.917e-4
-1.684, 7.805e-4
-1.683, 7.707e-4
-1.682, 7.596e-4
-1.681, 7.486e-4
-1.680, 7.382e-4
-1.679, 7.273e-4
-1.678, 7.171e-4
-1.677, 7.073e-4
-1.676, 6.976e-4
-1.675, 6.868e-4
-1.674, 6.772e-4
-1.673, 6.679e-4
-1.672, 6.579e-4
-1.671, 6.476e-4
-1.670, 6.387e-4
-1.669, 6.297e-4
-1.668, 6.209e-4
-1.667, 6.117e-4
-1.666, 6.029e-4
-1.665, 5.939e-4
-1.664, 5.851e-4
-1.663, 5.764e-4
-1.662, 5.679e-4
-1.661, 5.595e-4
-1.660, 5.518e-4
-1.659, 5.434e-4
-1.658, 5.349e-4
-1.657, 5.268e-4
-1.656, 5.193e-4
-1.655, 5.113e-4
-1.654, 5.032e-4
-1.653, 4.959e-4
-1.652, 4.878e-4
-1.651, 4.803e-4
-1.650, 4.736e-4
-1.649, 4.660e-4
-1.648, 4.586e-4
-1.647, 4.515e-4
-1.646, 4.452e-4
-1.645, 4.382e-4
-1.644, 4.310e-4
-1.643, 4.245e-4
-1.642, 4.178e-4
-1.641, 4.114e-4
-1.640, 4.053e-4
-1.639, 3.988e-4
-1.638, 3.916e-4
-1.637, 3.860e-4
-1.636, 3.800e-4
-1.635, 3.737e-4
-1.634, 3.677e-4
-1.633, 3.619e-4
-1.632, 3.557e-4
-1.631, 3.501e-4
-1.630, 3.448e-4
-1.629, 3.389e-4
-1.628, 3.336e-4
-1.627, 3.279e-4
-1.626, 3.229e-4
-1.625, 3.170e-4
-1.624, 3.121e-4
-1.623, 3.070e-4
-1.622, 3.019e-4
-1.621, 2.962e-4
-1.620, 2.921e-4
-1.619, 2.867e-4
-1.618, 2.822e-4
-1.617, 2.771e-4
-1.616, 2.725e-4
-1.615, 2.676e-4
-1.614, 2.634e-4
-1.613, 2.592e-4
-1.612, 2.545e-4
-1.611, 2.502e-4
-1.610, 2.459e-4
-1.609, 2.417e-4
-1.608, 2.374e-4
-1.607, 2.333e-4
-1.606, 2.296e-4
-1.605, 2.256e-4
-1.604, 2.217e-4
-1.603, 2.180e-4
-1.602, 2.138e-4
-1.601, 2.103e-4
-1.600, 2.066e-4
-1.599, 2.031e-4
-1.598, 1.995e-4
-1.597, 1.958e-4
-1.596, 1.929e-4
-1.595, 1.888e-4
-1.594, 1.858e-4
-1.593, 1.824e-4
-1.592, 1.790e-4
-1.591, 1.757e-4
-1.590, 1.727e-4
-1.589, 1.696e-4
-1.588, 1.665e-4
-1.587, 1.634e-4
-1.586, 1.605e-4
-1.585, 1.571e-4
-1.584, 1.546e-4
-1.583, 1.515e-4
-1.582, 1.487e-4
-1.581, 1.460e-4
-1.580, 1.435e-4
-1.579, 1.407e-4
-1.578, 1.381e-4
-1.577, 1.353e-4
-1.576, 1.331e-4
-1.575, 1.301e-4
-1.574, 1.278e-4
-1.573, 1.256e-4
-1.572, 1.232e-4
-1.571, 1.210e-4
-1.570, 1.186e-4
-1.569, 1.163e-4
-1.568, 1.141e-4
-1.567, 1.118e-4
-1.566, 1.098e-4
-1.565, 1.076e-4
-1.564, 1.052e-4
-1.563, 1.034e-4
-1.562, 1.014e-4
-1.561, 9.958e-5
-1.560, 9.770e-5
-1.559, 9.554e-5
-1.558, 9.371e-5
-1.557, 9.210e-5
-1.556, 9.014e-5
-1.555, 8.823e-5
-1.554, 8.643e-5
-1.553, 8.515e-5
-1.552, 8.294e-5
-1.551, 8.156e-5
-1.550, 8.005e-5
-1.549, 7.835e-5
-1.548, 7.685e-5
-1.547, 7.507e-5
-1.546, 7.375e-5
-1.545, 7.235e-5
-1.544, 7.093e-5
-1.543, 6.935e-5
-1.542, 6.769e-5
-1.541, 6.662e-5
-1.540, 6.522e-5
-1.539, 6.370e-5
-1.538, 6.277e-5
-1.537, 6.128e-5
-1.536, 6.001e-5
-1.535, 5.875e-5
-1.534, 5.725e-5
-1.533, 5.630e-5
-1.532, 5.493e-5
-1.531, 5.410e-5
-1.530, 5.300e-5
-1.529, 5.150e-5
-1.528, 5.074e-5
-1.527, 4.942e-5
-1.526, 4.852e-5
-1.525, 4.748e-5
-1.524, 4.641e-5
-1.523, 4.552e-5
-1.522, 4.424e-5
-1.521, 4.352e-5
-1.520, 4.257e-5
-1.519, 4.127e-5
-1.518, 4.071e-5
-1.517, 3.991e-5
-1.516, 3.905e-5
-1.515, 3.794e-5
-1.514, 3.741e-5
-1.513, 3.639e-5
-1.512, 3.571e-5
-1.511, 3.485e-5
-1.510, 3.409e-5
-1.509, 3.314e-5
-1.508, 3.264e-5
-1.507, 3.186e-5
-1.506, 3.126e-5
-1.505, 3.043e-5
-1.504, 2.991e-5
-1.503, 2.918e-5
-1.502, 2.832e-5
-1.501, 2.763e-5
-1.500, 2.747e-5
-1.499, 2.643e-5
-1.498, 2.585e-5
-1.497, 2.516e-5
-1.496, 2.503e-5
-1.495, 2.407e-5
-1.494, 2.361e-5
-1.493, 2.320e-5
-1.492, 2.226e-5
-1.491, 2.211e-5
-1.490, 2.163e-5
-1.489, 2.094e-5
-1.488, 2.083e-5
-1.487, 2.018e-5
-1.486, 1.961e-5
-1.485, 1.892e-5
-1.484, 1.873e-5
-1.483, 1.806e-5
-1.482, 1.765e-5
-1.481, 1.746e-5
-1.480, 1.701e-5
-1.479, 1.651e-5
-1.478, 1.633e-5
-1.477, 1.581e-5
-1.476, 1.557e-5
-1.475, 1.498e-5
-1.474, 1.475e-5
-1.473, 1.430e-5
-1.472, 1.388e-5
-1.471, 1.349e-5
-1.470, 1.331e-5
-1.469, 1.270e-5
-1.468, 1.262e-5
-1.467, 1.255e-5
-1.466, 1.210e-5
-1.465, 1.173e-5
-1.464, 1.152e-5
-1.463, 1.104e-5
-1.462, 1.068e-5
-1.461, 1.050e-5
-1.460, 1.067e-5
-1.459, 9.509e-6
-1.458, 9.607e-6
-1.457, 9.568e-6
-1.456, 9.331e-6
-1.455, 9.085e-6
-1.454, 8.710e-6
-1.453, 8.532e-6
-1.452, 8.345e-6
-1.451, 8.216e-6
-1.450, 8.137e-6
-1.449, 7.684e-6
-1.448, 7.447e-6
-1.447, 7.200e-6
-1.446, 7.013e-6
-1.445, 6.845e-6
-1.444, 6.638e-6
-1.443, 6.490e-6
-1.442, 6.194e-6
-1.441, 6.302e-6
-1.440, 5.908e-6
-1.439, 5.592e-6
-1.438, 5.602e-6
-1.437, 5.553e-6
-1.436, 5.257e-6
-1.435, 5.010e-6
-1.434, 4.852e-6
-1.433, 4.497e-6
-1.432, 4.457e-6
-1.431, 4.457e-6
-1.430, 4.398e-6
-1.429, 3.648e-6
-1.428, 4.092e-6
-1.427, 3.836e-6
-1.426, 3.500e-6
-1.425, 3.412e-6
-1.424, 3.550e-6
-1.423, 3.471e-6
-1.422, 3.244e-6
-1.421, 3.086e-6
-1.420, 3.126e-6
-1.419, 2.474e-6
-1.418, 2.682e-6
-1.417, 2.455e-6
-1.416, 2.474e-6
-1.415, 2.534e-6
-1.414, 2.317e-6
-1.413, 2.336e-6
-1.412, 2.277e-6
-1.411, 2.149e-6
-1.410, 2.021e-6
-1.409, 1.833e-6
-1.408, 1.527e-6
-1.407, 1.557e-6
-1.406, 1.567e-6
-1.405, 1.646e-6
-1.404, 1.429e-6
-1.403, 1.468e-6
-1.402, 9.945e-7
-1.401, 1.152e-6
-1.400, 1.162e-6
-1.399, 1.162e-6
-1.398, 1.123e-6
-1.397, 8.958e-7
-1.396, 6.985e-7
-1.395, 7.873e-7
-1.394, 4.617e-7
-1.393, 4.321e-7
-1.392, 4.617e-7
-1.391, 5.703e-7
-1.390, 5.900e-7
-1.389, 1.559e-7
-1.388, 2.447e-7
-1.387, 1.066e-7
-1.386, 8.682e-8
-1.385, 4.736e-8
-1.384, 2.762e-8
-1.383, -9.077e-8
-1.382, -4.262e-7
-1.381, -1.500e-7
-1.380, -8.090e-8
-1.379, -3.473e-7
-1.378, 2.762e-8
-1.377, -4.163e-7
-1.376, -4.065e-7
-1.375, -5.841e-7
-1.374, -5.742e-7
-1.373, -4.361e-7
-1.372, -3.078e-7
-1.371, -4.755e-7
-1.370, -5.742e-7
-1.369, -1.206e-6
-1.368, -8.011e-7
-1.367, -7.518e-7
-1.366, -9.688e-7
-1.365, -7.222e-7
-1.364, -1.107e-6
-1.363, -8.998e-7
-1.362, -1.127e-6
-1.361, -8.307e-7
-1.360, -8.899e-7
-1.359, -1.344e-6
-1.358, -9.392e-7
-1.357, -9.787e-7
-1.356, -1.294e-6
-1.355, -1.117e-6
-1.354, -1.442e-6
-1.353, -1.137e-6
-1.352, -1.344e-6
-1.351, -1.344e-6
-1.350, -1.196e-6
-1.349, -1.541e-6
-1.348, -1.156e-6
-1.347, -1.659e-6
-1.346, -1.354e-6
-1.345, -1.659e-6
-1.344, -1.778e-6
-1.343, -1.551e-6
-1.342, -1.600e-6
-1.341, -1.620e-6
-1.340, -1.492e-6
-1.339, -1.886e-6
-1.338, -1.689e-6
-1.337, -1.847e-6
-1.336, -1.324e-6
-1.335, -1.758e-6
-1.334, -1.679e-6
-1.333, -1.669e-6
-1.332, -1.669e-6
-1.331, -1.965e-6
-1.330, -1.886e-6
-1.329, -2.103e-6
-1.328, -1.699e-6
-1.327, -2.034e-6
-1.326, -2.143e-6
-1.325, -1.955e-6
-1.324, -2.044e-6
-1.323, -1.847e-6
-1.322, -2.123e-6
-1.321, -1.886e-6
-1.320, -1.965e-6
-1.319, -2.242e-6
-1.318, -2.024e-6
-1.317, -2.153e-6
-1.316, -2.212e-6
-1.315, -2.005e-6
-1.314, -2.034e-6
-1.313, -2.054e-6
-1.312, -2.291e-6
-1.311, -2.163e-6
-1.310, -2.340e-6
-1.309, -2.182e-6
-1.308, -2.232e-6
-1.307, -2.360e-6
-1.306, -2.094e-6
-1.305, -2.133e-6
-1.304, -2.330e-6
-1.303, -2.172e-6
-1.302, -2.429e-6
-1.301, -2.449e-6
-1.300, -2.291e-6
-1.299, -2.538e-6
-1.298, -2.311e-6
-1.297, -2.311e-6
-1.296, -2.301e-6
-1.295, -2.212e-6
-1.294, -2.686e-6
-1.293, -2.143e-6
-1.292, -2.360e-6
-1.291, -2.291e-6
-1.290, -2.478e-6
-1.289, -2.547e-6
-1.288, -2.498e-6
-1.287, -2.439e-6
-1.286, -2.478e-6
-1.285, -2.370e-6
-1.284, -2.587e-6
-1.283, -2.301e-6
-1.282, -2.784e-6
-1.281, -2.666e-6
-1.280, -2.646e-6
-1.279, -2.607e-6
-1.278, -2.478e-6
-1.277, -2.577e-6
-1.276, -2.587e-6
-1.275, -2.508e-6
-1.274, -2.676e-6
-1.273, -2.409e-6
-1.272, -2.626e-6
-1.271, -2.449e-6
-1.270, -2.567e-6
-1.269, -2.922e-6
-1.268, -2.488e-6
-1.267, -2.735e-6
-1.266, -2.834e-6
-1.265, -2.636e-6
-1.264, -3.031e-6
-1.263, -2.942e-6
-1.262, -2.764e-6
-1.261, -2.636e-6
-1.260, -2.764e-6
-1.259, -3.001e-6
-1.258, -2.735e-6
-1.257, -2.912e-6
-1.256, -2.843e-6
-1.255, -2.518e-6
-1.254, -2.912e-6
-1.253, -2.764e-6
-1.252, -2.952e-6
-1.251, -2.991e-6
-1.250, -2.686e-6
-1.249, -2.962e-6
-1.248, -2.636e-6
-1.247, -3.090e-6
-1.246, -2.903e-6
-1.245, -2.824e-6
-1.244, -3.011e-6
-1.243, -2.666e-6
-1.242, -2.695e-6
-1.241, -3.041e-6
-1.240, -2.942e-6
-1.239, -3.169e-6
-1.238, -2.676e-6
-1.237, -2.824e-6
-1.236, -3.060e-6
-1.235, -2.804e-6
-1.234, -2.991e-6
-1.233, -3.051e-6
-1.232, -2.912e-6
-1.231, -2.794e-6
-1.230, -3.011e-6
-1.229, -3.169e-6
-1.228, -2.962e-6
-1.227, -3.139e-6
-1.226, -2.863e-6
-1.225, -2.932e-6
-1.224, -3.228e-6
-1.223, -2.912e-6
-1.222, -3.277e-6
-1.221, -2.952e-6
-1.220, -3.129e-6
-1.219, -3.129e-6
-1.218, -3.159e-6
-1.217, -2.991e-6
-1.216, -3.208e-6
-1.215, -3.051e-6
-1.214, -3.258e-6
-1.213, -3.110e-6
-1.212, -3.149e-6
-1.211, -3.218e-6
-1.210, -3.208e-6
-1.209, -3.169e-6
-1.208, -2.952e-6
-1.207, -3.228e-6
-1.206, -3.100e-6
-1.205, -3.258e-6
-1.204, -3.268e-6
-1.203, -3.169e-6
-1.202, -3.248e-6
-1.201, -3.268e-6
-1.200, -3.139e-6
-1.199, -3.495e-6
-1.198, -3.327e-6
-1.197, -3.110e-6
-1.196, -3.199e-6
-1.195, -3.327e-6
-1.194, -3.633e-6
-1.193, -3.327e-6
-1.192, -3.416e-6
-1.191, -3.396e-6
-1.190, -3.317e-6
-1.189, -3.475e-6
-1.188, -3.228e-6
-1.187, -3.356e-6
-1.186, -3.475e-6
-1.185, -3.485e-6
-1.184, -3.425e-6
-1.183, -3.268e-6
-1.182, -3.504e-6
-1.181, -3.218e-6
-1.180, -3.297e-6
-1.179, -3.406e-6
-1.178, -3.129e-6
-1.177, -3.485e-6
-1.176, -3.465e-6
-1.175, -3.406e-6
-1.174, -3.662e-6
-1.173, -3.327e-6
-1.172, -3.406e-6
-1.171, -3.613e-6
-1.170, -3.189e-6
-1.169, -3.554e-6
-1.168, -3.396e-6
-1.167, -3.268e-6
-1.166, -3.633e-6
-1.165, -3.485e-6
-1.164, -3.445e-6
-1.163, -3.564e-6
-1.162, -3.573e-6
-1.161, -3.682e-6
-1.160, -3.189e-6
-1.159, -3.534e-6
-1.158, -3.425e-6
-1.157, -3.485e-6
-1.156, -3.386e-6
-1.155, -3.662e-6
-1.154, -3.534e-6
-1.153, -3.376e-6
-1.152, -3.544e-6
-1.151, -3.583e-6
-1.150, -3.366e-6
-1.149, -3.909e-6
-1.148, -3.662e-6
-1.147, -3.731e-6
-1.146, -3.662e-6
-1.145, -3.524e-6
-1.144, -3.583e-6
-1.143, -3.356e-6
-1.142, -3.662e-6
-1.141, -3.534e-6
-1.140, -3.623e-6
-1.139, -3.771e-6
-1.138, -3.425e-6
-1.137, -3.643e-6
-1.136, -3.593e-6
-1.135, -3.672e-6
-1.134, -3.751e-6
-1.133, -3.583e-6
-1.132, -3.741e-6
-1.131, -3.623e-6
-1.130, -3.613e-6
-1.129, -3.889e-6
-1.128, -3.820e-6
-1.127, -3.712e-6
-1.126, -3.820e-6
-1.125, -3.869e-6
-1.124, -3.899e-6
-1.123, -3.573e-6
-1.122, -3.929e-6
-1.121, -3.929e-6
-1.120, -3.889e-6
-1.119, -3.840e-6
-1.118, -3.741e-6
-1.117, -3.583e-6
-1.116, -3.672e-6
-1.115, -3.741e-6
-1.114, -3.929e-6
-1.113, -3.860e-6
-1.112, -4.047e-6
-1.111, -4.017e-6
-1.110, -3.692e-6
-1.109, -4.037e-6
-1.108, -3.623e-6
-1.107, -3.643e-6
-1.106, -3.869e-6
-1.105, -3.998e-6
-1.104, -3.702e-6
-1.103, -3.899e-6
-1.102, -3.771e-6
-1.101, -4.008e-6
-1.100, -3.988e-6
-1.099, -4.057e-6
-1.098, -4.008e-6
-1.097, -3.820e-6
-1.096, -4.077e-6
-1.095, -3.850e-6
-1.094, -4.096e-6
-1.093, -3.869e-6
-1.092, -3.909e-6
-1.091, -3.790e-6
-1.090, -3.889e-6
-1.089, -4.116e-6
-1.088, -4.017e-6
-1.087, -4.037e-6
-1.086, -4.205e-6
-1.085, -3.850e-6
-1.084, -4.086e-6
-1.083, -3.840e-6
-1.082, -4.254e-6
-1.081, -3.929e-6
-1.080, -3.938e-6
-1.079, -3.929e-6
-1.078, -3.929e-6
-1.077, -3.919e-6
-1.076, -4.156e-6
-1.075, -4.116e-6
-1.074, -4.136e-6
-1.073, -4.037e-6
-1.072, -4.294e-6
-1.071, -3.978e-6
-1.070, -4.165e-6
-1.069, -4.353e-6
-1.068, -4.274e-6
-1.067, -3.929e-6
-1.066, -4.264e-6
-1.065, -4.096e-6
-1.064, -4.313e-6
-1.063, -4.017e-6
-1.062, -4.215e-6
-1.061, -4.501e-6
-1.060, -4.530e-6
-1.059, -4.521e-6
-1.058, -4.313e-6
-1.057, -4.037e-6
-1.056, -4.215e-6
-1.055, -4.156e-6
-1.054, -4.304e-6
-1.053, -3.958e-6
-1.052, -4.195e-6
-1.051, -4.304e-6
-1.050, -4.136e-6
-1.049, -4.580e-6
-1.048, -4.363e-6
-1.047, -4.313e-6
-1.046, -4.471e-6
-1.045, -4.205e-6
-1.044, -4.442e-6
-1.043, -4.333e-6
-1.042, -4.412e-6
-1.041, -4.225e-6
-1.040, -4.412e-6
-1.039, -4.313e-6
-1.038, -4.412e-6
-1.037, -4.225e-6
-1.036, -4.580e-6
-1.035, -4.294e-6
-1.034, -4.422e-6
-1.033, -4.471e-6
-1.032, -4.264e-6
-1.031, -4.432e-6
-1.030, -4.185e-6
-1.029, -4.540e-6
-1.028, -4.353e-6
-1.027, -4.294e-6
-1.026, -4.501e-6
-1.025, -4.501e-6
-1.024, -4.452e-6
-1.023, -4.452e-6
-1.022, -4.560e-6
-1.021, -4.461e-6
-1.020, -4.432e-6
-1.019, -4.659e-6
-1.018, -4.461e-6
-1.017, -4.530e-6
-1.016, -4.728e-6
-1.015, -4.738e-6
-1.014, -4.530e-6
-1.013, -4.609e-6
-1.012, -4.678e-6
-1.011, -4.698e-6
-1.010, -4.580e-6
-1.009, -4.708e-6
-1.008, -4.540e-6
-1.007, -4.570e-6
-1.006, -4.629e-6
-1.005, -4.659e-6
-1.004, -4.600e-6
-1.003, -4.392e-6
-1.002, -4.600e-6
-1.001, -4.866e-6
