Mar. 15, 2025   06:34:41
Cyclic Voltammetry
File: c:/users/guazh/data/banditlqround7_x0exp891_r5/2025-03-03-exp900\exp900-2025-03-15t06_29_48-h2koh\exp900_cv_50mvs_efin_-1400mv.bin
Data Source:  Experiment
Instrument Model:  CHI760E
Header: CV ran at 50 mVs
Note: 

Init E (V) = -1
High E (V) = -1
Low E (V) = -1.4
Final E (V) = -1
Init P/N = N
Scan Rate (V/s) = 0.05
Segment = 7
Sample Interval (V) = 0.001
Quiet Time (sec) = 60
Sensitivity (A/V) = 0.001
Comp R (ohm) = 1.8

Results:

Channel 1:
Segment 1:
Ep = -1.185V
ip = 1.631e-4A
Ah = 2.217e-4C

Segment 2:

Segment 3:

Segment 4:

Segment 5:

Segment 6:

Segment 7:

Potential/V, Current/A

-1.000, 7.903e-6
-1.001, 1.037e-5
-1.002, 1.168e-5
-1.003, 1.235e-5
-1.004, 1.234e-5
-1.005, 1.276e-5
-1.006, 1.334e-5
-1.007, 1.404e-5
-1.008, 1.415e-5
-1.009, 1.438e-5
-1.010, 1.449e-5
-1.011, 1.460e-5
-1.012, 1.540e-5
-1.013, 1.634e-5
-1.014, 1.612e-5
-1.015, 1.589e-5
-1.016, 1.626e-5
-1.017, 1.735e-5
-1.018, 1.752e-5
-1.019, 1.777e-5
-1.020, 1.748e-5
-1.021, 1.783e-5
-1.022, 1.877e-5
-1.023, 1.965e-5
-1.024, 1.939e-5
-1.025, 1.940e-5
-1.026, 1.987e-5
-1.027, 2.028e-5
-1.028, 2.113e-5
-1.029, 2.200e-5
-1.030, 2.253e-5
-1.031, 2.196e-5
-1.032, 2.178e-5
-1.033, 2.250e-5
-1.034, 2.388e-5
-1.035, 2.372e-5
-1.036, 2.373e-5
-1.037, 2.516e-5
-1.038, 2.636e-5
-1.039, 2.665e-5
-1.040, 2.634e-5
-1.041, 2.654e-5
-1.042, 2.773e-5
-1.043, 2.907e-5
-1.044, 2.930e-5
-1.045, 2.917e-5
-1.046, 3.038e-5
-1.047, 3.156e-5
-1.048, 3.161e-5
-1.049, 3.213e-5
-1.050, 3.359e-5
-1.051, 3.484e-5
-1.052, 3.517e-5
-1.053, 3.546e-5
-1.054, 3.651e-5
-1.055, 3.743e-5
-1.056, 3.800e-5
-1.057, 3.891e-5
-1.058, 4.010e-5
-1.059, 4.049e-5
-1.060, 4.391e-5
-1.061, 4.384e-5
-1.062, 4.331e-5
-1.063, 4.451e-5
-1.064, 4.594e-5
-1.065, 4.723e-5
-1.066, 4.757e-5
-1.067, 4.950e-5
-1.068, 5.148e-5
-1.069, 5.170e-5
-1.070, 5.291e-5
-1.071, 5.396e-5
-1.072, 5.458e-5
-1.073, 5.672e-5
-1.074, 5.861e-5
-1.075, 5.934e-5
-1.076, 5.960e-5
-1.077, 6.259e-5
-1.078, 6.462e-5
-1.079, 6.501e-5
-1.080, 6.504e-5
-1.081, 6.639e-5
-1.082, 7.053e-5
-1.083, 7.256e-5
-1.084, 7.248e-5
-1.085, 7.218e-5
-1.086, 7.516e-5
-1.087, 7.756e-5
-1.088, 7.858e-5
-1.089, 8.052e-5
-1.090, 8.264e-5
-1.091, 8.358e-5
-1.092, 8.570e-5
-1.093, 8.764e-5
-1.094, 8.855e-5
-1.095, 8.992e-5
-1.096, 9.131e-5
-1.097, 9.486e-5
-1.098, 9.944e-5
-1.099, 1.004e-4
-1.100, 9.931e-5
-1.101, 1.010e-4
-1.102, 1.030e-4
-1.103, 1.065e-4
-1.104, 1.083e-4
-1.105, 1.099e-4
-1.106, 1.120e-4
-1.107, 1.145e-4
-1.108, 1.160e-4
-1.109, 1.165e-4
-1.110, 1.187e-4
-1.111, 1.228e-4
-1.112, 1.234e-4
-1.113, 1.261e-4
-1.114, 1.284e-4
-1.115, 1.306e-4
-1.116, 1.311e-4
-1.117, 1.334e-4
-1.118, 1.332e-4
-1.119, 1.387e-4
-1.120, 1.461e-4
-1.121, 1.439e-4
-1.122, 1.432e-4
-1.123, 1.447e-4
-1.124, 1.520e-4
-1.125, 1.530e-4
-1.126, 1.512e-4
-1.127, 1.551e-4
-1.128, 1.562e-4
-1.129, 1.598e-4
-1.130, 1.678e-4
-1.131, 1.641e-4
-1.132, 1.611e-4
-1.133, 1.635e-4
-1.134, 1.748e-4
-1.135, 1.755e-4
-1.136, 1.739e-4
-1.137, 1.731e-4
-1.138, 1.767e-4
-1.139, 1.828e-4
-1.140, 1.793e-4
-1.141, 1.786e-4
-1.142, 1.847e-4
-1.143, 1.909e-4
-1.144, 1.894e-4
-1.145, 1.876e-4
-1.146, 1.901e-4
-1.147, 1.948e-4
-1.148, 1.945e-4
-1.149, 1.943e-4
-1.150, 1.939e-4
-1.151, 2.011e-4
-1.152, 2.082e-4
-1.153, 2.040e-4
-1.154, 2.019e-4
-1.155, 2.024e-4
-1.156, 2.055e-4
-1.157, 2.108e-4
-1.158, 2.121e-4
-1.159, 2.121e-4
-1.160, 2.109e-4
-1.161, 2.102e-4
-1.162, 2.138e-4
-1.163, 2.148e-4
-1.164, 2.174e-4
-1.165, 2.177e-4
-1.166, 2.143e-4
-1.167, 2.187e-4
-1.168, 2.258e-4
-1.169, 2.220e-4
-1.170, 2.214e-4
-1.171, 2.214e-4
-1.172, 2.249e-4
-1.173, 2.249e-4
-1.174, 2.211e-4
-1.175, 2.278e-4
-1.176, 2.259e-4
-1.177, 2.244e-4
-1.178, 2.281e-4
-1.179, 2.275e-4
-1.180, 2.290e-4
-1.181, 2.281e-4
-1.182, 2.252e-4
-1.183, 2.260e-4
-1.184, 2.298e-4
-1.185, 2.424e-4
-1.186, 2.326e-4
-1.187, 2.257e-4
-1.188, 2.255e-4
-1.189, 2.277e-4
-1.190, 2.304e-4
-1.191, 2.340e-4
-1.192, 2.303e-4
-1.193, 2.305e-4
-1.194, 2.315e-4
-1.195, 2.265e-4
-1.196, 2.267e-4
-1.197, 2.317e-4
-1.198, 2.314e-4
-1.199, 2.268e-4
-1.200, 2.251e-4
-1.201, 2.278e-4
-1.202, 2.276e-4
-1.203, 2.241e-4
-1.204, 2.245e-4
-1.205, 2.291e-4
-1.206, 2.266e-4
-1.207, 2.248e-4
-1.208, 2.234e-4
-1.209, 2.210e-4
-1.210, 2.244e-4
-1.211, 2.299e-4
-1.212, 2.229e-4
-1.213, 2.154e-4
-1.214, 2.182e-4
-1.215, 2.212e-4
-1.216, 2.293e-4
-1.217, 2.236e-4
-1.218, 2.198e-4
-1.219, 2.160e-4
-1.220, 2.145e-4
-1.221, 2.122e-4
-1.222, 2.128e-4
-1.223, 2.288e-4
-1.224, 2.215e-4
-1.225, 2.115e-4
-1.226, 2.123e-4
-1.227, 2.108e-4
-1.228, 2.138e-4
-1.229, 2.100e-4
-1.230, 2.102e-4
-1.231, 2.054e-4
-1.232, 2.048e-4
-1.233, 2.136e-4
-1.234, 2.187e-4
-1.235, 2.073e-4
-1.236, 2.038e-4
-1.237, 2.038e-4
-1.238, 2.027e-4
-1.239, 2.032e-4
-1.240, 2.032e-4
-1.241, 2.072e-4
-1.242, 2.030e-4
-1.243, 1.975e-4
-1.244, 1.969e-4
-1.245, 2.002e-4
-1.246, 2.030e-4
-1.247, 1.997e-4
-1.248, 1.964e-4
-1.249, 1.959e-4
-1.250, 1.946e-4
-1.251, 1.954e-4
-1.252, 1.926e-4
-1.253, 1.933e-4
-1.254, 1.948e-4
-1.255, 1.915e-4
-1.256, 1.911e-4
-1.257, 1.900e-4
-1.258, 1.883e-4
-1.259, 1.914e-4
-1.260, 1.890e-4
-1.261, 1.891e-4
-1.262, 1.904e-4
-1.263, 1.893e-4
-1.264, 1.902e-4
-1.265, 1.905e-4
-1.266, 1.860e-4
-1.267, 1.843e-4
-1.268, 1.866e-4
-1.269, 1.875e-4
-1.270, 1.825e-4
-1.271, 1.843e-4
-1.272, 1.876e-4
-1.273, 1.854e-4
-1.274, 1.840e-4
-1.275, 1.847e-4
-1.276, 1.845e-4
-1.277, 1.860e-4
-1.278, 1.813e-4
-1.279, 1.808e-4
-1.280, 1.841e-4
-1.281, 1.838e-4
-1.282, 1.831e-4
-1.283, 1.862e-4
-1.284, 1.845e-4
-1.285, 1.791e-4
-1.286, 1.812e-4
-1.287, 1.887e-4
-1.288, 1.911e-4
-1.289, 1.804e-4
-1.290, 1.795e-4
-1.291, 1.820e-4
-1.292, 1.796e-4
-1.293, 1.812e-4
-1.294, 1.851e-4
-1.295, 1.840e-4
-1.296, 1.856e-4
-1.297, 1.878e-4
-1.298, 1.834e-4
-1.299, 1.805e-4
-1.300, 1.833e-4
-1.301, 1.882e-4
-1.302, 1.854e-4
-1.303, 1.821e-4
-1.304, 1.798e-4
-1.305, 1.860e-4
-1.306, 1.882e-4
-1.307, 1.924e-4
-1.308, 1.927e-4
-1.309, 1.870e-4
-1.310, 1.854e-4
-1.311, 1.896e-4
-1.312, 1.934e-4
-1.313, 1.929e-4
-1.314, 1.933e-4
-1.315, 1.960e-4
-1.316, 1.980e-4
-1.317, 2.008e-4
-1.318, 2.049e-4
-1.319, 2.075e-4
-1.320, 2.081e-4
-1.321, 2.203e-4
-1.322, 2.311e-4
-1.323, 2.294e-4
-1.324, 2.325e-4
-1.325, 2.415e-4
-1.326, 2.535e-4
-1.327, 2.609e-4
-1.328, 2.648e-4
-1.329, 2.713e-4
-1.330, 2.809e-4
-1.331, 2.947e-4
-1.332, 3.015e-4
-1.333, 3.104e-4
-1.334, 3.194e-4
-1.335, 3.285e-4
-1.336, 3.375e-4
-1.337, 3.505e-4
-1.338, 3.678e-4
-1.339, 3.757e-4
-1.340, 3.850e-4
-1.341, 4.051e-4
-1.342, 4.319e-4
-1.343, 4.397e-4
-1.344, 4.490e-4
-1.345, 4.679e-4
-1.346, 4.972e-4
-1.347, 5.132e-4
-1.348, 5.333e-4
-1.349, 5.390e-4
-1.350, 5.476e-4
-1.351, 6.027e-4
-1.352, 6.462e-4
-1.353, 6.549e-4
-1.354, 6.773e-4
-1.355, 7.154e-4
-1.356, 7.650e-4
-1.357, 7.968e-4
-1.358, 8.231e-4
-1.359, 8.635e-4
-1.360, 9.159e-4
-1.361, 9.662e-4
-1.362, 9.836e-4
-1.363, 1.019e-3
-1.364, 1.094e-3
-1.365, 1.141e-3
-1.366, 1.167e-3
-1.367, 1.211e-3
-1.368, 1.277e-3
-1.369, 1.334e-3
-1.370, 1.381e-3
-1.371, 1.451e-3
-1.372, 1.511e-3
-1.373, 1.558e-3
-1.374, 1.626e-3
-1.375, 1.701e-3
-1.376, 1.768e-3
-1.377, 1.845e-3
-1.378, 1.920e-3
-1.379, 1.973e-3
-1.380, 2.043e-3
-1.381, 2.154e-3
-1.382, 2.333e-3
-1.383, 2.449e-3
-1.384, 2.447e-3
-1.385, 2.452e-3
-1.386, 2.538e-3
-1.387, 2.707e-3
-1.388, 2.837e-3
-1.389, 2.901e-3
-1.390, 3.024e-3
-1.391, 3.134e-3
-1.392, 3.170e-3
-1.393, 3.264e-3
-1.394, 3.389e-3
-1.395, 3.468e-3
-1.396, 3.518e-3
-1.397, 3.611e-3
-1.398, 3.734e-3
-1.399, 3.792e-3
-1.400, 3.760e-3
-1.399, 3.714e-3
-1.398, 3.705e-3
-1.397, 3.668e-3
-1.396, 3.605e-3
-1.395, 3.506e-3
-1.394, 3.451e-3
-1.393, 3.439e-3
-1.392, 3.396e-3
-1.391, 3.323e-3
-1.390, 3.246e-3
-1.389, 3.158e-3
-1.388, 3.075e-3
-1.387, 2.960e-3
-1.386, 2.960e-3
-1.385, 2.994e-3
-1.384, 2.865e-3
-1.383, 2.773e-3
-1.382, 2.703e-3
-1.381, 2.643e-3
-1.380, 2.577e-3
-1.379, 2.516e-3
-1.378, 2.453e-3
-1.377, 2.336e-3
-1.376, 2.286e-3
-1.375, 2.252e-3
-1.374, 2.216e-3
-1.373, 2.138e-3
-1.372, 2.073e-3
-1.371, 2.032e-3
-1.370, 1.980e-3
-1.369, 1.914e-3
-1.368, 1.852e-3
-1.367, 1.797e-3
-1.366, 1.748e-3
-1.365, 1.707e-3
-1.364, 1.647e-3
-1.363, 1.598e-3
-1.362, 1.558e-3
-1.361, 1.545e-3
-1.360, 1.481e-3
-1.359, 1.407e-3
-1.358, 1.369e-3
-1.357, 1.339e-3
-1.356, 1.299e-3
-1.355, 1.255e-3
-1.354, 1.228e-3
-1.353, 1.199e-3
-1.352, 1.155e-3
-1.351, 1.117e-3
-1.350, 1.085e-3
-1.349, 1.046e-3
-1.348, 1.004e-3
-1.347, 9.668e-4
-1.346, 9.503e-4
-1.345, 9.195e-4
-1.344, 8.851e-4
-1.343, 8.551e-4
-1.342, 8.325e-4
-1.341, 8.069e-4
-1.340, 7.809e-4
-1.339, 7.538e-4
-1.338, 7.191e-4
-1.337, 6.873e-4
-1.336, 6.633e-4
-1.335, 6.486e-4
-1.334, 6.314e-4
-1.333, 5.982e-4
-1.332, 5.750e-4
-1.331, 5.555e-4
-1.330, 5.420e-4
-1.329, 5.202e-4
-1.328, 4.955e-4
-1.327, 4.835e-4
-1.326, 4.749e-4
-1.325, 4.517e-4
-1.324, 4.330e-4
-1.323, 4.201e-4
-1.322, 4.072e-4
-1.321, 3.906e-4
-1.320, 3.779e-4
-1.319, 3.670e-4
-1.318, 3.520e-4
-1.317, 3.375e-4
-1.316, 3.244e-4
-1.315, 3.104e-4
-1.314, 3.029e-4
-1.313, 2.934e-4
-1.312, 2.787e-4
-1.311, 2.681e-4
-1.310, 2.615e-4
-1.309, 2.471e-4
-1.308, 2.360e-4
-1.307, 2.325e-4
-1.306, 2.263e-4
-1.305, 2.092e-4
-1.304, 2.001e-4
-1.303, 1.963e-4
-1.302, 1.897e-4
-1.301, 1.794e-4
-1.300, 1.720e-4
-1.299, 1.675e-4
-1.298, 1.628e-4
-1.297, 1.564e-4
-1.296, 1.491e-4
-1.295, 1.423e-4
-1.294, 1.380e-4
-1.293, 1.335e-4
-1.292, 1.285e-4
-1.291, 1.236e-4
-1.290, 1.194e-4
-1.289, 1.138e-4
-1.288, 1.095e-4
-1.287, 1.064e-4
-1.286, 1.027e-4
-1.285, 9.794e-5
-1.284, 9.280e-5
-1.283, 9.066e-5
-1.282, 8.664e-5
-1.281, 8.506e-5
-1.280, 8.072e-5
-1.279, 7.565e-5
-1.278, 7.342e-5
-1.277, 7.036e-5
-1.276, 6.872e-5
-1.275, 6.561e-5
-1.274, 6.394e-5
-1.273, 6.102e-5
-1.272, 5.818e-5
-1.271, 5.555e-5
-1.270, 5.390e-5
-1.269, 5.222e-5
-1.268, 4.987e-5
-1.267, 4.747e-5
-1.266, 4.614e-5
-1.265, 4.419e-5
-1.264, 4.218e-5
-1.263, 4.117e-5
-1.262, 3.977e-5
-1.261, 3.684e-5
-1.260, 3.536e-5
-1.259, 3.463e-5
-1.258, 3.456e-5
-1.257, 3.167e-5
-1.256, 2.984e-5
-1.255, 2.931e-5
-1.254, 2.933e-5
-1.253, 2.693e-5
-1.252, 2.523e-5
-1.251, 2.411e-5
-1.250, 2.382e-5
-1.249, 2.287e-5
-1.248, 2.183e-5
-1.247, 2.082e-5
-1.246, 1.960e-5
-1.245, 1.864e-5
-1.244, 1.819e-5
-1.243, 1.744e-5
-1.242, 1.658e-5
-1.241, 1.562e-5
-1.240, 1.466e-5
-1.239, 1.482e-5
-1.238, 1.398e-5
-1.237, 1.248e-5
-1.236, 1.169e-5
-1.235, 1.139e-5
-1.234, 1.108e-5
-1.233, 1.023e-5
-1.232, 9.377e-6
-1.231, 8.789e-6
-1.230, 8.290e-6
-1.229, 7.669e-6
-1.228, 7.992e-6
-1.227, 7.409e-6
-1.226, 6.126e-6
-1.225, 5.248e-6
-1.224, 5.111e-6
-1.223, 5.538e-6
-1.222, 4.631e-6
-1.221, 4.234e-6
-1.220, 3.414e-6
-1.219, 2.882e-6
-1.218, 2.899e-6
-1.217, 2.721e-6
-1.216, 2.179e-6
-1.215, 1.268e-6
-1.214, 1.217e-6
-1.213, 1.239e-6
-1.212, 5.957e-7
-1.211, -2.666e-7
-1.210, -1.462e-7
-1.209, 1.823e-7
-1.208, -4.096e-7
-1.207, -1.004e-6
-1.206, -1.625e-6
-1.205, -1.436e-6
-1.204, -1.592e-6
-1.203, -1.819e-6
-1.202, -2.120e-6
-1.201, -2.662e-6
-1.200, -2.823e-6
-1.199, -2.870e-6
-1.198, -2.912e-6
-1.197, -3.583e-6
-1.196, -4.154e-6
-1.195, -3.976e-6
-1.194, -3.606e-6
-1.193, -4.145e-6
-1.192, -4.561e-6
-1.191, -5.028e-6
-1.190, -4.967e-6
-1.189, -4.888e-6
-1.188, -5.032e-6
-1.187, -5.497e-6
-1.186, -5.768e-6
-1.185, -6.013e-6
-1.184, -5.874e-6
-1.183, -5.574e-6
-1.182, -6.266e-6
-1.181, -6.609e-6
-1.180, -6.757e-6
-1.179, -6.912e-6
-1.178, -6.556e-6
-1.177, -7.074e-6
-1.176, -7.402e-6
-1.175, -7.600e-6
-1.174, -7.498e-6
-1.173, -7.323e-6
-1.172, -7.855e-6
-1.171, -8.286e-6
-1.170, -8.142e-6
-1.169, -8.094e-6
-1.168, -7.903e-6
-1.167, -8.219e-6
-1.166, -8.784e-6
-1.165, -8.664e-6
-1.164, -8.448e-6
-1.163, -8.567e-6
-1.162, -8.864e-6
-1.161, -9.208e-6
-1.160, -9.097e-6
-1.159, -8.926e-6
-1.158, -9.006e-6
-1.157, -9.556e-6
-1.156, -9.686e-6
-1.155, -9.696e-6
-1.154, -9.504e-6
-1.153, -9.369e-6
-1.152, -9.769e-6
-1.151, -1.009e-5
-1.150, -1.031e-5
-1.149, -1.006e-5
-1.148, -9.811e-6
-1.147, -1.029e-5
-1.146, -1.059e-5
-1.145, -1.061e-5
-1.144, -1.036e-5
-1.143, -1.024e-5
-1.142, -1.074e-5
-1.141, -1.096e-5
-1.140, -1.093e-5
-1.139, -1.097e-5
-1.138, -1.078e-5
-1.137, -1.130e-5
-1.136, -1.153e-5
-1.135, -1.149e-5
-1.134, -1.149e-5
-1.133, -1.141e-5
-1.132, -1.175e-5
-1.131, -1.205e-5
-1.130, -1.192e-5
-1.129, -1.172e-5
-1.128, -1.180e-5
-1.127, -1.211e-5
-1.126, -1.267e-5
-1.125, -1.280e-5
-1.124, -1.236e-5
-1.123, -1.218e-5
-1.122, -1.267e-5
-1.121, -1.324e-5
-1.120, -1.327e-5
-1.119, -1.282e-5
-1.118, -1.283e-5
-1.117, -1.314e-5
-1.116, -1.340e-5
-1.115, -1.360e-5
-1.114, -1.322e-5
-1.113, -1.331e-5
-1.112, -1.354e-5
-1.111, -1.390e-5
-1.110, -1.399e-5
-1.109, -1.381e-5
-1.108, -1.373e-5
-1.107, -1.434e-5
-1.106, -1.444e-5
-1.105, -1.439e-5
-1.104, -1.422e-5
-1.103, -1.440e-5
-1.102, -1.489e-5
-1.101, -1.493e-5
-1.100, -1.489e-5
-1.099, -1.494e-5
-1.098, -1.484e-5
-1.097, -1.528e-5
-1.096, -1.553e-5
-1.095, -1.549e-5
-1.094, -1.534e-5
-1.093, -1.528e-5
-1.092, -1.610e-5
-1.091, -1.630e-5
-1.090, -1.613e-5
-1.089, -1.600e-5
-1.088, -1.598e-5
-1.087, -1.633e-5
-1.086, -1.678e-5
-1.085, -1.678e-5
-1.084, -1.644e-5
-1.083, -1.677e-5
-1.082, -1.772e-5
-1.081, -1.799e-5
-1.080, -1.748e-5
-1.079, -1.712e-5
-1.078, -1.746e-5
-1.077, -1.775e-5
-1.076, -1.823e-5
-1.075, -1.829e-5
-1.074, -1.783e-5
-1.073, -1.803e-5
-1.072, -1.864e-5
-1.071, -1.897e-5
-1.070, -1.894e-5
-1.069, -1.879e-5
-1.068, -1.892e-5
-1.067, -1.919e-5
-1.066, -1.951e-5
-1.065, -1.935e-5
-1.064, -1.961e-5
-1.063, -1.987e-5
-1.062, -2.024e-5
-1.061, -2.038e-5
-1.060, -2.053e-5
-1.059, -2.044e-5
-1.058, -2.012e-5
-1.057, -2.074e-5
-1.056, -2.165e-5
-1.055, -2.184e-5
-1.054, -2.104e-5
-1.053, -2.086e-5
-1.052, -2.165e-5
-1.051, -2.224e-5
-1.050, -2.245e-5
-1.049, -2.250e-5
-1.048, -2.218e-5
-1.047, -2.232e-5
-1.046, -2.291e-5
-1.045, -2.274e-5
-1.044, -2.290e-5
-1.043, -2.317e-5
-1.042, -2.324e-5
-1.041, -2.379e-5
-1.040, -2.365e-5
-1.039, -2.335e-5
-1.038, -2.371e-5
-1.037, -2.431e-5
-1.036, -2.568e-5
-1.035, -2.537e-5
-1.034, -2.526e-5
-1.033, -2.530e-5
-1.032, -2.494e-5
-1.031, -2.526e-5
-1.030, -2.595e-5
-1.029, -2.559e-5
-1.028, -2.662e-5
-1.027, -2.752e-5
-1.026, -2.683e-5
-1.025, -2.695e-5
-1.024, -2.670e-5
-1.023, -2.640e-5
-1.022, -2.706e-5
-1.021, -2.779e-5
-1.020, -2.809e-5
-1.019, -2.754e-5
-1.018, -2.752e-5
-1.017, -2.821e-5
-1.016, -2.854e-5
-1.015, -2.829e-5
-1.014, -2.839e-5
-1.013, -2.851e-5
-1.012, -2.850e-5
-1.011, -2.956e-5
-1.010, -3.166e-5
-1.009, -3.089e-5
-1.008, -2.855e-5
-1.007, -2.992e-5
-1.006, -3.100e-5
-1.005, -3.200e-5
-1.004, -3.028e-5
-1.003, -3.085e-5
-1.002, -3.258e-5
-1.001, -3.181e-5
-1.000, -1.255e-5
-1.001, -5.340e-6
-1.002, -3.129e-6
-1.003, -1.672e-6
-1.004, -5.596e-7
-1.005, 7.180e-7
-1.006, 2.236e-6
-1.007, 3.187e-6
-1.008, 3.473e-6
-1.009, 3.961e-6
-1.010, 4.925e-6
-1.011, 5.641e-6
-1.012, 6.506e-6
-1.013, 6.616e-6
-1.014, 6.739e-6
-1.015, 7.627e-6
-1.016, 8.133e-6
-1.017, 8.583e-6
-1.018, 8.663e-6
-1.019, 8.702e-6
-1.020, 9.484e-6
-1.021, 1.103e-5
-1.022, 9.846e-6
-1.023, 9.878e-6
-1.024, 1.011e-5
-1.025, 1.081e-5
-1.026, 1.126e-5
-1.027, 1.133e-5
-1.028, 1.158e-5
-1.029, 1.160e-5
-1.030, 1.157e-5
-1.031, 1.226e-5
-1.032, 1.269e-5
-1.033, 1.247e-5
-1.034, 1.256e-5
-1.035, 1.308e-5
-1.036, 1.353e-5
-1.037, 1.335e-5
-1.038, 1.330e-5
-1.039, 1.328e-5
-1.040, 1.369e-5
-1.041, 1.406e-5
-1.042, 1.434e-5
-1.043, 1.390e-5
-1.044, 1.385e-5
-1.045, 1.444e-5
-1.046, 1.583e-5
-1.047, 1.498e-5
-1.048, 1.412e-5
-1.049, 1.452e-5
-1.050, 1.725e-5
-1.051, 1.537e-5
-1.052, 1.449e-5
-1.053, 1.468e-5
-1.054, 1.463e-5
-1.055, 1.527e-5
-1.056, 1.585e-5
-1.057, 1.592e-5
-1.058, 1.548e-5
-1.059, 1.573e-5
-1.060, 1.521e-5
-1.061, 1.591e-5
-1.062, 1.588e-5
-1.063, 1.573e-5
-1.064, 1.599e-5
-1.065, 1.666e-5
-1.066, 1.653e-5
-1.067, 1.616e-5
-1.068, 1.611e-5
-1.069, 1.588e-5
-1.070, 1.606e-5
-1.071, 1.706e-5
-1.072, 1.683e-5
-1.073, 1.643e-5
-1.074, 1.650e-5
-1.075, 1.687e-5
-1.076, 1.685e-5
-1.077, 1.699e-5
-1.078, 1.681e-5
-1.079, 1.667e-5
-1.080, 1.659e-5
-1.081, 1.728e-5
-1.082, 1.781e-5
-1.083, 1.715e-5
-1.084, 1.646e-5
-1.085, 1.693e-5
-1.086, 1.792e-5
-1.087, 1.729e-5
-1.088, 1.714e-5
-1.089, 1.691e-5
-1.090, 1.706e-5
-1.091, 1.704e-5
-1.092, 1.792e-5
-1.093, 1.803e-5
-1.094, 1.685e-5
-1.095, 1.701e-5
-1.096, 1.744e-5
-1.097, 1.779e-5
-1.098, 1.748e-5
-1.099, 1.705e-5
-1.100, 1.690e-5
-1.101, 1.775e-5
-1.102, 1.815e-5
-1.103, 1.776e-5
-1.104, 1.718e-5
-1.105, 1.702e-5
-1.106, 1.781e-5
-1.107, 1.783e-5
-1.108, 1.734e-5
-1.109, 1.713e-5
-1.110, 1.746e-5
-1.111, 1.789e-5
-1.112, 1.767e-5
-1.113, 1.823e-5
-1.114, 1.838e-5
-1.115, 1.683e-5
-1.116, 1.798e-5
-1.117, 1.776e-5
-1.118, 1.742e-5
-1.119, 1.776e-5
-1.120, 1.758e-5
-1.121, 1.744e-5
-1.122, 1.752e-5
-1.123, 1.755e-5
-1.124, 1.801e-5
-1.125, 1.744e-5
-1.126, 1.802e-5
-1.127, 1.872e-5
-1.128, 1.739e-5
-1.129, 1.699e-5
-1.130, 1.742e-5
-1.131, 1.780e-5
-1.132, 1.773e-5
-1.133, 1.843e-5
-1.134, 1.917e-5
-1.135, 1.725e-5
-1.136, 1.716e-5
-1.137, 1.776e-5
-1.138, 1.780e-5
-1.139, 1.752e-5
-1.140, 1.740e-5
-1.141, 1.804e-5
-1.142, 1.780e-5
-1.143, 1.773e-5
-1.144, 1.806e-5
-1.145, 1.791e-5
-1.146, 1.807e-5
-1.147, 1.794e-5
-1.148, 1.776e-5
-1.149, 1.756e-5
-1.150, 1.805e-5
-1.151, 1.898e-5
-1.152, 1.814e-5
-1.153, 1.821e-5
-1.154, 1.830e-5
-1.155, 1.805e-5
-1.156, 1.815e-5
-1.157, 1.818e-5
-1.158, 1.818e-5
-1.159, 1.795e-5
-1.160, 1.822e-5
-1.161, 1.867e-5
-1.162, 1.870e-5
-1.163, 1.815e-5
-1.164, 1.815e-5
-1.165, 1.860e-5
-1.166, 1.883e-5
-1.167, 1.883e-5
-1.168, 1.851e-5
-1.169, 1.891e-5
-1.170, 1.871e-5
-1.171, 1.863e-5
-1.172, 1.929e-5
-1.173, 1.892e-5
-1.174, 1.904e-5
-1.175, 1.939e-5
-1.176, 1.900e-5
-1.177, 1.919e-5
-1.178, 1.913e-5
-1.179, 1.908e-5
-1.180, 1.937e-5
-1.181, 1.976e-5
-1.182, 1.976e-5
-1.183, 1.899e-5
-1.184, 1.960e-5
-1.185, 1.989e-5
-1.186, 1.992e-5
-1.187, 1.962e-5
-1.188, 1.992e-5
-1.189, 1.974e-5
-1.190, 2.004e-5
-1.191, 2.156e-5
-1.192, 2.084e-5
-1.193, 1.991e-5
-1.194, 2.014e-5
-1.195, 2.056e-5
-1.196, 2.018e-5
-1.197, 2.089e-5
-1.198, 2.110e-5
-1.199, 2.372e-5
-1.200, 2.099e-5
-1.201, 2.038e-5
-1.202, 2.070e-5
-1.203, 2.057e-5
-1.204, 2.223e-5
-1.205, 2.142e-5
-1.206, 2.103e-5
-1.207, 2.151e-5
-1.208, 2.131e-5
-1.209, 2.126e-5
-1.210, 2.210e-5
-1.211, 2.274e-5
-1.212, 2.255e-5
-1.213, 2.229e-5
-1.214, 2.264e-5
-1.215, 2.277e-5
-1.216, 2.279e-5
-1.217, 2.284e-5
-1.218, 2.343e-5
-1.219, 2.342e-5
-1.220, 2.388e-5
-1.221, 2.491e-5
-1.222, 2.400e-5
-1.223, 2.371e-5
-1.224, 2.418e-5
-1.225, 2.499e-5
-1.226, 2.521e-5
-1.227, 2.533e-5
-1.228, 2.537e-5
-1.229, 2.550e-5
-1.230, 2.575e-5
-1.231, 2.624e-5
-1.232, 2.644e-5
-1.233, 2.686e-5
-1.234, 2.687e-5
-1.235, 2.697e-5
-1.236, 2.848e-5
-1.237, 2.939e-5
-1.238, 2.771e-5
-1.239, 2.824e-5
-1.240, 2.903e-5
-1.241, 3.115e-5
-1.242, 2.942e-5
-1.243, 2.958e-5
-1.244, 3.075e-5
-1.245, 3.118e-5
-1.246, 3.132e-5
-1.247, 3.193e-5
-1.248, 3.242e-5
-1.249, 3.329e-5
-1.250, 3.369e-5
-1.251, 3.432e-5
-1.252, 3.470e-5
-1.253, 3.533e-5
-1.254, 3.560e-5
-1.255, 3.623e-5
-1.256, 3.755e-5
-1.257, 3.810e-5
-1.258, 3.875e-5
-1.259, 3.954e-5
-1.260, 4.038e-5
-1.261, 4.131e-5
-1.262, 4.226e-5
-1.263, 4.366e-5
-1.264, 4.481e-5
-1.265, 4.465e-5
-1.266, 4.594e-5
-1.267, 4.770e-5
-1.268, 4.798e-5
-1.269, 4.914e-5
-1.270, 5.112e-5
-1.271, 5.367e-5
-1.272, 5.339e-5
-1.273, 5.480e-5
-1.274, 5.757e-5
-1.275, 6.085e-5
-1.276, 5.974e-5
-1.277, 6.116e-5
-1.278, 6.339e-5
-1.279, 6.504e-5
-1.280, 6.770e-5
-1.281, 7.033e-5
-1.282, 7.416e-5
-1.283, 7.537e-5
-1.284, 7.653e-5
-1.285, 8.036e-5
-1.286, 8.277e-5
-1.287, 8.528e-5
-1.288, 8.896e-5
-1.289, 9.244e-5
-1.290, 9.571e-5
-1.291, 9.939e-5
-1.292, 1.027e-4
-1.293, 1.071e-4
-1.294, 1.114e-4
-1.295, 1.183e-4
-1.296, 1.212e-4
-1.297, 1.240e-4
-1.298, 1.297e-4
-1.299, 1.364e-4
-1.300, 1.418e-4
-1.301, 1.470e-4
-1.302, 1.541e-4
-1.303, 1.581e-4
-1.304, 1.666e-4
-1.305, 1.757e-4
-1.306, 1.824e-4
-1.307, 1.891e-4
-1.308, 1.970e-4
-1.309, 2.030e-4
-1.310, 2.130e-4
-1.311, 2.320e-4
-1.312, 2.347e-4
-1.313, 2.414e-4
-1.314, 2.533e-4
-1.315, 2.650e-4
-1.316, 2.794e-4
-1.317, 2.889e-4
-1.318, 3.027e-4
-1.319, 3.166e-4
-1.320, 3.293e-4
-1.321, 3.445e-4
-1.322, 3.614e-4
-1.323, 3.766e-4
-1.324, 3.921e-4
-1.325, 4.078e-4
-1.326, 4.249e-4
-1.327, 4.416e-4
-1.328, 4.604e-4
-1.329, 4.818e-4
-1.330, 5.026e-4
-1.331, 5.216e-4
-1.332, 5.458e-4
-1.333, 5.667e-4
-1.334, 5.852e-4
-1.335, 6.075e-4
-1.336, 6.353e-4
-1.337, 6.659e-4
-1.338, 6.935e-4
-1.339, 7.112e-4
-1.340, 7.325e-4
-1.341, 7.612e-4
-1.342, 7.878e-4
-1.343, 8.193e-4
-1.344, 8.455e-4
-1.345, 8.842e-4
-1.346, 9.244e-4
-1.347, 9.471e-4
-1.348, 9.677e-4
-1.349, 1.002e-3
-1.350, 1.040e-3
-1.351, 1.076e-3
-1.352, 1.109e-3
-1.353, 1.139e-3
-1.354, 1.178e-3
-1.355, 1.223e-3
-1.356, 1.254e-3
-1.357, 1.282e-3
-1.358, 1.325e-3
-1.359, 1.384e-3
-1.360, 1.419e-3
-1.361, 1.445e-3
-1.362, 1.475e-3
-1.363, 1.508e-3
-1.364, 1.568e-3
-1.365, 1.608e-3
-1.366, 1.631e-3
-1.367, 1.665e-3
-1.368, 1.708e-3
-1.369, 1.786e-3
-1.370, 1.851e-3
-1.371, 1.867e-3
-1.372, 1.869e-3
-1.373, 1.924e-3
-1.374, 2.001e-3
-1.375, 2.030e-3
-1.376, 2.060e-3
-1.377, 2.104e-3
-1.378, 2.164e-3
-1.379, 2.210e-3
-1.380, 2.243e-3
-1.381, 2.307e-3
-1.382, 2.370e-3
-1.383, 2.403e-3
-1.384, 2.423e-3
-1.385, 2.461e-3
-1.386, 2.500e-3
-1.387, 2.553e-3
-1.388, 2.576e-3
-1.389, 2.619e-3
-1.390, 2.742e-3
-1.391, 2.901e-3
-1.392, 2.854e-3
-1.393, 2.814e-3
-1.394, 2.876e-3
-1.395, 2.967e-3
-1.396, 3.015e-3
-1.397, 3.030e-3
-1.398, 3.097e-3
-1.399, 3.205e-3
-1.400, 3.204e-3
-1.399, 3.154e-3
-1.398, 3.083e-3
-1.397, 2.936e-3
-1.396, 2.868e-3
-1.395, 2.810e-3
-1.394, 2.754e-3
-1.393, 2.693e-3
-1.392, 2.618e-3
-1.391, 2.545e-3
-1.390, 2.496e-3
-1.389, 2.571e-3
-1.388, 2.555e-3
-1.387, 2.380e-3
-1.386, 2.243e-3
-1.385, 2.181e-3
-1.384, 2.184e-3
-1.383, 2.179e-3
-1.382, 2.059e-3
-1.381, 1.996e-3
-1.380, 1.970e-3
-1.379, 1.918e-3
-1.378, 1.845e-3
-1.377, 1.811e-3
-1.376, 1.769e-3
-1.375, 1.708e-3
-1.374, 1.658e-3
-1.373, 1.618e-3
-1.372, 1.577e-3
-1.371, 1.524e-3
-1.370, 1.469e-3
-1.369, 1.423e-3
-1.368, 1.392e-3
-1.367, 1.364e-3
-1.366, 1.318e-3
-1.365, 1.273e-3
-1.364, 1.238e-3
-1.363, 1.207e-3
-1.362, 1.168e-3
-1.361, 1.137e-3
-1.360, 1.094e-3
-1.359, 1.053e-3
-1.358, 1.025e-3
-1.357, 9.941e-4
-1.356, 9.556e-4
-1.355, 9.391e-4
-1.354, 9.144e-4
-1.353, 8.778e-4
-1.352, 8.485e-4
-1.351, 8.252e-4
-1.350, 7.946e-4
-1.349, 7.624e-4
-1.348, 7.383e-4
-1.347, 7.179e-4
-1.346, 6.963e-4
-1.345, 6.597e-4
-1.344, 6.380e-4
-1.343, 6.218e-4
-1.342, 6.069e-4
-1.341, 5.799e-4
-1.340, 5.545e-4
-1.339, 5.381e-4
-1.338, 5.269e-4
-1.337, 5.041e-4
-1.336, 4.794e-4
-1.335, 4.632e-4
-1.334, 4.476e-4
-1.333, 4.264e-4
-1.332, 4.124e-4
-1.331, 4.039e-4
-1.330, 3.905e-4
-1.329, 3.648e-4
-1.328, 3.535e-4
-1.327, 3.414e-4
-1.326, 3.322e-4
-1.325, 3.162e-4
-1.324, 3.048e-4
-1.323, 2.984e-4
-1.322, 2.831e-4
-1.321, 2.692e-4
-1.320, 2.607e-4
-1.319, 2.514e-4
-1.318, 2.414e-4
-1.317, 2.337e-4
-1.316, 2.239e-4
-1.315, 2.135e-4
-1.314, 2.062e-4
-1.313, 1.968e-4
-1.312, 1.925e-4
-1.311, 1.830e-4
-1.310, 1.754e-4
-1.309, 1.689e-4
-1.308, 1.634e-4
-1.307, 1.569e-4
-1.306, 1.504e-4
-1.305, 1.441e-4
-1.304, 1.387e-4
-1.303, 1.342e-4
-1.302, 1.286e-4
-1.301, 1.236e-4
-1.300, 1.188e-4
-1.299, 1.137e-4
-1.298, 1.097e-4
-1.297, 1.049e-4
-1.296, 1.013e-4
-1.295, 9.734e-5
-1.294, 9.347e-5
-1.293, 8.982e-5
-1.292, 8.628e-5
-1.291, 8.329e-5
-1.290, 8.007e-5
-1.289, 7.653e-5
-1.288, 7.313e-5
-1.287, 7.042e-5
-1.286, 6.821e-5
-1.285, 6.529e-5
-1.284, 6.250e-5
-1.283, 6.045e-5
-1.282, 5.858e-5
-1.281, 5.502e-5
-1.280, 5.290e-5
-1.279, 5.127e-5
-1.278, 4.954e-5
-1.277, 4.794e-5
-1.276, 4.544e-5
-1.275, 4.360e-5
-1.274, 4.177e-5
-1.273, 3.992e-5
-1.272, 3.851e-5
-1.271, 3.704e-5
-1.270, 3.576e-5
-1.269, 3.422e-5
-1.268, 3.298e-5
-1.267, 3.199e-5
-1.266, 3.047e-5
-1.265, 2.901e-5
-1.264, 2.788e-5
-1.263, 2.669e-5
-1.262, 2.556e-5
-1.261, 2.451e-5
-1.260, 2.392e-5
-1.259, 2.292e-5
-1.258, 2.164e-5
-1.257, 2.058e-5
-1.256, 2.004e-5
-1.255, 1.922e-5
-1.254, 1.828e-5
-1.253, 1.751e-5
-1.252, 1.676e-5
-1.251, 1.633e-5
-1.250, 1.558e-5
-1.249, 1.488e-5
-1.248, 1.408e-5
-1.247, 1.322e-5
-1.246, 1.234e-5
-1.245, 1.235e-5
-1.244, 1.218e-5
-1.243, 1.119e-5
-1.242, 1.040e-5
-1.241, 9.835e-6
-1.240, 9.570e-6
-1.239, 9.353e-6
-1.238, 8.716e-6
-1.237, 8.160e-6
-1.236, 7.546e-6
-1.235, 7.416e-6
-1.234, 7.137e-6
-1.233, 6.591e-6
-1.232, 6.228e-6
-1.231, 5.990e-6
-1.230, 5.196e-6
-1.229, 5.091e-6
-1.228, 4.876e-6
-1.227, 4.491e-6
-1.226, 3.727e-6
-1.225, 3.633e-6
-1.224, 3.547e-6
-1.223, 3.150e-6
-1.222, 2.530e-6
-1.221, 2.435e-6
-1.220, 2.405e-6
-1.219, 2.183e-6
-1.218, 1.809e-6
-1.217, 1.357e-6
-1.216, 1.411e-6
-1.215, 1.251e-6
-1.214, 9.933e-7
-1.213, 7.180e-7
-1.212, 2.090e-7
-1.211, 4.223e-8
-1.210, 1.656e-7
-1.209, 1.064e-7
-1.208, -4.854e-8
-1.207, -7.431e-7
-1.206, -7.845e-7
-1.205, -8.171e-7
-1.204, -8.487e-7
-1.203, -1.246e-6
-1.202, -1.664e-6
-1.201, -1.761e-6
-1.200, -1.654e-6
-1.199, -1.660e-6
-1.198, -2.026e-6
-1.197, -2.347e-6
-1.196, -2.470e-6
-1.195, -2.436e-6
-1.194, -2.381e-6
-1.193, -2.757e-6
-1.192, -3.052e-6
-1.191, -3.121e-6
-1.190, -3.168e-6
-1.189, -3.031e-6
-1.188, -3.335e-6
-1.187, -3.781e-6
-1.186, -3.744e-6
-1.185, -3.700e-6
-1.184, -3.566e-6
-1.183, -3.968e-6
-1.182, -4.317e-6
-1.181, -4.252e-6
-1.180, -4.193e-6
-1.179, -4.234e-6
-1.178, -4.540e-6
-1.177, -4.842e-6
-1.176, -4.802e-6
-1.175, -4.677e-6
-1.174, -4.712e-6
-1.173, -4.976e-6
-1.172, -5.320e-6
-1.171, -5.445e-6
-1.170, -5.150e-6
-1.169, -5.223e-6
-1.168, -5.440e-6
-1.167, -5.739e-6
-1.166, -5.836e-6
-1.165, -5.669e-6
-1.164, -5.606e-6
-1.163, -5.970e-6
-1.162, -6.165e-6
-1.161, -6.330e-6
-1.160, -6.073e-6
-1.159, -6.041e-6
-1.158, -6.413e-6
-1.157, -6.574e-6
-1.156, -6.549e-6
-1.155, -6.692e-6
-1.154, -6.495e-6
-1.153, -6.928e-6
-1.152, -7.067e-6
-1.151, -7.120e-6
-1.150, -7.029e-6
-1.149, -6.903e-6
-1.148, -7.187e-6
-1.147, -7.565e-6
-1.146, -7.509e-6
-1.145, -7.391e-6
-1.144, -7.252e-6
-1.143, -7.540e-6
-1.142, -7.899e-6
-1.141, -7.897e-6
-1.140, -7.774e-6
-1.139, -7.691e-6
-1.138, -7.954e-6
-1.137, -8.331e-6
-1.136, -8.325e-6
-1.135, -8.106e-6
-1.134, -8.061e-6
-1.133, -8.421e-6
-1.132, -8.683e-6
-1.131, -8.722e-6
-1.130, -8.492e-6
-1.129, -8.427e-6
-1.128, -8.728e-6
-1.127, -9.048e-6
-1.126, -9.225e-6
-1.125, -8.910e-6
-1.124, -8.806e-6
-1.123, -9.233e-6
-1.122, -9.408e-6
-1.121, -9.513e-6
-1.120, -9.276e-6
-1.119, -9.167e-6
-1.118, -9.529e-6
-1.117, -9.770e-6
-1.116, -9.868e-6
-1.115, -9.694e-6
-1.114, -9.540e-6
-1.113, -9.963e-6
-1.112, -1.022e-5
-1.111, -1.013e-5
-1.110, -1.015e-5
-1.109, -1.010e-5
-1.108, -1.027e-5
-1.107, -1.083e-5
-1.106, -1.070e-5
-1.105, -1.057e-5
-1.104, -1.049e-5
-1.103, -1.078e-5
-1.102, -1.134e-5
-1.101, -1.129e-5
-1.100, -1.108e-5
-1.099, -1.104e-5
-1.098, -1.122e-5
-1.097, -1.157e-5
-1.096, -1.165e-5
-1.095, -1.147e-5
-1.094, -1.141e-5
-1.093, -1.169e-5
-1.092, -1.206e-5
-1.091, -1.217e-5
-1.090, -1.197e-5
-1.089, -1.189e-5
-1.088, -1.215e-5
-1.087, -1.242e-5
-1.086, -1.267e-5
-1.085, -1.254e-5
-1.084, -1.241e-5
-1.083, -1.274e-5
-1.082, -1.309e-5
-1.081, -1.322e-5
-1.080, -1.289e-5
-1.079, -1.286e-5
-1.078, -1.332e-5
-1.077, -1.367e-5
-1.076, -1.369e-5
-1.075, -1.359e-5
-1.074, -1.346e-5
-1.073, -1.374e-5
-1.072, -1.407e-5
-1.071, -1.442e-5
-1.070, -1.436e-5
-1.069, -1.405e-5
-1.068, -1.422e-5
-1.067, -1.488e-5
-1.066, -1.496e-5
-1.065, -1.524e-5
-1.064, -1.481e-5
-1.063, -1.504e-5
-1.062, -1.567e-5
-1.061, -1.544e-5
-1.060, -1.535e-5
-1.059, -1.550e-5
-1.058, -1.584e-5
-1.057, -1.618e-5
-1.056, -1.603e-5
-1.055, -1.606e-5
-1.054, -1.632e-5
-1.053, -1.632e-5
-1.052, -1.659e-5
-1.051, -1.700e-5
-1.050, -1.712e-5
-1.049, -1.672e-5
-1.048, -1.687e-5
-1.047, -1.769e-5
-1.046, -1.841e-5
-1.045, -1.754e-5
-1.044, -1.738e-5
-1.043, -1.780e-5
-1.042, -1.833e-5
-1.041, -1.874e-5
-1.040, -1.839e-5
-1.039, -1.820e-5
-1.038, -1.863e-5
-1.037, -1.898e-5
-1.036, -1.933e-5
-1.035, -2.044e-5
-1.034, -1.919e-5
-1.033, -1.906e-5
-1.032, -1.990e-5
-1.031, -2.074e-5
-1.030, -2.030e-5
-1.029, -1.970e-5
-1.028, -2.035e-5
-1.027, -2.126e-5
-1.026, -2.099e-5
-1.025, -2.086e-5
-1.024, -2.089e-5
-1.023, -2.183e-5
-1.022, -2.165e-5
-1.021, -2.160e-5
-1.020, -2.160e-5
-1.019, -2.178e-5
-1.018, -2.279e-5
-1.017, -2.413e-5
-1.016, -2.258e-5
-1.015, -2.209e-5
-1.014, -2.254e-5
-1.013, -2.320e-5
-1.012, -2.359e-5
-1.011, -2.376e-5
-1.010, -2.384e-5
-1.009, -2.389e-5
-1.008, -2.380e-5
-1.007, -2.450e-5
-1.006, -2.497e-5
-1.005, -2.427e-5
-1.004, -2.436e-5
-1.003, -2.546e-5
-1.002, -2.559e-5
-1.001, -2.524e-5
-1.000, -8.140e-6
-1.001, -2.049e-6
-1.002, -2.735e-7
-1.003, 6.924e-7
-1.004, 1.860e-6
-1.005, 3.005e-6
-1.006, 3.987e-6
-1.007, 4.421e-6
-1.008, 4.683e-6
-1.009, 5.288e-6
-1.010, 6.143e-6
-1.011, 6.648e-6
-1.012, 6.764e-6
-1.013, 7.225e-6
-1.014, 7.602e-6
-1.015, 7.793e-6
-1.016, 8.682e-6
-1.017, 9.347e-6
-1.018, 8.317e-6
-1.019, 8.206e-6
-1.020, 8.900e-6
-1.021, 9.814e-6
-1.022, 9.675e-6
-1.023, 9.533e-6
-1.024, 9.625e-6
-1.025, 9.851e-6
-1.026, 1.098e-5
-1.027, 1.097e-5
-1.028, 1.022e-5
-1.029, 1.026e-5
-1.030, 1.078e-5
-1.031, 1.164e-5
-1.032, 1.110e-5
-1.033, 1.089e-5
-1.034, 1.128e-5
-1.035, 1.160e-5
-1.036, 1.195e-5
-1.037, 1.280e-5
-1.038, 1.227e-5
-1.039, 1.137e-5
-1.040, 1.208e-5
-1.041, 1.256e-5
-1.042, 1.221e-5
-1.043, 1.209e-5
-1.044, 1.262e-5
-1.045, 1.268e-5
-1.046, 1.288e-5
-1.047, 1.278e-5
-1.048, 1.275e-5
-1.049, 1.288e-5
-1.050, 1.296e-5
-1.051, 1.336e-5
-1.052, 1.290e-5
-1.053, 1.350e-5
-1.054, 1.386e-5
-1.055, 1.359e-5
-1.056, 1.334e-5
-1.057, 1.332e-5
-1.058, 1.329e-5
-1.059, 1.323e-5
-1.060, 1.384e-5
-1.061, 1.389e-5
-1.062, 1.449e-5
-1.063, 1.385e-5
-1.064, 1.349e-5
-1.065, 1.404e-5
-1.066, 1.437e-5
-1.067, 1.394e-5
-1.068, 1.358e-5
-1.069, 1.410e-5
-1.070, 1.438e-5
-1.071, 1.433e-5
-1.072, 1.416e-5
-1.073, 1.471e-5
-1.074, 1.565e-5
-1.075, 1.363e-5
-1.076, 1.453e-5
-1.077, 1.417e-5
-1.078, 1.467e-5
-1.079, 1.389e-5
-1.080, 1.405e-5
-1.081, 1.471e-5
-1.082, 1.472e-5
-1.083, 1.395e-5
-1.084, 1.420e-5
-1.085, 1.442e-5
-1.086, 1.478e-5
-1.087, 1.451e-5
-1.088, 1.421e-5
-1.089, 1.460e-5
-1.090, 1.496e-5
-1.091, 1.497e-5
-1.092, 1.449e-5
-1.093, 1.437e-5
-1.094, 1.451e-5
-1.095, 1.526e-5
-1.096, 1.500e-5
-1.097, 1.447e-5
-1.098, 1.441e-5
-1.099, 1.449e-5
-1.100, 1.453e-5
-1.101, 1.535e-5
-1.102, 1.516e-5
-1.103, 1.504e-5
-1.104, 1.442e-5
-1.105, 1.472e-5
-1.106, 1.515e-5
-1.107, 1.504e-5
-1.108, 1.479e-5
-1.109, 1.460e-5
-1.110, 1.485e-5
-1.111, 1.524e-5
-1.112, 1.506e-5
-1.113, 1.509e-5
-1.114, 1.487e-5
-1.115, 1.472e-5
-1.116, 1.507e-5
-1.117, 1.506e-5
-1.118, 1.485e-5
-1.119, 1.488e-5
-1.120, 1.518e-5
-1.121, 1.516e-5
-1.122, 1.535e-5
-1.123, 1.550e-5
-1.124, 1.486e-5
-1.125, 1.502e-5
-1.126, 1.515e-5
-1.127, 1.509e-5
-1.128, 1.486e-5
-1.129, 1.494e-5
-1.130, 1.568e-5
-1.131, 1.676e-5
-1.132, 1.500e-5
-1.133, 1.422e-5
-1.134, 1.472e-5
-1.135, 1.548e-5
-1.136, 1.550e-5
-1.137, 1.467e-5
-1.138, 1.479e-5
-1.139, 1.541e-5
-1.140, 1.550e-5
-1.141, 1.498e-5
-1.142, 1.486e-5
-1.143, 1.493e-5
-1.144, 1.530e-5
-1.145, 1.515e-5
-1.146, 1.555e-5
-1.147, 1.547e-5
-1.148, 1.524e-5
-1.149, 1.524e-5
-1.150, 1.544e-5
-1.151, 1.553e-5
-1.152, 1.559e-5
-1.153, 1.594e-5
-1.154, 1.527e-5
-1.155, 1.530e-5
-1.156, 1.597e-5
-1.157, 1.556e-5
-1.158, 1.520e-5
-1.159, 1.567e-5
-1.160, 1.596e-5
-1.161, 1.579e-5
-1.162, 1.565e-5
-1.163, 1.534e-5
-1.164, 1.544e-5
-1.165, 1.600e-5
-1.166, 1.608e-5
-1.167, 1.610e-5
-1.168, 1.564e-5
-1.169, 1.577e-5
-1.170, 1.574e-5
-1.171, 1.689e-5
-1.172, 1.583e-5
-1.173, 1.604e-5
-1.174, 1.600e-5
-1.175, 1.596e-5
-1.176, 1.605e-5
-1.177, 1.617e-5
-1.178, 1.635e-5
-1.179, 1.615e-5
-1.180, 1.598e-5
-1.181, 1.647e-5
-1.182, 1.700e-5
-1.183, 1.671e-5
-1.184, 1.590e-5
-1.185, 1.646e-5
-1.186, 1.701e-5
-1.187, 1.661e-5
-1.188, 1.630e-5
-1.189, 1.649e-5
-1.190, 1.706e-5
-1.191, 1.727e-5
-1.192, 1.689e-5
-1.193, 1.657e-5
-1.194, 1.697e-5
-1.195, 1.723e-5
-1.196, 1.747e-5
-1.197, 1.745e-5
-1.198, 1.691e-5
-1.199, 1.736e-5
-1.200, 1.750e-5
-1.201, 1.764e-5
-1.202, 1.763e-5
-1.203, 1.748e-5
-1.204, 1.751e-5
-1.205, 1.820e-5
-1.206, 1.829e-5
-1.207, 1.838e-5
-1.208, 1.767e-5
-1.209, 1.797e-5
-1.210, 1.852e-5
-1.211, 1.858e-5
-1.212, 1.856e-5
-1.213, 1.832e-5
-1.214, 1.891e-5
-1.215, 1.939e-5
-1.216, 1.926e-5
-1.217, 1.901e-5
-1.218, 1.938e-5
-1.219, 1.931e-5
-1.220, 1.971e-5
-1.221, 1.965e-5
-1.222, 1.993e-5
-1.223, 1.992e-5
-1.224, 1.953e-5
-1.225, 2.033e-5
-1.226, 2.092e-5
-1.227, 2.129e-5
-1.228, 2.060e-5
-1.229, 2.097e-5
-1.230, 2.214e-5
-1.231, 2.128e-5
-1.232, 2.154e-5
-1.233, 2.222e-5
-1.234, 2.197e-5
-1.235, 2.197e-5
-1.236, 2.266e-5
-1.237, 2.351e-5
-1.238, 2.339e-5
-1.239, 2.309e-5
-1.240, 2.366e-5
-1.241, 2.437e-5
-1.242, 2.655e-5
-1.243, 2.447e-5
-1.244, 2.403e-5
-1.245, 2.560e-5
-1.246, 2.609e-5
-1.247, 2.655e-5
-1.248, 2.621e-5
-1.249, 2.684e-5
-1.250, 2.765e-5
-1.251, 2.790e-5
-1.252, 2.807e-5
-1.253, 2.824e-5
-1.254, 2.934e-5
-1.255, 2.990e-5
-1.256, 3.033e-5
-1.257, 3.050e-5
-1.258, 3.145e-5
-1.259, 3.181e-5
-1.260, 3.283e-5
-1.261, 3.372e-5
-1.262, 3.443e-5
-1.263, 3.492e-5
-1.264, 3.506e-5
-1.265, 3.619e-5
-1.266, 3.775e-5
-1.267, 3.852e-5
-1.268, 3.860e-5
-1.269, 3.984e-5
-1.270, 4.109e-5
-1.271, 4.267e-5
-1.272, 4.287e-5
-1.273, 4.451e-5
-1.274, 4.647e-5
-1.275, 4.757e-5
-1.276, 4.858e-5
-1.277, 4.948e-5
-1.278, 5.109e-5
-1.279, 5.273e-5
-1.280, 5.426e-5
-1.281, 5.625e-5
-1.282, 5.853e-5
-1.283, 6.053e-5
-1.284, 6.262e-5
-1.285, 6.406e-5
-1.286, 6.600e-5
-1.287, 6.875e-5
-1.288, 7.133e-5
-1.289, 7.388e-5
-1.290, 7.622e-5
-1.291, 7.901e-5
-1.292, 8.220e-5
-1.293, 8.570e-5
-1.294, 8.841e-5
-1.295, 9.206e-5
-1.296, 9.674e-5
-1.297, 9.933e-5
-1.298, 1.034e-4
-1.299, 1.088e-4
-1.300, 1.126e-4
-1.301, 1.158e-4
-1.302, 1.213e-4
-1.303, 1.281e-4
-1.304, 1.344e-4
-1.305, 1.376e-4
-1.306, 1.423e-4
-1.307, 1.493e-4
-1.308, 1.569e-4
-1.309, 1.650e-4
-1.310, 1.718e-4
-1.311, 1.783e-4
-1.312, 1.862e-4
-1.313, 1.962e-4
-1.314, 2.044e-4
-1.315, 2.107e-4
-1.316, 2.195e-4
-1.317, 2.311e-4
-1.318, 2.437e-4
-1.319, 2.515e-4
-1.320, 2.629e-4
-1.321, 2.775e-4
-1.322, 2.903e-4
-1.323, 3.011e-4
-1.324, 3.121e-4
-1.325, 3.260e-4
-1.326, 3.457e-4
-1.327, 3.531e-4
-1.328, 3.670e-4
-1.329, 3.878e-4
-1.330, 4.151e-4
-1.331, 4.291e-4
-1.332, 4.402e-4
-1.333, 4.568e-4
-1.334, 4.745e-4
-1.335, 4.962e-4
-1.336, 5.158e-4
-1.337, 5.422e-4
-1.338, 5.683e-4
-1.339, 5.856e-4
-1.340, 6.091e-4
-1.341, 6.322e-4
-1.342, 6.565e-4
-1.343, 6.815e-4
-1.344, 7.073e-4
-1.345, 7.340e-4
-1.346, 7.690e-4
-1.347, 7.930e-4
-1.348, 8.186e-4
-1.349, 8.498e-4
-1.350, 8.823e-4
-1.351, 9.124e-4
-1.352, 9.504e-4
-1.353, 9.807e-4
-1.354, 1.009e-3
-1.355, 1.048e-3
-1.356, 1.069e-3
-1.357, 1.099e-3
-1.358, 1.144e-3
-1.359, 1.193e-3
-1.360, 1.224e-3
-1.361, 1.254e-3
-1.362, 1.292e-3
-1.363, 1.333e-3
-1.364, 1.349e-3
-1.365, 1.404e-3
-1.366, 1.467e-3
-1.367, 1.532e-3
-1.368, 1.546e-3
-1.369, 1.550e-3
-1.370, 1.597e-3
-1.371, 1.670e-3
-1.372, 1.702e-3
-1.373, 1.723e-3
-1.374, 1.738e-3
-1.375, 1.791e-3
-1.376, 1.897e-3
-1.377, 2.004e-3
-1.378, 1.962e-3
-1.379, 1.963e-3
-1.380, 2.011e-3
-1.381, 2.097e-3
-1.382, 2.140e-3
-1.383, 2.159e-3
-1.384, 2.207e-3
-1.385, 2.259e-3
-1.386, 2.288e-3
-1.387, 2.318e-3
-1.388, 2.406e-3
-1.389, 2.518e-3
-1.390, 2.501e-3
-1.391, 2.530e-3
-1.392, 2.581e-3
-1.393, 2.640e-3
-1.394, 2.692e-3
-1.395, 2.742e-3
-1.396, 2.798e-3
-1.397, 2.836e-3
-1.398, 2.882e-3
-1.399, 2.947e-3
-1.400, 2.964e-3
-1.399, 2.923e-3
-1.398, 2.883e-3
-1.397, 2.805e-3
-1.396, 2.733e-3
-1.395, 2.670e-3
-1.394, 2.627e-3
-1.393, 2.579e-3
-1.392, 2.520e-3
-1.391, 2.450e-3
-1.390, 2.378e-3
-1.389, 2.332e-3
-1.388, 2.277e-3
-1.387, 2.218e-3
-1.386, 2.159e-3
-1.385, 2.126e-3
-1.384, 2.073e-3
-1.383, 1.985e-3
-1.382, 1.947e-3
-1.381, 1.894e-3
-1.380, 1.857e-3
-1.379, 1.821e-3
-1.378, 1.764e-3
-1.377, 1.711e-3
-1.376, 1.678e-3
-1.375, 1.643e-3
-1.374, 1.590e-3
-1.373, 1.530e-3
-1.372, 1.501e-3
-1.371, 1.473e-3
-1.370, 1.412e-3
-1.369, 1.379e-3
-1.368, 1.344e-3
-1.367, 1.289e-3
-1.366, 1.258e-3
-1.365, 1.220e-3
-1.364, 1.181e-3
-1.363, 1.135e-3
-1.362, 1.105e-3
-1.361, 1.102e-3
-1.360, 1.058e-3
-1.359, 1.012e-3
-1.358, 9.893e-4
-1.357, 9.645e-4
-1.356, 9.209e-4
-1.355, 8.817e-4
-1.354, 8.514e-4
-1.353, 8.354e-4
-1.352, 8.105e-4
-1.351, 7.745e-4
-1.350, 7.519e-4
-1.349, 7.306e-4
-1.348, 7.015e-4
-1.347, 6.790e-4
-1.346, 6.558e-4
-1.345, 6.290e-4
-1.344, 6.050e-4
-1.343, 5.871e-4
-1.342, 5.635e-4
-1.341, 5.454e-4
-1.340, 5.317e-4
-1.339, 5.113e-4
-1.338, 4.866e-4
-1.337, 4.677e-4
-1.336, 4.517e-4
-1.335, 4.328e-4
-1.334, 4.188e-4
-1.333, 4.080e-4
-1.332, 3.932e-4
-1.331, 3.770e-4
-1.330, 3.629e-4
-1.329, 3.485e-4
-1.328, 3.340e-4
-1.327, 3.209e-4
-1.326, 3.072e-4
-1.325, 2.953e-4
-1.324, 2.893e-4
-1.323, 2.799e-4
-1.322, 2.623e-4
-1.321, 2.549e-4
-1.320, 2.445e-4
-1.319, 2.320e-4
-1.318, 2.238e-4
-1.317, 2.170e-4
-1.316, 2.108e-4
-1.315, 2.011e-4
-1.314, 1.918e-4
-1.313, 1.847e-4
-1.312, 1.791e-4
-1.311, 1.731e-4
-1.310, 1.639e-4
-1.309, 1.582e-4
-1.308, 1.529e-4
-1.307, 1.462e-4
-1.306, 1.403e-4
-1.305, 1.354e-4
-1.304, 1.305e-4
-1.303, 1.246e-4
-1.302, 1.192e-4
-1.301, 1.146e-4
-1.300, 1.104e-4
-1.299, 1.062e-4
-1.298, 1.016e-4
-1.297, 9.714e-5
-1.296, 9.411e-5
-1.295, 9.088e-5
-1.294, 8.577e-5
-1.293, 8.268e-5
-1.292, 7.878e-5
-1.291, 7.714e-5
-1.290, 7.465e-5
-1.289, 7.023e-5
-1.288, 6.717e-5
-1.287, 6.455e-5
-1.286, 6.199e-5
-1.285, 5.994e-5
-1.284, 5.747e-5
-1.283, 5.535e-5
-1.282, 5.291e-5
-1.281, 5.067e-5
-1.280, 4.857e-5
-1.279, 4.707e-5
-1.278, 4.548e-5
-1.277, 4.297e-5
-1.276, 4.070e-5
-1.275, 3.990e-5
-1.274, 3.869e-5
-1.273, 3.626e-5
-1.272, 3.468e-5
-1.271, 3.380e-5
-1.270, 3.262e-5
-1.269, 3.102e-5
-1.268, 2.947e-5
-1.267, 2.830e-5
-1.266, 2.774e-5
-1.265, 2.617e-5
-1.264, 2.489e-5
-1.263, 2.398e-5
-1.262, 2.282e-5
-1.261, 2.251e-5
-1.260, 2.131e-5
-1.259, 2.018e-5
-1.258, 1.936e-5
-1.257, 1.857e-5
-1.256, 1.780e-5
-1.255, 1.690e-5
-1.254, 1.620e-5
-1.253, 1.548e-5
-1.252, 1.485e-5
-1.251, 1.399e-5
-1.250, 1.346e-5
-1.249, 1.298e-5
-1.248, 1.233e-5
-1.247, 1.163e-5
-1.246, 1.094e-5
-1.245, 1.052e-5
-1.244, 1.015e-5
-1.243, 9.644e-6
-1.242, 8.916e-6
-1.241, 8.328e-6
-1.240, 8.201e-6
-1.239, 7.905e-6
-1.238, 7.274e-6
-1.237, 6.615e-6
-1.236, 6.330e-6
-1.235, 6.131e-6
-1.234, 6.403e-6
-1.233, 5.363e-6
-1.232, 4.705e-6
-1.231, 4.831e-6
-1.230, 4.619e-6
-1.229, 4.412e-6
-1.228, 3.810e-6
-1.227, 3.249e-6
-1.226, 3.184e-6
-1.225, 3.043e-6
-1.224, 2.841e-6
-1.223, 2.308e-6
-1.222, 1.915e-6
-1.221, 1.840e-6
-1.220, 1.763e-6
-1.219, 1.507e-6
-1.218, 1.155e-6
-1.217, 7.545e-7
-1.216, 7.062e-7
-1.215, 6.273e-7
-1.214, 4.092e-7
-1.213, 1.251e-7
-1.212, -2.360e-7
-1.211, -3.277e-7
-1.210, -2.320e-7
-1.209, -4.905e-7
-1.208, -7.678e-7
-1.207, -9.454e-7
-1.206, -1.084e-6
-1.205, -1.028e-6
-1.204, -1.209e-6
-1.203, -1.600e-6
-1.202, -1.837e-6
-1.201, -1.909e-6
-1.200, -1.766e-6
-1.199, -1.910e-6
-1.198, -2.248e-6
-1.197, -2.504e-6
-1.196, -2.482e-6
-1.195, -2.530e-6
-1.194, -2.531e-6
-1.193, -2.886e-6
-1.192, -3.057e-6
-1.191, -3.132e-6
-1.190, -3.097e-6
-1.189, -3.058e-6
-1.188, -3.329e-6
-1.187, -3.727e-6
-1.186, -3.606e-6
-1.185, -3.597e-6
-1.184, -3.551e-6
-1.183, -3.855e-6
-1.182, -4.161e-6
-1.181, -4.083e-6
-1.180, -3.966e-6
-1.179, -4.078e-6
-1.178, -4.441e-6
-1.177, -4.648e-6
-1.176, -4.629e-6
-1.175, -4.488e-6
-1.174, -4.537e-6
-1.173, -4.864e-6
-1.172, -5.025e-6
-1.171, -5.099e-6
-1.170, -4.943e-6
-1.169, -4.986e-6
-1.168, -5.224e-6
-1.167, -5.445e-6
-1.166, -5.512e-6
-1.165, -5.329e-6
-1.164, -5.276e-6
-1.163, -5.655e-6
-1.162, -5.889e-6
-1.161, -5.878e-6
-1.160, -5.656e-6
-1.159, -5.704e-6
-1.158, -6.077e-6
-1.157, -6.242e-6
-1.156, -6.211e-6
-1.155, -6.000e-6
-1.154, -6.072e-6
-1.153, -6.468e-6
-1.152, -6.553e-6
-1.151, -6.570e-6
-1.150, -6.435e-6
-1.149, -6.407e-6
-1.148, -6.701e-6
-1.147, -6.998e-6
-1.146, -6.916e-6
-1.145, -6.754e-6
-1.144, -6.836e-6
-1.143, -6.970e-6
-1.142, -7.331e-6
-1.141, -7.215e-6
-1.140, -7.039e-6
-1.139, -7.124e-6
-1.138, -7.344e-6
-1.137, -7.699e-6
-1.136, -7.553e-6
-1.135, -7.427e-6
-1.134, -7.489e-6
-1.133, -7.685e-6
-1.132, -7.956e-6
-1.131, -7.974e-6
-1.130, -7.748e-6
-1.129, -7.770e-6
-1.128, -8.047e-6
-1.127, -8.365e-6
-1.126, -8.360e-6
-1.125, -7.873e-6
-1.124, -8.175e-6
-1.123, -8.521e-6
-1.122, -8.521e-6
-1.121, -8.752e-6
-1.120, -8.674e-6
-1.119, -8.360e-6
-1.118, -8.685e-6
-1.117, -9.034e-6
-1.116, -9.024e-6
-1.115, -9.008e-6
-1.114, -8.882e-6
-1.113, -9.128e-6
-1.112, -9.276e-6
-1.111, -9.450e-6
-1.110, -9.321e-6
-1.109, -9.128e-6
-1.108, -9.513e-6
-1.107, -9.832e-6
-1.106, -9.693e-6
-1.105, -9.534e-6
-1.104, -9.533e-6
-1.103, -9.922e-6
-1.102, -1.023e-5
-1.101, -1.012e-5
-1.100, -1.001e-5
-1.099, -1.003e-5
-1.098, -1.020e-5
-1.097, -1.062e-5
-1.096, -1.047e-5
-1.095, -1.050e-5
-1.094, -1.064e-5
-1.093, -1.068e-5
-1.092, -1.080e-5
-1.091, -1.092e-5
-1.090, -1.070e-5
-1.089, -1.099e-5
-1.088, -1.176e-5
-1.087, -1.139e-5
-1.086, -1.126e-5
-1.085, -1.094e-5
-1.084, -1.132e-5
-1.083, -1.165e-5
-1.082, -1.173e-5
-1.081, -1.184e-5
-1.080, -1.157e-5
-1.079, -1.169e-5
-1.078, -1.220e-5
-1.077, -1.230e-5
-1.076, -1.233e-5
-1.075, -1.229e-5
-1.074, -1.226e-5
-1.073, -1.243e-5
-1.072, -1.277e-5
-1.071, -1.288e-5
-1.070, -1.272e-5
-1.069, -1.260e-5
-1.068, -1.294e-5
-1.067, -1.360e-5
-1.066, -1.337e-5
-1.065, -1.313e-5
-1.064, -1.317e-5
-1.063, -1.362e-5
-1.062, -1.381e-5
-1.061, -1.379e-5
-1.060, -1.385e-5
-1.059, -1.400e-5
-1.058, -1.386e-5
-1.057, -1.469e-5
-1.056, -1.469e-5
-1.055, -1.420e-5
-1.054, -1.440e-5
-1.053, -1.468e-5
-1.052, -1.511e-5
-1.051, -1.535e-5
-1.050, -1.461e-5
-1.049, -1.476e-5
-1.048, -1.524e-5
-1.047, -1.586e-5
-1.046, -1.577e-5
-1.045, -1.526e-5
-1.044, -1.564e-5
-1.043, -1.660e-5
-1.042, -1.653e-5
-1.041, -1.612e-5
-1.040, -1.577e-5
-1.039, -1.605e-5
-1.038, -1.719e-5
-1.037, -1.710e-5
-1.036, -1.681e-5
-1.035, -1.681e-5
-1.034, -1.705e-5
-1.033, -1.731e-5
-1.032, -1.744e-5
-1.031, -1.770e-5
-1.030, -1.789e-5
-1.029, -1.768e-5
-1.028, -1.777e-5
-1.027, -1.844e-5
-1.026, -1.867e-5
-1.025, -1.845e-5
-1.024, -1.824e-5
-1.023, -1.858e-5
-1.022, -1.939e-5
-1.021, -1.986e-5
-1.020, -1.913e-5
-1.019, -1.899e-5
-1.018, -1.946e-5
-1.017, -2.003e-5
-1.016, -2.006e-5
-1.015, -1.974e-5
-1.014, -2.011e-5
-1.013, -2.080e-5
-1.012, -2.082e-5
-1.011, -2.081e-5
-1.010, -2.085e-5
-1.009, -2.140e-5
-1.008, -2.131e-5
-1.007, -2.138e-5
-1.006, -2.217e-5
-1.005, -2.163e-5
-1.004, -2.157e-5
-1.003, -2.266e-5
-1.002, -2.291e-5
-1.001, -2.247e-5
