Potential V vs RHE, Current mA cm-2
0.013299999999999867,-0.3947044526623452
0.012299999999999978,-1.2671569112891135
0.011299999999999866,-1.7471684553333202
0.010299999999999976,-2.095187435100119
0.009299999999999864,-2.3569090255751513
0.008299999999999974,-2.4884771764625997
0.007299999999999862,-2.576189277054232
0.006299999999999972,-2.618630616050183
0.00529999999999986,-2.662486666345999
0.0042999999999999705,-2.706342716641815
0.0032999999999998586,-2.7501987669376318
0.0022999999999999687,-2.794054817233447
0.0012999999999998568,-2.8379108675292635
0.00029999999999996696,-2.8803522065252145
-0.000700000000000145,-2.924208256821031
-0.0017000000000000348,-2.924208256821031
-0.0027000000000001467,-2.924208256821031
-0.0037000000000000366,-2.924208256821031
-0.0047000000000001485,-2.924208256821031
-0.005700000000000038,-2.924208256821031
-0.00670000000000015,-2.968064307116847
-0.00770000000000004,-2.968064307116847
-0.008700000000000152,-2.968064307116847
-0.009700000000000042,-2.968064307116847
-0.010700000000000154,-2.924208256821031
-0.011700000000000044,-2.924208256821031
-0.012700000000000156,-2.924208256821031
-0.013700000000000045,-2.968064307116847
-0.014700000000000157,-3.0119203574126634
-0.015700000000000047,-3.0119203574126634
-0.01670000000000016,-3.0119203574126634
-0.01770000000000005,-3.0119203574126634
-0.01870000000000016,-2.968064307116847
-0.01970000000000005,-2.924208256821031
-0.020700000000000163,-2.924208256821031
-0.021700000000000053,-2.968064307116847
-0.022700000000000164,-2.968064307116847
-0.023700000000000054,-3.0119203574126634
-0.024700000000000166,-3.0119203574126634
-0.025700000000000056,-3.055776407708479
-0.026700000000000168,-3.0119203574126634
-0.027700000000000058,-3.0119203574126634
-0.02870000000000017,-2.968064307116847
-0.02970000000000006,-2.968064307116847
-0.03070000000000017,-3.0119203574126634
-0.03170000000000006,-3.0119203574126634
-0.03270000000000017,-3.055776407708479
-0.03370000000000006,-3.0119203574126634
-0.034700000000000175,-3.0119203574126634
-0.035700000000000065,-3.0119203574126634
-0.03670000000000018,-2.968064307116847
-0.03770000000000007,-3.0119203574126634
-0.03870000000000018,-3.0119203574126634
-0.03970000000000007,-3.055776407708479
-0.04070000000000018,-3.055776407708479
-0.04170000000000007,-3.055776407708479
-0.04270000000000018,-3.055776407708479
-0.04370000000000007,-3.055776407708479
-0.044700000000000184,-3.0119203574126634
-0.045700000000000074,-3.0119203574126634
-0.046700000000000186,-3.0119203574126634
-0.047700000000000076,-3.055776407708479
-0.04870000000000019,-3.055776407708479
-0.04970000000000008,-3.0996324580042955
-0.05070000000000019,-3.055776407708479
-0.05170000000000008,-3.055776407708479
-0.05270000000000019,-3.055776407708479
-0.05370000000000008,-3.055776407708479
-0.05470000000000019,-3.055776407708479
-0.05570000000000008,-3.055776407708479
-0.056700000000000195,-3.0996324580042955
-0.057700000000000085,-3.0996324580042955
-0.058700000000000196,-3.0996324580042955
-0.059700000000000086,-3.0996324580042955
-0.0607000000000002,-3.0996324580042955
-0.06170000000000009,-3.055776407708479
-0.0627000000000002,-3.0996324580042955
-0.06370000000000009,-3.0996324580042955
-0.0647000000000002,-3.1420737970002466
-0.06570000000000009,-3.1420737970002466
-0.0667000000000002,-3.1420737970002466
-0.0677000000000001,-3.1420737970002466
-0.0687000000000002,-3.0996324580042955
-0.0697000000000001,-3.0996324580042955
-0.07070000000000021,-3.0996324580042955
-0.0717000000000001,-3.0996324580042955
-0.07270000000000021,-3.1420737970002466
-0.0737000000000001,-3.1859298472960624
-0.07470000000000021,-3.1859298472960624
-0.0757000000000001,-3.1859298472960624
-0.07670000000000021,-3.1420737970002466
-0.0777000000000001,-3.1420737970002466
-0.07870000000000021,-3.1420737970002466
-0.0797000000000001,-3.1420737970002466
-0.08070000000000022,-3.1420737970002466
-0.0817000000000001,-3.1859298472960624
-0.08270000000000022,-3.1859298472960624
-0.08370000000000011,-3.2297858975918787
-0.08470000000000022,-3.1859298472960624
-0.08570000000000011,-3.1859298472960624
-0.08670000000000022,-3.1420737970002466
-0.08770000000000011,-3.1859298472960624
-0.08870000000000022,-3.1859298472960624
-0.08970000000000011,-3.2297858975918787
-0.09070000000000022,-3.2297858975918787
-0.09170000000000011,-3.273641947887695
-0.09270000000000023,-3.2297858975918787
-0.09370000000000012,-3.2297858975918787
-0.09470000000000023,-3.1859298472960624
-0.09570000000000012,-3.1859298472960624
-0.09670000000000023,-3.1859298472960624
-0.09770000000000012,-3.2297858975918787
-0.09870000000000023,-3.273641947887695
-0.09970000000000012,-3.273641947887695
-0.10070000000000023,-3.273641947887695
-0.10170000000000012,-3.2297858975918787
-0.10270000000000024,-3.2297858975918787
-0.10370000000000013,-3.2297858975918787
-0.10470000000000024,-3.2297858975918787
-0.10570000000000013,-3.273641947887695
-0.10670000000000024,-3.317497998183511
-0.10770000000000013,-3.317497998183511
-0.10870000000000024,-3.317497998183511
-0.10970000000000013,-3.317497998183511
-0.11070000000000024,-3.273641947887695
-0.11170000000000013,-3.273641947887695
-0.11270000000000002,-3.2297858975918787
-0.11370000000000013,-3.273641947887695
-0.11470000000000002,-3.273641947887695
-0.11570000000000014,-3.317497998183511
-0.11670000000000003,-3.317497998183511
-0.11770000000000014,-3.317497998183511
-0.11870000000000003,-3.317497998183511
-0.11970000000000014,-3.317497998183511
-0.12070000000000003,-3.273641947887695
-0.12170000000000014,-3.317497998183511
-0.12270000000000003,-3.317497998183511
-0.12370000000000014,-3.361354048479327
-0.12470000000000003,-3.361354048479327
-0.12570000000000014,-3.361354048479327
-0.12670000000000003,-3.361354048479327
-0.12770000000000015,-3.317497998183511
-0.12870000000000004,-3.317497998183511
-0.12970000000000015,-3.361354048479327
-0.13070000000000004,-3.403795387475278
-0.13170000000000015,-3.403795387475278
-0.13270000000000004,-3.403795387475278
-0.13370000000000015,-3.403795387475278
-0.13470000000000004,-3.403795387475278
-0.13570000000000015,-3.361354048479327
-0.13670000000000004,-3.317497998183511
-0.13770000000000016,-3.317497998183511
-0.13870000000000005,-3.361354048479327
-0.13970000000000016,-3.403795387475278
-0.14070000000000005,-3.447651437771094
-0.14170000000000016,-3.447651437771094
-0.14270000000000005,-3.447651437771094
-0.14370000000000016,-3.447651437771094
-0.14470000000000005,-3.447651437771094
-0.14570000000000016,-3.403795387475278
-0.14670000000000005,-3.403795387475278
-0.14770000000000016,-3.447651437771094
-0.14870000000000005,-3.447651437771094
-0.14970000000000017,-3.447651437771094
-0.15070000000000006,-3.447651437771094
-0.15170000000000017,-3.447651437771094
-0.15270000000000006,-3.447651437771094
-0.15370000000000017,-3.447651437771094
-0.15470000000000006,-3.4915074880669104
-0.15570000000000017,-3.4915074880669104
-0.15670000000000006,-3.5353635383627267
-0.15770000000000017,-3.5353635383627267
-0.15870000000000006,-3.5353635383627267
-0.15970000000000018,-3.4915074880669104
-0.16070000000000007,-3.4915074880669104
-0.16170000000000018,-3.447651437771094
-0.16270000000000007,-3.447651437771094
-0.16370000000000018,-3.4915074880669104
-0.16470000000000007,-3.4915074880669104
-0.16570000000000018,-3.579219588658543
-0.16670000000000007,-3.579219588658543
-0.16770000000000018,-3.5353635383627267
-0.16870000000000007,-3.5353635383627267
-0.16970000000000018,-3.5353635383627267
-0.17070000000000007,-3.5353635383627267
-0.17170000000000019,-3.5353635383627267
-0.17270000000000008,-3.5353635383627267
-0.1737000000000002,-3.579219588658543
-0.17470000000000008,-3.579219588658543
-0.1757000000000002,-3.5353635383627267
-0.17670000000000008,-3.579219588658543
-0.1777000000000002,-3.5353635383627267
-0.17870000000000008,-3.5353635383627267
-0.1797000000000002,-3.579219588658543
-0.18070000000000008,-3.623075638954359
-0.1817000000000002,-3.623075638954359
-0.18270000000000008,-3.623075638954359
-0.1837000000000002,-3.623075638954359
-0.1847000000000001,-3.623075638954359
-0.1857000000000002,-3.579219588658543
-0.1867000000000001,-3.579219588658543
-0.1877000000000002,-3.579219588658543
-0.1887000000000001,-3.579219588658543
-0.1897000000000002,-3.623075638954359
-0.1907000000000001,-3.6655169779503103
-0.1917000000000001,-3.6655169779503103
-0.19269999999999998,-3.6655169779503103
-0.1937000000000001,-3.6655169779503103
-0.19469999999999998,-3.623075638954359
-0.1957000000000001,-3.623075638954359
-0.19669999999999999,-3.623075638954359
-0.1977000000000001,-3.6655169779503103
-0.1987,-3.7093730282461257
-0.1997000000000001,-3.6655169779503103
-0.2007,-3.7093730282461257
-0.2017000000000001,-3.6655169779503103
-0.2027,-3.6655169779503103
-0.2037000000000001,-3.6655169779503103
-0.2047,-3.6655169779503103
-0.2057000000000001,-3.7093730282461257
-0.2067,-3.7093730282461257
-0.2077000000000001,-3.7532290785419424
-0.2087,-3.7093730282461257
-0.2097000000000001,-3.7093730282461257
-0.2107,-3.7093730282461257
-0.2117000000000001,-3.7093730282461257
-0.2127,-3.7093730282461257
-0.2137000000000001,-3.7532290785419424
-0.2147,-3.7532290785419424
-0.2157000000000001,-3.840941179133574
-0.2167,-3.7970851288377587
-0.21770000000000012,-3.7970851288377587
-0.2187,-3.7532290785419424
-0.21970000000000012,-3.7532290785419424
-0.2207,-3.7532290785419424
-0.22170000000000012,-3.7532290785419424
-0.2227,-3.7970851288377587
-0.22370000000000012,-3.840941179133574
-0.2247,-3.840941179133574
-0.22570000000000012,-3.840941179133574
-0.2267,-3.840941179133574
-0.22770000000000012,-3.840941179133574
-0.22870000000000001,-3.840941179133574
-0.22970000000000013,-3.840941179133574
-0.23070000000000002,-3.840941179133574
-0.23170000000000013,-3.884797229429391
-0.23270000000000002,-3.884797229429391
-0.23370000000000013,-3.927238568425342
-0.23470000000000002,-3.884797229429391
-0.23570000000000013,-3.927238568425342
-0.23670000000000002,-3.884797229429391
-0.2376999999999999,-3.884797229429391
-0.23870000000000002,-3.927238568425342
-0.2396999999999999,-3.927238568425342
-0.24070000000000003,-3.971094618721158
-0.24169999999999991,-3.971094618721158
-0.24270000000000003,-3.927238568425342
-0.24369999999999992,-3.927238568425342
-0.24470000000000003,-3.971094618721158
-0.24569999999999992,-3.971094618721158
-0.24670000000000003,-4.014950669016974
-0.24769999999999992,-4.0588067193127895
-0.24870000000000003,-4.0588067193127895
-0.24969999999999992,-4.0588067193127895
-0.25070000000000003,-4.0588067193127895
-0.2516999999999999,-4.014950669016974
-0.25270000000000004,-4.014950669016974
-0.2536999999999999,-4.0588067193127895
-0.25470000000000004,-4.0588067193127895
-0.2556999999999999,-4.0588067193127895
-0.25670000000000004,-4.146518819904423
-0.25769999999999993,-4.146518819904423
-0.25870000000000004,-4.1889601589003735
-0.25969999999999993,-4.1889601589003735
-0.26070000000000004,-4.1889601589003735
-0.26169999999999993,-4.1889601589003735
-0.26270000000000004,-4.1889601589003735
-0.26369999999999993,-4.23281620919619
-0.26470000000000005,-4.276672259492005
-0.26569999999999994,-4.3205283097878215
-0.26670000000000005,-4.3205283097878215
-0.26769999999999994,-4.3205283097878215
-0.26870000000000005,-4.3205283097878215
-0.26969999999999994,-4.3205283097878215
-0.27070000000000005,-4.364384360083638
-0.27169999999999994,-4.364384360083638
-0.27270000000000005,-4.450681749375406
-0.27369999999999994,-4.450681749375406
-0.27470000000000006,-4.494537799671222
-0.27569999999999995,-4.538393849967037
-0.27670000000000006,-4.538393849967037
-0.27769999999999995,-4.538393849967037
-0.27870000000000006,-4.582249900262854
-0.27969999999999995,-4.626105950558669
-0.28070000000000006,-4.668547289554621
-0.28169999999999995,-4.756259390146253
-0.28270000000000006,-4.756259390146253
-0.28369999999999995,-4.800115440442069
-0.28470000000000006,-4.800115440442069
-0.28569999999999995,-4.843971490737885
-0.28670000000000007,-4.887827541033701
-0.28769999999999996,-4.9302688800296535
-0.28870000000000007,-4.974124930325469
-0.28969999999999996,-5.0618370309171015
-0.29070000000000007,-5.105693081212917
-0.29169999999999996,-5.149549131508733
-0.29270000000000007,-5.191990470504685
-0.29369999999999996,-5.235846520800501
-0.2947000000000001,-5.279702571096316
-0.29569999999999996,-5.323558621392133
-0.2967000000000001,-5.411270721983764
-0.29769999999999996,-5.497568111275533
-0.2987000000000001,-5.585280211867165
-0.29969999999999997,-5.629136262162981
-0.3007000000000001,-5.715433651454749
-0.30169999999999997,-5.759289701750564
-0.3027000000000001,-5.847001802342197
-0.30369999999999997,-5.9347139029338285
-0.3047000000000001,-5.977155241929781
-0.30569999999999997,-6.064867342521412
-0.3067000000000001,-6.152579443113044
-0.3077,-6.282732882700628
-0.3087000000000001,-6.37044498329226
-0.3097,-6.458157083883892
-0.3107000000000001,-6.588310523471475
-0.3117,-6.6760226240631075
-0.3127000000000001,-6.806176063650692
-0.3137,-6.93774421453814
-0.3147000000000001,-7.111753704421539
-0.3157,-7.243321855308987
-0.3167000000000001,-7.37347529489657
-0.3177,-7.461187395488204
-0.3187000000000001,-7.591340835075788
-0.3197,-7.722908985963235
-0.3207000000000001,-7.896918475846635
-0.3217,-8.11478401602585
-0.3227000000000001,-8.332649556205066
-0.3237,-8.55051509638428
-0.3247000000000001,-8.725939297567548
-0.3257,-8.899948787450944
-0.3267000000000001,-9.11781432763016
-0.3277,-9.293238528813426
-0.3287000000000001,-9.55496011928846
-0.3297,-9.81668170976349
-0.3307000000000001,-10.078403300238522
-0.3317,-10.382566229709504
-0.3327000000000001,-10.688143870480351
-0.3337,-10.993721511251199
-0.3347000000000001,-11.299299152022046
-0.3357,-11.604876792792895
-0.3367000000000001,-11.952895772559694
-0.3377,-12.346185513922174
-0.3387000000000001,-12.781916594280606
-0.3397,-13.217647674639037
-0.3407000000000001,-13.698649516593148
-0.3417,-14.175407224647667
-0.3427000000000001,-14.65640906660178
-0.3437,-15.179852247551842
-0.3447000000000001,-15.74573676749786
-0.3457,-16.354062626439823
-0.3467000000000001,-17.018976937376394
-0.3477,-17.669744135314307
-0.3487000000000001,-18.40539401124413
-0.3497,-19.155191000172596
-0.3507000000000001,-19.93328221509837
-0.3517,-20.72552054302279
-0.3527000000000001,-21.54605309694451
-0.3537,-22.42317410286083
-0.3547000000000001,-23.342736447773106
-0.3557,-24.24815167968673
-0.35670000000000013,-25.210155363594954
-0.3577,-26.129717708507226
-0.35870000000000013,-27.091721392415455
-0.3597,-28.011283737327723
-0.36070000000000013,-28.8742576302454
-0.3617,-29.793819975157668
-0.3626999999999999,-30.670940981073993
-0.3637,-31.57635621298762
-0.3646999999999999,-32.58080123589179
-0.3657,-33.50036358080407
-0.3666999999999999,-34.462367264712285
-0.3677,-35.38192960962457
-0.3686999999999999,-36.28734484153819
-0.36970000000000003,-37.164465847454515
-0.3706999999999999,-38.04158685337084
-0.37170000000000003,-38.98944342428042
-0.3726999999999999,-39.90900576919269
-0.37370000000000003,-40.87100945310091
-0.3746999999999999,-41.83301313700913
-0.37570000000000003,-42.79501682091736
-0.3766999999999999,-43.70043205283099
-0.37770000000000004,-44.619994397743255
-0.3786999999999999,-45.581998081651484
-0.37970000000000004,-46.586443104555656
-0.3806999999999999,-47.590888127459834
-0.38170000000000004,-48.63777448935996
-0.38269999999999993,-49.81198486824794
-0.38370000000000004,-50.943753908139975
-0.38469999999999993,-52.033081609036046
-0.38570000000000004,-53.079967970936174
-0.38669999999999993,-53.30632177891458
-0.38570000000000004,-52.514083450990164
-0.38469999999999993,-51.990640270040096
-0.38370000000000004,-51.509638428085985
-0.38269999999999993,-50.98619524713592
-0.38170000000000004,-50.50519340518181
-0.3806999999999999,-49.98175022423175
-0.37970000000000004,-49.41586570428573
-0.3786999999999999,-48.80753984534376
-0.37770000000000004,-48.24165532539775
-0.3766999999999999,-47.633329466455784
-0.37570000000000003,-47.067444946509774
-0.3746999999999999,-46.501560426563756
-0.37370000000000003,-45.97811724561369
-0.3726999999999999,-45.36979138667173
-0.37170000000000003,-44.66243573673921
-0.3706999999999999,-44.011668538801295
-0.36970000000000003,-43.23357732387552
-0.3686999999999999,-42.526221673943
-0.3677,-41.87545447600508
-0.3666999999999999,-41.30956995605907
-0.3657,-40.743685436113054
-0.3646999999999999,-40.177800916167044
-0.3637,-39.61191639622103
-0.3626999999999999,-39.046031876275016
-0.3617,-38.38111756533845
-0.36070000000000013,-37.73035036740053
-0.3597,-37.122024508458566
-0.35870000000000013,-36.5136986495166
-0.3577,-35.90537279057463
-0.35670000000000013,-35.282899818634014
-0.3557,-34.67457395969205
-0.3547000000000001,-34.06624810075008
-0.3537,-33.45792224180811
-0.3527000000000001,-32.84959638286615
-0.3517,-32.283711862920136
-0.3507000000000001,-31.717827342974125
-0.3497,-31.137795710029454
-0.3487000000000001,-30.571911190083444
-0.3477,-29.96358533114148
-0.3467000000000001,-29.39770081119546
-0.3457,-28.789374952253496
-0.3447000000000001,-28.22349043230748
-0.3437,-27.65760591236147
-0.3427000000000001,-27.134162731411404
-0.3417,-26.61071955046134
-0.3407000000000001,-26.044835030515326
-0.3397,-25.521391849565262
-0.3387000000000001,-24.997948668615198
-0.3377,-24.474505487665134
-0.3367000000000001,-23.908620967719123
-0.3357,-23.385177786769056
-0.3347000000000001,-22.861734605818995
-0.3337,-22.38073276386488
-0.3327000000000001,-21.857289582914817
-0.3317,-21.333846401964752
-0.3307000000000001,-20.76796188201874
-0.3297,-20.286960040064624
-0.3287000000000001,-19.805958198110513
-0.3277,-19.3249563561564
-0.3267000000000001,-18.88639585319824
-0.3257,-18.44783535024008
-0.3247000000000001,-18.009274847281915
-0.3237,-17.584861457322408
-0.3227000000000001,-17.146300954364243
-0.3217,-16.665299112410132
-0.3207000000000001,-16.22673860945197
-0.3197,-15.78817810649381
-0.3187000000000001,-15.349617603535648
-0.3177,-14.967645552572087
-0.3167000000000001,-14.57152638860988
-0.3157,-14.217848563643619
-0.3147000000000001,-13.828802956180734
-0.3137,-13.436927926118118
-0.3127000000000001,-13.043638184755638
-0.3117,-12.651763154693022
-0.3107000000000001,-12.302329463626359
-0.3097,-11.952895772559694
-0.3087000000000001,-11.604876792792895
-0.3077,-11.255443101726232
-0.3067000000000001,-10.949865460955383
-0.30569999999999997,-10.601846481188586
-0.3047000000000001,-10.25241279012192
-0.30369999999999997,-9.902979099055257
-0.3027000000000001,-9.59740145828441
-0.30169999999999997,-9.293238528813426
-0.3007000000000001,-9.031516938338395
-0.29969999999999997,-8.725939297567548
-0.2987000000000001,-8.464217707092514
-0.29769999999999996,-8.158640066321666
-0.2967000000000001,-7.896918475846635
-0.29569999999999996,-7.591340835075788
-0.2947000000000001,-7.329619244600755
-0.29369999999999996,-7.067897654125724
-0.29270000000000007,-6.850032113946507
-0.29169999999999996,-6.588310523471475
-0.29070000000000007,-6.37044498329226
-0.28969999999999996,-6.108723392817228
-0.28870000000000007,-5.847001802342197
-0.28769999999999996,-5.629136262162981
-0.28670000000000007,-5.411270721983764
-0.28569999999999995,-5.191990470504685
-0.28470000000000006,-4.974124930325469
-0.28369999999999995,-4.800115440442069
-0.28270000000000006,-4.626105950558669
-0.28169999999999995,-4.450681749375406
-0.28070000000000006,-4.23281620919619
-0.27969999999999995,-4.0588067193127895
-0.27870000000000006,-3.840941179133574
-0.27769999999999995,-3.6655169779503103
-0.27670000000000006,-3.4915074880669104
-0.27569999999999995,-3.361354048479327
-0.27470000000000006,-3.2297858975918787
-0.27369999999999994,-3.055776407708479
-0.27270000000000005,-2.8803522065252145
-0.27169999999999994,-2.706342716641815
-0.27070000000000005,-2.576189277054232
-0.26969999999999994,-2.4446211261667834
-0.26870000000000005,-2.3144676865791998
-0.26769999999999994,-2.1828995356917518
-0.26670000000000005,-2.052746096104168
