Potential V vs RHE, Current mA cm-2
0.013299999999999867,13.743920278188831
0.012299999999999978,11.944407504760505
0.011299999999999866,10.715023385177787
0.010299999999999976,9.188549892623413
0.009299999999999864,7.622464483672818
0.008299999999999974,6.6632902223643224
0.007299999999999862,5.6065008813651405
0.006299999999999972,4.203107271899024
0.00529999999999986,3.2637389687886396
0.0042999999999999705,2.50545371206098
0.0032999999999998586,1.3056370586454424
0.0022999999999999687,0.2958161328017792
0.0012999999999998568,-0.2775663570335202
0.00029999999999996696,-1.2221690919534054
-0.000700000000000145,-2.2875881718817643
-0.0017000000000000348,-2.863375670926834
-0.0027000000000001467,-3.5381929609624567
-0.0037000000000000366,-4.626105950558669
-0.0047000000000001485,-5.276873148496587
-0.005700000000000038,-5.756460279150835
-0.00670000000000015,-6.7085609839600036
-0.00770000000000004,-7.512117002283345
-0.008700000000000152,-7.899747898446365
-0.009700000000000042,-8.663692000373485
-0.010700000000000154,-9.557789541888187
-0.011700000000000044,-9.965226396249319
-0.012700000000000156,-10.512719669297088
-0.013700000000000045,-11.466235085406122
-0.014700000000000157,-11.961384040358885
-0.015700000000000047,-12.31364715402528
-0.01670000000000016,-13.173791624343222
-0.01770000000000005,-13.864170738677359
-0.01870000000000016,-14.12872175175212
-0.01970000000000005,-14.797880196588284
-0.020700000000000163,-15.660854089505953
-0.021700000000000053,-15.957943462477614
-0.022700000000000164,-16.424798191433077
-0.023700000000000054,-17.2736249713521
-0.024700000000000166,-17.71218547431026
-0.025700000000000056,-18.009274847281915
-0.026700000000000168,-18.80151317520634
-0.027700000000000058,-19.423986147146955
-0.02870000000000017,-19.622045729128057
-0.02970000000000006,-20.187930249074075
-0.03070000000000017,-21.022609915994444
-0.03170000000000006,-21.30555217596745
-0.03270000000000017,-21.729965565926964
-0.03370000000000006,-22.522203893851387
-0.034700000000000175,-22.890028831816295
-0.035700000000000065,-23.15882397879065
-0.03670000000000018,-23.908620967719123
-0.03770000000000007,-24.531093939659737
-0.03870000000000018,-24.799889086634096
-0.03970000000000007,-25.40821494557606
-0.04070000000000018,-26.17215904750318
-0.04170000000000007,-26.440954194477534
-0.04270000000000018,-26.822926245441096
-0.04370000000000007,-27.62931168636417
-0.044700000000000184,-28.011283737327723
-0.045700000000000074,-28.308373110299385
-0.046700000000000186,-29.100611438223805
-0.047700000000000076,-29.68064307116847
-0.04870000000000019,-29.822114201154974
-0.04970000000000008,-30.43044006009694
-0.05070000000000019,-31.20853127502271
-0.05170000000000008,-31.505620647994366
-0.05270000000000019,-31.915886924955227
-0.05370000000000008,-32.79300793087155
-0.05470000000000019,-33.231568433829715
-0.05570000000000008,-33.48621646780542
-0.056700000000000195,-34.26430768273119
-0.057700000000000085,-34.9150748806691
-0.058700000000000196,-35.12728157564886
-0.059700000000000086,-35.693166095594876
-0.0607000000000002,-36.45711019752199
-0.06170000000000009,-36.754199570493654
-0.0627000000000002,-37.221054299449115
-0.06370000000000009,-38.09817530536544
-0.0647000000000002,-38.5650300343209
-0.06570000000000009,-38.83382518129526
-0.0667000000000002,-39.56947505722508
-0.0677000000000001,-40.20609514216434
-0.0687000000000002,-40.4465960631414
-0.0697000000000001,-41.083216148080666
-0.07070000000000021,-41.90374870200238
-0.0717000000000001,-42.172543848976744
-0.07270000000000021,-42.582810125937606
-0.0737000000000001,-43.43163690585662
-0.07470000000000021,-43.89849163481209
-0.0757000000000001,-44.195581007783744
-0.07670000000000021,-44.97367222270952
-0.0777000000000001,-45.29905582167847
-0.07870000000000021,-45.666880759643384
-0.0797000000000001,-46.572295991557006
-0.08070000000000022,-47.46356411047198
-0.0817000000000001,-47.66162369245309
-0.08270000000000022,-47.95871306542474
-0.08370000000000011,-48.79339273234511
-0.08470000000000022,-49.27439457429922
-0.08570000000000011,-49.59977817326819
-0.08670000000000022,-50.335428049198
-0.08770000000000011,-51.127666377122424
-0.08870000000000022,-51.665256671071134
-0.08970000000000011,-52.514083450990164
-0.09070000000000022,-53.46194002189973
-0.09170000000000011,-53.91464763785655
-0.09270000000000023,-54.423943705807964
-0.09370000000000012,-55.385947389716186
-0.09470000000000023,-55.8669492316703
-0.09570000000000012,-56.06500881365141
-0.09670000000000023,-56.800658689581226
-0.09770000000000012,-57.28166053153533
-0.09870000000000023,-57.26751341853669
-0.09970000000000012,-57.73436814749215
-0.10070000000000023,-58.41342957142736
-0.10170000000000012,-58.583194927411164
-0.10270000000000024,-58.85199007438552
-0.10370000000000013,-59.68666974130589
-0.10470000000000024,-60.18181869625866
-0.10570000000000013,-60.47890806923032
-0.10670000000000024,-61.327734849149344
-0.10770000000000013,-62.006796273084554
-0.10870000000000024,-62.24729719406162
-0.10970000000000013,-62.92635861799682
-0.11070000000000024,-63.74689117191855
-0.11170000000000013,-64.0722747708875
-0.11270000000000002,-64.66645351683083
-0.11370000000000013,-65.60016297474175
-0.11470000000000002,-65.9821350257053
-0.11570000000000014,-66.13775326869046
-0.11670000000000003,-67.00072716160814
-0.11770000000000014,-67.7222299245393
-0.11870000000000003,-67.99102507151366
-0.11970000000000014,-68.67008649544888
-0.12070000000000003,-69.40573637137871
-0.12170000000000014,-69.6603844053544
-0.12270000000000003,-70.02820934331933
-0.12370000000000014,-70.82044767124374
-0.12470000000000003,-71.32974373919515
-0.12570000000000014,-71.72586290315735
-0.12670000000000003,-72.53224834408043
-0.12770000000000015,-73.06983863802915
-0.12870000000000004,-73.18301554201834
-0.12970000000000015,-73.86207696595356
-0.13070000000000004,-74.75334508486853
-0.13170000000000015,-75.16361136182941
-0.13270000000000004,-75.61631897778622
-0.13370000000000015,-76.45099864470659
-0.13470000000000004,-76.8754120346661
-0.13570000000000015,-77.1300600686418
-0.13670000000000004,-77.8940041705689
-0.13770000000000016,-78.54477136850683
-0.13870000000000005,-78.7569780634866
-0.13970000000000016,-79.40774526142451
-0.14070000000000005,-80.24242492834487
-0.14170000000000016,-80.46877873632329
-0.14270000000000005,-80.82245656128954
-0.14370000000000016,-81.62884200221261
-0.14470000000000005,-82.01081405317618
-0.14570000000000016,-82.18057940915998
-0.14670000000000005,-82.94452351108711
-0.14770000000000016,-83.62358493502231
-0.14870000000000005,-83.83579163000208
-0.14970000000000017,-84.45826460194269
-0.15070000000000006,-85.29294426886305
-0.15170000000000017,-85.68906343282526
-0.15270000000000006,-86.12762393578342
-0.15370000000000017,-86.6510671167335
-0.15470000000000006,-87.44330544465792
-0.15570000000000017,-88.23554377258235
-0.15670000000000006,-88.9287523095162
-0.15770000000000017,-89.33901858647707
-0.15870000000000006,-89.25413590848517
-0.15970000000000018,-89.31072436047977
-0.16070000000000007,-89.98978578441499
-0.16170000000000018,-90.4990818523664
-0.16270000000000007,-91.14984905030431
-0.16370000000000018,-92.14014696020983
-0.16470000000000007,-92.5221190111734
-0.16570000000000018,-92.6352959151626
-0.16670000000000007,-93.46997558208298
-0.16770000000000018,-94.2339196840101
-0.16870000000000007,-94.50271483098444
-0.16970000000000018,-95.11104068992641
-0.17070000000000007,-95.88913190485218
-0.17170000000000019,-96.11548571283059
-0.17270000000000008,-96.32769240781035
-0.1737000000000002,-97.02090094474423
-0.17470000000000008,-97.33213743071452
-0.1757000000000002,-97.43116722170507
-0.17670000000000008,-98.1102286456403
-0.1777000000000002,-98.647818939589
-0.17870000000000008,-98.7044073915836
-0.1797000000000002,-99.28443902452827
-0.18070000000000008,-100.04838312645539
-0.1817000000000002,-100.2747369344338
-0.18270000000000008,-100.65670898539736
-0.1837000000000002,-101.47724153931907
-0.1847000000000001,-101.88750781627995
-0.1857000000000002,-102.09971451125969
-0.1867000000000001,-102.83536438718951
-0.1877000000000002,-103.3871017941369
-0.1887000000000001,-103.5568671501207
-0.1897000000000002,-104.16519300906265
-0.1907000000000001,-104.90084288499246
-0.1917000000000001,-104.91498999799111
-0.19269999999999998,-105.19793225796413
-0.1937000000000001,-106.04675903788315
-0.19469999999999998,-106.3155541848575
-0.1957000000000001,-106.48531954084132
-0.19669999999999999,-107.16438096477653
-0.1977000000000001,-107.914177953705
-0.1987,-108.14053176168339
-0.1997000000000001,-108.40932690865776
-0.2007,-108.94691720260647
-0.2017000000000001,-108.96106431560513
-0.2027,-109.18741812358353
-0.2037000000000001,-109.9655093385093
-0.2047,-110.43236406746476
-0.2057000000000001,-110.89921879642023
-0.2067,-111.80463402833385
-0.2077000000000001,-112.3563714352812
-0.2087,-112.65346080825286
-0.2097000000000001,-113.38911068418268
-0.2107,-113.94084809113006
-0.2117000000000001,-113.92670097813141
-0.2127,-114.28037880309766
-0.2137000000000001,-114.91699888803693
-0.2147,-114.94529311403423
-0.2157000000000001,-114.93114600103557
-0.2167,-115.3555593909951
-0.21770000000000012,-115.77997278095461
-0.2187,-115.8931496849438
-0.21970000000000012,-116.26097462290872
-0.2207,-116.69953512586686
-0.22170000000000012,-116.60050533487632
-0.2227,-117.10980140282774
-0.22370000000000012,-117.76056860076565
-0.2247,-117.97277529574541
-0.22570000000000012,-118.07180508673595
-0.2267,-118.76501362366983
-0.22770000000000012,-119.1469856746334
-0.22870000000000001,-119.21772123962666
-0.22970000000000013,-119.78360575957267
-0.23070000000000002,-120.66072676548897
-0.23170000000000013,-120.88708057346739
-0.23270000000000002,-120.90122768646604
-0.23370000000000013,-121.43881798041474
-0.23470000000000002,-121.62273044939721
-0.23570000000000013,-121.65102467539451
-0.23670000000000002,-122.075438065354
-0.2376999999999999,-122.38667455132433
-0.23870000000000002,-122.33008609932973
-0.2396999999999999,-122.66961681129733
-0.24070000000000003,-123.15061865325143
-0.24169999999999991,-123.06573597525954
-0.24270000000000003,-123.00914752326493
-0.24369999999999992,-123.39111957422851
-0.24470000000000003,-123.43356091322445
-0.24569999999999992,-123.32038400923526
-0.24670000000000003,-123.80138585118935
-0.24769999999999992,-124.19750501515158
-0.24870000000000003,-124.18335790215292
-0.24969999999999992,-124.49459438812325
-0.25070000000000003,-124.87656643908679
-0.2516999999999999,-124.56532995311649
-0.25270000000000004,-124.55118284011782
-0.2536999999999999,-125.17365581205844
-0.25470000000000004,-125.18780292505707
-0.2556999999999999,-125.14536158606113
-0.25670000000000004,-125.64051054101391
-0.25769999999999993,-125.78198167100041
-0.25870000000000004,-125.6122163150166
-0.25969999999999993,-125.68295188000985
-0.26070000000000004,-126.02248259197746
-0.26169999999999993,-125.86686434899234
-0.26270000000000004,-125.82442300999638
-0.26369999999999993,-126.20639506095993
-0.26470000000000005,-126.00833547897882
-0.26569999999999994,-125.65465765401254
-0.26670000000000005,-125.9517470269842
-0.26769999999999994,-126.02248259197746
-0.26870000000000005,-125.69709899300851
-0.26969999999999994,-125.86686434899234
-0.27070000000000005,-126.07907104397206
-0.27169999999999994,-125.72539321900584
-0.27270000000000005,-125.54148075002335
-0.27369999999999994,-125.85271723599364
-0.27470000000000006,-125.73954033200447
-0.27569999999999995,-125.4707451850301
-0.27670000000000006,-125.72539321900584
-0.27769999999999995,-125.7536874450031
-0.27870000000000006,-125.34342116804225
-0.27969999999999995,-125.35756828104091
-0.28070000000000006,-125.45659807203144
-0.28169999999999995,-124.97559623007734
-0.28270000000000006,-124.81997798709217
-0.28369999999999995,-125.15950869905981
-0.28470000000000006,-124.97559623007734
-0.28569999999999995,-124.55118284011782
-0.28670000000000007,-124.67850685710567
-0.28769999999999996,-124.57947706611512
-0.28870000000000007,-124.05603388516508
-0.28969999999999996,-124.01359254616911
-0.29070000000000007,-124.09847522416102
-0.29169999999999996,-123.60332626920825
-0.29270000000000007,-123.29208978323796
-0.29369999999999996,-123.41941380022581
-0.2947000000000001,-123.09403020125686
-0.29569999999999996,-122.58473413330543
-0.2967000000000001,-122.81108794128383
-0.29769999999999996,-122.72620526329193
-0.2987000000000001,-121.94811404836615
-0.29969999999999997,-121.82079003137831
-0.3007000000000001,-121.91981982236886
-0.30169999999999997,-121.58028911040124
-0.3027000000000001,-121.43881798041474
-0.30369999999999997,-121.45296509341341
-0.3047000000000001,-121.14172860744308
-0.30569999999999997,-120.74560944348087
-0.3067000000000001,-120.77390366947817
-0.3077,-120.56169697449842
-0.3087000000000001,-120.16557781053622
-0.3097,-120.16557781053622
-0.3107000000000001,-120.25046048852812
-0.3117,-119.82604709856861
-0.3127000000000001,-119.55725195159425
-0.3137,-119.5713990645929
-0.3147000000000001,-119.18942701362934
-0.3157,-118.66598383267927
-0.3167000000000001,-118.84989630166173
-0.3177,-118.84989630166173
-0.3187000000000001,-118.21327621672248
-0.3197,-118.07180508673595
-0.3207000000000001,-118.18498199072516
-0.3217,-117.76056860076565
-0.3227000000000001,-117.54836190578591
-0.3237,-117.97277529574541
-0.3247000000000001,-117.95862818274676
-0.3257,-117.74642148776701
-0.3267000000000001,-117.77471571376431
-0.3277,-117.6615388097751
-0.3287000000000001,-117.30786098480884
-0.3297,-117.3785965498021
-0.3307000000000001,-117.67568592277377
-0.3317,-117.42103788879804
-0.3327000000000001,-117.32200809780748
-0.3337,-117.64739169677647
-0.3347000000000001,-117.39274366280074
-0.3357,-117.10980140282774
-0.3367000000000001,-117.4917734537913
-0.3377,-117.46347922779398
-0.3387000000000001,-117.10980140282774
-0.3397,-117.27956675881154
-0.3407000000000001,-117.3785965498021
-0.3417,-117.08150717683044
-0.3427000000000001,-117.15224274182368
-0.3437,-117.68983303577241
-0.3447000000000001,-117.68983303577241
-0.3457,-117.64739169677647
-0.3467000000000001,-118.15668776472786
-0.3477,-118.3688944597076
-0.3487000000000001,-118.02936374774
-0.3497,-118.14254065172923
-0.3507000000000001,-118.56695404168872
-0.3517,-118.58110115468739
-0.3527000000000001,-118.69427805867657
-0.3537,-119.04795588364286
-0.3547000000000001,-119.21772123962666
-0.3557,-119.24601546562396
-0.35670000000000013,-119.5713990645929
-0.3577,-119.89678266356185
-0.35870000000000013,-119.85434132456592
-0.3597,-120.15143069753758
-0.36070000000000013,-120.54754986149979
-0.3617,-120.46266718350788
-0.3626999999999999,-120.66072676548897
-0.3637,-121.35393530242285
-0.3646999999999999,-121.43881798041474
-0.3657,-121.3963766414188
-0.3666999999999999,-121.82079003137831
-0.3677,-122.075438065354
-0.3686999999999999,-122.16032074334592
-0.36970000000000003,-122.74035237629057
-0.3706999999999999,-123.10817731425549
-0.37170000000000003,-123.0232946362636
-0.3726999999999999,-123.1647657662501
-0.37370000000000003,-123.57503204321095
-0.3746999999999999,-123.54673781721365
-0.37570000000000003,-123.4477080262231
-0.3766999999999999,-124.14091656315696
-0.37770000000000004,-124.55118284011782
-0.3786999999999999,-124.56532995311649
-0.37970000000000004,-124.9614491170787
-0.3806999999999999,-125.72539321900584
-0.38170000000000004,-125.6688047670112
-0.38269999999999993,-125.98004125298151
-0.38370000000000004,-126.63080845091945
-0.38469999999999993,-126.82886803290056
-0.38570000000000004,-126.85716225889782
-0.38669999999999993,-125.48489229802875
-0.38570000000000004,-122.0471438393567
-0.38469999999999993,-118.70842517167522
-0.38370000000000004,-115.97803236293572
-0.38269999999999993,-113.43155202317865
-0.38170000000000004,-109.55524306154844
-0.3806999999999999,-107.4614703377482
-0.37970000000000004,-106.00431769888719
-0.3786999999999999,-103.33051334214227
-0.37770000000000004,-100.86891568037711
-0.3766999999999999,-99.46835149351072
-0.37570000000000003,-97.40287299570777
-0.3746999999999999,-95.02615801193451
-0.37370000000000003,-93.38509290409107
-0.3726999999999999,-92.12599984721119
-0.37170000000000003,-90.04637423640959
-0.3706999999999999,-88.47604469355939
-0.36970000000000003,-87.23109874967815
-0.3686999999999999,-85.50515096384281
-0.3677,-84.13288100297372
-0.3666999999999999,-82.81719949409924
-0.3657,-81.27516417724635
-0.3646999999999999,-79.28042124443665
-0.3637,-77.73838592758376
-0.3626999999999999,-76.30952751472009
-0.3617,-74.31478458191037
-0.36070000000000013,-72.58883679607503
-0.3597,-71.2590081742019
-0.35870000000000013,-69.54720750136521
-0.3577,-67.6656414725447
-0.35670000000000013,-66.60460799764593
-0.3557,-65.28892648877145
-0.3547000000000001,-63.64786138092801
-0.3537,-62.501945228037314
-0.3527000000000001,-61.384323301143944
-0.3517,-59.92717066228296
-0.3507000000000001,-58.72466605739767
-0.3497,-57.7768094864881
-0.3487000000000001,-56.333803960625765
-0.3477,-54.76347441777557
-0.3467000000000001,-53.75902939487139
-0.3457,-52.58481901598341
-0.3447000000000001,-51.085225038126474
-0.3437,-50.20810403221015
-0.3427000000000001,-49.444159930283035
-0.3417,-48.1709197604045
-0.3407000000000001,-47.095739172507066
-0.3397,-46.38838352257455
-0.3387000000000001,-45.17173180469062
-0.3377,-43.91263874781074
-0.3367000000000001,-43.23357732387552
-0.3357,-42.2715736399673
-0.3347000000000001,-40.91345079209687
-0.3337,-40.03632978618054
-0.3327000000000001,-39.272385684253415
-0.3317,-37.97085128837759
-0.3307000000000001,-36.99470049147071
-0.3297,-36.3439332935328
-0.3287000000000001,-35.226311366639415
-0.3277,-34.06624810075008
-0.3267000000000001,-33.47206935480677
-0.3257,-32.6090954618891
-0.3247000000000001,-31.40659085700382
-0.3237,-30.699235207071297
-0.3227000000000001,-30.07676223513068
-0.3217,-28.944993195238652
-0.3207000000000001,-28.09616641531963
-0.3197,-27.615164573365515
-0.3187000000000001,-26.63901377645864
-0.3177,-25.60627452755716
-0.3167000000000001,-25.1394197986017
-0.3157,-24.389622809673234
-0.3147000000000001,-23.286147995778503
-0.3137,-22.691969249835186
-0.3127000000000001,-22.140231842887825
-0.3117,-21.107492593986347
-0.3107000000000001,-20.329401379060574
-0.3097,-19.93328221509837
-0.3087000000000001,-19.070308322180697
-0.3077,-18.19318731626437
-0.3067000000000001,-17.825362378299463
-0.30569999999999997,-17.132153841365596
-0.3047000000000001,-16.056973253468165
-0.30369999999999997,-15.590118524512702
-0.3027000000000001,-15.10911668255859
-0.30169999999999997,-14.161260111649016
-0.3007000000000001,-13.509078202411235
-0.29969999999999997,-13.227550653738092
-0.2987000000000001,-12.455118284011784
-0.29769999999999996,-11.623268039691142
-0.2967000000000001,-11.341740491018
-0.29569999999999996,-10.760294146773468
-0.2947000000000001,-9.8081934419643
-0.29369999999999996,-9.371047650306002
-0.29270000000000007,-8.997563867141633
-0.29169999999999996,-8.087904501328415
-0.29070000000000007,-7.486652198885773
-0.28969999999999996,-7.241907144009123
-0.28870000000000007,-6.504842556779439
-0.28769999999999996,-5.747972011351644
-0.28670000000000007,-5.518788780773508
-0.28569999999999995,-5.001004445022905
-0.28470000000000006,-4.145104108604558
-0.28369999999999995,-3.788596861038568
-0.28270000000000006,-3.504239889765696
-0.28169999999999995,-2.6766337793446495
-0.28070000000000006,-2.1475317531951257
-0.27969999999999995,-1.9763516859114565
-0.27870000000000006,-1.2965829063263061
-0.27769999999999995,-0.5787583927747865
-0.27670000000000006,-0.40404154724145447
-0.27569999999999995,0.05851245936241791
-0.27470000000000006,0.8648130176074971
-0.27369999999999994,1.1613365060592085
-0.27270000000000005,1.4175407224647667
-0.27169999999999994,2.171581845292831
-0.27070000000000005,2.6440954194477535
-0.26969999999999994,2.7615164573365516
-0.26870000000000005,3.392477697076358
-0.26769999999999994,4.054562585413195
