Potential V vs RHE, Current mA cm-2
0.05339999999999995,-0.09263529591516259
0.05239999999999995,-0.09447442060498715
0.051399999999999946,-0.09542227717589671
0.050399999999999945,-0.09611548571283059
0.049399999999999944,-0.09675210579776986
0.04839999999999994,-0.09730384320471722
0.04739999999999994,-0.09784143349866595
0.04639999999999994,-0.098364876679616
0.04539999999999994,-0.09886002563456876
0.04439999999999994,-0.09934102747652288
0.04339999999999994,-0.09983617643147565
0.04239999999999994,-0.1003313253864284
0.04139999999999994,-0.10078403300238521
0.040399999999999936,-0.10122259350534336
0.039399999999999935,-0.10168944823429883
0.038399999999999934,-0.1021845971892516
0.03739999999999993,-0.10259486346621245
0.03639999999999993,-0.10301927685617196
0.03539999999999993,-0.10341539602013419
0.03439999999999993,-0.1038115151840964
0.03339999999999993,-0.10422178146105725
0.03239999999999993,-0.10458960639902216
0.03139999999999993,-0.10498572556298437
0.030399999999999927,-0.10535355050094929
0.029399999999999926,-0.10573552255191283
0.028399999999999925,-0.10610334748987776
0.027399999999999924,-0.10644287820184536
0.026399999999999924,-0.10683899736580757
0.025399999999999923,-0.10722096941677112
0.024399999999999922,-0.10757464724173739
0.02339999999999992,-0.10792832506670365
0.02239999999999992,-0.10823956155267396
0.02139999999999992,-0.10857909226464157
0.020399999999999918,-0.10894691720260646
0.019399999999999917,-0.1093147421405714
0.018399999999999916,-0.10962597862654169
0.017399999999999916,-0.1099089208865147
0.016399999999999915,-0.11022015737248501
0.015399999999999914,-0.11051724674545668
0.014399999999999913,-0.11080018900542968
0.013399999999999912,-0.11115386683039592
0.012399999999999911,-0.11149339754236354
0.01139999999999991,-0.1117621926893379
0.01039999999999991,-0.11204513494931091
0.009399999999999908,-0.11232807720928391
0.008399999999999908,-0.11259687235625826
0.007399999999999907,-0.11287981461623127
0.006399999999999906,-0.11313446265020698
0.005399999999999905,-0.11341740491017999
0.004399999999999904,-0.1136720529441557
0.003399999999999903,-0.1138984067521341
0.002399999999999902,-0.11415305478610982
0.0013999999999999013,-0.11442184993308416
0.00039999999999990044,-0.1146623508540612
-0.0006000000000001005,-0.11490285177503827
-0.0016000000000001013,-0.11511505847001803
-0.0026000000000001022,-0.11534141227799644
-0.003600000000000103,-0.11553947185997754
-0.004600000000000104,-0.11573753144195865
-0.005600000000000105,-0.11602047370193166
-0.006600000000000106,-0.11623268039691143
-0.007600000000000107,-0.11644488709189117
-0.008600000000000108,-0.11661465244787497
-0.009600000000000108,-0.11678441780385877
-0.01060000000000011,-0.11701077161183718
-0.01160000000000011,-0.11719468408081965
-0.012600000000000111,-0.11744933211479533
-0.013600000000000112,-0.1176049503577805
-0.014600000000000113,-0.11776056860076566
-0.015600000000000114,-0.11785959839175622
-0.016600000000000115,-0.11804351086073867
-0.017600000000000116,-0.11819912910372382
-0.018600000000000116,-0.11835474734670896
-0.019600000000000117,-0.11851036558969412
-0.020600000000000118,-0.11860939538068467
-0.02160000000000012,-0.11875086651067117
-0.02260000000000012,-0.11886404341466038
-0.02360000000000012,-0.11901966165764555
-0.024600000000000122,-0.11913283856163473
-0.025600000000000123,-0.11924601546562394
-0.026600000000000124,-0.11935919236961315
-0.027600000000000124,-0.11947236927360234
-0.028600000000000125,-0.1195713990645929
-0.029600000000000126,-0.11969872308158076
-0.030600000000000127,-0.11984019421156727
-0.03160000000000013,-0.11988263555056322
-0.03260000000000013,-0.12000995956755106
-0.03360000000000013,-0.12010898935854163
-0.03460000000000002,-0.12017972492353488
-0.03560000000000002,-0.12029290182752407
-0.03660000000000002,-0.12034949027951866
-0.03760000000000002,-0.12043437295751057
-0.03860000000000002,-0.12051925563550246
-0.039600000000000024,-0.12056169697449844
-0.040600000000000025,-0.12066072676548899
-0.041600000000000026,-0.12071731521748358
-0.04260000000000003,-0.12074560944348088
-0.04360000000000003,-0.12078805078247684
-0.04460000000000003,-0.12081634500847413
-0.04560000000000003,-0.12090122768646602
-0.04660000000000003,-0.12095781613846063
-0.04760000000000003,-0.12097196325145929
-0.04860000000000003,-0.12104269881645255
-0.04960000000000003,-0.1210285517034539
-0.050600000000000034,-0.12104269881645255
-0.051600000000000035,-0.1210851401554485
-0.052600000000000036,-0.12105684592945118
-0.053600000000000037,-0.12107099304244984
-0.05460000000000004,-0.12112758149444444
-0.05560000000000004,-0.12114172860744309
-0.05660000000000004,-0.12118416994643905
-0.05760000000000004,-0.12118416994643905
-0.05860000000000004,-0.12118416994643905
-0.05960000000000004,-0.12118416994643905
-0.06060000000000004,-0.12118416994643905
-0.061600000000000044,-0.12118416994643905
-0.06260000000000004,-0.12114172860744309
-0.06360000000000005,-0.12114172860744309
-0.06460000000000005,-0.1211700228334404
-0.06560000000000005,-0.12118416994643905
-0.06660000000000005,-0.12112758149444444
-0.06760000000000005,-0.1210851401554485
-0.06860000000000005,-0.12104269881645255
-0.06960000000000005,-0.12104269881645255
-0.07060000000000005,-0.12101440459045523
-0.07160000000000005,-0.12095781613846063
-0.07260000000000005,-0.12091537479946468
-0.07360000000000005,-0.12090122768646602
-0.07460000000000006,-0.12085878634747008
-0.07560000000000006,-0.12084463923447143
-0.07660000000000006,-0.12078805078247684
-0.07760000000000006,-0.12077390366947817
-0.07860000000000006,-0.12074560944348088
-0.07960000000000006,-0.12068902099148628
-0.08060000000000006,-0.12067487387848763
-0.08160000000000006,-0.12060413831349438
-0.08260000000000006,-0.12054754986149978
-0.08360000000000006,-0.12050510852250383
-0.08460000000000006,-0.12040607873151328
-0.08560000000000006,-0.12037778450551596
-0.08660000000000007,-0.12030704894052272
-0.08760000000000007,-0.12023631337552945
-0.08860000000000007,-0.12015143069753757
-0.08960000000000007,-0.12009484224554295
-0.09060000000000007,-0.12005240090654701
-0.09160000000000007,-0.1199675182285551
-0.09260000000000007,-0.11993922400255783
-0.09360000000000007,-0.11984019421156727
-0.09460000000000007,-0.11978360575957266
-0.09560000000000007,-0.11972701730757807
-0.09660000000000007,-0.11964213462958616
-0.09760000000000008,-0.11959969329059021
-0.09860000000000008,-0.11952895772559695
-0.09960000000000008,-0.11945822216060371
-0.10060000000000008,-0.11935919236961315
-0.10160000000000008,-0.11924601546562394
-0.10260000000000008,-0.11916113278763205
-0.10360000000000008,-0.11909039722263878
-0.10460000000000008,-0.11903380877064418
-0.10560000000000008,-0.11896307320565094
-0.10660000000000008,-0.11883574918866308
-0.10760000000000008,-0.11875086651067117
-0.10860000000000009,-0.11866598383267928
-0.10960000000000009,-0.11859524826768601
-0.11060000000000009,-0.11852451270269278
-0.11160000000000009,-0.11841133579870355
-0.11260000000000009,-0.11835474734670896
-0.11360000000000009,-0.11828401178171571
-0.11460000000000009,-0.11822742332972111
-0.11560000000000009,-0.11814254065172922
-0.11660000000000009,-0.11805765797373731
-0.1176000000000001,-0.11800106952174272
-0.1186000000000001,-0.11791618684375081
-0.1196000000000001,-0.1178030099397616
-0.1206000000000001,-0.11771812726176971
-0.1216000000000001,-0.11761909747077916
-0.1226000000000001,-0.11750592056678995
-0.1236000000000001,-0.11743518500179671
-0.1246000000000001,-0.11733615521080615
-0.1256000000000001,-0.11726541964581289
-0.1266000000000001,-0.11718053696782099
-0.1276000000000001,-0.11712394851582639
-0.1286000000000001,-0.11699662449883853
-0.1296000000000001,-0.11688344759484932
-0.1306000000000001,-0.11679856491685743
-0.1316000000000001,-0.11669953512586688
-0.1326000000000001,-0.11657221110887903
-0.1336000000000001,-0.11647318131788847
-0.1346000000000001,-0.11638829863989655
-0.1356000000000001,-0.11630341596190466
-0.1366000000000001,-0.11617609194491682
-0.1376000000000001,-0.11609120926692493
-0.1386000000000001,-0.11599217947593436
-0.1396000000000001,-0.11587900257194515
-0.1406000000000001,-0.11579411989395326
-0.14160000000000011,-0.11570923721596137
-0.14260000000000012,-0.11559606031197216
-0.14360000000000012,-0.1155253247469789
-0.14460000000000012,-0.1154687362949843
-0.14560000000000012,-0.11536970650399375
-0.14660000000000012,-0.11528482382600183
-0.14760000000000012,-0.11519994114800992
-0.14860000000000012,-0.11510091135701939
-0.14960000000000012,-0.11503017579202615
-0.15060000000000012,-0.11491699888803693
-0.15160000000000012,-0.11483211621004503
-0.15260000000000012,-0.11477552775805042
-0.15360000000000013,-0.11467649796705988
-0.15460000000000013,-0.11460576240206662
-0.15560000000000013,-0.11450673261107608
-0.15660000000000013,-0.11439355570708687
-0.15760000000000013,-0.11433696725509226
-0.15860000000000013,-0.11426623169009903
-0.15960000000000002,-0.11416720189910846
-0.16060000000000002,-0.11411061344711387
-0.16160000000000002,-0.11401158365612331
-0.16260000000000002,-0.11392670097813141
-0.16360000000000002,-0.11387011252613681
-0.16460000000000002,-0.11377108273514626
-0.16560000000000002,-0.1137569356221476
-0.16660000000000003,-0.1136720529441557
-0.16760000000000003,-0.11355887604016648
-0.16860000000000003,-0.11350228758817188
-0.16960000000000003,-0.11340325779718134
-0.17060000000000003,-0.11329008089319213
-0.17160000000000003,-0.11323349244119754
-0.17260000000000003,-0.1131627568762043
-0.17360000000000003,-0.1130495799722151
-0.17460000000000003,-0.11299299152022048
-0.17560000000000003,-0.11292225595522724
-0.17660000000000003,-0.11287981461623127
-0.17760000000000004,-0.11276663771224207
-0.17860000000000004,-0.11269590214724882
-0.17960000000000004,-0.11265346080825286
-0.18060000000000004,-0.11255443101726233
-0.18160000000000004,-0.11249784256526771
-0.18260000000000004,-0.11242710700027447
-0.18360000000000004,-0.11235637143528121
-0.18460000000000004,-0.11225734164429065
-0.18560000000000004,-0.11218660607929741
-0.18660000000000004,-0.11210172340130552
-0.18760000000000004,-0.11200269361031497
-0.18860000000000005,-0.1119319580453217
-0.18960000000000005,-0.11186122248032847
-0.19060000000000005,-0.11180463402833385
-0.19160000000000005,-0.11174804557633926
-0.19260000000000005,-0.1116490157853487
-0.19360000000000005,-0.11159242733335409
-0.19460000000000005,-0.11152169176836085
-0.19560000000000005,-0.11146510331636625
-0.19660000000000005,-0.11138022063837434
-0.19760000000000005,-0.11130948507338108
-0.19860000000000005,-0.11123874950838784
-0.19960000000000006,-0.11115386683039592
-0.20060000000000006,-0.11112557260439863
-0.20160000000000006,-0.11105483703940537
-0.20260000000000006,-0.11099824858741078
-0.20360000000000006,-0.11094166013541619
-0.20460000000000006,-0.11087092457042293
-0.20560000000000006,-0.11085677745742427
-0.20660000000000006,-0.11077189477943236
-0.20760000000000006,-0.11070115921443913
-0.20860000000000006,-0.11063042364944586
-0.20960000000000006,-0.11055968808445263
-0.21060000000000006,-0.11050309963245801
-0.21160000000000007,-0.11044651118046342
-0.21260000000000007,-0.11037577561547016
-0.21360000000000007,-0.11034748138947285
-0.21460000000000007,-0.11029089293747825
-0.21560000000000007,-0.1102484515984823
-0.21660000000000007,-0.1101918631464877
-0.21760000000000007,-0.11014942180749175
-0.21860000000000007,-0.1100503920165012
-0.21960000000000007,-0.10997965645150796
-0.22060000000000007,-0.109937215112512
-0.22160000000000007,-0.10986647954751874
-0.22260000000000008,-0.10983818532152145
-0.22360000000000008,-0.10978159686952685
-0.22460000000000008,-0.1097674497565282
-0.22560000000000008,-0.10969671419153494
-0.22660000000000008,-0.10964012573954035
-0.22760000000000008,-0.10961183151354303
-0.22860000000000008,-0.10952694883555114
-0.22960000000000008,-0.1094845074965552
-0.23060000000000008,-0.10942791904456058
-0.23160000000000008,-0.10935718347956734
-0.23260000000000008,-0.10932888925357002
-0.23360000000000009,-0.10927230080157543
-0.2346000000000001,-0.10922985946257947
-0.2356000000000001,-0.10920156523658218
-0.2366000000000001,-0.10911668255859029
-0.2376000000000001,-0.10910253544559163
-0.2386000000000001,-0.10904594699359701
-0.2396000000000001,-0.10900350565460108
-0.2406000000000001,-0.10898935854160242
-0.2416000000000001,-0.10891862297660918
-0.2426000000000001,-0.10889032875061187
-0.2436000000000001,-0.10884788741161593
-0.2446000000000001,-0.10879129895962131
-0.2456000000000001,-0.10877715184662266
-0.2466000000000001,-0.10870641628162941
-0.2476000000000001,-0.10864982782963481
-0.2486000000000001,-0.10860738649063886
-0.2496000000000001,-0.10857909226464157
-0.2506000000000001,-0.10855079803864424
-0.2516000000000001,-0.10850835669964831
-0.2526000000000001,-0.10848006247365101
-0.2536000000000001,-0.10843762113465506
-0.2546000000000001,-0.10839517979565912
-0.2556000000000001,-0.1083668855696618
-0.2566000000000001,-0.1083102971176672
-0.2576000000000001,-0.10826785577867125
-0.2586000000000001,-0.10826785577867125
-0.2596000000000001,-0.1082254144396753
-0.2606000000000001,-0.10816882598768068
-0.2616000000000001,-0.1081405317616834
-0.2626000000000001,-0.10811223753568612
-0.2636000000000001,-0.1080556490836915
-0.2646000000000001,-0.10806979619669015
-0.2656000000000001,-0.10804150197069286
-0.2666000000000001,-0.10798491351869824
-0.2676000000000001,-0.10797076640569962
-0.2686000000000001,-0.10794247217970229
-0.2696000000000001,-0.10790003084070635
-0.2706000000000001,-0.1078858837277077
-0.2716000000000001,-0.1078575895017104
-0.2726000000000001,-0.10787173661470904
-0.2736000000000001,-0.10784344238871174
-0.2746000000000001,-0.1078010010497158
-0.2756000000000001,-0.10774441259772119
-0.2766000000000001,-0.1076878241457266
-0.2776000000000001,-0.1076878241457266
-0.2786000000000001,-0.10761708858073335
-0.2796000000000001,-0.10760294146773468
-0.2806000000000001,-0.10760294146773468
-0.28160000000000013,-0.10758879435473605
-0.28260000000000013,-0.10753220590274143
-0.28360000000000013,-0.10748976456374548
-0.2846,-0.10744732322474954
-0.2856,-0.10741902899875223
-0.2866,-0.10741902899875223
-0.2876,-0.10740488188575359
-0.2886,-0.10739073477275493
-0.2896,-0.10734829343375898
-0.2906,-0.10733414632076034
-0.2916,-0.10729170498176437
-0.2926,-0.10724926364276843
-0.2936,-0.10726341075576709
-0.29460000000000003,-0.10723511652976979
-0.29560000000000003,-0.10720682230377249
-0.29660000000000003,-0.10716438096477654
-0.29760000000000003,-0.10715023385177787
-0.29860000000000003,-0.10713608673877922
-0.29960000000000003,-0.10710779251278192
-0.30060000000000003,-0.10706535117378597
-0.30160000000000003,-0.10705120406078733
-0.30260000000000004,-0.10703705694778867
-0.30360000000000004,-0.10699461560879273
-0.30460000000000004,-0.10700876272179137
-0.30560000000000004,-0.10698046849579408
-0.30660000000000004,-0.10698046849579408
-0.30760000000000004,-0.10698046849579408
-0.30860000000000004,-0.10692388004379948
-0.30960000000000004,-0.10690973293080082
-0.31060000000000004,-0.10685314447880623
-0.31160000000000004,-0.10682485025280893
-0.31260000000000004,-0.10681070313981027
-0.31360000000000005,-0.10679655602681161
-0.31460000000000005,-0.10681070313981027
-0.31560000000000005,-0.10678240891381298
-0.31660000000000005,-0.10672582046181836
-0.31760000000000005,-0.10676826180081432
-0.31860000000000005,-0.10672582046181836
-0.31960000000000005,-0.10673996757481702
-0.32060000000000005,-0.10672582046181836
-0.32160000000000005,-0.10668337912282241
-0.32260000000000005,-0.10666923200982377
-0.32360000000000005,-0.10666923200982377
-0.32460000000000006,-0.10664093778382645
-0.32560000000000006,-0.10664093778382645
-0.32660000000000006,-0.10659849644483052
-0.32760000000000006,-0.1065702022188332
-0.32860000000000006,-0.10658434933183186
-0.32960000000000006,-0.1065702022188332
-0.33060000000000006,-0.1065702022188332
-0.33160000000000006,-0.10655605510583457
-0.33260000000000006,-0.10654190799283592
-0.33360000000000006,-0.10654190799283592
-0.33460000000000006,-0.10652776087983726
-0.33560000000000006,-0.10652776087983726
-0.33660000000000007,-0.10648531954084133
-0.33760000000000007,-0.10649946665383996
-0.33860000000000007,-0.10649946665383996
-0.33960000000000007,-0.10652776087983726
-0.34060000000000007,-0.10648531954084133
-0.34160000000000007,-0.10647117242784265
-0.34260000000000007,-0.10647117242784265
-0.34360000000000007,-0.10645702531484401
-0.3446000000000001,-0.10647117242784265
-0.3456000000000001,-0.10641458397584806
-0.3466000000000001,-0.1064004368628494
-0.34759999999999996,-0.1064287310888467
-0.3486000000000001,-0.10641458397584806
-0.34959999999999997,-0.1064287310888467
-0.3506000000000001,-0.10641458397584806
-0.35159999999999997,-0.10641458397584806
-0.3526000000000001,-0.1064287310888467
-0.35359999999999997,-0.1064287310888467
-0.3546000000000001,-0.1064287310888467
-0.35559999999999997,-0.1064287310888467
-0.3566000000000001,-0.10641458397584806
-0.3576,-0.1064287310888467
-0.3586000000000001,-0.10644287820184536
-0.3596,-0.10644287820184536
-0.3606000000000001,-0.10647117242784265
-0.3616,-0.10645702531484401
-0.3626000000000001,-0.10644287820184536
-0.3636,-0.10648531954084133
-0.3646000000000001,-0.10647117242784265
-0.3656,-0.10647117242784265
-0.3666000000000001,-0.10647117242784265
-0.3676,-0.10651361376683861
-0.3686000000000001,-0.10654190799283592
-0.3696,-0.10659849644483052
-0.3706000000000001,-0.10662679067082782
-0.3716,-0.10662679067082782
-0.3726000000000001,-0.10662679067082782
-0.3736,-0.10665508489682511
-0.3746000000000001,-0.10669752623582107
-0.3756,-0.10668337912282241
-0.3766000000000001,-0.10669752623582107
-0.3776,-0.10673996757481702
-0.3786000000000001,-0.10673996757481702
-0.3796,-0.10681070313981027
-0.3806000000000001,-0.10682485025280893
-0.3816,-0.10683899736580757
-0.3826000000000001,-0.10688143870480352
-0.3836,-0.10696632138279542
-0.3846000000000001,-0.10699461560879273
-0.3856,-0.10705120406078733
-0.3866000000000001,-0.10709364539978329
-0.3876,-0.10715023385177787
-0.3886000000000001,-0.10716438096477654
-0.3896,-0.10724926364276843
-0.3906000000000001,-0.10730585209476304
-0.3916,-0.10733414632076034
-0.3926000000000001,-0.10743317611175088
-0.3936,-0.10750391167674413
-0.3946000000000001,-0.10757464724173739
-0.3956,-0.1076878241457266
-0.3966000000000001,-0.10771611837172389
-0.3976,-0.1078010010497158
-0.3986000000000001,-0.10790003084070635
-0.3996,-0.1079990606316969
-0.4006000000000001,-0.10811223753568612
-0.4016,-0.10816882598768068
-0.4026000000000001,-0.1083102971176672
-0.4036,-0.10842347402165642
-0.4046000000000001,-0.10849420958664967
-0.4056,-0.10859323937764022
-0.40660000000000013,-0.10869226916863078
-0.4076,-0.10881959318561862
-0.40860000000000013,-0.10894691720260646
-0.4096,-0.10904594699359701
-0.41060000000000013,-0.10918741812358353
-0.4116,-0.1093147421405714
-0.41260000000000013,-0.10944206615755923
-0.4136,-0.10961183151354303
-0.41460000000000014,-0.10972500841753224
-0.4156,-0.10983818532152145
-0.41660000000000014,-0.10997965645150796
-0.4176,-0.11012112758149446
-0.41860000000000014,-0.1102484515984823
-0.41960000000000003,-0.11043236406746475
-0.42060000000000014,-0.11055968808445263
-0.42160000000000003,-0.11070115921443913
-0.42260000000000014,-0.11087092457042293
-0.42360000000000003,-0.1109558072484148
-0.42460000000000014,-0.11113971971739729
-0.42560000000000003,-0.11122460239538919
-0.42660000000000015,-0.11135192641237703
-0.42760000000000004,-0.11154998599435814
-0.42860000000000015,-0.111677310011346
-0.42960000000000004,-0.11183292825433114
-0.43060000000000015,-0.1119885464973163
-0.43160000000000004,-0.11211587051430415
-0.43260000000000015,-0.11227148875728932
-0.43360000000000004,-0.11239881277427716
-0.43460000000000015,-0.11255443101726233
-0.43560000000000004,-0.11269590214724882
-0.43660000000000015,-0.11282322616423668
