Potential V vs RHE, Current mA cm-2
0.05339999999999995,-0.024785741973635443
0.05239999999999995,-0.025889216787530173
0.051399999999999946,-0.026384365742482933
0.050399999999999945,-0.026766337793446494
0.049399999999999944,-0.027120015618412752
0.04839999999999994,-0.02741710499138441
0.04739999999999994,-0.027714194364356067
0.04639999999999994,-0.02802543085032638
0.04539999999999994,-0.028350814449295336
0.04439999999999994,-0.028662050935265648
0.04339999999999994,-0.0289591403082373
0.04239999999999994,-0.029256229681208955
0.04139999999999994,-0.029567466167179264
0.040399999999999936,-0.02986455554015093
0.039399999999999935,-0.03018993913911988
0.038399999999999934,-0.030487028512091542
0.03739999999999993,-0.030769970772064545
0.03639999999999993,-0.031052913032037555
0.03539999999999993,-0.031350002405009215
0.03439999999999993,-0.03166123889097952
0.03339999999999993,-0.03195832826395118
0.03239999999999993,-0.03224127052392419
0.03139999999999993,-0.032538359896895845
0.030399999999999927,-0.0328637434958648
0.029399999999999926,-0.03320327420783241
0.028399999999999925,-0.03351451069380272
0.027399999999999924,-0.033825747179773026
0.026399999999999924,-0.03415113077874199
0.025399999999999923,-0.034476514377710946
0.024399999999999922,-0.03481604508967855
0.02339999999999992,-0.03511313446265021
0.02239999999999992,-0.03543851806161917
0.02139999999999992,-0.035749754547589475
0.020399999999999918,-0.036103432372555734
0.019399999999999917,-0.036457110197522
0.018399999999999916,-0.036782493796490956
0.017399999999999916,-0.03713617162145721
0.016399999999999915,-0.03747570233342482
0.015399999999999914,-0.037843527271389725
0.014399999999999913,-0.03818305798335734
0.013399999999999912,-0.0385367358083236
0.012399999999999911,-0.03887626652029121
0.01139999999999991,-0.03921579723225881
0.01039999999999991,-0.039597769283222374
0.009399999999999908,-0.039979741334185935
0.008399999999999908,-0.04031927204615354
0.007399999999999907,-0.0406729498711198
0.006399999999999906,-0.04102662769608607
0.005399999999999905,-0.04143689397304692
0.004399999999999904,-0.041818866024010484
0.003399999999999903,-0.04217254384897674
0.002399999999999902,-0.04254036878694165
0.0013999999999999013,-0.04290819372490656
0.00039999999999990044,-0.04331846000186742
-0.0006000000000001005,-0.04372872627882829
-0.0016000000000001013,-0.04409655121679319
-0.0026000000000001022,-0.044506817493754056
-0.003600000000000103,-0.04488878954471761
-0.004600000000000104,-0.04529905582167848
-0.005600000000000105,-0.045695174985640685
-0.006600000000000106,-0.04609129414960289
-0.007600000000000107,-0.0464874133135651
-0.008600000000000108,-0.046869385364528664
-0.009600000000000108,-0.04730794586748682
-0.01060000000000011,-0.04774650637044498
-0.01160000000000011,-0.0481426255344072
-0.012600000000000111,-0.04859533315036401
-0.013600000000000112,-0.04899145231432622
-0.014600000000000113,-0.04941586570428573
-0.015600000000000114,-0.049840279094245245
-0.016600000000000115,-0.05026469248420476
-0.017600000000000116,-0.050674958761165616
-0.018600000000000116,-0.051113519264123775
-0.019600000000000117,-0.051566226880080585
-0.020600000000000118,-0.0520189344960374
-0.02160000000000012,-0.0524433478859969
-0.02260000000000012,-0.05288190838895507
-0.02360000000000012,-0.05332046889191323
-0.024600000000000122,-0.053787323620868695
-0.025600000000000123,-0.054240031236825505
-0.026600000000000124,-0.05469273885278232
-0.027600000000000124,-0.055145446468739125
-0.028600000000000125,-0.05558400697169729
-0.029600000000000126,-0.0560367145876541
-0.030600000000000127,-0.05651771642960821
-0.03160000000000013,-0.05695627693256638
-0.03260000000000013,-0.05742313166152184
-0.03360000000000013,-0.05786169216448
-0.03460000000000002,-0.05835684111943277
-0.03560000000000002,-0.058837842961386874
-0.03660000000000002,-0.05927640346434503
-0.03760000000000002,-0.05972911108030186
-0.03860000000000002,-0.06018181869625867
-0.039600000000000024,-0.06066282053821278
-0.040600000000000025,-0.06115796949316554
-0.041600000000000026,-0.061624824222121004
-0.04260000000000003,-0.06209167895107646
-0.04360000000000003,-0.06258682790602922
-0.04460000000000003,-0.06305368263498468
-0.04560000000000003,-0.0635629787029361
-0.04660000000000003,-0.06405812765788886
-0.04760000000000003,-0.06456742372584028
-0.04860000000000003,-0.06503427845479573
-0.04960000000000003,-0.06554357452274716
-0.050600000000000034,-0.06605287059069856
-0.051600000000000035,-0.06653387243265267
-0.052600000000000036,-0.06702902138760544
-0.053600000000000037,-0.0674958761165609
-0.05460000000000004,-0.06801931929751097
-0.05560000000000004,-0.06852861536546237
-0.05660000000000004,-0.06900961720741648
-0.05760000000000004,-0.06949061904937061
-0.05860000000000004,-0.0699716208913247
-0.05960000000000004,-0.07049506407227478
-0.06060000000000004,-0.07100436014022618
-0.061600000000000044,-0.07149950909517895
-0.06260000000000004,-0.07200880516313038
-0.06360000000000005,-0.07250395411808314
-0.06460000000000005,-0.07301325018603454
-0.06560000000000005,-0.0735083991409873
-0.06660000000000005,-0.07398940098294142
-0.06760000000000005,-0.07451284416389148
-0.06860000000000005,-0.07499384600584559
-0.06960000000000005,-0.07551728918679566
-0.07060000000000005,-0.07602658525474706
-0.07160000000000005,-0.07649343998370253
-0.07260000000000005,-0.07697444182565666
-0.07360000000000005,-0.07746959078060942
-0.07460000000000006,-0.07797888684856082
-0.07560000000000006,-0.07850233002951089
-0.07660000000000006,-0.078983331871465
-0.07760000000000006,-0.07947848082641776
-0.07860000000000006,-0.07994533555537323
-0.07960000000000006,-0.080440484510326
-0.08060000000000006,-0.0809214863522801
-0.08160000000000006,-0.08141663530723285
-0.08260000000000006,-0.08191178426218561
-0.08360000000000006,-0.08239278610413973
-0.08460000000000006,-0.08287378794609385
-0.08560000000000006,-0.08332649556205066
-0.08660000000000007,-0.08375090895201018
-0.08760000000000007,-0.08420361656796697
-0.08860000000000007,-0.08465632418392378
-0.08960000000000007,-0.08515147313887655
-0.09060000000000007,-0.08560418075483338
-0.09160000000000007,-0.08607103548378882
-0.09260000000000007,-0.08653789021274429
-0.09360000000000007,-0.08697645071570247
-0.09460000000000007,-0.08740086410566196
-0.09560000000000007,-0.08782527749562147
-0.09660000000000007,-0.08826383799857963
-0.09760000000000008,-0.0886741042755405
-0.09860000000000008,-0.08911266477849866
-0.09960000000000008,-0.08956537239445547
-0.10060000000000008,-0.08998978578441498
-0.10160000000000008,-0.09040005206137584
-0.10260000000000008,-0.09082446545133536
-0.10360000000000008,-0.09123473172829621
-0.10460000000000008,-0.09165914511825574
-0.10560000000000008,-0.09205526428221794
-0.10660000000000008,-0.09245138344618015
-0.10760000000000008,-0.09286164972314101
-0.10860000000000009,-0.09324362177410456
-0.10960000000000009,-0.09362559382506812
-0.11060000000000009,-0.09402171298903034
-0.11160000000000009,-0.09438953792699524
-0.11260000000000009,-0.0947715099779588
-0.11360000000000009,-0.0951110406899264
-0.11460000000000009,-0.09550715985388863
-0.11560000000000009,-0.09587498479185352
-0.11660000000000009,-0.0962003683908225
-0.1176000000000001,-0.09656819332878741
-0.1186000000000001,-0.09689357692775637
-0.1196000000000001,-0.09721896052672531
-0.1206000000000001,-0.09754434412569428
-0.1216000000000001,-0.09784143349866595
-0.1226000000000001,-0.09816681709763489
-0.1236000000000001,-0.0984497593576079
-0.1246000000000001,-0.09874684873057955
-0.1256000000000001,-0.09904393810355122
-0.1266000000000001,-0.09932688036352423
-0.1276000000000001,-0.09960982262349724
-0.1286000000000001,-0.09987861777047159
-0.1296000000000001,-0.10016156003044459
-0.1306000000000001,-0.10045864940341626
-0.1316000000000001,-0.10069915032439332
-0.1326000000000001,-0.10092550413237171
-0.1336000000000001,-0.10116600505334877
-0.1346000000000001,-0.10142065308732448
-0.1356000000000001,-0.10164700689530289
-0.1366000000000001,-0.10187336070328129
-0.1376000000000001,-0.10208556739826105
-0.1386000000000001,-0.10228362698024217
-0.1396000000000001,-0.10249583367522191
-0.1406000000000001,-0.10269389325720302
-0.14160000000000011,-0.10287780572618546
-0.14260000000000012,-0.10304757108216928
-0.14360000000000012,-0.10323148355115172
-0.14460000000000012,-0.10341539602013419
-0.14560000000000012,-0.10355686715012069
-0.14660000000000012,-0.10371248539310583
-0.14760000000000012,-0.10388225074908965
-0.14860000000000012,-0.10400957476607749
-0.14960000000000012,-0.10416519300906264
-0.15060000000000012,-0.1042925170260505
-0.15160000000000012,-0.10439154681704105
-0.15260000000000012,-0.10451887083402892
-0.15360000000000013,-0.10461790062501947
-0.15460000000000013,-0.10473107752900866
-0.15560000000000013,-0.10484425443299787
-0.15660000000000013,-0.10491498999799112
-0.15760000000000013,-0.10499987267598301
-0.15860000000000013,-0.10508475535397492
-0.15960000000000002,-0.10515549091896817
-0.16060000000000002,-0.10521207937096277
-0.16160000000000002,-0.10525452070995873
-0.16260000000000002,-0.10533940338795064
-0.16360000000000002,-0.10538184472694657
-0.16460000000000002,-0.10543843317894118
-0.16560000000000002,-0.10550916874393444
-0.16660000000000003,-0.10556575719592905
-0.16760000000000003,-0.10556575719592905
-0.16860000000000003,-0.10557990430892769
-0.16960000000000003,-0.105608198534925
-0.17060000000000003,-0.10562234564792364
-0.17160000000000003,-0.10562234564792364
-0.17260000000000003,-0.10559405142192634
-0.17360000000000003,-0.10559405142192634
-0.17460000000000003,-0.10559405142192634
-0.17560000000000003,-0.10557990430892769
-0.17660000000000003,-0.10553746296993173
-0.17760000000000004,-0.10549502163093578
-0.17860000000000004,-0.10546672740493848
-0.17960000000000004,-0.10548087451793714
-0.18060000000000004,-0.10539599183994523
-0.18160000000000004,-0.10535355050094929
-0.18260000000000004,-0.10529696204895468
-0.18360000000000004,-0.10524037359696008
-0.18460000000000004,-0.10519793225796412
-0.18560000000000004,-0.10511304957997222
-0.18660000000000004,-0.10504231401497897
-0.18760000000000004,-0.10497157844998573
-0.18860000000000005,-0.10485840154599652
-0.18960000000000005,-0.10481596020700056
-0.19060000000000005,-0.10473107752900866
-0.19160000000000005,-0.10466034196401541
-0.19260000000000005,-0.10457545928602352
-0.19360000000000005,-0.10447642949503295
-0.19460000000000005,-0.1044056939300397
-0.19560000000000005,-0.1042925170260505
-0.19660000000000005,-0.1041793401220613
-0.19760000000000005,-0.1040661632180721
-0.19860000000000005,-0.10396713342708154
-0.19960000000000006,-0.10388225074908965
-0.20060000000000006,-0.10376907384510045
-0.20160000000000006,-0.10361345560211528
-0.20260000000000006,-0.10351442581112473
-0.20360000000000006,-0.10338710179413689
-0.20460000000000006,-0.10328807200314633
-0.20560000000000006,-0.10316074798615847
-0.20660000000000006,-0.10300512974317333
-0.20760000000000006,-0.10289195283918412
-0.20860000000000006,-0.10276462882219627
-0.20960000000000006,-0.10265145191820706
-0.21060000000000006,-0.10250998078822056
-0.21160000000000007,-0.10236850965823405
-0.21260000000000007,-0.10222703852824755
-0.21360000000000007,-0.10208556739826105
-0.21460000000000007,-0.10195824338127318
-0.21560000000000007,-0.10180262513828804
-0.21660000000000007,-0.10166115400830154
-0.21760000000000007,-0.10153382999131368
-0.21860000000000007,-0.10136406463532988
-0.21960000000000007,-0.10123674061834202
-0.22060000000000007,-0.10106697526235821
-0.22160000000000007,-0.10091135701937308
-0.22260000000000008,-0.10075573877638791
-0.22360000000000008,-0.10060012053340277
-0.22460000000000008,-0.1004727965164149
-0.22560000000000008,-0.10028888404743246
-0.22660000000000008,-0.10014741291744596
-0.22760000000000008,-0.09997764756146214
-0.22860000000000008,-0.09979373509247969
-0.22960000000000008,-0.09968055818849049
-0.23060000000000008,-0.09949664571950805
-0.23160000000000008,-0.09935517458952153
-0.23260000000000008,-0.09918540923353773
-0.23360000000000009,-0.09902979099055256
-0.2346000000000001,-0.09888831986056607
-0.2356000000000001,-0.09871855450458226
-0.2366000000000001,-0.09856293626159711
-0.2376000000000001,-0.09840731801861195
-0.2386000000000001,-0.09823755266262815
-0.2396000000000001,-0.09809608153264164
-0.2406000000000001,-0.09794046328965648
-0.2416000000000001,-0.09775655082067403
-0.2426000000000001,-0.09761507969068753
-0.2436000000000001,-0.09745946144770237
-0.2446000000000001,-0.09730384320471722
-0.2456000000000001,-0.09716237207473072
-0.2466000000000001,-0.09699260671874692
-0.2476000000000001,-0.09682284136276312
-0.2486000000000001,-0.0966813702327766
-0.2496000000000001,-0.09653989910279011
-0.2506000000000001,-0.09637013374680631
-0.2516000000000001,-0.0962003683908225
-0.2526000000000001,-0.09604475014783734
-0.2536000000000001,-0.09588913190485218
-0.2546000000000001,-0.09574766077486568
-0.2556000000000001,-0.09557789541888188
-0.2566000000000001,-0.09543642428889539
-0.2576000000000001,-0.09528080604591022
-0.2586000000000001,-0.0951110406899264
-0.2596000000000001,-0.0949978637859372
-0.2606000000000001,-0.0948280984299534
-0.2616000000000001,-0.09467248018696825
-0.2626000000000001,-0.09453100905698175
-0.2636000000000001,-0.0943753908139966
-0.2646000000000001,-0.09424806679700874
-0.2656000000000001,-0.09409244855402359
-0.2666000000000001,-0.09393683031103843
-0.2676000000000001,-0.09378121206805329
-0.2686000000000001,-0.09363974093806678
-0.2696000000000001,-0.09352656403407757
-0.2706000000000001,-0.09335679867809377
-0.2716000000000001,-0.09320118043510862
-0.2726000000000001,-0.09305970930512211
-0.2736000000000001,-0.09293238528813427
-0.2746000000000001,-0.0928050612711464
-0.2756000000000001,-0.09264944302816126
-0.2766000000000001,-0.0924938247851761
-0.2776000000000001,-0.0923523536551896
-0.2786000000000001,-0.09222502963820174
-0.2796000000000001,-0.09209770562121389
-0.2806000000000001,-0.09195623449122738
-0.28160000000000013,-0.09182891047423952
-0.28260000000000013,-0.09168743934425302
-0.28360000000000013,-0.09156011532726518
-0.2846,-0.09144693842327598
-0.2856,-0.09130546729328948
-0.2866,-0.09117814327630162
-0.2876,-0.09105081925931376
-0.2886,-0.0909234952423259
-0.2896,-0.09079617122533806
-0.2906,-0.09068299432134884
-0.2916,-0.090555670304361
-0.2926,-0.09040005206137584
-0.2936,-0.09031516938338394
-0.29460000000000003,-0.09020199247939473
-0.29560000000000003,-0.09007466846240689
-0.29660000000000003,-0.08996149155841768
-0.29760000000000003,-0.08982002042843118
-0.29860000000000003,-0.08972099063744063
-0.29960000000000003,-0.08960781373345142
-0.30060000000000003,-0.08946634260346491
-0.30160000000000003,-0.08935316569947571
-0.30260000000000004,-0.08922584168248787
-0.30360000000000004,-0.0891268118914973
-0.30460000000000004,-0.08902778210050676
-0.30560000000000004,-0.0889004580835189
-0.30660000000000004,-0.08878728117952969
-0.30760000000000004,-0.08868825138853914
-0.30860000000000004,-0.08857507448454995
-0.30960000000000004,-0.08849019180655805
-0.31060000000000004,-0.08836286778957018
-0.31160000000000004,-0.08824969088558099
-0.31260000000000004,-0.08815066109459044
-0.31360000000000005,-0.08806577841659853
-0.31460000000000005,-0.08798089573860662
-0.31560000000000005,-0.08786771883461743
-0.31660000000000005,-0.08776868904362688
-0.31760000000000005,-0.08766965925263633
-0.31860000000000005,-0.08758477657464442
-0.31960000000000005,-0.08752818812264983
-0.32060000000000005,-0.0874150112186606
-0.32160000000000005,-0.08733012854066871
-0.32260000000000005,-0.08723109874967816
-0.32360000000000005,-0.08714621607168627
-0.32460000000000006,-0.08706133339369435
-0.32560000000000006,-0.08696230360270381
-0.32660000000000006,-0.08686327381171326
-0.32760000000000006,-0.0867642440207227
-0.32860000000000006,-0.08669350845572944
-0.32960000000000006,-0.08660862577773754
-0.33060000000000006,-0.08649544887374834
-0.33160000000000006,-0.08642471330875509
-0.33260000000000006,-0.08632568351776454
-0.33360000000000006,-0.08625494795277128
-0.33460000000000006,-0.08618421238777803
-0.33560000000000006,-0.08608518259678749
-0.33660000000000007,-0.08598615280579694
-0.33760000000000007,-0.08588712301480637
-0.33860000000000007,-0.08583053456281178
-0.33960000000000007,-0.08574565188481988
-0.34060000000000007,-0.08564662209382931
-0.34160000000000007,-0.08556173941583743
-0.34260000000000007,-0.08549100385084417
-0.34360000000000007,-0.0854202682858509
-0.3446000000000001,-0.08534953272085766
-0.3456000000000001,-0.08526465004286575
-0.3466000000000001,-0.0851939144778725
-0.34759999999999996,-0.08510903179988061
-0.3486000000000001,-0.08502414912188871
-0.34959999999999997,-0.0849675606698941
-0.3506000000000001,-0.0848826779919022
-0.35159999999999997,-0.0847977953139103
-0.3526000000000001,-0.08472705974891705
-0.35359999999999997,-0.0846846184099211
-0.3546000000000001,-0.08459973573192921
-0.35559999999999997,-0.08452900016693596
-0.3566000000000001,-0.08444411748894404
-0.3576,-0.08438752903694943
-0.3586000000000001,-0.08433094058495484
-0.3596,-0.08426020501996159
-0.3606000000000001,-0.08418946945496834
-0.3616,-0.08413288100297373
-0.3626000000000001,-0.08406214543798048
-0.3636,-0.08401970409898453
-0.3646000000000001,-0.08394896853399128
-0.3656,-0.08387823296899803
-0.3666000000000001,-0.08382164451700343
-0.3676,-0.08375090895201018
-0.3686000000000001,-0.08370846761301422
-0.3696,-0.08366602627401826
-0.3706000000000001,-0.08360943782202368
-0.3716,-0.08355284937002906
-0.3726000000000001,-0.08348211380503581
-0.3736,-0.08345381957903851
-0.3746000000000001,-0.0833972311270439
-0.3756,-0.08331234844905201
-0.3766000000000001,-0.0832840542230547
-0.3776,-0.08321331865806145
-0.3786000000000001,-0.0831708773190655
-0.3796,-0.0831425830930682
-0.3806000000000001,-0.08307184752807495
-0.3816,-0.08301525907608036
-0.3826000000000001,-0.08295867062408575
-0.3836,-0.08291622928508981
-0.3846000000000001,-0.0828879350590925
-0.3856,-0.08281719949409926
-0.3866000000000001,-0.08277475815510331
-0.3876,-0.08271816970310869
-0.3886000000000001,-0.0826615812511141
-0.3896,-0.08263328702511678
-0.3906000000000001,-0.08257669857312219
-0.3916,-0.08252011012112759
-0.3926000000000001,-0.08247766878213163
-0.3936,-0.0824352274431357
-0.3946000000000001,-0.08239278610413973
-0.3956,-0.08233619765214513
-0.3966000000000001,-0.08230790342614784
-0.3976,-0.08225131497415322
-0.3986000000000001,-0.08220887363515728
-0.3996,-0.08218057940915997
-0.4006000000000001,-0.08212399095716538
-0.4016,-0.08208154961816942
-0.4026000000000001,-0.08203910827917348
-0.4036,-0.08199666694017753
-0.4046000000000001,-0.08195422560118158
-0.4056,-0.08189763714918698
-0.40660000000000013,-0.08186934292318966
-0.4076,-0.08181275447119508
-0.40860000000000013,-0.08178446024519778
-0.4096,-0.08175616601920047
-0.41060000000000013,-0.08169957756720586
-0.4116,-0.08165713622820991
-0.41260000000000013,-0.08162884200221261
-0.4136,-0.08160054777621531
-0.41460000000000014,-0.08157225355021802
-0.4156,-0.08151566509822342
-0.41660000000000014,-0.08150151798522477
-0.4176,-0.08144492953323015
-0.41860000000000014,-0.08143078242023151
-0.41960000000000003,-0.08140248819423422
-0.42060000000000014,-0.0813458997422396
-0.42160000000000003,-0.0813458997422396
-0.42260000000000014,-0.08130345840324366
-0.42360000000000003,-0.08126101706424771
-0.42460000000000014,-0.08124686995124906
-0.42560000000000003,-0.08119028149925445
-0.42660000000000015,-0.08117613438625582
-0.42760000000000004,-0.08113369304725986
-0.42860000000000015,-0.0811195459342612
-0.42960000000000004,-0.08109125170826391
-0.43060000000000015,-0.08104881036926795
-0.43160000000000004,-0.08102051614327066
-0.43260000000000015,-0.08099222191727334
-0.43360000000000004,-0.0809780748042747
-0.43460000000000015,-0.08094978057827738
-0.43560000000000004,-0.0809214863522801
