Aug. 22, 2024   21:15:30
Cyclic Voltammetry
File: c:/users/guazh/data/20240813_batch_94_500/2024-08-15-exp163\exp163-2024-08-22t20_55_05-h2koh\exp163_cv_sr_700mvs_efin_-1700mv.bin
Data Source:  Experiment
Instrument Model:  CHI760E
Header: CV ran at 700 mVs
Note: 

Init E (V) = -1
High E (V) = -1
Low E (V) = -1.7
Final E (V) = -1
Init P/N = N
Scan Rate (V/s) = 0.7
Segment = 3
Sample Interval (V) = 0.001
Quiet Time (sec) = 2
Sensitivity (A/V) = 0.01
Comp R (ohm) = 1.9

Results:

Channel 1:
Segment 1:

Segment 2:

Segment 3:

Potential/V, Current/A

-1.000, 1.249e-5
-1.001, 2.174e-5
-1.002, 3.099e-5
-1.003, 3.715e-5
-1.004, 4.332e-5
-1.005, 4.640e-5
-1.006, 4.949e-5
-1.007, 5.257e-5
-1.008, 5.565e-5
-1.009, 5.873e-5
-1.010, 6.182e-5
-1.011, 6.490e-5
-1.012, 6.490e-5
-1.013, 6.798e-5
-1.014, 6.798e-5
-1.015, 7.107e-5
-1.016, 7.107e-5
-1.017, 7.415e-5
-1.018, 7.415e-5
-1.019, 7.723e-5
-1.020, 7.723e-5
-1.021, 7.723e-5
-1.022, 7.723e-5
-1.023, 8.032e-5
-1.024, 8.032e-5
-1.025, 8.032e-5
-1.026, 8.340e-5
-1.027, 8.340e-5
-1.028, 8.340e-5
-1.029, 8.340e-5
-1.030, 8.648e-5
-1.031, 8.648e-5
-1.032, 8.648e-5
-1.033, 8.648e-5
-1.034, 8.957e-5
-1.035, 8.957e-5
-1.036, 8.957e-5
-1.037, 8.957e-5
-1.038, 8.957e-5
-1.039, 8.957e-5
-1.040, 8.957e-5
-1.041, 9.265e-5
-1.042, 9.265e-5
-1.043, 9.265e-5
-1.044, 9.265e-5
-1.045, 9.573e-5
-1.046, 9.265e-5
-1.047, 9.265e-5
-1.048, 9.573e-5
-1.049, 9.573e-5
-1.050, 9.573e-5
-1.051, 9.573e-5
-1.052, 9.573e-5
-1.053, 9.573e-5
-1.054, 9.882e-5
-1.055, 9.882e-5
-1.056, 9.882e-5
-1.057, 9.882e-5
-1.058, 9.882e-5
-1.059, 9.882e-5
-1.060, 9.882e-5
-1.061, 9.882e-5
-1.062, 1.019e-4
-1.063, 9.882e-5
-1.064, 1.019e-4
-1.065, 9.882e-5
-1.066, 9.882e-5
-1.067, 1.019e-4
-1.068, 1.019e-4
-1.069, 1.019e-4
-1.070, 1.019e-4
-1.071, 1.019e-4
-1.072, 1.019e-4
-1.073, 1.019e-4
-1.074, 1.019e-4
-1.075, 1.019e-4
-1.076, 1.019e-4
-1.077, 1.019e-4
-1.078, 1.019e-4
-1.079, 1.019e-4
-1.080, 1.050e-4
-1.081, 1.019e-4
-1.082, 1.050e-4
-1.083, 1.019e-4
-1.084, 1.019e-4
-1.085, 1.019e-4
-1.086, 1.050e-4
-1.087, 1.050e-4
-1.088, 1.050e-4
-1.089, 1.050e-4
-1.090, 1.050e-4
-1.091, 1.050e-4
-1.092, 1.050e-4
-1.093, 1.050e-4
-1.094, 1.081e-4
-1.095, 1.050e-4
-1.096, 1.050e-4
-1.097, 1.050e-4
-1.098, 1.050e-4
-1.099, 1.050e-4
-1.100, 1.050e-4
-1.101, 1.050e-4
-1.102, 1.050e-4
-1.103, 1.050e-4
-1.104, 1.081e-4
-1.105, 1.050e-4
-1.106, 1.081e-4
-1.107, 1.050e-4
-1.108, 1.050e-4
-1.109, 1.050e-4
-1.110, 1.050e-4
-1.111, 1.081e-4
-1.112, 1.050e-4
-1.113, 1.081e-4
-1.114, 1.050e-4
-1.115, 1.050e-4
-1.116, 1.050e-4
-1.117, 1.081e-4
-1.118, 1.081e-4
-1.119, 1.081e-4
-1.120, 1.050e-4
-1.121, 1.050e-4
-1.122, 1.081e-4
-1.123, 1.081e-4
-1.124, 1.081e-4
-1.125, 1.081e-4
-1.126, 1.081e-4
-1.127, 1.081e-4
-1.128, 1.081e-4
-1.129, 1.081e-4
-1.130, 1.081e-4
-1.131, 1.081e-4
-1.132, 1.081e-4
-1.133, 1.081e-4
-1.134, 1.081e-4
-1.135, 1.081e-4
-1.136, 1.081e-4
-1.137, 1.081e-4
-1.138, 1.081e-4
-1.139, 1.081e-4
-1.140, 1.111e-4
-1.141, 1.081e-4
-1.142, 1.081e-4
-1.143, 1.111e-4
-1.144, 1.081e-4
-1.145, 1.111e-4
-1.146, 1.081e-4
-1.147, 1.081e-4
-1.148, 1.081e-4
-1.149, 1.111e-4
-1.150, 1.111e-4
-1.151, 1.111e-4
-1.152, 1.111e-4
-1.153, 1.111e-4
-1.154, 1.111e-4
-1.155, 1.111e-4
-1.156, 1.111e-4
-1.157, 1.111e-4
-1.158, 1.111e-4
-1.159, 1.111e-4
-1.160, 1.081e-4
-1.161, 1.111e-4
-1.162, 1.111e-4
-1.163, 1.111e-4
-1.164, 1.111e-4
-1.165, 1.111e-4
-1.166, 1.111e-4
-1.167, 1.111e-4
-1.168, 1.111e-4
-1.169, 1.142e-4
-1.170, 1.111e-4
-1.171, 1.111e-4
-1.172, 1.111e-4
-1.173, 1.111e-4
-1.174, 1.142e-4
-1.175, 1.142e-4
-1.176, 1.142e-4
-1.177, 1.111e-4
-1.178, 1.111e-4
-1.179, 1.142e-4
-1.180, 1.142e-4
-1.181, 1.142e-4
-1.182, 1.142e-4
-1.183, 1.142e-4
-1.184, 1.111e-4
-1.185, 1.142e-4
-1.186, 1.142e-4
-1.187, 1.142e-4
-1.188, 1.173e-4
-1.189, 1.142e-4
-1.190, 1.142e-4
-1.191, 1.142e-4
-1.192, 1.142e-4
-1.193, 1.142e-4
-1.194, 1.173e-4
-1.195, 1.142e-4
-1.196, 1.142e-4
-1.197, 1.173e-4
-1.198, 1.173e-4
-1.199, 1.173e-4
-1.200, 1.173e-4
-1.201, 1.173e-4
-1.202, 1.173e-4
-1.203, 1.173e-4
-1.204, 1.173e-4
-1.205, 1.173e-4
-1.206, 1.173e-4
-1.207, 1.204e-4
-1.208, 1.204e-4
-1.209, 1.173e-4
-1.210, 1.173e-4
-1.211, 1.173e-4
-1.212, 1.204e-4
-1.213, 1.204e-4
-1.214, 1.204e-4
-1.215, 1.204e-4
-1.216, 1.204e-4
-1.217, 1.204e-4
-1.218, 1.204e-4
-1.219, 1.204e-4
-1.220, 1.204e-4
-1.221, 1.204e-4
-1.222, 1.235e-4
-1.223, 1.204e-4
-1.224, 1.204e-4
-1.225, 1.235e-4
-1.226, 1.235e-4
-1.227, 1.235e-4
-1.228, 1.235e-4
-1.229, 1.235e-4
-1.230, 1.235e-4
-1.231, 1.235e-4
-1.232, 1.235e-4
-1.233, 1.266e-4
-1.234, 1.266e-4
-1.235, 1.235e-4
-1.236, 1.235e-4
-1.237, 1.266e-4
-1.238, 1.266e-4
-1.239, 1.266e-4
-1.240, 1.266e-4
-1.241, 1.266e-4
-1.242, 1.266e-4
-1.243, 1.266e-4
-1.244, 1.296e-4
-1.245, 1.296e-4
-1.246, 1.296e-4
-1.247, 1.296e-4
-1.248, 1.296e-4
-1.249, 1.296e-4
-1.250, 1.296e-4
-1.251, 1.296e-4
-1.252, 1.296e-4
-1.253, 1.296e-4
-1.254, 1.296e-4
-1.255, 1.327e-4
-1.256, 1.327e-4
-1.257, 1.327e-4
-1.258, 1.327e-4
-1.259, 1.327e-4
-1.260, 1.327e-4
-1.261, 1.327e-4
-1.262, 1.327e-4
-1.263, 1.327e-4
-1.264, 1.358e-4
-1.265, 1.358e-4
-1.266, 1.327e-4
-1.267, 1.358e-4
-1.268, 1.358e-4
-1.269, 1.358e-4
-1.270, 1.358e-4
-1.271, 1.358e-4
-1.272, 1.358e-4
-1.273, 1.358e-4
-1.274, 1.389e-4
-1.275, 1.358e-4
-1.276, 1.389e-4
-1.277, 1.389e-4
-1.278, 1.389e-4
-1.279, 1.389e-4
-1.280, 1.420e-4
-1.281, 1.420e-4
-1.282, 1.420e-4
-1.283, 1.420e-4
-1.284, 1.420e-4
-1.285, 1.420e-4
-1.286, 1.420e-4
-1.287, 1.420e-4
-1.288, 1.420e-4
-1.289, 1.451e-4
-1.290, 1.451e-4
-1.291, 1.451e-4
-1.292, 1.451e-4
-1.293, 1.451e-4
-1.294, 1.451e-4
-1.295, 1.481e-4
-1.296, 1.481e-4
-1.297, 1.481e-4
-1.298, 1.481e-4
-1.299, 1.481e-4
-1.300, 1.481e-4
-1.301, 1.512e-4
-1.302, 1.481e-4
-1.303, 1.512e-4
-1.304, 1.512e-4
-1.305, 1.512e-4
-1.306, 1.512e-4
-1.307, 1.512e-4
-1.308, 1.543e-4
-1.309, 1.543e-4
-1.310, 1.543e-4
-1.311, 1.543e-4
-1.312, 1.543e-4
-1.313, 1.543e-4
-1.314, 1.574e-4
-1.315, 1.574e-4
-1.316, 1.574e-4
-1.317, 1.574e-4
-1.318, 1.574e-4
-1.319, 1.605e-4
-1.320, 1.605e-4
-1.321, 1.605e-4
-1.322, 1.605e-4
-1.323, 1.605e-4
-1.324, 1.605e-4
-1.325, 1.636e-4
-1.326, 1.636e-4
-1.327, 1.636e-4
-1.328, 1.636e-4
-1.329, 1.636e-4
-1.330, 1.666e-4
-1.331, 1.636e-4
-1.332, 1.666e-4
-1.333, 1.697e-4
-1.334, 1.697e-4
-1.335, 1.697e-4
-1.336, 1.666e-4
-1.337, 1.697e-4
-1.338, 1.697e-4
-1.339, 1.728e-4
-1.340, 1.728e-4
-1.341, 1.728e-4
-1.342, 1.728e-4
-1.343, 1.728e-4
-1.344, 1.728e-4
-1.345, 1.728e-4
-1.346, 1.759e-4
-1.347, 1.759e-4
-1.348, 1.759e-4
-1.349, 1.759e-4
-1.350, 1.790e-4
-1.351, 1.790e-4
-1.352, 1.790e-4
-1.353, 1.821e-4
-1.354, 1.821e-4
-1.355, 1.821e-4
-1.356, 1.821e-4
-1.357, 1.821e-4
-1.358, 1.851e-4
-1.359, 1.851e-4
-1.360, 1.851e-4
-1.361, 1.851e-4
-1.362, 1.882e-4
-1.363, 1.882e-4
-1.364, 1.913e-4
-1.365, 1.913e-4
-1.366, 1.913e-4
-1.367, 1.913e-4
-1.368, 1.913e-4
-1.369, 1.913e-4
-1.370, 1.944e-4
-1.371, 1.944e-4
-1.372, 1.944e-4
-1.373, 1.975e-4
-1.374, 1.975e-4
-1.375, 1.975e-4
-1.376, 2.006e-4
-1.377, 2.006e-4
-1.378, 2.006e-4
-1.379, 2.036e-4
-1.380, 2.036e-4
-1.381, 2.036e-4
-1.382, 2.036e-4
-1.383, 2.067e-4
-1.384, 2.067e-4
-1.385, 2.098e-4
-1.386, 2.098e-4
-1.387, 2.098e-4
-1.388, 2.098e-4
-1.389, 2.129e-4
-1.390, 2.129e-4
-1.391, 2.129e-4
-1.392, 2.160e-4
-1.393, 2.160e-4
-1.394, 2.160e-4
-1.395, 2.191e-4
-1.396, 2.191e-4
-1.397, 2.221e-4
-1.398, 2.221e-4
-1.399, 2.221e-4
-1.400, 2.221e-4
-1.401, 2.221e-4
-1.402, 2.252e-4
-1.403, 2.283e-4
-1.404, 2.283e-4
-1.405, 2.283e-4
-1.406, 2.283e-4
-1.407, 2.314e-4
-1.408, 2.314e-4
-1.409, 2.345e-4
-1.410, 2.345e-4
-1.411, 2.345e-4
-1.412, 2.376e-4
-1.413, 2.376e-4
-1.414, 2.376e-4
-1.415, 2.406e-4
-1.416, 2.406e-4
-1.417, 2.406e-4
-1.418, 2.437e-4
-1.419, 2.437e-4
-1.420, 2.468e-4
-1.421, 2.499e-4
-1.422, 2.499e-4
-1.423, 2.499e-4
-1.424, 2.499e-4
-1.425, 2.499e-4
-1.426, 2.530e-4
-1.427, 2.530e-4
-1.428, 2.561e-4
-1.429, 2.591e-4
-1.430, 2.591e-4
-1.431, 2.591e-4
-1.432, 2.622e-4
-1.433, 2.622e-4
-1.434, 2.653e-4
-1.435, 2.653e-4
-1.436, 2.653e-4
-1.437, 2.684e-4
-1.438, 2.684e-4
-1.439, 2.715e-4
-1.440, 2.715e-4
-1.441, 2.746e-4
-1.442, 2.746e-4
-1.443, 2.776e-4
-1.444, 2.776e-4
-1.445, 2.776e-4
-1.446, 2.807e-4
-1.447, 2.838e-4
-1.448, 2.838e-4
-1.449, 2.838e-4
-1.450, 2.869e-4
-1.451, 2.869e-4
-1.452, 2.900e-4
-1.453, 2.931e-4
-1.454, 2.931e-4
-1.455, 2.931e-4
-1.456, 2.961e-4
-1.457, 2.961e-4
-1.458, 2.992e-4
-1.459, 3.023e-4
-1.460, 3.023e-4
-1.461, 3.054e-4
-1.462, 3.054e-4
-1.463, 3.085e-4
-1.464, 3.085e-4
-1.465, 3.115e-4
-1.466, 3.146e-4
-1.467, 3.146e-4
-1.468, 3.177e-4
-1.469, 3.177e-4
-1.470, 3.208e-4
-1.471, 3.239e-4
-1.472, 3.239e-4
-1.473, 3.270e-4
-1.474, 3.300e-4
-1.475, 3.300e-4
-1.476, 3.331e-4
-1.477, 3.362e-4
-1.478, 3.362e-4
-1.479, 3.393e-4
-1.480, 3.393e-4
-1.481, 3.424e-4
-1.482, 3.455e-4
-1.483, 3.455e-4
-1.484, 3.485e-4
-1.485, 3.516e-4
-1.486, 3.516e-4
-1.487, 3.547e-4
-1.488, 3.578e-4
-1.489, 3.609e-4
-1.490, 3.609e-4
-1.491, 3.640e-4
-1.492, 3.670e-4
-1.493, 3.670e-4
-1.494, 3.701e-4
-1.495, 3.732e-4
-1.496, 3.763e-4
-1.497, 3.763e-4
-1.498, 3.794e-4
-1.499, 3.825e-4
-1.500, 3.825e-4
-1.501, 3.855e-4
-1.502, 3.886e-4
-1.503, 3.917e-4
-1.504, 3.948e-4
-1.505, 3.948e-4
-1.506, 3.979e-4
-1.507, 4.010e-4
-1.508, 4.040e-4
-1.509, 4.071e-4
-1.510, 4.102e-4
-1.511, 4.133e-4
-1.512, 4.133e-4
-1.513, 4.164e-4
-1.514, 4.195e-4
-1.515, 4.225e-4
-1.516, 4.256e-4
-1.517, 4.287e-4
-1.518, 4.318e-4
-1.519, 4.349e-4
-1.520, 4.349e-4
-1.521, 4.380e-4
-1.522, 4.441e-4
-1.523, 4.472e-4
-1.524, 4.503e-4
-1.525, 4.534e-4
-1.526, 4.534e-4
-1.527, 4.595e-4
-1.528, 4.595e-4
-1.529, 4.657e-4
-1.530, 4.657e-4
-1.531, 4.688e-4
-1.532, 4.750e-4
-1.533, 4.780e-4
-1.534, 4.811e-4
-1.535, 4.842e-4
-1.536, 4.904e-4
-1.537, 4.935e-4
-1.538, 4.935e-4
-1.539, 4.996e-4
-1.540, 5.027e-4
-1.541, 5.058e-4
-1.542, 5.120e-4
-1.543, 5.150e-4
-1.544, 5.181e-4
-1.545, 5.212e-4
-1.546, 5.274e-4
-1.547, 5.305e-4
-1.548, 5.335e-4
-1.549, 5.397e-4
-1.550, 5.428e-4
-1.551, 5.459e-4
-1.552, 5.520e-4
-1.553, 5.551e-4
-1.554, 5.613e-4
-1.555, 5.644e-4
-1.556, 5.674e-4
-1.557, 5.736e-4
-1.558, 5.767e-4
-1.559, 5.829e-4
-1.560, 5.890e-4
-1.561, 5.921e-4
-1.562, 5.983e-4
-1.563, 6.014e-4
-1.564, 6.075e-4
-1.565, 6.106e-4
-1.566, 6.168e-4
-1.567, 6.229e-4
-1.568, 6.291e-4
-1.569, 6.322e-4
-1.570, 6.384e-4
-1.571, 6.414e-4
-1.572, 6.507e-4
-1.573, 6.538e-4
-1.574, 6.599e-4
-1.575, 6.661e-4
-1.576, 6.723e-4
-1.577, 6.754e-4
-1.578, 6.815e-4
-1.579, 6.908e-4
-1.580, 6.939e-4
-1.581, 7.031e-4
-1.582, 7.062e-4
-1.583, 7.154e-4
-1.584, 7.216e-4
-1.585, 7.278e-4
-1.586, 7.339e-4
-1.587, 7.401e-4
-1.588, 7.494e-4
-1.589, 7.555e-4
-1.590, 7.617e-4
-1.591, 7.679e-4
-1.592, 7.771e-4
-1.593, 7.833e-4
-1.594, 7.894e-4
-1.595, 7.987e-4
-1.596, 8.079e-4
-1.597, 8.172e-4
-1.598, 8.233e-4
-1.599, 8.326e-4
-1.600, 8.388e-4
-1.601, 8.480e-4
-1.602, 8.573e-4
-1.603, 8.634e-4
-1.604, 8.758e-4
-1.605, 8.819e-4
-1.606, 8.912e-4
-1.607, 9.004e-4
-1.608, 9.097e-4
-1.609, 9.189e-4
-1.610, 9.282e-4
-1.611, 9.405e-4
-1.612, 9.467e-4
-1.613, 9.590e-4
-1.614, 9.683e-4
-1.615, 9.775e-4
-1.616, 9.868e-4
-1.617, 9.991e-4
-1.618, 1.008e-3
-1.619, 1.018e-3
-1.620, 1.030e-3
-1.621, 1.039e-3
-1.622, 1.051e-3
-1.623, 1.061e-3
-1.624, 1.073e-3
-1.625, 1.082e-3
-1.626, 1.095e-3
-1.627, 1.107e-3
-1.628, 1.119e-3
-1.629, 1.129e-3
-1.630, 1.144e-3
-1.631, 1.156e-3
-1.632, 1.166e-3
-1.633, 1.178e-3
-1.634, 1.190e-3
-1.635, 1.203e-3
-1.636, 1.215e-3
-1.637, 1.230e-3
-1.638, 1.243e-3
-1.639, 1.255e-3
-1.640, 1.267e-3
-1.641, 1.283e-3
-1.642, 1.298e-3
-1.643, 1.310e-3
-1.644, 1.326e-3
-1.645, 1.338e-3
-1.646, 1.354e-3
-1.647, 1.369e-3
-1.648, 1.381e-3
-1.649, 1.400e-3
-1.650, 1.412e-3
-1.651, 1.431e-3
-1.652, 1.446e-3
-1.653, 1.462e-3
-1.654, 1.480e-3
-1.655, 1.499e-3
-1.656, 1.517e-3
-1.657, 1.536e-3
-1.658, 1.554e-3
-1.659, 1.569e-3
-1.660, 1.591e-3
-1.661, 1.610e-3
-1.662, 1.625e-3
-1.663, 1.647e-3
-1.664, 1.662e-3
-1.665, 1.684e-3
-1.666, 1.702e-3
-1.667, 1.724e-3
-1.668, 1.742e-3
-1.669, 1.761e-3
-1.670, 1.779e-3
-1.671, 1.798e-3
-1.672, 1.819e-3
-1.673, 1.841e-3
-1.674, 1.862e-3
-1.675, 1.884e-3
-1.676, 1.906e-3
-1.677, 1.927e-3
-1.678, 1.949e-3
-1.679, 1.970e-3
-1.680, 1.995e-3
-1.681, 2.017e-3
-1.682, 2.038e-3
-1.683, 2.060e-3
-1.684, 2.084e-3
-1.685, 2.109e-3
-1.686, 2.134e-3
-1.687, 2.158e-3
-1.688, 2.183e-3
-1.689, 2.208e-3
-1.690, 2.232e-3
-1.691, 2.257e-3
-1.692, 2.285e-3
-1.693, 2.309e-3
-1.694, 2.334e-3
-1.695, 2.362e-3
-1.696, 2.386e-3
-1.697, 2.414e-3
-1.698, 2.442e-3
-1.699, 2.470e-3
-1.700, 2.476e-3
-1.699, 2.454e-3
-1.698, 2.433e-3
-1.697, 2.414e-3
-1.696, 2.396e-3
-1.695, 2.377e-3
-1.694, 2.359e-3
-1.693, 2.340e-3
-1.692, 2.322e-3
-1.691, 2.303e-3
-1.690, 2.285e-3
-1.689, 2.269e-3
-1.688, 2.251e-3
-1.687, 2.232e-3
-1.686, 2.211e-3
-1.685, 2.192e-3
-1.684, 2.177e-3
-1.683, 2.158e-3
-1.682, 2.140e-3
-1.681, 2.121e-3
-1.680, 2.100e-3
-1.679, 2.081e-3
-1.678, 2.063e-3
-1.677, 2.044e-3
-1.676, 2.029e-3
-1.675, 2.007e-3
-1.674, 1.989e-3
-1.673, 1.970e-3
-1.672, 1.952e-3
-1.671, 1.933e-3
-1.670, 1.918e-3
-1.669, 1.899e-3
-1.668, 1.881e-3
-1.667, 1.862e-3
-1.666, 1.841e-3
-1.665, 1.825e-3
-1.664, 1.807e-3
-1.663, 1.788e-3
-1.662, 1.773e-3
-1.661, 1.754e-3
-1.660, 1.736e-3
-1.659, 1.717e-3
-1.658, 1.702e-3
-1.657, 1.684e-3
-1.656, 1.668e-3
-1.655, 1.650e-3
-1.654, 1.634e-3
-1.653, 1.616e-3
-1.652, 1.600e-3
-1.651, 1.582e-3
-1.650, 1.566e-3
-1.649, 1.548e-3
-1.648, 1.532e-3
-1.647, 1.517e-3
-1.646, 1.502e-3
-1.645, 1.483e-3
-1.644, 1.471e-3
-1.643, 1.455e-3
-1.642, 1.440e-3
-1.641, 1.421e-3
-1.640, 1.406e-3
-1.639, 1.394e-3
-1.638, 1.378e-3
-1.637, 1.363e-3
-1.636, 1.347e-3
-1.635, 1.332e-3
-1.634, 1.317e-3
-1.633, 1.304e-3
-1.632, 1.289e-3
-1.631, 1.277e-3
-1.630, 1.261e-3
-1.629, 1.249e-3
-1.628, 1.233e-3
-1.627, 1.221e-3
-1.626, 1.212e-3
-1.625, 1.196e-3
-1.624, 1.184e-3
-1.623, 1.172e-3
-1.622, 1.159e-3
-1.621, 1.144e-3
-1.620, 1.132e-3
-1.619, 1.119e-3
-1.618, 1.110e-3
-1.617, 1.098e-3
-1.616, 1.082e-3
-1.615, 1.070e-3
-1.614, 1.058e-3
-1.613, 1.048e-3
-1.612, 1.036e-3
-1.611, 1.024e-3
-1.610, 1.011e-3
-1.609, 9.991e-4
-1.608, 9.898e-4
-1.607, 9.806e-4
-1.606, 9.683e-4
-1.605, 9.559e-4
-1.604, 9.436e-4
-1.603, 9.343e-4
-1.602, 9.220e-4
-1.601, 9.128e-4
-1.600, 9.004e-4
-1.599, 8.912e-4
-1.598, 8.788e-4
-1.597, 8.665e-4
-1.596, 8.573e-4
-1.595, 8.480e-4
-1.594, 8.388e-4
-1.593, 8.264e-4
-1.592, 8.172e-4
-1.591, 8.048e-4
-1.590, 7.956e-4
-1.589, 7.863e-4
-1.588, 7.771e-4
-1.587, 7.648e-4
-1.586, 7.555e-4
-1.585, 7.463e-4
-1.584, 7.370e-4
-1.583, 7.278e-4
-1.582, 7.185e-4
-1.581, 7.093e-4
-1.580, 7.000e-4
-1.579, 6.908e-4
-1.578, 6.815e-4
-1.577, 6.723e-4
-1.576, 6.661e-4
-1.575, 6.569e-4
-1.574, 6.476e-4
-1.573, 6.384e-4
-1.572, 6.322e-4
-1.571, 6.229e-4
-1.570, 6.168e-4
-1.569, 6.075e-4
-1.568, 5.983e-4
-1.567, 5.921e-4
-1.566, 5.829e-4
-1.565, 5.736e-4
-1.564, 5.674e-4
-1.563, 5.613e-4
-1.562, 5.520e-4
-1.561, 5.459e-4
-1.560, 5.397e-4
-1.559, 5.305e-4
-1.558, 5.243e-4
-1.557, 5.181e-4
-1.556, 5.120e-4
-1.555, 5.027e-4
-1.554, 4.965e-4
-1.553, 4.904e-4
-1.552, 4.811e-4
-1.551, 4.750e-4
-1.550, 4.688e-4
-1.549, 4.626e-4
-1.548, 4.565e-4
-1.547, 4.503e-4
-1.546, 4.441e-4
-1.545, 4.380e-4
-1.544, 4.318e-4
-1.543, 4.256e-4
-1.542, 4.195e-4
-1.541, 4.133e-4
-1.540, 4.071e-4
-1.539, 4.010e-4
-1.538, 3.948e-4
-1.537, 3.886e-4
-1.536, 3.855e-4
-1.535, 3.794e-4
-1.534, 3.732e-4
-1.533, 3.670e-4
-1.532, 3.609e-4
-1.531, 3.578e-4
-1.530, 3.516e-4
-1.529, 3.455e-4
-1.528, 3.393e-4
-1.527, 3.362e-4
-1.526, 3.300e-4
-1.525, 3.239e-4
-1.524, 3.208e-4
-1.523, 3.146e-4
-1.522, 3.085e-4
-1.521, 3.023e-4
-1.520, 2.992e-4
-1.519, 2.961e-4
-1.518, 2.900e-4
-1.517, 2.869e-4
-1.516, 2.807e-4
-1.515, 2.776e-4
-1.514, 2.715e-4
-1.513, 2.684e-4
-1.512, 2.622e-4
-1.511, 2.591e-4
-1.510, 2.530e-4
-1.509, 2.499e-4
-1.508, 2.468e-4
-1.507, 2.406e-4
-1.506, 2.376e-4
-1.505, 2.345e-4
-1.504, 2.314e-4
-1.503, 2.252e-4
-1.502, 2.221e-4
-1.501, 2.191e-4
-1.500, 2.129e-4
-1.499, 2.129e-4
-1.498, 2.067e-4
-1.497, 2.036e-4
-1.496, 2.006e-4
-1.495, 1.975e-4
-1.494, 1.913e-4
-1.493, 1.882e-4
-1.492, 1.851e-4
-1.491, 1.821e-4
-1.490, 1.790e-4
-1.489, 1.759e-4
-1.488, 1.728e-4
-1.487, 1.697e-4
-1.486, 1.666e-4
-1.485, 1.605e-4
-1.484, 1.605e-4
-1.483, 1.543e-4
-1.482, 1.512e-4
-1.481, 1.512e-4
-1.480, 1.451e-4
-1.479, 1.451e-4
-1.478, 1.420e-4
-1.477, 1.389e-4
-1.476, 1.327e-4
-1.475, 1.327e-4
-1.474, 1.296e-4
-1.473, 1.266e-4
-1.472, 1.235e-4
-1.471, 1.204e-4
-1.470, 1.173e-4
-1.469, 1.142e-4
-1.468, 1.142e-4
-1.467, 1.111e-4
-1.466, 1.081e-4
-1.465, 1.050e-4
-1.464, 1.019e-4
-1.463, 9.882e-5
-1.462, 9.882e-5
-1.461, 9.573e-5
-1.460, 9.265e-5
-1.459, 8.957e-5
-1.458, 8.648e-5
-1.457, 8.648e-5
-1.456, 8.340e-5
-1.455, 8.032e-5
-1.454, 8.032e-5
-1.453, 7.723e-5
-1.452, 7.415e-5
-1.451, 7.107e-5
-1.450, 7.107e-5
-1.449, 6.798e-5
-1.448, 6.798e-5
-1.447, 6.490e-5
-1.446, 6.182e-5
-1.445, 5.873e-5
-1.444, 5.873e-5
-1.443, 5.565e-5
-1.442, 5.565e-5
-1.441, 5.257e-5
-1.440, 4.949e-5
-1.439, 4.640e-5
-1.438, 4.640e-5
-1.437, 4.332e-5
-1.436, 4.332e-5
-1.435, 4.024e-5
-1.434, 4.024e-5
-1.433, 3.715e-5
-1.432, 3.407e-5
-1.431, 3.407e-5
-1.430, 3.099e-5
-1.429, 3.099e-5
-1.428, 2.790e-5
-1.427, 2.790e-5
-1.426, 2.482e-5
-1.425, 2.482e-5
-1.424, 2.174e-5
-1.423, 2.174e-5
-1.422, 1.865e-5
-1.421, 1.865e-5
-1.420, 1.557e-5
-1.419, 1.557e-5
-1.418, 1.249e-5
-1.417, 1.249e-5
-1.416, 9.405e-6
-1.415, 9.405e-6
-1.414, 6.322e-6
-1.413, 6.322e-6
-1.412, 3.239e-6
-1.411, 3.239e-6
-1.410, 3.239e-6
-1.409, 1.559e-7
-1.408, 1.559e-7
-1.407, -2.927e-6
-1.406, -2.927e-6
-1.405, -2.927e-6
-1.404, -6.010e-6
-1.403, -6.010e-6
-1.402, -9.093e-6
-1.401, -9.093e-6
-1.400, -1.218e-5
-1.399, -1.218e-5
-1.398, -1.218e-5
-1.397, -1.218e-5
-1.396, -1.526e-5
-1.395, -1.834e-5
-1.394, -1.834e-5
-1.393, -1.834e-5
-1.392, -2.143e-5
-1.391, -2.143e-5
-1.390, -2.143e-5
-1.389, -2.451e-5
-1.388, -2.451e-5
-1.387, -2.759e-5
-1.386, -2.451e-5
-1.385, -2.759e-5
-1.384, -2.759e-5
-1.383, -3.068e-5
-1.382, -3.068e-5
-1.381, -3.376e-5
-1.380, -3.376e-5
-1.379, -3.376e-5
-1.378, -3.376e-5
-1.377, -3.684e-5
-1.376, -3.684e-5
-1.375, -3.992e-5
-1.374, -3.992e-5
-1.373, -3.992e-5
-1.372, -3.992e-5
-1.371, -4.301e-5
-1.370, -4.301e-5
-1.369, -4.609e-5
-1.368, -4.609e-5
-1.367, -4.609e-5
-1.366, -4.609e-5
-1.365, -4.609e-5
-1.364, -4.917e-5
-1.363, -4.917e-5
-1.362, -5.226e-5
-1.361, -5.226e-5
-1.360, -5.534e-5
-1.359, -5.226e-5
-1.358, -5.534e-5
-1.357, -5.534e-5
-1.356, -5.842e-5
-1.355, -5.842e-5
-1.354, -5.842e-5
-1.353, -5.842e-5
-1.352, -5.842e-5
-1.351, -6.151e-5
-1.350, -6.151e-5
-1.349, -6.459e-5
-1.348, -6.459e-5
-1.347, -6.459e-5
-1.346, -6.459e-5
-1.345, -6.767e-5
-1.344, -6.767e-5
-1.343, -6.767e-5
-1.342, -6.767e-5
-1.341, -6.767e-5
-1.340, -7.076e-5
-1.339, -7.076e-5
-1.338, -7.384e-5
-1.337, -7.384e-5
-1.336, -7.384e-5
-1.335, -7.384e-5
-1.334, -7.384e-5
-1.333, -7.692e-5
-1.332, -7.692e-5
-1.331, -7.692e-5
-1.330, -8.000e-5
-1.329, -8.000e-5
-1.328, -8.000e-5
-1.327, -8.000e-5
-1.326, -8.000e-5
-1.325, -8.309e-5
-1.324, -8.309e-5
-1.323, -8.309e-5
-1.322, -8.309e-5
-1.321, -8.617e-5
-1.320, -8.617e-5
-1.319, -8.617e-5
-1.318, -8.925e-5
-1.317, -8.925e-5
-1.316, -8.925e-5
-1.315, -8.925e-5
-1.314, -8.925e-5
-1.313, -9.234e-5
-1.312, -9.234e-5
-1.311, -9.542e-5
-1.310, -9.234e-5
-1.309, -9.234e-5
-1.308, -9.542e-5
-1.307, -9.542e-5
-1.306, -9.850e-5
-1.305, -9.850e-5
-1.304, -9.850e-5
-1.303, -9.850e-5
-1.302, -9.850e-5
-1.301, -9.850e-5
-1.300, -1.016e-4
-1.299, -1.016e-4
-1.298, -1.016e-4
-1.297, -1.016e-4
-1.296, -1.016e-4
-1.295, -1.047e-4
-1.294, -1.047e-4
-1.293, -1.047e-4
-1.292, -1.047e-4
-1.291, -1.047e-4
-1.290, -1.078e-4
-1.289, -1.078e-4
-1.288, -1.078e-4
-1.287, -1.108e-4
-1.286, -1.108e-4
-1.285, -1.108e-4
-1.284, -1.108e-4
-1.283, -1.108e-4
-1.282, -1.139e-4
-1.281, -1.139e-4
-1.280, -1.139e-4
-1.279, -1.139e-4
-1.278, -1.139e-4
-1.277, -1.139e-4
-1.276, -1.170e-4
-1.275, -1.170e-4
-1.274, -1.170e-4
-1.273, -1.201e-4
-1.272, -1.170e-4
-1.271, -1.201e-4
-1.270, -1.201e-4
-1.269, -1.201e-4
-1.268, -1.232e-4
-1.267, -1.232e-4
-1.266, -1.232e-4
-1.265, -1.232e-4
-1.264, -1.232e-4
-1.263, -1.263e-4
-1.262, -1.263e-4
-1.261, -1.263e-4
-1.260, -1.263e-4
-1.259, -1.263e-4
-1.258, -1.263e-4
-1.257, -1.263e-4
-1.256, -1.263e-4
-1.255, -1.293e-4
-1.254, -1.293e-4
-1.253, -1.293e-4
-1.252, -1.324e-4
-1.251, -1.293e-4
-1.250, -1.324e-4
-1.249, -1.324e-4
-1.248, -1.324e-4
-1.247, -1.324e-4
-1.246, -1.355e-4
-1.245, -1.355e-4
-1.244, -1.355e-4
-1.243, -1.386e-4
-1.242, -1.386e-4
-1.241, -1.386e-4
-1.240, -1.386e-4
-1.239, -1.386e-4
-1.238, -1.386e-4
-1.237, -1.417e-4
-1.236, -1.417e-4
-1.235, -1.417e-4
-1.234, -1.417e-4
-1.233, -1.417e-4
-1.232, -1.417e-4
-1.231, -1.448e-4
-1.230, -1.448e-4
-1.229, -1.448e-4
-1.228, -1.448e-4
-1.227, -1.448e-4
-1.226, -1.448e-4
-1.225, -1.478e-4
-1.224, -1.478e-4
-1.223, -1.478e-4
-1.222, -1.478e-4
-1.221, -1.478e-4
-1.220, -1.509e-4
-1.219, -1.509e-4
-1.218, -1.509e-4
-1.217, -1.509e-4
-1.216, -1.540e-4
-1.215, -1.540e-4
-1.214, -1.509e-4
-1.213, -1.540e-4
-1.212, -1.540e-4
-1.211, -1.540e-4
-1.210, -1.540e-4
-1.209, -1.571e-4
-1.208, -1.571e-4
-1.207, -1.571e-4
-1.206, -1.571e-4
-1.205, -1.602e-4
-1.204, -1.602e-4
-1.203, -1.602e-4
-1.202, -1.602e-4
-1.201, -1.602e-4
-1.200, -1.602e-4
-1.199, -1.632e-4
-1.198, -1.632e-4
-1.197, -1.632e-4
-1.196, -1.632e-4
-1.195, -1.632e-4
-1.194, -1.663e-4
-1.193, -1.663e-4
-1.192, -1.663e-4
-1.191, -1.663e-4
-1.190, -1.663e-4
-1.189, -1.663e-4
-1.188, -1.694e-4
-1.187, -1.694e-4
-1.186, -1.694e-4
-1.185, -1.725e-4
-1.184, -1.725e-4
-1.183, -1.694e-4
-1.182, -1.725e-4
-1.181, -1.725e-4
-1.180, -1.725e-4
-1.179, -1.756e-4
-1.178, -1.756e-4
-1.177, -1.756e-4
-1.176, -1.756e-4
-1.175, -1.756e-4
-1.174, -1.756e-4
-1.173, -1.787e-4
-1.172, -1.787e-4
-1.171, -1.787e-4
-1.170, -1.787e-4
-1.169, -1.787e-4
-1.168, -1.817e-4
-1.167, -1.817e-4
-1.166, -1.817e-4
-1.165, -1.817e-4
-1.164, -1.817e-4
-1.163, -1.817e-4
-1.162, -1.817e-4
-1.161, -1.848e-4
-1.160, -1.848e-4
-1.159, -1.848e-4
-1.158, -1.848e-4
-1.157, -1.848e-4
-1.156, -1.848e-4
-1.155, -1.879e-4
-1.154, -1.879e-4
-1.153, -1.879e-4
-1.152, -1.879e-4
-1.151, -1.848e-4
-1.150, -1.879e-4
-1.149, -1.879e-4
-1.148, -1.879e-4
-1.147, -1.879e-4
-1.146, -1.910e-4
-1.145, -1.910e-4
-1.144, -1.910e-4
-1.143, -1.910e-4
-1.142, -1.910e-4
-1.141, -1.910e-4
-1.140, -1.910e-4
-1.139, -1.910e-4
-1.138, -1.910e-4
-1.137, -1.910e-4
-1.136, -1.941e-4
-1.135, -1.941e-4
-1.134, -1.941e-4
-1.133, -1.941e-4
-1.132, -1.941e-4
-1.131, -1.941e-4
-1.130, -1.941e-4
-1.129, -1.941e-4
-1.128, -1.941e-4
-1.127, -1.941e-4
-1.126, -1.941e-4
-1.125, -1.941e-4
-1.124, -1.972e-4
-1.123, -1.972e-4
-1.122, -1.941e-4
-1.121, -1.941e-4
-1.120, -1.972e-4
-1.119, -1.941e-4
-1.118, -1.972e-4
-1.117, -1.972e-4
-1.116, -1.972e-4
-1.115, -1.972e-4
-1.114, -1.972e-4
-1.113, -1.972e-4
-1.112, -1.972e-4
-1.111, -1.972e-4
-1.110, -1.972e-4
-1.109, -1.972e-4
-1.108, -1.972e-4
-1.107, -1.972e-4
-1.106, -1.972e-4
-1.105, -1.972e-4
-1.104, -1.972e-4
-1.103, -1.972e-4
-1.102, -1.972e-4
-1.101, -1.972e-4
-1.100, -1.972e-4
-1.099, -1.972e-4
-1.098, -1.972e-4
-1.097, -1.972e-4
-1.096, -1.972e-4
-1.095, -1.972e-4
-1.094, -1.972e-4
-1.093, -1.972e-4
-1.092, -1.972e-4
-1.091, -1.972e-4
-1.090, -1.972e-4
-1.089, -1.972e-4
-1.088, -1.972e-4
-1.087, -1.972e-4
-1.086, -1.972e-4
-1.085, -1.972e-4
-1.084, -1.972e-4
-1.083, -1.972e-4
-1.082, -1.941e-4
-1.081, -1.972e-4
-1.080, -1.972e-4
-1.079, -1.972e-4
-1.078, -1.972e-4
-1.077, -1.972e-4
-1.076, -1.972e-4
-1.075, -1.972e-4
-1.074, -1.972e-4
-1.073, -1.972e-4
-1.072, -1.972e-4
-1.071, -1.972e-4
-1.070, -1.941e-4
-1.069, -1.941e-4
-1.068, -1.972e-4
-1.067, -1.972e-4
-1.066, -1.972e-4
-1.065, -1.972e-4
-1.064, -1.972e-4
-1.063, -1.941e-4
-1.062, -1.941e-4
-1.061, -1.972e-4
-1.060, -1.972e-4
-1.059, -1.972e-4
-1.058, -1.941e-4
-1.057, -1.941e-4
-1.056, -1.941e-4
-1.055, -1.972e-4
-1.054, -1.941e-4
-1.053, -1.972e-4
-1.052, -1.941e-4
-1.051, -1.941e-4
-1.050, -1.941e-4
-1.049, -1.941e-4
-1.048, -1.941e-4
-1.047, -1.941e-4
-1.046, -1.941e-4
-1.045, -1.941e-4
-1.044, -1.941e-4
-1.043, -1.941e-4
-1.042, -1.941e-4
-1.041, -1.941e-4
-1.040, -1.941e-4
-1.039, -1.941e-4
-1.038, -1.941e-4
-1.037, -1.941e-4
-1.036, -1.941e-4
-1.035, -1.941e-4
-1.034, -1.941e-4
-1.033, -1.941e-4
-1.032, -1.941e-4
-1.031, -1.910e-4
-1.030, -1.941e-4
-1.029, -1.941e-4
-1.028, -1.941e-4
-1.027, -1.941e-4
-1.026, -1.941e-4
-1.025, -1.910e-4
-1.024, -1.941e-4
-1.023, -1.941e-4
-1.022, -1.941e-4
-1.021, -1.941e-4
-1.020, -1.941e-4
-1.019, -1.941e-4
-1.018, -1.910e-4
-1.017, -1.941e-4
-1.016, -1.941e-4
-1.015, -1.941e-4
-1.014, -1.941e-4
-1.013, -1.910e-4
-1.012, -1.941e-4
-1.011, -1.910e-4
-1.010, -1.941e-4
-1.009, -1.941e-4
-1.008, -1.941e-4
-1.007, -1.941e-4
-1.006, -1.910e-4
-1.005, -1.910e-4
-1.004, -1.941e-4
-1.003, -1.941e-4
-1.002, -1.910e-4
-1.001, -1.941e-4
