Potential V vs RHE, Current mA cm-2
0.05339999999999995,3.1845151359961976
0.05239999999999995,3.07841178850632
0.051399999999999946,2.949673060218602
0.050399999999999945,2.8350814449295334
0.049399999999999944,2.7289780974396556
0.04839999999999994,2.6327777290488332
0.04739999999999994,2.542236205857471
0.04639999999999994,2.4587682391654337
0.04539999999999994,2.3781296950731265
0.04439999999999994,2.3003205735805494
0.04339999999999994,2.225340874687703
0.04239999999999994,2.1531905983945863
0.04139999999999994,2.085284456001064
0.040399999999999936,2.020207736207272
0.039399999999999935,1.9537163051136157
0.038399999999999934,1.8886395853198237
0.03739999999999993,1.8263922881257622
0.03639999999999993,1.768389124831296
0.03539999999999993,1.7103859615368293
0.03439999999999993,1.6523827982423631
0.03339999999999993,1.5957943462477613
0.03239999999999993,1.540620605553025
0.03139999999999993,1.4882762874580184
0.030399999999999927,1.4359319693630124
0.029399999999999926,1.383587651268006
0.028399999999999925,1.332233631082905
0.027399999999999924,1.2825772644576423
0.026399999999999924,1.234477080262231
0.025399999999999923,1.1875086651067117
0.024399999999999922,1.1405402499511925
0.02339999999999992,1.0932888925357005
0.02239999999999992,1.0478766598100326
0.02139999999999992,1.0041620806442029
0.020399999999999918,0.961437799388279
0.019399999999999917,0.9185720470023684
0.018399999999999916,0.8752818812264982
0.017399999999999916,0.8335478978804797
0.016399999999999915,0.793511568094299
0.015399999999999914,0.7537581805680915
0.014399999999999913,0.714004793041884
0.013399999999999912,0.6738269921257171
0.012399999999999911,0.6352053736394014
0.01139999999999991,0.598281408712924
0.01039999999999991,0.5619233283063926
0.009399999999999908,0.5249993633799152
0.008399999999999908,0.48807539845343767
0.007399999999999907,0.4522832025668522
0.006399999999999906,0.4186130736300644
0.005399999999999905,0.38466000243330345
0.004399999999999904,0.35042398897656957
0.003399999999999903,0.3159050332598627
0.002399999999999902,0.28251784658304785
0.0013999999999999013,0.251111255726044
0.00039999999999990044,0.21970466486904017
-0.0006000000000001005,0.18773218949209036
-0.0016000000000001013,0.15561824298515403
-0.0026000000000001022,0.12443800593612864
-0.003600000000000103,0.09479980420395612
-0.004600000000000104,0.0655577216357458
-0.005600000000000105,0.03569316609559487
-0.006600000000000106,0.0055654742536690545
-0.007600000000000107,-0.023512501803756906
-0.008600000000000108,-0.05100034236013457
-0.009600000000000108,-0.07817694643054193
-0.01060000000000011,-0.10685314447880623
-0.01160000000000011,-0.13537372428408537
-0.012600000000000111,-0.16354062626439822
-0.013600000000000112,-0.18971278531190142
-0.014600000000000113,-0.21489464644949907
-0.015600000000000114,-0.24149121888696176
-0.016600000000000115,-0.26808779132442445
-0.017600000000000116,-0.2932696524620221
-0.018600000000000116,-0.3177441579496872
-0.019600000000000117,-0.3420771923073659
-0.020600000000000118,-0.36711758231497704
-0.02160000000000012,-0.39229944345257467
-0.02260000000000012,-0.4162080644202938
-0.02360000000000012,-0.4391263874781074
-0.024600000000000122,-0.4621861816659074
-0.025600000000000123,-0.48567038924366707
-0.026600000000000124,-0.5100034236013458
-0.027600000000000124,-0.5329217466591593
-0.028600000000000125,-0.5544253584171079
-0.029600000000000126,-0.5762119124350294
-0.030600000000000127,-0.5985643509728971
-0.03160000000000013,-0.6216241451606972
-0.03260000000000013,-0.6434106991786186
-0.03360000000000013,-0.6637825418966752
-0.03460000000000002,-0.6842958557447183
-0.03560000000000002,-0.7055165252426938
-0.03660000000000002,-0.7277274926505749
-0.03760000000000002,-0.748806691018564
-0.03860000000000002,-0.7681882358267149
-0.039600000000000024,-0.7879941940248254
-0.040600000000000025,-0.8086489790028549
-0.041600000000000026,-0.8293037639808845
-0.04260000000000003,-0.849109722178995
-0.04360000000000003,-0.8677839113372136
-0.04460000000000003,-0.886741042755405
-0.04560000000000003,-0.9065470009535155
-0.04660000000000003,-0.9264944302816125
-0.04760000000000003,-0.9455930328297906
-0.04860000000000003,-0.9635598663380764
-0.04960000000000003,-0.9815266998463624
-0.050600000000000034,-1.000766773524527
-0.051600000000000035,-1.0200068472026915
-0.052600000000000036,-1.038398094100937
-0.053600000000000037,-1.0559405142192635
-0.05460000000000004,-1.072492636427684
-0.05560000000000004,-1.0908838833259298
-0.05660000000000004,-1.1098410147441211
-0.05760000000000004,-1.1276663771224207
-0.05860000000000004,-1.1445014415908148
-0.05960000000000004,-1.1607706215392626
-0.06060000000000004,-1.178313041657589
-0.061600000000000044,-1.1969872308158076
-0.06260000000000004,-1.2141052375441745
-0.06360000000000005,-1.2303744174926226
-0.06460000000000005,-1.2467850685710569
-0.06560000000000005,-1.2636201330394508
-0.06660000000000005,-1.28144549541775
-0.06760000000000005,-1.2978561464961846
-0.06860000000000005,-1.3129935574047407
-0.06960000000000005,-1.329121266223202
-0.07060000000000005,-1.3458148595616095
-0.07160000000000005,-1.3630743374199628
-0.07260000000000005,-1.3796264596283838
-0.07360000000000005,-1.394622399406953
-0.07460000000000006,-1.410325694835455
-0.07560000000000006,-1.426028990263957
-0.07660000000000006,-1.4430055258623373
-0.07760000000000006,-1.4585673501608527
-0.07860000000000006,-1.4741291744593683
-0.07960000000000006,-1.4882762874580184
-0.08060000000000006,-1.505252823056399
-0.08160000000000006,-1.5208146473549145
-0.08260000000000006,-1.5363764716534298
-0.08360000000000006,-1.55052358465208
-0.08460000000000006,-1.5646706976507305
-0.08560000000000006,-1.5816472332491107
-0.08660000000000007,-1.5972090575476263
-0.08760000000000007,-1.612770881846142
-0.08860000000000007,-1.626917994844792
-0.08960000000000007,-1.6410651078434426
-0.09060000000000007,-1.656626932141958
-0.09160000000000007,-1.6721887564404734
-0.09260000000000007,-1.6877505807389888
-0.09360000000000007,-1.701897693737639
-0.09460000000000007,-1.7160448067362895
-0.09560000000000007,-1.7316066310348048
-0.09660000000000007,-1.7471684553333202
-0.09760000000000008,-1.7613155683319706
-0.09860000000000008,-1.775462681330621
-0.09960000000000008,-1.7881950830294064
-0.10060000000000008,-1.8037569073279218
-0.10160000000000008,-1.8193187316264372
-0.10260000000000008,-1.8334658446250875
-0.10360000000000008,-1.847612957623738
-0.10460000000000008,-1.8617600706223882
-0.10560000000000008,-1.8759071836210386
-0.10660000000000008,-1.891469007919554
-0.10760000000000008,-1.9056161209182045
-0.10860000000000009,-1.9197632339168547
-0.10960000000000009,-1.9324956356156402
-0.11060000000000009,-1.9480574599141556
-0.11160000000000009,-1.963619284212671
-0.11260000000000009,-1.9777663972113213
-0.11360000000000009,-1.9904987989101068
-0.11460000000000009,-2.004645911908757
-0.11560000000000009,-2.0216224475071374
-0.11660000000000009,-2.0357695605057877
-0.1176000000000001,-2.049916673504438
-0.1186000000000001,-2.0626490752032236
-0.1196000000000001,-2.076796188201874
-0.1206000000000001,-2.0909433012005243
-0.1216000000000001,-2.1065051254990395
-0.1226000000000001,-2.1206522384976902
-0.1236000000000001,-2.133384640196476
-0.1246000000000001,-2.1461170418952604
-0.1256000000000001,-2.161678866193776
-0.1266000000000001,-2.1758259791924264
-0.1276000000000001,-2.1899730921910767
-0.1286000000000001,-2.204120205189727
-0.1296000000000001,-2.216852606888512
-0.1306000000000001,-2.2324144311870278
-0.1316000000000001,-2.2465615441856785
-0.1326000000000001,-2.260708657184329
-0.1336000000000001,-2.273441058883114
-0.1346000000000001,-2.2875881718817643
-0.1356000000000001,-2.3017352848804147
-0.1366000000000001,-2.3172971091789303
-0.1376000000000001,-2.33144422217758
-0.1386000000000001,-2.3441766238763657
-0.1396000000000001,-2.358323736875016
-0.1406000000000001,-2.3724708498736664
-0.14160000000000011,-2.388032674172182
-0.14260000000000012,-2.4021797871708324
-0.14360000000000012,-2.414912188869618
-0.14460000000000012,-2.4290593018682682
-0.14560000000000012,-2.4432064148669186
-0.14660000000000012,-2.4587682391654337
-0.14760000000000012,-2.472915352164084
-0.14860000000000012,-2.485647753862869
-0.14960000000000012,-2.49979486686152
-0.15060000000000012,-2.515356691160035
-0.15160000000000012,-2.5309185154585507
-0.15260000000000012,-2.545065628457201
-0.15360000000000013,-2.557798030155986
-0.15460000000000013,-2.5719451431546365
-0.15560000000000013,-2.587506967453152
-0.15660000000000013,-2.6016540804518025
-0.15760000000000013,-2.6172159047503176
-0.15860000000000013,-2.629948306449103
-0.15960000000000002,-2.6440954194477535
-0.16060000000000002,-2.659657243746269
-0.16160000000000002,-2.6752190680447843
-0.16260000000000002,-2.689366181043435
-0.16360000000000002,-2.7035132940420854
-0.16460000000000002,-2.7176604070407357
-0.16560000000000002,-2.7332222313392514
-0.16660000000000003,-2.7516134782374966
-0.16760000000000003,-2.765760591236147
-0.16860000000000003,-2.778492992934932
-0.16960000000000003,-2.7926401059335824
-0.17060000000000003,-2.8082019302320975
-0.17160000000000003,-2.823763754530613
-0.17260000000000003,-2.8379108675292635
-0.17360000000000003,-2.852057980527914
-0.17460000000000003,-2.866205093526564
-0.17560000000000003,-2.8817669178250793
-0.17660000000000003,-2.897328742123595
-0.17760000000000004,-2.91289056642211
-0.17860000000000004,-2.927037679420761
-0.17960000000000004,-2.941184792419411
-0.18060000000000004,-2.956746616717927
-0.18160000000000004,-2.972308441016442
-0.18260000000000004,-2.9878702653149576
-0.18360000000000004,-3.002017378313608
-0.18460000000000004,-3.0161644913122583
-0.18560000000000004,-3.031726315610774
-0.18660000000000004,-3.0487028512091543
-0.18760000000000004,-3.0642646755076695
-0.18860000000000005,-3.07841178850632
-0.18960000000000005,-3.09255890150497
-0.19060000000000005,-3.1081207258034858
-0.19160000000000005,-3.125097261401866
-0.19260000000000005,-3.1406590857003813
-0.19360000000000005,-3.1548061986990317
-0.19460000000000005,-3.1703680229975473
-0.19560000000000005,-3.1859298472960624
-0.19660000000000005,-3.202906382894443
-0.19760000000000005,-3.2184682071929585
-0.19860000000000005,-3.232615320191609
-0.19960000000000006,-3.2481771444901244
-0.20060000000000006,-3.265153680088505
-0.20160000000000006,-3.28071550438702
-0.20260000000000006,-3.2976920399854004
-0.20360000000000006,-3.3118391529840507
-0.20460000000000006,-3.325986265982701
-0.20560000000000006,-3.3443775128809468
-0.20660000000000006,-3.359939337179462
-0.20760000000000006,-3.3755011614779775
-0.20860000000000006,-3.3910629857764927
-0.20960000000000006,-3.4066248100750083
-0.21060000000000006,-3.4236013456733887
-0.21160000000000007,-3.440577881271769
-0.21260000000000007,-3.4561397055702843
-0.21360000000000007,-3.4717015298688
-0.21460000000000007,-3.4872633541673155
-0.21560000000000007,-3.504239889765696
-0.21660000000000007,-3.522631136663941
-0.21760000000000007,-3.5381929609624567
-0.21860000000000007,-3.555169496560837
-0.21960000000000007,-3.5707313208593527
-0.22060000000000007,-3.586293145157868
-0.22160000000000007,-3.6046843920561136
-0.22260000000000008,-3.6202462163546287
-0.22360000000000008,-3.6358080406531443
-0.22460000000000008,-3.6527845762515243
-0.22560000000000008,-3.669761111849905
-0.22660000000000008,-3.686737647448285
-0.22760000000000008,-3.7037141830466664
-0.22860000000000008,-3.7192760073451816
-0.22960000000000008,-3.7362525429435625
-0.23060000000000008,-3.7532290785419424
-0.23160000000000008,-3.7716203254401877
-0.23260000000000008,-3.7871821497387033
-0.23360000000000009,-3.8027439740372184
-0.2346000000000001,-3.819720509635599
-0.2356000000000001,-3.8366970452339793
-0.2366000000000001,-3.855088292132225
-0.2376000000000001,-3.8720648277306053
-0.2386000000000001,-3.887626652029121
-0.2396000000000001,-3.903188476327636
-0.2406000000000001,-3.9215797232258818
-0.2416000000000001,-3.9385562588242617
-0.2426000000000001,-3.956947505722508
-0.2436000000000001,-3.9725093300210226
-0.2446000000000001,-3.988071154319539
-0.2456000000000001,-4.006462401217783
-0.2466000000000001,-4.024853648116029
-0.2476000000000001,-4.04183018371441
-0.2486000000000001,-4.057392008012925
-0.2496000000000001,-4.074368543611305
-0.2506000000000001,-4.09275979050955
-0.2516000000000001,-4.109736326107932
-0.2526000000000001,-4.126712861706312
-0.2536000000000001,-4.143689397304692
-0.2546000000000001,-4.159251221603208
-0.2556000000000001,-4.177642468501453
-0.2566000000000001,-4.1960337153996985
-0.2576000000000001,-4.213010250998079
-0.2586000000000001,-4.2285720752965945
-0.2596000000000001,-4.245548610894974
-0.2606000000000001,-4.26393985779322
-0.2616000000000001,-4.282331104691466
-0.2626000000000001,-4.299307640289847
-0.2636000000000001,-4.316284175888227
-0.2646000000000001,-4.3332607114866075
-0.2656000000000001,-4.351651958384853
-0.2666000000000001,-4.370043205283098
-0.2676000000000001,-4.388434452181344
-0.2686000000000001,-4.40399627647986
-0.2696000000000001,-4.420972812078239
-0.2706000000000001,-4.4393640589764845
-0.2716000000000001,-4.457755305874731
-0.2726000000000001,-4.476146552772976
-0.2736000000000001,-4.493123088371357
-0.2746000000000001,-4.510099623969737
-0.2756000000000001,-4.528490870867983
-0.2766000000000001,-4.546882117766228
-0.2776000000000001,-4.5638586533646075
-0.2786000000000001,-4.580835188962989
-0.2796000000000001,-4.597811724561368
-0.2806000000000001,-4.61761768275948
-0.28160000000000013,-4.636008929657725
-0.28260000000000013,-4.652985465256107
-0.28360000000000013,-4.669962000854486
-0.2846,-4.686938536452867
-0.2856,-4.705329783351112
-0.2866,-4.723721030249357
-0.2876,-4.7406975658477375
-0.2886,-4.757674101446118
-0.2896,-4.774650637044499
-0.2906,-4.794456595242609
-0.2916,-4.8128478421408545
-0.2926,-4.829824377739236
-0.2936,-4.846800913337615
-0.29460000000000003,-4.865192160235861
-0.29560000000000003,-4.883583407134107
-0.29660000000000003,-4.901974654032353
-0.29760000000000003,-4.920365900930598
-0.29860000000000003,-4.937342436528978
-0.29960000000000003,-4.954318972127359
-0.30060000000000003,-4.972710219025604
-0.30160000000000003,-4.991101465923849
-0.30260000000000004,-5.00807800152223
-0.30360000000000004,-5.02505453712061
-0.30460000000000004,-5.0420310727189905
-0.30560000000000004,-5.060422319617237
-0.30660000000000004,-5.078813566515482
-0.30760000000000004,-5.097204813413727
-0.30860000000000004,-5.112766637712243
-0.30960000000000004,-5.131157884610488
-0.31060000000000004,-5.149549131508733
-0.31160000000000004,-5.169355089706844
-0.31260000000000004,-5.1863316253052245
-0.31360000000000005,-5.203308160903605
-0.31460000000000005,-5.220284696501986
-0.31560000000000005,-5.240090654700095
-0.31660000000000005,-5.258481901598341
-0.31760000000000005,-5.275458437196722
-0.31860000000000005,-5.2924349727951014
-0.31960000000000005,-5.312240930993213
-0.32060000000000005,-5.332046889191323
-0.32160000000000005,-5.3504381360895685
-0.32260000000000005,-5.367414671687949
-0.32360000000000005,-5.384391207286329
-0.32460000000000006,-5.40136774288471
-0.32560000000000006,-5.419758989782956
-0.32660000000000006,-5.438150236681202
-0.32760000000000006,-5.456541483579446
-0.32860000000000006,-5.473518019177827
-0.32960000000000006,-5.490494554776207
-0.33060000000000006,-5.508885801674452
-0.33160000000000006,-5.528691759872564
-0.33260000000000006,-5.545668295470944
-0.33360000000000006,-5.562644831069325
-0.33460000000000006,-5.581036077967569
-0.33560000000000006,-5.5994273248658155
-0.33660000000000007,-5.6192332830639256
-0.33760000000000007,-5.637624529962172
-0.33860000000000007,-5.654601065560552
-0.33960000000000007,-5.6715776011589325
-0.34060000000000007,-5.6913835593570425
-0.34160000000000007,-5.709774806255288
-0.34260000000000007,-5.728166053153534
-0.34360000000000007,-5.745142588751914
-0.3446000000000001,-5.762119124350295
-0.3456000000000001,-5.781925082548405
-0.3466000000000001,-5.801731040746516
-0.34759999999999996,-5.820122287644761
-0.3486000000000001,-5.837098823243141
-0.34959999999999997,-5.855490070141387
-0.3506000000000001,-5.873881317039633
-0.35159999999999997,-5.893687275237743
-0.3526000000000001,-5.910663810836123
-0.35359999999999997,-5.927640346434504
-0.3546000000000001,-5.94603159333275
-0.35559999999999997,-5.964422840230995
-0.3566000000000001,-5.984228798429105
-0.3576,-6.00262004532735
-0.3586000000000001,-6.019596580925731
-0.3596,-6.037987827823977
-0.3606000000000001,-6.056379074722222
-0.3616,-6.076185032920332
-0.3626000000000001,-6.094576279818578
-0.3636,-6.111552815416958
-0.3646000000000001,-6.128529351015339
-0.3656,-6.14833530921345
-0.3666000000000001,-6.16814126741156
-0.3676,-6.186532514309805
-0.3686000000000001,-6.2035090499081855
-0.3696,-6.220485585506567
-0.3706000000000001,-6.241706255004542
-0.3716,-6.261512213202653
-0.3726000000000001,-6.278488748801033
-0.3736,-6.296879995699278
-0.3746000000000001,-6.3152712425975235
-0.3756,-6.335077200795634
-0.3766000000000001,-6.3534684476938805
-0.3776,-6.371859694592125
-0.3786000000000001,-6.39025094149037
-0.3796,-6.408642188388616
-0.3806000000000001,-6.427033435286861
-0.3816,-6.446839393484972
-0.3826000000000001,-6.465230640383218
-0.3836,-6.483621887281464
-0.3846000000000001,-6.502013134179709
-0.3856,-6.520404381077953
-0.3866000000000001,-6.540210339276065
-0.3876,-6.560016297474175
-0.3886000000000001,-6.5769928330725556
-0.3896,-6.5967987912706665
-0.3906000000000001,-6.616604749468776
-0.3916,-6.6364107076668875
-0.3926000000000001,-6.654801954565133
-0.3936,-6.671778490163514
-0.3946000000000001,-6.690169737061758
-0.3956,-6.711390406559734
-0.3966000000000001,-6.731196364757845
-0.3976,-6.74958761165609
-0.3986000000000001,-6.7679788585543355
-0.3996,-6.786370105452581
-0.4006000000000001,-6.806176063650692
-0.4016,-6.827396733148667
-0.4026000000000001,-6.845787980046913
-0.4036,-6.864179226945158
-0.4046000000000001,-6.882570473843404
-0.4056,-6.903791143341379
-0.40660000000000013,-6.923597101539489
-0.4076,-6.9434030597376
-0.40860000000000013,-6.961794306635846
-0.4096,-6.980185553534091
-0.41060000000000013,-7.001406223032068
-0.4116,-7.021212181230177
-0.41260000000000013,-7.041018139428288
-0.4136,-7.059409386326533
-0.41460000000000014,-7.079215344524644
-0.4156,-7.100436014022619
-0.41660000000000014,-7.120241972220731
-0.4176,-7.140047930418839
-0.41860000000000014,-7.159853888616951
-0.41960000000000003,-7.178245135515196
-0.42060000000000014,-7.199465805013171
-0.42160000000000003,-7.222101185811012
-0.42260000000000014,-7.241907144009123
-0.42360000000000003,-7.261713102207232
-0.42460000000000014,-7.28293377170521
-0.42560000000000003,-7.304154441203185
-0.42660000000000015,-7.32537511070116
-0.42760000000000004,-7.343766357599406
-0.42860000000000015,-7.363572315797517
-0.42960000000000004,-7.384792985295491
-0.43060000000000015,-7.406013654793467
-0.43160000000000004,-7.427234324291442
-0.43260000000000015,-7.447040282489553
-0.43360000000000004,-7.466846240687664
-0.43460000000000015,-7.48806691018564
-0.43560000000000004,-7.510702290983478
-0.43660000000000015,-7.53333767178132
-0.43760000000000004,-7.554558341279295
-0.43860000000000016,-7.5743642994774065
-0.43960000000000005,-7.595584968975381
-0.44060000000000016,-7.618220349773223
-0.44160000000000005,-7.639441019271198
-0.44260000000000016,-7.662076400069039
-0.44360000000000005,-7.681882358267148
-0.44460000000000016,-7.70451773906499
-0.44560000000000005,-7.727153119862831
-0.44660000000000016,-7.749788500660671
-0.44760000000000005,-7.772423881458511
-0.44860000000000017,-7.793644550956487
-0.44960000000000006,-7.816279931754329
-0.45060000000000017,-7.840330023852035
-0.45160000000000006,-7.864380115949738
-0.45260000000000017,-7.888430208047444
-0.45360000000000006,-7.909650877545419
-0.45460000000000017,-7.933700969643125
-0.45560000000000006,-7.95775106174083
