Dec. 16, 2024   21:11:34
Linear Sweep Voltammetry
File: c:/users/guazh/data/banditlqround7_x0exp667_r5/2024-12-16-exp674\pre-regen-2024-12-16t21_08_28-lsvinphos\pre-regen_lsv_50mvs_efin_-1900mv.bin
Data Source:  Experiment
Instrument Model:  CHI760E
Header: LSV ran at 50 mVs with Efin at -1900mV
Note: 

Init E (V) = -0.6
Final E (V) = -1.9
Scan Rate (V/s) = 0.05
Sample Interval (V) = 0.001
Quiet Time (sec) = 2
Sensitivity (A/V) = 1e-4
Comp R (ohm) = 7.8

Results:

Channel 1:
Ep = -1.253V
ip = 2.700e-4A
Ah = 2.840e-4C

Potential/V, Current/A

-0.600, -2.251e-4
-0.601, -2.176e-4
-0.602, -2.085e-4
-0.603, -2.004e-4
-0.604, -1.929e-4
-0.605, -1.861e-4
-0.606, -1.797e-4
-0.607, -1.738e-4
-0.608, -1.681e-4
-0.609, -1.626e-4
-0.610, -1.573e-4
-0.611, -1.522e-4
-0.612, -1.474e-4
-0.613, -1.428e-4
-0.614, -1.381e-4
-0.615, -1.335e-4
-0.616, -1.291e-4
-0.617, -1.250e-4
-0.618, -1.209e-4
-0.619, -1.168e-4
-0.620, -1.128e-4
-0.621, -1.089e-4
-0.622, -1.052e-4
-0.623, -1.015e-4
-0.624, -9.780e-5
-0.625, -9.417e-5
-0.626, -9.066e-5
-0.627, -8.726e-5
-0.628, -8.394e-5
-0.629, -8.062e-5
-0.630, -7.728e-5
-0.631, -7.407e-5
-0.632, -7.098e-5
-0.633, -6.796e-5
-0.634, -6.493e-5
-0.635, -6.187e-5
-0.636, -5.892e-5
-0.637, -5.609e-5
-0.638, -5.328e-5
-0.639, -5.047e-5
-0.640, -4.763e-5
-0.641, -4.490e-5
-0.642, -4.229e-5
-0.643, -3.972e-5
-0.644, -3.711e-5
-0.645, -3.450e-5
-0.646, -3.197e-5
-0.647, -2.959e-5
-0.648, -2.719e-5
-0.649, -2.477e-5
-0.650, -2.233e-5
-0.651, -1.997e-5
-0.652, -1.775e-5
-0.653, -1.553e-5
-0.654, -1.327e-5
-0.655, -1.100e-5
-0.656, -8.796e-6
-0.657, -6.701e-6
-0.658, -4.634e-6
-0.659, -2.523e-6
-0.660, -3.934e-7
-0.661, 1.662e-6
-0.662, 3.605e-6
-0.663, 5.526e-6
-0.664, 7.553e-6
-0.665, 9.569e-6
-0.666, 1.156e-5
-0.667, 1.341e-5
-0.668, 1.519e-5
-0.669, 1.707e-5
-0.670, 1.895e-5
-0.671, 2.073e-5
-0.672, 2.246e-5
-0.673, 2.418e-5
-0.674, 2.595e-5
-0.675, 2.773e-5
-0.676, 2.942e-5
-0.677, 3.104e-5
-0.678, 3.267e-5
-0.679, 3.433e-5
-0.680, 3.605e-5
-0.681, 3.767e-5
-0.682, 3.919e-5
-0.683, 4.073e-5
-0.684, 4.231e-5
-0.685, 4.394e-5
-0.686, 4.548e-5
-0.687, 4.692e-5
-0.688, 4.837e-5
-0.689, 4.987e-5
-0.690, 5.144e-5
-0.691, 5.293e-5
-0.692, 5.430e-5
-0.693, 5.570e-5
-0.694, 5.716e-5
-0.695, 5.862e-5
-0.696, 6.002e-5
-0.697, 6.134e-5
-0.698, 6.268e-5
-0.699, 6.408e-5
-0.700, 6.549e-5
-0.701, 6.684e-5
-0.702, 6.811e-5
-0.703, 6.938e-5
-0.704, 7.074e-5
-0.705, 7.210e-5
-0.706, 7.340e-5
-0.707, 7.464e-5
-0.708, 7.581e-5
-0.709, 7.711e-5
-0.710, 7.845e-5
-0.711, 7.971e-5
-0.712, 8.090e-5
-0.713, 8.205e-5
-0.714, 8.329e-5
-0.715, 8.461e-5
-0.716, 8.582e-5
-0.717, 8.697e-5
-0.718, 8.813e-5
-0.719, 8.932e-5
-0.720, 9.058e-5
-0.721, 9.174e-5
-0.722, 9.281e-5
-0.723, 9.395e-5
-0.724, 9.513e-5
-0.725, 9.635e-5
-0.726, 9.752e-5
-0.727, 9.858e-5
-0.728, 9.969e-5
-0.729, 1.008e-4
-0.730, 1.020e-4
-0.731, 1.031e-4
-0.732, 1.042e-4
-0.733, 1.052e-4
-0.734, 1.064e-4
-0.735, 1.075e-4
-0.736, 1.086e-4
-0.737, 1.096e-4
-0.738, 1.106e-4
-0.739, 1.118e-4
-0.740, 1.129e-4
-0.741, 1.140e-4
-0.742, 1.150e-4
-0.743, 1.160e-4
-0.744, 1.171e-4
-0.745, 1.182e-4
-0.746, 1.193e-4
-0.747, 1.203e-4
-0.748, 1.213e-4
-0.749, 1.224e-4
-0.750, 1.235e-4
-0.751, 1.245e-4
-0.752, 1.255e-4
-0.753, 1.264e-4
-0.754, 1.275e-4
-0.755, 1.286e-4
-0.756, 1.296e-4
-0.757, 1.306e-4
-0.758, 1.316e-4
-0.759, 1.326e-4
-0.760, 1.337e-4
-0.761, 1.347e-4
-0.762, 1.357e-4
-0.763, 1.366e-4
-0.764, 1.377e-4
-0.765, 1.388e-4
-0.766, 1.398e-4
-0.767, 1.407e-4
-0.768, 1.417e-4
-0.769, 1.429e-4
-0.770, 1.439e-4
-0.771, 1.449e-4
-0.772, 1.458e-4
-0.773, 1.468e-4
-0.774, 1.478e-4
-0.775, 1.489e-4
-0.776, 1.499e-4
-0.777, 1.508e-4
-0.778, 1.517e-4
-0.779, 1.528e-4
-0.780, 1.538e-4
-0.781, 1.548e-4
-0.782, 1.558e-4
-0.783, 1.567e-4
-0.784, 1.578e-4
-0.785, 1.588e-4
-0.786, 1.598e-4
-0.787, 1.607e-4
-0.788, 1.617e-4
-0.789, 1.627e-4
-0.790, 1.638e-4
-0.791, 1.648e-4
-0.792, 1.657e-4
-0.793, 1.667e-4
-0.794, 1.677e-4
-0.795, 1.688e-4
-0.796, 1.698e-4
-0.797, 1.707e-4
-0.798, 1.717e-4
-0.799, 1.727e-4
-0.800, 1.738e-4
-0.801, 1.748e-4
-0.802, 1.757e-4
-0.803, 1.767e-4
-0.804, 1.778e-4
-0.805, 1.789e-4
-0.806, 1.799e-4
-0.807, 1.808e-4
-0.808, 1.818e-4
-0.809, 1.829e-4
-0.810, 1.839e-4
-0.811, 1.850e-4
-0.812, 1.859e-4
-0.813, 1.869e-4
-0.814, 1.880e-4
-0.815, 1.891e-4
-0.816, 1.901e-4
-0.817, 1.911e-4
-0.818, 1.921e-4
-0.819, 1.932e-4
-0.820, 1.945e-4
-0.821, 1.955e-4
-0.822, 1.964e-4
-0.823, 1.974e-4
-0.824, 1.985e-4
-0.825, 1.996e-4
-0.826, 2.006e-4
-0.827, 2.016e-4
-0.828, 2.026e-4
-0.829, 2.037e-4
-0.830, 2.048e-4
-0.831, 2.059e-4
-0.832, 2.069e-4
-0.833, 2.079e-4
-0.834, 2.090e-4
-0.835, 2.101e-4
-0.836, 2.112e-4
-0.837, 2.122e-4
-0.838, 2.132e-4
-0.839, 2.143e-4
-0.840, 2.155e-4
-0.841, 2.166e-4
-0.842, 2.176e-4
-0.843, 2.186e-4
-0.844, 2.197e-4
-0.845, 2.209e-4
-0.846, 2.220e-4
-0.847, 2.230e-4
-0.848, 2.241e-4
-0.849, 2.252e-4
-0.850, 2.264e-4
-0.851, 2.275e-4
-0.852, 2.285e-4
-0.853, 2.296e-4
-0.854, 2.308e-4
-0.855, 2.319e-4
-0.856, 2.331e-4
-0.857, 2.341e-4
-0.858, 2.351e-4
-0.859, 2.364e-4
-0.860, 2.375e-4
-0.861, 2.386e-4
-0.862, 2.397e-4
-0.863, 2.408e-4
-0.864, 2.420e-4
-0.865, 2.432e-4
-0.866, 2.443e-4
-0.867, 2.454e-4
-0.868, 2.465e-4
-0.869, 2.477e-4
-0.870, 2.490e-4
-0.871, 2.501e-4
-0.872, 2.513e-4
-0.873, 2.524e-4
-0.874, 2.535e-4
-0.875, 2.548e-4
-0.876, 2.559e-4
-0.877, 2.570e-4
-0.878, 2.582e-4
-0.879, 2.594e-4
-0.880, 2.606e-4
-0.881, 2.618e-4
-0.882, 2.629e-4
-0.883, 2.641e-4
-0.884, 2.653e-4
-0.885, 2.666e-4
-0.886, 2.677e-4
-0.887, 2.688e-4
-0.888, 2.700e-4
-0.889, 2.712e-4
-0.890, 2.725e-4
-0.891, 2.737e-4
-0.892, 2.748e-4
-0.893, 2.759e-4
-0.894, 2.772e-4
-0.895, 2.784e-4
-0.896, 2.797e-4
-0.897, 2.808e-4
-0.898, 2.819e-4
-0.899, 2.832e-4
-0.900, 2.845e-4
-0.901, 2.857e-4
-0.902, 2.868e-4
-0.903, 2.880e-4
-0.904, 2.893e-4
-0.905, 2.905e-4
-0.906, 2.917e-4
-0.907, 2.929e-4
-0.908, 2.940e-4
-0.909, 2.953e-4
-0.910, 2.966e-4
-0.911, 2.978e-4
-0.912, 2.989e-4
-0.913, 3.001e-4
-0.914, 3.014e-4
-0.915, 3.027e-4
-0.916, 3.039e-4
-0.917, 3.051e-4
-0.918, 3.063e-4
-0.919, 3.076e-4
-0.920, 3.089e-4
-0.921, 3.102e-4
-0.922, 3.113e-4
-0.923, 3.125e-4
-0.924, 3.138e-4
-0.925, 3.151e-4
-0.926, 3.164e-4
-0.927, 3.176e-4
-0.928, 3.188e-4
-0.929, 3.201e-4
-0.930, 3.214e-4
-0.931, 3.226e-4
-0.932, 3.238e-4
-0.933, 3.250e-4
-0.934, 3.264e-4
-0.935, 3.277e-4
-0.936, 3.289e-4
-0.937, 3.301e-4
-0.938, 3.313e-4
-0.939, 3.326e-4
-0.940, 3.339e-4
-0.941, 3.351e-4
-0.942, 3.363e-4
-0.943, 3.375e-4
-0.944, 3.389e-4
-0.945, 3.402e-4
-0.946, 3.414e-4
-0.947, 3.426e-4
-0.948, 3.439e-4
-0.949, 3.452e-4
-0.950, 3.465e-4
-0.951, 3.478e-4
-0.952, 3.490e-4
-0.953, 3.502e-4
-0.954, 3.515e-4
-0.955, 3.528e-4
-0.956, 3.540e-4
-0.957, 3.552e-4
-0.958, 3.564e-4
-0.959, 3.577e-4
-0.960, 3.590e-4
-0.961, 3.603e-4
-0.962, 3.614e-4
-0.963, 3.627e-4
-0.964, 3.640e-4
-0.965, 3.654e-4
-0.966, 3.666e-4
-0.967, 3.678e-4
-0.968, 3.690e-4
-0.969, 3.704e-4
-0.970, 3.717e-4
-0.971, 3.729e-4
-0.972, 3.741e-4
-0.973, 3.755e-4
-0.974, 3.769e-4
-0.975, 3.782e-4
-0.976, 3.794e-4
-0.977, 3.806e-4
-0.978, 3.818e-4
-0.979, 3.831e-4
-0.980, 3.844e-4
-0.981, 3.857e-4
-0.982, 3.869e-4
-0.983, 3.881e-4
-0.984, 3.894e-4
-0.985, 3.908e-4
-0.986, 3.920e-4
-0.987, 3.932e-4
-0.988, 3.945e-4
-0.989, 3.958e-4
-0.990, 3.972e-4
-0.991, 3.985e-4
-0.992, 3.997e-4
-0.993, 4.009e-4
-0.994, 4.023e-4
-0.995, 4.036e-4
-0.996, 4.049e-4
-0.997, 4.061e-4
-0.998, 4.073e-4
-0.999, 4.087e-4
-1.000, 4.101e-4
-1.001, 4.114e-4
-1.002, 4.126e-4
-1.003, 4.139e-4
-1.004, 4.152e-4
-1.005, 4.166e-4
-1.006, 4.178e-4
-1.007, 4.190e-4
-1.008, 4.203e-4
-1.009, 4.216e-4
-1.010, 4.230e-4
-1.011, 4.243e-4
-1.012, 4.255e-4
-1.013, 4.268e-4
-1.014, 4.281e-4
-1.015, 4.295e-4
-1.016, 4.308e-4
-1.017, 4.320e-4
-1.018, 4.332e-4
-1.019, 4.346e-4
-1.020, 4.360e-4
-1.021, 4.373e-4
-1.022, 4.385e-4
-1.023, 4.397e-4
-1.024, 4.412e-4
-1.025, 4.426e-4
-1.026, 4.438e-4
-1.027, 4.451e-4
-1.028, 4.464e-4
-1.029, 4.478e-4
-1.030, 4.491e-4
-1.031, 4.504e-4
-1.032, 4.517e-4
-1.033, 4.530e-4
-1.034, 4.543e-4
-1.035, 4.557e-4
-1.036, 4.570e-4
-1.037, 4.583e-4
-1.038, 4.596e-4
-1.039, 4.609e-4
-1.040, 4.623e-4
-1.041, 4.637e-4
-1.042, 4.649e-4
-1.043, 4.663e-4
-1.044, 4.677e-4
-1.045, 4.691e-4
-1.046, 4.704e-4
-1.047, 4.716e-4
-1.048, 4.729e-4
-1.049, 4.744e-4
-1.050, 4.758e-4
-1.051, 4.771e-4
-1.052, 4.784e-4
-1.053, 4.797e-4
-1.054, 4.811e-4
-1.055, 4.826e-4
-1.056, 4.839e-4
-1.057, 4.852e-4
-1.058, 4.865e-4
-1.059, 4.880e-4
-1.060, 4.894e-4
-1.061, 4.908e-4
-1.062, 4.921e-4
-1.063, 4.934e-4
-1.064, 4.949e-4
-1.065, 4.963e-4
-1.066, 4.977e-4
-1.067, 4.990e-4
-1.068, 5.004e-4
-1.069, 5.019e-4
-1.070, 5.033e-4
-1.071, 5.047e-4
-1.072, 5.061e-4
-1.073, 5.074e-4
-1.074, 5.089e-4
-1.075, 5.105e-4
-1.076, 5.119e-4
-1.077, 5.133e-4
-1.078, 5.148e-4
-1.079, 5.163e-4
-1.080, 5.178e-4
-1.081, 5.191e-4
-1.082, 5.205e-4
-1.083, 5.220e-4
-1.084, 5.235e-4
-1.085, 5.250e-4
-1.086, 5.264e-4
-1.087, 5.278e-4
-1.088, 5.293e-4
-1.089, 5.309e-4
-1.090, 5.325e-4
-1.091, 5.340e-4
-1.092, 5.354e-4
-1.093, 5.369e-4
-1.094, 5.385e-4
-1.095, 5.400e-4
-1.096, 5.416e-4
-1.097, 5.430e-4
-1.098, 5.446e-4
-1.099, 5.462e-4
-1.100, 5.478e-4
-1.101, 5.494e-4
-1.102, 5.509e-4
-1.103, 5.525e-4
-1.104, 5.542e-4
-1.105, 5.559e-4
-1.106, 5.576e-4
-1.107, 5.591e-4
-1.108, 5.608e-4
-1.109, 5.625e-4
-1.110, 5.642e-4
-1.111, 5.658e-4
-1.112, 5.674e-4
-1.113, 5.691e-4
-1.114, 5.709e-4
-1.115, 5.726e-4
-1.116, 5.743e-4
-1.117, 5.759e-4
-1.118, 5.777e-4
-1.119, 5.794e-4
-1.120, 5.812e-4
-1.121, 5.829e-4
-1.122, 5.846e-4
-1.123, 5.865e-4
-1.124, 5.883e-4
-1.125, 5.902e-4
-1.126, 5.920e-4
-1.127, 5.937e-4
-1.128, 5.956e-4
-1.129, 5.975e-4
-1.130, 5.994e-4
-1.131, 6.013e-4
-1.132, 6.031e-4
-1.133, 6.051e-4
-1.134, 6.071e-4
-1.135, 6.091e-4
-1.136, 6.110e-4
-1.137, 6.129e-4
-1.138, 6.149e-4
-1.139, 6.170e-4
-1.140, 6.191e-4
-1.141, 6.211e-4
-1.142, 6.231e-4
-1.143, 6.252e-4
-1.144, 6.274e-4
-1.145, 6.295e-4
-1.146, 6.316e-4
-1.147, 6.338e-4
-1.148, 6.359e-4
-1.149, 6.382e-4
-1.150, 6.405e-4
-1.151, 6.426e-4
-1.152, 6.448e-4
-1.153, 6.471e-4
-1.154, 6.495e-4
-1.155, 6.518e-4
-1.156, 6.541e-4
-1.157, 6.564e-4
-1.158, 6.588e-4
-1.159, 6.612e-4
-1.160, 6.637e-4
-1.161, 6.661e-4
-1.162, 6.685e-4
-1.163, 6.710e-4
-1.164, 6.736e-4
-1.165, 6.762e-4
-1.166, 6.787e-4
-1.167, 6.811e-4
-1.168, 6.837e-4
-1.169, 6.864e-4
-1.170, 6.891e-4
-1.171, 6.917e-4
-1.172, 6.943e-4
-1.173, 6.971e-4
-1.174, 6.999e-4
-1.175, 7.027e-4
-1.176, 7.054e-4
-1.177, 7.082e-4
-1.178, 7.111e-4
-1.179, 7.141e-4
-1.180, 7.170e-4
-1.181, 7.199e-4
-1.182, 7.227e-4
-1.183, 7.257e-4
-1.184, 7.288e-4
-1.185, 7.319e-4
-1.186, 7.349e-4
-1.187, 7.379e-4
-1.188, 7.410e-4
-1.189, 7.442e-4
-1.190, 7.475e-4
-1.191, 7.507e-4
-1.192, 7.538e-4
-1.193, 7.571e-4
-1.194, 7.605e-4
-1.195, 7.638e-4
-1.196, 7.671e-4
-1.197, 7.704e-4
-1.198, 7.738e-4
-1.199, 7.772e-4
-1.200, 7.808e-4
-1.201, 7.842e-4
-1.202, 7.876e-4
-1.203, 7.912e-4
-1.204, 7.948e-4
-1.205, 7.985e-4
-1.206, 8.020e-4
-1.207, 8.056e-4
-1.208, 8.093e-4
-1.209, 8.131e-4
-1.210, 8.170e-4
-1.211, 8.207e-4
-1.212, 8.245e-4
-1.213, 8.284e-4
-1.214, 8.324e-4
-1.215, 8.363e-4
-1.216, 8.402e-4
-1.217, 8.442e-4
-1.218, 8.482e-4
-1.219, 8.524e-4
-1.220, 8.565e-4
-1.221, 8.607e-4
-1.222, 8.648e-4
-1.223, 8.690e-4
-1.224, 8.734e-4
-1.225, 8.777e-4
-1.226, 8.820e-4
-1.227, 8.863e-4
-1.228, 8.907e-4
-1.229, 8.954e-4
-1.230, 9.001e-4
-1.231, 9.045e-4
-1.232, 9.090e-4
-1.233, 9.136e-4
-1.234, 9.183e-4
-1.235, 9.230e-4
-1.236, 9.277e-4
-1.237, 9.324e-4
-1.238, 9.372e-4
-1.239, 9.421e-4
-1.240, 9.470e-4
-1.241, 9.518e-4
-1.242, 9.567e-4
-1.243, 9.617e-4
-1.244, 9.668e-4
-1.245, 9.719e-4
-1.246, 9.770e-4
-1.247, 9.821e-4
-1.248, 9.874e-4
-1.249, 9.928e-4
-1.250, 9.981e-4
-1.251, 1.003e-3
-1.252, 1.009e-3
-1.253, 1.011e-3
-1.254, 1.011e-3
-1.255, 1.011e-3
-1.256, 1.011e-3
-1.257, 1.011e-3
-1.258, 1.011e-3
-1.259, 1.011e-3
-1.260, 1.011e-3
-1.261, 1.011e-3
-1.262, 1.011e-3
-1.263, 1.011e-3
-1.264, 1.011e-3
-1.265, 1.011e-3
-1.266, 1.011e-3
-1.267, 1.011e-3
-1.268, 1.011e-3
-1.269, 1.011e-3
-1.270, 1.011e-3
-1.271, 1.011e-3
-1.272, 1.011e-3
-1.273, 1.011e-3
-1.274, 1.011e-3
-1.275, 1.011e-3
-1.276, 1.011e-3
-1.277, 1.011e-3
-1.278, 1.011e-3
-1.279, 1.011e-3
-1.280, 1.011e-3
-1.281, 1.011e-3
-1.282, 1.011e-3
-1.283, 1.011e-3
-1.284, 1.011e-3
-1.285, 1.011e-3
-1.286, 1.011e-3
-1.287, 1.011e-3
-1.288, 1.011e-3
-1.289, 1.011e-3
-1.290, 1.011e-3
-1.291, 1.011e-3
-1.292, 1.011e-3
-1.293, 1.011e-3
-1.294, 1.011e-3
-1.295, 1.011e-3
-1.296, 1.011e-3
-1.297, 1.011e-3
-1.298, 1.011e-3
-1.299, 1.011e-3
-1.300, 1.011e-3
-1.301, 1.011e-3
-1.302, 1.011e-3
-1.303, 1.011e-3
-1.304, 1.011e-3
-1.305, 1.011e-3
-1.306, 1.011e-3
-1.307, 1.011e-3
-1.308, 1.011e-3
-1.309, 1.011e-3
-1.310, 1.011e-3
-1.311, 1.011e-3
-1.312, 1.011e-3
-1.313, 1.011e-3
-1.314, 1.011e-3
-1.315, 1.011e-3
-1.316, 1.011e-3
-1.317, 1.011e-3
-1.318, 1.011e-3
-1.319, 1.011e-3
-1.320, 1.011e-3
-1.321, 1.011e-3
-1.322, 1.011e-3
-1.323, 1.011e-3
-1.324, 1.011e-3
-1.325, 1.011e-3
-1.326, 1.011e-3
-1.327, 1.011e-3
-1.328, 1.011e-3
-1.329, 1.011e-3
-1.330, 1.011e-3
-1.331, 1.011e-3
-1.332, 1.011e-3
-1.333, 1.011e-3
-1.334, 1.011e-3
-1.335, 1.011e-3
-1.336, 1.011e-3
-1.337, 1.011e-3
-1.338, 1.011e-3
-1.339, 1.011e-3
-1.340, 1.011e-3
-1.341, 1.011e-3
-1.342, 1.011e-3
-1.343, 1.011e-3
-1.344, 1.011e-3
-1.345, 1.011e-3
-1.346, 1.011e-3
-1.347, 1.011e-3
-1.348, 1.011e-3
-1.349, 1.011e-3
-1.350, 1.011e-3
-1.351, 1.011e-3
-1.352, 1.011e-3
-1.353, 1.011e-3
-1.354, 1.011e-3
-1.355, 1.011e-3
-1.356, 1.011e-3
-1.357, 1.011e-3
-1.358, 1.011e-3
-1.359, 1.011e-3
-1.360, 1.011e-3
-1.361, 1.011e-3
-1.362, 1.011e-3
-1.363, 1.011e-3
-1.364, 1.011e-3
-1.365, 1.011e-3
-1.366, 1.011e-3
-1.367, 1.011e-3
-1.368, 1.011e-3
-1.369, 1.011e-3
-1.370, 1.011e-3
-1.371, 1.011e-3
-1.372, 1.011e-3
-1.373, 1.011e-3
-1.374, 1.011e-3
-1.375, 1.011e-3
-1.376, 1.011e-3
-1.377, 1.011e-3
-1.378, 1.011e-3
-1.379, 1.011e-3
-1.380, 1.011e-3
-1.381, 1.011e-3
-1.382, 1.011e-3
-1.383, 1.011e-3
-1.384, 1.011e-3
-1.385, 1.011e-3
-1.386, 1.011e-3
-1.387, 1.011e-3
-1.388, 1.011e-3
-1.389, 1.011e-3
-1.390, 1.011e-3
-1.391, 1.011e-3
-1.392, 1.011e-3
-1.393, 1.011e-3
-1.394, 1.011e-3
-1.395, 1.011e-3
-1.396, 1.011e-3
-1.397, 1.011e-3
-1.398, 1.011e-3
-1.399, 1.011e-3
-1.400, 1.011e-3
-1.401, 1.011e-3
-1.402, 1.011e-3
-1.403, 1.011e-3
-1.404, 1.011e-3
-1.405, 1.011e-3
-1.406, 1.011e-3
-1.407, 1.011e-3
-1.408, 1.011e-3
-1.409, 1.011e-3
-1.410, 1.011e-3
-1.411, 1.011e-3
-1.412, 1.011e-3
-1.413, 1.011e-3
-1.414, 1.011e-3
-1.415, 1.011e-3
-1.416, 1.011e-3
-1.417, 1.011e-3
-1.418, 1.011e-3
-1.419, 1.011e-3
-1.420, 1.011e-3
-1.421, 1.011e-3
-1.422, 1.011e-3
-1.423, 1.011e-3
-1.424, 1.011e-3
-1.425, 1.011e-3
-1.426, 1.011e-3
-1.427, 1.011e-3
-1.428, 1.011e-3
-1.429, 1.011e-3
-1.430, 1.011e-3
-1.431, 1.011e-3
-1.432, 1.011e-3
-1.433, 1.011e-3
-1.434, 1.011e-3
-1.435, 1.011e-3
-1.436, 1.011e-3
-1.437, 1.011e-3
-1.438, 1.011e-3
-1.439, 1.011e-3
-1.440, 1.011e-3
-1.441, 1.011e-3
-1.442, 1.011e-3
-1.443, 1.011e-3
-1.444, 1.011e-3
-1.445, 1.011e-3
-1.446, 1.011e-3
-1.447, 1.011e-3
-1.448, 1.011e-3
-1.449, 1.011e-3
-1.450, 1.011e-3
-1.451, 1.011e-3
-1.452, 1.011e-3
-1.453, 1.011e-3
-1.454, 1.011e-3
-1.455, 1.011e-3
-1.456, 1.011e-3
-1.457, 1.011e-3
-1.458, 1.011e-3
-1.459, 1.011e-3
-1.460, 1.011e-3
-1.461, 1.011e-3
-1.462, 1.011e-3
-1.463, 1.011e-3
-1.464, 1.011e-3
-1.465, 1.011e-3
-1.466, 1.011e-3
-1.467, 1.011e-3
-1.468, 1.011e-3
-1.469, 1.011e-3
-1.470, 1.011e-3
-1.471, 1.011e-3
-1.472, 1.011e-3
-1.473, 1.011e-3
-1.474, 1.011e-3
-1.475, 1.011e-3
-1.476, 1.011e-3
-1.477, 1.011e-3
-1.478, 1.011e-3
-1.479, 1.011e-3
-1.480, 1.011e-3
-1.481, 1.011e-3
-1.482, 1.011e-3
-1.483, 1.011e-3
-1.484, 1.011e-3
-1.485, 1.011e-3
-1.486, 1.011e-3
-1.487, 1.011e-3
-1.488, 1.011e-3
-1.489, 1.011e-3
-1.490, 1.011e-3
-1.491, 1.011e-3
-1.492, 1.011e-3
-1.493, 1.011e-3
-1.494, 1.011e-3
-1.495, 1.011e-3
-1.496, 1.011e-3
-1.497, 1.011e-3
-1.498, 1.011e-3
-1.499, 1.011e-3
-1.500, 1.011e-3
-1.501, 1.011e-3
-1.502, 1.011e-3
-1.503, 1.011e-3
-1.504, 1.011e-3
-1.505, 1.011e-3
-1.506, 1.011e-3
-1.507, 1.011e-3
-1.508, 1.011e-3
-1.509, 1.011e-3
-1.510, 1.011e-3
-1.511, 1.011e-3
-1.512, 1.011e-3
-1.513, 1.011e-3
-1.514, 1.011e-3
-1.515, 1.011e-3
-1.516, 1.011e-3
-1.517, 1.011e-3
-1.518, 1.011e-3
-1.519, 1.011e-3
-1.520, 1.011e-3
-1.521, 1.011e-3
-1.522, 1.011e-3
-1.523, 1.011e-3
-1.524, 1.011e-3
-1.525, 1.011e-3
-1.526, 1.011e-3
-1.527, 1.011e-3
-1.528, 1.011e-3
-1.529, 1.011e-3
-1.530, 1.011e-3
-1.531, 1.011e-3
-1.532, 1.011e-3
-1.533, 1.011e-3
-1.534, 1.011e-3
-1.535, 1.011e-3
-1.536, 1.011e-3
-1.537, 1.011e-3
-1.538, 1.011e-3
-1.539, 1.011e-3
-1.540, 1.011e-3
-1.541, 1.011e-3
-1.542, 1.011e-3
-1.543, 1.011e-3
-1.544, 1.011e-3
-1.545, 1.011e-3
-1.546, 1.011e-3
-1.547, 1.011e-3
-1.548, 1.011e-3
-1.549, 1.011e-3
-1.550, 1.011e-3
-1.551, 1.011e-3
-1.552, 1.011e-3
-1.553, 1.011e-3
-1.554, 1.011e-3
-1.555, 1.011e-3
-1.556, 1.011e-3
-1.557, 1.011e-3
-1.558, 1.011e-3
-1.559, 1.011e-3
-1.560, 1.011e-3
-1.561, 1.011e-3
-1.562, 1.011e-3
-1.563, 1.011e-3
-1.564, 1.011e-3
-1.565, 1.011e-3
-1.566, 1.011e-3
-1.567, 1.011e-3
-1.568, 1.011e-3
-1.569, 1.011e-3
-1.570, 1.011e-3
-1.571, 1.011e-3
-1.572, 1.011e-3
-1.573, 1.011e-3
-1.574, 1.011e-3
-1.575, 1.011e-3
-1.576, 1.011e-3
-1.577, 1.011e-3
-1.578, 1.011e-3
-1.579, 1.011e-3
-1.580, 1.011e-3
-1.581, 1.011e-3
-1.582, 1.011e-3
-1.583, 1.011e-3
-1.584, 1.011e-3
-1.585, 1.011e-3
-1.586, 1.011e-3
-1.587, 1.011e-3
-1.588, 1.011e-3
-1.589, 1.011e-3
-1.590, 1.011e-3
-1.591, 1.011e-3
-1.592, 1.011e-3
-1.593, 1.011e-3
-1.594, 1.011e-3
-1.595, 1.011e-3
-1.596, 1.011e-3
-1.597, 1.011e-3
-1.598, 1.011e-3
-1.599, 1.011e-3
-1.600, 1.011e-3
-1.601, 1.011e-3
-1.602, 1.011e-3
-1.603, 1.011e-3
-1.604, 1.011e-3
-1.605, 1.011e-3
-1.606, 1.011e-3
-1.607, 1.011e-3
-1.608, 1.011e-3
-1.609, 1.011e-3
-1.610, 1.011e-3
-1.611, 1.011e-3
-1.612, 1.011e-3
-1.613, 1.011e-3
-1.614, 1.011e-3
-1.615, 1.011e-3
-1.616, 1.011e-3
-1.617, 1.011e-3
-1.618, 1.011e-3
-1.619, 1.011e-3
-1.620, 1.011e-3
-1.621, 1.011e-3
-1.622, 1.011e-3
-1.623, 1.011e-3
-1.624, 1.011e-3
-1.625, 1.011e-3
-1.626, 1.011e-3
-1.627, 1.011e-3
-1.628, 1.011e-3
-1.629, 1.011e-3
-1.630, 1.011e-3
-1.631, 1.011e-3
-1.632, 1.011e-3
-1.633, 1.011e-3
-1.634, 1.011e-3
-1.635, 1.011e-3
-1.636, 1.011e-3
-1.637, 1.011e-3
-1.638, 1.011e-3
-1.639, 1.011e-3
-1.640, 1.011e-3
-1.641, 1.011e-3
-1.642, 1.011e-3
-1.643, 1.011e-3
-1.644, 1.011e-3
-1.645, 1.011e-3
-1.646, 1.011e-3
-1.647, 1.011e-3
-1.648, 1.011e-3
-1.649, 1.011e-3
-1.650, 1.011e-3
-1.651, 1.011e-3
-1.652, 1.011e-3
-1.653, 1.011e-3
-1.654, 1.011e-3
-1.655, 1.011e-3
-1.656, 1.011e-3
-1.657, 1.011e-3
-1.658, 1.011e-3
-1.659, 1.011e-3
-1.660, 1.011e-3
-1.661, 1.011e-3
-1.662, 1.011e-3
-1.663, 1.011e-3
-1.664, 1.011e-3
-1.665, 1.011e-3
-1.666, 1.011e-3
-1.667, 1.011e-3
-1.668, 1.011e-3
-1.669, 1.011e-3
-1.670, 1.011e-3
-1.671, 1.011e-3
-1.672, 1.011e-3
-1.673, 1.011e-3
-1.674, 1.011e-3
-1.675, 1.011e-3
-1.676, 1.011e-3
-1.677, 1.011e-3
-1.678, 1.011e-3
-1.679, 1.011e-3
-1.680, 1.011e-3
-1.681, 1.011e-3
-1.682, 1.011e-3
-1.683, 1.011e-3
-1.684, 1.011e-3
-1.685, 1.011e-3
-1.686, 1.011e-3
-1.687, 1.011e-3
-1.688, 1.011e-3
-1.689, 1.011e-3
-1.690, 1.011e-3
-1.691, 1.011e-3
-1.692, 1.011e-3
-1.693, 1.011e-3
-1.694, 1.011e-3
-1.695, 1.011e-3
-1.696, 1.011e-3
-1.697, 1.011e-3
-1.698, 1.011e-3
-1.699, 1.011e-3
-1.700, 1.011e-3
-1.701, 1.011e-3
-1.702, 1.011e-3
-1.703, 1.011e-3
-1.704, 1.011e-3
-1.705, 1.011e-3
-1.706, 1.011e-3
-1.707, 1.011e-3
-1.708, 1.011e-3
-1.709, 1.011e-3
-1.710, 1.011e-3
-1.711, 1.011e-3
-1.712, 1.011e-3
-1.713, 1.011e-3
-1.714, 1.011e-3
-1.715, 1.011e-3
-1.716, 1.011e-3
-1.717, 1.011e-3
-1.718, 1.011e-3
-1.719, 1.011e-3
-1.720, 1.011e-3
-1.721, 1.011e-3
-1.722, 1.011e-3
-1.723, 1.011e-3
-1.724, 1.011e-3
-1.725, 1.011e-3
-1.726, 1.011e-3
-1.727, 1.011e-3
-1.728, 1.011e-3
-1.729, 1.011e-3
-1.730, 1.011e-3
-1.731, 1.011e-3
-1.732, 1.011e-3
-1.733, 1.011e-3
-1.734, 1.011e-3
-1.735, 1.011e-3
-1.736, 1.011e-3
-1.737, 1.011e-3
-1.738, 1.011e-3
-1.739, 1.011e-3
-1.740, 1.011e-3
-1.741, 1.011e-3
-1.742, 1.011e-3
-1.743, 1.011e-3
-1.744, 1.011e-3
-1.745, 1.011e-3
-1.746, 1.011e-3
-1.747, 1.011e-3
-1.748, 1.011e-3
-1.749, 1.011e-3
-1.750, 1.011e-3
-1.751, 1.011e-3
-1.752, 1.011e-3
-1.753, 1.011e-3
-1.754, 1.011e-3
-1.755, 1.011e-3
-1.756, 1.011e-3
-1.757, 1.011e-3
-1.758, 1.011e-3
-1.759, 1.011e-3
-1.760, 1.011e-3
-1.761, 1.011e-3
-1.762, 1.011e-3
-1.763, 1.011e-3
-1.764, 1.011e-3
-1.765, 1.011e-3
-1.766, 1.011e-3
-1.767, 1.011e-3
-1.768, 1.011e-3
-1.769, 1.011e-3
-1.770, 1.011e-3
-1.771, 1.011e-3
-1.772, 1.011e-3
-1.773, 1.011e-3
-1.774, 1.011e-3
-1.775, 1.011e-3
-1.776, 1.011e-3
-1.777, 1.011e-3
-1.778, 1.011e-3
-1.779, 1.011e-3
-1.780, 1.011e-3
-1.781, 1.011e-3
-1.782, 1.011e-3
-1.783, 1.011e-3
-1.784, 1.011e-3
-1.785, 1.011e-3
-1.786, 1.011e-3
-1.787, 1.011e-3
-1.788, 1.011e-3
-1.789, 1.011e-3
-1.790, 1.011e-3
-1.791, 1.011e-3
-1.792, 1.011e-3
-1.793, 1.011e-3
-1.794, 1.011e-3
-1.795, 1.011e-3
-1.796, 1.011e-3
-1.797, 1.011e-3
-1.798, 1.011e-3
-1.799, 1.011e-3
-1.800, 1.011e-3
-1.801, 1.011e-3
-1.802, 1.011e-3
-1.803, 1.011e-3
-1.804, 1.011e-3
-1.805, 1.011e-3
-1.806, 1.011e-3
-1.807, 1.011e-3
-1.808, 1.011e-3
-1.809, 1.011e-3
-1.810, 1.011e-3
-1.811, 1.011e-3
-1.812, 1.011e-3
-1.813, 1.011e-3
-1.814, 1.011e-3
-1.815, 1.011e-3
-1.816, 1.011e-3
-1.817, 1.011e-3
-1.818, 1.011e-3
-1.819, 1.011e-3
-1.820, 1.011e-3
-1.821, 1.011e-3
-1.822, 1.011e-3
-1.823, 1.011e-3
-1.824, 1.011e-3
-1.825, 1.011e-3
-1.826, 1.011e-3
-1.827, 1.011e-3
-1.828, 1.011e-3
-1.829, 1.011e-3
-1.830, 1.011e-3
-1.831, 1.011e-3
-1.832, 1.011e-3
-1.833, 1.011e-3
-1.834, 1.011e-3
-1.835, 1.011e-3
-1.836, 1.011e-3
-1.837, 1.011e-3
-1.838, 1.011e-3
-1.839, 1.011e-3
-1.840, 1.011e-3
-1.841, 1.011e-3
-1.842, 1.011e-3
-1.843, 1.011e-3
-1.844, 1.011e-3
-1.845, 1.011e-3
-1.846, 1.011e-3
-1.847, 1.011e-3
-1.848, 1.011e-3
-1.849, 1.011e-3
-1.850, 1.011e-3
-1.851, 1.011e-3
-1.852, 1.011e-3
-1.853, 1.011e-3
-1.854, 1.011e-3
-1.855, 1.011e-3
-1.856, 1.011e-3
-1.857, 1.011e-3
-1.858, 1.011e-3
-1.859, 1.011e-3
-1.860, 1.011e-3
-1.861, 1.011e-3
-1.862, 1.011e-3
-1.863, 1.011e-3
-1.864, 1.011e-3
-1.865, 1.011e-3
-1.866, 1.011e-3
-1.867, 1.011e-3
-1.868, 1.011e-3
-1.869, 1.011e-3
-1.870, 1.011e-3
-1.871, 1.011e-3
-1.872, 1.011e-3
-1.873, 1.011e-3
-1.874, 1.011e-3
-1.875, 1.011e-3
-1.876, 1.011e-3
-1.877, 1.011e-3
-1.878, 1.011e-3
-1.879, 1.011e-3
-1.880, 1.011e-3
-1.881, 1.011e-3
-1.882, 1.011e-3
-1.883, 1.011e-3
-1.884, 1.011e-3
-1.885, 1.011e-3
-1.886, 1.011e-3
-1.887, 1.011e-3
-1.888, 1.011e-3
-1.889, 1.011e-3
-1.890, 1.011e-3
-1.891, 1.011e-3
-1.892, 1.011e-3
-1.893, 1.011e-3
-1.894, 1.011e-3
-1.895, 1.011e-3
-1.896, 1.011e-3
-1.897, 1.011e-3
-1.898, 1.011e-3
-1.899, 1.011e-3
