Potential V vs RHE, Current mA cm-2
0.013299999999999867,-0.4384190318281749
0.012299999999999978,-2.008890045808352
0.011299999999999866,-3.403795387475278
0.010299999999999976,-4.626105950558669
0.009299999999999864,-5.80314575204638
0.008299999999999974,-6.806176063650692
0.007299999999999862,-7.7653503249591855
0.006299999999999972,-8.594371146680096
0.00529999999999986,-9.335679867809377
0.0042999999999999705,-10.034547249942705
0.0032999999999998586,-10.601846481188586
0.0022999999999999687,-11.211587051430415
0.0012999999999998568,-11.73503023238048
0.00029999999999996696,-12.258473413330542
-0.000700000000000145,-12.73806054398479
-0.0017000000000000348,-13.217647674639037
-0.0027000000000001467,-13.567081365705702
-0.0037000000000000366,-13.916515056772363
-0.0047000000000001485,-14.217848563643619
-0.005700000000000038,-14.486643710617974
-0.00670000000000015,-14.69885040559773
-0.00770000000000004,-14.868615761581536
-0.008700000000000152,-15.137410908555893
-0.009700000000000042,-15.349617603535648
-0.010700000000000154,-15.575971411514052
-0.011700000000000044,-15.830619445489761
-0.012700000000000156,-15.972090575476265
-0.013700000000000045,-16.141855931460068
-0.014700000000000157,-16.269179948447924
-0.015700000000000047,-16.396503965435777
-0.01670000000000016,-16.495533756426326
-0.01770000000000005,-16.580416434418233
-0.01870000000000016,-16.665299112410132
-0.01970000000000005,-16.792623129397985
-0.020700000000000163,-16.919947146385837
-0.021700000000000053,-17.018976937376394
-0.022700000000000164,-17.103859615368293
-0.023700000000000054,-17.188742293360193
-0.024700000000000166,-17.231183632356142
-0.025700000000000056,-17.231183632356142
-0.026700000000000168,-17.231183632356142
-0.027700000000000058,-17.2736249713521
-0.02870000000000017,-17.316066310348052
-0.02970000000000006,-17.358507649344002
-0.03070000000000017,-17.40094898833995
-0.03170000000000006,-17.48583166633185
-0.03270000000000017,-17.542420118326454
-0.03370000000000006,-17.584861457322408
-0.034700000000000175,-17.542420118326454
-0.035700000000000065,-17.542420118326454
-0.03670000000000018,-17.48583166633185
-0.03770000000000007,-17.48583166633185
-0.03870000000000018,-17.48583166633185
-0.03970000000000007,-17.48583166633185
-0.04070000000000018,-17.542420118326454
-0.04170000000000007,-17.584861457322408
-0.04270000000000018,-17.627302796318357
-0.04370000000000007,-17.627302796318357
-0.044700000000000184,-17.669744135314307
-0.045700000000000074,-17.669744135314307
-0.046700000000000186,-17.627302796318357
-0.047700000000000076,-17.627302796318357
-0.04870000000000019,-17.627302796318357
-0.04970000000000008,-17.669744135314307
-0.05070000000000019,-17.71218547431026
-0.05170000000000008,-17.75462681330621
-0.05270000000000019,-17.75462681330621
-0.05370000000000008,-17.71218547431026
-0.05470000000000019,-17.669744135314307
-0.05570000000000008,-17.627302796318357
-0.056700000000000195,-17.584861457322408
-0.057700000000000085,-17.542420118326454
-0.058700000000000196,-17.542420118326454
-0.059700000000000086,-17.584861457322408
-0.0607000000000002,-17.542420118326454
-0.06170000000000009,-17.584861457322408
-0.0627000000000002,-17.627302796318357
-0.06370000000000009,-17.627302796318357
-0.0647000000000002,-17.584861457322408
-0.06570000000000009,-17.542420118326454
-0.0667000000000002,-17.542420118326454
-0.0677000000000001,-17.48583166633185
-0.0687000000000002,-17.48583166633185
-0.0697000000000001,-17.542420118326454
-0.07070000000000021,-17.584861457322408
-0.0717000000000001,-17.627302796318357
-0.07270000000000021,-17.627302796318357
-0.0737000000000001,-17.669744135314307
-0.07470000000000021,-17.627302796318357
-0.0757000000000001,-17.627302796318357
-0.07670000000000021,-17.584861457322408
-0.0777000000000001,-17.584861457322408
-0.07870000000000021,-17.584861457322408
-0.0797000000000001,-17.584861457322408
-0.08070000000000022,-20.10304757108217
-0.0817000000000001,-20.584049413036283
-0.08270000000000022,-20.72552054302279
-0.08370000000000011,-20.810403221014692
-0.08470000000000022,-20.89528589900659
-0.08570000000000011,-20.89528589900659
-0.08670000000000022,-20.89528589900659
-0.08770000000000011,-20.89528589900659
-0.08870000000000022,-20.89528589900659
-0.08970000000000011,-20.89528589900659
-0.09070000000000022,-20.89528589900659
-0.09170000000000011,-20.93772723800254
-0.09270000000000023,-20.89528589900659
-0.09370000000000012,-20.85284456001064
-0.09470000000000023,-20.810403221014692
-0.09570000000000012,-20.72552054302279
-0.09670000000000023,-20.626490752032236
-0.09770000000000012,-20.584049413036283
-0.09870000000000023,-20.541608074040333
-0.09970000000000012,-20.499166735044383
-0.10070000000000023,-20.499166735044383
-0.10170000000000012,-20.499166735044383
-0.10270000000000024,-20.456725396048434
-0.10370000000000013,-20.414284057052477
-0.10470000000000024,-20.329401379060574
-0.10570000000000013,-20.244518701068674
-0.10670000000000024,-20.10304757108217
-0.10770000000000013,-20.06060623208622
-0.10870000000000024,-20.01816489309027
-0.10970000000000013,-19.97572355409432
-0.11070000000000024,-19.636192842126707
-0.11170000000000013,-18.759071836210385
-0.11270000000000002,-18.589306480226583
-0.11370000000000013,-18.44783535024008
-0.11470000000000002,-18.362952672248177
-0.11570000000000014,-18.27806999425627
-0.11670000000000003,-18.15074597726842
-0.11770000000000014,-18.06586329927652
-0.11870000000000003,-18.06586329927652
-0.11970000000000014,-17.966833508285966
-0.12070000000000003,-17.966833508285966
-0.12170000000000014,-18.44783535024008
-0.12270000000000003,-18.80151317520634
-0.12370000000000014,-18.589306480226583
-0.12470000000000003,-17.966833508285966
-0.12570000000000014,-17.839509491298113
-0.12670000000000003,-17.71218547431026
-0.12770000000000015,-17.669744135314307
-0.12870000000000004,-17.627302796318357
-0.12970000000000015,-17.627302796318357
-0.13070000000000004,-17.669744135314307
-0.13170000000000015,-17.71218547431026
-0.13270000000000004,-17.75462681330621
-0.13370000000000015,-17.75462681330621
-0.13470000000000004,-17.797068152302163
-0.13570000000000015,-17.75462681330621
-0.13670000000000004,-17.75462681330621
-0.13770000000000016,-17.71218547431026
-0.13870000000000005,-17.71218547431026
-0.13970000000000016,-17.71218547431026
-0.14070000000000005,-17.71218547431026
-0.14170000000000016,-17.71218547431026
-0.14270000000000005,-17.71218547431026
-0.14370000000000016,-17.669744135314307
-0.14470000000000005,-17.627302796318357
-0.14570000000000016,-17.627302796318357
-0.14670000000000005,-17.584861457322408
-0.14770000000000016,-17.584861457322408
-0.14870000000000005,-17.627302796318357
-0.14970000000000017,-17.669744135314307
-0.15070000000000006,-17.75462681330621
-0.15170000000000017,-17.797068152302163
-0.15270000000000006,-17.839509491298113
-0.15370000000000017,-17.881950830294063
-0.15470000000000006,-17.839509491298113
-0.15570000000000017,-17.797068152302163
-0.15670000000000006,-17.71218547431026
-0.15770000000000017,-17.71218547431026
-0.15870000000000006,-17.71218547431026
-0.15970000000000018,-17.71218547431026
-0.16070000000000007,-17.75462681330621
-0.16170000000000018,-17.75462681330621
-0.16270000000000007,-17.797068152302163
-0.16370000000000018,-17.75462681330621
-0.16470000000000007,-17.797068152302163
-0.16570000000000018,-17.75462681330621
-0.16670000000000007,-17.75462681330621
-0.16770000000000018,-17.75462681330621
-0.16870000000000007,-17.75462681330621
-0.16970000000000018,-17.797068152302163
-0.17070000000000007,-17.797068152302163
-0.17170000000000019,-17.881950830294063
-0.17270000000000008,-17.881950830294063
-0.1737000000000002,-17.881950830294063
-0.17470000000000008,-17.881950830294063
-0.1757000000000002,-17.839509491298113
-0.17670000000000008,-17.839509491298113
-0.1777000000000002,-17.797068152302163
-0.17870000000000008,-17.797068152302163
-0.1797000000000002,-17.839509491298113
-0.18070000000000008,-17.839509491298113
-0.1817000000000002,-17.881950830294063
-0.18270000000000008,-17.881950830294063
-0.1837000000000002,-17.881950830294063
-0.1847000000000001,-17.881950830294063
-0.1857000000000002,-17.839509491298113
-0.1867000000000001,-17.839509491298113
-0.1877000000000002,-17.839509491298113
-0.1887000000000001,-17.839509491298113
-0.1897000000000002,-17.924392169290012
-0.1907000000000001,-17.966833508285966
-0.1917000000000001,-18.06586329927652
-0.19269999999999998,-18.10830463827247
-0.1937000000000001,-18.15074597726842
-0.19469999999999998,-18.10830463827247
-0.1957000000000001,-18.06586329927652
-0.19669999999999999,-18.06586329927652
-0.1977000000000001,-18.06586329927652
-0.1987,-18.009274847281915
-0.1997000000000001,-18.009274847281915
-0.2007,-18.06586329927652
-0.2017000000000001,-18.06586329927652
-0.2027,-18.06586329927652
-0.2037000000000001,-18.10830463827247
-0.2047,-18.06586329927652
-0.2057000000000001,-18.10830463827247
-0.2067,-18.10830463827247
-0.2077000000000001,-18.10830463827247
-0.2087,-18.15074597726842
-0.2097000000000001,-18.23562865526032
-0.2107,-18.27806999425627
-0.2117000000000001,-18.40539401124413
-0.2127,-18.44783535024008
-0.2137000000000001,-18.44783535024008
-0.2147,-18.44783535024008
-0.2157000000000001,-18.49027668923603
-0.2167,-18.49027668923603
-0.21770000000000012,-18.44783535024008
-0.2187,-18.40539401124413
-0.21970000000000012,-18.44783535024008
-0.2207,-18.49027668923603
-0.22170000000000012,-18.53271802823198
-0.2227,-18.589306480226583
-0.22370000000000012,-18.589306480226583
-0.2247,-18.589306480226583
-0.22570000000000012,-18.589306480226583
-0.2267,-18.589306480226583
-0.22770000000000012,-18.631747819222536
-0.22870000000000001,-18.674189158218486
-0.22970000000000013,-18.716630497214435
-0.23070000000000002,-18.80151317520634
-0.23170000000000013,-18.88639585319824
-0.23270000000000002,-18.92883719219419
-0.23370000000000013,-18.97127853119014
-0.23470000000000002,-19.01371987018609
-0.23570000000000013,-18.97127853119014
-0.23670000000000002,-18.97127853119014
-0.2376999999999999,-18.97127853119014
-0.23870000000000002,-19.01371987018609
-0.2396999999999999,-19.056161209182044
-0.24070000000000003,-19.112749661176647
-0.24169999999999991,-19.197632339168546
-0.24270000000000003,-19.2400736781645
-0.24369999999999992,-19.28251501716045
-0.24470000000000003,-19.28251501716045
-0.24569999999999992,-19.3249563561564
-0.24670000000000003,-19.3249563561564
-0.24769999999999992,-19.3249563561564
-0.24870000000000003,-19.367397695152352
-0.24969999999999992,-19.409839034148305
-0.25070000000000003,-19.49472171214021
-0.2516999999999999,-19.579604390132108
-0.25270000000000004,-19.636192842126707
-0.2536999999999999,-19.678634181122664
-0.25470000000000004,-19.721075520118614
-0.2556999999999999,-19.721075520118614
-0.25670000000000004,-19.721075520118614
-0.25769999999999993,-19.763516859114564
-0.25870000000000004,-19.848399537106463
-0.25969999999999993,-19.93328221509837
-0.26070000000000004,-20.01816489309027
-0.26169999999999993,-20.10304757108217
-0.26270000000000004,-20.202077362072725
-0.26369999999999993,-20.286960040064624
-0.26470000000000005,-20.329401379060574
-0.26569999999999994,-20.371842718056527
-0.26670000000000005,-20.456725396048434
-0.26769999999999994,-20.541608074040333
-0.26870000000000005,-20.584049413036283
-0.26969999999999994,-20.72552054302279
-0.27070000000000005,-20.85284456001064
-0.27169999999999994,-20.980168576998494
-0.27270000000000005,-21.065051254990397
-0.27369999999999994,-21.2065223849769
-0.27470000000000006,-21.248963723972853
-0.27569999999999995,-21.333846401964752
-0.27670000000000006,-21.418729079956652
-0.27769999999999995,-21.503611757948562
-0.27870000000000006,-21.58849443594046
-0.27969999999999995,-21.729965565926964
-0.28070000000000006,-21.857289582914817
-0.28169999999999995,-22.027054938898623
-0.28270000000000006,-22.15437895588647
-0.28369999999999995,-22.253408746877028
-0.28470000000000006,-22.33829142486893
-0.28569999999999995,-22.38073276386488
-0.28670000000000007,-22.46561544185678
-0.28769999999999996,-22.550498119848687
-0.28870000000000007,-22.67782213683654
-0.28969999999999996,-22.861734605818995
-0.29070000000000007,-22.989058622806844
-0.29169999999999996,-23.15882397879065
-0.29270000000000007,-23.24370665678255
-0.29369999999999996,-23.385177786769056
-0.2947000000000001,-23.47006046476096
-0.29569999999999996,-23.55494314275286
-0.2967000000000001,-23.682267159740714
-0.29769999999999996,-23.86617962872317
-0.2987000000000001,-24.035944984706973
-0.29969999999999997,-24.20571034069078
-0.3007000000000001,-24.432064148669184
-0.30169999999999997,-24.64427084364894
-0.3027000000000001,-24.870624651627345
-0.30369999999999997,-25.04039000761115
-0.3047000000000001,-25.167714024599
-0.30569999999999997,-25.337479380582806
-0.3067000000000001,-25.478950510569312
-0.3077,-25.648715866553115
-0.3087000000000001,-25.86092256153287
-0.3097,-26.129717708507226
-0.3107000000000001,-26.34192440348698
-0.3117,-26.568278211465387
-0.3127000000000001,-26.738043567449193
-0.3137,-26.907808923433
-0.3147000000000001,-37.687909028404576
-0.3157,-39.258238571254765
-0.3167000000000001,-39.61191639622103
-0.3177,-39.86656443019674
-0.3187000000000001,-39.696799074212926
-0.3197,-32.49591855789989
-0.3207000000000001,-35.99025546856653
-0.3217,-37.51814367242077
-0.3227000000000001,-35.806342999584075
-0.3237,-34.50480860370825
-0.3247000000000001,-33.01936173884996
-0.3257,-32.70812525287965
-0.3267000000000001,-32.58080123589179
-0.3277,-32.49591855789989
-0.3287000000000001,-32.49591855789989
-0.3297,-32.53835989689585
-0.3307000000000001,-32.66568391388369
-0.3317,-32.807155043870196
-0.3327000000000001,-34.85848642867451
-0.3337,-39.82412309120078
-0.3347000000000001,-40.30512493315489
-0.3357,-40.177800916167044
-0.3367000000000001,-36.244903502542236
-0.3377,-39.21579723225882
-0.3387000000000001,-39.56947505722508
-0.3397,-39.95144710818864
-0.3407000000000001,-40.26268359415894
-0.3417,-40.616361419125205
-0.3427000000000001,-40.99833347008877
-0.3437,-41.39445263405098
-0.3447000000000001,-41.66324778102533
-0.3457,-41.83301313700913
-0.3467000000000001,-41.91789581500104
-0.3477,-41.96033715399699
-0.3487000000000001,-41.87545447600508
-0.3497,-41.74813045901723
-0.3507000000000001,-40.99833347008877
-0.3517,-40.65880275812115
-0.3527000000000001,-40.87100945310091
-0.3537,-41.182245939071215
-0.3547000000000001,-41.52177665103883
-0.3557,-41.87545447600508
-0.35670000000000013,-42.229132300971344
-0.3577,-42.568663012938956
-0.35870000000000013,-42.92234083790521
-0.3597,-43.31846000186743
-0.36070000000000013,-43.70043205283099
-0.3617,-44.138992555789144
-0.3626999999999999,-44.535111719751356
-0.3637,-44.93123088371356
-0.3646999999999999,-45.32735004767578
-0.3657,-45.666880759643384
-0.3666999999999999,-46.062999923605595
-0.3677,-46.544001765559706
-0.3686999999999999,-47.02500360751382
-0.36970000000000003,-47.54844678846388
-0.3706999999999999,-48.071889969413945
-0.37170000000000003,-48.68021582835591
-0.3726999999999999,-49.33098302629383
-0.37370000000000003,-50.0807800152223
-0.3746999999999999,-50.77398855215617
-0.37570000000000003,-51.46719708909004
-0.3766999999999999,-52.033081609036046
-0.37770000000000004,-52.69799591997262
-0.3786999999999999,-53.348763117910536
-0.37970000000000004,-54.0419716548444
-0.3806999999999999,-54.60785617479041
-0.38170000000000004,-55.17374069473642
-0.38269999999999993,-55.65474253669055
-0.38370000000000004,-56.1781857176406
-0.38469999999999993,-56.65918755959472
-0.38570000000000004,-57.14018940154883
-0.38669999999999993,-57.62119124350295
-0.38770000000000004,-58.10219308545706
-0.38869999999999993,-58.66807760540307
-0.38970000000000005,-59.27640346434504
-0.39069999999999994,-59.9696120012789
-0.39170000000000005,-60.63452631221547
-0.39269999999999994,-61.327734849149344
-0.39370000000000005,-62.02094338608321
-0.39469999999999994,-62.81318171400764
-0.39570000000000005,-63.54883158993744
-0.39669999999999994,-64.29862857886593
-0.39770000000000005,-65.0767197937917
-0.39869999999999994,-65.82651678272015
-0.39970000000000006,-66.60460799764593
-0.40069999999999995,-67.43928766456631
-0.40170000000000006,-68.17493754049613
-0.40269999999999995,-68.91058741642594
-0.40370000000000006,-69.61794306635846
-0.40469999999999995,-70.31115160329232
-0.40570000000000006,-71.06094859222078
-0.40669999999999995,-71.75415712915466
-0.40770000000000006,-72.44736566608852
-0.40869999999999995,-73.15472131602105
-0.40970000000000006,-73.93281253094682
-0.41069999999999995,-74.72505085887124
-0.41170000000000007,-75.54558341279296
-0.41269999999999996,-76.38026307971333
-0.41370000000000007,-77.20079563363505
-0.41469999999999996,-78.12035797854733
-0.41570000000000007,-78.99747898446365
-0.41669999999999996,-79.81801153838538
-0.41770000000000007,-80.65269120530574
-0.41869999999999996,-81.51566509822342
-0.4197000000000001,-82.39278610413973
-0.42069999999999996,-83.31234844905201
-0.4217000000000001,-84.13288100297372
-0.42269999999999996,-84.96756066989411
-0.4237000000000001,-85.70321054582392
-0.42469999999999997,-86.45300753475239
-0.4257000000000001,-87.23109874967815
-0.42669999999999997,-88.02333707760259
-0.4277000000000001,-88.8438696315243
-0.42869999999999997,-89.72099063744062
-0.4297000000000001,-90.59811164335694
-0.43069999999999997,-91.46108553627462
-0.4317000000000001,-92.3806478811869
-0.4327,-93.25776888710321
-0.4337000000000001,-94.17733123201549
-0.4347,-95.08274646392913
-0.4357000000000001,-96.04475014783733
-0.4367,-96.92187115375367
-0.4377000000000001,-97.78484504667132
-0.4387,-98.66196605258766
-0.4397000000000001,-99.53908705850398
-0.4407,-100.5010907424122
-0.4417000000000001,-101.50553576531638
-0.4427,-102.36850965823406
-0.4437000000000001,-103.28807200314633
-0.4447,-104.16519300906265
-0.4457000000000001,-105.07060824097626
-0.4467,-105.90528790789664
-0.4477000000000001,-106.73996757481702
-0.4487,-107.64538280673065
-0.4497000000000001,-108.60738649063886
-0.4507,-109.56939017454708
-0.4517000000000001,-110.53139385845533
-0.4527,-111.4509562033676
-0.4537000000000001,-112.3563714352812
-0.4547,-113.27593378019348
-0.4557000000000001,-114.23793746410173
-0.4567,-115.2423824870059
-0.4577000000000001,-116.24682750991008
-0.4587,-117.19468408081964
-0.4597000000000001,-118.15668776472786
-0.4607,-119.24601546562396
-0.4617000000000001,-120.39193161851462
-0.4627,-121.56614199740261
-0.4637000000000001,-122.65546969829869
-0.4647,-123.74479739919475
-0.4657000000000001,-124.83412510009084
-0.4667,-125.96589413998288
-0.4677000000000001,-127.09766317987489
-0.4687,-128.28602067176152
-0.4697000000000001,-129.33290703366166
-0.4707,-130.37979339556176
-0.4717000000000001,-131.37009130546733
-0.4727,-132.24721231138363
-0.4737000000000001,-133.20921599529186
-0.4747,-134.12877834020412
-0.4757000000000001,-135.03419357211774
-0.4767,-135.82643190004217
-0.4777000000000001,-136.66111156696255
-0.4787,-137.65140947686808
-0.4797000000000001,-138.61341316077628
-0.4807,-139.57541684468453
-0.48170000000000013,-140.4949791895968
-0.4827,-141.41454153450906
-0.48370000000000013,-142.31995676642268
-0.4847,-143.16878354634173
-0.48570000000000013,-144.01761032626072
-0.4867,-143.5931969363012
-0.48570000000000013,-141.456982873505
-0.4847,-139.53297550568857
-0.48370000000000013,-137.79288060685457
-0.4827,-136.13766838601245
-0.48170000000000013,-134.6522215211542
-0.4807,-133.1667746562959
-0.4797000000000001,-131.80865180842545
-0.4787,-130.50711741254963
-0.4777000000000001,-129.19143590367514
-0.4767,-127.97478418579122
-0.4757000000000001,-126.80057380690324
-0.4747,-125.6688047670112
-0.4737000000000001,-124.57947706611512
-0.4727,-123.6174733822069
-0.4717000000000001,-122.61302835930273
-0.4707,-121.52370065840667
-0.4697000000000001,-120.43437295751058
-0.4687,-119.3450452566145
-0.4677000000000001,-118.1991291037238
-0.4667,-117.15224274182368
-0.4657000000000001,-116.10535637992358
