Potential V vs RHE, Current mA cm-2
0.013299999999999867,-0.6337906623395364
0.012299999999999978,-1.9579604390132106
0.011299999999999866,-2.999187955713878
0.010299999999999976,-3.780108593239378
0.009299999999999864,-4.2681839916928155
0.008299999999999974,-4.677035557353811
0.007299999999999862,-5.0943753908139975
0.006299999999999972,-5.307996797093617
0.00529999999999986,-5.456541483579446
0.0042999999999999705,-5.682895291557853
0.0032999999999998586,-5.804560463346245
0.0022999999999999687,-5.807389885945976
0.0012999999999998568,-5.94603159333275
0.00029999999999996696,-6.074770321620467
-0.000700000000000145,-6.067696765121143
-0.0017000000000000348,-6.1044792589176335
-0.0027000000000001467,-6.192191359509266
-0.0037000000000000366,-6.166726556111695
-0.0047000000000001485,-6.149750020513314
-0.005700000000000038,-6.244535677604272
-0.00670000000000015,-6.268585769701978
-0.00770000000000004,-6.195020782108996
-0.008700000000000152,-6.2431209663044065
-0.009700000000000042,-6.296879995699278
-0.010700000000000154,-6.227559142005892
-0.011700000000000044,-6.224729719406161
-0.012700000000000156,-6.31385653129766
-0.013700000000000045,-6.262926924502518
-0.014700000000000157,-6.221900296806432
-0.015700000000000047,-6.286977016600223
-0.01670000000000016,-6.302538840898738
-0.01770000000000005,-6.226144430706027
-0.01870000000000016,-6.258682790602922
-0.01970000000000005,-6.316685953897389
-0.020700000000000163,-6.245950388904137
-0.021700000000000053,-6.238876832404812
-0.022700000000000164,-6.3152712425975235
-0.023700000000000054,-6.2558533680031925
-0.024700000000000166,-6.200679627308456
-0.025700000000000056,-6.2756593262013025
-0.026700000000000168,-6.272829903601573
-0.027700000000000058,-6.186532514309805
-0.02870000000000017,-6.248779811503867
-0.02970000000000006,-6.320930087796984
-0.03070000000000017,-6.237462121104946
-0.03170000000000006,-6.210582606407511
-0.03270000000000017,-6.277074037501167
-0.03370000000000006,-6.220485585506567
-0.034700000000000175,-6.169555978711425
-0.035700000000000065,-6.258682790602922
-0.03670000000000018,-6.264341635802381
-0.03770000000000007,-6.1624824222121
-0.03870000000000018,-6.207753183807781
-0.03970000000000007,-6.264341635802381
-0.04070000000000018,-6.192191359509266
-0.04170000000000007,-6.186532514309805
-0.04270000000000018,-6.250194522803732
-0.04370000000000007,-6.18511780300994
-0.044700000000000184,-6.121455794516013
-0.045700000000000074,-6.2035090499081855
-0.046700000000000186,-6.237462121104946
-0.047700000000000076,-6.161067710912235
-0.04870000000000019,-6.192191359509266
-0.04970000000000008,-6.226144430706027
-0.05070000000000019,-6.129944062315205
-0.05170000000000008,-6.129944062315205
-0.05270000000000019,-6.220485585506567
-0.05370000000000008,-6.175214823910885
-0.05470000000000019,-6.120041083216149
-0.05570000000000008,-6.169555978711425
-0.056700000000000195,-6.172385401311155
-0.057700000000000085,-6.090332145918983
-0.058700000000000196,-6.144091175313854
-0.059700000000000086,-6.207753183807781
-0.0607000000000002,-6.124285217115744
-0.06170000000000009,-6.132773484914934
-0.0627000000000002,-6.219070874206701
-0.06370000000000009,-6.144091175313854
-0.0647000000000002,-6.084673300719523
-0.06570000000000009,-6.149750020513314
-0.0667000000000002,-6.15965299961237
-0.0677000000000001,-6.103064547617769
-0.0687000000000002,-6.152579443113044
-0.0697000000000001,-6.17945895781048
-0.07070000000000021,-6.093161568518712
-0.0717000000000001,-6.062037919921682
-0.07270000000000021,-6.135602907514665
-0.0737000000000001,-6.121455794516013
-0.07470000000000021,-6.0917468572188485
-0.0757000000000001,-6.182288380410211
-0.07670000000000021,-6.172385401311155
-0.0777000000000001,-6.0719408990207375
-0.07870000000000021,-6.114382238016689
-0.0797000000000001,-6.14833530921345
-0.08070000000000022,-6.077599744220197
-0.0817000000000001,-6.087502723319252
-0.08270000000000022,-6.55577216357458
-0.08370000000000011,-8.758477657464443
-0.08470000000000022,-7.966239329540022
-0.08570000000000011,-9.172988068324898
-0.08670000000000022,-9.123473172829621
-0.08770000000000011,-8.714621607168628
-0.08870000000000022,-7.132974373919516
-0.08970000000000011,-6.855690959145968
-0.09070000000000022,-6.571333987873095
-0.09170000000000011,-6.431277569186457
-0.09270000000000023,-6.400153920589426
-0.09370000000000012,-6.281318171400763
-0.09470000000000023,-6.206338472507916
-0.09570000000000012,-6.250194522803732
-0.09670000000000023,-6.206338472507916
-0.09770000000000012,-6.084673300719523
-0.09870000000000023,-6.111552815416958
-0.09970000000000012,-6.175214823910885
-0.10070000000000023,-6.107308681517363
-0.10170000000000012,-6.100235125018038
-0.10270000000000024,-6.172385401311155
-0.10370000000000013,-6.1044792589176335
-0.10470000000000024,-6.062037919921682
-0.10570000000000013,-6.155408865712774
-0.10670000000000024,-6.15965299961237
-0.10770000000000013,-6.084673300719523
-0.10870000000000024,-6.124285217115744
-0.10970000000000013,-6.15965299961237
-0.11070000000000024,-6.076185032920332
-0.11170000000000013,-6.064867342521412
-0.11270000000000002,-6.1624824222121
-0.11370000000000013,-6.134188196214799
-0.11470000000000002,-6.069111476421008
-0.11570000000000014,-6.131358773615069
-0.11670000000000003,-6.127114639715473
-0.11770000000000014,-6.053549652122491
-0.11870000000000003,-6.121455794516013
-0.11970000000000014,-6.16814126741156
-0.12070000000000003,-6.087502723319252
-0.12170000000000014,-6.080429166819927
-0.12270000000000003,-6.15399415441291
-0.12370000000000014,-6.110138104117093
-0.12470000000000003,-6.069111476421008
-0.12570000000000014,-6.158238288312504
-0.12670000000000003,-6.186532514309805
-0.12770000000000015,-6.074770321620467
-0.12870000000000004,-6.117211660616419
-0.12970000000000015,-6.172385401311155
-0.13070000000000004,-6.120041083216149
-0.13170000000000015,-6.141261752714124
-0.13270000000000004,-6.214826740307106
-0.13370000000000015,-6.152579443113044
-0.13470000000000004,-6.094576279818578
-0.13570000000000015,-6.16814126741156
-0.13670000000000004,-6.175214823910885
-0.13770000000000016,-6.097405702418309
-0.13870000000000005,-6.146920597913584
-0.13970000000000016,-6.213412029007241
-0.14070000000000005,-6.142676464013989
-0.14170000000000016,-6.137017618814529
-0.14270000000000005,-6.219070874206701
-0.14370000000000016,-6.158238288312504
-0.14470000000000005,-6.110138104117093
-0.14570000000000016,-6.213412029007241
-0.14670000000000005,-6.248779811503867
-0.14770000000000016,-6.187947225609671
-0.14870000000000005,-6.20209433860832
-0.14970000000000017,-6.207753183807781
-0.15070000000000006,-6.117211660616419
-0.15170000000000017,-6.144091175313854
-0.15270000000000006,-6.284147594000493
-0.15370000000000017,-6.274244614901438
-0.15470000000000006,-6.200679627308456
-0.15570000000000017,-6.245950388904137
-0.15670000000000006,-6.213412029007241
-0.15770000000000017,-6.139847041414258
-0.15870000000000006,-6.204923761208051
-0.15970000000000018,-6.277074037501167
-0.16070000000000007,-6.210582606407511
-0.16170000000000018,-6.211997317707376
-0.16270000000000007,-6.2756593262013025
-0.16370000000000018,-6.237462121104946
-0.16470000000000007,-6.204923761208051
-0.16570000000000018,-6.306782974798334
-0.16670000000000007,-6.34780960249442
-0.16770000000000018,-6.260097501902788
-0.16870000000000007,-6.291221150499819
-0.16970000000000018,-6.329418355596174
-0.17070000000000007,-6.2360474098050815
-0.17170000000000019,-6.247365100204002
-0.17270000000000008,-6.346394891194555
-0.1737000000000002,-6.301124129598874
-0.17470000000000008,-6.2558533680031925
-0.1757000000000002,-6.337906623395364
-0.17670000000000008,-6.369030271992395
-0.1777000000000002,-6.301124129598874
-0.17870000000000008,-6.3534684476938805
-0.1797000000000002,-6.410056899688482
-0.18070000000000008,-6.336491912095499
-0.1817000000000002,-6.337906623395364
-0.18270000000000008,-6.428448146586726
-0.1837000000000002,-6.383177384991045
-0.1847000000000001,-6.343565468594824
-0.1857000000000002,-6.429862857886591
-0.1867000000000001,-6.441180548285512
-0.1877000000000002,-6.37327440589199
-0.1887000000000001,-6.451083527384568
-0.1897000000000002,-6.511916113278764
-0.1907000000000001,-6.453912949984297
-0.1917000000000001,-6.442595259585377
-0.19269999999999998,-6.54445447317566
-0.1937000000000001,-6.516160247178359
-0.19469999999999998,-6.470889485582678
-0.1957000000000001,-6.560016297474175
-0.19669999999999999,-6.5670898539735
-0.1977000000000001,-6.487866021181058
-0.1987,-6.5515280296749845
-0.1997000000000001,-6.615190038168912
-0.2007,-6.569919276573231
-0.2017000000000001,-6.591139946071206
-0.2027,-6.690169737061758
-0.2037000000000001,-6.660460799764593
-0.2047,-6.608116481669587
-0.2057000000000001,-6.700072716160815
-0.2067,-6.72695223085825
-0.2077000000000001,-6.651972531965402
-0.2087,-6.712805117859599
-0.2097000000000001,-6.813249620150017
-0.2107,-6.7609053020550105
-0.2117000000000001,-6.773637703753796
-0.2127,-6.861349804345428
-0.2137000000000001,-6.818908465349477
-0.2147,-6.796273084551637
-0.2157000000000001,-6.944817771037465
-0.2167,-6.983014976133821
-0.21770000000000012,-6.9306706580388155
-0.2187,-6.980185553534091
-0.21970000000000012,-7.035359294228828
-0.2207,-6.977356130934361
-0.22170000000000012,-6.998576800432337
-0.2227,-7.1216566835205946
-0.22370000000000012,-7.101850725322484
-0.2247,-7.079215344524644
-0.22570000000000012,-7.181074558114926
-0.2267,-7.212198206711958
-0.22770000000000012,-7.174001001615601
-0.22870000000000001,-7.254639545707908
-0.22970000000000013,-7.352254625398595
-0.23070000000000002,-7.315472131602105
-0.23170000000000013,-7.336692801100081
-0.23270000000000002,-7.456943261588608
-0.23370000000000013,-7.448454993789417
-0.23470000000000002,-7.439966725990228
-0.23570000000000013,-7.6069026593743025
-0.23670000000000002,-7.646514575770523
-0.2376999999999999,-7.5418259395805105
-0.23870000000000002,-7.622464483672818
-0.2396999999999999,-13.4539044617165
-0.24070000000000003,-18.122451751271118
-0.24169999999999991,-17.599008570321057
-0.24270000000000003,-11.661465244787498
-0.24369999999999992,-9.946835149351072
-0.24470000000000003,-9.24089421071842
-0.24569999999999992,-8.976343197643658
-0.24670000000000003,-8.809407264259583
-0.24769999999999992,-8.626909506576993
-0.24870000000000003,-8.617006527477939
-0.24969999999999992,-8.585882878880907
-0.25070000000000003,-8.461388284492784
-0.2516999999999999,-8.48826779919022
-0.25270000000000004,-8.650959598674698
-0.2536999999999999,-8.68774209247119
-0.25470000000000004,-8.67642440207227
-0.2556999999999999,-8.738671699266332
-0.25670000000000004,-8.762721791364037
-0.25769999999999993,-8.757062946164577
-0.25870000000000004,-8.918340034349193
-0.25969999999999993,-9.088105390332997
-0.26070000000000004,-9.10649663723124
-0.26169999999999993,-9.170158645725168
-0.26270000000000004,-9.335679867809377
-0.26369999999999993,-9.371047650306002
-0.26470000000000005,-9.450271483098444
-0.26569999999999994,-9.652575198979145
-0.26670000000000005,-9.767166814268213
-0.26769999999999994,-9.753019701269562
-0.26870000000000005,-9.900149676455525
-0.26969999999999994,-10.074159166338926
-0.27070000000000005,-10.161871266930557
-0.27169999999999994,-10.279292304819355
-0.27270000000000005,-10.456131217302488
-0.27369999999999994,-10.492913711098977
-0.27470000000000006,-10.538184472694656
-0.27569999999999995,-10.74897645637455
-0.27670000000000006,-10.889032875061186
-0.27769999999999995,-10.955524306154844
-0.27870000000000006,-11.115386683039594
-0.27969999999999995,-11.276663771224207
-0.28070000000000006,-11.333252223218809
-0.28169999999999995,-11.486041043604232
-0.28270000000000006,-11.747762634079265
-0.28369999999999995,-11.860939538068468
-0.28470000000000006,-11.897722031864959
-0.28569999999999995,-12.070316810448494
-0.28670000000000007,-12.291011773227439
-0.28769999999999996,-12.435312325813673
-0.28870000000000007,-12.63903075299424
-0.28969999999999996,-13.637816930698953
-0.29070000000000007,-20.640637865030882
-0.29169999999999996,-20.994315689997144
-0.29270000000000007,-20.881138786007945
-0.29369999999999996,-20.34354849205923
-0.2947000000000001,-18.660042045219836
-0.29569999999999996,-18.94298430519284
-0.2967000000000001,-18.88639585319824
-0.29769999999999996,-17.966833508285966
-0.2987000000000001,-16.141855931460068
-0.29969999999999997,-15.957943462477614
-0.3007000000000001,-15.759883880496508
-0.30169999999999997,-15.70329542850191
-0.3027000000000001,-15.830619445489761
-0.30369999999999997,-15.901355010483012
-0.3047000000000001,-18.49027668923603
-0.30569999999999997,-19.367397695152352
-0.3067000000000001,-19.523015938137508
-0.3077,-19.69278129412131
-0.3087000000000001,-19.112749661176647
-0.3097,-18.122451751271118
-0.3107000000000001,-18.06586329927652
-0.3117,-18.19318731626437
-0.3127000000000001,-18.433688237241427
-0.3137,-18.57515936722793
-0.3147000000000001,-18.744924723211735
-0.3157,-19.126896774175293
-0.3167000000000001,-19.4381332601456
-0.3177,-19.678634181122664
-0.3187000000000001,-20.01816489309027
-0.3197,-20.357695605057877
-0.3207000000000001,-20.584049413036283
-0.3217,-20.93772723800254
-0.3227000000000001,-21.390434853959356
-0.3237,-21.744112678925614
-0.3247000000000001,-22.111937616890522
-0.3257,-22.592939458844636
-0.3267000000000001,-22.974911509808198
-0.3277,-23.215412430785253
-0.3287000000000001,-23.61153159474746
-0.3297,-24.078386323702922
-0.3307000000000001,-25.549686075562565
-0.3317,-27.0209858274222
-0.3327000000000001,-27.671753025360115
-0.3337,-28.02543085032638
-0.3347000000000001,-28.265931771303435
-0.3357,-28.662050935265643
-0.3367000000000001,-29.114758551222454
-0.3377,-29.525024828183312
-0.3387000000000001,-30.02017378313608
-0.3397,-29.836261314153624
-0.3407000000000001,-29.34111235920086
-0.3417,-29.510877715184666
-0.3427000000000001,-29.935291105144174
-0.3437,-30.416292947098288
-0.3447000000000001,-30.982177467044306
-0.3457,-31.56220909998897
-0.3467000000000001,-31.930034037953877
-0.3477,-32.255417636922836
-0.3487000000000001,-32.8354492698675
-0.3497,-33.48621646780542
-0.3507000000000001,-34.06624810075008
-0.3517,-34.6604268466934
-0.3527000000000001,-35.254605592636715
-0.3537,-35.693166095594876
-0.3547000000000001,-36.11757948555439
-0.3557,-36.725905344496354
-0.35670000000000013,-37.32008409043967
-0.3577,-37.85767438438838
-0.35870000000000013,-38.5084415823263
-0.3597,-39.130914554266916
-0.36070000000000013,-39.654357735216976
-0.3617,-40.33341915915219
-0.3626999999999999,-41.097363261079316
-0.3637,-41.73398334601858
-0.3646999999999999,-42.31401497896325
-0.3657,-42.99307640289846
-0.3666999999999999,-43.629696487837734
-0.3677,-44.195581007783744
-0.3686999999999999,-44.90293665771627
-0.36970000000000003,-45.61029230764878
-0.3706999999999999,-46.147882601597495
-0.37170000000000003,-46.78450268653676
-0.3726999999999999,-47.54844678846388
-0.37370000000000003,-48.1992139864018
-0.3746999999999999,-48.87827541033702
-0.37570000000000003,-49.69880796425874
-0.3766999999999999,-50.448604953187214
-0.37770000000000004,-51.085225038126474
-0.3786999999999999,-51.8491691400536
-0.37970000000000004,-52.68384880697396
-0.3806999999999999,-53.405351569905136
-0.38170000000000004,-54.02782454184575
-0.38269999999999993,-54.62200328778906
-0.38370000000000004,-55.34350605072023
-0.38469999999999993,-56.27721550863116
-0.38570000000000004,-57.111895175551524
-0.38669999999999993,-57.7202210344935
-0.38770000000000004,-58.27195844144086
-0.38869999999999993,-59.07834388236393
-0.38970000000000005,-59.983759114277554
-0.39069999999999994,-60.761850329203334
-0.39170000000000005,-61.49750020513315
-0.39269999999999994,-62.30388564605621
-0.39370000000000005,-63.11027108697928
-0.39469999999999994,-63.860068075907755
-0.39570000000000005,-64.70889485582677
-0.39669999999999994,-65.52942740974851
-0.39770000000000005,-66.33581285067157
-0.39869999999999994,-67.24122808258521
-0.39970000000000006,-68.07590774950557
-0.40069999999999995,-68.75496917344077
-0.40170000000000006,-69.54720750136521
-0.40269999999999995,-70.70727076725453
-0.40370000000000006,-75.7012016557781
-0.40469999999999995,-73.3952222369981
-0.40570000000000006,-73.3952222369981
-0.40669999999999995,-74.04598943493602
-0.40770000000000006,-74.68260951987529
-0.40869999999999995,-75.50314207379701
-0.40970000000000006,-76.43685153170793
-0.41069999999999995,-77.20079563363505
-0.41170000000000007,-78.02132818755678
-0.41269999999999996,-78.88430208047446
-0.41370000000000007,-79.61995195640426
-0.41469999999999996,-80.56780852731384
-0.41570000000000007,-81.60054777621531
-0.41669999999999996,-82.40693321713839
-0.41770000000000007,-83.029406189079
-0.41869999999999996,-83.92067430799398
-0.4197000000000001,-84.99585489589141
-0.42069999999999996,-86.01444703179425
-0.4217000000000001,-86.91986226370786
-0.42269999999999996,-87.82527749562148
-0.4237000000000001,-88.47604469355939
-0.42469999999999997,-89.25413590848517
-0.4257000000000001,-90.28687515738663
-0.42669999999999997,-91.27717306729218
-0.4277000000000001,-92.18258829920579
-0.42869999999999997,-93.15873909611267
-0.4297000000000001,-94.14903700601819
-0.43069999999999997,-94.91298110794531
-0.4317000000000001,-95.67692520987244
-0.4327,-96.52575198979144
-0.4337000000000001,-97.44531433470372
-0.4347,-98.40731801861195
-0.4357000000000001,-99.41176304151614
-0.4367,-100.43035517741896
-0.4377000000000001,-101.37821174832852
-0.4387,-102.41095099723
-0.4397000000000001,-103.37295468113824
-0.4407,-104.2076343480586
-0.4417000000000001,-105.12719669297088
-0.4427,-106.13164171587505
-0.4437000000000001,-107.05120406078733
-0.4447,-107.8292952757131
-0.4457000000000001,-108.63568071663616
-0.4467,-109.4562132705579
-0.4477000000000001,-110.22015737248502
-0.4487,-111.42266197737027
-0.4497000000000001,-112.55443101726232
-0.4507,-113.67205294415571
-0.4517000000000001,-114.70479219305719
-0.4527,-115.39800072999103
-0.4537000000000001,-116.17609194491682
-0.4547,-117.4917734537913
-0.4557000000000001,-118.79330784966713
-0.4567,-119.18942701362934
-0.4577000000000001,-119.7977528725713
-0.4587,-121.24075839843364
-0.4597000000000001,-122.78279371528653
-0.4607,-124.76338953509759
-0.4617000000000001,-124.22579924114888
-0.4627,-124.9331548910814
-0.4637000000000001,-126.17810083496262
-0.4647,-127.30986987485466
-0.4657000000000001,-128.41334468874936
-0.4667,-128.93678786969946
-0.4677000000000001,-129.2904656946657
-0.4687,-130.2241751525766
-0.4697000000000001,-131.63888645244168
-0.4707,-132.95456796131617
-0.4717000000000001,-133.95901298422032
-0.4727,-134.48245616517042
-0.4737000000000001,-134.94931089412586
-0.4747,-135.76984344804757
-0.4757000000000001,-137.1845547479126
-0.4767,-138.3587651268006
-0.4777000000000001,-139.16515056772366
-0.4787,-140.48083207659815
-0.4797000000000001,-141.17404061353201
-0.4807,-141.89554337646317
-0.48170000000000013,-142.8858412863687
-0.4827,-145.00790823616626
-0.48370000000000013,-145.57379275611228
-0.4847,-146.5640906660178
-0.48570000000000013,-147.83733083589632
-0.4867,-146.8470329259908
-0.48570000000000013,-145.00790823616626
-0.4847,-143.4517258063147
-0.48370000000000013,-142.03701450644968
-0.4827,-140.82036278856575
-0.48170000000000013,-139.63200529667913
-0.4807,-138.42950069179386
-0.4797000000000001,-137.02893650492746
-0.4787,-135.65666654405837
-0.4777000000000001,-134.75125131214475
-0.4767,-133.47801114226624
-0.4757000000000001,-132.50186034535932
-0.4747,-131.29935574047406
-0.4737000000000001,-130.25246937857392
-0.4727,-128.9792292086954
-0.4717000000000001,-127.76257749081147
-0.4707,-126.77227958090594
-0.4697000000000001,-125.555627863022
-0.4687,-124.49459438812325
-0.4677000000000001,-123.4760022522204
-0.4667,-121.79249580538101
-0.4657000000000001,-121.0568459294512
-0.4647,-120.06654801954566
-0.4637000000000001,-118.93477897965363
-0.4627,-117.76056860076565
-0.4617000000000001,-116.51562265688442
