Potential V vs RHE, Current mA cm-2
0.05339999999999995,-0.022225114520879725
0.05239999999999995,-0.02324370665678255
0.051399999999999946,-0.023668120046742062
0.050399999999999945,-0.024021797871708325
0.049399999999999944,-0.02433303435767863
0.04839999999999994,-0.024601829504652988
0.04739999999999994,-0.024884771764625994
0.04639999999999994,-0.025139419798601705
0.04539999999999994,-0.02543650917157336
0.04439999999999994,-0.025705304318547718
0.04339999999999994,-0.025959952352523425
0.04239999999999994,-0.026257041725495082
0.04139999999999994,-0.026511689759470786
0.040399999999999936,-0.026794632019443793
0.039399999999999935,-0.02709172139241545
0.038399999999999934,-0.02734636942639116
0.03739999999999993,-0.027601017460366868
0.03639999999999993,-0.02788395972033987
0.03539999999999993,-0.02813860775431558
0.03439999999999993,-0.028435697127287232
0.03339999999999993,-0.028704492274261594
0.03239999999999993,-0.028973287421235953
0.03139999999999993,-0.029256229681208955
0.030399999999999927,-0.029525024828183317
0.029399999999999926,-0.02982211420115497
0.028399999999999925,-0.03010505646112798
0.027399999999999924,-0.030373851608102336
0.026399999999999924,-0.03065679386807535
0.025399999999999923,-0.030939736128048352
0.024399999999999922,-0.03120853127502271
0.02339999999999992,-0.03147732642199706
0.02239999999999992,-0.03176026868197007
0.02139999999999992,-0.03202906382894443
0.020399999999999918,-0.032340300314914736
0.019399999999999917,-0.032623242574887745
0.018399999999999916,-0.03293447906085806
0.017399999999999916,-0.03324571554682836
0.016399999999999915,-0.03352865780680137
0.015399999999999914,-0.03383989429277168
0.014399999999999913,-0.03416527789174064
0.013399999999999912,-0.034476514377710946
0.012399999999999911,-0.03478775086368125
0.01139999999999991,-0.03507069312365426
0.01039999999999991,-0.03541022383562187
0.009399999999999908,-0.03573560743459083
0.008399999999999908,-0.03606099103355979
0.007399999999999907,-0.03638637463252875
0.006399999999999906,-0.03669761111849905
0.005399999999999905,-0.03703714183046666
0.004399999999999904,-0.037390819655432915
0.003399999999999903,-0.03771620325440188
0.002399999999999902,-0.038041586853370835
0.0013999999999999013,-0.0383669704523398
0.00039999999999990044,-0.038706501164307405
-0.0006000000000001005,-0.039060178989273664
-0.0016000000000001013,-0.03938556258824262
-0.0026000000000001022,-0.03975338752620753
-0.003600000000000103,-0.04009291823817514
-0.004600000000000104,-0.0404465960631414
-0.005600000000000105,-0.04082856811410496
-0.006600000000000106,-0.041168098826072565
-0.007600000000000107,-0.04150762953804018
-0.008600000000000108,-0.04187545447600509
-0.009600000000000108,-0.04225742652696864
-0.01060000000000011,-0.04261110435193491
-0.01160000000000011,-0.04299307640289847
-0.012600000000000111,-0.043389195566860675
-0.013600000000000112,-0.043757020504825585
-0.014600000000000113,-0.044138992555789146
-0.015600000000000114,-0.04453511171975136
-0.016600000000000115,-0.04493123088371357
-0.017600000000000116,-0.045313202934677124
-0.018600000000000116,-0.045695174985640685
-0.019600000000000117,-0.046077147036604246
-0.020600000000000118,-0.0464591190875678
-0.02160000000000012,-0.04685523825153001
-0.02260000000000012,-0.047237210302493574
-0.02360000000000012,-0.047647476579454444
-0.024600000000000122,-0.048086037082412596
-0.025600000000000123,-0.0485104504723721
-0.026600000000000124,-0.04890656963633432
-0.027600000000000124,-0.04931683591329518
-0.028600000000000125,-0.04968466085126009
-0.029600000000000126,-0.05012322135421825
-0.030600000000000127,-0.050533487631179104
-0.03160000000000013,-0.05095790102113862
-0.03260000000000013,-0.051396461524096784
-0.03360000000000013,-0.05182087491405629
-0.03460000000000002,-0.052245288304015806
-0.03560000000000002,-0.052683848806973965
-0.03660000000000002,-0.05309411508393482
-0.03760000000000002,-0.053546822699891646
-0.03860000000000002,-0.05398538320284981
-0.039600000000000024,-0.054438090818806614
-0.040600000000000025,-0.05490494554776207
-0.041600000000000026,-0.05532935893772159
-0.04260000000000003,-0.0557537723276811
-0.04360000000000003,-0.05619233283063926
-0.04460000000000003,-0.056645040446596066
-0.04560000000000003,-0.05709774806255288
-0.04660000000000003,-0.05753630856551105
-0.04760000000000003,-0.057974869068469215
-0.04860000000000003,-0.05844172379742466
-0.04960000000000003,-0.05889443141338147
-0.050600000000000034,-0.05934713902933829
-0.051600000000000035,-0.05978569953229645
-0.052600000000000036,-0.06022426003525461
-0.053600000000000037,-0.06069111476421007
-0.05460000000000004,-0.06117211660616418
-0.05560000000000004,-0.06163897133511965
-0.05660000000000004,-0.06210582606407511
-0.05760000000000004,-0.06258682790602922
-0.05860000000000004,-0.06305368263498468
-0.05960000000000004,-0.0635346844769388
-0.06060000000000004,-0.0640156863188929
-0.061600000000000044,-0.06449668816084701
-0.06260000000000004,-0.06497769000280114
-0.06360000000000005,-0.06545869184475524
-0.06460000000000005,-0.065953840799708
-0.06560000000000005,-0.06640654841566482
-0.06660000000000005,-0.06687340314462027
-0.06760000000000005,-0.0673826992125717
-0.06860000000000005,-0.06782125971552985
-0.06960000000000005,-0.06834470289647993
-0.07060000000000005,-0.06882570473843404
-0.07160000000000005,-0.0692925594673895
-0.07260000000000005,-0.06975941419634496
-0.07360000000000005,-0.07022626892530041
-0.07460000000000006,-0.07073556499325184
-0.07560000000000006,-0.07124486106120324
-0.07660000000000006,-0.07172586290315736
-0.07760000000000006,-0.07222101185811013
-0.07860000000000006,-0.07268786658706558
-0.07960000000000006,-0.07318301554201835
-0.08060000000000006,-0.07366401738397246
-0.08160000000000006,-0.07414501922592658
-0.08260000000000006,-0.07462602106788069
-0.08360000000000006,-0.07512117002283344
-0.08460000000000006,-0.0756163189777862
-0.08560000000000006,-0.07609732081974033
-0.08660000000000007,-0.07656417554869578
-0.08760000000000007,-0.07701688316465259
-0.08860000000000007,-0.07751203211960536
-0.08960000000000007,-0.07799303396155947
-0.09060000000000007,-0.07848818291651223
-0.09160000000000007,-0.07896918475846634
-0.09260000000000007,-0.0794360394874218
-0.09360000000000007,-0.07988874710337862
-0.09460000000000007,-0.08034145471933543
-0.09560000000000007,-0.08082245656128956
-0.09660000000000007,-0.08128931129024501
-0.09760000000000008,-0.08175616601920047
-0.09860000000000008,-0.08223716786115459
-0.09960000000000008,-0.08270402259011005
-0.10060000000000008,-0.08315673020606687
-0.10160000000000008,-0.08359529070902501
-0.10260000000000008,-0.08403385121198319
-0.10360000000000008,-0.08444411748894404
-0.10460000000000008,-0.08492511933089815
-0.10560000000000008,-0.08537782694685496
-0.10660000000000008,-0.08580224033681448
-0.10760000000000008,-0.08625494795277128
-0.10860000000000009,-0.08666521422973215
-0.10960000000000009,-0.0871037747326903
-0.11060000000000009,-0.08752818812264983
-0.11160000000000009,-0.08788186594761609
-0.11260000000000009,-0.0883062793375756
-0.11360000000000009,-0.08868825138853914
-0.11460000000000009,-0.08915510611749461
-0.11560000000000009,-0.08959366662045277
-0.11660000000000009,-0.08998978578441498
-0.1176000000000001,-0.09038590494837719
-0.1186000000000001,-0.0907820241123394
-0.1196000000000001,-0.09117814327630162
-0.1206000000000001,-0.09157426244026382
-0.1216000000000001,-0.09194208737822873
-0.1226000000000001,-0.09230991231619365
-0.1236000000000001,-0.09269188436715721
-0.1246000000000001,-0.09307385641812077
-0.1256000000000001,-0.09345582846908432
-0.1266000000000001,-0.09382365340704923
-0.1276000000000001,-0.0941773312320155
-0.1286000000000001,-0.09451686194398311
-0.1296000000000001,-0.09487053976894937
-0.1306000000000001,-0.09522421759391562
-0.1316000000000001,-0.09553545407988592
-0.1326000000000001,-0.09587498479185352
-0.1336000000000001,-0.09618622127782384
-0.1346000000000001,-0.09652575198979144
-0.1356000000000001,-0.09685113558876042
-0.1366000000000001,-0.09714822496173206
-0.1376000000000001,-0.09743116722170508
-0.1386000000000001,-0.09769996236867944
-0.1396000000000001,-0.09802534596764839
-0.1406000000000001,-0.0983082882276214
-0.14160000000000011,-0.09857708337459577
-0.14260000000000012,-0.09884587852157012
-0.14360000000000012,-0.09911467366854448
-0.14460000000000012,-0.09936932170252018
-0.14560000000000012,-0.09962396973649587
-0.14660000000000012,-0.09986447065747293
-0.14760000000000012,-0.10011911869144864
-0.14860000000000012,-0.1003313253864284
-0.14960000000000012,-0.1005859734204041
-0.15060000000000012,-0.10082647434138116
-0.15160000000000012,-0.10102453392336228
-0.15260000000000012,-0.10123674061834202
-0.15360000000000013,-0.10142065308732448
-0.15460000000000013,-0.10161871266930558
-0.15560000000000013,-0.10184506647728399
-0.15660000000000013,-0.1020148318332678
-0.15760000000000013,-0.1021845971892516
-0.15860000000000013,-0.10234021543223674
-0.15960000000000002,-0.10250998078822056
-0.16060000000000002,-0.10267974614420436
-0.16160000000000002,-0.10280707016119221
-0.16260000000000002,-0.10294854129117871
-0.16360000000000002,-0.10307586530816658
-0.16460000000000002,-0.10321733643815308
-0.16560000000000002,-0.10340124890713552
-0.16660000000000003,-0.10354272003712203
-0.16760000000000003,-0.10362760271511394
-0.16860000000000003,-0.10374077961910314
-0.16960000000000003,-0.1038398094100937
-0.17060000000000003,-0.1039529863140829
-0.17160000000000003,-0.1040378689920748
-0.17260000000000003,-0.1041227516700667
-0.17360000000000003,-0.10419348723505996
-0.17460000000000003,-0.10425007568705455
-0.17560000000000003,-0.10433495836504646
-0.17660000000000003,-0.10437739970404242
-0.17760000000000004,-0.10441984104303836
-0.17860000000000004,-0.10447642949503295
-0.17960000000000004,-0.10453301794702756
-0.18060000000000004,-0.10456131217302486
-0.18160000000000004,-0.10460375351202081
-0.18260000000000004,-0.10461790062501947
-0.18360000000000004,-0.10463204773801811
-0.18460000000000004,-0.10466034196401541
-0.18560000000000004,-0.10467448907701406
-0.18660000000000004,-0.10466034196401541
-0.18760000000000004,-0.10467448907701406
-0.18860000000000005,-0.10466034196401541
-0.18960000000000005,-0.10467448907701406
-0.19060000000000005,-0.10464619485101677
-0.19160000000000005,-0.10464619485101677
-0.19260000000000005,-0.10460375351202081
-0.19360000000000005,-0.10457545928602352
-0.19460000000000005,-0.10454716506002622
-0.19560000000000005,-0.10451887083402892
-0.19660000000000005,-0.10447642949503295
-0.19760000000000005,-0.10444813526903567
-0.19860000000000005,-0.10437739970404242
-0.19960000000000006,-0.1043208112520478
-0.20060000000000006,-0.1042925170260505
-0.20160000000000006,-0.10422178146105725
-0.20260000000000006,-0.104151045896064
-0.20360000000000006,-0.1040661632180721
-0.20460000000000006,-0.10400957476607749
-0.20560000000000006,-0.1039529863140829
-0.20660000000000006,-0.10385395652309233
-0.20760000000000006,-0.10376907384510045
-0.20860000000000006,-0.10368419116710853
-0.20960000000000006,-0.10359930848911664
-0.21060000000000006,-0.10352857292412339
-0.21160000000000007,-0.10341539602013419
-0.21260000000000007,-0.10328807200314633
-0.21360000000000007,-0.10318904221215577
-0.21460000000000007,-0.10311830664716252
-0.21560000000000007,-0.10303342396917063
-0.21660000000000007,-0.10293439417818008
-0.21760000000000007,-0.10282121727419087
-0.21860000000000007,-0.10269389325720302
-0.21960000000000007,-0.10260901057921111
-0.22060000000000007,-0.10249583367522191
-0.22160000000000007,-0.10236850965823405
-0.22260000000000008,-0.10225533275424485
-0.22360000000000008,-0.102128008737257
-0.22460000000000008,-0.1020148318332678
-0.22560000000000008,-0.10188750781627993
-0.22660000000000008,-0.10174603668629344
-0.22760000000000008,-0.10160456555630692
-0.22860000000000008,-0.10144894731332177
-0.22960000000000008,-0.10134991752233123
-0.23060000000000008,-0.10125088773134068
-0.23160000000000008,-0.10109526948835552
-0.23260000000000008,-0.10095379835836901
-0.23360000000000009,-0.10079818011538387
-0.2346000000000001,-0.10067085609839602
-0.2356000000000001,-0.10055767919440682
-0.2366000000000001,-0.100387913838423
-0.2376000000000001,-0.1002464427084365
-0.2386000000000001,-0.10009082446545134
-0.2396000000000001,-0.09994935333546484
-0.2406000000000001,-0.09982202931847699
-0.2416000000000001,-0.09966641107549183
-0.2426000000000001,-0.09953908705850398
-0.2436000000000001,-0.09938346881551882
-0.2446000000000001,-0.09924199768553231
-0.2456000000000001,-0.09911467366854448
-0.2466000000000001,-0.09894490831256067
-0.2476000000000001,-0.09880343718257417
-0.2486000000000001,-0.09864781893958902
-0.2496000000000001,-0.09852049492260115
-0.2506000000000001,-0.09837902379261465
-0.2516000000000001,-0.0982234055496295
-0.2526000000000001,-0.0980536401936457
-0.2536000000000001,-0.0979121690636592
-0.2546000000000001,-0.09778484504667133
-0.2556000000000001,-0.09765752102968349
-0.2566000000000001,-0.09751604989969698
-0.2576000000000001,-0.09736043165671183
-0.2586000000000001,-0.09721896052672531
-0.2596000000000001,-0.09707748939673881
-0.2606000000000001,-0.09695016537975096
-0.2616000000000001,-0.0967945471367658
-0.2626000000000001,-0.0966530760067793
-0.2636000000000001,-0.09649745776379416
-0.2646000000000001,-0.09635598663380765
-0.2656000000000001,-0.09621451550382115
-0.2666000000000001,-0.09607304437383464
-0.2676000000000001,-0.09594572035684679
-0.2686000000000001,-0.09579010211386164
-0.2696000000000001,-0.09563448387087647
-0.2706000000000001,-0.09552130696688728
-0.2716000000000001,-0.09535154161090346
-0.2726000000000001,-0.09522421759391562
-0.2736000000000001,-0.09508274646392911
-0.2746000000000001,-0.09495542244694127
-0.2756000000000001,-0.0948280984299534
-0.2766000000000001,-0.09470077441296555
-0.2776000000000001,-0.09455930328297905
-0.2786000000000001,-0.0944036850399939
-0.2796000000000001,-0.0942622139100074
-0.2806000000000001,-0.0941773312320155
-0.28160000000000013,-0.09400756587603168
-0.28260000000000013,-0.09389438897204248
-0.28360000000000013,-0.09376706495505463
-0.2846,-0.09362559382506812
-0.2856,-0.09352656403407757
-0.2866,-0.09338509290409107
-0.2876,-0.09325776888710322
-0.2886,-0.09313044487011536
-0.2896,-0.09300312085312752
-0.2906,-0.09290409106213696
-0.2916,-0.09276261993215046
-0.2926,-0.09260700168916529
-0.2936,-0.09250797189817477
-0.29460000000000003,-0.09239479499418554
-0.29560000000000003,-0.09229576520319499
-0.29660000000000003,-0.09215429407320849
-0.29760000000000003,-0.09204111716921928
-0.29860000000000003,-0.09191379315223143
-0.29960000000000003,-0.09181476336124088
-0.30060000000000003,-0.09171573357025031
-0.30160000000000003,-0.09158840955326249
-0.30260000000000004,-0.09148937976227192
-0.30360000000000004,-0.09139034997128137
-0.30460000000000004,-0.09127717306729217
-0.30560000000000004,-0.09119229038930025
-0.30660000000000004,-0.09106496637231241
-0.30760000000000004,-0.09096593658132186
-0.30860000000000004,-0.09085275967733265
-0.30960000000000004,-0.09076787699934075
-0.31060000000000004,-0.09068299432134884
-0.31160000000000004,-0.09054152319136234
-0.31260000000000004,-0.09045664051337043
-0.31360000000000005,-0.0903576107223799
-0.31460000000000005,-0.09024443381839069
-0.31560000000000005,-0.09017369825339744
-0.31660000000000005,-0.09006052134940823
-0.31760000000000005,-0.08996149155841768
-0.31860000000000005,-0.08987660888042578
-0.31960000000000005,-0.08982002042843118
-0.32060000000000005,-0.08973513775043927
-0.32160000000000005,-0.08962196084645008
-0.32260000000000005,-0.08950878394246087
-0.32360000000000005,-0.08943804837746762
-0.32460000000000006,-0.08933901858647707
-0.32560000000000006,-0.08926828302148382
-0.32660000000000006,-0.08916925323049325
-0.32760000000000006,-0.08907022343950272
-0.32860000000000006,-0.08898534076151081
-0.32960000000000006,-0.08891460519651756
-0.33060000000000006,-0.08884386963152431
-0.33160000000000006,-0.08874483984053375
-0.33260000000000006,-0.08865995716254185
-0.33360000000000006,-0.0885892215975486
-0.33460000000000006,-0.0885043389195567
-0.33560000000000006,-0.08844775046756209
-0.33660000000000007,-0.08836286778957018
-0.33760000000000007,-0.08827798511157829
-0.33860000000000007,-0.08820724954658503
-0.33960000000000007,-0.08813651398159178
-0.34060000000000007,-0.08807992552959719
-0.34160000000000007,-0.08800918996460394
-0.34260000000000007,-0.08793845439961068
-0.34360000000000007,-0.08786771883461743
-0.3446000000000001,-0.08782527749562147
-0.3456000000000001,-0.08776868904362688
-0.3466000000000001,-0.08768380636563497
-0.34759999999999996,-0.08764136502663902
-0.3486000000000001,-0.08755648234864712
-0.34959999999999997,-0.08751404100965117
-0.3506000000000001,-0.0874433054446579
-0.35159999999999997,-0.08738671699266332
-0.3526000000000001,-0.08733012854066871
-0.35359999999999997,-0.08725939297567546
-0.3546000000000001,-0.08721695163667952
-0.35559999999999997,-0.08717451029768356
-0.3566000000000001,-0.0871037747326903
-0.3576,-0.08704718628069572
-0.3586000000000001,-0.0869905978287011
-0.3596,-0.0869340093767065
-0.3606000000000001,-0.0869057151507092
-0.3616,-0.08683497958571595
-0.3626000000000001,-0.08677839113372135
-0.3636,-0.0867359497947254
-0.3646000000000001,-0.08669350845572944
-0.3656,-0.08666521422973215
-0.3666000000000001,-0.0865944786647389
-0.3676,-0.08653789021274429
-0.3686000000000001,-0.08649544887374834
-0.3696,-0.08643886042175375
-0.3706000000000001,-0.08643886042175375
-0.3716,-0.08638227196975913
-0.3726000000000001,-0.08631153640476588
-0.3736,-0.08629738929176724
-0.3746000000000001,-0.08625494795277128
-0.3756,-0.08619835950077669
-0.3766000000000001,-0.08615591816178074
-0.3776,-0.08612762393578344
-0.3786000000000001,-0.08608518259678749
-0.3796,-0.08607103548378882
-0.3806000000000001,-0.08602859414479287
-0.3816,-0.08598615280579694
-0.3826000000000001,-0.08594371146680099
-0.3836,-0.08592956435380232
-0.3846000000000001,-0.08590127012780503
-0.3856,-0.08587297590180773
-0.3866000000000001,-0.08584468167581043
-0.3876,-0.08580224033681448
-0.3886000000000001,-0.0857597989978185
-0.3896,-0.08574565188481988
-0.3906000000000001,-0.08574565188481988
-0.3916,-0.08568906343282526
-0.3926000000000001,-0.08567491631982663
-0.3936,-0.08566076920682797
-0.3946000000000001,-0.08564662209382931
-0.3956,-0.08564662209382931
-0.3966000000000001,-0.08563247498083068
-0.3976,-0.08560418075483338
-0.3986000000000001,-0.08559003364183472
-0.3996,-0.08557588652883606
-0.4006000000000001,-0.08557588652883606
-0.4016,-0.08554759230283876
-0.4026000000000001,-0.08553344518984012
-0.4036,-0.08553344518984012
-0.4046000000000001,-0.08551929807684147
-0.4056,-0.08553344518984012
-0.40660000000000013,-0.08551929807684147
-0.4076,-0.08547685673784551
-0.40860000000000013,-0.08549100385084417
-0.4096,-0.08549100385084417
-0.41060000000000013,-0.08549100385084417
-0.4116,-0.08550515096384281
-0.41260000000000013,-0.08547685673784551
-0.4136,-0.08549100385084417
-0.41460000000000014,-0.08550515096384281
-0.4156,-0.08553344518984012
-0.41660000000000014,-0.08551929807684147
-0.4176,-0.08550515096384281
-0.41860000000000014,-0.08553344518984012
-0.41960000000000003,-0.08553344518984012
-0.42060000000000014,-0.08554759230283876
-0.42160000000000003,-0.08556173941583743
-0.42260000000000014,-0.08557588652883606
-0.42360000000000003,-0.08559003364183472
-0.42460000000000014,-0.08561832786783201
-0.42560000000000003,-0.08561832786783201
-0.42660000000000015,-0.08564662209382931
-0.42760000000000004,-0.08566076920682797
-0.42860000000000015,-0.08566076920682797
-0.42960000000000004,-0.08567491631982663
-0.43060000000000015,-0.08570321054582393
-0.43160000000000004,-0.08571735765882257
-0.43260000000000015,-0.08574565188481988
-0.43360000000000004,-0.0857597989978185
-0.43460000000000015,-0.08578809322381582
-0.43560000000000004,-0.08583053456281178
