Mar. 6, 2025   23:40:29
Linear Sweep Voltammetry
File: c:/users/guazh/data/banditlqround7_x0exp169_r20_3/2025-03-03-exp892\1acid_3ac-2025-03-06t23_37_16-lsvinphos\1acid_3ac_lsv_50mvs_efin_-2300mv.bin
Data Source:  Experiment
Instrument Model:  CHI760E
Header: LSV ran at 50 mVs with Efin at -2300mV
Note: 

Init E (V) = -0.6
Final E (V) = -2.3
Scan Rate (V/s) = 0.05
Sample Interval (V) = 0.001
Quiet Time (sec) = 2
Sensitivity (A/V) = 1e-4
Comp R (ohm) = 8.6

Results:

Channel 1:
Ep = -1.873V
ip = 6.757e-4A
Ah = 8.872e-4C

Potential/V, Current/A

-0.600, 5.137e-6
-0.601, 5.308e-6
-0.602, 5.373e-6
-0.603, 5.420e-6
-0.604, 5.461e-6
-0.605, 5.502e-6
-0.606, 5.545e-6
-0.607, 5.581e-6
-0.608, 5.616e-6
-0.609, 5.649e-6
-0.610, 5.683e-6
-0.611, 5.721e-6
-0.612, 5.754e-6
-0.613, 5.784e-6
-0.614, 5.819e-6
-0.615, 5.853e-6
-0.616, 5.885e-6
-0.617, 5.915e-6
-0.618, 5.941e-6
-0.619, 5.971e-6
-0.620, 6.002e-6
-0.621, 6.035e-6
-0.622, 6.064e-6
-0.623, 6.089e-6
-0.624, 6.119e-6
-0.625, 6.149e-6
-0.626, 6.176e-6
-0.627, 6.204e-6
-0.628, 6.230e-6
-0.629, 6.253e-6
-0.630, 6.282e-6
-0.631, 6.311e-6
-0.632, 6.337e-6
-0.633, 6.362e-6
-0.634, 6.386e-6
-0.635, 6.415e-6
-0.636, 6.442e-6
-0.637, 6.466e-6
-0.638, 6.488e-6
-0.639, 6.512e-6
-0.640, 6.537e-6
-0.641, 6.564e-6
-0.642, 6.587e-6
-0.643, 6.608e-6
-0.644, 6.630e-6
-0.645, 6.653e-6
-0.646, 6.679e-6
-0.647, 6.699e-6
-0.648, 6.719e-6
-0.649, 6.740e-6
-0.650, 6.761e-6
-0.651, 6.784e-6
-0.652, 6.803e-6
-0.653, 6.822e-6
-0.654, 6.842e-6
-0.655, 6.861e-6
-0.656, 6.882e-6
-0.657, 6.899e-6
-0.658, 6.914e-6
-0.659, 6.932e-6
-0.660, 6.952e-6
-0.661, 6.970e-6
-0.662, 6.989e-6
-0.663, 7.002e-6
-0.664, 7.017e-6
-0.665, 7.035e-6
-0.666, 7.055e-6
-0.667, 7.068e-6
-0.668, 7.082e-6
-0.669, 7.095e-6
-0.670, 7.110e-6
-0.671, 7.126e-6
-0.672, 7.139e-6
-0.673, 7.151e-6
-0.674, 7.163e-6
-0.675, 7.177e-6
-0.676, 7.192e-6
-0.677, 7.202e-6
-0.678, 7.213e-6
-0.679, 7.223e-6
-0.680, 7.235e-6
-0.681, 7.248e-6
-0.682, 7.255e-6
-0.683, 7.265e-6
-0.684, 7.273e-6
-0.685, 7.284e-6
-0.686, 7.296e-6
-0.687, 7.302e-6
-0.688, 7.309e-6
-0.689, 7.317e-6
-0.690, 7.326e-6
-0.691, 7.337e-6
-0.692, 7.343e-6
-0.693, 7.347e-6
-0.694, 7.353e-6
-0.695, 7.361e-6
-0.696, 7.369e-6
-0.697, 7.376e-6
-0.698, 7.378e-6
-0.699, 7.384e-6
-0.700, 7.390e-6
-0.701, 7.396e-6
-0.702, 7.400e-6
-0.703, 7.403e-6
-0.704, 7.407e-6
-0.705, 7.413e-6
-0.706, 7.417e-6
-0.707, 7.420e-6
-0.708, 7.422e-6
-0.709, 7.423e-6
-0.710, 7.430e-6
-0.711, 7.434e-6
-0.712, 7.434e-6
-0.713, 7.437e-6
-0.714, 7.435e-6
-0.715, 7.440e-6
-0.716, 7.444e-6
-0.717, 7.445e-6
-0.718, 7.444e-6
-0.719, 7.444e-6
-0.720, 7.446e-6
-0.721, 7.450e-6
-0.722, 7.448e-6
-0.723, 7.448e-6
-0.724, 7.447e-6
-0.725, 7.448e-6
-0.726, 7.452e-6
-0.727, 7.447e-6
-0.728, 7.446e-6
-0.729, 7.447e-6
-0.730, 7.447e-6
-0.731, 7.449e-6
-0.732, 7.447e-6
-0.733, 7.444e-6
-0.734, 7.444e-6
-0.735, 7.444e-6
-0.736, 7.444e-6
-0.737, 7.444e-6
-0.738, 7.439e-6
-0.739, 7.437e-6
-0.740, 7.438e-6
-0.741, 7.437e-6
-0.742, 7.435e-6
-0.743, 7.433e-6
-0.744, 7.430e-6
-0.745, 7.431e-6
-0.746, 7.430e-6
-0.747, 7.427e-6
-0.748, 7.425e-6
-0.749, 7.422e-6
-0.750, 7.422e-6
-0.751, 7.421e-6
-0.752, 7.418e-6
-0.753, 7.417e-6
-0.754, 7.413e-6
-0.755, 7.415e-6
-0.756, 7.414e-6
-0.757, 7.410e-6
-0.758, 7.408e-6
-0.759, 7.405e-6
-0.760, 7.404e-6
-0.761, 7.405e-6
-0.762, 7.401e-6
-0.763, 7.400e-6
-0.764, 7.397e-6
-0.765, 7.396e-6
-0.766, 7.397e-6
-0.767, 7.394e-6
-0.768, 7.395e-6
-0.769, 7.393e-6
-0.770, 7.390e-6
-0.771, 7.392e-6
-0.772, 7.389e-6
-0.773, 7.387e-6
-0.774, 7.385e-6
-0.775, 7.384e-6
-0.776, 7.387e-6
-0.777, 7.385e-6
-0.778, 7.382e-6
-0.779, 7.381e-6
-0.780, 7.383e-6
-0.781, 7.382e-6
-0.782, 7.382e-6
-0.783, 7.380e-6
-0.784, 7.379e-6
-0.785, 7.380e-6
-0.786, 7.382e-6
-0.787, 7.381e-6
-0.788, 7.381e-6
-0.789, 7.379e-6
-0.790, 7.382e-6
-0.791, 7.382e-6
-0.792, 7.382e-6
-0.793, 7.383e-6
-0.794, 7.381e-6
-0.795, 7.385e-6
-0.796, 7.387e-6
-0.797, 7.385e-6
-0.798, 7.387e-6
-0.799, 7.387e-6
-0.800, 7.390e-6
-0.801, 7.395e-6
-0.802, 7.393e-6
-0.803, 7.394e-6
-0.804, 7.395e-6
-0.805, 7.399e-6
-0.806, 7.403e-6
-0.807, 7.404e-6
-0.808, 7.405e-6
-0.809, 7.407e-6
-0.810, 7.410e-6
-0.811, 7.415e-6
-0.812, 7.417e-6
-0.813, 7.420e-6
-0.814, 7.422e-6
-0.815, 7.426e-6
-0.816, 7.430e-6
-0.817, 7.433e-6
-0.818, 7.435e-6
-0.819, 7.443e-6
-0.820, 7.451e-6
-0.821, 7.453e-6
-0.822, 7.454e-6
-0.823, 7.457e-6
-0.824, 7.461e-6
-0.825, 7.468e-6
-0.826, 7.473e-6
-0.827, 7.477e-6
-0.828, 7.481e-6
-0.829, 7.484e-6
-0.830, 7.491e-6
-0.831, 7.497e-6
-0.832, 7.502e-6
-0.833, 7.506e-6
-0.834, 7.510e-6
-0.835, 7.518e-6
-0.836, 7.525e-6
-0.837, 7.528e-6
-0.838, 7.534e-6
-0.839, 7.539e-6
-0.840, 7.547e-6
-0.841, 7.556e-6
-0.842, 7.560e-6
-0.843, 7.565e-6
-0.844, 7.572e-6
-0.845, 7.580e-6
-0.846, 7.589e-6
-0.847, 7.593e-6
-0.848, 7.601e-6
-0.849, 7.608e-6
-0.850, 7.616e-6
-0.851, 7.625e-6
-0.852, 7.631e-6
-0.853, 7.636e-6
-0.854, 7.645e-6
-0.855, 7.653e-6
-0.856, 7.663e-6
-0.857, 7.670e-6
-0.858, 7.676e-6
-0.859, 7.684e-6
-0.860, 7.694e-6
-0.861, 7.704e-6
-0.862, 7.711e-6
-0.863, 7.719e-6
-0.864, 7.727e-6
-0.865, 7.738e-6
-0.866, 7.746e-6
-0.867, 7.755e-6
-0.868, 7.762e-6
-0.869, 7.770e-6
-0.870, 7.782e-6
-0.871, 7.794e-6
-0.872, 7.800e-6
-0.873, 7.809e-6
-0.874, 7.816e-6
-0.875, 7.829e-6
-0.876, 7.838e-6
-0.877, 7.846e-6
-0.878, 7.855e-6
-0.879, 7.863e-6
-0.880, 7.874e-6
-0.881, 7.885e-6
-0.882, 7.891e-6
-0.883, 7.901e-6
-0.884, 7.911e-6
-0.885, 7.922e-6
-0.886, 7.932e-6
-0.887, 7.940e-6
-0.888, 7.951e-6
-0.889, 7.960e-6
-0.890, 7.971e-6
-0.891, 7.981e-6
-0.892, 7.991e-6
-0.893, 7.999e-6
-0.894, 8.009e-6
-0.895, 8.019e-6
-0.896, 8.029e-6
-0.897, 8.040e-6
-0.898, 8.047e-6
-0.899, 8.055e-6
-0.900, 8.069e-6
-0.901, 8.077e-6
-0.902, 8.086e-6
-0.903, 8.094e-6
-0.904, 8.102e-6
-0.905, 8.115e-6
-0.906, 8.123e-6
-0.907, 8.133e-6
-0.908, 8.140e-6
-0.909, 8.152e-6
-0.910, 8.162e-6
-0.911, 8.173e-6
-0.912, 8.179e-6
-0.913, 8.188e-6
-0.914, 8.197e-6
-0.915, 8.211e-6
-0.916, 8.220e-6
-0.917, 8.228e-6
-0.918, 8.237e-6
-0.919, 8.246e-6
-0.920, 8.257e-6
-0.921, 8.267e-6
-0.922, 8.272e-6
-0.923, 8.281e-6
-0.924, 8.290e-6
-0.925, 8.301e-6
-0.926, 8.309e-6
-0.927, 8.313e-6
-0.928, 8.323e-6
-0.929, 8.332e-6
-0.930, 8.340e-6
-0.931, 8.349e-6
-0.932, 8.355e-6
-0.933, 8.362e-6
-0.934, 8.370e-6
-0.935, 8.379e-6
-0.936, 8.387e-6
-0.937, 8.393e-6
-0.938, 8.399e-6
-0.939, 8.406e-6
-0.940, 8.415e-6
-0.941, 8.422e-6
-0.942, 8.429e-6
-0.943, 8.433e-6
-0.944, 8.441e-6
-0.945, 8.449e-6
-0.946, 8.455e-6
-0.947, 8.461e-6
-0.948, 8.467e-6
-0.949, 8.472e-6
-0.950, 8.483e-6
-0.951, 8.487e-6
-0.952, 8.491e-6
-0.953, 8.497e-6
-0.954, 8.502e-6
-0.955, 8.510e-6
-0.956, 8.517e-6
-0.957, 8.518e-6
-0.958, 8.524e-6
-0.959, 8.528e-6
-0.960, 8.536e-6
-0.961, 8.541e-6
-0.962, 8.542e-6
-0.963, 8.547e-6
-0.964, 8.552e-6
-0.965, 8.557e-6
-0.966, 8.562e-6
-0.967, 8.565e-6
-0.968, 8.568e-6
-0.969, 8.572e-6
-0.970, 8.575e-6
-0.971, 8.581e-6
-0.972, 8.583e-6
-0.973, 8.587e-6
-0.974, 8.590e-6
-0.975, 8.594e-6
-0.976, 8.597e-6
-0.977, 8.598e-6
-0.978, 8.600e-6
-0.979, 8.603e-6
-0.980, 8.608e-6
-0.981, 8.609e-6
-0.982, 8.611e-6
-0.983, 8.611e-6
-0.984, 8.615e-6
-0.985, 8.619e-6
-0.986, 8.620e-6
-0.987, 8.622e-6
-0.988, 8.622e-6
-0.989, 8.623e-6
-0.990, 8.627e-6
-0.991, 8.627e-6
-0.992, 8.628e-6
-0.993, 8.629e-6
-0.994, 8.630e-6
-0.995, 8.634e-6
-0.996, 8.635e-6
-0.997, 8.633e-6
-0.998, 8.636e-6
-0.999, 8.635e-6
-1.000, 8.637e-6
-1.001, 8.639e-6
-1.002, 8.637e-6
-1.003, 8.638e-6
-1.004, 8.639e-6
-1.005, 8.640e-6
-1.006, 8.641e-6
-1.007, 8.640e-6
-1.008, 8.638e-6
-1.009, 8.640e-6
-1.010, 8.641e-6
-1.011, 8.641e-6
-1.012, 8.639e-6
-1.013, 8.638e-6
-1.014, 8.640e-6
-1.015, 8.640e-6
-1.016, 8.640e-6
-1.017, 8.640e-6
-1.018, 8.638e-6
-1.019, 8.638e-6
-1.020, 8.639e-6
-1.021, 8.637e-6
-1.022, 8.636e-6
-1.023, 8.634e-6
-1.024, 8.637e-6
-1.025, 8.638e-6
-1.026, 8.635e-6
-1.027, 8.635e-6
-1.028, 8.633e-6
-1.029, 8.630e-6
-1.030, 8.633e-6
-1.031, 8.631e-6
-1.032, 8.628e-6
-1.033, 8.627e-6
-1.034, 8.625e-6
-1.035, 8.627e-6
-1.036, 8.627e-6
-1.037, 8.624e-6
-1.038, 8.622e-6
-1.039, 8.622e-6
-1.040, 8.623e-6
-1.041, 8.623e-6
-1.042, 8.618e-6
-1.043, 8.618e-6
-1.044, 8.616e-6
-1.045, 8.617e-6
-1.046, 8.616e-6
-1.047, 8.614e-6
-1.048, 8.612e-6
-1.049, 8.611e-6
-1.050, 8.613e-6
-1.051, 8.611e-6
-1.052, 8.609e-6
-1.053, 8.607e-6
-1.054, 8.608e-6
-1.055, 8.607e-6
-1.056, 8.606e-6
-1.057, 8.605e-6
-1.058, 8.602e-6
-1.059, 8.601e-6
-1.060, 8.603e-6
-1.061, 8.601e-6
-1.062, 8.600e-6
-1.063, 8.598e-6
-1.064, 8.598e-6
-1.065, 8.599e-6
-1.066, 8.596e-6
-1.067, 8.595e-6
-1.068, 8.594e-6
-1.069, 8.593e-6
-1.070, 8.595e-6
-1.071, 8.592e-6
-1.072, 8.591e-6
-1.073, 8.592e-6
-1.074, 8.590e-6
-1.075, 8.593e-6
-1.076, 8.593e-6
-1.077, 8.590e-6
-1.078, 8.590e-6
-1.079, 8.590e-6
-1.080, 8.591e-6
-1.081, 8.592e-6
-1.082, 8.590e-6
-1.083, 8.588e-6
-1.084, 8.588e-6
-1.085, 8.590e-6
-1.086, 8.590e-6
-1.087, 8.589e-6
-1.088, 8.590e-6
-1.089, 8.591e-6
-1.090, 8.591e-6
-1.091, 8.590e-6
-1.092, 8.588e-6
-1.093, 8.587e-6
-1.094, 8.589e-6
-1.095, 8.592e-6
-1.096, 8.592e-6
-1.097, 8.591e-6
-1.098, 8.591e-6
-1.099, 8.594e-6
-1.100, 8.597e-6
-1.101, 8.598e-6
-1.102, 8.599e-6
-1.103, 8.598e-6
-1.104, 8.600e-6
-1.105, 8.605e-6
-1.106, 8.604e-6
-1.107, 8.604e-6
-1.108, 8.606e-6
-1.109, 8.607e-6
-1.110, 8.611e-6
-1.111, 8.611e-6
-1.112, 8.612e-6
-1.113, 8.615e-6
-1.114, 8.617e-6
-1.115, 8.620e-6
-1.116, 8.622e-6
-1.117, 8.621e-6
-1.118, 8.624e-6
-1.119, 8.627e-6
-1.120, 8.632e-6
-1.121, 8.634e-6
-1.122, 8.635e-6
-1.123, 8.638e-6
-1.124, 8.640e-6
-1.125, 8.644e-6
-1.126, 8.648e-6
-1.127, 8.648e-6
-1.128, 8.650e-6
-1.129, 8.654e-6
-1.130, 8.657e-6
-1.131, 8.660e-6
-1.132, 8.662e-6
-1.133, 8.663e-6
-1.134, 8.669e-6
-1.135, 8.673e-6
-1.136, 8.677e-6
-1.137, 8.679e-6
-1.138, 8.680e-6
-1.139, 8.684e-6
-1.140, 8.690e-6
-1.141, 8.692e-6
-1.142, 8.694e-6
-1.143, 8.695e-6
-1.144, 8.699e-6
-1.145, 8.706e-6
-1.146, 8.707e-6
-1.147, 8.712e-6
-1.148, 8.714e-6
-1.149, 8.718e-6
-1.150, 8.724e-6
-1.151, 8.724e-6
-1.152, 8.728e-6
-1.153, 8.730e-6
-1.154, 8.733e-6
-1.155, 8.740e-6
-1.156, 8.743e-6
-1.157, 8.744e-6
-1.158, 8.748e-6
-1.159, 8.751e-6
-1.160, 8.756e-6
-1.161, 8.759e-6
-1.162, 8.760e-6
-1.163, 8.763e-6
-1.164, 8.768e-6
-1.165, 8.774e-6
-1.166, 8.776e-6
-1.167, 8.778e-6
-1.168, 8.779e-6
-1.169, 8.786e-6
-1.170, 8.791e-6
-1.171, 8.792e-6
-1.172, 8.795e-6
-1.173, 8.796e-6
-1.174, 8.801e-6
-1.175, 8.805e-6
-1.176, 8.807e-6
-1.177, 8.810e-6
-1.178, 8.814e-6
-1.179, 8.815e-6
-1.180, 8.819e-6
-1.181, 8.820e-6
-1.182, 8.821e-6
-1.183, 8.823e-6
-1.184, 8.827e-6
-1.185, 8.831e-6
-1.186, 8.831e-6
-1.187, 8.832e-6
-1.188, 8.833e-6
-1.189, 8.836e-6
-1.190, 8.840e-6
-1.191, 8.840e-6
-1.192, 8.841e-6
-1.193, 8.842e-6
-1.194, 8.844e-6
-1.195, 8.847e-6
-1.196, 8.848e-6
-1.197, 8.849e-6
-1.198, 8.850e-6
-1.199, 8.852e-6
-1.200, 8.853e-6
-1.201, 8.854e-6
-1.202, 8.855e-6
-1.203, 8.857e-6
-1.204, 8.859e-6
-1.205, 8.862e-6
-1.206, 8.864e-6
-1.207, 8.864e-6
-1.208, 8.864e-6
-1.209, 8.869e-6
-1.210, 8.872e-6
-1.211, 8.872e-6
-1.212, 8.873e-6
-1.213, 8.875e-6
-1.214, 8.879e-6
-1.215, 8.882e-6
-1.216, 8.883e-6
-1.217, 8.885e-6
-1.218, 8.884e-6
-1.219, 8.888e-6
-1.220, 8.892e-6
-1.221, 8.892e-6
-1.222, 8.895e-6
-1.223, 8.895e-6
-1.224, 8.898e-6
-1.225, 8.904e-6
-1.226, 8.905e-6
-1.227, 8.907e-6
-1.228, 8.908e-6
-1.229, 8.919e-6
-1.230, 8.922e-6
-1.231, 8.921e-6
-1.232, 8.923e-6
-1.233, 8.927e-6
-1.234, 8.930e-6
-1.235, 8.935e-6
-1.236, 8.936e-6
-1.237, 8.939e-6
-1.238, 8.943e-6
-1.239, 8.946e-6
-1.240, 8.953e-6
-1.241, 8.956e-6
-1.242, 8.958e-6
-1.243, 8.963e-6
-1.244, 8.968e-6
-1.245, 8.974e-6
-1.246, 8.977e-6
-1.247, 8.979e-6
-1.248, 8.984e-6
-1.249, 8.990e-6
-1.250, 8.995e-6
-1.251, 8.999e-6
-1.252, 9.004e-6
-1.253, 9.005e-6
-1.254, 9.014e-6
-1.255, 9.020e-6
-1.256, 9.023e-6
-1.257, 9.030e-6
-1.258, 9.036e-6
-1.259, 9.041e-6
-1.260, 9.049e-6
-1.261, 9.054e-6
-1.262, 9.059e-6
-1.263, 9.065e-6
-1.264, 9.073e-6
-1.265, 9.082e-6
-1.266, 9.086e-6
-1.267, 9.094e-6
-1.268, 9.101e-6
-1.269, 9.108e-6
-1.270, 9.118e-6
-1.271, 9.123e-6
-1.272, 9.129e-6
-1.273, 9.136e-6
-1.274, 9.146e-6
-1.275, 9.155e-6
-1.276, 9.163e-6
-1.277, 9.170e-6
-1.278, 9.178e-6
-1.279, 9.186e-6
-1.280, 9.200e-6
-1.281, 9.208e-6
-1.282, 9.213e-6
-1.283, 9.222e-6
-1.284, 9.233e-6
-1.285, 9.243e-6
-1.286, 9.252e-6
-1.287, 9.261e-6
-1.288, 9.271e-6
-1.289, 9.284e-6
-1.290, 9.294e-6
-1.291, 9.304e-6
-1.292, 9.313e-6
-1.293, 9.325e-6
-1.294, 9.336e-6
-1.295, 9.346e-6
-1.296, 9.355e-6
-1.297, 9.363e-6
-1.298, 9.373e-6
-1.299, 9.386e-6
-1.300, 9.396e-6
-1.301, 9.406e-6
-1.302, 9.419e-6
-1.303, 9.430e-6
-1.304, 9.443e-6
-1.305, 9.458e-6
-1.306, 9.478e-6
-1.307, 9.493e-6
-1.308, 9.501e-6
-1.309, 9.514e-6
-1.310, 9.529e-6
-1.311, 9.538e-6
-1.312, 9.552e-6
-1.313, 9.571e-6
-1.314, 9.600e-6
-1.315, 9.610e-6
-1.316, 9.622e-6
-1.317, 9.627e-6
-1.318, 9.631e-6
-1.319, 9.641e-6
-1.320, 9.655e-6
-1.321, 9.668e-6
-1.322, 9.688e-6
-1.323, 9.708e-6
-1.324, 9.727e-6
-1.325, 9.745e-6
-1.326, 9.759e-6
-1.327, 9.773e-6
-1.328, 9.787e-6
-1.329, 9.806e-6
-1.330, 9.824e-6
-1.331, 9.835e-6
-1.332, 9.850e-6
-1.333, 9.865e-6
-1.334, 9.872e-6
-1.335, 9.885e-6
-1.336, 9.902e-6
-1.337, 9.919e-6
-1.338, 9.937e-6
-1.339, 9.955e-6
-1.340, 9.971e-6
-1.341, 9.986e-6
-1.342, 1.000e-5
-1.343, 1.002e-5
-1.344, 1.004e-5
-1.345, 1.006e-5
-1.346, 1.007e-5
-1.347, 1.009e-5
-1.348, 1.011e-5
-1.349, 1.013e-5
-1.350, 1.014e-5
-1.351, 1.016e-5
-1.352, 1.018e-5
-1.353, 1.020e-5
-1.354, 1.021e-5
-1.355, 1.024e-5
-1.356, 1.026e-5
-1.357, 1.027e-5
-1.358, 1.029e-5
-1.359, 1.032e-5
-1.360, 1.034e-5
-1.361, 1.036e-5
-1.362, 1.038e-5
-1.363, 1.040e-5
-1.364, 1.043e-5
-1.365, 1.045e-5
-1.366, 1.047e-5
-1.367, 1.049e-5
-1.368, 1.051e-5
-1.369, 1.054e-5
-1.370, 1.056e-5
-1.371, 1.058e-5
-1.372, 1.061e-5
-1.373, 1.063e-5
-1.374, 1.066e-5
-1.375, 1.069e-5
-1.376, 1.071e-5
-1.377, 1.073e-5
-1.378, 1.075e-5
-1.379, 1.078e-5
-1.380, 1.082e-5
-1.381, 1.084e-5
-1.382, 1.087e-5
-1.383, 1.089e-5
-1.384, 1.092e-5
-1.385, 1.095e-5
-1.386, 1.097e-5
-1.387, 1.100e-5
-1.388, 1.103e-5
-1.389, 1.106e-5
-1.390, 1.109e-5
-1.391, 1.112e-5
-1.392, 1.115e-5
-1.393, 1.118e-5
-1.394, 1.121e-5
-1.395, 1.124e-5
-1.396, 1.127e-5
-1.397, 1.131e-5
-1.398, 1.134e-5
-1.399, 1.137e-5
-1.400, 1.141e-5
-1.401, 1.144e-5
-1.402, 1.147e-5
-1.403, 1.150e-5
-1.404, 1.154e-5
-1.405, 1.157e-5
-1.406, 1.161e-5
-1.407, 1.164e-5
-1.408, 1.168e-5
-1.409, 1.172e-5
-1.410, 1.176e-5
-1.411, 1.180e-5
-1.412, 1.184e-5
-1.413, 1.187e-5
-1.414, 1.192e-5
-1.415, 1.196e-5
-1.416, 1.200e-5
-1.417, 1.203e-5
-1.418, 1.206e-5
-1.419, 1.211e-5
-1.420, 1.215e-5
-1.421, 1.219e-5
-1.422, 1.224e-5
-1.423, 1.228e-5
-1.424, 1.233e-5
-1.425, 1.238e-5
-1.426, 1.242e-5
-1.427, 1.247e-5
-1.428, 1.252e-5
-1.429, 1.257e-5
-1.430, 1.262e-5
-1.431, 1.267e-5
-1.432, 1.273e-5
-1.433, 1.278e-5
-1.434, 1.284e-5
-1.435, 1.289e-5
-1.436, 1.295e-5
-1.437, 1.300e-5
-1.438, 1.306e-5
-1.439, 1.312e-5
-1.440, 1.318e-5
-1.441, 1.324e-5
-1.442, 1.330e-5
-1.443, 1.336e-5
-1.444, 1.343e-5
-1.445, 1.349e-5
-1.446, 1.356e-5
-1.447, 1.363e-5
-1.448, 1.369e-5
-1.449, 1.376e-5
-1.450, 1.383e-5
-1.451, 1.390e-5
-1.452, 1.397e-5
-1.453, 1.405e-5
-1.454, 1.412e-5
-1.455, 1.420e-5
-1.456, 1.428e-5
-1.457, 1.435e-5
-1.458, 1.443e-5
-1.459, 1.451e-5
-1.460, 1.460e-5
-1.461, 1.468e-5
-1.462, 1.477e-5
-1.463, 1.485e-5
-1.464, 1.494e-5
-1.465, 1.504e-5
-1.466, 1.513e-5
-1.467, 1.522e-5
-1.468, 1.531e-5
-1.469, 1.541e-5
-1.470, 1.552e-5
-1.471, 1.562e-5
-1.472, 1.572e-5
-1.473, 1.583e-5
-1.474, 1.593e-5
-1.475, 1.605e-5
-1.476, 1.616e-5
-1.477, 1.627e-5
-1.478, 1.639e-5
-1.479, 1.650e-5
-1.480, 1.662e-5
-1.481, 1.675e-5
-1.482, 1.687e-5
-1.483, 1.699e-5
-1.484, 1.712e-5
-1.485, 1.726e-5
-1.486, 1.739e-5
-1.487, 1.752e-5
-1.488, 1.766e-5
-1.489, 1.781e-5
-1.490, 1.795e-5
-1.491, 1.809e-5
-1.492, 1.824e-5
-1.493, 1.838e-5
-1.494, 1.854e-5
-1.495, 1.870e-5
-1.496, 1.886e-5
-1.497, 1.903e-5
-1.498, 1.920e-5
-1.499, 1.937e-5
-1.500, 1.954e-5
-1.501, 1.971e-5
-1.502, 1.989e-5
-1.503, 2.007e-5
-1.504, 2.025e-5
-1.505, 2.044e-5
-1.506, 2.063e-5
-1.507, 2.083e-5
-1.508, 2.103e-5
-1.509, 2.124e-5
-1.510, 2.145e-5
-1.511, 2.166e-5
-1.512, 2.187e-5
-1.513, 2.209e-5
-1.514, 2.231e-5
-1.515, 2.254e-5
-1.516, 2.277e-5
-1.517, 2.300e-5
-1.518, 2.324e-5
-1.519, 2.349e-5
-1.520, 2.374e-5
-1.521, 2.399e-5
-1.522, 2.425e-5
-1.523, 2.451e-5
-1.524, 2.478e-5
-1.525, 2.505e-5
-1.526, 2.532e-5
-1.527, 2.560e-5
-1.528, 2.588e-5
-1.529, 2.617e-5
-1.530, 2.647e-5
-1.531, 2.677e-5
-1.532, 2.707e-5
-1.533, 2.738e-5
-1.534, 2.769e-5
-1.535, 2.800e-5
-1.536, 2.832e-5
-1.537, 2.865e-5
-1.538, 2.897e-5
-1.539, 2.931e-5
-1.540, 2.967e-5
-1.541, 3.001e-5
-1.542, 3.036e-5
-1.543, 3.072e-5
-1.544, 3.109e-5
-1.545, 3.146e-5
-1.546, 3.183e-5
-1.547, 3.222e-5
-1.548, 3.260e-5
-1.549, 3.300e-5
-1.550, 3.340e-5
-1.551, 3.379e-5
-1.552, 3.419e-5
-1.553, 3.461e-5
-1.554, 3.503e-5
-1.555, 3.546e-5
-1.556, 3.588e-5
-1.557, 3.632e-5
-1.558, 3.676e-5
-1.559, 3.721e-5
-1.560, 3.766e-5
-1.561, 3.812e-5
-1.562, 3.857e-5
-1.563, 3.904e-5
-1.564, 3.952e-5
-1.565, 4.000e-5
-1.566, 4.049e-5
-1.567, 4.098e-5
-1.568, 4.148e-5
-1.569, 4.199e-5
-1.570, 4.250e-5
-1.571, 4.301e-5
-1.572, 4.353e-5
-1.573, 4.403e-5
-1.574, 4.456e-5
-1.575, 4.509e-5
-1.576, 4.563e-5
-1.577, 4.617e-5
-1.578, 4.672e-5
-1.579, 4.728e-5
-1.580, 4.785e-5
-1.581, 4.842e-5
-1.582, 4.900e-5
-1.583, 4.957e-5
-1.584, 5.016e-5
-1.585, 5.076e-5
-1.586, 5.136e-5
-1.587, 5.196e-5
-1.588, 5.257e-5
-1.589, 5.318e-5
-1.590, 5.380e-5
-1.591, 5.442e-5
-1.592, 5.506e-5
-1.593, 5.570e-5
-1.594, 5.635e-5
-1.595, 5.701e-5
-1.596, 5.765e-5
-1.597, 5.831e-5
-1.598, 5.898e-5
-1.599, 5.965e-5
-1.600, 6.033e-5
-1.601, 6.102e-5
-1.602, 6.170e-5
-1.603, 6.240e-5
-1.604, 6.310e-5
-1.605, 6.382e-5
-1.606, 6.454e-5
-1.607, 6.526e-5
-1.608, 6.600e-5
-1.609, 6.674e-5
-1.610, 6.749e-5
-1.611, 6.823e-5
-1.612, 6.898e-5
-1.613, 6.974e-5
-1.614, 7.052e-5
-1.615, 7.130e-5
-1.616, 7.209e-5
-1.617, 7.288e-5
-1.618, 7.367e-5
-1.619, 7.449e-5
-1.620, 7.529e-5
-1.621, 7.611e-5
-1.622, 7.694e-5
-1.623, 7.777e-5
-1.624, 7.863e-5
-1.625, 7.949e-5
-1.626, 8.036e-5
-1.627, 8.125e-5
-1.628, 8.213e-5
-1.629, 8.302e-5
-1.630, 8.392e-5
-1.631, 8.484e-5
-1.632, 8.576e-5
-1.633, 8.669e-5
-1.634, 8.764e-5
-1.635, 8.860e-5
-1.636, 8.955e-5
-1.637, 9.052e-5
-1.638, 9.150e-5
-1.639, 9.252e-5
-1.640, 9.354e-5
-1.641, 9.456e-5
-1.642, 9.557e-5
-1.643, 9.661e-5
-1.644, 9.765e-5
-1.645, 9.872e-5
-1.646, 9.980e-5
-1.647, 1.009e-4
-1.648, 1.020e-4
-1.649, 1.031e-4
-1.650, 1.042e-4
-1.651, 1.053e-4
-1.652, 1.065e-4
-1.653, 1.076e-4
-1.654, 1.088e-4
-1.655, 1.100e-4
-1.656, 1.112e-4
-1.657, 1.124e-4
-1.658, 1.135e-4
-1.659, 1.148e-4
-1.660, 1.160e-4
-1.661, 1.173e-4
-1.662, 1.185e-4
-1.663, 1.198e-4
-1.664, 1.211e-4
-1.665, 1.224e-4
-1.666, 1.237e-4
-1.667, 1.250e-4
-1.668, 1.265e-4
-1.669, 1.277e-4
-1.670, 1.291e-4
-1.671, 1.304e-4
-1.672, 1.318e-4
-1.673, 1.332e-4
-1.674, 1.346e-4
-1.675, 1.360e-4
-1.676, 1.375e-4
-1.677, 1.389e-4
-1.678, 1.403e-4
-1.679, 1.418e-4
-1.680, 1.433e-4
-1.681, 1.449e-4
-1.682, 1.464e-4
-1.683, 1.479e-4
-1.684, 1.495e-4
-1.685, 1.510e-4
-1.686, 1.526e-4
-1.687, 1.542e-4
-1.688, 1.558e-4
-1.689, 1.575e-4
-1.690, 1.591e-4
-1.691, 1.608e-4
-1.692, 1.625e-4
-1.693, 1.642e-4
-1.694, 1.659e-4
-1.695, 1.676e-4
-1.696, 1.694e-4
-1.697, 1.711e-4
-1.698, 1.729e-4
-1.699, 1.747e-4
-1.700, 1.765e-4
-1.701, 1.783e-4
-1.702, 1.802e-4
-1.703, 1.820e-4
-1.704, 1.839e-4
-1.705, 1.858e-4
-1.706, 1.878e-4
-1.707, 1.897e-4
-1.708, 1.917e-4
-1.709, 1.937e-4
-1.710, 1.957e-4
-1.711, 1.978e-4
-1.712, 1.999e-4
-1.713, 2.020e-4
-1.714, 2.041e-4
-1.715, 2.062e-4
-1.716, 2.084e-4
-1.717, 2.106e-4
-1.718, 2.128e-4
-1.719, 2.150e-4
-1.720, 2.173e-4
-1.721, 2.196e-4
-1.722, 2.220e-4
-1.723, 2.243e-4
-1.724, 2.267e-4
-1.725, 2.291e-4
-1.726, 2.315e-4
-1.727, 2.340e-4
-1.728, 2.365e-4
-1.729, 2.390e-4
-1.730, 2.416e-4
-1.731, 2.441e-4
-1.732, 2.467e-4
-1.733, 2.494e-4
-1.734, 2.521e-4
-1.735, 2.548e-4
-1.736, 2.575e-4
-1.737, 2.602e-4
-1.738, 2.630e-4
-1.739, 2.658e-4
-1.740, 2.687e-4
-1.741, 2.715e-4
-1.742, 2.744e-4
-1.743, 2.774e-4
-1.744, 2.804e-4
-1.745, 2.834e-4
-1.746, 2.865e-4
-1.747, 2.895e-4
-1.748, 2.926e-4
-1.749, 2.958e-4
-1.750, 2.990e-4
-1.751, 3.022e-4
-1.752, 3.055e-4
-1.753, 3.088e-4
-1.754, 3.121e-4
-1.755, 3.155e-4
-1.756, 3.189e-4
-1.757, 3.224e-4
-1.758, 3.259e-4
-1.759, 3.294e-4
-1.760, 3.330e-4
-1.761, 3.367e-4
-1.762, 3.403e-4
-1.763, 3.440e-4
-1.764, 3.478e-4
-1.765, 3.516e-4
-1.766, 3.554e-4
-1.767, 3.593e-4
-1.768, 3.633e-4
-1.769, 3.672e-4
-1.770, 3.712e-4
-1.771, 3.753e-4
-1.772, 3.794e-4
-1.773, 3.835e-4
-1.774, 3.877e-4
-1.775, 3.920e-4
-1.776, 3.962e-4
-1.777, 4.006e-4
-1.778, 4.050e-4
-1.779, 4.094e-4
-1.780, 4.138e-4
-1.781, 4.183e-4
-1.782, 4.228e-4
-1.783, 4.274e-4
-1.784, 4.321e-4
-1.785, 4.368e-4
-1.786, 4.415e-4
-1.787, 4.463e-4
-1.788, 4.511e-4
-1.789, 4.560e-4
-1.790, 4.609e-4
-1.791, 4.658e-4
-1.792, 4.708e-4
-1.793, 4.759e-4
-1.794, 4.810e-4
-1.795, 4.861e-4
-1.796, 4.913e-4
-1.797, 4.965e-4
-1.798, 5.018e-4
-1.799, 5.071e-4
-1.800, 5.125e-4
-1.801, 5.179e-4
-1.802, 5.234e-4
-1.803, 5.289e-4
-1.804, 5.344e-4
-1.805, 5.400e-4
-1.806, 5.457e-4
-1.807, 5.514e-4
-1.808, 5.571e-4
-1.809, 5.629e-4
-1.810, 5.688e-4
-1.811, 5.747e-4
-1.812, 5.806e-4
-1.813, 5.865e-4
-1.814, 5.926e-4
-1.815, 5.987e-4
-1.816, 6.048e-4
-1.817, 6.110e-4
-1.818, 6.172e-4
-1.819, 6.234e-4
-1.820, 6.297e-4
-1.821, 6.360e-4
-1.822, 6.424e-4
-1.823, 6.488e-4
-1.824, 6.553e-4
-1.825, 6.617e-4
-1.826, 6.683e-4
-1.827, 6.749e-4
-1.828, 6.815e-4
-1.829, 6.881e-4
-1.830, 6.948e-4
-1.831, 7.016e-4
-1.832, 7.084e-4
-1.833, 7.153e-4
-1.834, 7.222e-4
-1.835, 7.291e-4
-1.836, 7.361e-4
-1.837, 7.431e-4
-1.838, 7.501e-4
-1.839, 7.572e-4
-1.840, 7.644e-4
-1.841, 7.716e-4
-1.842, 7.788e-4
-1.843, 7.861e-4
-1.844, 7.935e-4
-1.845, 8.009e-4
-1.846, 8.083e-4
-1.847, 8.157e-4
-1.848, 8.231e-4
-1.849, 8.306e-4
-1.850, 8.382e-4
-1.851, 8.459e-4
-1.852, 8.535e-4
-1.853, 8.611e-4
-1.854, 8.688e-4
-1.855, 8.766e-4
-1.856, 8.843e-4
-1.857, 8.921e-4
-1.858, 9.000e-4
-1.859, 9.080e-4
-1.860, 9.160e-4
-1.861, 9.240e-4
-1.862, 9.320e-4
-1.863, 9.401e-4
-1.864, 9.483e-4
-1.865, 9.565e-4
-1.866, 9.647e-4
-1.867, 9.730e-4
-1.868, 9.813e-4
-1.869, 9.897e-4
-1.870, 9.981e-4
-1.871, 1.007e-3
-1.872, 1.011e-3
-1.873, 1.011e-3
-1.874, 1.011e-3
-1.875, 1.011e-3
-1.876, 1.011e-3
-1.877, 1.011e-3
-1.878, 1.011e-3
-1.879, 1.011e-3
-1.880, 1.011e-3
-1.881, 1.011e-3
-1.882, 1.011e-3
-1.883, 1.011e-3
-1.884, 1.011e-3
-1.885, 1.011e-3
-1.886, 1.011e-3
-1.887, 1.011e-3
-1.888, 1.011e-3
-1.889, 1.011e-3
-1.890, 1.011e-3
-1.891, 1.011e-3
-1.892, 1.011e-3
-1.893, 1.011e-3
-1.894, 1.011e-3
-1.895, 1.011e-3
-1.896, 1.011e-3
-1.897, 1.011e-3
-1.898, 1.011e-3
-1.899, 1.011e-3
-1.900, 1.011e-3
-1.901, 1.011e-3
-1.902, 1.011e-3
-1.903, 1.011e-3
-1.904, 1.011e-3
-1.905, 1.011e-3
-1.906, 1.011e-3
-1.907, 1.011e-3
-1.908, 1.011e-3
-1.909, 1.011e-3
-1.910, 1.011e-3
-1.911, 1.011e-3
-1.912, 1.011e-3
-1.913, 1.011e-3
-1.914, 1.011e-3
-1.915, 1.011e-3
-1.916, 1.011e-3
-1.917, 1.011e-3
-1.918, 1.011e-3
-1.919, 1.011e-3
-1.920, 1.011e-3
-1.921, 1.011e-3
-1.922, 1.011e-3
-1.923, 1.011e-3
-1.924, 1.011e-3
-1.925, 1.011e-3
-1.926, 1.011e-3
-1.927, 1.011e-3
-1.928, 1.011e-3
-1.929, 1.011e-3
-1.930, 1.011e-3
-1.931, 1.011e-3
-1.932, 1.011e-3
-1.933, 1.011e-3
-1.934, 1.011e-3
-1.935, 1.011e-3
-1.936, 1.011e-3
-1.937, 1.011e-3
-1.938, 1.011e-3
-1.939, 1.011e-3
-1.940, 1.011e-3
-1.941, 1.011e-3
-1.942, 1.011e-3
-1.943, 1.011e-3
-1.944, 1.011e-3
-1.945, 1.011e-3
-1.946, 1.011e-3
-1.947, 1.011e-3
-1.948, 1.011e-3
-1.949, 1.011e-3
-1.950, 1.011e-3
-1.951, 1.011e-3
-1.952, 1.011e-3
-1.953, 1.011e-3
-1.954, 1.011e-3
-1.955, 1.011e-3
-1.956, 1.011e-3
-1.957, 1.011e-3
-1.958, 1.011e-3
-1.959, 1.011e-3
-1.960, 1.011e-3
-1.961, 1.011e-3
-1.962, 1.011e-3
-1.963, 1.011e-3
-1.964, 1.011e-3
-1.965, 1.011e-3
-1.966, 1.011e-3
-1.967, 1.011e-3
-1.968, 1.011e-3
-1.969, 1.011e-3
-1.970, 1.011e-3
-1.971, 1.011e-3
-1.972, 1.011e-3
-1.973, 1.011e-3
-1.974, 1.011e-3
-1.975, 1.011e-3
-1.976, 1.011e-3
-1.977, 1.011e-3
-1.978, 1.011e-3
-1.979, 1.011e-3
-1.980, 1.011e-3
-1.981, 1.011e-3
-1.982, 1.011e-3
-1.983, 1.011e-3
-1.984, 1.011e-3
-1.985, 1.011e-3
-1.986, 1.011e-3
-1.987, 1.011e-3
-1.988, 1.011e-3
-1.989, 1.011e-3
-1.990, 1.011e-3
-1.991, 1.011e-3
-1.992, 1.011e-3
-1.993, 1.011e-3
-1.994, 1.011e-3
-1.995, 1.011e-3
-1.996, 1.011e-3
-1.997, 1.011e-3
-1.998, 1.011e-3
-1.999, 1.011e-3
-2.000, 1.011e-3
-2.001, 1.011e-3
-2.002, 1.011e-3
-2.003, 1.011e-3
-2.004, 1.011e-3
-2.005, 1.011e-3
-2.006, 1.011e-3
-2.007, 1.011e-3
-2.008, 1.011e-3
-2.009, 1.011e-3
-2.010, 1.011e-3
-2.011, 1.011e-3
-2.012, 1.011e-3
-2.013, 1.011e-3
-2.014, 1.011e-3
-2.015, 1.011e-3
-2.016, 1.011e-3
-2.017, 1.011e-3
-2.018, 1.011e-3
-2.019, 1.011e-3
-2.020, 1.011e-3
-2.021, 1.011e-3
-2.022, 1.011e-3
-2.023, 1.011e-3
-2.024, 1.011e-3
-2.025, 1.011e-3
-2.026, 1.011e-3
-2.027, 1.011e-3
-2.028, 1.011e-3
-2.029, 1.011e-3
-2.030, 1.011e-3
-2.031, 1.011e-3
-2.032, 1.011e-3
-2.033, 1.011e-3
-2.034, 1.011e-3
-2.035, 1.011e-3
-2.036, 1.011e-3
-2.037, 1.011e-3
-2.038, 1.011e-3
-2.039, 1.011e-3
-2.040, 1.011e-3
-2.041, 1.011e-3
-2.042, 1.011e-3
-2.043, 1.011e-3
-2.044, 1.011e-3
-2.045, 1.011e-3
-2.046, 1.011e-3
-2.047, 1.011e-3
-2.048, 1.011e-3
-2.049, 1.011e-3
-2.050, 1.011e-3
-2.051, 1.011e-3
-2.052, 1.011e-3
-2.053, 1.011e-3
-2.054, 1.011e-3
-2.055, 1.011e-3
-2.056, 1.011e-3
-2.057, 1.011e-3
-2.058, 1.011e-3
-2.059, 1.011e-3
-2.060, 1.011e-3
-2.061, 1.011e-3
-2.062, 1.011e-3
-2.063, 1.011e-3
-2.064, 1.011e-3
-2.065, 1.011e-3
-2.066, 1.011e-3
-2.067, 1.011e-3
-2.068, 1.011e-3
-2.069, 1.011e-3
-2.070, 1.011e-3
-2.071, 1.011e-3
-2.072, 1.011e-3
-2.073, 1.011e-3
-2.074, 1.011e-3
-2.075, 1.011e-3
-2.076, 1.011e-3
-2.077, 1.011e-3
-2.078, 1.011e-3
-2.079, 1.011e-3
-2.080, 1.011e-3
-2.081, 1.011e-3
-2.082, 1.011e-3
-2.083, 1.011e-3
-2.084, 1.011e-3
-2.085, 1.011e-3
-2.086, 1.011e-3
-2.087, 1.011e-3
-2.088, 1.011e-3
-2.089, 1.011e-3
-2.090, 1.011e-3
-2.091, 1.011e-3
-2.092, 1.011e-3
-2.093, 1.011e-3
-2.094, 1.011e-3
-2.095, 1.011e-3
-2.096, 1.011e-3
-2.097, 1.011e-3
-2.098, 1.011e-3
-2.099, 1.011e-3
-2.100, 1.011e-3
-2.101, 1.011e-3
-2.102, 1.011e-3
-2.103, 1.011e-3
-2.104, 1.011e-3
-2.105, 1.011e-3
-2.106, 1.011e-3
-2.107, 1.011e-3
-2.108, 1.011e-3
-2.109, 1.011e-3
-2.110, 1.011e-3
-2.111, 1.011e-3
-2.112, 1.011e-3
-2.113, 1.011e-3
-2.114, 1.011e-3
-2.115, 1.011e-3
-2.116, 1.011e-3
-2.117, 1.011e-3
-2.118, 1.011e-3
-2.119, 1.011e-3
-2.120, 1.011e-3
-2.121, 1.011e-3
-2.122, 1.011e-3
-2.123, 1.011e-3
-2.124, 1.011e-3
-2.125, 1.011e-3
-2.126, 1.011e-3
-2.127, 1.011e-3
-2.128, 1.011e-3
-2.129, 1.011e-3
-2.130, 1.011e-3
-2.131, 1.011e-3
-2.132, 1.011e-3
-2.133, 1.011e-3
-2.134, 1.011e-3
-2.135, 1.011e-3
-2.136, 1.011e-3
-2.137, 1.011e-3
-2.138, 1.011e-3
-2.139, 1.011e-3
-2.140, 1.011e-3
-2.141, 1.011e-3
-2.142, 1.011e-3
-2.143, 1.011e-3
-2.144, 1.011e-3
-2.145, 1.011e-3
-2.146, 1.011e-3
-2.147, 1.011e-3
-2.148, 1.011e-3
-2.149, 1.011e-3
-2.150, 1.011e-3
-2.151, 1.011e-3
-2.152, 1.011e-3
-2.153, 1.011e-3
-2.154, 1.011e-3
-2.155, 1.011e-3
-2.156, 1.011e-3
-2.157, 1.011e-3
-2.158, 1.011e-3
-2.159, 1.011e-3
-2.160, 1.011e-3
-2.161, 1.011e-3
-2.162, 1.011e-3
-2.163, 1.011e-3
-2.164, 1.011e-3
-2.165, 1.011e-3
-2.166, 1.011e-3
-2.167, 1.011e-3
-2.168, 1.011e-3
-2.169, 1.011e-3
-2.170, 1.011e-3
-2.171, 1.011e-3
-2.172, 1.011e-3
-2.173, 1.011e-3
-2.174, 1.011e-3
-2.175, 1.011e-3
-2.176, 1.011e-3
-2.177, 1.011e-3
-2.178, 1.011e-3
-2.179, 1.011e-3
-2.180, 1.011e-3
-2.181, 1.011e-3
-2.182, 1.011e-3
-2.183, 1.011e-3
-2.184, 1.011e-3
-2.185, 1.011e-3
-2.186, 1.011e-3
-2.187, 1.011e-3
-2.188, 1.011e-3
-2.189, 1.011e-3
-2.190, 1.011e-3
-2.191, 1.011e-3
-2.192, 1.011e-3
-2.193, 1.011e-3
-2.194, 1.011e-3
-2.195, 1.011e-3
-2.196, 1.011e-3
-2.197, 1.011e-3
-2.198, 1.011e-3
-2.199, 1.011e-3
-2.200, 1.011e-3
-2.201, 1.011e-3
-2.202, 1.011e-3
-2.203, 1.011e-3
-2.204, 1.011e-3
-2.205, 1.011e-3
-2.206, 1.011e-3
-2.207, 1.011e-3
-2.208, 1.011e-3
-2.209, 1.011e-3
-2.210, 1.011e-3
-2.211, 1.011e-3
-2.212, 1.011e-3
-2.213, 1.011e-3
-2.214, 1.011e-3
-2.215, 1.011e-3
-2.216, 1.011e-3
-2.217, 1.011e-3
-2.218, 1.011e-3
-2.219, 1.011e-3
-2.220, 1.011e-3
-2.221, 1.011e-3
-2.222, 1.011e-3
-2.223, 1.011e-3
-2.224, 1.011e-3
-2.225, 1.011e-3
-2.226, 1.011e-3
-2.227, 1.011e-3
-2.228, 1.011e-3
-2.229, 1.011e-3
-2.230, 1.011e-3
-2.231, 1.011e-3
-2.232, 1.011e-3
-2.233, 1.011e-3
-2.234, 1.011e-3
-2.235, 1.011e-3
-2.236, 1.011e-3
-2.237, 1.011e-3
-2.238, 1.011e-3
-2.239, 1.011e-3
-2.240, 1.011e-3
-2.241, 1.011e-3
-2.242, 1.011e-3
-2.243, 1.011e-3
-2.244, 1.011e-3
-2.245, 1.011e-3
-2.246, 1.011e-3
-2.247, 1.011e-3
-2.248, 1.011e-3
-2.249, 1.011e-3
-2.250, 1.011e-3
-2.251, 1.011e-3
-2.252, 1.011e-3
-2.253, 1.011e-3
-2.254, 1.011e-3
-2.255, 1.011e-3
-2.256, 1.011e-3
-2.257, 1.011e-3
-2.258, 1.011e-3
-2.259, 1.011e-3
-2.260, 1.011e-3
-2.261, 1.011e-3
-2.262, 1.011e-3
-2.263, 1.011e-3
-2.264, 1.011e-3
-2.265, 1.011e-3
-2.266, 1.011e-3
-2.267, 1.011e-3
-2.268, 1.011e-3
-2.269, 1.011e-3
-2.270, 1.011e-3
-2.271, 1.011e-3
-2.272, 1.011e-3
-2.273, 1.011e-3
-2.274, 1.011e-3
-2.275, 1.011e-3
-2.276, 1.011e-3
-2.277, 1.011e-3
-2.278, 1.011e-3
-2.279, 1.011e-3
-2.280, 1.011e-3
-2.281, 1.011e-3
-2.282, 1.011e-3
-2.283, 1.011e-3
-2.284, 1.011e-3
-2.285, 1.011e-3
-2.286, 1.011e-3
-2.287, 1.011e-3
-2.288, 1.011e-3
-2.289, 1.011e-3
-2.290, 1.011e-3
-2.291, 1.011e-3
-2.292, 1.011e-3
-2.293, 1.011e-3
-2.294, 1.011e-3
-2.295, 1.011e-3
-2.296, 1.011e-3
-2.297, 1.011e-3
-2.298, 1.011e-3
-2.299, 1.011e-3
