Potential V vs RHE, Current mA cm-2
0.013299999999999867,-0.31901739811956575
0.012299999999999978,-1.191752799006307
0.011299999999999866,-1.8094157525273817
0.010299999999999976,-2.2564645232847336
0.009299999999999864,-2.618630616050183
0.008299999999999974,-2.89025518562427
0.007299999999999862,-3.08690005630551
0.006299999999999972,-3.27505665918756
0.00529999999999986,-3.427845479572984
0.0042999999999999705,-3.546681228761647
0.0032999999999998586,-3.6527845762515243
0.0022999999999999687,-3.744740810742752
0.0012999999999998568,-3.801329262737354
0.00029999999999996696,-3.8480147356329
-0.000700000000000145,-3.915920878026421
-0.0017000000000000348,-3.965435773521698
-0.0027000000000001467,-3.988071154319539
-0.0037000000000000366,-4.026268359415894
-0.0047000000000001485,-4.06163614191252
-0.005700000000000038,-4.077197966211036
-0.00670000000000015,-4.09275979050955
-0.00770000000000004,-4.138030552105232
-0.008700000000000152,-4.153592376403748
-0.009700000000000042,-4.173398334601859
-0.010700000000000154,-4.21018082839835
-0.011700000000000044,-4.23281620919619
-0.012700000000000156,-4.239889765695515
-0.013700000000000045,-4.25828101259376
-0.014700000000000157,-4.2936487950903865
-0.015700000000000047,-4.297892928989982
-0.01670000000000016,-4.304966485489307
-0.01770000000000005,-4.344578401885528
-0.01870000000000016,-4.336090134086337
-0.01970000000000005,-4.341748979285797
-0.020700000000000163,-4.355896092284448
-0.021700000000000053,-4.378531473082289
-0.022700000000000164,-4.381360895682018
-0.023700000000000054,-4.385605029581614
-0.024700000000000166,-4.411069832979184
-0.025700000000000056,-4.396922719980535
-0.026700000000000168,-4.387019740881478
-0.027700000000000058,-4.413899255578914
-0.02870000000000017,-4.413899255578914
-0.02970000000000006,-4.420972812078239
-0.03070000000000017,-4.436534636376755
-0.03170000000000006,-4.450681749375406
-0.03270000000000017,-4.433705213777024
-0.03370000000000006,-4.44643761547581
-0.034700000000000175,-4.467658284973785
-0.035700000000000065,-4.4648288623740555
-0.03670000000000018,-4.4648288623740555
-0.03770000000000007,-4.463414151074191
-0.03870000000000018,-4.443608192876081
-0.03970000000000007,-4.445022904175945
-0.04070000000000018,-4.457755305874731
-0.04170000000000007,-4.4775612640728415
-0.04270000000000018,-4.4775612640728415
-0.04370000000000007,-4.488878954471762
-0.044700000000000184,-4.507270201370006
-0.045700000000000074,-4.5044407787702765
-0.046700000000000186,-4.510099623969737
-0.047700000000000076,-4.525661448268252
-0.04870000000000019,-4.525661448268252
-0.04970000000000008,-4.520002603068792
-0.05070000000000019,-4.5171731804690625
-0.05170000000000008,-4.525661448268252
-0.05270000000000019,-4.521417314368658
-0.05370000000000008,-4.531320293467712
-0.05470000000000019,-4.556785096865283
-0.05570000000000008,-4.553955674265553
-0.056700000000000195,-4.544052695166498
-0.057700000000000085,-4.565273364664473
-0.058700000000000196,-4.548296829066093
-0.059700000000000086,-4.544052695166498
-0.0607000000000002,-4.553955674265553
-0.06170000000000009,-4.561029230764878
-0.0627000000000002,-4.553955674265553
-0.06370000000000009,-4.552540962965688
-0.0647000000000002,-4.561029230764878
-0.06570000000000009,-4.5497115403659585
-0.0667000000000002,-4.546882117766228
-0.0677000000000001,-4.558199808165148
-0.0687000000000002,-4.552540962965688
-0.0697000000000001,-4.5497115403659585
-0.07070000000000021,-4.558199808165148
-0.0717000000000001,-4.568102787264204
-0.07270000000000021,-4.565273364664473
-0.0737000000000001,-4.566688075964338
-0.07470000000000021,-4.578005766363259
-0.0757000000000001,-4.569517498564068
-0.07670000000000021,-4.559614519465013
-0.0777000000000001,-4.580835188962989
-0.07870000000000021,-4.578005766363259
-0.0797000000000001,-4.568102787264204
-0.08070000000000022,-4.582249900262854
-0.0817000000000001,-4.590738168062044
-0.08270000000000022,-4.579420477663124
-0.08370000000000011,-4.586494034162449
-0.08470000000000022,-4.603470569760829
-0.08570000000000011,-4.60629999236056
-0.08670000000000022,-4.599226435861234
-0.08770000000000011,-4.626105950558669
-0.08870000000000022,-4.62044710535921
-0.08970000000000011,-4.61761768275948
-0.09070000000000022,-4.62044710535921
-0.09170000000000011,-4.63742364095759
-0.09270000000000023,-4.624691239258805
-0.09370000000000012,-4.636008929657725
-0.09470000000000023,-4.654400176555971
-0.09570000000000012,-4.63742364095759
-0.09670000000000023,-4.631764795758129
-0.09770000000000012,-4.650156042656376
-0.09870000000000023,-4.63742364095759
-0.09970000000000012,-4.640253063557321
-0.10070000000000023,-4.6416677748571855
-0.10170000000000012,-4.6572295991557
-0.10270000000000024,-4.647326620056646
-0.10370000000000013,-4.640253063557321
-0.10470000000000024,-4.664303155655026
-0.10570000000000013,-4.652985465256107
-0.10670000000000024,-4.640253063557321
-0.10770000000000013,-4.664303155655026
-0.10870000000000024,-4.650156042656376
-0.10970000000000013,-4.644497197456915
-0.11070000000000024,-4.6614737330552956
-0.11170000000000013,-4.675620846053946
-0.11270000000000002,-4.66005902175543
-0.11370000000000013,-4.664303155655026
-0.11470000000000002,-4.681279691253407
-0.11570000000000014,-4.6742061347540815
-0.11670000000000003,-4.681279691253407
-0.11770000000000014,-4.705329783351112
-0.11870000000000003,-4.703915072051247
-0.11970000000000014,-4.706744494650977
-0.12070000000000003,-4.709573917250707
-0.12170000000000014,-4.712403339850438
-0.12270000000000003,-4.695426804252056
-0.12370000000000014,-4.715232762450168
-0.12470000000000003,-4.727965164148953
-0.12570000000000014,-4.712403339850438
-0.12670000000000003,-4.716647473750032
-0.12770000000000015,-4.7406975658477375
-0.12870000000000004,-4.7463564110471985
-0.12970000000000015,-4.729379875448817
-0.13070000000000004,-4.737868143248008
-0.13170000000000015,-4.735038720648277
-0.13270000000000004,-4.718062185049897
-0.13370000000000015,-4.729379875448817
-0.13470000000000004,-4.739282854547873
-0.13570000000000015,-4.715232762450168
-0.13670000000000004,-4.715232762450168
-0.13770000000000016,-4.752015256246658
-0.13870000000000005,-4.760503524045848
-0.13970000000000016,-4.757674101446118
-0.14070000000000005,-4.767577080545174
-0.14170000000000016,-4.773235925744634
-0.14270000000000005,-4.768991791845038
-0.14370000000000016,-4.778894770944094
-0.14470000000000005,-4.8128478421408545
-0.14570000000000016,-4.824165532539776
-0.14670000000000005,-4.811433130840991
-0.14770000000000016,-4.832653800338965
-0.14870000000000005,-4.818506687340315
-0.14970000000000017,-4.804359574341665
-0.15070000000000006,-4.83406851163883
-0.15170000000000017,-4.851045047237211
-0.15270000000000006,-4.82840966643937
-0.15370000000000017,-4.821336109940045
-0.15470000000000006,-4.829824377739236
-0.15570000000000017,-4.824165532539776
-0.15670000000000006,-4.829824377739236
-0.15770000000000017,-4.860948026336266
-0.15870000000000006,-4.862362737636131
-0.15970000000000018,-4.862362737636131
-0.16070000000000007,-4.882168695834241
-0.16170000000000018,-4.894901097533027
-0.16270000000000007,-4.901974654032353
-0.16370000000000018,-4.9175364783308675
-0.16470000000000007,-4.941586570428573
-0.16570000000000018,-4.926024746130058
-0.16670000000000007,-4.914707055731138
-0.16770000000000018,-4.913292344431272
-0.16870000000000007,-4.914707055731138
-0.16970000000000018,-4.910462921831542
-0.17070000000000007,-4.916121767031002
-0.17170000000000019,-4.935927725229114
-0.17270000000000008,-4.911877633131407
-0.1737000000000002,-4.934513013929248
-0.17470000000000008,-4.950074838227763
-0.1757000000000002,-4.9444159930283025
-0.17670000000000008,-4.950074838227763
-0.1777000000000002,-4.975539641625334
-0.17870000000000008,-4.975539641625334
-0.1797000000000002,-4.9826131981246595
-0.18070000000000008,-4.998175022423175
-0.1817000000000002,-5.01656626932142
-0.18270000000000008,-5.015151558021555
-0.1837000000000002,-5.027883959720341
-0.1847000000000001,-5.037786938819395
-0.1857000000000002,-5.03071338232007
-0.1867000000000001,-5.0420310727189905
-0.1877000000000002,-5.0745694326158866
-0.1887000000000001,-5.084472411714942
-0.1897000000000002,-5.083057700415077
-0.1907000000000001,-5.095790102113861
-0.1917000000000001,-5.102863658613187
-0.19269999999999998,-5.095790102113861
-0.1937000000000001,-5.114181349012108
-0.19469999999999998,-5.132572595910353
-0.1957000000000001,-5.138231441109813
-0.19669999999999999,-5.139646152409678
-0.1977000000000001,-5.167940378406978
-0.1987,-5.172184512306574
-0.1997000000000001,-5.163696244507384
-0.2007,-5.204722872203471
-0.2017000000000001,-5.223114119101715
-0.2027,-5.19906402700401
-0.2037000000000001,-5.211796428702795
-0.2047,-5.2259435417014455
-0.2057000000000001,-5.22735825300131
-0.2067,-5.22452883040158
-0.2077000000000001,-5.2386759434002315
-0.2087,-5.248578922499286
-0.2097000000000001,-5.264140746797801
-0.2107,-5.293849684094967
-0.2117000000000001,-5.332046889191323
-0.2127,-5.337705734390783
-0.2137000000000001,-5.365999960388084
-0.2147,-5.399953031584845
-0.2157000000000001,-5.4225884123826855
-0.2167,-5.432491391481741
-0.21770000000000012,-5.456541483579446
-0.2187,-5.446638504480391
-0.21970000000000012,-5.4296619688820105
-0.2207,-5.453712060979717
-0.22170000000000012,-5.474932730477692
-0.2227,-5.460785617479042
-0.22370000000000012,-5.477762153077422
-0.2247,-5.5003975338752635
-0.22570000000000012,-5.510300512974317
-0.2267,-5.525862337272833
-0.22770000000000012,-5.57537723276811
-0.22870000000000001,-5.59518319096622
-0.22970000000000013,-5.59801261356595
-0.23070000000000002,-5.627721550863116
-0.23170000000000013,-5.640453952561901
-0.23270000000000002,-5.651771642960822
-0.23370000000000013,-5.699871827156233
-0.23470000000000002,-5.746557300051779
-0.23570000000000013,-5.762119124350295
-0.23670000000000002,-5.762119124350295
-0.2376999999999999,-5.791828061647459
-0.23870000000000002,-5.804560463346245
-0.2396999999999999,-5.814463442445301
-0.24070000000000003,-5.856904781441251
-0.24169999999999991,-5.889443141338147
-0.24270000000000003,-5.897931409137338
-0.24369999999999992,-5.914907944735719
-0.24470000000000003,-5.940372748133289
-0.24569999999999992,-5.9601787063314
-0.24670000000000003,-5.98564350972897
-0.24769999999999992,-6.021011292225596
-0.24870000000000003,-6.029499560024787
-0.24969999999999992,-6.042231961723571
-0.25070000000000003,-6.074770321620467
-0.2516999999999999,-6.110138104117093
-0.25270000000000004,-6.144091175313854
-0.2536999999999999,-6.196435493408861
-0.25470000000000004,-6.226144430706027
-0.2556999999999999,-6.2558533680031925
-0.25670000000000004,-6.296879995699278
-0.25769999999999993,-6.3676155606925295
-0.25870000000000004,-6.391665652790236
-0.25969999999999993,-6.424204012687131
-0.26070000000000004,-6.466645351683083
-0.26169999999999993,-6.4864513098811925
-0.26270000000000004,-6.502013134179709
-0.26369999999999993,-6.545869184475525
-0.26470000000000005,-6.603872347769991
-0.26569999999999994,-6.620848883368372
-0.26670000000000005,-6.647728398065807
-0.26769999999999994,-6.692999159661489
-0.26870000000000005,-6.704316850060409
-0.26969999999999994,-6.735440498657439
-0.27070000000000005,-6.779296548953256
-0.27169999999999994,-6.837299712247723
-0.27270000000000005,-6.864179226945158
-0.27369999999999994,-6.9052058546412445
-0.27470000000000006,-6.974526708334631
-0.27569999999999995,-7.001406223032068
-0.27670000000000006,-7.062238808926263
-0.27769999999999995,-7.12873024001992
-0.27870000000000006,-7.175415712915465
-0.27969999999999995,-7.215027629311687
-0.28070000000000006,-7.271616081306289
-0.28169999999999995,-7.326789822001024
-0.28270000000000006,-7.370645872296841
-0.28369999999999995,-7.454113838988878
-0.28470000000000006,-7.523434692682265
-0.28569999999999995,-7.560217186478756
-0.28670000000000007,-7.616805638473357
-0.28769999999999996,-7.669149956568364
-0.28870000000000007,-7.714420718164044
-0.28969999999999996,-7.775253304058242
-0.29070000000000007,-7.834671178652573
-0.29169999999999996,-7.901162609746229
-0.29270000000000007,-7.949262793941642
-0.29369999999999996,-8.017168936335162
-0.2947000000000001,-8.089319212628281
-0.29569999999999996,-8.147322375922746
-0.2967000000000001,-8.215228518316268
-0.29769999999999996,-8.30011119630817
-0.2987000000000001,-8.338308401404527
-0.29969999999999997,-8.387823296899802
-0.3007000000000001,-8.46846184099211
-0.30169999999999997,-8.533538560785903
-0.3027000000000001,-8.591541724080368
-0.30369999999999997,-8.65944786647389
-0.3047000000000001,-8.733012854066871
-0.30569999999999997,-8.813651398159179
-0.3067000000000001,-8.898534076151082
-0.3077,-8.991905021942173
-0.3087000000000001,-9.05273760783637
-0.3097,-9.144693842327596
-0.3107000000000001,-9.246553055917879
-0.3117,-9.349826980808027
-0.3127000000000001,-9.451686194398311
-0.3137,-9.573351366186703
-0.3147000000000001,-9.65116048767928
-0.3157,-9.689357692775637
-0.3167000000000001,-9.750190278669832
-0.3177,-9.839317090561332
-0.3187000000000001,-9.952493994550533
-0.3197,-10.054353208140816
-0.3207000000000001,-10.143480020032312
-0.3217,-10.24675394492246
-0.3227000000000001,-10.290609995218277
-0.3237,-10.39529863140829
-0.3247000000000001,-10.484425443299786
-0.3257,-10.5891140794898
-0.3267000000000001,-10.734829343375898
-0.3277,-10.89044758636105
-0.3287000000000001,-10.993721511251199
-0.3297,-11.084263034442563
-0.3307000000000001,-11.20734291753082
-0.3317,-11.358717026616379
-0.3327000000000001,-11.442184993308418
-0.3337,-11.568094298996405
-0.3347000000000001,-11.685515336885203
-0.3357,-11.812839353873056
-0.3367000000000001,-11.937333948261179
-0.3377,-12.054754986149977
-0.3387000000000001,-12.1792495805381
-0.3397,-12.299500041026628
-0.3407000000000001,-12.416921078915427
-0.3417,-12.55273336370247
-0.3427000000000001,-12.654592577292753
-0.3437,-12.776257749081147
-0.3447000000000001,-12.913484745168056
-0.3457,-13.047882318655235
-0.3467000000000001,-13.186524026042006
-0.3477,-13.343556980327028
-0.3487000000000001,-13.49351637811272
-0.3497,-13.65054933239774
-0.3507000000000001,-13.835876512680057
-0.3517,-14.01837427036265
-0.3527000000000001,-14.175407224647667
-0.3537,-14.359319693630123
-0.3547000000000001,-14.514937936615278
-0.3557,-14.62811484060448
-0.35670000000000013,-14.769585970590983
-0.3577,-14.896909987578834
-0.35870000000000013,-15.03838111756534
-0.3597,-15.208146473549144
-0.36070000000000013,-15.349617603535648
-0.3617,-15.519382959519453
-0.3626999999999999,-15.632559863508657
-0.3637,-15.802325219492458
-0.3646999999999999,-16.000384801473565
-0.3657,-16.141855931460068
-0.3666999999999999,-16.339915513441174
-0.3677,-16.50968086942498
-0.3686999999999999,-16.665299112410132
-0.36970000000000003,-16.877505807389888
-0.3706999999999999,-17.018976937376394
-0.37170000000000003,-17.2453307453548
-0.3726999999999999,-17.4150961013386
-0.37370000000000003,-17.613155683319707
-0.3746999999999999,-17.839509491298113
-0.37570000000000003,-17.952686395287316
-0.3766999999999999,-18.13659886426977
-0.37770000000000004,-18.362952672248177
-0.3786999999999999,-18.589306480226583
-0.37970000000000004,-18.815660288204988
-0.3806999999999999,-19.01371987018609
-0.38170000000000004,-19.169338113171246
-0.38269999999999993,-19.3249563561564
-0.38370000000000004,-19.523015938137508
-0.38469999999999993,-19.73522263311726
-0.38570000000000004,-19.919135102099716
-0.38669999999999993,-20.10304757108217
-0.38770000000000004,-20.329401379060574
-0.38869999999999993,-20.52746096104168
-0.38970000000000005,-20.683079204026836
-0.39069999999999994,-20.93772723800254
-0.39170000000000005,-21.19237527197825
-0.39269999999999994,-21.362140627962056
-0.39370000000000005,-21.574347322941808
-0.39469999999999994,-21.71581845292831
-0.39570000000000005,-21.871436695913467
-0.39669999999999994,-22.083643390893226
-0.39770000000000005,-22.295850085872978
-0.39869999999999994,-22.451468328858134
-0.39970000000000006,-22.63538079784059
-0.40069999999999995,-22.904175944814945
-0.40170000000000006,-23.187118204787954
-0.40269999999999995,-23.48420757775961
-0.40370000000000006,-23.781296950731264
-0.40469999999999995,-24.021797871708326
-0.40570000000000006,-24.262298792685378
-0.40669999999999995,-24.488652600663784
-0.40770000000000006,-24.686712182644893
-0.40869999999999995,-24.884771764625995
-0.40970000000000006,-25.04039000761115
-0.41069999999999995,-25.252596702590903
-0.41170000000000007,-25.478950510569312
-0.41269999999999996,-25.634568753554465
-0.41370000000000007,-25.86092256153287
-0.41469999999999996,-26.030687917516673
-0.41570000000000007,-26.242894612496432
-0.41669999999999996,-26.511689759470787
-0.41770000000000007,-26.709749341451893
-0.41869999999999996,-26.97854448842625
-0.4197000000000001,-27.190751183406004
-0.42069999999999996,-27.445399217381713
-0.4217000000000001,-27.728341477354718
-0.42269999999999996,-27.926401059335824
-0.4237000000000001,-28.22349043230748
-0.42469999999999997,-28.421550014288584
-0.4257000000000001,-28.633756709268344
-0.42669999999999997,-28.8742576302454
-0.4277000000000001,-29.171347003217054
-0.42869999999999997,-29.482583489187363
-0.4297000000000001,-29.694790184167122
-0.43069999999999997,-29.991879557138777
-0.4317000000000001,-30.161644913122586
-0.4327,-30.37385160810234
-0.4337000000000001,-30.670940981073993
-0.4347,-30.897294789052403
-0.4357000000000001,-31.151942823028104
-0.4367,-31.36414951800786
-0.4377000000000001,-31.661238890979522
-0.4387,-31.887592698957924
-0.4397000000000001,-32.09979939393769
-0.4407,-32.45347721890394
-0.4417000000000001,-32.70812525287965
-0.4427,-32.90618483486075
-0.4437000000000001,-33.13253864283916
-0.4447,-33.344745337818914
-0.4457000000000001,-33.64183471079057
-0.4467,-33.81160006677438
-0.4477000000000001,-34.05210098775143
-0.4487,-34.221866343735236
-0.4497000000000001,-34.462367264712285
-0.4507,-34.87263354167316
-0.4517000000000001,-35.198017140642115
-0.4527,-35.56584207860703
-0.4537000000000001,-35.79219588658543
-0.4547,-35.93366701657193
-0.4557000000000001,-36.17416793754898
-0.4567,-36.54199287551389
-0.4577000000000001,-36.9381120394761
-0.4587,-37.206907186450465
-0.4597000000000001,-37.39081965543292
-0.4607,-37.645467689408626
-0.4617000000000001,-38.01329262737354
-0.4627,-38.32452911334384
-0.4637000000000001,-38.63576559931415
-0.4647,-38.805530955297954
-0.4657000000000001,-38.96114919828311
-0.4667,-39.258238571254765
-0.4677000000000001,-39.55532794422642
-0.4687,-39.88071154319538
-0.4697000000000001,-40.07877112517649
-0.4707,-40.36171338514949
-0.4717000000000001,-40.68709698411846
-0.4727,-40.94174501809416
-0.4737000000000001,-41.23883439106582
-0.4747,-41.55007087703613
-0.4757000000000001,-41.97448426699564
-0.4767,-42.34230920496055
-0.4777000000000001,-42.72428125592411
-0.4787,-43.02137062889577
-0.4797000000000001,-43.219430210876865
-0.4807,-43.57310803584313
-0.48170000000000013,-43.82775606981884
-0.4827,-44.124845442790495
-0.48370000000000013,-44.45022904175945
-0.4847,-44.775612640728404
-0.48570000000000013,-45.22832025668522
-0.4867,-45.45467406466363
-0.4876999999999999,-45.75176343763528
-0.4887,-46.10544126260155
-0.4896999999999999,-46.37423640957591
-0.4907,-46.68547289554621
-0.4916999999999999,-46.92597381652327
-0.4927,-47.20891607649628
-0.4936999999999999,-47.54844678846388
-0.49470000000000003,-47.87383038743284
-0.4956999999999999,-48.1709197604045
-0.49670000000000003,-48.43971490737886
-0.4976999999999999,-48.73680428035051
-0.49870000000000003,-48.991452314326224
-0.4996999999999999,-49.35927725229113
-0.5007,-49.8261319812466
-0.5016999999999999,-50.109074241219595
-0.5027,-50.56178185717641
-0.5036999999999999,-51.028636586131874
-0.5047,-51.424755750094086
-0.5056999999999999,-51.86331625305225
-0.5067,-52.16040562602391
-0.5076999999999999,-52.49993633799151
-0.5087,-52.86776127595642
-0.5096999999999999,-53.16485064892808
-0.5107,-53.57511692588894
-0.5116999999999999,-53.9287947508552
