May 5, 2025   03:02:07
Cyclic Voltammetry
File: c:/users/guazh/data/banditlqround7_x0exp1108_r5/2025-04-30-exp1244\exp1244-2025-05-05t02_56_37-h2koh\exp1244_cv_sr_50mvs_efin_-1400mv.bin
Data Source:  Experiment
Instrument Model:  CHI760E
Header: CV ran at 50 mVs
Note: 

Init E (V) = -1
High E (V) = -1
Low E (V) = -1.4
Final E (V) = -1
Init P/N = N
Scan Rate (V/s) = 0.05
Segment = 3
Sample Interval (V) = 0.001
Quiet Time (sec) = 2
Sensitivity (A/V) = 0.01
Comp R (ohm) = 0.9

Results:

Channel 1:
Segment 1:

Segment 2:

Segment 3:

Potential/V, Current/A

-1.000, 9.344e-4
-1.001, 9.578e-4
-1.002, 9.744e-4
-1.003, 9.819e-4
-1.004, 9.856e-4
-1.005, 9.901e-4
-1.006, 9.945e-4
-1.007, 9.991e-4
-1.008, 1.004e-3
-1.009, 1.014e-3
-1.010, 1.017e-3
-1.011, 1.011e-3
-1.012, 1.010e-3
-1.013, 1.013e-3
-1.014, 1.045e-3
-1.015, 1.028e-3
-1.016, 1.021e-3
-1.017, 1.028e-3
-1.018, 1.052e-3
-1.019, 1.045e-3
-1.020, 1.042e-3
-1.021, 1.048e-3
-1.022, 1.042e-3
-1.023, 1.053e-3
-1.024, 1.057e-3
-1.025, 1.061e-3
-1.026, 1.066e-3
-1.027, 1.069e-3
-1.028, 1.065e-3
-1.029, 1.071e-3
-1.030, 1.077e-3
-1.031, 1.077e-3
-1.032, 1.081e-3
-1.033, 1.085e-3
-1.034, 1.090e-3
-1.035, 1.092e-3
-1.036, 1.100e-3
-1.037, 1.103e-3
-1.038, 1.099e-3
-1.039, 1.099e-3
-1.040, 1.109e-3
-1.041, 1.113e-3
-1.042, 1.113e-3
-1.043, 1.120e-3
-1.044, 1.123e-3
-1.045, 1.131e-3
-1.046, 1.138e-3
-1.047, 1.133e-3
-1.048, 1.118e-3
-1.049, 1.126e-3
-1.050, 1.142e-3
-1.051, 1.154e-3
-1.052, 1.147e-3
-1.053, 1.155e-3
-1.054, 1.169e-3
-1.055, 1.153e-3
-1.056, 1.145e-3
-1.057, 1.159e-3
-1.058, 1.172e-3
-1.059, 1.173e-3
-1.060, 1.176e-3
-1.061, 1.180e-3
-1.062, 1.181e-3
-1.063, 1.184e-3
-1.064, 1.192e-3
-1.065, 1.194e-3
-1.066, 1.195e-3
-1.067, 1.200e-3
-1.068, 1.201e-3
-1.069, 1.209e-3
-1.070, 1.213e-3
-1.071, 1.221e-3
-1.072, 1.222e-3
-1.073, 1.226e-3
-1.074, 1.225e-3
-1.075, 1.222e-3
-1.076, 1.234e-3
-1.077, 1.247e-3
-1.078, 1.254e-3
-1.079, 1.243e-3
-1.080, 1.253e-3
-1.081, 1.248e-3
-1.082, 1.256e-3
-1.083, 1.268e-3
-1.084, 1.276e-3
-1.085, 1.280e-3
-1.086, 1.276e-3
-1.087, 1.279e-3
-1.088, 1.292e-3
-1.089, 1.295e-3
-1.090, 1.303e-3
-1.091, 1.307e-3
-1.092, 1.322e-3
-1.093, 1.329e-3
-1.094, 1.333e-3
-1.095, 1.344e-3
-1.096, 1.347e-3
-1.097, 1.373e-3
-1.098, 1.369e-3
-1.099, 1.384e-3
-1.100, 1.390e-3
-1.101, 1.396e-3
-1.102, 1.413e-3
-1.103, 1.418e-3
-1.104, 1.438e-3
-1.105, 1.441e-3
-1.106, 1.443e-3
-1.107, 1.454e-3
-1.108, 1.464e-3
-1.109, 1.476e-3
-1.110, 1.478e-3
-1.111, 1.509e-3
-1.112, 1.491e-3
-1.113, 1.493e-3
-1.114, 1.503e-3
-1.115, 1.514e-3
-1.116, 1.529e-3
-1.117, 1.546e-3
-1.118, 1.544e-3
-1.119, 1.551e-3
-1.120, 1.552e-3
-1.121, 1.555e-3
-1.122, 1.557e-3
-1.123, 1.570e-3
-1.124, 1.582e-3
-1.125, 1.595e-3
-1.126, 1.604e-3
-1.127, 1.599e-3
-1.128, 1.598e-3
-1.129, 1.609e-3
-1.130, 1.625e-3
-1.131, 1.632e-3
-1.132, 1.636e-3
-1.133, 1.636e-3
-1.134, 1.653e-3
-1.135, 1.661e-3
-1.136, 1.667e-3
-1.137, 1.669e-3
-1.138, 1.658e-3
-1.139, 1.669e-3
-1.140, 1.687e-3
-1.141, 1.706e-3
-1.142, 1.705e-3
-1.143, 1.711e-3
-1.144, 1.714e-3
-1.145, 1.720e-3
-1.146, 1.722e-3
-1.147, 1.731e-3
-1.148, 1.743e-3
-1.149, 1.749e-3
-1.150, 1.761e-3
-1.151, 1.795e-3
-1.152, 1.777e-3
-1.153, 1.750e-3
-1.154, 1.775e-3
-1.155, 1.811e-3
-1.156, 1.804e-3
-1.157, 1.803e-3
-1.158, 1.825e-3
-1.159, 1.837e-3
-1.160, 1.823e-3
-1.161, 1.847e-3
-1.162, 1.852e-3
-1.163, 1.856e-3
-1.164, 1.857e-3
-1.165, 1.865e-3
-1.166, 1.878e-3
-1.167, 1.892e-3
-1.168, 1.914e-3
-1.169, 1.903e-3
-1.170, 1.908e-3
-1.171, 1.917e-3
-1.172, 1.930e-3
-1.173, 1.939e-3
-1.174, 1.947e-3
-1.175, 1.957e-3
-1.176, 1.957e-3
-1.177, 1.986e-3
-1.178, 1.997e-3
-1.179, 1.978e-3
-1.180, 1.982e-3
-1.181, 2.025e-3
-1.182, 2.042e-3
-1.183, 2.008e-3
-1.184, 2.022e-3
-1.185, 2.054e-3
-1.186, 2.052e-3
-1.187, 2.060e-3
-1.188, 2.082e-3
-1.189, 2.084e-3
-1.190, 2.090e-3
-1.191, 2.097e-3
-1.192, 2.106e-3
-1.193, 2.120e-3
-1.194, 2.125e-3
-1.195, 2.133e-3
-1.196, 2.146e-3
-1.197, 2.167e-3
-1.198, 2.171e-3
-1.199, 2.175e-3
-1.200, 2.172e-3
-1.201, 2.181e-3
-1.202, 2.203e-3
-1.203, 2.213e-3
-1.204, 2.228e-3
-1.205, 2.237e-3
-1.206, 2.235e-3
-1.207, 2.229e-3
-1.208, 2.251e-3
-1.209, 2.267e-3
-1.210, 2.258e-3
-1.211, 2.274e-3
-1.212, 2.285e-3
-1.213, 2.305e-3
-1.214, 2.307e-3
-1.215, 2.315e-3
-1.216, 2.317e-3
-1.217, 2.327e-3
-1.218, 2.332e-3
-1.219, 2.344e-3
-1.220, 2.353e-3
-1.221, 2.357e-3
-1.222, 2.377e-3
-1.223, 2.386e-3
-1.224, 2.387e-3
-1.225, 2.416e-3
-1.226, 2.427e-3
-1.227, 2.401e-3
-1.228, 2.397e-3
-1.229, 2.431e-3
-1.230, 2.457e-3
-1.231, 2.459e-3
-1.232, 2.456e-3
-1.233, 2.478e-3
-1.234, 2.485e-3
-1.235, 2.482e-3
-1.236, 2.494e-3
-1.237, 2.500e-3
-1.238, 2.514e-3
-1.239, 2.523e-3
-1.240, 2.531e-3
-1.241, 2.545e-3
-1.242, 2.563e-3
-1.243, 2.571e-3
-1.244, 2.569e-3
-1.245, 2.572e-3
-1.246, 2.581e-3
-1.247, 2.588e-3
-1.248, 2.611e-3
-1.249, 2.633e-3
-1.250, 2.627e-3
-1.251, 2.629e-3
-1.252, 2.653e-3
-1.253, 2.662e-3
-1.254, 2.662e-3
-1.255, 2.670e-3
-1.256, 2.675e-3
-1.257, 2.693e-3
-1.258, 2.711e-3
-1.259, 2.721e-3
-1.260, 2.716e-3
-1.261, 2.725e-3
-1.262, 2.743e-3
-1.263, 2.747e-3
-1.264, 2.749e-3
-1.265, 2.762e-3
-1.266, 2.780e-3
-1.267, 2.792e-3
-1.268, 2.799e-3
-1.269, 2.795e-3
-1.270, 2.799e-3
-1.271, 2.813e-3
-1.272, 2.827e-3
-1.273, 2.840e-3
-1.274, 2.851e-3
-1.275, 2.853e-3
-1.276, 2.859e-3
-1.277, 2.872e-3
-1.278, 2.883e-3
-1.279, 2.891e-3
-1.280, 2.901e-3
-1.281, 2.921e-3
-1.282, 2.958e-3
-1.283, 2.968e-3
-1.284, 2.951e-3
-1.285, 2.959e-3
-1.286, 2.976e-3
-1.287, 2.978e-3
-1.288, 2.997e-3
-1.289, 3.018e-3
-1.290, 3.051e-3
-1.291, 3.032e-3
-1.292, 3.033e-3
-1.293, 3.033e-3
-1.294, 3.054e-3
-1.295, 3.077e-3
-1.296, 3.083e-3
-1.297, 3.093e-3
-1.298, 3.107e-3
-1.299, 3.111e-3
-1.300, 3.129e-3
-1.301, 3.152e-3
-1.302, 3.163e-3
-1.303, 3.165e-3
-1.304, 3.169e-3
-1.305, 3.175e-3
-1.306, 3.190e-3
-1.307, 3.210e-3
-1.308, 3.226e-3
-1.309, 3.236e-3
-1.310, 3.243e-3
-1.311, 3.251e-3
-1.312, 3.267e-3
-1.313, 3.279e-3
-1.314, 3.290e-3
-1.315, 3.294e-3
-1.316, 3.318e-3
-1.317, 3.335e-3
-1.318, 3.341e-3
-1.319, 3.360e-3
-1.320, 3.382e-3
-1.321, 3.414e-3
-1.322, 3.435e-3
-1.323, 3.428e-3
-1.324, 3.434e-3
-1.325, 3.455e-3
-1.326, 3.477e-3
-1.327, 3.508e-3
-1.328, 3.520e-3
-1.329, 3.528e-3
-1.330, 3.552e-3
-1.331, 3.565e-3
-1.332, 3.590e-3
-1.333, 3.619e-3
-1.334, 3.676e-3
-1.335, 3.689e-3
-1.336, 3.659e-3
-1.337, 3.685e-3
-1.338, 3.721e-3
-1.339, 3.774e-3
-1.340, 3.802e-3
-1.341, 3.806e-3
-1.342, 3.815e-3
-1.343, 3.842e-3
-1.344, 3.873e-3
-1.345, 3.893e-3
-1.346, 3.921e-3
-1.347, 3.949e-3
-1.348, 3.975e-3
-1.349, 4.001e-3
-1.350, 4.025e-3
-1.351, 4.049e-3
-1.352, 4.076e-3
-1.353, 4.105e-3
-1.354, 4.131e-3
-1.355, 4.162e-3
-1.356, 4.197e-3
-1.357, 4.246e-3
-1.358, 4.272e-3
-1.359, 4.283e-3
-1.360, 4.314e-3
-1.361, 4.349e-3
-1.362, 4.385e-3
-1.363, 4.422e-3
-1.364, 4.462e-3
-1.365, 4.486e-3
-1.366, 4.530e-3
-1.367, 4.577e-3
-1.368, 4.591e-3
-1.369, 4.616e-3
-1.370, 4.654e-3
-1.371, 4.698e-3
-1.372, 4.742e-3
-1.373, 4.789e-3
-1.374, 4.853e-3
-1.375, 4.892e-3
-1.376, 4.903e-3
-1.377, 4.937e-3
-1.378, 4.983e-3
-1.379, 5.029e-3
-1.380, 5.077e-3
-1.381, 5.126e-3
-1.382, 5.167e-3
-1.383, 5.208e-3
-1.384, 5.250e-3
-1.385, 5.288e-3
-1.386, 5.331e-3
-1.387, 5.382e-3
-1.388, 5.433e-3
-1.389, 5.480e-3
-1.390, 5.529e-3
-1.391, 5.561e-3
-1.392, 5.619e-3
-1.393, 5.672e-3
-1.394, 5.711e-3
-1.395, 5.760e-3
-1.396, 5.829e-3
-1.397, 5.868e-3
-1.398, 5.918e-3
-1.399, 5.968e-3
-1.400, 5.935e-3
-1.399, 5.851e-3
-1.398, 5.788e-3
-1.397, 5.739e-3
-1.396, 5.695e-3
-1.395, 5.618e-3
-1.394, 5.520e-3
-1.393, 5.457e-3
-1.392, 5.401e-3
-1.391, 5.350e-3
-1.390, 5.298e-3
-1.389, 5.238e-3
-1.388, 5.175e-3
-1.387, 5.126e-3
-1.386, 5.057e-3
-1.385, 5.003e-3
-1.384, 4.947e-3
-1.383, 4.896e-3
-1.382, 4.839e-3
-1.381, 4.794e-3
-1.380, 4.745e-3
-1.379, 4.703e-3
-1.378, 4.643e-3
-1.377, 4.586e-3
-1.376, 4.561e-3
-1.375, 4.510e-3
-1.374, 4.449e-3
-1.373, 4.397e-3
-1.372, 4.356e-3
-1.371, 4.315e-3
-1.370, 4.285e-3
-1.369, 4.222e-3
-1.368, 4.156e-3
-1.367, 4.110e-3
-1.366, 4.089e-3
-1.365, 4.053e-3
-1.364, 4.000e-3
-1.363, 3.955e-3
-1.362, 3.918e-3
-1.361, 3.877e-3
-1.360, 3.842e-3
-1.359, 3.817e-3
-1.358, 3.780e-3
-1.357, 3.716e-3
-1.356, 3.672e-3
-1.355, 3.639e-3
-1.354, 3.597e-3
-1.353, 3.565e-3
-1.352, 3.541e-3
-1.351, 3.499e-3
-1.350, 3.447e-3
-1.349, 3.405e-3
-1.348, 3.405e-3
-1.347, 3.367e-3
-1.346, 3.301e-3
-1.345, 3.258e-3
-1.344, 3.253e-3
-1.343, 3.231e-3
-1.342, 3.180e-3
-1.341, 3.170e-3
-1.340, 3.133e-3
-1.339, 3.085e-3
-1.338, 3.049e-3
-1.337, 3.022e-3
-1.336, 2.999e-3
-1.335, 2.969e-3
-1.334, 2.934e-3
-1.333, 2.907e-3
-1.332, 2.874e-3
-1.331, 2.845e-3
-1.330, 2.818e-3
-1.329, 2.789e-3
-1.328, 2.761e-3
-1.327, 2.735e-3
-1.326, 2.719e-3
-1.325, 2.687e-3
-1.324, 2.650e-3
-1.323, 2.623e-3
-1.322, 2.606e-3
-1.321, 2.587e-3
-1.320, 2.558e-3
-1.319, 2.530e-3
-1.318, 2.508e-3
-1.317, 2.483e-3
-1.316, 2.466e-3
-1.315, 2.445e-3
-1.314, 2.419e-3
-1.313, 2.391e-3
-1.312, 2.376e-3
-1.311, 2.353e-3
-1.310, 2.327e-3
-1.309, 2.308e-3
-1.308, 2.298e-3
-1.307, 2.274e-3
-1.306, 2.252e-3
-1.305, 2.227e-3
-1.304, 2.204e-3
-1.303, 2.182e-3
-1.302, 2.168e-3
-1.301, 2.160e-3
-1.300, 2.140e-3
-1.299, 2.111e-3
-1.298, 2.100e-3
-1.297, 2.086e-3
-1.296, 2.067e-3
-1.295, 2.049e-3
-1.294, 2.038e-3
-1.293, 2.035e-3
-1.292, 2.025e-3
-1.291, 1.995e-3
-1.290, 1.974e-3
-1.289, 1.972e-3
-1.288, 1.950e-3
-1.287, 1.948e-3
-1.286, 1.937e-3
-1.285, 1.905e-3
-1.284, 1.901e-3
-1.283, 1.887e-3
-1.282, 1.876e-3
-1.281, 1.861e-3
-1.280, 1.859e-3
-1.279, 1.827e-3
-1.278, 1.810e-3
-1.277, 1.818e-3
-1.276, 1.828e-3
-1.275, 1.801e-3
-1.274, 1.773e-3
-1.273, 1.759e-3
-1.272, 1.758e-3
-1.271, 1.747e-3
-1.270, 1.742e-3
-1.269, 1.736e-3
-1.268, 1.721e-3
-1.267, 1.703e-3
-1.266, 1.693e-3
-1.265, 1.687e-3
-1.264, 1.680e-3
-1.263, 1.667e-3
-1.262, 1.658e-3
-1.261, 1.651e-3
-1.260, 1.639e-3
-1.259, 1.632e-3
-1.258, 1.636e-3
-1.257, 1.628e-3
-1.256, 1.605e-3
-1.255, 1.590e-3
-1.254, 1.582e-3
-1.253, 1.581e-3
-1.252, 1.584e-3
-1.251, 1.578e-3
-1.250, 1.561e-3
-1.249, 1.553e-3
-1.248, 1.539e-3
-1.247, 1.532e-3
-1.246, 1.529e-3
-1.245, 1.524e-3
-1.244, 1.513e-3
-1.243, 1.511e-3
-1.242, 1.502e-3
-1.241, 1.486e-3
-1.240, 1.504e-3
-1.239, 1.512e-3
-1.238, 1.475e-3
-1.237, 1.442e-3
-1.236, 1.445e-3
-1.235, 1.449e-3
-1.234, 1.456e-3
-1.233, 1.466e-3
-1.232, 1.445e-3
-1.231, 1.423e-3
-1.230, 1.417e-3
-1.229, 1.415e-3
-1.228, 1.415e-3
-1.227, 1.414e-3
-1.226, 1.402e-3
-1.225, 1.396e-3
-1.224, 1.396e-3
-1.223, 1.405e-3
-1.222, 1.377e-3
-1.221, 1.359e-3
-1.220, 1.356e-3
-1.219, 1.358e-3
-1.218, 1.366e-3
-1.217, 1.362e-3
-1.216, 1.344e-3
-1.215, 1.327e-3
-1.214, 1.320e-3
-1.213, 1.319e-3
-1.212, 1.321e-3
-1.211, 1.315e-3
-1.210, 1.301e-3
-1.209, 1.306e-3
-1.208, 1.304e-3
-1.207, 1.289e-3
-1.206, 1.277e-3
-1.205, 1.275e-3
-1.204, 1.272e-3
-1.203, 1.271e-3
-1.202, 1.269e-3
-1.201, 1.261e-3
-1.200, 1.257e-3
-1.199, 1.253e-3
-1.198, 1.238e-3
-1.197, 1.253e-3
-1.196, 1.259e-3
-1.195, 1.238e-3
-1.194, 1.206e-3
-1.193, 1.210e-3
-1.192, 1.218e-3
-1.191, 1.220e-3
-1.190, 1.240e-3
-1.189, 1.203e-3
-1.188, 1.175e-3
-1.187, 1.169e-3
-1.186, 1.181e-3
-1.185, 1.187e-3
-1.184, 1.182e-3
-1.183, 1.168e-3
-1.182, 1.162e-3
-1.181, 1.159e-3
-1.180, 1.150e-3
-1.179, 1.139e-3
-1.178, 1.135e-3
-1.177, 1.129e-3
-1.176, 1.125e-3
-1.175, 1.124e-3
-1.174, 1.116e-3
-1.173, 1.122e-3
-1.172, 1.110e-3
-1.171, 1.095e-3
-1.170, 1.086e-3
-1.169, 1.087e-3
-1.168, 1.086e-3
-1.167, 1.077e-3
-1.166, 1.076e-3
-1.165, 1.070e-3
-1.164, 1.066e-3
-1.163, 1.048e-3
-1.162, 1.043e-3
-1.161, 1.031e-3
-1.160, 1.059e-3
-1.159, 1.045e-3
-1.158, 1.008e-3
-1.157, 1.003e-3
-1.156, 1.007e-3
-1.155, 1.035e-3
-1.154, 1.024e-3
-1.153, 9.745e-4
-1.152, 9.735e-4
-1.151, 9.904e-4
-1.150, 9.935e-4
-1.149, 9.706e-4
-1.148, 9.630e-4
-1.147, 9.600e-4
-1.146, 9.593e-4
-1.145, 9.579e-4
-1.144, 9.426e-4
-1.143, 9.331e-4
-1.142, 9.290e-4
-1.141, 9.254e-4
-1.140, 9.187e-4
-1.139, 9.118e-4
-1.138, 9.167e-4
-1.137, 9.099e-4
-1.136, 8.911e-4
-1.135, 8.835e-4
-1.134, 8.789e-4
-1.133, 8.757e-4
-1.132, 8.755e-4
-1.131, 8.808e-4
-1.130, 8.648e-4
-1.129, 8.498e-4
-1.128, 8.497e-4
-1.127, 8.489e-4
-1.126, 8.450e-4
-1.125, 8.281e-4
-1.124, 8.234e-4
-1.123, 8.255e-4
-1.122, 8.268e-4
-1.121, 8.099e-4
-1.120, 8.172e-4
-1.119, 8.291e-4
-1.118, 7.952e-4
-1.117, 7.675e-4
-1.116, 7.730e-4
-1.115, 7.802e-4
-1.114, 7.817e-4
-1.113, 7.819e-4
-1.112, 7.823e-4
-1.111, 7.636e-4
-1.110, 7.475e-4
-1.109, 7.505e-4
-1.108, 7.462e-4
-1.107, 7.435e-4
-1.106, 7.403e-4
-1.105, 7.349e-4
-1.104, 7.331e-4
-1.103, 7.361e-4
-1.102, 7.278e-4
-1.101, 7.216e-4
-1.100, 7.080e-4
-1.099, 7.148e-4
-1.098, 7.196e-4
-1.097, 7.027e-4
-1.096, 7.042e-4
-1.095, 7.022e-4
-1.094, 6.973e-4
-1.093, 6.950e-4
-1.092, 6.957e-4
-1.091, 6.797e-4
-1.090, 6.753e-4
-1.089, 6.864e-4
-1.088, 6.866e-4
-1.087, 6.637e-4
-1.086, 6.671e-4
-1.085, 6.718e-4
-1.084, 6.681e-4
-1.083, 6.652e-4
-1.082, 6.613e-4
-1.081, 6.503e-4
-1.080, 6.437e-4
-1.079, 6.494e-4
-1.078, 6.437e-4
-1.077, 6.418e-4
-1.076, 6.350e-4
-1.075, 6.353e-4
-1.074, 6.306e-4
-1.073, 6.251e-4
-1.072, 6.245e-4
-1.071, 6.369e-4
-1.070, 6.415e-4
-1.069, 6.384e-4
-1.068, 6.120e-4
-1.067, 6.156e-4
-1.066, 6.164e-4
-1.065, 6.172e-4
-1.064, 6.232e-4
-1.063, 6.270e-4
-1.062, 6.056e-4
-1.061, 6.030e-4
-1.060, 6.059e-4
-1.059, 6.100e-4
-1.058, 6.042e-4
-1.057, 6.023e-4
-1.056, 6.013e-4
-1.055, 5.997e-4
-1.054, 6.011e-4
-1.053, 6.022e-4
-1.052, 6.046e-4
-1.051, 5.938e-4
-1.050, 5.945e-4
-1.049, 5.899e-4
-1.048, 5.934e-4
-1.047, 5.915e-4
-1.046, 5.913e-4
-1.045, 5.979e-4
-1.044, 5.975e-4
-1.043, 5.923e-4
-1.042, 5.930e-4
-1.041, 5.939e-4
-1.040, 5.869e-4
-1.039, 5.915e-4
-1.038, 5.903e-4
-1.037, 5.976e-4
-1.036, 6.024e-4
-1.035, 5.979e-4
-1.034, 6.018e-4
-1.033, 6.029e-4
-1.032, 5.990e-4
-1.031, 5.985e-4
-1.030, 5.984e-4
-1.029, 6.042e-4
-1.028, 6.020e-4
-1.027, 6.040e-4
-1.026, 6.186e-4
-1.025, 6.225e-4
-1.024, 6.118e-4
-1.023, 5.936e-4
-1.022, 5.973e-4
-1.021, 6.065e-4
-1.020, 5.997e-4
-1.019, 6.022e-4
-1.018, 6.025e-4
-1.017, 6.085e-4
-1.016, 6.145e-4
-1.015, 5.902e-4
-1.014, 5.703e-4
-1.013, 5.756e-4
-1.012, 5.822e-4
-1.011, 5.872e-4
-1.010, 5.987e-4
-1.009, 5.877e-4
-1.008, 5.717e-4
-1.007, 5.621e-4
-1.006, 5.619e-4
-1.005, 5.636e-4
-1.004, 5.718e-4
-1.003, 5.589e-4
-1.002, 5.484e-4
-1.001, 5.489e-4
