Potential V vs RHE, Current mA cm-2
0.013299999999999867,-0.7437137303390498
0.012299999999999978,-2.924208256821031
0.011299999999999866,-4.668547289554621
0.010299999999999976,-6.064867342521412
0.009299999999999864,-7.28576319430494
0.008299999999999974,-8.4203616567967
0.007299999999999862,-9.467248018696827
0.006299999999999972,-10.382566229709504
0.00529999999999986,-11.123874950838783
0.0042999999999999705,-11.73503023238048
0.0032999999999998586,-12.170761312738911
0.0022999999999999687,-12.607907104397206
0.0012999999999998568,-13.043638184755638
0.00029999999999996696,-13.523225315409885
-0.000700000000000145,-13.916515056772363
-0.0017000000000000348,-14.217848563643619
-0.0027000000000001467,-14.401761032626075
-0.0037000000000000366,-14.486643710617974
-0.0047000000000001485,-14.65640906660178
-0.005700000000000038,-14.925204213576137
-0.00670000000000015,-15.179852247551842
-0.00770000000000004,-15.349617603535648
-0.008700000000000152,-15.448647394526201
-0.009700000000000042,-15.448647394526201
-0.010700000000000154,-15.491088733522153
-0.011700000000000044,-15.618412750510005
-0.012700000000000156,-15.74573676749786
-0.013700000000000045,-15.87306078448571
-0.014700000000000157,-16.014531914472215
-0.015700000000000047,-16.014531914472215
-0.01670000000000016,-15.972090575476265
-0.01770000000000005,-15.972090575476265
-0.01870000000000016,-16.056973253468165
-0.01970000000000005,-16.184297270456018
-0.020700000000000163,-16.311621287443874
-0.021700000000000053,-16.311621287443874
-0.022700000000000164,-16.311621287443874
-0.023700000000000054,-16.22673860945197
-0.024700000000000166,-16.269179948447924
-0.025700000000000056,-16.311621287443874
-0.026700000000000168,-16.438945304431726
-0.027700000000000058,-16.53797509542228
-0.02870000000000017,-16.495533756426326
-0.02970000000000006,-16.438945304431726
-0.03070000000000017,-16.396503965435777
-0.03170000000000006,-16.396503965435777
-0.03270000000000017,-16.53797509542228
-0.03370000000000006,-16.622857773414182
-0.034700000000000175,-16.665299112410132
-0.035700000000000065,-16.665299112410132
-0.03670000000000018,-16.53797509542228
-0.03770000000000007,-16.53797509542228
-0.03870000000000018,-16.580416434418233
-0.03970000000000007,-16.665299112410132
-0.04070000000000018,-16.750181790402035
-0.04170000000000007,-16.750181790402035
-0.04270000000000018,-16.70774045140608
-0.04370000000000007,-16.622857773414182
-0.044700000000000184,-16.622857773414182
-0.045700000000000074,-16.665299112410132
-0.046700000000000186,-16.792623129397985
-0.047700000000000076,-16.835064468393938
-0.04870000000000019,-16.835064468393938
-0.04970000000000008,-16.70774045140608
-0.05070000000000019,-16.622857773414182
-0.05170000000000008,-16.70774045140608
-0.05270000000000019,-16.750181790402035
-0.05370000000000008,-16.877505807389888
-0.05470000000000019,-16.877505807389888
-0.05570000000000008,-16.835064468393938
-0.056700000000000195,-16.750181790402035
-0.057700000000000085,-16.750181790402035
-0.058700000000000196,-16.750181790402035
-0.059700000000000086,-16.877505807389888
-0.0607000000000002,-16.962388485381787
-0.06170000000000009,-16.962388485381787
-0.0627000000000002,-16.919947146385837
-0.06370000000000009,-16.835064468393938
-0.0647000000000002,-16.835064468393938
-0.06570000000000009,-16.877505807389888
-0.0667000000000002,-16.962388485381787
-0.0677000000000001,-17.018976937376394
-0.0687000000000002,-17.018976937376394
-0.0697000000000001,-16.919947146385837
-0.07070000000000021,-16.835064468393938
-0.0717000000000001,-16.877505807389888
-0.07270000000000021,-16.962388485381787
-0.0737000000000001,-17.061418276372343
-0.07470000000000021,-17.061418276372343
-0.0757000000000001,-17.061418276372343
-0.07670000000000021,-16.962388485381787
-0.0777000000000001,-16.919947146385837
-0.07870000000000021,-16.962388485381787
-0.0797000000000001,-17.061418276372343
-0.08070000000000022,-17.188742293360193
-0.0817000000000001,-17.146300954364243
-0.08270000000000022,-17.103859615368293
-0.08370000000000011,-17.061418276372343
-0.08470000000000022,-17.018976937376394
-0.08570000000000011,-17.103859615368293
-0.08670000000000022,-17.188742293360193
-0.08770000000000011,-17.231183632356142
-0.08870000000000022,-17.231183632356142
-0.08970000000000011,-17.146300954364243
-0.09070000000000022,-17.061418276372343
-0.09170000000000011,-17.103859615368293
-0.09270000000000023,-17.188742293360193
-0.09370000000000012,-17.316066310348052
-0.09470000000000023,-17.358507649344002
-0.09570000000000012,-17.231183632356142
-0.09670000000000023,-17.188742293360193
-0.09770000000000012,-17.146300954364243
-0.09870000000000023,-17.188742293360193
-0.09970000000000012,-17.2736249713521
-0.10070000000000023,-17.40094898833995
-0.10170000000000012,-17.40094898833995
-0.10270000000000024,-17.316066310348052
-0.10370000000000013,-17.231183632356142
-0.10470000000000024,-17.231183632356142
-0.10570000000000013,-17.316066310348052
-0.10670000000000024,-17.4433903273359
-0.10770000000000013,-17.48583166633185
-0.10870000000000024,-17.48583166633185
-0.10970000000000013,-17.40094898833995
-0.11070000000000024,-17.358507649344002
-0.11170000000000013,-17.358507649344002
-0.11270000000000002,-17.4433903273359
-0.11370000000000013,-17.542420118326454
-0.11470000000000002,-17.584861457322408
-0.11570000000000014,-17.542420118326454
-0.11670000000000003,-17.4433903273359
-0.11770000000000014,-17.40094898833995
-0.11870000000000003,-17.48583166633185
-0.11970000000000014,-17.584861457322408
-0.12070000000000003,-17.71218547431026
-0.12170000000000014,-17.71218547431026
-0.12270000000000003,-17.627302796318357
-0.12370000000000014,-17.542420118326454
-0.12470000000000003,-17.48583166633185
-0.12570000000000014,-17.584861457322408
-0.12670000000000003,-17.71218547431026
-0.12770000000000015,-17.75462681330621
-0.12870000000000004,-17.75462681330621
-0.12970000000000015,-17.669744135314307
-0.13070000000000004,-17.627302796318357
-0.13170000000000015,-17.669744135314307
-0.13270000000000004,-17.75462681330621
-0.13370000000000015,-17.839509491298113
-0.13470000000000004,-17.924392169290012
-0.13570000000000015,-17.881950830294063
-0.13670000000000004,-17.75462681330621
-0.13770000000000016,-17.75462681330621
-0.13870000000000005,-17.797068152302163
-0.13970000000000016,-17.924392169290012
-0.14070000000000005,-18.06586329927652
-0.14170000000000016,-18.06586329927652
-0.14270000000000005,-18.009274847281915
-0.14370000000000016,-17.924392169290012
-0.14470000000000005,-17.924392169290012
-0.14570000000000016,-17.966833508285966
-0.14670000000000005,-18.10830463827247
-0.14770000000000016,-18.19318731626437
-0.14870000000000005,-18.19318731626437
-0.14970000000000017,-18.15074597726842
-0.15070000000000006,-18.10830463827247
-0.15170000000000017,-18.10830463827247
-0.15270000000000006,-18.19318731626437
-0.15370000000000017,-18.320511333252224
-0.15470000000000006,-18.362952672248177
-0.15570000000000017,-18.320511333252224
-0.15670000000000006,-18.23562865526032
-0.15770000000000017,-18.23562865526032
-0.15870000000000006,-18.320511333252224
-0.15970000000000018,-18.40539401124413
-0.16070000000000007,-18.53271802823198
-0.16170000000000018,-18.53271802823198
-0.16270000000000007,-18.49027668923603
-0.16370000000000018,-18.44783535024008
-0.16470000000000007,-18.44783535024008
-0.16570000000000018,-18.53271802823198
-0.16670000000000007,-18.674189158218486
-0.16770000000000018,-18.759071836210385
-0.16870000000000007,-18.759071836210385
-0.16970000000000018,-18.674189158218486
-0.17070000000000007,-18.631747819222536
-0.17170000000000019,-18.674189158218486
-0.17270000000000008,-18.759071836210385
-0.1737000000000002,-18.88639585319824
-0.17470000000000008,-18.92883719219419
-0.1757000000000002,-18.92883719219419
-0.17670000000000008,-18.843954514202288
-0.1777000000000002,-18.843954514202288
-0.17870000000000008,-18.92883719219419
-0.1797000000000002,-19.056161209182044
-0.18070000000000008,-19.155191000172596
-0.1817000000000002,-19.2400736781645
-0.18270000000000008,-19.197632339168546
-0.1837000000000002,-19.155191000172596
-0.1847000000000001,-19.112749661176647
-0.1857000000000002,-19.2400736781645
-0.1867000000000001,-19.367397695152352
-0.1877000000000002,-19.49472171214021
-0.1887000000000001,-19.49472171214021
-0.1897000000000002,-19.452280373144255
-0.1907000000000001,-19.409839034148305
-0.1917000000000001,-19.49472171214021
-0.19269999999999998,-19.636192842126707
-0.1937000000000001,-19.805958198110513
-0.19469999999999998,-19.848399537106463
-0.1957000000000001,-19.848399537106463
-0.19669999999999999,-19.848399537106463
-0.1977000000000001,-19.848399537106463
-0.1987,-19.93328221509837
-0.1997000000000001,-20.10304757108217
-0.2007,-20.244518701068674
-0.2017000000000001,-20.329401379060574
-0.2027,-20.286960040064624
-0.2037000000000001,-20.286960040064624
-0.2047,-20.286960040064624
-0.2057000000000001,-20.414284057052477
-0.2067,-20.584049413036283
-0.2077000000000001,-20.72552054302279
-0.2087,-20.76796188201874
-0.2097000000000001,-20.76796188201874
-0.2107,-20.72552054302279
-0.2117000000000001,-20.810403221014692
-0.2127,-20.93772723800254
-0.2137000000000001,-21.149933932982297
-0.2147,-21.248963723972853
-0.2157000000000001,-21.333846401964752
-0.2167,-21.333846401964752
-0.21770000000000012,-21.376287740960702
-0.2187,-21.503611757948562
-0.21970000000000012,-21.67337711393236
-0.2207,-21.814848243918867
-0.22170000000000012,-21.899730921910766
-0.2227,-21.94217226090672
-0.22370000000000012,-21.94217226090672
-0.2247,-21.98461359990267
-0.22570000000000012,-22.15437895588647
-0.2267,-22.38073276386488
-0.22770000000000012,-22.550498119848687
-0.22870000000000001,-22.63538079784059
-0.22970000000000013,-22.63538079784059
-0.23070000000000002,-22.72026347583249
-0.23170000000000013,-22.819293266823045
-0.23270000000000002,-23.031499961802798
-0.23370000000000013,-23.24370665678255
-0.23470000000000002,-23.427619125765005
-0.23570000000000013,-23.47006046476096
-0.23670000000000002,-23.47006046476096
-0.2376999999999999,-23.55494314275286
-0.23870000000000002,-23.724708498736668
-0.2396999999999999,-23.951062306715073
-0.24070000000000003,-24.16326900169483
-0.24169999999999991,-24.290593018682678
-0.24270000000000003,-24.389622809673234
-0.24369999999999992,-24.474505487665134
-0.24470000000000003,-24.559388165657033
-0.24569999999999992,-24.814036199632742
-0.24670000000000003,-25.12527268560305
-0.24769999999999992,-25.337479380582806
-0.24870000000000003,-25.521391849565262
-0.24969999999999992,-25.563833188561212
-0.25070000000000003,-25.691157205549064
-0.2516999999999999,-25.91751101352747
-0.25270000000000004,-26.17215904750318
-0.2536999999999999,-26.483395533473487
-0.25470000000000004,-26.69560222845324
-0.2556999999999999,-26.86536758443705
-0.25670000000000004,-26.9643973754276
-0.25769999999999993,-27.134162731411404
-0.25870000000000004,-27.34636942639116
-0.25969999999999993,-27.742488590353368
-0.26070000000000004,-28.05372507632368
-0.26169999999999993,-28.265931771303435
-0.26270000000000004,-28.435697127287238
-0.26369999999999993,-28.53472691827779
-0.26470000000000005,-28.789374952253496
-0.26569999999999994,-29.100611438223805
-0.26670000000000005,-29.482583489187363
-0.26769999999999994,-29.836261314153624
-0.26870000000000005,-30.04846800913338
-0.26969999999999994,-30.232380478115836
-0.27070000000000005,-30.444587173095588
-0.27169999999999994,-30.71338232006995
-0.27270000000000005,-31.095354371033505
-0.27369999999999994,-31.449032195999767
-0.27470000000000006,-31.802710020966025
-0.27569999999999995,-32.09979939393769
-0.27670000000000006,-32.32615320191609
-0.27769999999999995,-32.53835989689585
-0.27870000000000006,-32.892037721862096
-0.27969999999999995,-33.373039563816214
-0.28070000000000006,-33.755011614779775
-0.28169999999999995,-34.10868943974604
-0.28270000000000006,-34.41992592571634
-0.28369999999999995,-34.67457395969205
-0.28470000000000006,-34.98581044566235
-0.28569999999999995,-35.42437094862052
-0.28670000000000007,-35.90537279057463
-0.28769999999999996,-36.329786180534136
-0.28870000000000007,-36.725905344496354
-0.28969999999999996,-37.037141830466666
-0.29070000000000007,-37.376672542434264
-0.29169999999999996,-37.77279170639648
-0.29270000000000007,-38.29623488734655
-0.29369999999999996,-38.81967806829661
-0.2947000000000001,-39.30067991025072
-0.29569999999999996,-39.654357735216976
-0.2967000000000001,-39.99388844718459
-0.29769999999999996,-40.43244895014274
-0.2987000000000001,-40.91345079209687
-0.29969999999999997,-41.47933531204288
-0.3007000000000001,-42.00277849299294
-0.30169999999999997,-42.483780334947056
-0.3027000000000001,-42.92234083790521
-0.30369999999999997,-43.31846000186743
-0.3047000000000001,-43.79946184382153
-0.30569999999999997,-44.36534636376755
-0.3067000000000001,-45.01611356170547
-0.3077,-45.624439420647434
-0.3087000000000001,-46.10544126260155
-0.3097,-46.586443104555656
-0.3107000000000001,-47.067444946509774
-0.3117,-47.633329466455784
-0.3127000000000001,-48.2840966643937
-0.3137,-48.93486386233162
-0.3147000000000001,-49.59977817326819
-0.3157,-50.12322135421825
-0.3167000000000001,-50.64666453516831
-0.3177,-51.21254905511432
-0.3187000000000001,-51.90575759204819
-0.3197,-52.59896612898206
-0.3207000000000001,-53.30632177891458
-0.3217,-53.9570889768525
-0.3227000000000001,-54.52297349679851
-0.3237,-55.088858016744524
-0.3247000000000001,-55.6971838756865
-0.3257,-56.44698086461496
-0.3267000000000001,-57.22507207954074
-0.3277,-58.017310407465146
-0.3287000000000001,-58.66807760540307
-0.3297,-59.27640346434504
-0.3307000000000001,-59.92717066228296
-0.3317,-60.71940899020737
-0.3327000000000001,-61.49750020513315
-0.3337,-62.28973853305756
-0.3347000000000001,-63.11027108697928
-0.3357,-63.81762673691181
-0.3367000000000001,-64.51083527384567
-0.3377,-65.2464851497755
-0.3387000000000001,-66.03872347769992
-0.3397,-66.91584448361623
-0.3407000000000001,-67.7788183765339
-0.3417,-68.61349804345427
-0.3427000000000001,-69.39158925838004
-0.3437,-70.14138624730852
-0.3447000000000001,-70.96191880123024
-0.3457,-71.8814811461425
-0.3467000000000001,-72.8859261690467
-0.3477,-73.8479298529549
-0.3487000000000001,-74.72505085887124
-0.3497,-75.54558341279296
-0.3507000000000001,-76.42270441870929
-0.3517,-77.34226676362155
-0.3527000000000001,-78.29012333453113
-0.3537,-79.33700969643127
-0.3547000000000001,-80.34145471933543
-0.3557,-81.26101706424771
-0.35670000000000013,-82.09569673116808
-0.3577,-83.0011119630817
-0.35870000000000013,-84.00555698598588
-0.3597,-85.09488468688197
-0.36070000000000013,-86.18421238777805
-0.3617,-87.18865741068221
-0.3626999999999999,-88.15066109459043
-0.3637,-89.07022343950271
-0.3646999999999999,-90.07466846240689
-0.3657,-91.20643750229891
-0.3666999999999999,-92.33820654219093
-0.3677,-93.42753424308701
-0.3686999999999999,-94.47442060498715
-0.36970000000000003,-95.47886562789132
-0.3706999999999999,-96.4833106507955
-0.37170000000000003,-97.57263835169158
-0.3726999999999999,-98.7044073915836
-0.37370000000000003,-99.93520622246619
-0.3746999999999999,-101.06697526235823
-0.37570000000000003,-102.11386162425833
-0.3766999999999999,-103.16074798615847
-0.37770000000000004,-104.25007568705455
-0.3786999999999999,-105.42428606594254
-0.37970000000000004,-106.68337912282242
-0.3806999999999999,-107.914177953705
-0.38170000000000004,-109.13082967158894
-0.38269999999999993,-110.22015737248502
-0.38370000000000004,-111.3094850733811
-0.38469999999999993,-112.54028390426367
-0.38570000000000004,-113.79937696114357
-0.38669999999999993,-113.36081645818538
-0.38570000000000004,-110.22015737248502
-0.38469999999999993,-107.51805878974278
-0.38370000000000004,-105.11304957997223
-0.38269999999999993,-102.97683551717601
-0.38170000000000004,-101.10941660135417
-0.3806999999999999,-99.35517458952152
-0.37970000000000004,-97.78484504667132
-0.3786999999999999,-96.21451550382113
-0.37770000000000004,-94.6583330739696
-0.3766999999999999,-92.98897374012887
-0.37570000000000003,-91.46108553627462
-0.3746999999999999,-90.03222712341093
-0.37370000000000003,-88.71654561453644
-0.3726999999999999,-87.41501121866061
-0.37170000000000003,-86.01444703179425
-0.3706999999999999,-84.6563241839238
-0.36970000000000003,-83.22746577106011
-0.3686999999999999,-81.86934292318966
-0.3677,-80.65269120530574
-0.3666999999999999,-79.47848082641775
-0.3657,-78.24768199553519
-0.3646999999999999,-76.98858893865528
-0.3637,-75.63046609078486
-0.3626999999999999,-74.32893169490903
-0.3617,-73.0556915250305
-0.36070000000000013,-71.92392248513846
-0.3597,-70.8345947842424
-0.35870000000000013,-69.6603844053544
-0.3577,-68.44373268747047
-0.35670000000000013,-67.128051178596
-0.3557,-65.91139946071206
-0.3547000000000001,-64.82207175981598
-0.3537,-63.77518539791585
-0.3527000000000001,-62.72829903601572
-0.3517,-61.63897133511965
-0.3507000000000001,-60.45061384323302
-0.3497,-59.27640346434504
-0.3487000000000001,-58.14463442445301
-0.3477,-57.097748062552874
-0.3467000000000001,-56.13574437864466
-0.3457,-55.088858016744524
-0.3447000000000001,-53.999530315848446
-0.3437,-52.86776127595642
-0.3427000000000001,-51.77843357506035
-0.3417,-50.73154721316022
-0.3407000000000001,-49.76954352925199
-0.3397,-48.84998118433972
-0.3387000000000001,-47.84553616143554
-0.3377,-46.79864979953541
-0.3367000000000001,-45.70932209863933
-0.3357,-44.66243573673921
-0.3347000000000001,-43.70043205283099
-0.3337,-42.87989949890926
-0.3327000000000001,-42.00277849299294
-0.3317,-41.083216148080666
-0.3307000000000001,-40.135359577171094
-0.3297,-39.08847321527096
-0.3287000000000001,-38.16891087035869
-0.3277,-37.334231203438314
-0.3267000000000001,-36.55613998851254
-0.3257,-35.721460321592176
-0.3247000000000001,-34.8018979766799
-0.3237,-33.85404140577033
-0.3227000000000001,-32.892037721862096
-0.3217,-32.05735805494172
-0.3207000000000001,-31.23682550102001
-0.3197,-30.529469851087494
-0.3187000000000001,-29.708937297165768
-0.3177,-28.831816291249446
-0.3167000000000001,-27.954695285333123
-0.3157,-27.091721392415455
-0.3147000000000001,-26.34192440348698
-0.3137,-25.648715866553115
-0.3127000000000001,-24.997948668615198
-0.3117,-24.20571034069078
-0.3107000000000001,-23.427619125765005
-0.3097,-22.592939458844636
-0.3087000000000001,-21.814848243918867
-0.3077,-21.149933932982297
-0.3067000000000001,-20.541608074040333
-0.30569999999999997,-19.848399537106463
-0.3047000000000001,-19.155191000172596
-0.30369999999999997,-18.362952672248177
-0.3027000000000001,-17.584861457322408
-0.30169999999999997,-16.919947146385837
-0.3007000000000001,-16.311621287443874
-0.29969999999999997,-15.74573676749786
-0.2987000000000001,-15.137410908555893
-0.29769999999999996,-14.401761032626075
-0.2967000000000001,-13.698649516593148
-0.29569999999999996,-12.99978213445982
-0.2947000000000001,-12.432482903213943
-0.29369999999999996,-11.909039722263879
-0.29270000000000007,-11.385596541313816
-0.29169999999999996,-10.775855971071984
-0.29070000000000007,-10.164700689530287
-0.28969999999999996,-9.467248018696827
-0.28870000000000007,-8.85609273715513
-0.28769999999999996,-8.376505606500881
-0.28670000000000007,-7.896918475846635
-0.28569999999999995,-7.4173313451923875
-0.28470000000000006,-6.850032113946507
-0.28369999999999995,-6.238876832404812
-0.28270000000000006,-5.672992312458796
-0.28169999999999995,-5.105693081212917
-0.28070000000000006,-4.712403339850438
-0.27969999999999995,-4.276672259492005
-0.27870000000000006,-3.840941179133574
-0.27769999999999995,-3.317497998183511
-0.27670000000000006,-2.7501987669376318
-0.27569999999999995,-2.1828995356917518
-0.27470000000000006,-1.7910245056291363
-0.27369999999999994,-1.3980177065266295
-0.27270000000000005,-1.0490084288499246
-0.27169999999999994,-0.6128529351015338
-0.27070000000000005,-0.08943804837746762
-0.26969999999999994,0.43403342679859325
-0.26870000000000005,0.870188920546984
-0.26769999999999994,1.2626298351295453
