Apr. 20, 2025   20:39:54
Cyclic Voltammetry
File: c:/users/guazh/data/banditlqround7_x0exp590_r20/2025-04-16-exp1140\exp1140-2025-04-20t20_35_01-arkoh\exp1140_cv_50mvs_efin_-1400mv.bin
Data Source:  Experiment
Instrument Model:  CHI760E
Header: CV ran at 50 mVs
Note: 

Init E (V) = -1
High E (V) = -1
Low E (V) = -1.4
Final E (V) = -1
Init P/N = N
Scan Rate (V/s) = 0.05
Segment = 7
Sample Interval (V) = 0.001
Quiet Time (sec) = 60
Sensitivity (A/V) = 0.001
Comp R (ohm) = 1.4

Results:

Channel 1:
Segment 1:

Segment 2:

Segment 3:

Segment 4:

Segment 5:

Segment 6:

Segment 7:

Potential/V, Current/A

-1.000, 1.606e-5
-1.001, 2.995e-5
-1.002, 3.571e-5
-1.003, 3.521e-5
-1.004, 3.115e-5
-1.005, 2.995e-5
-1.006, 3.440e-5
-1.007, 3.923e-5
-1.008, 3.790e-5
-1.009, 3.348e-5
-1.010, 3.225e-5
-1.011, 3.642e-5
-1.012, 4.096e-5
-1.013, 3.982e-5
-1.014, 3.520e-5
-1.015, 3.404e-5
-1.016, 3.808e-5
-1.017, 4.241e-5
-1.018, 4.161e-5
-1.019, 3.679e-5
-1.020, 3.561e-5
-1.021, 3.966e-5
-1.022, 4.401e-5
-1.023, 4.330e-5
-1.024, 3.868e-5
-1.025, 3.721e-5
-1.026, 4.141e-5
-1.027, 4.569e-5
-1.028, 4.504e-5
-1.029, 4.035e-5
-1.030, 3.888e-5
-1.031, 4.325e-5
-1.032, 4.768e-5
-1.033, 4.669e-5
-1.034, 4.243e-5
-1.035, 4.086e-5
-1.036, 4.524e-5
-1.037, 4.986e-5
-1.038, 4.889e-5
-1.039, 4.458e-5
-1.040, 4.293e-5
-1.041, 4.729e-5
-1.042, 5.228e-5
-1.043, 5.125e-5
-1.044, 4.705e-5
-1.045, 4.538e-5
-1.046, 4.973e-5
-1.047, 5.491e-5
-1.048, 5.385e-5
-1.049, 4.943e-5
-1.050, 4.813e-5
-1.051, 5.244e-5
-1.052, 5.742e-5
-1.053, 5.671e-5
-1.054, 5.228e-5
-1.055, 5.112e-5
-1.056, 5.533e-5
-1.057, 6.013e-5
-1.058, 5.990e-5
-1.059, 5.525e-5
-1.060, 5.398e-5
-1.061, 5.837e-5
-1.062, 6.348e-5
-1.063, 6.316e-5
-1.064, 5.844e-5
-1.065, 5.705e-5
-1.066, 6.170e-5
-1.067, 6.648e-5
-1.068, 6.594e-5
-1.069, 6.157e-5
-1.070, 6.026e-5
-1.071, 6.480e-5
-1.072, 6.959e-5
-1.073, 6.942e-5
-1.074, 6.532e-5
-1.075, 6.376e-5
-1.076, 6.819e-5
-1.077, 7.316e-5
-1.078, 7.272e-5
-1.079, 6.867e-5
-1.080, 6.681e-5
-1.081, 7.136e-5
-1.082, 7.664e-5
-1.083, 7.623e-5
-1.084, 7.195e-5
-1.085, 7.033e-5
-1.086, 7.464e-5
-1.087, 8.004e-5
-1.088, 7.964e-5
-1.089, 7.510e-5
-1.090, 7.370e-5
-1.091, 7.778e-5
-1.092, 8.332e-5
-1.093, 8.290e-5
-1.094, 7.836e-5
-1.095, 7.707e-5
-1.096, 8.112e-5
-1.097, 8.636e-5
-1.098, 8.613e-5
-1.099, 8.156e-5
-1.100, 8.005e-5
-1.101, 8.432e-5
-1.102, 8.942e-5
-1.103, 8.931e-5
-1.104, 8.450e-5
-1.105, 8.294e-5
-1.106, 8.733e-5
-1.107, 9.228e-5
-1.108, 9.222e-5
-1.109, 8.742e-5
-1.110, 8.573e-5
-1.111, 9.008e-5
-1.112, 9.520e-5
-1.113, 9.499e-5
-1.114, 9.028e-5
-1.115, 8.832e-5
-1.116, 9.280e-5
-1.117, 9.779e-5
-1.118, 9.743e-5
-1.119, 9.292e-5
-1.120, 9.076e-5
-1.121, 9.513e-5
-1.122, 1.004e-4
-1.123, 9.972e-5
-1.124, 9.533e-5
-1.125, 9.327e-5
-1.126, 9.736e-5
-1.127, 1.026e-4
-1.128, 1.019e-4
-1.129, 9.737e-5
-1.130, 9.571e-5
-1.131, 9.969e-5
-1.132, 1.048e-4
-1.133, 1.037e-4
-1.134, 9.934e-5
-1.135, 9.756e-5
-1.136, 1.013e-4
-1.137, 1.063e-4
-1.138, 1.061e-4
-1.139, 1.013e-4
-1.140, 9.945e-5
-1.141, 1.033e-4
-1.142, 1.083e-4
-1.143, 1.080e-4
-1.144, 1.029e-4
-1.145, 1.011e-4
-1.146, 1.050e-4
-1.147, 1.099e-4
-1.148, 1.095e-4
-1.149, 1.046e-4
-1.150, 1.026e-4
-1.151, 1.067e-4
-1.152, 1.115e-4
-1.153, 1.109e-4
-1.154, 1.062e-4
-1.155, 1.040e-4
-1.156, 1.081e-4
-1.157, 1.128e-4
-1.158, 1.123e-4
-1.159, 1.076e-4
-1.160, 1.054e-4
-1.161, 1.093e-4
-1.162, 1.143e-4
-1.163, 1.134e-4
-1.164, 1.089e-4
-1.165, 1.067e-4
-1.166, 1.106e-4
-1.167, 1.156e-4
-1.168, 1.149e-4
-1.169, 1.101e-4
-1.170, 1.081e-4
-1.171, 1.117e-4
-1.172, 1.167e-4
-1.173, 1.161e-4
-1.174, 1.113e-4
-1.175, 1.094e-4
-1.176, 1.133e-4
-1.177, 1.182e-4
-1.178, 1.174e-4
-1.179, 1.126e-4
-1.180, 1.106e-4
-1.181, 1.146e-4
-1.182, 1.189e-4
-1.183, 1.185e-4
-1.184, 1.137e-4
-1.185, 1.118e-4
-1.186, 1.158e-4
-1.187, 1.204e-4
-1.188, 1.200e-4
-1.189, 1.153e-4
-1.190, 1.132e-4
-1.191, 1.173e-4
-1.192, 1.219e-4
-1.193, 1.213e-4
-1.194, 1.168e-4
-1.195, 1.149e-4
-1.196, 1.187e-4
-1.197, 1.235e-4
-1.198, 1.230e-4
-1.199, 1.185e-4
-1.200, 1.165e-4
-1.201, 1.203e-4
-1.202, 1.253e-4
-1.203, 1.247e-4
-1.204, 1.203e-4
-1.205, 1.183e-4
-1.206, 1.223e-4
-1.207, 1.274e-4
-1.208, 1.265e-4
-1.209, 1.221e-4
-1.210, 1.205e-4
-1.211, 1.242e-4
-1.212, 1.294e-4
-1.213, 1.287e-4
-1.214, 1.243e-4
-1.215, 1.228e-4
-1.216, 1.266e-4
-1.217, 1.315e-4
-1.218, 1.313e-4
-1.219, 1.266e-4
-1.220, 1.252e-4
-1.221, 1.291e-4
-1.222, 1.340e-4
-1.223, 1.339e-4
-1.224, 1.293e-4
-1.225, 1.278e-4
-1.226, 1.320e-4
-1.227, 1.369e-4
-1.228, 1.369e-4
-1.229, 1.328e-4
-1.230, 1.309e-4
-1.231, 1.352e-4
-1.232, 1.400e-4
-1.233, 1.397e-4
-1.234, 1.357e-4
-1.235, 1.339e-4
-1.236, 1.383e-4
-1.237, 1.432e-4
-1.238, 1.430e-4
-1.239, 1.390e-4
-1.240, 1.374e-4
-1.241, 1.418e-4
-1.242, 1.469e-4
-1.243, 1.466e-4
-1.244, 1.426e-4
-1.245, 1.411e-4
-1.246, 1.454e-4
-1.247, 1.507e-4
-1.248, 1.504e-4
-1.249, 1.464e-4
-1.250, 1.452e-4
-1.251, 1.494e-4
-1.252, 1.547e-4
-1.253, 1.545e-4
-1.254, 1.506e-4
-1.255, 1.494e-4
-1.256, 1.536e-4
-1.257, 1.590e-4
-1.258, 1.589e-4
-1.259, 1.550e-4
-1.260, 1.540e-4
-1.261, 1.581e-4
-1.262, 1.636e-4
-1.263, 1.638e-4
-1.264, 1.598e-4
-1.265, 1.585e-4
-1.266, 1.631e-4
-1.267, 1.683e-4
-1.268, 1.687e-4
-1.269, 1.648e-4
-1.270, 1.637e-4
-1.271, 1.682e-4
-1.272, 1.734e-4
-1.273, 1.738e-4
-1.274, 1.702e-4
-1.275, 1.689e-4
-1.276, 1.737e-4
-1.277, 1.788e-4
-1.278, 1.794e-4
-1.279, 1.757e-4
-1.280, 1.748e-4
-1.281, 1.791e-4
-1.282, 1.847e-4
-1.283, 1.851e-4
-1.284, 1.818e-4
-1.285, 1.805e-4
-1.286, 1.852e-4
-1.287, 1.908e-4
-1.288, 1.913e-4
-1.289, 1.878e-4
-1.290, 1.871e-4
-1.291, 1.914e-4
-1.292, 1.974e-4
-1.293, 1.979e-4
-1.294, 1.944e-4
-1.295, 1.936e-4
-1.296, 1.981e-4
-1.297, 2.039e-4
-1.298, 2.049e-4
-1.299, 2.015e-4
-1.300, 2.008e-4
-1.301, 2.053e-4
-1.302, 2.111e-4
-1.303, 2.123e-4
-1.304, 2.089e-4
-1.305, 2.084e-4
-1.306, 2.133e-4
-1.307, 2.192e-4
-1.308, 2.201e-4
-1.309, 2.170e-4
-1.310, 2.163e-4
-1.311, 2.216e-4
-1.312, 2.275e-4
-1.313, 2.288e-4
-1.314, 2.260e-4
-1.315, 2.254e-4
-1.316, 2.306e-4
-1.317, 2.368e-4
-1.318, 2.383e-4
-1.319, 2.358e-4
-1.320, 2.354e-4
-1.321, 2.410e-4
-1.322, 2.474e-4
-1.323, 2.488e-4
-1.324, 2.468e-4
-1.325, 2.468e-4
-1.326, 2.523e-4
-1.327, 2.594e-4
-1.328, 2.613e-4
-1.329, 2.595e-4
-1.330, 2.601e-4
-1.331, 2.659e-4
-1.332, 2.736e-4
-1.333, 2.761e-4
-1.334, 2.748e-4
-1.335, 2.761e-4
-1.336, 2.827e-4
-1.337, 2.908e-4
-1.338, 2.946e-4
-1.339, 2.940e-4
-1.340, 2.965e-4
-1.341, 3.042e-4
-1.342, 3.137e-4
-1.343, 3.188e-4
-1.344, 3.198e-4
-1.345, 3.239e-4
-1.346, 3.340e-4
-1.347, 3.457e-4
-1.348, 3.533e-4
-1.349, 3.574e-4
-1.350, 3.645e-4
-1.351, 3.782e-4
-1.352, 3.931e-4
-1.353, 4.057e-4
-1.354, 4.160e-4
-1.355, 4.295e-4
-1.356, 4.505e-4
-1.357, 4.746e-4
-1.358, 4.974e-4
-1.359, 5.198e-4
-1.360, 5.474e-4
-1.361, 5.852e-4
-1.362, 6.299e-4
-1.363, 6.775e-4
-1.364, 7.297e-4
-1.365, 7.946e-4
-1.366, 8.778e-4
-1.367, 9.782e-4
-1.368, 1.092e-3
-1.369, 1.223e-3
-1.370, 1.375e-3
-1.371, 1.549e-3
-1.372, 1.740e-3
-1.373, 1.940e-3
-1.374, 2.145e-3
-1.375, 2.359e-3
-1.376, 2.585e-3
-1.377, 2.819e-3
-1.378, 3.053e-3
-1.379, 3.278e-3
-1.380, 3.496e-3
-1.381, 3.707e-3
-1.382, 3.908e-3
-1.383, 4.096e-3
-1.384, 4.264e-3
-1.385, 4.426e-3
-1.386, 4.583e-3
-1.387, 4.731e-3
-1.388, 4.872e-3
-1.389, 4.996e-3
-1.390, 5.120e-3
-1.391, 5.239e-3
-1.392, 5.354e-3
-1.393, 5.468e-3
-1.394, 5.569e-3
-1.395, 5.673e-3
-1.396, 5.774e-3
-1.397, 5.878e-3
-1.398, 5.980e-3
-1.399, 6.068e-3
-1.400, 6.070e-3
-1.399, 5.977e-3
-1.398, 5.893e-3
-1.397, 5.803e-3
-1.396, 5.710e-3
-1.395, 5.618e-3
-1.394, 5.518e-3
-1.393, 5.429e-3
-1.392, 5.337e-3
-1.391, 5.237e-3
-1.390, 5.138e-3
-1.389, 5.039e-3
-1.388, 4.946e-3
-1.387, 4.857e-3
-1.386, 4.763e-3
-1.385, 4.667e-3
-1.384, 4.581e-3
-1.383, 4.496e-3
-1.382, 4.404e-3
-1.381, 4.307e-3
-1.380, 4.213e-3
-1.379, 4.129e-3
-1.378, 4.052e-3
-1.377, 3.972e-3
-1.376, 3.886e-3
-1.375, 3.798e-3
-1.374, 3.716e-3
-1.373, 3.640e-3
-1.372, 3.560e-3
-1.371, 3.479e-3
-1.370, 3.397e-3
-1.369, 3.325e-3
-1.368, 3.256e-3
-1.367, 3.186e-3
-1.366, 3.116e-3
-1.365, 3.042e-3
-1.364, 2.975e-3
-1.363, 2.910e-3
-1.362, 2.843e-3
-1.361, 2.777e-3
-1.360, 2.708e-3
-1.359, 2.644e-3
-1.358, 2.584e-3
-1.357, 2.524e-3
-1.356, 2.461e-3
-1.355, 2.397e-3
-1.354, 2.341e-3
-1.353, 2.286e-3
-1.352, 2.228e-3
-1.351, 2.167e-3
-1.350, 2.109e-3
-1.349, 2.057e-3
-1.348, 2.005e-3
-1.347, 1.954e-3
-1.346, 1.901e-3
-1.345, 1.849e-3
-1.344, 1.800e-3
-1.343, 1.752e-3
-1.342, 1.704e-3
-1.341, 1.653e-3
-1.340, 1.603e-3
-1.339, 1.559e-3
-1.338, 1.516e-3
-1.337, 1.471e-3
-1.336, 1.423e-3
-1.335, 1.378e-3
-1.334, 1.337e-3
-1.333, 1.299e-3
-1.332, 1.257e-3
-1.331, 1.214e-3
-1.330, 1.174e-3
-1.329, 1.138e-3
-1.328, 1.105e-3
-1.327, 1.069e-3
-1.326, 1.032e-3
-1.325, 9.967e-4
-1.324, 9.658e-4
-1.323, 9.370e-4
-1.322, 9.052e-4
-1.321, 8.707e-4
-1.320, 8.385e-4
-1.319, 8.116e-4
-1.318, 7.867e-4
-1.317, 7.594e-4
-1.316, 7.294e-4
-1.315, 7.014e-4
-1.314, 6.784e-4
-1.313, 6.572e-4
-1.312, 6.340e-4
-1.311, 6.072e-4
-1.310, 5.829e-4
-1.309, 5.638e-4
-1.308, 5.459e-4
-1.307, 5.256e-4
-1.306, 5.015e-4
-1.305, 4.791e-4
-1.304, 4.626e-4
-1.303, 4.477e-4
-1.302, 4.298e-4
-1.301, 4.094e-4
-1.300, 3.912e-4
-1.299, 3.782e-4
-1.298, 3.671e-4
-1.297, 3.518e-4
-1.296, 3.338e-4
-1.295, 3.180e-4
-1.294, 3.072e-4
-1.293, 2.987e-4
-1.292, 2.861e-4
-1.291, 2.704e-4
-1.290, 2.572e-4
-1.289, 2.480e-4
-1.288, 2.413e-4
-1.287, 2.308e-4
-1.286, 2.168e-4
-1.285, 2.054e-4
-1.284, 1.987e-4
-1.283, 1.932e-4
-1.282, 1.842e-4
-1.281, 1.719e-4
-1.280, 1.617e-4
-1.279, 1.566e-4
-1.278, 1.530e-4
-1.277, 1.459e-4
-1.276, 1.354e-4
-1.275, 1.266e-4
-1.274, 1.226e-4
-1.273, 1.202e-4
-1.272, 1.141e-4
-1.271, 1.046e-4
-1.270, 9.689e-5
-1.269, 9.430e-5
-1.268, 9.335e-5
-1.267, 8.842e-5
-1.266, 7.999e-5
-1.265, 7.283e-5
-1.264, 7.118e-5
-1.263, 7.113e-5
-1.262, 6.685e-5
-1.261, 5.945e-5
-1.260, 5.351e-5
-1.259, 5.241e-5
-1.258, 5.348e-5
-1.257, 4.982e-5
-1.256, 4.311e-5
-1.255, 3.774e-5
-1.254, 3.732e-5
-1.253, 3.903e-5
-1.252, 3.643e-5
-1.251, 2.977e-5
-1.250, 2.509e-5
-1.249, 2.529e-5
-1.248, 2.728e-5
-1.247, 2.514e-5
-1.246, 1.892e-5
-1.245, 1.464e-5
-1.244, 1.515e-5
-1.243, 1.730e-5
-1.242, 1.575e-5
-1.241, 9.914e-6
-1.240, 5.652e-6
-1.239, 6.556e-6
-1.238, 9.216e-6
-1.237, 7.982e-6
-1.236, 2.442e-6
-1.235, -1.860e-6
-1.234, -4.225e-7
-1.233, 2.262e-6
-1.232, 1.386e-6
-1.231, -3.997e-6
-1.230, -8.090e-6
-1.229, -7.109e-6
-1.228, -3.488e-6
-1.227, -5.289e-6
-1.226, -1.064e-5
-1.225, -1.494e-5
-1.224, -1.313e-5
-1.223, -9.046e-6
-1.222, -9.691e-6
-1.221, -1.399e-5
-1.220, -1.750e-5
-1.219, -1.641e-5
-1.218, -1.311e-5
-1.217, -1.416e-5
-1.216, -1.871e-5
-1.215, -2.210e-5
-1.214, -2.037e-5
-1.213, -1.605e-5
-1.212, -1.654e-5
-1.211, -2.128e-5
-1.210, -2.463e-5
-1.209, -2.308e-5
-1.208, -1.906e-5
-1.207, -1.913e-5
-1.206, -2.395e-5
-1.205, -2.687e-5
-1.204, -2.506e-5
-1.203, -2.110e-5
-1.202, -2.115e-5
-1.201, -2.594e-5
-1.200, -2.898e-5
-1.199, -2.698e-5
-1.198, -2.333e-5
-1.197, -2.375e-5
-1.196, -2.827e-5
-1.195, -3.180e-5
-1.194, -2.933e-5
-1.193, -2.528e-5
-1.192, -2.517e-5
-1.191, -2.951e-5
-1.190, -3.302e-5
-1.189, -3.080e-5
-1.188, -2.650e-5
-1.187, -2.664e-5
-1.186, -3.089e-5
-1.185, -3.435e-5
-1.184, -3.213e-5
-1.183, -2.778e-5
-1.182, -2.776e-5
-1.181, -3.189e-5
-1.180, -3.526e-5
-1.179, -3.346e-5
-1.178, -2.923e-5
-1.177, -2.910e-5
-1.176, -3.331e-5
-1.175, -3.642e-5
-1.174, -3.455e-5
-1.173, -3.008e-5
-1.172, -2.986e-5
-1.171, -3.409e-5
-1.170, -3.723e-5
-1.169, -3.544e-5
-1.168, -3.094e-5
-1.167, -3.093e-5
-1.166, -3.524e-5
-1.165, -3.840e-5
-1.164, -3.657e-5
-1.163, -3.232e-5
-1.162, -3.180e-5
-1.161, -3.651e-5
-1.160, -3.948e-5
-1.159, -3.745e-5
-1.158, -3.328e-5
-1.157, -3.275e-5
-1.156, -3.721e-5
-1.155, -4.066e-5
-1.154, -3.853e-5
-1.153, -3.436e-5
-1.152, -3.381e-5
-1.151, -3.805e-5
-1.150, -4.151e-5
-1.149, -3.928e-5
-1.148, -3.500e-5
-1.147, -3.472e-5
-1.146, -3.875e-5
-1.145, -4.235e-5
-1.144, -4.017e-5
-1.143, -3.568e-5
-1.142, -3.564e-5
-1.141, -3.947e-5
-1.140, -4.289e-5
-1.139, -4.107e-5
-1.138, -3.661e-5
-1.137, -3.636e-5
-1.136, -4.040e-5
-1.135, -4.378e-5
-1.134, -4.196e-5
-1.133, -3.718e-5
-1.132, -3.686e-5
-1.131, -4.112e-5
-1.130, -4.434e-5
-1.129, -4.255e-5
-1.128, -3.786e-5
-1.127, -3.762e-5
-1.126, -4.203e-5
-1.125, -4.515e-5
-1.124, -4.331e-5
-1.123, -3.894e-5
-1.122, -3.838e-5
-1.121, -4.273e-5
-1.120, -4.588e-5
-1.119, -4.408e-5
-1.118, -3.967e-5
-1.117, -3.913e-5
-1.116, -4.327e-5
-1.115, -4.686e-5
-1.114, -4.508e-5
-1.113, -4.104e-5
-1.112, -4.066e-5
-1.111, -4.491e-5
-1.110, -4.835e-5
-1.109, -4.620e-5
-1.108, -4.167e-5
-1.107, -4.133e-5
-1.106, -4.540e-5
-1.105, -4.924e-5
-1.104, -4.746e-5
-1.103, -4.303e-5
-1.102, -4.266e-5
-1.101, -4.669e-5
-1.100, -5.007e-5
-1.099, -4.848e-5
-1.098, -4.387e-5
-1.097, -4.362e-5
-1.096, -4.788e-5
-1.095, -5.161e-5
-1.094, -5.018e-5
-1.093, -4.544e-5
-1.092, -4.469e-5
-1.091, -4.915e-5
-1.090, -5.262e-5
-1.089, -5.129e-5
-1.088, -4.670e-5
-1.087, -4.620e-5
-1.086, -5.049e-5
-1.085, -5.402e-5
-1.084, -5.259e-5
-1.083, -4.818e-5
-1.082, -4.746e-5
-1.081, -5.191e-5
-1.080, -5.555e-5
-1.079, -5.418e-5
-1.078, -4.980e-5
-1.077, -4.896e-5
-1.076, -5.333e-5
-1.075, -5.727e-5
-1.074, -5.561e-5
-1.073, -5.136e-5
-1.072, -5.044e-5
-1.071, -5.471e-5
-1.070, -5.877e-5
-1.069, -5.698e-5
-1.068, -5.281e-5
-1.067, -5.209e-5
-1.066, -5.618e-5
-1.065, -6.026e-5
-1.064, -5.866e-5
-1.063, -5.441e-5
-1.062, -5.382e-5
-1.061, -5.779e-5
-1.060, -6.180e-5
-1.059, -6.072e-5
-1.058, -5.612e-5
-1.057, -5.545e-5
-1.056, -5.944e-5
-1.055, -6.356e-5
-1.054, -6.238e-5
-1.053, -5.781e-5
-1.052, -5.699e-5
-1.051, -6.135e-5
-1.050, -6.516e-5
-1.049, -6.409e-5
-1.048, -5.949e-5
-1.047, -5.855e-5
-1.046, -6.312e-5
-1.045, -6.692e-5
-1.044, -6.585e-5
-1.043, -6.172e-5
-1.042, -6.055e-5
-1.041, -6.488e-5
-1.040, -6.879e-5
-1.039, -6.767e-5
-1.038, -6.347e-5
-1.037, -6.234e-5
-1.036, -6.685e-5
-1.035, -7.111e-5
-1.034, -6.975e-5
-1.033, -6.556e-5
-1.032, -6.442e-5
-1.031, -6.863e-5
-1.030, -7.312e-5
-1.029, -7.178e-5
-1.028, -6.753e-5
-1.027, -6.660e-5
-1.026, -7.065e-5
-1.025, -7.523e-5
-1.024, -7.417e-5
-1.023, -6.961e-5
-1.022, -6.865e-5
-1.021, -7.258e-5
-1.020, -7.706e-5
-1.019, -7.630e-5
-1.018, -7.179e-5
-1.017, -7.077e-5
-1.016, -7.478e-5
-1.015, -7.910e-5
-1.014, -7.847e-5
-1.013, -7.387e-5
-1.012, -7.272e-5
-1.011, -7.712e-5
-1.010, -8.119e-5
-1.009, -8.062e-5
-1.008, -7.600e-5
-1.007, -7.491e-5
-1.006, -7.918e-5
-1.005, -8.348e-5
-1.004, -8.266e-5
-1.003, -7.850e-5
-1.002, -7.697e-5
-1.001, -8.142e-5
-1.000, -4.657e-5
-1.001, -2.492e-5
-1.002, -1.321e-5
-1.003, -7.118e-6
-1.004, -6.945e-6
-1.005, -7.772e-6
-1.006, -4.011e-6
-1.007, 3.338e-6
-1.008, 6.746e-6
-1.009, 5.133e-6
-1.010, 2.979e-6
-1.011, 5.565e-6
-1.012, 1.179e-5
-1.013, 1.474e-5
-1.014, 1.230e-5
-1.015, 9.592e-6
-1.016, 1.162e-5
-1.017, 1.744e-5
-1.018, 2.007e-5
-1.019, 1.707e-5
-1.020, 1.409e-5
-1.021, 1.598e-5
-1.022, 2.142e-5
-1.023, 2.404e-5
-1.024, 2.103e-5
-1.025, 1.751e-5
-1.026, 1.950e-5
-1.027, 2.445e-5
-1.028, 2.687e-5
-1.029, 2.368e-5
-1.030, 2.023e-5
-1.031, 2.217e-5
-1.032, 2.699e-5
-1.033, 2.904e-5
-1.034, 2.593e-5
-1.035, 2.242e-5
-1.036, 2.409e-5
-1.037, 2.902e-5
-1.038, 3.095e-5
-1.039, 2.789e-5
-1.040, 2.412e-5
-1.041, 2.562e-5
-1.042, 3.071e-5
-1.043, 3.242e-5
-1.044, 2.940e-5
-1.045, 2.562e-5
-1.046, 2.717e-5
-1.047, 3.210e-5
-1.048, 3.383e-5
-1.049, 3.057e-5
-1.050, 2.699e-5
-1.051, 2.832e-5
-1.052, 3.328e-5
-1.053, 3.511e-5
-1.054, 3.173e-5
-1.055, 2.813e-5
-1.056, 2.933e-5
-1.057, 3.425e-5
-1.058, 3.625e-5
-1.059, 3.259e-5
-1.060, 2.901e-5
-1.061, 3.046e-5
-1.062, 3.521e-5
-1.063, 3.726e-5
-1.064, 3.351e-5
-1.065, 2.991e-5
-1.066, 3.129e-5
-1.067, 3.591e-5
-1.068, 3.783e-5
-1.069, 3.421e-5
-1.070, 3.056e-5
-1.071, 3.195e-5
-1.072, 3.650e-5
-1.073, 3.831e-5
-1.074, 3.500e-5
-1.075, 3.145e-5
-1.076, 3.258e-5
-1.077, 3.716e-5
-1.078, 3.888e-5
-1.079, 3.567e-5
-1.080, 3.166e-5
-1.081, 3.296e-5
-1.082, 3.783e-5
-1.083, 3.941e-5
-1.084, 3.602e-5
-1.085, 3.217e-5
-1.086, 3.338e-5
-1.087, 3.818e-5
-1.088, 3.977e-5
-1.089, 3.620e-5
-1.090, 3.278e-5
-1.091, 3.365e-5
-1.092, 3.848e-5
-1.093, 4.002e-5
-1.094, 3.669e-5
-1.095, 3.306e-5
-1.096, 3.392e-5
-1.097, 3.861e-5
-1.098, 4.056e-5
-1.099, 3.684e-5
-1.100, 3.316e-5
-1.101, 3.436e-5
-1.102, 3.887e-5
-1.103, 4.063e-5
-1.104, 3.712e-5
-1.105, 3.323e-5
-1.106, 3.461e-5
-1.107, 3.893e-5
-1.108, 4.078e-5
-1.109, 3.732e-5
-1.110, 3.357e-5
-1.111, 3.470e-5
-1.112, 3.912e-5
-1.113, 4.077e-5
-1.114, 3.758e-5
-1.115, 3.362e-5
-1.116, 3.476e-5
-1.117, 3.929e-5
-1.118, 4.096e-5
-1.119, 3.773e-5
-1.120, 3.370e-5
-1.121, 3.473e-5
-1.122, 3.947e-5
-1.123, 4.111e-5
-1.124, 3.783e-5
-1.125, 3.391e-5
-1.126, 3.484e-5
-1.127, 3.958e-5
-1.128, 4.126e-5
-1.129, 3.782e-5
-1.130, 3.419e-5
-1.131, 3.496e-5
-1.132, 3.967e-5
-1.133, 4.142e-5
-1.134, 3.793e-5
-1.135, 3.427e-5
-1.136, 3.512e-5
-1.137, 3.966e-5
-1.138, 4.162e-5
-1.139, 3.812e-5
-1.140, 3.430e-5
-1.141, 3.533e-5
-1.142, 3.978e-5
-1.143, 4.181e-5
-1.144, 3.828e-5
-1.145, 3.442e-5
-1.146, 3.567e-5
-1.147, 3.994e-5
-1.148, 4.206e-5
-1.149, 3.848e-5
-1.150, 3.471e-5
-1.151, 3.580e-5
-1.152, 4.030e-5
-1.153, 4.206e-5
-1.154, 3.896e-5
-1.155, 3.481e-5
-1.156, 3.597e-5
-1.157, 4.057e-5
-1.158, 4.234e-5
-1.159, 3.911e-5
-1.160, 3.521e-5
-1.161, 3.617e-5
-1.162, 4.089e-5
-1.163, 4.265e-5
-1.164, 3.946e-5
-1.165, 3.558e-5
-1.166, 3.648e-5
-1.167, 4.115e-5
-1.168, 4.298e-5
-1.169, 3.970e-5
-1.170, 3.596e-5
-1.171, 3.672e-5
-1.172, 4.157e-5
-1.173, 4.328e-5
-1.174, 4.011e-5
-1.175, 3.635e-5
-1.176, 3.707e-5
-1.177, 4.200e-5
-1.178, 4.396e-5
-1.179, 4.049e-5
-1.180, 3.672e-5
-1.181, 3.764e-5
-1.182, 4.218e-5
-1.183, 4.430e-5
-1.184, 4.099e-5
-1.185, 3.710e-5
-1.186, 3.808e-5
-1.187, 4.253e-5
-1.188, 4.477e-5
-1.189, 4.151e-5
-1.190, 3.757e-5
-1.191, 3.864e-5
-1.192, 4.299e-5
-1.193, 4.506e-5
-1.194, 4.214e-5
-1.195, 3.802e-5
-1.196, 3.916e-5
-1.197, 4.363e-5
-1.198, 4.568e-5
-1.199, 4.269e-5
-1.200, 3.861e-5
-1.201, 3.956e-5
-1.202, 4.423e-5
-1.203, 4.638e-5
-1.204, 4.319e-5
-1.205, 3.921e-5
-1.206, 4.013e-5
-1.207, 4.503e-5
-1.208, 4.690e-5
-1.209, 4.381e-5
-1.210, 4.015e-5
-1.211, 4.072e-5
-1.212, 4.550e-5
-1.213, 4.770e-5
-1.214, 4.447e-5
-1.215, 4.085e-5
-1.216, 4.160e-5
-1.217, 4.616e-5
-1.218, 4.859e-5
-1.219, 4.524e-5
-1.220, 4.163e-5
-1.221, 4.244e-5
-1.222, 4.707e-5
-1.223, 4.942e-5
-1.224, 4.614e-5
-1.225, 4.241e-5
-1.226, 4.340e-5
-1.227, 4.811e-5
-1.228, 5.057e-5
-1.229, 4.760e-5
-1.230, 4.356e-5
-1.231, 4.456e-5
-1.232, 4.910e-5
-1.233, 5.142e-5
-1.234, 4.844e-5
-1.235, 4.464e-5
-1.236, 4.573e-5
-1.237, 5.034e-5
-1.238, 5.269e-5
-1.239, 4.997e-5
-1.240, 4.592e-5
-1.241, 4.702e-5
-1.242, 5.188e-5
-1.243, 5.417e-5
-1.244, 5.129e-5
-1.245, 4.769e-5
-1.246, 4.851e-5
-1.247, 5.363e-5
-1.248, 5.581e-5
-1.249, 5.304e-5
-1.250, 4.958e-5
-1.251, 5.036e-5
-1.252, 5.537e-5
-1.253, 5.784e-5
-1.254, 5.525e-5
-1.255, 5.167e-5
-1.256, 5.255e-5
-1.257, 5.749e-5
-1.258, 6.031e-5
-1.259, 5.756e-5
-1.260, 5.400e-5
-1.261, 5.523e-5
-1.262, 6.014e-5
-1.263, 6.304e-5
-1.264, 6.028e-5
-1.265, 5.678e-5
-1.266, 5.837e-5
-1.267, 6.314e-5
-1.268, 6.621e-5
-1.269, 6.377e-5
-1.270, 6.035e-5
-1.271, 6.198e-5
-1.272, 6.687e-5
-1.273, 7.003e-5
-1.274, 6.788e-5
-1.275, 6.448e-5
-1.276, 6.607e-5
-1.277, 7.135e-5
-1.278, 7.461e-5
-1.279, 7.280e-5
-1.280, 6.976e-5
-1.281, 7.112e-5
-1.282, 7.693e-5
-1.283, 8.013e-5
-1.284, 7.852e-5
-1.285, 7.556e-5
-1.286, 7.761e-5
-1.287, 8.354e-5
-1.288, 8.701e-5
-1.289, 8.545e-5
-1.290, 8.338e-5
-1.291, 8.527e-5
-1.292, 9.161e-5
-1.293, 9.570e-5
-1.294, 9.459e-5
-1.295, 9.274e-5
-1.296, 9.536e-5
-1.297, 1.020e-4
-1.298, 1.068e-4
-1.299, 1.062e-4
-1.300, 1.052e-4
-1.301, 1.084e-4
-1.302, 1.158e-4
-1.303, 1.215e-4
-1.304, 1.217e-4
-1.305, 1.216e-4
-1.306, 1.262e-4
-1.307, 1.348e-4
-1.308, 1.418e-4
-1.309, 1.437e-4
-1.310, 1.452e-4
-1.311, 1.517e-4
-1.312, 1.623e-4
-1.313, 1.714e-4
-1.314, 1.764e-4
-1.315, 1.807e-4
-1.316, 1.905e-4
-1.317, 2.047e-4
-1.318, 2.183e-4
-1.319, 2.278e-4
-1.320, 2.375e-4
-1.321, 2.535e-4
-1.322, 2.746e-4
-1.323, 2.956e-4
-1.324, 3.141e-4
-1.325, 3.341e-4
-1.326, 3.609e-4
-1.327, 3.943e-4
-1.328, 4.290e-4
-1.329, 4.622e-4
-1.330, 4.984e-4
-1.331, 5.420e-4
-1.332, 5.932e-4
-1.333, 6.470e-4
-1.334, 7.004e-4
-1.335, 7.577e-4
-1.336, 8.228e-4
-1.337, 8.964e-4
-1.338, 9.737e-4
-1.339, 1.051e-3
-1.340, 1.132e-3
-1.341, 1.220e-3
-1.342, 1.316e-3
-1.343, 1.412e-3
-1.344, 1.507e-3
-1.345, 1.602e-3
-1.346, 1.701e-3
-1.347, 1.804e-3
-1.348, 1.908e-3
-1.349, 2.009e-3
-1.350, 2.106e-3
-1.351, 2.202e-3
-1.352, 2.300e-3
-1.353, 2.398e-3
-1.354, 2.490e-3
-1.355, 2.576e-3
-1.356, 2.666e-3
-1.357, 2.759e-3
-1.358, 2.850e-3
-1.359, 2.936e-3
-1.360, 3.023e-3
-1.361, 3.109e-3
-1.362, 3.196e-3
-1.363, 3.283e-3
-1.364, 3.360e-3
-1.365, 3.436e-3
-1.366, 3.513e-3
-1.367, 3.602e-3
-1.368, 3.690e-3
-1.369, 3.772e-3
-1.370, 3.852e-3
-1.371, 3.938e-3
-1.372, 4.029e-3
-1.373, 4.120e-3
-1.374, 4.215e-3
-1.375, 4.296e-3
-1.376, 4.378e-3
-1.377, 4.469e-3
-1.378, 4.557e-3
-1.379, 4.646e-3
-1.380, 4.732e-3
-1.381, 4.815e-3
-1.382, 4.911e-3
-1.383, 4.995e-3
-1.384, 5.076e-3
-1.385, 5.158e-3
-1.386, 5.237e-3
-1.387, 5.328e-3
-1.388, 5.408e-3
-1.389, 5.495e-3
-1.390, 5.570e-3
-1.391, 5.656e-3
-1.392, 5.737e-3
-1.393, 5.813e-3
-1.394, 5.896e-3
-1.395, 5.962e-3
-1.396, 6.043e-3
-1.397, 6.122e-3
-1.398, 6.202e-3
-1.399, 6.282e-3
-1.400, 6.264e-3
-1.399, 6.161e-3
-1.398, 6.046e-3
-1.397, 5.936e-3
-1.396, 5.832e-3
-1.395, 5.717e-3
-1.394, 5.623e-3
-1.393, 5.535e-3
-1.392, 5.457e-3
-1.391, 5.360e-3
-1.390, 5.256e-3
-1.389, 5.156e-3
-1.388, 5.050e-3
-1.387, 4.967e-3
-1.386, 4.868e-3
-1.385, 4.768e-3
-1.384, 4.676e-3
-1.383, 4.587e-3
-1.382, 4.515e-3
-1.381, 4.431e-3
-1.380, 4.343e-3
-1.379, 4.246e-3
-1.378, 4.153e-3
-1.377, 4.057e-3
-1.376, 3.961e-3
-1.375, 3.879e-3
-1.374, 3.803e-3
-1.373, 3.736e-3
-1.372, 3.659e-3
-1.371, 3.573e-3
-1.370, 3.492e-3
-1.369, 3.414e-3
-1.368, 3.341e-3
-1.367, 3.276e-3
-1.366, 3.216e-3
-1.365, 3.148e-3
-1.364, 3.085e-3
-1.363, 3.023e-3
-1.362, 2.959e-3
-1.361, 2.890e-3
-1.360, 2.816e-3
-1.359, 2.749e-3
-1.358, 2.688e-3
-1.357, 2.630e-3
-1.356, 2.569e-3
-1.355, 2.505e-3
-1.354, 2.443e-3
-1.353, 2.384e-3
-1.352, 2.327e-3
-1.351, 2.266e-3
-1.350, 2.206e-3
-1.349, 2.149e-3
-1.348, 2.097e-3
-1.347, 2.046e-3
-1.346, 1.992e-3
-1.345, 1.936e-3
-1.344, 1.882e-3
-1.343, 1.833e-3
-1.342, 1.785e-3
-1.341, 1.732e-3
-1.340, 1.679e-3
-1.339, 1.630e-3
-1.338, 1.586e-3
-1.337, 1.542e-3
-1.336, 1.496e-3
-1.335, 1.449e-3
-1.334, 1.405e-3
-1.333, 1.365e-3
-1.332, 1.324e-3
-1.331, 1.280e-3
-1.330, 1.234e-3
-1.329, 1.193e-3
-1.328, 1.157e-3
-1.327, 1.123e-3
-1.326, 1.085e-3
-1.325, 1.048e-3
-1.324, 1.013e-3
-1.323, 9.842e-4
-1.322, 9.535e-4
-1.321, 9.183e-4
-1.320, 8.838e-4
-1.319, 8.522e-4
-1.318, 8.248e-4
-1.317, 7.982e-4
-1.316, 7.685e-4
-1.315, 7.376e-4
-1.314, 7.097e-4
-1.313, 6.858e-4
-1.312, 6.623e-4
-1.311, 6.361e-4
-1.310, 6.089e-4
-1.309, 5.852e-4
-1.308, 5.665e-4
-1.307, 5.470e-4
-1.306, 5.248e-4
-1.305, 5.009e-4
-1.304, 4.813e-4
-1.303, 4.659e-4
-1.302, 4.499e-4
-1.301, 4.310e-4
-1.300, 4.102e-4
-1.299, 3.933e-4
-1.298, 3.807e-4
-1.297, 3.673e-4
-1.296, 3.505e-4
-1.295, 3.320e-4
-1.294, 3.179e-4
-1.293, 3.078e-4
-1.292, 2.972e-4
-1.291, 2.826e-4
-1.290, 2.667e-4
-1.289, 2.548e-4
-1.288, 2.469e-4
-1.287, 2.383e-4
-1.286, 2.254e-4
-1.285, 2.114e-4
-1.284, 2.014e-4
-1.283, 1.954e-4
-1.282, 1.888e-4
-1.281, 1.779e-4
-1.280, 1.655e-4
-1.279, 1.573e-4
-1.278, 1.529e-4
-1.277, 1.482e-4
-1.276, 1.389e-4
-1.275, 1.280e-4
-1.274, 1.215e-4
-1.273, 1.189e-4
-1.272, 1.156e-4
-1.271, 1.076e-4
-1.270, 9.785e-5
-1.269, 9.251e-5
-1.268, 9.098e-5
-1.267, 8.879e-5
-1.266, 8.212e-5
-1.265, 7.320e-5
-1.264, 6.873e-5
-1.263, 6.823e-5
-1.262, 6.687e-5
-1.261, 6.121e-5
-1.260, 5.340e-5
-1.259, 4.935e-5
-1.258, 5.001e-5
-1.257, 4.942e-5
-1.256, 4.439e-5
-1.255, 3.720e-5
-1.254, 3.363e-5
-1.253, 3.491e-5
-1.252, 3.498e-5
-1.251, 3.028e-5
-1.250, 2.395e-5
-1.249, 2.095e-5
-1.248, 2.245e-5
-1.247, 2.310e-5
-1.246, 1.896e-5
-1.245, 1.314e-5
-1.244, 1.061e-5
-1.243, 1.250e-5
-1.242, 1.377e-5
-1.241, 9.890e-6
-1.240, 4.300e-6
-1.239, 2.240e-6
-1.238, 4.467e-6
-1.237, 6.315e-6
-1.236, 2.977e-6
-1.235, -2.558e-6
-1.234, -4.444e-6
-1.233, -1.892e-6
-1.232, -5.130e-9
-1.231, -2.938e-6
-1.230, -8.347e-6
-1.229, -1.036e-5
-1.228, -7.147e-6
-1.227, -5.035e-6
-1.226, -7.579e-6
-1.225, -1.280e-5
-1.224, -1.429e-5
-1.223, -1.153e-5
-1.222, -9.165e-6
-1.221, -1.163e-5
-1.220, -1.657e-5
-1.219, -1.819e-5
-1.218, -1.490e-5
-1.217, -1.245e-5
-1.216, -1.485e-5
-1.215, -1.975e-5
-1.214, -2.128e-5
-1.213, -1.787e-5
-1.212, -1.524e-5
-1.211, -1.774e-5
-1.210, -2.260e-5
-1.209, -2.394e-5
-1.208, -2.047e-5
-1.207, -1.762e-5
-1.206, -2.006e-5
-1.205, -2.475e-5
-1.204, -2.596e-5
-1.203, -2.265e-5
-1.202, -1.963e-5
-1.201, -2.188e-5
-1.200, -2.643e-5
-1.199, -2.774e-5
-1.198, -2.451e-5
-1.197, -2.119e-5
-1.196, -2.340e-5
-1.195, -2.812e-5
-1.194, -2.924e-5
-1.193, -2.596e-5
-1.192, -2.264e-5
-1.191, -2.474e-5
-1.190, -2.965e-5
-1.189, -3.052e-5
-1.188, -2.720e-5
-1.187, -2.413e-5
-1.186, -2.591e-5
-1.185, -3.060e-5
-1.184, -3.169e-5
-1.183, -2.825e-5
-1.182, -2.516e-5
-1.181, -2.684e-5
-1.180, -3.161e-5
-1.179, -3.285e-5
-1.178, -2.945e-5
-1.177, -2.618e-5
-1.176, -2.788e-5
-1.175, -3.230e-5
-1.174, -3.388e-5
-1.173, -3.007e-5
-1.172, -2.692e-5
-1.171, -2.880e-5
-1.170, -3.322e-5
-1.169, -3.449e-5
-1.168, -3.084e-5
-1.167, -2.768e-5
-1.166, -2.953e-5
-1.165, -3.386e-5
-1.164, -3.512e-5
-1.163, -3.188e-5
-1.162, -2.811e-5
-1.161, -3.023e-5
-1.160, -3.446e-5
-1.159, -3.583e-5
-1.158, -3.247e-5
-1.157, -2.891e-5
-1.156, -3.057e-5
-1.155, -3.518e-5
-1.154, -3.647e-5
-1.153, -3.321e-5
-1.152, -2.967e-5
-1.151, -3.131e-5
-1.150, -3.609e-5
-1.149, -3.714e-5
-1.148, -3.371e-5
-1.147, -3.034e-5
-1.146, -3.198e-5
-1.145, -3.654e-5
-1.144, -3.784e-5
-1.143, -3.433e-5
-1.142, -3.103e-5
-1.141, -3.246e-5
-1.140, -3.707e-5
-1.139, -3.877e-5
-1.138, -3.507e-5
-1.137, -3.176e-5
-1.136, -3.321e-5
-1.135, -3.769e-5
-1.134, -3.932e-5
-1.133, -3.580e-5
-1.132, -3.228e-5
-1.131, -3.405e-5
-1.130, -3.834e-5
-1.129, -4.013e-5
-1.128, -3.650e-5
-1.127, -3.306e-5
-1.126, -3.475e-5
-1.125, -3.911e-5
-1.124, -4.073e-5
-1.123, -3.748e-5
-1.122, -3.383e-5
-1.121, -3.544e-5
-1.120, -3.989e-5
-1.119, -4.154e-5
-1.118, -3.841e-5
-1.117, -3.473e-5
-1.116, -3.611e-5
-1.115, -4.087e-5
-1.114, -4.243e-5
-1.113, -3.930e-5
-1.112, -3.560e-5
-1.111, -3.700e-5
-1.110, -4.173e-5
-1.109, -4.336e-5
-1.108, -4.019e-5
-1.107, -3.664e-5
-1.106, -3.790e-5
-1.105, -4.261e-5
-1.104, -4.428e-5
-1.103, -4.106e-5
-1.102, -3.755e-5
-1.101, -3.891e-5
-1.100, -4.350e-5
-1.099, -4.550e-5
-1.098, -4.208e-5
-1.097, -3.865e-5
-1.096, -3.979e-5
-1.095, -4.436e-5
-1.094, -4.663e-5
-1.093, -4.330e-5
-1.092, -3.962e-5
-1.091, -4.101e-5
-1.090, -4.557e-5
-1.089, -4.784e-5
-1.088, -4.436e-5
-1.087, -4.083e-5
-1.086, -4.232e-5
-1.085, -4.672e-5
-1.084, -4.897e-5
-1.083, -4.587e-5
-1.082, -4.222e-5
-1.081, -4.352e-5
-1.080, -4.808e-5
-1.079, -5.028e-5
-1.078, -4.734e-5
-1.077, -4.354e-5
-1.076, -4.489e-5
-1.075, -4.959e-5
-1.074, -5.164e-5
-1.073, -4.876e-5
-1.072, -4.499e-5
-1.071, -4.603e-5
-1.070, -5.108e-5
-1.069, -5.297e-5
-1.068, -5.025e-5
-1.067, -4.660e-5
-1.066, -4.740e-5
-1.065, -5.232e-5
-1.064, -5.463e-5
-1.063, -5.178e-5
-1.062, -4.826e-5
-1.061, -4.909e-5
-1.060, -5.393e-5
-1.059, -5.645e-5
-1.058, -5.335e-5
-1.057, -4.978e-5
-1.056, -5.048e-5
-1.055, -5.539e-5
-1.054, -5.796e-5
-1.053, -5.504e-5
-1.052, -5.134e-5
-1.051, -5.228e-5
-1.050, -5.691e-5
-1.049, -5.968e-5
-1.048, -5.672e-5
-1.047, -5.287e-5
-1.046, -5.393e-5
-1.045, -5.849e-5
-1.044, -6.123e-5
-1.043, -5.852e-5
-1.042, -5.455e-5
-1.041, -5.567e-5
-1.040, -6.012e-5
-1.039, -6.305e-5
-1.038, -6.054e-5
-1.037, -5.647e-5
-1.036, -5.751e-5
-1.035, -6.275e-5
-1.034, -6.549e-5
-1.033, -6.301e-5
-1.032, -5.871e-5
-1.031, -5.950e-5
-1.030, -6.451e-5
-1.029, -6.707e-5
-1.028, -6.465e-5
-1.027, -6.091e-5
-1.026, -6.150e-5
-1.025, -6.657e-5
-1.024, -6.947e-5
-1.023, -6.679e-5
-1.022, -6.306e-5
-1.021, -6.344e-5
-1.020, -6.832e-5
-1.019, -7.145e-5
-1.018, -6.899e-5
-1.017, -6.530e-5
-1.016, -6.558e-5
-1.015, -7.042e-5
-1.014, -7.389e-5
-1.013, -7.122e-5
-1.012, -6.727e-5
-1.011, -6.806e-5
-1.010, -7.282e-5
-1.009, -7.612e-5
-1.008, -7.362e-5
-1.007, -6.964e-5
-1.006, -7.045e-5
-1.005, -7.506e-5
-1.004, -7.851e-5
-1.003, -7.622e-5
-1.002, -7.212e-5
-1.001, -7.276e-5
-1.000, -3.921e-5
-1.001, -2.241e-5
-1.002, -1.343e-5
-1.003, -4.623e-6
-1.004, -9.661e-7
-1.005, -2.661e-6
-1.006, -2.993e-6
-1.007, 2.126e-6
-1.008, 8.416e-6
-1.009, 1.013e-5
-1.010, 7.378e-6
-1.011, 5.911e-6
-1.012, 1.009e-5
-1.013, 1.554e-5
-1.014, 1.650e-5
-1.015, 1.318e-5
-1.016, 1.101e-5
-1.017, 1.458e-5
-1.018, 2.023e-5
-1.019, 2.111e-5
-1.020, 1.759e-5
-1.021, 1.538e-5
-1.022, 1.866e-5
-1.023, 2.387e-5
-1.024, 2.455e-5
-1.025, 2.067e-5
-1.026, 1.844e-5
-1.027, 2.146e-5
-1.028, 2.657e-5
-1.029, 2.706e-5
-1.030, 2.319e-5
-1.031, 2.093e-5
-1.032, 2.365e-5
-1.033, 2.858e-5
-1.034, 2.912e-5
-1.035, 2.504e-5
-1.036, 2.265e-5
-1.037, 2.554e-5
-1.038, 3.032e-5
-1.039, 3.089e-5
-1.040, 2.662e-5
-1.041, 2.422e-5
-1.042, 2.710e-5
-1.043, 3.178e-5
-1.044, 3.204e-5
-1.045, 2.816e-5
-1.046, 2.552e-5
-1.047, 2.840e-5
-1.048, 3.278e-5
-1.049, 3.330e-5
-1.050, 2.931e-5
-1.051, 2.651e-5
-1.052, 2.922e-5
-1.053, 3.394e-5
-1.054, 3.421e-5
-1.055, 3.038e-5
-1.056, 2.750e-5
-1.057, 3.012e-5
-1.058, 3.492e-5
-1.059, 3.495e-5
-1.060, 3.109e-5
-1.061, 2.843e-5
-1.062, 3.084e-5
-1.063, 3.580e-5
-1.064, 3.578e-5
-1.065, 3.174e-5
-1.066, 2.919e-5
-1.067, 3.162e-5
-1.068, 3.623e-5
-1.069, 3.650e-5
-1.070, 3.253e-5
-1.071, 2.971e-5
-1.072, 3.179e-5
-1.073, 3.664e-5
-1.074, 3.707e-5
-1.075, 3.313e-5
-1.076, 3.021e-5
-1.077, 3.253e-5
-1.078, 3.708e-5
-1.079, 3.759e-5
-1.080, 3.339e-5
-1.081, 3.051e-5
-1.082, 3.297e-5
-1.083, 3.738e-5
-1.084, 3.799e-5
-1.085, 3.388e-5
-1.086, 3.095e-5
-1.087, 3.334e-5
-1.088, 3.770e-5
-1.089, 3.818e-5
-1.090, 3.433e-5
-1.091, 3.115e-5
-1.092, 3.352e-5
-1.093, 3.806e-5
-1.094, 3.858e-5
-1.095, 3.465e-5
-1.096, 3.147e-5
-1.097, 3.364e-5
-1.098, 3.831e-5
-1.099, 3.881e-5
-1.100, 3.478e-5
-1.101, 3.173e-5
-1.102, 3.384e-5
-1.103, 3.858e-5
-1.104, 3.879e-5
-1.105, 3.489e-5
-1.106, 3.195e-5
-1.107, 3.390e-5
-1.108, 3.855e-5
-1.109, 3.912e-5
-1.110, 3.511e-5
-1.111, 3.219e-5
-1.112, 3.404e-5
-1.113, 3.861e-5
-1.114, 3.926e-5
-1.115, 3.525e-5
-1.116, 3.222e-5
-1.117, 3.406e-5
-1.118, 3.866e-5
-1.119, 3.946e-5
-1.120, 3.539e-5
-1.121, 3.224e-5
-1.122, 3.428e-5
-1.123, 3.868e-5
-1.124, 3.950e-5
-1.125, 3.560e-5
-1.126, 3.235e-5
-1.127, 3.440e-5
-1.128, 3.875e-5
-1.129, 3.950e-5
-1.130, 3.583e-5
-1.131, 3.247e-5
-1.132, 3.443e-5
-1.133, 3.885e-5
-1.134, 3.971e-5
-1.135, 3.595e-5
-1.136, 3.255e-5
-1.137, 3.439e-5
-1.138, 3.906e-5
-1.139, 3.983e-5
-1.140, 3.617e-5
-1.141, 3.279e-5
-1.142, 3.456e-5
-1.143, 3.915e-5
-1.144, 3.999e-5
-1.145, 3.630e-5
-1.146, 3.301e-5
-1.147, 3.473e-5
-1.148, 3.921e-5
-1.149, 4.019e-5
-1.150, 3.653e-5
-1.151, 3.331e-5
-1.152, 3.483e-5
-1.153, 3.938e-5
-1.154, 4.048e-5
-1.155, 3.670e-5
-1.156, 3.341e-5
-1.157, 3.510e-5
-1.158, 3.944e-5
-1.159, 4.093e-5
-1.160, 3.709e-5
-1.161, 3.364e-5
-1.162, 3.540e-5
-1.163, 3.969e-5
-1.164, 4.107e-5
-1.165, 3.747e-5
-1.166, 3.394e-5
-1.167, 3.569e-5
-1.168, 3.997e-5
-1.169, 4.137e-5
-1.170, 3.792e-5
-1.171, 3.427e-5
-1.172, 3.595e-5
-1.173, 4.029e-5
-1.174, 4.172e-5
-1.175, 3.837e-5
-1.176, 3.464e-5
-1.177, 3.631e-5
-1.178, 4.090e-5
-1.179, 4.205e-5
-1.180, 3.869e-5
-1.181, 3.521e-5
-1.182, 3.655e-5
-1.183, 4.112e-5
-1.184, 4.254e-5
-1.185, 3.912e-5
-1.186, 3.566e-5
-1.187, 3.691e-5
-1.188, 4.150e-5
-1.189, 4.300e-5
-1.190, 3.958e-5
-1.191, 3.620e-5
-1.192, 3.726e-5
-1.193, 4.181e-5
-1.194, 4.363e-5
-1.195, 4.006e-5
-1.196, 3.666e-5
-1.197, 3.776e-5
-1.198, 4.234e-5
-1.199, 4.425e-5
-1.200, 4.069e-5
-1.201, 3.699e-5
-1.202, 3.843e-5
-1.203, 4.273e-5
-1.204, 4.470e-5
-1.205, 4.131e-5
-1.206, 3.754e-5
-1.207, 3.894e-5
-1.208, 4.325e-5
-1.209, 4.519e-5
-1.210, 4.212e-5
-1.211, 3.826e-5
-1.212, 3.942e-5
-1.213, 4.389e-5
-1.214, 4.593e-5
-1.215, 4.287e-5
-1.216, 3.899e-5
-1.217, 3.995e-5
-1.218, 4.469e-5
-1.219, 4.651e-5
-1.220, 4.358e-5
-1.221, 3.987e-5
-1.222, 4.079e-5
-1.223, 4.556e-5
-1.224, 4.750e-5
-1.225, 4.437e-5
-1.226, 4.080e-5
-1.227, 4.164e-5
-1.228, 4.657e-5
-1.229, 4.868e-5
-1.230, 4.532e-5
-1.231, 4.185e-5
-1.232, 4.255e-5
-1.233, 4.725e-5
-1.234, 4.964e-5
-1.235, 4.653e-5
-1.236, 4.288e-5
-1.237, 4.373e-5
-1.238, 4.834e-5
-1.239, 5.078e-5
-1.240, 4.789e-5
-1.241, 4.420e-5
-1.242, 4.519e-5
-1.243, 4.971e-5
-1.244, 5.234e-5
-1.245, 4.952e-5
-1.246, 4.573e-5
-1.247, 4.679e-5
-1.248, 5.136e-5
-1.249, 5.377e-5
-1.250, 5.138e-5
-1.251, 4.753e-5
-1.252, 4.858e-5
-1.253, 5.320e-5
-1.254, 5.588e-5
-1.255, 5.347e-5
-1.256, 4.977e-5
-1.257, 5.060e-5
-1.258, 5.558e-5
-1.259, 5.826e-5
-1.260, 5.591e-5
-1.261, 5.240e-5
-1.262, 5.324e-5
-1.263, 5.827e-5
-1.264, 6.101e-5
-1.265, 5.879e-5
-1.266, 5.553e-5
-1.267, 5.630e-5
-1.268, 6.140e-5
-1.269, 6.446e-5
-1.270, 6.234e-5
-1.271, 5.921e-5
-1.272, 6.003e-5
-1.273, 6.523e-5
-1.274, 6.867e-5
-1.275, 6.665e-5
-1.276, 6.348e-5
-1.277, 6.470e-5
-1.278, 6.995e-5
-1.279, 7.358e-5
-1.280, 7.210e-5
-1.281, 6.893e-5
-1.282, 7.040e-5
-1.283, 7.575e-5
-1.284, 7.976e-5
-1.285, 7.846e-5
-1.286, 7.569e-5
-1.287, 7.763e-5
-1.288, 8.318e-5
-1.289, 8.752e-5
-1.290, 8.677e-5
-1.291, 8.431e-5
-1.292, 8.653e-5
-1.293, 9.277e-5
-1.294, 9.767e-5
-1.295, 9.749e-5
-1.296, 9.560e-5
-1.297, 9.852e-5
-1.298, 1.056e-4
-1.299, 1.110e-4
-1.300, 1.118e-4
-1.301, 1.110e-4
-1.302, 1.147e-4
-1.303, 1.229e-4
-1.304, 1.297e-4
-1.305, 1.316e-4
-1.306, 1.327e-4
-1.307, 1.377e-4
-1.308, 1.477e-4
-1.309, 1.564e-4
-1.310, 1.608e-4
-1.311, 1.643e-4
-1.312, 1.720e-4
-1.313, 1.849e-4
-1.314, 1.972e-4
-1.315, 2.052e-4
-1.316, 2.128e-4
-1.317, 2.251e-4
-1.318, 2.431e-4
-1.319, 2.614e-4
-1.320, 2.758e-4
-1.321, 2.908e-4
-1.322, 3.117e-4
-1.323, 3.385e-4
-1.324, 3.668e-4
-1.325, 3.930e-4
-1.326, 4.204e-4
-1.327, 4.544e-4
-1.328, 4.959e-4
-1.329, 5.402e-4
-1.330, 5.835e-4
-1.331, 6.283e-4
-1.332, 6.809e-4
-1.333, 7.420e-4
-1.334, 8.060e-4
-1.335, 8.699e-4
-1.336, 9.363e-4
-1.337, 1.009e-3
-1.338, 1.090e-3
-1.339, 1.172e-3
-1.340, 1.254e-3
-1.341, 1.336e-3
-1.342, 1.421e-3
-1.343, 1.513e-3
-1.344, 1.605e-3
-1.345, 1.695e-3
-1.346, 1.784e-3
-1.347, 1.873e-3
-1.348, 1.967e-3
-1.349, 2.060e-3
-1.350, 2.151e-3
-1.351, 2.237e-3
-1.352, 2.321e-3
-1.353, 2.411e-3
-1.354, 2.500e-3
-1.355, 2.584e-3
-1.356, 2.663e-3
-1.357, 2.744e-3
-1.358, 2.830e-3
-1.359, 2.915e-3
-1.360, 2.997e-3
-1.361, 3.075e-3
-1.362, 3.155e-3
-1.363, 3.241e-3
-1.364, 3.326e-3
-1.365, 3.407e-3
-1.366, 3.486e-3
-1.367, 3.569e-3
-1.368, 3.654e-3
-1.369, 3.738e-3
-1.370, 3.822e-3
-1.371, 3.900e-3
-1.372, 3.982e-3
-1.373, 4.066e-3
-1.374, 4.151e-3
-1.375, 4.240e-3
-1.376, 4.322e-3
-1.377, 4.405e-3
-1.378, 4.489e-3
-1.379, 4.577e-3
-1.380, 4.662e-3
-1.381, 4.734e-3
-1.382, 4.812e-3
-1.383, 4.898e-3
-1.384, 4.985e-3
-1.385, 5.068e-3
-1.386, 5.151e-3
-1.387, 5.232e-3
-1.388, 5.315e-3
-1.389, 5.395e-3
-1.390, 5.476e-3
-1.391, 5.554e-3
-1.392, 5.635e-3
-1.393, 5.723e-3
-1.394, 5.808e-3
-1.395, 5.895e-3
-1.396, 5.975e-3
-1.397, 6.046e-3
-1.398, 6.126e-3
-1.399, 6.210e-3
-1.400, 6.203e-3
-1.399, 6.100e-3
-1.398, 5.988e-3
-1.397, 5.893e-3
-1.396, 5.796e-3
-1.395, 5.705e-3
-1.394, 5.608e-3
-1.393, 5.506e-3
-1.392, 5.415e-3
-1.391, 5.315e-3
-1.390, 5.235e-3
-1.389, 5.158e-3
-1.388, 5.063e-3
-1.387, 4.970e-3
-1.386, 4.882e-3
-1.385, 4.780e-3
-1.384, 4.677e-3
-1.383, 4.584e-3
-1.382, 4.500e-3
-1.381, 4.414e-3
-1.380, 4.340e-3
-1.379, 4.249e-3
-1.378, 4.146e-3
-1.377, 4.064e-3
-1.376, 3.980e-3
-1.375, 3.894e-3
-1.374, 3.816e-3
-1.373, 3.736e-3
-1.372, 3.666e-3
-1.371, 3.591e-3
-1.370, 3.516e-3
-1.369, 3.437e-3
-1.368, 3.360e-3
-1.367, 3.293e-3
-1.366, 3.225e-3
-1.365, 3.158e-3
-1.364, 3.088e-3
-1.363, 3.016e-3
-1.362, 2.949e-3
-1.361, 2.881e-3
-1.360, 2.817e-3
-1.359, 2.746e-3
-1.358, 2.677e-3
-1.357, 2.620e-3
-1.356, 2.565e-3
-1.355, 2.506e-3
-1.354, 2.439e-3
-1.353, 2.376e-3
-1.352, 2.317e-3
-1.351, 2.258e-3
-1.350, 2.202e-3
-1.349, 2.143e-3
-1.348, 2.087e-3
-1.347, 2.035e-3
-1.346, 1.985e-3
-1.345, 1.931e-3
-1.344, 1.875e-3
-1.343, 1.822e-3
-1.342, 1.772e-3
-1.341, 1.726e-3
-1.340, 1.678e-3
-1.339, 1.627e-3
-1.338, 1.578e-3
-1.337, 1.532e-3
-1.336, 1.489e-3
-1.335, 1.444e-3
-1.334, 1.397e-3
-1.333, 1.354e-3
-1.332, 1.314e-3
-1.331, 1.276e-3
-1.330, 1.235e-3
-1.329, 1.194e-3
-1.328, 1.154e-3
-1.327, 1.118e-3
-1.326, 1.085e-3
-1.325, 1.050e-3
-1.324, 1.013e-3
-1.323, 9.775e-4
-1.322, 9.462e-4
-1.321, 9.162e-4
-1.320, 8.844e-4
-1.319, 8.497e-4
-1.318, 8.178e-4
-1.317, 7.910e-4
-1.316, 7.664e-4
-1.315, 7.384e-4
-1.314, 7.084e-4
-1.313, 6.805e-4
-1.312, 6.576e-4
-1.311, 6.362e-4
-1.310, 6.113e-4
-1.309, 5.844e-4
-1.308, 5.585e-4
-1.307, 5.387e-4
-1.306, 5.203e-4
-1.305, 4.993e-4
-1.304, 4.764e-4
-1.303, 4.551e-4
-1.302, 4.390e-4
-1.301, 4.249e-4
-1.300, 4.076e-4
-1.299, 3.878e-4
-1.298, 3.701e-4
-1.297, 3.573e-4
-1.296, 3.461e-4
-1.295, 3.314e-4
-1.294, 3.137e-4
-1.293, 2.983e-4
-1.292, 2.878e-4
-1.291, 2.788e-4
-1.290, 2.665e-4
-1.289, 2.512e-4
-1.288, 2.383e-4
-1.287, 2.299e-4
-1.286, 2.234e-4
-1.285, 2.135e-4
-1.284, 2.000e-4
-1.283, 1.883e-4
-1.282, 1.819e-4
-1.281, 1.769e-4
-1.280, 1.683e-4
-1.279, 1.568e-4
-1.278, 1.471e-4
-1.277, 1.423e-4
-1.276, 1.391e-4
-1.275, 1.316e-4
-1.274, 1.216e-4
-1.273, 1.125e-4
-1.272, 1.086e-4
-1.271, 1.065e-4
-1.270, 1.004e-4
-1.269, 9.158e-5
-1.268, 8.425e-5
-1.267, 8.126e-5
-1.266, 8.076e-5
-1.265, 7.595e-5
-1.264, 6.803e-5
-1.263, 6.156e-5
-1.262, 5.989e-5
-1.261, 6.035e-5
-1.260, 5.659e-5
-1.259, 4.912e-5
-1.258, 4.338e-5
-1.257, 4.239e-5
-1.256, 4.359e-5
-1.255, 4.063e-5
-1.254, 3.395e-5
-1.253, 2.899e-5
-1.252, 2.868e-5
-1.251, 3.037e-5
-1.250, 2.815e-5
-1.249, 2.186e-5
-1.248, 1.722e-5
-1.247, 1.750e-5
-1.246, 1.950e-5
-1.245, 1.794e-5
-1.244, 1.224e-5
-1.243, 7.807e-6
-1.242, 8.525e-6
-1.241, 1.088e-5
-1.240, 9.667e-6
-1.239, 4.306e-6
-1.238, 1.389e-7
-1.237, 1.284e-6
-1.236, 4.196e-6
-1.235, 3.173e-6
-1.234, -1.895e-6
-1.233, -6.339e-6
-1.232, -5.039e-6
-1.231, -1.663e-6
-1.230, -2.562e-6
-1.229, -7.642e-6
-1.228, -1.103e-5
-1.227, -9.932e-6
-1.226, -6.482e-6
-1.225, -6.804e-6
-1.224, -1.138e-5
-1.223, -1.485e-5
-1.222, -1.365e-5
-1.221, -9.800e-6
-1.220, -1.010e-5
-1.219, -1.483e-5
-1.218, -1.820e-5
-1.217, -1.714e-5
-1.216, -1.358e-5
-1.215, -1.351e-5
-1.214, -1.798e-5
-1.213, -2.100e-5
-1.212, -1.983e-5
-1.211, -1.595e-5
-1.210, -1.570e-5
-1.209, -2.026e-5
-1.208, -2.353e-5
-1.207, -2.198e-5
-1.206, -1.814e-5
-1.205, -1.751e-5
-1.204, -2.180e-5
-1.203, -2.548e-5
-1.202, -2.375e-5
-1.201, -1.994e-5
-1.200, -1.927e-5
-1.199, -2.351e-5
-1.198, -2.702e-5
-1.197, -2.530e-5
-1.196, -2.098e-5
-1.195, -2.069e-5
-1.194, -2.460e-5
-1.193, -2.841e-5
-1.192, -2.657e-5
-1.191, -2.246e-5
-1.190, -2.200e-5
-1.189, -2.597e-5
-1.188, -2.972e-5
-1.187, -2.859e-5
-1.186, -2.437e-5
-1.185, -2.368e-5
-1.184, -2.726e-5
-1.183, -3.066e-5
-1.182, -2.943e-5
-1.181, -2.489e-5
-1.180, -2.406e-5
-1.179, -2.833e-5
-1.178, -3.196e-5
-1.177, -3.035e-5
-1.176, -2.598e-5
-1.175, -2.500e-5
-1.174, -2.911e-5
-1.173, -3.242e-5
-1.172, -3.095e-5
-1.171, -2.698e-5
-1.170, -2.594e-5
-1.169, -3.009e-5
-1.168, -3.332e-5
-1.167, -3.169e-5
-1.166, -2.756e-5
-1.165, -2.651e-5
-1.164, -3.046e-5
-1.163, -3.422e-5
-1.162, -3.261e-5
-1.161, -2.850e-5
-1.160, -2.719e-5
-1.159, -3.104e-5
-1.158, -3.488e-5
-1.157, -3.316e-5
-1.156, -2.899e-5
-1.155, -2.803e-5
-1.154, -3.176e-5
-1.153, -3.551e-5
-1.152, -3.413e-5
-1.151, -2.963e-5
-1.150, -2.876e-5
-1.149, -3.232e-5
-1.148, -3.602e-5
-1.147, -3.484e-5
-1.146, -3.032e-5
-1.145, -2.936e-5
-1.144, -3.298e-5
-1.143, -3.670e-5
-1.142, -3.559e-5
-1.141, -3.112e-5
-1.140, -2.990e-5
-1.139, -3.375e-5
-1.138, -3.727e-5
-1.137, -3.618e-5
-1.136, -3.170e-5
-1.135, -3.050e-5
-1.134, -3.436e-5
-1.133, -3.803e-5
-1.132, -3.695e-5
-1.131, -3.269e-5
-1.130, -3.115e-5
-1.129, -3.504e-5
-1.128, -3.859e-5
-1.127, -3.747e-5
-1.126, -3.325e-5
-1.125, -3.188e-5
-1.124, -3.558e-5
-1.123, -3.954e-5
-1.122, -3.828e-5
-1.121, -3.425e-5
-1.120, -3.247e-5
-1.119, -3.614e-5
-1.118, -4.012e-5
-1.117, -3.883e-5
-1.116, -3.463e-5
-1.115, -3.356e-5
-1.114, -3.708e-5
-1.113, -4.118e-5
-1.112, -3.989e-5
-1.111, -3.574e-5
-1.110, -3.439e-5
-1.109, -3.781e-5
-1.108, -4.166e-5
-1.107, -4.096e-5
-1.106, -3.648e-5
-1.105, -3.510e-5
-1.104, -3.856e-5
-1.103, -4.257e-5
-1.102, -4.192e-5
-1.101, -3.760e-5
-1.100, -3.590e-5
-1.099, -3.971e-5
-1.098, -4.350e-5
-1.097, -4.296e-5
-1.096, -3.848e-5
-1.095, -3.680e-5
-1.094, -4.071e-5
-1.093, -4.448e-5
-1.092, -4.387e-5
-1.091, -3.979e-5
-1.090, -3.797e-5
-1.089, -4.170e-5
-1.088, -4.566e-5
-1.087, -4.499e-5
-1.086, -4.090e-5
-1.085, -3.903e-5
-1.084, -4.259e-5
-1.083, -4.679e-5
-1.082, -4.610e-5
-1.081, -4.217e-5
-1.080, -4.027e-5
-1.079, -4.366e-5
-1.078, -4.812e-5
-1.077, -4.736e-5
-1.076, -4.337e-5
-1.075, -4.165e-5
-1.074, -4.483e-5
-1.073, -4.932e-5
-1.072, -4.867e-5
-1.071, -4.456e-5
-1.070, -4.278e-5
-1.069, -4.609e-5
-1.068, -5.045e-5
-1.067, -5.024e-5
-1.066, -4.590e-5
-1.065, -4.437e-5
-1.064, -4.783e-5
-1.063, -5.234e-5
-1.062, -5.229e-5
-1.061, -4.779e-5
-1.060, -4.583e-5
-1.059, -4.914e-5
-1.058, -5.341e-5
-1.057, -5.349e-5
-1.056, -4.932e-5
-1.055, -4.729e-5
-1.054, -5.076e-5
-1.053, -5.501e-5
-1.052, -5.492e-5
-1.051, -5.098e-5
-1.050, -4.870e-5
-1.049, -5.204e-5
-1.048, -5.652e-5
-1.047, -5.654e-5
-1.046, -5.271e-5
-1.045, -5.025e-5
-1.044, -5.359e-5
-1.043, -5.826e-5
-1.042, -5.823e-5
-1.041, -5.430e-5
-1.040, -5.186e-5
-1.039, -5.507e-5
-1.038, -6.006e-5
-1.037, -5.992e-5
-1.036, -5.609e-5
-1.035, -5.372e-5
-1.034, -5.687e-5
-1.033, -6.191e-5
-1.032, -6.187e-5
-1.031, -5.790e-5
-1.030, -5.586e-5
-1.029, -5.892e-5
-1.028, -6.392e-5
-1.027, -6.452e-5
-1.026, -6.028e-5
-1.025, -5.807e-5
-1.024, -6.110e-5
-1.023, -6.584e-5
-1.022, -6.630e-5
-1.021, -6.218e-5
-1.020, -5.976e-5
-1.019, -6.306e-5
-1.018, -6.779e-5
-1.017, -6.864e-5
-1.016, -6.454e-5
-1.015, -6.205e-5
-1.014, -6.530e-5
-1.013, -6.997e-5
-1.012, -7.063e-5
-1.011, -6.719e-5
-1.010, -6.476e-5
-1.009, -6.792e-5
-1.008, -7.270e-5
-1.007, -7.342e-5
-1.006, -6.976e-5
-1.005, -6.686e-5
-1.004, -6.998e-5
-1.003, -7.519e-5
-1.002, -7.589e-5
-1.001, -7.244e-5
