Sept. 19, 2024   06:19:15
Linear Sweep Voltammetry
File: c:/users/guazh/data/20240903_batch_252_500/2024-09-03-exp394\1acid_2ac-2024-09-19t06_16_04-lsvinphos\1acid_2ac_lsv_50mvs_efin_-2300mv.bin
Data Source:  Experiment
Instrument Model:  CHI760E
Header: LSV ran at 50 mVs with Efin at -2300mV
Note: 

Init E (V) = -0.6
Final E (V) = -2.3
Scan Rate (V/s) = 0.05
Sample Interval (V) = 0.001
Quiet Time (sec) = 2
Sensitivity (A/V) = 1e-4
Comp R (ohm) = 10.6

Results:

Channel 1:
Ep = -2.003V
ip = 6.469e-4A
Ah = 1.018e-3C

Potential/V, Current/A

-0.600, 3.182e-6
-0.601, 3.269e-6
-0.602, 3.311e-6
-0.603, 3.348e-6
-0.604, 3.382e-6
-0.605, 3.415e-6
-0.606, 3.448e-6
-0.607, 3.478e-6
-0.608, 3.511e-6
-0.609, 3.543e-6
-0.610, 3.574e-6
-0.611, 3.607e-6
-0.612, 3.638e-6
-0.613, 3.671e-6
-0.614, 3.704e-6
-0.615, 3.738e-6
-0.616, 3.768e-6
-0.617, 3.799e-6
-0.618, 3.833e-6
-0.619, 3.867e-6
-0.620, 3.899e-6
-0.621, 3.930e-6
-0.622, 3.962e-6
-0.623, 3.994e-6
-0.624, 4.028e-6
-0.625, 4.060e-6
-0.626, 4.092e-6
-0.627, 4.126e-6
-0.628, 4.158e-6
-0.629, 4.189e-6
-0.630, 4.220e-6
-0.631, 4.253e-6
-0.632, 4.286e-6
-0.633, 4.319e-6
-0.634, 4.353e-6
-0.635, 4.386e-6
-0.636, 4.419e-6
-0.637, 4.452e-6
-0.638, 4.487e-6
-0.639, 4.520e-6
-0.640, 4.556e-6
-0.641, 4.590e-6
-0.642, 4.622e-6
-0.643, 4.658e-6
-0.644, 4.691e-6
-0.645, 4.724e-6
-0.646, 4.759e-6
-0.647, 4.792e-6
-0.648, 4.827e-6
-0.649, 4.860e-6
-0.650, 4.892e-6
-0.651, 4.925e-6
-0.652, 4.959e-6
-0.653, 4.994e-6
-0.654, 5.029e-6
-0.655, 5.063e-6
-0.656, 5.095e-6
-0.657, 5.128e-6
-0.658, 5.161e-6
-0.659, 5.195e-6
-0.660, 5.229e-6
-0.661, 5.262e-6
-0.662, 5.296e-6
-0.663, 5.329e-6
-0.664, 5.362e-6
-0.665, 5.397e-6
-0.666, 5.430e-6
-0.667, 5.462e-6
-0.668, 5.496e-6
-0.669, 5.528e-6
-0.670, 5.561e-6
-0.671, 5.594e-6
-0.672, 5.627e-6
-0.673, 5.658e-6
-0.674, 5.689e-6
-0.675, 5.722e-6
-0.676, 5.754e-6
-0.677, 5.785e-6
-0.678, 5.819e-6
-0.679, 5.851e-6
-0.680, 5.881e-6
-0.681, 5.908e-6
-0.682, 5.937e-6
-0.683, 5.966e-6
-0.684, 5.997e-6
-0.685, 6.028e-6
-0.686, 6.058e-6
-0.687, 6.088e-6
-0.688, 6.117e-6
-0.689, 6.147e-6
-0.690, 6.174e-6
-0.691, 6.201e-6
-0.692, 6.229e-6
-0.693, 6.255e-6
-0.694, 6.283e-6
-0.695, 6.312e-6
-0.696, 6.339e-6
-0.697, 6.366e-6
-0.698, 6.392e-6
-0.699, 6.419e-6
-0.700, 6.445e-6
-0.701, 6.469e-6
-0.702, 6.496e-6
-0.703, 6.521e-6
-0.704, 6.547e-6
-0.705, 6.572e-6
-0.706, 6.595e-6
-0.707, 6.620e-6
-0.708, 6.643e-6
-0.709, 6.667e-6
-0.710, 6.690e-6
-0.711, 6.710e-6
-0.712, 6.732e-6
-0.713, 6.754e-6
-0.714, 6.774e-6
-0.715, 6.796e-6
-0.716, 6.816e-6
-0.717, 6.837e-6
-0.718, 6.857e-6
-0.719, 6.877e-6
-0.720, 6.895e-6
-0.721, 6.912e-6
-0.722, 6.929e-6
-0.723, 6.946e-6
-0.724, 6.965e-6
-0.725, 6.981e-6
-0.726, 6.997e-6
-0.727, 7.012e-6
-0.728, 7.028e-6
-0.729, 7.044e-6
-0.730, 7.059e-6
-0.731, 7.073e-6
-0.732, 7.087e-6
-0.733, 7.101e-6
-0.734, 7.115e-6
-0.735, 7.128e-6
-0.736, 7.139e-6
-0.737, 7.151e-6
-0.738, 7.163e-6
-0.739, 7.174e-6
-0.740, 7.184e-6
-0.741, 7.193e-6
-0.742, 7.204e-6
-0.743, 7.213e-6
-0.744, 7.222e-6
-0.745, 7.232e-6
-0.746, 7.238e-6
-0.747, 7.246e-6
-0.748, 7.253e-6
-0.749, 7.260e-6
-0.750, 7.266e-6
-0.751, 7.271e-6
-0.752, 7.277e-6
-0.753, 7.283e-6
-0.754, 7.287e-6
-0.755, 7.293e-6
-0.756, 7.296e-6
-0.757, 7.300e-6
-0.758, 7.305e-6
-0.759, 7.307e-6
-0.760, 7.309e-6
-0.761, 7.310e-6
-0.762, 7.312e-6
-0.763, 7.314e-6
-0.764, 7.316e-6
-0.765, 7.317e-6
-0.766, 7.317e-6
-0.767, 7.316e-6
-0.768, 7.318e-6
-0.769, 7.319e-6
-0.770, 7.319e-6
-0.771, 7.315e-6
-0.772, 7.315e-6
-0.773, 7.312e-6
-0.774, 7.310e-6
-0.775, 7.308e-6
-0.776, 7.304e-6
-0.777, 7.301e-6
-0.778, 7.297e-6
-0.779, 7.295e-6
-0.780, 7.292e-6
-0.781, 7.288e-6
-0.782, 7.284e-6
-0.783, 7.278e-6
-0.784, 7.273e-6
-0.785, 7.269e-6
-0.786, 7.263e-6
-0.787, 7.258e-6
-0.788, 7.253e-6
-0.789, 7.247e-6
-0.790, 7.241e-6
-0.791, 7.233e-6
-0.792, 7.229e-6
-0.793, 7.221e-6
-0.794, 7.215e-6
-0.795, 7.208e-6
-0.796, 7.199e-6
-0.797, 7.191e-6
-0.798, 7.185e-6
-0.799, 7.176e-6
-0.800, 7.169e-6
-0.801, 7.160e-6
-0.802, 7.151e-6
-0.803, 7.143e-6
-0.804, 7.134e-6
-0.805, 7.125e-6
-0.806, 7.117e-6
-0.807, 7.107e-6
-0.808, 7.098e-6
-0.809, 7.089e-6
-0.810, 7.079e-6
-0.811, 7.069e-6
-0.812, 7.060e-6
-0.813, 7.049e-6
-0.814, 7.041e-6
-0.815, 7.031e-6
-0.816, 7.021e-6
-0.817, 7.011e-6
-0.818, 7.000e-6
-0.819, 6.995e-6
-0.820, 6.986e-6
-0.821, 6.974e-6
-0.822, 6.963e-6
-0.823, 6.951e-6
-0.824, 6.940e-6
-0.825, 6.931e-6
-0.826, 6.920e-6
-0.827, 6.910e-6
-0.828, 6.899e-6
-0.829, 6.889e-6
-0.830, 6.879e-6
-0.831, 6.868e-6
-0.832, 6.858e-6
-0.833, 6.848e-6
-0.834, 6.837e-6
-0.835, 6.827e-6
-0.836, 6.815e-6
-0.837, 6.804e-6
-0.838, 6.794e-6
-0.839, 6.783e-6
-0.840, 6.773e-6
-0.841, 6.760e-6
-0.842, 6.751e-6
-0.843, 6.740e-6
-0.844, 6.730e-6
-0.845, 6.721e-6
-0.846, 6.710e-6
-0.847, 6.698e-6
-0.848, 6.688e-6
-0.849, 6.678e-6
-0.850, 6.666e-6
-0.851, 6.655e-6
-0.852, 6.646e-6
-0.853, 6.633e-6
-0.854, 6.623e-6
-0.855, 6.615e-6
-0.856, 6.604e-6
-0.857, 6.594e-6
-0.858, 6.583e-6
-0.859, 6.572e-6
-0.860, 6.562e-6
-0.861, 6.551e-6
-0.862, 6.541e-6
-0.863, 6.530e-6
-0.864, 6.521e-6
-0.865, 6.512e-6
-0.866, 6.500e-6
-0.867, 6.490e-6
-0.868, 6.480e-6
-0.869, 6.471e-6
-0.870, 6.463e-6
-0.871, 6.454e-6
-0.872, 6.444e-6
-0.873, 6.434e-6
-0.874, 6.425e-6
-0.875, 6.415e-6
-0.876, 6.404e-6
-0.877, 6.396e-6
-0.878, 6.386e-6
-0.879, 6.377e-6
-0.880, 6.367e-6
-0.881, 6.357e-6
-0.882, 6.347e-6
-0.883, 6.337e-6
-0.884, 6.328e-6
-0.885, 6.320e-6
-0.886, 6.311e-6
-0.887, 6.298e-6
-0.888, 6.291e-6
-0.889, 6.282e-6
-0.890, 6.274e-6
-0.891, 6.263e-6
-0.892, 6.255e-6
-0.893, 6.246e-6
-0.894, 6.240e-6
-0.895, 6.232e-6
-0.896, 6.223e-6
-0.897, 6.215e-6
-0.898, 6.206e-6
-0.899, 6.198e-6
-0.900, 6.191e-6
-0.901, 6.182e-6
-0.902, 6.176e-6
-0.903, 6.167e-6
-0.904, 6.159e-6
-0.905, 6.152e-6
-0.906, 6.143e-6
-0.907, 6.137e-6
-0.908, 6.129e-6
-0.909, 6.121e-6
-0.910, 6.114e-6
-0.911, 6.105e-6
-0.912, 6.098e-6
-0.913, 6.090e-6
-0.914, 6.080e-6
-0.915, 6.074e-6
-0.916, 6.066e-6
-0.917, 6.057e-6
-0.918, 6.051e-6
-0.919, 6.044e-6
-0.920, 6.036e-6
-0.921, 6.030e-6
-0.922, 6.022e-6
-0.923, 6.015e-6
-0.924, 6.008e-6
-0.925, 6.001e-6
-0.926, 5.994e-6
-0.927, 5.987e-6
-0.928, 5.981e-6
-0.929, 5.976e-6
-0.930, 5.967e-6
-0.931, 5.960e-6
-0.932, 5.954e-6
-0.933, 5.948e-6
-0.934, 5.941e-6
-0.935, 5.936e-6
-0.936, 5.928e-6
-0.937, 5.924e-6
-0.938, 5.917e-6
-0.939, 5.910e-6
-0.940, 5.905e-6
-0.941, 5.898e-6
-0.942, 5.893e-6
-0.943, 5.887e-6
-0.944, 5.882e-6
-0.945, 5.876e-6
-0.946, 5.870e-6
-0.947, 5.866e-6
-0.948, 5.861e-6
-0.949, 5.854e-6
-0.950, 5.849e-6
-0.951, 5.842e-6
-0.952, 5.838e-6
-0.953, 5.831e-6
-0.954, 5.825e-6
-0.955, 5.820e-6
-0.956, 5.812e-6
-0.957, 5.808e-6
-0.958, 5.801e-6
-0.959, 5.796e-6
-0.960, 5.790e-6
-0.961, 5.785e-6
-0.962, 5.780e-6
-0.963, 5.774e-6
-0.964, 5.769e-6
-0.965, 5.763e-6
-0.966, 5.757e-6
-0.967, 5.753e-6
-0.968, 5.745e-6
-0.969, 5.742e-6
-0.970, 5.735e-6
-0.971, 5.731e-6
-0.972, 5.725e-6
-0.973, 5.721e-6
-0.974, 5.716e-6
-0.975, 5.710e-6
-0.976, 5.705e-6
-0.977, 5.702e-6
-0.978, 5.695e-6
-0.979, 5.691e-6
-0.980, 5.687e-6
-0.981, 5.680e-6
-0.982, 5.677e-6
-0.983, 5.672e-6
-0.984, 5.669e-6
-0.985, 5.665e-6
-0.986, 5.658e-6
-0.987, 5.656e-6
-0.988, 5.650e-6
-0.989, 5.646e-6
-0.990, 5.641e-6
-0.991, 5.638e-6
-0.992, 5.634e-6
-0.993, 5.630e-6
-0.994, 5.626e-6
-0.995, 5.621e-6
-0.996, 5.617e-6
-0.997, 5.613e-6
-0.998, 5.609e-6
-0.999, 5.606e-6
-1.000, 5.602e-6
-1.001, 5.599e-6
-1.002, 5.593e-6
-1.003, 5.588e-6
-1.004, 5.585e-6
-1.005, 5.579e-6
-1.006, 5.576e-6
-1.007, 5.571e-6
-1.008, 5.568e-6
-1.009, 5.564e-6
-1.010, 5.560e-6
-1.011, 5.558e-6
-1.012, 5.555e-6
-1.013, 5.550e-6
-1.014, 5.547e-6
-1.015, 5.544e-6
-1.016, 5.540e-6
-1.017, 5.537e-6
-1.018, 5.533e-6
-1.019, 5.529e-6
-1.020, 5.526e-6
-1.021, 5.522e-6
-1.022, 5.518e-6
-1.023, 5.513e-6
-1.024, 5.513e-6
-1.025, 5.510e-6
-1.026, 5.505e-6
-1.027, 5.505e-6
-1.028, 5.502e-6
-1.029, 5.497e-6
-1.030, 5.493e-6
-1.031, 5.489e-6
-1.032, 5.487e-6
-1.033, 5.483e-6
-1.034, 5.480e-6
-1.035, 5.478e-6
-1.036, 5.474e-6
-1.037, 5.472e-6
-1.038, 5.469e-6
-1.039, 5.467e-6
-1.040, 5.464e-6
-1.041, 5.461e-6
-1.042, 5.459e-6
-1.043, 5.457e-6
-1.044, 5.456e-6
-1.045, 5.452e-6
-1.046, 5.448e-6
-1.047, 5.448e-6
-1.048, 5.443e-6
-1.049, 5.441e-6
-1.050, 5.439e-6
-1.051, 5.436e-6
-1.052, 5.435e-6
-1.053, 5.433e-6
-1.054, 5.432e-6
-1.055, 5.429e-6
-1.056, 5.428e-6
-1.057, 5.427e-6
-1.058, 5.423e-6
-1.059, 5.423e-6
-1.060, 5.419e-6
-1.061, 5.416e-6
-1.062, 5.416e-6
-1.063, 5.414e-6
-1.064, 5.414e-6
-1.065, 5.413e-6
-1.066, 5.409e-6
-1.067, 5.407e-6
-1.068, 5.406e-6
-1.069, 5.403e-6
-1.070, 5.402e-6
-1.071, 5.401e-6
-1.072, 5.401e-6
-1.073, 5.397e-6
-1.074, 5.397e-6
-1.075, 5.396e-6
-1.076, 5.395e-6
-1.077, 5.394e-6
-1.078, 5.393e-6
-1.079, 5.392e-6
-1.080, 5.390e-6
-1.081, 5.390e-6
-1.082, 5.390e-6
-1.083, 5.388e-6
-1.084, 5.389e-6
-1.085, 5.386e-6
-1.086, 5.385e-6
-1.087, 5.385e-6
-1.088, 5.385e-6
-1.089, 5.385e-6
-1.090, 5.382e-6
-1.091, 5.381e-6
-1.092, 5.382e-6
-1.093, 5.380e-6
-1.094, 5.381e-6
-1.095, 5.379e-6
-1.096, 5.378e-6
-1.097, 5.379e-6
-1.098, 5.379e-6
-1.099, 5.379e-6
-1.100, 5.378e-6
-1.101, 5.377e-6
-1.102, 5.378e-6
-1.103, 5.378e-6
-1.104, 5.379e-6
-1.105, 5.379e-6
-1.106, 5.377e-6
-1.107, 5.379e-6
-1.108, 5.379e-6
-1.109, 5.379e-6
-1.110, 5.379e-6
-1.111, 5.377e-6
-1.112, 5.377e-6
-1.113, 5.379e-6
-1.114, 5.379e-6
-1.115, 5.380e-6
-1.116, 5.380e-6
-1.117, 5.380e-6
-1.118, 5.380e-6
-1.119, 5.381e-6
-1.120, 5.381e-6
-1.121, 5.382e-6
-1.122, 5.384e-6
-1.123, 5.383e-6
-1.124, 5.385e-6
-1.125, 5.386e-6
-1.126, 5.386e-6
-1.127, 5.391e-6
-1.128, 5.391e-6
-1.129, 5.392e-6
-1.130, 5.390e-6
-1.131, 5.391e-6
-1.132, 5.393e-6
-1.133, 5.394e-6
-1.134, 5.395e-6
-1.135, 5.397e-6
-1.136, 5.398e-6
-1.137, 5.399e-6
-1.138, 5.400e-6
-1.139, 5.402e-6
-1.140, 5.403e-6
-1.141, 5.404e-6
-1.142, 5.406e-6
-1.143, 5.407e-6
-1.144, 5.409e-6
-1.145, 5.411e-6
-1.146, 5.412e-6
-1.147, 5.415e-6
-1.148, 5.415e-6
-1.149, 5.417e-6
-1.150, 5.418e-6
-1.151, 5.420e-6
-1.152, 5.422e-6
-1.153, 5.424e-6
-1.154, 5.427e-6
-1.155, 5.429e-6
-1.156, 5.431e-6
-1.157, 5.432e-6
-1.158, 5.432e-6
-1.159, 5.438e-6
-1.160, 5.440e-6
-1.161, 5.442e-6
-1.162, 5.444e-6
-1.163, 5.447e-6
-1.164, 5.449e-6
-1.165, 5.452e-6
-1.166, 5.455e-6
-1.167, 5.459e-6
-1.168, 5.459e-6
-1.169, 5.465e-6
-1.170, 5.467e-6
-1.171, 5.470e-6
-1.172, 5.473e-6
-1.173, 5.475e-6
-1.174, 5.477e-6
-1.175, 5.482e-6
-1.176, 5.483e-6
-1.177, 5.487e-6
-1.178, 5.492e-6
-1.179, 5.495e-6
-1.180, 5.497e-6
-1.181, 5.499e-6
-1.182, 5.504e-6
-1.183, 5.507e-6
-1.184, 5.511e-6
-1.185, 5.515e-6
-1.186, 5.517e-6
-1.187, 5.520e-6
-1.188, 5.524e-6
-1.189, 5.526e-6
-1.190, 5.529e-6
-1.191, 5.534e-6
-1.192, 5.539e-6
-1.193, 5.542e-6
-1.194, 5.545e-6
-1.195, 5.548e-6
-1.196, 5.551e-6
-1.197, 5.556e-6
-1.198, 5.560e-6
-1.199, 5.564e-6
-1.200, 5.567e-6
-1.201, 5.571e-6
-1.202, 5.575e-6
-1.203, 5.579e-6
-1.204, 5.584e-6
-1.205, 5.587e-6
-1.206, 5.592e-6
-1.207, 5.595e-6
-1.208, 5.599e-6
-1.209, 5.605e-6
-1.210, 5.608e-6
-1.211, 5.611e-6
-1.212, 5.615e-6
-1.213, 5.618e-6
-1.214, 5.624e-6
-1.215, 5.626e-6
-1.216, 5.631e-6
-1.217, 5.636e-6
-1.218, 5.640e-6
-1.219, 5.644e-6
-1.220, 5.647e-6
-1.221, 5.652e-6
-1.222, 5.655e-6
-1.223, 5.660e-6
-1.224, 5.666e-6
-1.225, 5.669e-6
-1.226, 5.672e-6
-1.227, 5.678e-6
-1.228, 5.683e-6
-1.229, 5.691e-6
-1.230, 5.694e-6
-1.231, 5.697e-6
-1.232, 5.701e-6
-1.233, 5.707e-6
-1.234, 5.713e-6
-1.235, 5.716e-6
-1.236, 5.720e-6
-1.237, 5.725e-6
-1.238, 5.730e-6
-1.239, 5.734e-6
-1.240, 5.739e-6
-1.241, 5.742e-6
-1.242, 5.749e-6
-1.243, 5.753e-6
-1.244, 5.759e-6
-1.245, 5.763e-6
-1.246, 5.769e-6
-1.247, 5.774e-6
-1.248, 5.778e-6
-1.249, 5.783e-6
-1.250, 5.786e-6
-1.251, 5.792e-6
-1.252, 5.798e-6
-1.253, 5.803e-6
-1.254, 5.808e-6
-1.255, 5.812e-6
-1.256, 5.817e-6
-1.257, 5.822e-6
-1.258, 5.827e-6
-1.259, 5.834e-6
-1.260, 5.838e-6
-1.261, 5.843e-6
-1.262, 5.849e-6
-1.263, 5.853e-6
-1.264, 5.859e-6
-1.265, 5.863e-6
-1.266, 5.868e-6
-1.267, 5.873e-6
-1.268, 5.878e-6
-1.269, 5.884e-6
-1.270, 5.888e-6
-1.271, 5.892e-6
-1.272, 5.898e-6
-1.273, 5.903e-6
-1.274, 5.907e-6
-1.275, 5.912e-6
-1.276, 5.916e-6
-1.277, 5.922e-6
-1.278, 5.926e-6
-1.279, 5.931e-6
-1.280, 5.938e-6
-1.281, 5.944e-6
-1.282, 5.946e-6
-1.283, 5.953e-6
-1.284, 5.959e-6
-1.285, 5.964e-6
-1.286, 5.970e-6
-1.287, 5.974e-6
-1.288, 5.980e-6
-1.289, 5.987e-6
-1.290, 5.990e-6
-1.291, 5.997e-6
-1.292, 6.002e-6
-1.293, 6.008e-6
-1.294, 6.014e-6
-1.295, 6.017e-6
-1.296, 6.024e-6
-1.297, 6.030e-6
-1.298, 6.034e-6
-1.299, 6.042e-6
-1.300, 6.046e-6
-1.301, 6.051e-6
-1.302, 6.059e-6
-1.303, 6.064e-6
-1.304, 6.069e-6
-1.305, 6.075e-6
-1.306, 6.081e-6
-1.307, 6.086e-6
-1.308, 6.092e-6
-1.309, 6.098e-6
-1.310, 6.104e-6
-1.311, 6.108e-6
-1.312, 6.116e-6
-1.313, 6.122e-6
-1.314, 6.126e-6
-1.315, 6.133e-6
-1.316, 6.140e-6
-1.317, 6.145e-6
-1.318, 6.151e-6
-1.319, 6.158e-6
-1.320, 6.164e-6
-1.321, 6.171e-6
-1.322, 6.175e-6
-1.323, 6.181e-6
-1.324, 6.187e-6
-1.325, 6.192e-6
-1.326, 6.198e-6
-1.327, 6.203e-6
-1.328, 6.209e-6
-1.329, 6.216e-6
-1.330, 6.221e-6
-1.331, 6.227e-6
-1.332, 6.235e-6
-1.333, 6.239e-6
-1.334, 6.246e-6
-1.335, 6.252e-6
-1.336, 6.258e-6
-1.337, 6.265e-6
-1.338, 6.271e-6
-1.339, 6.278e-6
-1.340, 6.284e-6
-1.341, 6.290e-6
-1.342, 6.298e-6
-1.343, 6.303e-6
-1.344, 6.311e-6
-1.345, 6.316e-6
-1.346, 6.323e-6
-1.347, 6.329e-6
-1.348, 6.335e-6
-1.349, 6.342e-6
-1.350, 6.348e-6
-1.351, 6.355e-6
-1.352, 6.362e-6
-1.353, 6.369e-6
-1.354, 6.375e-6
-1.355, 6.382e-6
-1.356, 6.389e-6
-1.357, 6.397e-6
-1.358, 6.405e-6
-1.359, 6.413e-6
-1.360, 6.418e-6
-1.361, 6.425e-6
-1.362, 6.430e-6
-1.363, 6.436e-6
-1.364, 6.443e-6
-1.365, 6.449e-6
-1.366, 6.458e-6
-1.367, 6.463e-6
-1.368, 6.470e-6
-1.369, 6.478e-6
-1.370, 6.484e-6
-1.371, 6.492e-6
-1.372, 6.499e-6
-1.373, 6.505e-6
-1.374, 6.512e-6
-1.375, 6.519e-6
-1.376, 6.527e-6
-1.377, 6.534e-6
-1.378, 6.542e-6
-1.379, 6.550e-6
-1.380, 6.555e-6
-1.381, 6.564e-6
-1.382, 6.572e-6
-1.383, 6.580e-6
-1.384, 6.587e-6
-1.385, 6.594e-6
-1.386, 6.601e-6
-1.387, 6.610e-6
-1.388, 6.617e-6
-1.389, 6.625e-6
-1.390, 6.634e-6
-1.391, 6.642e-6
-1.392, 6.651e-6
-1.393, 6.659e-6
-1.394, 6.666e-6
-1.395, 6.674e-6
-1.396, 6.682e-6
-1.397, 6.689e-6
-1.398, 6.698e-6
-1.399, 6.706e-6
-1.400, 6.713e-6
-1.401, 6.722e-6
-1.402, 6.730e-6
-1.403, 6.740e-6
-1.404, 6.746e-6
-1.405, 6.754e-6
-1.406, 6.763e-6
-1.407, 6.771e-6
-1.408, 6.780e-6
-1.409, 6.790e-6
-1.410, 6.797e-6
-1.411, 6.804e-6
-1.412, 6.815e-6
-1.413, 6.825e-6
-1.414, 6.835e-6
-1.415, 6.842e-6
-1.416, 6.852e-6
-1.417, 6.861e-6
-1.418, 6.869e-6
-1.419, 6.879e-6
-1.420, 6.888e-6
-1.421, 6.898e-6
-1.422, 6.907e-6
-1.423, 6.918e-6
-1.424, 6.928e-6
-1.425, 6.937e-6
-1.426, 6.946e-6
-1.427, 6.958e-6
-1.428, 6.968e-6
-1.429, 6.977e-6
-1.430, 6.988e-6
-1.431, 6.997e-6
-1.432, 7.006e-6
-1.433, 7.019e-6
-1.434, 7.030e-6
-1.435, 7.040e-6
-1.436, 7.051e-6
-1.437, 7.061e-6
-1.438, 7.072e-6
-1.439, 7.084e-6
-1.440, 7.094e-6
-1.441, 7.107e-6
-1.442, 7.117e-6
-1.443, 7.129e-6
-1.444, 7.142e-6
-1.445, 7.152e-6
-1.446, 7.165e-6
-1.447, 7.177e-6
-1.448, 7.189e-6
-1.449, 7.201e-6
-1.450, 7.213e-6
-1.451, 7.226e-6
-1.452, 7.239e-6
-1.453, 7.251e-6
-1.454, 7.264e-6
-1.455, 7.274e-6
-1.456, 7.287e-6
-1.457, 7.301e-6
-1.458, 7.313e-6
-1.459, 7.329e-6
-1.460, 7.343e-6
-1.461, 7.358e-6
-1.462, 7.372e-6
-1.463, 7.383e-6
-1.464, 7.398e-6
-1.465, 7.410e-6
-1.466, 7.425e-6
-1.467, 7.440e-6
-1.468, 7.455e-6
-1.469, 7.470e-6
-1.470, 7.486e-6
-1.471, 7.503e-6
-1.472, 7.517e-6
-1.473, 7.536e-6
-1.474, 7.548e-6
-1.475, 7.563e-6
-1.476, 7.581e-6
-1.477, 7.597e-6
-1.478, 7.614e-6
-1.479, 7.629e-6
-1.480, 7.647e-6
-1.481, 7.665e-6
-1.482, 7.680e-6
-1.483, 7.699e-6
-1.484, 7.716e-6
-1.485, 7.736e-6
-1.486, 7.756e-6
-1.487, 7.772e-6
-1.488, 7.791e-6
-1.489, 7.809e-6
-1.490, 7.827e-6
-1.491, 7.848e-6
-1.492, 7.867e-6
-1.493, 7.887e-6
-1.494, 7.907e-6
-1.495, 7.926e-6
-1.496, 7.950e-6
-1.497, 7.972e-6
-1.498, 7.991e-6
-1.499, 8.012e-6
-1.500, 8.032e-6
-1.501, 8.052e-6
-1.502, 8.074e-6
-1.503, 8.095e-6
-1.504, 8.118e-6
-1.505, 8.140e-6
-1.506, 8.161e-6
-1.507, 8.186e-6
-1.508, 8.212e-6
-1.509, 8.236e-6
-1.510, 8.260e-6
-1.511, 8.285e-6
-1.512, 8.309e-6
-1.513, 8.334e-6
-1.514, 8.358e-6
-1.515, 8.380e-6
-1.516, 8.405e-6
-1.517, 8.431e-6
-1.518, 8.459e-6
-1.519, 8.483e-6
-1.520, 8.508e-6
-1.521, 8.537e-6
-1.522, 8.564e-6
-1.523, 8.593e-6
-1.524, 8.617e-6
-1.525, 8.641e-6
-1.526, 8.671e-6
-1.527, 8.699e-6
-1.528, 8.727e-6
-1.529, 8.755e-6
-1.530, 8.783e-6
-1.531, 8.812e-6
-1.532, 8.841e-6
-1.533, 8.870e-6
-1.534, 8.900e-6
-1.535, 8.929e-6
-1.536, 8.963e-6
-1.537, 8.995e-6
-1.538, 9.028e-6
-1.539, 9.059e-6
-1.540, 9.091e-6
-1.541, 9.122e-6
-1.542, 9.156e-6
-1.543, 9.189e-6
-1.544, 9.224e-6
-1.545, 9.256e-6
-1.546, 9.290e-6
-1.547, 9.323e-6
-1.548, 9.357e-6
-1.549, 9.390e-6
-1.550, 9.425e-6
-1.551, 9.463e-6
-1.552, 9.499e-6
-1.553, 9.537e-6
-1.554, 9.571e-6
-1.555, 9.608e-6
-1.556, 9.647e-6
-1.557, 9.684e-6
-1.558, 9.723e-6
-1.559, 9.759e-6
-1.560, 9.799e-6
-1.561, 9.839e-6
-1.562, 9.879e-6
-1.563, 9.919e-6
-1.564, 9.959e-6
-1.565, 1.000e-5
-1.566, 1.004e-5
-1.567, 1.009e-5
-1.568, 1.013e-5
-1.569, 1.017e-5
-1.570, 1.021e-5
-1.571, 1.025e-5
-1.572, 1.030e-5
-1.573, 1.034e-5
-1.574, 1.038e-5
-1.575, 1.043e-5
-1.576, 1.048e-5
-1.577, 1.052e-5
-1.578, 1.057e-5
-1.579, 1.062e-5
-1.580, 1.067e-5
-1.581, 1.072e-5
-1.582, 1.077e-5
-1.583, 1.081e-5
-1.584, 1.086e-5
-1.585, 1.092e-5
-1.586, 1.097e-5
-1.587, 1.102e-5
-1.588, 1.108e-5
-1.589, 1.113e-5
-1.590, 1.118e-5
-1.591, 1.124e-5
-1.592, 1.129e-5
-1.593, 1.135e-5
-1.594, 1.141e-5
-1.595, 1.146e-5
-1.596, 1.152e-5
-1.597, 1.158e-5
-1.598, 1.164e-5
-1.599, 1.170e-5
-1.600, 1.176e-5
-1.601, 1.182e-5
-1.602, 1.188e-5
-1.603, 1.195e-5
-1.604, 1.201e-5
-1.605, 1.206e-5
-1.606, 1.212e-5
-1.607, 1.219e-5
-1.608, 1.226e-5
-1.609, 1.232e-5
-1.610, 1.239e-5
-1.611, 1.246e-5
-1.612, 1.253e-5
-1.613, 1.261e-5
-1.614, 1.268e-5
-1.615, 1.275e-5
-1.616, 1.283e-5
-1.617, 1.290e-5
-1.618, 1.298e-5
-1.619, 1.306e-5
-1.620, 1.313e-5
-1.621, 1.321e-5
-1.622, 1.329e-5
-1.623, 1.338e-5
-1.624, 1.346e-5
-1.625, 1.354e-5
-1.626, 1.363e-5
-1.627, 1.372e-5
-1.628, 1.381e-5
-1.629, 1.389e-5
-1.630, 1.398e-5
-1.631, 1.407e-5
-1.632, 1.416e-5
-1.633, 1.426e-5
-1.634, 1.435e-5
-1.635, 1.445e-5
-1.636, 1.455e-5
-1.637, 1.465e-5
-1.638, 1.475e-5
-1.639, 1.486e-5
-1.640, 1.496e-5
-1.641, 1.506e-5
-1.642, 1.517e-5
-1.643, 1.528e-5
-1.644, 1.539e-5
-1.645, 1.550e-5
-1.646, 1.561e-5
-1.647, 1.572e-5
-1.648, 1.584e-5
-1.649, 1.596e-5
-1.650, 1.608e-5
-1.651, 1.621e-5
-1.652, 1.634e-5
-1.653, 1.647e-5
-1.654, 1.659e-5
-1.655, 1.672e-5
-1.656, 1.685e-5
-1.657, 1.698e-5
-1.658, 1.712e-5
-1.659, 1.725e-5
-1.660, 1.738e-5
-1.661, 1.753e-5
-1.662, 1.768e-5
-1.663, 1.783e-5
-1.664, 1.798e-5
-1.665, 1.813e-5
-1.666, 1.828e-5
-1.667, 1.845e-5
-1.668, 1.860e-5
-1.669, 1.877e-5
-1.670, 1.893e-5
-1.671, 1.910e-5
-1.672, 1.926e-5
-1.673, 1.944e-5
-1.674, 1.961e-5
-1.675, 1.979e-5
-1.676, 1.997e-5
-1.677, 2.016e-5
-1.678, 2.034e-5
-1.679, 2.053e-5
-1.680, 2.073e-5
-1.681, 2.093e-5
-1.682, 2.112e-5
-1.683, 2.133e-5
-1.684, 2.154e-5
-1.685, 2.175e-5
-1.686, 2.196e-5
-1.687, 2.218e-5
-1.688, 2.241e-5
-1.689, 2.263e-5
-1.690, 2.287e-5
-1.691, 2.310e-5
-1.692, 2.334e-5
-1.693, 2.358e-5
-1.694, 2.383e-5
-1.695, 2.408e-5
-1.696, 2.434e-5
-1.697, 2.460e-5
-1.698, 2.488e-5
-1.699, 2.515e-5
-1.700, 2.542e-5
-1.701, 2.569e-5
-1.702, 2.598e-5
-1.703, 2.627e-5
-1.704, 2.657e-5
-1.705, 2.687e-5
-1.706, 2.718e-5
-1.707, 2.750e-5
-1.708, 2.782e-5
-1.709, 2.813e-5
-1.710, 2.846e-5
-1.711, 2.880e-5
-1.712, 2.915e-5
-1.713, 2.951e-5
-1.714, 2.987e-5
-1.715, 3.024e-5
-1.716, 3.060e-5
-1.717, 3.098e-5
-1.718, 3.138e-5
-1.719, 3.178e-5
-1.720, 3.219e-5
-1.721, 3.261e-5
-1.722, 3.303e-5
-1.723, 3.345e-5
-1.724, 3.389e-5
-1.725, 3.435e-5
-1.726, 3.481e-5
-1.727, 3.528e-5
-1.728, 3.576e-5
-1.729, 3.625e-5
-1.730, 3.674e-5
-1.731, 3.726e-5
-1.732, 3.778e-5
-1.733, 3.829e-5
-1.734, 3.885e-5
-1.735, 3.941e-5
-1.736, 3.998e-5
-1.737, 4.056e-5
-1.738, 4.116e-5
-1.739, 4.176e-5
-1.740, 4.238e-5
-1.741, 4.300e-5
-1.742, 4.364e-5
-1.743, 4.429e-5
-1.744, 4.496e-5
-1.745, 4.564e-5
-1.746, 4.636e-5
-1.747, 4.708e-5
-1.748, 4.781e-5
-1.749, 4.858e-5
-1.750, 4.936e-5
-1.751, 5.011e-5
-1.752, 5.092e-5
-1.753, 5.175e-5
-1.754, 5.259e-5
-1.755, 5.345e-5
-1.756, 5.431e-5
-1.757, 5.520e-5
-1.758, 5.613e-5
-1.759, 5.706e-5
-1.760, 5.801e-5
-1.761, 5.900e-5
-1.762, 5.998e-5
-1.763, 6.099e-5
-1.764, 6.202e-5
-1.765, 6.307e-5
-1.766, 6.417e-5
-1.767, 6.528e-5
-1.768, 6.642e-5
-1.769, 6.759e-5
-1.770, 6.878e-5
-1.771, 6.997e-5
-1.772, 7.121e-5
-1.773, 7.248e-5
-1.774, 7.378e-5
-1.775, 7.510e-5
-1.776, 7.645e-5
-1.777, 7.781e-5
-1.778, 7.922e-5
-1.779, 8.063e-5
-1.780, 8.209e-5
-1.781, 8.359e-5
-1.782, 8.511e-5
-1.783, 8.666e-5
-1.784, 8.823e-5
-1.785, 8.987e-5
-1.786, 9.152e-5
-1.787, 9.320e-5
-1.788, 9.493e-5
-1.789, 9.670e-5
-1.790, 9.849e-5
-1.791, 1.003e-4
-1.792, 1.022e-4
-1.793, 1.041e-4
-1.794, 1.060e-4
-1.795, 1.080e-4
-1.796, 1.100e-4
-1.797, 1.121e-4
-1.798, 1.142e-4
-1.799, 1.163e-4
-1.800, 1.184e-4
-1.801, 1.207e-4
-1.802, 1.229e-4
-1.803, 1.252e-4
-1.804, 1.275e-4
-1.805, 1.299e-4
-1.806, 1.323e-4
-1.807, 1.348e-4
-1.808, 1.372e-4
-1.809, 1.397e-4
-1.810, 1.423e-4
-1.811, 1.449e-4
-1.812, 1.475e-4
-1.813, 1.502e-4
-1.814, 1.528e-4
-1.815, 1.556e-4
-1.816, 1.584e-4
-1.817, 1.611e-4
-1.818, 1.639e-4
-1.819, 1.668e-4
-1.820, 1.696e-4
-1.821, 1.724e-4
-1.822, 1.753e-4
-1.823, 1.782e-4
-1.824, 1.810e-4
-1.825, 1.839e-4
-1.826, 1.868e-4
-1.827, 1.896e-4
-1.828, 1.925e-4
-1.829, 1.953e-4
-1.830, 1.981e-4
-1.831, 2.009e-4
-1.832, 2.037e-4
-1.833, 2.064e-4
-1.834, 2.091e-4
-1.835, 2.117e-4
-1.836, 2.143e-4
-1.837, 2.168e-4
-1.838, 2.193e-4
-1.839, 2.217e-4
-1.840, 2.242e-4
-1.841, 2.265e-4
-1.842, 2.289e-4
-1.843, 2.312e-4
-1.844, 2.336e-4
-1.845, 2.360e-4
-1.846, 2.384e-4
-1.847, 2.409e-4
-1.848, 2.433e-4
-1.849, 2.459e-4
-1.850, 2.485e-4
-1.851, 2.512e-4
-1.852, 2.539e-4
-1.853, 2.567e-4
-1.854, 2.595e-4
-1.855, 2.623e-4
-1.856, 2.652e-4
-1.857, 2.682e-4
-1.858, 2.712e-4
-1.859, 2.742e-4
-1.860, 2.773e-4
-1.861, 2.804e-4
-1.862, 2.836e-4
-1.863, 2.868e-4
-1.864, 2.900e-4
-1.865, 2.932e-4
-1.866, 2.966e-4
-1.867, 2.999e-4
-1.868, 3.033e-4
-1.869, 3.068e-4
-1.870, 3.102e-4
-1.871, 3.137e-4
-1.872, 3.172e-4
-1.873, 3.208e-4
-1.874, 3.244e-4
-1.875, 3.279e-4
-1.876, 3.316e-4
-1.877, 3.353e-4
-1.878, 3.390e-4
-1.879, 3.427e-4
-1.880, 3.465e-4
-1.881, 3.503e-4
-1.882, 3.542e-4
-1.883, 3.581e-4
-1.884, 3.620e-4
-1.885, 3.660e-4
-1.886, 3.700e-4
-1.887, 3.740e-4
-1.888, 3.780e-4
-1.889, 3.821e-4
-1.890, 3.862e-4
-1.891, 3.904e-4
-1.892, 3.946e-4
-1.893, 3.988e-4
-1.894, 4.030e-4
-1.895, 4.073e-4
-1.896, 4.116e-4
-1.897, 4.159e-4
-1.898, 4.203e-4
-1.899, 4.247e-4
-1.900, 4.291e-4
-1.901, 4.335e-4
-1.902, 4.380e-4
-1.903, 4.425e-4
-1.904, 4.471e-4
-1.905, 4.516e-4
-1.906, 4.562e-4
-1.907, 4.609e-4
-1.908, 4.655e-4
-1.909, 4.702e-4
-1.910, 4.750e-4
-1.911, 4.797e-4
-1.912, 4.845e-4
-1.913, 4.893e-4
-1.914, 4.941e-4
-1.915, 4.989e-4
-1.916, 5.038e-4
-1.917, 5.087e-4
-1.918, 5.137e-4
-1.919, 5.187e-4
-1.920, 5.237e-4
-1.921, 5.287e-4
-1.922, 5.338e-4
-1.923, 5.388e-4
-1.924, 5.439e-4
-1.925, 5.491e-4
-1.926, 5.542e-4
-1.927, 5.593e-4
-1.928, 5.644e-4
-1.929, 5.697e-4
-1.930, 5.749e-4
-1.931, 5.801e-4
-1.932, 5.854e-4
-1.933, 5.908e-4
-1.934, 5.962e-4
-1.935, 6.015e-4
-1.936, 6.069e-4
-1.937, 6.123e-4
-1.938, 6.178e-4
-1.939, 6.233e-4
-1.940, 6.288e-4
-1.941, 6.342e-4
-1.942, 6.398e-4
-1.943, 6.453e-4
-1.944, 6.509e-4
-1.945, 6.565e-4
-1.946, 6.621e-4
-1.947, 6.678e-4
-1.948, 6.735e-4
-1.949, 6.791e-4
-1.950, 6.848e-4
-1.951, 6.906e-4
-1.952, 6.964e-4
-1.953, 7.021e-4
-1.954, 7.078e-4
-1.955, 7.136e-4
-1.956, 7.195e-4
-1.957, 7.255e-4
-1.958, 7.314e-4
-1.959, 7.373e-4
-1.960, 7.432e-4
-1.961, 7.492e-4
-1.962, 7.552e-4
-1.963, 7.612e-4
-1.964, 7.673e-4
-1.965, 7.734e-4
-1.966, 7.795e-4
-1.967, 7.857e-4
-1.968, 7.919e-4
-1.969, 7.981e-4
-1.970, 8.044e-4
-1.971, 8.106e-4
-1.972, 8.168e-4
-1.973, 8.230e-4
-1.974, 8.293e-4
-1.975, 8.354e-4
-1.976, 8.415e-4
-1.977, 8.477e-4
-1.978, 8.540e-4
-1.979, 8.603e-4
-1.980, 8.666e-4
-1.981, 8.730e-4
-1.982, 8.794e-4
-1.983, 8.859e-4
-1.984, 8.925e-4
-1.985, 8.989e-4
-1.986, 9.054e-4
-1.987, 9.120e-4
-1.988, 9.185e-4
-1.989, 9.251e-4
-1.990, 9.317e-4
-1.991, 9.384e-4
-1.992, 9.450e-4
-1.993, 9.517e-4
-1.994, 9.583e-4
-1.995, 9.650e-4
-1.996, 9.718e-4
-1.997, 9.786e-4
-1.998, 9.853e-4
-1.999, 9.919e-4
-2.000, 9.986e-4
-2.001, 1.005e-3
-2.002, 1.011e-3
-2.003, 1.011e-3
-2.004, 1.011e-3
-2.005, 1.011e-3
-2.006, 1.011e-3
-2.007, 1.011e-3
-2.008, 1.011e-3
-2.009, 1.011e-3
-2.010, 1.011e-3
-2.011, 1.011e-3
-2.012, 1.011e-3
-2.013, 1.011e-3
-2.014, 1.011e-3
-2.015, 1.011e-3
-2.016, 1.011e-3
-2.017, 1.011e-3
-2.018, 1.011e-3
-2.019, 1.011e-3
-2.020, 1.011e-3
-2.021, 1.011e-3
-2.022, 1.011e-3
-2.023, 1.011e-3
-2.024, 1.011e-3
-2.025, 1.011e-3
-2.026, 1.011e-3
-2.027, 1.011e-3
-2.028, 1.011e-3
-2.029, 1.011e-3
-2.030, 1.011e-3
-2.031, 1.011e-3
-2.032, 1.011e-3
-2.033, 1.011e-3
-2.034, 1.011e-3
-2.035, 1.011e-3
-2.036, 1.011e-3
-2.037, 1.011e-3
-2.038, 1.011e-3
-2.039, 1.011e-3
-2.040, 1.011e-3
-2.041, 1.011e-3
-2.042, 1.011e-3
-2.043, 1.011e-3
-2.044, 1.011e-3
-2.045, 1.011e-3
-2.046, 1.011e-3
-2.047, 1.011e-3
-2.048, 1.011e-3
-2.049, 1.011e-3
-2.050, 1.011e-3
-2.051, 1.011e-3
-2.052, 1.011e-3
-2.053, 1.011e-3
-2.054, 1.011e-3
-2.055, 1.011e-3
-2.056, 1.011e-3
-2.057, 1.011e-3
-2.058, 1.011e-3
-2.059, 1.011e-3
-2.060, 1.011e-3
-2.061, 1.011e-3
-2.062, 1.011e-3
-2.063, 1.011e-3
-2.064, 1.011e-3
-2.065, 1.011e-3
-2.066, 1.011e-3
-2.067, 1.011e-3
-2.068, 1.011e-3
-2.069, 1.011e-3
-2.070, 1.011e-3
-2.071, 1.011e-3
-2.072, 1.011e-3
-2.073, 1.011e-3
-2.074, 1.011e-3
-2.075, 1.011e-3
-2.076, 1.011e-3
-2.077, 1.011e-3
-2.078, 1.011e-3
-2.079, 1.011e-3
-2.080, 1.011e-3
-2.081, 1.011e-3
-2.082, 1.011e-3
-2.083, 1.011e-3
-2.084, 1.011e-3
-2.085, 1.011e-3
-2.086, 1.011e-3
-2.087, 1.011e-3
-2.088, 1.011e-3
-2.089, 1.011e-3
-2.090, 1.011e-3
-2.091, 1.011e-3
-2.092, 1.011e-3
-2.093, 1.011e-3
-2.094, 1.011e-3
-2.095, 1.011e-3
-2.096, 1.011e-3
-2.097, 1.011e-3
-2.098, 1.011e-3
-2.099, 1.011e-3
-2.100, 1.011e-3
-2.101, 1.011e-3
-2.102, 1.011e-3
-2.103, 1.011e-3
-2.104, 1.011e-3
-2.105, 1.011e-3
-2.106, 1.011e-3
-2.107, 1.011e-3
-2.108, 1.011e-3
-2.109, 1.011e-3
-2.110, 1.011e-3
-2.111, 1.011e-3
-2.112, 1.011e-3
-2.113, 1.011e-3
-2.114, 1.011e-3
-2.115, 1.011e-3
-2.116, 1.011e-3
-2.117, 1.011e-3
-2.118, 1.011e-3
-2.119, 1.011e-3
-2.120, 1.011e-3
-2.121, 1.011e-3
-2.122, 1.011e-3
-2.123, 1.011e-3
-2.124, 1.011e-3
-2.125, 1.011e-3
-2.126, 1.011e-3
-2.127, 1.011e-3
-2.128, 1.011e-3
-2.129, 1.011e-3
-2.130, 1.011e-3
-2.131, 1.011e-3
-2.132, 1.011e-3
-2.133, 1.011e-3
-2.134, 1.011e-3
-2.135, 1.011e-3
-2.136, 1.011e-3
-2.137, 1.011e-3
-2.138, 1.011e-3
-2.139, 1.011e-3
-2.140, 1.011e-3
-2.141, 1.011e-3
-2.142, 1.011e-3
-2.143, 1.011e-3
-2.144, 1.011e-3
-2.145, 1.011e-3
-2.146, 1.011e-3
-2.147, 1.011e-3
-2.148, 1.011e-3
-2.149, 1.011e-3
-2.150, 1.011e-3
-2.151, 1.011e-3
-2.152, 1.011e-3
-2.153, 1.011e-3
-2.154, 1.011e-3
-2.155, 1.011e-3
-2.156, 1.011e-3
-2.157, 1.011e-3
-2.158, 1.011e-3
-2.159, 1.011e-3
-2.160, 1.011e-3
-2.161, 1.011e-3
-2.162, 1.011e-3
-2.163, 1.011e-3
-2.164, 1.011e-3
-2.165, 1.011e-3
-2.166, 1.011e-3
-2.167, 1.011e-3
-2.168, 1.011e-3
-2.169, 1.011e-3
-2.170, 1.011e-3
-2.171, 1.011e-3
-2.172, 1.011e-3
-2.173, 1.011e-3
-2.174, 1.011e-3
-2.175, 1.011e-3
-2.176, 1.011e-3
-2.177, 1.011e-3
-2.178, 1.011e-3
-2.179, 1.011e-3
-2.180, 1.011e-3
-2.181, 1.011e-3
-2.182, 1.011e-3
-2.183, 1.011e-3
-2.184, 1.011e-3
-2.185, 1.011e-3
-2.186, 1.011e-3
-2.187, 1.011e-3
-2.188, 1.011e-3
-2.189, 1.011e-3
-2.190, 1.011e-3
-2.191, 1.011e-3
-2.192, 1.011e-3
-2.193, 1.011e-3
-2.194, 1.011e-3
-2.195, 1.011e-3
-2.196, 1.011e-3
-2.197, 1.011e-3
-2.198, 1.011e-3
-2.199, 1.011e-3
-2.200, 1.011e-3
-2.201, 1.011e-3
-2.202, 1.011e-3
-2.203, 1.011e-3
-2.204, 1.011e-3
-2.205, 1.011e-3
-2.206, 1.011e-3
-2.207, 1.011e-3
-2.208, 1.011e-3
-2.209, 1.011e-3
-2.210, 1.011e-3
-2.211, 1.011e-3
-2.212, 1.011e-3
-2.213, 1.011e-3
-2.214, 1.011e-3
-2.215, 1.011e-3
-2.216, 1.011e-3
-2.217, 1.011e-3
-2.218, 1.011e-3
-2.219, 1.011e-3
-2.220, 1.011e-3
-2.221, 1.011e-3
-2.222, 1.011e-3
-2.223, 1.011e-3
-2.224, 1.011e-3
-2.225, 1.011e-3
-2.226, 1.011e-3
-2.227, 1.011e-3
-2.228, 1.011e-3
-2.229, 1.011e-3
-2.230, 1.011e-3
-2.231, 1.011e-3
-2.232, 1.011e-3
-2.233, 1.011e-3
-2.234, 1.011e-3
-2.235, 1.011e-3
-2.236, 1.011e-3
-2.237, 1.011e-3
-2.238, 1.011e-3
-2.239, 1.011e-3
-2.240, 1.011e-3
-2.241, 1.011e-3
-2.242, 1.011e-3
-2.243, 1.011e-3
-2.244, 1.011e-3
-2.245, 1.011e-3
-2.246, 1.011e-3
-2.247, 1.011e-3
-2.248, 1.011e-3
-2.249, 1.011e-3
-2.250, 1.011e-3
-2.251, 1.011e-3
-2.252, 1.011e-3
-2.253, 1.011e-3
-2.254, 1.011e-3
-2.255, 1.011e-3
-2.256, 1.011e-3
-2.257, 1.011e-3
-2.258, 1.011e-3
-2.259, 1.011e-3
-2.260, 1.011e-3
-2.261, 1.011e-3
-2.262, 1.011e-3
-2.263, 1.011e-3
-2.264, 1.011e-3
-2.265, 1.011e-3
-2.266, 1.011e-3
-2.267, 1.011e-3
-2.268, 1.011e-3
-2.269, 1.011e-3
-2.270, 1.011e-3
-2.271, 1.011e-3
-2.272, 1.011e-3
-2.273, 1.011e-3
-2.274, 1.011e-3
-2.275, 1.011e-3
-2.276, 1.011e-3
-2.277, 1.011e-3
-2.278, 1.011e-3
-2.279, 1.011e-3
-2.280, 1.011e-3
-2.281, 1.011e-3
-2.282, 1.011e-3
-2.283, 1.011e-3
-2.284, 1.011e-3
-2.285, 1.011e-3
-2.286, 1.011e-3
-2.287, 1.011e-3
-2.288, 1.011e-3
-2.289, 1.011e-3
-2.290, 1.011e-3
-2.291, 1.011e-3
-2.292, 1.011e-3
-2.293, 1.011e-3
-2.294, 1.011e-3
-2.295, 1.011e-3
-2.296, 1.011e-3
-2.297, 1.011e-3
-2.298, 1.011e-3
-2.299, 1.011e-3
