Aug. 18, 2024   01:48:17
Cyclic Voltammetry
File: c:/users/guazh/data/20240813_batch_94_500/2024-08-15-exp118\exp118-2024-08-18t01_29_07-arkoh\exp118_cv_sr_300mvs_efin_-1800mv.bin
Data Source:  Experiment
Instrument Model:  CHI760E
Header: CV ran at 300 mVs
Note: 

Init E (V) = -1
High E (V) = -1
Low E (V) = -1.8
Final E (V) = -1
Init P/N = N
Scan Rate (V/s) = 0.3
Segment = 3
Sample Interval (V) = 0.001
Quiet Time (sec) = 2
Sensitivity (A/V) = 0.01
Comp R (ohm) = 1.6

Results:

Channel 1:
Segment 1:

Segment 2:
Ep = -1.105V
ip = -4.462e-6A
Ah = -9.442e-7C

Segment 3:

Potential/V, Current/A

-1.000, 3.239e-6
-1.001, 3.239e-6
-1.002, 3.239e-6
-1.003, 3.239e-6
-1.004, 3.239e-6
-1.005, 3.239e-6
-1.006, 3.239e-6
-1.007, 3.239e-6
-1.008, 3.239e-6
-1.009, 3.239e-6
-1.010, 3.239e-6
-1.011, 3.239e-6
-1.012, 3.239e-6
-1.013, 3.239e-6
-1.014, 3.239e-6
-1.015, 3.239e-6
-1.016, 3.239e-6
-1.017, 3.239e-6
-1.018, 3.239e-6
-1.019, 3.239e-6
-1.020, 3.239e-6
-1.021, 6.322e-6
-1.022, 6.322e-6
-1.023, 3.239e-6
-1.024, 6.322e-6
-1.025, 6.322e-6
-1.026, 6.322e-6
-1.027, 6.322e-6
-1.028, 3.239e-6
-1.029, 6.322e-6
-1.030, 3.239e-6
-1.031, 6.322e-6
-1.032, 3.239e-6
-1.033, 6.322e-6
-1.034, 3.239e-6
-1.035, 3.239e-6
-1.036, 6.322e-6
-1.037, 6.322e-6
-1.038, 6.322e-6
-1.039, 6.322e-6
-1.040, 6.322e-6
-1.041, 6.322e-6
-1.042, 6.322e-6
-1.043, 6.322e-6
-1.044, 6.322e-6
-1.045, 6.322e-6
-1.046, 6.322e-6
-1.047, 6.322e-6
-1.048, 3.239e-6
-1.049, 6.322e-6
-1.050, 6.322e-6
-1.051, 6.322e-6
-1.052, 6.322e-6
-1.053, 6.322e-6
-1.054, 6.322e-6
-1.055, 6.322e-6
-1.056, 6.322e-6
-1.057, 6.322e-6
-1.058, 6.322e-6
-1.059, 6.322e-6
-1.060, 6.322e-6
-1.061, 6.322e-6
-1.062, 6.322e-6
-1.063, 6.322e-6
-1.064, 6.322e-6
-1.065, 6.322e-6
-1.066, 6.322e-6
-1.067, 6.322e-6
-1.068, 6.322e-6
-1.069, 6.322e-6
-1.070, 6.322e-6
-1.071, 6.322e-6
-1.072, 6.322e-6
-1.073, 6.322e-6
-1.074, 6.322e-6
-1.075, 6.322e-6
-1.076, 6.322e-6
-1.077, 6.322e-6
-1.078, 6.322e-6
-1.079, 6.322e-6
-1.080, 6.322e-6
-1.081, 6.322e-6
-1.082, 6.322e-6
-1.083, 6.322e-6
-1.084, 6.322e-6
-1.085, 6.322e-6
-1.086, 6.322e-6
-1.087, 6.322e-6
-1.088, 6.322e-6
-1.089, 6.322e-6
-1.090, 6.322e-6
-1.091, 6.322e-6
-1.092, 6.322e-6
-1.093, 6.322e-6
-1.094, 6.322e-6
-1.095, 6.322e-6
-1.096, 6.322e-6
-1.097, 6.322e-6
-1.098, 6.322e-6
-1.099, 6.322e-6
-1.100, 6.322e-6
-1.101, 6.322e-6
-1.102, 6.322e-6
-1.103, 6.322e-6
-1.104, 6.322e-6
-1.105, 6.322e-6
-1.106, 6.322e-6
-1.107, 6.322e-6
-1.108, 6.322e-6
-1.109, 6.322e-6
-1.110, 6.322e-6
-1.111, 6.322e-6
-1.112, 6.322e-6
-1.113, 6.322e-6
-1.114, 6.322e-6
-1.115, 6.322e-6
-1.116, 6.322e-6
-1.117, 6.322e-6
-1.118, 6.322e-6
-1.119, 9.405e-6
-1.120, 6.322e-6
-1.121, 6.322e-6
-1.122, 9.405e-6
-1.123, 6.322e-6
-1.124, 6.322e-6
-1.125, 6.322e-6
-1.126, 6.322e-6
-1.127, 6.322e-6
-1.128, 9.405e-6
-1.129, 6.322e-6
-1.130, 6.322e-6
-1.131, 9.405e-6
-1.132, 9.405e-6
-1.133, 9.405e-6
-1.134, 6.322e-6
-1.135, 6.322e-6
-1.136, 9.405e-6
-1.137, 9.405e-6
-1.138, 9.405e-6
-1.139, 6.322e-6
-1.140, 9.405e-6
-1.141, 9.405e-6
-1.142, 6.322e-6
-1.143, 6.322e-6
-1.144, 9.405e-6
-1.145, 9.405e-6
-1.146, 9.405e-6
-1.147, 9.405e-6
-1.148, 6.322e-6
-1.149, 6.322e-6
-1.150, 6.322e-6
-1.151, 9.405e-6
-1.152, 9.405e-6
-1.153, 9.405e-6
-1.154, 9.405e-6
-1.155, 6.322e-6
-1.156, 9.405e-6
-1.157, 9.405e-6
-1.158, 9.405e-6
-1.159, 9.405e-6
-1.160, 9.405e-6
-1.161, 9.405e-6
-1.162, 9.405e-6
-1.163, 9.405e-6
-1.164, 9.405e-6
-1.165, 9.405e-6
-1.166, 9.405e-6
-1.167, 9.405e-6
-1.168, 9.405e-6
-1.169, 9.405e-6
-1.170, 6.322e-6
-1.171, 9.405e-6
-1.172, 9.405e-6
-1.173, 9.405e-6
-1.174, 9.405e-6
-1.175, 9.405e-6
-1.176, 9.405e-6
-1.177, 9.405e-6
-1.178, 9.405e-6
-1.179, 9.405e-6
-1.180, 9.405e-6
-1.181, 9.405e-6
-1.182, 9.405e-6
-1.183, 9.405e-6
-1.184, 9.405e-6
-1.185, 9.405e-6
-1.186, 9.405e-6
-1.187, 9.405e-6
-1.188, 9.405e-6
-1.189, 9.405e-6
-1.190, 9.405e-6
-1.191, 9.405e-6
-1.192, 9.405e-6
-1.193, 9.405e-6
-1.194, 9.405e-6
-1.195, 9.405e-6
-1.196, 9.405e-6
-1.197, 9.405e-6
-1.198, 9.405e-6
-1.199, 9.405e-6
-1.200, 9.405e-6
-1.201, 9.405e-6
-1.202, 9.405e-6
-1.203, 9.405e-6
-1.204, 9.405e-6
-1.205, 9.405e-6
-1.206, 9.405e-6
-1.207, 9.405e-6
-1.208, 9.405e-6
-1.209, 9.405e-6
-1.210, 9.405e-6
-1.211, 9.405e-6
-1.212, 9.405e-6
-1.213, 9.405e-6
-1.214, 9.405e-6
-1.215, 9.405e-6
-1.216, 9.405e-6
-1.217, 9.405e-6
-1.218, 9.405e-6
-1.219, 9.405e-6
-1.220, 9.405e-6
-1.221, 9.405e-6
-1.222, 9.405e-6
-1.223, 9.405e-6
-1.224, 9.405e-6
-1.225, 9.405e-6
-1.226, 9.405e-6
-1.227, 9.405e-6
-1.228, 9.405e-6
-1.229, 9.405e-6
-1.230, 9.405e-6
-1.231, 1.249e-5
-1.232, 9.405e-6
-1.233, 9.405e-6
-1.234, 9.405e-6
-1.235, 1.249e-5
-1.236, 9.405e-6
-1.237, 9.405e-6
-1.238, 9.405e-6
-1.239, 1.249e-5
-1.240, 1.249e-5
-1.241, 9.405e-6
-1.242, 9.405e-6
-1.243, 1.249e-5
-1.244, 9.405e-6
-1.245, 9.405e-6
-1.246, 1.249e-5
-1.247, 1.249e-5
-1.248, 9.405e-6
-1.249, 1.249e-5
-1.250, 1.249e-5
-1.251, 1.249e-5
-1.252, 1.249e-5
-1.253, 1.249e-5
-1.254, 1.249e-5
-1.255, 1.249e-5
-1.256, 1.249e-5
-1.257, 1.249e-5
-1.258, 1.249e-5
-1.259, 1.249e-5
-1.260, 1.249e-5
-1.261, 1.249e-5
-1.262, 1.249e-5
-1.263, 1.249e-5
-1.264, 1.249e-5
-1.265, 1.249e-5
-1.266, 1.249e-5
-1.267, 1.249e-5
-1.268, 1.249e-5
-1.269, 1.249e-5
-1.270, 1.249e-5
-1.271, 1.249e-5
-1.272, 1.249e-5
-1.273, 1.249e-5
-1.274, 1.249e-5
-1.275, 1.249e-5
-1.276, 1.249e-5
-1.277, 1.249e-5
-1.278, 1.249e-5
-1.279, 1.249e-5
-1.280, 1.249e-5
-1.281, 1.249e-5
-1.282, 1.249e-5
-1.283, 1.249e-5
-1.284, 1.249e-5
-1.285, 1.249e-5
-1.286, 1.249e-5
-1.287, 1.249e-5
-1.288, 1.249e-5
-1.289, 1.249e-5
-1.290, 1.249e-5
-1.291, 1.249e-5
-1.292, 1.249e-5
-1.293, 1.249e-5
-1.294, 1.249e-5
-1.295, 1.249e-5
-1.296, 1.249e-5
-1.297, 1.249e-5
-1.298, 1.249e-5
-1.299, 1.249e-5
-1.300, 1.249e-5
-1.301, 1.249e-5
-1.302, 1.249e-5
-1.303, 1.249e-5
-1.304, 1.249e-5
-1.305, 1.249e-5
-1.306, 1.249e-5
-1.307, 1.249e-5
-1.308, 1.249e-5
-1.309, 1.249e-5
-1.310, 1.249e-5
-1.311, 1.249e-5
-1.312, 1.249e-5
-1.313, 1.249e-5
-1.314, 1.249e-5
-1.315, 1.249e-5
-1.316, 1.249e-5
-1.317, 1.249e-5
-1.318, 1.249e-5
-1.319, 1.249e-5
-1.320, 1.249e-5
-1.321, 1.249e-5
-1.322, 1.249e-5
-1.323, 1.249e-5
-1.324, 1.249e-5
-1.325, 1.249e-5
-1.326, 1.557e-5
-1.327, 1.249e-5
-1.328, 1.249e-5
-1.329, 1.249e-5
-1.330, 1.249e-5
-1.331, 1.249e-5
-1.332, 1.557e-5
-1.333, 1.249e-5
-1.334, 1.249e-5
-1.335, 1.249e-5
-1.336, 1.557e-5
-1.337, 1.249e-5
-1.338, 1.249e-5
-1.339, 1.249e-5
-1.340, 1.249e-5
-1.341, 1.249e-5
-1.342, 1.557e-5
-1.343, 1.557e-5
-1.344, 1.557e-5
-1.345, 1.249e-5
-1.346, 1.557e-5
-1.347, 1.249e-5
-1.348, 1.249e-5
-1.349, 1.557e-5
-1.350, 1.557e-5
-1.351, 1.557e-5
-1.352, 1.557e-5
-1.353, 1.557e-5
-1.354, 1.557e-5
-1.355, 1.557e-5
-1.356, 1.557e-5
-1.357, 1.557e-5
-1.358, 1.557e-5
-1.359, 1.557e-5
-1.360, 1.557e-5
-1.361, 1.557e-5
-1.362, 1.557e-5
-1.363, 1.557e-5
-1.364, 1.557e-5
-1.365, 1.249e-5
-1.366, 1.557e-5
-1.367, 1.557e-5
-1.368, 1.557e-5
-1.369, 1.557e-5
-1.370, 1.557e-5
-1.371, 1.557e-5
-1.372, 1.557e-5
-1.373, 1.557e-5
-1.374, 1.557e-5
-1.375, 1.557e-5
-1.376, 1.557e-5
-1.377, 1.557e-5
-1.378, 1.557e-5
-1.379, 1.557e-5
-1.380, 1.557e-5
-1.381, 1.557e-5
-1.382, 1.557e-5
-1.383, 1.557e-5
-1.384, 1.557e-5
-1.385, 1.557e-5
-1.386, 1.557e-5
-1.387, 1.557e-5
-1.388, 1.557e-5
-1.389, 1.557e-5
-1.390, 1.557e-5
-1.391, 1.557e-5
-1.392, 1.557e-5
-1.393, 1.557e-5
-1.394, 1.557e-5
-1.395, 1.557e-5
-1.396, 1.557e-5
-1.397, 1.557e-5
-1.398, 1.557e-5
-1.399, 1.557e-5
-1.400, 1.557e-5
-1.401, 1.557e-5
-1.402, 1.557e-5
-1.403, 1.557e-5
-1.404, 1.557e-5
-1.405, 1.557e-5
-1.406, 1.557e-5
-1.407, 1.557e-5
-1.408, 1.557e-5
-1.409, 1.557e-5
-1.410, 1.557e-5
-1.411, 1.557e-5
-1.412, 1.557e-5
-1.413, 1.557e-5
-1.414, 1.557e-5
-1.415, 1.557e-5
-1.416, 1.865e-5
-1.417, 1.557e-5
-1.418, 1.557e-5
-1.419, 1.557e-5
-1.420, 1.557e-5
-1.421, 1.557e-5
-1.422, 1.557e-5
-1.423, 1.557e-5
-1.424, 1.557e-5
-1.425, 1.557e-5
-1.426, 1.557e-5
-1.427, 1.557e-5
-1.428, 1.557e-5
-1.429, 1.557e-5
-1.430, 1.557e-5
-1.431, 1.865e-5
-1.432, 1.865e-5
-1.433, 1.865e-5
-1.434, 1.865e-5
-1.435, 1.557e-5
-1.436, 1.557e-5
-1.437, 1.865e-5
-1.438, 1.865e-5
-1.439, 1.865e-5
-1.440, 1.865e-5
-1.441, 1.865e-5
-1.442, 1.557e-5
-1.443, 1.865e-5
-1.444, 1.865e-5
-1.445, 1.865e-5
-1.446, 1.865e-5
-1.447, 1.865e-5
-1.448, 1.865e-5
-1.449, 1.865e-5
-1.450, 1.865e-5
-1.451, 1.865e-5
-1.452, 1.865e-5
-1.453, 1.865e-5
-1.454, 1.865e-5
-1.455, 1.865e-5
-1.456, 1.865e-5
-1.457, 1.865e-5
-1.458, 1.865e-5
-1.459, 1.865e-5
-1.460, 1.865e-5
-1.461, 1.865e-5
-1.462, 1.865e-5
-1.463, 1.865e-5
-1.464, 1.865e-5
-1.465, 1.865e-5
-1.466, 1.865e-5
-1.467, 1.865e-5
-1.468, 1.865e-5
-1.469, 1.865e-5
-1.470, 1.865e-5
-1.471, 1.865e-5
-1.472, 1.865e-5
-1.473, 1.865e-5
-1.474, 1.865e-5
-1.475, 1.865e-5
-1.476, 1.865e-5
-1.477, 1.865e-5
-1.478, 2.174e-5
-1.479, 1.865e-5
-1.480, 2.174e-5
-1.481, 1.865e-5
-1.482, 1.865e-5
-1.483, 1.865e-5
-1.484, 2.174e-5
-1.485, 1.865e-5
-1.486, 2.174e-5
-1.487, 2.174e-5
-1.488, 2.174e-5
-1.489, 2.174e-5
-1.490, 2.174e-5
-1.491, 2.174e-5
-1.492, 2.174e-5
-1.493, 2.174e-5
-1.494, 2.174e-5
-1.495, 2.174e-5
-1.496, 2.174e-5
-1.497, 2.174e-5
-1.498, 2.174e-5
-1.499, 2.174e-5
-1.500, 2.174e-5
-1.501, 2.174e-5
-1.502, 2.174e-5
-1.503, 2.174e-5
-1.504, 2.482e-5
-1.505, 2.174e-5
-1.506, 2.174e-5
-1.507, 2.482e-5
-1.508, 2.482e-5
-1.509, 2.482e-5
-1.510, 2.174e-5
-1.511, 2.482e-5
-1.512, 2.482e-5
-1.513, 2.482e-5
-1.514, 2.482e-5
-1.515, 2.482e-5
-1.516, 2.482e-5
-1.517, 2.482e-5
-1.518, 2.482e-5
-1.519, 2.482e-5
-1.520, 2.482e-5
-1.521, 2.482e-5
-1.522, 2.482e-5
-1.523, 2.482e-5
-1.524, 2.482e-5
-1.525, 2.482e-5
-1.526, 2.482e-5
-1.527, 2.482e-5
-1.528, 2.790e-5
-1.529, 2.790e-5
-1.530, 2.790e-5
-1.531, 2.790e-5
-1.532, 2.790e-5
-1.533, 2.790e-5
-1.534, 2.790e-5
-1.535, 2.790e-5
-1.536, 2.790e-5
-1.537, 2.790e-5
-1.538, 2.790e-5
-1.539, 2.790e-5
-1.540, 2.790e-5
-1.541, 3.099e-5
-1.542, 3.099e-5
-1.543, 3.099e-5
-1.544, 3.099e-5
-1.545, 3.099e-5
-1.546, 3.099e-5
-1.547, 3.099e-5
-1.548, 3.099e-5
-1.549, 3.407e-5
-1.550, 3.407e-5
-1.551, 3.407e-5
-1.552, 3.407e-5
-1.553, 3.407e-5
-1.554, 3.407e-5
-1.555, 3.407e-5
-1.556, 3.407e-5
-1.557, 3.715e-5
-1.558, 3.715e-5
-1.559, 3.715e-5
-1.560, 3.715e-5
-1.561, 3.715e-5
-1.562, 3.715e-5
-1.563, 4.024e-5
-1.564, 4.024e-5
-1.565, 4.024e-5
-1.566, 4.024e-5
-1.567, 4.024e-5
-1.568, 4.332e-5
-1.569, 4.332e-5
-1.570, 4.332e-5
-1.571, 4.332e-5
-1.572, 4.640e-5
-1.573, 4.640e-5
-1.574, 4.640e-5
-1.575, 4.640e-5
-1.576, 4.949e-5
-1.577, 4.949e-5
-1.578, 4.949e-5
-1.579, 4.949e-5
-1.580, 5.257e-5
-1.581, 5.257e-5
-1.582, 5.257e-5
-1.583, 5.565e-5
-1.584, 5.565e-5
-1.585, 5.565e-5
-1.586, 5.873e-5
-1.587, 5.873e-5
-1.588, 6.182e-5
-1.589, 6.182e-5
-1.590, 6.490e-5
-1.591, 6.490e-5
-1.592, 6.490e-5
-1.593, 6.798e-5
-1.594, 6.798e-5
-1.595, 7.107e-5
-1.596, 7.107e-5
-1.597, 7.415e-5
-1.598, 7.415e-5
-1.599, 7.723e-5
-1.600, 8.032e-5
-1.601, 8.340e-5
-1.602, 8.340e-5
-1.603, 8.648e-5
-1.604, 8.648e-5
-1.605, 8.957e-5
-1.606, 9.265e-5
-1.607, 9.265e-5
-1.608, 9.573e-5
-1.609, 9.882e-5
-1.610, 1.019e-4
-1.611, 1.050e-4
-1.612, 1.050e-4
-1.613, 1.111e-4
-1.614, 1.142e-4
-1.615, 1.142e-4
-1.616, 1.173e-4
-1.617, 1.204e-4
-1.618, 1.266e-4
-1.619, 1.266e-4
-1.620, 1.327e-4
-1.621, 1.358e-4
-1.622, 1.389e-4
-1.623, 1.451e-4
-1.624, 1.481e-4
-1.625, 1.512e-4
-1.626, 1.574e-4
-1.627, 1.605e-4
-1.628, 1.666e-4
-1.629, 1.697e-4
-1.630, 1.759e-4
-1.631, 1.821e-4
-1.632, 1.851e-4
-1.633, 1.913e-4
-1.634, 1.944e-4
-1.635, 2.006e-4
-1.636, 2.067e-4
-1.637, 2.129e-4
-1.638, 2.191e-4
-1.639, 2.252e-4
-1.640, 2.345e-4
-1.641, 2.406e-4
-1.642, 2.468e-4
-1.643, 2.530e-4
-1.644, 2.622e-4
-1.645, 2.684e-4
-1.646, 2.776e-4
-1.647, 2.869e-4
-1.648, 2.961e-4
-1.649, 3.054e-4
-1.650, 3.146e-4
-1.651, 3.239e-4
-1.652, 3.331e-4
-1.653, 3.424e-4
-1.654, 3.516e-4
-1.655, 3.640e-4
-1.656, 3.732e-4
-1.657, 3.855e-4
-1.658, 3.979e-4
-1.659, 4.071e-4
-1.660, 4.195e-4
-1.661, 4.318e-4
-1.662, 4.441e-4
-1.663, 4.595e-4
-1.664, 4.719e-4
-1.665, 4.842e-4
-1.666, 4.996e-4
-1.667, 5.150e-4
-1.668, 5.305e-4
-1.669, 5.459e-4
-1.670, 5.613e-4
-1.671, 5.767e-4
-1.672, 5.952e-4
-1.673, 6.106e-4
-1.674, 6.291e-4
-1.675, 6.476e-4
-1.676, 6.661e-4
-1.677, 6.846e-4
-1.678, 7.031e-4
-1.679, 7.247e-4
-1.680, 7.432e-4
-1.681, 7.648e-4
-1.682, 7.863e-4
-1.683, 8.110e-4
-1.684, 8.326e-4
-1.685, 8.542e-4
-1.686, 8.788e-4
-1.687, 9.035e-4
-1.688, 9.282e-4
-1.689, 9.528e-4
-1.690, 9.775e-4
-1.691, 1.005e-3
-1.692, 1.033e-3
-1.693, 1.061e-3
-1.694, 1.088e-3
-1.695, 1.116e-3
-1.696, 1.147e-3
-1.697, 1.175e-3
-1.698, 1.206e-3
-1.699, 1.236e-3
-1.700, 1.267e-3
-1.701, 1.298e-3
-1.702, 1.332e-3
-1.703, 1.369e-3
-1.704, 1.400e-3
-1.705, 1.434e-3
-1.706, 1.471e-3
-1.707, 1.508e-3
-1.708, 1.545e-3
-1.709, 1.582e-3
-1.710, 1.622e-3
-1.711, 1.659e-3
-1.712, 1.699e-3
-1.713, 1.739e-3
-1.714, 1.779e-3
-1.715, 1.822e-3
-1.716, 1.862e-3
-1.717, 1.906e-3
-1.718, 1.949e-3
-1.719, 1.995e-3
-1.720, 2.038e-3
-1.721, 2.084e-3
-1.722, 2.131e-3
-1.723, 2.177e-3
-1.724, 2.223e-3
-1.725, 2.272e-3
-1.726, 2.322e-3
-1.727, 2.371e-3
-1.728, 2.420e-3
-1.729, 2.470e-3
-1.730, 2.522e-3
-1.731, 2.575e-3
-1.732, 2.627e-3
-1.733, 2.679e-3
-1.734, 2.735e-3
-1.735, 2.787e-3
-1.736, 2.843e-3
-1.737, 2.898e-3
-1.738, 2.954e-3
-1.739, 3.012e-3
-1.740, 3.068e-3
-1.741, 3.126e-3
-1.742, 3.185e-3
-1.743, 3.247e-3
-1.744, 3.305e-3
-1.745, 3.367e-3
-1.746, 3.429e-3
-1.747, 3.487e-3
-1.748, 3.552e-3
-1.749, 3.614e-3
-1.750, 3.678e-3
-1.751, 3.740e-3
-1.752, 3.805e-3
-1.753, 3.869e-3
-1.754, 3.937e-3
-1.755, 4.002e-3
-1.756, 4.070e-3
-1.757, 4.138e-3
-1.758, 4.206e-3
-1.759, 4.273e-3
-1.760, 4.341e-3
-1.761, 4.409e-3
-1.762, 4.477e-3
-1.763, 4.548e-3
-1.764, 4.619e-3
-1.765, 4.690e-3
-1.766, 4.760e-3
-1.767, 4.834e-3
-1.768, 4.905e-3
-1.769, 4.979e-3
-1.770, 5.053e-3
-1.771, 5.127e-3
-1.772, 5.201e-3
-1.773, 5.275e-3
-1.774, 5.352e-3
-1.775, 5.426e-3
-1.776, 5.504e-3
-1.777, 5.581e-3
-1.778, 5.658e-3
-1.779, 5.735e-3
-1.780, 5.812e-3
-1.781, 5.889e-3
-1.782, 5.969e-3
-1.783, 6.046e-3
-1.784, 6.126e-3
-1.785, 6.203e-3
-1.786, 6.284e-3
-1.787, 6.364e-3
-1.788, 6.447e-3
-1.789, 6.527e-3
-1.790, 6.607e-3
-1.791, 6.687e-3
-1.792, 6.771e-3
-1.793, 6.854e-3
-1.794, 6.937e-3
-1.795, 7.017e-3
-1.796, 7.101e-3
-1.797, 7.184e-3
-1.798, 7.270e-3
-1.799, 7.353e-3
-1.800, 7.403e-3
-1.799, 7.384e-3
-1.798, 7.363e-3
-1.797, 7.338e-3
-1.796, 7.313e-3
-1.795, 7.279e-3
-1.794, 7.249e-3
-1.793, 7.218e-3
-1.792, 7.181e-3
-1.791, 7.147e-3
-1.790, 7.107e-3
-1.789, 7.070e-3
-1.788, 7.030e-3
-1.787, 6.993e-3
-1.786, 6.949e-3
-1.785, 6.909e-3
-1.784, 6.869e-3
-1.783, 6.826e-3
-1.782, 6.783e-3
-1.781, 6.740e-3
-1.780, 6.694e-3
-1.779, 6.650e-3
-1.778, 6.607e-3
-1.777, 6.561e-3
-1.776, 6.518e-3
-1.775, 6.472e-3
-1.774, 6.425e-3
-1.773, 6.376e-3
-1.772, 6.330e-3
-1.771, 6.284e-3
-1.770, 6.234e-3
-1.769, 6.188e-3
-1.768, 6.139e-3
-1.767, 6.092e-3
-1.766, 6.046e-3
-1.765, 5.997e-3
-1.764, 5.947e-3
-1.763, 5.901e-3
-1.762, 5.852e-3
-1.761, 5.806e-3
-1.760, 5.756e-3
-1.759, 5.707e-3
-1.758, 5.658e-3
-1.757, 5.608e-3
-1.756, 5.559e-3
-1.755, 5.510e-3
-1.754, 5.463e-3
-1.753, 5.414e-3
-1.752, 5.365e-3
-1.751, 5.315e-3
-1.750, 5.269e-3
-1.749, 5.220e-3
-1.748, 5.171e-3
-1.747, 5.124e-3
-1.746, 5.075e-3
-1.745, 5.026e-3
-1.744, 4.976e-3
-1.743, 4.927e-3
-1.742, 4.881e-3
-1.741, 4.831e-3
-1.740, 4.782e-3
-1.739, 4.736e-3
-1.738, 4.686e-3
-1.737, 4.640e-3
-1.736, 4.594e-3
-1.735, 4.545e-3
-1.734, 4.498e-3
-1.733, 4.452e-3
-1.732, 4.403e-3
-1.731, 4.357e-3
-1.730, 4.310e-3
-1.729, 4.264e-3
-1.728, 4.218e-3
-1.727, 4.172e-3
-1.726, 4.125e-3
-1.725, 4.079e-3
-1.724, 4.033e-3
-1.723, 3.990e-3
-1.722, 3.943e-3
-1.721, 3.897e-3
-1.720, 3.851e-3
-1.719, 3.808e-3
-1.718, 3.765e-3
-1.717, 3.718e-3
-1.716, 3.675e-3
-1.715, 3.632e-3
-1.714, 3.586e-3
-1.713, 3.546e-3
-1.712, 3.503e-3
-1.711, 3.459e-3
-1.710, 3.416e-3
-1.709, 3.373e-3
-1.708, 3.330e-3
-1.707, 3.290e-3
-1.706, 3.247e-3
-1.705, 3.207e-3
-1.704, 3.163e-3
-1.703, 3.123e-3
-1.702, 3.083e-3
-1.701, 3.040e-3
-1.700, 3.000e-3
-1.699, 2.960e-3
-1.698, 2.920e-3
-1.697, 2.883e-3
-1.696, 2.843e-3
-1.695, 2.803e-3
-1.694, 2.766e-3
-1.693, 2.729e-3
-1.692, 2.689e-3
-1.691, 2.652e-3
-1.690, 2.615e-3
-1.689, 2.578e-3
-1.688, 2.541e-3
-1.687, 2.504e-3
-1.686, 2.467e-3
-1.685, 2.430e-3
-1.684, 2.396e-3
-1.683, 2.359e-3
-1.682, 2.325e-3
-1.681, 2.288e-3
-1.680, 2.254e-3
-1.679, 2.220e-3
-1.678, 2.186e-3
-1.677, 2.152e-3
-1.676, 2.118e-3
-1.675, 2.087e-3
-1.674, 2.054e-3
-1.673, 2.020e-3
-1.672, 1.992e-3
-1.671, 1.958e-3
-1.670, 1.927e-3
-1.669, 1.896e-3
-1.668, 1.865e-3
-1.667, 1.835e-3
-1.666, 1.804e-3
-1.665, 1.776e-3
-1.664, 1.745e-3
-1.663, 1.714e-3
-1.662, 1.687e-3
-1.661, 1.659e-3
-1.660, 1.628e-3
-1.659, 1.600e-3
-1.658, 1.573e-3
-1.657, 1.545e-3
-1.656, 1.517e-3
-1.655, 1.492e-3
-1.654, 1.465e-3
-1.653, 1.437e-3
-1.652, 1.415e-3
-1.651, 1.388e-3
-1.650, 1.363e-3
-1.649, 1.338e-3
-1.648, 1.314e-3
-1.647, 1.289e-3
-1.646, 1.264e-3
-1.645, 1.243e-3
-1.644, 1.218e-3
-1.643, 1.196e-3
-1.642, 1.175e-3
-1.641, 1.153e-3
-1.640, 1.132e-3
-1.639, 1.107e-3
-1.638, 1.085e-3
-1.637, 1.064e-3
-1.636, 1.045e-3
-1.635, 1.024e-3
-1.634, 1.002e-3
-1.633, 9.837e-4
-1.632, 9.652e-4
-1.631, 9.436e-4
-1.630, 9.251e-4
-1.629, 9.066e-4
-1.628, 8.881e-4
-1.627, 8.696e-4
-1.626, 8.511e-4
-1.625, 8.326e-4
-1.624, 8.172e-4
-1.623, 7.987e-4
-1.622, 7.802e-4
-1.621, 7.648e-4
-1.620, 7.494e-4
-1.619, 7.339e-4
-1.618, 7.154e-4
-1.617, 7.031e-4
-1.616, 6.846e-4
-1.615, 6.723e-4
-1.614, 6.569e-4
-1.613, 6.414e-4
-1.612, 6.291e-4
-1.611, 6.137e-4
-1.610, 6.014e-4
-1.609, 5.859e-4
-1.608, 5.736e-4
-1.607, 5.613e-4
-1.606, 5.489e-4
-1.605, 5.366e-4
-1.604, 5.243e-4
-1.603, 5.120e-4
-1.602, 5.027e-4
-1.601, 4.873e-4
-1.600, 4.780e-4
-1.599, 4.657e-4
-1.598, 4.565e-4
-1.597, 4.441e-4
-1.596, 4.349e-4
-1.595, 4.225e-4
-1.594, 4.133e-4
-1.593, 4.040e-4
-1.592, 3.948e-4
-1.591, 3.855e-4
-1.590, 3.763e-4
-1.589, 3.670e-4
-1.588, 3.578e-4
-1.587, 3.485e-4
-1.586, 3.424e-4
-1.585, 3.331e-4
-1.584, 3.239e-4
-1.583, 3.177e-4
-1.582, 3.085e-4
-1.581, 3.023e-4
-1.580, 2.931e-4
-1.579, 2.869e-4
-1.578, 2.776e-4
-1.577, 2.715e-4
-1.576, 2.653e-4
-1.575, 2.591e-4
-1.574, 2.530e-4
-1.573, 2.468e-4
-1.572, 2.406e-4
-1.571, 2.345e-4
-1.570, 2.283e-4
-1.569, 2.221e-4
-1.568, 2.160e-4
-1.567, 2.129e-4
-1.566, 2.067e-4
-1.565, 2.006e-4
-1.564, 1.975e-4
-1.563, 1.913e-4
-1.562, 1.882e-4
-1.561, 1.821e-4
-1.560, 1.759e-4
-1.559, 1.728e-4
-1.558, 1.666e-4
-1.557, 1.636e-4
-1.556, 1.605e-4
-1.555, 1.543e-4
-1.554, 1.512e-4
-1.553, 1.481e-4
-1.552, 1.451e-4
-1.551, 1.389e-4
-1.550, 1.358e-4
-1.549, 1.327e-4
-1.548, 1.296e-4
-1.547, 1.266e-4
-1.546, 1.235e-4
-1.545, 1.173e-4
-1.544, 1.173e-4
-1.543, 1.142e-4
-1.542, 1.111e-4
-1.541, 1.081e-4
-1.540, 1.050e-4
-1.539, 1.019e-4
-1.538, 9.882e-5
-1.537, 9.573e-5
-1.536, 9.265e-5
-1.535, 8.957e-5
-1.534, 8.957e-5
-1.533, 8.648e-5
-1.532, 8.648e-5
-1.531, 8.340e-5
-1.530, 8.032e-5
-1.529, 7.723e-5
-1.528, 7.723e-5
-1.527, 7.415e-5
-1.526, 7.107e-5
-1.525, 7.107e-5
-1.524, 6.798e-5
-1.523, 6.798e-5
-1.522, 6.490e-5
-1.521, 6.182e-5
-1.520, 6.182e-5
-1.519, 5.873e-5
-1.518, 5.873e-5
-1.517, 5.565e-5
-1.516, 5.565e-5
-1.515, 5.257e-5
-1.514, 5.257e-5
-1.513, 4.949e-5
-1.512, 4.949e-5
-1.511, 4.640e-5
-1.510, 4.640e-5
-1.509, 4.640e-5
-1.508, 4.332e-5
-1.507, 4.332e-5
-1.506, 4.332e-5
-1.505, 4.024e-5
-1.504, 4.024e-5
-1.503, 4.024e-5
-1.502, 4.024e-5
-1.501, 3.715e-5
-1.500, 3.407e-5
-1.499, 3.407e-5
-1.498, 3.407e-5
-1.497, 3.407e-5
-1.496, 3.099e-5
-1.495, 3.099e-5
-1.494, 3.099e-5
-1.493, 3.099e-5
-1.492, 2.790e-5
-1.491, 2.790e-5
-1.490, 2.790e-5
-1.489, 2.790e-5
-1.488, 2.482e-5
-1.487, 2.482e-5
-1.486, 2.482e-5
-1.485, 2.482e-5
-1.484, 2.482e-5
-1.483, 2.174e-5
-1.482, 2.174e-5
-1.481, 2.174e-5
-1.480, 2.174e-5
-1.479, 2.174e-5
-1.478, 1.865e-5
-1.477, 1.865e-5
-1.476, 1.865e-5
-1.475, 1.865e-5
-1.474, 1.865e-5
-1.473, 1.865e-5
-1.472, 1.865e-5
-1.471, 1.557e-5
-1.470, 1.557e-5
-1.469, 1.557e-5
-1.468, 1.557e-5
-1.467, 1.557e-5
-1.466, 1.557e-5
-1.465, 1.249e-5
-1.464, 1.249e-5
-1.463, 1.249e-5
-1.462, 1.249e-5
-1.461, 1.249e-5
-1.460, 1.249e-5
-1.459, 1.249e-5
-1.458, 1.249e-5
-1.457, 1.249e-5
-1.456, 9.405e-6
-1.455, 9.405e-6
-1.454, 9.405e-6
-1.453, 9.405e-6
-1.452, 9.405e-6
-1.451, 9.405e-6
-1.450, 9.405e-6
-1.449, 9.405e-6
-1.448, 9.405e-6
-1.447, 9.405e-6
-1.446, 6.322e-6
-1.445, 6.322e-6
-1.444, 6.322e-6
-1.443, 6.322e-6
-1.442, 6.322e-6
-1.441, 6.322e-6
-1.440, 6.322e-6
-1.439, 6.322e-6
-1.438, 6.322e-6
-1.437, 6.322e-6
-1.436, 6.322e-6
-1.435, 6.322e-6
-1.434, 6.322e-6
-1.433, 6.322e-6
-1.432, 6.322e-6
-1.431, 6.322e-6
-1.430, 6.322e-6
-1.429, 6.322e-6
-1.428, 6.322e-6
-1.427, 6.322e-6
-1.426, 6.322e-6
-1.425, 3.239e-6
-1.424, 6.322e-6
-1.423, 3.239e-6
-1.422, 3.239e-6
-1.421, 3.239e-6
-1.420, 3.239e-6
-1.419, 3.239e-6
-1.418, 3.239e-6
-1.417, 3.239e-6
-1.416, 3.239e-6
-1.415, 3.239e-6
-1.414, 3.239e-6
-1.413, 3.239e-6
-1.412, 3.239e-6
-1.411, 3.239e-6
-1.410, 3.239e-6
-1.409, 3.239e-6
-1.408, 3.239e-6
-1.407, 3.239e-6
-1.406, 3.239e-6
-1.405, 3.239e-6
-1.404, 3.239e-6
-1.403, 3.239e-6
-1.402, 3.239e-6
-1.401, 3.239e-6
-1.400, 3.239e-6
-1.399, 3.239e-6
-1.398, 3.239e-6
-1.397, 3.239e-6
-1.396, 3.239e-6
-1.395, 1.559e-7
-1.394, 3.239e-6
-1.393, 3.239e-6
-1.392, 3.239e-6
-1.391, 3.239e-6
-1.390, 1.559e-7
-1.389, 3.239e-6
-1.388, 1.559e-7
-1.387, 3.239e-6
-1.386, 1.559e-7
-1.385, 3.239e-6
-1.384, 3.239e-6
-1.383, 1.559e-7
-1.382, 1.559e-7
-1.381, 1.559e-7
-1.380, 1.559e-7
-1.379, 1.559e-7
-1.378, 1.559e-7
-1.377, 1.559e-7
-1.376, 1.559e-7
-1.375, 3.239e-6
-1.374, 1.559e-7
-1.373, 1.559e-7
-1.372, 1.559e-7
-1.371, 1.559e-7
-1.370, 1.559e-7
-1.369, 1.559e-7
-1.368, 1.559e-7
-1.367, 1.559e-7
-1.366, 1.559e-7
-1.365, 1.559e-7
-1.364, 1.559e-7
-1.363, 1.559e-7
-1.362, 1.559e-7
-1.361, 1.559e-7
-1.360, 1.559e-7
-1.359, 1.559e-7
-1.358, 1.559e-7
-1.357, 1.559e-7
-1.356, 1.559e-7
-1.355, 1.559e-7
-1.354, 1.559e-7
-1.353, 1.559e-7
-1.352, 1.559e-7
-1.351, 1.559e-7
-1.350, 1.559e-7
-1.349, 1.559e-7
-1.348, 1.559e-7
-1.347, 1.559e-7
-1.346, 1.559e-7
-1.345, 1.559e-7
-1.344, 1.559e-7
-1.343, 1.559e-7
-1.342, 1.559e-7
-1.341, 1.559e-7
-1.340, 1.559e-7
-1.339, 1.559e-7
-1.338, 1.559e-7
-1.337, 1.559e-7
-1.336, 1.559e-7
-1.335, 1.559e-7
-1.334, 1.559e-7
-1.333, 1.559e-7
-1.332, 1.559e-7
-1.331, 1.559e-7
-1.330, 1.559e-7
-1.329, 1.559e-7
-1.328, 1.559e-7
-1.327, 1.559e-7
-1.326, 1.559e-7
-1.325, 1.559e-7
-1.324, 1.559e-7
-1.323, 1.559e-7
-1.322, 1.559e-7
-1.321, 1.559e-7
-1.320, 1.559e-7
-1.319, 1.559e-7
-1.318, 1.559e-7
-1.317, 1.559e-7
-1.316, 1.559e-7
-1.315, 1.559e-7
-1.314, 1.559e-7
-1.313, 1.559e-7
-1.312, 1.559e-7
-1.311, 1.559e-7
-1.310, 1.559e-7
-1.309, 1.559e-7
-1.308, 1.559e-7
-1.307, 1.559e-7
-1.306, 1.559e-7
-1.305, 1.559e-7
-1.304, 1.559e-7
-1.303, 1.559e-7
-1.302, 1.559e-7
-1.301, 1.559e-7
-1.300, 1.559e-7
-1.299, 1.559e-7
-1.298, 1.559e-7
-1.297, 1.559e-7
-1.296, -2.927e-6
-1.295, 1.559e-7
-1.294, 1.559e-7
-1.293, 1.559e-7
-1.292, 1.559e-7
-1.291, -2.927e-6
-1.290, 1.559e-7
-1.289, 1.559e-7
-1.288, 1.559e-7
-1.287, 1.559e-7
-1.286, 1.559e-7
-1.285, 1.559e-7
-1.284, -2.927e-6
-1.283, 1.559e-7
-1.282, 1.559e-7
-1.281, -2.927e-6
-1.280, 1.559e-7
-1.279, 1.559e-7
-1.278, 1.559e-7
-1.277, 1.559e-7
-1.276, 1.559e-7
-1.275, 1.559e-7
-1.274, 1.559e-7
-1.273, 1.559e-7
-1.272, 1.559e-7
-1.271, 1.559e-7
-1.270, 1.559e-7
-1.269, 1.559e-7
-1.268, -2.927e-6
-1.267, 1.559e-7
-1.266, -2.927e-6
-1.265, 1.559e-7
-1.264, -2.927e-6
-1.263, 1.559e-7
-1.262, 1.559e-7
-1.261, -2.927e-6
-1.260, 1.559e-7
-1.259, 1.559e-7
-1.258, 1.559e-7
-1.257, 1.559e-7
-1.256, 1.559e-7
-1.255, -2.927e-6
-1.254, -2.927e-6
-1.253, 1.559e-7
-1.252, 1.559e-7
-1.251, -2.927e-6
-1.250, 1.559e-7
-1.249, 1.559e-7
-1.248, -2.927e-6
-1.247, 1.559e-7
-1.246, 1.559e-7
-1.245, 1.559e-7
-1.244, 1.559e-7
-1.243, -2.927e-6
-1.242, 1.559e-7
-1.241, -2.927e-6
-1.240, 1.559e-7
-1.239, -2.927e-6
-1.238, 1.559e-7
-1.237, 1.559e-7
-1.236, -2.927e-6
-1.235, -2.927e-6
-1.234, -2.927e-6
-1.233, 1.559e-7
-1.232, 1.559e-7
-1.231, 1.559e-7
-1.230, -2.927e-6
-1.229, 1.559e-7
-1.228, -2.927e-6
-1.227, -2.927e-6
-1.226, -2.927e-6
-1.225, -2.927e-6
-1.224, -2.927e-6
-1.223, -2.927e-6
-1.222, 1.559e-7
-1.221, -2.927e-6
-1.220, -2.927e-6
-1.219, -2.927e-6
-1.218, -2.927e-6
-1.217, -2.927e-6
-1.216, -2.927e-6
-1.215, -2.927e-6
-1.214, -2.927e-6
-1.213, -2.927e-6
-1.212, -2.927e-6
-1.211, -2.927e-6
-1.210, -2.927e-6
-1.209, -2.927e-6
-1.208, -2.927e-6
-1.207, -2.927e-6
-1.206, -2.927e-6
-1.205, -2.927e-6
-1.204, -2.927e-6
-1.203, -2.927e-6
-1.202, 1.559e-7
-1.201, -2.927e-6
-1.200, -2.927e-6
-1.199, -2.927e-6
-1.198, -2.927e-6
-1.197, 1.559e-7
-1.196, -2.927e-6
-1.195, -2.927e-6
-1.194, -2.927e-6
-1.193, -2.927e-6
-1.192, -2.927e-6
-1.191, -2.927e-6
-1.190, -2.927e-6
-1.189, -2.927e-6
-1.188, -2.927e-6
-1.187, 1.559e-7
-1.186, -2.927e-6
-1.185, -2.927e-6
-1.184, -2.927e-6
-1.183, -2.927e-6
-1.182, -2.927e-6
-1.181, -2.927e-6
-1.180, -2.927e-6
-1.179, -2.927e-6
-1.178, -2.927e-6
-1.177, -2.927e-6
-1.176, -2.927e-6
-1.175, -2.927e-6
-1.174, -2.927e-6
-1.173, -2.927e-6
-1.172, -2.927e-6
-1.171, -2.927e-6
-1.170, -2.927e-6
-1.169, -2.927e-6
-1.168, -2.927e-6
-1.167, -2.927e-6
-1.166, -2.927e-6
-1.165, -2.927e-6
-1.164, -2.927e-6
-1.163, -2.927e-6
-1.162, -2.927e-6
-1.161, -2.927e-6
-1.160, -2.927e-6
-1.159, -2.927e-6
-1.158, -2.927e-6
-1.157, -2.927e-6
-1.156, -2.927e-6
-1.155, -2.927e-6
-1.154, -2.927e-6
-1.153, -2.927e-6
-1.152, -2.927e-6
-1.151, -2.927e-6
-1.150, -2.927e-6
-1.149, -2.927e-6
-1.148, -2.927e-6
-1.147, -2.927e-6
-1.146, -2.927e-6
-1.145, -2.927e-6
-1.144, -2.927e-6
-1.143, -2.927e-6
-1.142, -2.927e-6
-1.141, -2.927e-6
-1.140, -2.927e-6
-1.139, -2.927e-6
-1.138, -2.927e-6
-1.137, -2.927e-6
-1.136, -2.927e-6
-1.135, -2.927e-6
-1.134, -2.927e-6
-1.133, -2.927e-6
-1.132, -2.927e-6
-1.131, -2.927e-6
-1.130, -2.927e-6
-1.129, -2.927e-6
-1.128, -2.927e-6
-1.127, -2.927e-6
-1.126, -2.927e-6
-1.125, -2.927e-6
-1.124, -2.927e-6
-1.123, -2.927e-6
-1.122, -2.927e-6
-1.121, -2.927e-6
-1.120, -2.927e-6
-1.119, -2.927e-6
-1.118, -2.927e-6
-1.117, -2.927e-6
-1.116, -2.927e-6
-1.115, -2.927e-6
-1.114, -2.927e-6
-1.113, -2.927e-6
-1.112, -2.927e-6
-1.111, -2.927e-6
-1.110, -2.927e-6
-1.109, -2.927e-6
-1.108, -2.927e-6
-1.107, -2.927e-6
-1.106, -2.927e-6
-1.105, -6.010e-6
-1.104, -6.010e-6
-1.103, -2.927e-6
-1.102, -2.927e-6
-1.101, -2.927e-6
-1.100, -2.927e-6
-1.099, -2.927e-6
-1.098, -2.927e-6
-1.097, -2.927e-6
-1.096, -2.927e-6
-1.095, -6.010e-6
-1.094, -2.927e-6
-1.093, -6.010e-6
-1.092, -6.010e-6
-1.091, -6.010e-6
-1.090, -6.010e-6
-1.089, -6.010e-6
-1.088, -6.010e-6
-1.087, -6.010e-6
-1.086, -6.010e-6
-1.085, -6.010e-6
-1.084, -6.010e-6
-1.083, -6.010e-6
-1.082, -6.010e-6
-1.081, -6.010e-6
-1.080, -6.010e-6
-1.079, -6.010e-6
-1.078, -6.010e-6
-1.077, -6.010e-6
-1.076, -6.010e-6
-1.075, -6.010e-6
-1.074, -6.010e-6
-1.073, -6.010e-6
-1.072, -6.010e-6
-1.071, -6.010e-6
-1.070, -6.010e-6
-1.069, -6.010e-6
-1.068, -6.010e-6
-1.067, -6.010e-6
-1.066, -6.010e-6
-1.065, -6.010e-6
-1.064, -6.010e-6
-1.063, -6.010e-6
-1.062, -6.010e-6
-1.061, -6.010e-6
-1.060, -6.010e-6
-1.059, -6.010e-6
-1.058, -6.010e-6
-1.057, -6.010e-6
-1.056, -6.010e-6
-1.055, -6.010e-6
-1.054, -6.010e-6
-1.053, -6.010e-6
-1.052, -6.010e-6
-1.051, -6.010e-6
-1.050, -6.010e-6
-1.049, -6.010e-6
-1.048, -9.093e-6
-1.047, -9.093e-6
-1.046, -9.093e-6
-1.045, -9.093e-6
-1.044, -6.010e-6
-1.043, -9.093e-6
-1.042, -9.093e-6
-1.041, -9.093e-6
-1.040, -9.093e-6
-1.039, -9.093e-6
-1.038, -9.093e-6
-1.037, -9.093e-6
-1.036, -9.093e-6
-1.035, -9.093e-6
-1.034, -9.093e-6
-1.033, -9.093e-6
-1.032, -9.093e-6
-1.031, -9.093e-6
-1.030, -9.093e-6
-1.029, -9.093e-6
-1.028, -9.093e-6
-1.027, -9.093e-6
-1.026, -9.093e-6
-1.025, -9.093e-6
-1.024, -9.093e-6
-1.023, -9.093e-6
-1.022, -9.093e-6
-1.021, -9.093e-6
-1.020, -9.093e-6
-1.019, -9.093e-6
-1.018, -9.093e-6
-1.017, -9.093e-6
-1.016, -9.093e-6
-1.015, -9.093e-6
-1.014, -9.093e-6
-1.013, -9.093e-6
-1.012, -9.093e-6
-1.011, -1.218e-5
-1.010, -9.093e-6
-1.009, -9.093e-6
-1.008, -9.093e-6
-1.007, -1.218e-5
-1.006, -1.218e-5
-1.005, -1.218e-5
-1.004, -1.218e-5
-1.003, -1.218e-5
-1.002, -1.218e-5
-1.001, -1.218e-5
