Aug. 18, 2024   01:34:03
Cyclic Voltammetry
File: c:/users/guazh/data/20240813_batch_94_500/2024-08-15-exp118\exp118-2024-08-18t01_29_07-arkoh\exp118_cv_50mvs_efin_-1400mv.bin
Data Source:  Experiment
Instrument Model:  CHI760E
Header: CV ran at 50 mVs
Note: 

Init E (V) = -1
High E (V) = -1
Low E (V) = -1.4
Final E (V) = -1
Init P/N = N
Scan Rate (V/s) = 0.05
Segment = 7
Sample Interval (V) = 0.001
Quiet Time (sec) = 60
Sensitivity (A/V) = 0.001
Comp R (ohm) = 1.6

Results:

Channel 1:
Segment 1:

Segment 2:

Segment 3:

Segment 4:

Segment 5:

Segment 6:

Segment 7:

Potential/V, Current/A

-1.000, 1.690e-6
-1.001, 1.767e-6
-1.002, 1.827e-6
-1.003, 1.861e-6
-1.004, 1.859e-6
-1.005, 1.909e-6
-1.006, 1.939e-6
-1.007, 1.940e-6
-1.008, 1.968e-6
-1.009, 1.981e-6
-1.010, 1.989e-6
-1.011, 2.018e-6
-1.012, 2.040e-6
-1.013, 2.062e-6
-1.014, 2.079e-6
-1.015, 2.079e-6
-1.016, 2.083e-6
-1.017, 2.131e-6
-1.018, 2.109e-6
-1.019, 2.140e-6
-1.020, 2.163e-6
-1.021, 2.172e-6
-1.022, 2.180e-6
-1.023, 2.189e-6
-1.024, 2.216e-6
-1.025, 2.221e-6
-1.026, 2.236e-6
-1.027, 2.267e-6
-1.028, 2.270e-6
-1.029, 2.255e-6
-1.030, 2.280e-6
-1.031, 2.283e-6
-1.032, 2.308e-6
-1.033, 2.313e-6
-1.034, 2.345e-6
-1.035, 2.351e-6
-1.036, 2.336e-6
-1.037, 2.360e-6
-1.038, 2.392e-6
-1.039, 2.387e-6
-1.040, 2.377e-6
-1.041, 2.420e-6
-1.042, 2.417e-6
-1.043, 2.427e-6
-1.044, 2.474e-6
-1.045, 2.463e-6
-1.046, 2.472e-6
-1.047, 2.498e-6
-1.048, 2.484e-6
-1.049, 2.520e-6
-1.050, 2.517e-6
-1.051, 2.514e-6
-1.052, 2.564e-6
-1.053, 2.550e-6
-1.054, 2.559e-6
-1.055, 2.594e-6
-1.056, 2.606e-6
-1.057, 2.600e-6
-1.058, 2.625e-6
-1.059, 2.629e-6
-1.060, 2.634e-6
-1.061, 2.625e-6
-1.062, 2.674e-6
-1.063, 2.689e-6
-1.064, 2.697e-6
-1.065, 2.696e-6
-1.066, 2.700e-6
-1.067, 2.715e-6
-1.068, 2.731e-6
-1.069, 2.738e-6
-1.070, 2.755e-6
-1.071, 2.763e-6
-1.072, 2.766e-6
-1.073, 2.785e-6
-1.074, 2.792e-6
-1.075, 2.804e-6
-1.076, 2.830e-6
-1.077, 2.850e-6
-1.078, 2.851e-6
-1.079, 2.875e-6
-1.080, 2.880e-6
-1.081, 2.885e-6
-1.082, 2.897e-6
-1.083, 2.910e-6
-1.084, 2.933e-6
-1.085, 2.958e-6
-1.086, 2.953e-6
-1.087, 2.967e-6
-1.088, 2.960e-6
-1.089, 2.993e-6
-1.090, 3.007e-6
-1.091, 2.981e-6
-1.092, 3.039e-6
-1.093, 3.036e-6
-1.094, 3.065e-6
-1.095, 3.052e-6
-1.096, 3.068e-6
-1.097, 3.091e-6
-1.098, 3.099e-6
-1.099, 3.108e-6
-1.100, 3.124e-6
-1.101, 3.111e-6
-1.102, 3.144e-6
-1.103, 3.160e-6
-1.104, 3.186e-6
-1.105, 3.176e-6
-1.106, 3.181e-6
-1.107, 3.202e-6
-1.108, 3.238e-6
-1.109, 3.231e-6
-1.110, 3.223e-6
-1.111, 3.239e-6
-1.112, 3.294e-6
-1.113, 3.281e-6
-1.114, 3.313e-6
-1.115, 3.300e-6
-1.116, 3.303e-6
-1.117, 3.346e-6
-1.118, 3.346e-6
-1.119, 3.347e-6
-1.120, 3.364e-6
-1.121, 3.376e-6
-1.122, 3.394e-6
-1.123, 3.398e-6
-1.124, 3.422e-6
-1.125, 3.418e-6
-1.126, 3.449e-6
-1.127, 3.453e-6
-1.128, 3.469e-6
-1.129, 3.489e-6
-1.130, 3.484e-6
-1.131, 3.495e-6
-1.132, 3.506e-6
-1.133, 3.516e-6
-1.134, 3.537e-6
-1.135, 3.570e-6
-1.136, 3.566e-6
-1.137, 3.583e-6
-1.138, 3.592e-6
-1.139, 3.611e-6
-1.140, 3.622e-6
-1.141, 3.622e-6
-1.142, 3.638e-6
-1.143, 3.659e-6
-1.144, 3.686e-6
-1.145, 3.665e-6
-1.146, 3.668e-6
-1.147, 3.704e-6
-1.148, 3.690e-6
-1.149, 3.701e-6
-1.150, 3.735e-6
-1.151, 3.757e-6
-1.152, 3.771e-6
-1.153, 3.766e-6
-1.154, 3.789e-6
-1.155, 3.804e-6
-1.156, 3.830e-6
-1.157, 3.822e-6
-1.158, 3.845e-6
-1.159, 3.869e-6
-1.160, 3.859e-6
-1.161, 3.866e-6
-1.162, 3.888e-6
-1.163, 3.902e-6
-1.164, 3.911e-6
-1.165, 3.914e-6
-1.166, 3.942e-6
-1.167, 3.936e-6
-1.168, 3.937e-6
-1.169, 3.969e-6
-1.170, 3.970e-6
-1.171, 3.986e-6
-1.172, 4.007e-6
-1.173, 4.000e-6
-1.174, 4.022e-6
-1.175, 4.047e-6
-1.176, 4.047e-6
-1.177, 4.067e-6
-1.178, 4.087e-6
-1.179, 4.093e-6
-1.180, 4.110e-6
-1.181, 4.112e-6
-1.182, 4.102e-6
-1.183, 4.130e-6
-1.184, 4.148e-6
-1.185, 4.140e-6
-1.186, 4.154e-6
-1.187, 4.186e-6
-1.188, 4.181e-6
-1.189, 4.201e-6
-1.190, 4.215e-6
-1.191, 4.228e-6
-1.192, 4.257e-6
-1.193, 4.242e-6
-1.194, 4.278e-6
-1.195, 4.299e-6
-1.196, 4.283e-6
-1.197, 4.303e-6
-1.198, 4.310e-6
-1.199, 4.344e-6
-1.200, 4.346e-6
-1.201, 4.329e-6
-1.202, 4.386e-6
-1.203, 4.377e-6
-1.204, 4.392e-6
-1.205, 4.390e-6
-1.206, 4.407e-6
-1.207, 4.425e-6
-1.208, 4.420e-6
-1.209, 4.436e-6
-1.210, 4.475e-6
-1.211, 4.448e-6
-1.212, 4.477e-6
-1.213, 4.493e-6
-1.214, 4.510e-6
-1.215, 4.510e-6
-1.216, 4.526e-6
-1.217, 4.568e-6
-1.218, 4.551e-6
-1.219, 4.573e-6
-1.220, 4.583e-6
-1.221, 4.601e-6
-1.222, 4.590e-6
-1.223, 4.615e-6
-1.224, 4.643e-6
-1.225, 4.646e-6
-1.226, 4.658e-6
-1.227, 4.667e-6
-1.228, 4.675e-6
-1.229, 4.689e-6
-1.230, 4.711e-6
-1.231, 4.724e-6
-1.232, 4.733e-6
-1.233, 4.744e-6
-1.234, 4.767e-6
-1.235, 4.783e-6
-1.236, 4.797e-6
-1.237, 4.803e-6
-1.238, 4.776e-6
-1.239, 4.815e-6
-1.240, 4.832e-6
-1.241, 4.823e-6
-1.242, 4.874e-6
-1.243, 4.899e-6
-1.244, 4.891e-6
-1.245, 4.891e-6
-1.246, 4.907e-6
-1.247, 4.933e-6
-1.248, 4.950e-6
-1.249, 4.951e-6
-1.250, 4.969e-6
-1.251, 4.990e-6
-1.252, 4.987e-6
-1.253, 4.986e-6
-1.254, 5.009e-6
-1.255, 5.031e-6
-1.256, 5.025e-6
-1.257, 5.059e-6
-1.258, 5.065e-6
-1.259, 5.078e-6
-1.260, 5.079e-6
-1.261, 5.113e-6
-1.262, 5.147e-6
-1.263, 5.125e-6
-1.264, 5.168e-6
-1.265, 5.170e-6
-1.266, 5.166e-6
-1.267, 5.187e-6
-1.268, 5.207e-6
-1.269, 5.216e-6
-1.270, 5.217e-6
-1.271, 5.244e-6
-1.272, 5.259e-6
-1.273, 5.265e-6
-1.274, 5.266e-6
-1.275, 5.287e-6
-1.276, 5.313e-6
-1.277, 5.322e-6
-1.278, 5.335e-6
-1.279, 5.359e-6
-1.280, 5.363e-6
-1.281, 5.374e-6
-1.282, 5.384e-6
-1.283, 5.404e-6
-1.284, 5.425e-6
-1.285, 5.429e-6
-1.286, 5.439e-6
-1.287, 5.476e-6
-1.288, 5.460e-6
-1.289, 5.487e-6
-1.290, 5.506e-6
-1.291, 5.521e-6
-1.292, 5.504e-6
-1.293, 5.550e-6
-1.294, 5.575e-6
-1.295, 5.575e-6
-1.296, 5.577e-6
-1.297, 5.588e-6
-1.298, 5.602e-6
-1.299, 5.624e-6
-1.300, 5.616e-6
-1.301, 5.629e-6
-1.302, 5.663e-6
-1.303, 5.656e-6
-1.304, 5.668e-6
-1.305, 5.698e-6
-1.306, 5.693e-6
-1.307, 5.700e-6
-1.308, 5.726e-6
-1.309, 5.743e-6
-1.310, 5.746e-6
-1.311, 5.763e-6
-1.312, 5.781e-6
-1.313, 5.797e-6
-1.314, 5.792e-6
-1.315, 5.803e-6
-1.316, 5.827e-6
-1.317, 5.827e-6
-1.318, 5.855e-6
-1.319, 5.877e-6
-1.320, 5.905e-6
-1.321, 5.891e-6
-1.322, 5.900e-6
-1.323, 5.903e-6
-1.324, 5.929e-6
-1.325, 5.930e-6
-1.326, 5.920e-6
-1.327, 5.977e-6
-1.328, 5.986e-6
-1.329, 5.984e-6
-1.330, 5.987e-6
-1.331, 6.006e-6
-1.332, 6.046e-6
-1.333, 6.025e-6
-1.334, 6.053e-6
-1.335, 6.072e-6
-1.336, 6.038e-6
-1.337, 6.066e-6
-1.338, 6.111e-6
-1.339, 6.103e-6
-1.340, 6.094e-6
-1.341, 6.100e-6
-1.342, 6.148e-6
-1.343, 6.133e-6
-1.344, 6.143e-6
-1.345, 6.164e-6
-1.346, 6.174e-6
-1.347, 6.190e-6
-1.348, 6.220e-6
-1.349, 6.225e-6
-1.350, 6.214e-6
-1.351, 6.231e-6
-1.352, 6.266e-6
-1.353, 6.250e-6
-1.354, 6.266e-6
-1.355, 6.287e-6
-1.356, 6.277e-6
-1.357, 6.299e-6
-1.358, 6.325e-6
-1.359, 6.345e-6
-1.360, 6.339e-6
-1.361, 6.352e-6
-1.362, 6.378e-6
-1.363, 6.378e-6
-1.364, 6.401e-6
-1.365, 6.394e-6
-1.366, 6.433e-6
-1.367, 6.440e-6
-1.368, 6.417e-6
-1.369, 6.439e-6
-1.370, 6.450e-6
-1.371, 6.469e-6
-1.372, 6.496e-6
-1.373, 6.522e-6
-1.374, 6.520e-6
-1.375, 6.528e-6
-1.376, 6.553e-6
-1.377, 6.556e-6
-1.378, 6.571e-6
-1.379, 6.585e-6
-1.380, 6.594e-6
-1.381, 6.600e-6
-1.382, 6.625e-6
-1.383, 6.644e-6
-1.384, 6.654e-6
-1.385, 6.659e-6
-1.386, 6.671e-6
-1.387, 6.703e-6
-1.388, 6.699e-6
-1.389, 6.727e-6
-1.390, 6.724e-6
-1.391, 6.740e-6
-1.392, 6.744e-6
-1.393, 6.755e-6
-1.394, 6.772e-6
-1.395, 6.773e-6
-1.396, 6.789e-6
-1.397, 6.823e-6
-1.398, 6.819e-6
-1.399, 6.839e-6
-1.400, 6.382e-6
-1.399, 6.023e-6
-1.398, 5.803e-6
-1.397, 5.634e-6
-1.396, 5.528e-6
-1.395, 5.371e-6
-1.394, 5.259e-6
-1.393, 5.168e-6
-1.392, 5.106e-6
-1.391, 5.003e-6
-1.390, 4.927e-6
-1.389, 4.842e-6
-1.388, 4.773e-6
-1.387, 4.735e-6
-1.386, 4.678e-6
-1.385, 4.602e-6
-1.384, 4.553e-6
-1.383, 4.485e-6
-1.382, 4.401e-6
-1.381, 4.393e-6
-1.380, 4.325e-6
-1.379, 4.280e-6
-1.378, 4.232e-6
-1.377, 4.194e-6
-1.376, 4.149e-6
-1.375, 4.081e-6
-1.374, 4.048e-6
-1.373, 4.021e-6
-1.372, 3.987e-6
-1.371, 3.958e-6
-1.370, 3.924e-6
-1.369, 3.864e-6
-1.368, 3.835e-6
-1.367, 3.818e-6
-1.366, 3.776e-6
-1.365, 3.739e-6
-1.364, 3.717e-6
-1.363, 3.685e-6
-1.362, 3.663e-6
-1.361, 3.600e-6
-1.360, 3.598e-6
-1.359, 3.574e-6
-1.358, 3.539e-6
-1.357, 3.531e-6
-1.356, 3.485e-6
-1.355, 3.460e-6
-1.354, 3.437e-6
-1.353, 3.414e-6
-1.352, 3.387e-6
-1.351, 3.375e-6
-1.350, 3.320e-6
-1.349, 3.316e-6
-1.348, 3.291e-6
-1.347, 3.256e-6
-1.346, 3.256e-6
-1.345, 3.219e-6
-1.344, 3.206e-6
-1.343, 3.157e-6
-1.342, 3.142e-6
-1.341, 3.149e-6
-1.340, 3.111e-6
-1.339, 3.085e-6
-1.338, 3.082e-6
-1.337, 3.085e-6
-1.336, 3.047e-6
-1.335, 3.012e-6
-1.334, 2.993e-6
-1.333, 2.982e-6
-1.332, 2.969e-6
-1.331, 2.961e-6
-1.330, 2.932e-6
-1.329, 2.901e-6
-1.328, 2.882e-6
-1.327, 2.889e-6
-1.326, 2.885e-6
-1.325, 2.831e-6
-1.324, 2.830e-6
-1.323, 2.819e-6
-1.322, 2.817e-6
-1.321, 2.811e-6
-1.320, 2.777e-6
-1.319, 2.768e-6
-1.318, 2.743e-6
-1.317, 2.695e-6
-1.316, 2.741e-6
-1.315, 2.685e-6
-1.314, 2.677e-6
-1.313, 2.664e-6
-1.312, 2.666e-6
-1.311, 2.658e-6
-1.310, 2.621e-6
-1.309, 2.614e-6
-1.308, 2.595e-6
-1.307, 2.590e-6
-1.306, 2.579e-6
-1.305, 2.545e-6
-1.304, 2.536e-6
-1.303, 2.537e-6
-1.302, 2.523e-6
-1.301, 2.531e-6
-1.300, 2.519e-6
-1.299, 2.476e-6
-1.298, 2.479e-6
-1.297, 2.466e-6
-1.296, 2.431e-6
-1.295, 2.449e-6
-1.294, 2.421e-6
-1.293, 2.403e-6
-1.292, 2.415e-6
-1.291, 2.385e-6
-1.290, 2.371e-6
-1.289, 2.360e-6
-1.288, 2.357e-6
-1.287, 2.346e-6
-1.286, 2.340e-6
-1.285, 2.332e-6
-1.284, 2.304e-6
-1.283, 2.323e-6
-1.282, 2.292e-6
-1.281, 2.281e-6
-1.280, 2.263e-6
-1.279, 2.236e-6
-1.278, 2.256e-6
-1.277, 2.246e-6
-1.276, 2.230e-6
-1.275, 2.235e-6
-1.274, 2.195e-6
-1.273, 2.210e-6
-1.272, 2.179e-6
-1.271, 2.184e-6
-1.270, 2.170e-6
-1.269, 2.163e-6
-1.268, 2.162e-6
-1.267, 2.131e-6
-1.266, 2.132e-6
-1.265, 2.116e-6
-1.264, 2.114e-6
-1.263, 2.101e-6
-1.262, 2.109e-6
-1.261, 2.098e-6
-1.260, 2.079e-6
-1.259, 2.083e-6
-1.258, 2.090e-6
-1.257, 2.074e-6
-1.256, 2.049e-6
-1.255, 2.045e-6
-1.254, 2.034e-6
-1.253, 2.031e-6
-1.252, 1.998e-6
-1.251, 2.020e-6
-1.250, 2.001e-6
-1.249, 2.009e-6
-1.248, 1.987e-6
-1.247, 1.996e-6
-1.246, 1.975e-6
-1.245, 1.959e-6
-1.244, 1.951e-6
-1.243, 1.960e-6
-1.242, 1.942e-6
-1.241, 1.945e-6
-1.240, 1.924e-6
-1.239, 1.934e-6
-1.238, 1.911e-6
-1.237, 1.903e-6
-1.236, 1.916e-6
-1.235, 1.873e-6
-1.234, 1.876e-6
-1.233, 1.886e-6
-1.232, 1.885e-6
-1.231, 1.888e-6
-1.230, 1.843e-6
-1.229, 1.837e-6
-1.228, 1.839e-6
-1.227, 1.826e-6
-1.226, 1.810e-6
-1.225, 1.795e-6
-1.224, 1.810e-6
-1.223, 1.819e-6
-1.222, 1.777e-6
-1.221, 1.790e-6
-1.220, 1.776e-6
-1.219, 1.761e-6
-1.218, 1.752e-6
-1.217, 1.769e-6
-1.216, 1.751e-6
-1.215, 1.741e-6
-1.214, 1.730e-6
-1.213, 1.743e-6
-1.212, 1.743e-6
-1.211, 1.709e-6
-1.210, 1.707e-6
-1.209, 1.716e-6
-1.208, 1.706e-6
-1.207, 1.693e-6
-1.206, 1.689e-6
-1.205, 1.687e-6
-1.204, 1.670e-6
-1.203, 1.653e-6
-1.202, 1.679e-6
-1.201, 1.660e-6
-1.200, 1.651e-6
-1.199, 1.643e-6
-1.198, 1.646e-6
-1.197, 1.623e-6
-1.196, 1.636e-6
-1.195, 1.617e-6
-1.194, 1.629e-6
-1.193, 1.612e-6
-1.192, 1.607e-6
-1.191, 1.596e-6
-1.190, 1.576e-6
-1.189, 1.590e-6
-1.188, 1.582e-6
-1.187, 1.564e-6
-1.186, 1.553e-6
-1.185, 1.565e-6
-1.184, 1.552e-6
-1.183, 1.529e-6
-1.182, 1.544e-6
-1.181, 1.549e-6
-1.180, 1.528e-6
-1.179, 1.522e-6
-1.178, 1.506e-6
-1.177, 1.505e-6
-1.176, 1.509e-6
-1.175, 1.507e-6
-1.174, 1.485e-6
-1.173, 1.504e-6
-1.172, 1.482e-6
-1.171, 1.483e-6
-1.170, 1.470e-6
-1.169, 1.450e-6
-1.168, 1.448e-6
-1.167, 1.467e-6
-1.166, 1.441e-6
-1.165, 1.428e-6
-1.164, 1.444e-6
-1.163, 1.423e-6
-1.162, 1.418e-6
-1.161, 1.418e-6
-1.160, 1.408e-6
-1.159, 1.397e-6
-1.158, 1.393e-6
-1.157, 1.392e-6
-1.156, 1.386e-6
-1.155, 1.391e-6
-1.154, 1.373e-6
-1.153, 1.381e-6
-1.152, 1.371e-6
-1.151, 1.361e-6
-1.150, 1.355e-6
-1.149, 1.354e-6
-1.148, 1.340e-6
-1.147, 1.326e-6
-1.146, 1.338e-6
-1.145, 1.332e-6
-1.144, 1.313e-6
-1.143, 1.299e-6
-1.142, 1.300e-6
-1.141, 1.303e-6
-1.140, 1.275e-6
-1.139, 1.273e-6
-1.138, 1.306e-6
-1.137, 1.265e-6
-1.136, 1.259e-6
-1.135, 1.273e-6
-1.134, 1.266e-6
-1.133, 1.246e-6
-1.132, 1.248e-6
-1.131, 1.246e-6
-1.130, 1.241e-6
-1.129, 1.233e-6
-1.128, 1.227e-6
-1.127, 1.218e-6
-1.126, 1.214e-6
-1.125, 1.207e-6
-1.124, 1.190e-6
-1.123, 1.198e-6
-1.122, 1.171e-6
-1.121, 1.208e-6
-1.120, 1.185e-6
-1.119, 1.149e-6
-1.118, 1.169e-6
-1.117, 1.174e-6
-1.116, 1.144e-6
-1.115, 1.131e-6
-1.114, 1.128e-6
-1.113, 1.145e-6
-1.112, 1.105e-6
-1.111, 1.136e-6
-1.110, 1.124e-6
-1.109, 1.088e-6
-1.108, 1.103e-6
-1.107, 1.070e-6
-1.106, 1.109e-6
-1.105, 1.075e-6
-1.104, 1.093e-6
-1.103, 1.078e-6
-1.102, 1.063e-6
-1.101, 1.052e-6
-1.100, 1.052e-6
-1.099, 1.040e-6
-1.098, 1.028e-6
-1.097, 1.032e-6
-1.096, 1.053e-6
-1.095, 1.018e-6
-1.094, 1.027e-6
-1.093, 1.013e-6
-1.092, 1.023e-6
-1.091, 1.000e-6
-1.090, 9.884e-7
-1.089, 1.006e-6
-1.088, 9.834e-7
-1.087, 9.686e-7
-1.086, 9.706e-7
-1.085, 9.805e-7
-1.084, 9.568e-7
-1.083, 9.440e-7
-1.082, 9.519e-7
-1.081, 9.272e-7
-1.080, 9.193e-7
-1.079, 9.252e-7
-1.078, 9.233e-7
-1.077, 9.173e-7
-1.076, 9.134e-7
-1.075, 9.065e-7
-1.074, 9.104e-7
-1.073, 8.868e-7
-1.072, 8.759e-7
-1.071, 8.739e-7
-1.070, 8.522e-7
-1.069, 8.641e-7
-1.068, 8.532e-7
-1.067, 8.493e-7
-1.066, 8.424e-7
-1.065, 8.305e-7
-1.064, 8.335e-7
-1.063, 8.236e-7
-1.062, 8.266e-7
-1.061, 8.246e-7
-1.060, 8.177e-7
-1.059, 8.068e-7
-1.058, 7.763e-7
-1.057, 8.068e-7
-1.056, 7.930e-7
-1.055, 7.812e-7
-1.054, 7.634e-7
-1.053, 7.733e-7
-1.052, 7.378e-7
-1.051, 7.397e-7
-1.050, 7.457e-7
-1.049, 7.368e-7
-1.048, 7.082e-7
-1.047, 7.180e-7
-1.046, 7.141e-7
-1.045, 7.102e-7
-1.044, 7.092e-7
-1.043, 6.894e-7
-1.042, 7.072e-7
-1.041, 6.875e-7
-1.040, 6.677e-7
-1.039, 6.855e-7
-1.038, 6.806e-7
-1.037, 6.490e-7
-1.036, 6.480e-7
-1.035, 6.460e-7
-1.034, 6.273e-7
-1.033, 6.125e-7
-1.032, 6.302e-7
-1.031, 6.273e-7
-1.030, 6.095e-7
-1.029, 6.135e-7
-1.028, 6.056e-7
-1.027, 5.799e-7
-1.026, 5.809e-7
-1.025, 5.888e-7
-1.024, 5.740e-7
-1.023, 5.691e-7
-1.022, 5.474e-7
-1.021, 5.622e-7
-1.020, 5.622e-7
-1.019, 5.355e-7
-1.018, 5.217e-7
-1.017, 5.355e-7
-1.016, 5.454e-7
-1.015, 5.316e-7
-1.014, 5.266e-7
-1.013, 5.079e-7
-1.012, 5.207e-7
-1.011, 5.118e-7
-1.010, 5.040e-7
-1.009, 4.892e-7
-1.008, 4.970e-7
-1.007, 4.941e-7
-1.006, 4.813e-7
-1.005, 4.763e-7
-1.004, 4.901e-7
-1.003, 4.724e-7
-1.002, 4.635e-7
-1.001, 4.822e-7
-1.000, 6.707e-7
-1.001, 8.650e-7
-1.002, 9.578e-7
-1.003, 1.032e-6
-1.004, 1.084e-6
-1.005, 1.138e-6
-1.006, 1.170e-6
-1.007, 1.226e-6
-1.008, 1.256e-6
-1.009, 1.289e-6
-1.010, 1.330e-6
-1.011, 1.354e-6
-1.012, 1.369e-6
-1.013, 1.421e-6
-1.014, 1.449e-6
-1.015, 1.457e-6
-1.016, 1.516e-6
-1.017, 1.515e-6
-1.018, 1.550e-6
-1.019, 1.544e-6
-1.020, 1.568e-6
-1.021, 1.599e-6
-1.022, 1.618e-6
-1.023, 1.604e-6
-1.024, 1.657e-6
-1.025, 1.668e-6
-1.026, 1.697e-6
-1.027, 1.681e-6
-1.028, 1.701e-6
-1.029, 1.723e-6
-1.030, 1.741e-6
-1.031, 1.762e-6
-1.032, 1.758e-6
-1.033, 1.786e-6
-1.034, 1.787e-6
-1.035, 1.803e-6
-1.036, 1.826e-6
-1.037, 1.843e-6
-1.038, 1.831e-6
-1.039, 1.851e-6
-1.040, 1.876e-6
-1.041, 1.876e-6
-1.042, 1.876e-6
-1.043, 1.901e-6
-1.044, 1.914e-6
-1.045, 1.916e-6
-1.046, 1.940e-6
-1.047, 1.945e-6
-1.048, 1.955e-6
-1.049, 1.967e-6
-1.050, 1.992e-6
-1.051, 1.987e-6
-1.052, 2.007e-6
-1.053, 2.008e-6
-1.054, 2.037e-6
-1.055, 2.039e-6
-1.056, 2.044e-6
-1.057, 2.050e-6
-1.058, 2.072e-6
-1.059, 2.074e-6
-1.060, 2.083e-6
-1.061, 2.117e-6
-1.062, 2.113e-6
-1.063, 2.131e-6
-1.064, 2.132e-6
-1.065, 2.138e-6
-1.066, 2.139e-6
-1.067, 2.140e-6
-1.068, 2.161e-6
-1.069, 2.175e-6
-1.070, 2.173e-6
-1.071, 2.170e-6
-1.072, 2.215e-6
-1.073, 2.187e-6
-1.074, 2.201e-6
-1.075, 2.258e-6
-1.076, 2.209e-6
-1.077, 2.243e-6
-1.078, 2.261e-6
-1.079, 2.277e-6
-1.080, 2.265e-6
-1.081, 2.277e-6
-1.082, 2.286e-6
-1.083, 2.286e-6
-1.084, 2.314e-6
-1.085, 2.293e-6
-1.086, 2.306e-6
-1.087, 2.325e-6
-1.088, 2.313e-6
-1.089, 2.340e-6
-1.090, 2.343e-6
-1.091, 2.344e-6
-1.092, 2.351e-6
-1.093, 2.370e-6
-1.094, 2.398e-6
-1.095, 2.377e-6
-1.096, 2.409e-6
-1.097, 2.414e-6
-1.098, 2.418e-6
-1.099, 2.437e-6
-1.100, 2.425e-6
-1.101, 2.449e-6
-1.102, 2.437e-6
-1.103, 2.460e-6
-1.104, 2.476e-6
-1.105, 2.456e-6
-1.106, 2.471e-6
-1.107, 2.491e-6
-1.108, 2.498e-6
-1.109, 2.491e-6
-1.110, 2.508e-6
-1.111, 2.526e-6
-1.112, 2.509e-6
-1.113, 2.537e-6
-1.114, 2.554e-6
-1.115, 2.561e-6
-1.116, 2.573e-6
-1.117, 2.559e-6
-1.118, 2.574e-6
-1.119, 2.595e-6
-1.120, 2.569e-6
-1.121, 2.602e-6
-1.122, 2.628e-6
-1.123, 2.603e-6
-1.124, 2.610e-6
-1.125, 2.616e-6
-1.126, 2.621e-6
-1.127, 2.647e-6
-1.128, 2.635e-6
-1.129, 2.660e-6
-1.130, 2.663e-6
-1.131, 2.672e-6
-1.132, 2.702e-6
-1.133, 2.704e-6
-1.134, 2.705e-6
-1.135, 2.696e-6
-1.136, 2.712e-6
-1.137, 2.728e-6
-1.138, 2.725e-6
-1.139, 2.740e-6
-1.140, 2.745e-6
-1.141, 2.746e-6
-1.142, 2.774e-6
-1.143, 2.759e-6
-1.144, 2.750e-6
-1.145, 2.789e-6
-1.146, 2.780e-6
-1.147, 2.801e-6
-1.148, 2.802e-6
-1.149, 2.821e-6
-1.150, 2.819e-6
-1.151, 2.849e-6
-1.152, 2.855e-6
-1.153, 2.861e-6
-1.154, 2.845e-6
-1.155, 2.854e-6
-1.156, 2.885e-6
-1.157, 2.873e-6
-1.158, 2.879e-6
-1.159, 2.905e-6
-1.160, 2.894e-6
-1.161, 2.906e-6
-1.162, 2.917e-6
-1.163, 2.920e-6
-1.164, 2.930e-6
-1.165, 2.938e-6
-1.166, 2.951e-6
-1.167, 2.979e-6
-1.168, 2.958e-6
-1.169, 2.990e-6
-1.170, 2.994e-6
-1.171, 2.994e-6
-1.172, 2.998e-6
-1.173, 2.999e-6
-1.174, 3.024e-6
-1.175, 3.023e-6
-1.176, 3.017e-6
-1.177, 3.023e-6
-1.178, 3.068e-6
-1.179, 3.053e-6
-1.180, 3.088e-6
-1.181, 3.068e-6
-1.182, 3.077e-6
-1.183, 3.098e-6
-1.184, 3.108e-6
-1.185, 3.110e-6
-1.186, 3.114e-6
-1.187, 3.115e-6
-1.188, 3.144e-6
-1.189, 3.153e-6
-1.190, 3.135e-6
-1.191, 3.146e-6
-1.192, 3.194e-6
-1.193, 3.162e-6
-1.194, 3.184e-6
-1.195, 3.194e-6
-1.196, 3.202e-6
-1.197, 3.223e-6
-1.198, 3.209e-6
-1.199, 3.235e-6
-1.200, 3.230e-6
-1.201, 3.244e-6
-1.202, 3.237e-6
-1.203, 3.276e-6
-1.204, 3.277e-6
-1.205, 3.260e-6
-1.206, 3.284e-6
-1.207, 3.303e-6
-1.208, 3.296e-6
-1.209, 3.311e-6
-1.210, 3.313e-6
-1.211, 3.339e-6
-1.212, 3.336e-6
-1.213, 3.352e-6
-1.214, 3.364e-6
-1.215, 3.345e-6
-1.216, 3.357e-6
-1.217, 3.385e-6
-1.218, 3.381e-6
-1.219, 3.398e-6
-1.220, 3.391e-6
-1.221, 3.413e-6
-1.222, 3.418e-6
-1.223, 3.417e-6
-1.224, 3.430e-6
-1.225, 3.443e-6
-1.226, 3.447e-6
-1.227, 3.452e-6
-1.228, 3.478e-6
-1.229, 3.493e-6
-1.230, 3.501e-6
-1.231, 3.518e-6
-1.232, 3.505e-6
-1.233, 3.540e-6
-1.234, 3.540e-6
-1.235, 3.523e-6
-1.236, 3.555e-6
-1.237, 3.557e-6
-1.238, 3.555e-6
-1.239, 3.564e-6
-1.240, 3.584e-6
-1.241, 3.598e-6
-1.242, 3.607e-6
-1.243, 3.612e-6
-1.244, 3.627e-6
-1.245, 3.625e-6
-1.246, 3.643e-6
-1.247, 3.626e-6
-1.248, 3.673e-6
-1.249, 3.677e-6
-1.250, 3.670e-6
-1.251, 3.665e-6
-1.252, 3.688e-6
-1.253, 3.694e-6
-1.254, 3.727e-6
-1.255, 3.721e-6
-1.256, 3.732e-6
-1.257, 3.730e-6
-1.258, 3.768e-6
-1.259, 3.758e-6
-1.260, 3.747e-6
-1.261, 3.790e-6
-1.262, 3.763e-6
-1.263, 3.794e-6
-1.264, 3.808e-6
-1.265, 3.819e-6
-1.266, 3.790e-6
-1.267, 3.834e-6
-1.268, 3.843e-6
-1.269, 3.846e-6
-1.270, 3.849e-6
-1.271, 3.888e-6
-1.272, 3.875e-6
-1.273, 3.897e-6
-1.274, 3.898e-6
-1.275, 3.904e-6
-1.276, 3.907e-6
-1.277, 3.914e-6
-1.278, 3.931e-6
-1.279, 3.950e-6
-1.280, 3.963e-6
-1.281, 3.968e-6
-1.282, 3.985e-6
-1.283, 3.995e-6
-1.284, 4.008e-6
-1.285, 4.008e-6
-1.286, 4.020e-6
-1.287, 4.037e-6
-1.288, 4.048e-6
-1.289, 4.059e-6
-1.290, 4.047e-6
-1.291, 4.066e-6
-1.292, 4.077e-6
-1.293, 4.061e-6
-1.294, 4.103e-6
-1.295, 4.111e-6
-1.296, 4.106e-6
-1.297, 4.139e-6
-1.298, 4.148e-6
-1.299, 4.130e-6
-1.300, 4.153e-6
-1.301, 4.184e-6
-1.302, 4.193e-6
-1.303, 4.204e-6
-1.304, 4.203e-6
-1.305, 4.229e-6
-1.306, 4.249e-6
-1.307, 4.242e-6
-1.308, 4.233e-6
-1.309, 4.288e-6
-1.310, 4.265e-6
-1.311, 4.295e-6
-1.312, 4.287e-6
-1.313, 4.313e-6
-1.314, 4.331e-6
-1.315, 4.325e-6
-1.316, 4.360e-6
-1.317, 4.368e-6
-1.318, 4.391e-6
-1.319, 4.379e-6
-1.320, 4.394e-6
-1.321, 4.415e-6
-1.322, 4.419e-6
-1.323, 4.429e-6
-1.324, 4.461e-6
-1.325, 4.471e-6
-1.326, 4.464e-6
-1.327, 4.499e-6
-1.328, 4.507e-6
-1.329, 4.484e-6
-1.330, 4.515e-6
-1.331, 4.537e-6
-1.332, 4.553e-6
-1.333, 4.575e-6
-1.334, 4.583e-6
-1.335, 4.607e-6
-1.336, 4.617e-6
-1.337, 4.595e-6
-1.338, 4.625e-6
-1.339, 4.647e-6
-1.340, 4.653e-6
-1.341, 4.677e-6
-1.342, 4.677e-6
-1.343, 4.708e-6
-1.344, 4.716e-6
-1.345, 4.736e-6
-1.346, 4.755e-6
-1.347, 4.758e-6
-1.348, 4.763e-6
-1.349, 4.794e-6
-1.350, 4.795e-6
-1.351, 4.798e-6
-1.352, 4.828e-6
-1.353, 4.849e-6
-1.354, 4.875e-6
-1.355, 4.871e-6
-1.356, 4.895e-6
-1.357, 4.915e-6
-1.358, 4.909e-6
-1.359, 4.945e-6
-1.360, 4.940e-6
-1.361, 4.949e-6
-1.362, 4.982e-6
-1.363, 4.993e-6
-1.364, 5.019e-6
-1.365, 5.031e-6
-1.366, 5.064e-6
-1.367, 5.074e-6
-1.368, 5.086e-6
-1.369, 5.081e-6
-1.370, 5.129e-6
-1.371, 5.136e-6
-1.372, 5.138e-6
-1.373, 5.167e-6
-1.374, 5.176e-6
-1.375, 5.176e-6
-1.376, 5.229e-6
-1.377, 5.234e-6
-1.378, 5.242e-6
-1.379, 5.256e-6
-1.380, 5.283e-6
-1.381, 5.293e-6
-1.382, 5.323e-6
-1.383, 5.344e-6
-1.384, 5.364e-6
-1.385, 5.370e-6
-1.386, 5.394e-6
-1.387, 5.418e-6
-1.388, 5.449e-6
-1.389, 5.448e-6
-1.390, 5.473e-6
-1.391, 5.498e-6
-1.392, 5.518e-6
-1.393, 5.532e-6
-1.394, 5.564e-6
-1.395, 5.590e-6
-1.396, 5.594e-6
-1.397, 5.605e-6
-1.398, 5.635e-6
-1.399, 5.641e-6
-1.400, 5.225e-6
-1.399, 4.903e-6
-1.398, 4.717e-6
-1.397, 4.585e-6
-1.396, 4.475e-6
-1.395, 4.389e-6
-1.394, 4.313e-6
-1.393, 4.212e-6
-1.392, 4.174e-6
-1.391, 4.110e-6
-1.390, 4.036e-6
-1.389, 3.981e-6
-1.388, 3.947e-6
-1.387, 3.892e-6
-1.386, 3.833e-6
-1.385, 3.770e-6
-1.384, 3.761e-6
-1.383, 3.713e-6
-1.382, 3.675e-6
-1.381, 3.632e-6
-1.380, 3.599e-6
-1.379, 3.560e-6
-1.378, 3.527e-6
-1.377, 3.492e-6
-1.376, 3.459e-6
-1.375, 3.418e-6
-1.374, 3.398e-6
-1.373, 3.379e-6
-1.372, 3.364e-6
-1.371, 3.312e-6
-1.370, 3.289e-6
-1.369, 3.269e-6
-1.368, 3.231e-6
-1.367, 3.213e-6
-1.366, 3.180e-6
-1.365, 3.170e-6
-1.364, 3.146e-6
-1.363, 3.106e-6
-1.362, 3.085e-6
-1.361, 3.056e-6
-1.360, 3.035e-6
-1.359, 3.018e-6
-1.358, 3.015e-6
-1.357, 2.984e-6
-1.356, 2.954e-6
-1.355, 2.938e-6
-1.354, 2.941e-6
-1.353, 2.904e-6
-1.352, 2.871e-6
-1.351, 2.862e-6
-1.350, 2.847e-6
-1.349, 2.818e-6
-1.348, 2.793e-6
-1.347, 2.797e-6
-1.346, 2.781e-6
-1.345, 2.748e-6
-1.344, 2.734e-6
-1.343, 2.733e-6
-1.342, 2.708e-6
-1.341, 2.648e-6
-1.340, 2.682e-6
-1.339, 2.664e-6
-1.338, 2.632e-6
-1.337, 2.628e-6
-1.336, 2.611e-6
-1.335, 2.597e-6
-1.334, 2.575e-6
-1.333, 2.547e-6
-1.332, 2.556e-6
-1.331, 2.537e-6
-1.330, 2.505e-6
-1.329, 2.509e-6
-1.328, 2.484e-6
-1.327, 2.483e-6
-1.326, 2.452e-6
-1.325, 2.462e-6
-1.324, 2.452e-6
-1.323, 2.419e-6
-1.322, 2.440e-6
-1.321, 2.415e-6
-1.320, 2.403e-6
-1.319, 2.370e-6
-1.318, 2.359e-6
-1.317, 2.364e-6
-1.316, 2.351e-6
-1.315, 2.323e-6
-1.314, 2.329e-6
-1.313, 2.292e-6
-1.312, 2.297e-6
-1.311, 2.274e-6
-1.310, 2.280e-6
-1.309, 2.270e-6
-1.308, 2.241e-6
-1.307, 2.252e-6
-1.306, 2.225e-6
-1.305, 2.199e-6
-1.304, 2.209e-6
-1.303, 2.199e-6
-1.302, 2.197e-6
-1.301, 2.173e-6
-1.300, 2.179e-6
-1.299, 2.164e-6
-1.298, 2.146e-6
-1.297, 2.159e-6
-1.296, 2.125e-6
-1.295, 2.133e-6
-1.294, 2.119e-6
-1.293, 2.118e-6
-1.292, 2.091e-6
-1.291, 2.083e-6
-1.290, 2.092e-6
-1.289, 2.075e-6
-1.288, 2.077e-6
-1.287, 2.051e-6
-1.286, 2.044e-6
-1.285, 2.052e-6
-1.284, 2.027e-6
-1.283, 2.007e-6
-1.282, 2.021e-6
-1.281, 2.002e-6
-1.280, 1.998e-6
-1.279, 1.989e-6
-1.278, 1.979e-6
-1.277, 1.968e-6
-1.276, 1.952e-6
-1.275, 1.972e-6
-1.274, 1.956e-6
-1.273, 1.941e-6
-1.272, 1.951e-6
-1.271, 1.928e-6
-1.270, 1.923e-6
-1.269, 1.917e-6
-1.268, 1.897e-6
-1.267, 1.912e-6
-1.266, 1.884e-6
-1.265, 1.877e-6
-1.264, 1.897e-6
-1.263, 1.870e-6
-1.262, 1.862e-6
-1.261, 1.849e-6
-1.260, 1.835e-6
-1.259, 1.849e-6
-1.258, 1.846e-6
-1.257, 1.813e-6
-1.256, 1.822e-6
-1.255, 1.822e-6
-1.254, 1.807e-6
-1.253, 1.796e-6
-1.252, 1.802e-6
-1.251, 1.790e-6
-1.250, 1.777e-6
-1.249, 1.765e-6
-1.248, 1.773e-6
-1.247, 1.773e-6
-1.246, 1.749e-6
-1.245, 1.759e-6
-1.244, 1.752e-6
-1.243, 1.742e-6
-1.242, 1.716e-6
-1.241, 1.736e-6
-1.240, 1.723e-6
-1.239, 1.722e-6
-1.238, 1.697e-6
-1.237, 1.712e-6
-1.236, 1.691e-6
-1.235, 1.666e-6
-1.234, 1.682e-6
-1.233, 1.685e-6
-1.232, 1.667e-6
-1.231, 1.673e-6
-1.230, 1.651e-6
-1.229, 1.652e-6
-1.228, 1.653e-6
-1.227, 1.637e-6
-1.226, 1.615e-6
-1.225, 1.623e-6
-1.224, 1.612e-6
-1.223, 1.594e-6
-1.222, 1.602e-6
-1.221, 1.599e-6
-1.220, 1.598e-6
-1.219, 1.581e-6
-1.218, 1.581e-6
-1.217, 1.581e-6
-1.216, 1.573e-6
-1.215, 1.563e-6
-1.214, 1.559e-6
-1.213, 1.563e-6
-1.212, 1.556e-6
-1.211, 1.540e-6
-1.210, 1.555e-6
-1.209, 1.532e-6
-1.208, 1.531e-6
-1.207, 1.513e-6
-1.206, 1.502e-6
-1.205, 1.511e-6
-1.204, 1.503e-6
-1.203, 1.486e-6
-1.202, 1.498e-6
-1.201, 1.481e-6
-1.200, 1.473e-6
-1.199, 1.481e-6
-1.198, 1.467e-6
-1.197, 1.452e-6
-1.196, 1.471e-6
-1.195, 1.466e-6
-1.194, 1.452e-6
-1.193, 1.430e-6
-1.192, 1.462e-6
-1.191, 1.455e-6
-1.190, 1.423e-6
-1.189, 1.414e-6
-1.188, 1.425e-6
-1.187, 1.420e-6
-1.186, 1.400e-6
-1.185, 1.418e-6
-1.184, 1.415e-6
-1.183, 1.394e-6
-1.182, 1.381e-6
-1.181, 1.387e-6
-1.180, 1.381e-6
-1.179, 1.362e-6
-1.178, 1.365e-6
-1.177, 1.364e-6
-1.176, 1.345e-6
-1.175, 1.345e-6
-1.174, 1.334e-6
-1.173, 1.356e-6
-1.172, 1.337e-6
-1.171, 1.317e-6
-1.170, 1.318e-6
-1.169, 1.315e-6
-1.168, 1.297e-6
-1.167, 1.341e-6
-1.166, 1.292e-6
-1.165, 1.279e-6
-1.164, 1.295e-6
-1.163, 1.291e-6
-1.162, 1.273e-6
-1.161, 1.264e-6
-1.160, 1.277e-6
-1.159, 1.272e-6
-1.158, 1.272e-6
-1.157, 1.265e-6
-1.156, 1.255e-6
-1.155, 1.243e-6
-1.154, 1.250e-6
-1.153, 1.252e-6
-1.152, 1.238e-6
-1.151, 1.189e-6
-1.150, 1.206e-6
-1.149, 1.208e-6
-1.148, 1.188e-6
-1.147, 1.176e-6
-1.146, 1.189e-6
-1.145, 1.183e-6
-1.144, 1.167e-6
-1.143, 1.174e-6
-1.142, 1.154e-6
-1.141, 1.160e-6
-1.140, 1.153e-6
-1.139, 1.152e-6
-1.138, 1.128e-6
-1.137, 1.144e-6
-1.136, 1.109e-6
-1.135, 1.130e-6
-1.134, 1.123e-6
-1.133, 1.116e-6
-1.132, 1.100e-6
-1.131, 1.102e-6
-1.130, 1.104e-6
-1.129, 1.089e-6
-1.128, 1.091e-6
-1.127, 1.084e-6
-1.126, 1.069e-6
-1.125, 1.061e-6
-1.124, 1.063e-6
-1.123, 1.061e-6
-1.122, 1.050e-6
-1.121, 1.028e-6
-1.120, 1.038e-6
-1.119, 1.026e-6
-1.118, 1.013e-6
-1.117, 1.014e-6
-1.116, 1.008e-6
-1.115, 1.001e-6
-1.114, 1.011e-6
-1.113, 1.004e-6
-1.112, 1.000e-6
-1.111, 9.815e-7
-1.110, 9.795e-7
-1.109, 9.775e-7
-1.108, 9.716e-7
-1.107, 9.775e-7
-1.106, 9.588e-7
-1.105, 9.686e-7
-1.104, 9.519e-7
-1.103, 9.538e-7
-1.102, 9.381e-7
-1.101, 9.331e-7
-1.100, 9.025e-7
-1.099, 9.440e-7
-1.098, 9.094e-7
-1.097, 8.966e-7
-1.096, 9.183e-7
-1.095, 9.035e-7
-1.094, 8.749e-7
-1.093, 8.798e-7
-1.092, 8.798e-7
-1.091, 8.690e-7
-1.090, 8.680e-7
-1.089, 8.542e-7
-1.088, 8.690e-7
-1.087, 8.483e-7
-1.086, 8.315e-7
-1.085, 8.374e-7
-1.084, 8.236e-7
-1.083, 8.068e-7
-1.082, 8.197e-7
-1.081, 8.216e-7
-1.080, 8.147e-7
-1.079, 7.960e-7
-1.078, 8.118e-7
-1.077, 7.930e-7
-1.076, 7.733e-7
-1.075, 7.605e-7
-1.074, 7.743e-7
-1.073, 7.654e-7
-1.072, 7.526e-7
-1.071, 7.526e-7
-1.070, 7.585e-7
-1.069, 7.210e-7
-1.068, 7.319e-7
-1.067, 7.319e-7
-1.066, 7.032e-7
-1.065, 7.131e-7
-1.064, 7.230e-7
-1.063, 7.042e-7
-1.062, 6.648e-7
-1.061, 6.973e-7
-1.060, 6.845e-7
-1.059, 6.638e-7
-1.058, 6.667e-7
-1.057, 6.559e-7
-1.056, 6.697e-7
-1.055, 6.510e-7
-1.054, 6.539e-7
-1.053, 6.401e-7
-1.052, 6.302e-7
-1.051, 6.174e-7
-1.050, 6.421e-7
-1.049, 6.115e-7
-1.048, 5.908e-7
-1.047, 5.937e-7
-1.046, 5.829e-7
-1.045, 5.918e-7
-1.044, 5.868e-7
-1.043, 5.770e-7
-1.042, 5.513e-7
-1.041, 5.681e-7
-1.040, 5.789e-7
-1.039, 5.326e-7
-1.038, 5.395e-7
-1.037, 5.355e-7
-1.036, 5.316e-7
-1.035, 5.227e-7
-1.034, 5.168e-7
-1.033, 5.276e-7
-1.032, 5.099e-7
-1.031, 5.079e-7
-1.030, 5.049e-7
-1.029, 4.862e-7
-1.028, 4.822e-7
-1.027, 4.862e-7
-1.026, 4.714e-7
-1.025, 4.704e-7
-1.024, 4.596e-7
-1.023, 4.517e-7
-1.022, 4.477e-7
-1.021, 4.448e-7
-1.020, 4.487e-7
-1.019, 4.309e-7
-1.018, 4.152e-7
-1.017, 4.309e-7
-1.016, 4.083e-7
-1.015, 4.231e-7
-1.014, 3.984e-7
-1.013, 3.994e-7
-1.012, 4.092e-7
-1.011, 4.013e-7
-1.010, 4.043e-7
-1.009, 3.836e-7
-1.008, 3.717e-7
-1.007, 4.023e-7
-1.006, 3.747e-7
-1.005, 3.708e-7
-1.004, 3.856e-7
-1.003, 3.737e-7
-1.002, 3.737e-7
-1.001, 3.639e-7
-1.000, 5.967e-7
-1.001, 7.644e-7
-1.002, 8.660e-7
-1.003, 9.114e-7
-1.004, 9.825e-7
-1.005, 1.045e-6
-1.006, 1.107e-6
-1.007, 1.145e-6
-1.008, 1.145e-6
-1.009, 1.202e-6
-1.010, 1.249e-6
-1.011, 1.293e-6
-1.012, 1.280e-6
-1.013, 1.332e-6
-1.014, 1.362e-6
-1.015, 1.392e-6
-1.016, 1.386e-6
-1.017, 1.415e-6
-1.018, 1.453e-6
-1.019, 1.461e-6
-1.020, 1.487e-6
-1.021, 1.522e-6
-1.022, 1.503e-6
-1.023, 1.523e-6
-1.024, 1.568e-6
-1.025, 1.598e-6
-1.026, 1.590e-6
-1.027, 1.608e-6
-1.028, 1.635e-6
-1.029, 1.641e-6
-1.030, 1.650e-6
-1.031, 1.670e-6
-1.032, 1.691e-6
-1.033, 1.689e-6
-1.034, 1.715e-6
-1.035, 1.737e-6
-1.036, 1.732e-6
-1.037, 1.753e-6
-1.038, 1.760e-6
-1.039, 1.783e-6
-1.040, 1.781e-6
-1.041, 1.771e-6
-1.042, 1.812e-6
-1.043, 1.813e-6
-1.044, 1.808e-6
-1.045, 1.829e-6
-1.046, 1.853e-6
-1.047, 1.863e-6
-1.048, 1.865e-6
-1.049, 1.876e-6
-1.050, 1.881e-6
-1.051, 1.889e-6
-1.052, 1.924e-6
-1.053, 1.929e-6
-1.054, 1.916e-6
-1.055, 1.952e-6
-1.056, 1.963e-6
-1.057, 1.968e-6
-1.058, 1.981e-6
-1.059, 1.994e-6
-1.060, 1.997e-6
-1.061, 1.991e-6
-1.062, 2.012e-6
-1.063, 2.023e-6
-1.064, 2.017e-6
-1.065, 2.048e-6
-1.066, 2.056e-6
-1.067, 2.061e-6
-1.068, 2.069e-6
-1.069, 2.074e-6
-1.070, 2.092e-6
-1.071, 2.072e-6
-1.072, 2.099e-6
-1.073, 2.110e-6
-1.074, 2.119e-6
-1.075, 2.128e-6
-1.076, 2.140e-6
-1.077, 2.142e-6
-1.078, 2.145e-6
-1.079, 2.156e-6
-1.080, 2.177e-6
-1.081, 2.162e-6
-1.082, 2.175e-6
-1.083, 2.188e-6
-1.084, 2.192e-6
-1.085, 2.204e-6
-1.086, 2.210e-6
-1.087, 2.199e-6
-1.088, 2.226e-6
-1.089, 2.229e-6
-1.090, 2.253e-6
-1.091, 2.253e-6
-1.092, 2.268e-6
-1.093, 2.252e-6
-1.094, 2.262e-6
-1.095, 2.293e-6
-1.096, 2.302e-6
-1.097, 2.302e-6
-1.098, 2.304e-6
-1.099, 2.315e-6
-1.100, 2.306e-6
-1.101, 2.327e-6
-1.102, 2.334e-6
-1.103, 2.349e-6
-1.104, 2.339e-6
-1.105, 2.357e-6
-1.106, 2.369e-6
-1.107, 2.385e-6
-1.108, 2.378e-6
-1.109, 2.399e-6
-1.110, 2.412e-6
-1.111, 2.408e-6
-1.112, 2.401e-6
-1.113, 2.427e-6
-1.114, 2.450e-6
-1.115, 2.442e-6
-1.116, 2.448e-6
-1.117, 2.470e-6
-1.118, 2.461e-6
-1.119, 2.470e-6
-1.120, 2.488e-6
-1.121, 2.497e-6
-1.122, 2.481e-6
-1.123, 2.503e-6
-1.124, 2.520e-6
-1.125, 2.496e-6
-1.126, 2.518e-6
-1.127, 2.548e-6
-1.128, 2.549e-6
-1.129, 2.544e-6
-1.130, 2.567e-6
-1.131, 2.562e-6
-1.132, 2.566e-6
-1.133, 2.567e-6
-1.134, 2.577e-6
-1.135, 2.590e-6
-1.136, 2.592e-6
-1.137, 2.599e-6
-1.138, 2.602e-6
-1.139, 2.612e-6
-1.140, 2.641e-6
-1.141, 2.629e-6
-1.142, 2.642e-6
-1.143, 2.667e-6
-1.144, 2.650e-6
-1.145, 2.657e-6
-1.146, 2.677e-6
-1.147, 2.673e-6
-1.148, 2.673e-6
-1.149, 2.692e-6
-1.150, 2.710e-6
-1.151, 2.712e-6
-1.152, 2.725e-6
-1.153, 2.720e-6
-1.154, 2.749e-6
-1.155, 2.745e-6
-1.156, 2.737e-6
-1.157, 2.762e-6
-1.158, 2.768e-6
-1.159, 2.746e-6
-1.160, 2.792e-6
-1.161, 2.767e-6
-1.162, 2.791e-6
-1.163, 2.804e-6
-1.164, 2.838e-6
-1.165, 2.823e-6
-1.166, 2.843e-6
-1.167, 2.829e-6
-1.168, 2.845e-6
-1.169, 2.860e-6
-1.170, 2.854e-6
-1.171, 2.867e-6
-1.172, 2.879e-6
-1.173, 2.888e-6
-1.174, 2.894e-6
-1.175, 2.905e-6
-1.176, 2.907e-6
-1.177, 2.904e-6
-1.178, 2.927e-6
-1.179, 2.937e-6
-1.180, 2.938e-6
-1.181, 2.937e-6
-1.182, 2.958e-6
-1.183, 2.992e-6
-1.184, 2.969e-6
-1.185, 2.975e-6
-1.186, 2.996e-6
-1.187, 3.002e-6
-1.188, 2.995e-6
-1.189, 3.012e-6
-1.190, 3.025e-6
-1.191, 3.032e-6
-1.192, 3.036e-6
-1.193, 3.042e-6
-1.194, 3.042e-6
-1.195, 3.073e-6
-1.196, 3.063e-6
-1.197, 3.078e-6
-1.198, 3.086e-6
-1.199, 3.092e-6
-1.200, 3.108e-6
-1.201, 3.093e-6
-1.202, 3.118e-6
-1.203, 3.123e-6
-1.204, 3.121e-6
-1.205, 3.152e-6
-1.206, 3.168e-6
-1.207, 3.134e-6
-1.208, 3.176e-6
-1.209, 3.174e-6
-1.210, 3.189e-6
-1.211, 3.194e-6
-1.212, 3.208e-6
-1.213, 3.218e-6
-1.214, 3.214e-6
-1.215, 3.231e-6
-1.216, 3.250e-6
-1.217, 3.250e-6
-1.218, 3.250e-6
-1.219, 3.254e-6
-1.220, 3.278e-6
-1.221, 3.261e-6
-1.222, 3.284e-6
-1.223, 3.279e-6
-1.224, 3.289e-6
-1.225, 3.307e-6
-1.226, 3.293e-6
-1.227, 3.322e-6
-1.228, 3.338e-6
-1.229, 3.353e-6
-1.230, 3.362e-6
-1.231, 3.372e-6
-1.232, 3.380e-6
-1.233, 3.366e-6
-1.234, 3.405e-6
-1.235, 3.383e-6
-1.236, 3.406e-6
-1.237, 3.413e-6
-1.238, 3.433e-6
-1.239, 3.429e-6
-1.240, 3.421e-6
-1.241, 3.445e-6
-1.242, 3.467e-6
-1.243, 3.450e-6
-1.244, 3.473e-6
-1.245, 3.473e-6
-1.246, 3.472e-6
-1.247, 3.511e-6
-1.248, 3.492e-6
-1.249, 3.505e-6
-1.250, 3.523e-6
-1.251, 3.548e-6
-1.252, 3.513e-6
-1.253, 3.524e-6
-1.254, 3.563e-6
-1.255, 3.554e-6
-1.256, 3.570e-6
-1.257, 3.610e-6
-1.258, 3.594e-6
-1.259, 3.585e-6
-1.260, 3.600e-6
-1.261, 3.606e-6
-1.262, 3.626e-6
-1.263, 3.632e-6
-1.264, 3.644e-6
-1.265, 3.645e-6
-1.266, 3.650e-6
-1.267, 3.664e-6
-1.268, 3.670e-6
-1.269, 3.682e-6
-1.270, 3.685e-6
-1.271, 3.697e-6
-1.272, 3.703e-6
-1.273, 3.710e-6
-1.274, 3.709e-6
-1.275, 3.731e-6
-1.276, 3.742e-6
-1.277, 3.783e-6
-1.278, 3.761e-6
-1.279, 3.772e-6
-1.280, 3.800e-6
-1.281, 3.808e-6
-1.282, 3.797e-6
-1.283, 3.817e-6
-1.284, 3.844e-6
-1.285, 3.815e-6
-1.286, 3.848e-6
-1.287, 3.880e-6
-1.288, 3.843e-6
-1.289, 3.867e-6
-1.290, 3.872e-6
-1.291, 3.880e-6
-1.292, 3.907e-6
-1.293, 3.901e-6
-1.294, 3.909e-6
-1.295, 3.911e-6
-1.296, 3.936e-6
-1.297, 3.938e-6
-1.298, 3.952e-6
-1.299, 3.952e-6
-1.300, 3.976e-6
-1.301, 3.985e-6
-1.302, 4.002e-6
-1.303, 3.984e-6
-1.304, 4.035e-6
-1.305, 4.020e-6
-1.306, 4.033e-6
-1.307, 4.058e-6
-1.308, 4.057e-6
-1.309, 4.069e-6
-1.310, 4.080e-6
-1.311, 4.084e-6
-1.312, 4.112e-6
-1.313, 4.113e-6
-1.314, 4.112e-6
-1.315, 4.159e-6
-1.316, 4.144e-6
-1.317, 4.131e-6
-1.318, 4.162e-6
-1.319, 4.172e-6
-1.320, 4.187e-6
-1.321, 4.204e-6
-1.322, 4.199e-6
-1.323, 4.219e-6
-1.324, 4.242e-6
-1.325, 4.237e-6
-1.326, 4.262e-6
-1.327, 4.280e-6
-1.328, 4.272e-6
-1.329, 4.281e-6
-1.330, 4.286e-6
-1.331, 4.324e-6
-1.332, 4.319e-6
-1.333, 4.325e-6
-1.334, 4.348e-6
-1.335, 4.382e-6
-1.336, 4.363e-6
-1.337, 4.383e-6
-1.338, 4.409e-6
-1.339, 4.401e-6
-1.340, 4.416e-6
-1.341, 4.421e-6
-1.342, 4.435e-6
-1.343, 4.427e-6
-1.344, 4.468e-6
-1.345, 4.479e-6
-1.346, 4.484e-6
-1.347, 4.503e-6
-1.348, 4.531e-6
-1.349, 4.523e-6
-1.350, 4.551e-6
-1.351, 4.560e-6
-1.352, 4.566e-6
-1.353, 4.583e-6
-1.354, 4.573e-6
-1.355, 4.628e-6
-1.356, 4.631e-6
-1.357, 4.641e-6
-1.358, 4.651e-6
-1.359, 4.666e-6
-1.360, 4.681e-6
-1.361, 4.700e-6
-1.362, 4.713e-6
-1.363, 4.720e-6
-1.364, 4.733e-6
-1.365, 4.757e-6
-1.366, 4.759e-6
-1.367, 4.789e-6
-1.368, 4.790e-6
-1.369, 4.827e-6
-1.370, 4.836e-6
-1.371, 4.881e-6
-1.372, 4.864e-6
-1.373, 4.872e-6
-1.374, 4.901e-6
-1.375, 4.916e-6
-1.376, 4.916e-6
-1.377, 4.927e-6
-1.378, 4.956e-6
-1.379, 4.974e-6
-1.380, 4.999e-6
-1.381, 4.994e-6
-1.382, 5.028e-6
-1.383, 5.042e-6
-1.384, 5.048e-6
-1.385, 5.074e-6
-1.386, 5.108e-6
-1.387, 5.093e-6
-1.388, 5.109e-6
-1.389, 5.171e-6
-1.390, 5.159e-6
-1.391, 5.171e-6
-1.392, 5.179e-6
-1.393, 5.234e-6
-1.394, 5.226e-6
-1.395, 5.255e-6
-1.396, 5.303e-6
-1.397, 5.285e-6
-1.398, 5.324e-6
-1.399, 5.342e-6
-1.400, 4.919e-6
-1.399, 4.597e-6
-1.398, 4.430e-6
-1.397, 4.287e-6
-1.396, 4.204e-6
-1.395, 4.121e-6
-1.394, 4.000e-6
-1.393, 3.972e-6
-1.392, 3.900e-6
-1.391, 3.820e-6
-1.390, 3.794e-6
-1.389, 3.729e-6
-1.388, 3.701e-6
-1.387, 3.643e-6
-1.386, 3.614e-6
-1.385, 3.557e-6
-1.384, 3.497e-6
-1.383, 3.482e-6
-1.382, 3.432e-6
-1.381, 3.390e-6
-1.380, 3.382e-6
-1.379, 3.318e-6
-1.378, 3.316e-6
-1.377, 3.264e-6
-1.376, 3.246e-6
-1.375, 3.234e-6
-1.374, 3.204e-6
-1.373, 3.158e-6
-1.372, 3.120e-6
-1.371, 3.119e-6
-1.370, 3.102e-6
-1.369, 3.028e-6
-1.368, 3.040e-6
-1.367, 3.030e-6
-1.366, 2.974e-6
-1.365, 2.959e-6
-1.364, 2.959e-6
-1.363, 2.908e-6
-1.362, 2.911e-6
-1.361, 2.892e-6
-1.360, 2.873e-6
-1.359, 2.852e-6
-1.358, 2.820e-6
-1.357, 2.797e-6
-1.356, 2.782e-6
-1.355, 2.769e-6
-1.354, 2.745e-6
-1.353, 2.741e-6
-1.352, 2.713e-6
-1.351, 2.694e-6
-1.350, 2.675e-6
-1.349, 2.647e-6
-1.348, 2.638e-6
-1.347, 2.623e-6
-1.346, 2.623e-6
-1.345, 2.599e-6
-1.344, 2.576e-6
-1.343, 2.565e-6
-1.342, 2.543e-6
-1.341, 2.519e-6
-1.340, 2.549e-6
-1.339, 2.499e-6
-1.338, 2.492e-6
-1.337, 2.472e-6
-1.336, 2.456e-6
-1.335, 2.448e-6
-1.334, 2.420e-6
-1.333, 2.407e-6
-1.332, 2.418e-6
-1.331, 2.395e-6
-1.330, 2.384e-6
-1.329, 2.365e-6
-1.328, 2.349e-6
-1.327, 2.337e-6
-1.326, 2.341e-6
-1.325, 2.310e-6
-1.324, 2.292e-6
-1.323, 2.314e-6
-1.322, 2.281e-6
-1.321, 2.260e-6
-1.320, 2.248e-6
-1.319, 2.254e-6
-1.318, 2.229e-6
-1.317, 2.217e-6
-1.316, 2.209e-6
-1.315, 2.193e-6
-1.314, 2.188e-6
-1.313, 2.183e-6
-1.312, 2.150e-6
-1.311, 2.159e-6
-1.310, 2.131e-6
-1.309, 2.125e-6
-1.308, 2.131e-6
-1.307, 2.107e-6
-1.306, 2.106e-6
-1.305, 2.090e-6
-1.304, 2.069e-6
-1.303, 2.069e-6
-1.302, 2.061e-6
-1.301, 2.048e-6
-1.300, 2.023e-6
-1.299, 2.029e-6
-1.298, 2.011e-6
-1.297, 2.028e-6
-1.296, 1.998e-6
-1.295, 2.001e-6
-1.294, 1.988e-6
-1.293, 1.988e-6
-1.292, 1.969e-6
-1.291, 1.949e-6
-1.290, 1.946e-6
-1.289, 1.949e-6
-1.288, 1.936e-6
-1.287, 1.912e-6
-1.286, 1.931e-6
-1.285, 1.906e-6
-1.284, 1.890e-6
-1.283, 1.910e-6
-1.282, 1.884e-6
-1.281, 1.870e-6
-1.280, 1.865e-6
-1.279, 1.858e-6
-1.278, 1.849e-6
-1.277, 1.856e-6
-1.276, 1.800e-6
-1.275, 1.822e-6
-1.274, 1.836e-6
-1.273, 1.806e-6
-1.272, 1.829e-6
-1.271, 1.803e-6
-1.270, 1.783e-6
-1.269, 1.800e-6
-1.268, 1.784e-6
-1.267, 1.765e-6
-1.266, 1.767e-6
-1.265, 1.762e-6
-1.264, 1.762e-6
-1.263, 1.736e-6
-1.262, 1.753e-6
-1.261, 1.733e-6
-1.260, 1.726e-6
-1.259, 1.722e-6
-1.258, 1.734e-6
-1.257, 1.704e-6
-1.256, 1.693e-6
-1.255, 1.685e-6
-1.254, 1.678e-6
-1.253, 1.702e-6
-1.252, 1.662e-6
-1.251, 1.676e-6
-1.250, 1.665e-6
-1.249, 1.638e-6
-1.248, 1.662e-6
-1.247, 1.650e-6
-1.246, 1.633e-6
-1.245, 1.644e-6
-1.244, 1.627e-6
-1.243, 1.613e-6
-1.242, 1.616e-6
-1.241, 1.621e-6
-1.240, 1.607e-6
-1.239, 1.598e-6
-1.238, 1.579e-6
-1.237, 1.586e-6
-1.236, 1.596e-6
-1.235, 1.568e-6
-1.234, 1.566e-6
-1.233, 1.561e-6
-1.232, 1.543e-6
-1.231, 1.572e-6
-1.230, 1.558e-6
-1.229, 1.532e-6
-1.228, 1.519e-6
-1.227, 1.525e-6
-1.226, 1.519e-6
-1.225, 1.519e-6
-1.224, 1.514e-6
-1.223, 1.493e-6
-1.222, 1.494e-6
-1.221, 1.510e-6
-1.220, 1.495e-6
-1.219, 1.498e-6
-1.218, 1.494e-6
-1.217, 1.483e-6
-1.216, 1.462e-6
-1.215, 1.469e-6
-1.214, 1.437e-6
-1.213, 1.456e-6
-1.212, 1.437e-6
-1.211, 1.433e-6
-1.210, 1.457e-6
-1.209, 1.448e-6
-1.208, 1.416e-6
-1.207, 1.422e-6
-1.206, 1.409e-6
-1.205, 1.435e-6
-1.204, 1.413e-6
-1.203, 1.389e-6
-1.202, 1.385e-6
-1.201, 1.415e-6
-1.200, 1.393e-6
-1.199, 1.379e-6
-1.198, 1.385e-6
-1.197, 1.359e-6
-1.196, 1.374e-6
-1.195, 1.355e-6
-1.194, 1.368e-6
-1.193, 1.358e-6
-1.192, 1.350e-6
-1.191, 1.354e-6
-1.190, 1.339e-6
-1.189, 1.338e-6
-1.188, 1.347e-6
-1.187, 1.308e-6
-1.186, 1.334e-6
-1.185, 1.315e-6
-1.184, 1.296e-6
-1.183, 1.314e-6
-1.182, 1.311e-6
-1.181, 1.299e-6
-1.180, 1.305e-6
-1.179, 1.296e-6
-1.178, 1.290e-6
-1.177, 1.262e-6
-1.176, 1.279e-6
-1.175, 1.273e-6
-1.174, 1.244e-6
-1.173, 1.261e-6
-1.172, 1.267e-6
-1.171, 1.252e-6
-1.170, 1.230e-6
-1.169, 1.238e-6
-1.168, 1.237e-6
-1.167, 1.207e-6
-1.166, 1.218e-6
-1.165, 1.214e-6
-1.164, 1.202e-6
-1.163, 1.191e-6
-1.162, 1.212e-6
-1.161, 1.193e-6
-1.160, 1.196e-6
-1.159, 1.181e-6
-1.158, 1.177e-6
-1.157, 1.162e-6
-1.156, 1.192e-6
-1.155, 1.186e-6
-1.154, 1.154e-6
-1.153, 1.157e-6
-1.152, 1.144e-6
-1.151, 1.138e-6
-1.150, 1.132e-6
-1.149, 1.151e-6
-1.148, 1.125e-6
-1.147, 1.110e-6
-1.146, 1.106e-6
-1.145, 1.108e-6
-1.144, 1.096e-6
-1.143, 1.091e-6
-1.142, 1.107e-6
-1.141, 1.092e-6
-1.140, 1.070e-6
-1.139, 1.095e-6
-1.138, 1.064e-6
-1.137, 1.062e-6
-1.136, 1.060e-6
-1.135, 1.074e-6
-1.134, 1.056e-6
-1.133, 1.061e-6
-1.132, 1.065e-6
-1.131, 1.048e-6
-1.130, 1.029e-6
-1.129, 1.028e-6
-1.128, 1.023e-6
-1.127, 1.001e-6
-1.126, 9.923e-7
-1.125, 1.027e-6
-1.124, 9.963e-7
-1.123, 9.844e-7
-1.122, 9.825e-7
-1.121, 9.746e-7
-1.120, 9.755e-7
-1.119, 9.834e-7
-1.118, 9.627e-7
-1.117, 9.607e-7
-1.116, 9.529e-7
-1.115, 9.578e-7
-1.114, 9.558e-7
-1.113, 9.292e-7
-1.112, 9.302e-7
-1.111, 9.262e-7
-1.110, 9.203e-7
-1.109, 9.321e-7
-1.108, 9.144e-7
-1.107, 8.808e-7
-1.106, 9.114e-7
-1.105, 8.917e-7
-1.104, 8.828e-7
-1.103, 8.798e-7
-1.102, 8.650e-7
-1.101, 8.601e-7
-1.100, 8.572e-7
-1.099, 8.631e-7
-1.098, 8.414e-7
-1.097, 8.305e-7
-1.096, 8.325e-7
-1.095, 8.226e-7
-1.094, 8.305e-7
-1.093, 8.108e-7
-1.092, 8.068e-7
-1.091, 8.276e-7
-1.090, 8.098e-7
-1.089, 7.881e-7
-1.088, 7.782e-7
-1.087, 7.832e-7
-1.086, 7.713e-7
-1.085, 7.664e-7
-1.084, 7.851e-7
-1.083, 7.693e-7
-1.082, 7.397e-7
-1.081, 7.585e-7
-1.080, 7.279e-7
-1.079, 7.141e-7
-1.078, 7.121e-7
-1.077, 7.190e-7
-1.076, 7.082e-7
-1.075, 6.934e-7
-1.074, 6.983e-7
-1.073, 6.786e-7
-1.072, 6.875e-7
-1.071, 6.746e-7
-1.070, 6.845e-7
-1.069, 6.894e-7
-1.068, 6.569e-7
-1.067, 6.450e-7
-1.066, 6.500e-7
-1.065, 6.332e-7
-1.064, 6.440e-7
-1.063, 6.302e-7
-1.062, 6.095e-7
-1.061, 6.006e-7
-1.060, 6.075e-7
-1.059, 6.174e-7
-1.058, 5.691e-7
-1.057, 5.819e-7
-1.056, 5.809e-7
-1.055, 5.533e-7
-1.054, 5.849e-7
-1.053, 5.503e-7
-1.052, 5.454e-7
-1.051, 5.543e-7
-1.050, 5.385e-7
-1.049, 5.355e-7
-1.048, 5.385e-7
-1.047, 5.069e-7
-1.046, 5.237e-7
-1.045, 5.138e-7
-1.044, 5.178e-7
-1.043, 4.882e-7
-1.042, 4.892e-7
-1.041, 4.744e-7
-1.040, 4.803e-7
-1.039, 4.773e-7
-1.038, 4.605e-7
-1.037, 4.477e-7
-1.036, 4.724e-7
-1.035, 4.408e-7
-1.034, 4.546e-7
-1.033, 4.408e-7
-1.032, 4.418e-7
-1.031, 4.122e-7
-1.030, 4.250e-7
-1.029, 4.211e-7
-1.028, 4.043e-7
-1.027, 3.944e-7
-1.026, 3.994e-7
-1.025, 3.846e-7
-1.024, 3.836e-7
-1.023, 3.648e-7
-1.022, 3.589e-7
-1.021, 3.560e-7
-1.020, 3.619e-7
-1.019, 3.481e-7
-1.018, 3.520e-7
-1.017, 3.362e-7
-1.016, 3.451e-7
-1.015, 3.422e-7
-1.014, 3.382e-7
-1.013, 3.027e-7
-1.012, 3.165e-7
-1.011, 3.254e-7
-1.010, 3.106e-7
-1.009, 3.224e-7
-1.008, 2.958e-7
-1.007, 3.027e-7
-1.006, 2.968e-7
-1.005, 2.997e-7
-1.004, 3.027e-7
-1.003, 2.918e-7
-1.002, 2.968e-7
-1.001, 2.879e-7
