Mar. 8, 2025   02:13:48
Cyclic Voltammetry
File: c:/users/guazh/data/banditlqround7_x0exp169_r20_3/2025-03-03-exp904\exp904-2025-03-08t02_08_52-arkoh\exp904_cv_50mvs_efin_-1400mv.bin
Data Source:  Experiment
Instrument Model:  CHI760E
Header: CV ran at 50 mVs
Note: 

Init E (V) = -1
High E (V) = -1
Low E (V) = -1.4
Final E (V) = -1
Init P/N = N
Scan Rate (V/s) = 0.05
Segment = 7
Sample Interval (V) = 0.001
Quiet Time (sec) = 60
Sensitivity (A/V) = 0.001
Comp R (ohm) = 1.3

Results:

Channel 1:
Segment 1:

Segment 2:

Segment 3:

Segment 4:

Segment 5:

Segment 6:

Segment 7:

Potential/V, Current/A

-1.000, 8.118e-7
-1.001, 9.529e-7
-1.002, 1.042e-6
-1.003, 1.094e-6
-1.004, 1.087e-6
-1.005, 1.138e-6
-1.006, 1.170e-6
-1.007, 1.203e-6
-1.008, 1.224e-6
-1.009, 1.230e-6
-1.010, 1.266e-6
-1.011, 1.300e-6
-1.012, 1.347e-6
-1.013, 1.365e-6
-1.014, 1.381e-6
-1.015, 1.397e-6
-1.016, 1.453e-6
-1.017, 1.483e-6
-1.018, 1.521e-6
-1.019, 1.482e-6
-1.020, 1.512e-6
-1.021, 1.573e-6
-1.022, 1.594e-6
-1.023, 1.599e-6
-1.024, 1.607e-6
-1.025, 1.623e-6
-1.026, 1.679e-6
-1.027, 1.729e-6
-1.028, 1.742e-6
-1.029, 1.737e-6
-1.030, 1.764e-6
-1.031, 1.814e-6
-1.032, 1.833e-6
-1.033, 1.852e-6
-1.034, 1.862e-6
-1.035, 1.881e-6
-1.036, 1.949e-6
-1.037, 1.983e-6
-1.038, 1.991e-6
-1.039, 2.015e-6
-1.040, 2.030e-6
-1.041, 2.071e-6
-1.042, 2.121e-6
-1.043, 2.152e-6
-1.044, 2.181e-6
-1.045, 2.171e-6
-1.046, 2.221e-6
-1.047, 2.292e-6
-1.048, 2.297e-6
-1.049, 2.308e-6
-1.050, 2.356e-6
-1.051, 2.401e-6
-1.052, 2.441e-6
-1.053, 2.443e-6
-1.054, 2.461e-6
-1.055, 2.509e-6
-1.056, 2.567e-6
-1.057, 2.604e-6
-1.058, 2.639e-6
-1.059, 2.661e-6
-1.060, 2.716e-6
-1.061, 2.751e-6
-1.062, 2.834e-6
-1.063, 2.857e-6
-1.064, 2.872e-6
-1.065, 2.891e-6
-1.066, 2.974e-6
-1.067, 3.039e-6
-1.068, 3.029e-6
-1.069, 3.091e-6
-1.070, 3.126e-6
-1.071, 3.195e-6
-1.072, 3.250e-6
-1.073, 3.278e-6
-1.074, 3.336e-6
-1.075, 3.385e-6
-1.076, 3.461e-6
-1.077, 3.540e-6
-1.078, 3.575e-6
-1.079, 3.607e-6
-1.080, 3.642e-6
-1.081, 3.743e-6
-1.082, 3.803e-6
-1.083, 3.854e-6
-1.084, 3.898e-6
-1.085, 3.943e-6
-1.086, 4.018e-6
-1.087, 4.077e-6
-1.088, 4.155e-6
-1.089, 4.205e-6
-1.090, 4.257e-6
-1.091, 4.354e-6
-1.092, 4.447e-6
-1.093, 4.482e-6
-1.094, 4.545e-6
-1.095, 4.637e-6
-1.096, 4.717e-6
-1.097, 4.813e-6
-1.098, 4.887e-6
-1.099, 4.934e-6
-1.100, 5.039e-6
-1.101, 5.141e-6
-1.102, 5.223e-6
-1.103, 5.300e-6
-1.104, 5.349e-6
-1.105, 5.451e-6
-1.106, 5.564e-6
-1.107, 5.668e-6
-1.108, 5.741e-6
-1.109, 5.818e-6
-1.110, 5.909e-6
-1.111, 6.041e-6
-1.112, 6.158e-6
-1.113, 6.227e-6
-1.114, 6.325e-6
-1.115, 6.423e-6
-1.116, 6.519e-6
-1.117, 6.688e-6
-1.118, 6.769e-6
-1.119, 6.860e-6
-1.120, 6.980e-6
-1.121, 7.064e-6
-1.122, 7.241e-6
-1.123, 7.382e-6
-1.124, 7.455e-6
-1.125, 7.592e-6
-1.126, 7.717e-6
-1.127, 7.878e-6
-1.128, 7.998e-6
-1.129, 8.072e-6
-1.130, 8.239e-6
-1.131, 8.379e-6
-1.132, 8.516e-6
-1.133, 8.643e-6
-1.134, 8.779e-6
-1.135, 8.925e-6
-1.136, 9.106e-6
-1.137, 9.253e-6
-1.138, 9.385e-6
-1.139, 9.557e-6
-1.140, 9.687e-6
-1.141, 9.849e-6
-1.142, 1.001e-5
-1.143, 1.016e-5
-1.144, 1.033e-5
-1.145, 1.046e-5
-1.146, 1.068e-5
-1.147, 1.085e-5
-1.148, 1.103e-5
-1.149, 1.119e-5
-1.150, 1.135e-5
-1.151, 1.154e-5
-1.152, 1.176e-5
-1.153, 1.196e-5
-1.154, 1.210e-5
-1.155, 1.230e-5
-1.156, 1.250e-5
-1.157, 1.271e-5
-1.158, 1.289e-5
-1.159, 1.310e-5
-1.160, 1.329e-5
-1.161, 1.352e-5
-1.162, 1.372e-5
-1.163, 1.392e-5
-1.164, 1.411e-5
-1.165, 1.435e-5
-1.166, 1.458e-5
-1.167, 1.481e-5
-1.168, 1.501e-5
-1.169, 1.521e-5
-1.170, 1.545e-5
-1.171, 1.567e-5
-1.172, 1.591e-5
-1.173, 1.617e-5
-1.174, 1.638e-5
-1.175, 1.657e-5
-1.176, 1.685e-5
-1.177, 1.710e-5
-1.178, 1.736e-5
-1.179, 1.756e-5
-1.180, 1.779e-5
-1.181, 1.807e-5
-1.182, 1.830e-5
-1.183, 1.857e-5
-1.184, 1.878e-5
-1.185, 1.903e-5
-1.186, 1.927e-5
-1.187, 1.955e-5
-1.188, 1.977e-5
-1.189, 2.003e-5
-1.190, 2.027e-5
-1.191, 2.056e-5
-1.192, 2.081e-5
-1.193, 2.104e-5
-1.194, 2.128e-5
-1.195, 2.149e-5
-1.196, 2.177e-5
-1.197, 2.202e-5
-1.198, 2.226e-5
-1.199, 2.249e-5
-1.200, 2.271e-5
-1.201, 2.298e-5
-1.202, 2.324e-5
-1.203, 2.346e-5
-1.204, 2.371e-5
-1.205, 2.389e-5
-1.206, 2.416e-5
-1.207, 2.440e-5
-1.208, 2.464e-5
-1.209, 2.486e-5
-1.210, 2.505e-5
-1.211, 2.528e-5
-1.212, 2.556e-5
-1.213, 2.576e-5
-1.214, 2.596e-5
-1.215, 2.623e-5
-1.216, 2.641e-5
-1.217, 2.669e-5
-1.218, 2.687e-5
-1.219, 2.709e-5
-1.220, 2.730e-5
-1.221, 2.751e-5
-1.222, 2.777e-5
-1.223, 2.797e-5
-1.224, 2.820e-5
-1.225, 2.840e-5
-1.226, 2.862e-5
-1.227, 2.885e-5
-1.228, 2.908e-5
-1.229, 2.931e-5
-1.230, 2.950e-5
-1.231, 2.974e-5
-1.232, 2.996e-5
-1.233, 3.016e-5
-1.234, 3.036e-5
-1.235, 3.054e-5
-1.236, 3.077e-5
-1.237, 3.105e-5
-1.238, 3.124e-5
-1.239, 3.144e-5
-1.240, 3.162e-5
-1.241, 3.187e-5
-1.242, 3.212e-5
-1.243, 3.228e-5
-1.244, 3.251e-5
-1.245, 3.273e-5
-1.246, 3.294e-5
-1.247, 3.317e-5
-1.248, 3.336e-5
-1.249, 3.358e-5
-1.250, 3.380e-5
-1.251, 3.403e-5
-1.252, 3.424e-5
-1.253, 3.448e-5
-1.254, 3.469e-5
-1.255, 3.487e-5
-1.256, 3.509e-5
-1.257, 3.535e-5
-1.258, 3.558e-5
-1.259, 3.580e-5
-1.260, 3.597e-5
-1.261, 3.622e-5
-1.262, 3.647e-5
-1.263, 3.671e-5
-1.264, 3.690e-5
-1.265, 3.713e-5
-1.266, 3.738e-5
-1.267, 3.764e-5
-1.268, 3.788e-5
-1.269, 3.808e-5
-1.270, 3.831e-5
-1.271, 3.856e-5
-1.272, 3.883e-5
-1.273, 3.906e-5
-1.274, 3.932e-5
-1.275, 3.954e-5
-1.276, 3.979e-5
-1.277, 4.008e-5
-1.278, 4.031e-5
-1.279, 4.058e-5
-1.280, 4.084e-5
-1.281, 4.116e-5
-1.282, 4.145e-5
-1.283, 4.170e-5
-1.284, 4.198e-5
-1.285, 4.223e-5
-1.286, 4.254e-5
-1.287, 4.287e-5
-1.288, 4.315e-5
-1.289, 4.345e-5
-1.290, 4.373e-5
-1.291, 4.406e-5
-1.292, 4.443e-5
-1.293, 4.473e-5
-1.294, 4.505e-5
-1.295, 4.538e-5
-1.296, 4.572e-5
-1.297, 4.609e-5
-1.298, 4.646e-5
-1.299, 4.681e-5
-1.300, 4.716e-5
-1.301, 4.753e-5
-1.302, 4.797e-5
-1.303, 4.835e-5
-1.304, 4.868e-5
-1.305, 4.911e-5
-1.306, 4.956e-5
-1.307, 4.999e-5
-1.308, 5.042e-5
-1.309, 5.082e-5
-1.310, 5.128e-5
-1.311, 5.174e-5
-1.312, 5.224e-5
-1.313, 5.274e-5
-1.314, 5.320e-5
-1.315, 5.377e-5
-1.316, 5.427e-5
-1.317, 5.483e-5
-1.318, 5.535e-5
-1.319, 5.588e-5
-1.320, 5.641e-5
-1.321, 5.699e-5
-1.322, 5.759e-5
-1.323, 5.820e-5
-1.324, 5.878e-5
-1.325, 5.944e-5
-1.326, 6.004e-5
-1.327, 6.075e-5
-1.328, 6.139e-5
-1.329, 6.209e-5
-1.330, 6.277e-5
-1.331, 6.350e-5
-1.332, 6.429e-5
-1.333, 6.502e-5
-1.334, 6.575e-5
-1.335, 6.655e-5
-1.336, 6.739e-5
-1.337, 6.824e-5
-1.338, 6.913e-5
-1.339, 6.997e-5
-1.340, 7.085e-5
-1.341, 7.183e-5
-1.342, 7.279e-5
-1.343, 7.377e-5
-1.344, 7.476e-5
-1.345, 7.577e-5
-1.346, 7.686e-5
-1.347, 7.796e-5
-1.348, 7.911e-5
-1.349, 8.023e-5
-1.350, 8.140e-5
-1.351, 8.265e-5
-1.352, 8.390e-5
-1.353, 8.518e-5
-1.354, 8.650e-5
-1.355, 8.781e-5
-1.356, 8.922e-5
-1.357, 9.066e-5
-1.358, 9.212e-5
-1.359, 9.360e-5
-1.360, 9.513e-5
-1.361, 9.671e-5
-1.362, 9.833e-5
-1.363, 1.000e-4
-1.364, 1.017e-4
-1.365, 1.035e-4
-1.366, 1.053e-4
-1.367, 1.071e-4
-1.368, 1.090e-4
-1.369, 1.109e-4
-1.370, 1.129e-4
-1.371, 1.149e-4
-1.372, 1.171e-4
-1.373, 1.192e-4
-1.374, 1.214e-4
-1.375, 1.236e-4
-1.376, 1.259e-4
-1.377, 1.283e-4
-1.378, 1.308e-4
-1.379, 1.333e-4
-1.380, 1.358e-4
-1.381, 1.385e-4
-1.382, 1.412e-4
-1.383, 1.440e-4
-1.384, 1.469e-4
-1.385, 1.498e-4
-1.386, 1.528e-4
-1.387, 1.559e-4
-1.388, 1.590e-4
-1.389, 1.622e-4
-1.390, 1.655e-4
-1.391, 1.689e-4
-1.392, 1.723e-4
-1.393, 1.759e-4
-1.394, 1.795e-4
-1.395, 1.832e-4
-1.396, 1.870e-4
-1.397, 1.909e-4
-1.398, 1.949e-4
-1.399, 1.990e-4
-1.400, 1.985e-4
-1.399, 1.940e-4
-1.398, 1.897e-4
-1.397, 1.856e-4
-1.396, 1.814e-4
-1.395, 1.774e-4
-1.394, 1.735e-4
-1.393, 1.696e-4
-1.392, 1.658e-4
-1.391, 1.621e-4
-1.390, 1.584e-4
-1.389, 1.549e-4
-1.388, 1.515e-4
-1.387, 1.484e-4
-1.386, 1.449e-4
-1.385, 1.414e-4
-1.384, 1.382e-4
-1.383, 1.351e-4
-1.382, 1.323e-4
-1.381, 1.292e-4
-1.380, 1.261e-4
-1.379, 1.232e-4
-1.378, 1.203e-4
-1.377, 1.176e-4
-1.376, 1.149e-4
-1.375, 1.122e-4
-1.374, 1.096e-4
-1.373, 1.071e-4
-1.372, 1.046e-4
-1.371, 1.021e-4
-1.370, 9.976e-5
-1.369, 9.743e-5
-1.368, 9.520e-5
-1.367, 9.296e-5
-1.366, 9.076e-5
-1.365, 8.863e-5
-1.364, 8.656e-5
-1.363, 8.456e-5
-1.362, 8.259e-5
-1.361, 8.058e-5
-1.360, 7.867e-5
-1.359, 7.682e-5
-1.358, 7.504e-5
-1.357, 7.325e-5
-1.356, 7.151e-5
-1.355, 6.985e-5
-1.354, 6.849e-5
-1.353, 6.679e-5
-1.352, 6.515e-5
-1.351, 6.358e-5
-1.350, 6.202e-5
-1.349, 6.056e-5
-1.348, 5.916e-5
-1.347, 5.774e-5
-1.346, 5.637e-5
-1.345, 5.500e-5
-1.344, 5.372e-5
-1.343, 5.248e-5
-1.342, 5.123e-5
-1.341, 5.000e-5
-1.340, 4.876e-5
-1.339, 4.765e-5
-1.338, 4.655e-5
-1.337, 4.545e-5
-1.336, 4.436e-5
-1.335, 4.329e-5
-1.334, 4.227e-5
-1.333, 4.129e-5
-1.332, 4.032e-5
-1.331, 3.926e-5
-1.330, 3.842e-5
-1.329, 3.750e-5
-1.328, 3.661e-5
-1.327, 3.578e-5
-1.326, 3.488e-5
-1.325, 3.407e-5
-1.324, 3.329e-5
-1.323, 3.250e-5
-1.322, 3.176e-5
-1.321, 3.098e-5
-1.320, 3.025e-5
-1.319, 2.951e-5
-1.318, 2.883e-5
-1.317, 2.819e-5
-1.316, 2.750e-5
-1.315, 2.685e-5
-1.314, 2.621e-5
-1.313, 2.561e-5
-1.312, 2.503e-5
-1.311, 2.444e-5
-1.310, 2.383e-5
-1.309, 2.331e-5
-1.308, 2.276e-5
-1.307, 2.222e-5
-1.306, 2.168e-5
-1.305, 2.116e-5
-1.304, 2.065e-5
-1.303, 2.023e-5
-1.302, 1.977e-5
-1.301, 1.925e-5
-1.300, 1.881e-5
-1.299, 1.840e-5
-1.298, 1.799e-5
-1.297, 1.754e-5
-1.296, 1.709e-5
-1.295, 1.672e-5
-1.294, 1.633e-5
-1.293, 1.599e-5
-1.292, 1.559e-5
-1.291, 1.525e-5
-1.290, 1.488e-5
-1.289, 1.451e-5
-1.288, 1.419e-5
-1.287, 1.387e-5
-1.286, 1.351e-5
-1.285, 1.321e-5
-1.284, 1.292e-5
-1.283, 1.264e-5
-1.282, 1.235e-5
-1.281, 1.204e-5
-1.280, 1.174e-5
-1.279, 1.146e-5
-1.278, 1.126e-5
-1.277, 1.098e-5
-1.276, 1.071e-5
-1.275, 1.042e-5
-1.274, 1.023e-5
-1.273, 9.990e-6
-1.272, 9.796e-6
-1.271, 9.500e-6
-1.270, 9.271e-6
-1.269, 9.083e-6
-1.268, 8.898e-6
-1.267, 8.662e-6
-1.266, 8.447e-6
-1.265, 8.273e-6
-1.264, 8.060e-6
-1.263, 7.904e-6
-1.262, 7.725e-6
-1.261, 7.508e-6
-1.260, 7.337e-6
-1.259, 7.165e-6
-1.258, 7.000e-6
-1.257, 6.865e-6
-1.256, 6.686e-6
-1.255, 6.512e-6
-1.254, 6.346e-6
-1.253, 6.253e-6
-1.252, 6.095e-6
-1.251, 5.946e-6
-1.250, 5.763e-6
-1.249, 5.659e-6
-1.248, 5.542e-6
-1.247, 5.408e-6
-1.246, 5.227e-6
-1.245, 5.113e-6
-1.244, 5.012e-6
-1.243, 4.896e-6
-1.242, 4.802e-6
-1.241, 4.655e-6
-1.240, 4.539e-6
-1.239, 4.446e-6
-1.238, 4.313e-6
-1.237, 4.270e-6
-1.236, 4.128e-6
-1.235, 3.990e-6
-1.234, 3.930e-6
-1.233, 3.840e-6
-1.232, 3.741e-6
-1.231, 3.649e-6
-1.230, 3.499e-6
-1.229, 3.437e-6
-1.228, 3.388e-6
-1.227, 3.264e-6
-1.226, 3.182e-6
-1.225, 3.079e-6
-1.224, 3.015e-6
-1.223, 2.952e-6
-1.222, 2.903e-6
-1.221, 2.742e-6
-1.220, 2.694e-6
-1.219, 2.643e-6
-1.218, 2.597e-6
-1.217, 2.524e-6
-1.216, 2.426e-6
-1.215, 2.356e-6
-1.214, 2.293e-6
-1.213, 2.264e-6
-1.212, 2.222e-6
-1.211, 2.107e-6
-1.210, 2.034e-6
-1.209, 1.986e-6
-1.208, 1.973e-6
-1.207, 1.917e-6
-1.206, 1.810e-6
-1.205, 1.777e-6
-1.204, 1.727e-6
-1.203, 1.641e-6
-1.202, 1.630e-6
-1.201, 1.545e-6
-1.200, 1.501e-6
-1.199, 1.435e-6
-1.198, 1.399e-6
-1.197, 1.347e-6
-1.196, 1.299e-6
-1.195, 1.245e-6
-1.194, 1.221e-6
-1.193, 1.209e-6
-1.192, 1.132e-6
-1.191, 1.059e-6
-1.190, 1.009e-6
-1.189, 9.992e-7
-1.188, 9.588e-7
-1.187, 9.252e-7
-1.186, 8.808e-7
-1.185, 8.078e-7
-1.184, 7.861e-7
-1.183, 7.772e-7
-1.182, 7.565e-7
-1.181, 6.539e-7
-1.180, 6.490e-7
-1.179, 6.135e-7
-1.178, 5.750e-7
-1.177, 5.701e-7
-1.176, 5.099e-7
-1.175, 4.477e-7
-1.174, 4.349e-7
-1.173, 4.270e-7
-1.172, 3.856e-7
-1.171, 3.254e-7
-1.170, 2.869e-7
-1.169, 2.405e-7
-1.168, 2.751e-7
-1.167, 2.583e-7
-1.166, 1.823e-7
-1.165, 1.241e-7
-1.164, 1.231e-7
-1.163, 1.123e-7
-1.162, 1.212e-7
-1.161, 1.460e-8
-1.160, 3.137e-8
-1.159, -3.769e-8
-1.158, -2.388e-8
-1.157, -3.670e-8
-1.156, -1.166e-7
-1.155, -1.245e-7
-1.154, -1.590e-7
-1.153, -1.373e-7
-1.152, -1.679e-7
-1.151, -2.370e-7
-1.150, -2.380e-7
-1.149, -2.538e-7
-1.148, -2.824e-7
-1.147, -3.120e-7
-1.146, -3.337e-7
-1.145, -4.116e-7
-1.144, -3.731e-7
-1.143, -3.879e-7
-1.142, -4.136e-7
-1.141, -4.807e-7
-1.140, -4.915e-7
-1.139, -5.083e-7
-1.138, -5.162e-7
-1.137, -4.935e-7
-1.136, -5.497e-7
-1.135, -6.109e-7
-1.134, -6.109e-7
-1.133, -6.070e-7
-1.132, -5.961e-7
-1.131, -6.681e-7
-1.130, -6.859e-7
-1.129, -6.879e-7
-1.128, -6.800e-7
-1.127, -7.125e-7
-1.126, -7.806e-7
-1.125, -7.776e-7
-1.124, -7.944e-7
-1.123, -8.003e-7
-1.122, -8.013e-7
-1.121, -8.842e-7
-1.120, -8.911e-7
-1.119, -9.079e-7
-1.118, -8.714e-7
-1.117, -9.108e-7
-1.116, -9.582e-7
-1.115, -9.809e-7
-1.114, -9.740e-7
-1.113, -9.937e-7
-1.112, -9.957e-7
-1.111, -1.017e-6
-1.110, -1.047e-6
-1.109, -1.074e-6
-1.108, -1.042e-6
-1.107, -1.082e-6
-1.106, -1.130e-6
-1.105, -1.154e-6
-1.104, -1.141e-6
-1.103, -1.133e-6
-1.102, -1.145e-6
-1.101, -1.204e-6
-1.100, -1.226e-6
-1.099, -1.247e-6
-1.098, -1.221e-6
-1.097, -1.239e-6
-1.096, -1.291e-6
-1.095, -1.298e-6
-1.094, -1.303e-6
-1.093, -1.318e-6
-1.092, -1.306e-6
-1.091, -1.372e-6
-1.090, -1.384e-6
-1.089, -1.385e-6
-1.088, -1.376e-6
-1.087, -1.425e-6
-1.086, -1.423e-6
-1.085, -1.488e-6
-1.084, -1.452e-6
-1.083, -1.477e-6
-1.082, -1.466e-6
-1.081, -1.534e-6
-1.080, -1.532e-6
-1.079, -1.551e-6
-1.078, -1.518e-6
-1.077, -1.512e-6
-1.076, -1.623e-6
-1.075, -1.621e-6
-1.074, -1.624e-6
-1.073, -1.633e-6
-1.072, -1.634e-6
-1.071, -1.697e-6
-1.070, -1.693e-6
-1.069, -1.703e-6
-1.068, -1.709e-6
-1.067, -1.722e-6
-1.066, -1.736e-6
-1.065, -1.781e-6
-1.064, -1.771e-6
-1.063, -1.775e-6
-1.062, -1.807e-6
-1.061, -1.808e-6
-1.060, -1.847e-6
-1.059, -1.884e-6
-1.058, -1.861e-6
-1.057, -1.853e-6
-1.056, -1.929e-6
-1.055, -1.927e-6
-1.054, -1.912e-6
-1.053, -1.929e-6
-1.052, -1.927e-6
-1.051, -1.987e-6
-1.050, -2.007e-6
-1.049, -2.003e-6
-1.048, -2.007e-6
-1.047, -2.005e-6
-1.046, -2.039e-6
-1.045, -2.063e-6
-1.044, -2.093e-6
-1.043, -2.087e-6
-1.042, -2.072e-6
-1.041, -2.129e-6
-1.040, -2.154e-6
-1.039, -2.154e-6
-1.038, -2.162e-6
-1.037, -2.165e-6
-1.036, -2.194e-6
-1.035, -2.211e-6
-1.034, -2.239e-6
-1.033, -2.220e-6
-1.032, -2.266e-6
-1.031, -2.266e-6
-1.030, -2.323e-6
-1.029, -2.327e-6
-1.028, -2.318e-6
-1.027, -2.310e-6
-1.026, -2.359e-6
-1.025, -2.407e-6
-1.024, -2.435e-6
-1.023, -2.416e-6
-1.022, -2.397e-6
-1.021, -2.418e-6
-1.020, -2.461e-6
-1.019, -2.495e-6
-1.018, -2.476e-6
-1.017, -2.509e-6
-1.016, -2.510e-6
-1.015, -2.566e-6
-1.014, -2.556e-6
-1.013, -2.544e-6
-1.012, -2.527e-6
-1.011, -2.617e-6
-1.010, -2.670e-6
-1.009, -2.629e-6
-1.008, -2.631e-6
-1.007, -2.622e-6
-1.006, -2.675e-6
-1.005, -2.709e-6
-1.004, -2.740e-6
-1.003, -2.719e-6
-1.002, -2.723e-6
-1.001, -2.771e-6
-1.000, -1.603e-6
-1.001, -1.152e-6
-1.002, -9.286e-7
-1.003, -7.993e-7
-1.004, -6.425e-7
-1.005, -5.971e-7
-1.006, -5.053e-7
-1.007, -3.396e-7
-1.008, -3.060e-7
-1.009, -2.478e-7
-1.010, -1.709e-7
-1.011, -1.363e-7
-1.012, -3.867e-8
-1.013, 5.900e-8
-1.014, 5.604e-8
-1.015, 1.271e-7
-1.016, 1.567e-7
-1.017, 2.336e-7
-1.018, 3.204e-7
-1.019, 2.859e-7
-1.020, 3.481e-7
-1.021, 3.796e-7
-1.022, 4.576e-7
-1.023, 5.118e-7
-1.024, 5.375e-7
-1.025, 5.207e-7
-1.026, 5.858e-7
-1.027, 6.529e-7
-1.028, 6.766e-7
-1.029, 6.835e-7
-1.030, 6.993e-7
-1.031, 7.654e-7
-1.032, 7.871e-7
-1.033, 8.167e-7
-1.034, 8.285e-7
-1.035, 8.562e-7
-1.036, 8.789e-7
-1.037, 9.509e-7
-1.038, 9.568e-7
-1.039, 9.677e-7
-1.040, 9.953e-7
-1.041, 1.006e-6
-1.042, 1.056e-6
-1.043, 1.093e-6
-1.044, 1.088e-6
-1.045, 1.073e-6
-1.046, 1.120e-6
-1.047, 1.181e-6
-1.048, 1.221e-6
-1.049, 1.206e-6
-1.050, 1.226e-6
-1.051, 1.203e-6
-1.052, 1.278e-6
-1.053, 1.317e-6
-1.054, 1.323e-6
-1.055, 1.302e-6
-1.056, 1.346e-6
-1.057, 1.377e-6
-1.058, 1.399e-6
-1.059, 1.387e-6
-1.060, 1.418e-6
-1.061, 1.459e-6
-1.062, 1.472e-6
-1.063, 1.518e-6
-1.064, 1.518e-6
-1.065, 1.495e-6
-1.066, 1.534e-6
-1.067, 1.574e-6
-1.068, 1.607e-6
-1.069, 1.562e-6
-1.070, 1.584e-6
-1.071, 1.632e-6
-1.072, 1.644e-6
-1.073, 1.644e-6
-1.074, 1.690e-6
-1.075, 1.701e-6
-1.076, 1.711e-6
-1.077, 1.757e-6
-1.078, 1.799e-6
-1.079, 1.767e-6
-1.080, 1.793e-6
-1.081, 1.784e-6
-1.082, 1.865e-6
-1.083, 1.851e-6
-1.084, 1.839e-6
-1.085, 1.841e-6
-1.086, 1.874e-6
-1.087, 1.923e-6
-1.088, 1.939e-6
-1.089, 1.957e-6
-1.090, 1.928e-6
-1.091, 1.968e-6
-1.092, 2.000e-6
-1.093, 2.037e-6
-1.094, 2.021e-6
-1.095, 2.005e-6
-1.096, 2.056e-6
-1.097, 2.105e-6
-1.098, 2.127e-6
-1.099, 2.097e-6
-1.100, 2.105e-6
-1.101, 2.133e-6
-1.102, 2.175e-6
-1.103, 2.209e-6
-1.104, 2.162e-6
-1.105, 2.200e-6
-1.106, 2.219e-6
-1.107, 2.259e-6
-1.108, 2.249e-6
-1.109, 2.252e-6
-1.110, 2.264e-6
-1.111, 2.303e-6
-1.112, 2.335e-6
-1.113, 2.349e-6
-1.114, 2.337e-6
-1.115, 2.395e-6
-1.116, 2.377e-6
-1.117, 2.426e-6
-1.118, 2.438e-6
-1.119, 2.429e-6
-1.120, 2.445e-6
-1.121, 2.435e-6
-1.122, 2.496e-6
-1.123, 2.519e-6
-1.124, 2.516e-6
-1.125, 2.523e-6
-1.126, 2.522e-6
-1.127, 2.582e-6
-1.128, 2.640e-6
-1.129, 2.598e-6
-1.130, 2.589e-6
-1.131, 2.628e-6
-1.132, 2.676e-6
-1.133, 2.718e-6
-1.134, 2.666e-6
-1.135, 2.686e-6
-1.136, 2.685e-6
-1.137, 2.751e-6
-1.138, 2.797e-6
-1.139, 2.773e-6
-1.140, 2.784e-6
-1.141, 2.806e-6
-1.142, 2.867e-6
-1.143, 2.886e-6
-1.144, 2.891e-6
-1.145, 2.854e-6
-1.146, 2.904e-6
-1.147, 2.954e-6
-1.148, 2.986e-6
-1.149, 2.979e-6
-1.150, 2.983e-6
-1.151, 3.014e-6
-1.152, 3.054e-6
-1.153, 3.064e-6
-1.154, 3.060e-6
-1.155, 3.046e-6
-1.156, 3.118e-6
-1.157, 3.133e-6
-1.158, 3.188e-6
-1.159, 3.178e-6
-1.160, 3.198e-6
-1.161, 3.219e-6
-1.162, 3.268e-6
-1.163, 3.275e-6
-1.164, 3.263e-6
-1.165, 3.309e-6
-1.166, 3.317e-6
-1.167, 3.348e-6
-1.168, 3.381e-6
-1.169, 3.416e-6
-1.170, 3.407e-6
-1.171, 3.452e-6
-1.172, 3.477e-6
-1.173, 3.538e-6
-1.174, 3.528e-6
-1.175, 3.542e-6
-1.176, 3.597e-6
-1.177, 3.634e-6
-1.178, 3.657e-6
-1.179, 3.664e-6
-1.180, 3.674e-6
-1.181, 3.718e-6
-1.182, 3.804e-6
-1.183, 3.837e-6
-1.184, 3.822e-6
-1.185, 3.848e-6
-1.186, 3.863e-6
-1.187, 3.944e-6
-1.188, 3.956e-6
-1.189, 4.001e-6
-1.190, 3.986e-6
-1.191, 4.058e-6
-1.192, 4.080e-6
-1.193, 4.150e-6
-1.194, 4.157e-6
-1.195, 4.171e-6
-1.196, 4.218e-6
-1.197, 4.273e-6
-1.198, 4.304e-6
-1.199, 4.337e-6
-1.200, 4.346e-6
-1.201, 4.391e-6
-1.202, 4.458e-6
-1.203, 4.480e-6
-1.204, 4.531e-6
-1.205, 4.571e-6
-1.206, 4.600e-6
-1.207, 4.665e-6
-1.208, 4.728e-6
-1.209, 4.755e-6
-1.210, 4.810e-6
-1.211, 4.818e-6
-1.212, 4.930e-6
-1.213, 4.936e-6
-1.214, 5.009e-6
-1.215, 5.012e-6
-1.216, 5.076e-6
-1.217, 5.161e-6
-1.218, 5.240e-6
-1.219, 5.249e-6
-1.220, 5.312e-6
-1.221, 5.380e-6
-1.222, 5.471e-6
-1.223, 5.547e-6
-1.224, 5.551e-6
-1.225, 5.591e-6
-1.226, 5.710e-6
-1.227, 5.749e-6
-1.228, 5.853e-6
-1.229, 5.909e-6
-1.230, 5.951e-6
-1.231, 6.047e-6
-1.232, 6.099e-6
-1.233, 6.216e-6
-1.234, 6.246e-6
-1.235, 6.320e-6
-1.236, 6.419e-6
-1.237, 6.530e-6
-1.238, 6.569e-6
-1.239, 6.642e-6
-1.240, 6.715e-6
-1.241, 6.833e-6
-1.242, 6.951e-6
-1.243, 7.029e-6
-1.244, 7.096e-6
-1.245, 7.185e-6
-1.246, 7.293e-6
-1.247, 7.438e-6
-1.248, 7.531e-6
-1.249, 7.606e-6
-1.250, 7.706e-6
-1.251, 7.810e-6
-1.252, 7.965e-6
-1.253, 8.077e-6
-1.254, 8.170e-6
-1.255, 8.290e-6
-1.256, 8.391e-6
-1.257, 8.545e-6
-1.258, 8.713e-6
-1.259, 8.796e-6
-1.260, 8.931e-6
-1.261, 9.095e-6
-1.262, 9.218e-6
-1.263, 9.370e-6
-1.264, 9.498e-6
-1.265, 9.655e-6
-1.266, 9.842e-6
-1.267, 1.001e-5
-1.268, 1.018e-5
-1.269, 1.033e-5
-1.270, 1.050e-5
-1.271, 1.070e-5
-1.272, 1.088e-5
-1.273, 1.109e-5
-1.274, 1.128e-5
-1.275, 1.142e-5
-1.276, 1.163e-5
-1.277, 1.189e-5
-1.278, 1.211e-5
-1.279, 1.231e-5
-1.280, 1.254e-5
-1.281, 1.274e-5
-1.282, 1.304e-5
-1.283, 1.330e-5
-1.284, 1.354e-5
-1.285, 1.374e-5
-1.286, 1.402e-5
-1.287, 1.433e-5
-1.288, 1.463e-5
-1.289, 1.489e-5
-1.290, 1.517e-5
-1.291, 1.550e-5
-1.292, 1.582e-5
-1.293, 1.614e-5
-1.294, 1.648e-5
-1.295, 1.679e-5
-1.296, 1.714e-5
-1.297, 1.754e-5
-1.298, 1.792e-5
-1.299, 1.826e-5
-1.300, 1.864e-5
-1.301, 1.907e-5
-1.302, 1.948e-5
-1.303, 1.993e-5
-1.304, 2.030e-5
-1.305, 2.078e-5
-1.306, 2.124e-5
-1.307, 2.173e-5
-1.308, 2.221e-5
-1.309, 2.270e-5
-1.310, 2.321e-5
-1.311, 2.376e-5
-1.312, 2.430e-5
-1.313, 2.489e-5
-1.314, 2.548e-5
-1.315, 2.601e-5
-1.316, 2.662e-5
-1.317, 2.727e-5
-1.318, 2.795e-5
-1.319, 2.862e-5
-1.320, 2.926e-5
-1.321, 2.997e-5
-1.322, 3.074e-5
-1.323, 3.150e-5
-1.324, 3.222e-5
-1.325, 3.300e-5
-1.326, 3.382e-5
-1.327, 3.470e-5
-1.328, 3.554e-5
-1.329, 3.641e-5
-1.330, 3.731e-5
-1.331, 3.827e-5
-1.332, 3.920e-5
-1.333, 4.022e-5
-1.334, 4.122e-5
-1.335, 4.226e-5
-1.336, 4.333e-5
-1.337, 4.447e-5
-1.338, 4.561e-5
-1.339, 4.677e-5
-1.340, 4.796e-5
-1.341, 4.918e-5
-1.342, 5.049e-5
-1.343, 5.183e-5
-1.344, 5.312e-5
-1.345, 5.449e-5
-1.346, 5.593e-5
-1.347, 5.740e-5
-1.348, 5.889e-5
-1.349, 6.045e-5
-1.350, 6.203e-5
-1.351, 6.368e-5
-1.352, 6.539e-5
-1.353, 6.713e-5
-1.354, 6.888e-5
-1.355, 7.070e-5
-1.356, 7.257e-5
-1.357, 7.454e-5
-1.358, 7.652e-5
-1.359, 7.857e-5
-1.360, 8.063e-5
-1.361, 8.275e-5
-1.362, 8.501e-5
-1.363, 8.730e-5
-1.364, 8.960e-5
-1.365, 9.195e-5
-1.366, 9.442e-5
-1.367, 9.696e-5
-1.368, 9.953e-5
-1.369, 1.021e-4
-1.370, 1.048e-4
-1.371, 1.076e-4
-1.372, 1.104e-4
-1.373, 1.133e-4
-1.374, 1.163e-4
-1.375, 1.193e-4
-1.376, 1.225e-4
-1.377, 1.257e-4
-1.378, 1.290e-4
-1.379, 1.323e-4
-1.380, 1.359e-4
-1.381, 1.394e-4
-1.382, 1.430e-4
-1.383, 1.468e-4
-1.384, 1.506e-4
-1.385, 1.545e-4
-1.386, 1.585e-4
-1.387, 1.626e-4
-1.388, 1.669e-4
-1.389, 1.711e-4
-1.390, 1.755e-4
-1.391, 1.800e-4
-1.392, 1.846e-4
-1.393, 1.893e-4
-1.394, 1.941e-4
-1.395, 1.990e-4
-1.396, 2.040e-4
-1.397, 2.090e-4
-1.398, 2.143e-4
-1.399, 2.196e-4
-1.400, 2.195e-4
-1.399, 2.138e-4
-1.398, 2.085e-4
-1.397, 2.033e-4
-1.396, 1.981e-4
-1.395, 1.930e-4
-1.394, 1.896e-4
-1.393, 1.837e-4
-1.392, 1.789e-4
-1.391, 1.742e-4
-1.390, 1.696e-4
-1.389, 1.651e-4
-1.388, 1.606e-4
-1.387, 1.564e-4
-1.386, 1.523e-4
-1.385, 1.482e-4
-1.384, 1.443e-4
-1.383, 1.406e-4
-1.382, 1.369e-4
-1.381, 1.332e-4
-1.380, 1.297e-4
-1.379, 1.263e-4
-1.378, 1.230e-4
-1.377, 1.198e-4
-1.376, 1.166e-4
-1.375, 1.135e-4
-1.374, 1.105e-4
-1.373, 1.076e-4
-1.372, 1.048e-4
-1.371, 1.020e-4
-1.370, 9.928e-5
-1.369, 9.664e-5
-1.368, 9.413e-5
-1.367, 9.165e-5
-1.366, 8.914e-5
-1.365, 8.676e-5
-1.364, 8.445e-5
-1.363, 8.230e-5
-1.362, 8.016e-5
-1.361, 7.795e-5
-1.360, 7.588e-5
-1.359, 7.384e-5
-1.358, 7.186e-5
-1.357, 6.996e-5
-1.356, 6.808e-5
-1.355, 6.623e-5
-1.354, 6.449e-5
-1.353, 6.277e-5
-1.352, 6.116e-5
-1.351, 5.945e-5
-1.350, 5.786e-5
-1.349, 5.635e-5
-1.348, 5.486e-5
-1.347, 5.342e-5
-1.346, 5.196e-5
-1.345, 5.057e-5
-1.344, 4.922e-5
-1.343, 4.792e-5
-1.342, 4.666e-5
-1.341, 4.538e-5
-1.340, 4.415e-5
-1.339, 4.297e-5
-1.338, 4.186e-5
-1.337, 4.074e-5
-1.336, 3.966e-5
-1.335, 3.852e-5
-1.334, 3.752e-5
-1.333, 3.657e-5
-1.332, 3.561e-5
-1.331, 3.460e-5
-1.330, 3.367e-5
-1.329, 3.277e-5
-1.328, 3.191e-5
-1.327, 3.109e-5
-1.326, 3.022e-5
-1.325, 2.941e-5
-1.324, 2.863e-5
-1.323, 2.790e-5
-1.322, 2.720e-5
-1.321, 2.643e-5
-1.320, 2.570e-5
-1.319, 2.502e-5
-1.318, 2.438e-5
-1.317, 2.376e-5
-1.316, 2.309e-5
-1.315, 2.247e-5
-1.314, 2.188e-5
-1.313, 2.131e-5
-1.312, 2.073e-5
-1.311, 2.016e-5
-1.310, 1.961e-5
-1.309, 1.911e-5
-1.308, 1.863e-5
-1.307, 1.812e-5
-1.306, 1.765e-5
-1.305, 1.712e-5
-1.304, 1.669e-5
-1.303, 1.630e-5
-1.302, 1.586e-5
-1.301, 1.540e-5
-1.300, 1.501e-5
-1.299, 1.459e-5
-1.298, 1.422e-5
-1.297, 1.387e-5
-1.296, 1.345e-5
-1.295, 1.314e-5
-1.294, 1.274e-5
-1.293, 1.244e-5
-1.292, 1.209e-5
-1.291, 1.177e-5
-1.290, 1.141e-5
-1.289, 1.115e-5
-1.288, 1.088e-5
-1.287, 1.059e-5
-1.286, 1.025e-5
-1.285, 1.000e-5
-1.284, 9.750e-6
-1.283, 9.505e-6
-1.282, 9.265e-6
-1.281, 8.987e-6
-1.280, 8.743e-6
-1.279, 8.525e-6
-1.278, 8.312e-6
-1.277, 8.085e-6
-1.276, 7.832e-6
-1.275, 7.642e-6
-1.274, 7.419e-6
-1.273, 7.253e-6
-1.272, 7.068e-6
-1.271, 6.833e-6
-1.270, 6.646e-6
-1.269, 6.496e-6
-1.268, 6.307e-6
-1.267, 6.186e-6
-1.266, 5.986e-6
-1.265, 5.822e-6
-1.264, 5.680e-6
-1.263, 5.551e-6
-1.262, 5.412e-6
-1.261, 5.213e-6
-1.260, 5.081e-6
-1.259, 4.909e-6
-1.258, 4.839e-6
-1.257, 4.709e-6
-1.256, 4.532e-6
-1.255, 4.439e-6
-1.254, 4.291e-6
-1.253, 4.198e-6
-1.252, 4.088e-6
-1.251, 3.941e-6
-1.250, 3.855e-6
-1.249, 3.735e-6
-1.248, 3.648e-6
-1.247, 3.571e-6
-1.246, 3.430e-6
-1.245, 3.315e-6
-1.244, 3.246e-6
-1.243, 3.156e-6
-1.242, 3.091e-6
-1.241, 2.923e-6
-1.240, 2.874e-6
-1.239, 2.797e-6
-1.238, 2.732e-6
-1.237, 2.681e-6
-1.236, 2.549e-6
-1.235, 2.449e-6
-1.234, 2.365e-6
-1.233, 2.341e-6
-1.232, 2.307e-6
-1.231, 2.191e-6
-1.230, 2.114e-6
-1.229, 2.031e-6
-1.228, 1.991e-6
-1.227, 1.928e-6
-1.226, 1.822e-6
-1.225, 1.800e-6
-1.224, 1.722e-6
-1.223, 1.707e-6
-1.222, 1.647e-6
-1.221, 1.542e-6
-1.220, 1.490e-6
-1.219, 1.426e-6
-1.218, 1.408e-6
-1.217, 1.356e-6
-1.216, 1.260e-6
-1.215, 1.226e-6
-1.214, 1.184e-6
-1.213, 1.165e-6
-1.212, 1.134e-6
-1.211, 1.028e-6
-1.210, 1.005e-6
-1.209, 9.805e-7
-1.208, 9.805e-7
-1.207, 9.183e-7
-1.206, 8.335e-7
-1.205, 8.137e-7
-1.204, 7.624e-7
-1.203, 7.684e-7
-1.202, 7.279e-7
-1.201, 6.371e-7
-1.200, 5.878e-7
-1.199, 5.819e-7
-1.198, 5.770e-7
-1.197, 5.572e-7
-1.196, 4.862e-7
-1.195, 4.379e-7
-1.194, 4.161e-7
-1.193, 3.974e-7
-1.192, 3.717e-7
-1.191, 3.135e-7
-1.190, 2.514e-7
-1.189, 2.346e-7
-1.188, 2.721e-7
-1.187, 2.238e-7
-1.186, 1.330e-7
-1.185, 1.290e-7
-1.184, 1.083e-7
-1.183, 1.182e-7
-1.182, 6.196e-8
-1.181, 4.736e-9
-1.180, 7.695e-9
-1.179, 4.736e-9
-1.178, -3.078e-8
-1.177, -5.841e-8
-1.176, -1.067e-7
-1.175, -1.196e-7
-1.174, -1.403e-7
-1.173, -1.363e-7
-1.172, -1.886e-7
-1.171, -2.350e-7
-1.170, -2.320e-7
-1.169, -2.409e-7
-1.168, -2.449e-7
-1.167, -2.745e-7
-1.166, -3.189e-7
-1.165, -3.287e-7
-1.164, -3.623e-7
-1.163, -3.662e-7
-1.162, -4.017e-7
-1.161, -4.146e-7
-1.160, -4.452e-7
-1.159, -4.678e-7
-1.158, -4.511e-7
-1.157, -4.639e-7
-1.156, -5.073e-7
-1.155, -5.793e-7
-1.154, -5.487e-7
-1.153, -5.428e-7
-1.152, -5.566e-7
-1.151, -6.040e-7
-1.150, -6.287e-7
-1.149, -6.346e-7
-1.148, -6.158e-7
-1.147, -6.563e-7
-1.146, -6.770e-7
-1.145, -7.540e-7
-1.144, -7.155e-7
-1.143, -7.175e-7
-1.142, -7.323e-7
-1.141, -7.628e-7
-1.140, -8.092e-7
-1.139, -8.220e-7
-1.138, -8.210e-7
-1.137, -8.102e-7
-1.136, -8.477e-7
-1.135, -8.714e-7
-1.134, -8.793e-7
-1.133, -8.931e-7
-1.132, -8.812e-7
-1.131, -9.148e-7
-1.130, -9.365e-7
-1.129, -9.286e-7
-1.128, -9.513e-7
-1.127, -9.740e-7
-1.126, -1.017e-6
-1.125, -1.033e-6
-1.124, -1.042e-6
-1.123, -9.957e-7
-1.122, -1.045e-6
-1.121, -1.083e-6
-1.120, -1.108e-6
-1.119, -1.095e-6
-1.118, -1.060e-6
-1.117, -1.137e-6
-1.116, -1.156e-6
-1.115, -1.179e-6
-1.114, -1.156e-6
-1.113, -1.162e-6
-1.112, -1.180e-6
-1.111, -1.232e-6
-1.110, -1.232e-6
-1.109, -1.235e-6
-1.108, -1.219e-6
-1.107, -1.292e-6
-1.106, -1.280e-6
-1.105, -1.313e-6
-1.104, -1.315e-6
-1.103, -1.277e-6
-1.102, -1.343e-6
-1.101, -1.360e-6
-1.100, -1.376e-6
-1.099, -1.384e-6
-1.098, -1.358e-6
-1.097, -1.367e-6
-1.096, -1.396e-6
-1.095, -1.427e-6
-1.094, -1.464e-6
-1.093, -1.392e-6
-1.092, -1.436e-6
-1.091, -1.455e-6
-1.090, -1.520e-6
-1.089, -1.524e-6
-1.088, -1.450e-6
-1.087, -1.530e-6
-1.086, -1.556e-6
-1.085, -1.565e-6
-1.084, -1.570e-6
-1.083, -1.552e-6
-1.082, -1.588e-6
-1.081, -1.638e-6
-1.080, -1.663e-6
-1.079, -1.677e-6
-1.078, -1.624e-6
-1.077, -1.637e-6
-1.076, -1.656e-6
-1.075, -1.708e-6
-1.074, -1.701e-6
-1.073, -1.684e-6
-1.072, -1.704e-6
-1.071, -1.742e-6
-1.070, -1.785e-6
-1.069, -1.769e-6
-1.068, -1.758e-6
-1.067, -1.775e-6
-1.066, -1.816e-6
-1.065, -1.833e-6
-1.064, -1.809e-6
-1.063, -1.809e-6
-1.062, -1.825e-6
-1.061, -1.868e-6
-1.060, -1.891e-6
-1.059, -1.932e-6
-1.058, -1.847e-6
-1.057, -1.908e-6
-1.056, -1.947e-6
-1.055, -1.967e-6
-1.054, -1.966e-6
-1.053, -1.939e-6
-1.052, -1.953e-6
-1.051, -2.005e-6
-1.050, -2.012e-6
-1.049, -2.033e-6
-1.048, -1.991e-6
-1.047, -2.037e-6
-1.046, -2.054e-6
-1.045, -2.071e-6
-1.044, -2.075e-6
-1.043, -2.080e-6
-1.042, -2.094e-6
-1.041, -2.122e-6
-1.040, -2.144e-6
-1.039, -2.149e-6
-1.038, -2.118e-6
-1.037, -2.170e-6
-1.036, -2.183e-6
-1.035, -2.201e-6
-1.034, -2.227e-6
-1.033, -2.218e-6
-1.032, -2.216e-6
-1.031, -2.304e-6
-1.030, -2.267e-6
-1.029, -2.274e-6
-1.028, -2.286e-6
-1.027, -2.337e-6
-1.026, -2.342e-6
-1.025, -2.380e-6
-1.024, -2.371e-6
-1.023, -2.358e-6
-1.022, -2.406e-6
-1.021, -2.409e-6
-1.020, -2.436e-6
-1.019, -2.441e-6
-1.018, -2.425e-6
-1.017, -2.459e-6
-1.016, -2.501e-6
-1.015, -2.512e-6
-1.014, -2.524e-6
-1.013, -2.513e-6
-1.012, -2.506e-6
-1.011, -2.585e-6
-1.010, -2.577e-6
-1.009, -2.602e-6
-1.008, -2.587e-6
-1.007, -2.592e-6
-1.006, -2.646e-6
-1.005, -2.657e-6
-1.004, -2.668e-6
-1.003, -2.634e-6
-1.002, -2.658e-6
-1.001, -2.733e-6
-1.000, -1.528e-6
-1.001, -1.079e-6
-1.002, -8.408e-7
-1.003, -7.135e-7
-1.004, -6.158e-7
-1.005, -4.945e-7
-1.006, -4.244e-7
-1.007, -2.893e-7
-1.008, -2.646e-7
-1.009, -1.946e-7
-1.010, -1.541e-7
-1.011, -9.491e-8
-1.012, 1.362e-8
-1.013, 5.308e-8
-1.014, 8.465e-8
-1.015, 1.438e-7
-1.016, 1.577e-7
-1.017, 2.543e-7
-1.018, 2.899e-7
-1.019, 3.175e-7
-1.020, 3.175e-7
-1.021, 3.698e-7
-1.022, 4.379e-7
-1.023, 4.704e-7
-1.024, 4.882e-7
-1.025, 5.158e-7
-1.026, 5.533e-7
-1.027, 6.204e-7
-1.028, 6.135e-7
-1.029, 6.677e-7
-1.030, 6.588e-7
-1.031, 7.151e-7
-1.032, 7.457e-7
-1.033, 7.467e-7
-1.034, 7.624e-7
-1.035, 7.851e-7
-1.036, 8.285e-7
-1.037, 8.956e-7
-1.038, 8.877e-7
-1.039, 8.650e-7
-1.040, 9.104e-7
-1.041, 9.440e-7
-1.042, 9.953e-7
-1.043, 1.001e-6
-1.044, 1.005e-6
-1.045, 1.009e-6
-1.046, 1.042e-6
-1.047, 1.125e-6
-1.048, 1.096e-6
-1.049, 1.097e-6
-1.050, 1.143e-6
-1.051, 1.150e-6
-1.052, 1.229e-6
-1.053, 1.196e-6
-1.054, 1.183e-6
-1.055, 1.193e-6
-1.056, 1.236e-6
-1.057, 1.292e-6
-1.058, 1.282e-6
-1.059, 1.306e-6
-1.060, 1.305e-6
-1.061, 1.307e-6
-1.062, 1.384e-6
-1.063, 1.350e-6
-1.064, 1.377e-6
-1.065, 1.350e-6
-1.066, 1.417e-6
-1.067, 1.450e-6
-1.068, 1.449e-6
-1.069, 1.453e-6
-1.070, 1.447e-6
-1.071, 1.496e-6
-1.072, 1.509e-6
-1.073, 1.536e-6
-1.074, 1.525e-6
-1.075, 1.539e-6
-1.076, 1.550e-6
-1.077, 1.629e-6
-1.078, 1.601e-6
-1.079, 1.582e-6
-1.080, 1.586e-6
-1.081, 1.632e-6
-1.082, 1.680e-6
-1.083, 1.652e-6
-1.084, 1.641e-6
-1.085, 1.673e-6
-1.086, 1.715e-6
-1.087, 1.732e-6
-1.088, 1.751e-6
-1.089, 1.694e-6
-1.090, 1.765e-6
-1.091, 1.774e-6
-1.092, 1.826e-6
-1.093, 1.801e-6
-1.094, 1.793e-6
-1.095, 1.836e-6
-1.096, 1.817e-6
-1.097, 1.882e-6
-1.098, 1.890e-6
-1.099, 1.867e-6
-1.100, 1.888e-6
-1.101, 1.917e-6
-1.102, 1.970e-6
-1.103, 1.934e-6
-1.104, 1.909e-6
-1.105, 1.946e-6
-1.106, 1.986e-6
-1.107, 2.005e-6
-1.108, 1.986e-6
-1.109, 2.011e-6
-1.110, 2.012e-6
-1.111, 2.053e-6
-1.112, 2.070e-6
-1.113, 2.083e-6
-1.114, 2.065e-6
-1.115, 2.091e-6
-1.116, 2.119e-6
-1.117, 2.169e-6
-1.118, 2.152e-6
-1.119, 2.144e-6
-1.120, 2.157e-6
-1.121, 2.168e-6
-1.122, 2.208e-6
-1.123, 2.211e-6
-1.124, 2.208e-6
-1.125, 2.208e-6
-1.126, 2.236e-6
-1.127, 2.310e-6
-1.128, 2.251e-6
-1.129, 2.281e-6
-1.130, 2.304e-6
-1.131, 2.326e-6
-1.132, 2.351e-6
-1.133, 2.365e-6
-1.134, 2.344e-6
-1.135, 2.366e-6
-1.136, 2.400e-6
-1.137, 2.447e-6
-1.138, 2.427e-6
-1.139, 2.428e-6
-1.140, 2.446e-6
-1.141, 2.457e-6
-1.142, 2.492e-6
-1.143, 2.514e-6
-1.144, 2.507e-6
-1.145, 2.519e-6
-1.146, 2.558e-6
-1.147, 2.598e-6
-1.148, 2.612e-6
-1.149, 2.591e-6
-1.150, 2.612e-6
-1.151, 2.627e-6
-1.152, 2.662e-6
-1.153, 2.661e-6
-1.154, 2.663e-6
-1.155, 2.700e-6
-1.156, 2.704e-6
-1.157, 2.755e-6
-1.158, 2.715e-6
-1.159, 2.767e-6
-1.160, 2.758e-6
-1.161, 2.826e-6
-1.162, 2.848e-6
-1.163, 2.854e-6
-1.164, 2.820e-6
-1.165, 2.862e-6
-1.166, 2.895e-6
-1.167, 2.925e-6
-1.168, 2.938e-6
-1.169, 2.948e-6
-1.170, 2.969e-6
-1.171, 2.957e-6
-1.172, 3.026e-6
-1.173, 3.062e-6
-1.174, 3.035e-6
-1.175, 3.081e-6
-1.176, 3.117e-6
-1.177, 3.149e-6
-1.178, 3.149e-6
-1.179, 3.182e-6
-1.180, 3.154e-6
-1.181, 3.218e-6
-1.182, 3.252e-6
-1.183, 3.275e-6
-1.184, 3.257e-6
-1.185, 3.289e-6
-1.186, 3.301e-6
-1.187, 3.381e-6
-1.188, 3.387e-6
-1.189, 3.375e-6
-1.190, 3.420e-6
-1.191, 3.487e-6
-1.192, 3.534e-6
-1.193, 3.508e-6
-1.194, 3.533e-6
-1.195, 3.553e-6
-1.196, 3.622e-6
-1.197, 3.678e-6
-1.198, 3.667e-6
-1.199, 3.704e-6
-1.200, 3.713e-6
-1.201, 3.776e-6
-1.202, 3.824e-6
-1.203, 3.832e-6
-1.204, 3.855e-6
-1.205, 3.876e-6
-1.206, 3.946e-6
-1.207, 4.002e-6
-1.208, 4.005e-6
-1.209, 4.019e-6
-1.210, 4.092e-6
-1.211, 4.094e-6
-1.212, 4.192e-6
-1.213, 4.211e-6
-1.214, 4.256e-6
-1.215, 4.291e-6
-1.216, 4.346e-6
-1.217, 4.403e-6
-1.218, 4.441e-6
-1.219, 4.453e-6
-1.220, 4.480e-6
-1.221, 4.608e-6
-1.222, 4.658e-6
-1.223, 4.704e-6
-1.224, 4.707e-6
-1.225, 4.764e-6
-1.226, 4.862e-6
-1.227, 4.936e-6
-1.228, 4.992e-6
-1.229, 5.034e-6
-1.230, 5.100e-6
-1.231, 5.173e-6
-1.232, 5.260e-6
-1.233, 5.315e-6
-1.234, 5.334e-6
-1.235, 5.395e-6
-1.236, 5.478e-6
-1.237, 5.597e-6
-1.238, 5.636e-6
-1.239, 5.663e-6
-1.240, 5.754e-6
-1.241, 5.881e-6
-1.242, 5.990e-6
-1.243, 6.033e-6
-1.244, 6.121e-6
-1.245, 6.185e-6
-1.246, 6.298e-6
-1.247, 6.410e-6
-1.248, 6.514e-6
-1.249, 6.577e-6
-1.250, 6.677e-6
-1.251, 6.763e-6
-1.252, 6.921e-6
-1.253, 6.998e-6
-1.254, 7.112e-6
-1.255, 7.222e-6
-1.256, 7.358e-6
-1.257, 7.487e-6
-1.258, 7.624e-6
-1.259, 7.691e-6
-1.260, 7.805e-6
-1.261, 8.035e-6
-1.262, 8.159e-6
-1.263, 8.256e-6
-1.264, 8.392e-6
-1.265, 8.538e-6
-1.266, 8.737e-6
-1.267, 8.906e-6
-1.268, 9.054e-6
-1.269, 9.206e-6
-1.270, 9.351e-6
-1.271, 9.552e-6
-1.272, 9.733e-6
-1.273, 9.964e-6
-1.274, 1.012e-5
-1.275, 1.027e-5
-1.276, 1.054e-5
-1.277, 1.075e-5
-1.278, 1.096e-5
-1.279, 1.113e-5
-1.280, 1.138e-5
-1.281, 1.161e-5
-1.282, 1.189e-5
-1.283, 1.212e-5
-1.284, 1.236e-5
-1.285, 1.261e-5
-1.286, 1.292e-5
-1.287, 1.320e-5
-1.288, 1.347e-5
-1.289, 1.374e-5
-1.290, 1.407e-5
-1.291, 1.437e-5
-1.292, 1.471e-5
-1.293, 1.506e-5
-1.294, 1.538e-5
-1.295, 1.573e-5
-1.296, 1.608e-5
-1.297, 1.644e-5
-1.298, 1.685e-5
-1.299, 1.720e-5
-1.300, 1.762e-5
-1.301, 1.808e-5
-1.302, 1.851e-5
-1.303, 1.894e-5
-1.304, 1.938e-5
-1.305, 1.983e-5
-1.306, 2.037e-5
-1.307, 2.089e-5
-1.308, 2.138e-5
-1.309, 2.191e-5
-1.310, 2.244e-5
-1.311, 2.301e-5
-1.312, 2.363e-5
-1.313, 2.418e-5
-1.314, 2.479e-5
-1.315, 2.539e-5
-1.316, 2.607e-5
-1.317, 2.680e-5
-1.318, 2.744e-5
-1.319, 2.818e-5
-1.320, 2.888e-5
-1.321, 2.964e-5
-1.322, 3.046e-5
-1.323, 3.127e-5
-1.324, 3.209e-5
-1.325, 3.292e-5
-1.326, 3.381e-5
-1.327, 3.474e-5
-1.328, 3.567e-5
-1.329, 3.659e-5
-1.330, 3.756e-5
-1.331, 3.862e-5
-1.332, 3.969e-5
-1.333, 4.074e-5
-1.334, 4.184e-5
-1.335, 4.298e-5
-1.336, 4.419e-5
-1.337, 4.542e-5
-1.338, 4.666e-5
-1.339, 4.791e-5
-1.340, 4.922e-5
-1.341, 5.059e-5
-1.342, 5.202e-5
-1.343, 5.345e-5
-1.344, 5.493e-5
-1.345, 5.642e-5
-1.346, 5.802e-5
-1.347, 5.966e-5
-1.348, 6.130e-5
-1.349, 6.300e-5
-1.350, 6.475e-5
-1.351, 6.658e-5
-1.352, 6.847e-5
-1.353, 7.036e-5
-1.354, 7.231e-5
-1.355, 7.429e-5
-1.356, 7.640e-5
-1.357, 7.858e-5
-1.358, 8.070e-5
-1.359, 8.295e-5
-1.360, 8.525e-5
-1.361, 8.762e-5
-1.362, 9.017e-5
-1.363, 9.259e-5
-1.364, 9.517e-5
-1.365, 9.772e-5
-1.366, 1.004e-4
-1.367, 1.032e-4
-1.368, 1.061e-4
-1.369, 1.089e-4
-1.370, 1.119e-4
-1.371, 1.150e-4
-1.372, 1.181e-4
-1.373, 1.213e-4
-1.374, 1.246e-4
-1.375, 1.279e-4
-1.376, 1.314e-4
-1.377, 1.350e-4
-1.378, 1.387e-4
-1.379, 1.423e-4
-1.380, 1.461e-4
-1.381, 1.501e-4
-1.382, 1.542e-4
-1.383, 1.583e-4
-1.384, 1.624e-4
-1.385, 1.670e-4
-1.386, 1.716e-4
-1.387, 1.762e-4
-1.388, 1.808e-4
-1.389, 1.855e-4
-1.390, 1.907e-4
-1.391, 1.953e-4
-1.392, 2.003e-4
-1.393, 2.055e-4
-1.394, 2.107e-4
-1.395, 2.160e-4
-1.396, 2.215e-4
-1.397, 2.270e-4
-1.398, 2.326e-4
-1.399, 2.382e-4
-1.400, 2.379e-4
-1.399, 2.315e-4
-1.398, 2.255e-4
-1.397, 2.198e-4
-1.396, 2.137e-4
-1.395, 2.078e-4
-1.394, 2.021e-4
-1.393, 1.968e-4
-1.392, 1.916e-4
-1.391, 1.865e-4
-1.390, 1.815e-4
-1.389, 1.766e-4
-1.388, 1.718e-4
-1.387, 1.671e-4
-1.386, 1.626e-4
-1.385, 1.584e-4
-1.384, 1.543e-4
-1.383, 1.502e-4
-1.382, 1.461e-4
-1.381, 1.421e-4
-1.380, 1.383e-4
-1.379, 1.345e-4
-1.378, 1.309e-4
-1.377, 1.272e-4
-1.376, 1.237e-4
-1.375, 1.203e-4
-1.374, 1.170e-4
-1.373, 1.139e-4
-1.372, 1.108e-4
-1.371, 1.077e-4
-1.370, 1.048e-4
-1.369, 1.019e-4
-1.368, 9.917e-5
-1.367, 9.648e-5
-1.366, 9.377e-5
-1.365, 9.122e-5
-1.364, 8.863e-5
-1.363, 8.621e-5
-1.362, 8.377e-5
-1.361, 8.138e-5
-1.360, 7.912e-5
-1.359, 7.693e-5
-1.358, 7.478e-5
-1.357, 7.272e-5
-1.356, 7.067e-5
-1.355, 6.873e-5
-1.354, 6.678e-5
-1.353, 6.494e-5
-1.352, 6.312e-5
-1.351, 6.133e-5
-1.350, 5.961e-5
-1.349, 5.797e-5
-1.348, 5.639e-5
-1.347, 5.472e-5
-1.346, 5.312e-5
-1.345, 5.162e-5
-1.344, 5.017e-5
-1.343, 4.877e-5
-1.342, 4.738e-5
-1.341, 4.602e-5
-1.340, 4.476e-5
-1.339, 4.353e-5
-1.338, 4.237e-5
-1.337, 4.114e-5
-1.336, 3.999e-5
-1.335, 3.888e-5
-1.334, 3.778e-5
-1.333, 3.676e-5
-1.332, 3.570e-5
-1.331, 3.464e-5
-1.330, 3.368e-5
-1.329, 3.276e-5
-1.328, 3.184e-5
-1.327, 3.092e-5
-1.326, 2.999e-5
-1.325, 2.914e-5
-1.324, 2.834e-5
-1.323, 2.750e-5
-1.322, 2.672e-5
-1.321, 2.593e-5
-1.320, 2.524e-5
-1.319, 2.455e-5
-1.318, 2.387e-5
-1.317, 2.321e-5
-1.316, 2.252e-5
-1.315, 2.187e-5
-1.314, 2.130e-5
-1.313, 2.068e-5
-1.312, 2.012e-5
-1.311, 1.952e-5
-1.310, 1.896e-5
-1.309, 1.847e-5
-1.308, 1.797e-5
-1.307, 1.741e-5
-1.306, 1.692e-5
-1.305, 1.644e-5
-1.304, 1.600e-5
-1.303, 1.555e-5
-1.302, 1.512e-5
-1.301, 1.465e-5
-1.300, 1.423e-5
-1.299, 1.386e-5
-1.298, 1.351e-5
-1.297, 1.309e-5
-1.296, 1.268e-5
-1.295, 1.229e-5
-1.294, 1.196e-5
-1.293, 1.164e-5
-1.292, 1.130e-5
-1.291, 1.093e-5
-1.290, 1.064e-5
-1.289, 1.039e-5
-1.288, 1.010e-5
-1.287, 9.781e-6
-1.286, 9.465e-6
-1.285, 9.249e-6
-1.284, 8.973e-6
-1.283, 8.753e-6
-1.282, 8.468e-6
-1.281, 8.234e-6
-1.280, 7.984e-6
-1.279, 7.804e-6
-1.278, 7.605e-6
-1.277, 7.440e-6
-1.276, 7.099e-6
-1.275, 6.905e-6
-1.274, 6.734e-6
-1.273, 6.567e-6
-1.272, 6.332e-6
-1.271, 6.165e-6
-1.270, 6.020e-6
-1.269, 5.867e-6
-1.268, 5.694e-6
-1.267, 5.503e-6
-1.266, 5.321e-6
-1.265, 5.157e-6
-1.264, 5.037e-6
-1.263, 4.906e-6
-1.262, 4.713e-6
-1.261, 4.585e-6
-1.260, 4.464e-6
-1.259, 4.358e-6
-1.258, 4.270e-6
-1.257, 4.082e-6
-1.256, 3.954e-6
-1.255, 3.858e-6
-1.254, 3.725e-6
-1.253, 3.641e-6
-1.252, 3.509e-6
-1.251, 3.378e-6
-1.250, 3.318e-6
-1.249, 3.214e-6
-1.248, 3.128e-6
-1.247, 3.030e-6
-1.246, 2.879e-6
-1.245, 2.824e-6
-1.244, 2.750e-6
-1.243, 2.682e-6
-1.242, 2.559e-6
-1.241, 2.477e-6
-1.240, 2.383e-6
-1.239, 2.321e-6
-1.238, 2.287e-6
-1.237, 2.173e-6
-1.236, 2.113e-6
-1.235, 2.008e-6
-1.234, 1.986e-6
-1.233, 1.949e-6
-1.232, 1.846e-6
-1.231, 1.751e-6
-1.230, 1.684e-6
-1.229, 1.641e-6
-1.228, 1.587e-6
-1.227, 1.512e-6
-1.226, 1.452e-6
-1.225, 1.391e-6
-1.224, 1.385e-6
-1.223, 1.315e-6
-1.222, 1.203e-6
-1.221, 1.204e-6
-1.220, 1.167e-6
-1.219, 1.097e-6
-1.218, 1.064e-6
-1.217, 9.696e-7
-1.216, 9.499e-7
-1.215, 9.163e-7
-1.214, 8.858e-7
-1.213, 8.562e-7
-1.212, 8.009e-7
-1.211, 7.467e-7
-1.210, 7.072e-7
-1.209, 6.796e-7
-1.208, 6.796e-7
-1.207, 5.957e-7
-1.206, 5.395e-7
-1.205, 5.158e-7
-1.204, 5.000e-7
-1.203, 4.793e-7
-1.202, 4.112e-7
-1.201, 3.717e-7
-1.200, 3.678e-7
-1.199, 3.461e-7
-1.198, 3.106e-7
-1.197, 2.751e-7
-1.196, 2.040e-7
-1.195, 2.119e-7
-1.194, 2.070e-7
-1.193, 1.734e-7
-1.192, 1.221e-7
-1.191, 8.070e-8
-1.190, 3.433e-8
-1.189, 5.308e-8
-1.188, 2.644e-8
-1.187, -3.867e-8
-1.186, -8.110e-8
-1.185, -6.827e-8
-1.184, -4.558e-8
-1.183, -6.926e-8
-1.182, -1.215e-7
-1.181, -1.699e-7
-1.180, -1.748e-7
-1.179, -1.798e-7
-1.178, -1.926e-7
-1.177, -2.794e-7
-1.176, -2.745e-7
-1.175, -2.903e-7
-1.174, -3.159e-7
-1.173, -2.932e-7
-1.172, -3.603e-7
-1.171, -3.850e-7
-1.170, -4.077e-7
-1.169, -3.948e-7
-1.168, -4.017e-7
-1.167, -4.540e-7
-1.166, -5.172e-7
-1.165, -4.856e-7
-1.164, -4.836e-7
-1.163, -5.132e-7
-1.162, -5.369e-7
-1.161, -5.912e-7
-1.160, -5.833e-7
-1.159, -5.852e-7
-1.158, -5.704e-7
-1.157, -6.198e-7
-1.156, -6.356e-7
-1.155, -6.800e-7
-1.154, -6.553e-7
-1.153, -6.661e-7
-1.152, -7.115e-7
-1.151, -7.461e-7
-1.150, -7.530e-7
-1.149, -7.530e-7
-1.148, -7.332e-7
-1.147, -7.895e-7
-1.146, -8.132e-7
-1.145, -8.181e-7
-1.144, -8.378e-7
-1.143, -7.776e-7
-1.142, -8.645e-7
-1.141, -8.773e-7
-1.140, -8.881e-7
-1.139, -8.852e-7
-1.138, -8.921e-7
-1.137, -9.315e-7
-1.136, -9.384e-7
-1.135, -9.434e-7
-1.134, -9.463e-7
-1.133, -9.503e-7
-1.132, -9.819e-7
-1.131, -1.020e-6
-1.130, -1.013e-6
-1.129, -1.015e-6
-1.128, -1.032e-6
-1.127, -1.061e-6
-1.126, -1.102e-6
-1.125, -1.089e-6
-1.124, -1.077e-6
-1.123, -1.104e-6
-1.122, -1.117e-6
-1.121, -1.141e-6
-1.120, -1.150e-6
-1.119, -1.122e-6
-1.118, -1.157e-6
-1.117, -1.196e-6
-1.116, -1.215e-6
-1.115, -1.228e-6
-1.114, -1.211e-6
-1.113, -1.222e-6
-1.112, -1.256e-6
-1.111, -1.253e-6
-1.110, -1.257e-6
-1.109, -1.269e-6
-1.108, -1.252e-6
-1.107, -1.302e-6
-1.106, -1.356e-6
-1.105, -1.326e-6
-1.104, -1.319e-6
-1.103, -1.333e-6
-1.102, -1.389e-6
-1.101, -1.401e-6
-1.100, -1.375e-6
-1.099, -1.367e-6
-1.098, -1.398e-6
-1.097, -1.435e-6
-1.096, -1.460e-6
-1.095, -1.452e-6
-1.094, -1.440e-6
-1.093, -1.448e-6
-1.092, -1.488e-6
-1.091, -1.498e-6
-1.090, -1.516e-6
-1.089, -1.500e-6
-1.088, -1.514e-6
-1.087, -1.541e-6
-1.086, -1.582e-6
-1.085, -1.570e-6
-1.084, -1.562e-6
-1.083, -1.571e-6
-1.082, -1.597e-6
-1.081, -1.638e-6
-1.080, -1.620e-6
-1.079, -1.633e-6
-1.078, -1.641e-6
-1.077, -1.655e-6
-1.076, -1.702e-6
-1.075, -1.706e-6
-1.074, -1.676e-6
-1.073, -1.668e-6
-1.072, -1.735e-6
-1.071, -1.759e-6
-1.070, -1.750e-6
-1.069, -1.752e-6
-1.068, -1.696e-6
-1.067, -1.785e-6
-1.066, -1.800e-6
-1.065, -1.794e-6
-1.064, -1.782e-6
-1.063, -1.815e-6
-1.062, -1.857e-6
-1.061, -1.851e-6
-1.060, -1.861e-6
-1.059, -1.859e-6
-1.058, -1.832e-6
-1.057, -1.911e-6
-1.056, -1.911e-6
-1.055, -1.920e-6
-1.054, -1.922e-6
-1.053, -1.911e-6
-1.052, -1.996e-6
-1.051, -1.981e-6
-1.050, -1.997e-6
-1.049, -1.974e-6
-1.048, -2.025e-6
-1.047, -2.013e-6
-1.046, -2.036e-6
-1.045, -2.047e-6
-1.044, -2.027e-6
-1.043, -2.076e-6
-1.042, -2.104e-6
-1.041, -2.117e-6
-1.040, -2.135e-6
-1.039, -2.101e-6
-1.038, -2.089e-6
-1.037, -2.142e-6
-1.036, -2.169e-6
-1.035, -2.176e-6
-1.034, -2.141e-6
-1.033, -2.164e-6
-1.032, -2.211e-6
-1.031, -2.241e-6
-1.030, -2.282e-6
-1.029, -2.185e-6
-1.028, -2.239e-6
-1.027, -2.321e-6
-1.026, -2.276e-6
-1.025, -2.302e-6
-1.024, -2.311e-6
-1.023, -2.332e-6
-1.022, -2.384e-6
-1.021, -2.387e-6
-1.020, -2.383e-6
-1.019, -2.372e-6
-1.018, -2.423e-6
-1.017, -2.425e-6
-1.016, -2.428e-6
-1.015, -2.453e-6
-1.014, -2.453e-6
-1.013, -2.446e-6
-1.012, -2.469e-6
-1.011, -2.510e-6
-1.010, -2.515e-6
-1.009, -2.520e-6
-1.008, -2.552e-6
-1.007, -2.573e-6
-1.006, -2.591e-6
-1.005, -2.605e-6
-1.004, -2.589e-6
-1.003, -2.618e-6
-1.002, -2.635e-6
-1.001, -2.696e-6
