Oct. 19, 2024   15:24:10
Cyclic Voltammetry
File: c:/users/guazh/data/banditlqround2/2024-10-18-exp576\exp576-2024-10-19t14_59_43-h2koh\exp576_cv_sr_500mvs_efin_-1900mv.bin
Data Source:  Experiment
Instrument Model:  CHI760E
Header: CV ran at 500 mVs
Note: 

Init E (V) = -1
High E (V) = -1
Low E (V) = -1.9
Final E (V) = -1
Init P/N = N
Scan Rate (V/s) = 0.5
Segment = 3
Sample Interval (V) = 0.001
Quiet Time (sec) = 2
Sensitivity (A/V) = 0.01
Comp R (ohm) = 1.0

Results:

Channel 1:
Segment 1:

Segment 2:

Segment 3:

Potential/V, Current/A

-1.000, 6.322e-6
-1.001, 6.322e-6
-1.002, 6.322e-6
-1.003, 6.322e-6
-1.004, 6.322e-6
-1.005, 6.322e-6
-1.006, 6.322e-6
-1.007, 6.322e-6
-1.008, 6.322e-6
-1.009, 6.322e-6
-1.010, 9.405e-6
-1.011, 9.405e-6
-1.012, 6.322e-6
-1.013, 6.322e-6
-1.014, 9.405e-6
-1.015, 9.405e-6
-1.016, 9.405e-6
-1.017, 9.405e-6
-1.018, 6.322e-6
-1.019, 9.405e-6
-1.020, 9.405e-6
-1.021, 9.405e-6
-1.022, 6.322e-6
-1.023, 9.405e-6
-1.024, 9.405e-6
-1.025, 9.405e-6
-1.026, 9.405e-6
-1.027, 9.405e-6
-1.028, 9.405e-6
-1.029, 9.405e-6
-1.030, 9.405e-6
-1.031, 6.322e-6
-1.032, 9.405e-6
-1.033, 9.405e-6
-1.034, 9.405e-6
-1.035, 9.405e-6
-1.036, 9.405e-6
-1.037, 9.405e-6
-1.038, 9.405e-6
-1.039, 9.405e-6
-1.040, 9.405e-6
-1.041, 9.405e-6
-1.042, 9.405e-6
-1.043, 9.405e-6
-1.044, 9.405e-6
-1.045, 9.405e-6
-1.046, 9.405e-6
-1.047, 9.405e-6
-1.048, 9.405e-6
-1.049, 9.405e-6
-1.050, 9.405e-6
-1.051, 9.405e-6
-1.052, 9.405e-6
-1.053, 9.405e-6
-1.054, 9.405e-6
-1.055, 9.405e-6
-1.056, 9.405e-6
-1.057, 9.405e-6
-1.058, 9.405e-6
-1.059, 9.405e-6
-1.060, 9.405e-6
-1.061, 9.405e-6
-1.062, 9.405e-6
-1.063, 9.405e-6
-1.064, 9.405e-6
-1.065, 9.405e-6
-1.066, 9.405e-6
-1.067, 9.405e-6
-1.068, 9.405e-6
-1.069, 9.405e-6
-1.070, 9.405e-6
-1.071, 9.405e-6
-1.072, 9.405e-6
-1.073, 9.405e-6
-1.074, 9.405e-6
-1.075, 9.405e-6
-1.076, 9.405e-6
-1.077, 9.405e-6
-1.078, 9.405e-6
-1.079, 9.405e-6
-1.080, 9.405e-6
-1.081, 9.405e-6
-1.082, 9.405e-6
-1.083, 9.405e-6
-1.084, 9.405e-6
-1.085, 9.405e-6
-1.086, 9.405e-6
-1.087, 9.405e-6
-1.088, 9.405e-6
-1.089, 9.405e-6
-1.090, 9.405e-6
-1.091, 9.405e-6
-1.092, 9.405e-6
-1.093, 9.405e-6
-1.094, 9.405e-6
-1.095, 9.405e-6
-1.096, 9.405e-6
-1.097, 1.249e-5
-1.098, 9.405e-6
-1.099, 9.405e-6
-1.100, 9.405e-6
-1.101, 9.405e-6
-1.102, 9.405e-6
-1.103, 1.249e-5
-1.104, 1.249e-5
-1.105, 9.405e-6
-1.106, 9.405e-6
-1.107, 1.249e-5
-1.108, 9.405e-6
-1.109, 9.405e-6
-1.110, 9.405e-6
-1.111, 1.249e-5
-1.112, 9.405e-6
-1.113, 1.249e-5
-1.114, 9.405e-6
-1.115, 1.249e-5
-1.116, 1.249e-5
-1.117, 9.405e-6
-1.118, 9.405e-6
-1.119, 1.249e-5
-1.120, 1.249e-5
-1.121, 1.249e-5
-1.122, 1.249e-5
-1.123, 9.405e-6
-1.124, 1.249e-5
-1.125, 1.249e-5
-1.126, 1.249e-5
-1.127, 1.249e-5
-1.128, 1.249e-5
-1.129, 1.249e-5
-1.130, 9.405e-6
-1.131, 1.249e-5
-1.132, 1.249e-5
-1.133, 1.249e-5
-1.134, 1.249e-5
-1.135, 1.249e-5
-1.136, 1.249e-5
-1.137, 1.249e-5
-1.138, 1.249e-5
-1.139, 1.249e-5
-1.140, 1.249e-5
-1.141, 1.249e-5
-1.142, 1.249e-5
-1.143, 9.405e-6
-1.144, 1.249e-5
-1.145, 1.249e-5
-1.146, 1.249e-5
-1.147, 1.249e-5
-1.148, 1.249e-5
-1.149, 1.249e-5
-1.150, 1.249e-5
-1.151, 1.249e-5
-1.152, 1.249e-5
-1.153, 1.249e-5
-1.154, 1.249e-5
-1.155, 1.249e-5
-1.156, 1.249e-5
-1.157, 1.249e-5
-1.158, 1.249e-5
-1.159, 1.249e-5
-1.160, 1.249e-5
-1.161, 1.249e-5
-1.162, 1.249e-5
-1.163, 1.249e-5
-1.164, 1.249e-5
-1.165, 1.249e-5
-1.166, 1.249e-5
-1.167, 1.249e-5
-1.168, 1.249e-5
-1.169, 1.249e-5
-1.170, 1.249e-5
-1.171, 1.249e-5
-1.172, 1.249e-5
-1.173, 1.249e-5
-1.174, 1.249e-5
-1.175, 1.249e-5
-1.176, 1.249e-5
-1.177, 1.249e-5
-1.178, 1.249e-5
-1.179, 1.249e-5
-1.180, 1.249e-5
-1.181, 1.249e-5
-1.182, 1.249e-5
-1.183, 1.249e-5
-1.184, 1.249e-5
-1.185, 1.249e-5
-1.186, 1.249e-5
-1.187, 1.249e-5
-1.188, 1.249e-5
-1.189, 1.249e-5
-1.190, 1.249e-5
-1.191, 1.249e-5
-1.192, 1.249e-5
-1.193, 1.249e-5
-1.194, 1.249e-5
-1.195, 1.249e-5
-1.196, 1.249e-5
-1.197, 1.249e-5
-1.198, 1.249e-5
-1.199, 1.249e-5
-1.200, 1.249e-5
-1.201, 1.249e-5
-1.202, 1.249e-5
-1.203, 1.557e-5
-1.204, 1.249e-5
-1.205, 1.249e-5
-1.206, 1.249e-5
-1.207, 1.249e-5
-1.208, 1.249e-5
-1.209, 1.249e-5
-1.210, 1.249e-5
-1.211, 1.557e-5
-1.212, 1.249e-5
-1.213, 1.557e-5
-1.214, 1.249e-5
-1.215, 1.249e-5
-1.216, 1.249e-5
-1.217, 1.249e-5
-1.218, 1.557e-5
-1.219, 1.557e-5
-1.220, 1.249e-5
-1.221, 1.249e-5
-1.222, 1.557e-5
-1.223, 1.557e-5
-1.224, 1.249e-5
-1.225, 1.249e-5
-1.226, 1.249e-5
-1.227, 1.557e-5
-1.228, 1.557e-5
-1.229, 1.557e-5
-1.230, 1.557e-5
-1.231, 1.557e-5
-1.232, 1.557e-5
-1.233, 1.557e-5
-1.234, 1.557e-5
-1.235, 1.557e-5
-1.236, 1.557e-5
-1.237, 1.557e-5
-1.238, 1.557e-5
-1.239, 1.557e-5
-1.240, 1.557e-5
-1.241, 1.557e-5
-1.242, 1.557e-5
-1.243, 1.557e-5
-1.244, 1.557e-5
-1.245, 1.557e-5
-1.246, 1.557e-5
-1.247, 1.557e-5
-1.248, 1.557e-5
-1.249, 1.557e-5
-1.250, 1.557e-5
-1.251, 1.557e-5
-1.252, 1.865e-5
-1.253, 1.557e-5
-1.254, 1.557e-5
-1.255, 1.557e-5
-1.256, 1.865e-5
-1.257, 1.557e-5
-1.258, 1.557e-5
-1.259, 1.557e-5
-1.260, 1.865e-5
-1.261, 1.865e-5
-1.262, 1.865e-5
-1.263, 1.865e-5
-1.264, 1.557e-5
-1.265, 1.865e-5
-1.266, 1.865e-5
-1.267, 1.865e-5
-1.268, 1.557e-5
-1.269, 1.865e-5
-1.270, 1.865e-5
-1.271, 1.865e-5
-1.272, 1.865e-5
-1.273, 1.865e-5
-1.274, 1.865e-5
-1.275, 1.865e-5
-1.276, 1.865e-5
-1.277, 1.865e-5
-1.278, 1.865e-5
-1.279, 1.865e-5
-1.280, 1.865e-5
-1.281, 1.865e-5
-1.282, 1.865e-5
-1.283, 1.865e-5
-1.284, 1.865e-5
-1.285, 2.174e-5
-1.286, 2.174e-5
-1.287, 2.174e-5
-1.288, 2.174e-5
-1.289, 2.174e-5
-1.290, 2.174e-5
-1.291, 2.174e-5
-1.292, 2.174e-5
-1.293, 2.174e-5
-1.294, 2.174e-5
-1.295, 2.174e-5
-1.296, 2.174e-5
-1.297, 2.174e-5
-1.298, 2.174e-5
-1.299, 2.174e-5
-1.300, 2.482e-5
-1.301, 2.482e-5
-1.302, 2.482e-5
-1.303, 2.482e-5
-1.304, 2.482e-5
-1.305, 2.482e-5
-1.306, 2.482e-5
-1.307, 2.482e-5
-1.308, 2.482e-5
-1.309, 2.482e-5
-1.310, 2.790e-5
-1.311, 2.790e-5
-1.312, 2.790e-5
-1.313, 2.790e-5
-1.314, 2.790e-5
-1.315, 2.790e-5
-1.316, 2.790e-5
-1.317, 2.790e-5
-1.318, 2.790e-5
-1.319, 3.099e-5
-1.320, 3.099e-5
-1.321, 3.099e-5
-1.322, 3.099e-5
-1.323, 3.099e-5
-1.324, 3.099e-5
-1.325, 3.099e-5
-1.326, 3.099e-5
-1.327, 3.407e-5
-1.328, 3.407e-5
-1.329, 3.407e-5
-1.330, 3.407e-5
-1.331, 3.407e-5
-1.332, 3.407e-5
-1.333, 3.407e-5
-1.334, 3.715e-5
-1.335, 3.715e-5
-1.336, 3.715e-5
-1.337, 4.024e-5
-1.338, 4.024e-5
-1.339, 4.024e-5
-1.340, 4.024e-5
-1.341, 4.024e-5
-1.342, 4.024e-5
-1.343, 4.332e-5
-1.344, 4.332e-5
-1.345, 4.332e-5
-1.346, 4.332e-5
-1.347, 4.640e-5
-1.348, 4.332e-5
-1.349, 4.640e-5
-1.350, 4.640e-5
-1.351, 4.640e-5
-1.352, 4.640e-5
-1.353, 4.949e-5
-1.354, 4.949e-5
-1.355, 4.949e-5
-1.356, 5.257e-5
-1.357, 5.257e-5
-1.358, 5.257e-5
-1.359, 5.257e-5
-1.360, 5.257e-5
-1.361, 5.565e-5
-1.362, 5.565e-5
-1.363, 5.873e-5
-1.364, 5.873e-5
-1.365, 5.873e-5
-1.366, 5.873e-5
-1.367, 6.182e-5
-1.368, 6.182e-5
-1.369, 6.490e-5
-1.370, 6.490e-5
-1.371, 6.490e-5
-1.372, 6.798e-5
-1.373, 6.798e-5
-1.374, 6.798e-5
-1.375, 7.107e-5
-1.376, 7.107e-5
-1.377, 7.415e-5
-1.378, 7.415e-5
-1.379, 7.723e-5
-1.380, 7.723e-5
-1.381, 7.723e-5
-1.382, 8.032e-5
-1.383, 8.032e-5
-1.384, 8.340e-5
-1.385, 8.340e-5
-1.386, 8.648e-5
-1.387, 8.648e-5
-1.388, 8.648e-5
-1.389, 8.957e-5
-1.390, 9.265e-5
-1.391, 9.265e-5
-1.392, 9.573e-5
-1.393, 9.573e-5
-1.394, 9.882e-5
-1.395, 9.882e-5
-1.396, 1.019e-4
-1.397, 1.050e-4
-1.398, 1.050e-4
-1.399, 1.081e-4
-1.400, 1.081e-4
-1.401, 1.111e-4
-1.402, 1.111e-4
-1.403, 1.142e-4
-1.404, 1.173e-4
-1.405, 1.173e-4
-1.406, 1.204e-4
-1.407, 1.204e-4
-1.408, 1.235e-4
-1.409, 1.266e-4
-1.410, 1.296e-4
-1.411, 1.327e-4
-1.412, 1.327e-4
-1.413, 1.358e-4
-1.414, 1.358e-4
-1.415, 1.389e-4
-1.416, 1.420e-4
-1.417, 1.420e-4
-1.418, 1.451e-4
-1.419, 1.512e-4
-1.420, 1.512e-4
-1.421, 1.543e-4
-1.422, 1.574e-4
-1.423, 1.574e-4
-1.424, 1.605e-4
-1.425, 1.636e-4
-1.426, 1.666e-4
-1.427, 1.697e-4
-1.428, 1.697e-4
-1.429, 1.728e-4
-1.430, 1.759e-4
-1.431, 1.790e-4
-1.432, 1.821e-4
-1.433, 1.821e-4
-1.434, 1.851e-4
-1.435, 1.882e-4
-1.436, 1.913e-4
-1.437, 1.944e-4
-1.438, 1.975e-4
-1.439, 2.006e-4
-1.440, 2.036e-4
-1.441, 2.036e-4
-1.442, 2.067e-4
-1.443, 2.098e-4
-1.444, 2.160e-4
-1.445, 2.160e-4
-1.446, 2.191e-4
-1.447, 2.221e-4
-1.448, 2.252e-4
-1.449, 2.283e-4
-1.450, 2.314e-4
-1.451, 2.314e-4
-1.452, 2.376e-4
-1.453, 2.406e-4
-1.454, 2.437e-4
-1.455, 2.468e-4
-1.456, 2.468e-4
-1.457, 2.499e-4
-1.458, 2.530e-4
-1.459, 2.561e-4
-1.460, 2.591e-4
-1.461, 2.653e-4
-1.462, 2.684e-4
-1.463, 2.715e-4
-1.464, 2.715e-4
-1.465, 2.746e-4
-1.466, 2.776e-4
-1.467, 2.807e-4
-1.468, 2.869e-4
-1.469, 2.900e-4
-1.470, 2.900e-4
-1.471, 2.961e-4
-1.472, 2.992e-4
-1.473, 3.023e-4
-1.474, 3.054e-4
-1.475, 3.054e-4
-1.476, 3.115e-4
-1.477, 3.146e-4
-1.478, 3.177e-4
-1.479, 3.208e-4
-1.480, 3.239e-4
-1.481, 3.270e-4
-1.482, 3.300e-4
-1.483, 3.331e-4
-1.484, 3.362e-4
-1.485, 3.393e-4
-1.486, 3.455e-4
-1.487, 3.485e-4
-1.488, 3.516e-4
-1.489, 3.547e-4
-1.490, 3.578e-4
-1.491, 3.609e-4
-1.492, 3.640e-4
-1.493, 3.701e-4
-1.494, 3.701e-4
-1.495, 3.763e-4
-1.496, 3.794e-4
-1.497, 3.825e-4
-1.498, 3.855e-4
-1.499, 3.886e-4
-1.500, 3.917e-4
-1.501, 3.979e-4
-1.502, 4.010e-4
-1.503, 4.040e-4
-1.504, 4.071e-4
-1.505, 4.102e-4
-1.506, 4.164e-4
-1.507, 4.164e-4
-1.508, 4.195e-4
-1.509, 4.225e-4
-1.510, 4.287e-4
-1.511, 4.318e-4
-1.512, 4.349e-4
-1.513, 4.380e-4
-1.514, 4.410e-4
-1.515, 4.472e-4
-1.516, 4.503e-4
-1.517, 4.534e-4
-1.518, 4.565e-4
-1.519, 4.595e-4
-1.520, 4.657e-4
-1.521, 4.688e-4
-1.522, 4.719e-4
-1.523, 4.750e-4
-1.524, 4.780e-4
-1.525, 4.842e-4
-1.526, 4.873e-4
-1.527, 4.904e-4
-1.528, 4.965e-4
-1.529, 4.996e-4
-1.530, 5.027e-4
-1.531, 5.058e-4
-1.532, 5.089e-4
-1.533, 5.120e-4
-1.534, 5.150e-4
-1.535, 5.212e-4
-1.536, 5.243e-4
-1.537, 5.274e-4
-1.538, 5.335e-4
-1.539, 5.366e-4
-1.540, 5.397e-4
-1.541, 5.428e-4
-1.542, 5.459e-4
-1.543, 5.489e-4
-1.544, 5.551e-4
-1.545, 5.613e-4
-1.546, 5.644e-4
-1.547, 5.674e-4
-1.548, 5.705e-4
-1.549, 5.767e-4
-1.550, 5.798e-4
-1.551, 5.829e-4
-1.552, 5.890e-4
-1.553, 5.921e-4
-1.554, 5.952e-4
-1.555, 5.983e-4
-1.556, 6.014e-4
-1.557, 6.044e-4
-1.558, 6.075e-4
-1.559, 6.137e-4
-1.560, 6.168e-4
-1.561, 6.199e-4
-1.562, 6.260e-4
-1.563, 6.291e-4
-1.564, 6.353e-4
-1.565, 6.384e-4
-1.566, 6.414e-4
-1.567, 6.445e-4
-1.568, 6.507e-4
-1.569, 6.538e-4
-1.570, 6.599e-4
-1.571, 6.630e-4
-1.572, 6.661e-4
-1.573, 6.723e-4
-1.574, 6.754e-4
-1.575, 6.784e-4
-1.576, 6.815e-4
-1.577, 6.877e-4
-1.578, 6.939e-4
-1.579, 6.969e-4
-1.580, 7.000e-4
-1.581, 7.062e-4
-1.582, 7.093e-4
-1.583, 7.124e-4
-1.584, 7.154e-4
-1.585, 7.216e-4
-1.586, 7.278e-4
-1.587, 7.309e-4
-1.588, 7.339e-4
-1.589, 7.401e-4
-1.590, 7.432e-4
-1.591, 7.463e-4
-1.592, 7.524e-4
-1.593, 7.555e-4
-1.594, 7.617e-4
-1.595, 7.679e-4
-1.596, 7.709e-4
-1.597, 7.771e-4
-1.598, 7.802e-4
-1.599, 7.833e-4
-1.600, 7.863e-4
-1.601, 7.925e-4
-1.602, 7.987e-4
-1.603, 8.048e-4
-1.604, 8.110e-4
-1.605, 8.141e-4
-1.606, 8.203e-4
-1.607, 8.233e-4
-1.608, 8.264e-4
-1.609, 8.326e-4
-1.610, 8.357e-4
-1.611, 8.418e-4
-1.612, 8.480e-4
-1.613, 8.542e-4
-1.614, 8.573e-4
-1.615, 8.634e-4
-1.616, 8.665e-4
-1.617, 8.727e-4
-1.618, 8.788e-4
-1.619, 8.850e-4
-1.620, 8.912e-4
-1.621, 8.973e-4
-1.622, 9.004e-4
-1.623, 9.066e-4
-1.624, 9.097e-4
-1.625, 9.158e-4
-1.626, 9.220e-4
-1.627, 9.282e-4
-1.628, 9.374e-4
-1.629, 9.405e-4
-1.630, 9.498e-4
-1.631, 9.559e-4
-1.632, 9.590e-4
-1.633, 9.652e-4
-1.634, 9.713e-4
-1.635, 9.775e-4
-1.636, 9.868e-4
-1.637, 9.898e-4
-1.638, 9.991e-4
-1.639, 1.002e-3
-1.640, 1.008e-3
-1.641, 1.014e-3
-1.642, 1.021e-3
-1.643, 1.027e-3
-1.644, 1.036e-3
-1.645, 1.042e-3
-1.646, 1.051e-3
-1.647, 1.058e-3
-1.648, 1.064e-3
-1.649, 1.070e-3
-1.650, 1.076e-3
-1.651, 1.085e-3
-1.652, 1.092e-3
-1.653, 1.101e-3
-1.654, 1.110e-3
-1.655, 1.119e-3
-1.656, 1.125e-3
-1.657, 1.135e-3
-1.658, 1.141e-3
-1.659, 1.150e-3
-1.660, 1.156e-3
-1.661, 1.166e-3
-1.662, 1.172e-3
-1.663, 1.181e-3
-1.664, 1.190e-3
-1.665, 1.196e-3
-1.666, 1.203e-3
-1.667, 1.212e-3
-1.668, 1.221e-3
-1.669, 1.230e-3
-1.670, 1.243e-3
-1.671, 1.252e-3
-1.672, 1.261e-3
-1.673, 1.270e-3
-1.674, 1.280e-3
-1.675, 1.289e-3
-1.676, 1.298e-3
-1.677, 1.310e-3
-1.678, 1.323e-3
-1.679, 1.332e-3
-1.680, 1.344e-3
-1.681, 1.357e-3
-1.682, 1.366e-3
-1.683, 1.378e-3
-1.684, 1.391e-3
-1.685, 1.403e-3
-1.686, 1.412e-3
-1.687, 1.425e-3
-1.688, 1.437e-3
-1.689, 1.446e-3
-1.690, 1.458e-3
-1.691, 1.468e-3
-1.692, 1.477e-3
-1.693, 1.489e-3
-1.694, 1.505e-3
-1.695, 1.520e-3
-1.696, 1.532e-3
-1.697, 1.548e-3
-1.698, 1.560e-3
-1.699, 1.573e-3
-1.700, 1.585e-3
-1.701, 1.600e-3
-1.702, 1.616e-3
-1.703, 1.631e-3
-1.704, 1.647e-3
-1.705, 1.662e-3
-1.706, 1.677e-3
-1.707, 1.693e-3
-1.708, 1.708e-3
-1.709, 1.724e-3
-1.710, 1.739e-3
-1.711, 1.758e-3
-1.712, 1.773e-3
-1.713, 1.788e-3
-1.714, 1.804e-3
-1.715, 1.816e-3
-1.716, 1.828e-3
-1.717, 1.844e-3
-1.718, 1.862e-3
-1.719, 1.881e-3
-1.720, 1.899e-3
-1.721, 1.918e-3
-1.722, 1.939e-3
-1.723, 1.955e-3
-1.724, 1.973e-3
-1.725, 1.989e-3
-1.726, 2.007e-3
-1.727, 2.029e-3
-1.728, 2.047e-3
-1.729, 2.069e-3
-1.730, 2.091e-3
-1.731, 2.109e-3
-1.732, 2.131e-3
-1.733, 2.155e-3
-1.734, 2.180e-3
-1.735, 2.205e-3
-1.736, 2.229e-3
-1.737, 2.251e-3
-1.738, 2.272e-3
-1.739, 2.291e-3
-1.740, 2.309e-3
-1.741, 2.328e-3
-1.742, 2.346e-3
-1.743, 2.365e-3
-1.744, 2.386e-3
-1.745, 2.408e-3
-1.746, 2.436e-3
-1.747, 2.460e-3
-1.748, 2.488e-3
-1.749, 2.510e-3
-1.750, 2.538e-3
-1.751, 2.562e-3
-1.752, 2.587e-3
-1.753, 2.615e-3
-1.754, 2.639e-3
-1.755, 2.667e-3
-1.756, 2.689e-3
-1.757, 2.713e-3
-1.758, 2.741e-3
-1.759, 2.772e-3
-1.760, 2.803e-3
-1.761, 2.840e-3
-1.762, 2.871e-3
-1.763, 2.901e-3
-1.764, 2.926e-3
-1.765, 2.951e-3
-1.766, 2.975e-3
-1.767, 2.997e-3
-1.768, 3.025e-3
-1.769, 3.049e-3
-1.770, 3.077e-3
-1.771, 3.105e-3
-1.772, 3.136e-3
-1.773, 3.167e-3
-1.774, 3.200e-3
-1.775, 3.234e-3
-1.776, 3.268e-3
-1.777, 3.302e-3
-1.778, 3.333e-3
-1.779, 3.367e-3
-1.780, 3.401e-3
-1.781, 3.432e-3
-1.782, 3.462e-3
-1.783, 3.496e-3
-1.784, 3.536e-3
-1.785, 3.577e-3
-1.786, 3.620e-3
-1.787, 3.666e-3
-1.788, 3.706e-3
-1.789, 3.740e-3
-1.790, 3.774e-3
-1.791, 3.808e-3
-1.792, 3.839e-3
-1.793, 3.873e-3
-1.794, 3.906e-3
-1.795, 3.937e-3
-1.796, 3.971e-3
-1.797, 4.005e-3
-1.798, 4.045e-3
-1.799, 4.082e-3
-1.800, 4.125e-3
-1.801, 4.169e-3
-1.802, 4.212e-3
-1.803, 4.258e-3
-1.804, 4.301e-3
-1.805, 4.341e-3
-1.806, 4.378e-3
-1.807, 4.418e-3
-1.808, 4.461e-3
-1.809, 4.505e-3
-1.810, 4.557e-3
-1.811, 4.612e-3
-1.812, 4.671e-3
-1.813, 4.727e-3
-1.814, 4.779e-3
-1.815, 4.822e-3
-1.816, 4.856e-3
-1.817, 4.896e-3
-1.818, 4.936e-3
-1.819, 4.973e-3
-1.820, 5.010e-3
-1.821, 5.047e-3
-1.822, 5.081e-3
-1.823, 5.121e-3
-1.824, 5.164e-3
-1.825, 5.214e-3
-1.826, 5.269e-3
-1.827, 5.328e-3
-1.828, 5.383e-3
-1.829, 5.436e-3
-1.830, 5.482e-3
-1.831, 5.528e-3
-1.832, 5.574e-3
-1.833, 5.618e-3
-1.834, 5.664e-3
-1.835, 5.722e-3
-1.836, 5.787e-3
-1.837, 5.858e-3
-1.838, 5.932e-3
-1.839, 6.000e-3
-1.840, 6.052e-3
-1.841, 6.099e-3
-1.842, 6.148e-3
-1.843, 6.194e-3
-1.844, 6.240e-3
-1.845, 6.284e-3
-1.846, 6.324e-3
-1.847, 6.358e-3
-1.848, 6.404e-3
-1.849, 6.453e-3
-1.850, 6.515e-3
-1.851, 6.580e-3
-1.852, 6.647e-3
-1.853, 6.715e-3
-1.854, 6.777e-3
-1.855, 6.835e-3
-1.856, 6.888e-3
-1.857, 6.934e-3
-1.858, 6.990e-3
-1.859, 7.048e-3
-1.860, 7.107e-3
-1.861, 7.175e-3
-1.862, 7.255e-3
-1.863, 7.338e-3
-1.864, 7.424e-3
-1.865, 7.511e-3
-1.866, 7.585e-3
-1.867, 7.643e-3
-1.868, 7.696e-3
-1.869, 7.748e-3
-1.870, 7.807e-3
-1.871, 7.856e-3
-1.872, 7.896e-3
-1.873, 7.930e-3
-1.874, 7.967e-3
-1.875, 8.016e-3
-1.876, 8.084e-3
-1.877, 8.155e-3
-1.878, 8.235e-3
-1.879, 8.312e-3
-1.880, 8.386e-3
-1.881, 8.454e-3
-1.882, 8.510e-3
-1.883, 8.565e-3
-1.884, 8.627e-3
-1.885, 8.688e-3
-1.886, 8.744e-3
-1.887, 8.815e-3
-1.888, 8.898e-3
-1.889, 8.984e-3
-1.890, 9.074e-3
-1.891, 9.160e-3
-1.892, 9.237e-3
-1.893, 9.302e-3
-1.894, 9.376e-3
-1.895, 9.450e-3
-1.896, 9.512e-3
-1.897, 9.564e-3
-1.898, 9.607e-3
-1.899, 9.644e-3
-1.900, 9.641e-3
-1.899, 9.567e-3
-1.898, 9.505e-3
-1.897, 9.447e-3
-1.896, 9.394e-3
-1.895, 9.339e-3
-1.894, 9.277e-3
-1.893, 9.209e-3
-1.892, 9.132e-3
-1.891, 9.061e-3
-1.890, 8.994e-3
-1.889, 8.923e-3
-1.888, 8.855e-3
-1.887, 8.793e-3
-1.886, 8.744e-3
-1.885, 8.698e-3
-1.884, 8.658e-3
-1.883, 8.621e-3
-1.882, 8.574e-3
-1.881, 8.497e-3
-1.880, 8.432e-3
-1.879, 8.365e-3
-1.878, 8.291e-3
-1.877, 8.204e-3
-1.876, 8.115e-3
-1.875, 8.019e-3
-1.874, 7.933e-3
-1.873, 7.862e-3
-1.872, 7.810e-3
-1.871, 7.757e-3
-1.870, 7.705e-3
-1.869, 7.649e-3
-1.868, 7.591e-3
-1.867, 7.526e-3
-1.866, 7.455e-3
-1.865, 7.381e-3
-1.864, 7.316e-3
-1.863, 7.252e-3
-1.862, 7.187e-3
-1.861, 7.119e-3
-1.860, 7.070e-3
-1.859, 7.023e-3
-1.858, 6.980e-3
-1.857, 6.940e-3
-1.856, 6.891e-3
-1.855, 6.832e-3
-1.854, 6.771e-3
-1.853, 6.712e-3
-1.852, 6.647e-3
-1.851, 6.576e-3
-1.850, 6.506e-3
-1.849, 6.432e-3
-1.848, 6.361e-3
-1.847, 6.299e-3
-1.846, 6.243e-3
-1.845, 6.191e-3
-1.844, 6.139e-3
-1.843, 6.086e-3
-1.842, 6.031e-3
-1.841, 5.975e-3
-1.840, 5.920e-3
-1.839, 5.867e-3
-1.838, 5.812e-3
-1.837, 5.750e-3
-1.836, 5.688e-3
-1.835, 5.636e-3
-1.834, 5.584e-3
-1.833, 5.544e-3
-1.832, 5.504e-3
-1.831, 5.460e-3
-1.830, 5.414e-3
-1.829, 5.368e-3
-1.828, 5.315e-3
-1.827, 5.260e-3
-1.826, 5.198e-3
-1.825, 5.137e-3
-1.824, 5.075e-3
-1.823, 5.016e-3
-1.822, 4.964e-3
-1.821, 4.915e-3
-1.820, 4.871e-3
-1.819, 4.825e-3
-1.818, 4.779e-3
-1.817, 4.733e-3
-1.816, 4.686e-3
-1.815, 4.640e-3
-1.814, 4.594e-3
-1.813, 4.548e-3
-1.812, 4.498e-3
-1.811, 4.449e-3
-1.810, 4.400e-3
-1.809, 4.354e-3
-1.808, 4.313e-3
-1.807, 4.280e-3
-1.806, 4.249e-3
-1.805, 4.212e-3
-1.804, 4.172e-3
-1.803, 4.128e-3
-1.802, 4.082e-3
-1.801, 4.036e-3
-1.800, 3.987e-3
-1.799, 3.940e-3
-1.798, 3.894e-3
-1.797, 3.848e-3
-1.796, 3.805e-3
-1.795, 3.765e-3
-1.794, 3.725e-3
-1.793, 3.684e-3
-1.792, 3.644e-3
-1.791, 3.607e-3
-1.790, 3.570e-3
-1.789, 3.533e-3
-1.788, 3.496e-3
-1.787, 3.462e-3
-1.786, 3.425e-3
-1.785, 3.385e-3
-1.784, 3.348e-3
-1.783, 3.318e-3
-1.782, 3.287e-3
-1.781, 3.259e-3
-1.780, 3.228e-3
-1.779, 3.197e-3
-1.778, 3.163e-3
-1.777, 3.133e-3
-1.776, 3.096e-3
-1.775, 3.059e-3
-1.774, 3.019e-3
-1.773, 2.985e-3
-1.772, 2.948e-3
-1.771, 2.914e-3
-1.770, 2.880e-3
-1.769, 2.849e-3
-1.768, 2.818e-3
-1.767, 2.787e-3
-1.766, 2.760e-3
-1.765, 2.732e-3
-1.764, 2.704e-3
-1.763, 2.676e-3
-1.762, 2.649e-3
-1.761, 2.621e-3
-1.760, 2.593e-3
-1.759, 2.562e-3
-1.758, 2.534e-3
-1.757, 2.507e-3
-1.756, 2.482e-3
-1.755, 2.457e-3
-1.754, 2.433e-3
-1.753, 2.405e-3
-1.752, 2.377e-3
-1.751, 2.349e-3
-1.750, 2.322e-3
-1.749, 2.294e-3
-1.748, 2.269e-3
-1.747, 2.242e-3
-1.746, 2.214e-3
-1.745, 2.189e-3
-1.744, 2.164e-3
-1.743, 2.140e-3
-1.742, 2.118e-3
-1.741, 2.094e-3
-1.740, 2.072e-3
-1.739, 2.054e-3
-1.738, 2.032e-3
-1.737, 2.007e-3
-1.736, 1.986e-3
-1.735, 1.964e-3
-1.734, 1.939e-3
-1.733, 1.918e-3
-1.732, 1.899e-3
-1.731, 1.881e-3
-1.730, 1.862e-3
-1.729, 1.844e-3
-1.728, 1.822e-3
-1.727, 1.804e-3
-1.726, 1.785e-3
-1.725, 1.764e-3
-1.724, 1.742e-3
-1.723, 1.724e-3
-1.722, 1.705e-3
-1.721, 1.684e-3
-1.720, 1.665e-3
-1.719, 1.650e-3
-1.718, 1.631e-3
-1.717, 1.616e-3
-1.716, 1.600e-3
-1.715, 1.585e-3
-1.714, 1.569e-3
-1.713, 1.551e-3
-1.712, 1.536e-3
-1.711, 1.517e-3
-1.710, 1.502e-3
-1.709, 1.483e-3
-1.708, 1.468e-3
-1.707, 1.455e-3
-1.706, 1.443e-3
-1.705, 1.431e-3
-1.704, 1.418e-3
-1.703, 1.403e-3
-1.702, 1.388e-3
-1.701, 1.372e-3
-1.700, 1.357e-3
-1.699, 1.341e-3
-1.698, 1.329e-3
-1.697, 1.314e-3
-1.696, 1.301e-3
-1.695, 1.286e-3
-1.694, 1.270e-3
-1.693, 1.258e-3
-1.692, 1.246e-3
-1.691, 1.233e-3
-1.690, 1.221e-3
-1.689, 1.212e-3
-1.688, 1.199e-3
-1.687, 1.190e-3
-1.686, 1.178e-3
-1.685, 1.166e-3
-1.684, 1.153e-3
-1.683, 1.141e-3
-1.682, 1.132e-3
-1.681, 1.125e-3
-1.680, 1.113e-3
-1.679, 1.104e-3
-1.678, 1.095e-3
-1.677, 1.085e-3
-1.676, 1.073e-3
-1.675, 1.058e-3
-1.674, 1.048e-3
-1.673, 1.039e-3
-1.672, 1.030e-3
-1.671, 1.021e-3
-1.670, 1.008e-3
-1.669, 9.991e-4
-1.668, 9.898e-4
-1.667, 9.806e-4
-1.666, 9.713e-4
-1.665, 9.621e-4
-1.664, 9.559e-4
-1.663, 9.467e-4
-1.662, 9.374e-4
-1.661, 9.282e-4
-1.660, 9.189e-4
-1.659, 9.097e-4
-1.658, 9.004e-4
-1.657, 8.943e-4
-1.656, 8.881e-4
-1.655, 8.788e-4
-1.654, 8.727e-4
-1.653, 8.634e-4
-1.652, 8.573e-4
-1.651, 8.480e-4
-1.650, 8.388e-4
-1.649, 8.326e-4
-1.648, 8.264e-4
-1.647, 8.203e-4
-1.646, 8.110e-4
-1.645, 8.048e-4
-1.644, 7.956e-4
-1.643, 7.863e-4
-1.642, 7.802e-4
-1.641, 7.740e-4
-1.640, 7.679e-4
-1.639, 7.617e-4
-1.638, 7.555e-4
-1.637, 7.494e-4
-1.636, 7.432e-4
-1.635, 7.339e-4
-1.634, 7.278e-4
-1.633, 7.216e-4
-1.632, 7.154e-4
-1.631, 7.093e-4
-1.630, 7.062e-4
-1.629, 7.000e-4
-1.628, 6.939e-4
-1.627, 6.877e-4
-1.626, 6.815e-4
-1.625, 6.754e-4
-1.624, 6.692e-4
-1.623, 6.630e-4
-1.622, 6.569e-4
-1.621, 6.507e-4
-1.620, 6.445e-4
-1.619, 6.414e-4
-1.618, 6.353e-4
-1.617, 6.291e-4
-1.616, 6.229e-4
-1.615, 6.199e-4
-1.614, 6.137e-4
-1.613, 6.075e-4
-1.612, 6.044e-4
-1.611, 5.983e-4
-1.610, 5.921e-4
-1.609, 5.859e-4
-1.608, 5.798e-4
-1.607, 5.767e-4
-1.606, 5.736e-4
-1.605, 5.674e-4
-1.604, 5.644e-4
-1.603, 5.582e-4
-1.602, 5.520e-4
-1.601, 5.459e-4
-1.600, 5.397e-4
-1.599, 5.366e-4
-1.598, 5.335e-4
-1.597, 5.274e-4
-1.596, 5.243e-4
-1.595, 5.181e-4
-1.594, 5.120e-4
-1.593, 5.089e-4
-1.592, 5.027e-4
-1.591, 4.996e-4
-1.590, 4.935e-4
-1.589, 4.904e-4
-1.588, 4.842e-4
-1.587, 4.811e-4
-1.586, 4.750e-4
-1.585, 4.719e-4
-1.584, 4.657e-4
-1.583, 4.626e-4
-1.582, 4.595e-4
-1.581, 4.534e-4
-1.580, 4.503e-4
-1.579, 4.441e-4
-1.578, 4.410e-4
-1.577, 4.380e-4
-1.576, 4.318e-4
-1.575, 4.287e-4
-1.574, 4.256e-4
-1.573, 4.225e-4
-1.572, 4.164e-4
-1.571, 4.133e-4
-1.570, 4.071e-4
-1.569, 4.040e-4
-1.568, 4.010e-4
-1.567, 3.948e-4
-1.566, 3.917e-4
-1.565, 3.886e-4
-1.564, 3.855e-4
-1.563, 3.794e-4
-1.562, 3.763e-4
-1.561, 3.701e-4
-1.560, 3.670e-4
-1.559, 3.640e-4
-1.558, 3.578e-4
-1.557, 3.547e-4
-1.556, 3.516e-4
-1.555, 3.485e-4
-1.554, 3.455e-4
-1.553, 3.424e-4
-1.552, 3.362e-4
-1.551, 3.331e-4
-1.550, 3.270e-4
-1.549, 3.270e-4
-1.548, 3.208e-4
-1.547, 3.177e-4
-1.546, 3.146e-4
-1.545, 3.115e-4
-1.544, 3.085e-4
-1.543, 3.023e-4
-1.542, 2.992e-4
-1.541, 2.961e-4
-1.540, 2.931e-4
-1.539, 2.900e-4
-1.538, 2.869e-4
-1.537, 2.838e-4
-1.536, 2.776e-4
-1.535, 2.776e-4
-1.534, 2.715e-4
-1.533, 2.684e-4
-1.532, 2.653e-4
-1.531, 2.622e-4
-1.530, 2.591e-4
-1.529, 2.561e-4
-1.528, 2.530e-4
-1.527, 2.499e-4
-1.526, 2.468e-4
-1.525, 2.437e-4
-1.524, 2.406e-4
-1.523, 2.376e-4
-1.522, 2.345e-4
-1.521, 2.314e-4
-1.520, 2.283e-4
-1.519, 2.252e-4
-1.518, 2.221e-4
-1.517, 2.191e-4
-1.516, 2.160e-4
-1.515, 2.129e-4
-1.514, 2.098e-4
-1.513, 2.067e-4
-1.512, 2.036e-4
-1.511, 2.006e-4
-1.510, 1.975e-4
-1.509, 1.944e-4
-1.508, 1.913e-4
-1.507, 1.913e-4
-1.506, 1.882e-4
-1.505, 1.851e-4
-1.504, 1.821e-4
-1.503, 1.790e-4
-1.502, 1.759e-4
-1.501, 1.728e-4
-1.500, 1.697e-4
-1.499, 1.697e-4
-1.498, 1.666e-4
-1.497, 1.636e-4
-1.496, 1.636e-4
-1.495, 1.574e-4
-1.494, 1.574e-4
-1.493, 1.543e-4
-1.492, 1.512e-4
-1.491, 1.481e-4
-1.490, 1.481e-4
-1.489, 1.451e-4
-1.488, 1.420e-4
-1.487, 1.389e-4
-1.486, 1.358e-4
-1.485, 1.358e-4
-1.484, 1.327e-4
-1.483, 1.296e-4
-1.482, 1.296e-4
-1.481, 1.266e-4
-1.480, 1.235e-4
-1.479, 1.204e-4
-1.478, 1.204e-4
-1.477, 1.173e-4
-1.476, 1.173e-4
-1.475, 1.142e-4
-1.474, 1.111e-4
-1.473, 1.111e-4
-1.472, 1.081e-4
-1.471, 1.050e-4
-1.470, 1.050e-4
-1.469, 1.019e-4
-1.468, 9.882e-5
-1.467, 9.882e-5
-1.466, 9.573e-5
-1.465, 9.265e-5
-1.464, 9.265e-5
-1.463, 9.265e-5
-1.462, 8.957e-5
-1.461, 8.648e-5
-1.460, 8.648e-5
-1.459, 8.340e-5
-1.458, 8.340e-5
-1.457, 8.032e-5
-1.456, 8.032e-5
-1.455, 7.723e-5
-1.454, 7.723e-5
-1.453, 7.415e-5
-1.452, 7.107e-5
-1.451, 7.107e-5
-1.450, 7.107e-5
-1.449, 6.798e-5
-1.448, 6.798e-5
-1.447, 6.490e-5
-1.446, 6.490e-5
-1.445, 6.490e-5
-1.444, 6.182e-5
-1.443, 5.873e-5
-1.442, 5.873e-5
-1.441, 5.565e-5
-1.440, 5.565e-5
-1.439, 5.565e-5
-1.438, 5.565e-5
-1.437, 5.257e-5
-1.436, 4.949e-5
-1.435, 4.949e-5
-1.434, 4.949e-5
-1.433, 4.640e-5
-1.432, 4.640e-5
-1.431, 4.640e-5
-1.430, 4.332e-5
-1.429, 4.332e-5
-1.428, 4.332e-5
-1.427, 4.024e-5
-1.426, 4.024e-5
-1.425, 4.024e-5
-1.424, 3.715e-5
-1.423, 3.715e-5
-1.422, 3.715e-5
-1.421, 3.715e-5
-1.420, 3.407e-5
-1.419, 3.407e-5
-1.418, 3.099e-5
-1.417, 3.099e-5
-1.416, 3.099e-5
-1.415, 3.099e-5
-1.414, 2.790e-5
-1.413, 2.790e-5
-1.412, 2.482e-5
-1.411, 2.482e-5
-1.410, 2.482e-5
-1.409, 2.174e-5
-1.408, 2.174e-5
-1.407, 2.174e-5
-1.406, 2.174e-5
-1.405, 2.174e-5
-1.404, 1.865e-5
-1.403, 1.865e-5
-1.402, 1.865e-5
-1.401, 1.865e-5
-1.400, 1.557e-5
-1.399, 1.557e-5
-1.398, 1.557e-5
-1.397, 1.557e-5
-1.396, 1.557e-5
-1.395, 1.249e-5
-1.394, 1.249e-5
-1.393, 1.249e-5
-1.392, 1.249e-5
-1.391, 9.405e-6
-1.390, 9.405e-6
-1.389, 9.405e-6
-1.388, 9.405e-6
-1.387, 9.405e-6
-1.386, 9.405e-6
-1.385, 9.405e-6
-1.384, 6.322e-6
-1.383, 6.322e-6
-1.382, 6.322e-6
-1.381, 6.322e-6
-1.380, 6.322e-6
-1.379, 6.322e-6
-1.378, 3.239e-6
-1.377, 3.239e-6
-1.376, 3.239e-6
-1.375, 3.239e-6
-1.374, 3.239e-6
-1.373, 3.239e-6
-1.372, 3.239e-6
-1.371, 3.239e-6
-1.370, 1.559e-7
-1.369, 1.559e-7
-1.368, 1.559e-7
-1.367, 1.559e-7
-1.366, 1.559e-7
-1.365, 1.559e-7
-1.364, 1.559e-7
-1.363, 1.559e-7
-1.362, -2.927e-6
-1.361, -2.927e-6
-1.360, -2.927e-6
-1.359, -2.927e-6
-1.358, -2.927e-6
-1.357, -2.927e-6
-1.356, -2.927e-6
-1.355, -2.927e-6
-1.354, -2.927e-6
-1.353, -6.010e-6
-1.352, -6.010e-6
-1.351, -6.010e-6
-1.350, -6.010e-6
-1.349, -6.010e-6
-1.348, -6.010e-6
-1.347, -6.010e-6
-1.346, -6.010e-6
-1.345, -6.010e-6
-1.344, -9.093e-6
-1.343, -9.093e-6
-1.342, -9.093e-6
-1.341, -9.093e-6
-1.340, -9.093e-6
-1.339, -9.093e-6
-1.338, -9.093e-6
-1.337, -9.093e-6
-1.336, -9.093e-6
-1.335, -9.093e-6
-1.334, -1.218e-5
-1.333, -1.218e-5
-1.332, -9.093e-6
-1.331, -9.093e-6
-1.330, -9.093e-6
-1.329, -1.218e-5
-1.328, -1.218e-5
-1.327, -1.218e-5
-1.326, -1.218e-5
-1.325, -1.218e-5
-1.324, -1.218e-5
-1.323, -1.218e-5
-1.322, -1.218e-5
-1.321, -1.218e-5
-1.320, -1.218e-5
-1.319, -1.218e-5
-1.318, -1.218e-5
-1.317, -1.526e-5
-1.316, -1.526e-5
-1.315, -1.218e-5
-1.314, -1.218e-5
-1.313, -1.218e-5
-1.312, -1.218e-5
-1.311, -1.526e-5
-1.310, -1.218e-5
-1.309, -1.526e-5
-1.308, -1.526e-5
-1.307, -1.526e-5
-1.306, -1.526e-5
-1.305, -1.526e-5
-1.304, -1.526e-5
-1.303, -1.526e-5
-1.302, -1.526e-5
-1.301, -1.526e-5
-1.300, -1.526e-5
-1.299, -1.526e-5
-1.298, -1.526e-5
-1.297, -1.526e-5
-1.296, -1.526e-5
-1.295, -1.526e-5
-1.294, -1.526e-5
-1.293, -1.526e-5
-1.292, -1.526e-5
-1.291, -1.526e-5
-1.290, -1.526e-5
-1.289, -1.526e-5
-1.288, -1.526e-5
-1.287, -1.526e-5
-1.286, -1.834e-5
-1.285, -1.834e-5
-1.284, -1.834e-5
-1.283, -1.834e-5
-1.282, -1.834e-5
-1.281, -1.834e-5
-1.280, -1.834e-5
-1.279, -1.834e-5
-1.278, -1.834e-5
-1.277, -1.834e-5
-1.276, -1.834e-5
-1.275, -1.834e-5
-1.274, -1.834e-5
-1.273, -1.834e-5
-1.272, -1.834e-5
-1.271, -1.834e-5
-1.270, -1.834e-5
-1.269, -1.834e-5
-1.268, -1.834e-5
-1.267, -1.834e-5
-1.266, -1.834e-5
-1.265, -1.834e-5
-1.264, -1.834e-5
-1.263, -1.834e-5
-1.262, -1.834e-5
-1.261, -1.834e-5
-1.260, -1.834e-5
-1.259, -1.834e-5
-1.258, -1.834e-5
-1.257, -1.834e-5
-1.256, -1.834e-5
-1.255, -1.834e-5
-1.254, -1.834e-5
-1.253, -2.143e-5
-1.252, -2.143e-5
-1.251, -1.834e-5
-1.250, -2.143e-5
-1.249, -2.143e-5
-1.248, -1.834e-5
-1.247, -2.143e-5
-1.246, -1.834e-5
-1.245, -2.143e-5
-1.244, -1.834e-5
-1.243, -2.143e-5
-1.242, -2.143e-5
-1.241, -2.143e-5
-1.240, -2.143e-5
-1.239, -1.834e-5
-1.238, -2.143e-5
-1.237, -2.143e-5
-1.236, -2.143e-5
-1.235, -2.143e-5
-1.234, -2.143e-5
-1.233, -2.143e-5
-1.232, -2.143e-5
-1.231, -2.143e-5
-1.230, -2.143e-5
-1.229, -2.143e-5
-1.228, -2.143e-5
-1.227, -2.143e-5
-1.226, -2.143e-5
-1.225, -2.143e-5
-1.224, -2.143e-5
-1.223, -2.143e-5
-1.222, -2.143e-5
-1.221, -2.143e-5
-1.220, -2.143e-5
-1.219, -2.143e-5
-1.218, -2.143e-5
-1.217, -2.143e-5
-1.216, -2.143e-5
-1.215, -2.143e-5
-1.214, -2.143e-5
-1.213, -2.143e-5
-1.212, -2.143e-5
-1.211, -2.143e-5
-1.210, -2.143e-5
-1.209, -2.143e-5
-1.208, -2.143e-5
-1.207, -2.143e-5
-1.206, -2.143e-5
-1.205, -2.143e-5
-1.204, -2.143e-5
-1.203, -2.143e-5
-1.202, -2.143e-5
-1.201, -2.143e-5
-1.200, -2.451e-5
-1.199, -2.143e-5
-1.198, -2.143e-5
-1.197, -2.143e-5
-1.196, -2.143e-5
-1.195, -2.451e-5
-1.194, -2.143e-5
-1.193, -2.143e-5
-1.192, -2.143e-5
-1.191, -2.451e-5
-1.190, -2.143e-5
-1.189, -2.143e-5
-1.188, -2.451e-5
-1.187, -2.143e-5
-1.186, -2.451e-5
-1.185, -2.451e-5
-1.184, -2.143e-5
-1.183, -2.451e-5
-1.182, -2.451e-5
-1.181, -2.451e-5
-1.180, -2.451e-5
-1.179, -2.451e-5
-1.178, -2.451e-5
-1.177, -2.451e-5
-1.176, -2.451e-5
-1.175, -2.451e-5
-1.174, -2.451e-5
-1.173, -2.451e-5
-1.172, -2.143e-5
-1.171, -2.451e-5
-1.170, -2.451e-5
-1.169, -2.451e-5
-1.168, -2.451e-5
-1.167, -2.451e-5
-1.166, -2.451e-5
-1.165, -2.451e-5
-1.164, -2.451e-5
-1.163, -2.451e-5
-1.162, -2.451e-5
-1.161, -2.451e-5
-1.160, -2.451e-5
-1.159, -2.451e-5
-1.158, -2.451e-5
-1.157, -2.451e-5
-1.156, -2.451e-5
-1.155, -2.451e-5
-1.154, -2.451e-5
-1.153, -2.451e-5
-1.152, -2.451e-5
-1.151, -2.451e-5
-1.150, -2.451e-5
-1.149, -2.451e-5
-1.148, -2.451e-5
-1.147, -2.451e-5
-1.146, -2.451e-5
-1.145, -2.451e-5
-1.144, -2.451e-5
-1.143, -2.451e-5
-1.142, -2.451e-5
-1.141, -2.451e-5
-1.140, -2.451e-5
-1.139, -2.451e-5
-1.138, -2.451e-5
-1.137, -2.451e-5
-1.136, -2.451e-5
-1.135, -2.451e-5
-1.134, -2.451e-5
-1.133, -2.451e-5
-1.132, -2.451e-5
-1.131, -2.451e-5
-1.130, -2.451e-5
-1.129, -2.451e-5
-1.128, -2.759e-5
-1.127, -2.451e-5
-1.126, -2.451e-5
-1.125, -2.451e-5
-1.124, -2.451e-5
-1.123, -2.451e-5
-1.122, -2.451e-5
-1.121, -2.451e-5
-1.120, -2.451e-5
-1.119, -2.759e-5
-1.118, -2.451e-5
-1.117, -2.759e-5
-1.116, -2.759e-5
-1.115, -2.759e-5
-1.114, -2.451e-5
-1.113, -2.451e-5
-1.112, -2.451e-5
-1.111, -2.759e-5
-1.110, -2.759e-5
-1.109, -2.451e-5
-1.108, -2.759e-5
-1.107, -2.451e-5
-1.106, -2.759e-5
-1.105, -2.759e-5
-1.104, -2.759e-5
-1.103, -2.759e-5
-1.102, -2.759e-5
-1.101, -2.759e-5
-1.100, -2.759e-5
-1.099, -2.759e-5
-1.098, -2.451e-5
-1.097, -2.451e-5
-1.096, -2.759e-5
-1.095, -2.759e-5
-1.094, -2.759e-5
-1.093, -2.759e-5
-1.092, -2.759e-5
-1.091, -2.759e-5
-1.090, -2.759e-5
-1.089, -2.759e-5
-1.088, -2.759e-5
-1.087, -2.759e-5
-1.086, -2.759e-5
-1.085, -2.759e-5
-1.084, -2.759e-5
-1.083, -2.759e-5
-1.082, -2.759e-5
-1.081, -2.759e-5
-1.080, -2.759e-5
-1.079, -2.759e-5
-1.078, -2.759e-5
-1.077, -2.759e-5
-1.076, -2.759e-5
-1.075, -2.759e-5
-1.074, -2.759e-5
-1.073, -2.759e-5
-1.072, -2.759e-5
-1.071, -2.759e-5
-1.070, -2.759e-5
-1.069, -2.759e-5
-1.068, -2.759e-5
-1.067, -2.759e-5
-1.066, -2.759e-5
-1.065, -2.759e-5
-1.064, -2.759e-5
-1.063, -2.759e-5
-1.062, -2.759e-5
-1.061, -2.759e-5
-1.060, -2.759e-5
-1.059, -2.759e-5
-1.058, -2.759e-5
-1.057, -2.759e-5
-1.056, -2.759e-5
-1.055, -2.759e-5
-1.054, -2.759e-5
-1.053, -2.759e-5
-1.052, -2.759e-5
-1.051, -2.759e-5
-1.050, -2.759e-5
-1.049, -2.759e-5
-1.048, -2.759e-5
-1.047, -2.759e-5
-1.046, -2.759e-5
-1.045, -2.759e-5
-1.044, -2.759e-5
-1.043, -2.759e-5
-1.042, -2.759e-5
-1.041, -2.759e-5
-1.040, -2.759e-5
-1.039, -2.759e-5
-1.038, -2.759e-5
-1.037, -2.759e-5
-1.036, -2.759e-5
-1.035, -2.759e-5
-1.034, -2.759e-5
-1.033, -2.759e-5
-1.032, -2.759e-5
-1.031, -2.759e-5
-1.030, -2.759e-5
-1.029, -2.759e-5
-1.028, -2.759e-5
-1.027, -2.759e-5
-1.026, -2.759e-5
-1.025, -2.759e-5
-1.024, -3.068e-5
-1.023, -2.759e-5
-1.022, -2.759e-5
-1.021, -2.759e-5
-1.020, -2.759e-5
-1.019, -3.068e-5
-1.018, -2.759e-5
-1.017, -2.759e-5
-1.016, -2.759e-5
-1.015, -2.759e-5
-1.014, -2.759e-5
-1.013, -2.759e-5
-1.012, -2.759e-5
-1.011, -2.759e-5
-1.010, -2.759e-5
-1.009, -2.759e-5
-1.008, -2.759e-5
-1.007, -3.068e-5
-1.006, -2.759e-5
-1.005, -2.759e-5
-1.004, -2.759e-5
-1.003, -2.759e-5
-1.002, -2.759e-5
-1.001, -3.068e-5
