Aug. 21, 2024   13:27:32
Cyclic Voltammetry
File: c:/users/guazh/data/20240813_batch_94_500/2024-08-15-exp150\exp150-2024-08-21t13_22_34-arkoh\exp150_cv_50mvs_efin_-1400mv.bin
Data Source:  Experiment
Instrument Model:  CHI760E
Header: CV ran at 50 mVs
Note: 

Init E (V) = -1
High E (V) = -1
Low E (V) = -1.4
Final E (V) = -1
Init P/N = N
Scan Rate (V/s) = 0.05
Segment = 7
Sample Interval (V) = 0.001
Quiet Time (sec) = 60
Sensitivity (A/V) = 0.001
Comp R (ohm) = 1.6

Results:

Channel 1:
Segment 1:

Segment 2:

Segment 3:

Segment 4:

Segment 5:

Segment 6:

Segment 7:

Potential/V, Current/A

-1.000, 9.727e-6
-1.001, 2.260e-5
-1.002, 2.934e-5
-1.003, 3.363e-5
-1.004, 3.739e-5
-1.005, 3.993e-5
-1.006, 4.247e-5
-1.007, 4.509e-5
-1.008, 4.710e-5
-1.009, 4.919e-5
-1.010, 5.119e-5
-1.011, 5.295e-5
-1.012, 5.541e-5
-1.013, 5.735e-5
-1.014, 5.972e-5
-1.015, 6.211e-5
-1.016, 6.464e-5
-1.017, 6.758e-5
-1.018, 7.035e-5
-1.019, 7.279e-5
-1.020, 7.498e-5
-1.021, 7.686e-5
-1.022, 7.889e-5
-1.023, 8.094e-5
-1.024, 8.283e-5
-1.025, 8.450e-5
-1.026, 8.630e-5
-1.027, 8.869e-5
-1.028, 9.094e-5
-1.029, 9.319e-5
-1.030, 9.543e-5
-1.031, 9.756e-5
-1.032, 9.942e-5
-1.033, 1.011e-4
-1.034, 1.026e-4
-1.035, 1.032e-4
-1.036, 1.041e-4
-1.037, 1.048e-4
-1.038, 1.051e-4
-1.039, 1.056e-4
-1.040, 1.053e-4
-1.041, 1.055e-4
-1.042, 1.057e-4
-1.043, 1.058e-4
-1.044, 1.060e-4
-1.045, 1.057e-4
-1.046, 1.057e-4
-1.047, 1.059e-4
-1.048, 1.059e-4
-1.049, 1.059e-4
-1.050, 1.058e-4
-1.051, 1.056e-4
-1.052, 1.059e-4
-1.053, 1.059e-4
-1.054, 1.059e-4
-1.055, 1.058e-4
-1.056, 1.055e-4
-1.057, 1.057e-4
-1.058, 1.057e-4
-1.059, 1.057e-4
-1.060, 1.056e-4
-1.061, 1.054e-4
-1.062, 1.056e-4
-1.063, 1.056e-4
-1.064, 1.056e-4
-1.065, 1.053e-4
-1.066, 1.052e-4
-1.067, 1.054e-4
-1.068, 1.055e-4
-1.069, 1.054e-4
-1.070, 1.052e-4
-1.071, 1.051e-4
-1.072, 1.052e-4
-1.073, 1.052e-4
-1.074, 1.052e-4
-1.075, 1.053e-4
-1.076, 1.052e-4
-1.077, 1.051e-4
-1.078, 1.051e-4
-1.079, 1.052e-4
-1.080, 1.049e-4
-1.081, 1.048e-4
-1.082, 1.051e-4
-1.083, 1.050e-4
-1.084, 1.051e-4
-1.085, 1.049e-4
-1.086, 1.048e-4
-1.087, 1.051e-4
-1.088, 1.051e-4
-1.089, 1.052e-4
-1.090, 1.050e-4
-1.091, 1.049e-4
-1.092, 1.052e-4
-1.093, 1.052e-4
-1.094, 1.054e-4
-1.095, 1.053e-4
-1.096, 1.051e-4
-1.097, 1.055e-4
-1.098, 1.055e-4
-1.099, 1.057e-4
-1.100, 1.058e-4
-1.101, 1.057e-4
-1.102, 1.060e-4
-1.103, 1.062e-4
-1.104, 1.062e-4
-1.105, 1.064e-4
-1.106, 1.064e-4
-1.107, 1.067e-4
-1.108, 1.070e-4
-1.109, 1.070e-4
-1.110, 1.071e-4
-1.111, 1.073e-4
-1.112, 1.076e-4
-1.113, 1.078e-4
-1.114, 1.082e-4
-1.115, 1.080e-4
-1.116, 1.083e-4
-1.117, 1.086e-4
-1.118, 1.089e-4
-1.119, 1.093e-4
-1.120, 1.094e-4
-1.121, 1.096e-4
-1.122, 1.102e-4
-1.123, 1.104e-4
-1.124, 1.109e-4
-1.125, 1.110e-4
-1.126, 1.111e-4
-1.127, 1.119e-4
-1.128, 1.120e-4
-1.129, 1.126e-4
-1.130, 1.129e-4
-1.131, 1.131e-4
-1.132, 1.139e-4
-1.133, 1.142e-4
-1.134, 1.148e-4
-1.135, 1.153e-4
-1.136, 1.154e-4
-1.137, 1.163e-4
-1.138, 1.169e-4
-1.139, 1.175e-4
-1.140, 1.180e-4
-1.141, 1.184e-4
-1.142, 1.192e-4
-1.143, 1.200e-4
-1.144, 1.203e-4
-1.145, 1.210e-4
-1.146, 1.216e-4
-1.147, 1.227e-4
-1.148, 1.235e-4
-1.149, 1.242e-4
-1.150, 1.249e-4
-1.151, 1.258e-4
-1.152, 1.268e-4
-1.153, 1.277e-4
-1.154, 1.286e-4
-1.155, 1.294e-4
-1.156, 1.303e-4
-1.157, 1.315e-4
-1.158, 1.324e-4
-1.159, 1.338e-4
-1.160, 1.345e-4
-1.161, 1.356e-4
-1.162, 1.370e-4
-1.163, 1.383e-4
-1.164, 1.397e-4
-1.165, 1.408e-4
-1.166, 1.418e-4
-1.167, 1.436e-4
-1.168, 1.448e-4
-1.169, 1.465e-4
-1.170, 1.479e-4
-1.171, 1.492e-4
-1.172, 1.511e-4
-1.173, 1.525e-4
-1.174, 1.544e-4
-1.175, 1.561e-4
-1.176, 1.575e-4
-1.177, 1.598e-4
-1.178, 1.619e-4
-1.179, 1.636e-4
-1.180, 1.656e-4
-1.181, 1.674e-4
-1.182, 1.697e-4
-1.183, 1.721e-4
-1.184, 1.742e-4
-1.185, 1.765e-4
-1.186, 1.787e-4
-1.187, 1.811e-4
-1.188, 1.838e-4
-1.189, 1.863e-4
-1.190, 1.889e-4
-1.191, 1.915e-4
-1.192, 1.945e-4
-1.193, 1.974e-4
-1.194, 2.003e-4
-1.195, 2.031e-4
-1.196, 2.060e-4
-1.197, 2.092e-4
-1.198, 2.125e-4
-1.199, 2.160e-4
-1.200, 2.190e-4
-1.201, 2.224e-4
-1.202, 2.262e-4
-1.203, 2.297e-4
-1.204, 2.336e-4
-1.205, 2.372e-4
-1.206, 2.409e-4
-1.207, 2.452e-4
-1.208, 2.491e-4
-1.209, 2.535e-4
-1.210, 2.574e-4
-1.211, 2.615e-4
-1.212, 2.665e-4
-1.213, 2.709e-4
-1.214, 2.755e-4
-1.215, 2.802e-4
-1.216, 2.849e-4
-1.217, 2.900e-4
-1.218, 2.951e-4
-1.219, 3.003e-4
-1.220, 3.055e-4
-1.221, 3.105e-4
-1.222, 3.162e-4
-1.223, 3.219e-4
-1.224, 3.276e-4
-1.225, 3.336e-4
-1.226, 3.394e-4
-1.227, 3.457e-4
-1.228, 3.523e-4
-1.229, 3.592e-4
-1.230, 3.651e-4
-1.231, 3.717e-4
-1.232, 3.784e-4
-1.233, 3.856e-4
-1.234, 3.927e-4
-1.235, 3.996e-4
-1.236, 4.067e-4
-1.237, 4.141e-4
-1.238, 4.216e-4
-1.239, 4.294e-4
-1.240, 4.369e-4
-1.241, 4.448e-4
-1.242, 4.531e-4
-1.243, 4.613e-4
-1.244, 4.699e-4
-1.245, 4.782e-4
-1.246, 4.866e-4
-1.247, 4.959e-4
-1.248, 5.048e-4
-1.249, 5.141e-4
-1.250, 5.234e-4
-1.251, 5.326e-4
-1.252, 5.427e-4
-1.253, 5.524e-4
-1.254, 5.627e-4
-1.255, 5.731e-4
-1.256, 5.831e-4
-1.257, 5.938e-4
-1.258, 6.047e-4
-1.259, 6.155e-4
-1.260, 6.267e-4
-1.261, 6.376e-4
-1.262, 6.492e-4
-1.263, 6.610e-4
-1.264, 6.726e-4
-1.265, 6.844e-4
-1.266, 6.965e-4
-1.267, 7.088e-4
-1.268, 7.217e-4
-1.269, 7.340e-4
-1.270, 7.470e-4
-1.271, 7.599e-4
-1.272, 7.731e-4
-1.273, 7.867e-4
-1.274, 8.003e-4
-1.275, 8.147e-4
-1.276, 8.282e-4
-1.277, 8.424e-4
-1.278, 8.570e-4
-1.279, 8.718e-4
-1.280, 8.867e-4
-1.281, 9.012e-4
-1.282, 9.167e-4
-1.283, 9.320e-4
-1.284, 9.478e-4
-1.285, 9.633e-4
-1.286, 9.791e-4
-1.287, 9.956e-4
-1.288, 1.012e-3
-1.289, 1.029e-3
-1.290, 1.045e-3
-1.291, 1.062e-3
-1.292, 1.081e-3
-1.293, 1.098e-3
-1.294, 1.117e-3
-1.295, 1.134e-3
-1.296, 1.151e-3
-1.297, 1.170e-3
-1.298, 1.189e-3
-1.299, 1.208e-3
-1.300, 1.227e-3
-1.301, 1.246e-3
-1.302, 1.265e-3
-1.303, 1.285e-3
-1.304, 1.305e-3
-1.305, 1.325e-3
-1.306, 1.345e-3
-1.307, 1.365e-3
-1.308, 1.387e-3
-1.309, 1.408e-3
-1.310, 1.428e-3
-1.311, 1.450e-3
-1.312, 1.471e-3
-1.313, 1.493e-3
-1.314, 1.515e-3
-1.315, 1.537e-3
-1.316, 1.560e-3
-1.317, 1.582e-3
-1.318, 1.605e-3
-1.319, 1.628e-3
-1.320, 1.651e-3
-1.321, 1.675e-3
-1.322, 1.698e-3
-1.323, 1.723e-3
-1.324, 1.747e-3
-1.325, 1.772e-3
-1.326, 1.796e-3
-1.327, 1.821e-3
-1.328, 1.846e-3
-1.329, 1.872e-3
-1.330, 1.897e-3
-1.331, 1.923e-3
-1.332, 1.949e-3
-1.333, 1.975e-3
-1.334, 2.002e-3
-1.335, 2.028e-3
-1.336, 2.055e-3
-1.337, 2.082e-3
-1.338, 2.111e-3
-1.339, 2.138e-3
-1.340, 2.167e-3
-1.341, 2.194e-3
-1.342, 2.223e-3
-1.343, 2.252e-3
-1.344, 2.280e-3
-1.345, 2.309e-3
-1.346, 2.338e-3
-1.347, 2.368e-3
-1.348, 2.398e-3
-1.349, 2.428e-3
-1.350, 2.458e-3
-1.351, 2.488e-3
-1.352, 2.518e-3
-1.353, 2.549e-3
-1.354, 2.580e-3
-1.355, 2.611e-3
-1.356, 2.642e-3
-1.357, 2.674e-3
-1.358, 2.705e-3
-1.359, 2.737e-3
-1.360, 2.770e-3
-1.361, 2.801e-3
-1.362, 2.834e-3
-1.363, 2.867e-3
-1.364, 2.899e-3
-1.365, 2.933e-3
-1.366, 2.965e-3
-1.367, 2.999e-3
-1.368, 3.031e-3
-1.369, 3.063e-3
-1.370, 3.096e-3
-1.371, 3.128e-3
-1.372, 3.162e-3
-1.373, 3.193e-3
-1.374, 3.226e-3
-1.375, 3.258e-3
-1.376, 3.291e-3
-1.377, 3.325e-3
-1.378, 3.359e-3
-1.379, 3.394e-3
-1.380, 3.429e-3
-1.381, 3.464e-3
-1.382, 3.499e-3
-1.383, 3.536e-3
-1.384, 3.573e-3
-1.385, 3.608e-3
-1.386, 3.643e-3
-1.387, 3.677e-3
-1.388, 3.713e-3
-1.389, 3.749e-3
-1.390, 3.785e-3
-1.391, 3.826e-3
-1.392, 3.864e-3
-1.393, 3.899e-3
-1.394, 3.935e-3
-1.395, 3.971e-3
-1.396, 4.008e-3
-1.397, 4.045e-3
-1.398, 4.081e-3
-1.399, 4.118e-3
-1.400, 4.097e-3
-1.399, 4.031e-3
-1.398, 3.971e-3
-1.397, 3.914e-3
-1.396, 3.858e-3
-1.395, 3.799e-3
-1.394, 3.746e-3
-1.393, 3.692e-3
-1.392, 3.637e-3
-1.391, 3.586e-3
-1.390, 3.533e-3
-1.389, 3.482e-3
-1.388, 3.431e-3
-1.387, 3.380e-3
-1.386, 3.332e-3
-1.385, 3.283e-3
-1.384, 3.241e-3
-1.383, 3.198e-3
-1.382, 3.150e-3
-1.381, 3.105e-3
-1.380, 3.060e-3
-1.379, 3.017e-3
-1.378, 2.973e-3
-1.377, 2.931e-3
-1.376, 2.888e-3
-1.375, 2.845e-3
-1.374, 2.802e-3
-1.373, 2.761e-3
-1.372, 2.721e-3
-1.371, 2.680e-3
-1.370, 2.641e-3
-1.369, 2.602e-3
-1.368, 2.564e-3
-1.367, 2.528e-3
-1.366, 2.491e-3
-1.365, 2.454e-3
-1.364, 2.416e-3
-1.363, 2.383e-3
-1.362, 2.346e-3
-1.361, 2.310e-3
-1.360, 2.275e-3
-1.359, 2.240e-3
-1.358, 2.206e-3
-1.357, 2.173e-3
-1.356, 2.141e-3
-1.355, 2.108e-3
-1.354, 2.075e-3
-1.353, 2.043e-3
-1.352, 2.014e-3
-1.351, 1.983e-3
-1.350, 1.952e-3
-1.349, 1.922e-3
-1.348, 1.894e-3
-1.347, 1.867e-3
-1.346, 1.838e-3
-1.345, 1.810e-3
-1.344, 1.781e-3
-1.343, 1.753e-3
-1.342, 1.725e-3
-1.341, 1.698e-3
-1.340, 1.672e-3
-1.339, 1.646e-3
-1.338, 1.620e-3
-1.337, 1.594e-3
-1.336, 1.569e-3
-1.335, 1.544e-3
-1.334, 1.519e-3
-1.333, 1.494e-3
-1.332, 1.470e-3
-1.331, 1.447e-3
-1.330, 1.423e-3
-1.329, 1.400e-3
-1.328, 1.378e-3
-1.327, 1.355e-3
-1.326, 1.333e-3
-1.325, 1.312e-3
-1.324, 1.290e-3
-1.323, 1.269e-3
-1.322, 1.248e-3
-1.321, 1.228e-3
-1.320, 1.207e-3
-1.319, 1.187e-3
-1.318, 1.167e-3
-1.317, 1.148e-3
-1.316, 1.130e-3
-1.315, 1.111e-3
-1.314, 1.091e-3
-1.313, 1.075e-3
-1.312, 1.055e-3
-1.311, 1.038e-3
-1.310, 1.020e-3
-1.309, 1.002e-3
-1.308, 9.843e-4
-1.307, 9.671e-4
-1.306, 9.507e-4
-1.305, 9.340e-4
-1.304, 9.181e-4
-1.303, 9.017e-4
-1.302, 8.865e-4
-1.301, 8.708e-4
-1.300, 8.545e-4
-1.299, 8.392e-4
-1.298, 8.242e-4
-1.297, 8.089e-4
-1.296, 7.946e-4
-1.295, 7.817e-4
-1.294, 7.661e-4
-1.293, 7.526e-4
-1.292, 7.394e-4
-1.291, 7.258e-4
-1.290, 7.131e-4
-1.289, 6.992e-4
-1.288, 6.876e-4
-1.287, 6.743e-4
-1.286, 6.614e-4
-1.285, 6.490e-4
-1.284, 6.372e-4
-1.283, 6.249e-4
-1.282, 6.129e-4
-1.281, 6.015e-4
-1.280, 5.895e-4
-1.279, 5.779e-4
-1.278, 5.670e-4
-1.277, 5.563e-4
-1.276, 5.455e-4
-1.275, 5.343e-4
-1.274, 5.237e-4
-1.273, 5.137e-4
-1.272, 5.043e-4
-1.271, 4.946e-4
-1.270, 4.839e-4
-1.269, 4.742e-4
-1.268, 4.649e-4
-1.267, 4.552e-4
-1.266, 4.465e-4
-1.265, 4.370e-4
-1.264, 4.280e-4
-1.263, 4.191e-4
-1.262, 4.103e-4
-1.261, 4.022e-4
-1.260, 3.938e-4
-1.259, 3.853e-4
-1.258, 3.772e-4
-1.257, 3.690e-4
-1.256, 3.614e-4
-1.255, 3.536e-4
-1.254, 3.456e-4
-1.253, 3.384e-4
-1.252, 3.311e-4
-1.251, 3.236e-4
-1.250, 3.167e-4
-1.249, 3.094e-4
-1.248, 3.032e-4
-1.247, 2.964e-4
-1.246, 2.899e-4
-1.245, 2.833e-4
-1.244, 2.764e-4
-1.243, 2.700e-4
-1.242, 2.637e-4
-1.241, 2.575e-4
-1.240, 2.519e-4
-1.239, 2.456e-4
-1.238, 2.399e-4
-1.237, 2.342e-4
-1.236, 2.285e-4
-1.235, 2.226e-4
-1.234, 2.172e-4
-1.233, 2.119e-4
-1.232, 2.067e-4
-1.231, 2.014e-4
-1.230, 1.960e-4
-1.229, 1.903e-4
-1.228, 1.858e-4
-1.227, 1.810e-4
-1.226, 1.763e-4
-1.225, 1.713e-4
-1.224, 1.667e-4
-1.223, 1.624e-4
-1.222, 1.577e-4
-1.221, 1.534e-4
-1.220, 1.492e-4
-1.219, 1.445e-4
-1.218, 1.405e-4
-1.217, 1.363e-4
-1.216, 1.324e-4
-1.215, 1.281e-4
-1.214, 1.244e-4
-1.213, 1.207e-4
-1.212, 1.167e-4
-1.211, 1.131e-4
-1.210, 1.091e-4
-1.209, 1.052e-4
-1.208, 1.020e-4
-1.207, 9.839e-5
-1.206, 9.486e-5
-1.205, 9.142e-5
-1.204, 8.795e-5
-1.203, 8.477e-5
-1.202, 8.165e-5
-1.201, 7.847e-5
-1.200, 7.543e-5
-1.199, 7.209e-5
-1.198, 6.925e-5
-1.197, 6.630e-5
-1.196, 6.337e-5
-1.195, 6.026e-5
-1.194, 5.743e-5
-1.193, 5.485e-5
-1.192, 5.222e-5
-1.191, 4.960e-5
-1.190, 4.670e-5
-1.189, 4.422e-5
-1.188, 4.190e-5
-1.187, 3.942e-5
-1.186, 3.708e-5
-1.185, 3.453e-5
-1.184, 3.224e-5
-1.183, 3.025e-5
-1.182, 2.789e-5
-1.181, 2.605e-5
-1.180, 2.384e-5
-1.179, 2.173e-5
-1.178, 1.983e-5
-1.177, 1.805e-5
-1.176, 1.640e-5
-1.175, 1.455e-5
-1.174, 1.267e-5
-1.173, 1.144e-5
-1.172, 9.744e-6
-1.171, 8.332e-6
-1.170, 6.919e-6
-1.169, 5.277e-6
-1.168, 4.269e-6
-1.167, 2.788e-6
-1.166, 1.353e-6
-1.165, 6.097e-8
-1.164, -1.479e-6
-1.163, -2.595e-6
-1.162, -3.876e-6
-1.161, -5.159e-6
-1.160, -6.456e-6
-1.159, -7.908e-6
-1.158, -9.034e-6
-1.157, -1.020e-5
-1.156, -1.146e-5
-1.155, -1.281e-5
-1.154, -1.402e-5
-1.153, -1.509e-5
-1.152, -1.607e-5
-1.151, -1.699e-5
-1.150, -1.831e-5
-1.149, -1.919e-5
-1.148, -2.006e-5
-1.147, -2.115e-5
-1.146, -2.195e-5
-1.145, -2.320e-5
-1.144, -2.426e-5
-1.143, -2.501e-5
-1.142, -2.619e-5
-1.141, -2.693e-5
-1.140, -2.810e-5
-1.139, -2.933e-5
-1.138, -2.999e-5
-1.137, -3.109e-5
-1.136, -3.196e-5
-1.135, -3.306e-5
-1.134, -3.431e-5
-1.133, -3.499e-5
-1.132, -3.602e-5
-1.131, -3.711e-5
-1.130, -3.815e-5
-1.129, -3.953e-5
-1.128, -4.027e-5
-1.127, -4.130e-5
-1.126, -4.261e-5
-1.125, -4.365e-5
-1.124, -4.484e-5
-1.123, -4.583e-5
-1.122, -4.692e-5
-1.121, -4.817e-5
-1.120, -4.937e-5
-1.119, -5.076e-5
-1.118, -5.180e-5
-1.117, -5.297e-5
-1.116, -5.427e-5
-1.115, -5.590e-5
-1.114, -5.747e-5
-1.113, -5.903e-5
-1.112, -6.089e-5
-1.111, -6.280e-5
-1.110, -6.527e-5
-1.109, -6.770e-5
-1.108, -6.987e-5
-1.107, -7.236e-5
-1.106, -7.443e-5
-1.105, -7.674e-5
-1.104, -7.858e-5
-1.103, -7.999e-5
-1.102, -8.166e-5
-1.101, -8.285e-5
-1.100, -8.441e-5
-1.099, -8.589e-5
-1.098, -8.682e-5
-1.097, -8.816e-5
-1.096, -8.909e-5
-1.095, -9.038e-5
-1.094, -9.179e-5
-1.093, -9.254e-5
-1.092, -9.371e-5
-1.091, -9.486e-5
-1.090, -9.588e-5
-1.089, -9.730e-5
-1.088, -9.810e-5
-1.087, -9.931e-5
-1.086, -1.005e-4
-1.085, -1.015e-4
-1.084, -1.029e-4
-1.083, -1.039e-4
-1.082, -1.049e-4
-1.081, -1.062e-4
-1.080, -1.072e-4
-1.079, -1.087e-4
-1.078, -1.096e-4
-1.077, -1.106e-4
-1.076, -1.120e-4
-1.075, -1.133e-4
-1.074, -1.144e-4
-1.073, -1.155e-4
-1.072, -1.164e-4
-1.071, -1.175e-4
-1.070, -1.190e-4
-1.069, -1.202e-4
-1.068, -1.212e-4
-1.067, -1.224e-4
-1.066, -1.234e-4
-1.065, -1.249e-4
-1.064, -1.261e-4
-1.063, -1.272e-4
-1.062, -1.285e-4
-1.061, -1.296e-4
-1.060, -1.309e-4
-1.059, -1.325e-4
-1.058, -1.335e-4
-1.057, -1.350e-4
-1.056, -1.361e-4
-1.055, -1.375e-4
-1.054, -1.391e-4
-1.053, -1.401e-4
-1.052, -1.415e-4
-1.051, -1.429e-4
-1.050, -1.443e-4
-1.049, -1.460e-4
-1.048, -1.470e-4
-1.047, -1.485e-4
-1.046, -1.500e-4
-1.045, -1.514e-4
-1.044, -1.531e-4
-1.043, -1.544e-4
-1.042, -1.558e-4
-1.041, -1.575e-4
-1.040, -1.588e-4
-1.039, -1.607e-4
-1.038, -1.622e-4
-1.037, -1.636e-4
-1.036, -1.652e-4
-1.035, -1.670e-4
-1.034, -1.688e-4
-1.033, -1.704e-4
-1.032, -1.719e-4
-1.031, -1.736e-4
-1.030, -1.757e-4
-1.029, -1.774e-4
-1.028, -1.791e-4
-1.027, -1.809e-4
-1.026, -1.826e-4
-1.025, -1.848e-4
-1.024, -1.869e-4
-1.023, -1.887e-4
-1.022, -1.908e-4
-1.021, -1.926e-4
-1.020, -1.948e-4
-1.019, -1.969e-4
-1.018, -1.986e-4
-1.017, -2.008e-4
-1.016, -2.027e-4
-1.015, -2.049e-4
-1.014, -2.071e-4
-1.013, -2.089e-4
-1.012, -2.109e-4
-1.011, -2.130e-4
-1.010, -2.151e-4
-1.009, -2.177e-4
-1.008, -2.193e-4
-1.007, -2.215e-4
-1.006, -2.239e-4
-1.005, -2.261e-4
-1.004, -2.286e-4
-1.003, -2.307e-4
-1.002, -2.327e-4
-1.001, -2.351e-4
-1.000, -1.981e-4
-1.001, -1.499e-4
-1.002, -1.201e-4
-1.003, -9.866e-5
-1.004, -8.179e-5
-1.005, -6.808e-5
-1.006, -5.664e-5
-1.007, -4.620e-5
-1.008, -3.748e-5
-1.009, -2.947e-5
-1.010, -2.255e-5
-1.011, -1.656e-5
-1.012, -1.052e-5
-1.013, -5.575e-6
-1.014, -1.052e-6
-1.015, 3.142e-6
-1.016, 6.542e-6
-1.017, 1.020e-5
-1.018, 1.303e-5
-1.019, 1.585e-5
-1.020, 1.846e-5
-1.021, 2.059e-5
-1.022, 2.292e-5
-1.023, 2.508e-5
-1.024, 2.700e-5
-1.025, 2.850e-5
-1.026, 3.003e-5
-1.027, 3.171e-5
-1.028, 3.318e-5
-1.029, 3.449e-5
-1.030, 3.563e-5
-1.031, 3.692e-5
-1.032, 3.836e-5
-1.033, 3.967e-5
-1.034, 4.101e-5
-1.035, 4.209e-5
-1.036, 4.349e-5
-1.037, 4.490e-5
-1.038, 4.610e-5
-1.039, 4.741e-5
-1.040, 4.837e-5
-1.041, 4.943e-5
-1.042, 5.073e-5
-1.043, 5.176e-5
-1.044, 5.282e-5
-1.045, 5.340e-5
-1.046, 5.434e-5
-1.047, 5.537e-5
-1.048, 5.611e-5
-1.049, 5.699e-5
-1.050, 5.773e-5
-1.051, 5.839e-5
-1.052, 5.956e-5
-1.053, 6.046e-5
-1.054, 6.145e-5
-1.055, 6.258e-5
-1.056, 6.363e-5
-1.057, 6.527e-5
-1.058, 6.692e-5
-1.059, 6.823e-5
-1.060, 6.979e-5
-1.061, 7.113e-5
-1.062, 7.277e-5
-1.063, 7.434e-5
-1.064, 7.536e-5
-1.065, 7.631e-5
-1.066, 7.721e-5
-1.067, 7.825e-5
-1.068, 7.917e-5
-1.069, 7.972e-5
-1.070, 8.029e-5
-1.071, 8.087e-5
-1.072, 8.127e-5
-1.073, 8.193e-5
-1.074, 8.220e-5
-1.075, 8.258e-5
-1.076, 8.284e-5
-1.077, 8.315e-5
-1.078, 8.336e-5
-1.079, 8.369e-5
-1.080, 8.355e-5
-1.081, 8.374e-5
-1.082, 8.400e-5
-1.083, 8.409e-5
-1.084, 8.425e-5
-1.085, 8.418e-5
-1.086, 8.417e-5
-1.087, 8.443e-5
-1.088, 8.465e-5
-1.089, 8.468e-5
-1.090, 8.476e-5
-1.091, 8.473e-5
-1.092, 8.509e-5
-1.093, 8.521e-5
-1.094, 8.521e-5
-1.095, 8.528e-5
-1.096, 8.524e-5
-1.097, 8.555e-5
-1.098, 8.582e-5
-1.099, 8.572e-5
-1.100, 8.578e-5
-1.101, 8.580e-5
-1.102, 8.606e-5
-1.103, 8.637e-5
-1.104, 8.637e-5
-1.105, 8.641e-5
-1.106, 8.655e-5
-1.107, 8.682e-5
-1.108, 8.714e-5
-1.109, 8.719e-5
-1.110, 8.728e-5
-1.111, 8.743e-5
-1.112, 8.757e-5
-1.113, 8.792e-5
-1.114, 8.810e-5
-1.115, 8.808e-5
-1.116, 8.824e-5
-1.117, 8.847e-5
-1.118, 8.880e-5
-1.119, 8.910e-5
-1.120, 8.913e-5
-1.121, 8.950e-5
-1.122, 8.972e-5
-1.123, 9.004e-5
-1.124, 9.037e-5
-1.125, 9.049e-5
-1.126, 9.097e-5
-1.127, 9.137e-5
-1.128, 9.157e-5
-1.129, 9.193e-5
-1.130, 9.210e-5
-1.131, 9.217e-5
-1.132, 9.268e-5
-1.133, 9.302e-5
-1.134, 9.376e-5
-1.135, 9.390e-5
-1.136, 9.402e-5
-1.137, 9.438e-5
-1.138, 9.517e-5
-1.139, 9.567e-5
-1.140, 9.594e-5
-1.141, 9.620e-5
-1.142, 9.684e-5
-1.143, 9.751e-5
-1.144, 9.800e-5
-1.145, 9.845e-5
-1.146, 9.897e-5
-1.147, 9.952e-5
-1.148, 1.004e-4
-1.149, 1.011e-4
-1.150, 1.016e-4
-1.151, 1.022e-4
-1.152, 1.028e-4
-1.153, 1.037e-4
-1.154, 1.044e-4
-1.155, 1.051e-4
-1.156, 1.059e-4
-1.157, 1.065e-4
-1.158, 1.076e-4
-1.159, 1.085e-4
-1.160, 1.092e-4
-1.161, 1.101e-4
-1.162, 1.111e-4
-1.163, 1.122e-4
-1.164, 1.133e-4
-1.165, 1.142e-4
-1.166, 1.152e-4
-1.167, 1.164e-4
-1.168, 1.176e-4
-1.169, 1.188e-4
-1.170, 1.199e-4
-1.171, 1.211e-4
-1.172, 1.225e-4
-1.173, 1.239e-4
-1.174, 1.252e-4
-1.175, 1.266e-4
-1.176, 1.279e-4
-1.177, 1.296e-4
-1.178, 1.314e-4
-1.179, 1.327e-4
-1.180, 1.343e-4
-1.181, 1.357e-4
-1.182, 1.375e-4
-1.183, 1.394e-4
-1.184, 1.411e-4
-1.185, 1.429e-4
-1.186, 1.448e-4
-1.187, 1.466e-4
-1.188, 1.488e-4
-1.189, 1.507e-4
-1.190, 1.526e-4
-1.191, 1.549e-4
-1.192, 1.570e-4
-1.193, 1.594e-4
-1.194, 1.617e-4
-1.195, 1.638e-4
-1.196, 1.663e-4
-1.197, 1.686e-4
-1.198, 1.713e-4
-1.199, 1.740e-4
-1.200, 1.764e-4
-1.201, 1.791e-4
-1.202, 1.819e-4
-1.203, 1.847e-4
-1.204, 1.878e-4
-1.205, 1.905e-4
-1.206, 1.935e-4
-1.207, 1.966e-4
-1.208, 1.998e-4
-1.209, 2.031e-4
-1.210, 2.062e-4
-1.211, 2.094e-4
-1.212, 2.130e-4
-1.213, 2.165e-4
-1.214, 2.201e-4
-1.215, 2.238e-4
-1.216, 2.273e-4
-1.217, 2.312e-4
-1.218, 2.353e-4
-1.219, 2.392e-4
-1.220, 2.432e-4
-1.221, 2.470e-4
-1.222, 2.514e-4
-1.223, 2.559e-4
-1.224, 2.601e-4
-1.225, 2.648e-4
-1.226, 2.692e-4
-1.227, 2.736e-4
-1.228, 2.789e-4
-1.229, 2.840e-4
-1.230, 2.884e-4
-1.231, 2.935e-4
-1.232, 2.984e-4
-1.233, 3.038e-4
-1.234, 3.091e-4
-1.235, 3.141e-4
-1.236, 3.199e-4
-1.237, 3.254e-4
-1.238, 3.312e-4
-1.239, 3.372e-4
-1.240, 3.428e-4
-1.241, 3.488e-4
-1.242, 3.549e-4
-1.243, 3.613e-4
-1.244, 3.678e-4
-1.245, 3.739e-4
-1.246, 3.805e-4
-1.247, 3.871e-4
-1.248, 3.938e-4
-1.249, 4.008e-4
-1.250, 4.078e-4
-1.251, 4.146e-4
-1.252, 4.220e-4
-1.253, 4.294e-4
-1.254, 4.369e-4
-1.255, 4.446e-4
-1.256, 4.518e-4
-1.257, 4.600e-4
-1.258, 4.680e-4
-1.259, 4.764e-4
-1.260, 4.842e-4
-1.261, 4.922e-4
-1.262, 5.009e-4
-1.263, 5.098e-4
-1.264, 5.183e-4
-1.265, 5.271e-4
-1.266, 5.358e-4
-1.267, 5.449e-4
-1.268, 5.553e-4
-1.269, 5.642e-4
-1.270, 5.737e-4
-1.271, 5.829e-4
-1.272, 5.925e-4
-1.273, 6.026e-4
-1.274, 6.130e-4
-1.275, 6.231e-4
-1.276, 6.334e-4
-1.277, 6.438e-4
-1.278, 6.548e-4
-1.279, 6.660e-4
-1.280, 6.766e-4
-1.281, 6.874e-4
-1.282, 6.989e-4
-1.283, 7.103e-4
-1.284, 7.221e-4
-1.285, 7.337e-4
-1.286, 7.455e-4
-1.287, 7.577e-4
-1.288, 7.697e-4
-1.289, 7.824e-4
-1.290, 7.960e-4
-1.291, 8.083e-4
-1.292, 8.209e-4
-1.293, 8.340e-4
-1.294, 8.472e-4
-1.295, 8.609e-4
-1.296, 8.742e-4
-1.297, 8.887e-4
-1.298, 9.025e-4
-1.299, 9.161e-4
-1.300, 9.304e-4
-1.301, 9.443e-4
-1.302, 9.586e-4
-1.303, 9.749e-4
-1.304, 9.896e-4
-1.305, 1.004e-3
-1.306, 1.020e-3
-1.307, 1.035e-3
-1.308, 1.051e-3
-1.309, 1.067e-3
-1.310, 1.083e-3
-1.311, 1.099e-3
-1.312, 1.116e-3
-1.313, 1.133e-3
-1.314, 1.150e-3
-1.315, 1.166e-3
-1.316, 1.183e-3
-1.317, 1.200e-3
-1.318, 1.219e-3
-1.319, 1.236e-3
-1.320, 1.254e-3
-1.321, 1.272e-3
-1.322, 1.290e-3
-1.323, 1.309e-3
-1.324, 1.328e-3
-1.325, 1.348e-3
-1.326, 1.366e-3
-1.327, 1.386e-3
-1.328, 1.405e-3
-1.329, 1.425e-3
-1.330, 1.445e-3
-1.331, 1.465e-3
-1.332, 1.485e-3
-1.333, 1.506e-3
-1.334, 1.527e-3
-1.335, 1.548e-3
-1.336, 1.571e-3
-1.337, 1.593e-3
-1.338, 1.615e-3
-1.339, 1.636e-3
-1.340, 1.659e-3
-1.341, 1.683e-3
-1.342, 1.704e-3
-1.343, 1.727e-3
-1.344, 1.750e-3
-1.345, 1.773e-3
-1.346, 1.796e-3
-1.347, 1.819e-3
-1.348, 1.844e-3
-1.349, 1.867e-3
-1.350, 1.891e-3
-1.351, 1.915e-3
-1.352, 1.941e-3
-1.353, 1.966e-3
-1.354, 1.991e-3
-1.355, 2.016e-3
-1.356, 2.042e-3
-1.357, 2.066e-3
-1.358, 2.093e-3
-1.359, 2.119e-3
-1.360, 2.145e-3
-1.361, 2.172e-3
-1.362, 2.198e-3
-1.363, 2.225e-3
-1.364, 2.254e-3
-1.365, 2.281e-3
-1.366, 2.309e-3
-1.367, 2.337e-3
-1.368, 2.366e-3
-1.369, 2.394e-3
-1.370, 2.422e-3
-1.371, 2.452e-3
-1.372, 2.480e-3
-1.373, 2.509e-3
-1.374, 2.540e-3
-1.375, 2.569e-3
-1.376, 2.598e-3
-1.377, 2.631e-3
-1.378, 2.662e-3
-1.379, 2.693e-3
-1.380, 2.722e-3
-1.381, 2.753e-3
-1.382, 2.785e-3
-1.383, 2.817e-3
-1.384, 2.848e-3
-1.385, 2.879e-3
-1.386, 2.910e-3
-1.387, 2.942e-3
-1.388, 2.974e-3
-1.389, 3.011e-3
-1.390, 3.043e-3
-1.391, 3.078e-3
-1.392, 3.110e-3
-1.393, 3.146e-3
-1.394, 3.177e-3
-1.395, 3.211e-3
-1.396, 3.245e-3
-1.397, 3.281e-3
-1.398, 3.314e-3
-1.399, 3.351e-3
-1.400, 3.328e-3
-1.399, 3.273e-3
-1.398, 3.225e-3
-1.397, 3.178e-3
-1.396, 3.132e-3
-1.395, 3.084e-3
-1.394, 3.038e-3
-1.393, 2.994e-3
-1.392, 2.952e-3
-1.391, 2.908e-3
-1.390, 2.865e-3
-1.389, 2.825e-3
-1.388, 2.782e-3
-1.387, 2.741e-3
-1.386, 2.702e-3
-1.385, 2.662e-3
-1.384, 2.622e-3
-1.383, 2.582e-3
-1.382, 2.546e-3
-1.381, 2.510e-3
-1.380, 2.473e-3
-1.379, 2.436e-3
-1.378, 2.401e-3
-1.377, 2.366e-3
-1.376, 2.335e-3
-1.375, 2.300e-3
-1.374, 2.269e-3
-1.373, 2.237e-3
-1.372, 2.208e-3
-1.371, 2.177e-3
-1.370, 2.143e-3
-1.369, 2.111e-3
-1.368, 2.079e-3
-1.367, 2.048e-3
-1.366, 2.016e-3
-1.365, 1.987e-3
-1.364, 1.956e-3
-1.363, 1.927e-3
-1.362, 1.898e-3
-1.361, 1.869e-3
-1.360, 1.840e-3
-1.359, 1.811e-3
-1.358, 1.786e-3
-1.357, 1.757e-3
-1.356, 1.730e-3
-1.355, 1.704e-3
-1.354, 1.678e-3
-1.353, 1.652e-3
-1.352, 1.626e-3
-1.351, 1.601e-3
-1.350, 1.576e-3
-1.349, 1.551e-3
-1.348, 1.526e-3
-1.347, 1.505e-3
-1.346, 1.480e-3
-1.345, 1.457e-3
-1.344, 1.433e-3
-1.343, 1.410e-3
-1.342, 1.390e-3
-1.341, 1.368e-3
-1.340, 1.345e-3
-1.339, 1.323e-3
-1.338, 1.302e-3
-1.337, 1.281e-3
-1.336, 1.260e-3
-1.335, 1.240e-3
-1.334, 1.215e-3
-1.333, 1.197e-3
-1.332, 1.179e-3
-1.331, 1.160e-3
-1.330, 1.140e-3
-1.329, 1.121e-3
-1.328, 1.103e-3
-1.327, 1.087e-3
-1.326, 1.068e-3
-1.325, 1.051e-3
-1.324, 1.033e-3
-1.323, 1.016e-3
-1.322, 9.993e-4
-1.321, 9.811e-4
-1.320, 9.646e-4
-1.319, 9.483e-4
-1.318, 9.323e-4
-1.317, 9.163e-4
-1.316, 9.007e-4
-1.315, 8.866e-4
-1.314, 8.707e-4
-1.313, 8.549e-4
-1.312, 8.408e-4
-1.311, 8.258e-4
-1.310, 8.119e-4
-1.309, 7.981e-4
-1.308, 7.820e-4
-1.307, 7.702e-4
-1.306, 7.566e-4
-1.305, 7.431e-4
-1.304, 7.302e-4
-1.303, 7.168e-4
-1.302, 7.039e-4
-1.301, 6.914e-4
-1.300, 6.797e-4
-1.299, 6.669e-4
-1.298, 6.554e-4
-1.297, 6.430e-4
-1.296, 6.315e-4
-1.295, 6.199e-4
-1.294, 6.085e-4
-1.293, 5.973e-4
-1.292, 5.867e-4
-1.291, 5.756e-4
-1.290, 5.653e-4
-1.289, 5.541e-4
-1.288, 5.439e-4
-1.287, 5.344e-4
-1.286, 5.236e-4
-1.285, 5.142e-4
-1.284, 5.036e-4
-1.283, 4.937e-4
-1.282, 4.853e-4
-1.281, 4.754e-4
-1.280, 4.657e-4
-1.279, 4.568e-4
-1.278, 4.478e-4
-1.277, 4.395e-4
-1.276, 4.310e-4
-1.275, 4.227e-4
-1.274, 4.146e-4
-1.273, 4.060e-4
-1.272, 3.976e-4
-1.271, 3.900e-4
-1.270, 3.821e-4
-1.269, 3.745e-4
-1.268, 3.669e-4
-1.267, 3.591e-4
-1.266, 3.519e-4
-1.265, 3.446e-4
-1.264, 3.377e-4
-1.263, 3.306e-4
-1.262, 3.235e-4
-1.261, 3.168e-4
-1.260, 3.099e-4
-1.259, 3.032e-4
-1.258, 2.971e-4
-1.257, 2.907e-4
-1.256, 2.848e-4
-1.255, 2.783e-4
-1.254, 2.720e-4
-1.253, 2.668e-4
-1.252, 2.607e-4
-1.251, 2.547e-4
-1.250, 2.492e-4
-1.249, 2.431e-4
-1.248, 2.378e-4
-1.247, 2.324e-4
-1.246, 2.271e-4
-1.245, 2.221e-4
-1.244, 2.165e-4
-1.243, 2.114e-4
-1.242, 2.067e-4
-1.241, 2.015e-4
-1.240, 1.967e-4
-1.239, 1.917e-4
-1.238, 1.870e-4
-1.237, 1.827e-4
-1.236, 1.780e-4
-1.235, 1.736e-4
-1.234, 1.692e-4
-1.233, 1.647e-4
-1.232, 1.607e-4
-1.231, 1.565e-4
-1.230, 1.523e-4
-1.229, 1.474e-4
-1.228, 1.437e-4
-1.227, 1.401e-4
-1.226, 1.363e-4
-1.225, 1.325e-4
-1.224, 1.287e-4
-1.223, 1.250e-4
-1.222, 1.216e-4
-1.221, 1.181e-4
-1.220, 1.145e-4
-1.219, 1.108e-4
-1.218, 1.075e-4
-1.217, 1.044e-4
-1.216, 1.012e-4
-1.215, 9.774e-5
-1.214, 9.506e-5
-1.213, 9.169e-5
-1.212, 8.839e-5
-1.211, 8.527e-5
-1.210, 8.240e-5
-1.209, 7.940e-5
-1.208, 7.664e-5
-1.207, 7.407e-5
-1.206, 7.086e-5
-1.205, 6.820e-5
-1.204, 6.525e-5
-1.203, 6.251e-5
-1.202, 6.019e-5
-1.201, 5.737e-5
-1.200, 5.497e-5
-1.199, 5.221e-5
-1.198, 4.991e-5
-1.197, 4.772e-5
-1.196, 4.529e-5
-1.195, 4.288e-5
-1.194, 4.067e-5
-1.193, 3.838e-5
-1.192, 3.652e-5
-1.191, 3.428e-5
-1.190, 3.212e-5
-1.189, 3.001e-5
-1.188, 2.820e-5
-1.187, 2.640e-5
-1.186, 2.441e-5
-1.185, 2.250e-5
-1.184, 2.070e-5
-1.183, 1.897e-5
-1.182, 1.736e-5
-1.181, 1.577e-5
-1.180, 1.414e-5
-1.179, 1.251e-5
-1.178, 1.103e-5
-1.177, 9.664e-6
-1.176, 8.461e-6
-1.175, 7.073e-6
-1.174, 5.647e-6
-1.173, 4.528e-6
-1.172, 3.401e-6
-1.171, 2.157e-6
-1.170, 8.838e-7
-1.169, -4.402e-7
-1.168, -1.453e-6
-1.167, -2.502e-6
-1.166, -3.804e-6
-1.165, -4.977e-6
-1.164, -6.232e-6
-1.163, -7.387e-6
-1.162, -8.287e-6
-1.161, -9.619e-6
-1.160, -1.062e-5
-1.159, -1.199e-5
-1.158, -1.301e-5
-1.157, -1.378e-5
-1.156, -1.487e-5
-1.155, -1.596e-5
-1.154, -1.681e-5
-1.153, -1.776e-5
-1.152, -1.841e-5
-1.151, -1.927e-5
-1.150, -2.029e-5
-1.149, -2.115e-5
-1.148, -2.204e-5
-1.147, -2.286e-5
-1.146, -2.381e-5
-1.145, -2.477e-5
-1.144, -2.568e-5
-1.143, -2.650e-5
-1.142, -2.735e-5
-1.141, -2.817e-5
-1.140, -2.914e-5
-1.139, -3.017e-5
-1.138, -3.093e-5
-1.137, -3.172e-5
-1.136, -3.263e-5
-1.135, -3.348e-5
-1.134, -3.466e-5
-1.133, -3.543e-5
-1.132, -3.620e-5
-1.131, -3.726e-5
-1.130, -3.812e-5
-1.129, -3.925e-5
-1.128, -4.005e-5
-1.127, -4.087e-5
-1.126, -4.203e-5
-1.125, -4.285e-5
-1.124, -4.404e-5
-1.123, -4.496e-5
-1.122, -4.580e-5
-1.121, -4.700e-5
-1.120, -4.794e-5
-1.119, -4.924e-5
-1.118, -5.040e-5
-1.117, -5.123e-5
-1.116, -5.249e-5
-1.115, -5.399e-5
-1.114, -5.547e-5
-1.113, -5.711e-5
-1.112, -5.858e-5
-1.111, -6.064e-5
-1.110, -6.281e-5
-1.109, -6.499e-5
-1.108, -6.715e-5
-1.107, -6.913e-5
-1.106, -7.110e-5
-1.105, -7.311e-5
-1.104, -7.470e-5
-1.103, -7.616e-5
-1.102, -7.741e-5
-1.101, -7.862e-5
-1.100, -7.992e-5
-1.099, -8.118e-5
-1.098, -8.226e-5
-1.097, -8.321e-5
-1.096, -8.417e-5
-1.095, -8.537e-5
-1.094, -8.656e-5
-1.093, -8.769e-5
-1.092, -8.857e-5
-1.091, -8.960e-5
-1.090, -9.060e-5
-1.089, -9.180e-5
-1.088, -9.268e-5
-1.087, -9.361e-5
-1.086, -9.469e-5
-1.085, -9.562e-5
-1.084, -9.687e-5
-1.083, -9.789e-5
-1.082, -9.869e-5
-1.081, -9.987e-5
-1.080, -1.007e-4
-1.079, -1.020e-4
-1.078, -1.032e-4
-1.077, -1.039e-4
-1.076, -1.053e-4
-1.075, -1.066e-4
-1.074, -1.076e-4
-1.073, -1.088e-4
-1.072, -1.094e-4
-1.071, -1.107e-4
-1.070, -1.120e-4
-1.069, -1.131e-4
-1.068, -1.143e-4
-1.067, -1.153e-4
-1.066, -1.164e-4
-1.065, -1.178e-4
-1.064, -1.190e-4
-1.063, -1.203e-4
-1.062, -1.214e-4
-1.061, -1.226e-4
-1.060, -1.239e-4
-1.059, -1.254e-4
-1.058, -1.265e-4
-1.057, -1.277e-4
-1.056, -1.290e-4
-1.055, -1.304e-4
-1.054, -1.320e-4
-1.053, -1.332e-4
-1.052, -1.343e-4
-1.051, -1.358e-4
-1.050, -1.373e-4
-1.049, -1.389e-4
-1.048, -1.403e-4
-1.047, -1.416e-4
-1.046, -1.432e-4
-1.045, -1.447e-4
-1.044, -1.464e-4
-1.043, -1.480e-4
-1.042, -1.493e-4
-1.041, -1.511e-4
-1.040, -1.527e-4
-1.039, -1.546e-4
-1.038, -1.563e-4
-1.037, -1.577e-4
-1.036, -1.596e-4
-1.035, -1.614e-4
-1.034, -1.633e-4
-1.033, -1.653e-4
-1.032, -1.667e-4
-1.031, -1.690e-4
-1.030, -1.710e-4
-1.029, -1.728e-4
-1.028, -1.747e-4
-1.027, -1.767e-4
-1.026, -1.785e-4
-1.025, -1.809e-4
-1.024, -1.831e-4
-1.023, -1.853e-4
-1.022, -1.871e-4
-1.021, -1.892e-4
-1.020, -1.915e-4
-1.019, -1.938e-4
-1.018, -1.961e-4
-1.017, -1.982e-4
-1.016, -2.004e-4
-1.015, -2.028e-4
-1.014, -2.055e-4
-1.013, -2.076e-4
-1.012, -2.100e-4
-1.011, -2.124e-4
-1.010, -2.148e-4
-1.009, -2.175e-4
-1.008, -2.197e-4
-1.007, -2.221e-4
-1.006, -2.249e-4
-1.005, -2.275e-4
-1.004, -2.300e-4
-1.003, -2.324e-4
-1.002, -2.346e-4
-1.001, -2.373e-4
-1.000, -2.006e-4
-1.001, -1.517e-4
-1.002, -1.217e-4
-1.003, -9.979e-5
-1.004, -8.263e-5
-1.005, -6.896e-5
-1.006, -5.748e-5
-1.007, -4.715e-5
-1.008, -3.828e-5
-1.009, -3.025e-5
-1.010, -2.306e-5
-1.011, -1.677e-5
-1.012, -1.073e-5
-1.013, -5.406e-6
-1.014, -7.342e-7
-1.015, 3.460e-6
-1.016, 7.020e-6
-1.017, 1.046e-5
-1.018, 1.388e-5
-1.019, 1.658e-5
-1.020, 1.922e-5
-1.021, 2.142e-5
-1.022, 2.357e-5
-1.023, 2.562e-5
-1.024, 2.752e-5
-1.025, 2.920e-5
-1.026, 3.077e-5
-1.027, 3.202e-5
-1.028, 3.382e-5
-1.029, 3.493e-5
-1.030, 3.617e-5
-1.031, 3.734e-5
-1.032, 3.842e-5
-1.033, 3.975e-5
-1.034, 4.084e-5
-1.035, 4.198e-5
-1.036, 4.315e-5
-1.037, 4.423e-5
-1.038, 4.562e-5
-1.039, 4.680e-5
-1.040, 4.782e-5
-1.041, 4.875e-5
-1.042, 4.986e-5
-1.043, 5.088e-5
-1.044, 5.194e-5
-1.045, 5.268e-5
-1.046, 5.342e-5
-1.047, 5.445e-5
-1.048, 5.537e-5
-1.049, 5.627e-5
-1.050, 5.714e-5
-1.051, 5.800e-5
-1.052, 5.916e-5
-1.053, 6.047e-5
-1.054, 6.180e-5
-1.055, 6.345e-5
-1.056, 6.498e-5
-1.057, 6.690e-5
-1.058, 6.886e-5
-1.059, 7.066e-5
-1.060, 7.227e-5
-1.061, 7.374e-5
-1.062, 7.524e-5
-1.063, 7.674e-5
-1.064, 7.781e-5
-1.065, 7.864e-5
-1.066, 7.950e-5
-1.067, 8.024e-5
-1.068, 8.114e-5
-1.069, 8.163e-5
-1.070, 8.203e-5
-1.071, 8.244e-5
-1.072, 8.272e-5
-1.073, 8.326e-5
-1.074, 8.360e-5
-1.075, 8.388e-5
-1.076, 8.403e-5
-1.077, 8.408e-5
-1.078, 8.445e-5
-1.079, 8.470e-5
-1.080, 8.466e-5
-1.081, 8.466e-5
-1.082, 8.484e-5
-1.083, 8.496e-5
-1.084, 8.520e-5
-1.085, 8.507e-5
-1.086, 8.507e-5
-1.087, 8.522e-5
-1.088, 8.530e-5
-1.089, 8.538e-5
-1.090, 8.539e-5
-1.091, 8.523e-5
-1.092, 8.546e-5
-1.093, 8.560e-5
-1.094, 8.553e-5
-1.095, 8.558e-5
-1.096, 8.529e-5
-1.097, 8.547e-5
-1.098, 8.564e-5
-1.099, 8.571e-5
-1.100, 8.570e-5
-1.101, 8.568e-5
-1.102, 8.578e-5
-1.103, 8.606e-5
-1.104, 8.605e-5
-1.105, 8.607e-5
-1.106, 8.615e-5
-1.107, 8.619e-5
-1.108, 8.654e-5
-1.109, 8.652e-5
-1.110, 8.655e-5
-1.111, 8.663e-5
-1.112, 8.665e-5
-1.113, 8.691e-5
-1.114, 8.707e-5
-1.115, 8.705e-5
-1.116, 8.704e-5
-1.117, 8.721e-5
-1.118, 8.751e-5
-1.119, 8.774e-5
-1.120, 8.754e-5
-1.121, 8.763e-5
-1.122, 8.800e-5
-1.123, 8.808e-5
-1.124, 8.845e-5
-1.125, 8.843e-5
-1.126, 8.844e-5
-1.127, 8.882e-5
-1.128, 8.911e-5
-1.129, 8.940e-5
-1.130, 8.943e-5
-1.131, 8.948e-5
-1.132, 8.996e-5
-1.133, 9.028e-5
-1.134, 9.054e-5
-1.135, 9.081e-5
-1.136, 9.081e-5
-1.137, 9.118e-5
-1.138, 9.173e-5
-1.139, 9.188e-5
-1.140, 9.228e-5
-1.141, 9.244e-5
-1.142, 9.278e-5
-1.143, 9.353e-5
-1.144, 9.395e-5
-1.145, 9.419e-5
-1.146, 9.466e-5
-1.147, 9.510e-5
-1.148, 9.575e-5
-1.149, 9.617e-5
-1.150, 9.659e-5
-1.151, 9.718e-5
-1.152, 9.761e-5
-1.153, 9.835e-5
-1.154, 9.894e-5
-1.155, 9.945e-5
-1.156, 1.002e-4
-1.157, 1.007e-4
-1.158, 1.016e-4
-1.159, 1.024e-4
-1.160, 1.028e-4
-1.161, 1.036e-4
-1.162, 1.045e-4
-1.163, 1.053e-4
-1.164, 1.063e-4
-1.165, 1.069e-4
-1.166, 1.078e-4
-1.167, 1.089e-4
-1.168, 1.098e-4
-1.169, 1.108e-4
-1.170, 1.118e-4
-1.171, 1.126e-4
-1.172, 1.139e-4
-1.173, 1.149e-4
-1.174, 1.162e-4
-1.175, 1.174e-4
-1.176, 1.183e-4
-1.177, 1.198e-4
-1.178, 1.213e-4
-1.179, 1.223e-4
-1.180, 1.238e-4
-1.181, 1.251e-4
-1.182, 1.266e-4
-1.183, 1.281e-4
-1.184, 1.295e-4
-1.185, 1.311e-4
-1.186, 1.326e-4
-1.187, 1.342e-4
-1.188, 1.361e-4
-1.189, 1.377e-4
-1.190, 1.395e-4
-1.191, 1.412e-4
-1.192, 1.431e-4
-1.193, 1.452e-4
-1.194, 1.473e-4
-1.195, 1.489e-4
-1.196, 1.512e-4
-1.197, 1.532e-4
-1.198, 1.555e-4
-1.199, 1.577e-4
-1.200, 1.597e-4
-1.201, 1.620e-4
-1.202, 1.643e-4
-1.203, 1.668e-4
-1.204, 1.695e-4
-1.205, 1.717e-4
-1.206, 1.742e-4
-1.207, 1.770e-4
-1.208, 1.797e-4
-1.209, 1.826e-4
-1.210, 1.854e-4
-1.211, 1.880e-4
-1.212, 1.911e-4
-1.213, 1.940e-4
-1.214, 1.973e-4
-1.215, 2.003e-4
-1.216, 2.034e-4
-1.217, 2.070e-4
-1.218, 2.104e-4
-1.219, 2.137e-4
-1.220, 2.175e-4
-1.221, 2.207e-4
-1.222, 2.244e-4
-1.223, 2.283e-4
-1.224, 2.319e-4
-1.225, 2.358e-4
-1.226, 2.395e-4
-1.227, 2.435e-4
-1.228, 2.481e-4
-1.229, 2.525e-4
-1.230, 2.562e-4
-1.231, 2.604e-4
-1.232, 2.646e-4
-1.233, 2.693e-4
-1.234, 2.739e-4
-1.235, 2.784e-4
-1.236, 2.831e-4
-1.237, 2.878e-4
-1.238, 2.930e-4
-1.239, 2.985e-4
-1.240, 3.030e-4
-1.241, 3.083e-4
-1.242, 3.135e-4
-1.243, 3.189e-4
-1.244, 3.244e-4
-1.245, 3.297e-4
-1.246, 3.355e-4
-1.247, 3.421e-4
-1.248, 3.477e-4
-1.249, 3.534e-4
-1.250, 3.591e-4
-1.251, 3.652e-4
-1.252, 3.715e-4
-1.253, 3.780e-4
-1.254, 3.845e-4
-1.255, 3.913e-4
-1.256, 3.977e-4
-1.257, 4.045e-4
-1.258, 4.116e-4
-1.259, 4.181e-4
-1.260, 4.255e-4
-1.261, 4.326e-4
-1.262, 4.398e-4
-1.263, 4.478e-4
-1.264, 4.551e-4
-1.265, 4.627e-4
-1.266, 4.702e-4
-1.267, 4.779e-4
-1.268, 4.864e-4
-1.269, 4.944e-4
-1.270, 5.025e-4
-1.271, 5.110e-4
-1.272, 5.197e-4
-1.273, 5.284e-4
-1.274, 5.370e-4
-1.275, 5.454e-4
-1.276, 5.544e-4
-1.277, 5.633e-4
-1.278, 5.729e-4
-1.279, 5.825e-4
-1.280, 5.918e-4
-1.281, 6.010e-4
-1.282, 6.108e-4
-1.283, 6.208e-4
-1.284, 6.316e-4
-1.285, 6.414e-4
-1.286, 6.518e-4
-1.287, 6.624e-4
-1.288, 6.733e-4
-1.289, 6.843e-4
-1.290, 6.955e-4
-1.291, 7.065e-4
-1.292, 7.180e-4
-1.293, 7.290e-4
-1.294, 7.405e-4
-1.295, 7.512e-4
-1.296, 7.629e-4
-1.297, 7.751e-4
-1.298, 7.874e-4
-1.299, 7.993e-4
-1.300, 8.118e-4
-1.301, 8.241e-4
-1.302, 8.376e-4
-1.303, 8.505e-4
-1.304, 8.634e-4
-1.305, 8.767e-4
-1.306, 8.899e-4
-1.307, 9.036e-4
-1.308, 9.177e-4
-1.309, 9.309e-4
-1.310, 9.444e-4
-1.311, 9.594e-4
-1.312, 9.750e-4
-1.313, 9.898e-4
-1.314, 1.004e-3
-1.315, 1.019e-3
-1.316, 1.034e-3
-1.317, 1.050e-3
-1.318, 1.066e-3
-1.319, 1.082e-3
-1.320, 1.098e-3
-1.321, 1.113e-3
-1.322, 1.129e-3
-1.323, 1.145e-3
-1.324, 1.162e-3
-1.325, 1.179e-3
-1.326, 1.196e-3
-1.327, 1.213e-3
-1.328, 1.229e-3
-1.329, 1.247e-3
-1.330, 1.265e-3
-1.331, 1.282e-3
-1.332, 1.303e-3
-1.333, 1.320e-3
-1.334, 1.339e-3
-1.335, 1.358e-3
-1.336, 1.376e-3
-1.337, 1.395e-3
-1.338, 1.415e-3
-1.339, 1.435e-3
-1.340, 1.454e-3
-1.341, 1.473e-3
-1.342, 1.493e-3
-1.343, 1.513e-3
-1.344, 1.534e-3
-1.345, 1.555e-3
-1.346, 1.575e-3
-1.347, 1.596e-3
-1.348, 1.618e-3
-1.349, 1.639e-3
-1.350, 1.660e-3
-1.351, 1.682e-3
-1.352, 1.703e-3
-1.353, 1.726e-3
-1.354, 1.750e-3
-1.355, 1.773e-3
-1.356, 1.796e-3
-1.357, 1.819e-3
-1.358, 1.842e-3
-1.359, 1.865e-3
-1.360, 1.889e-3
-1.361, 1.913e-3
-1.362, 1.938e-3
-1.363, 1.963e-3
-1.364, 1.987e-3
-1.365, 2.012e-3
-1.366, 2.037e-3
-1.367, 2.063e-3
-1.368, 2.088e-3
-1.369, 2.114e-3
-1.370, 2.141e-3
-1.371, 2.165e-3
-1.372, 2.191e-3
-1.373, 2.219e-3
-1.374, 2.249e-3
-1.375, 2.274e-3
-1.376, 2.301e-3
-1.377, 2.329e-3
-1.378, 2.355e-3
-1.379, 2.383e-3
-1.380, 2.411e-3
-1.381, 2.438e-3
-1.382, 2.467e-3
-1.383, 2.497e-3
-1.384, 2.525e-3
-1.385, 2.554e-3
-1.386, 2.583e-3
-1.387, 2.616e-3
-1.388, 2.644e-3
-1.389, 2.673e-3
-1.390, 2.701e-3
-1.391, 2.732e-3
-1.392, 2.760e-3
-1.393, 2.797e-3
-1.394, 2.828e-3
-1.395, 2.859e-3
-1.396, 2.889e-3
-1.397, 2.922e-3
-1.398, 2.954e-3
-1.399, 2.985e-3
-1.400, 2.968e-3
-1.399, 2.914e-3
-1.398, 2.871e-3
-1.397, 2.829e-3
-1.396, 2.785e-3
-1.395, 2.742e-3
-1.394, 2.703e-3
-1.393, 2.662e-3
-1.392, 2.623e-3
-1.391, 2.590e-3
-1.390, 2.554e-3
-1.389, 2.514e-3
-1.388, 2.512e-3
-1.387, 2.452e-3
-1.386, 2.414e-3
-1.385, 2.380e-3
-1.384, 2.350e-3
-1.383, 2.317e-3
-1.382, 2.301e-3
-1.381, 2.269e-3
-1.380, 2.240e-3
-1.379, 2.206e-3
-1.378, 2.173e-3
-1.377, 2.142e-3
-1.376, 2.112e-3
-1.375, 2.077e-3
-1.374, 2.045e-3
-1.373, 2.016e-3
-1.372, 1.994e-3
-1.371, 1.958e-3
-1.370, 1.927e-3
-1.369, 1.896e-3
-1.368, 1.868e-3
-1.367, 1.840e-3
-1.366, 1.810e-3
-1.365, 1.783e-3
-1.364, 1.756e-3
-1.363, 1.727e-3
-1.362, 1.699e-3
-1.361, 1.672e-3
-1.360, 1.647e-3
-1.359, 1.624e-3
-1.358, 1.596e-3
-1.357, 1.570e-3
-1.356, 1.545e-3
-1.355, 1.520e-3
-1.354, 1.496e-3
-1.353, 1.472e-3
-1.352, 1.450e-3
-1.351, 1.426e-3
-1.350, 1.404e-3
-1.349, 1.382e-3
-1.348, 1.359e-3
-1.347, 1.337e-3
-1.346, 1.316e-3
-1.345, 1.294e-3
-1.344, 1.273e-3
-1.343, 1.253e-3
-1.342, 1.232e-3
-1.341, 1.212e-3
-1.340, 1.192e-3
-1.339, 1.173e-3
-1.338, 1.153e-3
-1.337, 1.133e-3
-1.336, 1.116e-3
-1.335, 1.098e-3
-1.334, 1.079e-3
-1.333, 1.061e-3
-1.332, 1.043e-3
-1.331, 1.031e-3
-1.330, 1.011e-3
-1.329, 9.921e-4
-1.328, 9.759e-4
-1.327, 9.598e-4
-1.326, 9.433e-4
-1.325, 9.275e-4
-1.324, 9.114e-4
-1.323, 8.961e-4
-1.322, 8.818e-4
-1.321, 8.660e-4
-1.320, 8.508e-4
-1.319, 8.364e-4
-1.318, 8.215e-4
-1.317, 8.069e-4
-1.316, 7.940e-4
-1.315, 7.811e-4
-1.314, 7.664e-4
-1.313, 7.529e-4
-1.312, 7.401e-4
-1.311, 7.271e-4
-1.310, 7.143e-4
-1.309, 7.022e-4
-1.308, 6.896e-4
-1.307, 6.774e-4
-1.306, 6.654e-4
-1.305, 6.531e-4
-1.304, 6.413e-4
-1.303, 6.298e-4
-1.302, 6.183e-4
-1.301, 6.076e-4
-1.300, 5.961e-4
-1.299, 5.840e-4
-1.298, 5.746e-4
-1.297, 5.641e-4
-1.296, 5.534e-4
-1.295, 5.430e-4
-1.294, 5.328e-4
-1.293, 5.235e-4
-1.292, 5.138e-4
-1.291, 5.048e-4
-1.290, 4.935e-4
-1.289, 4.833e-4
-1.288, 4.754e-4
-1.287, 4.662e-4
-1.286, 4.584e-4
-1.285, 4.496e-4
-1.284, 4.401e-4
-1.283, 4.320e-4
-1.282, 4.237e-4
-1.281, 4.156e-4
-1.280, 4.078e-4
-1.279, 3.999e-4
-1.278, 3.920e-4
-1.277, 3.845e-4
-1.276, 3.770e-4
-1.275, 3.690e-4
-1.274, 3.617e-4
-1.273, 3.545e-4
-1.272, 3.475e-4
-1.271, 3.407e-4
-1.270, 3.333e-4
-1.269, 3.266e-4
-1.268, 3.199e-4
-1.267, 3.132e-4
-1.266, 3.068e-4
-1.265, 3.003e-4
-1.264, 2.942e-4
-1.263, 2.880e-4
-1.262, 2.818e-4
-1.261, 2.760e-4
-1.260, 2.696e-4
-1.259, 2.635e-4
-1.258, 2.581e-4
-1.257, 2.523e-4
-1.256, 2.472e-4
-1.255, 2.414e-4
-1.254, 2.359e-4
-1.253, 2.312e-4
-1.252, 2.258e-4
-1.251, 2.208e-4
-1.250, 2.156e-4
-1.249, 2.102e-4
-1.248, 2.055e-4
-1.247, 2.007e-4
-1.246, 1.960e-4
-1.245, 1.914e-4
-1.244, 1.865e-4
-1.243, 1.822e-4
-1.242, 1.779e-4
-1.241, 1.734e-4
-1.240, 1.694e-4
-1.239, 1.649e-4
-1.238, 1.610e-4
-1.237, 1.572e-4
-1.236, 1.532e-4
-1.235, 1.491e-4
-1.234, 1.451e-4
-1.233, 1.412e-4
-1.232, 1.375e-4
-1.231, 1.340e-4
-1.230, 1.300e-4
-1.229, 1.256e-4
-1.228, 1.226e-4
-1.227, 1.193e-4
-1.226, 1.161e-4
-1.225, 1.124e-4
-1.224, 1.091e-4
-1.223, 1.060e-4
-1.222, 1.027e-4
-1.221, 9.981e-5
-1.220, 9.646e-5
-1.219, 9.325e-5
-1.218, 9.041e-5
-1.217, 8.731e-5
-1.216, 8.470e-5
-1.215, 8.160e-5
-1.214, 7.858e-5
-1.213, 7.622e-5
-1.212, 7.338e-5
-1.211, 7.090e-5
-1.210, 6.808e-5
-1.209, 6.526e-5
-1.208, 6.309e-5
-1.207, 6.059e-5
-1.206, 5.800e-5
-1.205, 5.557e-5
-1.204, 5.308e-5
-1.203, 5.077e-5
-1.202, 4.850e-5
-1.201, 4.621e-5
-1.200, 4.399e-5
-1.199, 4.167e-5
-1.198, 3.963e-5
-1.197, 3.764e-5
-1.196, 3.557e-5
-1.195, 3.350e-5
-1.194, 3.143e-5
-1.193, 2.956e-5
-1.192, 2.786e-5
-1.191, 2.598e-5
-1.190, 2.404e-5
-1.189, 2.220e-5
-1.188, 2.069e-5
-1.187, 1.905e-5
-1.186, 1.755e-5
-1.185, 1.576e-5
-1.184, 1.425e-5
-1.183, 1.295e-5
-1.182, 1.146e-5
-1.181, 1.022e-5
-1.180, 8.778e-6
-1.179, 7.265e-6
-1.178, 6.234e-6
-1.177, 4.869e-6
-1.176, 3.914e-6
-1.175, 2.655e-6
-1.174, 1.298e-6
-1.173, 4.655e-7
-1.172, -7.737e-7
-1.171, -1.808e-6
-1.170, -3.014e-6
-1.169, -4.325e-6
-1.168, -5.021e-6
-1.167, -6.145e-6
-1.166, -7.283e-6
-1.165, -8.401e-6
-1.164, -9.661e-6
-1.163, -1.050e-5
-1.162, -1.157e-5
-1.161, -1.260e-5
-1.160, -1.364e-5
-1.159, -1.471e-5
-1.158, -1.557e-5
-1.157, -1.644e-5
-1.156, -1.730e-5
-1.155, -1.833e-5
-1.154, -1.912e-5
-1.153, -1.986e-5
-1.152, -2.070e-5
-1.151, -2.142e-5
-1.150, -2.247e-5
-1.149, -2.332e-5
-1.148, -2.394e-5
-1.147, -2.486e-5
-1.146, -2.557e-5
-1.145, -2.659e-5
-1.144, -2.745e-5
-1.143, -2.805e-5
-1.142, -2.906e-5
-1.141, -2.976e-5
-1.140, -3.075e-5
-1.139, -3.171e-5
-1.138, -3.221e-5
-1.137, -3.314e-5
-1.136, -3.387e-5
-1.135, -3.481e-5
-1.134, -3.605e-5
-1.133, -3.649e-5
-1.132, -3.745e-5
-1.131, -3.821e-5
-1.130, -3.910e-5
-1.129, -4.031e-5
-1.128, -4.081e-5
-1.127, -4.175e-5
-1.126, -4.274e-5
-1.125, -4.371e-5
-1.124, -4.470e-5
-1.123, -4.546e-5
-1.122, -4.638e-5
-1.121, -4.752e-5
-1.120, -4.847e-5
-1.119, -4.969e-5
-1.118, -5.067e-5
-1.117, -5.171e-5
-1.116, -5.295e-5
-1.115, -5.440e-5
-1.114, -5.601e-5
-1.113, -5.756e-5
-1.112, -5.923e-5
-1.111, -6.107e-5
-1.110, -6.338e-5
-1.109, -6.534e-5
-1.108, -6.718e-5
-1.107, -6.905e-5
-1.106, -7.060e-5
-1.105, -7.240e-5
-1.104, -7.374e-5
-1.103, -7.496e-5
-1.102, -7.617e-5
-1.101, -7.725e-5
-1.100, -7.846e-5
-1.099, -7.980e-5
-1.098, -8.041e-5
-1.097, -8.149e-5
-1.096, -8.243e-5
-1.095, -8.352e-5
-1.094, -8.466e-5
-1.093, -8.532e-5
-1.092, -8.620e-5
-1.091, -8.725e-5
-1.090, -8.816e-5
-1.089, -8.937e-5
-1.088, -8.994e-5
-1.087, -9.104e-5
-1.086, -9.205e-5
-1.085, -9.305e-5
-1.084, -9.421e-5
-1.083, -9.500e-5
-1.082, -9.599e-5
-1.081, -9.701e-5
-1.080, -9.793e-5
-1.079, -9.911e-5
-1.078, -1.001e-4
-1.077, -1.009e-4
-1.076, -1.021e-4
-1.075, -1.035e-4
-1.074, -1.046e-4
-1.073, -1.054e-4
-1.072, -1.063e-4
-1.071, -1.075e-4
-1.070, -1.087e-4
-1.069, -1.099e-4
-1.068, -1.109e-4
-1.067, -1.120e-4
-1.066, -1.131e-4
-1.065, -1.146e-4
-1.064, -1.156e-4
-1.063, -1.167e-4
-1.062, -1.181e-4
-1.061, -1.192e-4
-1.060, -1.207e-4
-1.059, -1.220e-4
-1.058, -1.230e-4
-1.057, -1.243e-4
-1.056, -1.255e-4
-1.055, -1.272e-4
-1.054, -1.286e-4
-1.053, -1.297e-4
-1.052, -1.312e-4
-1.051, -1.327e-4
-1.050, -1.341e-4
-1.049, -1.359e-4
-1.048, -1.370e-4
-1.047, -1.385e-4
-1.046, -1.402e-4
-1.045, -1.416e-4
-1.044, -1.434e-4
-1.043, -1.450e-4
-1.042, -1.465e-4
-1.041, -1.483e-4
-1.040, -1.498e-4
-1.039, -1.518e-4
-1.038, -1.534e-4
-1.037, -1.550e-4
-1.036, -1.569e-4
-1.035, -1.590e-4
-1.034, -1.609e-4
-1.033, -1.628e-4
-1.032, -1.644e-4
-1.031, -1.665e-4
-1.030, -1.687e-4
-1.029, -1.706e-4
-1.028, -1.726e-4
-1.027, -1.746e-4
-1.026, -1.768e-4
-1.025, -1.791e-4
-1.024, -1.814e-4
-1.023, -1.833e-4
-1.022, -1.856e-4
-1.021, -1.879e-4
-1.020, -1.904e-4
-1.019, -1.929e-4
-1.018, -1.949e-4
-1.017, -1.972e-4
-1.016, -1.994e-4
-1.015, -2.019e-4
-1.014, -2.046e-4
-1.013, -2.066e-4
-1.012, -2.090e-4
-1.011, -2.114e-4
-1.010, -2.140e-4
-1.009, -2.167e-4
-1.008, -2.188e-4
-1.007, -2.213e-4
-1.006, -2.239e-4
-1.005, -2.264e-4
-1.004, -2.292e-4
-1.003, -2.315e-4
-1.002, -2.336e-4
-1.001, -2.364e-4
