Potential V vs RHE, Current mA cm-2
0.05339999999999995,7.065068231525992
0.05239999999999995,6.922182390239625
0.051399999999999946,6.75807587945528
0.050399999999999945,6.613775326869046
0.049399999999999944,6.480792464681733
0.04839999999999994,6.352053736394015
0.04739999999999994,6.227559142005892
0.04639999999999994,6.107308681517363
0.04539999999999994,5.9884729323287
0.04439999999999994,5.872466605739767
0.04339999999999994,5.756460279150835
0.04239999999999994,5.641868663861766
0.04139999999999994,5.528691759872564
0.040399999999999936,5.415514855883361
0.039399999999999935,5.305167374493887
0.038399999999999934,5.196234604404279
0.03739999999999993,5.088716545614537
0.03639999999999993,4.981198486824794
0.03539999999999993,4.875095139334916
0.03439999999999993,4.771821214444769
0.03339999999999993,4.668547289554621
0.03239999999999993,4.565273364664473
0.03139999999999993,4.4648288623740555
0.030399999999999927,4.367213782683368
0.029399999999999926,4.269598702992681
0.028399999999999925,4.171983623301993
0.027399999999999924,4.075783254911171
0.026399999999999924,3.9809975978202137
0.025399999999999923,3.887626652029121
0.024399999999999922,3.7970851288377587
0.02339999999999992,3.7051288943465317
0.02239999999999992,3.6160020824550334
0.02139999999999992,3.5268752705635364
0.020399999999999918,3.440577881271769
0.019399999999999917,3.355695203279867
0.018399999999999916,3.2693978139880997
0.017399999999999916,3.1859298472960624
0.016399999999999915,3.1038765919038904
0.015399999999999914,3.0232380478115832
0.014399999999999913,2.9440142150191413
0.013399999999999912,2.864790382226699
0.012399999999999911,2.7869812607341222
0.01139999999999991,2.7105868505414104
0.01039999999999991,2.6356071516485633
0.009399999999999908,2.5620421640555815
0.008399999999999908,2.4884771764625997
0.007399999999999907,2.4163269001694827
0.006399999999999906,2.347006046476096
0.005399999999999905,2.2776851927827093
0.004399999999999904,2.2097790503891876
0.003399999999999903,2.1432876192955304
0.002399999999999902,2.076796188201874
0.0013999999999999013,2.011719468408082
0.00039999999999990044,1.9480574599141556
-0.0006000000000001005,1.8858101627200938
-0.0016000000000001013,1.8249775768258971
-0.0026000000000001022,1.7641449909317006
-0.003600000000000103,1.7047271163373692
-0.004600000000000104,1.6467239530429028
-0.005600000000000105,1.5901355010483011
-0.006600000000000106,1.5349617603535646
-0.007600000000000107,1.4797880196588282
-0.008600000000000108,1.4246142789640919
-0.009600000000000108,1.372128489739099
-0.01060000000000011,1.3203500561640389
-0.01160000000000011,1.2691375071089246
-0.012600000000000111,1.2175005446638505
-0.013600000000000112,1.1677027069086015
-0.014600000000000113,1.1204513494931092
-0.015600000000000114,1.0737658765975628
-0.016600000000000115,1.027504817091976
-0.017600000000000116,0.9825169977562679
-0.018600000000000116,0.9379535918105193
-0.019600000000000117,0.8949463682946223
-0.020600000000000118,0.8526465004286576
-0.02160000000000012,0.810346632562693
-0.02260000000000012,0.7694614759965934
-0.02360000000000012,0.7292836750804264
-0.024600000000000122,0.6908035277240974
-0.025600000000000123,0.6531722071476874
-0.026600000000000124,0.615399415441291
-0.027600000000000124,0.5779095659948674
-0.028600000000000125,0.5422588412382686
-0.029600000000000126,0.5071740010016156
-0.030600000000000127,0.4733624009348413
-0.03160000000000013,0.4392678586080939
-0.03260000000000013,0.405880671931279
-0.03360000000000013,0.37390819655432916
-0.03460000000000002,0.3427845479572984
-0.03560000000000002,0.31236825501020005
-0.03660000000000002,0.28251784658304785
-0.03760000000000002,0.252808909285882
-0.03860000000000002,0.2239487987686353
-0.039600000000000024,0.19593751503130757
-0.040600000000000025,0.16877505807389886
-0.041600000000000026,0.1423199567664227
-0.04260000000000003,0.11570923721596137
-0.04360000000000003,0.09018784536639608
-0.04460000000000003,0.06551528029674986
-0.04560000000000003,0.04171983623301993
-0.04660000000000003,0.018348805559249524
-0.04760000000000003,-0.005576791944067974
-0.04860000000000003,-0.027982989511330426
-0.04960000000000003,-0.04975539641625334
-0.050600000000000034,-0.07121656683520594
-0.051600000000000035,-0.09212599984721119
-0.052600000000000036,-0.11337496357118404
-0.053600000000000037,-0.13361948227225273
-0.05460000000000004,-0.15222293586547794
-0.05560000000000004,-0.17089712502369644
-0.05660000000000004,-0.18942984305192842
-0.05760000000000004,-0.2081040322101469
-0.05860000000000004,-0.22592939458844638
-0.05960000000000004,-0.2423400456668808
-0.06060000000000004,-0.2587506967453152
-0.061600000000000044,-0.27558576121370915
-0.06260000000000004,-0.2915719989021841
-0.06360000000000005,-0.30784117885063195
-0.06460000000000005,-0.32241270523924187
-0.06560000000000005,-0.3359939337179463
-0.06660000000000005,-0.3508484023665291
-0.06760000000000005,-0.36513698649516596
-0.06860000000000005,-0.37885968610385684
-0.06960000000000005,-0.3917335589326287
-0.07060000000000005,-0.40361713385149495
-0.07160000000000005,-0.4163495355502803
-0.07260000000000005,-0.42879899498909263
-0.07360000000000005,-0.4408240410379454
-0.07460000000000006,-0.4527076159568117
-0.07560000000000006,-0.463459421835786
-0.07660000000000006,-0.47421122771476026
-0.07760000000000006,-0.48567038924366707
-0.07860000000000006,-0.49529042608274926
-0.07960000000000006,-0.5049104629218315
-0.08060000000000006,-0.5143890286309274
-0.08160000000000006,-0.5240090654700096
-0.08260000000000006,-0.5337705734390784
-0.08360000000000006,-0.5429661968882011
-0.08460000000000006,-0.5508885801674454
-0.08560000000000006,-0.559235376836649
-0.08660000000000007,-0.5671577601158931
-0.08760000000000007,-0.5759289701750565
-0.08860000000000007,-0.5845587091042331
-0.08960000000000007,-0.5917737367335448
-0.09060000000000007,-0.5985643509728971
-0.09160000000000007,-0.6053549652122492
-0.09260000000000007,-0.6125699928415609
-0.09360000000000007,-0.6195020782108995
-0.09460000000000007,-0.6255853368003192
-0.09560000000000007,-0.6313856531297658
-0.09660000000000007,-0.6374689117191855
-0.09760000000000008,-0.6432692280486321
-0.09860000000000008,-0.6493524866380518
-0.09960000000000008,-0.6550113318375119
-0.10060000000000008,-0.6601042925170262
-0.10160000000000008,-0.6654801954565133
-0.10260000000000008,-0.6704316850060409
-0.10360000000000008,-0.6758075879455281
-0.10460000000000008,-0.6801931929751097
-0.10560000000000008,-0.6841543846147318
-0.10660000000000008,-0.6892473452942459
-0.10760000000000008,-0.6939158925838005
-0.10860000000000009,-0.6981600264833956
-0.10960000000000009,-0.7019797469930312
-0.11060000000000009,-0.7049506407227478
-0.11160000000000009,-0.7089118323623699
-0.11260000000000009,-0.713438908521938
-0.11360000000000009,-0.7172586290315736
-0.11460000000000009,-0.7216442340611552
-0.11560000000000009,-0.7256054257007774
-0.11660000000000009,-0.7280104349105478
-0.1176000000000001,-0.7308398575102779
-0.1186000000000001,-0.733103395590062
-0.1196000000000001,-0.7359328181897921
-0.1206000000000001,-0.7384792985295492
-0.1216000000000001,-0.7407428366093332
-0.1226000000000001,-0.7444210859889823
-0.1236000000000001,-0.7471090374587258
-0.1246000000000001,-0.7486652198885775
-0.1256000000000001,-0.7507872868383749
-0.1266000000000001,-0.753050824918159
-0.1276000000000001,-0.7563046609078485
-0.1286000000000001,-0.7581437855976731
-0.1296000000000001,-0.7601243814174842
-0.1306000000000001,-0.7625293906272548
-0.1316000000000001,-0.7639441019271197
-0.1326000000000001,-0.7656417554869578
-0.1336000000000001,-0.7680467646967284
-0.1346000000000001,-0.7691785337366205
-0.1356000000000001,-0.7700273605165394
-0.1366000000000001,-0.7722908985963235
-0.1376000000000001,-0.774130023286148
-0.1386000000000001,-0.7765350324959186
-0.1396000000000001,-0.7772423881458511
-0.1406000000000001,-0.7785156283157296
-0.14160000000000011,-0.7802132818755677
-0.14260000000000012,-0.7813450509154597
-0.14360000000000012,-0.7830427044752977
-0.14460000000000012,-0.7837500601252303
-0.14560000000000012,-0.7840330023852033
-0.14660000000000012,-0.7862965404649873
-0.14760000000000012,-0.7881356651548119
-0.14860000000000012,-0.7888430208047444
-0.14960000000000012,-0.789550376454677
-0.15060000000000012,-0.7898333187146499
-0.15160000000000012,-0.7908236166245554
-0.15260000000000012,-0.7919553856644476
-0.15360000000000013,-0.7936530392242855
-0.15460000000000013,-0.7947848082641775
-0.15560000000000013,-0.794643337134191
-0.15660000000000013,-0.7957751061740831
-0.15760000000000013,-0.7973312886039347
-0.15860000000000013,-0.7980386442538671
-0.15960000000000002,-0.7983215865138401
-0.16060000000000002,-0.7986045287738132
-0.16160000000000002,-0.7993118844237457
-0.16260000000000002,-0.8008680668535972
-0.16360000000000002,-0.8018583647635027
-0.16460000000000002,-0.8021413070234757
-0.16560000000000002,-0.8039804317133004
-0.16660000000000003,-0.8078001522229359
-0.16760000000000003,-0.807517209962963
-0.16860000000000003,-0.8070927965730035
-0.16960000000000003,-0.8065269120530575
-0.17060000000000003,-0.8062439697930843
-0.17160000000000003,-0.8062439697930843
-0.17260000000000003,-0.8078001522229359
-0.17360000000000003,-0.8085075078728684
-0.17460000000000003,-0.8079416233529224
-0.17560000000000003,-0.8082245656128955
-0.17660000000000003,-0.8085075078728684
-0.17760000000000004,-0.8099222191727334
-0.17860000000000004,-0.8113369304725986
-0.17960000000000004,-0.8111954593426121
-0.18060000000000004,-0.8111954593426121
-0.18160000000000004,-0.8120442861225311
-0.18260000000000004,-0.8121857572525175
-0.18360000000000004,-0.8127516417724636
-0.18460000000000004,-0.813458997422396
-0.18560000000000004,-0.8136004685523825
-0.18660000000000004,-0.8140248819423421
-0.18760000000000004,-0.8151566509822342
-0.18860000000000005,-0.8155810643721937
-0.18960000000000005,-0.8158640066321667
-0.19060000000000005,-0.8154395932422072
-0.19160000000000005,-0.8161469488921397
-0.19260000000000005,-0.8177031313219912
-0.19360000000000005,-0.8184104869719238
-0.19460000000000005,-0.8185519581019103
-0.19560000000000005,-0.8181275447119508
-0.19660000000000005,-0.8185519581019103
-0.19760000000000005,-0.8196837271418023
-0.19860000000000005,-0.8202496116617483
-0.19960000000000006,-0.8203910827917348
-0.20060000000000006,-0.8201081405317618
-0.20160000000000006,-0.8208154961816942
-0.20260000000000006,-0.8220887363515729
-0.20360000000000006,-0.8226546208715189
-0.20460000000000006,-0.8230790342614784
-0.20560000000000006,-0.8232205053914649
-0.20660000000000006,-0.8232205053914649
-0.20760000000000006,-0.8239278610413974
-0.20860000000000006,-0.8250596300812894
-0.20960000000000006,-0.8252011012112759
-0.21060000000000006,-0.8256255146012355
-0.21160000000000007,-0.8259084568612085
-0.21260000000000007,-0.8267572836411275
-0.21360000000000007,-0.828030523811006
-0.21460000000000007,-0.8276061104210465
-0.21560000000000007,-0.827747581551033
-0.21660000000000007,-0.8287378794609385
-0.21760000000000007,-0.8317087731906551
-0.21860000000000007,-0.8324161288405876
-0.21960000000000007,-0.8315673020606686
-0.22060000000000007,-0.8305770041507631
-0.22160000000000007,-0.8312843598006956
-0.22260000000000008,-0.8324161288405876
-0.22360000000000008,-0.8335478978804797
-0.22460000000000008,-0.8334064267504931
-0.22560000000000008,-0.8331234844905201
-0.22660000000000008,-0.8346796669203717
-0.22760000000000008,-0.8352455514403176
-0.22860000000000008,-0.8358114359602636
-0.22960000000000008,-0.8365187916101962
-0.23060000000000008,-0.8368017338701692
-0.23160000000000008,-0.8372261472601288
-0.23260000000000008,-0.8380749740400478
-0.23360000000000009,-0.8384993874300073
-0.2346000000000001,-0.8394896853399128
-0.2356000000000001,-0.8396311564698993
-0.2366000000000001,-0.8409043966397778
-0.2376000000000001,-0.8414702811597239
-0.2386000000000001,-0.8420361656796699
-0.2396000000000001,-0.8424605790696293
-0.2406000000000001,-0.8426020501996159
-0.2416000000000001,-0.8433094058495484
-0.2426000000000001,-0.8450070594093865
-0.2436000000000001,-0.8464217707092515
-0.2446000000000001,-0.8459973573192919
-0.2456000000000001,-0.8464217707092515
-0.2466000000000001,-0.846846184099211
-0.2476000000000001,-0.848260895399076
-0.2486000000000001,-0.8492511933089816
-0.2496000000000001,-0.8492511933089816
-0.2506000000000001,-0.8501000200889006
-0.2516000000000001,-0.8509488468688196
-0.2526000000000001,-0.8515147313887655
-0.2536000000000001,-0.8533538560785902
-0.2546000000000001,-0.8530709138186172
-0.2556000000000001,-0.8537782694685497
-0.2566000000000001,-0.8553344518984012
-0.2576000000000001,-0.8564662209382933
-0.2586000000000001,-0.8573150477182123
-0.2596000000000001,-0.8573150477182123
-0.2606000000000001,-0.8575979899781853
-0.2616000000000001,-0.8587297590180772
-0.2626000000000001,-0.8597200569279828
-0.2636000000000001,-0.8617006527477938
-0.2646000000000001,-0.8619835950077669
-0.2656000000000001,-0.8621250661377534
-0.2666000000000001,-0.8635397774376183
-0.2676000000000001,-0.8649544887374835
-0.2686000000000001,-0.8663692000373485
-0.2696000000000001,-0.867076555687281
-0.2706000000000001,-0.8669350845572944
-0.2716000000000001,-0.8679253824672
-0.2726000000000001,-0.8696230360270382
-0.2736000000000001,-0.8706133339369435
-0.2746000000000001,-0.871320689586876
-0.2756000000000001,-0.8720280452368087
-0.2766000000000001,-0.8730183431467142
-0.2776000000000001,-0.8749989389665251
-0.2786000000000001,-0.8757062946164578
-0.2796000000000001,-0.8765551213963767
-0.2806000000000001,-0.8775454193062823
-0.28160000000000013,-0.8788186594761607
-0.28260000000000013,-0.8803748419060125
-0.28360000000000013,-0.8813651398159178
-0.2846,-0.8820724954658503
-0.2856,-0.8827798511157828
-0.2866,-0.8839116201556749
-0.2876,-0.8857507448454994
-0.2886,-0.8877313406653105
-0.2896,-0.8877313406653105
-0.2906,-0.888721638575216
-0.2916,-0.8901363498750811
-0.2926,-0.8922584168248787
-0.2936,-0.8936731281247438
-0.29460000000000003,-0.8945219549046627
-0.29560000000000003,-0.8956537239445548
-0.29660000000000003,-0.8972099063744062
-0.29760000000000003,-0.8980587331543252
-0.29860000000000003,-0.9003222712341092
-0.29960000000000003,-0.9011710980140284
-0.30060000000000003,-0.9025858093138934
-0.30160000000000003,-0.9040005206137584
-0.30260000000000004,-0.9054152319136234
-0.30360000000000004,-0.9071128854734616
-0.30460000000000004,-0.9082446545133536
-0.30560000000000004,-0.9093764235532455
-0.30660000000000004,-0.9112155482430702
-0.30760000000000004,-0.9136205574528405
-0.30860000000000004,-0.9147523264927326
-0.30960000000000004,-0.9160255666626113
-0.31060000000000004,-0.9168743934425302
-0.31160000000000004,-0.9188549892623414
-0.31260000000000004,-0.9212599984721118
-0.31360000000000005,-0.9222502963820175
-0.31460000000000005,-0.923806478811869
-0.31560000000000005,-0.92578707463168
-0.31660000000000005,-0.927201785931545
-0.31760000000000005,-0.9290409106213695
-0.31860000000000005,-0.9304556219212347
-0.31960000000000005,-0.9338509290409107
-0.32060000000000005,-0.9361144671206947
-0.32160000000000005,-0.9366803516406408
-0.32260000000000005,-0.9388024185904382
-0.32360000000000005,-0.9403586010202899
-0.32460000000000006,-0.9416318411901684
-0.32560000000000006,-0.9431880236200199
-0.32660000000000006,-0.9450271483098445
-0.32760000000000006,-0.9475736286496015
-0.32860000000000006,-0.9492712822094397
-0.32960000000000006,-0.9505445223793181
-0.33060000000000006,-0.9523836470691426
-0.33160000000000006,-0.9543642428889537
-0.33260000000000006,-0.9566277809687379
-0.33360000000000006,-0.9591742613084948
-0.33460000000000006,-0.9604475014783734
-0.33560000000000006,-0.962003683908225
-0.33660000000000007,-0.9641257508580224
-0.33760000000000007,-0.966530760067793
-0.33860000000000007,-0.9685113558876042
-0.33960000000000007,-0.9700675383174557
-0.34060000000000007,-0.9717651918772936
-0.34160000000000007,-0.9744531433470374
-0.34260000000000007,-0.9769996236867944
-0.34360000000000007,-0.9791216906365918
-0.3446000000000001,-0.98081934419643
-0.3456000000000001,-0.9820925843663083
-0.3466000000000001,-0.9846390647060654
-0.34759999999999996,-0.9871855450458225
-0.3486000000000001,-0.9886002563456876
-0.34959999999999997,-0.9908637944254716
-0.3506000000000001,-0.9927029191152963
-0.35159999999999997,-0.9951079283250667
-0.3526000000000001,-0.9975129375348374
-0.35359999999999997,-0.9993520622246619
-0.3546000000000001,-1.0017570714344324
-0.35559999999999997,-1.003313253864284
-0.3566000000000001,-1.0054353208140816
-0.3576,-1.008406214543798
-0.3586000000000001,-1.0103868103636091
-0.3596,-1.0126503484433933
-0.3606000000000001,-1.0143480020032312
-0.3616,-1.0163285978230423
-0.3626000000000001,-1.0200068472026915
-0.3636,-1.0218459718925161
-0.3646000000000001,-1.0234021543223675
-0.3656,-1.0253827501421786
-0.3666000000000001,-1.027504817091976
-0.3676,-1.0304757108216926
-0.3686000000000001,-1.0330221911614497
-0.3696,-1.0350027869812608
-0.3706000000000001,-1.0378322095809909
-0.3716,-1.040944574440694
-0.3726000000000001,-1.0427836991305184
-0.3736,-1.0457545928602352
-0.3746000000000001,-1.0474522464200733
-0.3756,-1.0492913711098977
-0.3766000000000001,-1.0519793225796414
-0.3776,-1.0550916874393443
-0.3786000000000001,-1.0582040522990475
-0.3796,-1.059760234728899
-0.3806000000000001,-1.0615993594187236
-0.3816,-1.0641458397584806
-0.3826000000000001,-1.0672582046181838
-0.3836,-1.0700876272179138
-0.3846000000000001,-1.0720682230377248
-0.3856,-1.0744732322474955
-0.3866000000000001,-1.0777270682371851
-0.3876,-1.0804150197069284
-0.3886000000000001,-1.0832444423066585
-0.3896,-1.086215336036375
-0.3906000000000001,-1.0884788741161593
-0.3916,-1.0917327101058487
-0.3926000000000001,-1.0948450749655518
-0.3936,-1.0978159686952687
-0.3946000000000001,-1.100786862424985
-0.3956,-1.102767458244796
-0.3966000000000001,-1.1061627653644721
-0.3976,-1.1101239570040942
-0.3986000000000001,-1.113094850733811
-0.3996,-1.1162072155935139
-0.4006000000000001,-1.119036638193244
-0.4016,-1.1224319453129201
-0.4026000000000001,-1.1259687235625826
-0.4036,-1.1296469729422318
-0.4046000000000001,-1.1327593378019347
-0.4056,-1.136437587181584
-0.40660000000000013,-1.140115836561233
-0.4076,-1.144642912720801
-0.40860000000000013,-1.1488870466203962
-0.4096,-1.1519994114800993
-0.41060000000000013,-1.1559606031197214
-0.4116,-1.160629150409276
-0.41260000000000013,-1.1648732843088712
-0.4136,-1.1694003604684393
-0.41460000000000014,-1.1729371387181018
-0.4156,-1.1776056860076565
-0.41660000000000014,-1.1829815889471438
-0.4176,-1.1877916073666848
-0.41860000000000014,-1.1933089814361586
-0.41960000000000003,-1.1976945864657402
-0.42060000000000014,-1.2017972492353488
-0.42160000000000003,-1.2087293346046872
-0.42260000000000014,-1.2158028911040124
-0.42360000000000003,-1.2210373229135134
-0.42460000000000014,-1.2252814568131083
-0.42560000000000003,-1.230798830882582
-0.42660000000000015,-1.2373065028619612
-0.42760000000000004,-1.243389761451381
-0.42860000000000015,-1.2494730200408002
-0.42960000000000004,-1.2558392208901932
-0.43060000000000015,-1.2620639506095992
-0.43160000000000004,-1.269278978238911
-0.43260000000000015,-1.2769184192581822
-0.43360000000000004,-1.2835675623675478
-0.43460000000000015,-1.2910655322568325
-0.43560000000000004,-1.2984220310161307
-0.43660000000000015,-1.3059200009054155
-0.43760000000000004,-1.3142667975746192
-0.43860000000000016,-1.3224721231138363
-0.43960000000000005,-1.3309603909130265
-0.44060000000000016,-1.3393071875822302
-0.44160000000000005,-1.34821986877138
-0.44260000000000016,-1.3578399056104622
-0.44360000000000005,-1.3671770001895716
-0.44460000000000016,-1.3758067391187483
-0.44560000000000005,-1.385568247087817
-0.44660000000000016,-1.395754168446845
-0.44760000000000005,-1.407496272235725
-0.44860000000000017,-1.4189554337646317
-0.44960000000000006,-1.427443701563822
-0.45060000000000017,-1.4387613919627424
