Mar. 31, 2025   18:46:40
Cyclic Voltammetry
File: c:/users/guazh/data/banditlqround7_x0exp518_r20/2025-03-28-exp1002\exp1002-2025-03-31t18_35_44-h2koh\exp1002_cv_sr_500mvs_efin_-1500mv.bin
Data Source:  Experiment
Instrument Model:  CHI760E
Header: CV ran at 500 mVs
Note: 

Init E (V) = -1
High E (V) = -1
Low E (V) = -1.5
Final E (V) = -1
Init P/N = N
Scan Rate (V/s) = 0.5
Segment = 3
Sample Interval (V) = 0.001
Quiet Time (sec) = 2
Sensitivity (A/V) = 0.01
Comp R (ohm) = 1.8

Results:

Channel 1:
Segment 1:

Segment 2:

Segment 3:

Potential/V, Current/A

-1.000, -1.646e-3
-1.001, -1.544e-3
-1.002, -1.446e-3
-1.003, -1.341e-3
-1.004, -1.242e-3
-1.005, -1.150e-3
-1.006, -1.060e-3
-1.007, -9.803e-4
-1.008, -9.032e-4
-1.009, -8.261e-4
-1.010, -7.490e-4
-1.011, -6.689e-4
-1.012, -5.918e-4
-1.013, -5.178e-4
-1.014, -4.500e-4
-1.015, -3.883e-4
-1.016, -3.297e-4
-1.017, -2.712e-4
-1.018, -2.095e-4
-1.019, -1.448e-4
-1.020, -8.000e-5
-1.021, -1.834e-5
-1.022, 4.640e-5
-1.023, 1.050e-4
-1.024, 1.666e-4
-1.025, 2.252e-4
-1.026, 2.838e-4
-1.027, 3.455e-4
-1.028, 4.102e-4
-1.029, 4.688e-4
-1.030, 5.305e-4
-1.031, 5.859e-4
-1.032, 6.414e-4
-1.033, 6.969e-4
-1.034, 7.494e-4
-1.035, 8.018e-4
-1.036, 8.603e-4
-1.037, 9.158e-4
-1.038, 9.683e-4
-1.039, 1.021e-3
-1.040, 1.067e-3
-1.041, 1.116e-3
-1.042, 1.166e-3
-1.043, 1.212e-3
-1.044, 1.264e-3
-1.045, 1.317e-3
-1.046, 1.369e-3
-1.047, 1.418e-3
-1.048, 1.465e-3
-1.049, 1.514e-3
-1.050, 1.560e-3
-1.051, 1.610e-3
-1.052, 1.665e-3
-1.053, 1.717e-3
-1.054, 1.776e-3
-1.055, 1.832e-3
-1.056, 1.890e-3
-1.057, 1.946e-3
-1.058, 2.004e-3
-1.059, 2.063e-3
-1.060, 2.121e-3
-1.061, 2.177e-3
-1.062, 2.235e-3
-1.063, 2.291e-3
-1.064, 2.343e-3
-1.065, 2.393e-3
-1.066, 2.436e-3
-1.067, 2.473e-3
-1.068, 2.510e-3
-1.069, 2.544e-3
-1.070, 2.581e-3
-1.071, 2.618e-3
-1.072, 2.655e-3
-1.073, 2.689e-3
-1.074, 2.729e-3
-1.075, 2.769e-3
-1.076, 2.815e-3
-1.077, 2.864e-3
-1.078, 2.917e-3
-1.079, 2.978e-3
-1.080, 3.034e-3
-1.081, 3.089e-3
-1.082, 3.142e-3
-1.083, 3.191e-3
-1.084, 3.244e-3
-1.085, 3.293e-3
-1.086, 3.345e-3
-1.087, 3.395e-3
-1.088, 3.441e-3
-1.089, 3.487e-3
-1.090, 3.524e-3
-1.091, 3.561e-3
-1.092, 3.601e-3
-1.093, 3.641e-3
-1.094, 3.688e-3
-1.095, 3.737e-3
-1.096, 3.792e-3
-1.097, 3.848e-3
-1.098, 3.900e-3
-1.099, 3.956e-3
-1.100, 4.011e-3
-1.101, 4.067e-3
-1.102, 4.125e-3
-1.103, 4.187e-3
-1.104, 4.246e-3
-1.105, 4.307e-3
-1.106, 4.363e-3
-1.107, 4.415e-3
-1.108, 4.464e-3
-1.109, 4.508e-3
-1.110, 4.551e-3
-1.111, 4.591e-3
-1.112, 4.631e-3
-1.113, 4.674e-3
-1.114, 4.717e-3
-1.115, 4.760e-3
-1.116, 4.797e-3
-1.117, 4.834e-3
-1.118, 4.875e-3
-1.119, 4.918e-3
-1.120, 4.958e-3
-1.121, 5.004e-3
-1.122, 5.050e-3
-1.123, 5.087e-3
-1.124, 5.118e-3
-1.125, 5.149e-3
-1.126, 5.189e-3
-1.127, 5.235e-3
-1.128, 5.282e-3
-1.129, 5.334e-3
-1.130, 5.389e-3
-1.131, 5.436e-3
-1.132, 5.479e-3
-1.133, 5.519e-3
-1.134, 5.562e-3
-1.135, 5.608e-3
-1.136, 5.655e-3
-1.137, 5.707e-3
-1.138, 5.759e-3
-1.139, 5.818e-3
-1.140, 5.877e-3
-1.141, 5.941e-3
-1.142, 6.006e-3
-1.143, 6.077e-3
-1.144, 6.148e-3
-1.145, 6.222e-3
-1.146, 6.287e-3
-1.147, 6.345e-3
-1.148, 6.391e-3
-1.149, 6.428e-3
-1.150, 6.456e-3
-1.151, 6.484e-3
-1.152, 6.524e-3
-1.153, 6.573e-3
-1.154, 6.626e-3
-1.155, 6.691e-3
-1.156, 6.764e-3
-1.157, 6.832e-3
-1.158, 6.900e-3
-1.159, 6.962e-3
-1.160, 7.017e-3
-1.161, 7.073e-3
-1.162, 7.125e-3
-1.163, 7.181e-3
-1.164, 7.236e-3
-1.165, 7.289e-3
-1.166, 7.335e-3
-1.167, 7.375e-3
-1.168, 7.418e-3
-1.169, 7.467e-3
-1.170, 7.508e-3
-1.171, 7.541e-3
-1.172, 7.575e-3
-1.173, 7.606e-3
-1.174, 7.622e-3
-1.175, 7.637e-3
-1.176, 7.665e-3
-1.177, 7.708e-3
-1.178, 7.757e-3
-1.179, 7.819e-3
-1.180, 7.871e-3
-1.181, 7.921e-3
-1.182, 7.973e-3
-1.183, 8.032e-3
-1.184, 8.093e-3
-1.185, 8.173e-3
-1.186, 8.266e-3
-1.187, 8.362e-3
-1.188, 8.451e-3
-1.189, 8.537e-3
-1.190, 8.605e-3
-1.191, 8.658e-3
-1.192, 8.695e-3
-1.193, 8.728e-3
-1.194, 8.769e-3
-1.195, 8.830e-3
-1.196, 8.901e-3
-1.197, 8.984e-3
-1.198, 9.077e-3
-1.199, 9.157e-3
-1.200, 9.197e-3
-1.201, 9.216e-3
-1.202, 9.228e-3
-1.203, 9.243e-3
-1.204, 9.265e-3
-1.205, 9.317e-3
-1.206, 9.394e-3
-1.207, 9.484e-3
-1.208, 9.564e-3
-1.209, 9.638e-3
-1.210, 9.693e-3
-1.211, 9.730e-3
-1.212, 9.752e-3
-1.213, 9.764e-3
-1.214, 9.780e-3
-1.215, 9.798e-3
-1.216, 9.823e-3
-1.217, 9.851e-3
-1.218, 9.888e-3
-1.219, 9.940e-3
-1.220, 9.996e-3
-1.221, 1.005e-2
-1.222, 1.011e-2
-1.223, 1.018e-2
-1.224, 1.025e-2
-1.225, 1.032e-2
-1.226, 1.038e-2
-1.227, 1.043e-2
-1.228, 1.049e-2
-1.229, 1.054e-2
-1.230, 1.059e-2
-1.231, 1.064e-2
-1.232, 1.071e-2
-1.233, 1.078e-2
-1.234, 1.086e-2
-1.235, 1.093e-2
-1.236, 1.099e-2
-1.237, 1.104e-2
-1.238, 1.109e-2
-1.239, 1.113e-2
-1.240, 1.118e-2
-1.241, 1.124e-2
-1.242, 1.130e-2
-1.243, 1.137e-2
-1.244, 1.143e-2
-1.245, 1.149e-2
-1.246, 1.155e-2
-1.247, 1.160e-2
-1.248, 1.165e-2
-1.249, 1.171e-2
-1.250, 1.175e-2
-1.251, 1.179e-2
-1.252, 1.181e-2
-1.253, 1.185e-2
-1.254, 1.188e-2
-1.255, 1.192e-2
-1.256, 1.195e-2
-1.257, 1.199e-2
-1.258, 1.203e-2
-1.259, 1.208e-2
-1.260, 1.213e-2
-1.261, 1.218e-2
-1.262, 1.224e-2
-1.263, 1.230e-2
-1.264, 1.234e-2
-1.265, 1.239e-2
-1.266, 1.245e-2
-1.267, 1.250e-2
-1.268, 1.256e-2
-1.269, 1.261e-2
-1.270, 1.269e-2
-1.271, 1.277e-2
-1.272, 1.285e-2
-1.273, 1.293e-2
-1.274, 1.302e-2
-1.275, 1.311e-2
-1.276, 1.319e-2
-1.277, 1.327e-2
-1.278, 1.335e-2
-1.279, 1.344e-2
-1.280, 1.351e-2
-1.281, 1.357e-2
-1.282, 1.362e-2
-1.283, 1.366e-2
-1.284, 1.369e-2
-1.285, 1.370e-2
-1.286, 1.371e-2
-1.287, 1.371e-2
-1.288, 1.370e-2
-1.289, 1.370e-2
-1.290, 1.370e-2
-1.291, 1.372e-2
-1.292, 1.374e-2
-1.293, 1.375e-2
-1.294, 1.379e-2
-1.295, 1.386e-2
-1.296, 1.395e-2
-1.297, 1.404e-2
-1.298, 1.411e-2
-1.299, 1.416e-2
-1.300, 1.420e-2
-1.301, 1.421e-2
-1.302, 1.421e-2
-1.303, 1.421e-2
-1.304, 1.423e-2
-1.305, 1.427e-2
-1.306, 1.432e-2
-1.307, 1.440e-2
-1.308, 1.450e-2
-1.309, 1.461e-2
-1.310, 1.474e-2
-1.311, 1.487e-2
-1.312, 1.497e-2
-1.313, 1.506e-2
-1.314, 1.511e-2
-1.315, 1.513e-2
-1.316, 1.513e-2
-1.317, 1.513e-2
-1.318, 1.514e-2
-1.319, 1.519e-2
-1.320, 1.525e-2
-1.321, 1.532e-2
-1.322, 1.539e-2
-1.323, 1.545e-2
-1.324, 1.549e-2
-1.325, 1.551e-2
-1.326, 1.555e-2
-1.327, 1.560e-2
-1.328, 1.567e-2
-1.329, 1.575e-2
-1.330, 1.584e-2
-1.331, 1.592e-2
-1.332, 1.597e-2
-1.333, 1.600e-2
-1.334, 1.603e-2
-1.335, 1.605e-2
-1.336, 1.607e-2
-1.337, 1.608e-2
-1.338, 1.608e-2
-1.339, 1.610e-2
-1.340, 1.611e-2
-1.341, 1.611e-2
-1.342, 1.609e-2
-1.343, 1.607e-2
-1.344, 1.599e-2
-1.345, 1.589e-2
-1.346, 1.580e-2
-1.347, 1.578e-2
-1.348, 1.589e-2
-1.349, 1.607e-2
-1.350, 1.629e-2
-1.351, 1.649e-2
-1.352, 1.666e-2
-1.353, 1.676e-2
-1.354, 1.677e-2
-1.355, 1.675e-2
-1.356, 1.676e-2
-1.357, 1.678e-2
-1.358, 1.682e-2
-1.359, 1.691e-2
-1.360, 1.702e-2
-1.361, 1.712e-2
-1.362, 1.719e-2
-1.363, 1.728e-2
-1.364, 1.736e-2
-1.365, 1.743e-2
-1.366, 1.748e-2
-1.367, 1.751e-2
-1.368, 1.753e-2
-1.369, 1.752e-2
-1.370, 1.748e-2
-1.371, 1.744e-2
-1.372, 1.741e-2
-1.373, 1.739e-2
-1.374, 1.738e-2
-1.375, 1.739e-2
-1.376, 1.742e-2
-1.377, 1.746e-2
-1.378, 1.750e-2
-1.379, 1.754e-2
-1.380, 1.759e-2
-1.381, 1.763e-2
-1.382, 1.770e-2
-1.383, 1.778e-2
-1.384, 1.787e-2
-1.385, 1.795e-2
-1.386, 1.804e-2
-1.387, 1.809e-2
-1.388, 1.814e-2
-1.389, 1.815e-2
-1.390, 1.814e-2
-1.391, 1.811e-2
-1.392, 1.806e-2
-1.393, 1.800e-2
-1.394, 1.796e-2
-1.395, 1.792e-2
-1.396, 1.789e-2
-1.397, 1.789e-2
-1.398, 1.786e-2
-1.399, 1.786e-2
-1.400, 1.789e-2
-1.401, 1.794e-2
-1.402, 1.799e-2
-1.403, 1.805e-2
-1.404, 1.813e-2
-1.405, 1.819e-2
-1.406, 1.825e-2
-1.407, 1.830e-2
-1.408, 1.833e-2
-1.409, 1.836e-2
-1.410, 1.838e-2
-1.411, 1.841e-2
-1.412, 1.845e-2
-1.413, 1.848e-2
-1.414, 1.850e-2
-1.415, 1.851e-2
-1.416, 1.852e-2
-1.417, 1.854e-2
-1.418, 1.856e-2
-1.419, 1.859e-2
-1.420, 1.861e-2
-1.421, 1.862e-2
-1.422, 1.863e-2
-1.423, 1.864e-2
-1.424, 1.866e-2
-1.425, 1.870e-2
-1.426, 1.874e-2
-1.427, 1.878e-2
-1.428, 1.881e-2
-1.429, 1.884e-2
-1.430, 1.887e-2
-1.431, 1.889e-2
-1.432, 1.892e-2
-1.433, 1.896e-2
-1.434, 1.899e-2
-1.435, 1.900e-2
-1.436, 1.901e-2
-1.437, 1.901e-2
-1.438, 1.902e-2
-1.439, 1.903e-2
-1.440, 1.904e-2
-1.441, 1.904e-2
-1.442, 1.905e-2
-1.443, 1.907e-2
-1.444, 1.908e-2
-1.445, 1.907e-2
-1.446, 1.907e-2
-1.447, 1.907e-2
-1.448, 1.907e-2
-1.449, 1.907e-2
-1.450, 1.908e-2
-1.451, 1.911e-2
-1.452, 1.915e-2
-1.453, 1.918e-2
-1.454, 1.920e-2
-1.455, 1.923e-2
-1.456, 1.924e-2
-1.457, 1.924e-2
-1.458, 1.924e-2
-1.459, 1.927e-2
-1.460, 1.930e-2
-1.461, 1.933e-2
-1.462, 1.936e-2
-1.463, 1.939e-2
-1.464, 1.942e-2
-1.465, 1.943e-2
-1.466, 1.944e-2
-1.467, 1.945e-2
-1.468, 1.949e-2
-1.469, 1.951e-2
-1.470, 1.953e-2
-1.471, 1.953e-2
-1.472, 1.953e-2
-1.473, 1.951e-2
-1.474, 1.947e-2
-1.475, 1.944e-2
-1.476, 1.942e-2
-1.477, 1.947e-2
-1.478, 1.954e-2
-1.479, 1.960e-2
-1.480, 1.968e-2
-1.481, 1.976e-2
-1.482, 1.984e-2
-1.483, 1.996e-2
-1.484, 2.009e-2
-1.485, 2.019e-2
-1.486, 2.027e-2
-1.487, 2.031e-2
-1.488, 2.032e-2
-1.489, 2.028e-2
-1.490, 2.019e-2
-1.491, 2.008e-2
-1.492, 1.999e-2
-1.493, 1.995e-2
-1.494, 1.997e-2
-1.495, 2.005e-2
-1.496, 2.017e-2
-1.497, 2.031e-2
-1.498, 2.042e-2
-1.499, 2.047e-2
-1.500, 2.038e-2
-1.499, 2.012e-2
-1.498, 1.987e-2
-1.497, 1.962e-2
-1.496, 1.938e-2
-1.495, 1.912e-2
-1.494, 1.883e-2
-1.493, 1.852e-2
-1.492, 1.819e-2
-1.491, 1.788e-2
-1.490, 1.759e-2
-1.489, 1.736e-2
-1.488, 1.720e-2
-1.487, 1.708e-2
-1.486, 1.700e-2
-1.485, 1.694e-2
-1.484, 1.688e-2
-1.483, 1.682e-2
-1.482, 1.675e-2
-1.481, 1.670e-2
-1.480, 1.663e-2
-1.479, 1.655e-2
-1.478, 1.645e-2
-1.477, 1.633e-2
-1.476, 1.618e-2
-1.475, 1.599e-2
-1.474, 1.577e-2
-1.473, 1.554e-2
-1.472, 1.533e-2
-1.471, 1.515e-2
-1.470, 1.499e-2
-1.469, 1.487e-2
-1.468, 1.479e-2
-1.467, 1.473e-2
-1.466, 1.466e-2
-1.465, 1.457e-2
-1.464, 1.445e-2
-1.463, 1.428e-2
-1.462, 1.407e-2
-1.461, 1.386e-2
-1.460, 1.367e-2
-1.459, 1.349e-2
-1.458, 1.334e-2
-1.457, 1.321e-2
-1.456, 1.311e-2
-1.455, 1.301e-2
-1.454, 1.291e-2
-1.453, 1.283e-2
-1.452, 1.275e-2
-1.451, 1.267e-2
-1.450, 1.257e-2
-1.449, 1.247e-2
-1.448, 1.237e-2
-1.447, 1.227e-2
-1.446, 1.215e-2
-1.445, 1.201e-2
-1.444, 1.186e-2
-1.443, 1.170e-2
-1.442, 1.153e-2
-1.441, 1.136e-2
-1.440, 1.120e-2
-1.439, 1.107e-2
-1.438, 1.095e-2
-1.437, 1.083e-2
-1.436, 1.071e-2
-1.435, 1.061e-2
-1.434, 1.050e-2
-1.433, 1.038e-2
-1.432, 1.028e-2
-1.431, 1.021e-2
-1.430, 1.015e-2
-1.429, 1.009e-2
-1.428, 1.003e-2
-1.427, 9.949e-3
-1.426, 9.863e-3
-1.425, 9.761e-3
-1.424, 9.656e-3
-1.423, 9.549e-3
-1.422, 9.444e-3
-1.421, 9.342e-3
-1.420, 9.231e-3
-1.419, 9.114e-3
-1.418, 8.991e-3
-1.417, 8.867e-3
-1.416, 8.744e-3
-1.415, 8.617e-3
-1.414, 8.497e-3
-1.413, 8.380e-3
-1.412, 8.266e-3
-1.411, 8.152e-3
-1.410, 8.035e-3
-1.409, 7.924e-3
-1.408, 7.822e-3
-1.407, 7.726e-3
-1.406, 7.640e-3
-1.405, 7.557e-3
-1.404, 7.474e-3
-1.403, 7.378e-3
-1.402, 7.273e-3
-1.401, 7.159e-3
-1.400, 7.030e-3
-1.399, 6.891e-3
-1.398, 6.768e-3
-1.397, 6.666e-3
-1.396, 6.583e-3
-1.395, 6.506e-3
-1.394, 6.432e-3
-1.393, 6.364e-3
-1.392, 6.305e-3
-1.391, 6.250e-3
-1.390, 6.203e-3
-1.389, 6.160e-3
-1.388, 6.114e-3
-1.387, 6.055e-3
-1.386, 5.981e-3
-1.385, 5.895e-3
-1.384, 5.799e-3
-1.383, 5.701e-3
-1.382, 5.593e-3
-1.381, 5.482e-3
-1.380, 5.368e-3
-1.379, 5.263e-3
-1.378, 5.167e-3
-1.377, 5.072e-3
-1.376, 4.986e-3
-1.375, 4.902e-3
-1.374, 4.822e-3
-1.373, 4.745e-3
-1.372, 4.668e-3
-1.371, 4.600e-3
-1.370, 4.535e-3
-1.369, 4.468e-3
-1.368, 4.400e-3
-1.367, 4.332e-3
-1.366, 4.264e-3
-1.365, 4.193e-3
-1.364, 4.122e-3
-1.363, 4.048e-3
-1.362, 3.974e-3
-1.361, 3.891e-3
-1.360, 3.805e-3
-1.359, 3.709e-3
-1.358, 3.614e-3
-1.357, 3.518e-3
-1.356, 3.429e-3
-1.355, 3.348e-3
-1.354, 3.271e-3
-1.353, 3.204e-3
-1.352, 3.136e-3
-1.351, 3.065e-3
-1.350, 2.988e-3
-1.349, 2.914e-3
-1.348, 2.846e-3
-1.347, 2.781e-3
-1.346, 2.716e-3
-1.345, 2.649e-3
-1.344, 2.584e-3
-1.343, 2.513e-3
-1.342, 2.436e-3
-1.341, 2.362e-3
-1.340, 2.291e-3
-1.339, 2.226e-3
-1.338, 2.161e-3
-1.337, 2.100e-3
-1.336, 2.044e-3
-1.335, 1.986e-3
-1.334, 1.930e-3
-1.333, 1.872e-3
-1.332, 1.816e-3
-1.331, 1.761e-3
-1.330, 1.705e-3
-1.329, 1.643e-3
-1.328, 1.582e-3
-1.327, 1.517e-3
-1.326, 1.452e-3
-1.325, 1.391e-3
-1.324, 1.326e-3
-1.323, 1.270e-3
-1.322, 1.215e-3
-1.321, 1.162e-3
-1.320, 1.107e-3
-1.319, 1.045e-3
-1.318, 9.868e-4
-1.317, 9.282e-4
-1.316, 8.696e-4
-1.315, 8.172e-4
-1.314, 7.617e-4
-1.313, 7.093e-4
-1.312, 6.569e-4
-1.311, 5.983e-4
-1.310, 5.428e-4
-1.309, 4.811e-4
-1.308, 4.195e-4
-1.307, 3.578e-4
-1.306, 2.992e-4
-1.305, 2.376e-4
-1.304, 1.790e-4
-1.303, 1.204e-4
-1.302, 5.873e-5
-1.301, -2.927e-6
-1.300, -6.151e-5
-1.299, -1.201e-4
-1.298, -1.756e-4
-1.297, -2.280e-4
-1.296, -2.773e-4
-1.295, -3.267e-4
-1.294, -3.791e-4
-1.293, -4.315e-4
-1.292, -4.839e-4
-1.291, -5.332e-4
-1.290, -5.826e-4
-1.289, -6.288e-4
-1.288, -6.720e-4
-1.287, -7.182e-4
-1.286, -7.675e-4
-1.285, -8.169e-4
-1.284, -8.693e-4
-1.283, -9.217e-4
-1.282, -9.710e-4
-1.281, -1.023e-3
-1.280, -1.073e-3
-1.279, -1.122e-3
-1.278, -1.171e-3
-1.277, -1.224e-3
-1.276, -1.279e-3
-1.275, -1.332e-3
-1.274, -1.384e-3
-1.273, -1.430e-3
-1.272, -1.470e-3
-1.271, -1.514e-3
-1.270, -1.557e-3
-1.269, -1.597e-3
-1.268, -1.643e-3
-1.267, -1.689e-3
-1.266, -1.736e-3
-1.265, -1.779e-3
-1.264, -1.819e-3
-1.263, -1.856e-3
-1.262, -1.893e-3
-1.261, -1.933e-3
-1.260, -1.979e-3
-1.259, -2.035e-3
-1.258, -2.096e-3
-1.257, -2.158e-3
-1.256, -2.220e-3
-1.255, -2.275e-3
-1.254, -2.328e-3
-1.253, -2.377e-3
-1.252, -2.420e-3
-1.251, -2.457e-3
-1.250, -2.494e-3
-1.249, -2.534e-3
-1.248, -2.568e-3
-1.247, -2.605e-3
-1.246, -2.642e-3
-1.245, -2.676e-3
-1.244, -2.710e-3
-1.243, -2.744e-3
-1.242, -2.775e-3
-1.241, -2.812e-3
-1.240, -2.849e-3
-1.239, -2.889e-3
-1.238, -2.932e-3
-1.237, -2.978e-3
-1.236, -3.021e-3
-1.235, -3.055e-3
-1.234, -3.092e-3
-1.233, -3.120e-3
-1.232, -3.148e-3
-1.231, -3.182e-3
-1.230, -3.219e-3
-1.229, -3.265e-3
-1.228, -3.311e-3
-1.227, -3.357e-3
-1.226, -3.404e-3
-1.225, -3.447e-3
-1.224, -3.490e-3
-1.223, -3.527e-3
-1.222, -3.564e-3
-1.221, -3.607e-3
-1.220, -3.647e-3
-1.219, -3.690e-3
-1.218, -3.733e-3
-1.217, -3.780e-3
-1.216, -3.826e-3
-1.215, -3.869e-3
-1.214, -3.906e-3
-1.213, -3.940e-3
-1.212, -3.977e-3
-1.211, -4.014e-3
-1.210, -4.054e-3
-1.209, -4.094e-3
-1.208, -4.134e-3
-1.207, -4.171e-3
-1.206, -4.205e-3
-1.205, -4.230e-3
-1.204, -4.261e-3
-1.203, -4.295e-3
-1.202, -4.325e-3
-1.201, -4.359e-3
-1.200, -4.396e-3
-1.199, -4.430e-3
-1.198, -4.461e-3
-1.197, -4.492e-3
-1.196, -4.523e-3
-1.195, -4.557e-3
-1.194, -4.594e-3
-1.193, -4.631e-3
-1.192, -4.668e-3
-1.191, -4.705e-3
-1.190, -4.736e-3
-1.189, -4.760e-3
-1.188, -4.785e-3
-1.187, -4.813e-3
-1.186, -4.843e-3
-1.185, -4.871e-3
-1.184, -4.902e-3
-1.183, -4.939e-3
-1.182, -4.973e-3
-1.181, -5.007e-3
-1.180, -5.041e-3
-1.179, -5.081e-3
-1.178, -5.118e-3
-1.177, -5.152e-3
-1.176, -5.179e-3
-1.175, -5.207e-3
-1.174, -5.232e-3
-1.173, -5.257e-3
-1.172, -5.284e-3
-1.171, -5.318e-3
-1.170, -5.355e-3
-1.169, -5.389e-3
-1.168, -5.423e-3
-1.167, -5.460e-3
-1.166, -5.509e-3
-1.165, -5.549e-3
-1.164, -5.593e-3
-1.163, -5.630e-3
-1.162, -5.667e-3
-1.161, -5.704e-3
-1.160, -5.738e-3
-1.159, -5.768e-3
-1.158, -5.796e-3
-1.157, -5.818e-3
-1.156, -5.839e-3
-1.155, -5.861e-3
-1.154, -5.886e-3
-1.153, -5.913e-3
-1.152, -5.950e-3
-1.151, -5.993e-3
-1.150, -6.033e-3
-1.149, -6.074e-3
-1.148, -6.104e-3
-1.147, -6.135e-3
-1.146, -6.166e-3
-1.145, -6.203e-3
-1.144, -6.252e-3
-1.143, -6.305e-3
-1.142, -6.363e-3
-1.141, -6.416e-3
-1.140, -6.459e-3
-1.139, -6.484e-3
-1.138, -6.502e-3
-1.137, -6.521e-3
-1.136, -6.545e-3
-1.135, -6.576e-3
-1.134, -6.607e-3
-1.133, -6.638e-3
-1.132, -6.669e-3
-1.131, -6.690e-3
-1.130, -6.715e-3
-1.129, -6.743e-3
-1.128, -6.783e-3
-1.127, -6.835e-3
-1.126, -6.900e-3
-1.125, -6.962e-3
-1.124, -7.023e-3
-1.123, -7.072e-3
-1.122, -7.113e-3
-1.121, -7.150e-3
-1.120, -7.187e-3
-1.119, -7.233e-3
-1.118, -7.276e-3
-1.117, -7.322e-3
-1.116, -7.362e-3
-1.115, -7.396e-3
-1.114, -7.424e-3
-1.113, -7.449e-3
-1.112, -7.473e-3
-1.111, -7.501e-3
-1.110, -7.526e-3
-1.109, -7.544e-3
-1.108, -7.566e-3
-1.107, -7.584e-3
-1.106, -7.609e-3
-1.105, -7.637e-3
-1.104, -7.671e-3
-1.103, -7.711e-3
-1.102, -7.754e-3
-1.101, -7.797e-3
-1.100, -7.843e-3
-1.099, -7.893e-3
-1.098, -7.936e-3
-1.097, -7.979e-3
-1.096, -8.019e-3
-1.095, -8.056e-3
-1.094, -8.099e-3
-1.093, -8.142e-3
-1.092, -8.186e-3
-1.091, -8.222e-3
-1.090, -8.256e-3
-1.089, -8.293e-3
-1.088, -8.324e-3
-1.087, -8.361e-3
-1.086, -8.407e-3
-1.085, -8.460e-3
-1.084, -8.512e-3
-1.083, -8.559e-3
-1.082, -8.599e-3
-1.081, -8.642e-3
-1.080, -8.682e-3
-1.079, -8.719e-3
-1.078, -8.750e-3
-1.077, -8.781e-3
-1.076, -8.818e-3
-1.075, -8.851e-3
-1.074, -8.892e-3
-1.073, -8.932e-3
-1.072, -8.978e-3
-1.071, -9.018e-3
-1.070, -9.058e-3
-1.069, -9.098e-3
-1.068, -9.144e-3
-1.067, -9.191e-3
-1.066, -9.237e-3
-1.065, -9.286e-3
-1.064, -9.336e-3
-1.063, -9.382e-3
-1.062, -9.425e-3
-1.061, -9.468e-3
-1.060, -9.514e-3
-1.059, -9.564e-3
-1.058, -9.613e-3
-1.057, -9.656e-3
-1.056, -9.693e-3
-1.055, -9.730e-3
-1.054, -9.761e-3
-1.053, -9.789e-3
-1.052, -9.820e-3
-1.051, -9.860e-3
-1.050, -9.900e-3
-1.049, -9.931e-3
-1.048, -9.949e-3
-1.047, -9.971e-3
-1.046, -1.000e-2
-1.045, -1.004e-2
-1.044, -1.008e-2
-1.043, -1.014e-2
-1.042, -1.020e-2
-1.041, -1.026e-2
-1.040, -1.030e-2
-1.039, -1.035e-2
-1.038, -1.039e-2
-1.037, -1.043e-2
-1.036, -1.048e-2
-1.035, -1.052e-2
-1.034, -1.057e-2
-1.033, -1.062e-2
-1.032, -1.066e-2
-1.031, -1.069e-2
-1.030, -1.072e-2
-1.029, -1.076e-2
-1.028, -1.079e-2
-1.027, -1.082e-2
-1.026, -1.085e-2
-1.025, -1.088e-2
-1.024, -1.091e-2
-1.023, -1.094e-2
-1.022, -1.097e-2
-1.021, -1.101e-2
-1.020, -1.104e-2
-1.019, -1.109e-2
-1.018, -1.113e-2
-1.017, -1.118e-2
-1.016, -1.122e-2
-1.015, -1.126e-2
-1.014, -1.131e-2
-1.013, -1.137e-2
-1.012, -1.143e-2
-1.011, -1.149e-2
-1.010, -1.155e-2
-1.009, -1.161e-2
-1.008, -1.167e-2
-1.007, -1.172e-2
-1.006, -1.176e-2
-1.005, -1.181e-2
-1.004, -1.189e-2
-1.003, -1.194e-2
-1.002, -1.198e-2
-1.001, -1.204e-2
