Potential V vs RHE, Current mA cm-2
0.013299999999999867,22.946617283810895
0.012299999999999978,21.63093577493641
0.011299999999999866,20.329401379060574
0.010299999999999976,19.056161209182044
0.009299999999999864,17.966833508285966
0.008299999999999974,17.00482982437774
0.007299999999999862,16.000384801473565
0.006299999999999972,14.995939778569388
0.00529999999999986,13.998568312164537
0.0042999999999999705,12.995538000560227
0.0032999999999998586,12.080219789547549
0.0022999999999999687,11.163486867235004
0.0012999999999998568,10.20431260592651
0.00029999999999996696,9.245138344618015
-0.000700000000000145,8.328405422305472
-0.0017000000000000348,7.456943261588608
-0.0027000000000001467,6.627922439867697
-0.0037000000000000366,5.7111895175551535
-0.0047000000000001485,4.839727356838291
-0.005700000000000038,4.01070653511738
-0.00670000000000015,3.225541763692284
-0.00770000000000004,2.4842330425630044
-0.008700000000000152,1.655212220842093
-0.009700000000000042,0.8264743413811545
-0.010700000000000154,0.04140859974704963
-0.011700000000000044,-0.7001406223032067
-0.012700000000000156,-1.3980177065266295
-0.013700000000000045,-2.1828995356917518
-0.014700000000000157,-2.968064307116847
-0.015700000000000047,-3.7093730282461257
-0.01670000000000016,-4.364384360083638
-0.01770000000000005,-5.017980980621284
-0.01870000000000016,-5.759289701750564
-0.01970000000000005,-6.458157083883892
-0.020700000000000163,-7.155609754717355
-0.021700000000000053,-7.809206375255003
-0.022700000000000164,-8.4203616567967
-0.023700000000000054,-9.11781432763016
-0.024700000000000166,-9.85912304875944
-0.025700000000000056,-10.514134380596953
-0.026700000000000168,-11.1677310011346
-0.027700000000000058,-11.82274233297211
-0.02870000000000017,-12.520195003805576
-0.02970000000000006,-13.261503724934855
-0.03070000000000017,-13.960371107068182
-0.03170000000000006,-14.529085049613924
-0.03270000000000017,-15.137410908555893
-0.03370000000000006,-15.74573676749786
-0.034700000000000175,-16.438945304431726
-0.035700000000000065,-17.061418276372343
-0.03670000000000018,-17.627302796318357
-0.03770000000000007,-18.23562865526032
-0.03870000000000018,-18.843954514202288
-0.03970000000000007,-19.49472171214021
-0.04070000000000018,-20.10304757108217
-0.04170000000000007,-20.683079204026836
-0.04270000000000018,-21.248963723972853
-0.04370000000000007,-21.857289582914817
-0.044700000000000184,-22.46561544185678
-0.045700000000000074,-23.073941300798747
-0.046700000000000186,-23.639825820744765
-0.047700000000000076,-24.16326900169483
-0.04870000000000019,-24.771594860636792
-0.04970000000000008,-25.39406783257741
-0.05070000000000019,-25.91751101352747
-0.05170000000000008,-26.38436574248293
-0.05270000000000019,-26.9643973754276
-0.05370000000000008,-27.572723234369565
-0.05470000000000019,-28.22349043230748
-0.05570000000000008,-28.8742576302454
-0.056700000000000195,-29.482583489187363
-0.057700000000000085,-30.10505646112798
-0.058700000000000196,-30.7558236590659
-0.059700000000000086,-31.49147353499572
-0.0607000000000002,-32.184682071929586
-0.06170000000000009,-32.807155043870196
-0.0627000000000002,-33.50036358080407
-0.06370000000000009,-34.193572117737936
-0.0647000000000002,-34.8018979766799
-0.06570000000000009,-35.240458479638065
-0.0667000000000002,-35.50925362661242
-0.0677000000000001,-35.848784338580025
-0.0687000000000002,-36.4288159715247
-0.0697000000000001,-37.249348525446415
-0.07070000000000021,-38.04158685337084
-0.0717000000000001,-38.522588695324956
-0.07270000000000021,-38.86211940729255
-0.0737000000000001,-39.38556258824262
-0.07470000000000021,-40.03632978618054
-0.0757000000000001,-40.743685436113054
-0.07670000000000021,-41.182245939071215
-0.0777000000000001,-41.43689397304693
-0.07870000000000021,-41.74813045901723
-0.0797000000000001,-42.229132300971344
-0.08070000000000022,-42.752575481921404
-0.0817000000000001,-43.31846000186743
-0.08270000000000022,-44.011668538801295
-0.08370000000000011,-44.84634820572166
-0.08470000000000022,-45.75176343763528
-0.08570000000000011,-46.628884443551605
-0.08670000000000022,-47.590888127459834
-0.08770000000000011,-48.51045047237211
-0.08870000000000022,-49.33098302629383
-0.08970000000000011,-49.89686754623985
-0.09070000000000022,-50.20810403221015
-0.09170000000000011,-50.37786938819396
-0.09270000000000023,-50.73154721316022
-0.09370000000000012,-51.424755750094086
-0.09470000000000023,-52.25943541701445
-0.09570000000000012,-52.95264395394832
-0.09670000000000023,-53.39120445690648
-0.09770000000000012,-53.64585249088219
-0.09870000000000023,-54.08441299384035
-0.09970000000000012,-54.69273885278232
-0.10070000000000023,-55.31521182472294
-0.10170000000000012,-55.881096344668954
-0.10270000000000024,-56.30550973462846
-0.10370000000000013,-56.82895291557852
-0.10470000000000024,-57.30995475753264
-0.10570000000000013,-57.8333979384827
-0.10670000000000024,-58.583194927411164
-0.10770000000000013,-59.403727481332886
-0.10870000000000024,-60.32328982624517
-0.10970000000000013,-61.15796949316553
-0.11070000000000024,-61.851178030099405
-0.11170000000000013,-62.41706255004542
-0.11270000000000002,-62.81318171400764
-0.11370000000000013,-63.251742216965795
-0.11470000000000002,-63.732744058919906
-0.11570000000000014,-64.25618723986996
-0.11670000000000003,-64.68060062982947
-0.11770000000000014,-65.11916113278764
-0.11870000000000003,-65.64260431373769
-0.11970000000000014,-66.29337151167562
-0.12070000000000003,-66.9582858226122
-0.12170000000000014,-67.7788183765339
-0.12270000000000003,-68.69838072144618
-0.12370000000000014,-69.70282574435035
-0.12470000000000003,-70.62238808926263
-0.12570000000000014,-71.31559662619651
-0.12670000000000003,-71.7965984681506
-0.12770000000000015,-72.19271763211282
-0.12870000000000004,-72.53224834408043
-0.12970000000000015,-72.80104349105478
-0.13070000000000004,-72.8859261690467
-0.13170000000000015,-73.15472131602105
-0.13270000000000004,-73.57913470598055
-0.13370000000000015,-74.14501922592657
-0.13470000000000004,-74.80993353686314
-0.13570000000000015,-75.54558341279296
-0.13670000000000004,-76.46514575770523
-0.13770000000000016,-77.42714944161345
-0.13870000000000005,-78.33256467352709
-0.13970000000000016,-79.2945683574353
-0.14070000000000005,-80.21413070234757
-0.14170000000000016,-80.73757388329766
-0.14270000000000005,-81.21857572525175
-0.14370000000000016,-81.65713622820991
-0.14470000000000005,-82.18057940915998
-0.14570000000000016,-82.56255146012353
-0.14670000000000005,-82.9162292850898
-0.14770000000000016,-83.31234844905201
-0.14870000000000005,-84.00555698598588
-0.14970000000000017,-85.13732602587791
-0.15070000000000006,-86.28324217876859
-0.15170000000000017,-87.14621607168625
-0.15270000000000006,-87.71210059163228
-0.15370000000000017,-88.23554377258235
-0.15470000000000006,-88.80142829252836
-0.15570000000000017,-89.42390126446898
-0.15670000000000006,-89.94734444541903
-0.15770000000000017,-90.32931649638259
-0.15870000000000006,-90.85275967733266
-0.15970000000000018,-91.56011532726518
-0.16070000000000007,-92.42308922018285
-0.16170000000000018,-93.21532754810727
-0.16270000000000007,-94.03586010202899
-0.16370000000000018,-94.70077441296557
-0.16470000000000007,-95.30910027190752
-0.16570000000000018,-95.87498479185354
-0.16670000000000007,-96.52575198979144
-0.16770000000000018,-97.31799031771587
-0.16870000000000007,-98.18096421063355
-0.16970000000000018,-98.88831986056607
-0.17070000000000007,-99.41176304151614
-0.17170000000000019,-99.87861777047159
-0.17270000000000008,-100.35961961242569
-0.1737000000000002,-100.98209258436633
-0.17470000000000008,-101.54797710431234
-0.1757000000000002,-102.1563029632543
-0.17670000000000008,-102.59486346621246
-0.1777000000000002,-103.24563066415038
-0.17870000000000008,-104.12275167006669
-0.1797000000000002,-104.94328422398843
-0.18070000000000008,-105.73552255191284
-0.1817000000000002,-106.34384841085482
-0.18270000000000008,-106.99461560879273
-0.1837000000000002,-107.73026548472255
-0.1847000000000001,-108.48006247365102
-0.1857000000000002,-109.08838833259297
-0.1867000000000001,-109.61183151354304
-0.1877000000000002,-110.09283335549715
-0.1887000000000001,-110.57383519745127
-0.1897000000000002,-111.22460239538917
-0.1907000000000001,-112.18660607929739
-0.1917000000000001,-113.14860976320564
-0.19269999999999998,-113.79937696114357
-0.1937000000000001,-114.19549612510575
-0.19469999999999998,-114.67649796705987
-0.1957000000000001,-115.15749980901398
-0.19669999999999999,-115.68094298996405
-0.1977000000000001,-116.10535637992358
-0.1987,-116.62879956087362
-0.1997000000000001,-117.3785965498021
-0.2007,-118.07180508673595
-0.2017000000000001,-118.59524826768603
-0.2027,-118.86404341466037
-0.2037000000000001,-119.3450452566145
-0.2047,-119.81189998556997
-0.2057000000000001,-120.33534316652002
-0.2067,-120.68902099148629
-0.2077000000000001,-121.0851401554485
-0.2087,-121.73590735338641
-0.2097000000000001,-122.17446785634456
-0.2107,-122.34423321232836
-0.2117000000000001,-122.95255907127036
-0.2127,-124.35312325813672
-0.2137000000000001,-126.27713062595316
-0.2147,-128.144549541775
-0.2157000000000001,-129.79976176261712
-0.2167,-131.24276728847948
-0.21770000000000012,-132.41697766736743
-0.2187,-133.12433331729994
-0.21970000000000012,-133.1667746562959
-0.2207,-132.47356611936203
-0.22170000000000012,-131.95012293841197
-0.2227,-131.95012293841197
-0.22370000000000012,-132.55844879735392
-0.2247,-133.46386402926754
-0.22570000000000012,-134.17121967920008
-0.2267,-134.86442821613394
-0.22770000000000012,-135.6991078830543
-0.22870000000000001,-136.60452311496792
-0.22970000000000013,-137.48164412088425
-0.23070000000000002,-138.13241131882216
-0.23170000000000013,-138.79732562975875
-0.23270000000000002,-139.36321014970477
-0.23370000000000013,-139.74518220066832
-0.23470000000000002,-140.14130136463055
-0.23570000000000013,-140.45253785060083
-0.23670000000000002,-140.53742052859275
-0.2376999999999999,-140.62230320658463
-0.23870000000000002,-140.93353969255494
-0.2396999999999999,-141.75407224647665
-0.24070000000000003,-143.0273124163552
-0.24169999999999991,-144.30055258623375
-0.24270000000000003,-145.7152638860988
-0.24369999999999992,-146.8470329259908
-0.24470000000000003,-147.83733083589632
-0.24569999999999992,-148.40321535584232
-0.24670000000000003,-148.82762874580186
-0.24769999999999992,-149.25204213576137
-0.24870000000000003,-149.6764555257209
-0.24969999999999992,-149.6764555257209
-0.25070000000000003,-149.39351326574788
-0.2516999999999999,-149.39351326574788
-0.25270000000000004,-149.53498439573437
-0.2536999999999999,-150.1008689156804
-0.25470000000000004,-150.66675343562642
-0.2556999999999999,-151.23263795557244
-0.25670000000000004,-151.7985224755184
-0.25769999999999993,-152.50587812545095
-0.25870000000000004,-153.35470490536997
-0.25969999999999993,-154.3450028152755
-0.26070000000000004,-155.33530072518104
-0.26169999999999993,-156.18412750510007
-0.26270000000000004,-156.89148315503257
-0.26369999999999993,-157.59883880496508
-0.26470000000000005,-157.88178106493808
-0.26569999999999994,-158.1647233249111
-0.26670000000000005,-158.4476655848841
-0.26769999999999994,-158.5891367148706
-0.26870000000000005,-158.87207897484362
-0.26969999999999994,-159.15502123481662
-0.27070000000000005,-159.86237688474912
-0.27169999999999994,-160.71120366466818
-0.27270000000000005,-161.5600304445872
-0.27369999999999994,-162.6917994844792
-0.27470000000000006,-163.82356852437124
-0.27569999999999995,-164.9553375642633
-0.27670000000000006,-165.94563547416882
-0.27769999999999995,-166.79446225408785
-0.27870000000000006,-167.6432890340068
-0.27969999999999995,-168.06770242396635
-0.28070000000000006,-168.63358694391238
-0.28169999999999995,-169.19947146385837
-0.28270000000000006,-169.7653559838044
-0.28369999999999995,-170.33124050375042
-0.28470000000000006,-170.47271163373694
-0.28569999999999995,-170.18976937376394
-0.28670000000000007,-169.7653559838044
-0.28769999999999996,-169.48241372383137
-0.28870000000000007,-169.3409425938449
-0.28969999999999996,-169.3409425938449
-0.29070000000000007,-169.3409425938449
-0.29169999999999996,-170.33124050375042
-0.29270000000000007,-171.46300954364247
-0.29369999999999996,-172.73624971352098
-0.2947000000000001,-173.58507649344
-0.29569999999999996,-174.0094898833995
-0.2967000000000001,-174.57537440334553
-0.29769999999999996,-174.99978779330505
-0.2987000000000001,-175.56567231325104
-0.29969999999999997,-175.56567231325104
-0.3007000000000001,-175.42420118326456
-0.30169999999999997,-175.56567231325104
-0.3027000000000001,-176.13155683319707
-0.30369999999999997,-176.6974413531431
-0.3047000000000001,-177.2633258730891
-0.30569999999999997,-177.9706815230216
-0.3067000000000001,-178.81950830294062
-0.3077,-179.66833508285964
-0.3087000000000001,-180.37569073279218
-0.3097,-181.08304638272472
-0.3107000000000001,-181.5074597726842
-0.3117,-181.64893090267074
-0.3127000000000001,-181.36598864269772
-0.3137,-181.36598864269772
-0.3147000000000001,-181.64893090267074
-0.3157,-181.93187316264374
-0.3167000000000001,-181.93187316264374
-0.3177,-181.79040203265723
-0.3187000000000001,-182.35628655260325
-0.3197,-183.48805559249527
-0.3207000000000001,-184.6198246323873
-0.3217,-185.46865141230631
-0.3227000000000001,-185.89306480226583
-0.3237,-186.31747819222534
-0.3247000000000001,-186.74189158218485
-0.3257,-187.02483384215788
-0.3267000000000001,-186.88336271217133
-0.3277,-186.60042045219836
-0.3287000000000001,-186.31747819222534
-0.3297,-186.60042045219836
-0.3307000000000001,-187.02483384215788
-0.3317,-187.73218949209036
-0.3327000000000001,-188.01513175206335
-0.3337,-187.73218949209036
-0.3347000000000001,-187.59071836210387
-0.3357,-187.44924723211736
-0.3367000000000001,-187.30777610213087
-0.3377,-186.88336271217133
-0.3387000000000001,-186.88336271217133
-0.3397,-189.1469007919554
-0.3407000000000001,-192.966621301591
-0.3417,-195.79604390132107
-0.3427000000000001,-196.6448706812401
-0.3437,-196.50339955125358
-0.3447000000000001,-195.23015938137505
-0.3457,-193.249563561564
-0.3467000000000001,-190.98602548177996
-0.3477,-189.2883719219419
-0.3487000000000001,-188.72248740199586
-0.3497,-189.57131418191491
-0.3507000000000001,-190.98602548177996
-0.3517,-192.82515017160452
-0.3527000000000001,-195.37163051136156
-0.3537,-197.21075520118612
-0.3547000000000001,-197.91811085111863
-0.3557,-198.05958198110514
-0.35670000000000013,-197.91811085111863
-0.3577,-197.77663972113214
-0.35870000000000013,-197.21075520118612
-0.3597,-195.79604390132107
-0.36070000000000013,-194.38133260145605
-0.3617,-193.81544808151003
-0.3626999999999999,-194.09839034148303
-0.3637,-194.38133260145605
-0.3646999999999999,-194.38133260145605
-0.3657,-194.2398614714695
-0.3666999999999999,-193.6739769515235
-0.3677,-192.82515017160452
-0.3686999999999999,-192.11779452167198
-0.36970000000000003,-191.9763233916855
-0.3706999999999999,-192.683679041618
-0.37170000000000003,-193.3910346915505
-0.3726999999999999,-193.9569192114965
-0.37370000000000003,-194.80574599141553
-0.3746999999999999,-195.51310164134807
-0.37570000000000003,-196.50339955125358
-0.3766999999999999,-197.35222633117263
-0.37770000000000004,-197.77663972113214
-0.3786999999999999,-197.77663972113214
-0.37970000000000004,-197.35222633117263
-0.3806999999999999,-196.6448706812401
-0.38170000000000004,-195.93751503130758
-0.38269999999999993,-195.37163051136156
-0.38370000000000004,-195.23015938137505
-0.38469999999999993,-195.51310164134807
-0.38570000000000004,-196.0789861612941
-0.38669999999999993,-196.50339955125358
-0.38770000000000004,-196.92781294121312
-0.38869999999999993,-197.35222633117263
-0.38970000000000005,-197.63516859114563
-0.39069999999999994,-197.91811085111863
-0.39170000000000005,-197.63516859114563
-0.39269999999999994,-197.21075520118612
-0.39370000000000005,-196.7863418112266
-0.39469999999999994,-196.50339955125358
-0.39570000000000005,-196.0789861612941
-0.39669999999999994,-195.51310164134807
-0.39770000000000005,-194.94721712140205
-0.39869999999999994,-195.08868825138856
-0.39970000000000006,-195.08868825138856
-0.40069999999999995,-194.80574599141553
-0.40170000000000006,-194.38133260145605
-0.40269999999999995,-194.66427486142905
-0.40370000000000006,-195.65457277133459
-0.40469999999999995,-196.6448706812401
-0.40570000000000006,-197.0692840711996
-0.40669999999999995,-197.35222633117263
-0.40770000000000006,-197.35222633117263
-0.40869999999999995,-197.35222633117263
-0.40970000000000006,-196.92781294121312
-0.41069999999999995,-196.7863418112266
-0.41170000000000007,-197.0692840711996
-0.41269999999999996,-197.63516859114563
-0.41370000000000007,-198.3425242410781
-0.41469999999999996,-198.90840876102413
-0.41570000000000007,-199.19135102099716
-0.41669999999999996,-199.04987989101065
-0.41770000000000007,-198.48399537106465
-0.41869999999999996,-198.05958198110514
-0.4197000000000001,-197.91811085111863
-0.42069999999999996,-197.77663972113214
-0.4217000000000001,-197.63516859114563
-0.42269999999999996,-197.35222633117263
-0.4237000000000001,-196.2204572912806
-0.42469999999999997,-195.51310164134807
-0.4257000000000001,-195.37163051136156
-0.42669999999999997,-196.3619284212671
-0.4277000000000001,-198.62546650105114
-0.42869999999999997,-200.4645911908757
-0.4297000000000001,-200.7475334508487
-0.43069999999999997,-200.04017780091618
-0.4317000000000001,-198.76693763103765
-0.4327,-198.48399537106465
-0.4337000000000001,-199.47429328097016
-0.4347,-200.4645911908757
-0.4357000000000001,-200.4645911908757
-0.4367,-199.61576441095667
-0.4377000000000001,-198.90840876102413
-0.4387,-198.62546650105114
-0.4397000000000001,-198.20105311109162
-0.4407,-197.77663972113214
-0.4417000000000001,-197.77663972113214
-0.4427,-198.20105311109162
-0.4437000000000001,-198.76693763103765
-0.4447,-199.19135102099716
-0.4457000000000001,-199.47429328097016
-0.4467,-199.75723554094319
-0.4477000000000001,-200.6060623208622
-0.4487,-201.87930249074074
-0.4497000000000001,-202.7281292706598
-0.4507,-202.44518701068677
-0.4517000000000001,-201.17194684080823
-0.4527,-199.89870667092967
-0.4537000000000001,-198.76693763103765
-0.4547,-198.20105311109162
-0.4557000000000001,-197.63516859114563
-0.4567,-197.0692840711996
-0.4577000000000001,-196.3619284212671
-0.4587,-196.3619284212671
-0.4597000000000001,-197.21075520118612
-0.4607,-198.20105311109162
-0.4617000000000001,-199.33282215098367
-0.4627,-200.6060623208622
-0.4637000000000001,-201.59636023076774
-0.4647,-202.16224475071377
-0.4657000000000001,-202.02077362072723
-0.4667,-201.4548891007812
-0.4677000000000001,-201.31341797079472
-0.4687,-201.4548891007812
-0.4697000000000001,-202.30371588070025
-0.4707,-203.71842718056527
-0.4717000000000001,-204.9916673504438
-0.4727,-206.12343639033585
-0.4737000000000001,-206.54784978029537
-0.4747,-206.83079204026836
-0.4757000000000001,-206.40637865030885
-0.4767,-205.13313848043032
-0.4777000000000001,-203.57695605057876
-0.4787,-202.02077362072723
-0.4797000000000001,-201.17194684080823
-0.4807,-200.3231200608892
-0.48170000000000013,-198.76693763103765
-0.4827,-197.91811085111863
-0.48370000000000013,-198.48399537106465
-0.4847,-199.61576441095667
-0.48570000000000013,-199.89870667092967
-0.4867,-198.62546650105114
-0.48570000000000013,-196.0789861612941
-0.4847,-194.66427486142905
-0.48370000000000013,-193.6739769515235
-0.4827,-192.54220791163152
-0.48170000000000013,-190.56161209182042
-0.4807,-188.58101627200938
-0.4797000000000001,-186.60042045219836
-0.4787,-184.47835350240078
-0.4777000000000001,-182.21481542261674
-0.4767,-179.52686395287316
-0.4757000000000001,-176.55597022315658
-0.4747,-173.44360536345349
-0.4737000000000001,-171.03859615368293
-0.4727,-168.77505807389886
-0.4717000000000001,-166.51151999411482
-0.4707,-163.68209739438475
-0.4697000000000001,-160.5697325346817
-0.4687,-157.88178106493808
-0.4677000000000001,-156.75001202504606
-0.4667,-156.46706976507306
