Apr. 9, 2025   19:38:00
Cyclic Voltammetry
File: c:/users/guazh/data/banditlqround7_x0exp994_r5/2025-03-28-exp1031\exp1031-2025-04-09t19_26_25-arkoh\exp1031_cv_sr_600mvs_efin_-1500mv.bin
Data Source:  Experiment
Instrument Model:  CHI760E
Header: CV ran at 600 mVs
Note: 

Init E (V) = -1
High E (V) = -1
Low E (V) = -1.5
Final E (V) = -1
Init P/N = N
Scan Rate (V/s) = 0.6
Segment = 3
Sample Interval (V) = 0.001
Quiet Time (sec) = 2
Sensitivity (A/V) = 0.01
Comp R (ohm) = 1.6

Results:

Channel 1:
Segment 1:
Ep = -1.248V
ip = 1.185e-3A
Ah = 2.045e-4C

Segment 2:

Segment 3:

Potential/V, Current/A

-1.000, 1.249e-5
-1.001, 8.340e-5
-1.002, 1.296e-4
-1.003, 1.636e-4
-1.004, 1.913e-4
-1.005, 2.129e-4
-1.006, 2.314e-4
-1.007, 2.468e-4
-1.008, 2.622e-4
-1.009, 2.746e-4
-1.010, 2.838e-4
-1.011, 2.931e-4
-1.012, 3.023e-4
-1.013, 3.085e-4
-1.014, 3.146e-4
-1.015, 3.239e-4
-1.016, 3.331e-4
-1.017, 3.424e-4
-1.018, 3.516e-4
-1.019, 3.578e-4
-1.020, 3.640e-4
-1.021, 3.732e-4
-1.022, 3.794e-4
-1.023, 3.825e-4
-1.024, 3.917e-4
-1.025, 3.979e-4
-1.026, 4.071e-4
-1.027, 4.164e-4
-1.028, 4.256e-4
-1.029, 4.318e-4
-1.030, 4.410e-4
-1.031, 4.472e-4
-1.032, 4.534e-4
-1.033, 4.595e-4
-1.034, 4.688e-4
-1.035, 4.750e-4
-1.036, 4.873e-4
-1.037, 4.965e-4
-1.038, 5.089e-4
-1.039, 5.181e-4
-1.040, 5.243e-4
-1.041, 5.335e-4
-1.042, 5.428e-4
-1.043, 5.520e-4
-1.044, 5.582e-4
-1.045, 5.674e-4
-1.046, 5.798e-4
-1.047, 5.921e-4
-1.048, 6.044e-4
-1.049, 6.137e-4
-1.050, 6.260e-4
-1.051, 6.322e-4
-1.052, 6.445e-4
-1.053, 6.507e-4
-1.054, 6.630e-4
-1.055, 6.754e-4
-1.056, 6.877e-4
-1.057, 7.000e-4
-1.058, 7.124e-4
-1.059, 7.247e-4
-1.060, 7.370e-4
-1.061, 7.494e-4
-1.062, 7.586e-4
-1.063, 7.709e-4
-1.064, 7.802e-4
-1.065, 7.925e-4
-1.066, 8.079e-4
-1.067, 8.203e-4
-1.068, 8.357e-4
-1.069, 8.480e-4
-1.070, 8.634e-4
-1.071, 8.727e-4
-1.072, 8.850e-4
-1.073, 8.943e-4
-1.074, 9.066e-4
-1.075, 9.220e-4
-1.076, 9.374e-4
-1.077, 9.498e-4
-1.078, 9.652e-4
-1.079, 9.806e-4
-1.080, 9.929e-4
-1.081, 1.005e-3
-1.082, 1.018e-3
-1.083, 1.027e-3
-1.084, 1.039e-3
-1.085, 1.055e-3
-1.086, 1.070e-3
-1.087, 1.085e-3
-1.088, 1.101e-3
-1.089, 1.113e-3
-1.090, 1.129e-3
-1.091, 1.141e-3
-1.092, 1.153e-3
-1.093, 1.162e-3
-1.094, 1.178e-3
-1.095, 1.190e-3
-1.096, 1.203e-3
-1.097, 1.218e-3
-1.098, 1.233e-3
-1.099, 1.249e-3
-1.100, 1.261e-3
-1.101, 1.273e-3
-1.102, 1.289e-3
-1.103, 1.298e-3
-1.104, 1.310e-3
-1.105, 1.326e-3
-1.106, 1.341e-3
-1.107, 1.357e-3
-1.108, 1.372e-3
-1.109, 1.388e-3
-1.110, 1.400e-3
-1.111, 1.412e-3
-1.112, 1.425e-3
-1.113, 1.437e-3
-1.114, 1.449e-3
-1.115, 1.462e-3
-1.116, 1.477e-3
-1.117, 1.492e-3
-1.118, 1.508e-3
-1.119, 1.523e-3
-1.120, 1.536e-3
-1.121, 1.548e-3
-1.122, 1.560e-3
-1.123, 1.573e-3
-1.124, 1.585e-3
-1.125, 1.597e-3
-1.126, 1.613e-3
-1.127, 1.631e-3
-1.128, 1.647e-3
-1.129, 1.662e-3
-1.130, 1.674e-3
-1.131, 1.690e-3
-1.132, 1.702e-3
-1.133, 1.714e-3
-1.134, 1.727e-3
-1.135, 1.742e-3
-1.136, 1.758e-3
-1.137, 1.773e-3
-1.138, 1.788e-3
-1.139, 1.804e-3
-1.140, 1.819e-3
-1.141, 1.832e-3
-1.142, 1.844e-3
-1.143, 1.859e-3
-1.144, 1.872e-3
-1.145, 1.887e-3
-1.146, 1.902e-3
-1.147, 1.921e-3
-1.148, 1.936e-3
-1.149, 1.955e-3
-1.150, 1.970e-3
-1.151, 1.986e-3
-1.152, 1.998e-3
-1.153, 2.010e-3
-1.154, 2.026e-3
-1.155, 2.041e-3
-1.156, 2.060e-3
-1.157, 2.078e-3
-1.158, 2.097e-3
-1.159, 2.112e-3
-1.160, 2.131e-3
-1.161, 2.146e-3
-1.162, 2.161e-3
-1.163, 2.177e-3
-1.164, 2.192e-3
-1.165, 2.208e-3
-1.166, 2.226e-3
-1.167, 2.245e-3
-1.168, 2.263e-3
-1.169, 2.282e-3
-1.170, 2.300e-3
-1.171, 2.316e-3
-1.172, 2.331e-3
-1.173, 2.346e-3
-1.174, 2.362e-3
-1.175, 2.380e-3
-1.176, 2.399e-3
-1.177, 2.420e-3
-1.178, 2.442e-3
-1.179, 2.460e-3
-1.180, 2.479e-3
-1.181, 2.494e-3
-1.182, 2.513e-3
-1.183, 2.525e-3
-1.184, 2.544e-3
-1.185, 2.559e-3
-1.186, 2.581e-3
-1.187, 2.599e-3
-1.188, 2.618e-3
-1.189, 2.639e-3
-1.190, 2.658e-3
-1.191, 2.673e-3
-1.192, 2.692e-3
-1.193, 2.707e-3
-1.194, 2.723e-3
-1.195, 2.741e-3
-1.196, 2.760e-3
-1.197, 2.778e-3
-1.198, 2.797e-3
-1.199, 2.815e-3
-1.200, 2.834e-3
-1.201, 2.852e-3
-1.202, 2.867e-3
-1.203, 2.883e-3
-1.204, 2.898e-3
-1.205, 2.914e-3
-1.206, 2.932e-3
-1.207, 2.951e-3
-1.208, 2.969e-3
-1.209, 2.988e-3
-1.210, 3.003e-3
-1.211, 3.019e-3
-1.212, 3.034e-3
-1.213, 3.046e-3
-1.214, 3.059e-3
-1.215, 3.074e-3
-1.216, 3.089e-3
-1.217, 3.105e-3
-1.218, 3.123e-3
-1.219, 3.136e-3
-1.220, 3.151e-3
-1.221, 3.163e-3
-1.222, 3.176e-3
-1.223, 3.185e-3
-1.224, 3.197e-3
-1.225, 3.210e-3
-1.226, 3.222e-3
-1.227, 3.237e-3
-1.228, 3.250e-3
-1.229, 3.265e-3
-1.230, 3.278e-3
-1.231, 3.287e-3
-1.232, 3.293e-3
-1.233, 3.302e-3
-1.234, 3.308e-3
-1.235, 3.318e-3
-1.236, 3.327e-3
-1.237, 3.336e-3
-1.238, 3.345e-3
-1.239, 3.351e-3
-1.240, 3.358e-3
-1.241, 3.364e-3
-1.242, 3.367e-3
-1.243, 3.367e-3
-1.244, 3.370e-3
-1.245, 3.370e-3
-1.246, 3.370e-3
-1.247, 3.373e-3
-1.248, 3.376e-3
-1.249, 3.376e-3
-1.250, 3.373e-3
-1.251, 3.370e-3
-1.252, 3.367e-3
-1.253, 3.358e-3
-1.254, 3.351e-3
-1.255, 3.345e-3
-1.256, 3.339e-3
-1.257, 3.333e-3
-1.258, 3.330e-3
-1.259, 3.321e-3
-1.260, 3.314e-3
-1.261, 3.302e-3
-1.262, 3.290e-3
-1.263, 3.271e-3
-1.264, 3.253e-3
-1.265, 3.237e-3
-1.266, 3.225e-3
-1.267, 3.210e-3
-1.268, 3.197e-3
-1.269, 3.179e-3
-1.270, 3.163e-3
-1.271, 3.142e-3
-1.272, 3.120e-3
-1.273, 3.096e-3
-1.274, 3.074e-3
-1.275, 3.052e-3
-1.276, 3.031e-3
-1.277, 3.006e-3
-1.278, 2.985e-3
-1.279, 2.963e-3
-1.280, 2.938e-3
-1.281, 2.908e-3
-1.282, 2.880e-3
-1.283, 2.849e-3
-1.284, 2.821e-3
-1.285, 2.790e-3
-1.286, 2.766e-3
-1.287, 2.741e-3
-1.288, 2.713e-3
-1.289, 2.686e-3
-1.290, 2.655e-3
-1.291, 2.621e-3
-1.292, 2.593e-3
-1.293, 2.559e-3
-1.294, 2.528e-3
-1.295, 2.497e-3
-1.296, 2.467e-3
-1.297, 2.439e-3
-1.298, 2.411e-3
-1.299, 2.383e-3
-1.300, 2.353e-3
-1.301, 2.322e-3
-1.302, 2.294e-3
-1.303, 2.260e-3
-1.304, 2.232e-3
-1.305, 2.205e-3
-1.306, 2.180e-3
-1.307, 2.152e-3
-1.308, 2.131e-3
-1.309, 2.103e-3
-1.310, 2.075e-3
-1.311, 2.047e-3
-1.312, 2.020e-3
-1.313, 1.992e-3
-1.314, 1.967e-3
-1.315, 1.943e-3
-1.316, 1.924e-3
-1.317, 1.906e-3
-1.318, 1.887e-3
-1.319, 1.869e-3
-1.320, 1.847e-3
-1.321, 1.828e-3
-1.322, 1.807e-3
-1.323, 1.788e-3
-1.324, 1.770e-3
-1.325, 1.751e-3
-1.326, 1.739e-3
-1.327, 1.724e-3
-1.328, 1.711e-3
-1.329, 1.699e-3
-1.330, 1.684e-3
-1.331, 1.668e-3
-1.332, 1.653e-3
-1.333, 1.637e-3
-1.334, 1.625e-3
-1.335, 1.613e-3
-1.336, 1.603e-3
-1.337, 1.597e-3
-1.338, 1.588e-3
-1.339, 1.582e-3
-1.340, 1.573e-3
-1.341, 1.563e-3
-1.342, 1.554e-3
-1.343, 1.545e-3
-1.344, 1.536e-3
-1.345, 1.529e-3
-1.346, 1.526e-3
-1.347, 1.520e-3
-1.348, 1.520e-3
-1.349, 1.514e-3
-1.350, 1.511e-3
-1.351, 1.505e-3
-1.352, 1.499e-3
-1.353, 1.495e-3
-1.354, 1.492e-3
-1.355, 1.489e-3
-1.356, 1.486e-3
-1.357, 1.483e-3
-1.358, 1.483e-3
-1.359, 1.480e-3
-1.360, 1.477e-3
-1.361, 1.477e-3
-1.362, 1.474e-3
-1.363, 1.471e-3
-1.364, 1.471e-3
-1.365, 1.471e-3
-1.366, 1.474e-3
-1.367, 1.480e-3
-1.368, 1.483e-3
-1.369, 1.486e-3
-1.370, 1.489e-3
-1.371, 1.489e-3
-1.372, 1.489e-3
-1.373, 1.489e-3
-1.374, 1.492e-3
-1.375, 1.495e-3
-1.376, 1.502e-3
-1.377, 1.508e-3
-1.378, 1.517e-3
-1.379, 1.523e-3
-1.380, 1.529e-3
-1.381, 1.532e-3
-1.382, 1.536e-3
-1.383, 1.542e-3
-1.384, 1.545e-3
-1.385, 1.551e-3
-1.386, 1.560e-3
-1.387, 1.569e-3
-1.388, 1.576e-3
-1.389, 1.585e-3
-1.390, 1.594e-3
-1.391, 1.597e-3
-1.392, 1.603e-3
-1.393, 1.610e-3
-1.394, 1.619e-3
-1.395, 1.628e-3
-1.396, 1.637e-3
-1.397, 1.647e-3
-1.398, 1.656e-3
-1.399, 1.668e-3
-1.400, 1.674e-3
-1.401, 1.684e-3
-1.402, 1.693e-3
-1.403, 1.699e-3
-1.404, 1.708e-3
-1.405, 1.714e-3
-1.406, 1.727e-3
-1.407, 1.739e-3
-1.408, 1.751e-3
-1.409, 1.764e-3
-1.410, 1.773e-3
-1.411, 1.782e-3
-1.412, 1.791e-3
-1.413, 1.798e-3
-1.414, 1.810e-3
-1.415, 1.819e-3
-1.416, 1.828e-3
-1.417, 1.841e-3
-1.418, 1.856e-3
-1.419, 1.865e-3
-1.420, 1.875e-3
-1.421, 1.884e-3
-1.422, 1.893e-3
-1.423, 1.899e-3
-1.424, 1.909e-3
-1.425, 1.918e-3
-1.426, 1.930e-3
-1.427, 1.943e-3
-1.428, 1.955e-3
-1.429, 1.964e-3
-1.430, 1.976e-3
-1.431, 1.983e-3
-1.432, 1.992e-3
-1.433, 1.998e-3
-1.434, 2.007e-3
-1.435, 2.017e-3
-1.436, 2.029e-3
-1.437, 2.038e-3
-1.438, 2.050e-3
-1.439, 2.060e-3
-1.440, 2.066e-3
-1.441, 2.075e-3
-1.442, 2.084e-3
-1.443, 2.087e-3
-1.444, 2.097e-3
-1.445, 2.103e-3
-1.446, 2.112e-3
-1.447, 2.124e-3
-1.448, 2.134e-3
-1.449, 2.143e-3
-1.450, 2.149e-3
-1.451, 2.155e-3
-1.452, 2.161e-3
-1.453, 2.168e-3
-1.454, 2.174e-3
-1.455, 2.183e-3
-1.456, 2.189e-3
-1.457, 2.198e-3
-1.458, 2.208e-3
-1.459, 2.217e-3
-1.460, 2.223e-3
-1.461, 2.226e-3
-1.462, 2.232e-3
-1.463, 2.235e-3
-1.464, 2.238e-3
-1.465, 2.245e-3
-1.466, 2.254e-3
-1.467, 2.260e-3
-1.468, 2.272e-3
-1.469, 2.275e-3
-1.470, 2.282e-3
-1.471, 2.285e-3
-1.472, 2.291e-3
-1.473, 2.294e-3
-1.474, 2.294e-3
-1.475, 2.300e-3
-1.476, 2.306e-3
-1.477, 2.312e-3
-1.478, 2.319e-3
-1.479, 2.322e-3
-1.480, 2.328e-3
-1.481, 2.331e-3
-1.482, 2.334e-3
-1.483, 2.334e-3
-1.484, 2.337e-3
-1.485, 2.340e-3
-1.486, 2.346e-3
-1.487, 2.356e-3
-1.488, 2.359e-3
-1.489, 2.365e-3
-1.490, 2.371e-3
-1.491, 2.374e-3
-1.492, 2.380e-3
-1.493, 2.383e-3
-1.494, 2.390e-3
-1.495, 2.396e-3
-1.496, 2.405e-3
-1.497, 2.417e-3
-1.498, 2.427e-3
-1.499, 2.436e-3
-1.500, 2.374e-3
-1.499, 2.214e-3
-1.498, 2.100e-3
-1.497, 2.007e-3
-1.496, 1.930e-3
-1.495, 1.865e-3
-1.494, 1.810e-3
-1.493, 1.758e-3
-1.492, 1.708e-3
-1.491, 1.665e-3
-1.490, 1.619e-3
-1.489, 1.573e-3
-1.488, 1.536e-3
-1.487, 1.495e-3
-1.486, 1.458e-3
-1.485, 1.421e-3
-1.484, 1.391e-3
-1.483, 1.360e-3
-1.482, 1.332e-3
-1.481, 1.301e-3
-1.480, 1.270e-3
-1.479, 1.243e-3
-1.478, 1.215e-3
-1.477, 1.187e-3
-1.476, 1.159e-3
-1.475, 1.135e-3
-1.474, 1.113e-3
-1.473, 1.092e-3
-1.472, 1.073e-3
-1.471, 1.048e-3
-1.470, 1.027e-3
-1.469, 1.005e-3
-1.468, 9.806e-4
-1.467, 9.590e-4
-1.466, 9.374e-4
-1.465, 9.189e-4
-1.464, 9.004e-4
-1.463, 8.850e-4
-1.462, 8.665e-4
-1.461, 8.511e-4
-1.460, 8.326e-4
-1.459, 8.141e-4
-1.458, 7.925e-4
-1.457, 7.740e-4
-1.456, 7.555e-4
-1.455, 7.401e-4
-1.454, 7.278e-4
-1.453, 7.124e-4
-1.452, 6.969e-4
-1.451, 6.815e-4
-1.450, 6.661e-4
-1.449, 6.507e-4
-1.448, 6.353e-4
-1.447, 6.168e-4
-1.446, 6.014e-4
-1.445, 5.859e-4
-1.444, 5.736e-4
-1.443, 5.582e-4
-1.442, 5.459e-4
-1.441, 5.305e-4
-1.440, 5.181e-4
-1.439, 4.996e-4
-1.438, 4.842e-4
-1.437, 4.688e-4
-1.436, 4.534e-4
-1.435, 4.380e-4
-1.434, 4.256e-4
-1.433, 4.133e-4
-1.432, 4.010e-4
-1.431, 3.855e-4
-1.430, 3.732e-4
-1.429, 3.578e-4
-1.428, 3.424e-4
-1.427, 3.270e-4
-1.426, 3.115e-4
-1.425, 2.992e-4
-1.424, 2.869e-4
-1.423, 2.746e-4
-1.422, 2.653e-4
-1.421, 2.530e-4
-1.420, 2.376e-4
-1.419, 2.252e-4
-1.418, 2.098e-4
-1.417, 1.944e-4
-1.416, 1.821e-4
-1.415, 1.697e-4
-1.414, 1.574e-4
-1.413, 1.451e-4
-1.412, 1.358e-4
-1.411, 1.235e-4
-1.410, 1.111e-4
-1.409, 9.882e-5
-1.408, 8.340e-5
-1.407, 7.107e-5
-1.406, 5.873e-5
-1.405, 4.949e-5
-1.404, 4.024e-5
-1.403, 3.099e-5
-1.402, 1.865e-5
-1.401, 9.405e-6
-1.400, 1.559e-7
-1.399, -1.218e-5
-1.398, -2.451e-5
-1.397, -3.684e-5
-1.396, -4.609e-5
-1.395, -5.534e-5
-1.394, -6.459e-5
-1.393, -7.384e-5
-1.392, -8.000e-5
-1.391, -8.617e-5
-1.390, -9.850e-5
-1.389, -1.078e-4
-1.388, -1.201e-4
-1.387, -1.293e-4
-1.386, -1.386e-4
-1.385, -1.448e-4
-1.384, -1.540e-4
-1.383, -1.602e-4
-1.382, -1.663e-4
-1.381, -1.725e-4
-1.380, -1.817e-4
-1.379, -1.879e-4
-1.378, -1.972e-4
-1.377, -2.064e-4
-1.376, -2.157e-4
-1.375, -2.218e-4
-1.374, -2.280e-4
-1.373, -2.311e-4
-1.372, -2.372e-4
-1.371, -2.403e-4
-1.370, -2.496e-4
-1.369, -2.557e-4
-1.368, -2.650e-4
-1.367, -2.742e-4
-1.366, -2.773e-4
-1.365, -2.835e-4
-1.364, -2.897e-4
-1.363, -2.927e-4
-1.362, -2.958e-4
-1.361, -3.020e-4
-1.360, -3.051e-4
-1.359, -3.112e-4
-1.358, -3.205e-4
-1.357, -3.267e-4
-1.356, -3.328e-4
-1.355, -3.359e-4
-1.354, -3.390e-4
-1.353, -3.421e-4
-1.352, -3.452e-4
-1.351, -3.513e-4
-1.350, -3.544e-4
-1.349, -3.606e-4
-1.348, -3.667e-4
-1.347, -3.729e-4
-1.346, -3.760e-4
-1.345, -3.791e-4
-1.344, -3.821e-4
-1.343, -3.852e-4
-1.342, -3.852e-4
-1.341, -3.883e-4
-1.340, -3.914e-4
-1.339, -3.976e-4
-1.338, -4.037e-4
-1.337, -4.099e-4
-1.336, -4.130e-4
-1.335, -4.161e-4
-1.334, -4.191e-4
-1.333, -4.191e-4
-1.332, -4.222e-4
-1.331, -4.253e-4
-1.330, -4.284e-4
-1.329, -4.346e-4
-1.328, -4.376e-4
-1.327, -4.438e-4
-1.326, -4.469e-4
-1.325, -4.500e-4
-1.324, -4.531e-4
-1.323, -4.531e-4
-1.322, -4.561e-4
-1.321, -4.561e-4
-1.320, -4.623e-4
-1.319, -4.654e-4
-1.318, -4.685e-4
-1.317, -4.746e-4
-1.316, -4.777e-4
-1.315, -4.808e-4
-1.314, -4.839e-4
-1.313, -4.839e-4
-1.312, -4.839e-4
-1.311, -4.870e-4
-1.310, -4.901e-4
-1.309, -4.962e-4
-1.308, -4.993e-4
-1.307, -5.055e-4
-1.306, -5.086e-4
-1.305, -5.147e-4
-1.304, -5.147e-4
-1.303, -5.147e-4
-1.302, -5.147e-4
-1.301, -5.178e-4
-1.300, -5.209e-4
-1.299, -5.271e-4
-1.298, -5.301e-4
-1.297, -5.363e-4
-1.296, -5.394e-4
-1.295, -5.425e-4
-1.294, -5.456e-4
-1.293, -5.456e-4
-1.292, -5.486e-4
-1.291, -5.517e-4
-1.290, -5.548e-4
-1.289, -5.579e-4
-1.288, -5.641e-4
-1.287, -5.702e-4
-1.286, -5.733e-4
-1.285, -5.764e-4
-1.284, -5.795e-4
-1.283, -5.826e-4
-1.282, -5.826e-4
-1.281, -5.856e-4
-1.280, -5.918e-4
-1.279, -5.949e-4
-1.278, -5.980e-4
-1.277, -6.072e-4
-1.276, -6.103e-4
-1.275, -6.134e-4
-1.274, -6.165e-4
-1.273, -6.195e-4
-1.272, -6.195e-4
-1.271, -6.257e-4
-1.270, -6.288e-4
-1.269, -6.319e-4
-1.268, -6.411e-4
-1.267, -6.473e-4
-1.266, -6.535e-4
-1.265, -6.565e-4
-1.264, -6.596e-4
-1.263, -6.627e-4
-1.262, -6.658e-4
-1.261, -6.689e-4
-1.260, -6.750e-4
-1.259, -6.781e-4
-1.258, -6.874e-4
-1.257, -6.935e-4
-1.256, -6.997e-4
-1.255, -7.028e-4
-1.254, -7.090e-4
-1.253, -7.120e-4
-1.252, -7.151e-4
-1.251, -7.182e-4
-1.250, -7.213e-4
-1.249, -7.213e-4
-1.248, -7.336e-4
-1.247, -7.429e-4
-1.246, -7.521e-4
-1.245, -7.583e-4
-1.244, -7.645e-4
-1.243, -7.675e-4
-1.242, -7.737e-4
-1.241, -7.799e-4
-1.240, -7.860e-4
-1.239, -7.953e-4
-1.238, -8.015e-4
-1.237, -8.107e-4
-1.236, -8.200e-4
-1.235, -8.230e-4
-1.234, -8.292e-4
-1.233, -8.323e-4
-1.232, -8.354e-4
-1.231, -8.385e-4
-1.230, -8.477e-4
-1.229, -8.600e-4
-1.228, -8.631e-4
-1.227, -8.724e-4
-1.226, -8.816e-4
-1.225, -8.909e-4
-1.224, -8.909e-4
-1.223, -8.847e-4
-1.222, -8.909e-4
-1.221, -8.939e-4
-1.220, -9.063e-4
-1.219, -9.186e-4
-1.218, -9.340e-4
-1.217, -9.464e-4
-1.216, -9.556e-4
-1.215, -9.649e-4
-1.214, -9.710e-4
-1.213, -9.772e-4
-1.212, -9.834e-4
-1.211, -9.926e-4
-1.210, -9.988e-4
-1.209, -1.011e-3
-1.208, -1.020e-3
-1.207, -1.033e-3
-1.206, -1.042e-3
-1.205, -1.051e-3
-1.204, -1.057e-3
-1.203, -1.067e-3
-1.202, -1.073e-3
-1.201, -1.079e-3
-1.200, -1.091e-3
-1.199, -1.101e-3
-1.198, -1.113e-3
-1.197, -1.125e-3
-1.196, -1.134e-3
-1.195, -1.144e-3
-1.194, -1.150e-3
-1.193, -1.159e-3
-1.192, -1.165e-3
-1.191, -1.175e-3
-1.190, -1.187e-3
-1.189, -1.193e-3
-1.188, -1.202e-3
-1.187, -1.221e-3
-1.186, -1.236e-3
-1.185, -1.252e-3
-1.184, -1.261e-3
-1.183, -1.270e-3
-1.182, -1.276e-3
-1.181, -1.286e-3
-1.180, -1.301e-3
-1.179, -1.310e-3
-1.178, -1.326e-3
-1.177, -1.329e-3
-1.176, -1.344e-3
-1.175, -1.356e-3
-1.174, -1.366e-3
-1.173, -1.375e-3
-1.172, -1.372e-3
-1.171, -1.375e-3
-1.170, -1.384e-3
-1.169, -1.396e-3
-1.168, -1.412e-3
-1.167, -1.427e-3
-1.166, -1.440e-3
-1.165, -1.452e-3
-1.164, -1.464e-3
-1.163, -1.474e-3
-1.162, -1.489e-3
-1.161, -1.504e-3
-1.160, -1.520e-3
-1.159, -1.535e-3
-1.158, -1.554e-3
-1.157, -1.569e-3
-1.156, -1.585e-3
-1.155, -1.597e-3
-1.154, -1.609e-3
-1.153, -1.615e-3
-1.152, -1.622e-3
-1.151, -1.634e-3
-1.150, -1.646e-3
-1.149, -1.659e-3
-1.148, -1.674e-3
-1.147, -1.689e-3
-1.146, -1.705e-3
-1.145, -1.717e-3
-1.144, -1.726e-3
-1.143, -1.739e-3
-1.142, -1.748e-3
-1.141, -1.760e-3
-1.140, -1.773e-3
-1.139, -1.788e-3
-1.138, -1.803e-3
-1.137, -1.831e-3
-1.136, -1.847e-3
-1.135, -1.868e-3
-1.134, -1.887e-3
-1.133, -1.899e-3
-1.132, -1.914e-3
-1.131, -1.927e-3
-1.130, -1.908e-3
-1.129, -1.918e-3
-1.128, -1.933e-3
-1.127, -1.948e-3
-1.126, -1.961e-3
-1.125, -1.973e-3
-1.124, -1.988e-3
-1.123, -2.001e-3
-1.122, -2.019e-3
-1.121, -2.035e-3
-1.120, -2.050e-3
-1.119, -2.062e-3
-1.118, -2.081e-3
-1.117, -2.093e-3
-1.116, -2.096e-3
-1.115, -2.106e-3
-1.114, -2.118e-3
-1.113, -2.127e-3
-1.112, -2.136e-3
-1.111, -2.152e-3
-1.110, -2.180e-3
-1.109, -2.210e-3
-1.108, -2.232e-3
-1.107, -2.247e-3
-1.106, -2.260e-3
-1.105, -2.272e-3
-1.104, -2.278e-3
-1.103, -2.291e-3
-1.102, -2.300e-3
-1.101, -2.309e-3
-1.100, -2.328e-3
-1.099, -2.343e-3
-1.098, -2.355e-3
-1.097, -2.362e-3
-1.096, -2.377e-3
-1.095, -2.389e-3
-1.094, -2.399e-3
-1.093, -2.374e-3
-1.092, -2.377e-3
-1.091, -2.383e-3
-1.090, -2.395e-3
-1.089, -2.408e-3
-1.088, -2.420e-3
-1.087, -2.432e-3
-1.086, -2.445e-3
-1.085, -2.454e-3
-1.084, -2.479e-3
-1.083, -2.491e-3
-1.082, -2.503e-3
-1.081, -2.509e-3
-1.080, -2.516e-3
-1.079, -2.534e-3
-1.078, -2.543e-3
-1.077, -2.546e-3
-1.076, -2.553e-3
-1.075, -2.562e-3
-1.074, -2.568e-3
-1.073, -2.577e-3
-1.072, -2.580e-3
-1.071, -2.590e-3
-1.070, -2.596e-3
-1.069, -2.608e-3
-1.068, -2.617e-3
-1.067, -2.624e-3
-1.066, -2.636e-3
-1.065, -2.642e-3
-1.064, -2.651e-3
-1.063, -2.704e-3
-1.062, -2.716e-3
-1.061, -2.725e-3
-1.060, -2.738e-3
-1.059, -2.750e-3
-1.058, -2.759e-3
-1.057, -2.759e-3
-1.056, -2.768e-3
-1.055, -2.738e-3
-1.054, -2.722e-3
-1.053, -2.728e-3
-1.052, -2.759e-3
-1.051, -2.768e-3
-1.050, -2.778e-3
-1.049, -2.787e-3
-1.048, -2.796e-3
-1.047, -2.805e-3
-1.046, -2.815e-3
-1.045, -2.818e-3
-1.044, -2.827e-3
-1.043, -2.839e-3
-1.042, -2.879e-3
-1.041, -2.889e-3
-1.040, -2.892e-3
-1.039, -2.898e-3
-1.038, -2.901e-3
-1.037, -2.895e-3
-1.036, -2.901e-3
-1.035, -2.901e-3
-1.034, -2.904e-3
-1.033, -2.910e-3
-1.032, -2.910e-3
-1.031, -2.913e-3
-1.030, -2.916e-3
-1.029, -2.920e-3
-1.028, -2.926e-3
-1.027, -2.935e-3
-1.026, -2.938e-3
-1.025, -2.938e-3
-1.024, -2.941e-3
-1.023, -2.938e-3
-1.022, -2.941e-3
-1.021, -2.941e-3
-1.020, -2.947e-3
-1.019, -2.953e-3
-1.018, -2.929e-3
-1.017, -2.944e-3
-1.016, -2.895e-3
-1.015, -2.892e-3
-1.014, -2.898e-3
-1.013, -2.901e-3
-1.012, -2.907e-3
-1.011, -2.907e-3
-1.010, -2.916e-3
-1.009, -2.929e-3
-1.008, -2.932e-3
-1.007, -2.938e-3
-1.006, -2.941e-3
-1.005, -2.941e-3
-1.004, -2.941e-3
-1.003, -2.935e-3
-1.002, -2.932e-3
-1.001, -2.913e-3
