Potential V vs RHE, Current mA cm-2
0.013299999999999867,0.07623879194972684
0.012299999999999978,-0.09431880236200199
0.011299999999999866,-0.16438945304431726
0.010299999999999976,-0.22055349164895924
0.009299999999999864,-0.27190751183406003
0.008299999999999974,-0.3050117562509019
0.007299999999999862,-0.3318912709483376
0.006299999999999972,-0.3608928525955709
0.00529999999999986,-0.39215797232258814
0.0042999999999999705,-0.4271013414292546
0.0032999999999998586,-0.44959525109710863
0.0022999999999999687,-0.46529854652561053
0.0012999999999998568,-0.4845386202037751
0.00029999999999996696,-0.5108522503812647
-0.000700000000000145,-0.537873236208687
-0.0017000000000000348,-0.556688896496892
-0.0027000000000001467,-0.5660259910760012
-0.0037000000000000366,-0.5815878153745165
-0.0047000000000001485,-0.6083258589419658
-0.005700000000000038,-0.6312441819997794
-0.00670000000000015,-0.6456742372584027
-0.00770000000000004,-0.6538795627976199
-0.008700000000000152,-0.6690169737061759
-0.009700000000000042,-0.6944817771037465
-0.010700000000000154,-0.7178245135515195
-0.011700000000000044,-0.7291422039504398
-0.012700000000000156,-0.7384792985295492
-0.013700000000000045,-0.7489481621485504
-0.014700000000000157,-0.774978850066067
-0.015700000000000047,-0.7925212701843936
-0.01670000000000016,-0.8066683831830439
-0.01770000000000005,-0.8172787179320317
-0.01870000000000016,-0.827747581551033
-0.01970000000000005,-0.8493926644389681
-0.020700000000000163,-0.8727354008867412
-0.021700000000000053,-0.8840530912856616
-0.022700000000000164,-0.8926828302148382
-0.023700000000000054,-0.904424934003718
-0.024700000000000166,-0.9264944302816125
-0.025700000000000056,-0.9506859935093046
-0.026700000000000168,-0.9584669056585623
-0.027700000000000058,-0.967662529107685
-0.02870000000000017,-0.9802534596764839
-0.02970000000000006,-1.0020400136944054
-0.03070000000000017,-1.025807163532138
-0.03170000000000006,-1.0348613158512743
-0.03270000000000017,-1.0443398815603702
-0.03370000000000006,-1.0599017058588855
-0.034700000000000175,-1.079707664056996
-0.035700000000000065,-1.1036162850247149
-0.03670000000000018,-1.1183292825433113
-0.03770000000000007,-1.1220075319229605
-0.03870000000000018,-1.137569356221476
-0.03970000000000007,-1.1586485545894651
-0.04070000000000018,-1.1821327621672248
-0.04170000000000007,-1.1974116442057672
-0.04270000000000018,-1.2043437295751058
-0.04370000000000007,-1.2194811404836614
-0.044700000000000184,-1.2414091656315698
-0.045700000000000074,-1.2624883639995588
-0.046700000000000186,-1.2790404862079796
-0.047700000000000076,-1.2872458117471968
-0.04870000000000019,-1.3042223473455772
-0.04970000000000008,-1.3301115641331076
-0.05070000000000019,-1.3526054738009616
-0.05170000000000008,-1.366752586799612
-0.05270000000000019,-1.3793435173684108
-0.05370000000000008,-1.3943394571469803
-0.05470000000000019,-1.421784856364362
-0.05570000000000008,-1.4472496597619326
-0.056700000000000195,-1.461396772760583
-0.057700000000000085,-1.4783733083589634
-0.058700000000000196,-1.4911057100577487
-0.059700000000000086,-1.5179852247551844
-0.0607000000000002,-1.54769416205235
-0.06170000000000009,-1.5703295428501907
-0.0627000000000002,-1.583061944548976
-0.06370000000000009,-1.6014531914472214
-0.0647000000000002,-1.6283327061446573
-0.06570000000000009,-1.660871066041553
-0.0667000000000002,-1.6778476016399335
-0.0677000000000001,-1.694824137238314
-0.0687000000000002,-1.7188742293360195
-0.0697000000000001,-1.7471684553333202
-0.07070000000000021,-1.7825362378299463
-0.0717000000000001,-1.8037569073279218
-0.07270000000000021,-1.8249775768258971
-0.0737000000000001,-1.8518570915233332
-0.07470000000000021,-1.8858101627200938
-0.0757000000000001,-1.92400736781645
-0.07670000000000021,-1.9494721712140204
-0.0777000000000001,-1.9735222633117262
-0.07870000000000021,-2.001816489309027
-0.0797000000000001,-2.038598983105518
-0.08070000000000022,-2.0782108995017388
-0.0817000000000001,-2.1093345480987695
-0.08270000000000022,-2.133384640196476
-0.08370000000000011,-2.1645082887935065
-0.08470000000000022,-2.208364339089322
-0.08570000000000011,-2.250805678085273
-0.08670000000000022,-2.286173460581899
-0.08770000000000011,-2.3130529752793345
-0.08870000000000022,-2.349835469075826
-0.08970000000000011,-2.3951062306715074
-0.09070000000000022,-2.437547569667458
-0.09170000000000011,-2.4771594860636794
-0.09270000000000023,-2.50828313466071
-0.09370000000000012,-2.545065628457201
-0.09470000000000023,-2.5959952352523423
-0.09570000000000012,-2.639851285548158
-0.09670000000000023,-2.6808779132442444
-0.09770000000000012,-2.7162456957408705
-0.09870000000000023,-2.7530281895373614
-0.09970000000000012,-2.8053725076323675
-0.10070000000000023,-2.8577168257273744
-0.10170000000000012,-2.8959140308237297
-0.10270000000000024,-2.9341112359200863
-0.10370000000000013,-2.975137863616172
-0.10470000000000024,-3.028896893011044
-0.10570000000000013,-3.08407063370578
-0.10670000000000024,-3.122267838802136
-0.10770000000000013,-3.159050332598627
-0.10870000000000024,-3.205735805494173
-0.10970000000000013,-3.2510065670898545
-0.11070000000000024,-3.3090097303843207
-0.11170000000000013,-3.351451069380272
-0.11270000000000002,-3.3938924083762227
-0.11370000000000013,-3.437748458672039
-0.11470000000000002,-3.4886780654671803
-0.11570000000000014,-3.548095940061512
-0.11670000000000003,-3.5877078564577327
-0.11770000000000014,-3.630149195453684
-0.11870000000000003,-3.6754199570493657
-0.11970000000000014,-3.7291789864442366
-0.12070000000000003,-3.7871821497387033
-0.12170000000000014,-3.8310382000345196
-0.12270000000000003,-3.8664059825311448
-0.12370000000000014,-3.910262032826961
-0.12470000000000003,-3.9682651961214277
-0.12570000000000014,-4.0220242255163
-0.12670000000000003,-4.070124409711711
-0.12770000000000015,-4.1040774809084715
-0.12870000000000004,-4.146518819904423
-0.12970000000000015,-4.198863137999429
-0.13070000000000004,-4.24696332219484
-0.13170000000000015,-4.292234083790521
-0.13270000000000004,-4.329016577587013
-0.13370000000000015,-4.368628493983234
-0.13470000000000004,-4.42380223467797
-0.13570000000000015,-4.471902418873381
-0.13670000000000004,-4.512929046569467
-0.13770000000000016,-4.5497115403659585
-0.13870000000000005,-4.582249900262854
-0.13970000000000016,-4.6289353731583995
-0.14070000000000005,-4.677035557353811
-0.14170000000000016,-4.710988628550572
-0.14270000000000005,-4.744941699747333
-0.14370000000000016,-4.77748005964423
-0.14470000000000005,-4.819921398640179
-0.14570000000000016,-4.866606871535726
-0.14670000000000005,-4.896315808832893
-0.14770000000000016,-4.918951189630732
-0.14870000000000005,-4.945830704328168
-0.14970000000000017,-4.985442620724389
-0.15070000000000006,-5.02505453712061
-0.15170000000000017,-5.056178185717641
-0.15270000000000006,-5.0745694326158866
-0.15370000000000017,-5.092960679514132
-0.15470000000000006,-5.115596060311972
-0.15570000000000017,-5.152378554108464
-0.15670000000000006,-5.163696244507384
-0.15770000000000017,-5.173599223606439
-0.15870000000000006,-5.191990470504685
-0.15970000000000018,-5.217455273902255
-0.16070000000000007,-5.234431809500635
-0.16170000000000018,-5.249993633799152
-0.16270000000000007,-5.257067190298477
-0.16370000000000018,-5.269799591997262
-0.16470000000000007,-5.283946704995913
-0.16570000000000018,-5.282531993696048
-0.16670000000000007,-5.289605550195372
-0.16770000000000018,-5.274043725896856
-0.16870000000000007,-5.268384880697396
-0.16970000000000018,-5.275458437196722
-0.17070000000000007,-5.274043725896856
-0.17170000000000019,-5.268384880697396
-0.17270000000000008,-5.247164211199421
-0.1737000000000002,-5.23301709820077
-0.17470000000000008,-5.228772964301175
-0.1757000000000002,-5.216040562602391
-0.17670000000000008,-5.1934051818045495
-0.1777000000000002,-5.165110955807249
-0.17870000000000008,-5.132572595910353
-0.1797000000000002,-5.1198401942115686
-0.18070000000000008,-5.098619524713592
-0.1817000000000002,-5.066081164816696
-0.18270000000000008,-5.032128093619936
-0.1837000000000002,-4.992516177223715
-0.1847000000000001,-4.962807239926549
-0.1857000000000002,-4.935927725229114
-0.1867000000000001,-4.886412829733837
-0.1877000000000002,-4.836897934238561
-0.1887000000000001,-4.795871306542475
-0.1897000000000002,-4.757674101446118
-0.1907000000000001,-4.719476896349762
-0.1917000000000001,-4.6614737330552956
-0.19269999999999998,-4.61195883756002
-0.1937000000000001,-4.562443942064744
-0.19469999999999998,-4.510099623969737
-0.1957000000000001,-4.469072996273651
-0.19669999999999999,-4.4124845442790495
-0.1977000000000001,-4.350237247084988
-0.1987,-4.2936487950903865
-0.1997000000000001,-4.24413389959511
-0.2007,-4.198863137999429
-0.2017000000000001,-4.143689397304692
-0.2027,-4.080027388810766
-0.2037000000000001,-4.020609514216435
-0.2047,-3.971094618721158
-0.2057000000000001,-3.9215797232258818
-0.2067,-3.86782069383101
-0.2077000000000001,-3.795670417537894
-0.2087,-3.7376672542434273
-0.2097000000000001,-3.6923964926477457
-0.2107,-3.6400521745527397
-0.2117000000000001,-3.586293145157868
-0.2127,-3.5268752705635364
-0.2137000000000001,-3.4702868185689346
-0.2147,-3.434919036072309
-0.2157000000000001,-3.4066248100750083
-0.2167,-3.3415480902812167
-0.21770000000000012,-3.28071550438702
-0.2187,-3.225541763692284
-0.21970000000000012,-3.1901739811956578
-0.2207,-3.1491473534995715
-0.22170000000000012,-3.10104716930416
-0.2227,-3.0529469851087487
-0.22370000000000012,-3.009090934812933
-0.2247,-2.975137863616172
-0.22570000000000012,-2.9468436376188714
-0.2267,-2.90157287602319
-0.22770000000000012,-2.8534726918277786
-0.22870000000000001,-2.818104909331153
-0.22970000000000013,-2.791225394633717
-0.23070000000000002,-2.767175302536012
-0.23170000000000013,-2.7318075200393857
-0.23270000000000002,-2.697854448842625
-0.23370000000000013,-2.663901377645864
-0.23470000000000002,-2.641265996848024
-0.23570000000000013,-2.627118883849373
-0.23670000000000002,-2.5988246578520724
-0.2376999999999999,-2.5662862979551764
-0.23870000000000002,-2.545065628457201
-0.2396999999999999,-2.532333226758415
-0.24070000000000003,-2.5224302476593605
-0.24169999999999991,-2.504039000761115
-0.24270000000000003,-2.4715006408642193
-0.24369999999999992,-2.451694682666109
-0.24470000000000003,-2.4488652600663787
-0.24569999999999992,-2.4432064148669186
-0.24670000000000003,-2.4318887244679983
-0.24769999999999992,-2.4092533436701573
-0.24870000000000003,-2.396520941971372
-0.24969999999999992,-2.4021797871708324
-0.25070000000000003,-2.3979356532712375
-0.2516999999999999,-2.3908620967719116
-0.25270000000000004,-2.3753002724733965
-0.2536999999999999,-2.3696414272739363
-0.25470000000000004,-2.3753002724733965
-0.2556999999999999,-2.3767149837732613
-0.25670000000000004,-2.3724708498736664
-0.25769999999999993,-2.3639825820744766
-0.25870000000000004,-2.361153159474746
-0.25969999999999993,-2.3710561385738016
-0.26070000000000004,-2.383788540272587
-0.26169999999999993,-2.380959117672857
-0.26270000000000004,-2.3767149837732613
-0.26369999999999993,-2.3738855611735317
-0.26470000000000005,-2.388032674172182
-0.26569999999999994,-2.4064239210704272
-0.26670000000000005,-2.414912188869618
-0.26769999999999994,-2.4050092097705624
-0.26870000000000005,-2.4134974775697526
-0.26969999999999994,-2.424815167968673
-0.27070000000000005,-2.4488652600663787
-0.27169999999999994,-2.4531093939659736
-0.27270000000000005,-2.4531093939659736
-0.27369999999999994,-2.463012373065029
-0.27470000000000006,-2.475744774763814
-0.27569999999999995,-2.49979486686152
-0.27670000000000006,-2.5139419798601703
-0.27769999999999995,-2.5139419798601703
-0.27870000000000006,-2.5309185154585507
-0.27969999999999995,-2.549309762356796
-0.28070000000000006,-2.5719451431546365
-0.28169999999999995,-2.584677544853422
-0.28270000000000006,-2.588921678753017
-0.28369999999999995,-2.5988246578520724
-0.28470000000000006,-2.6257041725495083
-0.28569999999999995,-2.648339553347349
-0.28670000000000007,-2.666730800245594
-0.28769999999999996,-2.6723896454450546
-0.28870000000000007,-2.6865367584437045
-0.28969999999999996,-2.7148309844410052
-0.29070000000000007,-2.734636942639116
-0.29169999999999996,-2.7516134782374966
-0.29270000000000007,-2.765760591236147
-0.29369999999999996,-2.778492992934932
-0.2947000000000001,-2.8096166415319628
-0.29569999999999996,-2.833666733629668
-0.2967000000000001,-2.854887403127644
-0.29769999999999996,-2.864790382226699
-0.2987000000000001,-2.8789374952253497
-0.29969999999999997,-2.9100611438223805
-0.3007000000000001,-2.935525947219951
-0.30169999999999997,-2.9539171941181968
-0.3027000000000001,-2.9694790184167124
-0.30369999999999997,-2.9878702653149576
-0.3047000000000001,-3.0147497800123935
-0.30569999999999997,-3.0487028512091543
-0.3067000000000001,-3.0600205416080746
-0.3077,-3.0755823659065897
-0.3087000000000001,-3.0939736128048354
-0.3097,-3.1180237049025408
-0.3107000000000001,-3.150562064799437
-0.3117,-3.164709177798087
-0.3127000000000001,-3.178856290796737
-0.3137,-3.200076960294713
-0.3147000000000001,-3.2269564749921487
-0.3157,-3.2566654122893146
-0.3167000000000001,-3.273641947887695
-0.3177,-3.2821302156868852
-0.3187000000000001,-3.3047655964847262
-0.3197,-3.3274009772825663
-0.3207000000000001,-3.357109914579732
-0.3217,-3.3783305840777076
-0.3227000000000001,-3.382574717977303
-0.3237,-3.405210098775143
-0.3247000000000001,-3.434919036072309
-0.3257,-3.4575544168701495
-0.3267000000000001,-3.475945663768395
-0.3277,-3.4773603750682605
-0.3287000000000001,-3.4957516219665052
-0.3297,-3.522631136663941
-0.3307000000000001,-3.545266517461782
-0.3317,-3.562243053060162
-0.3327000000000001,-3.566487186959758
-0.3337,-3.583463722558138
-0.3347000000000001,-3.6103432372555737
-0.3357,-3.627319772853954
-0.3367000000000001,-3.6358080406531443
-0.3377,-3.6499551536517942
-0.3387000000000001,-3.65702871015112
-0.3397,-3.678249379649095
-0.3407000000000001,-3.7051288943465317
-0.3417,-3.7093730282461257
-0.3427000000000001,-3.7178612960453163
-0.3437,-3.7249348525446417
-0.3447000000000001,-3.7461555220426166
-0.3457,-3.765961480240728
-0.3467000000000001,-3.7673761915405932
-0.3477,-3.7702056141403233
-0.3487000000000001,-3.7772791706396474
-0.3497,-3.799914551437489
-0.3507000000000001,-3.819720509635599
-0.3517,-3.819720509635599
-0.3527000000000001,-3.821135220935464
-0.3537,-3.832452911334385
-0.3547000000000001,-3.8466000243330347
-0.3557,-3.8621618486315503
-0.35670000000000013,-3.8649912712312804
-0.3577,-3.8635765599314156
-0.35870000000000013,-3.8734795390304706
-0.3597,-3.887626652029121
-0.36070000000000013,-3.906017898927366
-0.3617,-3.9116767441268263
-0.3626999999999999,-3.9074326102272314
-0.3637,-3.9130914554266916
-0.3646999999999999,-3.927238568425342
-0.3657,-3.9413856814239923
-0.3666999999999999,-3.9498739492231825
-0.3677,-3.9470445266234524
-0.3686999999999999,-3.962606350921967
-0.36970000000000003,-3.9781681752204827
-0.3706999999999999,-3.9965594221187284
-0.37170000000000003,-4.006462401217783
-0.3726999999999999,-4.002218267318188
-0.37370000000000003,-4.01636538031684
-0.3746999999999999,-4.04183018371441
-0.37570000000000003,-4.057392008012925
-0.3766999999999999,-4.070124409711711
-0.37770000000000004,-4.085686234010226
-0.3786999999999999,-4.1040774809084715
-0.37970000000000004,-4.135201129505503
-0.3806999999999999,-4.167739489402398
-0.38170000000000004,-4.186130736300643
-0.38269999999999993,-4.220083807497405
-0.38370000000000004,-4.251207456094435
-0.38469999999999993,-4.303551774189442
-0.38570000000000004,-4.371457916582963
-0.38669999999999993,-4.413899255578914
-0.38770000000000004,-4.471902418873381
-0.38869999999999993,-4.548296829066093
-0.38970000000000005,-4.647326620056646
-0.39069999999999994,-4.763332946645578
-0.39170000000000005,-4.907633499231812
-0.39269999999999994,-5.0745694326158866
-0.39370000000000005,-5.274043725896856
-0.39469999999999994,-5.538594738971618
-0.39570000000000005,-5.8682224718401725
-0.39669999999999994,-6.284147594000493
-0.39770000000000005,-6.813249620150017
-0.39869999999999994,-7.461187395488204
-0.39970000000000006,-8.203910827917348
-0.40069999999999995,-9.051322896536504
-0.40170000000000006,-10.009082446545134
-0.40269999999999995,-11.041821695446613
-0.40370000000000006,-12.149540643240934
-0.40469999999999995,-13.3364834238277
-0.40570000000000006,-14.61396772760583
-0.40669999999999995,-16.04282614046952
-0.40770000000000006,-17.584861457322408
-0.40869999999999995,-19.28251501716045
-0.40970000000000006,-21.16408104598095
-0.41069999999999995,-23.1729710917893
-0.41170000000000007,-25.280890928588207
-0.41269999999999996,-27.544429008372262
-0.41370000000000007,-29.906996879146874
-0.41469999999999996,-32.42518299290664
-0.41570000000000007,-35.183870027643465
-0.41669999999999996,-38.02743974037218
-0.41770000000000007,-40.828568114104954
-0.41869999999999996,-43.53066669684718
-0.4197000000000001,-46.2610595055867
-0.42069999999999996,-48.94901097533027
-0.4217000000000001,-51.46719708909004
-0.42269999999999996,-53.9005005248579
-0.4237000000000001,-56.164038604641945
-0.42469999999999997,-58.37098823243142
-0.4257000000000001,-60.40817250423707
-0.42669999999999997,-62.17656162906836
-0.4277000000000001,-63.78933251091451
-0.42869999999999997,-65.43039761875795
-0.4297000000000001,-67.08560983960004
-0.43069999999999997,-68.59935093045563
-0.4317000000000001,-70.04235645631796
-0.4327,-71.38633219118975
-0.4337000000000001,-72.74445503906018
-0.4347,-74.06013654793468
-0.4357000000000001,-75.48899496079835
-0.4367,-76.70564667868229
-0.4377000000000001,-77.95059262256353
-0.4387,-79.16724434044745
-0.4397000000000001,-80.18583647635029
-0.4407,-81.1761343862558
-0.4417000000000001,-82.10984384416672
-0.4427,-82.7747581551033
-0.4437000000000001,-83.68017338701692
-0.4447,-84.55729439293323
-0.4457000000000001,-85.42026828585092
-0.4467,-86.4813017607497
-0.4477000000000001,-87.28768720167277
-0.4487,-87.18865741068221
-0.4497000000000001,-87.85357172161878
-0.4507,-88.77313406653104
-0.4517000000000001,-89.42390126446898
-0.4527,-89.97563867141633
-0.4537000000000001,-90.6971414343475
-0.4547,-91.07911348531105
-0.4557000000000001,-91.34790863228542
-0.4567,-92.12599984721119
-0.4577000000000001,-92.70603148015586
-0.4587,-93.21532754810727
-0.4597000000000001,-93.65388805106544
-0.4607,-94.41783215299256
-0.4617000000000001,-95.30910027190752
-0.4627,-96.17207416482519
-0.4637000000000001,-96.99260671874691
-0.4647,-97.43116722170507
-0.4657000000000001,-97.85558061166459
-0.4667,-99.14296789454177
-0.4677000000000001,-99.92105910946754
-0.4687,-100.74159166338926
-0.4697000000000001,-101.26503484433933
-0.4707,-101.33577040933257
-0.4717000000000001,-102.67974614420436
-0.4727,-103.81151518409638
-0.4737000000000001,-105.14134380596953
-0.4747,-106.51361376683862
-0.4757000000000001,-108.14053176168339
-0.4767,-109.13082967158894
-0.4777000000000001,-109.71086130453358
-0.4787,-110.72945344043643
-0.4797000000000001,-111.69145712434464
-0.4807,-113.13446265020698
-0.48170000000000013,-113.68620005715434
-0.4827,-114.26623169009903
-0.48370000000000013,-115.4687362949843
-0.4847,-116.78441780385879
-0.48570000000000013,-117.0390658378345
-0.4867,-116.34585730090062
-0.48570000000000013,-115.28482382600184
-0.4847,-113.43155202317865
-0.48370000000000013,-111.94610515832035
-0.4827,-109.97965645150795
-0.48170000000000013,-109.20156523658218
-0.4807,-109.03179988059838
-0.4797000000000001,-108.23956155267396
-0.4787,-107.30585209476303
-0.4777000000000001,-106.59849644483052
-0.4767,-104.74522464200732
-0.4757000000000001,-103.07586530816658
-0.4747,-101.9865376072705
-0.4737000000000001,-101.19429927934607
-0.4727,-100.20400136944055
-0.4717000000000001,-99.93520622246619
-0.4707,-98.57708337459576
-0.4697000000000001,-97.21896052672531
-0.4687,-96.21451550382113
-0.4677000000000001,-94.61589173497366
-0.4667,-92.40894210718419
-0.4657000000000001,-90.6405529823529
-0.4647,-89.18340034349191
