Apr. 9, 2025   19:38:43
Cyclic Voltammetry
File: c:/users/guazh/data/banditlqround7_x0exp994_r5/2025-03-28-exp1031\exp1031-2025-04-09t19_26_25-arkoh\exp1031_cv_sr_800mvs_efin_-1500mv.bin
Data Source:  Experiment
Instrument Model:  CHI760E
Header: CV ran at 800 mVs
Note: 

Init E (V) = -1
High E (V) = -1
Low E (V) = -1.5
Final E (V) = -1
Init P/N = N
Scan Rate (V/s) = 0.8
Segment = 3
Sample Interval (V) = 0.001
Quiet Time (sec) = 2
Sensitivity (A/V) = 0.01
Comp R (ohm) = 1.6

Results:

Channel 1:
Segment 1:
Ep = -1.259V
ip = 1.443e-3A
Ah = 2.015e-4C

Segment 2:

Segment 3:

Potential/V, Current/A

-1.000, 9.405e-6
-1.001, 8.957e-5
-1.002, 1.481e-4
-1.003, 1.944e-4
-1.004, 2.283e-4
-1.005, 2.561e-4
-1.006, 2.776e-4
-1.007, 2.961e-4
-1.008, 3.146e-4
-1.009, 3.270e-4
-1.010, 3.424e-4
-1.011, 3.547e-4
-1.012, 3.670e-4
-1.013, 3.794e-4
-1.014, 3.917e-4
-1.015, 4.010e-4
-1.016, 4.133e-4
-1.017, 4.225e-4
-1.018, 4.318e-4
-1.019, 4.410e-4
-1.020, 4.503e-4
-1.021, 4.565e-4
-1.022, 4.626e-4
-1.023, 4.719e-4
-1.024, 4.811e-4
-1.025, 4.904e-4
-1.026, 4.996e-4
-1.027, 5.089e-4
-1.028, 5.212e-4
-1.029, 5.305e-4
-1.030, 5.397e-4
-1.031, 5.489e-4
-1.032, 5.582e-4
-1.033, 5.674e-4
-1.034, 5.767e-4
-1.035, 5.859e-4
-1.036, 5.952e-4
-1.037, 6.044e-4
-1.038, 6.106e-4
-1.039, 6.260e-4
-1.040, 6.353e-4
-1.041, 6.476e-4
-1.042, 6.599e-4
-1.043, 6.754e-4
-1.044, 6.846e-4
-1.045, 6.969e-4
-1.046, 7.093e-4
-1.047, 7.185e-4
-1.048, 7.309e-4
-1.049, 7.401e-4
-1.050, 7.524e-4
-1.051, 7.648e-4
-1.052, 7.802e-4
-1.053, 7.925e-4
-1.054, 8.079e-4
-1.055, 8.203e-4
-1.056, 8.357e-4
-1.057, 8.511e-4
-1.058, 8.634e-4
-1.059, 8.788e-4
-1.060, 8.912e-4
-1.061, 9.066e-4
-1.062, 9.189e-4
-1.063, 9.313e-4
-1.064, 9.467e-4
-1.065, 9.621e-4
-1.066, 9.744e-4
-1.067, 9.929e-4
-1.068, 1.011e-3
-1.069, 1.027e-3
-1.070, 1.042e-3
-1.071, 1.058e-3
-1.072, 1.073e-3
-1.073, 1.088e-3
-1.074, 1.104e-3
-1.075, 1.122e-3
-1.076, 1.135e-3
-1.077, 1.150e-3
-1.078, 1.169e-3
-1.079, 1.184e-3
-1.080, 1.203e-3
-1.081, 1.218e-3
-1.082, 1.236e-3
-1.083, 1.255e-3
-1.084, 1.270e-3
-1.085, 1.286e-3
-1.086, 1.304e-3
-1.087, 1.320e-3
-1.088, 1.335e-3
-1.089, 1.351e-3
-1.090, 1.366e-3
-1.091, 1.384e-3
-1.092, 1.403e-3
-1.093, 1.418e-3
-1.094, 1.437e-3
-1.095, 1.455e-3
-1.096, 1.474e-3
-1.097, 1.492e-3
-1.098, 1.508e-3
-1.099, 1.526e-3
-1.100, 1.542e-3
-1.101, 1.560e-3
-1.102, 1.576e-3
-1.103, 1.591e-3
-1.104, 1.606e-3
-1.105, 1.625e-3
-1.106, 1.643e-3
-1.107, 1.662e-3
-1.108, 1.680e-3
-1.109, 1.699e-3
-1.110, 1.717e-3
-1.111, 1.736e-3
-1.112, 1.751e-3
-1.113, 1.770e-3
-1.114, 1.785e-3
-1.115, 1.801e-3
-1.116, 1.819e-3
-1.117, 1.835e-3
-1.118, 1.850e-3
-1.119, 1.869e-3
-1.120, 1.887e-3
-1.121, 1.906e-3
-1.122, 1.924e-3
-1.123, 1.943e-3
-1.124, 1.961e-3
-1.125, 1.980e-3
-1.126, 1.995e-3
-1.127, 2.010e-3
-1.128, 2.029e-3
-1.129, 2.044e-3
-1.130, 2.060e-3
-1.131, 2.075e-3
-1.132, 2.094e-3
-1.133, 2.112e-3
-1.134, 2.128e-3
-1.135, 2.146e-3
-1.136, 2.164e-3
-1.137, 2.183e-3
-1.138, 2.201e-3
-1.139, 2.217e-3
-1.140, 2.232e-3
-1.141, 2.251e-3
-1.142, 2.266e-3
-1.143, 2.282e-3
-1.144, 2.297e-3
-1.145, 2.312e-3
-1.146, 2.331e-3
-1.147, 2.346e-3
-1.148, 2.368e-3
-1.149, 2.386e-3
-1.150, 2.405e-3
-1.151, 2.423e-3
-1.152, 2.442e-3
-1.153, 2.457e-3
-1.154, 2.476e-3
-1.155, 2.491e-3
-1.156, 2.507e-3
-1.157, 2.525e-3
-1.158, 2.544e-3
-1.159, 2.562e-3
-1.160, 2.581e-3
-1.161, 2.599e-3
-1.162, 2.621e-3
-1.163, 2.639e-3
-1.164, 2.661e-3
-1.165, 2.679e-3
-1.166, 2.698e-3
-1.167, 2.716e-3
-1.168, 2.735e-3
-1.169, 2.750e-3
-1.170, 2.769e-3
-1.171, 2.787e-3
-1.172, 2.806e-3
-1.173, 2.824e-3
-1.174, 2.846e-3
-1.175, 2.867e-3
-1.176, 2.889e-3
-1.177, 2.911e-3
-1.178, 2.932e-3
-1.179, 2.951e-3
-1.180, 2.969e-3
-1.181, 2.985e-3
-1.182, 3.003e-3
-1.183, 3.025e-3
-1.184, 3.040e-3
-1.185, 3.062e-3
-1.186, 3.083e-3
-1.187, 3.105e-3
-1.188, 3.126e-3
-1.189, 3.148e-3
-1.190, 3.170e-3
-1.191, 3.191e-3
-1.192, 3.210e-3
-1.193, 3.231e-3
-1.194, 3.250e-3
-1.195, 3.268e-3
-1.196, 3.287e-3
-1.197, 3.308e-3
-1.198, 3.327e-3
-1.199, 3.348e-3
-1.200, 3.367e-3
-1.201, 3.392e-3
-1.202, 3.410e-3
-1.203, 3.432e-3
-1.204, 3.453e-3
-1.205, 3.475e-3
-1.206, 3.496e-3
-1.207, 3.515e-3
-1.208, 3.533e-3
-1.209, 3.552e-3
-1.210, 3.570e-3
-1.211, 3.589e-3
-1.212, 3.610e-3
-1.213, 3.626e-3
-1.214, 3.647e-3
-1.215, 3.666e-3
-1.216, 3.688e-3
-1.217, 3.709e-3
-1.218, 3.728e-3
-1.219, 3.743e-3
-1.220, 3.762e-3
-1.221, 3.780e-3
-1.222, 3.795e-3
-1.223, 3.811e-3
-1.224, 3.829e-3
-1.225, 3.845e-3
-1.226, 3.863e-3
-1.227, 3.879e-3
-1.228, 3.897e-3
-1.229, 3.919e-3
-1.230, 3.934e-3
-1.231, 3.953e-3
-1.232, 3.965e-3
-1.233, 3.980e-3
-1.234, 3.996e-3
-1.235, 4.008e-3
-1.236, 4.021e-3
-1.237, 4.030e-3
-1.238, 4.045e-3
-1.239, 4.058e-3
-1.240, 4.073e-3
-1.241, 4.088e-3
-1.242, 4.101e-3
-1.243, 4.113e-3
-1.244, 4.125e-3
-1.245, 4.135e-3
-1.246, 4.144e-3
-1.247, 4.153e-3
-1.248, 4.159e-3
-1.249, 4.165e-3
-1.250, 4.172e-3
-1.251, 4.178e-3
-1.252, 4.184e-3
-1.253, 4.190e-3
-1.254, 4.199e-3
-1.255, 4.206e-3
-1.256, 4.212e-3
-1.257, 4.218e-3
-1.258, 4.221e-3
-1.259, 4.224e-3
-1.260, 4.224e-3
-1.261, 4.224e-3
-1.262, 4.221e-3
-1.263, 4.218e-3
-1.264, 4.215e-3
-1.265, 4.212e-3
-1.266, 4.212e-3
-1.267, 4.206e-3
-1.268, 4.202e-3
-1.269, 4.199e-3
-1.270, 4.193e-3
-1.271, 4.184e-3
-1.272, 4.172e-3
-1.273, 4.162e-3
-1.274, 4.153e-3
-1.275, 4.141e-3
-1.276, 4.125e-3
-1.277, 4.113e-3
-1.278, 4.091e-3
-1.279, 4.079e-3
-1.280, 4.067e-3
-1.281, 4.051e-3
-1.282, 4.033e-3
-1.283, 4.014e-3
-1.284, 3.996e-3
-1.285, 3.974e-3
-1.286, 3.950e-3
-1.287, 3.928e-3
-1.288, 3.900e-3
-1.289, 3.876e-3
-1.290, 3.851e-3
-1.291, 3.823e-3
-1.292, 3.795e-3
-1.293, 3.771e-3
-1.294, 3.743e-3
-1.295, 3.718e-3
-1.296, 3.691e-3
-1.297, 3.660e-3
-1.298, 3.632e-3
-1.299, 3.601e-3
-1.300, 3.567e-3
-1.301, 3.530e-3
-1.302, 3.499e-3
-1.303, 3.466e-3
-1.304, 3.429e-3
-1.305, 3.395e-3
-1.306, 3.361e-3
-1.307, 3.327e-3
-1.308, 3.296e-3
-1.309, 3.262e-3
-1.310, 3.228e-3
-1.311, 3.197e-3
-1.312, 3.160e-3
-1.313, 3.123e-3
-1.314, 3.089e-3
-1.315, 3.052e-3
-1.316, 3.015e-3
-1.317, 2.982e-3
-1.318, 2.948e-3
-1.319, 2.914e-3
-1.320, 2.880e-3
-1.321, 2.849e-3
-1.322, 2.818e-3
-1.323, 2.790e-3
-1.324, 2.760e-3
-1.325, 2.732e-3
-1.326, 2.701e-3
-1.327, 2.670e-3
-1.328, 2.639e-3
-1.329, 2.608e-3
-1.330, 2.578e-3
-1.331, 2.550e-3
-1.332, 2.522e-3
-1.333, 2.497e-3
-1.334, 2.473e-3
-1.335, 2.451e-3
-1.336, 2.430e-3
-1.337, 2.405e-3
-1.338, 2.383e-3
-1.339, 2.362e-3
-1.340, 2.337e-3
-1.341, 2.316e-3
-1.342, 2.291e-3
-1.343, 2.272e-3
-1.344, 2.251e-3
-1.345, 2.232e-3
-1.346, 2.217e-3
-1.347, 2.201e-3
-1.348, 2.189e-3
-1.349, 2.174e-3
-1.350, 2.161e-3
-1.351, 2.146e-3
-1.352, 2.131e-3
-1.353, 2.115e-3
-1.354, 2.103e-3
-1.355, 2.091e-3
-1.356, 2.075e-3
-1.357, 2.063e-3
-1.358, 2.050e-3
-1.359, 2.041e-3
-1.360, 2.032e-3
-1.361, 2.029e-3
-1.362, 2.020e-3
-1.363, 2.017e-3
-1.364, 2.010e-3
-1.365, 2.001e-3
-1.366, 1.992e-3
-1.367, 1.986e-3
-1.368, 1.983e-3
-1.369, 1.973e-3
-1.370, 1.967e-3
-1.371, 1.961e-3
-1.372, 1.961e-3
-1.373, 1.958e-3
-1.374, 1.958e-3
-1.375, 1.955e-3
-1.376, 1.955e-3
-1.377, 1.955e-3
-1.378, 1.955e-3
-1.379, 1.952e-3
-1.380, 1.952e-3
-1.381, 1.949e-3
-1.382, 1.949e-3
-1.383, 1.949e-3
-1.384, 1.949e-3
-1.385, 1.949e-3
-1.386, 1.952e-3
-1.387, 1.955e-3
-1.388, 1.958e-3
-1.389, 1.964e-3
-1.390, 1.970e-3
-1.391, 1.973e-3
-1.392, 1.976e-3
-1.393, 1.980e-3
-1.394, 1.986e-3
-1.395, 1.989e-3
-1.396, 1.995e-3
-1.397, 1.998e-3
-1.398, 2.004e-3
-1.399, 2.010e-3
-1.400, 2.020e-3
-1.401, 2.029e-3
-1.402, 2.038e-3
-1.403, 2.047e-3
-1.404, 2.057e-3
-1.405, 2.063e-3
-1.406, 2.072e-3
-1.407, 2.078e-3
-1.408, 2.087e-3
-1.409, 2.094e-3
-1.410, 2.103e-3
-1.411, 2.112e-3
-1.412, 2.121e-3
-1.413, 2.134e-3
-1.414, 2.146e-3
-1.415, 2.158e-3
-1.416, 2.171e-3
-1.417, 2.183e-3
-1.418, 2.192e-3
-1.419, 2.205e-3
-1.420, 2.214e-3
-1.421, 2.223e-3
-1.422, 2.235e-3
-1.423, 2.245e-3
-1.424, 2.254e-3
-1.425, 2.266e-3
-1.426, 2.279e-3
-1.427, 2.291e-3
-1.428, 2.306e-3
-1.429, 2.319e-3
-1.430, 2.331e-3
-1.431, 2.340e-3
-1.432, 2.353e-3
-1.433, 2.365e-3
-1.434, 2.377e-3
-1.435, 2.390e-3
-1.436, 2.402e-3
-1.437, 2.414e-3
-1.438, 2.423e-3
-1.439, 2.436e-3
-1.440, 2.448e-3
-1.441, 2.464e-3
-1.442, 2.476e-3
-1.443, 2.488e-3
-1.444, 2.501e-3
-1.445, 2.510e-3
-1.446, 2.522e-3
-1.447, 2.531e-3
-1.448, 2.544e-3
-1.449, 2.553e-3
-1.450, 2.562e-3
-1.451, 2.571e-3
-1.452, 2.584e-3
-1.453, 2.596e-3
-1.454, 2.608e-3
-1.455, 2.618e-3
-1.456, 2.630e-3
-1.457, 2.642e-3
-1.458, 2.655e-3
-1.459, 2.661e-3
-1.460, 2.673e-3
-1.461, 2.679e-3
-1.462, 2.689e-3
-1.463, 2.698e-3
-1.464, 2.707e-3
-1.465, 2.716e-3
-1.466, 2.726e-3
-1.467, 2.735e-3
-1.468, 2.747e-3
-1.469, 2.756e-3
-1.470, 2.766e-3
-1.471, 2.778e-3
-1.472, 2.784e-3
-1.473, 2.790e-3
-1.474, 2.797e-3
-1.475, 2.803e-3
-1.476, 2.812e-3
-1.477, 2.818e-3
-1.478, 2.821e-3
-1.479, 2.830e-3
-1.480, 2.840e-3
-1.481, 2.849e-3
-1.482, 2.855e-3
-1.483, 2.867e-3
-1.484, 2.874e-3
-1.485, 2.880e-3
-1.486, 2.886e-3
-1.487, 2.889e-3
-1.488, 2.892e-3
-1.489, 2.898e-3
-1.490, 2.901e-3
-1.491, 2.908e-3
-1.492, 2.914e-3
-1.493, 2.920e-3
-1.494, 2.926e-3
-1.495, 2.932e-3
-1.496, 2.941e-3
-1.497, 2.948e-3
-1.498, 2.954e-3
-1.499, 2.957e-3
-1.500, 2.883e-3
-1.499, 2.704e-3
-1.498, 2.559e-3
-1.497, 2.439e-3
-1.496, 2.334e-3
-1.495, 2.242e-3
-1.494, 2.161e-3
-1.493, 2.084e-3
-1.492, 2.017e-3
-1.491, 1.949e-3
-1.490, 1.887e-3
-1.489, 1.828e-3
-1.488, 1.770e-3
-1.487, 1.711e-3
-1.486, 1.659e-3
-1.485, 1.606e-3
-1.484, 1.554e-3
-1.483, 1.505e-3
-1.482, 1.455e-3
-1.481, 1.412e-3
-1.480, 1.372e-3
-1.479, 1.329e-3
-1.478, 1.289e-3
-1.477, 1.249e-3
-1.476, 1.209e-3
-1.475, 1.172e-3
-1.474, 1.135e-3
-1.473, 1.095e-3
-1.472, 1.061e-3
-1.471, 1.024e-3
-1.470, 9.868e-4
-1.469, 9.528e-4
-1.468, 9.220e-4
-1.467, 8.912e-4
-1.466, 8.634e-4
-1.465, 8.326e-4
-1.464, 8.048e-4
-1.463, 7.771e-4
-1.462, 7.463e-4
-1.461, 7.185e-4
-1.460, 6.908e-4
-1.459, 6.630e-4
-1.458, 6.353e-4
-1.457, 6.106e-4
-1.456, 5.859e-4
-1.455, 5.613e-4
-1.454, 5.397e-4
-1.453, 5.150e-4
-1.452, 4.935e-4
-1.451, 4.719e-4
-1.450, 4.534e-4
-1.449, 4.318e-4
-1.448, 4.102e-4
-1.447, 3.886e-4
-1.446, 3.640e-4
-1.445, 3.455e-4
-1.444, 3.239e-4
-1.443, 3.023e-4
-1.442, 2.838e-4
-1.441, 2.653e-4
-1.440, 2.499e-4
-1.439, 2.345e-4
-1.438, 2.160e-4
-1.437, 2.036e-4
-1.436, 1.851e-4
-1.435, 1.697e-4
-1.434, 1.512e-4
-1.433, 1.327e-4
-1.432, 1.173e-4
-1.431, 9.882e-5
-1.430, 8.340e-5
-1.429, 6.798e-5
-1.428, 5.257e-5
-1.427, 4.024e-5
-1.426, 2.790e-5
-1.425, 1.557e-5
-1.424, 3.239e-6
-1.423, -9.093e-6
-1.422, -2.143e-5
-1.421, -3.684e-5
-1.420, -4.917e-5
-1.419, -6.459e-5
-1.418, -7.692e-5
-1.417, -8.925e-5
-1.416, -1.016e-4
-1.415, -1.139e-4
-1.414, -1.263e-4
-1.413, -1.355e-4
-1.412, -1.448e-4
-1.411, -1.540e-4
-1.410, -1.632e-4
-1.409, -1.725e-4
-1.408, -1.848e-4
-1.407, -1.941e-4
-1.406, -2.064e-4
-1.405, -2.157e-4
-1.404, -2.280e-4
-1.403, -2.403e-4
-1.402, -2.496e-4
-1.401, -2.557e-4
-1.400, -2.650e-4
-1.399, -2.712e-4
-1.398, -2.804e-4
-1.397, -2.866e-4
-1.396, -2.958e-4
-1.395, -3.020e-4
-1.394, -3.112e-4
-1.393, -3.236e-4
-1.392, -3.297e-4
-1.391, -3.390e-4
-1.390, -3.482e-4
-1.389, -3.575e-4
-1.388, -3.637e-4
-1.387, -3.698e-4
-1.386, -3.729e-4
-1.385, -3.791e-4
-1.384, -3.852e-4
-1.383, -3.914e-4
-1.382, -3.976e-4
-1.381, -4.068e-4
-1.380, -4.130e-4
-1.379, -4.191e-4
-1.378, -4.284e-4
-1.377, -4.346e-4
-1.376, -4.407e-4
-1.375, -4.469e-4
-1.374, -4.531e-4
-1.373, -4.561e-4
-1.372, -4.623e-4
-1.371, -4.654e-4
-1.370, -4.685e-4
-1.369, -4.746e-4
-1.368, -4.808e-4
-1.367, -4.870e-4
-1.366, -4.931e-4
-1.365, -4.993e-4
-1.364, -5.055e-4
-1.363, -5.116e-4
-1.362, -5.178e-4
-1.361, -5.209e-4
-1.360, -5.240e-4
-1.359, -5.271e-4
-1.358, -5.301e-4
-1.357, -5.332e-4
-1.356, -5.394e-4
-1.355, -5.425e-4
-1.354, -5.456e-4
-1.353, -5.517e-4
-1.352, -5.579e-4
-1.351, -5.641e-4
-1.350, -5.702e-4
-1.349, -5.733e-4
-1.348, -5.764e-4
-1.347, -5.795e-4
-1.346, -5.826e-4
-1.345, -5.856e-4
-1.344, -5.887e-4
-1.343, -5.918e-4
-1.342, -5.949e-4
-1.341, -5.980e-4
-1.340, -6.041e-4
-1.339, -6.072e-4
-1.338, -6.134e-4
-1.337, -6.195e-4
-1.336, -6.226e-4
-1.335, -6.257e-4
-1.334, -6.257e-4
-1.333, -6.288e-4
-1.332, -6.319e-4
-1.331, -6.319e-4
-1.330, -6.350e-4
-1.329, -6.380e-4
-1.328, -6.411e-4
-1.327, -6.442e-4
-1.326, -6.504e-4
-1.325, -6.535e-4
-1.324, -6.596e-4
-1.323, -6.627e-4
-1.322, -6.658e-4
-1.321, -6.689e-4
-1.320, -6.689e-4
-1.319, -6.720e-4
-1.318, -6.720e-4
-1.317, -6.750e-4
-1.316, -6.750e-4
-1.315, -6.781e-4
-1.314, -6.843e-4
-1.313, -6.874e-4
-1.312, -6.905e-4
-1.311, -6.966e-4
-1.310, -6.997e-4
-1.309, -7.028e-4
-1.308, -7.059e-4
-1.307, -7.059e-4
-1.306, -7.090e-4
-1.305, -7.090e-4
-1.304, -7.090e-4
-1.303, -7.120e-4
-1.302, -7.151e-4
-1.301, -7.182e-4
-1.300, -7.213e-4
-1.299, -7.244e-4
-1.298, -7.305e-4
-1.297, -7.336e-4
-1.296, -7.367e-4
-1.295, -7.398e-4
-1.294, -7.398e-4
-1.293, -7.429e-4
-1.292, -7.460e-4
-1.291, -7.460e-4
-1.290, -7.490e-4
-1.289, -7.490e-4
-1.288, -7.521e-4
-1.287, -7.552e-4
-1.286, -7.583e-4
-1.285, -7.645e-4
-1.284, -7.675e-4
-1.283, -7.706e-4
-1.282, -7.737e-4
-1.281, -7.768e-4
-1.280, -7.799e-4
-1.279, -7.799e-4
-1.278, -7.830e-4
-1.277, -7.830e-4
-1.276, -7.860e-4
-1.275, -7.860e-4
-1.274, -7.891e-4
-1.273, -7.953e-4
-1.272, -7.984e-4
-1.271, -8.045e-4
-1.270, -8.076e-4
-1.269, -8.107e-4
-1.268, -8.138e-4
-1.267, -8.169e-4
-1.266, -8.169e-4
-1.265, -8.200e-4
-1.264, -8.200e-4
-1.263, -8.230e-4
-1.262, -8.261e-4
-1.261, -8.292e-4
-1.260, -8.354e-4
-1.259, -8.385e-4
-1.258, -8.446e-4
-1.257, -8.477e-4
-1.256, -8.539e-4
-1.255, -8.569e-4
-1.254, -8.600e-4
-1.253, -8.631e-4
-1.252, -8.662e-4
-1.251, -8.662e-4
-1.250, -8.724e-4
-1.249, -8.754e-4
-1.248, -8.785e-4
-1.247, -8.847e-4
-1.246, -8.909e-4
-1.245, -8.939e-4
-1.244, -9.032e-4
-1.243, -9.063e-4
-1.242, -9.124e-4
-1.241, -9.186e-4
-1.240, -9.217e-4
-1.239, -9.248e-4
-1.238, -9.309e-4
-1.237, -9.340e-4
-1.236, -9.402e-4
-1.235, -9.433e-4
-1.234, -9.525e-4
-1.233, -9.587e-4
-1.232, -9.649e-4
-1.231, -9.710e-4
-1.230, -9.803e-4
-1.229, -9.895e-4
-1.228, -9.988e-4
-1.227, -1.002e-3
-1.226, -1.008e-3
-1.225, -1.011e-3
-1.224, -1.017e-3
-1.223, -1.023e-3
-1.222, -1.030e-3
-1.221, -1.039e-3
-1.220, -1.045e-3
-1.219, -1.054e-3
-1.218, -1.064e-3
-1.217, -1.073e-3
-1.216, -1.082e-3
-1.215, -1.088e-3
-1.214, -1.097e-3
-1.213, -1.104e-3
-1.212, -1.113e-3
-1.211, -1.119e-3
-1.210, -1.125e-3
-1.209, -1.138e-3
-1.208, -1.147e-3
-1.207, -1.156e-3
-1.206, -1.165e-3
-1.205, -1.178e-3
-1.204, -1.190e-3
-1.203, -1.199e-3
-1.202, -1.212e-3
-1.201, -1.224e-3
-1.200, -1.230e-3
-1.199, -1.239e-3
-1.198, -1.249e-3
-1.197, -1.258e-3
-1.196, -1.270e-3
-1.195, -1.282e-3
-1.194, -1.295e-3
-1.193, -1.307e-3
-1.192, -1.319e-3
-1.191, -1.335e-3
-1.190, -1.347e-3
-1.189, -1.359e-3
-1.188, -1.372e-3
-1.187, -1.384e-3
-1.186, -1.396e-3
-1.185, -1.409e-3
-1.184, -1.418e-3
-1.183, -1.433e-3
-1.182, -1.446e-3
-1.181, -1.458e-3
-1.180, -1.474e-3
-1.179, -1.489e-3
-1.178, -1.501e-3
-1.177, -1.520e-3
-1.176, -1.532e-3
-1.175, -1.548e-3
-1.174, -1.560e-3
-1.173, -1.575e-3
-1.172, -1.588e-3
-1.171, -1.600e-3
-1.170, -1.615e-3
-1.169, -1.628e-3
-1.168, -1.643e-3
-1.167, -1.662e-3
-1.166, -1.677e-3
-1.165, -1.692e-3
-1.164, -1.711e-3
-1.163, -1.726e-3
-1.162, -1.742e-3
-1.161, -1.760e-3
-1.160, -1.773e-3
-1.159, -1.788e-3
-1.158, -1.800e-3
-1.157, -1.816e-3
-1.156, -1.831e-3
-1.155, -1.847e-3
-1.154, -1.865e-3
-1.153, -1.884e-3
-1.152, -1.902e-3
-1.151, -1.921e-3
-1.150, -1.939e-3
-1.149, -1.955e-3
-1.148, -1.970e-3
-1.147, -1.985e-3
-1.146, -2.001e-3
-1.145, -2.016e-3
-1.144, -2.032e-3
-1.143, -2.047e-3
-1.142, -2.062e-3
-1.141, -2.081e-3
-1.140, -2.099e-3
-1.139, -2.118e-3
-1.138, -2.136e-3
-1.137, -2.155e-3
-1.136, -2.170e-3
-1.135, -2.189e-3
-1.134, -2.207e-3
-1.133, -2.223e-3
-1.132, -2.238e-3
-1.131, -2.251e-3
-1.130, -2.269e-3
-1.129, -2.284e-3
-1.128, -2.303e-3
-1.127, -2.321e-3
-1.126, -2.337e-3
-1.125, -2.358e-3
-1.124, -2.377e-3
-1.123, -2.392e-3
-1.122, -2.411e-3
-1.121, -2.429e-3
-1.120, -2.445e-3
-1.119, -2.460e-3
-1.118, -2.472e-3
-1.117, -2.491e-3
-1.116, -2.503e-3
-1.115, -2.522e-3
-1.114, -2.537e-3
-1.113, -2.556e-3
-1.112, -2.571e-3
-1.111, -2.590e-3
-1.110, -2.608e-3
-1.109, -2.624e-3
-1.108, -2.642e-3
-1.107, -2.657e-3
-1.106, -2.670e-3
-1.105, -2.688e-3
-1.104, -2.701e-3
-1.103, -2.716e-3
-1.102, -2.731e-3
-1.101, -2.747e-3
-1.100, -2.762e-3
-1.099, -2.781e-3
-1.098, -2.796e-3
-1.097, -2.815e-3
-1.096, -2.830e-3
-1.095, -2.846e-3
-1.094, -2.861e-3
-1.093, -2.876e-3
-1.092, -2.889e-3
-1.091, -2.901e-3
-1.090, -2.916e-3
-1.089, -2.929e-3
-1.088, -2.941e-3
-1.087, -2.957e-3
-1.086, -2.972e-3
-1.085, -2.972e-3
-1.084, -2.990e-3
-1.083, -3.006e-3
-1.082, -3.021e-3
-1.081, -3.037e-3
-1.080, -3.049e-3
-1.079, -3.061e-3
-1.078, -3.074e-3
-1.077, -3.086e-3
-1.076, -3.089e-3
-1.075, -3.105e-3
-1.074, -3.095e-3
-1.073, -3.101e-3
-1.072, -3.111e-3
-1.071, -3.126e-3
-1.070, -3.138e-3
-1.069, -3.151e-3
-1.068, -3.163e-3
-1.067, -3.172e-3
-1.066, -3.182e-3
-1.065, -3.191e-3
-1.064, -3.200e-3
-1.063, -3.209e-3
-1.062, -3.219e-3
-1.061, -3.228e-3
-1.060, -3.237e-3
-1.059, -3.253e-3
-1.058, -3.265e-3
-1.057, -3.280e-3
-1.056, -3.293e-3
-1.055, -3.302e-3
-1.054, -3.308e-3
-1.053, -3.317e-3
-1.052, -3.327e-3
-1.051, -3.333e-3
-1.050, -3.339e-3
-1.049, -3.345e-3
-1.048, -3.354e-3
-1.047, -3.367e-3
-1.046, -3.373e-3
-1.045, -3.379e-3
-1.044, -3.391e-3
-1.043, -3.410e-3
-1.042, -3.438e-3
-1.041, -3.456e-3
-1.040, -3.465e-3
-1.039, -3.475e-3
-1.038, -3.481e-3
-1.037, -3.490e-3
-1.036, -3.496e-3
-1.035, -3.505e-3
-1.034, -3.512e-3
-1.033, -3.521e-3
-1.032, -3.527e-3
-1.031, -3.539e-3
-1.030, -3.545e-3
-1.029, -3.552e-3
-1.028, -3.561e-3
-1.027, -3.564e-3
-1.026, -3.573e-3
-1.025, -3.579e-3
-1.024, -3.579e-3
-1.023, -3.573e-3
-1.022, -3.555e-3
-1.021, -3.555e-3
-1.020, -3.564e-3
-1.019, -3.564e-3
-1.018, -3.570e-3
-1.017, -3.576e-3
-1.016, -3.582e-3
-1.015, -3.586e-3
-1.014, -3.589e-3
-1.013, -3.592e-3
-1.012, -3.595e-3
-1.011, -3.601e-3
-1.010, -3.607e-3
-1.009, -3.610e-3
-1.008, -3.613e-3
-1.007, -3.619e-3
-1.006, -3.626e-3
-1.005, -3.635e-3
-1.004, -3.638e-3
-1.003, -3.641e-3
-1.002, -3.647e-3
-1.001, -3.650e-3
