Aug. 26, 2024   22:38:59
Linear Sweep Voltammetry
File: c:/users/guazh/data/20240813_batch_181_500/2024-08-25-exp191\1acid_1ac-2024-08-26t22_35_52-lsvinphos\1acid_1ac_lsv_50mvs_efin_-2100mv.bin
Data Source:  Experiment
Instrument Model:  CHI760E
Header: LSV ran at 50 mVs with Efin at -2100mV
Note: 

Init E (V) = -0.6
Final E (V) = -2.1
Scan Rate (V/s) = 0.05
Sample Interval (V) = 0.001
Quiet Time (sec) = 2
Sensitivity (A/V) = 1e-4
Comp R (ohm) = 8.9

Results:

Channel 1:
Ep = -1.826V
ip = 8.078e-4A
Ah = 8.473e-4C

Potential/V, Current/A

-0.600, 5.690e-6
-0.601, 5.826e-6
-0.602, 5.886e-6
-0.603, 5.931e-6
-0.604, 5.971e-6
-0.605, 6.012e-6
-0.606, 6.049e-6
-0.607, 6.084e-6
-0.608, 6.120e-6
-0.609, 6.153e-6
-0.610, 6.185e-6
-0.611, 6.215e-6
-0.612, 6.244e-6
-0.613, 6.277e-6
-0.614, 6.309e-6
-0.615, 6.341e-6
-0.616, 6.370e-6
-0.617, 6.399e-6
-0.618, 6.429e-6
-0.619, 6.457e-6
-0.620, 6.486e-6
-0.621, 6.515e-6
-0.622, 6.543e-6
-0.623, 6.571e-6
-0.624, 6.599e-6
-0.625, 6.627e-6
-0.626, 6.653e-6
-0.627, 6.681e-6
-0.628, 6.709e-6
-0.629, 6.733e-6
-0.630, 6.761e-6
-0.631, 6.785e-6
-0.632, 6.810e-6
-0.633, 6.837e-6
-0.634, 6.861e-6
-0.635, 6.886e-6
-0.636, 6.909e-6
-0.637, 6.930e-6
-0.638, 6.956e-6
-0.639, 6.981e-6
-0.640, 7.003e-6
-0.641, 7.029e-6
-0.642, 7.048e-6
-0.643, 7.072e-6
-0.644, 7.093e-6
-0.645, 7.114e-6
-0.646, 7.138e-6
-0.647, 7.158e-6
-0.648, 7.180e-6
-0.649, 7.201e-6
-0.650, 7.221e-6
-0.651, 7.241e-6
-0.652, 7.259e-6
-0.653, 7.279e-6
-0.654, 7.300e-6
-0.655, 7.318e-6
-0.656, 7.337e-6
-0.657, 7.354e-6
-0.658, 7.371e-6
-0.659, 7.389e-6
-0.660, 7.407e-6
-0.661, 7.425e-6
-0.662, 7.443e-6
-0.663, 7.459e-6
-0.664, 7.474e-6
-0.665, 7.493e-6
-0.666, 7.512e-6
-0.667, 7.525e-6
-0.668, 7.540e-6
-0.669, 7.554e-6
-0.670, 7.569e-6
-0.671, 7.585e-6
-0.672, 7.600e-6
-0.673, 7.614e-6
-0.674, 7.627e-6
-0.675, 7.641e-6
-0.676, 7.652e-6
-0.677, 7.663e-6
-0.678, 7.677e-6
-0.679, 7.689e-6
-0.680, 7.701e-6
-0.681, 7.713e-6
-0.682, 7.722e-6
-0.683, 7.733e-6
-0.684, 7.744e-6
-0.685, 7.756e-6
-0.686, 7.764e-6
-0.687, 7.771e-6
-0.688, 7.780e-6
-0.689, 7.791e-6
-0.690, 7.798e-6
-0.691, 7.808e-6
-0.692, 7.814e-6
-0.693, 7.822e-6
-0.694, 7.831e-6
-0.695, 7.836e-6
-0.696, 7.844e-6
-0.697, 7.850e-6
-0.698, 7.855e-6
-0.699, 7.861e-6
-0.700, 7.866e-6
-0.701, 7.871e-6
-0.702, 7.876e-6
-0.703, 7.880e-6
-0.704, 7.884e-6
-0.705, 7.889e-6
-0.706, 7.893e-6
-0.707, 7.897e-6
-0.708, 7.901e-6
-0.709, 7.903e-6
-0.710, 7.906e-6
-0.711, 7.910e-6
-0.712, 7.909e-6
-0.713, 7.912e-6
-0.714, 7.913e-6
-0.715, 7.916e-6
-0.716, 7.919e-6
-0.717, 7.917e-6
-0.718, 7.919e-6
-0.719, 7.918e-6
-0.720, 7.920e-6
-0.721, 7.919e-6
-0.722, 7.918e-6
-0.723, 7.918e-6
-0.724, 7.917e-6
-0.725, 7.916e-6
-0.726, 7.917e-6
-0.727, 7.912e-6
-0.728, 7.912e-6
-0.729, 7.911e-6
-0.730, 7.909e-6
-0.731, 7.907e-6
-0.732, 7.902e-6
-0.733, 7.900e-6
-0.734, 7.899e-6
-0.735, 7.895e-6
-0.736, 7.893e-6
-0.737, 7.888e-6
-0.738, 7.885e-6
-0.739, 7.881e-6
-0.740, 7.880e-6
-0.741, 7.876e-6
-0.742, 7.872e-6
-0.743, 7.865e-6
-0.744, 7.862e-6
-0.745, 7.859e-6
-0.746, 7.853e-6
-0.747, 7.848e-6
-0.748, 7.844e-6
-0.749, 7.840e-6
-0.750, 7.834e-6
-0.751, 7.826e-6
-0.752, 7.821e-6
-0.753, 7.816e-6
-0.754, 7.809e-6
-0.755, 7.806e-6
-0.756, 7.800e-6
-0.757, 7.792e-6
-0.758, 7.789e-6
-0.759, 7.782e-6
-0.760, 7.775e-6
-0.761, 7.770e-6
-0.762, 7.762e-6
-0.763, 7.757e-6
-0.764, 7.750e-6
-0.765, 7.742e-6
-0.766, 7.737e-6
-0.767, 7.729e-6
-0.768, 7.724e-6
-0.769, 7.719e-6
-0.770, 7.710e-6
-0.771, 7.704e-6
-0.772, 7.696e-6
-0.773, 7.688e-6
-0.774, 7.683e-6
-0.775, 7.675e-6
-0.776, 7.669e-6
-0.777, 7.660e-6
-0.778, 7.655e-6
-0.779, 7.648e-6
-0.780, 7.642e-6
-0.781, 7.637e-6
-0.782, 7.628e-6
-0.783, 7.622e-6
-0.784, 7.615e-6
-0.785, 7.608e-6
-0.786, 7.600e-6
-0.787, 7.593e-6
-0.788, 7.587e-6
-0.789, 7.578e-6
-0.790, 7.574e-6
-0.791, 7.565e-6
-0.792, 7.557e-6
-0.793, 7.552e-6
-0.794, 7.544e-6
-0.795, 7.538e-6
-0.796, 7.531e-6
-0.797, 7.522e-6
-0.798, 7.516e-6
-0.799, 7.511e-6
-0.800, 7.507e-6
-0.801, 7.504e-6
-0.802, 7.495e-6
-0.803, 7.486e-6
-0.804, 7.478e-6
-0.805, 7.474e-6
-0.806, 7.471e-6
-0.807, 7.468e-6
-0.808, 7.461e-6
-0.809, 7.451e-6
-0.810, 7.447e-6
-0.811, 7.440e-6
-0.812, 7.427e-6
-0.813, 7.424e-6
-0.814, 7.419e-6
-0.815, 7.414e-6
-0.816, 7.408e-6
-0.817, 7.402e-6
-0.818, 7.397e-6
-0.819, 7.393e-6
-0.820, 7.389e-6
-0.821, 7.386e-6
-0.822, 7.380e-6
-0.823, 7.376e-6
-0.824, 7.372e-6
-0.825, 7.368e-6
-0.826, 7.360e-6
-0.827, 7.355e-6
-0.828, 7.350e-6
-0.829, 7.344e-6
-0.830, 7.338e-6
-0.831, 7.335e-6
-0.832, 7.331e-6
-0.833, 7.326e-6
-0.834, 7.320e-6
-0.835, 7.318e-6
-0.836, 7.314e-6
-0.837, 7.310e-6
-0.838, 7.306e-6
-0.839, 7.301e-6
-0.840, 7.297e-6
-0.841, 7.299e-6
-0.842, 7.295e-6
-0.843, 7.293e-6
-0.844, 7.293e-6
-0.845, 7.286e-6
-0.846, 7.279e-6
-0.847, 7.278e-6
-0.848, 7.275e-6
-0.849, 7.272e-6
-0.850, 7.269e-6
-0.851, 7.266e-6
-0.852, 7.261e-6
-0.853, 7.258e-6
-0.854, 7.254e-6
-0.855, 7.254e-6
-0.856, 7.252e-6
-0.857, 7.248e-6
-0.858, 7.248e-6
-0.859, 7.248e-6
-0.860, 7.245e-6
-0.861, 7.241e-6
-0.862, 7.240e-6
-0.863, 7.239e-6
-0.864, 7.240e-6
-0.865, 7.242e-6
-0.866, 7.239e-6
-0.867, 7.241e-6
-0.868, 7.236e-6
-0.869, 7.230e-6
-0.870, 7.232e-6
-0.871, 7.235e-6
-0.872, 7.234e-6
-0.873, 7.237e-6
-0.874, 7.231e-6
-0.875, 7.231e-6
-0.876, 7.232e-6
-0.877, 7.230e-6
-0.878, 7.231e-6
-0.879, 7.231e-6
-0.880, 7.233e-6
-0.881, 7.235e-6
-0.882, 7.233e-6
-0.883, 7.238e-6
-0.884, 7.261e-6
-0.885, 7.258e-6
-0.886, 7.255e-6
-0.887, 7.250e-6
-0.888, 7.254e-6
-0.889, 7.252e-6
-0.890, 7.253e-6
-0.891, 7.256e-6
-0.892, 7.255e-6
-0.893, 7.255e-6
-0.894, 7.260e-6
-0.895, 7.270e-6
-0.896, 7.277e-6
-0.897, 7.287e-6
-0.898, 7.285e-6
-0.899, 7.277e-6
-0.900, 7.275e-6
-0.901, 7.277e-6
-0.902, 7.281e-6
-0.903, 7.287e-6
-0.904, 7.290e-6
-0.905, 7.295e-6
-0.906, 7.300e-6
-0.907, 7.304e-6
-0.908, 7.310e-6
-0.909, 7.314e-6
-0.910, 7.329e-6
-0.911, 7.341e-6
-0.912, 7.349e-6
-0.913, 7.357e-6
-0.914, 7.360e-6
-0.915, 7.362e-6
-0.916, 7.370e-6
-0.917, 7.365e-6
-0.918, 7.369e-6
-0.919, 7.375e-6
-0.920, 7.383e-6
-0.921, 7.392e-6
-0.922, 7.403e-6
-0.923, 7.414e-6
-0.924, 7.423e-6
-0.925, 7.430e-6
-0.926, 7.437e-6
-0.927, 7.452e-6
-0.928, 7.462e-6
-0.929, 7.466e-6
-0.930, 7.477e-6
-0.931, 7.489e-6
-0.932, 7.497e-6
-0.933, 7.507e-6
-0.934, 7.521e-6
-0.935, 7.536e-6
-0.936, 7.548e-6
-0.937, 7.562e-6
-0.938, 7.575e-6
-0.939, 7.591e-6
-0.940, 7.607e-6
-0.941, 7.625e-6
-0.942, 7.641e-6
-0.943, 7.664e-6
-0.944, 7.679e-6
-0.945, 7.699e-6
-0.946, 7.718e-6
-0.947, 7.741e-6
-0.948, 7.763e-6
-0.949, 7.784e-6
-0.950, 7.809e-6
-0.951, 7.835e-6
-0.952, 7.860e-6
-0.953, 7.888e-6
-0.954, 7.915e-6
-0.955, 7.944e-6
-0.956, 7.975e-6
-0.957, 8.004e-6
-0.958, 8.038e-6
-0.959, 8.069e-6
-0.960, 8.103e-6
-0.961, 8.139e-6
-0.962, 8.173e-6
-0.963, 8.210e-6
-0.964, 8.249e-6
-0.965, 8.280e-6
-0.966, 8.318e-6
-0.967, 8.355e-6
-0.968, 8.391e-6
-0.969, 8.431e-6
-0.970, 8.469e-6
-0.971, 8.515e-6
-0.972, 8.552e-6
-0.973, 8.594e-6
-0.974, 8.637e-6
-0.975, 8.679e-6
-0.976, 8.722e-6
-0.977, 8.769e-6
-0.978, 8.803e-6
-0.979, 8.844e-6
-0.980, 8.887e-6
-0.981, 8.923e-6
-0.982, 8.970e-6
-0.983, 9.014e-6
-0.984, 9.058e-6
-0.985, 9.103e-6
-0.986, 9.145e-6
-0.987, 9.187e-6
-0.988, 9.235e-6
-0.989, 9.280e-6
-0.990, 9.325e-6
-0.991, 9.369e-6
-0.992, 9.409e-6
-0.993, 9.455e-6
-0.994, 9.500e-6
-0.995, 9.545e-6
-0.996, 9.591e-6
-0.997, 9.633e-6
-0.998, 9.681e-6
-0.999, 9.724e-6
-1.000, 9.769e-6
-1.001, 9.818e-6
-1.002, 9.861e-6
-1.003, 9.903e-6
-1.004, 9.948e-6
-1.005, 9.994e-6
-1.006, 1.004e-5
-1.007, 1.008e-5
-1.008, 1.013e-5
-1.009, 1.017e-5
-1.010, 1.021e-5
-1.011, 1.026e-5
-1.012, 1.030e-5
-1.013, 1.035e-5
-1.014, 1.039e-5
-1.015, 1.044e-5
-1.016, 1.048e-5
-1.017, 1.052e-5
-1.018, 1.057e-5
-1.019, 1.061e-5
-1.020, 1.065e-5
-1.021, 1.070e-5
-1.022, 1.074e-5
-1.023, 1.078e-5
-1.024, 1.083e-5
-1.025, 1.087e-5
-1.026, 1.091e-5
-1.027, 1.095e-5
-1.028, 1.099e-5
-1.029, 1.103e-5
-1.030, 1.107e-5
-1.031, 1.112e-5
-1.032, 1.115e-5
-1.033, 1.118e-5
-1.034, 1.122e-5
-1.035, 1.126e-5
-1.036, 1.130e-5
-1.037, 1.134e-5
-1.038, 1.137e-5
-1.039, 1.140e-5
-1.040, 1.144e-5
-1.041, 1.147e-5
-1.042, 1.150e-5
-1.043, 1.154e-5
-1.044, 1.157e-5
-1.045, 1.160e-5
-1.046, 1.163e-5
-1.047, 1.165e-5
-1.048, 1.169e-5
-1.049, 1.172e-5
-1.050, 1.174e-5
-1.051, 1.177e-5
-1.052, 1.179e-5
-1.053, 1.181e-5
-1.054, 1.184e-5
-1.055, 1.186e-5
-1.056, 1.188e-5
-1.057, 1.191e-5
-1.058, 1.192e-5
-1.059, 1.194e-5
-1.060, 1.196e-5
-1.061, 1.198e-5
-1.062, 1.200e-5
-1.063, 1.202e-5
-1.064, 1.203e-5
-1.065, 1.204e-5
-1.066, 1.205e-5
-1.067, 1.206e-5
-1.068, 1.208e-5
-1.069, 1.209e-5
-1.070, 1.210e-5
-1.071, 1.212e-5
-1.072, 1.213e-5
-1.073, 1.214e-5
-1.074, 1.215e-5
-1.075, 1.216e-5
-1.076, 1.218e-5
-1.077, 1.219e-5
-1.078, 1.220e-5
-1.079, 1.220e-5
-1.080, 1.221e-5
-1.081, 1.222e-5
-1.082, 1.223e-5
-1.083, 1.224e-5
-1.084, 1.224e-5
-1.085, 1.225e-5
-1.086, 1.226e-5
-1.087, 1.227e-5
-1.088, 1.227e-5
-1.089, 1.228e-5
-1.090, 1.229e-5
-1.091, 1.230e-5
-1.092, 1.230e-5
-1.093, 1.231e-5
-1.094, 1.231e-5
-1.095, 1.232e-5
-1.096, 1.232e-5
-1.097, 1.233e-5
-1.098, 1.234e-5
-1.099, 1.234e-5
-1.100, 1.235e-5
-1.101, 1.235e-5
-1.102, 1.236e-5
-1.103, 1.236e-5
-1.104, 1.237e-5
-1.105, 1.237e-5
-1.106, 1.238e-5
-1.107, 1.238e-5
-1.108, 1.239e-5
-1.109, 1.240e-5
-1.110, 1.240e-5
-1.111, 1.240e-5
-1.112, 1.241e-5
-1.113, 1.242e-5
-1.114, 1.242e-5
-1.115, 1.243e-5
-1.116, 1.243e-5
-1.117, 1.243e-5
-1.118, 1.244e-5
-1.119, 1.244e-5
-1.120, 1.245e-5
-1.121, 1.246e-5
-1.122, 1.246e-5
-1.123, 1.246e-5
-1.124, 1.247e-5
-1.125, 1.247e-5
-1.126, 1.248e-5
-1.127, 1.248e-5
-1.128, 1.249e-5
-1.129, 1.250e-5
-1.130, 1.250e-5
-1.131, 1.251e-5
-1.132, 1.251e-5
-1.133, 1.252e-5
-1.134, 1.252e-5
-1.135, 1.253e-5
-1.136, 1.253e-5
-1.137, 1.254e-5
-1.138, 1.254e-5
-1.139, 1.255e-5
-1.140, 1.255e-5
-1.141, 1.256e-5
-1.142, 1.257e-5
-1.143, 1.257e-5
-1.144, 1.258e-5
-1.145, 1.259e-5
-1.146, 1.259e-5
-1.147, 1.260e-5
-1.148, 1.261e-5
-1.149, 1.262e-5
-1.150, 1.262e-5
-1.151, 1.263e-5
-1.152, 1.264e-5
-1.153, 1.264e-5
-1.154, 1.265e-5
-1.155, 1.266e-5
-1.156, 1.267e-5
-1.157, 1.268e-5
-1.158, 1.269e-5
-1.159, 1.269e-5
-1.160, 1.270e-5
-1.161, 1.271e-5
-1.162, 1.272e-5
-1.163, 1.273e-5
-1.164, 1.274e-5
-1.165, 1.275e-5
-1.166, 1.276e-5
-1.167, 1.277e-5
-1.168, 1.278e-5
-1.169, 1.279e-5
-1.170, 1.280e-5
-1.171, 1.281e-5
-1.172, 1.282e-5
-1.173, 1.283e-5
-1.174, 1.285e-5
-1.175, 1.286e-5
-1.176, 1.287e-5
-1.177, 1.288e-5
-1.178, 1.290e-5
-1.179, 1.291e-5
-1.180, 1.292e-5
-1.181, 1.293e-5
-1.182, 1.294e-5
-1.183, 1.296e-5
-1.184, 1.297e-5
-1.185, 1.298e-5
-1.186, 1.300e-5
-1.187, 1.301e-5
-1.188, 1.303e-5
-1.189, 1.304e-5
-1.190, 1.306e-5
-1.191, 1.307e-5
-1.192, 1.309e-5
-1.193, 1.310e-5
-1.194, 1.312e-5
-1.195, 1.313e-5
-1.196, 1.315e-5
-1.197, 1.316e-5
-1.198, 1.318e-5
-1.199, 1.320e-5
-1.200, 1.322e-5
-1.201, 1.323e-5
-1.202, 1.325e-5
-1.203, 1.327e-5
-1.204, 1.328e-5
-1.205, 1.330e-5
-1.206, 1.332e-5
-1.207, 1.334e-5
-1.208, 1.337e-5
-1.209, 1.339e-5
-1.210, 1.341e-5
-1.211, 1.343e-5
-1.212, 1.345e-5
-1.213, 1.347e-5
-1.214, 1.349e-5
-1.215, 1.351e-5
-1.216, 1.353e-5
-1.217, 1.355e-5
-1.218, 1.357e-5
-1.219, 1.360e-5
-1.220, 1.362e-5
-1.221, 1.364e-5
-1.222, 1.366e-5
-1.223, 1.368e-5
-1.224, 1.371e-5
-1.225, 1.373e-5
-1.226, 1.375e-5
-1.227, 1.377e-5
-1.228, 1.380e-5
-1.229, 1.383e-5
-1.230, 1.385e-5
-1.231, 1.388e-5
-1.232, 1.390e-5
-1.233, 1.393e-5
-1.234, 1.399e-5
-1.235, 1.402e-5
-1.236, 1.405e-5
-1.237, 1.407e-5
-1.238, 1.408e-5
-1.239, 1.411e-5
-1.240, 1.413e-5
-1.241, 1.415e-5
-1.242, 1.417e-5
-1.243, 1.420e-5
-1.244, 1.422e-5
-1.245, 1.424e-5
-1.246, 1.427e-5
-1.247, 1.429e-5
-1.248, 1.432e-5
-1.249, 1.434e-5
-1.250, 1.437e-5
-1.251, 1.440e-5
-1.252, 1.442e-5
-1.253, 1.445e-5
-1.254, 1.448e-5
-1.255, 1.455e-5
-1.256, 1.455e-5
-1.257, 1.457e-5
-1.258, 1.461e-5
-1.259, 1.464e-5
-1.260, 1.466e-5
-1.261, 1.468e-5
-1.262, 1.472e-5
-1.263, 1.474e-5
-1.264, 1.476e-5
-1.265, 1.479e-5
-1.266, 1.482e-5
-1.267, 1.486e-5
-1.268, 1.490e-5
-1.269, 1.494e-5
-1.270, 1.497e-5
-1.271, 1.500e-5
-1.272, 1.503e-5
-1.273, 1.506e-5
-1.274, 1.509e-5
-1.275, 1.513e-5
-1.276, 1.516e-5
-1.277, 1.519e-5
-1.278, 1.522e-5
-1.279, 1.526e-5
-1.280, 1.529e-5
-1.281, 1.533e-5
-1.282, 1.536e-5
-1.283, 1.540e-5
-1.284, 1.543e-5
-1.285, 1.547e-5
-1.286, 1.551e-5
-1.287, 1.555e-5
-1.288, 1.558e-5
-1.289, 1.562e-5
-1.290, 1.566e-5
-1.291, 1.570e-5
-1.292, 1.574e-5
-1.293, 1.578e-5
-1.294, 1.582e-5
-1.295, 1.586e-5
-1.296, 1.591e-5
-1.297, 1.595e-5
-1.298, 1.599e-5
-1.299, 1.604e-5
-1.300, 1.608e-5
-1.301, 1.613e-5
-1.302, 1.617e-5
-1.303, 1.622e-5
-1.304, 1.630e-5
-1.305, 1.634e-5
-1.306, 1.637e-5
-1.307, 1.641e-5
-1.308, 1.645e-5
-1.309, 1.650e-5
-1.310, 1.655e-5
-1.311, 1.659e-5
-1.312, 1.664e-5
-1.313, 1.669e-5
-1.314, 1.674e-5
-1.315, 1.679e-5
-1.316, 1.684e-5
-1.317, 1.689e-5
-1.318, 1.694e-5
-1.319, 1.699e-5
-1.320, 1.704e-5
-1.321, 1.710e-5
-1.322, 1.715e-5
-1.323, 1.720e-5
-1.324, 1.726e-5
-1.325, 1.732e-5
-1.326, 1.737e-5
-1.327, 1.742e-5
-1.328, 1.748e-5
-1.329, 1.754e-5
-1.330, 1.759e-5
-1.331, 1.765e-5
-1.332, 1.771e-5
-1.333, 1.776e-5
-1.334, 1.782e-5
-1.335, 1.788e-5
-1.336, 1.794e-5
-1.337, 1.800e-5
-1.338, 1.806e-5
-1.339, 1.812e-5
-1.340, 1.819e-5
-1.341, 1.825e-5
-1.342, 1.831e-5
-1.343, 1.837e-5
-1.344, 1.844e-5
-1.345, 1.850e-5
-1.346, 1.857e-5
-1.347, 1.864e-5
-1.348, 1.870e-5
-1.349, 1.877e-5
-1.350, 1.883e-5
-1.351, 1.890e-5
-1.352, 1.897e-5
-1.353, 1.904e-5
-1.354, 1.911e-5
-1.355, 1.918e-5
-1.356, 1.925e-5
-1.357, 1.933e-5
-1.358, 1.940e-5
-1.359, 1.947e-5
-1.360, 1.954e-5
-1.361, 1.962e-5
-1.362, 1.969e-5
-1.363, 1.977e-5
-1.364, 1.984e-5
-1.365, 1.992e-5
-1.366, 1.999e-5
-1.367, 2.007e-5
-1.368, 2.014e-5
-1.369, 2.022e-5
-1.370, 2.030e-5
-1.371, 2.038e-5
-1.372, 2.046e-5
-1.373, 2.054e-5
-1.374, 2.062e-5
-1.375, 2.070e-5
-1.376, 2.079e-5
-1.377, 2.087e-5
-1.378, 2.095e-5
-1.379, 2.104e-5
-1.380, 2.113e-5
-1.381, 2.121e-5
-1.382, 2.130e-5
-1.383, 2.139e-5
-1.384, 2.148e-5
-1.385, 2.157e-5
-1.386, 2.166e-5
-1.387, 2.175e-5
-1.388, 2.184e-5
-1.389, 2.193e-5
-1.390, 2.203e-5
-1.391, 2.212e-5
-1.392, 2.221e-5
-1.393, 2.231e-5
-1.394, 2.241e-5
-1.395, 2.250e-5
-1.396, 2.260e-5
-1.397, 2.270e-5
-1.398, 2.280e-5
-1.399, 2.290e-5
-1.400, 2.300e-5
-1.401, 2.310e-5
-1.402, 2.320e-5
-1.403, 2.331e-5
-1.404, 2.341e-5
-1.405, 2.352e-5
-1.406, 2.363e-5
-1.407, 2.374e-5
-1.408, 2.384e-5
-1.409, 2.395e-5
-1.410, 2.407e-5
-1.411, 2.418e-5
-1.412, 2.429e-5
-1.413, 2.440e-5
-1.414, 2.451e-5
-1.415, 2.463e-5
-1.416, 2.475e-5
-1.417, 2.486e-5
-1.418, 2.498e-5
-1.419, 2.510e-5
-1.420, 2.522e-5
-1.421, 2.534e-5
-1.422, 2.546e-5
-1.423, 2.558e-5
-1.424, 2.571e-5
-1.425, 2.583e-5
-1.426, 2.595e-5
-1.427, 2.608e-5
-1.428, 2.620e-5
-1.429, 2.633e-5
-1.430, 2.646e-5
-1.431, 2.659e-5
-1.432, 2.673e-5
-1.433, 2.686e-5
-1.434, 2.700e-5
-1.435, 2.713e-5
-1.436, 2.727e-5
-1.437, 2.740e-5
-1.438, 2.754e-5
-1.439, 2.768e-5
-1.440, 2.781e-5
-1.441, 2.795e-5
-1.442, 2.809e-5
-1.443, 2.823e-5
-1.444, 2.838e-5
-1.445, 2.853e-5
-1.446, 2.867e-5
-1.447, 2.882e-5
-1.448, 2.897e-5
-1.449, 2.913e-5
-1.450, 2.928e-5
-1.451, 2.943e-5
-1.452, 2.959e-5
-1.453, 2.975e-5
-1.454, 2.990e-5
-1.455, 3.006e-5
-1.456, 3.022e-5
-1.457, 3.038e-5
-1.458, 3.054e-5
-1.459, 3.071e-5
-1.460, 3.088e-5
-1.461, 3.104e-5
-1.462, 3.121e-5
-1.463, 3.138e-5
-1.464, 3.155e-5
-1.465, 3.173e-5
-1.466, 3.190e-5
-1.467, 3.208e-5
-1.468, 3.226e-5
-1.469, 3.244e-5
-1.470, 3.262e-5
-1.471, 3.280e-5
-1.472, 3.298e-5
-1.473, 3.317e-5
-1.474, 3.336e-5
-1.475, 3.354e-5
-1.476, 3.373e-5
-1.477, 3.392e-5
-1.478, 3.411e-5
-1.479, 3.430e-5
-1.480, 3.450e-5
-1.481, 3.470e-5
-1.482, 3.489e-5
-1.483, 3.509e-5
-1.484, 3.530e-5
-1.485, 3.551e-5
-1.486, 3.571e-5
-1.487, 3.591e-5
-1.488, 3.612e-5
-1.489, 3.633e-5
-1.490, 3.654e-5
-1.491, 3.676e-5
-1.492, 3.697e-5
-1.493, 3.719e-5
-1.494, 3.741e-5
-1.495, 3.762e-5
-1.496, 3.785e-5
-1.497, 3.807e-5
-1.498, 3.831e-5
-1.499, 3.855e-5
-1.500, 3.876e-5
-1.501, 3.899e-5
-1.502, 3.922e-5
-1.503, 3.946e-5
-1.504, 3.970e-5
-1.505, 3.994e-5
-1.506, 4.018e-5
-1.507, 4.043e-5
-1.508, 4.067e-5
-1.509, 4.092e-5
-1.510, 4.117e-5
-1.511, 4.142e-5
-1.512, 4.167e-5
-1.513, 4.193e-5
-1.514, 4.218e-5
-1.515, 4.245e-5
-1.516, 4.271e-5
-1.517, 4.297e-5
-1.518, 4.324e-5
-1.519, 4.351e-5
-1.520, 4.376e-5
-1.521, 4.404e-5
-1.522, 4.431e-5
-1.523, 4.459e-5
-1.524, 4.487e-5
-1.525, 4.515e-5
-1.526, 4.544e-5
-1.527, 4.572e-5
-1.528, 4.601e-5
-1.529, 4.630e-5
-1.530, 4.660e-5
-1.531, 4.689e-5
-1.532, 4.719e-5
-1.533, 4.750e-5
-1.534, 4.781e-5
-1.535, 4.812e-5
-1.536, 4.843e-5
-1.537, 4.874e-5
-1.538, 4.906e-5
-1.539, 4.938e-5
-1.540, 4.969e-5
-1.541, 5.002e-5
-1.542, 5.035e-5
-1.543, 5.068e-5
-1.544, 5.102e-5
-1.545, 5.135e-5
-1.546, 5.169e-5
-1.547, 5.203e-5
-1.548, 5.238e-5
-1.549, 5.273e-5
-1.550, 5.308e-5
-1.551, 5.343e-5
-1.552, 5.380e-5
-1.553, 5.415e-5
-1.554, 5.452e-5
-1.555, 5.489e-5
-1.556, 5.526e-5
-1.557, 5.564e-5
-1.558, 5.602e-5
-1.559, 5.640e-5
-1.560, 5.679e-5
-1.561, 5.718e-5
-1.562, 5.757e-5
-1.563, 5.797e-5
-1.564, 5.837e-5
-1.565, 5.878e-5
-1.566, 5.918e-5
-1.567, 5.958e-5
-1.568, 5.999e-5
-1.569, 6.042e-5
-1.570, 6.085e-5
-1.571, 6.128e-5
-1.572, 6.173e-5
-1.573, 6.216e-5
-1.574, 6.260e-5
-1.575, 6.305e-5
-1.576, 6.351e-5
-1.577, 6.397e-5
-1.578, 6.443e-5
-1.579, 6.491e-5
-1.580, 6.538e-5
-1.581, 6.585e-5
-1.582, 6.633e-5
-1.583, 6.682e-5
-1.584, 6.731e-5
-1.585, 6.780e-5
-1.586, 6.830e-5
-1.587, 6.882e-5
-1.588, 6.933e-5
-1.589, 6.985e-5
-1.590, 7.037e-5
-1.591, 7.090e-5
-1.592, 7.144e-5
-1.593, 7.198e-5
-1.594, 7.253e-5
-1.595, 7.309e-5
-1.596, 7.365e-5
-1.597, 7.422e-5
-1.598, 7.480e-5
-1.599, 7.537e-5
-1.600, 7.595e-5
-1.601, 7.656e-5
-1.602, 7.715e-5
-1.603, 7.776e-5
-1.604, 7.838e-5
-1.605, 7.901e-5
-1.606, 7.965e-5
-1.607, 8.029e-5
-1.608, 8.094e-5
-1.609, 8.159e-5
-1.610, 8.224e-5
-1.611, 8.292e-5
-1.612, 8.358e-5
-1.613, 8.427e-5
-1.614, 8.497e-5
-1.615, 8.566e-5
-1.616, 8.637e-5
-1.617, 8.708e-5
-1.618, 8.781e-5
-1.619, 8.853e-5
-1.620, 8.927e-5
-1.621, 9.002e-5
-1.622, 9.077e-5
-1.623, 9.153e-5
-1.624, 9.231e-5
-1.625, 9.309e-5
-1.626, 9.388e-5
-1.627, 9.469e-5
-1.628, 9.552e-5
-1.629, 9.634e-5
-1.630, 9.717e-5
-1.631, 9.801e-5
-1.632, 9.886e-5
-1.633, 9.973e-5
-1.634, 1.006e-4
-1.635, 1.015e-4
-1.636, 1.024e-4
-1.637, 1.033e-4
-1.638, 1.043e-4
-1.639, 1.052e-4
-1.640, 1.061e-4
-1.641, 1.071e-4
-1.642, 1.080e-4
-1.643, 1.090e-4
-1.644, 1.100e-4
-1.645, 1.110e-4
-1.646, 1.120e-4
-1.647, 1.132e-4
-1.648, 1.143e-4
-1.649, 1.152e-4
-1.650, 1.162e-4
-1.651, 1.173e-4
-1.652, 1.184e-4
-1.653, 1.194e-4
-1.654, 1.205e-4
-1.655, 1.217e-4
-1.656, 1.230e-4
-1.657, 1.242e-4
-1.658, 1.254e-4
-1.659, 1.265e-4
-1.660, 1.277e-4
-1.661, 1.289e-4
-1.662, 1.301e-4
-1.663, 1.312e-4
-1.664, 1.325e-4
-1.665, 1.337e-4
-1.666, 1.349e-4
-1.667, 1.361e-4
-1.668, 1.374e-4
-1.669, 1.388e-4
-1.670, 1.401e-4
-1.671, 1.412e-4
-1.672, 1.425e-4
-1.673, 1.437e-4
-1.674, 1.450e-4
-1.675, 1.463e-4
-1.676, 1.476e-4
-1.677, 1.489e-4
-1.678, 1.502e-4
-1.679, 1.516e-4
-1.680, 1.529e-4
-1.681, 1.543e-4
-1.682, 1.556e-4
-1.683, 1.569e-4
-1.684, 1.582e-4
-1.685, 1.596e-4
-1.686, 1.610e-4
-1.687, 1.623e-4
-1.688, 1.637e-4
-1.689, 1.651e-4
-1.690, 1.666e-4
-1.691, 1.681e-4
-1.692, 1.694e-4
-1.693, 1.708e-4
-1.694, 1.721e-4
-1.695, 1.735e-4
-1.696, 1.749e-4
-1.697, 1.763e-4
-1.698, 1.778e-4
-1.699, 1.792e-4
-1.700, 1.806e-4
-1.701, 1.813e-4
-1.702, 1.824e-4
-1.703, 1.842e-4
-1.704, 1.858e-4
-1.705, 1.873e-4
-1.706, 1.888e-4
-1.707, 1.902e-4
-1.708, 1.916e-4
-1.709, 1.931e-4
-1.710, 1.945e-4
-1.711, 1.960e-4
-1.712, 1.974e-4
-1.713, 1.989e-4
-1.714, 2.004e-4
-1.715, 2.021e-4
-1.716, 2.038e-4
-1.717, 2.055e-4
-1.718, 2.073e-4
-1.719, 2.092e-4
-1.720, 2.112e-4
-1.721, 2.133e-4
-1.722, 2.155e-4
-1.723, 2.178e-4
-1.724, 2.203e-4
-1.725, 2.231e-4
-1.726, 2.261e-4
-1.727, 2.294e-4
-1.728, 2.328e-4
-1.729, 2.365e-4
-1.730, 2.404e-4
-1.731, 2.446e-4
-1.732, 2.488e-4
-1.733, 2.532e-4
-1.734, 2.576e-4
-1.735, 2.623e-4
-1.736, 2.670e-4
-1.737, 2.719e-4
-1.738, 2.768e-4
-1.739, 2.818e-4
-1.740, 2.869e-4
-1.741, 2.920e-4
-1.742, 2.973e-4
-1.743, 3.026e-4
-1.744, 3.081e-4
-1.745, 3.136e-4
-1.746, 3.192e-4
-1.747, 3.248e-4
-1.748, 3.305e-4
-1.749, 3.363e-4
-1.750, 3.422e-4
-1.751, 3.481e-4
-1.752, 3.541e-4
-1.753, 3.602e-4
-1.754, 3.664e-4
-1.755, 3.727e-4
-1.756, 3.791e-4
-1.757, 3.856e-4
-1.758, 3.922e-4
-1.759, 3.988e-4
-1.760, 4.057e-4
-1.761, 4.126e-4
-1.762, 4.197e-4
-1.763, 4.268e-4
-1.764, 4.341e-4
-1.765, 4.414e-4
-1.766, 4.489e-4
-1.767, 4.564e-4
-1.768, 4.640e-4
-1.769, 4.717e-4
-1.770, 4.796e-4
-1.771, 4.877e-4
-1.772, 4.957e-4
-1.773, 5.038e-4
-1.774, 5.120e-4
-1.775, 5.203e-4
-1.776, 5.288e-4
-1.777, 5.374e-4
-1.778, 5.459e-4
-1.779, 5.545e-4
-1.780, 5.633e-4
-1.781, 5.721e-4
-1.782, 5.810e-4
-1.783, 5.901e-4
-1.784, 5.991e-4
-1.785, 6.083e-4
-1.786, 6.174e-4
-1.787, 6.267e-4
-1.788, 6.361e-4
-1.789, 6.455e-4
-1.790, 6.549e-4
-1.791, 6.643e-4
-1.792, 6.739e-4
-1.793, 6.836e-4
-1.794, 6.933e-4
-1.795, 7.031e-4
-1.796, 7.128e-4
-1.797, 7.227e-4
-1.798, 7.326e-4
-1.799, 7.424e-4
-1.800, 7.523e-4
-1.801, 7.623e-4
-1.802, 7.723e-4
-1.803, 7.825e-4
-1.804, 7.927e-4
-1.805, 8.029e-4
-1.806, 8.132e-4
-1.807, 8.234e-4
-1.808, 8.336e-4
-1.809, 8.438e-4
-1.810, 8.541e-4
-1.811, 8.645e-4
-1.812, 8.749e-4
-1.813, 8.855e-4
-1.814, 8.961e-4
-1.815, 9.067e-4
-1.816, 9.173e-4
-1.817, 9.279e-4
-1.818, 9.386e-4
-1.819, 9.492e-4
-1.820, 9.599e-4
-1.821, 9.706e-4
-1.822, 9.813e-4
-1.823, 9.919e-4
-1.824, 1.003e-3
-1.825, 1.010e-3
-1.826, 1.011e-3
-1.827, 1.011e-3
-1.828, 1.011e-3
-1.829, 1.011e-3
-1.830, 1.011e-3
-1.831, 1.011e-3
-1.832, 1.011e-3
-1.833, 1.011e-3
-1.834, 1.011e-3
-1.835, 1.011e-3
-1.836, 1.011e-3
-1.837, 1.011e-3
-1.838, 1.011e-3
-1.839, 1.011e-3
-1.840, 1.011e-3
-1.841, 1.011e-3
-1.842, 1.011e-3
-1.843, 1.011e-3
-1.844, 1.011e-3
-1.845, 1.011e-3
-1.846, 1.011e-3
-1.847, 1.011e-3
-1.848, 1.011e-3
-1.849, 1.011e-3
-1.850, 1.011e-3
-1.851, 1.011e-3
-1.852, 1.011e-3
-1.853, 1.011e-3
-1.854, 1.011e-3
-1.855, 1.011e-3
-1.856, 1.011e-3
-1.857, 1.011e-3
-1.858, 1.011e-3
-1.859, 1.011e-3
-1.860, 1.011e-3
-1.861, 1.011e-3
-1.862, 1.011e-3
-1.863, 1.011e-3
-1.864, 1.011e-3
-1.865, 1.011e-3
-1.866, 1.011e-3
-1.867, 1.011e-3
-1.868, 1.011e-3
-1.869, 1.011e-3
-1.870, 1.011e-3
-1.871, 1.011e-3
-1.872, 1.011e-3
-1.873, 1.011e-3
-1.874, 1.011e-3
-1.875, 1.011e-3
-1.876, 1.011e-3
-1.877, 1.011e-3
-1.878, 1.011e-3
-1.879, 1.011e-3
-1.880, 1.011e-3
-1.881, 1.011e-3
-1.882, 1.011e-3
-1.883, 1.011e-3
-1.884, 1.011e-3
-1.885, 1.011e-3
-1.886, 1.011e-3
-1.887, 1.011e-3
-1.888, 1.011e-3
-1.889, 1.011e-3
-1.890, 1.011e-3
-1.891, 1.011e-3
-1.892, 1.011e-3
-1.893, 1.011e-3
-1.894, 1.011e-3
-1.895, 1.011e-3
-1.896, 1.011e-3
-1.897, 1.011e-3
-1.898, 1.011e-3
-1.899, 1.011e-3
-1.900, 1.011e-3
-1.901, 1.011e-3
-1.902, 1.011e-3
-1.903, 1.011e-3
-1.904, 1.011e-3
-1.905, 1.011e-3
-1.906, 1.011e-3
-1.907, 1.011e-3
-1.908, 1.011e-3
-1.909, 1.011e-3
-1.910, 1.011e-3
-1.911, 1.011e-3
-1.912, 1.011e-3
-1.913, 1.011e-3
-1.914, 1.011e-3
-1.915, 1.011e-3
-1.916, 1.011e-3
-1.917, 1.011e-3
-1.918, 1.011e-3
-1.919, 1.011e-3
-1.920, 1.011e-3
-1.921, 1.011e-3
-1.922, 1.011e-3
-1.923, 1.011e-3
-1.924, 1.011e-3
-1.925, 1.011e-3
-1.926, 1.011e-3
-1.927, 1.011e-3
-1.928, 1.011e-3
-1.929, 1.011e-3
-1.930, 1.011e-3
-1.931, 1.011e-3
-1.932, 1.011e-3
-1.933, 1.011e-3
-1.934, 1.011e-3
-1.935, 1.011e-3
-1.936, 1.011e-3
-1.937, 1.011e-3
-1.938, 1.011e-3
-1.939, 1.011e-3
-1.940, 1.011e-3
-1.941, 1.011e-3
-1.942, 1.011e-3
-1.943, 1.011e-3
-1.944, 1.011e-3
-1.945, 1.011e-3
-1.946, 1.011e-3
-1.947, 1.011e-3
-1.948, 1.011e-3
-1.949, 1.011e-3
-1.950, 1.011e-3
-1.951, 1.011e-3
-1.952, 1.011e-3
-1.953, 1.011e-3
-1.954, 1.011e-3
-1.955, 1.011e-3
-1.956, 1.011e-3
-1.957, 1.011e-3
-1.958, 1.011e-3
-1.959, 1.011e-3
-1.960, 1.011e-3
-1.961, 1.011e-3
-1.962, 1.011e-3
-1.963, 1.011e-3
-1.964, 1.011e-3
-1.965, 1.011e-3
-1.966, 1.011e-3
-1.967, 1.011e-3
-1.968, 1.011e-3
-1.969, 1.011e-3
-1.970, 1.011e-3
-1.971, 1.011e-3
-1.972, 1.011e-3
-1.973, 1.011e-3
-1.974, 1.011e-3
-1.975, 1.011e-3
-1.976, 1.011e-3
-1.977, 1.011e-3
-1.978, 1.011e-3
-1.979, 1.011e-3
-1.980, 1.011e-3
-1.981, 1.011e-3
-1.982, 1.011e-3
-1.983, 1.011e-3
-1.984, 1.011e-3
-1.985, 1.011e-3
-1.986, 1.011e-3
-1.987, 1.011e-3
-1.988, 1.011e-3
-1.989, 1.011e-3
-1.990, 1.011e-3
-1.991, 1.011e-3
-1.992, 1.011e-3
-1.993, 1.011e-3
-1.994, 1.011e-3
-1.995, 1.011e-3
-1.996, 1.011e-3
-1.997, 1.011e-3
-1.998, 1.011e-3
-1.999, 1.011e-3
-2.000, 1.011e-3
-2.001, 1.011e-3
-2.002, 1.011e-3
-2.003, 1.011e-3
-2.004, 1.011e-3
-2.005, 1.011e-3
-2.006, 1.011e-3
-2.007, 1.011e-3
-2.008, 1.011e-3
-2.009, 1.011e-3
-2.010, 1.011e-3
-2.011, 1.011e-3
-2.012, 1.011e-3
-2.013, 1.011e-3
-2.014, 1.011e-3
-2.015, 1.011e-3
-2.016, 1.011e-3
-2.017, 1.011e-3
-2.018, 1.011e-3
-2.019, 1.011e-3
-2.020, 1.011e-3
-2.021, 1.011e-3
-2.022, 1.011e-3
-2.023, 1.011e-3
-2.024, 1.011e-3
-2.025, 1.011e-3
-2.026, 1.011e-3
-2.027, 1.011e-3
-2.028, 1.011e-3
-2.029, 1.011e-3
-2.030, 1.011e-3
-2.031, 1.011e-3
-2.032, 1.011e-3
-2.033, 1.011e-3
-2.034, 1.011e-3
-2.035, 1.011e-3
-2.036, 1.011e-3
-2.037, 1.011e-3
-2.038, 1.011e-3
-2.039, 1.011e-3
-2.040, 1.011e-3
-2.041, 1.011e-3
-2.042, 1.011e-3
-2.043, 1.011e-3
-2.044, 1.011e-3
-2.045, 1.011e-3
-2.046, 1.011e-3
-2.047, 1.011e-3
-2.048, 1.011e-3
-2.049, 1.011e-3
-2.050, 1.011e-3
-2.051, 1.011e-3
-2.052, 1.011e-3
-2.053, 1.011e-3
-2.054, 1.011e-3
-2.055, 1.011e-3
-2.056, 1.011e-3
-2.057, 1.011e-3
-2.058, 1.011e-3
-2.059, 1.011e-3
-2.060, 1.011e-3
-2.061, 1.011e-3
-2.062, 1.011e-3
-2.063, 1.011e-3
-2.064, 1.011e-3
-2.065, 1.011e-3
-2.066, 1.011e-3
-2.067, 1.011e-3
-2.068, 1.011e-3
-2.069, 1.011e-3
-2.070, 1.011e-3
-2.071, 1.011e-3
-2.072, 1.011e-3
-2.073, 1.011e-3
-2.074, 1.011e-3
-2.075, 1.011e-3
-2.076, 1.011e-3
-2.077, 1.011e-3
-2.078, 1.011e-3
-2.079, 1.011e-3
-2.080, 1.011e-3
-2.081, 1.011e-3
-2.082, 1.011e-3
-2.083, 1.011e-3
-2.084, 1.011e-3
-2.085, 1.011e-3
-2.086, 1.011e-3
-2.087, 1.011e-3
-2.088, 1.011e-3
-2.089, 1.011e-3
-2.090, 1.011e-3
-2.091, 1.011e-3
-2.092, 1.011e-3
-2.093, 1.011e-3
-2.094, 1.011e-3
-2.095, 1.011e-3
-2.096, 1.011e-3
-2.097, 1.011e-3
-2.098, 1.011e-3
-2.099, 1.011e-3
