Potential V vs RHE, Current mA cm-2
0.4132999999999999,-0.012961584929363466
0.4122999999999999,-0.015349617603535646
0.4112999999999999,-0.016071120366466816
0.4102999999999999,-0.016453092417430374
0.4092999999999999,-0.01666529911241013
0.4082999999999999,-0.01683506446839394
0.4072999999999999,-0.01699068271137909
0.4062999999999999,-0.017089712502369642
0.4052999999999999,-0.017231183632356147
0.4042999999999999,-0.0173302134233467
0.4032999999999999,-0.0174150961013386
0.4022999999999999,-0.017514125892329157
0.4012999999999999,-0.017570714344323755
0.4002999999999999,-0.017641449909317007
0.3992999999999999,-0.01774047970030756
0.3982999999999999,-0.017839509491298113
0.3972999999999999,-0.017910245056291362
0.3962999999999999,-0.018009274847281917
0.3952999999999999,-0.018080010412275173
0.3942999999999999,-0.01813659886426977
0.39329999999999987,-0.01817904020326572
0.39229999999999987,-0.018235628655260322
0.39129999999999987,-0.018278069994256275
0.39029999999999987,-0.018334658446250877
0.38929999999999987,-0.018377099785246823
0.38829999999999987,-0.018447835350240076
0.38729999999999987,-0.01849027668923603
0.38629999999999987,-0.01853271802823198
0.38529999999999986,-0.01858930648022658
0.38429999999999986,-0.018617600706223883
0.38329999999999986,-0.018688336271217135
0.38229999999999986,-0.018773218949209036
0.38129999999999986,-0.018815660288204986
0.38029999999999986,-0.01891469007919554
0.37929999999999986,-0.018942984305192843
0.37829999999999986,-0.01897127853119014
0.37729999999999986,-0.019013719870186095
0.37629999999999986,-0.019027866983184743
0.37529999999999986,-0.019098602548177995
0.37429999999999986,-0.019112749661176646
0.37329999999999985,-0.0191834852261699
0.37229999999999985,-0.019240073678164497
0.37129999999999985,-0.019254220791163148
0.37029999999999985,-0.0192966621301591
0.36929999999999985,-0.019353250582153703
0.36829999999999985,-0.0194098390341483
0.36729999999999985,-0.019494721712140204
0.36629999999999985,-0.019537163051136158
0.36529999999999985,-0.019579604390132108
0.36429999999999985,-0.019622045729128058
0.36329999999999985,-0.019607898616129407
0.36229999999999984,-0.019664487068124008
0.36129999999999984,-0.01967863418112266
0.36029999999999984,-0.019721075520118612
0.35929999999999984,-0.019763516859114563
0.35829999999999984,-0.019805958198110513
0.35729999999999984,-0.019834252424107815
0.35629999999999984,-0.019890840876102416
0.35529999999999984,-0.019904987989101064
0.35429999999999984,-0.019961576441095665
0.35329999999999984,-0.020018164893090266
0.35229999999999984,-0.02007475334508487
0.35129999999999983,-0.02011719468408082
0.35029999999999983,-0.02011719468408082
0.34929999999999983,-0.020131341797079472
0.34829999999999983,-0.020187930249074077
0.34729999999999983,-0.020230371588070024
0.34629999999999983,-0.020286960040064625
0.34529999999999983,-0.02032940137906058
0.34429999999999983,-0.02032940137906058
0.3432999999999998,-0.020357695605057877
0.3422999999999998,-0.020400136944053827
0.3412999999999998,-0.020470872509047083
0.3402999999999998,-0.02055575518703898
0.3392999999999998,-0.020569902300037635
0.3382999999999998,-0.020626490752032236
0.3372999999999998,-0.020654784978029535
0.3362999999999998,-0.020683079204026837
0.3352999999999998,-0.02073966765602144
0.3342999999999998,-0.02075381476902009
0.3332999999999998,-0.02078210899501739
0.3322999999999998,-0.020810403221014687
0.3312999999999998,-0.020824550334013342
0.3302999999999998,-0.02088113878600794
0.3292999999999998,-0.020909433012005242
0.3282999999999998,-0.020937727238002544
0.3272999999999998,-0.020994315689997142
0.3262999999999998,-0.021022609915994445
0.3252999999999999,-0.021036757028993096
0.3242999999999999,-0.021079198367989046
0.3232999999999999,-0.021107492593986348
0.3222999999999999,-0.0211782281589796
0.3212999999999999,-0.02122066949797555
0.3202999999999999,-0.021291405062968803
0.3192999999999999,-0.021347993514963404
0.3182999999999999,-0.021390434853959358
0.3172999999999999,-0.021432876192955305
0.3162999999999999,-0.021475317531951258
0.3152999999999999,-0.021489464644949906
0.3142999999999999,-0.02150361175794856
0.3132999999999999,-0.02153190598394586
0.3122999999999999,-0.02153190598394586
0.3112999999999999,-0.02157434732294181
0.3102999999999999,-0.02161678866193776
0.3092999999999999,-0.02165923000093371
0.3082999999999999,-0.021715818452928314
0.3072999999999999,-0.021758259791924264
0.3062999999999999,-0.021800701130920214
0.3052999999999999,-0.02185728958291482
0.3042999999999999,-0.021885583808912118
0.3032999999999999,-0.02194217226090672
0.3022999999999999,-0.021956319373905367
0.3012999999999999,-0.02199876071290132
0.3002999999999999,-0.02205534916489592
0.2992999999999999,-0.022069496277894573
0.2982999999999999,-0.022111937616890523
0.2972999999999999,-0.022111937616890523
0.2962999999999999,-0.022140231842887825
0.2952999999999999,-0.022210967407881078
0.2942999999999999,-0.022196820294882423
0.2932999999999999,-0.02226755585987568
0.2922999999999999,-0.022295850085872978
0.2912999999999999,-0.02230999719887163
0.2902999999999999,-0.02238073276386488
0.2892999999999999,-0.022465615441856785
0.2882999999999999,-0.022493909667854084
0.2872999999999999,-0.022550498119848682
0.2862999999999999,-0.022536351006850038
0.2852999999999999,-0.022592939458844635
0.2842999999999999,-0.022621233684841938
0.2832999999999999,-0.022635380797840585
0.2822999999999999,-0.022663675023837888
0.2812999999999999,-0.022691969249835187
0.2802999999999999,-0.02273441058883114
0.2792999999999999,-0.02277685192782709
0.2782999999999999,-0.02280514615382439
0.2772999999999999,-0.022861734605818994
0.2762999999999999,-0.022932470170812246
0.2752999999999999,-0.022974911509808196
0.2742999999999999,-0.023031499961802798
0.2732999999999999,-0.0230597941878001
0.2722999999999999,-0.023073941300798748
0.2712999999999999,-0.0230880884137974
0.2702999999999999,-0.023116382639794698
0.2692999999999999,-0.02313052975279335
0.26829999999999987,-0.023172971091789302
0.26729999999999987,-0.023215412430785252
0.26629999999999987,-0.02324370665678255
0.26529999999999987,-0.023300295108777156
0.26429999999999987,-0.023300295108777156
0.26329999999999987,-0.023356883560771757
0.26229999999999987,-0.02341347201276636
0.26129999999999987,-0.02345591335176231
0.26029999999999986,-0.02352664891675556
0.25929999999999986,-0.02352664891675556
0.25829999999999986,-0.023583237368750162
0.25729999999999986,-0.02359738448174881
0.25629999999999986,-0.023611531594747465
0.25529999999999986,-0.023639825820744764
0.25429999999999986,-0.023668120046742062
0.25329999999999986,-0.023724708498736664
0.25229999999999986,-0.023753002724733966
0.25129999999999986,-0.023795444063729916
0.25029999999999986,-0.023837885402725866
0.24929999999999986,-0.02388032674172182
0.24829999999999985,-0.02393691519371642
0.24729999999999985,-0.023993503645711022
0.24629999999999985,-0.024035944984706972
0.24529999999999985,-0.024106680549700225
0.24429999999999985,-0.024149121888696175
0.24329999999999985,-0.024134974775697527
0.24229999999999985,-0.02417741611469348
0.24129999999999985,-0.024191563227692125
0.24029999999999985,-0.024219857453689427
0.23929999999999985,-0.02427644590568403
0.23829999999999985,-0.024304740131681327
0.23729999999999984,-0.024375475696674583
0.23629999999999984,-0.024432064148669184
0.23529999999999984,-0.024488652600663786
0.23429999999999984,-0.024545241052658383
0.23329999999999984,-0.024587682391654337
0.23229999999999984,-0.02461597661765164
0.23129999999999984,-0.02465841795664759
0.23029999999999984,-0.024644270843648942
0.22929999999999984,-0.02467256506964624
0.22829999999999984,-0.024729153521640842
0.22729999999999984,-0.02475744774763814
0.22629999999999983,-0.024842330425630044
0.22529999999999983,-0.024913065990623297
0.22429999999999983,-0.024898918877624646
0.22329999999999983,-0.024969654442617898
0.22229999999999983,-0.025012095781613848
0.22129999999999983,-0.0250545371206098
0.22029999999999983,-0.0251111255726044
0.21929999999999983,-0.0251111255726044
0.21829999999999983,-0.025181861137597652
0.21729999999999983,-0.025210155363594954
0.21629999999999983,-0.025238449589592253
0.21529999999999982,-0.025309185154585506
0.21429999999999982,-0.025309185154585506
0.21329999999999982,-0.02535162649358146
0.21229999999999982,-0.025422362058574708
0.21129999999999982,-0.02543650917157336
0.21029999999999982,-0.025507244736566608
0.20929999999999982,-0.025563833188561213
0.20829999999999982,-0.025634568753554465
0.20729999999999982,-0.025719451431546365
0.20629999999999982,-0.02576189277054232
0.20529999999999982,-0.025818481222536924
0.20429999999999982,-0.025846775448534223
0.20329999999999981,-0.025860922561532867
0.2022999999999998,-0.02591751101352747
0.2012999999999998,-0.025959952352523425
0.20029999999999992,-0.02600239369151937
0.19929999999999992,-0.026044835030515325
0.19829999999999992,-0.026087276369511275
0.19729999999999992,-0.026158011934504528
0.19629999999999992,-0.02620045327350048
0.19529999999999992,-0.026257041725495082
0.19429999999999992,-0.026398512855481584
0.19329999999999992,-0.026483395533473487
0.19229999999999992,-0.02649754264647214
0.19129999999999991,-0.02652583687246944
0.1902999999999999,-0.02655413109846674
0.1892999999999999,-0.02656827821146539
0.1882999999999999,-0.02661071955046134
0.1872999999999999,-0.02665316088945729
0.1862999999999999,-0.026709749341451892
0.1852999999999999,-0.026766337793446494
0.1842999999999999,-0.026808779132442447
0.1832999999999999,-0.026879514697435696
0.1822999999999999,-0.026907808923433
0.1812999999999999,-0.026978544488426247
0.1802999999999999,-0.02709172139241545
0.1792999999999999,-0.027120015618412752
0.1782999999999999,-0.027176604070407354
0.1772999999999999,-0.027204898296404656
0.1762999999999999,-0.027219045409403307
0.1752999999999999,-0.02730392808739521
0.1742999999999999,-0.027332222313392506
0.1732999999999999,-0.02740295787838576
0.1722999999999999,-0.027487840556377662
0.1712999999999999,-0.02750198766937631
0.1702999999999999,-0.027544429008372267
0.1692999999999999,-0.027586870347368214
0.1682999999999999,-0.02762931168636417
0.1672999999999999,-0.027671753025360117
0.1662999999999999,-0.02770004725135742
0.1652999999999999,-0.027784929929349323
0.1642999999999999,-0.027841518381343924
0.1632999999999999,-0.02788395972033987
0.1622999999999999,-0.028011283737327728
0.1612999999999999,-0.02811031352831828
0.1602999999999999,-0.028181049093311532
0.1592999999999999,-0.028223490432307482
0.15829999999999989,-0.028237637545306133
0.15729999999999988,-0.028265931771303435
0.15629999999999988,-0.028322520223298033
0.15529999999999988,-0.028393255788291286
0.15429999999999988,-0.028449844240285887
0.15329999999999988,-0.02850643269228049
0.15229999999999988,-0.028577168257273744
0.15129999999999988,-0.028662050935265648
0.15029999999999988,-0.028732786500258897
0.14929999999999988,-0.02880352206525215
0.14829999999999988,-0.02888840474324405
0.14729999999999988,-0.0289025518562427
0.14629999999999987,-0.028987434534234607
0.14529999999999987,-0.02902987587323055
0.14429999999999987,-0.029058170099227856
0.14329999999999987,-0.029157199890218404
0.14229999999999987,-0.029242082568210308
0.14129999999999987,-0.02927037679420761
0.14029999999999987,-0.02935525947219951
0.13929999999999987,-0.029383553698196813
0.13829999999999987,-0.029482583489187364
0.13729999999999987,-0.029525024828183317
0.13629999999999987,-0.029624054619173872
0.13529999999999986,-0.02973723152316307
0.13429999999999986,-0.02979381997515767
0.13329999999999986,-0.029892849766148224
0.13229999999999986,-0.029977732444140127
0.13129999999999986,-0.030034320896134725
0.13029999999999986,-0.03011920357412663
0.12929999999999986,-0.030161644913122586
0.12829999999999986,-0.030204086252118532
0.12729999999999986,-0.030274821817111785
0.12629999999999986,-0.030345557382105034
0.12529999999999986,-0.030430440060096934
0.12429999999999986,-0.030501175625090193
0.12329999999999985,-0.03058605830308209
0.12229999999999985,-0.030699235207071292
0.12129999999999985,-0.030784117885063196
0.12029999999999985,-0.030897294789052406
0.11929999999999985,-0.03099632458004295
0.11829999999999985,-0.031081207258034853
0.11729999999999985,-0.031180237049025412
0.11629999999999985,-0.031250972614018664
0.11529999999999985,-0.03133585529201056
0.11429999999999985,-0.031420737970002464
0.11329999999999985,-0.031505620647994365
0.11229999999999984,-0.03160465043898492
0.11129999999999984,-0.03171782734297412
0.11029999999999984,-0.031788562907967374
0.10929999999999984,-0.031873445585959274
0.10829999999999984,-0.03198662248994848
0.10729999999999984,-0.032057358054941726
0.10629999999999984,-0.032156387845932284
0.10529999999999984,-0.032255417636922835
0.10429999999999984,-0.032340300314914736
0.10329999999999984,-0.032453477218903945
0.10229999999999984,-0.03256665412289315
0.10129999999999983,-0.03267983102688235
0.10029999999999983,-0.03282130215686885
0.09929999999999983,-0.03290618483486075
0.09829999999999983,-0.032991067512852655
0.09729999999999983,-0.033090097303843206
0.09629999999999983,-0.03320327420783241
0.09529999999999983,-0.03331645111182161
0.09429999999999983,-0.03341548090281216
0.09329999999999983,-0.03352865780680137
0.09229999999999983,-0.033655981823789226
0.09129999999999983,-0.03376915872777843
0.09029999999999982,-0.033924776970763584
0.08929999999999982,-0.034108689439746036
0.08829999999999982,-0.034264307682731185
0.08729999999999982,-0.03441992592571634
0.08629999999999982,-0.03451895571670689
0.08529999999999982,-0.0346321326206961
0.08429999999999982,-0.03475945663768395
0.08329999999999982,-0.03484433931567585
0.08229999999999982,-0.0349716633326637
0.08129999999999982,-0.035127281575648865
0.08029999999999982,-0.03526875270563536
0.07929999999999982,-0.03543851806161917
0.07829999999999981,-0.035579989191605675
0.07729999999999981,-0.035749754547589475
0.07629999999999981,-0.035947814129570585
0.07529999999999992,-0.036103432372555734
0.07429999999999992,-0.03631563906753549
0.07329999999999992,-0.03652784576251525
0.07229999999999992,-0.0366834640055004
0.07129999999999992,-0.036867376474482856
0.07029999999999992,-0.03702299471746801
0.06929999999999992,-0.03717861296045316
0.06829999999999992,-0.03736252542943562
0.06729999999999992,-0.03756058501141672
0.06629999999999991,-0.037772791706396476
0.06529999999999991,-0.03799914551437489
0.06429999999999991,-0.038239646435351944
0.06329999999999991,-0.038522588695324954
0.06229999999999991,-0.03873479539030471
0.06129999999999991,-0.03891870785928716
0.06029999999999991,-0.03911676744126827
0.05929999999999991,-0.03928653279725207
0.05829999999999991,-0.03949873949223183
0.05729999999999991,-0.03971094618721158
0.056299999999999906,-0.03992315288219133
0.055299999999999905,-0.04016365380316839
0.054299999999999904,-0.0403900076111468
0.0532999999999999,-0.040630508532123855
0.0522999999999999,-0.040927597905095515
0.0512999999999999,-0.04111151037407796
0.0502999999999999,-0.04142274686004828
0.0492999999999999,-0.04167739489402397
0.0482999999999999,-0.04196033715399699
0.0472999999999999,-0.04224327941396999
0.0462999999999999,-0.04248378033494705
0.045299999999999896,-0.04272428125592411
0.044299999999999895,-0.042936487950903865
0.043299999999999894,-0.043191135984879565
0.04229999999999989,-0.043459931131853924
0.04129999999999989,-0.043757020504825585
0.04029999999999989,-0.04408240410379454
0.03929999999999989,-0.0443229050247716
0.03829999999999989,-0.044577553058747305
0.03729999999999989,-0.04490293665771626
0.03629999999999989,-0.04521417314368657
0.03529999999999989,-0.04553955674265553
0.034299999999999886,-0.04587908745462314
0.033299999999999885,-0.0461761768275948
0.032299999999999884,-0.0464025306355732
0.031299999999999883,-0.04662888444355161
0.030299999999999883,-0.046869385364528664
0.02929999999999988,-0.04709573917250707
0.02829999999999988,-0.04743526988447468
0.02729999999999988,-0.04771821214444769
0.02629999999999988,-0.048001154404420696
0.025299999999999878,-0.048269949551395054
0.024299999999999877,-0.04852459758537076
0.023299999999999876,-0.04886412829733837
0.022299999999999875,-0.049175364783308674
0.021299999999999875,-0.04952904260827493
0.020299999999999874,-0.049826131981246594
0.019299999999999873,-0.050024191563227696
0.018299999999999872,-0.05027883959720341
0.01729999999999987,-0.050533487631179104
0.01629999999999987,-0.05078813566515482
0.01529999999999987,-0.05108522503812647
0.014299999999999868,-0.05138231441109813
0.013299999999999867,-0.051735992236064385
0.012299999999999978,-0.0520472287220347
0.011299999999999866,-0.05233017098200771
0.010299999999999976,-0.052613113241980716
0.009299999999999864,-0.05283946704995912
0.008299999999999974,-0.053037526631940224
0.007299999999999862,-0.05324973332691998
0.006299999999999972,-0.05346194002189974
0.00529999999999986,-0.05373073516887409
0.0042999999999999705,-0.05399953031584845
0.0032999999999998586,-0.054240031236825505
0.0022999999999999687,-0.05450882638379986
0.0012999999999998568,-0.054749327304776926
0.00029999999999996696,-0.05496153399975667
-0.000700000000000145,-0.05518788780773508
-0.0017000000000000348,-0.055428388728712134
-0.0027000000000001467,-0.05572547810168379
-0.0037000000000000366,-0.056121597265646014
-0.0047000000000001485,-0.05648942220361091
-0.005700000000000038,-0.05675821735058527
-0.00670000000000015,-0.05697042404556502
-0.00770000000000004,-0.05714018940154882
-0.008700000000000152,-0.05733824898352994
-0.009700000000000042,-0.057479720113516444
-0.010700000000000154,-0.05770607392149485
-0.011700000000000044,-0.057946574842471905
-0.012700000000000156,-0.05815878153745166
-0.013700000000000045,-0.058399282458428715
-0.014700000000000157,-0.058597342040409825
-0.015700000000000047,-0.05879540162239092
-0.01670000000000016,-0.05907834388236394
-0.01770000000000005,-0.05936128614233694
-0.01870000000000016,-0.05971496396730319
-0.01970000000000005,-0.0599979062272762
-0.020700000000000163,-0.06018181869625867
-0.021700000000000053,-0.060422319617235716
-0.022700000000000164,-0.06056379074722222
-0.023700000000000054,-0.06069111476421007
-0.024700000000000166,-0.06080429166819928
-0.025700000000000056,-0.06094576279818578
-0.026700000000000168,-0.06125699928415609
-0.027700000000000058,-0.06153994154412909
-0.02870000000000017,-0.06169555978711426
-0.02970000000000006,-0.06183703091710076
-0.03070000000000017,-0.06197850204708726
-0.03170000000000006,-0.06211997317707376
-0.03270000000000017,-0.062275591420058916
-0.03370000000000006,-0.06245950388904137
-0.034700000000000175,-0.06268585769701977
-0.035700000000000065,-0.06282732882700628
-0.03670000000000018,-0.06298294706999143
-0.03770000000000007,-0.0631385653129766
-0.03870000000000018,-0.06332247778195904
-0.03970000000000007,-0.06346394891194555
-0.04070000000000018,-0.06357712581593475
-0.04170000000000007,-0.063647861380928
-0.04270000000000018,-0.06377518539791585
-0.04370000000000007,-0.06388836230190505
-0.044700000000000184,-0.06400153920589426
-0.045700000000000074,-0.06414301033588077
-0.046700000000000186,-0.06429862857886592
-0.047700000000000076,-0.06445424682185108
-0.04870000000000019,-0.06469474774282813
-0.04970000000000008,-0.06497769000280114
-0.05070000000000019,-0.06527477937577279
-0.05170000000000008,-0.0655577216357458
-0.05270000000000019,-0.06565675142673635
-0.05370000000000008,-0.06576992833072555
-0.05470000000000019,-0.06582651678272017
-0.05570000000000008,-0.06586895812171611
-0.056700000000000195,-0.065953840799708
-0.057700000000000085,-0.06601042925170261
-0.058700000000000196,-0.06619434172068506
-0.059700000000000086,-0.06639240130266617
-0.0607000000000002,-0.06649143109365672
-0.06170000000000009,-0.06663290222364322
-0.0627000000000002,-0.06678852046662838
-0.06370000000000009,-0.06700072716160814
-0.0647000000000002,-0.06734025787357575
-0.06570000000000009,-0.06756661168155415
-0.0667000000000002,-0.06770808281154064
