Aug. 11, 2024   03:50:07
Cyclic Voltammetry
File: c:/users/guazh/data/20240802_batch_500/2024-08-02-exp79\exp79-2024-08-11t03_37_45-arkoh\exp79_cv_50mvs_efin_-1600mv.bin
Data Source:  Experiment
Instrument Model:  CHI760E
Header: CV ran at 50 mVs
Note: 

Init E (V) = -1
High E (V) = -1
Low E (V) = -1.6
Final E (V) = -1
Init P/N = N
Scan Rate (V/s) = 0.05
Segment = 7
Sample Interval (V) = 0.001
Quiet Time (sec) = 60
Sensitivity (A/V) = 0.001
Comp R (ohm) = 1.9

Results:

Channel 1:
Segment 1:

Segment 2:

Segment 3:

Segment 4:
Ep = -1.034V
ip = -1.448e-5A
Ah = -1.637e-5C

Segment 5:

Segment 6:
Ep = -1.036V
ip = -1.582e-5A
Ah = -1.754e-5C

Segment 7:

Potential/V, Current/A

-1.000, 4.992e-6
-1.001, 5.631e-6
-1.002, 6.199e-6
-1.003, 6.941e-6
-1.004, 7.403e-6
-1.005, 6.995e-6
-1.006, 6.593e-6
-1.007, 6.930e-6
-1.008, 7.569e-6
-1.009, 7.988e-6
-1.010, 7.531e-6
-1.011, 7.102e-6
-1.012, 7.375e-6
-1.013, 8.041e-6
-1.014, 8.344e-6
-1.015, 7.877e-6
-1.016, 7.359e-6
-1.017, 7.640e-6
-1.018, 8.374e-6
-1.019, 8.629e-6
-1.020, 8.119e-6
-1.021, 7.690e-6
-1.022, 7.965e-6
-1.023, 8.623e-6
-1.024, 8.909e-6
-1.025, 8.378e-6
-1.026, 7.935e-6
-1.027, 8.158e-6
-1.028, 8.836e-6
-1.029, 9.172e-6
-1.030, 8.490e-6
-1.031, 8.096e-6
-1.032, 8.369e-6
-1.033, 8.935e-6
-1.034, 9.335e-6
-1.035, 8.707e-6
-1.036, 8.265e-6
-1.037, 8.563e-6
-1.038, 9.130e-6
-1.039, 9.499e-6
-1.040, 8.799e-6
-1.041, 8.407e-6
-1.042, 8.773e-6
-1.043, 9.266e-6
-1.044, 9.594e-6
-1.045, 9.007e-6
-1.046, 8.514e-6
-1.047, 8.922e-6
-1.048, 9.457e-6
-1.049, 9.739e-6
-1.050, 9.102e-6
-1.051, 8.692e-6
-1.052, 9.002e-6
-1.053, 9.617e-6
-1.054, 9.885e-6
-1.055, 9.224e-6
-1.056, 8.759e-6
-1.057, 9.096e-6
-1.058, 9.800e-6
-1.059, 9.925e-6
-1.060, 9.369e-6
-1.061, 8.956e-6
-1.062, 9.282e-6
-1.063, 9.892e-6
-1.064, 1.011e-5
-1.065, 9.450e-6
-1.066, 9.138e-6
-1.067, 9.407e-6
-1.068, 9.997e-6
-1.069, 1.033e-5
-1.070, 9.570e-6
-1.071, 9.310e-6
-1.072, 9.559e-6
-1.073, 1.015e-5
-1.074, 1.045e-5
-1.075, 9.786e-6
-1.076, 9.345e-6
-1.077, 9.779e-6
-1.078, 1.035e-5
-1.079, 1.058e-5
-1.080, 9.864e-6
-1.081, 9.533e-6
-1.082, 9.977e-6
-1.083, 1.049e-5
-1.084, 1.064e-5
-1.085, 1.006e-5
-1.086, 9.737e-6
-1.087, 1.008e-5
-1.088, 1.067e-5
-1.089, 1.086e-5
-1.090, 1.026e-5
-1.091, 9.878e-6
-1.092, 1.025e-5
-1.093, 1.086e-5
-1.094, 1.106e-5
-1.095, 1.043e-5
-1.096, 1.012e-5
-1.097, 1.049e-5
-1.098, 1.114e-5
-1.099, 1.123e-5
-1.100, 1.059e-5
-1.101, 1.034e-5
-1.102, 1.065e-5
-1.103, 1.143e-5
-1.104, 1.141e-5
-1.105, 1.079e-5
-1.106, 1.056e-5
-1.107, 1.094e-5
-1.108, 1.158e-5
-1.109, 1.166e-5
-1.110, 1.101e-5
-1.111, 1.088e-5
-1.112, 1.112e-5
-1.113, 1.180e-5
-1.114, 1.193e-5
-1.115, 1.127e-5
-1.116, 1.097e-5
-1.117, 1.142e-5
-1.118, 1.209e-5
-1.119, 1.213e-5
-1.120, 1.157e-5
-1.121, 1.122e-5
-1.122, 1.172e-5
-1.123, 1.232e-5
-1.124, 1.237e-5
-1.125, 1.185e-5
-1.126, 1.148e-5
-1.127, 1.201e-5
-1.128, 1.258e-5
-1.129, 1.260e-5
-1.130, 1.210e-5
-1.131, 1.178e-5
-1.132, 1.222e-5
-1.133, 1.293e-5
-1.134, 1.288e-5
-1.135, 1.238e-5
-1.136, 1.196e-5
-1.137, 1.245e-5
-1.138, 1.323e-5
-1.139, 1.308e-5
-1.140, 1.260e-5
-1.141, 1.230e-5
-1.142, 1.277e-5
-1.143, 1.345e-5
-1.144, 1.330e-5
-1.145, 1.281e-5
-1.146, 1.261e-5
-1.147, 1.299e-5
-1.148, 1.366e-5
-1.149, 1.358e-5
-1.150, 1.309e-5
-1.151, 1.289e-5
-1.152, 1.320e-5
-1.153, 1.391e-5
-1.154, 1.385e-5
-1.155, 1.331e-5
-1.156, 1.305e-5
-1.157, 1.350e-5
-1.158, 1.411e-5
-1.159, 1.413e-5
-1.160, 1.351e-5
-1.161, 1.324e-5
-1.162, 1.383e-5
-1.163, 1.431e-5
-1.164, 1.430e-5
-1.165, 1.385e-5
-1.166, 1.348e-5
-1.167, 1.399e-5
-1.168, 1.463e-5
-1.169, 1.452e-5
-1.170, 1.414e-5
-1.171, 1.378e-5
-1.172, 1.425e-5
-1.173, 1.496e-5
-1.174, 1.482e-5
-1.175, 1.440e-5
-1.176, 1.410e-5
-1.177, 1.461e-5
-1.178, 1.531e-5
-1.179, 1.519e-5
-1.180, 1.464e-5
-1.181, 1.449e-5
-1.182, 1.492e-5
-1.183, 1.570e-5
-1.184, 1.551e-5
-1.185, 1.498e-5
-1.186, 1.492e-5
-1.187, 1.533e-5
-1.188, 1.601e-5
-1.189, 1.601e-5
-1.190, 1.539e-5
-1.191, 1.524e-5
-1.192, 1.578e-5
-1.193, 1.643e-5
-1.194, 1.640e-5
-1.195, 1.584e-5
-1.196, 1.570e-5
-1.197, 1.619e-5
-1.198, 1.689e-5
-1.199, 1.683e-5
-1.200, 1.622e-5
-1.201, 1.610e-5
-1.202, 1.671e-5
-1.203, 1.738e-5
-1.204, 1.727e-5
-1.205, 1.677e-5
-1.206, 1.663e-5
-1.207, 1.727e-5
-1.208, 1.791e-5
-1.209, 1.782e-5
-1.210, 1.732e-5
-1.211, 1.720e-5
-1.212, 1.780e-5
-1.213, 1.851e-5
-1.214, 1.844e-5
-1.215, 1.799e-5
-1.216, 1.782e-5
-1.217, 1.851e-5
-1.218, 1.929e-5
-1.219, 1.917e-5
-1.220, 1.869e-5
-1.221, 1.865e-5
-1.222, 1.941e-5
-1.223, 2.013e-5
-1.224, 2.006e-5
-1.225, 1.967e-5
-1.226, 1.969e-5
-1.227, 2.035e-5
-1.228, 2.130e-5
-1.229, 2.117e-5
-1.230, 2.076e-5
-1.231, 2.081e-5
-1.232, 2.160e-5
-1.233, 2.236e-5
-1.234, 2.247e-5
-1.235, 2.202e-5
-1.236, 2.215e-5
-1.237, 2.298e-5
-1.238, 2.376e-5
-1.239, 2.389e-5
-1.240, 2.353e-5
-1.241, 2.364e-5
-1.242, 2.465e-5
-1.243, 2.549e-5
-1.244, 2.558e-5
-1.245, 2.533e-5
-1.246, 2.550e-5
-1.247, 2.658e-5
-1.248, 2.746e-5
-1.249, 2.757e-5
-1.250, 2.747e-5
-1.251, 2.769e-5
-1.252, 2.881e-5
-1.253, 2.977e-5
-1.254, 2.995e-5
-1.255, 3.000e-5
-1.256, 3.016e-5
-1.257, 3.145e-5
-1.258, 3.253e-5
-1.259, 3.283e-5
-1.260, 3.278e-5
-1.261, 3.327e-5
-1.262, 3.454e-5
-1.263, 3.567e-5
-1.264, 3.602e-5
-1.265, 3.611e-5
-1.266, 3.675e-5
-1.267, 3.797e-5
-1.268, 3.930e-5
-1.269, 3.977e-5
-1.270, 4.002e-5
-1.271, 4.067e-5
-1.272, 4.215e-5
-1.273, 4.335e-5
-1.274, 4.421e-5
-1.275, 4.440e-5
-1.276, 4.521e-5
-1.277, 4.686e-5
-1.278, 4.832e-5
-1.279, 4.909e-5
-1.280, 4.956e-5
-1.281, 5.039e-5
-1.282, 5.220e-5
-1.283, 5.381e-5
-1.284, 5.463e-5
-1.285, 5.528e-5
-1.286, 5.630e-5
-1.287, 5.824e-5
-1.288, 5.998e-5
-1.289, 6.094e-5
-1.290, 6.171e-5
-1.291, 6.291e-5
-1.292, 6.507e-5
-1.293, 6.690e-5
-1.294, 6.808e-5
-1.295, 6.899e-5
-1.296, 7.041e-5
-1.297, 7.259e-5
-1.298, 7.463e-5
-1.299, 7.601e-5
-1.300, 7.705e-5
-1.301, 7.857e-5
-1.302, 8.099e-5
-1.303, 8.323e-5
-1.304, 8.464e-5
-1.305, 8.583e-5
-1.306, 8.769e-5
-1.307, 9.022e-5
-1.308, 9.250e-5
-1.309, 9.418e-5
-1.310, 9.557e-5
-1.311, 9.744e-5
-1.312, 1.001e-4
-1.313, 1.026e-4
-1.314, 1.045e-4
-1.315, 1.059e-4
-1.316, 1.080e-4
-1.317, 1.109e-4
-1.318, 1.135e-4
-1.319, 1.155e-4
-1.320, 1.171e-4
-1.321, 1.193e-4
-1.322, 1.224e-4
-1.323, 1.251e-4
-1.324, 1.272e-4
-1.325, 1.290e-4
-1.326, 1.314e-4
-1.327, 1.345e-4
-1.328, 1.374e-4
-1.329, 1.395e-4
-1.330, 1.415e-4
-1.331, 1.440e-4
-1.332, 1.474e-4
-1.333, 1.504e-4
-1.334, 1.527e-4
-1.335, 1.549e-4
-1.336, 1.575e-4
-1.337, 1.608e-4
-1.338, 1.641e-4
-1.339, 1.666e-4
-1.340, 1.686e-4
-1.341, 1.716e-4
-1.342, 1.749e-4
-1.343, 1.783e-4
-1.344, 1.808e-4
-1.345, 1.831e-4
-1.346, 1.860e-4
-1.347, 1.895e-4
-1.348, 1.929e-4
-1.349, 1.956e-4
-1.350, 1.980e-4
-1.351, 2.010e-4
-1.352, 2.046e-4
-1.353, 2.081e-4
-1.354, 2.109e-4
-1.355, 2.133e-4
-1.356, 2.165e-4
-1.357, 2.202e-4
-1.358, 2.238e-4
-1.359, 2.267e-4
-1.360, 2.292e-4
-1.361, 2.325e-4
-1.362, 2.362e-4
-1.363, 2.400e-4
-1.364, 2.429e-4
-1.365, 2.455e-4
-1.366, 2.488e-4
-1.367, 2.528e-4
-1.368, 2.564e-4
-1.369, 2.594e-4
-1.370, 2.622e-4
-1.371, 2.656e-4
-1.372, 2.696e-4
-1.373, 2.734e-4
-1.374, 2.764e-4
-1.375, 2.792e-4
-1.376, 2.828e-4
-1.377, 2.869e-4
-1.378, 2.908e-4
-1.379, 2.938e-4
-1.380, 2.967e-4
-1.381, 3.004e-4
-1.382, 3.046e-4
-1.383, 3.087e-4
-1.384, 3.119e-4
-1.385, 3.149e-4
-1.386, 3.187e-4
-1.387, 3.228e-4
-1.388, 3.271e-4
-1.389, 3.304e-4
-1.390, 3.335e-4
-1.391, 3.374e-4
-1.392, 3.417e-4
-1.393, 3.459e-4
-1.394, 3.495e-4
-1.395, 3.526e-4
-1.396, 3.566e-4
-1.397, 3.610e-4
-1.398, 3.654e-4
-1.399, 3.690e-4
-1.400, 3.721e-4
-1.401, 3.762e-4
-1.402, 3.808e-4
-1.403, 3.852e-4
-1.404, 3.889e-4
-1.405, 3.923e-4
-1.406, 3.965e-4
-1.407, 4.013e-4
-1.408, 4.058e-4
-1.409, 4.095e-4
-1.410, 4.132e-4
-1.411, 4.174e-4
-1.412, 4.223e-4
-1.413, 4.270e-4
-1.414, 4.309e-4
-1.415, 4.347e-4
-1.416, 4.388e-4
-1.417, 4.438e-4
-1.418, 4.487e-4
-1.419, 4.526e-4
-1.420, 4.566e-4
-1.421, 4.611e-4
-1.422, 4.662e-4
-1.423, 4.712e-4
-1.424, 4.752e-4
-1.425, 4.793e-4
-1.426, 4.841e-4
-1.427, 4.893e-4
-1.428, 4.944e-4
-1.429, 4.988e-4
-1.430, 5.029e-4
-1.431, 5.078e-4
-1.432, 5.133e-4
-1.433, 5.186e-4
-1.434, 5.232e-4
-1.435, 5.275e-4
-1.436, 5.326e-4
-1.437, 5.380e-4
-1.438, 5.435e-4
-1.439, 5.482e-4
-1.440, 5.526e-4
-1.441, 5.578e-4
-1.442, 5.635e-4
-1.443, 5.692e-4
-1.444, 5.741e-4
-1.445, 5.788e-4
-1.446, 5.842e-4
-1.447, 5.901e-4
-1.448, 5.958e-4
-1.449, 6.005e-4
-1.450, 6.051e-4
-1.451, 6.106e-4
-1.452, 6.169e-4
-1.453, 6.231e-4
-1.454, 6.285e-4
-1.455, 6.338e-4
-1.456, 6.395e-4
-1.457, 6.460e-4
-1.458, 6.523e-4
-1.459, 6.576e-4
-1.460, 6.630e-4
-1.461, 6.691e-4
-1.462, 6.758e-4
-1.463, 6.826e-4
-1.464, 6.882e-4
-1.465, 6.938e-4
-1.466, 7.003e-4
-1.467, 7.072e-4
-1.468, 7.141e-4
-1.469, 7.201e-4
-1.470, 7.260e-4
-1.471, 7.328e-4
-1.472, 7.399e-4
-1.473, 7.471e-4
-1.474, 7.533e-4
-1.475, 7.596e-4
-1.476, 7.666e-4
-1.477, 7.741e-4
-1.478, 7.815e-4
-1.479, 7.881e-4
-1.480, 7.946e-4
-1.481, 8.020e-4
-1.482, 8.100e-4
-1.483, 8.176e-4
-1.484, 8.247e-4
-1.485, 8.318e-4
-1.486, 8.395e-4
-1.487, 8.479e-4
-1.488, 8.559e-4
-1.489, 8.632e-4
-1.490, 8.707e-4
-1.491, 8.787e-4
-1.492, 8.875e-4
-1.493, 8.961e-4
-1.494, 9.034e-4
-1.495, 9.113e-4
-1.496, 9.198e-4
-1.497, 9.290e-4
-1.498, 9.378e-4
-1.499, 9.454e-4
-1.500, 9.537e-4
-1.501, 9.628e-4
-1.502, 9.724e-4
-1.503, 9.820e-4
-1.504, 9.903e-4
-1.505, 9.991e-4
-1.506, 1.008e-3
-1.507, 1.017e-3
-1.508, 1.026e-3
-1.509, 1.035e-3
-1.510, 1.044e-3
-1.511, 1.055e-3
-1.512, 1.065e-3
-1.513, 1.076e-3
-1.514, 1.086e-3
-1.515, 1.095e-3
-1.516, 1.106e-3
-1.517, 1.117e-3
-1.518, 1.128e-3
-1.519, 1.138e-3
-1.520, 1.148e-3
-1.521, 1.160e-3
-1.522, 1.172e-3
-1.523, 1.184e-3
-1.524, 1.195e-3
-1.525, 1.206e-3
-1.526, 1.218e-3
-1.527, 1.230e-3
-1.528, 1.242e-3
-1.529, 1.254e-3
-1.530, 1.266e-3
-1.531, 1.279e-3
-1.532, 1.292e-3
-1.533, 1.306e-3
-1.534, 1.318e-3
-1.535, 1.330e-3
-1.536, 1.343e-3
-1.537, 1.358e-3
-1.538, 1.372e-3
-1.539, 1.385e-3
-1.540, 1.398e-3
-1.541, 1.413e-3
-1.542, 1.428e-3
-1.543, 1.443e-3
-1.544, 1.457e-3
-1.545, 1.471e-3
-1.546, 1.486e-3
-1.547, 1.502e-3
-1.548, 1.518e-3
-1.549, 1.534e-3
-1.550, 1.549e-3
-1.551, 1.565e-3
-1.552, 1.582e-3
-1.553, 1.599e-3
-1.554, 1.615e-3
-1.555, 1.632e-3
-1.556, 1.649e-3
-1.557, 1.667e-3
-1.558, 1.685e-3
-1.559, 1.703e-3
-1.560, 1.721e-3
-1.561, 1.739e-3
-1.562, 1.759e-3
-1.563, 1.778e-3
-1.564, 1.796e-3
-1.565, 1.815e-3
-1.566, 1.835e-3
-1.567, 1.856e-3
-1.568, 1.877e-3
-1.569, 1.897e-3
-1.570, 1.916e-3
-1.571, 1.934e-3
-1.572, 1.954e-3
-1.573, 1.974e-3
-1.574, 1.997e-3
-1.575, 2.020e-3
-1.576, 2.044e-3
-1.577, 2.069e-3
-1.578, 2.092e-3
-1.579, 2.116e-3
-1.580, 2.139e-3
-1.581, 2.164e-3
-1.582, 2.189e-3
-1.583, 2.215e-3
-1.584, 2.241e-3
-1.585, 2.267e-3
-1.586, 2.294e-3
-1.587, 2.323e-3
-1.588, 2.351e-3
-1.589, 2.378e-3
-1.590, 2.405e-3
-1.591, 2.434e-3
-1.592, 2.464e-3
-1.593, 2.494e-3
-1.594, 2.524e-3
-1.595, 2.555e-3
-1.596, 2.587e-3
-1.597, 2.619e-3
-1.598, 2.651e-3
-1.599, 2.684e-3
-1.600, 2.679e-3
-1.599, 2.646e-3
-1.598, 2.614e-3
-1.597, 2.583e-3
-1.596, 2.551e-3
-1.595, 2.520e-3
-1.594, 2.490e-3
-1.593, 2.460e-3
-1.592, 2.431e-3
-1.591, 2.401e-3
-1.590, 2.371e-3
-1.589, 2.343e-3
-1.588, 2.315e-3
-1.587, 2.288e-3
-1.586, 2.260e-3
-1.585, 2.232e-3
-1.584, 2.205e-3
-1.583, 2.180e-3
-1.582, 2.154e-3
-1.581, 2.128e-3
-1.580, 2.102e-3
-1.579, 2.077e-3
-1.578, 2.054e-3
-1.577, 2.030e-3
-1.576, 2.006e-3
-1.575, 1.982e-3
-1.574, 1.960e-3
-1.573, 1.938e-3
-1.572, 1.915e-3
-1.571, 1.892e-3
-1.570, 1.870e-3
-1.569, 1.848e-3
-1.568, 1.828e-3
-1.567, 1.807e-3
-1.566, 1.786e-3
-1.565, 1.765e-3
-1.564, 1.744e-3
-1.563, 1.725e-3
-1.562, 1.705e-3
-1.561, 1.685e-3
-1.560, 1.665e-3
-1.559, 1.646e-3
-1.558, 1.627e-3
-1.557, 1.608e-3
-1.556, 1.589e-3
-1.555, 1.571e-3
-1.554, 1.554e-3
-1.553, 1.538e-3
-1.552, 1.521e-3
-1.551, 1.503e-3
-1.550, 1.486e-3
-1.549, 1.469e-3
-1.548, 1.453e-3
-1.547, 1.437e-3
-1.546, 1.421e-3
-1.545, 1.406e-3
-1.544, 1.391e-3
-1.543, 1.376e-3
-1.542, 1.361e-3
-1.541, 1.345e-3
-1.540, 1.330e-3
-1.539, 1.316e-3
-1.538, 1.303e-3
-1.537, 1.290e-3
-1.536, 1.275e-3
-1.535, 1.261e-3
-1.534, 1.248e-3
-1.533, 1.235e-3
-1.532, 1.221e-3
-1.531, 1.208e-3
-1.530, 1.195e-3
-1.529, 1.183e-3
-1.528, 1.171e-3
-1.527, 1.158e-3
-1.526, 1.145e-3
-1.525, 1.132e-3
-1.524, 1.120e-3
-1.523, 1.108e-3
-1.522, 1.095e-3
-1.521, 1.083e-3
-1.520, 1.071e-3
-1.519, 1.060e-3
-1.518, 1.049e-3
-1.517, 1.038e-3
-1.516, 1.025e-3
-1.515, 1.014e-3
-1.514, 1.003e-3
-1.513, 9.918e-4
-1.512, 9.803e-4
-1.511, 9.683e-4
-1.510, 9.569e-4
-1.509, 9.471e-4
-1.508, 9.375e-4
-1.507, 9.274e-4
-1.506, 9.167e-4
-1.505, 9.060e-4
-1.504, 8.963e-4
-1.503, 8.866e-4
-1.502, 8.763e-4
-1.501, 8.659e-4
-1.500, 8.559e-4
-1.499, 8.473e-4
-1.498, 8.385e-4
-1.497, 8.287e-4
-1.496, 8.185e-4
-1.495, 8.086e-4
-1.494, 7.997e-4
-1.493, 7.912e-4
-1.492, 7.816e-4
-1.491, 7.718e-4
-1.490, 7.628e-4
-1.489, 7.547e-4
-1.488, 7.465e-4
-1.487, 7.375e-4
-1.486, 7.278e-4
-1.485, 7.184e-4
-1.484, 7.102e-4
-1.483, 7.019e-4
-1.482, 6.930e-4
-1.481, 6.836e-4
-1.480, 6.752e-4
-1.479, 6.675e-4
-1.478, 6.599e-4
-1.477, 6.517e-4
-1.476, 6.426e-4
-1.475, 6.340e-4
-1.474, 6.264e-4
-1.473, 6.184e-4
-1.472, 6.099e-4
-1.471, 6.014e-4
-1.470, 5.934e-4
-1.469, 5.869e-4
-1.468, 5.798e-4
-1.467, 5.719e-4
-1.466, 5.638e-4
-1.465, 5.561e-4
-1.464, 5.494e-4
-1.463, 5.427e-4
-1.462, 5.351e-4
-1.461, 5.275e-4
-1.460, 5.202e-4
-1.459, 5.138e-4
-1.458, 5.073e-4
-1.457, 4.997e-4
-1.456, 4.921e-4
-1.455, 4.849e-4
-1.454, 4.788e-4
-1.453, 4.727e-4
-1.452, 4.659e-4
-1.451, 4.585e-4
-1.450, 4.520e-4
-1.449, 4.459e-4
-1.448, 4.399e-4
-1.447, 4.332e-4
-1.446, 4.261e-4
-1.445, 4.199e-4
-1.444, 4.143e-4
-1.443, 4.095e-4
-1.442, 4.021e-4
-1.441, 3.951e-4
-1.440, 3.886e-4
-1.439, 3.829e-4
-1.438, 3.773e-4
-1.437, 3.712e-4
-1.436, 3.649e-4
-1.435, 3.592e-4
-1.434, 3.541e-4
-1.433, 3.489e-4
-1.432, 3.430e-4
-1.431, 3.367e-4
-1.430, 3.311e-4
-1.429, 3.264e-4
-1.428, 3.215e-4
-1.427, 3.158e-4
-1.426, 3.101e-4
-1.425, 3.050e-4
-1.424, 3.006e-4
-1.423, 2.960e-4
-1.422, 2.905e-4
-1.421, 2.851e-4
-1.420, 2.804e-4
-1.419, 2.762e-4
-1.418, 2.719e-4
-1.417, 2.667e-4
-1.416, 2.615e-4
-1.415, 2.571e-4
-1.414, 2.531e-4
-1.413, 2.492e-4
-1.412, 2.445e-4
-1.411, 2.394e-4
-1.410, 2.352e-4
-1.409, 2.316e-4
-1.408, 2.280e-4
-1.407, 2.236e-4
-1.406, 2.188e-4
-1.405, 2.149e-4
-1.404, 2.115e-4
-1.403, 2.081e-4
-1.402, 2.038e-4
-1.401, 1.993e-4
-1.400, 1.956e-4
-1.399, 1.923e-4
-1.398, 1.889e-4
-1.397, 1.849e-4
-1.396, 1.807e-4
-1.395, 1.774e-4
-1.394, 1.745e-4
-1.393, 1.715e-4
-1.392, 1.677e-4
-1.391, 1.637e-4
-1.390, 1.604e-4
-1.389, 1.577e-4
-1.388, 1.549e-4
-1.387, 1.513e-4
-1.386, 1.476e-4
-1.385, 1.447e-4
-1.384, 1.422e-4
-1.383, 1.395e-4
-1.382, 1.362e-4
-1.381, 1.327e-4
-1.380, 1.300e-4
-1.379, 1.277e-4
-1.378, 1.253e-4
-1.377, 1.222e-4
-1.376, 1.189e-4
-1.375, 1.164e-4
-1.374, 1.143e-4
-1.373, 1.123e-4
-1.372, 1.094e-4
-1.371, 1.062e-4
-1.370, 1.039e-4
-1.369, 1.021e-4
-1.368, 1.002e-4
-1.367, 9.736e-5
-1.366, 9.438e-5
-1.365, 9.242e-5
-1.364, 9.083e-5
-1.363, 8.896e-5
-1.362, 8.634e-5
-1.361, 8.358e-5
-1.360, 8.180e-5
-1.359, 8.043e-5
-1.358, 7.867e-5
-1.357, 7.630e-5
-1.356, 7.381e-5
-1.355, 7.207e-5
-1.354, 7.095e-5
-1.353, 6.939e-5
-1.352, 6.712e-5
-1.351, 6.483e-5
-1.350, 6.318e-5
-1.349, 6.222e-5
-1.348, 6.094e-5
-1.347, 5.869e-5
-1.346, 5.667e-5
-1.345, 5.524e-5
-1.344, 5.441e-5
-1.343, 5.322e-5
-1.342, 5.122e-5
-1.341, 4.930e-5
-1.340, 4.808e-5
-1.339, 4.725e-5
-1.338, 4.629e-5
-1.337, 4.436e-5
-1.336, 4.262e-5
-1.335, 4.156e-5
-1.334, 4.085e-5
-1.333, 4.004e-5
-1.332, 3.830e-5
-1.331, 3.654e-5
-1.330, 3.574e-5
-1.329, 3.514e-5
-1.328, 3.440e-5
-1.327, 3.279e-5
-1.326, 3.116e-5
-1.325, 3.041e-5
-1.324, 3.013e-5
-1.323, 2.927e-5
-1.322, 2.783e-5
-1.321, 2.628e-5
-1.320, 2.564e-5
-1.319, 2.541e-5
-1.318, 2.469e-5
-1.317, 2.337e-5
-1.316, 2.204e-5
-1.315, 2.142e-5
-1.314, 2.129e-5
-1.313, 2.072e-5
-1.312, 1.941e-5
-1.311, 1.820e-5
-1.310, 1.763e-5
-1.309, 1.760e-5
-1.308, 1.712e-5
-1.307, 1.576e-5
-1.306, 1.470e-5
-1.305, 1.428e-5
-1.304, 1.434e-5
-1.303, 1.398e-5
-1.302, 1.262e-5
-1.301, 1.165e-5
-1.300, 1.131e-5
-1.299, 1.127e-5
-1.298, 1.103e-5
-1.297, 9.792e-6
-1.296, 8.920e-6
-1.295, 8.654e-6
-1.294, 8.726e-6
-1.293, 8.509e-6
-1.292, 7.380e-6
-1.291, 6.418e-6
-1.290, 6.342e-6
-1.289, 6.376e-6
-1.288, 6.253e-6
-1.287, 5.196e-6
-1.286, 4.246e-6
-1.285, 4.194e-6
-1.284, 4.419e-6
-1.283, 4.183e-6
-1.282, 3.245e-6
-1.281, 2.370e-6
-1.280, 2.314e-6
-1.279, 2.537e-6
-1.278, 2.386e-6
-1.277, 1.464e-6
-1.276, 7.003e-7
-1.275, 6.046e-7
-1.274, 9.686e-7
-1.273, 7.812e-7
-1.272, -6.038e-8
-1.271, -7.944e-7
-1.270, -8.299e-7
-1.269, -4.521e-7
-1.268, -4.787e-7
-1.267, -1.551e-6
-1.266, -2.168e-6
-1.265, -2.079e-6
-1.264, -1.752e-6
-1.263, -1.658e-6
-1.262, -2.717e-6
-1.261, -3.290e-6
-1.260, -3.218e-6
-1.259, -2.922e-6
-1.258, -2.831e-6
-1.257, -3.742e-6
-1.256, -4.308e-6
-1.255, -4.234e-6
-1.254, -3.904e-6
-1.253, -3.834e-6
-1.252, -4.687e-6
-1.251, -5.304e-6
-1.250, -5.117e-6
-1.249, -4.768e-6
-1.248, -4.727e-6
-1.247, -5.570e-6
-1.246, -6.253e-6
-1.245, -5.908e-6
-1.244, -5.491e-6
-1.243, -5.542e-6
-1.242, -6.331e-6
-1.241, -6.860e-6
-1.240, -6.615e-6
-1.239, -6.127e-6
-1.238, -6.254e-6
-1.237, -6.965e-6
-1.236, -7.452e-6
-1.235, -7.273e-6
-1.234, -6.777e-6
-1.233, -6.793e-6
-1.232, -7.552e-6
-1.231, -7.970e-6
-1.230, -7.852e-6
-1.229, -7.382e-6
-1.228, -7.298e-6
-1.227, -8.136e-6
-1.226, -8.476e-6
-1.225, -8.309e-6
-1.224, -7.720e-6
-1.223, -7.772e-6
-1.222, -8.583e-6
-1.221, -8.979e-6
-1.220, -8.667e-6
-1.219, -8.155e-6
-1.218, -8.234e-6
-1.217, -8.980e-6
-1.216, -9.290e-6
-1.215, -9.058e-6
-1.214, -8.653e-6
-1.213, -8.572e-6
-1.212, -9.308e-6
-1.211, -9.785e-6
-1.210, -9.441e-6
-1.209, -8.898e-6
-1.208, -8.954e-6
-1.207, -9.638e-6
-1.206, -1.017e-5
-1.205, -9.745e-6
-1.204, -9.168e-6
-1.203, -9.338e-6
-1.202, -9.999e-6
-1.201, -1.044e-5
-1.200, -1.006e-5
-1.199, -9.469e-6
-1.198, -9.654e-6
-1.197, -1.028e-5
-1.196, -1.067e-5
-1.195, -1.038e-5
-1.194, -9.768e-6
-1.193, -9.921e-6
-1.192, -1.054e-5
-1.191, -1.092e-5
-1.190, -1.068e-5
-1.189, -1.003e-5
-1.188, -1.019e-5
-1.187, -1.092e-5
-1.186, -1.118e-5
-1.185, -1.094e-5
-1.184, -1.036e-5
-1.183, -1.045e-5
-1.182, -1.116e-5
-1.181, -1.148e-5
-1.180, -1.112e-5
-1.179, -1.062e-5
-1.178, -1.077e-5
-1.177, -1.140e-5
-1.176, -1.183e-5
-1.175, -1.144e-5
-1.174, -1.089e-5
-1.173, -1.099e-5
-1.172, -1.163e-5
-1.171, -1.205e-5
-1.170, -1.171e-5
-1.169, -1.115e-5
-1.168, -1.128e-5
-1.167, -1.188e-5
-1.166, -1.236e-5
-1.165, -1.191e-5
-1.164, -1.144e-5
-1.163, -1.163e-5
-1.162, -1.213e-5
-1.161, -1.268e-5
-1.160, -1.221e-5
-1.159, -1.169e-5
-1.158, -1.199e-5
-1.157, -1.247e-5
-1.156, -1.296e-5
-1.155, -1.261e-5
-1.154, -1.198e-5
-1.153, -1.226e-5
-1.152, -1.281e-5
-1.151, -1.319e-5
-1.150, -1.297e-5
-1.149, -1.226e-5
-1.148, -1.248e-5
-1.147, -1.325e-5
-1.146, -1.354e-5
-1.145, -1.323e-5
-1.144, -1.264e-5
-1.143, -1.278e-5
-1.142, -1.361e-5
-1.141, -1.384e-5
-1.140, -1.359e-5
-1.139, -1.305e-5
-1.138, -1.324e-5
-1.137, -1.401e-5
-1.136, -1.429e-5
-1.135, -1.395e-5
-1.134, -1.352e-5
-1.133, -1.373e-5
-1.132, -1.438e-5
-1.131, -1.484e-5
-1.130, -1.447e-5
-1.129, -1.400e-5
-1.128, -1.419e-5
-1.127, -1.495e-5
-1.126, -1.538e-5
-1.125, -1.496e-5
-1.124, -1.448e-5
-1.123, -1.484e-5
-1.122, -1.551e-5
-1.121, -1.604e-5
-1.120, -1.558e-5
-1.119, -1.521e-5
-1.118, -1.551e-5
-1.117, -1.620e-5
-1.116, -1.664e-5
-1.115, -1.634e-5
-1.114, -1.589e-5
-1.113, -1.620e-5
-1.112, -1.699e-5
-1.111, -1.735e-5
-1.110, -1.720e-5
-1.109, -1.657e-5
-1.108, -1.698e-5
-1.107, -1.787e-5
-1.106, -1.822e-5
-1.105, -1.797e-5
-1.104, -1.753e-5
-1.103, -1.787e-5
-1.102, -1.879e-5
-1.101, -1.919e-5
-1.100, -1.889e-5
-1.099, -1.859e-5
-1.098, -1.885e-5
-1.097, -1.978e-5
-1.096, -2.019e-5
-1.095, -1.987e-5
-1.094, -1.961e-5
-1.093, -1.991e-5
-1.092, -2.077e-5
-1.091, -2.135e-5
-1.090, -2.101e-5
-1.089, -2.069e-5
-1.088, -2.104e-5
-1.087, -2.192e-5
-1.086, -2.246e-5
-1.085, -2.213e-5
-1.084, -2.178e-5
-1.083, -2.227e-5
-1.082, -2.317e-5
-1.081, -2.377e-5
-1.080, -2.327e-5
-1.079, -2.291e-5
-1.078, -2.341e-5
-1.077, -2.418e-5
-1.076, -2.472e-5
-1.075, -2.443e-5
-1.074, -2.397e-5
-1.073, -2.441e-5
-1.072, -2.530e-5
-1.071, -2.577e-5
-1.070, -2.539e-5
-1.069, -2.492e-5
-1.068, -2.542e-5
-1.067, -2.632e-5
-1.066, -2.663e-5
-1.065, -2.628e-5
-1.064, -2.590e-5
-1.063, -2.632e-5
-1.062, -2.723e-5
-1.061, -2.760e-5
-1.060, -2.706e-5
-1.059, -2.676e-5
-1.058, -2.708e-5
-1.057, -2.796e-5
-1.056, -2.830e-5
-1.055, -2.773e-5
-1.054, -2.747e-5
-1.053, -2.774e-5
-1.052, -2.851e-5
-1.051, -2.901e-5
-1.050, -2.836e-5
-1.049, -2.801e-5
-1.048, -2.821e-5
-1.047, -2.907e-5
-1.046, -2.941e-5
-1.045, -2.875e-5
-1.044, -2.830e-5
-1.043, -2.879e-5
-1.042, -2.948e-5
-1.041, -2.980e-5
-1.040, -2.910e-5
-1.039, -2.862e-5
-1.038, -2.898e-5
-1.037, -2.957e-5
-1.036, -2.986e-5
-1.035, -2.914e-5
-1.034, -2.864e-5
-1.033, -2.898e-5
-1.032, -2.963e-5
-1.031, -2.979e-5
-1.030, -2.915e-5
-1.029, -2.856e-5
-1.028, -2.885e-5
-1.027, -2.955e-5
-1.026, -2.971e-5
-1.025, -2.896e-5
-1.024, -2.847e-5
-1.023, -2.875e-5
-1.022, -2.944e-5
-1.021, -2.956e-5
-1.020, -2.881e-5
-1.019, -2.841e-5
-1.018, -2.853e-5
-1.017, -2.926e-5
-1.016, -2.930e-5
-1.015, -2.863e-5
-1.014, -2.809e-5
-1.013, -2.833e-5
-1.012, -2.900e-5
-1.011, -2.917e-5
-1.010, -2.834e-5
-1.009, -2.787e-5
-1.008, -2.810e-5
-1.007, -2.886e-5
-1.006, -2.896e-5
-1.005, -2.807e-5
-1.004, -2.769e-5
-1.003, -2.801e-5
-1.002, -2.872e-5
-1.001, -2.873e-5
-1.000, -1.390e-5
-1.001, -8.450e-6
-1.002, -6.608e-6
-1.003, -5.874e-6
-1.004, -4.609e-6
-1.005, -2.733e-6
-1.006, -1.464e-6
-1.007, -8.793e-7
-1.008, -1.002e-6
-1.009, -3.455e-7
-1.010, 1.033e-6
-1.011, 1.969e-6
-1.012, 2.118e-6
-1.013, 1.845e-6
-1.014, 2.244e-6
-1.015, 3.395e-6
-1.016, 4.150e-6
-1.017, 4.069e-6
-1.018, 3.827e-6
-1.019, 4.051e-6
-1.020, 4.897e-6
-1.021, 5.728e-6
-1.022, 5.525e-6
-1.023, 5.084e-6
-1.024, 5.315e-6
-1.025, 6.181e-6
-1.026, 6.864e-6
-1.027, 6.580e-6
-1.028, 6.063e-6
-1.029, 6.341e-6
-1.030, 7.040e-6
-1.031, 7.774e-6
-1.032, 7.381e-6
-1.033, 6.878e-6
-1.034, 7.141e-6
-1.035, 7.788e-6
-1.036, 8.413e-6
-1.037, 8.126e-6
-1.038, 7.432e-6
-1.039, 7.800e-6
-1.040, 8.388e-6
-1.041, 8.937e-6
-1.042, 8.618e-6
-1.043, 7.943e-6
-1.044, 8.278e-6
-1.045, 8.947e-6
-1.046, 9.388e-6
-1.047, 9.066e-6
-1.048, 8.432e-6
-1.049, 8.615e-6
-1.050, 9.386e-6
-1.051, 9.739e-6
-1.052, 9.349e-6
-1.053, 8.786e-6
-1.054, 8.936e-6
-1.055, 9.693e-6
-1.056, 9.993e-6
-1.057, 9.678e-6
-1.058, 9.087e-6
-1.059, 9.219e-6
-1.060, 9.922e-6
-1.061, 1.031e-5
-1.062, 9.897e-6
-1.063, 9.372e-6
-1.064, 9.429e-6
-1.065, 1.013e-5
-1.066, 1.059e-5
-1.067, 1.008e-5
-1.068, 9.417e-6
-1.069, 9.660e-6
-1.070, 1.036e-5
-1.071, 1.074e-5
-1.072, 1.024e-5
-1.073, 9.626e-6
-1.074, 9.906e-6
-1.075, 1.053e-5
-1.076, 1.089e-5
-1.077, 1.045e-5
-1.078, 9.784e-6
-1.079, 1.003e-5
-1.080, 1.065e-5
-1.081, 1.096e-5
-1.082, 1.060e-5
-1.083, 9.907e-6
-1.084, 1.018e-5
-1.085, 1.087e-5
-1.086, 1.109e-5
-1.087, 1.068e-5
-1.088, 1.006e-5
-1.089, 1.021e-5
-1.090, 1.095e-5
-1.091, 1.121e-5
-1.092, 1.070e-5
-1.093, 1.019e-5
-1.094, 1.040e-5
-1.095, 1.111e-5
-1.096, 1.133e-5
-1.097, 1.085e-5
-1.098, 1.040e-5
-1.099, 1.052e-5
-1.100, 1.120e-5
-1.101, 1.155e-5
-1.102, 1.095e-5
-1.103, 1.049e-5
-1.104, 1.063e-5
-1.105, 1.133e-5
-1.106, 1.168e-5
-1.107, 1.106e-5
-1.108, 1.057e-5
-1.109, 1.084e-5
-1.110, 1.140e-5
-1.111, 1.181e-5
-1.112, 1.115e-5
-1.113, 1.070e-5
-1.114, 1.088e-5
-1.115, 1.154e-5
-1.116, 1.192e-5
-1.117, 1.129e-5
-1.118, 1.071e-5
-1.119, 1.105e-5
-1.120, 1.164e-5
-1.121, 1.195e-5
-1.122, 1.136e-5
-1.123, 1.078e-5
-1.124, 1.113e-5
-1.125, 1.178e-5
-1.126, 1.198e-5
-1.127, 1.140e-5
-1.128, 1.083e-5
-1.129, 1.115e-5
-1.130, 1.181e-5
-1.131, 1.202e-5
-1.132, 1.136e-5
-1.133, 1.090e-5
-1.134, 1.109e-5
-1.135, 1.183e-5
-1.136, 1.198e-5
-1.137, 1.133e-5
-1.138, 1.094e-5
-1.139, 1.117e-5
-1.140, 1.176e-5
-1.141, 1.206e-5
-1.142, 1.138e-5
-1.143, 1.095e-5
-1.144, 1.115e-5
-1.145, 1.174e-5
-1.146, 1.208e-5
-1.147, 1.132e-5
-1.148, 1.085e-5
-1.149, 1.120e-5
-1.150, 1.174e-5
-1.151, 1.204e-5
-1.152, 1.126e-5
-1.153, 1.078e-5
-1.154, 1.121e-5
-1.155, 1.165e-5
-1.156, 1.193e-5
-1.157, 1.121e-5
-1.158, 1.079e-5
-1.159, 1.114e-5
-1.160, 1.167e-5
-1.161, 1.181e-5
-1.162, 1.113e-5
-1.163, 1.070e-5
-1.164, 1.101e-5
-1.165, 1.167e-5
-1.166, 1.176e-5
-1.167, 1.109e-5
-1.168, 1.069e-5
-1.169, 1.094e-5
-1.170, 1.160e-5
-1.171, 1.177e-5
-1.172, 1.102e-5
-1.173, 1.064e-5
-1.174, 1.095e-5
-1.175, 1.162e-5
-1.176, 1.169e-5
-1.177, 1.098e-5
-1.178, 1.067e-5
-1.179, 1.096e-5
-1.180, 1.155e-5
-1.181, 1.168e-5
-1.182, 1.098e-5
-1.183, 1.061e-5
-1.184, 1.098e-5
-1.185, 1.156e-5
-1.186, 1.165e-5
-1.187, 1.092e-5
-1.188, 1.068e-5
-1.189, 1.099e-5
-1.190, 1.169e-5
-1.191, 1.171e-5
-1.192, 1.103e-5
-1.193, 1.069e-5
-1.194, 1.109e-5
-1.195, 1.169e-5
-1.196, 1.168e-5
-1.197, 1.112e-5
-1.198, 1.070e-5
-1.199, 1.115e-5
-1.200, 1.173e-5
-1.201, 1.170e-5
-1.202, 1.120e-5
-1.203, 1.085e-5
-1.204, 1.121e-5
-1.205, 1.187e-5
-1.206, 1.181e-5
-1.207, 1.129e-5
-1.208, 1.084e-5
-1.209, 1.135e-5
-1.210, 1.202e-5
-1.211, 1.191e-5
-1.212, 1.140e-5
-1.213, 1.105e-5
-1.214, 1.148e-5
-1.215, 1.218e-5
-1.216, 1.205e-5
-1.217, 1.154e-5
-1.218, 1.129e-5
-1.219, 1.162e-5
-1.220, 1.236e-5
-1.221, 1.233e-5
-1.222, 1.170e-5
-1.223, 1.152e-5
-1.224, 1.198e-5
-1.225, 1.255e-5
-1.226, 1.255e-5
-1.227, 1.205e-5
-1.228, 1.190e-5
-1.229, 1.235e-5
-1.230, 1.296e-5
-1.231, 1.288e-5
-1.232, 1.236e-5
-1.233, 1.214e-5
-1.234, 1.272e-5
-1.235, 1.329e-5
-1.236, 1.328e-5
-1.237, 1.289e-5
-1.238, 1.255e-5
-1.239, 1.320e-5
-1.240, 1.382e-5
-1.241, 1.371e-5
-1.242, 1.337e-5
-1.243, 1.304e-5
-1.244, 1.374e-5
-1.245, 1.442e-5
-1.246, 1.437e-5
-1.247, 1.393e-5
-1.248, 1.369e-5
-1.249, 1.428e-5
-1.250, 1.511e-5
-1.251, 1.501e-5
-1.252, 1.461e-5
-1.253, 1.450e-5
-1.254, 1.509e-5
-1.255, 1.593e-5
-1.256, 1.583e-5
-1.257, 1.540e-5
-1.258, 1.534e-5
-1.259, 1.598e-5
-1.260, 1.666e-5
-1.261, 1.682e-5
-1.262, 1.636e-5
-1.263, 1.635e-5
-1.264, 1.698e-5
-1.265, 1.773e-5
-1.266, 1.788e-5
-1.267, 1.739e-5
-1.268, 1.742e-5
-1.269, 1.820e-5
-1.270, 1.891e-5
-1.271, 1.902e-5
-1.272, 1.863e-5
-1.273, 1.867e-5
-1.274, 1.954e-5
-1.275, 2.022e-5
-1.276, 2.039e-5
-1.277, 2.006e-5
-1.278, 2.010e-5
-1.279, 2.095e-5
-1.280, 2.184e-5
-1.281, 2.190e-5
-1.282, 2.164e-5
-1.283, 2.173e-5
-1.284, 2.257e-5
-1.285, 2.350e-5
-1.286, 2.361e-5
-1.287, 2.340e-5
-1.288, 2.352e-5
-1.289, 2.450e-5
-1.290, 2.538e-5
-1.291, 2.548e-5
-1.292, 2.540e-5
-1.293, 2.561e-5
-1.294, 2.655e-5
-1.295, 2.758e-5
-1.296, 2.773e-5
-1.297, 2.753e-5
-1.298, 2.788e-5
-1.299, 2.883e-5
-1.300, 2.988e-5
-1.301, 3.021e-5
-1.302, 3.005e-5
-1.303, 3.041e-5
-1.304, 3.149e-5
-1.305, 3.256e-5
-1.306, 3.292e-5
-1.307, 3.282e-5
-1.308, 3.316e-5
-1.309, 3.448e-5
-1.310, 3.552e-5
-1.311, 3.599e-5
-1.312, 3.589e-5
-1.313, 3.640e-5
-1.314, 3.769e-5
-1.315, 3.881e-5
-1.316, 3.932e-5
-1.317, 3.936e-5
-1.318, 3.991e-5
-1.319, 4.140e-5
-1.320, 4.250e-5
-1.321, 4.306e-5
-1.322, 4.322e-5
-1.323, 4.384e-5
-1.324, 4.535e-5
-1.325, 4.671e-5
-1.326, 4.720e-5
-1.327, 4.757e-5
-1.328, 4.821e-5
-1.329, 4.981e-5
-1.330, 5.122e-5
-1.331, 5.189e-5
-1.332, 5.232e-5
-1.333, 5.320e-5
-1.334, 5.484e-5
-1.335, 5.636e-5
-1.336, 5.710e-5
-1.337, 5.760e-5
-1.338, 5.864e-5
-1.339, 6.040e-5
-1.340, 6.201e-5
-1.341, 6.302e-5
-1.342, 6.355e-5
-1.343, 6.472e-5
-1.344, 6.662e-5
-1.345, 6.832e-5
-1.346, 6.959e-5
-1.347, 7.015e-5
-1.348, 7.149e-5
-1.349, 7.371e-5
-1.350, 7.548e-5
-1.351, 7.677e-5
-1.352, 7.759e-5
-1.353, 7.910e-5
-1.354, 8.150e-5
-1.355, 8.352e-5
-1.356, 8.486e-5
-1.357, 8.595e-5
-1.358, 8.766e-5
-1.359, 9.017e-5
-1.360, 9.233e-5
-1.361, 9.397e-5
-1.362, 9.536e-5
-1.363, 9.720e-5
-1.364, 9.987e-5
-1.365, 1.023e-4
-1.366, 1.040e-4
-1.367, 1.057e-4
-1.368, 1.077e-4
-1.369, 1.107e-4
-1.370, 1.133e-4
-1.371, 1.153e-4
-1.372, 1.171e-4
-1.373, 1.195e-4
-1.374, 1.227e-4
-1.375, 1.257e-4
-1.376, 1.279e-4
-1.377, 1.299e-4
-1.378, 1.326e-4
-1.379, 1.360e-4
-1.380, 1.392e-4
-1.381, 1.418e-4
-1.382, 1.441e-4
-1.383, 1.471e-4
-1.384, 1.507e-4
-1.385, 1.543e-4
-1.386, 1.571e-4
-1.387, 1.597e-4
-1.388, 1.630e-4
-1.389, 1.670e-4
-1.390, 1.709e-4
-1.391, 1.739e-4
-1.392, 1.768e-4
-1.393, 1.804e-4
-1.394, 1.846e-4
-1.395, 1.888e-4
-1.396, 1.922e-4
-1.397, 1.954e-4
-1.398, 1.993e-4
-1.399, 2.039e-4
-1.400, 2.082e-4
-1.401, 2.119e-4
-1.402, 2.154e-4
-1.403, 2.196e-4
-1.404, 2.244e-4
-1.405, 2.291e-4
-1.406, 2.331e-4
-1.407, 2.369e-4
-1.408, 2.412e-4
-1.409, 2.464e-4
-1.410, 2.512e-4
-1.411, 2.554e-4
-1.412, 2.594e-4
-1.413, 2.643e-4
-1.414, 2.695e-4
-1.415, 2.748e-4
-1.416, 2.792e-4
-1.417, 2.834e-4
-1.418, 2.884e-4
-1.419, 2.938e-4
-1.420, 2.993e-4
-1.421, 3.039e-4
-1.422, 3.084e-4
-1.423, 3.138e-4
-1.424, 3.193e-4
-1.425, 3.250e-4
-1.426, 3.299e-4
-1.427, 3.345e-4
-1.428, 3.399e-4
-1.429, 3.458e-4
-1.430, 3.516e-4
-1.431, 3.567e-4
-1.432, 3.614e-4
-1.433, 3.671e-4
-1.434, 3.732e-4
-1.435, 3.792e-4
-1.436, 3.845e-4
-1.437, 3.894e-4
-1.438, 3.951e-4
-1.439, 4.015e-4
-1.440, 4.076e-4
-1.441, 4.130e-4
-1.442, 4.182e-4
-1.443, 4.238e-4
-1.444, 4.305e-4
-1.445, 4.367e-4
-1.446, 4.420e-4
-1.447, 4.471e-4
-1.448, 4.529e-4
-1.449, 4.593e-4
-1.450, 4.656e-4
-1.451, 4.711e-4
-1.452, 4.769e-4
-1.453, 4.834e-4
-1.454, 4.902e-4
-1.455, 4.968e-4
-1.456, 5.026e-4
-1.457, 5.082e-4
-1.458, 5.146e-4
-1.459, 5.215e-4
-1.460, 5.285e-4
-1.461, 5.346e-4
-1.462, 5.406e-4
-1.463, 5.474e-4
-1.464, 5.546e-4
-1.465, 5.618e-4
-1.466, 5.679e-4
-1.467, 5.742e-4
-1.468, 5.810e-4
-1.469, 5.884e-4
-1.470, 5.957e-4
-1.471, 6.023e-4
-1.472, 6.087e-4
-1.473, 6.155e-4
-1.474, 6.233e-4
-1.475, 6.311e-4
-1.476, 6.379e-4
-1.477, 6.448e-4
-1.478, 6.524e-4
-1.479, 6.604e-4
-1.480, 6.682e-4
-1.481, 6.751e-4
-1.482, 6.821e-4
-1.483, 6.897e-4
-1.484, 6.983e-4
-1.485, 7.065e-4
-1.486, 7.138e-4
-1.487, 7.210e-4
-1.488, 7.292e-4
-1.489, 7.380e-4
-1.490, 7.468e-4
-1.491, 7.545e-4
-1.492, 7.621e-4
-1.493, 7.706e-4
-1.494, 7.794e-4
-1.495, 7.887e-4
-1.496, 7.967e-4
-1.497, 8.051e-4
-1.498, 8.139e-4
-1.499, 8.233e-4
-1.500, 8.329e-4
-1.501, 8.415e-4
-1.502, 8.501e-4
-1.503, 8.596e-4
-1.504, 8.693e-4
-1.505, 8.795e-4
-1.506, 8.883e-4
-1.507, 8.971e-4
-1.508, 9.070e-4
-1.509, 9.174e-4
-1.510, 9.281e-4
-1.511, 9.377e-4
-1.512, 9.472e-4
-1.513, 9.575e-4
-1.514, 9.688e-4
-1.515, 9.796e-4
-1.516, 9.897e-4
-1.517, 1.000e-3
-1.518, 1.011e-3
-1.519, 1.023e-3
-1.520, 1.034e-3
-1.521, 1.044e-3
-1.522, 1.054e-3
-1.523, 1.066e-3
-1.524, 1.077e-3
-1.525, 1.089e-3
-1.526, 1.101e-3
-1.527, 1.113e-3
-1.528, 1.125e-3
-1.529, 1.138e-3
-1.530, 1.151e-3
-1.531, 1.163e-3
-1.532, 1.174e-3
-1.533, 1.187e-3
-1.534, 1.200e-3
-1.535, 1.215e-3
-1.536, 1.227e-3
-1.537, 1.240e-3
-1.538, 1.254e-3
-1.539, 1.268e-3
-1.540, 1.283e-3
-1.541, 1.296e-3
-1.542, 1.310e-3
-1.543, 1.325e-3
-1.544, 1.340e-3
-1.545, 1.356e-3
-1.546, 1.370e-3
-1.547, 1.385e-3
-1.548, 1.400e-3
-1.549, 1.415e-3
-1.550, 1.430e-3
-1.551, 1.445e-3
-1.552, 1.461e-3
-1.553, 1.479e-3
-1.554, 1.497e-3
-1.555, 1.515e-3
-1.556, 1.532e-3
-1.557, 1.549e-3
-1.558, 1.566e-3
-1.559, 1.584e-3
-1.560, 1.602e-3
-1.561, 1.620e-3
-1.562, 1.638e-3
-1.563, 1.657e-3
-1.564, 1.678e-3
-1.565, 1.698e-3
-1.566, 1.717e-3
-1.567, 1.736e-3
-1.568, 1.756e-3
-1.569, 1.778e-3
-1.570, 1.798e-3
-1.571, 1.818e-3
-1.572, 1.840e-3
-1.573, 1.862e-3
-1.574, 1.885e-3
-1.575, 1.907e-3
-1.576, 1.927e-3
-1.577, 1.946e-3
-1.578, 1.967e-3
-1.579, 1.991e-3
-1.580, 2.017e-3
-1.581, 2.041e-3
-1.582, 2.065e-3
-1.583, 2.089e-3
-1.584, 2.115e-3
-1.585, 2.141e-3
-1.586, 2.166e-3
-1.587, 2.191e-3
-1.588, 2.217e-3
-1.589, 2.243e-3
-1.590, 2.271e-3
-1.591, 2.301e-3
-1.592, 2.328e-3
-1.593, 2.356e-3
-1.594, 2.386e-3
-1.595, 2.416e-3
-1.596, 2.444e-3
-1.597, 2.472e-3
-1.598, 2.501e-3
-1.599, 2.533e-3
-1.600, 2.530e-3
-1.599, 2.496e-3
-1.598, 2.464e-3
-1.597, 2.432e-3
-1.596, 2.402e-3
-1.595, 2.370e-3
-1.594, 2.336e-3
-1.593, 2.302e-3
-1.592, 2.267e-3
-1.591, 2.236e-3
-1.590, 2.206e-3
-1.589, 2.177e-3
-1.588, 2.150e-3
-1.587, 2.125e-3
-1.586, 2.099e-3
-1.585, 2.072e-3
-1.584, 2.043e-3
-1.583, 2.015e-3
-1.582, 1.987e-3
-1.581, 1.962e-3
-1.580, 1.938e-3
-1.579, 1.914e-3
-1.578, 1.889e-3
-1.577, 1.866e-3
-1.576, 1.843e-3
-1.575, 1.819e-3
-1.574, 1.795e-3
-1.573, 1.772e-3
-1.572, 1.749e-3
-1.571, 1.730e-3
-1.570, 1.709e-3
-1.569, 1.687e-3
-1.568, 1.665e-3
-1.567, 1.644e-3
-1.566, 1.624e-3
-1.565, 1.604e-3
-1.564, 1.584e-3
-1.563, 1.564e-3
-1.562, 1.545e-3
-1.561, 1.527e-3
-1.560, 1.510e-3
-1.559, 1.491e-3
-1.558, 1.472e-3
-1.557, 1.454e-3
-1.556, 1.437e-3
-1.555, 1.420e-3
-1.554, 1.402e-3
-1.553, 1.385e-3
-1.552, 1.369e-3
-1.551, 1.353e-3
-1.550, 1.337e-3
-1.549, 1.319e-3
-1.548, 1.303e-3
-1.547, 1.288e-3
-1.546, 1.273e-3
-1.545, 1.259e-3
-1.544, 1.242e-3
-1.543, 1.227e-3
-1.542, 1.213e-3
-1.541, 1.199e-3
-1.540, 1.185e-3
-1.539, 1.169e-3
-1.538, 1.155e-3
-1.537, 1.141e-3
-1.536, 1.128e-3
-1.535, 1.114e-3
-1.534, 1.098e-3
-1.533, 1.084e-3
-1.532, 1.069e-3
-1.531, 1.055e-3
-1.530, 1.042e-3
-1.529, 1.028e-3
-1.528, 1.016e-3
-1.527, 1.005e-3
-1.526, 9.927e-4
-1.525, 9.803e-4
-1.524, 9.670e-4
-1.523, 9.540e-4
-1.522, 9.422e-4
-1.521, 9.311e-4
-1.520, 9.197e-4
-1.519, 9.077e-4
-1.518, 8.962e-4
-1.517, 8.855e-4
-1.516, 8.748e-4
-1.515, 8.634e-4
-1.514, 8.521e-4
-1.513, 8.409e-4
-1.512, 8.308e-4
-1.511, 8.211e-4
-1.510, 8.107e-4
-1.509, 7.999e-4
-1.508, 7.892e-4
-1.507, 7.796e-4
-1.506, 7.701e-4
-1.505, 7.601e-4
-1.504, 7.495e-4
-1.503, 7.394e-4
-1.502, 7.301e-4
-1.501, 7.212e-4
-1.500, 7.117e-4
-1.499, 7.016e-4
-1.498, 6.920e-4
-1.497, 6.833e-4
-1.496, 6.746e-4
-1.495, 6.653e-4
-1.494, 6.552e-4
-1.493, 6.460e-4
-1.492, 6.376e-4
-1.491, 6.292e-4
-1.490, 6.202e-4
-1.489, 6.105e-4
-1.488, 6.011e-4
-1.487, 5.927e-4
-1.486, 5.844e-4
-1.485, 5.758e-4
-1.484, 5.674e-4
-1.483, 5.592e-4
-1.482, 5.520e-4
-1.481, 5.443e-4
-1.480, 5.362e-4
-1.479, 5.276e-4
-1.478, 5.193e-4
-1.477, 5.123e-4
-1.476, 5.052e-4
-1.475, 4.976e-4
-1.474, 4.897e-4
-1.473, 4.820e-4
-1.472, 4.753e-4
-1.471, 4.685e-4
-1.470, 4.613e-4
-1.469, 4.536e-4
-1.468, 4.464e-4
-1.467, 4.399e-4
-1.466, 4.336e-4
-1.465, 4.266e-4
-1.464, 4.194e-4
-1.463, 4.125e-4
-1.462, 4.064e-4
-1.461, 4.005e-4
-1.460, 3.938e-4
-1.459, 3.867e-4
-1.458, 3.801e-4
-1.457, 3.744e-4
-1.456, 3.689e-4
-1.455, 3.627e-4
-1.454, 3.562e-4
-1.453, 3.502e-4
-1.452, 3.451e-4
-1.451, 3.396e-4
-1.450, 3.339e-4
-1.449, 3.274e-4
-1.448, 3.217e-4
-1.447, 3.168e-4
-1.446, 3.116e-4
-1.445, 3.059e-4
-1.444, 2.998e-4
-1.443, 2.942e-4
-1.442, 2.897e-4
-1.441, 2.848e-4
-1.440, 2.794e-4
-1.439, 2.736e-4
-1.438, 2.683e-4
-1.437, 2.641e-4
-1.436, 2.596e-4
-1.435, 2.544e-4
-1.434, 2.490e-4
-1.433, 2.441e-4
-1.432, 2.402e-4
-1.431, 2.359e-4
-1.430, 2.309e-4
-1.429, 2.258e-4
-1.428, 2.211e-4
-1.427, 2.172e-4
-1.426, 2.133e-4
-1.425, 2.089e-4
-1.424, 2.042e-4
-1.423, 2.000e-4
-1.422, 1.966e-4
-1.421, 1.931e-4
-1.420, 1.888e-4
-1.419, 1.842e-4
-1.418, 1.803e-4
-1.417, 1.771e-4
-1.416, 1.738e-4
-1.415, 1.698e-4
-1.414, 1.654e-4
-1.413, 1.618e-4
-1.412, 1.589e-4
-1.411, 1.557e-4
-1.410, 1.520e-4
-1.409, 1.478e-4
-1.408, 1.444e-4
-1.407, 1.418e-4
-1.406, 1.389e-4
-1.405, 1.355e-4
-1.404, 1.318e-4
-1.403, 1.286e-4
-1.402, 1.262e-4
-1.401, 1.236e-4
-1.400, 1.205e-4
-1.399, 1.170e-4
-1.398, 1.140e-4
-1.397, 1.119e-4
-1.396, 1.097e-4
-1.395, 1.066e-4
-1.394, 1.034e-4
-1.393, 1.008e-4
-1.392, 9.903e-5
-1.391, 9.702e-5
-1.390, 9.410e-5
-1.389, 9.112e-5
-1.388, 8.891e-5
-1.387, 8.719e-5
-1.386, 8.545e-5
-1.385, 8.281e-5
-1.384, 8.013e-5
-1.383, 7.798e-5
-1.382, 7.655e-5
-1.381, 7.524e-5
-1.380, 7.271e-5
-1.379, 7.010e-5
-1.378, 6.840e-5
-1.377, 6.710e-5
-1.376, 6.581e-5
-1.375, 6.357e-5
-1.374, 6.117e-5
-1.373, 5.977e-5
-1.372, 5.865e-5
-1.371, 5.744e-5
-1.370, 5.552e-5
-1.369, 5.334e-5
-1.368, 5.201e-5
-1.367, 5.120e-5
-1.366, 5.003e-5
-1.365, 4.837e-5
-1.364, 4.628e-5
-1.363, 4.513e-5
-1.362, 4.446e-5
-1.361, 4.355e-5
-1.360, 4.185e-5
-1.359, 4.009e-5
-1.358, 3.900e-5
-1.357, 3.847e-5
-1.356, 3.773e-5
-1.355, 3.624e-5
-1.354, 3.447e-5
-1.353, 3.363e-5
-1.352, 3.317e-5
-1.351, 3.263e-5
-1.350, 3.114e-5
-1.349, 2.965e-5
-1.348, 2.883e-5
-1.347, 2.843e-5
-1.346, 2.797e-5
-1.345, 2.663e-5
-1.344, 2.520e-5
-1.343, 2.453e-5
-1.342, 2.422e-5
-1.341, 2.394e-5
-1.340, 2.266e-5
-1.339, 2.133e-5
-1.338, 2.070e-5
-1.337, 2.048e-5
-1.336, 2.029e-5
-1.335, 1.908e-5
-1.334, 1.772e-5
-1.333, 1.739e-5
-1.332, 1.733e-5
-1.331, 1.693e-5
-1.330, 1.595e-5
-1.329, 1.463e-5
-1.328, 1.434e-5
-1.327, 1.432e-5
-1.326, 1.404e-5
-1.325, 1.313e-5
-1.324, 1.202e-5
-1.323, 1.153e-5
-1.322, 1.175e-5
-1.321, 1.145e-5
-1.320, 1.061e-5
-1.319, 9.529e-6
-1.318, 9.181e-6
-1.317, 9.336e-6
-1.316, 9.308e-6
-1.315, 8.227e-6
-1.314, 7.257e-6
-1.313, 7.055e-6
-1.312, 7.275e-6
-1.311, 7.167e-6
-1.310, 6.233e-6
-1.309, 5.389e-6
-1.308, 5.198e-6
-1.307, 5.362e-6
-1.306, 5.416e-6
-1.305, 4.492e-6
-1.304, 3.570e-6
-1.303, 3.499e-6
-1.302, 3.722e-6
-1.301, 3.768e-6
-1.300, 2.968e-6
-1.299, 1.997e-6
-1.298, 1.977e-6
-1.297, 2.239e-6
-1.296, 2.339e-6
-1.295, 1.514e-6
-1.294, 6.470e-7
-1.293, 6.223e-7
-1.292, 9.509e-7
-1.291, 9.016e-7
-1.290, 1.606e-7
-1.289, -5.458e-7
-1.288, -6.346e-7
-1.287, -2.419e-7
-1.286, -2.311e-7
-1.285, -9.029e-7
-1.284, -1.604e-6
-1.283, -1.795e-6
-1.282, -1.257e-6
-1.281, -1.311e-6
-1.280, -1.990e-6
-1.279, -2.679e-6
-1.278, -2.801e-6
-1.277, -2.260e-6
-1.276, -2.155e-6
-1.275, -2.927e-6
-1.274, -3.581e-6
-1.273, -3.610e-6
-1.272, -3.093e-6
-1.271, -2.946e-6
-1.270, -3.789e-6
-1.269, -4.374e-6
-1.268, -4.349e-6
-1.267, -3.896e-6
-1.266, -3.822e-6
-1.265, -4.477e-6
-1.264, -5.098e-6
-1.263, -4.994e-6
-1.262, -4.688e-6
-1.261, -4.559e-6
-1.260, -5.181e-6
-1.259, -5.873e-6
-1.258, -5.678e-6
-1.257, -5.274e-6
-1.256, -5.044e-6
-1.255, -5.725e-6
-1.254, -6.392e-6
-1.253, -6.273e-6
-1.252, -5.745e-6
-1.251, -5.643e-6
-1.250, -6.229e-6
-1.249, -6.960e-6
-1.248, -6.726e-6
-1.247, -6.237e-6
-1.246, -6.122e-6
-1.245, -6.741e-6
-1.244, -7.368e-6
-1.243, -7.229e-6
-1.242, -6.689e-6
-1.241, -6.564e-6
-1.240, -7.190e-6
-1.239, -7.759e-6
-1.238, -7.678e-6
-1.237, -7.040e-6
-1.236, -6.909e-6
-1.235, -7.618e-6
-1.234, -8.155e-6
-1.233, -8.041e-6
-1.232, -7.400e-6
-1.231, -7.294e-6
-1.230, -7.991e-6
-1.229, -8.701e-6
-1.228, -8.335e-6
-1.227, -7.892e-6
-1.226, -7.666e-6
-1.225, -8.411e-6
-1.224, -8.922e-6
-1.223, -8.694e-6
-1.222, -8.289e-6
-1.221, -7.997e-6
-1.220, -8.606e-6
-1.219, -9.280e-6
-1.218, -8.915e-6
-1.217, -8.460e-6
-1.216, -8.278e-6
-1.215, -8.896e-6
-1.214, -9.634e-6
-1.213, -9.241e-6
-1.212, -8.658e-6
-1.211, -8.570e-6
-1.210, -9.185e-6
-1.209, -9.813e-6
-1.208, -9.487e-6
-1.207, -8.997e-6
-1.206, -8.801e-6
-1.205, -9.487e-6
-1.204, -1.003e-5
-1.203, -9.777e-6
-1.202, -9.270e-6
-1.201, -9.072e-6
-1.200, -9.707e-6
-1.199, -1.027e-5
-1.198, -1.009e-5
-1.197, -9.443e-6
-1.196, -9.308e-6
-1.195, -1.005e-5
-1.194, -1.057e-5
-1.193, -1.035e-5
-1.192, -9.708e-6
-1.191, -9.590e-6
-1.190, -1.042e-5
-1.189, -1.078e-5
-1.188, -1.049e-5
-1.187, -1.009e-5
-1.186, -9.829e-6
-1.185, -1.058e-5
-1.184, -1.102e-5
-1.183, -1.085e-5
-1.182, -1.031e-5
-1.181, -1.013e-5
-1.180, -1.078e-5
-1.179, -1.138e-5
-1.178, -1.114e-5
-1.177, -1.056e-5
-1.176, -1.038e-5
-1.175, -1.112e-5
-1.174, -1.165e-5
-1.173, -1.139e-5
-1.172, -1.082e-5
-1.171, -1.072e-5
-1.170, -1.139e-5
-1.169, -1.192e-5
-1.168, -1.167e-5
-1.167, -1.111e-5
-1.166, -1.103e-5
-1.165, -1.173e-5
-1.164, -1.220e-5
-1.163, -1.207e-5
-1.162, -1.144e-5
-1.161, -1.131e-5
-1.160, -1.203e-5
-1.159, -1.250e-5
-1.158, -1.230e-5
-1.157, -1.173e-5
-1.156, -1.157e-5
-1.155, -1.245e-5
-1.154, -1.288e-5
-1.153, -1.268e-5
-1.152, -1.211e-5
-1.151, -1.194e-5
-1.150, -1.288e-5
-1.149, -1.324e-5
-1.148, -1.299e-5
-1.147, -1.260e-5
-1.146, -1.241e-5
-1.145, -1.331e-5
-1.144, -1.369e-5
-1.143, -1.347e-5
-1.142, -1.292e-5
-1.141, -1.280e-5
-1.140, -1.363e-5
-1.139, -1.417e-5
-1.138, -1.387e-5
-1.137, -1.342e-5
-1.136, -1.335e-5
-1.135, -1.417e-5
-1.134, -1.475e-5
-1.133, -1.440e-5
-1.132, -1.386e-5
-1.131, -1.395e-5
-1.130, -1.474e-5
-1.129, -1.525e-5
-1.128, -1.496e-5
-1.127, -1.452e-5
-1.126, -1.457e-5
-1.125, -1.533e-5
-1.124, -1.576e-5
-1.123, -1.570e-5
-1.122, -1.513e-5
-1.121, -1.524e-5
-1.120, -1.597e-5
-1.119, -1.647e-5
-1.118, -1.636e-5
-1.117, -1.580e-5
-1.116, -1.593e-5
-1.115, -1.678e-5
-1.114, -1.727e-5
-1.113, -1.713e-5
-1.112, -1.662e-5
-1.111, -1.676e-5
-1.110, -1.767e-5
-1.109, -1.812e-5
-1.108, -1.801e-5
-1.107, -1.764e-5
-1.106, -1.767e-5
-1.105, -1.849e-5
-1.104, -1.911e-5
-1.103, -1.892e-5
-1.102, -1.861e-5
-1.101, -1.868e-5
-1.100, -1.957e-5
-1.099, -2.026e-5
-1.098, -2.008e-5
-1.097, -1.980e-5
-1.096, -1.980e-5
-1.095, -2.070e-5
-1.094, -2.146e-5
-1.093, -2.125e-5
-1.092, -2.087e-5
-1.091, -2.108e-5
-1.090, -2.195e-5
-1.089, -2.266e-5
-1.088, -2.261e-5
-1.087, -2.217e-5
-1.086, -2.242e-5
-1.085, -2.331e-5
-1.084, -2.402e-5
-1.083, -2.399e-5
-1.082, -2.346e-5
-1.081, -2.378e-5
-1.080, -2.459e-5
-1.079, -2.529e-5
-1.078, -2.525e-5
-1.077, -2.473e-5
-1.076, -2.509e-5
-1.075, -2.599e-5
-1.074, -2.661e-5
-1.073, -2.658e-5
-1.072, -2.604e-5
-1.071, -2.634e-5
-1.070, -2.728e-5
-1.069, -2.782e-5
-1.068, -2.774e-5
-1.067, -2.737e-5
-1.066, -2.753e-5
-1.065, -2.844e-5
-1.064, -2.904e-5
-1.063, -2.884e-5
-1.062, -2.847e-5
-1.061, -2.855e-5
-1.060, -2.940e-5
-1.059, -3.010e-5
-1.058, -2.988e-5
-1.057, -2.941e-5
-1.056, -2.950e-5
-1.055, -3.043e-5
-1.054, -3.102e-5
-1.053, -3.073e-5
-1.052, -3.016e-5
-1.051, -3.035e-5
-1.050, -3.108e-5
-1.049, -3.175e-5
-1.048, -3.133e-5
-1.047, -3.070e-5
-1.046, -3.094e-5
-1.045, -3.161e-5
-1.044, -3.207e-5
-1.043, -3.183e-5
-1.042, -3.115e-5
-1.041, -3.125e-5
-1.040, -3.194e-5
-1.039, -3.238e-5
-1.038, -3.204e-5
-1.037, -3.128e-5
-1.036, -3.134e-5
-1.035, -3.209e-5
-1.034, -3.248e-5
-1.033, -3.215e-5
-1.032, -3.138e-5
-1.031, -3.140e-5
-1.030, -3.199e-5
-1.029, -3.239e-5
-1.028, -3.200e-5
-1.027, -3.133e-5
-1.026, -3.127e-5
-1.025, -3.197e-5
-1.024, -3.235e-5
-1.023, -3.193e-5
-1.022, -3.121e-5
-1.021, -3.107e-5
-1.020, -3.177e-5
-1.019, -3.221e-5
-1.018, -3.167e-5
-1.017, -3.104e-5
-1.016, -3.098e-5
-1.015, -3.159e-5
-1.014, -3.203e-5
-1.013, -3.156e-5
-1.012, -3.072e-5
-1.011, -3.083e-5
-1.010, -3.138e-5
-1.009, -3.190e-5
-1.008, -3.131e-5
-1.007, -3.057e-5
-1.006, -3.073e-5
-1.005, -3.126e-5
-1.004, -3.165e-5
-1.003, -3.128e-5
-1.002, -3.042e-5
-1.001, -3.057e-5
-1.000, -1.631e-5
-1.001, -1.121e-5
-1.002, -8.316e-6
-1.003, -5.933e-6
-1.004, -4.484e-6
-1.005, -3.973e-6
-1.006, -3.271e-6
-1.007, -1.869e-6
-1.008, -3.978e-7
-1.009, 2.366e-7
-1.010, 4.013e-7
-1.011, 4.882e-7
-1.012, 1.500e-6
-1.013, 2.798e-6
-1.014, 3.196e-6
-1.015, 2.923e-6
-1.016, 2.961e-6
-1.017, 3.721e-6
-1.018, 4.897e-6
-1.019, 5.056e-6
-1.020, 4.789e-6
-1.021, 4.693e-6
-1.022, 5.340e-6
-1.023, 6.449e-6
-1.024, 6.530e-6
-1.025, 6.065e-6
-1.026, 5.935e-6
-1.027, 6.546e-6
-1.028, 7.449e-6
-1.029, 7.648e-6
-1.030, 7.102e-6
-1.031, 6.911e-6
-1.032, 7.464e-6
-1.033, 8.204e-6
-1.034, 8.366e-6
-1.035, 7.795e-6
-1.036, 7.630e-6
-1.037, 8.215e-6
-1.038, 9.003e-6
-1.039, 9.087e-6
-1.040, 8.503e-6
-1.041, 8.165e-6
-1.042, 8.873e-6
-1.043, 9.623e-6
-1.044, 9.513e-6
-1.045, 8.962e-6
-1.046, 8.698e-6
-1.047, 9.360e-6
-1.048, 1.009e-5
-1.049, 9.933e-6
-1.050, 9.373e-6
-1.051, 9.123e-6
-1.052, 9.731e-6
-1.053, 1.043e-5
-1.054, 1.027e-5
-1.055, 9.777e-6
-1.056, 9.476e-6
-1.057, 9.961e-6
-1.058, 1.081e-5
-1.059, 1.060e-5
-1.060, 1.002e-5
-1.061, 9.773e-6
-1.062, 1.030e-5
-1.063, 1.098e-5
-1.064, 1.082e-5
-1.065, 1.023e-5
-1.066, 1.002e-5
-1.067, 1.053e-5
-1.068, 1.121e-5
-1.069, 1.110e-5
-1.070, 1.043e-5
-1.071, 1.025e-5
-1.072, 1.069e-5
-1.073, 1.132e-5
-1.074, 1.132e-5
-1.075, 1.063e-5
-1.076, 1.038e-5
-1.077, 1.092e-5
-1.078, 1.143e-5
-1.079, 1.149e-5
-1.080, 1.072e-5
-1.081, 1.048e-5
-1.082, 1.115e-5
-1.083, 1.165e-5
-1.084, 1.156e-5
-1.085, 1.088e-5
-1.086, 1.063e-5
-1.087, 1.122e-5
-1.088, 1.178e-5
-1.089, 1.164e-5
-1.090, 1.103e-5
-1.091, 1.074e-5
-1.092, 1.132e-5
-1.093, 1.189e-5
-1.094, 1.174e-5
-1.095, 1.119e-5
-1.096, 1.080e-5
-1.097, 1.142e-5
-1.098, 1.210e-5
-1.099, 1.189e-5
-1.100, 1.121e-5
-1.101, 1.100e-5
-1.102, 1.152e-5
-1.103, 1.217e-5
-1.104, 1.194e-5
-1.105, 1.125e-5
-1.106, 1.113e-5
-1.107, 1.161e-5
-1.108, 1.233e-5
-1.109, 1.205e-5
-1.110, 1.140e-5
-1.111, 1.130e-5
-1.112, 1.175e-5
-1.113, 1.230e-5
-1.114, 1.221e-5
-1.115, 1.153e-5
-1.116, 1.128e-5
-1.117, 1.186e-5
-1.118, 1.243e-5
-1.119, 1.224e-5
-1.120, 1.151e-5
-1.121, 1.138e-5
-1.122, 1.199e-5
-1.123, 1.241e-5
-1.124, 1.224e-5
-1.125, 1.161e-5
-1.126, 1.131e-5
-1.127, 1.197e-5
-1.128, 1.244e-5
-1.129, 1.227e-5
-1.130, 1.169e-5
-1.131, 1.132e-5
-1.132, 1.190e-5
-1.133, 1.255e-5
-1.134, 1.229e-5
-1.135, 1.165e-5
-1.136, 1.131e-5
-1.137, 1.194e-5
-1.138, 1.256e-5
-1.139, 1.231e-5
-1.140, 1.161e-5
-1.141, 1.142e-5
-1.142, 1.192e-5
-1.143, 1.258e-5
-1.144, 1.220e-5
-1.145, 1.153e-5
-1.146, 1.145e-5
-1.147, 1.191e-5
-1.148, 1.251e-5
-1.149, 1.220e-5
-1.150, 1.150e-5
-1.151, 1.136e-5
-1.152, 1.186e-5
-1.153, 1.236e-5
-1.154, 1.213e-5
-1.155, 1.146e-5
-1.156, 1.124e-5
-1.157, 1.180e-5
-1.158, 1.232e-5
-1.159, 1.205e-5
-1.160, 1.134e-5
-1.161, 1.108e-5
-1.162, 1.181e-5
-1.163, 1.225e-5
-1.164, 1.192e-5
-1.165, 1.128e-5
-1.166, 1.108e-5
-1.167, 1.170e-5
-1.168, 1.208e-5
-1.169, 1.176e-5
-1.170, 1.119e-5
-1.171, 1.087e-5
-1.172, 1.164e-5
-1.173, 1.213e-5
-1.174, 1.172e-5
-1.175, 1.115e-5
-1.176, 1.091e-5
-1.177, 1.160e-5
-1.178, 1.207e-5
-1.179, 1.166e-5
-1.180, 1.105e-5
-1.181, 1.089e-5
-1.182, 1.148e-5
-1.183, 1.198e-5
-1.184, 1.165e-5
-1.185, 1.109e-5
-1.186, 1.084e-5
-1.187, 1.145e-5
-1.188, 1.192e-5
-1.189, 1.172e-5
-1.190, 1.097e-5
-1.191, 1.084e-5
-1.192, 1.146e-5
-1.193, 1.190e-5
-1.194, 1.171e-5
-1.195, 1.097e-5
-1.196, 1.081e-5
-1.197, 1.146e-5
-1.198, 1.187e-5
-1.199, 1.163e-5
-1.200, 1.098e-5
-1.201, 1.079e-5
-1.202, 1.157e-5
-1.203, 1.192e-5
-1.204, 1.156e-5
-1.205, 1.106e-5
-1.206, 1.089e-5
-1.207, 1.152e-5
-1.208, 1.191e-5
-1.209, 1.167e-5
-1.210, 1.113e-5
-1.211, 1.088e-5
-1.212, 1.160e-5
-1.213, 1.204e-5
-1.214, 1.175e-5
-1.215, 1.117e-5
-1.216, 1.099e-5
-1.217, 1.170e-5
-1.218, 1.222e-5
-1.219, 1.187e-5
-1.220, 1.124e-5
-1.221, 1.116e-5
-1.222, 1.184e-5
-1.223, 1.234e-5
-1.224, 1.201e-5
-1.225, 1.133e-5
-1.226, 1.139e-5
-1.227, 1.206e-5
-1.228, 1.263e-5
-1.229, 1.224e-5
-1.230, 1.166e-5
-1.231, 1.168e-5
-1.232, 1.232e-5
-1.233, 1.271e-5
-1.234, 1.250e-5
-1.235, 1.192e-5
-1.236, 1.187e-5
-1.237, 1.265e-5
-1.238, 1.302e-5
-1.239, 1.285e-5
-1.240, 1.222e-5
-1.241, 1.219e-5
-1.242, 1.303e-5
-1.243, 1.338e-5
-1.244, 1.316e-5
-1.245, 1.262e-5
-1.246, 1.266e-5
-1.247, 1.344e-5
-1.248, 1.389e-5
-1.249, 1.357e-5
-1.250, 1.317e-5
-1.251, 1.317e-5
-1.252, 1.392e-5
-1.253, 1.444e-5
-1.254, 1.414e-5
-1.255, 1.374e-5
-1.256, 1.371e-5
-1.257, 1.448e-5
-1.258, 1.515e-5
-1.259, 1.488e-5
-1.260, 1.435e-5
-1.261, 1.450e-5
-1.262, 1.530e-5
-1.263, 1.581e-5
-1.264, 1.555e-5
-1.265, 1.510e-5
-1.266, 1.531e-5
-1.267, 1.613e-5
-1.268, 1.660e-5
-1.269, 1.647e-5
-1.270, 1.603e-5
-1.271, 1.627e-5
-1.272, 1.703e-5
-1.273, 1.763e-5
-1.274, 1.753e-5
-1.275, 1.699e-5
-1.276, 1.731e-5
-1.277, 1.819e-5
-1.278, 1.877e-5
-1.279, 1.873e-5
-1.280, 1.832e-5
-1.281, 1.850e-5
-1.282, 1.944e-5
-1.283, 2.003e-5
-1.284, 1.992e-5
-1.285, 1.962e-5
-1.286, 1.996e-5
-1.287, 2.088e-5
-1.288, 2.152e-5
-1.289, 2.142e-5
-1.290, 2.118e-5
-1.291, 2.148e-5
-1.292, 2.249e-5
-1.293, 2.319e-5
-1.294, 2.316e-5
-1.295, 2.294e-5
-1.296, 2.322e-5
-1.297, 2.426e-5
-1.298, 2.502e-5
-1.299, 2.499e-5
-1.300, 2.476e-5
-1.301, 2.526e-5
-1.302, 2.620e-5
-1.303, 2.711e-5
-1.304, 2.709e-5
-1.305, 2.692e-5
-1.306, 2.757e-5
-1.307, 2.852e-5
-1.308, 2.935e-5
-1.309, 2.947e-5
-1.310, 2.933e-5
-1.311, 2.996e-5
-1.312, 3.100e-5
-1.313, 3.193e-5
-1.314, 3.208e-5
-1.315, 3.193e-5
-1.316, 3.265e-5
-1.317, 3.381e-5
-1.318, 3.474e-5
-1.319, 3.502e-5
-1.320, 3.489e-5
-1.321, 3.561e-5
-1.322, 3.692e-5
-1.323, 3.787e-5
-1.324, 3.818e-5
-1.325, 3.823e-5
-1.326, 3.903e-5
-1.327, 4.038e-5
-1.328, 4.133e-5
-1.329, 4.166e-5
-1.330, 4.182e-5
-1.331, 4.265e-5
-1.332, 4.397e-5
-1.333, 4.525e-5
-1.334, 4.565e-5
-1.335, 4.586e-5
-1.336, 4.675e-5
-1.337, 4.823e-5
-1.338, 4.958e-5
-1.339, 4.989e-5
-1.340, 5.024e-5
-1.341, 5.130e-5
-1.342, 5.288e-5
-1.343, 5.423e-5
-1.344, 5.477e-5
-1.345, 5.512e-5
-1.346, 5.639e-5
-1.347, 5.793e-5
-1.348, 5.947e-5
-1.349, 6.009e-5
-1.350, 6.053e-5
-1.351, 6.196e-5
-1.352, 6.360e-5
-1.353, 6.517e-5
-1.354, 6.598e-5
-1.355, 6.662e-5
-1.356, 6.807e-5
-1.357, 6.996e-5
-1.358, 7.168e-5
-1.359, 7.266e-5
-1.360, 7.339e-5
-1.361, 7.499e-5
-1.362, 7.705e-5
-1.363, 7.887e-5
-1.364, 8.007e-5
-1.365, 8.102e-5
-1.366, 8.272e-5
-1.367, 8.499e-5
-1.368, 8.709e-5
-1.369, 8.832e-5
-1.370, 8.957e-5
-1.371, 9.145e-5
-1.372, 9.398e-5
-1.373, 9.623e-5
-1.374, 9.772e-5
-1.375, 9.916e-5
-1.376, 1.013e-4
-1.377, 1.040e-4
-1.378, 1.066e-4
-1.379, 1.083e-4
-1.380, 1.100e-4
-1.381, 1.124e-4
-1.382, 1.154e-4
-1.383, 1.182e-4
-1.384, 1.203e-4
-1.385, 1.222e-4
-1.386, 1.250e-4
-1.387, 1.282e-4
-1.388, 1.314e-4
-1.389, 1.338e-4
-1.390, 1.360e-4
-1.391, 1.392e-4
-1.392, 1.427e-4
-1.393, 1.463e-4
-1.394, 1.491e-4
-1.395, 1.517e-4
-1.396, 1.552e-4
-1.397, 1.592e-4
-1.398, 1.631e-4
-1.399, 1.663e-4
-1.400, 1.693e-4
-1.401, 1.732e-4
-1.402, 1.777e-4
-1.403, 1.819e-4
-1.404, 1.855e-4
-1.405, 1.889e-4
-1.406, 1.931e-4
-1.407, 1.980e-4
-1.408, 2.026e-4
-1.409, 2.065e-4
-1.410, 2.105e-4
-1.411, 2.150e-4
-1.412, 2.202e-4
-1.413, 2.254e-4
-1.414, 2.295e-4
-1.415, 2.339e-4
-1.416, 2.388e-4
-1.417, 2.444e-4
-1.418, 2.499e-4
-1.419, 2.544e-4
-1.420, 2.591e-4
-1.421, 2.644e-4
-1.422, 2.704e-4
-1.423, 2.761e-4
-1.424, 2.808e-4
-1.425, 2.859e-4
-1.426, 2.915e-4
-1.427, 2.977e-4
-1.428, 3.037e-4
-1.429, 3.089e-4
-1.430, 3.141e-4
-1.431, 3.201e-4
-1.432, 3.265e-4
-1.433, 3.328e-4
-1.434, 3.384e-4
-1.435, 3.436e-4
-1.436, 3.498e-4
-1.437, 3.564e-4
-1.438, 3.628e-4
-1.439, 3.685e-4
-1.440, 3.740e-4
-1.441, 3.803e-4
-1.442, 3.873e-4
-1.443, 3.939e-4
-1.444, 3.997e-4
-1.445, 4.055e-4
-1.446, 4.120e-4
-1.447, 4.191e-4
-1.448, 4.258e-4
-1.449, 4.318e-4
-1.450, 4.377e-4
-1.451, 4.443e-4
-1.452, 4.516e-4
-1.453, 4.585e-4
-1.454, 4.647e-4
-1.455, 4.708e-4
-1.456, 4.777e-4
-1.457, 4.851e-4
-1.458, 4.923e-4
-1.459, 4.985e-4
-1.460, 5.048e-4
-1.461, 5.118e-4
-1.462, 5.192e-4
-1.463, 5.266e-4
-1.464, 5.331e-4
-1.465, 5.395e-4
-1.466, 5.468e-4
-1.467, 5.543e-4
-1.468, 5.617e-4
-1.469, 5.682e-4
-1.470, 5.746e-4
-1.471, 5.820e-4
-1.472, 5.898e-4
-1.473, 5.974e-4
-1.474, 6.044e-4
-1.475, 6.114e-4
-1.476, 6.188e-4
-1.477, 6.268e-4
-1.478, 6.345e-4
-1.479, 6.417e-4
-1.480, 6.487e-4
-1.481, 6.566e-4
-1.482, 6.649e-4
-1.483, 6.731e-4
-1.484, 6.804e-4
-1.485, 6.879e-4
-1.486, 6.958e-4
-1.487, 7.042e-4
-1.488, 7.123e-4
-1.489, 7.198e-4
-1.490, 7.273e-4
-1.491, 7.356e-4
-1.492, 7.446e-4
-1.493, 7.535e-4
-1.494, 7.615e-4
-1.495, 7.694e-4
-1.496, 7.780e-4
-1.497, 7.872e-4
-1.498, 7.962e-4
-1.499, 8.044e-4
-1.500, 8.127e-4
-1.501, 8.218e-4
-1.502, 8.316e-4
-1.503, 8.413e-4
-1.504, 8.499e-4
-1.505, 8.585e-4
-1.506, 8.679e-4
-1.507, 8.780e-4
-1.508, 8.880e-4
-1.509, 8.971e-4
-1.510, 9.063e-4
-1.511, 9.164e-4
-1.512, 9.268e-4
-1.513, 9.373e-4
-1.514, 9.470e-4
-1.515, 9.565e-4
-1.516, 9.670e-4
-1.517, 9.780e-4
-1.518, 9.891e-4
-1.519, 9.993e-4
-1.520, 1.009e-3
-1.521, 1.020e-3
-1.522, 1.031e-3
-1.523, 1.042e-3
-1.524, 1.053e-3
-1.525, 1.064e-3
-1.526, 1.075e-3
-1.527, 1.088e-3
-1.528, 1.100e-3
-1.529, 1.111e-3
-1.530, 1.122e-3
-1.531, 1.134e-3
-1.532, 1.147e-3
-1.533, 1.160e-3
-1.534, 1.173e-3
-1.535, 1.185e-3
-1.536, 1.198e-3
-1.537, 1.211e-3
-1.538, 1.225e-3
-1.539, 1.237e-3
-1.540, 1.250e-3
-1.541, 1.264e-3
-1.542, 1.278e-3
-1.543, 1.292e-3
-1.544, 1.305e-3
-1.545, 1.319e-3
-1.546, 1.334e-3
-1.547, 1.349e-3
-1.548, 1.365e-3
-1.549, 1.379e-3
-1.550, 1.393e-3
-1.551, 1.409e-3
-1.552, 1.425e-3
-1.553, 1.441e-3
-1.554, 1.456e-3
-1.555, 1.472e-3
-1.556, 1.489e-3
-1.557, 1.506e-3
-1.558, 1.523e-3
-1.559, 1.539e-3
-1.560, 1.555e-3
-1.561, 1.571e-3
-1.562, 1.589e-3
-1.563, 1.606e-3
-1.564, 1.624e-3
-1.565, 1.643e-3
-1.566, 1.662e-3
-1.567, 1.682e-3
-1.568, 1.701e-3
-1.569, 1.719e-3
-1.570, 1.738e-3
-1.571, 1.758e-3
-1.572, 1.779e-3
-1.573, 1.800e-3
-1.574, 1.821e-3
-1.575, 1.842e-3
-1.576, 1.863e-3
-1.577, 1.885e-3
-1.578, 1.907e-3
-1.579, 1.929e-3
-1.580, 1.951e-3
-1.581, 1.975e-3
-1.582, 1.998e-3
-1.583, 2.023e-3
-1.584, 2.045e-3
-1.585, 2.069e-3
-1.586, 2.094e-3
-1.587, 2.119e-3
-1.588, 2.146e-3
-1.589, 2.171e-3
-1.590, 2.196e-3
-1.591, 2.223e-3
-1.592, 2.250e-3
-1.593, 2.278e-3
-1.594, 2.305e-3
-1.595, 2.332e-3
-1.596, 2.361e-3
-1.597, 2.390e-3
-1.598, 2.419e-3
-1.599, 2.449e-3
-1.600, 2.443e-3
-1.599, 2.409e-3
-1.598, 2.376e-3
-1.597, 2.343e-3
-1.596, 2.308e-3
-1.595, 2.273e-3
-1.594, 2.240e-3
-1.593, 2.210e-3
-1.592, 2.181e-3
-1.591, 2.150e-3
-1.590, 2.121e-3
-1.589, 2.091e-3
-1.588, 2.062e-3
-1.587, 2.033e-3
-1.586, 2.004e-3
-1.585, 1.976e-3
-1.584, 1.948e-3
-1.583, 1.922e-3
-1.582, 1.897e-3
-1.581, 1.870e-3
-1.580, 1.845e-3
-1.579, 1.820e-3
-1.578, 1.796e-3
-1.577, 1.771e-3
-1.576, 1.745e-3
-1.575, 1.719e-3
-1.574, 1.694e-3
-1.573, 1.670e-3
-1.572, 1.648e-3
-1.571, 1.626e-3
-1.570, 1.605e-3
-1.569, 1.584e-3
-1.568, 1.564e-3
-1.567, 1.542e-3
-1.566, 1.520e-3
-1.565, 1.499e-3
-1.564, 1.478e-3
-1.563, 1.460e-3
-1.562, 1.441e-3
-1.561, 1.422e-3
-1.560, 1.403e-3
-1.559, 1.385e-3
-1.558, 1.368e-3
-1.557, 1.350e-3
-1.556, 1.332e-3
-1.555, 1.314e-3
-1.554, 1.298e-3
-1.553, 1.282e-3
-1.552, 1.265e-3
-1.551, 1.248e-3
-1.550, 1.231e-3
-1.549, 1.215e-3
-1.548, 1.200e-3
-1.547, 1.185e-3
-1.546, 1.170e-3
-1.545, 1.154e-3
-1.544, 1.140e-3
-1.543, 1.126e-3
-1.542, 1.112e-3
-1.541, 1.097e-3
-1.540, 1.083e-3
-1.539, 1.069e-3
-1.538, 1.056e-3
-1.537, 1.043e-3
-1.536, 1.029e-3
-1.535, 1.016e-3
-1.534, 1.003e-3
-1.533, 9.900e-4
-1.532, 9.769e-4
-1.531, 9.635e-4
-1.530, 9.506e-4
-1.529, 9.388e-4
-1.528, 9.276e-4
-1.527, 9.158e-4
-1.526, 9.034e-4
-1.525, 8.910e-4
-1.524, 8.793e-4
-1.523, 8.681e-4
-1.522, 8.566e-4
-1.521, 8.452e-4
-1.520, 8.342e-4
-1.519, 8.239e-4
-1.518, 8.138e-4
-1.517, 8.034e-4
-1.516, 7.921e-4
-1.515, 7.811e-4
-1.514, 7.711e-4
-1.513, 7.615e-4
-1.512, 7.517e-4
-1.511, 7.412e-4
-1.510, 7.308e-4
-1.509, 7.214e-4
-1.508, 7.124e-4
-1.507, 7.030e-4
-1.506, 6.931e-4
-1.505, 6.831e-4
-1.504, 6.742e-4
-1.503, 6.658e-4
-1.502, 6.565e-4
-1.501, 6.470e-4
-1.500, 6.376e-4
-1.499, 6.289e-4
-1.498, 6.206e-4
-1.497, 6.118e-4
-1.496, 6.027e-4
-1.495, 5.937e-4
-1.494, 5.854e-4
-1.493, 5.777e-4
-1.492, 5.692e-4
-1.491, 5.603e-4
-1.490, 5.518e-4
-1.489, 5.441e-4
-1.488, 5.366e-4
-1.487, 5.282e-4
-1.486, 5.193e-4
-1.485, 5.106e-4
-1.484, 5.029e-4
-1.483, 4.958e-4
-1.482, 4.883e-4
-1.481, 4.803e-4
-1.480, 4.726e-4
-1.479, 4.655e-4
-1.478, 4.585e-4
-1.477, 4.512e-4
-1.476, 4.433e-4
-1.475, 4.357e-4
-1.474, 4.289e-4
-1.473, 4.225e-4
-1.472, 4.155e-4
-1.471, 4.079e-4
-1.470, 4.005e-4
-1.469, 3.942e-4
-1.468, 3.882e-4
-1.467, 3.814e-4
-1.466, 3.745e-4
-1.465, 3.676e-4
-1.464, 3.617e-4
-1.463, 3.561e-4
-1.462, 3.497e-4
-1.461, 3.431e-4
-1.460, 3.367e-4
-1.459, 3.310e-4
-1.458, 3.258e-4
-1.457, 3.198e-4
-1.456, 3.134e-4
-1.455, 3.074e-4
-1.454, 3.020e-4
-1.453, 2.971e-4
-1.452, 2.915e-4
-1.451, 2.854e-4
-1.450, 2.798e-4
-1.449, 2.747e-4
-1.448, 2.701e-4
-1.447, 2.647e-4
-1.446, 2.588e-4
-1.445, 2.535e-4
-1.444, 2.490e-4
-1.443, 2.447e-4
-1.442, 2.399e-4
-1.441, 2.346e-4
-1.440, 2.296e-4
-1.439, 2.253e-4
-1.438, 2.212e-4
-1.437, 2.168e-4
-1.436, 2.117e-4
-1.435, 2.070e-4
-1.434, 2.032e-4
-1.433, 1.996e-4
-1.432, 1.954e-4
-1.431, 1.908e-4
-1.430, 1.863e-4
-1.429, 1.830e-4
-1.428, 1.796e-4
-1.427, 1.757e-4
-1.426, 1.713e-4
-1.425, 1.674e-4
-1.424, 1.642e-4
-1.423, 1.613e-4
-1.422, 1.576e-4
-1.421, 1.536e-4
-1.420, 1.500e-4
-1.419, 1.470e-4
-1.418, 1.444e-4
-1.417, 1.410e-4
-1.416, 1.372e-4
-1.415, 1.340e-4
-1.414, 1.313e-4
-1.413, 1.290e-4
-1.412, 1.260e-4
-1.411, 1.225e-4
-1.410, 1.195e-4
-1.409, 1.171e-4
-1.408, 1.150e-4
-1.407, 1.122e-4
-1.406, 1.090e-4
-1.405, 1.063e-4
-1.404, 1.041e-4
-1.403, 1.022e-4
-1.402, 9.972e-5
-1.401, 9.664e-5
-1.400, 9.422e-5
-1.399, 9.242e-5
-1.398, 9.065e-5
-1.397, 8.848e-5
-1.396, 8.566e-5
-1.395, 8.327e-5
-1.394, 8.178e-5
-1.393, 8.025e-5
-1.392, 7.820e-5
-1.391, 7.566e-5
-1.390, 7.337e-5
-1.389, 7.221e-5
-1.388, 7.095e-5
-1.387, 6.898e-5
-1.386, 6.665e-5
-1.385, 6.470e-5
-1.384, 6.362e-5
-1.383, 6.241e-5
-1.382, 6.068e-5
-1.381, 5.854e-5
-1.380, 5.679e-5
-1.379, 5.582e-5
-1.378, 5.497e-5
-1.377, 5.335e-5
-1.376, 5.148e-5
-1.375, 4.985e-5
-1.374, 4.906e-5
-1.373, 4.830e-5
-1.372, 4.688e-5
-1.371, 4.489e-5
-1.370, 4.360e-5
-1.369, 4.280e-5
-1.368, 4.235e-5
-1.367, 4.091e-5
-1.366, 3.905e-5
-1.365, 3.793e-5
-1.364, 3.738e-5
-1.363, 3.680e-5
-1.362, 3.560e-5
-1.361, 3.395e-5
-1.360, 3.294e-5
-1.359, 3.245e-5
-1.358, 3.193e-5
-1.357, 3.092e-5
-1.356, 2.937e-5
-1.355, 2.822e-5
-1.354, 2.809e-5
-1.353, 2.766e-5
-1.352, 2.661e-5
-1.351, 2.516e-5
-1.350, 2.420e-5
-1.349, 2.416e-5
-1.348, 2.382e-5
-1.347, 2.280e-5
-1.346, 2.147e-5
-1.345, 2.060e-5
-1.344, 2.055e-5
-1.343, 2.039e-5
-1.342, 1.942e-5
-1.341, 1.824e-5
-1.340, 1.735e-5
-1.339, 1.730e-5
-1.338, 1.725e-5
-1.337, 1.639e-5
-1.336, 1.521e-5
-1.335, 1.449e-5
-1.334, 1.453e-5
-1.333, 1.452e-5
-1.332, 1.368e-5
-1.331, 1.248e-5
-1.330, 1.183e-5
-1.329, 1.188e-5
-1.328, 1.189e-5
-1.327, 1.121e-5
-1.326, 1.006e-5
-1.325, 9.560e-6
-1.324, 9.762e-6
-1.323, 9.653e-6
-1.322, 9.103e-6
-1.321, 7.938e-6
-1.320, 7.457e-6
-1.319, 7.652e-6
-1.318, 7.651e-6
-1.317, 7.123e-6
-1.316, 6.101e-6
-1.315, 5.535e-6
-1.314, 5.806e-6
-1.313, 5.913e-6
-1.312, 5.293e-6
-1.311, 4.350e-6
-1.310, 3.830e-6
-1.309, 4.133e-6
-1.308, 4.328e-6
-1.307, 3.690e-6
-1.306, 2.816e-6
-1.305, 2.285e-6
-1.304, 2.655e-6
-1.303, 2.867e-6
-1.302, 2.196e-6
-1.301, 1.457e-6
-1.300, 9.223e-7
-1.299, 1.287e-6
-1.298, 1.552e-6
-1.297, 9.548e-7
-1.296, 1.399e-7
-1.295, -2.725e-7
-1.294, 1.212e-7
-1.293, 3.717e-7
-1.292, -1.807e-7
-1.291, -1.076e-6
-1.290, -1.391e-6
-1.289, -9.207e-7
-1.288, -6.800e-7
-1.287, -1.252e-6
-1.286, -2.051e-6
-1.285, -2.359e-6
-1.284, -1.866e-6
-1.283, -1.754e-6
-1.282, -2.178e-6
-1.281, -3.047e-6
-1.280, -3.427e-6
-1.279, -2.727e-6
-1.278, -2.675e-6
-1.277, -3.064e-6
-1.276, -3.786e-6
-1.275, -4.179e-6
-1.274, -3.616e-6
-1.273, -3.483e-6
-1.272, -3.855e-6
-1.271, -4.584e-6
-1.270, -4.896e-6
-1.269, -4.309e-6
-1.268, -4.037e-6
-1.267, -4.537e-6
-1.266, -5.232e-6
-1.265, -5.539e-6
-1.264, -4.982e-6
-1.263, -4.649e-6
-1.262, -5.220e-6
-1.261, -5.878e-6
-1.260, -6.073e-6
-1.259, -5.523e-6
-1.258, -5.289e-6
-1.257, -5.760e-6
-1.256, -6.455e-6
-1.255, -6.619e-6
-1.254, -6.132e-6
-1.253, -5.778e-6
-1.252, -6.163e-6
-1.251, -6.964e-6
-1.250, -7.084e-6
-1.249, -6.494e-6
-1.248, -6.304e-6
-1.247, -6.648e-6
-1.246, -7.444e-6
-1.245, -7.561e-6
-1.244, -6.915e-6
-1.243, -6.708e-6
-1.242, -7.106e-6
-1.241, -7.853e-6
-1.240, -7.951e-6
-1.239, -7.348e-6
-1.238, -7.062e-6
-1.237, -7.523e-6
-1.236, -8.142e-6
-1.235, -8.383e-6
-1.234, -7.672e-6
-1.233, -7.440e-6
-1.232, -7.842e-6
-1.231, -8.521e-6
-1.230, -8.681e-6
-1.229, -8.184e-6
-1.228, -7.791e-6
-1.227, -8.243e-6
-1.226, -8.905e-6
-1.225, -9.019e-6
-1.224, -8.371e-6
-1.223, -8.079e-6
-1.222, -8.530e-6
-1.221, -9.194e-6
-1.220, -9.228e-6
-1.219, -8.824e-6
-1.218, -8.442e-6
-1.217, -8.901e-6
-1.216, -9.470e-6
-1.215, -9.514e-6
-1.214, -8.994e-6
-1.213, -8.617e-6
-1.212, -9.025e-6
-1.211, -9.859e-6
-1.210, -9.793e-6
-1.209, -9.292e-6
-1.208, -8.847e-6
-1.207, -9.316e-6
-1.206, -1.009e-5
-1.205, -1.002e-5
-1.204, -9.419e-6
-1.203, -9.170e-6
-1.202, -9.606e-6
-1.201, -1.033e-5
-1.200, -1.024e-5
-1.199, -9.728e-6
-1.198, -9.443e-6
-1.197, -9.819e-6
-1.196, -1.050e-5
-1.195, -1.059e-5
-1.194, -9.957e-6
-1.193, -9.677e-6
-1.192, -1.009e-5
-1.191, -1.073e-5
-1.190, -1.084e-5
-1.189, -1.017e-5
-1.188, -9.862e-6
-1.187, -1.038e-5
-1.186, -1.102e-5
-1.185, -1.104e-5
-1.184, -1.040e-5
-1.183, -1.018e-5
-1.182, -1.060e-5
-1.181, -1.130e-5
-1.180, -1.125e-5
-1.179, -1.073e-5
-1.178, -1.048e-5
-1.177, -1.091e-5
-1.176, -1.156e-5
-1.175, -1.149e-5
-1.174, -1.103e-5
-1.173, -1.064e-5
-1.172, -1.116e-5
-1.171, -1.191e-5
-1.170, -1.182e-5
-1.169, -1.134e-5
-1.168, -1.096e-5
-1.167, -1.145e-5
-1.166, -1.221e-5
-1.165, -1.208e-5
-1.164, -1.157e-5
-1.163, -1.129e-5
-1.162, -1.178e-5
-1.161, -1.248e-5
-1.160, -1.235e-5
-1.159, -1.186e-5
-1.158, -1.166e-5
-1.157, -1.210e-5
-1.156, -1.274e-5
-1.155, -1.272e-5
-1.154, -1.222e-5
-1.153, -1.197e-5
-1.152, -1.240e-5
-1.151, -1.316e-5
-1.150, -1.315e-5
-1.149, -1.256e-5
-1.148, -1.233e-5
-1.147, -1.290e-5
-1.146, -1.349e-5
-1.145, -1.351e-5
-1.144, -1.300e-5
-1.143, -1.272e-5
-1.142, -1.323e-5
-1.141, -1.395e-5
-1.140, -1.390e-5
-1.139, -1.352e-5
-1.138, -1.319e-5
-1.137, -1.372e-5
-1.136, -1.445e-5
-1.135, -1.438e-5
-1.134, -1.401e-5
-1.133, -1.367e-5
-1.132, -1.428e-5
-1.131, -1.508e-5
-1.130, -1.496e-5
-1.129, -1.454e-5
-1.128, -1.422e-5
-1.127, -1.476e-5
-1.126, -1.564e-5
-1.125, -1.557e-5
-1.124, -1.513e-5
-1.123, -1.494e-5
-1.122, -1.549e-5
-1.121, -1.628e-5
-1.120, -1.623e-5
-1.119, -1.587e-5
-1.118, -1.560e-5
-1.117, -1.609e-5
-1.116, -1.705e-5
-1.115, -1.715e-5
-1.114, -1.668e-5
-1.113, -1.647e-5
-1.112, -1.697e-5
-1.111, -1.791e-5
-1.110, -1.795e-5
-1.109, -1.744e-5
-1.108, -1.726e-5
-1.107, -1.802e-5
-1.106, -1.884e-5
-1.105, -1.892e-5
-1.104, -1.849e-5
-1.103, -1.831e-5
-1.102, -1.901e-5
-1.101, -1.988e-5
-1.100, -1.992e-5
-1.099, -1.971e-5
-1.098, -1.933e-5
-1.097, -2.025e-5
-1.096, -2.106e-5
-1.095, -2.115e-5
-1.094, -2.082e-5
-1.093, -2.067e-5
-1.092, -2.140e-5
-1.091, -2.244e-5
-1.090, -2.242e-5
-1.089, -2.218e-5
-1.088, -2.200e-5
-1.087, -2.274e-5
-1.086, -2.378e-5
-1.085, -2.383e-5
-1.084, -2.346e-5
-1.083, -2.338e-5
-1.082, -2.411e-5
-1.081, -2.513e-5
-1.080, -2.520e-5
-1.079, -2.480e-5
-1.078, -2.483e-5
-1.077, -2.551e-5
-1.076, -2.655e-5
-1.075, -2.668e-5
-1.074, -2.618e-5
-1.073, -2.616e-5
-1.072, -2.690e-5
-1.071, -2.771e-5
-1.070, -2.802e-5
-1.069, -2.748e-5
-1.068, -2.744e-5
-1.067, -2.817e-5
-1.066, -2.906e-5
-1.065, -2.923e-5
-1.064, -2.873e-5
-1.063, -2.858e-5
-1.062, -2.950e-5
-1.061, -3.023e-5
-1.060, -3.029e-5
-1.059, -2.991e-5
-1.058, -2.972e-5
-1.057, -3.038e-5
-1.056, -3.119e-5
-1.055, -3.131e-5
-1.054, -3.083e-5
-1.053, -3.055e-5
-1.052, -3.125e-5
-1.051, -3.210e-5
-1.050, -3.205e-5
-1.049, -3.154e-5
-1.048, -3.123e-5
-1.047, -3.183e-5
-1.046, -3.271e-5
-1.045, -3.262e-5
-1.044, -3.194e-5
-1.043, -3.171e-5
-1.042, -3.231e-5
-1.041, -3.312e-5
-1.040, -3.291e-5
-1.039, -3.225e-5
-1.038, -3.196e-5
-1.037, -3.250e-5
-1.036, -3.321e-5
-1.035, -3.311e-5
-1.034, -3.236e-5
-1.033, -3.199e-5
-1.032, -3.254e-5
-1.031, -3.318e-5
-1.030, -3.316e-5
-1.029, -3.230e-5
-1.028, -3.192e-5
-1.027, -3.253e-5
-1.026, -3.312e-5
-1.025, -3.294e-5
-1.024, -3.227e-5
-1.023, -3.179e-5
-1.022, -3.243e-5
-1.021, -3.293e-5
-1.020, -3.272e-5
-1.019, -3.206e-5
-1.018, -3.158e-5
-1.017, -3.230e-5
-1.016, -3.278e-5
-1.015, -3.254e-5
-1.014, -3.191e-5
-1.013, -3.143e-5
-1.012, -3.194e-5
-1.011, -3.271e-5
-1.010, -3.241e-5
-1.009, -3.178e-5
-1.008, -3.128e-5
-1.007, -3.190e-5
-1.006, -3.267e-5
-1.005, -3.238e-5
-1.004, -3.164e-5
-1.003, -3.129e-5
-1.002, -3.188e-5
-1.001, -3.262e-5
