Aug. 11, 2024   03:55:50
Cyclic Voltammetry
File: c:/users/guazh/data/20240802_batch_500/2024-08-02-exp79\exp79-2024-08-11t03_37_45-arkoh\exp79_cv_sr_200mvs_efin_-1700mv.bin
Data Source:  Experiment
Instrument Model:  CHI760E
Header: CV ran at 200 mVs
Note: 

Init E (V) = -1
High E (V) = -1
Low E (V) = -1.7
Final E (V) = -1
Init P/N = N
Scan Rate (V/s) = 0.2
Segment = 3
Sample Interval (V) = 0.001
Quiet Time (sec) = 2
Sensitivity (A/V) = 0.01
Comp R (ohm) = 1.9

Results:

Channel 1:
Segment 1:

Segment 2:

Segment 3:

Potential/V, Current/A

-1.000, 1.256e-5
-1.001, 2.810e-5
-1.002, 3.461e-5
-1.003, 3.056e-5
-1.004, 3.225e-5
-1.005, 3.884e-5
-1.006, 3.636e-5
-1.007, 3.385e-5
-1.008, 4.002e-5
-1.009, 4.076e-5
-1.010, 3.606e-5
-1.011, 3.981e-5
-1.012, 4.448e-5
-1.013, 3.888e-5
-1.014, 3.945e-5
-1.015, 4.572e-5
-1.016, 4.256e-5
-1.017, 3.935e-5
-1.018, 4.584e-5
-1.019, 4.555e-5
-1.020, 4.102e-5
-1.021, 4.414e-5
-1.022, 4.820e-5
-1.023, 4.306e-5
-1.024, 4.368e-5
-1.025, 4.915e-5
-1.026, 4.627e-5
-1.027, 4.262e-5
-1.028, 4.886e-5
-1.029, 4.849e-5
-1.030, 4.394e-5
-1.031, 4.717e-5
-1.032, 5.077e-5
-1.033, 4.536e-5
-1.034, 4.603e-5
-1.035, 5.133e-5
-1.036, 4.850e-5
-1.037, 4.511e-5
-1.038, 5.099e-5
-1.039, 5.069e-5
-1.040, 4.569e-5
-1.041, 4.906e-5
-1.042, 5.297e-5
-1.043, 4.726e-5
-1.044, 4.774e-5
-1.045, 5.315e-5
-1.046, 4.990e-5
-1.047, 4.672e-5
-1.048, 5.226e-5
-1.049, 5.226e-5
-1.050, 4.711e-5
-1.051, 5.012e-5
-1.052, 5.421e-5
-1.053, 4.861e-5
-1.054, 4.872e-5
-1.055, 5.444e-5
-1.056, 5.101e-5
-1.057, 4.761e-5
-1.058, 5.341e-5
-1.059, 5.321e-5
-1.060, 4.806e-5
-1.061, 5.140e-5
-1.062, 5.464e-5
-1.063, 4.983e-5
-1.064, 4.984e-5
-1.065, 5.489e-5
-1.066, 5.207e-5
-1.067, 4.863e-5
-1.068, 5.435e-5
-1.069, 5.416e-5
-1.070, 4.887e-5
-1.071, 5.262e-5
-1.072, 5.576e-5
-1.073, 5.041e-5
-1.074, 5.085e-5
-1.075, 5.634e-5
-1.076, 5.327e-5
-1.077, 4.970e-5
-1.078, 5.503e-5
-1.079, 5.543e-5
-1.080, 4.994e-5
-1.081, 5.292e-5
-1.082, 5.714e-5
-1.083, 5.142e-5
-1.084, 5.194e-5
-1.085, 5.682e-5
-1.086, 5.392e-5
-1.087, 5.048e-5
-1.088, 5.615e-5
-1.089, 5.617e-5
-1.090, 5.113e-5
-1.091, 5.403e-5
-1.092, 5.806e-5
-1.093, 5.235e-5
-1.094, 5.283e-5
-1.095, 5.841e-5
-1.096, 5.518e-5
-1.097, 5.166e-5
-1.098, 5.758e-5
-1.099, 5.708e-5
-1.100, 5.256e-5
-1.101, 5.542e-5
-1.102, 5.924e-5
-1.103, 5.417e-5
-1.104, 5.411e-5
-1.105, 5.959e-5
-1.106, 5.669e-5
-1.107, 5.295e-5
-1.108, 5.912e-5
-1.109, 5.903e-5
-1.110, 5.382e-5
-1.111, 5.723e-5
-1.112, 6.090e-5
-1.113, 5.543e-5
-1.114, 5.591e-5
-1.115, 6.092e-5
-1.116, 5.869e-5
-1.117, 5.476e-5
-1.118, 6.065e-5
-1.119, 6.099e-5
-1.120, 5.563e-5
-1.121, 5.865e-5
-1.122, 6.285e-5
-1.123, 5.709e-5
-1.124, 5.800e-5
-1.125, 6.288e-5
-1.126, 6.034e-5
-1.127, 5.689e-5
-1.128, 6.213e-5
-1.129, 6.225e-5
-1.130, 5.760e-5
-1.131, 6.008e-5
-1.132, 6.443e-5
-1.133, 5.905e-5
-1.134, 5.906e-5
-1.135, 6.455e-5
-1.136, 6.163e-5
-1.137, 5.805e-5
-1.138, 6.370e-5
-1.139, 6.369e-5
-1.140, 5.880e-5
-1.141, 6.142e-5
-1.142, 6.530e-5
-1.143, 6.005e-5
-1.144, 6.001e-5
-1.145, 6.526e-5
-1.146, 6.262e-5
-1.147, 5.881e-5
-1.148, 6.433e-5
-1.149, 6.429e-5
-1.150, 5.920e-5
-1.151, 6.221e-5
-1.152, 6.595e-5
-1.153, 6.066e-5
-1.154, 6.061e-5
-1.155, 6.559e-5
-1.156, 6.285e-5
-1.157, 5.897e-5
-1.158, 6.441e-5
-1.159, 6.457e-5
-1.160, 5.920e-5
-1.161, 6.192e-5
-1.162, 6.575e-5
-1.163, 6.023e-5
-1.164, 6.018e-5
-1.165, 6.533e-5
-1.166, 6.188e-5
-1.167, 5.886e-5
-1.168, 6.369e-5
-1.169, 6.358e-5
-1.170, 5.867e-5
-1.171, 6.125e-5
-1.172, 6.488e-5
-1.173, 5.927e-5
-1.174, 5.933e-5
-1.175, 6.458e-5
-1.176, 6.104e-5
-1.177, 5.798e-5
-1.178, 6.323e-5
-1.179, 6.254e-5
-1.180, 5.768e-5
-1.181, 6.038e-5
-1.182, 6.369e-5
-1.183, 5.856e-5
-1.184, 5.841e-5
-1.185, 6.324e-5
-1.186, 6.010e-5
-1.187, 5.656e-5
-1.188, 6.228e-5
-1.189, 6.143e-5
-1.190, 5.673e-5
-1.191, 5.942e-5
-1.192, 6.276e-5
-1.193, 5.732e-5
-1.194, 5.735e-5
-1.195, 6.207e-5
-1.196, 5.914e-5
-1.197, 5.587e-5
-1.198, 6.062e-5
-1.199, 6.050e-5
-1.200, 5.545e-5
-1.201, 5.841e-5
-1.202, 6.167e-5
-1.203, 5.620e-5
-1.204, 5.655e-5
-1.205, 6.118e-5
-1.206, 5.789e-5
-1.207, 5.496e-5
-1.208, 5.970e-5
-1.209, 5.938e-5
-1.210, 5.483e-5
-1.211, 5.743e-5
-1.212, 6.064e-5
-1.213, 5.512e-5
-1.214, 5.541e-5
-1.215, 6.061e-5
-1.216, 5.698e-5
-1.217, 5.390e-5
-1.218, 5.906e-5
-1.219, 5.847e-5
-1.220, 5.404e-5
-1.221, 5.662e-5
-1.222, 5.978e-5
-1.223, 5.489e-5
-1.224, 5.464e-5
-1.225, 5.918e-5
-1.226, 5.649e-5
-1.227, 5.313e-5
-1.228, 5.868e-5
-1.229, 5.822e-5
-1.230, 5.348e-5
-1.231, 5.639e-5
-1.232, 5.926e-5
-1.233, 5.407e-5
-1.234, 5.458e-5
-1.235, 5.903e-5
-1.236, 5.620e-5
-1.237, 5.276e-5
-1.238, 5.805e-5
-1.239, 5.786e-5
-1.240, 5.300e-5
-1.241, 5.613e-5
-1.242, 5.952e-5
-1.243, 5.396e-5
-1.244, 5.445e-5
-1.245, 5.918e-5
-1.246, 5.615e-5
-1.247, 5.317e-5
-1.248, 5.803e-5
-1.249, 5.811e-5
-1.250, 5.331e-5
-1.251, 5.616e-5
-1.252, 5.955e-5
-1.253, 5.441e-5
-1.254, 5.480e-5
-1.255, 5.988e-5
-1.256, 5.659e-5
-1.257, 5.357e-5
-1.258, 5.910e-5
-1.259, 5.837e-5
-1.260, 5.397e-5
-1.261, 5.677e-5
-1.262, 6.042e-5
-1.263, 5.553e-5
-1.264, 5.568e-5
-1.265, 6.039e-5
-1.266, 5.766e-5
-1.267, 5.474e-5
-1.268, 6.011e-5
-1.269, 5.973e-5
-1.270, 5.508e-5
-1.271, 5.854e-5
-1.272, 6.150e-5
-1.273, 5.664e-5
-1.274, 5.729e-5
-1.275, 6.207e-5
-1.276, 5.935e-5
-1.277, 5.636e-5
-1.278, 6.171e-5
-1.279, 6.172e-5
-1.280, 5.757e-5
-1.281, 6.044e-5
-1.282, 6.377e-5
-1.283, 5.910e-5
-1.284, 5.967e-5
-1.285, 6.463e-5
-1.286, 6.175e-5
-1.287, 5.918e-5
-1.288, 6.430e-5
-1.289, 6.434e-5
-1.290, 6.025e-5
-1.291, 6.314e-5
-1.292, 6.692e-5
-1.293, 6.199e-5
-1.294, 6.276e-5
-1.295, 6.783e-5
-1.296, 6.500e-5
-1.297, 6.244e-5
-1.298, 6.813e-5
-1.299, 6.805e-5
-1.300, 6.394e-5
-1.301, 6.689e-5
-1.302, 7.092e-5
-1.303, 6.642e-5
-1.304, 6.670e-5
-1.305, 7.221e-5
-1.306, 7.008e-5
-1.307, 6.717e-5
-1.308, 7.283e-5
-1.309, 7.291e-5
-1.310, 6.941e-5
-1.311, 7.247e-5
-1.312, 7.636e-5
-1.313, 7.184e-5
-1.314, 7.297e-5
-1.315, 7.767e-5
-1.316, 7.593e-5
-1.317, 7.346e-5
-1.318, 7.888e-5
-1.319, 7.980e-5
-1.320, 7.576e-5
-1.321, 7.916e-5
-1.322, 8.355e-5
-1.323, 7.909e-5
-1.324, 8.035e-5
-1.325, 8.558e-5
-1.326, 8.367e-5
-1.327, 8.153e-5
-1.328, 8.745e-5
-1.329, 8.798e-5
-1.330, 8.441e-5
-1.331, 8.810e-5
-1.332, 9.231e-5
-1.333, 8.857e-5
-1.334, 8.953e-5
-1.335, 9.543e-5
-1.336, 9.339e-5
-1.337, 9.171e-5
-1.338, 9.773e-5
-1.339, 9.854e-5
-1.340, 9.542e-5
-1.341, 9.914e-5
-1.342, 1.036e-4
-1.343, 1.003e-4
-1.344, 1.015e-4
-1.345, 1.075e-4
-1.346, 1.060e-4
-1.347, 1.044e-4
-1.348, 1.108e-4
-1.349, 1.119e-4
-1.350, 1.091e-4
-1.351, 1.131e-4
-1.352, 1.180e-4
-1.353, 1.146e-4
-1.354, 1.163e-4
-1.355, 1.223e-4
-1.356, 1.218e-4
-1.357, 1.202e-4
-1.358, 1.270e-4
-1.359, 1.287e-4
-1.360, 1.259e-4
-1.361, 1.304e-4
-1.362, 1.359e-4
-1.363, 1.331e-4
-1.364, 1.350e-4
-1.365, 1.417e-4
-1.366, 1.412e-4
-1.367, 1.405e-4
-1.368, 1.471e-4
-1.369, 1.495e-4
-1.370, 1.478e-4
-1.371, 1.522e-4
-1.372, 1.584e-4
-1.373, 1.560e-4
-1.374, 1.582e-4
-1.375, 1.659e-4
-1.376, 1.657e-4
-1.377, 1.653e-4
-1.378, 1.731e-4
-1.379, 1.755e-4
-1.380, 1.745e-4
-1.381, 1.795e-4
-1.382, 1.864e-4
-1.383, 1.847e-4
-1.384, 1.875e-4
-1.385, 1.955e-4
-1.386, 1.968e-4
-1.387, 1.964e-4
-1.388, 2.050e-4
-1.389, 2.083e-4
-1.390, 2.077e-4
-1.391, 2.137e-4
-1.392, 2.208e-4
-1.393, 2.200e-4
-1.394, 2.237e-4
-1.395, 2.323e-4
-1.396, 2.343e-4
-1.397, 2.348e-4
-1.398, 2.437e-4
-1.399, 2.487e-4
-1.400, 2.485e-4
-1.401, 2.552e-4
-1.402, 2.638e-4
-1.403, 2.638e-4
-1.404, 2.682e-4
-1.405, 2.783e-4
-1.406, 2.807e-4
-1.407, 2.829e-4
-1.408, 2.927e-4
-1.409, 2.987e-4
-1.410, 2.997e-4
-1.411, 3.075e-4
-1.412, 3.171e-4
-1.413, 3.183e-4
-1.414, 3.240e-4
-1.415, 3.353e-4
-1.416, 3.392e-4
-1.417, 3.420e-4
-1.418, 3.533e-4
-1.419, 3.607e-4
-1.420, 3.633e-4
-1.421, 3.720e-4
-1.422, 3.832e-4
-1.423, 3.862e-4
-1.424, 3.927e-4
-1.425, 4.052e-4
-1.426, 4.111e-4
-1.427, 4.151e-4
-1.428, 4.280e-4
-1.429, 4.367e-4
-1.430, 4.410e-4
-1.431, 4.519e-4
-1.432, 4.645e-4
-1.433, 4.698e-4
-1.434, 4.785e-4
-1.435, 4.927e-4
-1.436, 5.006e-4
-1.437, 5.068e-4
-1.438, 5.217e-4
-1.439, 5.334e-4
-1.440, 5.394e-4
-1.441, 5.519e-4
-1.442, 5.675e-4
-1.443, 5.749e-4
-1.444, 5.854e-4
-1.445, 6.021e-4
-1.446, 6.125e-4
-1.447, 6.216e-4
-1.448, 6.384e-4
-1.449, 6.529e-4
-1.450, 6.622e-4
-1.451, 6.772e-4
-1.452, 6.958e-4
-1.453, 7.058e-4
-1.454, 7.191e-4
-1.455, 7.392e-4
-1.456, 7.530e-4
-1.457, 7.647e-4
-1.458, 7.848e-4
-1.459, 8.027e-4
-1.460, 8.151e-4
-1.461, 8.335e-4
-1.462, 8.547e-4
-1.463, 8.688e-4
-1.464, 8.846e-4
-1.465, 9.078e-4
-1.466, 9.255e-4
-1.467, 9.399e-4
-1.468, 9.630e-4
-1.469, 9.842e-4
-1.470, 9.991e-4
-1.471, 1.020e-3
-1.472, 1.044e-3
-1.473, 1.061e-3
-1.474, 1.080e-3
-1.475, 1.105e-3
-1.476, 1.126e-3
-1.477, 1.143e-3
-1.478, 1.169e-3
-1.479, 1.193e-3
-1.480, 1.209e-3
-1.481, 1.231e-3
-1.482, 1.259e-3
-1.483, 1.278e-3
-1.484, 1.299e-3
-1.485, 1.328e-3
-1.486, 1.350e-3
-1.487, 1.370e-3
-1.488, 1.397e-3
-1.489, 1.422e-3
-1.490, 1.442e-3
-1.491, 1.466e-3
-1.492, 1.495e-3
-1.493, 1.516e-3
-1.494, 1.538e-3
-1.495, 1.568e-3
-1.496, 1.592e-3
-1.497, 1.612e-3
-1.498, 1.641e-3
-1.499, 1.669e-3
-1.500, 1.689e-3
-1.501, 1.714e-3
-1.502, 1.744e-3
-1.503, 1.766e-3
-1.504, 1.788e-3
-1.505, 1.818e-3
-1.506, 1.843e-3
-1.507, 1.864e-3
-1.508, 1.893e-3
-1.509, 1.921e-3
-1.510, 1.943e-3
-1.511, 1.969e-3
-1.512, 2.000e-3
-1.513, 2.022e-3
-1.514, 2.045e-3
-1.515, 2.076e-3
-1.516, 2.102e-3
-1.517, 2.123e-3
-1.518, 2.152e-3
-1.519, 2.181e-3
-1.520, 2.201e-3
-1.521, 2.227e-3
-1.522, 2.258e-3
-1.523, 2.281e-3
-1.524, 2.304e-3
-1.525, 2.336e-3
-1.526, 2.363e-3
-1.527, 2.384e-3
-1.528, 2.413e-3
-1.529, 2.443e-3
-1.530, 2.464e-3
-1.531, 2.490e-3
-1.532, 2.523e-3
-1.533, 2.547e-3
-1.534, 2.570e-3
-1.535, 2.602e-3
-1.536, 2.628e-3
-1.537, 2.650e-3
-1.538, 2.680e-3
-1.539, 2.710e-3
-1.540, 2.732e-3
-1.541, 2.758e-3
-1.542, 2.789e-3
-1.543, 2.813e-3
-1.544, 2.836e-3
-1.545, 2.869e-3
-1.546, 2.897e-3
-1.547, 2.919e-3
-1.548, 2.950e-3
-1.549, 2.981e-3
-1.550, 3.003e-3
-1.551, 3.030e-3
-1.552, 3.063e-3
-1.553, 3.088e-3
-1.554, 3.112e-3
-1.555, 3.145e-3
-1.556, 3.174e-3
-1.557, 3.197e-3
-1.558, 3.229e-3
-1.559, 3.260e-3
-1.560, 3.284e-3
-1.561, 3.312e-3
-1.562, 3.348e-3
-1.563, 3.374e-3
-1.564, 3.399e-3
-1.565, 3.433e-3
-1.566, 3.464e-3
-1.567, 3.489e-3
-1.568, 3.521e-3
-1.569, 3.556e-3
-1.570, 3.581e-3
-1.571, 3.610e-3
-1.572, 3.647e-3
-1.573, 3.674e-3
-1.574, 3.700e-3
-1.575, 3.737e-3
-1.576, 3.768e-3
-1.577, 3.793e-3
-1.578, 3.826e-3
-1.579, 3.861e-3
-1.580, 3.887e-3
-1.581, 3.917e-3
-1.582, 3.955e-3
-1.583, 3.986e-3
-1.584, 4.013e-3
-1.585, 4.051e-3
-1.586, 4.085e-3
-1.587, 4.113e-3
-1.588, 4.149e-3
-1.589, 4.186e-3
-1.590, 4.215e-3
-1.591, 4.248e-3
-1.592, 4.289e-3
-1.593, 4.320e-3
-1.594, 4.349e-3
-1.595, 4.387e-3
-1.596, 4.423e-3
-1.597, 4.452e-3
-1.598, 4.490e-3
-1.599, 4.530e-3
-1.600, 4.561e-3
-1.601, 4.595e-3
-1.602, 4.638e-3
-1.603, 4.671e-3
-1.604, 4.703e-3
-1.605, 4.744e-3
-1.606, 4.781e-3
-1.607, 4.810e-3
-1.608, 4.847e-3
-1.609, 4.889e-3
-1.610, 4.920e-3
-1.611, 4.952e-3
-1.612, 4.994e-3
-1.613, 5.027e-3
-1.614, 5.058e-3
-1.615, 5.100e-3
-1.616, 5.139e-3
-1.617, 5.171e-3
-1.618, 5.215e-3
-1.619, 5.262e-3
-1.620, 5.298e-3
-1.621, 5.337e-3
-1.622, 5.386e-3
-1.623, 5.427e-3
-1.624, 5.465e-3
-1.625, 5.516e-3
-1.626, 5.564e-3
-1.627, 5.602e-3
-1.628, 5.648e-3
-1.629, 5.697e-3
-1.630, 5.736e-3
-1.631, 5.779e-3
-1.632, 5.833e-3
-1.633, 5.878e-3
-1.634, 5.916e-3
-1.635, 5.964e-3
-1.636, 6.014e-3
-1.637, 6.056e-3
-1.638, 6.108e-3
-1.639, 6.162e-3
-1.640, 6.204e-3
-1.641, 6.250e-3
-1.642, 6.307e-3
-1.643, 6.357e-3
-1.644, 6.400e-3
-1.645, 6.454e-3
-1.646, 6.506e-3
-1.647, 6.549e-3
-1.648, 6.600e-3
-1.649, 6.657e-3
-1.650, 6.703e-3
-1.651, 6.751e-3
-1.652, 6.809e-3
-1.653, 6.861e-3
-1.654, 6.907e-3
-1.655, 6.967e-3
-1.656, 7.025e-3
-1.657, 7.074e-3
-1.658, 7.134e-3
-1.659, 7.198e-3
-1.660, 7.252e-3
-1.661, 7.307e-3
-1.662, 7.375e-3
-1.663, 7.435e-3
-1.664, 7.488e-3
-1.665, 7.553e-3
-1.666, 7.617e-3
-1.667, 7.670e-3
-1.668, 7.733e-3
-1.669, 7.801e-3
-1.670, 7.857e-3
-1.671, 7.914e-3
-1.672, 7.986e-3
-1.673, 8.050e-3
-1.674, 8.106e-3
-1.675, 8.176e-3
-1.676, 8.246e-3
-1.677, 8.305e-3
-1.678, 8.373e-3
-1.679, 8.448e-3
-1.680, 8.510e-3
-1.681, 8.573e-3
-1.682, 8.646e-3
-1.683, 8.714e-3
-1.684, 8.773e-3
-1.685, 8.846e-3
-1.686, 8.919e-3
-1.687, 8.981e-3
-1.688, 9.053e-3
-1.689, 9.133e-3
-1.690, 9.200e-3
-1.691, 9.268e-3
-1.692, 9.347e-3
-1.693, 9.418e-3
-1.694, 9.482e-3
-1.695, 9.559e-3
-1.696, 9.636e-3
-1.697, 9.700e-3
-1.698, 9.772e-3
-1.699, 9.854e-3
-1.700, 9.842e-3
-1.699, 9.752e-3
-1.698, 9.676e-3
-1.697, 9.590e-3
-1.696, 9.494e-3
-1.695, 9.412e-3
-1.694, 9.330e-3
-1.693, 9.236e-3
-1.692, 9.150e-3
-1.691, 9.072e-3
-1.690, 8.978e-3
-1.689, 8.887e-3
-1.688, 8.810e-3
-1.687, 8.722e-3
-1.686, 8.627e-3
-1.685, 8.546e-3
-1.684, 8.463e-3
-1.683, 8.371e-3
-1.682, 8.289e-3
-1.681, 8.214e-3
-1.680, 8.127e-3
-1.679, 8.039e-3
-1.678, 7.963e-3
-1.677, 7.877e-3
-1.676, 7.791e-3
-1.675, 7.717e-3
-1.674, 7.641e-3
-1.673, 7.554e-3
-1.672, 7.477e-3
-1.671, 7.405e-3
-1.670, 7.323e-3
-1.669, 7.243e-3
-1.668, 7.174e-3
-1.667, 7.095e-3
-1.666, 7.013e-3
-1.665, 6.942e-3
-1.664, 6.871e-3
-1.663, 6.788e-3
-1.662, 6.716e-3
-1.661, 6.650e-3
-1.660, 6.575e-3
-1.659, 6.501e-3
-1.658, 6.437e-3
-1.657, 6.367e-3
-1.656, 6.292e-3
-1.655, 6.228e-3
-1.654, 6.163e-3
-1.653, 6.090e-3
-1.652, 6.028e-3
-1.651, 5.969e-3
-1.650, 5.900e-3
-1.649, 5.832e-3
-1.648, 5.776e-3
-1.647, 5.711e-3
-1.646, 5.643e-3
-1.645, 5.587e-3
-1.644, 5.528e-3
-1.643, 5.461e-3
-1.642, 5.404e-3
-1.641, 5.351e-3
-1.640, 5.289e-3
-1.639, 5.228e-3
-1.638, 5.176e-3
-1.637, 5.118e-3
-1.636, 5.055e-3
-1.635, 5.006e-3
-1.634, 4.952e-3
-1.633, 4.892e-3
-1.632, 4.840e-3
-1.631, 4.790e-3
-1.630, 4.730e-3
-1.629, 4.678e-3
-1.628, 4.633e-3
-1.627, 4.582e-3
-1.626, 4.527e-3
-1.625, 4.483e-3
-1.624, 4.438e-3
-1.623, 4.384e-3
-1.622, 4.341e-3
-1.621, 4.300e-3
-1.620, 4.250e-3
-1.619, 4.203e-3
-1.618, 4.165e-3
-1.617, 4.118e-3
-1.616, 4.069e-3
-1.615, 4.031e-3
-1.614, 3.991e-3
-1.613, 3.943e-3
-1.612, 3.903e-3
-1.611, 3.866e-3
-1.610, 3.820e-3
-1.609, 3.780e-3
-1.608, 3.747e-3
-1.607, 3.705e-3
-1.606, 3.662e-3
-1.605, 3.629e-3
-1.604, 3.591e-3
-1.603, 3.549e-3
-1.602, 3.515e-3
-1.601, 3.483e-3
-1.600, 3.442e-3
-1.599, 3.406e-3
-1.598, 3.377e-3
-1.597, 3.340e-3
-1.596, 3.302e-3
-1.595, 3.273e-3
-1.594, 3.241e-3
-1.593, 3.203e-3
-1.592, 3.173e-3
-1.591, 3.145e-3
-1.590, 3.108e-3
-1.589, 3.076e-3
-1.588, 3.051e-3
-1.587, 3.017e-3
-1.586, 2.984e-3
-1.585, 2.960e-3
-1.584, 2.931e-3
-1.583, 2.897e-3
-1.582, 2.871e-3
-1.581, 2.847e-3
-1.580, 2.814e-3
-1.579, 2.786e-3
-1.578, 2.765e-3
-1.577, 2.734e-3
-1.576, 2.705e-3
-1.575, 2.683e-3
-1.574, 2.658e-3
-1.573, 2.626e-3
-1.572, 2.603e-3
-1.571, 2.580e-3
-1.570, 2.550e-3
-1.569, 2.524e-3
-1.568, 2.504e-3
-1.567, 2.477e-3
-1.566, 2.449e-3
-1.565, 2.431e-3
-1.564, 2.407e-3
-1.563, 2.379e-3
-1.562, 2.358e-3
-1.561, 2.337e-3
-1.560, 2.310e-3
-1.559, 2.287e-3
-1.558, 2.270e-3
-1.557, 2.244e-3
-1.556, 2.218e-3
-1.555, 2.202e-3
-1.554, 2.180e-3
-1.553, 2.154e-3
-1.552, 2.136e-3
-1.551, 2.117e-3
-1.550, 2.091e-3
-1.549, 2.070e-3
-1.548, 2.054e-3
-1.547, 2.030e-3
-1.546, 2.007e-3
-1.545, 1.992e-3
-1.544, 1.972e-3
-1.543, 1.947e-3
-1.542, 1.930e-3
-1.541, 1.913e-3
-1.540, 1.888e-3
-1.539, 1.868e-3
-1.538, 1.853e-3
-1.537, 1.831e-3
-1.536, 1.809e-3
-1.535, 1.795e-3
-1.534, 1.776e-3
-1.533, 1.752e-3
-1.532, 1.736e-3
-1.531, 1.720e-3
-1.530, 1.696e-3
-1.529, 1.678e-3
-1.528, 1.665e-3
-1.527, 1.643e-3
-1.526, 1.621e-3
-1.525, 1.609e-3
-1.524, 1.590e-3
-1.523, 1.567e-3
-1.522, 1.552e-3
-1.521, 1.537e-3
-1.520, 1.515e-3
-1.519, 1.497e-3
-1.518, 1.484e-3
-1.517, 1.463e-3
-1.516, 1.443e-3
-1.515, 1.431e-3
-1.514, 1.414e-3
-1.513, 1.392e-3
-1.512, 1.378e-3
-1.511, 1.364e-3
-1.510, 1.341e-3
-1.509, 1.325e-3
-1.508, 1.313e-3
-1.507, 1.293e-3
-1.506, 1.274e-3
-1.505, 1.262e-3
-1.504, 1.246e-3
-1.503, 1.225e-3
-1.502, 1.212e-3
-1.501, 1.200e-3
-1.500, 1.180e-3
-1.499, 1.165e-3
-1.498, 1.154e-3
-1.497, 1.135e-3
-1.496, 1.118e-3
-1.495, 1.108e-3
-1.494, 1.092e-3
-1.493, 1.073e-3
-1.492, 1.061e-3
-1.491, 1.049e-3
-1.490, 1.029e-3
-1.489, 1.015e-3
-1.488, 1.005e-3
-1.487, 9.877e-4
-1.486, 9.704e-4
-1.485, 9.610e-4
-1.484, 9.460e-4
-1.483, 9.275e-4
-1.482, 9.169e-4
-1.481, 9.056e-4
-1.480, 8.871e-4
-1.479, 8.738e-4
-1.478, 8.644e-4
-1.477, 8.479e-4
-1.476, 8.320e-4
-1.475, 8.239e-4
-1.474, 8.095e-4
-1.473, 7.919e-4
-1.472, 7.825e-4
-1.471, 7.721e-4
-1.470, 7.544e-4
-1.469, 7.424e-4
-1.468, 7.350e-4
-1.467, 7.195e-4
-1.466, 7.047e-4
-1.465, 6.978e-4
-1.464, 6.850e-4
-1.463, 6.688e-4
-1.462, 6.603e-4
-1.461, 6.515e-4
-1.460, 6.348e-4
-1.459, 6.242e-4
-1.458, 6.180e-4
-1.457, 6.033e-4
-1.456, 5.904e-4
-1.455, 5.848e-4
-1.454, 5.729e-4
-1.453, 5.587e-4
-1.452, 5.513e-4
-1.451, 5.437e-4
-1.450, 5.286e-4
-1.449, 5.195e-4
-1.448, 5.143e-4
-1.447, 5.011e-4
-1.446, 4.889e-4
-1.445, 4.852e-4
-1.444, 4.746e-4
-1.443, 4.615e-4
-1.442, 4.560e-4
-1.441, 4.492e-4
-1.440, 4.354e-4
-1.439, 4.278e-4
-1.438, 4.234e-4
-1.437, 4.120e-4
-1.436, 4.013e-4
-1.435, 3.986e-4
-1.434, 3.892e-4
-1.433, 3.771e-4
-1.432, 3.730e-4
-1.431, 3.673e-4
-1.430, 3.546e-4
-1.429, 3.486e-4
-1.428, 3.452e-4
-1.427, 3.348e-4
-1.426, 3.253e-4
-1.425, 3.234e-4
-1.424, 3.155e-4
-1.423, 3.046e-4
-1.422, 3.013e-4
-1.421, 2.969e-4
-1.420, 2.858e-4
-1.419, 2.805e-4
-1.418, 2.785e-4
-1.417, 2.684e-4
-1.416, 2.605e-4
-1.415, 2.598e-4
-1.414, 2.523e-4
-1.413, 2.430e-4
-1.412, 2.410e-4
-1.411, 2.372e-4
-1.410, 2.270e-4
-1.409, 2.230e-4
-1.408, 2.222e-4
-1.407, 2.132e-4
-1.406, 2.063e-4
-1.405, 2.064e-4
-1.404, 2.000e-4
-1.403, 1.915e-4
-1.402, 1.906e-4
-1.401, 1.876e-4
-1.400, 1.785e-4
-1.399, 1.754e-4
-1.398, 1.747e-4
-1.397, 1.671e-4
-1.396, 1.607e-4
-1.395, 1.618e-4
-1.394, 1.562e-4
-1.393, 1.481e-4
-1.392, 1.483e-4
-1.391, 1.461e-4
-1.390, 1.373e-4
-1.389, 1.352e-4
-1.388, 1.354e-4
-1.387, 1.282e-4
-1.386, 1.230e-4
-1.385, 1.245e-4
-1.384, 1.197e-4
-1.383, 1.123e-4
-1.382, 1.128e-4
-1.381, 1.117e-4
-1.380, 1.040e-4
-1.379, 1.021e-4
-1.378, 1.030e-4
-1.377, 9.611e-5
-1.376, 9.198e-5
-1.375, 9.409e-5
-1.374, 8.920e-5
-1.373, 8.322e-5
-1.372, 8.445e-5
-1.371, 8.330e-5
-1.370, 7.594e-5
-1.369, 7.456e-5
-1.368, 7.656e-5
-1.367, 7.005e-5
-1.366, 6.573e-5
-1.365, 6.917e-5
-1.364, 6.487e-5
-1.363, 5.895e-5
-1.362, 6.049e-5
-1.361, 6.025e-5
-1.360, 5.327e-5
-1.359, 5.254e-5
-1.358, 5.437e-5
-1.357, 4.880e-5
-1.356, 4.527e-5
-1.355, 4.818e-5
-1.354, 4.458e-5
-1.353, 3.904e-5
-1.352, 4.130e-5
-1.351, 4.098e-5
-1.350, 3.398e-5
-1.349, 3.440e-5
-1.348, 3.667e-5
-1.347, 3.045e-5
-1.346, 2.762e-5
-1.345, 3.084e-5
-1.344, 2.781e-5
-1.343, 2.243e-5
-1.342, 2.459e-5
-1.341, 2.515e-5
-1.340, 1.826e-5
-1.339, 1.881e-5
-1.338, 2.141e-5
-1.337, 1.575e-5
-1.336, 1.298e-5
-1.335, 1.707e-5
-1.334, 1.359e-5
-1.333, 9.025e-6
-1.332, 1.158e-5
-1.331, 1.188e-5
-1.330, 5.849e-6
-1.329, 6.204e-6
-1.328, 9.213e-6
-1.327, 4.270e-6
-1.326, 1.182e-6
-1.325, 5.454e-6
-1.324, 2.869e-6
-1.323, -2.054e-6
-1.322, 9.057e-7
-1.321, 1.458e-6
-1.320, -3.929e-6
-1.319, -3.495e-6
-1.318, -7.419e-7
-1.317, -5.339e-6
-1.316, -7.964e-6
-1.315, -3.721e-6
-1.314, -6.247e-6
-1.313, -1.094e-5
-1.312, -7.737e-6
-1.311, -6.602e-6
-1.310, -1.260e-5
-1.309, -1.143e-5
-1.308, -8.645e-6
-1.307, -1.340e-5
-1.306, -1.544e-5
-1.305, -1.118e-5
-1.304, -1.373e-5
-1.303, -1.770e-5
-1.302, -1.488e-5
-1.301, -1.381e-5
-1.300, -1.907e-5
-1.299, -1.836e-5
-1.298, -1.489e-5
-1.297, -1.980e-5
-1.296, -2.151e-5
-1.295, -1.715e-5
-1.294, -1.972e-5
-1.293, -2.349e-5
-1.292, -2.041e-5
-1.291, -1.959e-5
-1.290, -2.442e-5
-1.289, -2.390e-5
-1.288, -2.015e-5
-1.287, -2.450e-5
-1.286, -2.691e-5
-1.285, -2.186e-5
-1.284, -2.428e-5
-1.283, -2.838e-5
-1.282, -2.507e-5
-1.281, -2.407e-5
-1.280, -2.948e-5
-1.279, -2.817e-5
-1.278, -2.486e-5
-1.277, -2.892e-5
-1.276, -3.074e-5
-1.275, -2.611e-5
-1.274, -2.829e-5
-1.273, -3.231e-5
-1.272, -2.889e-5
-1.271, -2.758e-5
-1.270, -3.281e-5
-1.269, -3.150e-5
-1.268, -2.789e-5
-1.267, -3.242e-5
-1.266, -3.444e-5
-1.265, -2.961e-5
-1.264, -3.142e-5
-1.263, -3.542e-5
-1.262, -3.211e-5
-1.261, -3.071e-5
-1.260, -3.575e-5
-1.259, -3.485e-5
-1.258, -3.074e-5
-1.257, -3.527e-5
-1.256, -3.676e-5
-1.255, -3.196e-5
-1.254, -3.419e-5
-1.253, -3.822e-5
-1.252, -3.450e-5
-1.251, -3.324e-5
-1.250, -3.842e-5
-1.249, -3.712e-5
-1.248, -3.300e-5
-1.247, -3.739e-5
-1.246, -3.947e-5
-1.245, -3.447e-5
-1.244, -3.611e-5
-1.243, -4.024e-5
-1.242, -3.648e-5
-1.241, -3.536e-5
-1.240, -4.012e-5
-1.239, -3.900e-5
-1.238, -3.533e-5
-1.237, -3.921e-5
-1.236, -4.124e-5
-1.235, -3.624e-5
-1.234, -3.795e-5
-1.233, -4.216e-5
-1.232, -3.843e-5
-1.231, -3.677e-5
-1.230, -4.210e-5
-1.229, -4.134e-5
-1.228, -3.717e-5
-1.227, -4.121e-5
-1.226, -4.305e-5
-1.225, -3.809e-5
-1.224, -3.991e-5
-1.223, -4.395e-5
-1.222, -4.034e-5
-1.221, -3.875e-5
-1.220, -4.403e-5
-1.219, -4.278e-5
-1.218, -3.908e-5
-1.217, -4.308e-5
-1.216, -4.464e-5
-1.215, -3.992e-5
-1.214, -4.181e-5
-1.213, -4.543e-5
-1.212, -4.185e-5
-1.211, -4.050e-5
-1.210, -4.528e-5
-1.209, -4.437e-5
-1.208, -4.000e-5
-1.207, -4.407e-5
-1.206, -4.618e-5
-1.205, -4.114e-5
-1.204, -4.267e-5
-1.203, -4.708e-5
-1.202, -4.334e-5
-1.201, -4.142e-5
-1.200, -4.677e-5
-1.199, -4.531e-5
-1.198, -4.145e-5
-1.197, -4.522e-5
-1.196, -4.714e-5
-1.195, -4.257e-5
-1.194, -4.399e-5
-1.193, -4.790e-5
-1.192, -4.423e-5
-1.191, -4.230e-5
-1.190, -4.808e-5
-1.189, -4.664e-5
-1.188, -4.249e-5
-1.187, -4.679e-5
-1.186, -4.881e-5
-1.185, -4.384e-5
-1.184, -4.534e-5
-1.183, -4.947e-5
-1.182, -4.632e-5
-1.181, -4.397e-5
-1.180, -4.952e-5
-1.179, -4.858e-5
-1.178, -4.423e-5
-1.177, -4.857e-5
-1.176, -5.043e-5
-1.175, -4.524e-5
-1.174, -4.745e-5
-1.173, -5.133e-5
-1.172, -4.773e-5
-1.171, -4.583e-5
-1.170, -5.126e-5
-1.169, -5.023e-5
-1.168, -4.575e-5
-1.167, -4.988e-5
-1.166, -5.234e-5
-1.165, -4.715e-5
-1.164, -4.873e-5
-1.163, -5.334e-5
-1.162, -4.943e-5
-1.161, -4.781e-5
-1.160, -5.296e-5
-1.159, -5.206e-5
-1.158, -4.789e-5
-1.157, -5.170e-5
-1.156, -5.421e-5
-1.155, -4.904e-5
-1.154, -5.042e-5
-1.153, -5.533e-5
-1.152, -5.153e-5
-1.151, -4.918e-5
-1.150, -5.539e-5
-1.149, -5.410e-5
-1.148, -4.975e-5
-1.147, -5.390e-5
-1.146, -5.626e-5
-1.145, -5.122e-5
-1.144, -5.241e-5
-1.143, -5.698e-5
-1.142, -5.396e-5
-1.141, -5.145e-5
-1.140, -5.733e-5
-1.139, -5.623e-5
-1.138, -5.172e-5
-1.137, -5.619e-5
-1.136, -5.857e-5
-1.135, -5.318e-5
-1.134, -5.489e-5
-1.133, -5.950e-5
-1.132, -5.612e-5
-1.131, -5.396e-5
-1.130, -5.931e-5
-1.129, -5.895e-5
-1.128, -5.405e-5
-1.127, -5.855e-5
-1.126, -6.139e-5
-1.125, -5.549e-5
-1.124, -5.733e-5
-1.123, -6.191e-5
-1.122, -5.849e-5
-1.121, -5.652e-5
-1.120, -6.201e-5
-1.119, -6.145e-5
-1.118, -5.677e-5
-1.117, -6.081e-5
-1.116, -6.382e-5
-1.115, -5.831e-5
-1.114, -5.960e-5
-1.113, -6.517e-5
-1.112, -6.146e-5
-1.111, -5.857e-5
-1.110, -6.495e-5
-1.109, -6.408e-5
-1.108, -5.947e-5
-1.107, -6.380e-5
-1.106, -6.638e-5
-1.105, -6.142e-5
-1.104, -6.251e-5
-1.103, -6.766e-5
-1.102, -6.432e-5
-1.101, -6.170e-5
-1.100, -6.772e-5
-1.099, -6.729e-5
-1.098, -6.236e-5
-1.097, -6.682e-5
-1.096, -6.979e-5
-1.095, -6.425e-5
-1.094, -6.610e-5
-1.093, -7.090e-5
-1.092, -6.775e-5
-1.091, -6.519e-5
-1.090, -7.092e-5
-1.089, -7.096e-5
-1.088, -6.594e-5
-1.087, -7.026e-5
-1.086, -7.397e-5
-1.085, -6.811e-5
-1.084, -6.964e-5
-1.083, -7.504e-5
-1.082, -7.191e-5
-1.081, -6.947e-5
-1.080, -7.525e-5
-1.079, -7.523e-5
-1.078, -7.044e-5
-1.077, -7.462e-5
-1.076, -7.853e-5
-1.075, -7.350e-5
-1.074, -7.460e-5
-1.073, -8.000e-5
-1.072, -7.722e-5
-1.071, -7.433e-5
-1.070, -8.101e-5
-1.069, -8.073e-5
-1.068, -7.617e-5
-1.067, -8.045e-5
-1.066, -8.406e-5
-1.065, -7.904e-5
-1.064, -8.023e-5
-1.063, -8.634e-5
-1.062, -8.369e-5
-1.061, -8.048e-5
-1.060, -8.753e-5
-1.059, -8.778e-5
-1.058, -8.252e-5
-1.057, -8.735e-5
-1.056, -9.131e-5
-1.055, -8.622e-5
-1.054, -8.750e-5
-1.053, -9.326e-5
-1.052, -9.098e-5
-1.051, -8.790e-5
-1.050, -9.492e-5
-1.049, -9.543e-5
-1.048, -9.037e-5
-1.047, -9.495e-5
-1.046, -9.946e-5
-1.045, -9.401e-5
-1.044, -9.517e-5
-1.043, -1.017e-4
-1.042, -9.909e-5
-1.041, -9.631e-5
-1.040, -1.029e-4
-1.039, -1.036e-4
-1.038, -9.875e-5
-1.037, -1.030e-4
-1.036, -1.073e-4
-1.035, -1.022e-4
-1.034, -1.032e-4
-1.033, -1.095e-4
-1.032, -1.068e-4
-1.031, -1.035e-4
-1.030, -1.108e-4
-1.029, -1.109e-4
-1.028, -1.059e-4
-1.027, -1.101e-4
-1.026, -1.145e-4
-1.025, -1.090e-4
-1.024, -1.099e-4
-1.023, -1.164e-4
-1.022, -1.136e-4
-1.021, -1.095e-4
-1.020, -1.164e-4
-1.019, -1.169e-4
-1.018, -1.113e-4
-1.017, -1.155e-4
-1.016, -1.195e-4
-1.015, -1.133e-4
-1.014, -1.146e-4
-1.013, -1.201e-4
-1.012, -1.173e-4
-1.011, -1.134e-4
-1.010, -1.201e-4
-1.009, -1.203e-4
-1.008, -1.142e-4
-1.007, -1.178e-4
-1.006, -1.223e-4
-1.005, -1.158e-4
-1.004, -1.161e-4
-1.003, -1.222e-4
-1.002, -1.187e-4
-1.001, -1.150e-4
