Aug. 11, 2024   03:56:34
Cyclic Voltammetry
File: c:/users/guazh/data/20240802_batch_500/2024-08-02-exp79\exp79-2024-08-11t03_37_45-arkoh\exp79_cv_sr_400mvs_efin_-1700mv.bin
Data Source:  Experiment
Instrument Model:  CHI760E
Header: CV ran at 400 mVs
Note: 

Init E (V) = -1
High E (V) = -1
Low E (V) = -1.7
Final E (V) = -1
Init P/N = N
Scan Rate (V/s) = 0.4
Segment = 3
Sample Interval (V) = 0.001
Quiet Time (sec) = 2
Sensitivity (A/V) = 0.01
Comp R (ohm) = 1.9

Results:

Channel 1:
Segment 1:

Segment 2:

Segment 3:

Potential/V, Current/A

-1.000, 2.174e-5
-1.001, 4.640e-5
-1.002, 5.565e-5
-1.003, 6.182e-5
-1.004, 6.490e-5
-1.005, 6.490e-5
-1.006, 6.182e-5
-1.007, 6.182e-5
-1.008, 6.182e-5
-1.009, 6.798e-5
-1.010, 7.107e-5
-1.011, 7.107e-5
-1.012, 6.798e-5
-1.013, 6.798e-5
-1.014, 6.798e-5
-1.015, 7.107e-5
-1.016, 7.415e-5
-1.017, 7.723e-5
-1.018, 7.415e-5
-1.019, 7.107e-5
-1.020, 7.107e-5
-1.021, 7.107e-5
-1.022, 7.415e-5
-1.023, 7.723e-5
-1.024, 8.032e-5
-1.025, 7.723e-5
-1.026, 7.415e-5
-1.027, 7.107e-5
-1.028, 7.415e-5
-1.029, 7.723e-5
-1.030, 8.032e-5
-1.031, 8.032e-5
-1.032, 7.723e-5
-1.033, 7.415e-5
-1.034, 7.415e-5
-1.035, 7.723e-5
-1.036, 8.032e-5
-1.037, 8.340e-5
-1.038, 8.340e-5
-1.039, 8.032e-5
-1.040, 7.415e-5
-1.041, 7.415e-5
-1.042, 8.032e-5
-1.043, 8.340e-5
-1.044, 8.340e-5
-1.045, 8.032e-5
-1.046, 7.723e-5
-1.047, 7.723e-5
-1.048, 7.723e-5
-1.049, 8.340e-5
-1.050, 8.648e-5
-1.051, 8.340e-5
-1.052, 8.032e-5
-1.053, 8.032e-5
-1.054, 7.723e-5
-1.055, 8.032e-5
-1.056, 8.340e-5
-1.057, 8.648e-5
-1.058, 8.340e-5
-1.059, 8.032e-5
-1.060, 7.723e-5
-1.061, 8.032e-5
-1.062, 8.340e-5
-1.063, 8.648e-5
-1.064, 8.648e-5
-1.065, 8.648e-5
-1.066, 8.032e-5
-1.067, 8.032e-5
-1.068, 8.032e-5
-1.069, 8.340e-5
-1.070, 8.648e-5
-1.071, 8.648e-5
-1.072, 8.340e-5
-1.073, 8.032e-5
-1.074, 8.032e-5
-1.075, 8.340e-5
-1.076, 8.648e-5
-1.077, 8.648e-5
-1.078, 8.648e-5
-1.079, 8.340e-5
-1.080, 8.032e-5
-1.081, 8.340e-5
-1.082, 8.340e-5
-1.083, 8.648e-5
-1.084, 8.957e-5
-1.085, 8.648e-5
-1.086, 8.340e-5
-1.087, 8.032e-5
-1.088, 8.032e-5
-1.089, 8.648e-5
-1.090, 8.957e-5
-1.091, 8.648e-5
-1.092, 8.340e-5
-1.093, 8.340e-5
-1.094, 8.340e-5
-1.095, 8.340e-5
-1.096, 8.648e-5
-1.097, 8.957e-5
-1.098, 8.957e-5
-1.099, 8.340e-5
-1.100, 8.340e-5
-1.101, 8.340e-5
-1.102, 8.648e-5
-1.103, 8.957e-5
-1.104, 8.957e-5
-1.105, 8.957e-5
-1.106, 8.340e-5
-1.107, 8.340e-5
-1.108, 8.340e-5
-1.109, 8.648e-5
-1.110, 8.957e-5
-1.111, 8.957e-5
-1.112, 8.648e-5
-1.113, 8.340e-5
-1.114, 8.340e-5
-1.115, 8.340e-5
-1.116, 8.957e-5
-1.117, 9.265e-5
-1.118, 8.957e-5
-1.119, 8.648e-5
-1.120, 8.340e-5
-1.121, 8.648e-5
-1.122, 8.957e-5
-1.123, 9.265e-5
-1.124, 9.265e-5
-1.125, 9.265e-5
-1.126, 8.648e-5
-1.127, 8.648e-5
-1.128, 8.648e-5
-1.129, 8.957e-5
-1.130, 9.265e-5
-1.131, 9.265e-5
-1.132, 8.957e-5
-1.133, 8.957e-5
-1.134, 8.648e-5
-1.135, 8.648e-5
-1.136, 9.265e-5
-1.137, 9.573e-5
-1.138, 9.265e-5
-1.139, 8.957e-5
-1.140, 8.648e-5
-1.141, 8.648e-5
-1.142, 8.957e-5
-1.143, 9.573e-5
-1.144, 9.573e-5
-1.145, 9.265e-5
-1.146, 8.957e-5
-1.147, 8.648e-5
-1.148, 8.648e-5
-1.149, 9.265e-5
-1.150, 9.573e-5
-1.151, 9.265e-5
-1.152, 9.265e-5
-1.153, 8.957e-5
-1.154, 8.648e-5
-1.155, 8.957e-5
-1.156, 9.265e-5
-1.157, 9.573e-5
-1.158, 9.265e-5
-1.159, 8.957e-5
-1.160, 8.957e-5
-1.161, 8.957e-5
-1.162, 9.265e-5
-1.163, 9.573e-5
-1.164, 9.573e-5
-1.165, 9.265e-5
-1.166, 8.957e-5
-1.167, 8.648e-5
-1.168, 8.648e-5
-1.169, 9.265e-5
-1.170, 9.573e-5
-1.171, 9.265e-5
-1.172, 8.957e-5
-1.173, 8.648e-5
-1.174, 8.648e-5
-1.175, 8.957e-5
-1.176, 9.265e-5
-1.177, 9.573e-5
-1.178, 9.265e-5
-1.179, 8.957e-5
-1.180, 8.648e-5
-1.181, 8.648e-5
-1.182, 8.957e-5
-1.183, 9.265e-5
-1.184, 9.265e-5
-1.185, 9.265e-5
-1.186, 8.648e-5
-1.187, 8.648e-5
-1.188, 8.648e-5
-1.189, 8.957e-5
-1.190, 9.265e-5
-1.191, 9.265e-5
-1.192, 8.648e-5
-1.193, 8.648e-5
-1.194, 8.340e-5
-1.195, 8.648e-5
-1.196, 8.957e-5
-1.197, 9.265e-5
-1.198, 8.957e-5
-1.199, 8.648e-5
-1.200, 8.340e-5
-1.201, 8.648e-5
-1.202, 8.957e-5
-1.203, 8.957e-5
-1.204, 9.265e-5
-1.205, 8.957e-5
-1.206, 8.648e-5
-1.207, 8.340e-5
-1.208, 8.648e-5
-1.209, 8.957e-5
-1.210, 9.265e-5
-1.211, 8.957e-5
-1.212, 8.648e-5
-1.213, 8.340e-5
-1.214, 8.340e-5
-1.215, 8.648e-5
-1.216, 8.957e-5
-1.217, 9.265e-5
-1.218, 8.957e-5
-1.219, 8.648e-5
-1.220, 8.340e-5
-1.221, 8.340e-5
-1.222, 8.648e-5
-1.223, 8.957e-5
-1.224, 8.957e-5
-1.225, 8.648e-5
-1.226, 8.648e-5
-1.227, 8.340e-5
-1.228, 8.340e-5
-1.229, 8.648e-5
-1.230, 9.265e-5
-1.231, 9.265e-5
-1.232, 8.648e-5
-1.233, 8.648e-5
-1.234, 8.340e-5
-1.235, 8.648e-5
-1.236, 8.957e-5
-1.237, 8.957e-5
-1.238, 8.957e-5
-1.239, 8.648e-5
-1.240, 8.340e-5
-1.241, 8.648e-5
-1.242, 8.648e-5
-1.243, 8.957e-5
-1.244, 9.265e-5
-1.245, 8.957e-5
-1.246, 8.648e-5
-1.247, 8.340e-5
-1.248, 8.648e-5
-1.249, 8.957e-5
-1.250, 9.265e-5
-1.251, 8.957e-5
-1.252, 8.957e-5
-1.253, 8.648e-5
-1.254, 8.648e-5
-1.255, 8.957e-5
-1.256, 8.957e-5
-1.257, 9.573e-5
-1.258, 9.265e-5
-1.259, 8.957e-5
-1.260, 8.648e-5
-1.261, 8.648e-5
-1.262, 8.957e-5
-1.263, 9.573e-5
-1.264, 9.573e-5
-1.265, 9.265e-5
-1.266, 8.957e-5
-1.267, 8.648e-5
-1.268, 8.957e-5
-1.269, 9.265e-5
-1.270, 9.573e-5
-1.271, 9.573e-5
-1.272, 9.265e-5
-1.273, 9.265e-5
-1.274, 8.957e-5
-1.275, 9.265e-5
-1.276, 9.573e-5
-1.277, 9.882e-5
-1.278, 9.882e-5
-1.279, 9.573e-5
-1.280, 9.573e-5
-1.281, 9.573e-5
-1.282, 9.882e-5
-1.283, 9.882e-5
-1.284, 1.019e-4
-1.285, 1.019e-4
-1.286, 9.882e-5
-1.287, 9.573e-5
-1.288, 9.882e-5
-1.289, 1.019e-4
-1.290, 1.050e-4
-1.291, 1.050e-4
-1.292, 1.019e-4
-1.293, 1.019e-4
-1.294, 1.019e-4
-1.295, 1.050e-4
-1.296, 1.081e-4
-1.297, 1.111e-4
-1.298, 1.111e-4
-1.299, 1.081e-4
-1.300, 1.050e-4
-1.301, 1.081e-4
-1.302, 1.111e-4
-1.303, 1.142e-4
-1.304, 1.142e-4
-1.305, 1.142e-4
-1.306, 1.111e-4
-1.307, 1.111e-4
-1.308, 1.142e-4
-1.309, 1.173e-4
-1.310, 1.204e-4
-1.311, 1.235e-4
-1.312, 1.173e-4
-1.313, 1.173e-4
-1.314, 1.173e-4
-1.315, 1.204e-4
-1.316, 1.266e-4
-1.317, 1.296e-4
-1.318, 1.266e-4
-1.319, 1.266e-4
-1.320, 1.266e-4
-1.321, 1.266e-4
-1.322, 1.327e-4
-1.323, 1.327e-4
-1.324, 1.358e-4
-1.325, 1.358e-4
-1.326, 1.358e-4
-1.327, 1.327e-4
-1.328, 1.358e-4
-1.329, 1.420e-4
-1.330, 1.451e-4
-1.331, 1.481e-4
-1.332, 1.451e-4
-1.333, 1.451e-4
-1.334, 1.451e-4
-1.335, 1.481e-4
-1.336, 1.543e-4
-1.337, 1.574e-4
-1.338, 1.574e-4
-1.339, 1.574e-4
-1.340, 1.574e-4
-1.341, 1.574e-4
-1.342, 1.636e-4
-1.343, 1.666e-4
-1.344, 1.697e-4
-1.345, 1.728e-4
-1.346, 1.697e-4
-1.347, 1.697e-4
-1.348, 1.728e-4
-1.349, 1.790e-4
-1.350, 1.851e-4
-1.351, 1.851e-4
-1.352, 1.851e-4
-1.353, 1.851e-4
-1.354, 1.882e-4
-1.355, 1.882e-4
-1.356, 1.975e-4
-1.357, 2.006e-4
-1.358, 2.036e-4
-1.359, 2.036e-4
-1.360, 2.036e-4
-1.361, 2.067e-4
-1.362, 2.129e-4
-1.363, 2.160e-4
-1.364, 2.221e-4
-1.365, 2.221e-4
-1.366, 2.221e-4
-1.367, 2.252e-4
-1.368, 2.283e-4
-1.369, 2.345e-4
-1.370, 2.406e-4
-1.371, 2.437e-4
-1.372, 2.437e-4
-1.373, 2.468e-4
-1.374, 2.468e-4
-1.375, 2.530e-4
-1.376, 2.591e-4
-1.377, 2.653e-4
-1.378, 2.684e-4
-1.379, 2.715e-4
-1.380, 2.715e-4
-1.381, 2.776e-4
-1.382, 2.838e-4
-1.383, 2.900e-4
-1.384, 2.961e-4
-1.385, 2.992e-4
-1.386, 2.992e-4
-1.387, 3.054e-4
-1.388, 3.085e-4
-1.389, 3.177e-4
-1.390, 3.239e-4
-1.391, 3.300e-4
-1.392, 3.331e-4
-1.393, 3.362e-4
-1.394, 3.424e-4
-1.395, 3.455e-4
-1.396, 3.578e-4
-1.397, 3.670e-4
-1.398, 3.701e-4
-1.399, 3.732e-4
-1.400, 3.763e-4
-1.401, 3.825e-4
-1.402, 3.917e-4
-1.403, 4.010e-4
-1.404, 4.102e-4
-1.405, 4.164e-4
-1.406, 4.195e-4
-1.407, 4.256e-4
-1.408, 4.318e-4
-1.409, 4.441e-4
-1.410, 4.534e-4
-1.411, 4.626e-4
-1.412, 4.688e-4
-1.413, 4.750e-4
-1.414, 4.811e-4
-1.415, 4.904e-4
-1.416, 5.027e-4
-1.417, 5.150e-4
-1.418, 5.243e-4
-1.419, 5.305e-4
-1.420, 5.366e-4
-1.421, 5.459e-4
-1.422, 5.613e-4
-1.423, 5.736e-4
-1.424, 5.829e-4
-1.425, 5.952e-4
-1.426, 6.014e-4
-1.427, 6.106e-4
-1.428, 6.229e-4
-1.429, 6.353e-4
-1.430, 6.538e-4
-1.431, 6.661e-4
-1.432, 6.754e-4
-1.433, 6.846e-4
-1.434, 6.969e-4
-1.435, 7.093e-4
-1.436, 7.278e-4
-1.437, 7.432e-4
-1.438, 7.586e-4
-1.439, 7.679e-4
-1.440, 7.802e-4
-1.441, 7.956e-4
-1.442, 8.110e-4
-1.443, 8.295e-4
-1.444, 8.480e-4
-1.445, 8.634e-4
-1.446, 8.758e-4
-1.447, 8.881e-4
-1.448, 9.066e-4
-1.449, 9.251e-4
-1.450, 9.467e-4
-1.451, 9.621e-4
-1.452, 9.775e-4
-1.453, 9.929e-4
-1.454, 1.008e-3
-1.455, 1.027e-3
-1.456, 1.048e-3
-1.457, 1.070e-3
-1.458, 1.088e-3
-1.459, 1.104e-3
-1.460, 1.122e-3
-1.461, 1.138e-3
-1.462, 1.162e-3
-1.463, 1.184e-3
-1.464, 1.206e-3
-1.465, 1.221e-3
-1.466, 1.240e-3
-1.467, 1.258e-3
-1.468, 1.280e-3
-1.469, 1.301e-3
-1.470, 1.326e-3
-1.471, 1.347e-3
-1.472, 1.366e-3
-1.473, 1.384e-3
-1.474, 1.403e-3
-1.475, 1.425e-3
-1.476, 1.449e-3
-1.477, 1.474e-3
-1.478, 1.495e-3
-1.479, 1.517e-3
-1.480, 1.536e-3
-1.481, 1.557e-3
-1.482, 1.579e-3
-1.483, 1.603e-3
-1.484, 1.631e-3
-1.485, 1.653e-3
-1.486, 1.671e-3
-1.487, 1.690e-3
-1.488, 1.711e-3
-1.489, 1.736e-3
-1.490, 1.764e-3
-1.491, 1.785e-3
-1.492, 1.807e-3
-1.493, 1.825e-3
-1.494, 1.847e-3
-1.495, 1.869e-3
-1.496, 1.896e-3
-1.497, 1.924e-3
-1.498, 1.946e-3
-1.499, 1.967e-3
-1.500, 1.986e-3
-1.501, 2.004e-3
-1.502, 2.032e-3
-1.503, 2.057e-3
-1.504, 2.081e-3
-1.505, 2.106e-3
-1.506, 2.124e-3
-1.507, 2.143e-3
-1.508, 2.168e-3
-1.509, 2.192e-3
-1.510, 2.220e-3
-1.511, 2.242e-3
-1.512, 2.263e-3
-1.513, 2.285e-3
-1.514, 2.303e-3
-1.515, 2.328e-3
-1.516, 2.356e-3
-1.517, 2.380e-3
-1.518, 2.405e-3
-1.519, 2.427e-3
-1.520, 2.445e-3
-1.521, 2.467e-3
-1.522, 2.491e-3
-1.523, 2.516e-3
-1.524, 2.544e-3
-1.525, 2.565e-3
-1.526, 2.587e-3
-1.527, 2.605e-3
-1.528, 2.627e-3
-1.529, 2.655e-3
-1.530, 2.682e-3
-1.531, 2.704e-3
-1.532, 2.729e-3
-1.533, 2.750e-3
-1.534, 2.769e-3
-1.535, 2.790e-3
-1.536, 2.818e-3
-1.537, 2.846e-3
-1.538, 2.867e-3
-1.539, 2.889e-3
-1.540, 2.911e-3
-1.541, 2.932e-3
-1.542, 2.957e-3
-1.543, 2.985e-3
-1.544, 3.009e-3
-1.545, 3.034e-3
-1.546, 3.056e-3
-1.547, 3.077e-3
-1.548, 3.099e-3
-1.549, 3.126e-3
-1.550, 3.154e-3
-1.551, 3.182e-3
-1.552, 3.204e-3
-1.553, 3.228e-3
-1.554, 3.247e-3
-1.555, 3.274e-3
-1.556, 3.302e-3
-1.557, 3.330e-3
-1.558, 3.358e-3
-1.559, 3.379e-3
-1.560, 3.398e-3
-1.561, 3.425e-3
-1.562, 3.453e-3
-1.563, 3.481e-3
-1.564, 3.512e-3
-1.565, 3.536e-3
-1.566, 3.558e-3
-1.567, 3.583e-3
-1.568, 3.604e-3
-1.569, 3.638e-3
-1.570, 3.666e-3
-1.571, 3.697e-3
-1.572, 3.721e-3
-1.573, 3.746e-3
-1.574, 3.771e-3
-1.575, 3.795e-3
-1.576, 3.829e-3
-1.577, 3.860e-3
-1.578, 3.891e-3
-1.579, 3.916e-3
-1.580, 3.940e-3
-1.581, 3.968e-3
-1.582, 3.999e-3
-1.583, 4.030e-3
-1.584, 4.061e-3
-1.585, 4.091e-3
-1.586, 4.119e-3
-1.587, 4.144e-3
-1.588, 4.172e-3
-1.589, 4.206e-3
-1.590, 4.239e-3
-1.591, 4.273e-3
-1.592, 4.301e-3
-1.593, 4.332e-3
-1.594, 4.357e-3
-1.595, 4.384e-3
-1.596, 4.421e-3
-1.597, 4.458e-3
-1.598, 4.492e-3
-1.599, 4.523e-3
-1.600, 4.551e-3
-1.601, 4.582e-3
-1.602, 4.616e-3
-1.603, 4.653e-3
-1.604, 4.690e-3
-1.605, 4.723e-3
-1.606, 4.754e-3
-1.607, 4.785e-3
-1.608, 4.819e-3
-1.609, 4.856e-3
-1.610, 4.896e-3
-1.611, 4.933e-3
-1.612, 4.967e-3
-1.613, 5.001e-3
-1.614, 5.032e-3
-1.615, 5.069e-3
-1.616, 5.109e-3
-1.617, 5.152e-3
-1.618, 5.189e-3
-1.619, 5.223e-3
-1.620, 5.260e-3
-1.621, 5.294e-3
-1.622, 5.334e-3
-1.623, 5.374e-3
-1.624, 5.420e-3
-1.625, 5.463e-3
-1.626, 5.500e-3
-1.627, 5.537e-3
-1.628, 5.574e-3
-1.629, 5.618e-3
-1.630, 5.667e-3
-1.631, 5.710e-3
-1.632, 5.753e-3
-1.633, 5.793e-3
-1.634, 5.833e-3
-1.635, 5.877e-3
-1.636, 5.923e-3
-1.637, 5.969e-3
-1.638, 6.021e-3
-1.639, 6.068e-3
-1.640, 6.111e-3
-1.641, 6.151e-3
-1.642, 6.200e-3
-1.643, 6.253e-3
-1.644, 6.305e-3
-1.645, 6.354e-3
-1.646, 6.401e-3
-1.647, 6.441e-3
-1.648, 6.490e-3
-1.649, 6.543e-3
-1.650, 6.595e-3
-1.651, 6.650e-3
-1.652, 6.706e-3
-1.653, 6.752e-3
-1.654, 6.801e-3
-1.655, 6.854e-3
-1.656, 6.909e-3
-1.657, 6.971e-3
-1.658, 7.023e-3
-1.659, 7.073e-3
-1.660, 7.119e-3
-1.661, 7.171e-3
-1.662, 7.227e-3
-1.663, 7.286e-3
-1.664, 7.347e-3
-1.665, 7.406e-3
-1.666, 7.455e-3
-1.667, 7.504e-3
-1.668, 7.554e-3
-1.669, 7.609e-3
-1.670, 7.668e-3
-1.671, 7.730e-3
-1.672, 7.785e-3
-1.673, 7.841e-3
-1.674, 7.893e-3
-1.675, 7.951e-3
-1.676, 8.019e-3
-1.677, 8.084e-3
-1.678, 8.149e-3
-1.679, 8.210e-3
-1.680, 8.266e-3
-1.681, 8.325e-3
-1.682, 8.383e-3
-1.683, 8.451e-3
-1.684, 8.519e-3
-1.685, 8.587e-3
-1.686, 8.648e-3
-1.687, 8.710e-3
-1.688, 8.775e-3
-1.689, 8.846e-3
-1.690, 8.923e-3
-1.691, 9.000e-3
-1.692, 9.071e-3
-1.693, 9.135e-3
-1.694, 9.203e-3
-1.695, 9.274e-3
-1.696, 9.351e-3
-1.697, 9.431e-3
-1.698, 9.512e-3
-1.699, 9.589e-3
-1.700, 9.592e-3
-1.699, 9.508e-3
-1.698, 9.431e-3
-1.697, 9.357e-3
-1.696, 9.283e-3
-1.695, 9.203e-3
-1.694, 9.120e-3
-1.693, 9.037e-3
-1.692, 8.954e-3
-1.691, 8.873e-3
-1.690, 8.799e-3
-1.689, 8.719e-3
-1.688, 8.639e-3
-1.687, 8.556e-3
-1.686, 8.469e-3
-1.685, 8.389e-3
-1.684, 8.312e-3
-1.683, 8.238e-3
-1.682, 8.164e-3
-1.681, 8.087e-3
-1.680, 8.007e-3
-1.679, 7.924e-3
-1.678, 7.850e-3
-1.677, 7.779e-3
-1.676, 7.708e-3
-1.675, 7.634e-3
-1.674, 7.560e-3
-1.673, 7.483e-3
-1.672, 7.409e-3
-1.671, 7.338e-3
-1.670, 7.273e-3
-1.669, 7.202e-3
-1.668, 7.131e-3
-1.667, 7.057e-3
-1.666, 6.983e-3
-1.665, 6.916e-3
-1.664, 6.851e-3
-1.663, 6.789e-3
-1.662, 6.724e-3
-1.661, 6.657e-3
-1.660, 6.589e-3
-1.659, 6.521e-3
-1.658, 6.456e-3
-1.657, 6.398e-3
-1.656, 6.339e-3
-1.655, 6.274e-3
-1.654, 6.213e-3
-1.653, 6.148e-3
-1.652, 6.086e-3
-1.651, 6.025e-3
-1.650, 5.969e-3
-1.649, 5.914e-3
-1.648, 5.852e-3
-1.647, 5.790e-3
-1.646, 5.729e-3
-1.645, 5.673e-3
-1.644, 5.621e-3
-1.643, 5.571e-3
-1.642, 5.519e-3
-1.641, 5.463e-3
-1.640, 5.405e-3
-1.639, 5.349e-3
-1.638, 5.300e-3
-1.637, 5.251e-3
-1.636, 5.204e-3
-1.635, 5.155e-3
-1.634, 5.100e-3
-1.633, 5.047e-3
-1.632, 4.998e-3
-1.631, 4.952e-3
-1.630, 4.912e-3
-1.629, 4.868e-3
-1.628, 4.819e-3
-1.627, 4.770e-3
-1.626, 4.720e-3
-1.625, 4.677e-3
-1.624, 4.637e-3
-1.623, 4.597e-3
-1.622, 4.554e-3
-1.621, 4.511e-3
-1.620, 4.464e-3
-1.619, 4.421e-3
-1.618, 4.384e-3
-1.617, 4.347e-3
-1.616, 4.310e-3
-1.615, 4.270e-3
-1.614, 4.230e-3
-1.613, 4.187e-3
-1.612, 4.150e-3
-1.611, 4.116e-3
-1.610, 4.082e-3
-1.609, 4.048e-3
-1.608, 4.011e-3
-1.607, 3.974e-3
-1.606, 3.934e-3
-1.605, 3.900e-3
-1.604, 3.869e-3
-1.603, 3.842e-3
-1.602, 3.811e-3
-1.601, 3.774e-3
-1.600, 3.740e-3
-1.599, 3.709e-3
-1.598, 3.678e-3
-1.597, 3.651e-3
-1.596, 3.623e-3
-1.595, 3.592e-3
-1.594, 3.561e-3
-1.593, 3.527e-3
-1.592, 3.496e-3
-1.591, 3.472e-3
-1.590, 3.447e-3
-1.589, 3.422e-3
-1.588, 3.388e-3
-1.587, 3.361e-3
-1.586, 3.330e-3
-1.585, 3.305e-3
-1.584, 3.284e-3
-1.583, 3.262e-3
-1.582, 3.234e-3
-1.581, 3.207e-3
-1.580, 3.179e-3
-1.579, 3.154e-3
-1.578, 3.130e-3
-1.577, 3.108e-3
-1.576, 3.089e-3
-1.575, 3.065e-3
-1.574, 3.037e-3
-1.573, 3.009e-3
-1.572, 2.988e-3
-1.571, 2.969e-3
-1.570, 2.951e-3
-1.569, 2.926e-3
-1.568, 2.901e-3
-1.567, 2.880e-3
-1.566, 2.855e-3
-1.565, 2.834e-3
-1.564, 2.815e-3
-1.563, 2.797e-3
-1.562, 2.778e-3
-1.561, 2.753e-3
-1.560, 2.729e-3
-1.559, 2.707e-3
-1.558, 2.689e-3
-1.557, 2.673e-3
-1.556, 2.655e-3
-1.555, 2.633e-3
-1.554, 2.612e-3
-1.553, 2.587e-3
-1.552, 2.568e-3
-1.551, 2.553e-3
-1.550, 2.534e-3
-1.549, 2.516e-3
-1.548, 2.494e-3
-1.547, 2.473e-3
-1.546, 2.451e-3
-1.545, 2.433e-3
-1.544, 2.417e-3
-1.543, 2.402e-3
-1.542, 2.383e-3
-1.541, 2.362e-3
-1.540, 2.340e-3
-1.539, 2.322e-3
-1.538, 2.303e-3
-1.537, 2.288e-3
-1.536, 2.272e-3
-1.535, 2.254e-3
-1.534, 2.232e-3
-1.533, 2.211e-3
-1.532, 2.192e-3
-1.531, 2.177e-3
-1.530, 2.164e-3
-1.529, 2.146e-3
-1.528, 2.124e-3
-1.527, 2.106e-3
-1.526, 2.084e-3
-1.525, 2.069e-3
-1.524, 2.054e-3
-1.523, 2.041e-3
-1.522, 2.023e-3
-1.521, 2.001e-3
-1.520, 1.983e-3
-1.519, 1.964e-3
-1.518, 1.949e-3
-1.517, 1.930e-3
-1.516, 1.918e-3
-1.515, 1.899e-3
-1.514, 1.881e-3
-1.513, 1.859e-3
-1.512, 1.841e-3
-1.511, 1.828e-3
-1.510, 1.816e-3
-1.509, 1.798e-3
-1.508, 1.779e-3
-1.507, 1.761e-3
-1.506, 1.742e-3
-1.505, 1.724e-3
-1.504, 1.711e-3
-1.503, 1.699e-3
-1.502, 1.680e-3
-1.501, 1.662e-3
-1.500, 1.640e-3
-1.499, 1.625e-3
-1.498, 1.610e-3
-1.497, 1.597e-3
-1.496, 1.582e-3
-1.495, 1.566e-3
-1.494, 1.545e-3
-1.493, 1.526e-3
-1.492, 1.511e-3
-1.491, 1.495e-3
-1.490, 1.483e-3
-1.489, 1.468e-3
-1.488, 1.449e-3
-1.487, 1.431e-3
-1.486, 1.412e-3
-1.485, 1.400e-3
-1.484, 1.384e-3
-1.483, 1.372e-3
-1.482, 1.357e-3
-1.481, 1.338e-3
-1.480, 1.320e-3
-1.479, 1.304e-3
-1.478, 1.289e-3
-1.477, 1.280e-3
-1.476, 1.264e-3
-1.475, 1.246e-3
-1.474, 1.227e-3
-1.473, 1.212e-3
-1.472, 1.196e-3
-1.471, 1.187e-3
-1.470, 1.172e-3
-1.469, 1.159e-3
-1.468, 1.141e-3
-1.467, 1.125e-3
-1.466, 1.107e-3
-1.465, 1.095e-3
-1.464, 1.082e-3
-1.463, 1.070e-3
-1.462, 1.055e-3
-1.461, 1.039e-3
-1.460, 1.021e-3
-1.459, 1.008e-3
-1.458, 9.960e-4
-1.457, 9.837e-4
-1.456, 9.713e-4
-1.455, 9.559e-4
-1.454, 9.405e-4
-1.453, 9.220e-4
-1.452, 9.097e-4
-1.451, 8.973e-4
-1.450, 8.881e-4
-1.449, 8.758e-4
-1.448, 8.603e-4
-1.447, 8.449e-4
-1.446, 8.295e-4
-1.445, 8.172e-4
-1.444, 8.048e-4
-1.443, 7.956e-4
-1.442, 7.833e-4
-1.441, 7.679e-4
-1.440, 7.524e-4
-1.439, 7.401e-4
-1.438, 7.309e-4
-1.437, 7.185e-4
-1.436, 7.093e-4
-1.435, 6.969e-4
-1.434, 6.815e-4
-1.433, 6.661e-4
-1.432, 6.569e-4
-1.431, 6.476e-4
-1.430, 6.384e-4
-1.429, 6.260e-4
-1.428, 6.137e-4
-1.427, 6.014e-4
-1.426, 5.890e-4
-1.425, 5.798e-4
-1.424, 5.705e-4
-1.423, 5.644e-4
-1.422, 5.520e-4
-1.421, 5.397e-4
-1.420, 5.243e-4
-1.419, 5.150e-4
-1.418, 5.058e-4
-1.417, 4.996e-4
-1.416, 4.904e-4
-1.415, 4.811e-4
-1.414, 4.657e-4
-1.413, 4.565e-4
-1.412, 4.472e-4
-1.411, 4.410e-4
-1.410, 4.349e-4
-1.409, 4.256e-4
-1.408, 4.133e-4
-1.407, 4.040e-4
-1.406, 3.917e-4
-1.405, 3.855e-4
-1.404, 3.794e-4
-1.403, 3.763e-4
-1.402, 3.640e-4
-1.401, 3.547e-4
-1.400, 3.424e-4
-1.399, 3.362e-4
-1.398, 3.300e-4
-1.397, 3.239e-4
-1.396, 3.177e-4
-1.395, 3.115e-4
-1.394, 2.992e-4
-1.393, 2.900e-4
-1.392, 2.838e-4
-1.391, 2.807e-4
-1.390, 2.776e-4
-1.389, 2.684e-4
-1.388, 2.591e-4
-1.387, 2.499e-4
-1.386, 2.437e-4
-1.385, 2.376e-4
-1.384, 2.376e-4
-1.383, 2.314e-4
-1.382, 2.252e-4
-1.381, 2.160e-4
-1.380, 2.067e-4
-1.379, 2.036e-4
-1.378, 2.006e-4
-1.377, 1.975e-4
-1.376, 1.913e-4
-1.375, 1.851e-4
-1.374, 1.759e-4
-1.373, 1.697e-4
-1.372, 1.666e-4
-1.371, 1.636e-4
-1.370, 1.636e-4
-1.369, 1.574e-4
-1.368, 1.481e-4
-1.367, 1.420e-4
-1.366, 1.358e-4
-1.365, 1.327e-4
-1.364, 1.296e-4
-1.363, 1.296e-4
-1.362, 1.266e-4
-1.361, 1.173e-4
-1.360, 1.111e-4
-1.359, 1.081e-4
-1.358, 1.081e-4
-1.357, 1.050e-4
-1.356, 1.019e-4
-1.355, 9.573e-5
-1.354, 8.957e-5
-1.353, 8.340e-5
-1.352, 8.032e-5
-1.351, 8.032e-5
-1.350, 8.032e-5
-1.349, 7.723e-5
-1.348, 7.107e-5
-1.347, 6.490e-5
-1.346, 6.182e-5
-1.345, 5.873e-5
-1.344, 6.182e-5
-1.343, 5.873e-5
-1.342, 5.565e-5
-1.341, 4.949e-5
-1.340, 4.332e-5
-1.339, 4.024e-5
-1.338, 4.332e-5
-1.337, 4.024e-5
-1.336, 4.024e-5
-1.335, 3.407e-5
-1.334, 3.099e-5
-1.333, 2.482e-5
-1.332, 2.482e-5
-1.331, 2.482e-5
-1.330, 2.482e-5
-1.329, 2.174e-5
-1.328, 1.865e-5
-1.327, 1.249e-5
-1.326, 9.405e-6
-1.325, 9.405e-6
-1.324, 1.249e-5
-1.323, 1.249e-5
-1.322, 6.322e-6
-1.321, 3.239e-6
-1.320, -2.927e-6
-1.319, -2.927e-6
-1.318, -2.927e-6
-1.317, 1.559e-7
-1.316, -2.927e-6
-1.315, -6.010e-6
-1.314, -9.093e-6
-1.313, -1.526e-5
-1.312, -1.526e-5
-1.311, -1.218e-5
-1.310, -1.218e-5
-1.309, -1.218e-5
-1.308, -1.834e-5
-1.307, -2.143e-5
-1.306, -2.451e-5
-1.305, -2.451e-5
-1.304, -2.143e-5
-1.303, -2.143e-5
-1.302, -2.451e-5
-1.301, -2.759e-5
-1.300, -3.068e-5
-1.299, -3.068e-5
-1.298, -2.759e-5
-1.297, -3.068e-5
-1.296, -2.759e-5
-1.295, -3.068e-5
-1.294, -3.684e-5
-1.293, -3.992e-5
-1.292, -3.992e-5
-1.291, -3.684e-5
-1.290, -3.376e-5
-1.289, -3.684e-5
-1.288, -3.992e-5
-1.287, -4.301e-5
-1.286, -4.609e-5
-1.285, -4.609e-5
-1.284, -4.301e-5
-1.283, -3.992e-5
-1.282, -4.301e-5
-1.281, -4.609e-5
-1.280, -5.226e-5
-1.279, -4.917e-5
-1.278, -4.917e-5
-1.277, -4.609e-5
-1.276, -4.917e-5
-1.275, -4.917e-5
-1.274, -5.226e-5
-1.273, -5.534e-5
-1.272, -5.534e-5
-1.271, -5.226e-5
-1.270, -5.226e-5
-1.269, -5.226e-5
-1.268, -5.534e-5
-1.267, -5.842e-5
-1.266, -5.842e-5
-1.265, -5.842e-5
-1.264, -5.534e-5
-1.263, -5.226e-5
-1.262, -5.534e-5
-1.261, -5.842e-5
-1.260, -6.151e-5
-1.259, -6.151e-5
-1.258, -6.151e-5
-1.257, -5.842e-5
-1.256, -5.842e-5
-1.255, -6.151e-5
-1.254, -6.459e-5
-1.253, -6.459e-5
-1.252, -6.459e-5
-1.251, -6.151e-5
-1.250, -5.842e-5
-1.249, -6.151e-5
-1.248, -6.459e-5
-1.247, -6.767e-5
-1.246, -6.767e-5
-1.245, -6.767e-5
-1.244, -6.459e-5
-1.243, -6.151e-5
-1.242, -6.459e-5
-1.241, -6.767e-5
-1.240, -7.076e-5
-1.239, -7.076e-5
-1.238, -6.767e-5
-1.237, -6.459e-5
-1.236, -6.459e-5
-1.235, -6.767e-5
-1.234, -7.076e-5
-1.233, -7.384e-5
-1.232, -7.076e-5
-1.231, -6.767e-5
-1.230, -6.459e-5
-1.229, -6.767e-5
-1.228, -7.076e-5
-1.227, -7.384e-5
-1.226, -7.384e-5
-1.225, -7.384e-5
-1.224, -6.767e-5
-1.223, -6.767e-5
-1.222, -6.767e-5
-1.221, -7.384e-5
-1.220, -7.692e-5
-1.219, -7.384e-5
-1.218, -7.076e-5
-1.217, -7.076e-5
-1.216, -6.767e-5
-1.215, -7.384e-5
-1.214, -7.384e-5
-1.213, -7.692e-5
-1.212, -7.692e-5
-1.211, -7.384e-5
-1.210, -7.076e-5
-1.209, -7.384e-5
-1.208, -7.384e-5
-1.207, -7.692e-5
-1.206, -8.000e-5
-1.205, -7.692e-5
-1.204, -7.384e-5
-1.203, -7.076e-5
-1.202, -7.384e-5
-1.201, -7.692e-5
-1.200, -8.000e-5
-1.199, -7.692e-5
-1.198, -7.692e-5
-1.197, -7.384e-5
-1.196, -7.384e-5
-1.195, -7.384e-5
-1.194, -7.692e-5
-1.193, -8.000e-5
-1.192, -8.000e-5
-1.191, -7.692e-5
-1.190, -7.384e-5
-1.189, -7.692e-5
-1.188, -8.000e-5
-1.187, -8.000e-5
-1.186, -8.000e-5
-1.185, -8.000e-5
-1.184, -7.692e-5
-1.183, -7.384e-5
-1.182, -7.692e-5
-1.181, -8.000e-5
-1.180, -8.309e-5
-1.179, -8.309e-5
-1.178, -8.000e-5
-1.177, -7.692e-5
-1.176, -7.692e-5
-1.175, -7.692e-5
-1.174, -8.309e-5
-1.173, -8.309e-5
-1.172, -8.309e-5
-1.171, -8.000e-5
-1.170, -7.692e-5
-1.169, -8.000e-5
-1.168, -8.000e-5
-1.167, -8.309e-5
-1.166, -8.617e-5
-1.165, -8.309e-5
-1.164, -8.000e-5
-1.163, -7.692e-5
-1.162, -8.000e-5
-1.161, -8.617e-5
-1.160, -8.617e-5
-1.159, -8.617e-5
-1.158, -8.309e-5
-1.157, -8.000e-5
-1.156, -8.000e-5
-1.155, -8.309e-5
-1.154, -8.617e-5
-1.153, -8.925e-5
-1.152, -8.617e-5
-1.151, -8.617e-5
-1.150, -8.309e-5
-1.149, -8.309e-5
-1.148, -8.617e-5
-1.147, -8.925e-5
-1.146, -8.925e-5
-1.145, -8.925e-5
-1.144, -8.617e-5
-1.143, -8.309e-5
-1.142, -8.617e-5
-1.141, -8.617e-5
-1.140, -9.234e-5
-1.139, -9.234e-5
-1.138, -8.925e-5
-1.137, -8.617e-5
-1.136, -8.617e-5
-1.135, -8.617e-5
-1.134, -9.234e-5
-1.133, -9.234e-5
-1.132, -9.234e-5
-1.131, -8.925e-5
-1.130, -8.617e-5
-1.129, -8.925e-5
-1.128, -9.234e-5
-1.127, -9.542e-5
-1.126, -9.542e-5
-1.125, -9.542e-5
-1.124, -8.925e-5
-1.123, -8.925e-5
-1.122, -8.925e-5
-1.121, -9.542e-5
-1.120, -9.850e-5
-1.119, -9.850e-5
-1.118, -9.234e-5
-1.117, -9.234e-5
-1.116, -9.234e-5
-1.115, -9.542e-5
-1.114, -9.850e-5
-1.113, -9.850e-5
-1.112, -9.850e-5
-1.111, -9.542e-5
-1.110, -9.234e-5
-1.109, -9.542e-5
-1.108, -9.850e-5
-1.107, -9.850e-5
-1.106, -1.016e-4
-1.105, -1.016e-4
-1.104, -9.542e-5
-1.103, -9.542e-5
-1.102, -9.542e-5
-1.101, -1.016e-4
-1.100, -1.047e-4
-1.099, -1.047e-4
-1.098, -1.016e-4
-1.097, -9.850e-5
-1.096, -9.850e-5
-1.095, -9.850e-5
-1.094, -1.047e-4
-1.093, -1.078e-4
-1.092, -1.078e-4
-1.091, -1.016e-4
-1.090, -9.850e-5
-1.089, -1.016e-4
-1.088, -1.047e-4
-1.087, -1.078e-4
-1.086, -1.078e-4
-1.085, -1.078e-4
-1.084, -1.047e-4
-1.083, -1.016e-4
-1.082, -1.047e-4
-1.081, -1.078e-4
-1.080, -1.108e-4
-1.079, -1.108e-4
-1.078, -1.078e-4
-1.077, -1.078e-4
-1.076, -1.047e-4
-1.075, -1.078e-4
-1.074, -1.139e-4
-1.073, -1.170e-4
-1.072, -1.139e-4
-1.071, -1.139e-4
-1.070, -1.108e-4
-1.069, -1.108e-4
-1.068, -1.139e-4
-1.067, -1.170e-4
-1.066, -1.201e-4
-1.065, -1.201e-4
-1.064, -1.139e-4
-1.063, -1.139e-4
-1.062, -1.170e-4
-1.061, -1.201e-4
-1.060, -1.232e-4
-1.059, -1.232e-4
-1.058, -1.201e-4
-1.057, -1.201e-4
-1.056, -1.170e-4
-1.055, -1.201e-4
-1.054, -1.263e-4
-1.053, -1.263e-4
-1.052, -1.293e-4
-1.051, -1.263e-4
-1.050, -1.232e-4
-1.049, -1.232e-4
-1.048, -1.263e-4
-1.047, -1.324e-4
-1.046, -1.324e-4
-1.045, -1.324e-4
-1.044, -1.293e-4
-1.043, -1.293e-4
-1.042, -1.293e-4
-1.041, -1.355e-4
-1.040, -1.386e-4
-1.039, -1.386e-4
-1.038, -1.386e-4
-1.037, -1.355e-4
-1.036, -1.355e-4
-1.035, -1.386e-4
-1.034, -1.417e-4
-1.033, -1.448e-4
-1.032, -1.448e-4
-1.031, -1.448e-4
-1.030, -1.417e-4
-1.029, -1.417e-4
-1.028, -1.448e-4
-1.027, -1.509e-4
-1.026, -1.540e-4
-1.025, -1.540e-4
-1.024, -1.478e-4
-1.023, -1.478e-4
-1.022, -1.509e-4
-1.021, -1.540e-4
-1.020, -1.571e-4
-1.019, -1.571e-4
-1.018, -1.571e-4
-1.017, -1.540e-4
-1.016, -1.540e-4
-1.015, -1.571e-4
-1.014, -1.632e-4
-1.013, -1.663e-4
-1.012, -1.663e-4
-1.011, -1.602e-4
-1.010, -1.602e-4
-1.009, -1.602e-4
-1.008, -1.632e-4
-1.007, -1.663e-4
-1.006, -1.694e-4
-1.005, -1.694e-4
-1.004, -1.663e-4
-1.003, -1.632e-4
-1.002, -1.632e-4
-1.001, -1.694e-4
