Sept. 13, 2024   17:13:42
Cyclic Voltammetry
File: c:/users/guazh/data/20240903_batch_252_500/2024-09-03-exp344\exp344-2024-09-13t16_48_53-arkoh\exp344_cv_sr_600mvs_efin_-1900mv.bin
Data Source:  Experiment
Instrument Model:  CHI760E
Header: CV ran at 600 mVs
Note: 

Init E (V) = -1
High E (V) = -1
Low E (V) = -1.9
Final E (V) = -1
Init P/N = N
Scan Rate (V/s) = 0.6
Segment = 3
Sample Interval (V) = 0.001
Quiet Time (sec) = 2
Sensitivity (A/V) = 0.01
Comp R (ohm) = 1.6

Results:

Channel 1:
Segment 1:

Segment 2:

Segment 3:

Potential/V, Current/A

-1.000, 6.322e-6
-1.001, 1.249e-5
-1.002, 1.865e-5
-1.003, 1.865e-5
-1.004, 2.174e-5
-1.005, 2.174e-5
-1.006, 2.482e-5
-1.007, 2.482e-5
-1.008, 2.482e-5
-1.009, 2.482e-5
-1.010, 2.790e-5
-1.011, 2.482e-5
-1.012, 2.790e-5
-1.013, 2.790e-5
-1.014, 2.790e-5
-1.015, 2.790e-5
-1.016, 2.790e-5
-1.017, 2.790e-5
-1.018, 2.790e-5
-1.019, 2.790e-5
-1.020, 2.790e-5
-1.021, 2.790e-5
-1.022, 2.790e-5
-1.023, 2.790e-5
-1.024, 2.790e-5
-1.025, 2.790e-5
-1.026, 2.790e-5
-1.027, 3.099e-5
-1.028, 3.099e-5
-1.029, 3.099e-5
-1.030, 2.790e-5
-1.031, 2.790e-5
-1.032, 3.099e-5
-1.033, 3.099e-5
-1.034, 2.790e-5
-1.035, 3.099e-5
-1.036, 2.790e-5
-1.037, 3.099e-5
-1.038, 3.099e-5
-1.039, 3.099e-5
-1.040, 3.099e-5
-1.041, 3.099e-5
-1.042, 3.099e-5
-1.043, 3.099e-5
-1.044, 2.790e-5
-1.045, 3.099e-5
-1.046, 3.099e-5
-1.047, 3.099e-5
-1.048, 3.099e-5
-1.049, 3.099e-5
-1.050, 3.099e-5
-1.051, 3.099e-5
-1.052, 3.099e-5
-1.053, 3.099e-5
-1.054, 3.099e-5
-1.055, 3.099e-5
-1.056, 3.099e-5
-1.057, 3.099e-5
-1.058, 3.099e-5
-1.059, 3.099e-5
-1.060, 3.099e-5
-1.061, 3.099e-5
-1.062, 3.099e-5
-1.063, 3.099e-5
-1.064, 3.099e-5
-1.065, 3.099e-5
-1.066, 3.099e-5
-1.067, 3.099e-5
-1.068, 3.099e-5
-1.069, 3.099e-5
-1.070, 3.099e-5
-1.071, 3.099e-5
-1.072, 3.099e-5
-1.073, 3.099e-5
-1.074, 3.099e-5
-1.075, 3.099e-5
-1.076, 3.099e-5
-1.077, 3.099e-5
-1.078, 3.099e-5
-1.079, 3.099e-5
-1.080, 3.099e-5
-1.081, 3.099e-5
-1.082, 3.099e-5
-1.083, 3.099e-5
-1.084, 3.099e-5
-1.085, 3.099e-5
-1.086, 3.099e-5
-1.087, 3.099e-5
-1.088, 3.099e-5
-1.089, 3.099e-5
-1.090, 3.099e-5
-1.091, 3.099e-5
-1.092, 3.099e-5
-1.093, 3.099e-5
-1.094, 3.099e-5
-1.095, 3.099e-5
-1.096, 3.099e-5
-1.097, 3.099e-5
-1.098, 3.099e-5
-1.099, 3.099e-5
-1.100, 3.099e-5
-1.101, 3.099e-5
-1.102, 3.099e-5
-1.103, 3.099e-5
-1.104, 3.099e-5
-1.105, 3.099e-5
-1.106, 3.099e-5
-1.107, 3.099e-5
-1.108, 3.099e-5
-1.109, 3.099e-5
-1.110, 3.099e-5
-1.111, 3.099e-5
-1.112, 3.099e-5
-1.113, 3.099e-5
-1.114, 3.099e-5
-1.115, 3.099e-5
-1.116, 3.099e-5
-1.117, 3.099e-5
-1.118, 3.099e-5
-1.119, 3.099e-5
-1.120, 3.099e-5
-1.121, 3.099e-5
-1.122, 3.099e-5
-1.123, 3.099e-5
-1.124, 3.099e-5
-1.125, 3.099e-5
-1.126, 3.099e-5
-1.127, 3.099e-5
-1.128, 3.407e-5
-1.129, 3.407e-5
-1.130, 3.099e-5
-1.131, 3.099e-5
-1.132, 3.407e-5
-1.133, 3.099e-5
-1.134, 3.407e-5
-1.135, 3.099e-5
-1.136, 3.099e-5
-1.137, 3.407e-5
-1.138, 3.407e-5
-1.139, 3.099e-5
-1.140, 3.407e-5
-1.141, 3.099e-5
-1.142, 3.099e-5
-1.143, 3.407e-5
-1.144, 3.099e-5
-1.145, 3.407e-5
-1.146, 3.407e-5
-1.147, 3.099e-5
-1.148, 3.407e-5
-1.149, 3.407e-5
-1.150, 3.407e-5
-1.151, 3.407e-5
-1.152, 3.407e-5
-1.153, 3.099e-5
-1.154, 3.099e-5
-1.155, 3.099e-5
-1.156, 3.407e-5
-1.157, 3.407e-5
-1.158, 3.407e-5
-1.159, 3.407e-5
-1.160, 3.407e-5
-1.161, 3.407e-5
-1.162, 3.407e-5
-1.163, 3.407e-5
-1.164, 3.407e-5
-1.165, 3.407e-5
-1.166, 3.407e-5
-1.167, 3.407e-5
-1.168, 3.407e-5
-1.169, 3.407e-5
-1.170, 3.407e-5
-1.171, 3.407e-5
-1.172, 3.407e-5
-1.173, 3.407e-5
-1.174, 3.407e-5
-1.175, 3.407e-5
-1.176, 3.407e-5
-1.177, 3.407e-5
-1.178, 3.407e-5
-1.179, 3.407e-5
-1.180, 3.407e-5
-1.181, 3.099e-5
-1.182, 3.407e-5
-1.183, 3.407e-5
-1.184, 3.099e-5
-1.185, 3.407e-5
-1.186, 3.407e-5
-1.187, 3.407e-5
-1.188, 3.407e-5
-1.189, 3.407e-5
-1.190, 3.407e-5
-1.191, 3.407e-5
-1.192, 3.407e-5
-1.193, 3.407e-5
-1.194, 3.407e-5
-1.195, 3.407e-5
-1.196, 3.407e-5
-1.197, 3.407e-5
-1.198, 3.407e-5
-1.199, 3.407e-5
-1.200, 3.407e-5
-1.201, 3.407e-5
-1.202, 3.407e-5
-1.203, 3.407e-5
-1.204, 3.407e-5
-1.205, 3.407e-5
-1.206, 3.407e-5
-1.207, 3.407e-5
-1.208, 3.407e-5
-1.209, 3.407e-5
-1.210, 3.407e-5
-1.211, 3.407e-5
-1.212, 3.407e-5
-1.213, 3.407e-5
-1.214, 3.407e-5
-1.215, 3.407e-5
-1.216, 3.407e-5
-1.217, 3.407e-5
-1.218, 3.407e-5
-1.219, 3.407e-5
-1.220, 3.407e-5
-1.221, 3.407e-5
-1.222, 3.407e-5
-1.223, 3.407e-5
-1.224, 3.407e-5
-1.225, 3.407e-5
-1.226, 3.407e-5
-1.227, 3.407e-5
-1.228, 3.407e-5
-1.229, 3.407e-5
-1.230, 3.407e-5
-1.231, 3.407e-5
-1.232, 3.407e-5
-1.233, 3.407e-5
-1.234, 3.407e-5
-1.235, 3.407e-5
-1.236, 3.407e-5
-1.237, 3.407e-5
-1.238, 3.407e-5
-1.239, 3.407e-5
-1.240, 3.407e-5
-1.241, 3.407e-5
-1.242, 3.407e-5
-1.243, 3.407e-5
-1.244, 3.407e-5
-1.245, 3.407e-5
-1.246, 3.407e-5
-1.247, 3.407e-5
-1.248, 3.407e-5
-1.249, 3.407e-5
-1.250, 3.407e-5
-1.251, 3.407e-5
-1.252, 3.407e-5
-1.253, 3.715e-5
-1.254, 3.407e-5
-1.255, 3.407e-5
-1.256, 3.407e-5
-1.257, 3.407e-5
-1.258, 3.407e-5
-1.259, 3.715e-5
-1.260, 3.407e-5
-1.261, 3.407e-5
-1.262, 3.407e-5
-1.263, 3.407e-5
-1.264, 3.407e-5
-1.265, 3.407e-5
-1.266, 3.407e-5
-1.267, 3.407e-5
-1.268, 3.407e-5
-1.269, 3.407e-5
-1.270, 3.715e-5
-1.271, 3.407e-5
-1.272, 3.407e-5
-1.273, 3.715e-5
-1.274, 3.715e-5
-1.275, 3.407e-5
-1.276, 3.715e-5
-1.277, 3.715e-5
-1.278, 3.407e-5
-1.279, 3.715e-5
-1.280, 3.407e-5
-1.281, 3.407e-5
-1.282, 3.715e-5
-1.283, 3.407e-5
-1.284, 3.715e-5
-1.285, 3.407e-5
-1.286, 3.407e-5
-1.287, 3.715e-5
-1.288, 3.715e-5
-1.289, 3.407e-5
-1.290, 3.715e-5
-1.291, 3.715e-5
-1.292, 3.715e-5
-1.293, 3.715e-5
-1.294, 3.715e-5
-1.295, 3.407e-5
-1.296, 3.715e-5
-1.297, 3.715e-5
-1.298, 3.715e-5
-1.299, 3.715e-5
-1.300, 3.715e-5
-1.301, 3.715e-5
-1.302, 3.715e-5
-1.303, 3.715e-5
-1.304, 3.715e-5
-1.305, 3.715e-5
-1.306, 3.715e-5
-1.307, 3.715e-5
-1.308, 3.715e-5
-1.309, 3.715e-5
-1.310, 3.715e-5
-1.311, 3.715e-5
-1.312, 3.715e-5
-1.313, 3.715e-5
-1.314, 3.715e-5
-1.315, 3.715e-5
-1.316, 3.715e-5
-1.317, 3.715e-5
-1.318, 3.715e-5
-1.319, 3.715e-5
-1.320, 3.715e-5
-1.321, 3.715e-5
-1.322, 3.715e-5
-1.323, 3.715e-5
-1.324, 3.715e-5
-1.325, 3.715e-5
-1.326, 3.715e-5
-1.327, 3.715e-5
-1.328, 3.715e-5
-1.329, 3.715e-5
-1.330, 3.715e-5
-1.331, 3.715e-5
-1.332, 3.715e-5
-1.333, 3.715e-5
-1.334, 3.715e-5
-1.335, 3.715e-5
-1.336, 3.715e-5
-1.337, 3.715e-5
-1.338, 3.715e-5
-1.339, 4.024e-5
-1.340, 3.715e-5
-1.341, 3.715e-5
-1.342, 4.024e-5
-1.343, 3.715e-5
-1.344, 3.715e-5
-1.345, 3.715e-5
-1.346, 3.715e-5
-1.347, 3.715e-5
-1.348, 4.024e-5
-1.349, 3.715e-5
-1.350, 3.715e-5
-1.351, 4.024e-5
-1.352, 4.024e-5
-1.353, 4.024e-5
-1.354, 4.024e-5
-1.355, 3.715e-5
-1.356, 4.024e-5
-1.357, 4.024e-5
-1.358, 4.024e-5
-1.359, 4.024e-5
-1.360, 4.024e-5
-1.361, 4.024e-5
-1.362, 4.024e-5
-1.363, 4.024e-5
-1.364, 4.024e-5
-1.365, 4.024e-5
-1.366, 4.024e-5
-1.367, 4.024e-5
-1.368, 4.024e-5
-1.369, 4.024e-5
-1.370, 4.024e-5
-1.371, 4.024e-5
-1.372, 4.024e-5
-1.373, 4.024e-5
-1.374, 4.024e-5
-1.375, 4.024e-5
-1.376, 4.024e-5
-1.377, 4.024e-5
-1.378, 4.024e-5
-1.379, 4.024e-5
-1.380, 4.024e-5
-1.381, 4.024e-5
-1.382, 4.024e-5
-1.383, 4.332e-5
-1.384, 4.024e-5
-1.385, 4.024e-5
-1.386, 4.024e-5
-1.387, 4.332e-5
-1.388, 4.332e-5
-1.389, 4.332e-5
-1.390, 4.024e-5
-1.391, 4.024e-5
-1.392, 4.332e-5
-1.393, 4.332e-5
-1.394, 4.332e-5
-1.395, 4.332e-5
-1.396, 4.332e-5
-1.397, 4.332e-5
-1.398, 4.332e-5
-1.399, 4.332e-5
-1.400, 4.332e-5
-1.401, 4.332e-5
-1.402, 4.332e-5
-1.403, 4.332e-5
-1.404, 4.332e-5
-1.405, 4.332e-5
-1.406, 4.332e-5
-1.407, 4.332e-5
-1.408, 4.332e-5
-1.409, 4.640e-5
-1.410, 4.332e-5
-1.411, 4.332e-5
-1.412, 4.640e-5
-1.413, 4.640e-5
-1.414, 4.332e-5
-1.415, 4.640e-5
-1.416, 4.640e-5
-1.417, 4.640e-5
-1.418, 4.640e-5
-1.419, 4.640e-5
-1.420, 4.640e-5
-1.421, 4.640e-5
-1.422, 4.640e-5
-1.423, 4.640e-5
-1.424, 4.640e-5
-1.425, 4.640e-5
-1.426, 4.640e-5
-1.427, 4.640e-5
-1.428, 4.949e-5
-1.429, 4.949e-5
-1.430, 4.949e-5
-1.431, 4.949e-5
-1.432, 4.949e-5
-1.433, 4.949e-5
-1.434, 4.949e-5
-1.435, 4.949e-5
-1.436, 4.949e-5
-1.437, 4.949e-5
-1.438, 5.257e-5
-1.439, 4.949e-5
-1.440, 4.949e-5
-1.441, 5.257e-5
-1.442, 5.257e-5
-1.443, 5.257e-5
-1.444, 5.257e-5
-1.445, 5.257e-5
-1.446, 5.257e-5
-1.447, 5.257e-5
-1.448, 5.257e-5
-1.449, 5.257e-5
-1.450, 5.257e-5
-1.451, 5.257e-5
-1.452, 5.565e-5
-1.453, 5.565e-5
-1.454, 5.565e-5
-1.455, 5.565e-5
-1.456, 5.565e-5
-1.457, 5.565e-5
-1.458, 5.565e-5
-1.459, 5.873e-5
-1.460, 5.873e-5
-1.461, 5.873e-5
-1.462, 5.873e-5
-1.463, 5.873e-5
-1.464, 5.873e-5
-1.465, 6.182e-5
-1.466, 6.182e-5
-1.467, 5.873e-5
-1.468, 6.182e-5
-1.469, 6.182e-5
-1.470, 6.182e-5
-1.471, 6.182e-5
-1.472, 6.182e-5
-1.473, 6.490e-5
-1.474, 6.490e-5
-1.475, 6.490e-5
-1.476, 6.490e-5
-1.477, 6.490e-5
-1.478, 6.490e-5
-1.479, 6.490e-5
-1.480, 6.798e-5
-1.481, 6.798e-5
-1.482, 6.798e-5
-1.483, 6.798e-5
-1.484, 6.798e-5
-1.485, 6.798e-5
-1.486, 7.107e-5
-1.487, 7.107e-5
-1.488, 7.107e-5
-1.489, 7.107e-5
-1.490, 7.107e-5
-1.491, 7.415e-5
-1.492, 7.415e-5
-1.493, 7.415e-5
-1.494, 7.415e-5
-1.495, 7.723e-5
-1.496, 7.723e-5
-1.497, 7.723e-5
-1.498, 7.723e-5
-1.499, 7.723e-5
-1.500, 8.032e-5
-1.501, 8.032e-5
-1.502, 8.032e-5
-1.503, 8.340e-5
-1.504, 8.340e-5
-1.505, 8.340e-5
-1.506, 8.340e-5
-1.507, 8.340e-5
-1.508, 8.648e-5
-1.509, 8.648e-5
-1.510, 8.648e-5
-1.511, 8.957e-5
-1.512, 8.957e-5
-1.513, 8.957e-5
-1.514, 9.265e-5
-1.515, 9.265e-5
-1.516, 9.265e-5
-1.517, 9.573e-5
-1.518, 9.573e-5
-1.519, 9.573e-5
-1.520, 9.882e-5
-1.521, 9.882e-5
-1.522, 9.882e-5
-1.523, 1.019e-4
-1.524, 1.019e-4
-1.525, 1.019e-4
-1.526, 1.050e-4
-1.527, 1.050e-4
-1.528, 1.050e-4
-1.529, 1.081e-4
-1.530, 1.081e-4
-1.531, 1.111e-4
-1.532, 1.111e-4
-1.533, 1.111e-4
-1.534, 1.142e-4
-1.535, 1.142e-4
-1.536, 1.142e-4
-1.537, 1.173e-4
-1.538, 1.173e-4
-1.539, 1.204e-4
-1.540, 1.204e-4
-1.541, 1.235e-4
-1.542, 1.235e-4
-1.543, 1.266e-4
-1.544, 1.266e-4
-1.545, 1.296e-4
-1.546, 1.296e-4
-1.547, 1.327e-4
-1.548, 1.327e-4
-1.549, 1.358e-4
-1.550, 1.358e-4
-1.551, 1.389e-4
-1.552, 1.389e-4
-1.553, 1.420e-4
-1.554, 1.420e-4
-1.555, 1.451e-4
-1.556, 1.451e-4
-1.557, 1.481e-4
-1.558, 1.481e-4
-1.559, 1.512e-4
-1.560, 1.543e-4
-1.561, 1.543e-4
-1.562, 1.574e-4
-1.563, 1.605e-4
-1.564, 1.605e-4
-1.565, 1.636e-4
-1.566, 1.636e-4
-1.567, 1.666e-4
-1.568, 1.697e-4
-1.569, 1.697e-4
-1.570, 1.728e-4
-1.571, 1.759e-4
-1.572, 1.790e-4
-1.573, 1.790e-4
-1.574, 1.821e-4
-1.575, 1.821e-4
-1.576, 1.851e-4
-1.577, 1.882e-4
-1.578, 1.913e-4
-1.579, 1.944e-4
-1.580, 1.975e-4
-1.581, 1.975e-4
-1.582, 2.006e-4
-1.583, 2.036e-4
-1.584, 2.036e-4
-1.585, 2.067e-4
-1.586, 2.098e-4
-1.587, 2.129e-4
-1.588, 2.160e-4
-1.589, 2.191e-4
-1.590, 2.221e-4
-1.591, 2.221e-4
-1.592, 2.252e-4
-1.593, 2.283e-4
-1.594, 2.314e-4
-1.595, 2.345e-4
-1.596, 2.376e-4
-1.597, 2.406e-4
-1.598, 2.406e-4
-1.599, 2.468e-4
-1.600, 2.499e-4
-1.601, 2.530e-4
-1.602, 2.561e-4
-1.603, 2.591e-4
-1.604, 2.591e-4
-1.605, 2.653e-4
-1.606, 2.653e-4
-1.607, 2.715e-4
-1.608, 2.746e-4
-1.609, 2.776e-4
-1.610, 2.807e-4
-1.611, 2.838e-4
-1.612, 2.869e-4
-1.613, 2.900e-4
-1.614, 2.931e-4
-1.615, 2.961e-4
-1.616, 3.023e-4
-1.617, 3.054e-4
-1.618, 3.085e-4
-1.619, 3.115e-4
-1.620, 3.146e-4
-1.621, 3.208e-4
-1.622, 3.239e-4
-1.623, 3.270e-4
-1.624, 3.300e-4
-1.625, 3.362e-4
-1.626, 3.393e-4
-1.627, 3.424e-4
-1.628, 3.455e-4
-1.629, 3.516e-4
-1.630, 3.547e-4
-1.631, 3.578e-4
-1.632, 3.640e-4
-1.633, 3.670e-4
-1.634, 3.701e-4
-1.635, 3.763e-4
-1.636, 3.794e-4
-1.637, 3.855e-4
-1.638, 3.886e-4
-1.639, 3.948e-4
-1.640, 3.979e-4
-1.641, 4.040e-4
-1.642, 4.071e-4
-1.643, 4.133e-4
-1.644, 4.164e-4
-1.645, 4.225e-4
-1.646, 4.256e-4
-1.647, 4.318e-4
-1.648, 4.349e-4
-1.649, 4.410e-4
-1.650, 4.472e-4
-1.651, 4.503e-4
-1.652, 4.565e-4
-1.653, 4.626e-4
-1.654, 4.688e-4
-1.655, 4.719e-4
-1.656, 4.780e-4
-1.657, 4.842e-4
-1.658, 4.873e-4
-1.659, 4.904e-4
-1.660, 4.965e-4
-1.661, 5.027e-4
-1.662, 5.089e-4
-1.663, 5.150e-4
-1.664, 5.212e-4
-1.665, 5.243e-4
-1.666, 5.305e-4
-1.667, 5.366e-4
-1.668, 5.428e-4
-1.669, 5.489e-4
-1.670, 5.520e-4
-1.671, 5.613e-4
-1.672, 5.644e-4
-1.673, 5.736e-4
-1.674, 5.798e-4
-1.675, 5.859e-4
-1.676, 5.921e-4
-1.677, 5.952e-4
-1.678, 6.044e-4
-1.679, 6.106e-4
-1.680, 6.168e-4
-1.681, 6.260e-4
-1.682, 6.291e-4
-1.683, 6.353e-4
-1.684, 6.414e-4
-1.685, 6.476e-4
-1.686, 6.569e-4
-1.687, 6.661e-4
-1.688, 6.723e-4
-1.689, 6.784e-4
-1.690, 6.846e-4
-1.691, 6.939e-4
-1.692, 7.000e-4
-1.693, 7.093e-4
-1.694, 7.154e-4
-1.695, 7.247e-4
-1.696, 7.309e-4
-1.697, 7.339e-4
-1.698, 7.432e-4
-1.699, 7.524e-4
-1.700, 7.617e-4
-1.701, 7.679e-4
-1.702, 7.740e-4
-1.703, 7.802e-4
-1.704, 7.894e-4
-1.705, 7.987e-4
-1.706, 8.079e-4
-1.707, 8.172e-4
-1.708, 8.233e-4
-1.709, 8.326e-4
-1.710, 8.388e-4
-1.711, 8.480e-4
-1.712, 8.573e-4
-1.713, 8.665e-4
-1.714, 8.727e-4
-1.715, 8.819e-4
-1.716, 8.912e-4
-1.717, 8.973e-4
-1.718, 9.066e-4
-1.719, 9.158e-4
-1.720, 9.282e-4
-1.721, 9.374e-4
-1.722, 9.436e-4
-1.723, 9.528e-4
-1.724, 9.621e-4
-1.725, 9.713e-4
-1.726, 9.806e-4
-1.727, 9.929e-4
-1.728, 1.002e-3
-1.729, 1.011e-3
-1.730, 1.021e-3
-1.731, 1.033e-3
-1.732, 1.039e-3
-1.733, 1.048e-3
-1.734, 1.058e-3
-1.735, 1.067e-3
-1.736, 1.079e-3
-1.737, 1.085e-3
-1.738, 1.095e-3
-1.739, 1.104e-3
-1.740, 1.116e-3
-1.741, 1.132e-3
-1.742, 1.144e-3
-1.743, 1.153e-3
-1.744, 1.162e-3
-1.745, 1.172e-3
-1.746, 1.184e-3
-1.747, 1.193e-3
-1.748, 1.206e-3
-1.749, 1.215e-3
-1.750, 1.224e-3
-1.751, 1.236e-3
-1.752, 1.246e-3
-1.753, 1.258e-3
-1.754, 1.267e-3
-1.755, 1.280e-3
-1.756, 1.292e-3
-1.757, 1.304e-3
-1.758, 1.317e-3
-1.759, 1.329e-3
-1.760, 1.341e-3
-1.761, 1.354e-3
-1.762, 1.369e-3
-1.763, 1.381e-3
-1.764, 1.397e-3
-1.765, 1.409e-3
-1.766, 1.421e-3
-1.767, 1.434e-3
-1.768, 1.443e-3
-1.769, 1.455e-3
-1.770, 1.468e-3
-1.771, 1.480e-3
-1.772, 1.495e-3
-1.773, 1.508e-3
-1.774, 1.517e-3
-1.775, 1.529e-3
-1.776, 1.545e-3
-1.777, 1.560e-3
-1.778, 1.576e-3
-1.779, 1.591e-3
-1.780, 1.603e-3
-1.781, 1.619e-3
-1.782, 1.631e-3
-1.783, 1.650e-3
-1.784, 1.665e-3
-1.785, 1.680e-3
-1.786, 1.696e-3
-1.787, 1.708e-3
-1.788, 1.724e-3
-1.789, 1.736e-3
-1.790, 1.748e-3
-1.791, 1.767e-3
-1.792, 1.785e-3
-1.793, 1.801e-3
-1.794, 1.819e-3
-1.795, 1.832e-3
-1.796, 1.847e-3
-1.797, 1.862e-3
-1.798, 1.878e-3
-1.799, 1.896e-3
-1.800, 1.915e-3
-1.801, 1.933e-3
-1.802, 1.946e-3
-1.803, 1.964e-3
-1.804, 1.980e-3
-1.805, 1.995e-3
-1.806, 2.013e-3
-1.807, 2.032e-3
-1.808, 2.054e-3
-1.809, 2.069e-3
-1.810, 2.087e-3
-1.811, 2.103e-3
-1.812, 2.121e-3
-1.813, 2.137e-3
-1.814, 2.158e-3
-1.815, 2.177e-3
-1.816, 2.198e-3
-1.817, 2.214e-3
-1.818, 2.232e-3
-1.819, 2.251e-3
-1.820, 2.269e-3
-1.821, 2.291e-3
-1.822, 2.309e-3
-1.823, 2.331e-3
-1.824, 2.349e-3
-1.825, 2.368e-3
-1.826, 2.383e-3
-1.827, 2.402e-3
-1.828, 2.423e-3
-1.829, 2.445e-3
-1.830, 2.467e-3
-1.831, 2.488e-3
-1.832, 2.504e-3
-1.833, 2.522e-3
-1.834, 2.544e-3
-1.835, 2.565e-3
-1.836, 2.593e-3
-1.837, 2.618e-3
-1.838, 2.639e-3
-1.839, 2.655e-3
-1.840, 2.673e-3
-1.841, 2.692e-3
-1.842, 2.713e-3
-1.843, 2.741e-3
-1.844, 2.763e-3
-1.845, 2.787e-3
-1.846, 2.806e-3
-1.847, 2.824e-3
-1.848, 2.843e-3
-1.849, 2.867e-3
-1.850, 2.889e-3
-1.851, 2.917e-3
-1.852, 2.938e-3
-1.853, 2.960e-3
-1.854, 2.982e-3
-1.855, 3.006e-3
-1.856, 3.031e-3
-1.857, 3.059e-3
-1.858, 3.086e-3
-1.859, 3.117e-3
-1.860, 3.139e-3
-1.861, 3.167e-3
-1.862, 3.191e-3
-1.863, 3.213e-3
-1.864, 3.237e-3
-1.865, 3.268e-3
-1.866, 3.293e-3
-1.867, 3.321e-3
-1.868, 3.342e-3
-1.869, 3.364e-3
-1.870, 3.388e-3
-1.871, 3.419e-3
-1.872, 3.447e-3
-1.873, 3.481e-3
-1.874, 3.515e-3
-1.875, 3.536e-3
-1.876, 3.561e-3
-1.877, 3.586e-3
-1.878, 3.617e-3
-1.879, 3.651e-3
-1.880, 3.684e-3
-1.881, 3.715e-3
-1.882, 3.740e-3
-1.883, 3.762e-3
-1.884, 3.786e-3
-1.885, 3.820e-3
-1.886, 3.851e-3
-1.887, 3.882e-3
-1.888, 3.910e-3
-1.889, 3.937e-3
-1.890, 3.965e-3
-1.891, 3.999e-3
-1.892, 4.033e-3
-1.893, 4.067e-3
-1.894, 4.104e-3
-1.895, 4.135e-3
-1.896, 4.162e-3
-1.897, 4.190e-3
-1.898, 4.227e-3
-1.899, 4.270e-3
-1.900, 4.289e-3
-1.899, 4.270e-3
-1.898, 4.239e-3
-1.897, 4.218e-3
-1.896, 4.193e-3
-1.895, 4.178e-3
-1.894, 4.162e-3
-1.893, 4.144e-3
-1.892, 4.125e-3
-1.891, 4.101e-3
-1.890, 4.070e-3
-1.889, 4.048e-3
-1.888, 4.033e-3
-1.887, 4.017e-3
-1.886, 3.999e-3
-1.885, 3.980e-3
-1.884, 3.962e-3
-1.883, 3.940e-3
-1.882, 3.922e-3
-1.881, 3.897e-3
-1.880, 3.882e-3
-1.879, 3.863e-3
-1.878, 3.842e-3
-1.877, 3.814e-3
-1.876, 3.789e-3
-1.875, 3.765e-3
-1.874, 3.743e-3
-1.873, 3.718e-3
-1.872, 3.697e-3
-1.871, 3.681e-3
-1.870, 3.657e-3
-1.869, 3.641e-3
-1.868, 3.617e-3
-1.867, 3.595e-3
-1.866, 3.580e-3
-1.865, 3.561e-3
-1.864, 3.543e-3
-1.863, 3.518e-3
-1.862, 3.493e-3
-1.861, 3.469e-3
-1.860, 3.441e-3
-1.859, 3.419e-3
-1.858, 3.398e-3
-1.857, 3.382e-3
-1.856, 3.361e-3
-1.855, 3.339e-3
-1.854, 3.314e-3
-1.853, 3.296e-3
-1.852, 3.271e-3
-1.851, 3.253e-3
-1.850, 3.237e-3
-1.849, 3.213e-3
-1.848, 3.197e-3
-1.847, 3.173e-3
-1.846, 3.148e-3
-1.845, 3.126e-3
-1.844, 3.099e-3
-1.843, 3.083e-3
-1.842, 3.062e-3
-1.841, 3.043e-3
-1.840, 3.025e-3
-1.839, 3.009e-3
-1.838, 2.985e-3
-1.837, 2.969e-3
-1.836, 2.945e-3
-1.835, 2.929e-3
-1.834, 2.914e-3
-1.833, 2.895e-3
-1.832, 2.877e-3
-1.831, 2.849e-3
-1.830, 2.830e-3
-1.829, 2.812e-3
-1.828, 2.790e-3
-1.827, 2.778e-3
-1.826, 2.756e-3
-1.825, 2.732e-3
-1.824, 2.710e-3
-1.823, 2.692e-3
-1.822, 2.667e-3
-1.821, 2.655e-3
-1.820, 2.636e-3
-1.819, 2.618e-3
-1.818, 2.599e-3
-1.817, 2.578e-3
-1.816, 2.556e-3
-1.815, 2.544e-3
-1.814, 2.528e-3
-1.813, 2.507e-3
-1.812, 2.491e-3
-1.811, 2.470e-3
-1.810, 2.451e-3
-1.809, 2.436e-3
-1.808, 2.417e-3
-1.807, 2.402e-3
-1.806, 2.386e-3
-1.805, 2.371e-3
-1.804, 2.349e-3
-1.803, 2.328e-3
-1.802, 2.316e-3
-1.801, 2.300e-3
-1.800, 2.288e-3
-1.799, 2.272e-3
-1.798, 2.251e-3
-1.797, 2.232e-3
-1.796, 2.217e-3
-1.795, 2.205e-3
-1.794, 2.192e-3
-1.793, 2.177e-3
-1.792, 2.158e-3
-1.791, 2.140e-3
-1.790, 2.121e-3
-1.789, 2.106e-3
-1.788, 2.091e-3
-1.787, 2.078e-3
-1.786, 2.060e-3
-1.785, 2.038e-3
-1.784, 2.023e-3
-1.783, 2.007e-3
-1.782, 1.992e-3
-1.781, 1.980e-3
-1.780, 1.961e-3
-1.779, 1.949e-3
-1.778, 1.930e-3
-1.777, 1.918e-3
-1.776, 1.906e-3
-1.775, 1.887e-3
-1.774, 1.872e-3
-1.773, 1.856e-3
-1.772, 1.838e-3
-1.771, 1.819e-3
-1.770, 1.807e-3
-1.769, 1.791e-3
-1.768, 1.779e-3
-1.767, 1.761e-3
-1.766, 1.745e-3
-1.765, 1.733e-3
-1.764, 1.721e-3
-1.763, 1.705e-3
-1.762, 1.696e-3
-1.761, 1.684e-3
-1.760, 1.665e-3
-1.759, 1.653e-3
-1.758, 1.637e-3
-1.757, 1.625e-3
-1.756, 1.610e-3
-1.755, 1.597e-3
-1.754, 1.585e-3
-1.753, 1.569e-3
-1.752, 1.551e-3
-1.751, 1.536e-3
-1.750, 1.523e-3
-1.749, 1.511e-3
-1.748, 1.502e-3
-1.747, 1.486e-3
-1.746, 1.474e-3
-1.745, 1.462e-3
-1.744, 1.449e-3
-1.743, 1.434e-3
-1.742, 1.428e-3
-1.741, 1.415e-3
-1.740, 1.403e-3
-1.739, 1.388e-3
-1.738, 1.375e-3
-1.737, 1.360e-3
-1.736, 1.351e-3
-1.735, 1.338e-3
-1.734, 1.323e-3
-1.733, 1.314e-3
-1.732, 1.301e-3
-1.731, 1.289e-3
-1.730, 1.277e-3
-1.729, 1.270e-3
-1.728, 1.261e-3
-1.727, 1.249e-3
-1.726, 1.236e-3
-1.725, 1.221e-3
-1.724, 1.212e-3
-1.723, 1.203e-3
-1.722, 1.196e-3
-1.721, 1.184e-3
-1.720, 1.172e-3
-1.719, 1.162e-3
-1.718, 1.150e-3
-1.717, 1.138e-3
-1.716, 1.129e-3
-1.715, 1.116e-3
-1.714, 1.110e-3
-1.713, 1.101e-3
-1.712, 1.088e-3
-1.711, 1.079e-3
-1.710, 1.067e-3
-1.709, 1.058e-3
-1.708, 1.048e-3
-1.707, 1.039e-3
-1.706, 1.030e-3
-1.705, 1.018e-3
-1.704, 1.011e-3
-1.703, 9.991e-4
-1.702, 9.898e-4
-1.701, 9.806e-4
-1.700, 9.683e-4
-1.699, 9.590e-4
-1.698, 9.498e-4
-1.697, 9.405e-4
-1.696, 9.313e-4
-1.695, 9.251e-4
-1.694, 9.128e-4
-1.693, 9.066e-4
-1.692, 8.973e-4
-1.691, 8.881e-4
-1.690, 8.819e-4
-1.689, 8.696e-4
-1.688, 8.603e-4
-1.687, 8.542e-4
-1.686, 8.449e-4
-1.685, 8.388e-4
-1.684, 8.295e-4
-1.683, 8.203e-4
-1.682, 8.110e-4
-1.681, 8.048e-4
-1.680, 7.925e-4
-1.679, 7.863e-4
-1.678, 7.771e-4
-1.677, 7.709e-4
-1.676, 7.617e-4
-1.675, 7.555e-4
-1.674, 7.494e-4
-1.673, 7.401e-4
-1.672, 7.339e-4
-1.671, 7.278e-4
-1.670, 7.185e-4
-1.669, 7.093e-4
-1.668, 7.031e-4
-1.667, 6.939e-4
-1.666, 6.877e-4
-1.665, 6.815e-4
-1.664, 6.723e-4
-1.663, 6.661e-4
-1.662, 6.599e-4
-1.661, 6.507e-4
-1.660, 6.414e-4
-1.659, 6.353e-4
-1.658, 6.291e-4
-1.657, 6.260e-4
-1.656, 6.168e-4
-1.655, 6.106e-4
-1.654, 6.044e-4
-1.653, 5.983e-4
-1.652, 5.921e-4
-1.651, 5.859e-4
-1.650, 5.798e-4
-1.649, 5.736e-4
-1.648, 5.644e-4
-1.647, 5.582e-4
-1.646, 5.520e-4
-1.645, 5.459e-4
-1.644, 5.397e-4
-1.643, 5.335e-4
-1.642, 5.274e-4
-1.641, 5.181e-4
-1.640, 5.120e-4
-1.639, 5.089e-4
-1.638, 5.027e-4
-1.637, 4.965e-4
-1.636, 4.904e-4
-1.635, 4.842e-4
-1.634, 4.811e-4
-1.633, 4.750e-4
-1.632, 4.688e-4
-1.631, 4.626e-4
-1.630, 4.595e-4
-1.629, 4.534e-4
-1.628, 4.472e-4
-1.627, 4.410e-4
-1.626, 4.380e-4
-1.625, 4.318e-4
-1.624, 4.256e-4
-1.623, 4.195e-4
-1.622, 4.164e-4
-1.621, 4.102e-4
-1.620, 4.040e-4
-1.619, 4.010e-4
-1.618, 3.979e-4
-1.617, 3.917e-4
-1.616, 3.855e-4
-1.615, 3.825e-4
-1.614, 3.763e-4
-1.613, 3.732e-4
-1.612, 3.670e-4
-1.611, 3.640e-4
-1.610, 3.578e-4
-1.609, 3.547e-4
-1.608, 3.485e-4
-1.607, 3.455e-4
-1.606, 3.393e-4
-1.605, 3.362e-4
-1.604, 3.300e-4
-1.603, 3.270e-4
-1.602, 3.239e-4
-1.601, 3.208e-4
-1.600, 3.146e-4
-1.599, 3.115e-4
-1.598, 3.054e-4
-1.597, 3.054e-4
-1.596, 2.992e-4
-1.595, 2.931e-4
-1.594, 2.900e-4
-1.593, 2.869e-4
-1.592, 2.838e-4
-1.591, 2.807e-4
-1.590, 2.746e-4
-1.589, 2.715e-4
-1.588, 2.684e-4
-1.587, 2.653e-4
-1.586, 2.591e-4
-1.585, 2.561e-4
-1.584, 2.530e-4
-1.583, 2.499e-4
-1.582, 2.468e-4
-1.581, 2.437e-4
-1.580, 2.406e-4
-1.579, 2.376e-4
-1.578, 2.314e-4
-1.577, 2.283e-4
-1.576, 2.252e-4
-1.575, 2.221e-4
-1.574, 2.191e-4
-1.573, 2.160e-4
-1.572, 2.129e-4
-1.571, 2.098e-4
-1.570, 2.067e-4
-1.569, 2.067e-4
-1.568, 2.006e-4
-1.567, 1.975e-4
-1.566, 1.975e-4
-1.565, 1.944e-4
-1.564, 1.882e-4
-1.563, 1.882e-4
-1.562, 1.851e-4
-1.561, 1.821e-4
-1.560, 1.790e-4
-1.559, 1.759e-4
-1.558, 1.728e-4
-1.557, 1.728e-4
-1.556, 1.666e-4
-1.555, 1.636e-4
-1.554, 1.636e-4
-1.553, 1.574e-4
-1.552, 1.574e-4
-1.551, 1.543e-4
-1.550, 1.512e-4
-1.549, 1.512e-4
-1.548, 1.481e-4
-1.547, 1.451e-4
-1.546, 1.420e-4
-1.545, 1.389e-4
-1.544, 1.358e-4
-1.543, 1.358e-4
-1.542, 1.327e-4
-1.541, 1.296e-4
-1.540, 1.296e-4
-1.539, 1.266e-4
-1.538, 1.235e-4
-1.537, 1.235e-4
-1.536, 1.204e-4
-1.535, 1.173e-4
-1.534, 1.173e-4
-1.533, 1.142e-4
-1.532, 1.111e-4
-1.531, 1.081e-4
-1.530, 1.081e-4
-1.529, 1.050e-4
-1.528, 1.050e-4
-1.527, 1.019e-4
-1.526, 9.882e-5
-1.525, 9.882e-5
-1.524, 9.573e-5
-1.523, 9.573e-5
-1.522, 9.265e-5
-1.521, 8.957e-5
-1.520, 8.957e-5
-1.519, 8.648e-5
-1.518, 8.648e-5
-1.517, 8.340e-5
-1.516, 8.032e-5
-1.515, 8.032e-5
-1.514, 8.032e-5
-1.513, 7.723e-5
-1.512, 7.723e-5
-1.511, 7.415e-5
-1.510, 7.107e-5
-1.509, 7.107e-5
-1.508, 7.107e-5
-1.507, 6.798e-5
-1.506, 6.798e-5
-1.505, 6.490e-5
-1.504, 6.182e-5
-1.503, 6.182e-5
-1.502, 5.873e-5
-1.501, 5.873e-5
-1.500, 5.873e-5
-1.499, 5.565e-5
-1.498, 5.565e-5
-1.497, 5.257e-5
-1.496, 5.257e-5
-1.495, 5.257e-5
-1.494, 4.949e-5
-1.493, 4.949e-5
-1.492, 4.949e-5
-1.491, 4.640e-5
-1.490, 4.640e-5
-1.489, 4.332e-5
-1.488, 4.332e-5
-1.487, 4.332e-5
-1.486, 4.024e-5
-1.485, 4.024e-5
-1.484, 3.715e-5
-1.483, 3.715e-5
-1.482, 3.715e-5
-1.481, 3.407e-5
-1.480, 3.407e-5
-1.479, 3.099e-5
-1.478, 3.099e-5
-1.477, 3.099e-5
-1.476, 2.790e-5
-1.475, 2.790e-5
-1.474, 2.790e-5
-1.473, 2.482e-5
-1.472, 2.482e-5
-1.471, 2.482e-5
-1.470, 2.174e-5
-1.469, 2.174e-5
-1.468, 2.174e-5
-1.467, 2.174e-5
-1.466, 1.865e-5
-1.465, 1.865e-5
-1.464, 1.865e-5
-1.463, 1.557e-5
-1.462, 1.557e-5
-1.461, 1.557e-5
-1.460, 1.249e-5
-1.459, 1.249e-5
-1.458, 1.249e-5
-1.457, 1.249e-5
-1.456, 1.249e-5
-1.455, 1.249e-5
-1.454, 9.405e-6
-1.453, 9.405e-6
-1.452, 9.405e-6
-1.451, 6.322e-6
-1.450, 6.322e-6
-1.449, 6.322e-6
-1.448, 6.322e-6
-1.447, 6.322e-6
-1.446, 3.239e-6
-1.445, 3.239e-6
-1.444, 3.239e-6
-1.443, 3.239e-6
-1.442, 1.559e-7
-1.441, 1.559e-7
-1.440, 1.559e-7
-1.439, 1.559e-7
-1.438, 1.559e-7
-1.437, 1.559e-7
-1.436, -2.927e-6
-1.435, -2.927e-6
-1.434, -2.927e-6
-1.433, -6.010e-6
-1.432, -6.010e-6
-1.431, -6.010e-6
-1.430, -6.010e-6
-1.429, -6.010e-6
-1.428, -6.010e-6
-1.427, -6.010e-6
-1.426, -9.093e-6
-1.425, -9.093e-6
-1.424, -9.093e-6
-1.423, -9.093e-6
-1.422, -9.093e-6
-1.421, -9.093e-6
-1.420, -9.093e-6
-1.419, -9.093e-6
-1.418, -1.218e-5
-1.417, -1.218e-5
-1.416, -1.218e-5
-1.415, -1.218e-5
-1.414, -1.218e-5
-1.413, -1.218e-5
-1.412, -1.526e-5
-1.411, -1.526e-5
-1.410, -1.526e-5
-1.409, -1.526e-5
-1.408, -1.526e-5
-1.407, -1.526e-5
-1.406, -1.526e-5
-1.405, -1.526e-5
-1.404, -1.834e-5
-1.403, -1.834e-5
-1.402, -1.834e-5
-1.401, -1.834e-5
-1.400, -1.834e-5
-1.399, -1.834e-5
-1.398, -1.834e-5
-1.397, -1.834e-5
-1.396, -1.834e-5
-1.395, -2.143e-5
-1.394, -1.834e-5
-1.393, -2.143e-5
-1.392, -2.143e-5
-1.391, -2.143e-5
-1.390, -2.143e-5
-1.389, -2.143e-5
-1.388, -2.143e-5
-1.387, -2.143e-5
-1.386, -2.143e-5
-1.385, -2.143e-5
-1.384, -2.143e-5
-1.383, -2.143e-5
-1.382, -2.143e-5
-1.381, -2.143e-5
-1.380, -2.451e-5
-1.379, -2.451e-5
-1.378, -2.451e-5
-1.377, -2.451e-5
-1.376, -2.451e-5
-1.375, -2.451e-5
-1.374, -2.451e-5
-1.373, -2.451e-5
-1.372, -2.451e-5
-1.371, -2.451e-5
-1.370, -2.451e-5
-1.369, -2.451e-5
-1.368, -2.451e-5
-1.367, -2.451e-5
-1.366, -2.759e-5
-1.365, -2.451e-5
-1.364, -2.759e-5
-1.363, -2.759e-5
-1.362, -2.759e-5
-1.361, -2.759e-5
-1.360, -2.759e-5
-1.359, -2.759e-5
-1.358, -2.759e-5
-1.357, -2.759e-5
-1.356, -2.759e-5
-1.355, -2.759e-5
-1.354, -2.759e-5
-1.353, -2.759e-5
-1.352, -2.759e-5
-1.351, -2.759e-5
-1.350, -2.759e-5
-1.349, -2.759e-5
-1.348, -2.759e-5
-1.347, -2.759e-5
-1.346, -2.759e-5
-1.345, -2.759e-5
-1.344, -2.759e-5
-1.343, -2.759e-5
-1.342, -2.759e-5
-1.341, -2.759e-5
-1.340, -2.759e-5
-1.339, -3.068e-5
-1.338, -2.759e-5
-1.337, -3.068e-5
-1.336, -2.759e-5
-1.335, -2.759e-5
-1.334, -3.068e-5
-1.333, -3.068e-5
-1.332, -2.759e-5
-1.331, -3.068e-5
-1.330, -2.759e-5
-1.329, -3.068e-5
-1.328, -3.068e-5
-1.327, -2.759e-5
-1.326, -3.068e-5
-1.325, -3.068e-5
-1.324, -3.068e-5
-1.323, -3.068e-5
-1.322, -3.068e-5
-1.321, -3.068e-5
-1.320, -3.068e-5
-1.319, -3.068e-5
-1.318, -3.068e-5
-1.317, -3.068e-5
-1.316, -3.068e-5
-1.315, -3.068e-5
-1.314, -3.068e-5
-1.313, -3.068e-5
-1.312, -3.068e-5
-1.311, -3.068e-5
-1.310, -3.068e-5
-1.309, -3.068e-5
-1.308, -3.068e-5
-1.307, -3.068e-5
-1.306, -3.068e-5
-1.305, -3.068e-5
-1.304, -3.068e-5
-1.303, -3.068e-5
-1.302, -3.068e-5
-1.301, -3.068e-5
-1.300, -3.068e-5
-1.299, -3.068e-5
-1.298, -3.068e-5
-1.297, -3.068e-5
-1.296, -3.068e-5
-1.295, -3.068e-5
-1.294, -3.068e-5
-1.293, -3.068e-5
-1.292, -3.068e-5
-1.291, -3.068e-5
-1.290, -3.068e-5
-1.289, -3.068e-5
-1.288, -3.068e-5
-1.287, -3.068e-5
-1.286, -3.068e-5
-1.285, -3.068e-5
-1.284, -3.068e-5
-1.283, -3.068e-5
-1.282, -3.068e-5
-1.281, -3.068e-5
-1.280, -3.068e-5
-1.279, -3.068e-5
-1.278, -3.068e-5
-1.277, -3.068e-5
-1.276, -3.068e-5
-1.275, -3.068e-5
-1.274, -3.068e-5
-1.273, -3.068e-5
-1.272, -3.068e-5
-1.271, -3.376e-5
-1.270, -3.068e-5
-1.269, -3.376e-5
-1.268, -3.068e-5
-1.267, -3.068e-5
-1.266, -3.376e-5
-1.265, -3.068e-5
-1.264, -3.068e-5
-1.263, -3.376e-5
-1.262, -3.068e-5
-1.261, -3.068e-5
-1.260, -3.376e-5
-1.259, -3.068e-5
-1.258, -3.068e-5
-1.257, -3.068e-5
-1.256, -3.068e-5
-1.255, -3.068e-5
-1.254, -3.068e-5
-1.253, -3.068e-5
-1.252, -3.376e-5
-1.251, -3.376e-5
-1.250, -3.068e-5
-1.249, -3.376e-5
-1.248, -3.068e-5
-1.247, -3.068e-5
-1.246, -3.068e-5
-1.245, -3.068e-5
-1.244, -3.068e-5
-1.243, -3.376e-5
-1.242, -3.068e-5
-1.241, -3.068e-5
-1.240, -3.068e-5
-1.239, -3.068e-5
-1.238, -3.068e-5
-1.237, -3.068e-5
-1.236, -3.068e-5
-1.235, -3.376e-5
-1.234, -3.376e-5
-1.233, -3.068e-5
-1.232, -3.376e-5
-1.231, -3.376e-5
-1.230, -3.068e-5
-1.229, -3.376e-5
-1.228, -3.068e-5
-1.227, -3.068e-5
-1.226, -3.376e-5
-1.225, -3.068e-5
-1.224, -3.068e-5
-1.223, -3.068e-5
-1.222, -3.068e-5
-1.221, -3.376e-5
-1.220, -3.376e-5
-1.219, -3.068e-5
-1.218, -3.376e-5
-1.217, -3.068e-5
-1.216, -3.376e-5
-1.215, -3.376e-5
-1.214, -3.376e-5
-1.213, -3.068e-5
-1.212, -3.068e-5
-1.211, -3.068e-5
-1.210, -3.376e-5
-1.209, -3.376e-5
-1.208, -3.068e-5
-1.207, -3.068e-5
-1.206, -3.068e-5
-1.205, -3.068e-5
-1.204, -3.068e-5
-1.203, -3.376e-5
-1.202, -3.068e-5
-1.201, -3.068e-5
-1.200, -3.068e-5
-1.199, -3.068e-5
-1.198, -3.376e-5
-1.197, -3.068e-5
-1.196, -3.068e-5
-1.195, -3.376e-5
-1.194, -3.376e-5
-1.193, -3.376e-5
-1.192, -3.376e-5
-1.191, -3.068e-5
-1.190, -3.376e-5
-1.189, -3.376e-5
-1.188, -3.068e-5
-1.187, -3.068e-5
-1.186, -3.068e-5
-1.185, -3.068e-5
-1.184, -3.068e-5
-1.183, -3.068e-5
-1.182, -3.376e-5
-1.181, -3.376e-5
-1.180, -3.376e-5
-1.179, -3.376e-5
-1.178, -3.376e-5
-1.177, -3.068e-5
-1.176, -3.068e-5
-1.175, -3.376e-5
-1.174, -3.068e-5
-1.173, -3.376e-5
-1.172, -3.376e-5
-1.171, -3.376e-5
-1.170, -3.068e-5
-1.169, -3.376e-5
-1.168, -3.068e-5
-1.167, -3.068e-5
-1.166, -3.068e-5
-1.165, -3.068e-5
-1.164, -3.376e-5
-1.163, -3.376e-5
-1.162, -3.068e-5
-1.161, -3.376e-5
-1.160, -3.376e-5
-1.159, -3.068e-5
-1.158, -3.376e-5
-1.157, -3.068e-5
-1.156, -3.376e-5
-1.155, -3.376e-5
-1.154, -3.376e-5
-1.153, -3.068e-5
-1.152, -3.376e-5
-1.151, -3.068e-5
-1.150, -3.376e-5
-1.149, -3.068e-5
-1.148, -3.068e-5
-1.147, -3.068e-5
-1.146, -3.068e-5
-1.145, -3.068e-5
-1.144, -3.376e-5
-1.143, -3.376e-5
-1.142, -3.376e-5
-1.141, -3.376e-5
-1.140, -3.068e-5
-1.139, -3.376e-5
-1.138, -3.376e-5
-1.137, -3.068e-5
-1.136, -3.376e-5
-1.135, -3.376e-5
-1.134, -3.376e-5
-1.133, -3.376e-5
-1.132, -3.068e-5
-1.131, -3.376e-5
-1.130, -3.376e-5
-1.129, -3.376e-5
-1.128, -3.376e-5
-1.127, -3.376e-5
-1.126, -3.376e-5
-1.125, -3.376e-5
-1.124, -3.376e-5
-1.123, -3.376e-5
-1.122, -3.068e-5
-1.121, -3.376e-5
-1.120, -3.376e-5
-1.119, -3.376e-5
-1.118, -3.376e-5
-1.117, -3.376e-5
-1.116, -3.376e-5
-1.115, -3.376e-5
-1.114, -3.376e-5
-1.113, -3.376e-5
-1.112, -3.376e-5
-1.111, -3.376e-5
-1.110, -3.376e-5
-1.109, -3.376e-5
-1.108, -3.376e-5
-1.107, -3.376e-5
-1.106, -3.376e-5
-1.105, -3.376e-5
-1.104, -3.376e-5
-1.103, -3.376e-5
-1.102, -3.376e-5
-1.101, -3.376e-5
-1.100, -3.376e-5
-1.099, -3.376e-5
-1.098, -3.376e-5
-1.097, -3.376e-5
-1.096, -3.376e-5
-1.095, -3.376e-5
-1.094, -3.376e-5
-1.093, -3.376e-5
-1.092, -3.376e-5
-1.091, -3.376e-5
-1.090, -3.376e-5
-1.089, -3.376e-5
-1.088, -3.376e-5
-1.087, -3.376e-5
-1.086, -3.376e-5
-1.085, -3.376e-5
-1.084, -3.376e-5
-1.083, -3.376e-5
-1.082, -3.376e-5
-1.081, -3.376e-5
-1.080, -3.376e-5
-1.079, -3.376e-5
-1.078, -3.376e-5
-1.077, -3.376e-5
-1.076, -3.376e-5
-1.075, -3.376e-5
-1.074, -3.684e-5
-1.073, -3.376e-5
-1.072, -3.376e-5
-1.071, -3.376e-5
-1.070, -3.684e-5
-1.069, -3.376e-5
-1.068, -3.684e-5
-1.067, -3.376e-5
-1.066, -3.376e-5
-1.065, -3.376e-5
-1.064, -3.684e-5
-1.063, -3.684e-5
-1.062, -3.684e-5
-1.061, -3.684e-5
-1.060, -3.684e-5
-1.059, -3.684e-5
-1.058, -3.684e-5
-1.057, -3.684e-5
-1.056, -3.684e-5
-1.055, -3.684e-5
-1.054, -3.684e-5
-1.053, -3.684e-5
-1.052, -3.684e-5
-1.051, -3.684e-5
-1.050, -3.684e-5
-1.049, -3.684e-5
-1.048, -3.684e-5
-1.047, -3.684e-5
-1.046, -3.684e-5
-1.045, -3.684e-5
-1.044, -3.684e-5
-1.043, -3.684e-5
-1.042, -3.684e-5
-1.041, -3.684e-5
-1.040, -3.684e-5
-1.039, -3.684e-5
-1.038, -3.684e-5
-1.037, -3.684e-5
-1.036, -3.684e-5
-1.035, -3.684e-5
-1.034, -3.684e-5
-1.033, -3.992e-5
-1.032, -3.684e-5
-1.031, -3.684e-5
-1.030, -3.684e-5
-1.029, -3.684e-5
-1.028, -3.992e-5
-1.027, -3.992e-5
-1.026, -3.684e-5
-1.025, -3.992e-5
-1.024, -3.992e-5
-1.023, -3.992e-5
-1.022, -3.992e-5
-1.021, -3.992e-5
-1.020, -3.992e-5
-1.019, -3.992e-5
-1.018, -3.992e-5
-1.017, -3.992e-5
-1.016, -3.992e-5
-1.015, -3.992e-5
-1.014, -3.992e-5
-1.013, -3.992e-5
-1.012, -3.992e-5
-1.011, -3.992e-5
-1.010, -3.992e-5
-1.009, -3.992e-5
-1.008, -3.992e-5
-1.007, -3.992e-5
-1.006, -3.992e-5
-1.005, -4.301e-5
-1.004, -3.992e-5
-1.003, -4.301e-5
-1.002, -4.301e-5
-1.001, -3.992e-5
