Potential V vs RHE, Current mA cm-2
0.013299999999999867,10.081232722838251
0.012299999999999978,8.216643229616132
0.011299999999999866,6.807590774950556
0.010299999999999976,5.569718387568649
0.009299999999999864,4.283745815991331
0.008299999999999974,3.389648274476628
0.007299999999999862,2.284758749282034
0.006299999999999972,1.4430055258623373
0.00529999999999986,0.6609531192969451
0.0042999999999999705,-0.24615976617651636
0.0032999999999998586,-0.8172787179320317
0.0022999999999999687,-1.6467239530429028
0.0012999999999998568,-2.2621233684841937
0.00029999999999996696,-2.8322520223298033
-0.000700000000000145,-3.536778249662592
-0.0017000000000000348,-3.9286532797252063
-0.0027000000000001467,-4.593567590661774
-0.0037000000000000366,-5.051934051818047
-0.0047000000000001485,-5.510300512974317
-0.005700000000000038,-6.139847041414258
-0.00670000000000015,-6.483621887281464
-0.00770000000000004,-7.067897654125724
-0.008700000000000152,-7.4229901903918485
-0.009700000000000042,-7.7851562831572965
-0.010700000000000154,-8.34538195790385
-0.011700000000000044,-8.587297590180773
-0.012700000000000156,-9.119229038930026
-0.013700000000000045,-9.468662729996689
-0.014700000000000157,-9.826584688862544
-0.015700000000000047,-10.320318932515441
-0.01670000000000016,-10.502816690198033
-0.01770000000000005,-10.96259786265417
-0.01870000000000016,-11.194610515832036
-0.01970000000000005,-11.461990951506527
-0.020700000000000163,-11.9203574126628
-0.021700000000000053,-12.083049212147277
-0.022700000000000164,-12.548489229802875
-0.023700000000000054,-12.834260912375612
-0.024700000000000166,-13.103056059349969
-0.025700000000000056,-13.49068695551299
-0.026700000000000168,-13.567081365705702
-0.027700000000000058,-13.987250621765616
-0.02870000000000017,-14.24614278964092
-0.02970000000000006,-14.557379275611227
-0.03070000000000017,-15.02423400456669
-0.03170000000000006,-15.151558021554543
-0.03270000000000017,-15.561824298515406
-0.03370000000000006,-15.70329542850191
-0.034700000000000175,-15.87306078448571
-0.035700000000000065,-16.24088572245062
-0.03670000000000018,-16.311621287443874
-0.03770000000000007,-16.750181790402035
-0.03870000000000018,-17.018976937376394
-0.03970000000000007,-17.301919197349395
-0.04070000000000018,-17.71218547431026
-0.04170000000000007,-17.74047970030756
-0.04270000000000018,-18.06586329927652
-0.04370000000000007,-18.23562865526032
-0.044700000000000184,-18.419541124242777
-0.045700000000000074,-18.829807401203638
-0.046700000000000186,-19.01371987018609
-0.047700000000000076,-19.466427486142905
-0.04870000000000019,-19.65033995512536
-0.04970000000000008,-19.77766397211321
-0.05070000000000019,-20.06060623208622
-0.05170000000000008,-20.088900458083522
-0.05270000000000019,-20.42843117005113
-0.05370000000000008,-20.640637865030882
-0.05470000000000019,-20.90943301200524
-0.05570000000000008,-21.319699288966106
-0.056700000000000195,-21.418729079956652
-0.057700000000000085,-21.758259791924264
-0.058700000000000196,-21.857289582914817
-0.059700000000000086,-21.97046648690402
-0.0607000000000002,-22.295850085872978
-0.06170000000000009,-22.39487987686353
-0.0627000000000002,-22.84758749282034
-0.06370000000000009,-23.073941300798747
-0.0647000000000002,-23.328589334774456
-0.06570000000000009,-23.653972933743415
-0.0667000000000002,-23.62567870774611
-0.0677000000000001,-23.894473854720466
-0.0687000000000002,-23.993503645711023
-0.0697000000000001,-24.120827662698876
-0.07070000000000021,-24.44621126166783
-0.0717000000000001,-24.531093939659737
-0.07270000000000021,-25.012095781613848
-0.0737000000000001,-25.224302476593607
-0.07470000000000021,-25.309185154585506
-0.0757000000000001,-25.592127414558515
-0.07670000000000021,-25.592127414558515
-0.0777000000000001,-25.889216787530174
-0.07870000000000021,-26.016540804518023
-0.0797000000000001,-26.20045327350048
-0.08070000000000022,-26.59657243746269
-0.0817000000000001,-26.709749341451893
-0.08270000000000022,-27.06342716641815
-0.08370000000000011,-27.120015618412754
-0.08470000000000022,-27.176604070407354
-0.08570000000000011,-27.445399217381713
-0.08670000000000022,-27.459546330380363
-0.08770000000000011,-27.827371268345274
-0.08870000000000022,-28.02543085032638
-0.08970000000000011,-28.280078884302082
-0.09070000000000022,-28.619609596269694
-0.09170000000000011,-28.60546248327104
-0.09270000000000023,-28.8176691782508
-0.09370000000000012,-28.9025518562427
-0.09470000000000023,-28.959140308237306
-0.09570000000000012,-29.22793545521166
-0.09670000000000023,-29.284523907206257
-0.09770000000000012,-29.73723152316307
-0.09870000000000023,-29.96358533114148
-0.09970000000000012,-30.11920357412663
-0.10070000000000023,-30.331410269106385
-0.10170000000000012,-30.21823336511718
-0.10270000000000024,-30.43044006009694
-0.10370000000000013,-30.47288139909289
-0.10470000000000024,-30.71338232006995
-0.10570000000000013,-31.12364859703081
-0.10670000000000024,-31.22267838802136
-0.10770000000000013,-31.604650438984915
-0.10870000000000024,-31.661238890979522
-0.10970000000000013,-31.675386003978172
-0.11070000000000024,-31.901739811956578
-0.11170000000000013,-31.84515135996197
-0.11270000000000002,-32.15638784593229
-0.11370000000000013,-32.340300314914735
-0.11470000000000002,-32.59494834889044
-0.11570000000000014,-32.97692039985401
-0.11670000000000003,-32.97692039985401
-0.11770000000000014,-33.17497998183511
-0.11870000000000003,-33.21742132083106
-0.11970000000000014,-33.302303998822964
-0.12070000000000003,-33.52865780680137
-0.12170000000000014,-33.55695203279867
-0.12270000000000003,-33.95307119676088
-0.12370000000000014,-34.16527789174064
-0.12470000000000003,-34.36333747372174
-0.12570000000000014,-34.5755441687015
-0.12670000000000003,-34.4906614907096
-0.12770000000000015,-34.75945663768395
-0.12870000000000004,-34.8301922026772
-0.12970000000000015,-35.098987349651566
-0.13070000000000004,-35.46681228761647
-0.13170000000000015,-35.62243053060162
-0.13270000000000004,-36.03269680756248
-0.13370000000000015,-36.07513814655844
-0.13470000000000004,-36.08928525955708
-0.13570000000000015,-36.28734484153819
-0.13670000000000004,-36.30149195453684
-0.13770000000000016,-36.725905344496354
-0.13870000000000005,-36.96640626547341
-0.13970000000000016,-37.249348525446415
-0.14070000000000005,-37.60302635041268
-0.14170000000000016,-37.56058501141672
-0.14270000000000005,-37.73035036740053
-0.14370000000000016,-37.758644593397825
-0.14470000000000005,-37.88596861038568
-0.14570000000000016,-38.32452911334384
-0.14670000000000005,-38.480147356329
-0.14770000000000016,-38.98944342428042
-0.14870000000000005,-39.272385684253415
-0.14970000000000017,-39.42800392723857
-0.15070000000000006,-39.66850484821563
-0.15170000000000017,-39.62606350921968
-0.15270000000000006,-39.90900576919269
-0.15370000000000017,-40.092918238175145
-0.15470000000000006,-40.4183018371441
-0.15570000000000017,-40.88515656609956
-0.15670000000000006,-41.083216148080666
-0.15770000000000017,-41.45104108604558
-0.15870000000000006,-41.53592376403748
-0.15970000000000018,-41.55007087703613
-0.16070000000000007,-41.77642468501453
-0.16170000000000018,-41.80471891101183
-0.16270000000000007,-42.31401497896325
-0.16370000000000018,-42.653545690930855
-0.16470000000000007,-43.06381196789171
-0.16570000000000018,-43.544813809845834
-0.16670000000000007,-43.544813809845834
-0.16770000000000018,-43.58725514884178
-0.16870000000000007,-43.51651958384853
-0.16970000000000018,-43.85605029581614
-0.17070000000000007,-44.36534636376755
-0.17170000000000019,-44.563405945748656
-0.17270000000000008,-45.17173180469062
-0.1737000000000002,-45.581998081651484
-0.17470000000000008,-45.86494034162449
-0.1757000000000002,-46.36008929657725
-0.17670000000000008,-46.4874133135651
-0.1777000000000002,-46.88353247752732
-0.17870000000000008,-47.12403339850438
-0.1797000000000002,-47.46356411047198
-0.18070000000000008,-47.87383038743284
-0.1817000000000002,-48.029448630417996
-0.18270000000000008,-48.41142068138156
-0.1837000000000002,-48.43971490737886
-0.1847000000000001,-48.48215624637481
-0.1857000000000002,-48.77924561934647
-0.1867000000000001,-48.89242252333566
-0.1877000000000002,-49.50074838227763
-0.1887000000000001,-49.9110146592385
-0.1897000000000002,-50.448604953187214
-0.1907000000000001,-51.000342360134574
-0.1917000000000001,-51.014489473133224
-0.19269999999999998,-51.26913750710893
-0.1937000000000001,-51.410608637095436
-0.19469999999999998,-51.580373993079235
-0.1957000000000001,-52.033081609036046
-0.19669999999999999,-52.30187675601041
-0.1977000000000001,-52.91020261495237
-0.1987,-53.39120445690648
-0.1997000000000001,-53.71658805587545
-0.2007,-53.9005005248579
-0.2017000000000001,-53.815617846866
-0.2027,-54.02782454184575
-0.2037000000000001,-54.25417834982416
-0.2047,-54.74932730477692
-0.2057000000000001,-55.442535841710786
-0.2067,-55.85280211867165
-0.2077000000000001,-56.475275090612264
-0.2087,-56.68748178559202
-0.2097000000000001,-56.857247141575826
-0.2107,-57.12604228855018
-0.2117000000000001,-57.15433651454749
-0.2127,-57.649485469500235
-0.2137000000000001,-58.05975174646111
-0.2147,-58.583194927411164
-0.2157000000000001,-59.26225635134639
-0.2167,-59.47446304632614
-0.21770000000000012,-59.78569953229645
-0.2187,-59.85643509728971
-0.21970000000000012,-60.01205334027486
-0.2207,-60.46476095623167
-0.22170000000000012,-60.80429166819927
-0.2227,-61.5116473181318
-0.22370000000000012,-61.97850204708726
-0.2247,-62.41706255004542
-0.22570000000000012,-62.78488748801033
-0.2267,-62.78488748801033
-0.22770000000000012,-63.15271242597524
-0.22870000000000001,-63.30833066896038
-0.22970000000000013,-63.7044498329226
-0.23070000000000002,-64.28448146586726
-0.23170000000000013,-64.69474774282813
-0.23270000000000002,-65.4445447317566
-0.23370000000000013,-65.71333987873095
-0.23470000000000002,-65.78407544372419
-0.23570000000000013,-66.09531192969452
-0.23670000000000002,-66.10945904269316
-0.2376999999999999,-66.63290222364323
-0.23870000000000002,-67.14219829159464
-0.2396999999999999,-67.7222299245393
-0.24070000000000003,-68.45787980046913
-0.24169999999999991,-68.68423360844753
-0.24270000000000003,-69.06620565941108
-0.24369999999999992,-69.19352967639895
-0.24470000000000003,-69.50476616236925
-0.24569999999999992,-70.02820934331933
-0.24670000000000003,-70.42432850728152
-0.24769999999999992,-71.10338993121674
-0.24870000000000003,-71.5136562081776
-0.24969999999999992,-71.8248926941479
-0.25070000000000003,-71.9946580501317
-0.2516999999999999,-71.8531869201452
-0.25270000000000004,-72.23515897110877
-0.2536999999999999,-72.60298390907369
-0.25470000000000004,-73.14057420302241
-0.2556999999999999,-73.91866541794816
-0.25670000000000004,-74.44210859889823
-0.25769999999999993,-75.19190558782671
-0.25870000000000004,-75.37581805680915
-0.25969999999999993,-75.50314207379701
-0.26070000000000004,-75.82852567276596
-0.26169999999999993,-75.88511412476056
-0.26270000000000004,-76.40855730571064
-0.26369999999999993,-76.8754120346661
-0.26470000000000005,-77.48373789360807
-0.26569999999999994,-78.20524065653922
-0.26670000000000005,-78.48818291651223
-0.26769999999999994,-78.8701549674758
-0.26870000000000005,-78.9550376454677
-0.26969999999999994,-79.02577321046095
-0.27070000000000005,-79.3228625834326
-0.27169999999999994,-79.61995195640426
-0.27270000000000005,-80.39804317133003
-0.27369999999999994,-80.9497805782774
-0.27470000000000006,-81.57225355021802
-0.27569999999999995,-81.98251982717888
-0.27670000000000006,-82.01081405317618
-0.27769999999999995,-82.44937455613434
-0.27870000000000006,-82.64743413811544
-0.27969999999999995,-83.07184752807495
-0.28070000000000006,-83.75090895201016
-0.28169999999999995,-84.23191079396429
-0.28270000000000006,-84.99585489589141
-0.28369999999999995,-85.25050292986711
-0.28470000000000006,-85.36367983385631
-0.28569999999999995,-85.71735765882258
-0.28670000000000007,-85.83053456281178
-0.28769999999999996,-86.26909506576993
-0.28870000000000007,-86.83497958571596
-0.28969999999999996,-87.59892368764307
-0.29070000000000007,-88.51848603255536
-0.29169999999999996,-88.71654561453644
-0.29270000000000007,-88.9853407615108
-0.29369999999999996,-89.15510611749461
-0.2947000000000001,-89.39560703847167
-0.29569999999999996,-89.72099063744062
-0.2967000000000001,-90.03222712341093
-0.29769999999999996,-90.79617122533804
-0.2987000000000001,-91.39034997128137
-0.29969999999999997,-92.01282294322199
-0.3007000000000001,-92.47967767217744
-0.30169999999999997,-92.28161809019635
-0.3027000000000001,-92.47967767217744
-0.30369999999999997,-92.53626612417206
-0.3047000000000001,-92.93238528813426
-0.30569999999999997,-93.63974093806678
-0.3067000000000001,-94.19147834501413
-0.3077,-95.13933491592371
-0.3087000000000001,-95.60618964487918
-0.3097,-95.67692520987244
-0.3107000000000001,-95.775955000863
-0.3117,-95.71936654886838
-0.3127000000000001,-96.0871914868333
-0.3137,-96.52575198979144
-0.3147000000000001,-97.16237207473071
-0.3157,-98.25169977562679
-0.3167000000000001,-98.84587852157011
-0.3177,-99.27029191152963
-0.3187000000000001,-99.11467366854447
-0.3197,-98.93076119956201
-0.3207000000000001,-98.97320253855796
-0.3217,-99.04393810355123
-0.3227000000000001,-99.73714664048508
-0.3237,-100.51523785541086
-0.3247000000000001,-101.3640646353299
-0.3257,-101.9865376072705
-0.3267000000000001,-101.90165492927859
-0.3277,-102.05727317226375
-0.3287000000000001,-102.14215585025565
-0.3297,-102.3826567712327
-0.3307000000000001,-102.99098263017467
-0.3317,-103.57101426311934
-0.3327000000000001,-104.47642949503296
-0.3337,-104.83010731999921
-0.3347000000000001,-104.98572556298437
-0.3357,-105.19793225796413
-0.3367000000000001,-105.18378514496547
-0.3377,-105.56575719592904
-0.3387000000000001,-105.8062581169061
-0.3397,-106.2872599588602
-0.3407000000000001,-107.00876272179138
-0.3417,-107.30585209476303
-0.3427000000000001,-107.6029414677347
-0.3437,-107.44732322474954
-0.3447000000000001,-107.31999920776168
-0.3457,-107.4614703377482
-0.3467000000000001,-107.58879435473604
-0.3477,-108.53665092564562
-0.3487000000000001,-109.11668255859028
-0.3497,-109.80989109552415
-0.3507000000000001,-110.0786862424985
-0.3517,-109.76744975652821
-0.3527000000000001,-109.7957439825255
-0.3537,-109.654272852539
-0.3547000000000001,-109.73915553053091
-0.3557,-110.2767458244796
-0.35670000000000013,-110.94166013541617
-0.3577,-111.7904869153352
-0.35870000000000013,-111.94610515832035
-0.3597,-111.76219268933791
-0.36070000000000013,-111.7056042373433
-0.3617,-111.5641331073568
-0.3626999999999999,-111.96025227131899
-0.3637,-112.41295988727582
-0.3646999999999999,-112.93640306822589
-0.3657,-113.65790583115704
-0.3666999999999999,-113.983289430126
-0.3677,-114.1530547861098
-0.3686999999999999,-113.82767118714084
-0.36970000000000003,-113.79937696114357
-0.3706999999999999,-113.87011252613681
-0.37170000000000003,-114.16720189910848
-0.3726999999999999,-114.83211621004502
-0.37370000000000003,-115.3555593909951
-0.3746999999999999,-116.02047370193165
-0.37570000000000003,-116.37415152689792
-0.3766999999999999,-116.13365060592085
-0.37770000000000004,-116.07706215392626
-0.3786999999999999,-115.90729679794246
-0.37970000000000004,-116.02047370193165
-0.3806999999999999,-116.60050533487632
-0.38170000000000004,-117.13809562882503
-0.38269999999999993,-118.11424642573192
-0.38370000000000004,-118.51036558969413
-0.38469999999999993,-118.43963002470086
-0.38570000000000004,-118.49621847669547
-0.38669999999999993,-116.50147554388576
-0.38570000000000004,-113.17690398920294
-0.38469999999999993,-110.12112758149446
-0.38370000000000004,-107.631235693732
-0.38269999999999993,-105.69308121291688
-0.38170000000000004,-103.40124890713554
-0.3806999999999999,-101.10941660135417
-0.37970000000000004,-98.46390647060656
-0.3786999999999999,-96.07304437383463
-0.37770000000000004,-94.03586010202899
-0.3766999999999999,-91.87135181323548
-0.37570000000000003,-90.13125691440149
-0.3746999999999999,-88.27798511157829
-0.37370000000000003,-86.86327381171324
-0.3726999999999999,-85.23635581686847
-0.37170000000000003,-83.10014175407225
-0.3706999999999999,-81.30345840324367
-0.36970000000000003,-79.2945683574353
-0.3686999999999999,-77.51203211960537
-0.3677,-76.15390927173492
-0.3666999999999999,-74.75334508486853
-0.3657,-73.7347529489657
-0.3646999999999999,-72.41907144009123
-0.3637,-70.79215344524643
-0.3626999999999999,-69.08035277240974
-0.3617,-67.31196364757845
-0.36070000000000013,-65.93969368670936
-0.3597,-64.56742372584027
-0.35870000000000013,-63.49224313794284
-0.3577,-62.58682790602922
-0.35670000000000013,-61.313587736150694
-0.3557,-60.12523024426406
-0.3547000000000001,-58.65393049240442
-0.3537,-57.423131661521836
-0.3527000000000001,-56.31965684762711
-0.3517,-55.06056379074723
-0.3507000000000001,-54.19758989782956
-0.3497,-53.19314487492538
-0.3487000000000001,-52.2735825300131
-0.3477,-51.21254905511432
-0.3467000000000001,-49.81198486824794
-0.3457,-48.84998118433972
-0.3447000000000001,-47.70406503144903
-0.3437,-46.628884443551605
-0.3427000000000001,-45.78005766363259
-0.3417,-44.84634820572166
-0.3407000000000001,-44.195581007783744
-0.3397,-43.16284175888227
-0.3387000000000001,-42.115955396982145
-0.3377,-41.182245939071215
-0.3367000000000001,-40.06462401217784
-0.3357,-39.35726836224533
-0.3347000000000001,-38.480147356329
-0.3337,-37.716203254401876
-0.3327000000000001,-37.06543605646396
-0.3317,-36.13172659855304
-0.3307000000000001,-35.353635383627264
-0.3297,-34.278454795729836
-0.3287000000000001,-33.330598224820264
-0.3277,-32.53835989689585
-0.3267000000000001,-31.54806198699032
-0.3257,-31.095354371033505
-0.3247000000000001,-30.416292947098288
-0.3237,-29.751378636161718
-0.3227000000000001,-29.086464325225155
-0.3217,-28.082019302320973
-0.3207000000000001,-27.37466365238846
-0.3197,-26.497542646472137
-0.3187000000000001,-25.790186996539617
-0.3177,-25.252596702590903
-0.3167000000000001,-24.474505487665134
-0.3157,-23.993503645711023
-0.3147000000000001,-23.229559543783903
-0.3137,-22.479762554855434
-0.3127000000000001,-21.800701130920213
-0.3117,-20.95187435100119
-0.3107000000000001,-20.456725396048434
-0.3097,-19.77766397211321
-0.3087000000000001,-19.211779452167196
-0.3077,-18.730777610213085
-0.3067000000000001,-17.952686395287316
-0.30569999999999997,-17.429243214337255
-0.3047000000000001,-16.651151999411482
-0.30369999999999997,-15.943796349478962
-0.3027000000000001,-15.363764716534297
-0.30169999999999997,-14.69885040559773
-0.3007000000000001,-14.430055258623375
-0.29969999999999997,-13.864170738677359
-0.2987000000000001,-13.31950688822932
-0.29769999999999996,-12.776257749081147
-0.2967000000000001,-11.97411644205767
-0.29569999999999996,-11.508676424402074
-0.2947000000000001,-10.795661929270095
-0.29369999999999996,-10.260901057921112
-0.29270000000000007,-9.826584688862544
-0.29169999999999996,-9.146108553627464
-0.29070000000000007,-8.802333707760258
-0.28969999999999996,-8.171372468020452
-0.28870000000000007,-7.613976215873627
-0.28769999999999996,-7.159853888616951
-0.28670000000000007,-6.465230640383218
-0.28569999999999995,-6.101649836317904
-0.28470000000000006,-5.493323977375938
-0.28369999999999995,-4.99393088852358
-0.28270000000000006,-4.597811724561368
-0.28169999999999995,-3.927238568425342
-0.28070000000000006,-3.579219588658543
-0.27969999999999995,-2.9694790184167124
-0.27870000000000006,-2.461597661765164
-0.27769999999999995,-2.0569902300037635
-0.27670000000000006,-1.4147112998650369
-0.27569999999999995,-1.0922985946257948
-0.27470000000000006,-0.5111351926412377
-0.27369999999999994,-0.023837885402725866
-0.27270000000000005,0.36329786180534146
-0.27169999999999994,0.9921370345953502
-0.27070000000000005,1.3081835389851995
-0.26969999999999994,1.8702483384215782
-0.26870000000000005,2.318711820478795
-0.26769999999999994,2.69361031494303
-0.26670000000000005,3.335889245081757
-0.26569999999999994,3.644296308452334
