Aug. 9, 2024   00:46:38
Cyclic Voltammetry
File: c:/users/guazh/data/20240802_batch_500/2024-08-02-exp59\exp59-2024-08-09t00_41_09-h2koh\exp59_cv_sr_50mvs_efin_-1400mv.bin
Data Source:  Experiment
Instrument Model:  CHI760E
Header: CV ran at 50 mVs
Note: 

Init E (V) = -1
High E (V) = -1
Low E (V) = -1.4
Final E (V) = -1
Init P/N = N
Scan Rate (V/s) = 0.05
Segment = 3
Sample Interval (V) = 0.001
Quiet Time (sec) = 2
Sensitivity (A/V) = 0.01
Comp R (ohm) = 2.2

Results:

Channel 1:
Segment 1:

Segment 2:

Segment 3:

Potential/V, Current/A

-1.000, -7.886e-4
-1.001, -6.778e-4
-1.002, -5.933e-4
-1.003, -5.221e-4
-1.004, -4.544e-4
-1.005, -3.981e-4
-1.006, -3.507e-4
-1.007, -3.062e-4
-1.008, -2.594e-4
-1.009, -2.160e-4
-1.010, -1.779e-4
-1.011, -1.450e-4
-1.012, -1.113e-4
-1.013, -7.706e-5
-1.014, -4.345e-5
-1.015, -1.348e-5
-1.016, 1.354e-5
-1.017, 4.057e-5
-1.018, 6.798e-5
-1.019, 9.633e-5
-1.020, 1.221e-4
-1.021, 1.432e-4
-1.022, 1.656e-4
-1.023, 1.904e-4
-1.024, 2.153e-4
-1.025, 2.360e-4
-1.026, 2.539e-4
-1.027, 2.732e-4
-1.028, 2.947e-4
-1.029, 3.137e-4
-1.030, 3.326e-4
-1.031, 3.500e-4
-1.032, 3.673e-4
-1.033, 3.842e-4
-1.034, 4.019e-4
-1.035, 4.193e-4
-1.036, 4.353e-4
-1.037, 4.477e-4
-1.038, 4.634e-4
-1.039, 4.803e-4
-1.040, 4.986e-4
-1.041, 5.093e-4
-1.042, 5.218e-4
-1.043, 5.375e-4
-1.044, 5.564e-4
-1.045, 5.697e-4
-1.046, 5.766e-4
-1.047, 5.892e-4
-1.048, 6.059e-4
-1.049, 6.226e-4
-1.050, 6.328e-4
-1.051, 6.450e-4
-1.052, 6.594e-4
-1.053, 6.706e-4
-1.054, 6.813e-4
-1.055, 6.937e-4
-1.056, 7.073e-4
-1.057, 7.184e-4
-1.058, 7.264e-4
-1.059, 7.375e-4
-1.060, 7.519e-4
-1.061, 7.595e-4
-1.062, 7.672e-4
-1.063, 7.823e-4
-1.064, 7.980e-4
-1.065, 8.082e-4
-1.066, 8.133e-4
-1.067, 8.228e-4
-1.068, 8.385e-4
-1.069, 8.499e-4
-1.070, 8.570e-4
-1.071, 8.644e-4
-1.072, 8.764e-4
-1.073, 8.878e-4
-1.074, 8.953e-4
-1.075, 9.053e-4
-1.076, 9.177e-4
-1.077, 9.277e-4
-1.078, 9.336e-4
-1.079, 9.414e-4
-1.080, 9.541e-4
-1.081, 9.635e-4
-1.082, 9.643e-4
-1.083, 9.731e-4
-1.084, 9.911e-4
-1.085, 1.004e-3
-1.086, 1.003e-3
-1.087, 1.005e-3
-1.088, 1.020e-3
-1.089, 1.038e-3
-1.090, 1.043e-3
-1.091, 1.046e-3
-1.092, 1.058e-3
-1.093, 1.073e-3
-1.094, 1.076e-3
-1.095, 1.077e-3
-1.096, 1.088e-3
-1.097, 1.103e-3
-1.098, 1.108e-3
-1.099, 1.113e-3
-1.100, 1.124e-3
-1.101, 1.137e-3
-1.102, 1.142e-3
-1.103, 1.145e-3
-1.104, 1.155e-3
-1.105, 1.169e-3
-1.106, 1.175e-3
-1.107, 1.175e-3
-1.108, 1.183e-3
-1.109, 1.197e-3
-1.110, 1.206e-3
-1.111, 1.206e-3
-1.112, 1.211e-3
-1.113, 1.227e-3
-1.114, 1.240e-3
-1.115, 1.241e-3
-1.116, 1.246e-3
-1.117, 1.255e-3
-1.118, 1.269e-3
-1.119, 1.272e-3
-1.120, 1.278e-3
-1.121, 1.288e-3
-1.122, 1.301e-3
-1.123, 1.302e-3
-1.124, 1.309e-3
-1.125, 1.323e-3
-1.126, 1.336e-3
-1.127, 1.338e-3
-1.128, 1.341e-3
-1.129, 1.355e-3
-1.130, 1.373e-3
-1.131, 1.376e-3
-1.132, 1.375e-3
-1.133, 1.383e-3
-1.134, 1.399e-3
-1.135, 1.414e-3
-1.136, 1.416e-3
-1.137, 1.422e-3
-1.138, 1.437e-3
-1.139, 1.450e-3
-1.140, 1.453e-3
-1.141, 1.457e-3
-1.142, 1.468e-3
-1.143, 1.487e-3
-1.144, 1.495e-3
-1.145, 1.502e-3
-1.146, 1.514e-3
-1.147, 1.526e-3
-1.148, 1.528e-3
-1.149, 1.536e-3
-1.150, 1.552e-3
-1.151, 1.568e-3
-1.152, 1.566e-3
-1.153, 1.581e-3
-1.154, 1.602e-3
-1.155, 1.620e-3
-1.156, 1.621e-3
-1.157, 1.625e-3
-1.158, 1.639e-3
-1.159, 1.662e-3
-1.160, 1.670e-3
-1.161, 1.668e-3
-1.162, 1.683e-3
-1.163, 1.705e-3
-1.164, 1.722e-3
-1.165, 1.734e-3
-1.166, 1.743e-3
-1.167, 1.758e-3
-1.168, 1.768e-3
-1.169, 1.771e-3
-1.170, 1.783e-3
-1.171, 1.805e-3
-1.172, 1.819e-3
-1.173, 1.822e-3
-1.174, 1.839e-3
-1.175, 1.865e-3
-1.176, 1.879e-3
-1.177, 1.877e-3
-1.178, 1.884e-3
-1.179, 1.909e-3
-1.180, 1.933e-3
-1.181, 1.933e-3
-1.182, 1.941e-3
-1.183, 1.964e-3
-1.184, 1.986e-3
-1.185, 1.993e-3
-1.186, 1.997e-3
-1.187, 2.014e-3
-1.188, 2.040e-3
-1.189, 2.041e-3
-1.190, 2.054e-3
-1.191, 2.073e-3
-1.192, 2.095e-3
-1.193, 2.108e-3
-1.194, 2.113e-3
-1.195, 2.130e-3
-1.196, 2.149e-3
-1.197, 2.161e-3
-1.198, 2.173e-3
-1.199, 2.198e-3
-1.200, 2.224e-3
-1.201, 2.228e-3
-1.202, 2.233e-3
-1.203, 2.257e-3
-1.204, 2.292e-3
-1.205, 2.305e-3
-1.206, 2.303e-3
-1.207, 2.312e-3
-1.208, 2.347e-3
-1.209, 2.366e-3
-1.210, 2.375e-3
-1.211, 2.384e-3
-1.212, 2.412e-3
-1.213, 2.418e-3
-1.214, 2.426e-3
-1.215, 2.449e-3
-1.216, 2.482e-3
-1.217, 2.495e-3
-1.218, 2.496e-3
-1.219, 2.515e-3
-1.220, 2.549e-3
-1.221, 2.567e-3
-1.222, 2.567e-3
-1.223, 2.581e-3
-1.224, 2.613e-3
-1.225, 2.637e-3
-1.226, 2.635e-3
-1.227, 2.645e-3
-1.228, 2.676e-3
-1.229, 2.708e-3
-1.230, 2.706e-3
-1.231, 2.713e-3
-1.232, 2.742e-3
-1.233, 2.775e-3
-1.234, 2.781e-3
-1.235, 2.787e-3
-1.236, 2.812e-3
-1.237, 2.847e-3
-1.238, 2.856e-3
-1.239, 2.861e-3
-1.240, 2.884e-3
-1.241, 2.919e-3
-1.242, 2.933e-3
-1.243, 2.934e-3
-1.244, 2.954e-3
-1.245, 2.992e-3
-1.246, 3.010e-3
-1.247, 3.006e-3
-1.248, 3.028e-3
-1.249, 3.063e-3
-1.250, 3.099e-3
-1.251, 3.108e-3
-1.252, 3.126e-3
-1.253, 3.145e-3
-1.254, 3.165e-3
-1.255, 3.165e-3
-1.256, 3.182e-3
-1.257, 3.216e-3
-1.258, 3.247e-3
-1.259, 3.252e-3
-1.260, 3.261e-3
-1.261, 3.290e-3
-1.262, 3.325e-3
-1.263, 3.334e-3
-1.264, 3.332e-3
-1.265, 3.357e-3
-1.266, 3.399e-3
-1.267, 3.417e-3
-1.268, 3.417e-3
-1.269, 3.435e-3
-1.270, 3.474e-3
-1.271, 3.502e-3
-1.272, 3.501e-3
-1.273, 3.515e-3
-1.274, 3.557e-3
-1.275, 3.588e-3
-1.276, 3.584e-3
-1.277, 3.584e-3
-1.278, 3.615e-3
-1.279, 3.657e-3
-1.280, 3.664e-3
-1.281, 3.673e-3
-1.282, 3.696e-3
-1.283, 3.734e-3
-1.284, 3.741e-3
-1.285, 3.740e-3
-1.286, 3.760e-3
-1.287, 3.803e-3
-1.288, 3.820e-3
-1.289, 3.820e-3
-1.290, 3.838e-3
-1.291, 3.880e-3
-1.292, 3.907e-3
-1.293, 3.896e-3
-1.294, 3.910e-3
-1.295, 3.966e-3
-1.296, 4.002e-3
-1.297, 3.995e-3
-1.298, 3.984e-3
-1.299, 4.021e-3
-1.300, 4.072e-3
-1.301, 4.073e-3
-1.302, 4.073e-3
-1.303, 4.094e-3
-1.304, 4.144e-3
-1.305, 4.162e-3
-1.306, 4.163e-3
-1.307, 4.177e-3
-1.308, 4.210e-3
-1.309, 4.224e-3
-1.310, 4.222e-3
-1.311, 4.245e-3
-1.312, 4.289e-3
-1.313, 4.307e-3
-1.314, 4.301e-3
-1.315, 4.319e-3
-1.316, 4.367e-3
-1.317, 4.386e-3
-1.318, 4.371e-3
-1.319, 4.379e-3
-1.320, 4.421e-3
-1.321, 4.452e-3
-1.322, 4.442e-3
-1.323, 4.446e-3
-1.324, 4.484e-3
-1.325, 4.525e-3
-1.326, 4.524e-3
-1.327, 4.520e-3
-1.328, 4.543e-3
-1.329, 4.589e-3
-1.330, 4.590e-3
-1.331, 4.583e-3
-1.332, 4.609e-3
-1.333, 4.652e-3
-1.334, 4.660e-3
-1.335, 4.650e-3
-1.336, 4.674e-3
-1.337, 4.722e-3
-1.338, 4.731e-3
-1.339, 4.717e-3
-1.340, 4.730e-3
-1.341, 4.779e-3
-1.342, 4.795e-3
-1.343, 4.779e-3
-1.344, 4.797e-3
-1.345, 4.846e-3
-1.346, 4.871e-3
-1.347, 4.852e-3
-1.348, 4.850e-3
-1.349, 4.904e-3
-1.350, 4.943e-3
-1.351, 4.926e-3
-1.352, 4.929e-3
-1.353, 4.972e-3
-1.354, 5.012e-3
-1.355, 4.992e-3
-1.356, 4.983e-3
-1.357, 5.032e-3
-1.358, 5.087e-3
-1.359, 5.068e-3
-1.360, 5.063e-3
-1.361, 5.113e-3
-1.362, 5.172e-3
-1.363, 5.169e-3
-1.364, 5.164e-3
-1.365, 5.194e-3
-1.366, 5.251e-3
-1.367, 5.251e-3
-1.368, 5.248e-3
-1.369, 5.300e-3
-1.370, 5.366e-3
-1.371, 5.372e-3
-1.372, 5.368e-3
-1.373, 5.396e-3
-1.374, 5.464e-3
-1.375, 5.498e-3
-1.376, 5.495e-3
-1.377, 5.528e-3
-1.378, 5.589e-3
-1.379, 5.639e-3
-1.380, 5.644e-3
-1.381, 5.665e-3
-1.382, 5.727e-3
-1.383, 5.781e-3
-1.384, 5.787e-3
-1.385, 5.812e-3
-1.386, 5.872e-3
-1.387, 5.951e-3
-1.388, 5.960e-3
-1.389, 5.983e-3
-1.390, 6.049e-3
-1.391, 6.139e-3
-1.392, 6.161e-3
-1.393, 6.184e-3
-1.394, 6.235e-3
-1.395, 6.327e-3
-1.396, 6.355e-3
-1.397, 6.381e-3
-1.398, 6.444e-3
-1.399, 6.540e-3
-1.400, 6.469e-3
-1.399, 6.258e-3
-1.398, 6.127e-3
-1.397, 6.053e-3
-1.396, 5.973e-3
-1.395, 5.838e-3
-1.394, 5.723e-3
-1.393, 5.654e-3
-1.392, 5.598e-3
-1.391, 5.490e-3
-1.390, 5.397e-3
-1.389, 5.321e-3
-1.388, 5.253e-3
-1.387, 5.151e-3
-1.386, 5.043e-3
-1.385, 4.960e-3
-1.384, 4.902e-3
-1.383, 4.797e-3
-1.382, 4.677e-3
-1.381, 4.596e-3
-1.380, 4.549e-3
-1.379, 4.462e-3
-1.378, 4.342e-3
-1.377, 4.245e-3
-1.376, 4.192e-3
-1.375, 4.117e-3
-1.374, 3.992e-3
-1.373, 3.887e-3
-1.372, 3.826e-3
-1.371, 3.761e-3
-1.370, 3.665e-3
-1.369, 3.583e-3
-1.368, 3.515e-3
-1.367, 3.443e-3
-1.366, 3.350e-3
-1.365, 3.268e-3
-1.364, 3.201e-3
-1.363, 3.139e-3
-1.362, 3.058e-3
-1.361, 2.982e-3
-1.360, 2.928e-3
-1.359, 2.875e-3
-1.358, 2.800e-3
-1.357, 2.718e-3
-1.356, 2.652e-3
-1.355, 2.606e-3
-1.354, 2.543e-3
-1.353, 2.465e-3
-1.352, 2.413e-3
-1.351, 2.371e-3
-1.350, 2.314e-3
-1.349, 2.239e-3
-1.348, 2.176e-3
-1.347, 2.134e-3
-1.346, 2.086e-3
-1.345, 2.014e-3
-1.344, 1.962e-3
-1.343, 1.921e-3
-1.342, 1.877e-3
-1.341, 1.818e-3
-1.340, 1.763e-3
-1.339, 1.717e-3
-1.338, 1.673e-3
-1.337, 1.626e-3
-1.336, 1.576e-3
-1.335, 1.532e-3
-1.334, 1.493e-3
-1.333, 1.446e-3
-1.332, 1.395e-3
-1.331, 1.354e-3
-1.330, 1.319e-3
-1.329, 1.273e-3
-1.328, 1.223e-3
-1.327, 1.184e-3
-1.326, 1.156e-3
-1.325, 1.122e-3
-1.324, 1.074e-3
-1.323, 1.029e-3
-1.322, 9.930e-4
-1.321, 9.587e-4
-1.320, 9.148e-4
-1.319, 8.785e-4
-1.318, 8.453e-4
-1.317, 8.153e-4
-1.316, 7.792e-4
-1.315, 7.416e-4
-1.314, 7.084e-4
-1.313, 6.774e-4
-1.312, 6.419e-4
-1.311, 6.068e-4
-1.310, 5.771e-4
-1.309, 5.481e-4
-1.308, 5.150e-4
-1.307, 4.804e-4
-1.306, 4.514e-4
-1.305, 4.249e-4
-1.304, 3.977e-4
-1.303, 3.618e-4
-1.302, 3.296e-4
-1.301, 3.028e-4
-1.300, 2.762e-4
-1.299, 2.470e-4
-1.298, 2.176e-4
-1.297, 1.905e-4
-1.296, 1.669e-4
-1.295, 1.408e-4
-1.294, 1.126e-4
-1.293, 8.343e-5
-1.292, 5.603e-5
-1.291, 3.099e-5
-1.290, 5.118e-6
-1.289, -2.452e-5
-1.288, -5.245e-5
-1.287, -7.838e-5
-1.286, -9.910e-5
-1.285, -1.186e-4
-1.284, -1.416e-4
-1.283, -1.666e-4
-1.282, -1.904e-4
-1.281, -2.127e-4
-1.280, -2.363e-4
-1.279, -2.606e-4
-1.278, -2.840e-4
-1.277, -3.064e-4
-1.276, -3.282e-4
-1.275, -3.483e-4
-1.274, -3.674e-4
-1.273, -3.899e-4
-1.272, -4.140e-4
-1.271, -4.359e-4
-1.270, -4.520e-4
-1.269, -4.713e-4
-1.268, -4.972e-4
-1.267, -5.226e-4
-1.266, -5.397e-4
-1.265, -5.551e-4
-1.264, -5.768e-4
-1.263, -6.027e-4
-1.262, -6.200e-4
-1.261, -6.379e-4
-1.260, -6.578e-4
-1.259, -6.833e-4
-1.258, -7.046e-4
-1.257, -7.207e-4
-1.256, -7.409e-4
-1.255, -7.663e-4
-1.254, -7.886e-4
-1.253, -8.046e-4
-1.252, -8.243e-4
-1.251, -8.478e-4
-1.250, -8.670e-4
-1.249, -8.819e-4
-1.248, -9.015e-4
-1.247, -9.274e-4
-1.246, -9.519e-4
-1.245, -9.685e-4
-1.244, -9.890e-4
-1.243, -1.012e-3
-1.242, -1.036e-3
-1.241, -1.051e-3
-1.240, -1.064e-3
-1.239, -1.087e-3
-1.238, -1.112e-3
-1.237, -1.129e-3
-1.236, -1.145e-3
-1.235, -1.166e-3
-1.234, -1.191e-3
-1.233, -1.212e-3
-1.232, -1.228e-3
-1.231, -1.246e-3
-1.230, -1.272e-3
-1.229, -1.296e-3
-1.228, -1.313e-3
-1.227, -1.336e-3
-1.226, -1.363e-3
-1.225, -1.383e-3
-1.224, -1.395e-3
-1.223, -1.413e-3
-1.222, -1.443e-3
-1.221, -1.474e-3
-1.220, -1.484e-3
-1.219, -1.501e-3
-1.218, -1.529e-3
-1.217, -1.562e-3
-1.216, -1.577e-3
-1.215, -1.590e-3
-1.214, -1.626e-3
-1.213, -1.668e-3
-1.212, -1.696e-3
-1.211, -1.708e-3
-1.210, -1.729e-3
-1.209, -1.757e-3
-1.208, -1.781e-3
-1.207, -1.799e-3
-1.206, -1.823e-3
-1.205, -1.850e-3
-1.204, -1.882e-3
-1.203, -1.900e-3
-1.202, -1.924e-3
-1.201, -1.954e-3
-1.200, -1.980e-3
-1.199, -2.001e-3
-1.198, -2.028e-3
-1.197, -2.058e-3
-1.196, -2.091e-3
-1.195, -2.108e-3
-1.194, -2.119e-3
-1.193, -2.150e-3
-1.192, -2.199e-3
-1.191, -2.220e-3
-1.190, -2.224e-3
-1.189, -2.247e-3
-1.188, -2.294e-3
-1.187, -2.332e-3
-1.186, -2.343e-3
-1.185, -2.360e-3
-1.184, -2.390e-3
-1.183, -2.426e-3
-1.182, -2.441e-3
-1.181, -2.457e-3
-1.180, -2.486e-3
-1.179, -2.526e-3
-1.178, -2.547e-3
-1.177, -2.561e-3
-1.176, -2.594e-3
-1.175, -2.635e-3
-1.174, -2.648e-3
-1.173, -2.654e-3
-1.172, -2.680e-3
-1.171, -2.723e-3
-1.170, -2.744e-3
-1.169, -2.755e-3
-1.168, -2.783e-3
-1.167, -2.825e-3
-1.166, -2.849e-3
-1.165, -2.854e-3
-1.164, -2.867e-3
-1.163, -2.903e-3
-1.162, -2.936e-3
-1.161, -2.946e-3
-1.160, -2.961e-3
-1.159, -2.989e-3
-1.158, -3.018e-3
-1.157, -3.027e-3
-1.156, -3.057e-3
-1.155, -3.099e-3
-1.154, -3.127e-3
-1.153, -3.125e-3
-1.152, -3.119e-3
-1.151, -3.147e-3
-1.150, -3.189e-3
-1.149, -3.193e-3
-1.148, -3.203e-3
-1.147, -3.232e-3
-1.146, -3.268e-3
-1.145, -3.269e-3
-1.144, -3.267e-3
-1.143, -3.286e-3
-1.142, -3.322e-3
-1.141, -3.337e-3
-1.140, -3.320e-3
-1.139, -3.323e-3
-1.138, -3.358e-3
-1.137, -3.386e-3
-1.136, -3.376e-3
-1.135, -3.381e-3
-1.134, -3.408e-3
-1.133, -3.428e-3
-1.132, -3.410e-3
-1.131, -3.395e-3
-1.130, -3.420e-3
-1.129, -3.456e-3
-1.128, -3.455e-3
-1.127, -3.443e-3
-1.126, -3.457e-3
-1.125, -3.481e-3
-1.124, -3.478e-3
-1.123, -3.461e-3
-1.122, -3.466e-3
-1.121, -3.493e-3
-1.120, -3.487e-3
-1.119, -3.463e-3
-1.118, -3.463e-3
-1.117, -3.491e-3
-1.116, -3.499e-3
-1.115, -3.466e-3
-1.114, -3.448e-3
-1.113, -3.479e-3
-1.112, -3.494e-3
-1.111, -3.470e-3
-1.110, -3.450e-3
-1.109, -3.461e-3
-1.108, -3.474e-3
-1.107, -3.457e-3
-1.106, -3.437e-3
-1.105, -3.440e-3
-1.104, -3.444e-3
-1.103, -3.427e-3
-1.102, -3.408e-3
-1.101, -3.413e-3
-1.100, -3.431e-3
-1.099, -3.410e-3
-1.098, -3.386e-3
-1.097, -3.384e-3
-1.096, -3.404e-3
-1.095, -3.393e-3
-1.094, -3.356e-3
-1.093, -3.356e-3
-1.092, -3.368e-3
-1.091, -3.357e-3
-1.090, -3.336e-3
-1.089, -3.336e-3
-1.088, -3.350e-3
-1.087, -3.345e-3
-1.086, -3.319e-3
-1.085, -3.305e-3
-1.084, -3.309e-3
-1.083, -3.306e-3
-1.082, -3.280e-3
-1.081, -3.266e-3
-1.080, -3.270e-3
-1.079, -3.286e-3
-1.078, -3.264e-3
-1.077, -3.242e-3
-1.076, -3.234e-3
-1.075, -3.243e-3
-1.074, -3.218e-3
-1.073, -3.209e-3
-1.072, -3.212e-3
-1.071, -3.230e-3
-1.070, -3.215e-3
-1.069, -3.186e-3
-1.068, -3.186e-3
-1.067, -3.196e-3
-1.066, -3.184e-3
-1.065, -3.159e-3
-1.064, -3.162e-3
-1.063, -3.184e-3
-1.062, -3.157e-3
-1.061, -3.161e-3
-1.060, -3.159e-3
-1.059, -3.168e-3
-1.058, -3.157e-3
-1.057, -3.140e-3
-1.056, -3.118e-3
-1.055, -3.131e-3
-1.054, -3.163e-3
-1.053, -3.164e-3
-1.052, -3.181e-3
-1.051, -3.187e-3
-1.050, -3.156e-3
-1.049, -3.131e-3
-1.048, -3.138e-3
-1.047, -3.158e-3
-1.046, -3.158e-3
-1.045, -3.158e-3
-1.044, -3.166e-3
-1.043, -3.183e-3
-1.042, -3.189e-3
-1.041, -3.166e-3
-1.040, -3.146e-3
-1.039, -3.173e-3
-1.038, -3.192e-3
-1.037, -3.181e-3
-1.036, -3.172e-3
-1.035, -3.180e-3
-1.034, -3.198e-3
-1.033, -3.190e-3
-1.032, -3.183e-3
-1.031, -3.197e-3
-1.030, -3.217e-3
-1.029, -3.207e-3
-1.028, -3.198e-3
-1.027, -3.211e-3
-1.026, -3.234e-3
-1.025, -3.234e-3
-1.024, -3.223e-3
-1.023, -3.233e-3
-1.022, -3.258e-3
-1.021, -3.266e-3
-1.020, -3.240e-3
-1.019, -3.242e-3
-1.018, -3.268e-3
-1.017, -3.292e-3
-1.016, -3.282e-3
-1.015, -3.284e-3
-1.014, -3.311e-3
-1.013, -3.325e-3
-1.012, -3.314e-3
-1.011, -3.299e-3
-1.010, -3.324e-3
-1.009, -3.359e-3
-1.008, -3.350e-3
-1.007, -3.342e-3
-1.006, -3.363e-3
-1.005, -3.391e-3
-1.004, -3.397e-3
-1.003, -3.387e-3
-1.002, -3.397e-3
-1.001, -3.427e-3
