Aug. 9, 2024   00:49:19
Cyclic Voltammetry
File: c:/users/guazh/data/20240802_batch_500/2024-08-02-exp59\exp59-2024-08-09t00_41_09-h2koh\exp59_cv_sr_700mvs_efin_-1400mv.bin
Data Source:  Experiment
Instrument Model:  CHI760E
Header: CV ran at 700 mVs
Note: 

Init E (V) = -1
High E (V) = -1
Low E (V) = -1.4
Final E (V) = -1
Init P/N = N
Scan Rate (V/s) = 0.7
Segment = 3
Sample Interval (V) = 0.001
Quiet Time (sec) = 2
Sensitivity (A/V) = 0.01
Comp R (ohm) = 2.2

Results:

Channel 1:
Segment 1:

Segment 2:

Segment 3:

Potential/V, Current/A

-1.000, -6.103e-4
-1.001, -4.623e-4
-1.002, -3.267e-4
-1.003, -1.910e-4
-1.004, -6.767e-5
-1.005, 5.257e-5
-1.006, 1.666e-4
-1.007, 2.776e-4
-1.008, 3.886e-4
-1.009, 4.965e-4
-1.010, 6.106e-4
-1.011, 7.216e-4
-1.012, 8.326e-4
-1.013, 9.405e-4
-1.014, 1.045e-3
-1.015, 1.144e-3
-1.016, 1.236e-3
-1.017, 1.329e-3
-1.018, 1.412e-3
-1.019, 1.499e-3
-1.020, 1.585e-3
-1.021, 1.674e-3
-1.022, 1.764e-3
-1.023, 1.853e-3
-1.024, 1.943e-3
-1.025, 2.029e-3
-1.026, 2.112e-3
-1.027, 2.189e-3
-1.028, 2.266e-3
-1.029, 2.337e-3
-1.030, 2.405e-3
-1.031, 2.476e-3
-1.032, 2.544e-3
-1.033, 2.621e-3
-1.034, 2.695e-3
-1.035, 2.769e-3
-1.036, 2.846e-3
-1.037, 2.917e-3
-1.038, 2.988e-3
-1.039, 3.049e-3
-1.040, 3.111e-3
-1.041, 3.167e-3
-1.042, 3.225e-3
-1.043, 3.281e-3
-1.044, 3.339e-3
-1.045, 3.401e-3
-1.046, 3.462e-3
-1.047, 3.527e-3
-1.048, 3.592e-3
-1.049, 3.654e-3
-1.050, 3.712e-3
-1.051, 3.765e-3
-1.052, 3.820e-3
-1.053, 3.869e-3
-1.054, 3.922e-3
-1.055, 3.974e-3
-1.056, 4.033e-3
-1.057, 4.095e-3
-1.058, 4.156e-3
-1.059, 4.218e-3
-1.060, 4.280e-3
-1.061, 4.338e-3
-1.062, 4.391e-3
-1.063, 4.443e-3
-1.064, 4.492e-3
-1.065, 4.542e-3
-1.066, 4.594e-3
-1.067, 4.646e-3
-1.068, 4.708e-3
-1.069, 4.767e-3
-1.070, 4.831e-3
-1.071, 4.893e-3
-1.072, 4.952e-3
-1.073, 5.007e-3
-1.074, 5.063e-3
-1.075, 5.115e-3
-1.076, 5.167e-3
-1.077, 5.214e-3
-1.078, 5.269e-3
-1.079, 5.325e-3
-1.080, 5.383e-3
-1.081, 5.445e-3
-1.082, 5.504e-3
-1.083, 5.568e-3
-1.084, 5.627e-3
-1.085, 5.679e-3
-1.086, 5.729e-3
-1.087, 5.778e-3
-1.088, 5.824e-3
-1.089, 5.870e-3
-1.090, 5.920e-3
-1.091, 5.972e-3
-1.092, 6.028e-3
-1.093, 6.083e-3
-1.094, 6.142e-3
-1.095, 6.197e-3
-1.096, 6.250e-3
-1.097, 6.302e-3
-1.098, 6.345e-3
-1.099, 6.391e-3
-1.100, 6.432e-3
-1.101, 6.475e-3
-1.102, 6.518e-3
-1.103, 6.564e-3
-1.104, 6.613e-3
-1.105, 6.663e-3
-1.106, 6.715e-3
-1.107, 6.768e-3
-1.108, 6.817e-3
-1.109, 6.863e-3
-1.110, 6.909e-3
-1.111, 6.953e-3
-1.112, 6.996e-3
-1.113, 7.045e-3
-1.114, 7.094e-3
-1.115, 7.150e-3
-1.116, 7.205e-3
-1.117, 7.261e-3
-1.118, 7.316e-3
-1.119, 7.369e-3
-1.120, 7.418e-3
-1.121, 7.467e-3
-1.122, 7.514e-3
-1.123, 7.557e-3
-1.124, 7.606e-3
-1.125, 7.652e-3
-1.126, 7.708e-3
-1.127, 7.767e-3
-1.128, 7.825e-3
-1.129, 7.887e-3
-1.130, 7.948e-3
-1.131, 8.007e-3
-1.132, 8.062e-3
-1.133, 8.112e-3
-1.134, 8.161e-3
-1.135, 8.207e-3
-1.136, 8.257e-3
-1.137, 8.309e-3
-1.138, 8.368e-3
-1.139, 8.429e-3
-1.140, 8.488e-3
-1.141, 8.550e-3
-1.142, 8.608e-3
-1.143, 8.661e-3
-1.144, 8.710e-3
-1.145, 8.759e-3
-1.146, 8.802e-3
-1.147, 8.843e-3
-1.148, 8.892e-3
-1.149, 8.938e-3
-1.150, 8.991e-3
-1.151, 9.040e-3
-1.152, 9.092e-3
-1.153, 9.142e-3
-1.154, 9.188e-3
-1.155, 9.234e-3
-1.156, 9.274e-3
-1.157, 9.311e-3
-1.158, 9.345e-3
-1.159, 9.382e-3
-1.160, 9.413e-3
-1.161, 9.453e-3
-1.162, 9.496e-3
-1.163, 9.539e-3
-1.164, 9.589e-3
-1.165, 9.632e-3
-1.166, 9.678e-3
-1.167, 9.718e-3
-1.168, 9.755e-3
-1.169, 9.795e-3
-1.170, 9.832e-3
-1.171, 9.875e-3
-1.172, 9.915e-3
-1.173, 9.962e-3
-1.174, 1.000e-2
-1.175, 1.005e-2
-1.176, 1.010e-2
-1.177, 1.015e-2
-1.178, 1.020e-2
-1.179, 1.023e-2
-1.180, 1.028e-2
-1.181, 1.031e-2
-1.182, 1.036e-2
-1.183, 1.040e-2
-1.184, 1.045e-2
-1.185, 1.050e-2
-1.186, 1.056e-2
-1.187, 1.061e-2
-1.188, 1.066e-2
-1.189, 1.071e-2
-1.190, 1.076e-2
-1.191, 1.080e-2
-1.192, 1.085e-2
-1.193, 1.089e-2
-1.194, 1.094e-2
-1.195, 1.098e-2
-1.196, 1.103e-2
-1.197, 1.108e-2
-1.198, 1.113e-2
-1.199, 1.118e-2
-1.200, 1.123e-2
-1.201, 1.127e-2
-1.202, 1.131e-2
-1.203, 1.135e-2
-1.204, 1.139e-2
-1.205, 1.142e-2
-1.206, 1.145e-2
-1.207, 1.148e-2
-1.208, 1.152e-2
-1.209, 1.156e-2
-1.210, 1.160e-2
-1.211, 1.165e-2
-1.212, 1.168e-2
-1.213, 1.171e-2
-1.214, 1.174e-2
-1.215, 1.177e-2
-1.216, 1.179e-2
-1.217, 1.181e-2
-1.218, 1.184e-2
-1.219, 1.187e-2
-1.220, 1.191e-2
-1.221, 1.194e-2
-1.222, 1.198e-2
-1.223, 1.202e-2
-1.224, 1.206e-2
-1.225, 1.210e-2
-1.226, 1.214e-2
-1.227, 1.217e-2
-1.228, 1.220e-2
-1.229, 1.223e-2
-1.230, 1.227e-2
-1.231, 1.230e-2
-1.232, 1.234e-2
-1.233, 1.239e-2
-1.234, 1.243e-2
-1.235, 1.247e-2
-1.236, 1.251e-2
-1.237, 1.255e-2
-1.238, 1.259e-2
-1.239, 1.263e-2
-1.240, 1.266e-2
-1.241, 1.270e-2
-1.242, 1.274e-2
-1.243, 1.279e-2
-1.244, 1.284e-2
-1.245, 1.289e-2
-1.246, 1.295e-2
-1.247, 1.300e-2
-1.248, 1.304e-2
-1.249, 1.309e-2
-1.250, 1.313e-2
-1.251, 1.317e-2
-1.252, 1.321e-2
-1.253, 1.325e-2
-1.254, 1.329e-2
-1.255, 1.333e-2
-1.256, 1.337e-2
-1.257, 1.342e-2
-1.258, 1.346e-2
-1.259, 1.350e-2
-1.260, 1.354e-2
-1.261, 1.357e-2
-1.262, 1.359e-2
-1.263, 1.362e-2
-1.264, 1.366e-2
-1.265, 1.369e-2
-1.266, 1.373e-2
-1.267, 1.377e-2
-1.268, 1.380e-2
-1.269, 1.384e-2
-1.270, 1.387e-2
-1.271, 1.390e-2
-1.272, 1.393e-2
-1.273, 1.395e-2
-1.274, 1.398e-2
-1.275, 1.400e-2
-1.276, 1.403e-2
-1.277, 1.405e-2
-1.278, 1.409e-2
-1.279, 1.412e-2
-1.280, 1.415e-2
-1.281, 1.419e-2
-1.282, 1.422e-2
-1.283, 1.426e-2
-1.284, 1.428e-2
-1.285, 1.431e-2
-1.286, 1.434e-2
-1.287, 1.437e-2
-1.288, 1.440e-2
-1.289, 1.443e-2
-1.290, 1.447e-2
-1.291, 1.451e-2
-1.292, 1.456e-2
-1.293, 1.461e-2
-1.294, 1.466e-2
-1.295, 1.471e-2
-1.296, 1.475e-2
-1.297, 1.480e-2
-1.298, 1.483e-2
-1.299, 1.487e-2
-1.300, 1.491e-2
-1.301, 1.496e-2
-1.302, 1.501e-2
-1.303, 1.507e-2
-1.304, 1.513e-2
-1.305, 1.519e-2
-1.306, 1.525e-2
-1.307, 1.530e-2
-1.308, 1.535e-2
-1.309, 1.539e-2
-1.310, 1.542e-2
-1.311, 1.546e-2
-1.312, 1.549e-2
-1.313, 1.553e-2
-1.314, 1.558e-2
-1.315, 1.562e-2
-1.316, 1.567e-2
-1.317, 1.571e-2
-1.318, 1.575e-2
-1.319, 1.577e-2
-1.320, 1.581e-2
-1.321, 1.584e-2
-1.322, 1.587e-2
-1.323, 1.591e-2
-1.324, 1.594e-2
-1.325, 1.598e-2
-1.326, 1.602e-2
-1.327, 1.606e-2
-1.328, 1.610e-2
-1.329, 1.614e-2
-1.330, 1.618e-2
-1.331, 1.621e-2
-1.332, 1.625e-2
-1.333, 1.629e-2
-1.334, 1.633e-2
-1.335, 1.638e-2
-1.336, 1.643e-2
-1.337, 1.648e-2
-1.338, 1.653e-2
-1.339, 1.659e-2
-1.340, 1.664e-2
-1.341, 1.669e-2
-1.342, 1.674e-2
-1.343, 1.678e-2
-1.344, 1.682e-2
-1.345, 1.686e-2
-1.346, 1.691e-2
-1.347, 1.696e-2
-1.348, 1.701e-2
-1.349, 1.707e-2
-1.350, 1.712e-2
-1.351, 1.719e-2
-1.352, 1.724e-2
-1.353, 1.730e-2
-1.354, 1.735e-2
-1.355, 1.741e-2
-1.356, 1.746e-2
-1.357, 1.751e-2
-1.358, 1.756e-2
-1.359, 1.762e-2
-1.360, 1.768e-2
-1.361, 1.774e-2
-1.362, 1.780e-2
-1.363, 1.786e-2
-1.364, 1.791e-2
-1.365, 1.796e-2
-1.366, 1.800e-2
-1.367, 1.805e-2
-1.368, 1.809e-2
-1.369, 1.813e-2
-1.370, 1.817e-2
-1.371, 1.822e-2
-1.372, 1.827e-2
-1.373, 1.832e-2
-1.374, 1.837e-2
-1.375, 1.842e-2
-1.376, 1.847e-2
-1.377, 1.851e-2
-1.378, 1.855e-2
-1.379, 1.859e-2
-1.380, 1.862e-2
-1.381, 1.865e-2
-1.382, 1.869e-2
-1.383, 1.874e-2
-1.384, 1.879e-2
-1.385, 1.883e-2
-1.386, 1.888e-2
-1.387, 1.893e-2
-1.388, 1.899e-2
-1.389, 1.903e-2
-1.390, 1.908e-2
-1.391, 1.912e-2
-1.392, 1.915e-2
-1.393, 1.920e-2
-1.394, 1.924e-2
-1.395, 1.929e-2
-1.396, 1.934e-2
-1.397, 1.941e-2
-1.398, 1.947e-2
-1.399, 1.953e-2
-1.400, 1.949e-2
-1.399, 1.926e-2
-1.398, 1.904e-2
-1.397, 1.883e-2
-1.396, 1.862e-2
-1.395, 1.841e-2
-1.394, 1.822e-2
-1.393, 1.803e-2
-1.392, 1.784e-2
-1.391, 1.766e-2
-1.390, 1.748e-2
-1.389, 1.729e-2
-1.388, 1.710e-2
-1.387, 1.691e-2
-1.386, 1.673e-2
-1.385, 1.654e-2
-1.384, 1.636e-2
-1.383, 1.617e-2
-1.382, 1.599e-2
-1.381, 1.581e-2
-1.380, 1.564e-2
-1.379, 1.547e-2
-1.378, 1.530e-2
-1.377, 1.512e-2
-1.376, 1.494e-2
-1.375, 1.475e-2
-1.374, 1.456e-2
-1.373, 1.437e-2
-1.372, 1.418e-2
-1.371, 1.399e-2
-1.370, 1.381e-2
-1.369, 1.363e-2
-1.368, 1.345e-2
-1.367, 1.327e-2
-1.366, 1.309e-2
-1.365, 1.291e-2
-1.364, 1.273e-2
-1.363, 1.255e-2
-1.362, 1.238e-2
-1.361, 1.222e-2
-1.360, 1.206e-2
-1.359, 1.190e-2
-1.358, 1.176e-2
-1.357, 1.161e-2
-1.356, 1.146e-2
-1.355, 1.131e-2
-1.354, 1.116e-2
-1.353, 1.100e-2
-1.352, 1.084e-2
-1.351, 1.068e-2
-1.350, 1.052e-2
-1.349, 1.037e-2
-1.348, 1.021e-2
-1.347, 1.006e-2
-1.346, 9.915e-3
-1.345, 9.774e-3
-1.344, 9.638e-3
-1.343, 9.496e-3
-1.342, 9.357e-3
-1.341, 9.212e-3
-1.340, 9.068e-3
-1.339, 8.923e-3
-1.338, 8.775e-3
-1.337, 8.633e-3
-1.336, 8.497e-3
-1.335, 8.365e-3
-1.334, 8.235e-3
-1.333, 8.106e-3
-1.332, 7.976e-3
-1.331, 7.844e-3
-1.330, 7.711e-3
-1.329, 7.575e-3
-1.328, 7.443e-3
-1.327, 7.304e-3
-1.326, 7.165e-3
-1.325, 7.027e-3
-1.324, 6.894e-3
-1.323, 6.768e-3
-1.322, 6.641e-3
-1.321, 6.515e-3
-1.320, 6.391e-3
-1.319, 6.265e-3
-1.318, 6.136e-3
-1.317, 6.003e-3
-1.316, 5.867e-3
-1.315, 5.729e-3
-1.314, 5.599e-3
-1.313, 5.463e-3
-1.312, 5.337e-3
-1.311, 5.214e-3
-1.310, 5.093e-3
-1.309, 4.976e-3
-1.308, 4.856e-3
-1.307, 4.736e-3
-1.306, 4.612e-3
-1.305, 4.489e-3
-1.304, 4.366e-3
-1.303, 4.243e-3
-1.302, 4.122e-3
-1.301, 4.005e-3
-1.300, 3.894e-3
-1.299, 3.783e-3
-1.298, 3.678e-3
-1.297, 3.570e-3
-1.296, 3.462e-3
-1.295, 3.355e-3
-1.294, 3.241e-3
-1.293, 3.126e-3
-1.292, 3.009e-3
-1.291, 2.895e-3
-1.290, 2.787e-3
-1.289, 2.679e-3
-1.288, 2.581e-3
-1.287, 2.482e-3
-1.286, 2.386e-3
-1.285, 2.288e-3
-1.284, 2.189e-3
-1.283, 2.087e-3
-1.282, 1.983e-3
-1.281, 1.878e-3
-1.280, 1.770e-3
-1.279, 1.668e-3
-1.278, 1.566e-3
-1.277, 1.471e-3
-1.276, 1.378e-3
-1.275, 1.286e-3
-1.274, 1.199e-3
-1.273, 1.107e-3
-1.272, 1.018e-3
-1.271, 9.189e-4
-1.270, 8.203e-4
-1.269, 7.247e-4
-1.268, 6.260e-4
-1.267, 5.305e-4
-1.266, 4.380e-4
-1.265, 3.516e-4
-1.264, 2.653e-4
-1.263, 1.851e-4
-1.262, 1.019e-4
-1.261, 1.865e-5
-1.260, -7.076e-5
-1.259, -1.571e-4
-1.258, -2.465e-4
-1.257, -3.421e-4
-1.256, -4.284e-4
-1.255, -5.147e-4
-1.254, -5.949e-4
-1.253, -6.750e-4
-1.252, -7.490e-4
-1.251, -8.230e-4
-1.250, -9.001e-4
-1.249, -9.741e-4
-1.248, -1.054e-3
-1.247, -1.134e-3
-1.246, -1.218e-3
-1.245, -1.301e-3
-1.244, -1.381e-3
-1.243, -1.458e-3
-1.242, -1.532e-3
-1.241, -1.603e-3
-1.240, -1.671e-3
-1.239, -1.736e-3
-1.238, -1.807e-3
-1.237, -1.874e-3
-1.236, -1.951e-3
-1.235, -2.025e-3
-1.234, -2.103e-3
-1.233, -2.180e-3
-1.232, -2.254e-3
-1.231, -2.328e-3
-1.230, -2.395e-3
-1.229, -2.466e-3
-1.228, -2.531e-3
-1.227, -2.593e-3
-1.226, -2.661e-3
-1.225, -2.728e-3
-1.224, -2.802e-3
-1.223, -2.873e-3
-1.222, -2.947e-3
-1.221, -3.021e-3
-1.220, -3.092e-3
-1.219, -3.160e-3
-1.218, -3.222e-3
-1.217, -3.283e-3
-1.216, -3.339e-3
-1.215, -3.401e-3
-1.214, -3.462e-3
-1.213, -3.527e-3
-1.212, -3.595e-3
-1.211, -3.666e-3
-1.210, -3.737e-3
-1.209, -3.801e-3
-1.208, -3.866e-3
-1.207, -3.928e-3
-1.206, -3.983e-3
-1.205, -4.039e-3
-1.204, -4.091e-3
-1.203, -4.147e-3
-1.202, -4.202e-3
-1.201, -4.261e-3
-1.200, -4.322e-3
-1.199, -4.384e-3
-1.198, -4.446e-3
-1.197, -4.501e-3
-1.196, -4.560e-3
-1.195, -4.612e-3
-1.194, -4.665e-3
-1.193, -4.714e-3
-1.192, -4.766e-3
-1.191, -4.819e-3
-1.190, -4.874e-3
-1.189, -4.936e-3
-1.188, -4.998e-3
-1.187, -5.062e-3
-1.186, -5.121e-3
-1.185, -5.183e-3
-1.184, -5.238e-3
-1.183, -5.294e-3
-1.182, -5.343e-3
-1.181, -5.392e-3
-1.180, -5.448e-3
-1.179, -5.500e-3
-1.178, -5.562e-3
-1.177, -5.623e-3
-1.176, -5.685e-3
-1.175, -5.750e-3
-1.174, -5.812e-3
-1.173, -5.873e-3
-1.172, -5.929e-3
-1.171, -5.981e-3
-1.170, -6.033e-3
-1.169, -6.083e-3
-1.168, -6.135e-3
-1.167, -6.191e-3
-1.166, -6.249e-3
-1.165, -6.308e-3
-1.164, -6.370e-3
-1.163, -6.434e-3
-1.162, -6.493e-3
-1.161, -6.551e-3
-1.160, -6.604e-3
-1.159, -6.656e-3
-1.158, -6.703e-3
-1.157, -6.752e-3
-1.156, -6.804e-3
-1.155, -6.854e-3
-1.154, -6.909e-3
-1.153, -6.965e-3
-1.152, -7.023e-3
-1.151, -7.082e-3
-1.150, -7.134e-3
-1.149, -7.183e-3
-1.148, -7.230e-3
-1.147, -7.273e-3
-1.146, -7.313e-3
-1.145, -7.356e-3
-1.144, -7.399e-3
-1.143, -7.449e-3
-1.142, -7.498e-3
-1.141, -7.547e-3
-1.140, -7.600e-3
-1.139, -7.643e-3
-1.138, -7.692e-3
-1.137, -7.735e-3
-1.136, -7.779e-3
-1.135, -7.822e-3
-1.134, -7.862e-3
-1.133, -7.905e-3
-1.132, -7.948e-3
-1.131, -7.997e-3
-1.130, -8.047e-3
-1.129, -8.099e-3
-1.128, -8.152e-3
-1.127, -8.204e-3
-1.126, -8.250e-3
-1.125, -8.290e-3
-1.124, -8.333e-3
-1.123, -8.370e-3
-1.122, -8.411e-3
-1.121, -8.457e-3
-1.120, -8.503e-3
-1.119, -8.555e-3
-1.118, -8.611e-3
-1.117, -8.670e-3
-1.116, -8.728e-3
-1.115, -8.784e-3
-1.114, -8.833e-3
-1.113, -8.879e-3
-1.112, -8.922e-3
-1.111, -8.966e-3
-1.110, -9.012e-3
-1.109, -9.058e-3
-1.108, -9.110e-3
-1.107, -9.160e-3
-1.106, -9.218e-3
-1.105, -9.277e-3
-1.104, -9.332e-3
-1.103, -9.385e-3
-1.102, -9.434e-3
-1.101, -9.483e-3
-1.100, -9.527e-3
-1.099, -9.567e-3
-1.098, -9.610e-3
-1.097, -9.653e-3
-1.096, -9.696e-3
-1.095, -9.742e-3
-1.094, -9.795e-3
-1.093, -9.841e-3
-1.092, -9.881e-3
-1.091, -9.921e-3
-1.090, -9.958e-3
-1.089, -9.992e-3
-1.088, -1.002e-2
-1.087, -1.005e-2
-1.086, -1.008e-2
-1.085, -1.012e-2
-1.084, -1.016e-2
-1.083, -1.020e-2
-1.082, -1.024e-2
-1.081, -1.028e-2
-1.080, -1.032e-2
-1.079, -1.036e-2
-1.078, -1.039e-2
-1.077, -1.042e-2
-1.076, -1.045e-2
-1.075, -1.049e-2
-1.074, -1.052e-2
-1.073, -1.056e-2
-1.072, -1.060e-2
-1.071, -1.065e-2
-1.070, -1.069e-2
-1.069, -1.073e-2
-1.068, -1.077e-2
-1.067, -1.080e-2
-1.066, -1.084e-2
-1.065, -1.087e-2
-1.064, -1.090e-2
-1.063, -1.094e-2
-1.062, -1.098e-2
-1.061, -1.103e-2
-1.060, -1.108e-2
-1.059, -1.113e-2
-1.058, -1.119e-2
-1.057, -1.123e-2
-1.056, -1.128e-2
-1.055, -1.132e-2
-1.054, -1.136e-2
-1.053, -1.140e-2
-1.052, -1.144e-2
-1.051, -1.148e-2
-1.050, -1.152e-2
-1.049, -1.157e-2
-1.048, -1.162e-2
-1.047, -1.167e-2
-1.046, -1.172e-2
-1.045, -1.176e-2
-1.044, -1.181e-2
-1.043, -1.185e-2
-1.042, -1.188e-2
-1.041, -1.191e-2
-1.040, -1.194e-2
-1.039, -1.198e-2
-1.038, -1.202e-2
-1.037, -1.206e-2
-1.036, -1.210e-2
-1.035, -1.214e-2
-1.034, -1.218e-2
-1.033, -1.221e-2
-1.032, -1.224e-2
-1.031, -1.227e-2
-1.030, -1.230e-2
-1.029, -1.232e-2
-1.028, -1.235e-2
-1.027, -1.238e-2
-1.026, -1.240e-2
-1.025, -1.243e-2
-1.024, -1.246e-2
-1.023, -1.249e-2
-1.022, -1.252e-2
-1.021, -1.255e-2
-1.020, -1.258e-2
-1.019, -1.260e-2
-1.018, -1.263e-2
-1.017, -1.265e-2
-1.016, -1.267e-2
-1.015, -1.271e-2
-1.014, -1.274e-2
-1.013, -1.278e-2
-1.012, -1.282e-2
-1.011, -1.286e-2
-1.010, -1.289e-2
-1.009, -1.292e-2
-1.008, -1.295e-2
-1.007, -1.298e-2
-1.006, -1.301e-2
-1.005, -1.304e-2
-1.004, -1.308e-2
-1.003, -1.312e-2
-1.002, -1.316e-2
-1.001, -1.320e-2
