Potential V vs RHE, Current mA cm-2
0.4132999999999999,-0.00929465324011329
0.4122999999999999,-0.010350027869812609
0.4112999999999999,-0.010635799552385347
0.4102999999999999,-0.010814053176168343
0.4092999999999999,-0.010947036038355654
0.4082999999999999,-0.011030504005047691
0.4072999999999999,-0.011118216105639324
0.4062999999999999,-0.011227148875728931
0.4052999999999999,-0.011331837511918944
0.4042999999999999,-0.011432282014209361
0.4032999999999999,-0.011483211621004503
0.4022999999999999,-0.01156102074249708
0.4012999999999999,-0.01162609746229087
0.4002999999999999,-0.011708150717683045
0.3992999999999999,-0.011787374550475486
0.3982999999999999,-0.011828401178171572
0.3972999999999999,-0.011873671939767252
0.3962999999999999,-0.011909039722263879
0.3952999999999999,-0.011995337111555645
0.3942999999999999,-0.012063243253949167
0.39329999999999987,-0.012107099304244983
0.39229999999999987,-0.012175005446638505
0.39129999999999987,-0.012238667455132432
0.39029999999999987,-0.012302329463626359
0.38929999999999987,-0.01232779426702393
0.38829999999999987,-0.012349014936521905
0.38729999999999987,-0.01238721214161826
0.38629999999999987,-0.012456532995311648
0.38529999999999986,-0.012518780292505709
0.38429999999999986,-0.012566880476701122
0.38329999999999986,-0.012606492393097342
0.38229999999999986,-0.012640445464294103
0.38129999999999986,-0.012674398535490863
0.38029999999999986,-0.012745134100484116
0.37929999999999986,-0.012779087171680878
0.37829999999999986,-0.012798893129878986
0.37729999999999986,-0.012854066870573722
0.37629999999999986,-0.012896508209569675
0.37529999999999986,-0.01295451137286414
0.37429999999999986,-0.013002611557059552
0.37329999999999985,-0.013046467607355368
0.37229999999999985,-0.01308890894635132
0.37129999999999985,-0.013121447306248216
0.37029999999999985,-0.013189353448641737
0.36929999999999985,-0.013236038921537283
0.36829999999999985,-0.013236038921537283
0.36729999999999985,-0.01329121266223202
0.36629999999999985,-0.013332239289928105
0.36529999999999985,-0.013395901298422032
0.36429999999999985,-0.013441172060017713
0.36329999999999985,-0.01346239272951569
0.36229999999999984,-0.013506248779811504
0.36129999999999984,-0.01355010483010732
0.36029999999999984,-0.013588302035203677
0.35929999999999984,-0.013640646353298685
0.35829999999999984,-0.01366752586799612
0.35729999999999984,-0.01372411431999072
0.35629999999999984,-0.013759482102487347
0.35529999999999984,-0.013803338152783165
0.35429999999999984,-0.013868414872576954
0.35329999999999984,-0.01387548842907628
0.35229999999999984,-0.013920759190671962
0.35129999999999983,-0.013956126973168587
0.35029999999999983,-0.014008471291263595
0.34929999999999983,-0.014045253785060085
0.34829999999999983,-0.014083450990156442
0.34729999999999983,-0.014147112998650365
0.34629999999999983,-0.014175407224647668
0.34529999999999983,-0.01424614278964092
0.34429999999999983,-0.01427443701563822
0.3432999999999998,-0.014288584128636872
0.3422999999999998,-0.014331025467632824
0.3412999999999998,-0.014359319693630123
0.3402999999999998,-0.014444202371622025
0.3392999999999998,-0.014486643710617976
0.3382999999999998,-0.014529085049613928
0.3372999999999998,-0.014571526388609878
0.3362999999999998,-0.014585673501608528
0.3352999999999998,-0.01465640906660178
0.3342999999999998,-0.014670556179600431
0.3332999999999998,-0.01469885040559773
0.3322999999999998,-0.014741291744593682
0.3312999999999998,-0.014769585970590984
0.3302999999999998,-0.014840321535584235
0.3292999999999998,-0.014868615761581536
0.3282999999999998,-0.014896909987578835
0.3272999999999998,-0.014911057100577486
0.3262999999999998,-0.014953498439573438
0.3252999999999999,-0.015024234004566688
0.3242999999999999,-0.01505252823056399
0.3232999999999999,-0.01505252823056399
0.3222999999999999,-0.015109116682558592
0.3212999999999999,-0.015151558021554544
0.3202999999999999,-0.015193999360550494
0.3192999999999999,-0.015236440699546445
0.3182999999999999,-0.015250587812545097
0.3172999999999999,-0.015264734925543746
0.3162999999999999,-0.015335470490536997
0.3152999999999999,-0.015377911829532949
0.3142999999999999,-0.015406206055530251
0.3132999999999999,-0.015420353168528897
0.3122999999999999,-0.015448647394526203
0.3112999999999999,-0.015505235846520802
0.3102999999999999,-0.015561824298515404
0.3092999999999999,-0.015590118524512706
0.3082999999999999,-0.015632559863508654
0.3072999999999999,-0.015646706976507305
0.3062999999999999,-0.015675001202504608
0.3052999999999999,-0.01573158965449921
0.3042999999999999,-0.01575988388049651
0.3032999999999999,-0.015774030993495156
0.3022999999999999,-0.01580232521949246
0.3012999999999999,-0.01584476655848841
0.3002999999999999,-0.015901355010483013
0.2992999999999999,-0.01591550212348166
0.2982999999999999,-0.015943796349478963
0.2972999999999999,-0.01597209057547626
0.2962999999999999,-0.016014531914472215
0.2952999999999999,-0.01608526747946547
0.2942999999999999,-0.01608526747946547
0.2932999999999999,-0.01611356170546277
0.2922999999999999,-0.01615600304445872
0.2912999999999999,-0.01618429727045602
0.2902999999999999,-0.01624088572245062
0.2892999999999999,-0.016269179948447923
0.2882999999999999,-0.01629747417444522
0.2872999999999999,-0.016339915513441175
0.2862999999999999,-0.01638235685243712
0.2852999999999999,-0.016438945304431726
0.2842999999999999,-0.016453092417430374
0.2832999999999999,-0.01646723953042903
0.2822999999999999,-0.01650968086942498
0.2812999999999999,-0.016552122208420932
0.2802999999999999,-0.01659456354741688
0.2792999999999999,-0.01665115199941148
0.2782999999999999,-0.01665115199941148
0.2772999999999999,-0.016679446225408782
0.2762999999999999,-0.01673603467740338
0.2752999999999999,-0.016778476016399334
0.2742999999999999,-0.016820917355395284
0.2732999999999999,-0.01683506446839394
0.2722999999999999,-0.016863358694391237
0.2712999999999999,-0.01690580003338719
0.2702999999999999,-0.01697653559838044
0.2692999999999999,-0.01699068271137909
0.26829999999999987,-0.017018976937376393
0.26729999999999987,-0.01706141827637234
0.26629999999999987,-0.017089712502369642
0.26529999999999987,-0.017146300954364244
0.26429999999999987,-0.017160448067362895
0.26329999999999987,-0.017202889406358845
0.26229999999999987,-0.017231183632356147
0.26129999999999987,-0.017273624971352097
0.26029999999999986,-0.01734436053634535
0.25929999999999986,-0.017358507649344
0.25829999999999986,-0.017372654762342652
0.25729999999999986,-0.017400948988339954
0.25629999999999986,-0.017429243214337253
0.25529999999999986,-0.017499978779330502
0.25429999999999986,-0.0175282730053278
0.25329999999999986,-0.0175282730053278
0.25229999999999986,-0.017584861457322406
0.25129999999999986,-0.017613155683319705
0.25029999999999986,-0.01768389124831296
0.24929999999999986,-0.01774047970030756
0.24829999999999985,-0.01776877392630486
0.24729999999999985,-0.01776877392630486
0.24629999999999985,-0.01781121526530081
0.24529999999999985,-0.017867803717295416
0.24429999999999985,-0.017881950830294063
0.24329999999999985,-0.017896097943292714
0.24229999999999985,-0.017938539282288665
0.24129999999999985,-0.017980980621284618
0.24029999999999985,-0.01803756907327922
0.23929999999999985,-0.018080010412275173
0.23829999999999985,-0.018094157525273817
0.23729999999999984,-0.018108304638272472
0.23629999999999984,-0.01816489309026707
0.23529999999999984,-0.01820733442926302
0.23429999999999984,-0.018235628655260322
0.23329999999999984,-0.018249775768258973
0.23229999999999984,-0.018278069994256275
0.23129999999999984,-0.018334658446250877
0.23029999999999984,-0.018377099785246823
0.22929999999999984,-0.018391246898245478
0.22829999999999984,-0.018433688237241428
0.22729999999999984,-0.018447835350240076
0.22629999999999983,-0.01850442380223468
0.22529999999999983,-0.01856101225422928
0.22429999999999983,-0.01856101225422928
0.22329999999999983,-0.01858930648022658
0.22229999999999983,-0.018631747819222534
0.22129999999999983,-0.018660042045219833
0.22029999999999983,-0.018730777610213082
0.21929999999999983,-0.018759071836210388
0.21829999999999983,-0.018787366062207687
0.21729999999999983,-0.018801513175206338
0.21629999999999983,-0.018843954514202284
0.21529999999999982,-0.01892883719219419
0.21429999999999982,-0.018942984305192843
0.21329999999999982,-0.018985425644188793
0.21229999999999982,-0.019042014096183394
0.21129999999999982,-0.019070308322180696
0.21029999999999982,-0.019126896774175294
0.20929999999999982,-0.019126896774175294
0.20829999999999982,-0.019126896774175294
0.20729999999999982,-0.0191834852261699
0.20629999999999982,-0.01922592656516585
0.20529999999999982,-0.0192683679041618
0.20429999999999982,-0.019310809243157753
0.20329999999999981,-0.019310809243157753
0.2022999999999998,-0.01933910346915505
0.2012999999999998,-0.019395691921149656
0.20029999999999992,-0.019438133260145606
0.19929999999999992,-0.019466427486142905
0.19829999999999992,-0.019480574599141553
0.19729999999999992,-0.019523015938137503
0.19629999999999992,-0.019565457277133456
0.19529999999999992,-0.019607898616129407
0.19429999999999992,-0.01967863418112266
0.19329999999999992,-0.01970692840711996
0.19229999999999992,-0.01970692840711996
0.19129999999999991,-0.019763516859114563
0.1902999999999999,-0.019805958198110513
0.1892999999999999,-0.019820105311109164
0.1882999999999999,-0.019862546650105117
0.1872999999999999,-0.019890840876102416
0.1862999999999999,-0.019919135102099715
0.1852999999999999,-0.019989870667092968
0.1842999999999999,-0.02000401778009162
0.1832999999999999,-0.02004645911908757
0.1822999999999999,-0.02007475334508487
0.1812999999999999,-0.02015963602307677
0.1802999999999999,-0.020216224475071376
0.1792999999999999,-0.020216224475071376
0.1782999999999999,-0.020258665814067326
0.1772999999999999,-0.020272812927065977
0.1762999999999999,-0.020301107153063276
0.1752999999999999,-0.020371842718056525
0.1742999999999999,-0.020400136944053827
0.1732999999999999,-0.02041428405705248
0.1722999999999999,-0.02048501962204573
0.1712999999999999,-0.020513313848043033
0.1702999999999999,-0.020584049413036282
0.1692999999999999,-0.020598196526034934
0.1682999999999999,-0.020640637865030884
0.1672999999999999,-0.020654784978029535
0.1662999999999999,-0.020697226317025485
0.1652999999999999,-0.02075381476902009
0.1642999999999999,-0.02079625610801604
0.1632999999999999,-0.020810403221014687
0.1622999999999999,-0.020838697447011986
0.1612999999999999,-0.020895285899006594
0.1602999999999999,-0.020937727238002544
0.1592999999999999,-0.020980168576998495
0.15829999999999989,-0.021008462802995797
0.15729999999999988,-0.021065051254990398
0.15629999999999988,-0.021135786819983647
0.15529999999999988,-0.0212065223849769
0.15429999999999988,-0.0212348166109742
0.15329999999999988,-0.0212348166109742
0.15229999999999988,-0.02124896372397285
0.15129999999999988,-0.021291405062968803
0.15029999999999988,-0.021347993514963404
0.14929999999999988,-0.021376287740960703
0.14829999999999988,-0.021432876192955305
0.14729999999999988,-0.021432876192955305
0.14629999999999987,-0.021489464644949906
0.14529999999999987,-0.021546053096944507
0.14429999999999987,-0.021546053096944507
0.14329999999999987,-0.021602641548939108
0.14229999999999987,-0.021645082887935062
0.14129999999999987,-0.021687524226931015
0.14029999999999987,-0.021758259791924264
0.13929999999999987,-0.021758259791924264
0.13829999999999987,-0.021800701130920214
0.13729999999999987,-0.021828995356917517
0.13629999999999987,-0.021885583808912118
0.13529999999999986,-0.02194217226090672
0.13429999999999986,-0.021956319373905367
0.13329999999999986,-0.02198461359990267
0.13229999999999986,-0.02204120205189727
0.13129999999999986,-0.02208364339089322
0.13029999999999986,-0.022154378955886473
0.12929999999999986,-0.02218267318188378
0.12829999999999986,-0.02218267318188378
0.12729999999999986,-0.022239261633878377
0.12629999999999986,-0.022295850085872978
0.12529999999999986,-0.02235243853786758
0.12429999999999986,-0.02239487987686353
0.12329999999999985,-0.02240902698986218
0.12229999999999985,-0.022437321215859483
0.12129999999999985,-0.022508056780852735
0.12029999999999985,-0.022550498119848682
0.11929999999999985,-0.022578792345845984
0.11829999999999985,-0.022607086571843286
0.11729999999999985,-0.02264952791083924
0.11629999999999985,-0.02270611636283384
0.11529999999999985,-0.02276270481482844
0.11429999999999985,-0.02279099904082574
0.11329999999999985,-0.022819293266823044
0.11229999999999984,-0.022847587492820343
0.11129999999999984,-0.022932470170812246
0.11029999999999984,-0.022974911509808196
0.10929999999999984,-0.022974911509808196
0.10829999999999984,-0.023017352848804146
0.10729999999999984,-0.023017352848804146
0.10629999999999984,-0.02310223552679605
0.10529999999999984,-0.023158823978790648
0.10429999999999984,-0.0232012653177866
0.10329999999999984,-0.023257853769781203
0.10229999999999984,-0.023257853769781203
0.10129999999999983,-0.023314442221775804
0.10029999999999983,-0.02338517778676906
0.09929999999999983,-0.023399324899767704
0.09829999999999983,-0.02345591335176231
0.09729999999999983,-0.023498354690758262
0.09629999999999983,-0.02354079602975421
0.09529999999999983,-0.023611531594747465
0.09429999999999983,-0.023639825820744764
0.09329999999999983,-0.023639825820744764
0.09229999999999983,-0.023696414272739365
0.09129999999999983,-0.023753002724733966
0.09029999999999982,-0.023809591176728567
0.08929999999999982,-0.02385203251572452
0.08829999999999982,-0.02390862096771912
0.08729999999999982,-0.02393691519371642
0.08629999999999982,-0.02397935653271237
0.08529999999999982,-0.024021797871708325
0.08429999999999982,-0.024035944984706972
0.08329999999999982,-0.024064239210704275
0.08229999999999982,-0.024120827662698876
0.08129999999999982,-0.024191563227692125
0.08029999999999982,-0.02423400456668808
0.07929999999999982,-0.02426229879268538
0.07829999999999981,-0.02429059301868268
0.07729999999999981,-0.024318887244679982
0.07629999999999981,-0.02438962280967323
0.07529999999999992,-0.024432064148669184
0.07429999999999992,-0.02447450548766513
0.07329999999999992,-0.024502799713662437
0.07229999999999992,-0.02453109393965974
0.07129999999999992,-0.024601829504652988
0.07029999999999992,-0.02465841795664759
0.06929999999999992,-0.02467256506964624
0.06829999999999992,-0.02471500640864219
0.06729999999999992,-0.02475744774763814
0.06629999999999991,-0.02482818331263139
0.06529999999999991,-0.024898918877624646
0.06429999999999991,-0.024898918877624646
0.06329999999999991,-0.0249413602166206
0.06229999999999991,-0.024983801555616546
0.06129999999999991,-0.0250262428946125
0.06029999999999991,-0.0251111255726044
0.05929999999999991,-0.02512527268560305
0.05829999999999991,-0.025167714024599004
0.05729999999999991,-0.025181861137597652
0.056299999999999906,-0.025252596702590904
0.055299999999999905,-0.025323332267584157
0.054299999999999904,-0.02535162649358146
0.0532999999999999,-0.02539406783257741
0.0522999999999999,-0.02543650917157336
0.0512999999999999,-0.025493097623567964
0.0502999999999999,-0.02554968607556256
0.0492999999999999,-0.025577980301559864
0.0482999999999999,-0.02562042164055581
0.0472999999999999,-0.025691157205549067
0.0462999999999999,-0.02573359854454502
0.045299999999999896,-0.02580433410953827
0.044299999999999895,-0.025832628335535568
0.043299999999999894,-0.02587506967453152
0.04229999999999989,-0.025889216787530173
0.04129999999999989,-0.025988246578520724
0.04029999999999989,-0.026073129256512624
0.03929999999999989,-0.026101423482509926
0.03829999999999989,-0.026115570595508578
0.03729999999999989,-0.026158011934504528
0.03629999999999989,-0.02622874749949778
0.03529999999999989,-0.02629948306449103
0.034299999999999886,-0.026341924403486983
0.033299999999999885,-0.026398512855481584
0.032299999999999884,-0.026426807081478886
0.031299999999999883,-0.026511689759470786
0.030299999999999883,-0.02655413109846674
0.02929999999999988,-0.02658242532446404
0.02829999999999988,-0.02665316088945729
0.02729999999999988,-0.02668145511545459
0.02629999999999988,-0.026752190680447843
0.025299999999999878,-0.026837073358439746
0.024299999999999877,-0.026837073358439746
0.023299999999999876,-0.026907808923433
0.022299999999999875,-0.02695025026242895
0.021299999999999875,-0.027049280053419503
0.020299999999999874,-0.027134162731411407
0.019299999999999873,-0.027162456957408702
0.018299999999999872,-0.027204898296404656
0.01729999999999987,-0.02723319252240196
0.01629999999999987,-0.02727563386139791
0.01529999999999987,-0.02734636942639116
0.014299999999999868,-0.02738881076538711
0.013299999999999867,-0.02743125210438306
0.012299999999999978,-0.027473693443379014
0.011299999999999866,-0.027544429008372267
0.010299999999999976,-0.027615164573365516
0.009299999999999864,-0.02762931168636417
0.008299999999999974,-0.02768590013835877
0.007299999999999862,-0.02772834147735472
0.006299999999999972,-0.027799077042347967
0.00529999999999986,-0.027855665494342572
0.0042999999999999705,-0.027912253946337173
0.0032999999999998586,-0.027954695285333123
0.0022999999999999687,-0.028011283737327728
0.0012999999999998568,-0.028082019302320977
0.00029999999999996696,-0.02813860775431558
-0.000700000000000145,-0.02819519620631018
-0.0017000000000000348,-0.028251784658304784
-0.0027000000000001467,-0.028280078884302083
-0.0037000000000000366,-0.028379108675292634
-0.0047000000000001485,-0.028421550014288588
-0.005700000000000038,-0.028463991353284535
-0.00670000000000015,-0.02850643269228049
-0.00770000000000004,-0.02854887403127644
-0.008700000000000152,-0.028633756709268345
-0.009700000000000042,-0.028676198048264292
-0.010700000000000154,-0.028746933613257548
-0.011700000000000044,-0.028817669178250797
-0.012700000000000156,-0.028860110517246747
-0.013700000000000045,-0.028916698969241348
-0.014700000000000157,-0.029001581647233248
-0.015700000000000047,-0.029044022986229205
-0.01670000000000016,-0.029114758551222454
-0.01770000000000005,-0.029157199890218404
-0.01870000000000016,-0.02922793545521166
-0.01970000000000005,-0.029284523907206258
-0.020700000000000163,-0.029326965246202208
-0.021700000000000053,-0.029383553698196813
-0.022700000000000164,-0.029440142150191414
-0.023700000000000054,-0.029510877715184666
-0.024700000000000166,-0.02959576039317657
-0.025700000000000056,-0.029609907506175218
-0.026700000000000168,-0.02968064307116847
-0.027700000000000058,-0.02973723152316307
-0.02870000000000017,-0.02979381997515767
-0.02970000000000006,-0.029878702653149573
-0.03070000000000017,-0.029906996879146875
-0.03170000000000006,-0.029949438218142825
-0.03270000000000017,-0.03002017378313608
-0.03370000000000006,-0.030090909348129333
-0.034700000000000175,-0.03014749780012393
-0.035700000000000065,-0.030204086252118532
-0.03670000000000018,-0.030260674704113137
-0.03770000000000007,-0.030317263156107735
-0.03870000000000018,-0.030387998721100987
-0.03970000000000007,-0.03044458717309559
-0.04070000000000018,-0.030487028512091542
-0.04170000000000007,-0.030529469851087492
-0.04270000000000018,-0.030600205416080745
-0.04370000000000007,-0.030685088094072648
-0.044700000000000184,-0.0307275294330686
-0.045700000000000074,-0.030755823659065897
-0.046700000000000186,-0.030812412111060502
-0.047700000000000076,-0.0308690005630551
-0.04870000000000019,-0.030953883241047007
-0.04970000000000008,-0.031010471693041605
-0.05070000000000019,-0.031052913032037555
-0.05170000000000008,-0.031095354371033508
-0.05270000000000019,-0.031151942823028106
-0.05370000000000008,-0.031250972614018664
-0.05470000000000019,-0.03130756106601326
-0.05570000000000008,-0.031350002405009215
-0.056700000000000195,-0.03139244374400516
-0.057700000000000085,-0.031420737970002464
-0.058700000000000196,-0.031505620647994365
-0.059700000000000086,-0.03157635621298762
-0.0607000000000002,-0.03159050332598627
-0.06170000000000009,-0.03166123889097952
-0.0627000000000002,-0.031731974455972776
-0.06370000000000009,-0.031788562907967374
-0.0647000000000002,-0.03185929847296063
