Potential V vs RHE, Current mA cm-2
0.013299999999999867,0.6084673300719523
0.012299999999999978,-1.3107300193249565
0.011299999999999866,-2.924208256821031
0.010299999999999976,-4.276672259492005
0.009299999999999864,-5.497568111275533
0.008299999999999974,-6.458157083883892
0.007299999999999862,-7.329619244600755
0.006299999999999972,-8.11478401602585
0.00529999999999986,-8.769795347863363
0.0042999999999999705,-9.423391968401008
0.0032999999999998586,-9.99069119964689
0.0022999999999999687,-10.557990430892769
0.0012999999999998568,-11.081433611842833
0.00029999999999996696,-11.56102074249708
-0.000700000000000145,-12.040607873151327
-0.0017000000000000348,-12.432482903213943
-0.0027000000000001467,-12.781916594280606
-0.0037000000000000366,-13.087494235051453
-0.0047000000000001485,-13.3930718758223
-0.005700000000000038,-13.741090855589102
-0.00670000000000015,-14.046668496359947
-0.00770000000000004,-14.345172580631472
-0.008700000000000152,-14.69885040559773
-0.009700000000000042,-15.01008689156804
-0.010700000000000154,-15.307176264539699
-0.011700000000000044,-15.618412750510005
-0.012700000000000156,-15.830619445489761
-0.013700000000000045,-16.056973253468165
-0.014700000000000157,-16.269179948447924
-0.015700000000000047,-16.495533756426326
-0.01670000000000016,-16.792623129397985
-0.01770000000000005,-17.103859615368293
-0.01870000000000016,-17.358507649344002
-0.01970000000000005,-17.627302796318357
-0.020700000000000163,-17.924392169290012
-0.021700000000000053,-18.19318731626437
-0.022700000000000164,-18.40539401124413
-0.023700000000000054,-18.631747819222536
-0.024700000000000166,-18.88639585319824
-0.025700000000000056,-19.155191000172596
-0.026700000000000168,-19.409839034148305
-0.027700000000000058,-19.763516859114564
-0.02870000000000017,-20.01816489309027
-0.02970000000000006,-20.329401379060574
-0.03070000000000017,-20.626490752032236
-0.03170000000000006,-20.89528589900659
-0.03270000000000017,-21.149933932982297
-0.03370000000000006,-21.376287740960702
-0.034700000000000175,-21.63093577493641
-0.035700000000000065,-21.94217226090672
-0.03670000000000018,-22.253408746877028
-0.03770000000000007,-22.550498119848687
-0.03870000000000018,-22.904175944814945
-0.03970000000000007,-23.2012653177866
-0.04070000000000018,-23.51250180375691
-0.04170000000000007,-23.86617962872317
-0.04270000000000018,-24.120827662698876
-0.04370000000000007,-24.389622809673234
-0.044700000000000184,-24.686712182644893
-0.045700000000000074,-24.95550732961925
-0.046700000000000186,-25.295038041586857
-0.047700000000000076,-25.60627452755716
-0.04870000000000019,-26.002393691519377
-0.04970000000000008,-26.34192440348698
-0.05070000000000019,-26.69560222845324
-0.05170000000000008,-27.00683871442355
-0.05270000000000019,-27.303928087395207
-0.05370000000000008,-27.572723234369565
-0.05470000000000019,-27.869812607341224
-0.05570000000000008,-28.18104909331153
-0.056700000000000195,-28.53472691827779
-0.057700000000000085,-28.8742576302454
-0.058700000000000196,-29.27037679420761
-0.059700000000000086,-29.66649595816982
-0.0607000000000002,-30.00602667013743
-0.06170000000000009,-30.359704495103685
-0.0627000000000002,-30.71338232006995
-0.06370000000000009,-31.010471693041605
-0.0647000000000002,-31.321708179011907
-0.06570000000000009,-31.661238890979522
-0.0667000000000002,-32.01491671594578
-0.0677000000000001,-32.41103587990799
-0.0687000000000002,-32.807155043870196
-0.0697000000000001,-33.18912709483376
-0.07070000000000021,-33.58524625879597
-0.0717000000000001,-33.89648274476628
-0.07270000000000021,-34.236013456733886
-0.0737000000000001,-34.58969128170015
-0.07470000000000021,-34.90092776767045
-0.0757000000000001,-35.240458479638065
-0.07670000000000021,-35.594136304604326
-0.0777000000000001,-35.94781412957058
-0.07870000000000021,-36.329786180534136
-0.0797000000000001,-36.725905344496354
-0.08070000000000022,-37.07958316946261
-0.0817000000000001,-37.41911388143023
-0.08270000000000022,-37.73035036740053
-0.08370000000000011,-38.08402819236679
-0.08470000000000022,-38.33867622634249
-0.08570000000000011,-38.692354051308754
-0.08670000000000022,-39.046031876275016
-0.08770000000000011,-39.38556258824262
-0.08870000000000022,-39.78168175220483
-0.08970000000000011,-40.177800916167044
-0.09070000000000022,-40.51733162813464
-0.09170000000000011,-40.87100945310091
-0.09270000000000023,-41.182245939071215
-0.09370000000000012,-41.47933531204288
-0.09470000000000023,-41.74813045901723
-0.09570000000000012,-42.087661170984845
-0.09670000000000023,-42.39889765695515
-0.09770000000000012,-42.752575481921404
-0.09870000000000023,-43.09210619388902
-0.09970000000000012,-43.48822535785123
-0.10070000000000023,-43.79946184382153
-0.10170000000000012,-44.096551216793195
-0.10270000000000024,-44.4077877027635
-0.10370000000000013,-44.66243573673921
-0.10470000000000024,-44.93123088371356
-0.10570000000000013,-45.22832025668522
-0.10670000000000024,-45.53955674265553
-0.10770000000000013,-45.89323456762179
-0.10870000000000024,-46.19032394059345
-0.10970000000000013,-46.544001765559706
-0.11070000000000024,-46.84109113853137
-0.11170000000000013,-47.10988628550572
-0.11270000000000002,-47.36453431948143
-0.11370000000000013,-47.67577080545174
-0.11470000000000002,-47.93041883942744
-0.11570000000000014,-48.1992139864018
-0.11670000000000003,-48.55289181136806
-0.11770000000000014,-48.84998118433972
-0.11870000000000003,-49.20365900930597
-0.11970000000000014,-49.557336834272235
-0.12070000000000003,-49.85442620724389
-0.12170000000000014,-50.1656626932142
-0.12270000000000003,-50.42031072718991
-0.12370000000000014,-50.68910587416426
-0.12470000000000003,-50.943753908139975
-0.12570000000000014,-51.21254905511432
-0.12670000000000003,-51.509638428085985
-0.12770000000000015,-51.82087491405629
-0.12870000000000004,-52.11796428702795
-0.12970000000000015,-52.471642111994214
-0.13070000000000004,-52.74043725896857
-0.13170000000000015,-53.03752663194023
-0.13270000000000004,-53.30632177891458
-0.13370000000000015,-53.518528473894335
-0.13470000000000004,-53.7873236208687
-0.13570000000000015,-54.0419716548444
-0.13670000000000004,-54.35320814081471
-0.13770000000000016,-54.65029751378637
-0.13870000000000005,-54.961533999756675
-0.13970000000000016,-55.31521182472294
-0.14070000000000005,-55.612301197694585
-0.14170000000000016,-55.881096344668954
-0.14270000000000005,-56.1781857176406
-0.14370000000000016,-56.44698086461496
-0.14470000000000005,-56.74407023758662
-0.14570000000000016,-57.05530672355693
-0.14670000000000005,-57.352396096528594
-0.14770000000000016,-57.7485152604908
-0.14870000000000005,-58.10219308545706
-0.14970000000000017,-58.39928245842871
-0.15070000000000006,-58.75296028339497
-0.15170000000000017,-59.06419676936528
-0.15270000000000006,-59.31884480334099
-0.15370000000000017,-59.587639950315335
-0.15470000000000006,-59.842287984291055
-0.15570000000000017,-60.15352447026136
-0.15670000000000006,-60.45061384323302
-0.15770000000000017,-60.80429166819927
-0.15870000000000006,-61.15796949316553
-0.15970000000000018,-61.49750020513315
-0.16070000000000007,-61.80873669110345
-0.16170000000000018,-62.16241451606972
-0.16270000000000007,-62.41706255004542
-0.16370000000000018,-62.72829903601572
-0.16470000000000007,-63.02538840898739
-0.16570000000000018,-63.3366248949577
-0.16670000000000007,-63.6761556069253
-0.16770000000000018,-64.0722747708875
-0.16870000000000007,-64.46839393484973
-0.16970000000000018,-64.86451309881193
-0.17070000000000007,-65.2464851497755
-0.17170000000000019,-65.60016297474175
-0.17270000000000008,-65.95384079970802
-0.1737000000000002,-66.29337151167562
-0.17470000000000008,-66.64704933664189
-0.1757000000000002,-67.04316850060408
-0.17670000000000008,-67.48172900356225
-0.1777000000000002,-67.86370105452582
-0.17870000000000008,-68.30226155748396
-0.1797000000000002,-68.78326339943808
-0.18070000000000008,-69.22182390239624
-0.1817000000000002,-69.61794306635846
-0.18270000000000008,-70.01406223032066
-0.1837000000000002,-70.35359294228827
-0.1847000000000001,-70.70727076725453
-0.1857000000000002,-71.10338993121674
-0.1867000000000001,-71.48536198218031
-0.1877000000000002,-71.96636382413442
-0.1887000000000001,-72.40492432709259
-0.1897000000000002,-72.84348483005074
-0.1907000000000001,-73.32448667200485
-0.1917000000000001,-73.72060583596706
-0.19269999999999998,-74.14501922592657
-0.1937000000000001,-74.54113838988879
-0.19469999999999998,-74.89481621485504
-0.1957000000000001,-75.37581805680915
-0.19669999999999999,-75.81437855976732
-0.1977000000000001,-76.29538040172143
-0.1987,-76.7622351306769
-0.1997000000000001,-77.28567831162695
-0.2007,-77.76668015358106
-0.2017000000000001,-78.24768199553519
-0.2027,-78.72868383748929
-0.2037000000000001,-79.16724434044745
-0.2047,-79.56336350440966
-0.2057000000000001,-80.04436534636378
-0.2067,-80.52536718831789
-0.2077000000000001,-80.99222191727335
-0.2087,-81.51566509822342
-0.2097000000000001,-82.03910827917348
-0.2107,-82.56255146012353
-0.2117000000000001,-83.04355330207765
-0.2127,-83.52455514403178
-0.2137000000000001,-84.00555698598588
-0.2147,-84.44411748894404
-0.2157000000000001,-85.01000200889004
-0.2167,-85.53344518984011
-0.21770000000000012,-86.09932970978613
-0.2187,-86.66521422973216
-0.21970000000000012,-87.23109874967815
-0.2207,-87.79698326962418
-0.22170000000000012,-88.37701490256885
-0.2227,-88.94289942251486
-0.22370000000000012,-89.46634260346492
-0.2247,-90.03222712341093
-0.22570000000000012,-90.6405529823529
-0.2267,-91.24887884129487
-0.22770000000000012,-91.89964603923279
-0.22870000000000001,-92.50797189817473
-0.22970000000000013,-93.17288620911131
-0.23070000000000002,-93.78121206805329
-0.23170000000000013,-94.38953792699526
-0.23270000000000002,-94.99786378593721
-0.23370000000000013,-95.56374830588322
-0.23470000000000002,-96.0871914868333
-0.23570000000000013,-96.65307600677932
-0.23670000000000002,-97.26140186572127
-0.2376999999999999,-97.88387483766188
-0.23870000000000002,-98.5346420355998
-0.2396999999999999,-99.14296789454177
-0.24070000000000003,-99.7937350924797
-0.24169999999999991,-100.35961961242569
-0.24270000000000003,-100.92550413237171
-0.24369999999999992,-101.50553576531638
-0.24470000000000003,-102.07142028526239
-0.24569999999999992,-102.63730480520842
-0.24670000000000003,-103.24563066415038
-0.24769999999999992,-103.89639786208829
-0.24870000000000003,-104.5471650600262
-0.24969999999999992,-105.21207937096277
-0.25070000000000003,-105.86284656890071
-0.2516999999999999,-106.47117242784265
-0.25270000000000004,-107.03705694778867
-0.2536999999999999,-107.6029414677347
-0.25470000000000004,-108.21126732667666
-0.2556999999999999,-108.83374029861727
-0.25670000000000004,-109.44206615755924
-0.25769999999999993,-110.1352746944931
-0.25870000000000004,-110.78604189243102
-0.25969999999999993,-111.4509562033676
-0.26070000000000004,-112.05928206230955
-0.26169999999999993,-112.66760792125153
-0.26270000000000004,-113.27593378019348
-0.26369999999999993,-113.84181830013951
-0.26470000000000005,-114.40770282008553
-0.26569999999999994,-114.97358734003153
-0.26670000000000005,-115.5819131989735
-0.26769999999999994,-116.20438617091412
-0.26870000000000005,-116.85515336885203
-0.26969999999999994,-117.46347922779398
-0.27070000000000005,-118.02936374774
-0.27169999999999994,-118.59524826768603
-0.27270000000000005,-119.1186914486361
-0.27369999999999994,-119.5996932905902
-0.27470000000000006,-120.12313647154028
-0.27569999999999995,-120.60413831349437
-0.27670000000000006,-121.0851401554485
-0.27769999999999995,-121.65102467539451
-0.27870000000000006,-122.21690919534053
-0.27969999999999995,-122.78279371528653
-0.28070000000000006,-123.39111957422851
-0.28169999999999995,-123.91456275517855
-0.28270000000000006,-124.48044727512458
-0.28369999999999995,-125.04633179507057
-0.28470000000000006,-125.56977497602065
-0.28569999999999995,-126.09321815697072
-0.28670000000000007,-126.6732497899154
-0.28769999999999996,-127.23913430986138
-0.28870000000000007,-127.93234284679528
-0.28969999999999996,-128.5831100447332
-0.29070000000000007,-129.1489945646792
-0.29169999999999996,-129.67243774562928
-0.29270000000000007,-130.19588092657932
-0.29369999999999996,-130.7193241075294
-0.2947000000000001,-131.24276728847948
-0.29569999999999996,-131.76621046942952
-0.2967000000000001,-132.24721231138363
-0.29769999999999996,-132.7706554923337
-0.2987000000000001,-133.3365400122797
-0.29969999999999997,-133.90242453222572
-0.3007000000000001,-134.38342637417986
-0.30169999999999997,-134.94931089412586
-0.3027000000000001,-135.47275407507593
-0.30369999999999997,-135.95375591703004
-0.3047000000000001,-136.47719909798008
-0.30569999999999997,-137.00064227893017
-0.3067000000000001,-137.52408545988024
-0.3077,-138.04752864083028
-0.3087000000000001,-138.61341316077628
-0.3097,-139.13685634172634
-0.3107000000000001,-139.6602995226764
-0.3117,-140.0988600256346
-0.3127000000000001,-140.5798618675887
-0.3137,-140.9759810315509
-0.3147000000000001,-141.3721001955131
-0.3157,-141.75407224647665
-0.3167000000000001,-142.03701450644968
-0.3177,-142.4614278964092
-0.3187000000000001,-142.7443701563822
-0.3197,-143.16878354634173
-0.3207000000000001,-143.4517258063147
-0.3217,-143.73466806628772
-0.3227000000000001,-143.87613919627424
-0.3237,-144.15908145624724
-0.3247000000000001,-144.44202371622026
-0.3257,-144.58349484620675
-0.3267000000000001,-144.86643710617977
-0.3277,-145.00790823616626
-0.3287000000000001,-145.29085049613926
-0.3297,-145.57379275611228
-0.3307000000000001,-145.85673501608528
-0.3317,-145.9982061460718
-0.3327000000000001,-146.1396772760583
-0.3337,-146.28114840604482
-0.3347000000000001,-146.4226195360313
-0.3357,-146.4226195360313
-0.3367000000000001,-146.5640906660178
-0.3377,-146.7055617960043
-0.3387000000000001,-146.8470329259908
-0.3397,-146.9885040559773
-0.3407000000000001,-146.9885040559773
-0.3417,-146.9885040559773
-0.3427000000000001,-146.9885040559773
-0.3437,-146.8470329259908
-0.3447000000000001,-146.7055617960043
-0.3457,-146.7055617960043
-0.3467000000000001,-146.5640906660178
-0.3477,-146.5640906660178
-0.3487000000000001,-146.4226195360313
-0.3497,-146.28114840604482
-0.3507000000000001,-146.1396772760583
-0.3517,-145.85673501608528
-0.3527000000000001,-145.57379275611228
-0.3537,-145.29085049613926
-0.3547000000000001,-145.00790823616626
-0.3557,-144.72496597619326
-0.35670000000000013,-144.44202371622026
-0.3577,-144.01761032626072
-0.35870000000000013,-143.73466806628772
-0.3597,-143.4517258063147
-0.36070000000000013,-143.0273124163552
-0.3617,-142.6028990263957
-0.3626999999999999,-142.17848563643616
-0.3637,-141.61260111649017
-0.3646999999999999,-141.10330504853877
-0.3657,-140.66474454558062
-0.3666999999999999,-140.14130136463055
-0.3677,-139.57541684468453
-0.3686999999999999,-138.92464964674662
-0.36970000000000003,-138.27388244880868
-0.3706999999999999,-137.56652679887617
-0.37170000000000003,-136.7884355839504
-0.3726999999999999,-135.95375591703004
-0.37370000000000003,-135.1332233631083
-0.3746999999999999,-134.29854369618792
-0.37570000000000003,-133.37898135127566
-0.3766999999999999,-132.516007458358
-0.37770000000000004,-131.63888645244168
-0.3786999999999999,-130.67688276853346
-0.37970000000000004,-129.75732042362114
-0.3806999999999999,-128.85190519170752
-0.38170000000000004,-127.88990150779931
-0.38269999999999993,-126.84301514589919
-0.38370000000000004,-125.7536874450031
-0.38469999999999993,-124.66435974410705
-0.38570000000000004,-123.6174733822069
-0.38669999999999993,-122.57058702030677
-0.38770000000000004,-121.52370065840667
-0.38869999999999993,-120.43437295751058
-0.38970000000000005,-119.3450452566145
-0.39069999999999994,-118.24157044271978
-0.39170000000000005,-117.10980140282774
-0.39269999999999994,-115.97803236293572
-0.39370000000000005,-114.80382198404773
-0.39469999999999994,-113.67205294415571
-0.39570000000000005,-112.54028390426367
-0.39669999999999994,-111.394367751373
-0.39770000000000005,-110.3050400504769
-0.39869999999999994,-109.25815368857677
-0.39970000000000006,-108.1688259876807
-0.40069999999999995,-107.12193962578058
-0.40170000000000006,-106.07505326388046
-0.40269999999999995,-104.94328422398843
-0.40370000000000006,-103.85395652309235
-0.40469999999999995,-102.76462882219626
-0.40570000000000006,-101.71774246029614
-0.40669999999999995,-100.75573877638791
-0.40770000000000006,-99.83617643147564
-0.40869999999999995,-98.97320253855796
-0.40970000000000006,-98.09608153264163
-0.41069999999999995,-97.26140186572127
-0.41170000000000007,-96.52575198979144
-0.41269999999999996,-95.74766077486568
-0.41370000000000007,-94.95542244694126
-0.41469999999999996,-94.26221391000739
-0.41570000000000007,-93.65388805106544
-0.41669999999999996,-93.08800353111941
-0.41770000000000007,-92.56456035016936
-0.41869999999999996,-92.08355850821525
-0.4197000000000001,-91.64499800525708
-0.42069999999999996,-91.24887884129487
-0.4217000000000001,-90.85275967733266
-0.42269999999999996,-90.51322896536506
-0.4237000000000001,-90.15955114039879
-0.42469999999999997,-89.84831465442848
-0.4257000000000001,-89.59366662045278
-0.42669999999999997,-89.42390126446898
-0.4277000000000001,-89.28243013448247
-0.42869999999999997,-89.19754745649055
-0.4297000000000001,-89.15510611749461
-0.43069999999999997,-89.11266477849867
-0.4317000000000001,-89.02778210050676
-0.4327,-89.02778210050676
-0.4337000000000001,-88.9853407615108
-0.4347,-88.94289942251486
-0.4357000000000001,-88.9853407615108
-0.4367,-89.07022343950271
-0.4377000000000001,-89.23998879548651
-0.4387,-89.42390126446898
-0.4397000000000001,-89.63610795944872
-0.4407,-89.84831465442848
-0.4417000000000001,-90.03222712341093
-0.4427,-90.15955114039879
-0.4437000000000001,-90.37175783537855
-0.4447,-90.55567030436099
-0.4457000000000001,-90.81031833833671
-0.4467,-91.12155482430701
-0.4477000000000001,-91.41864419727867
-0.4487,-91.81476336124088
-0.4497000000000001,-92.16844118620713
-0.4507,-92.50797189817473
-0.4517000000000001,-92.86164972314101
-0.4527,-93.21532754810727
-0.4537000000000001,-93.55485826007487
-0.4547,-93.90853608504113
-0.4557000000000001,-94.26221391000739
-0.4567,-94.6583330739696
-0.4577000000000001,-95.08274646392913
-0.4587,-95.52130696688728
-0.4597000000000001,-95.91742613084948
-0.4607,-96.31354529481169
-0.4617000000000001,-96.65307600677932
-0.4627,-97.00675383174556
-0.4637000000000001,-97.36043165671182
-0.4647,-97.74240370767538
-0.4657000000000001,-98.09608153264163
-0.4667,-98.49220069660386
-0.4677000000000001,-99.01564387755391
-0.4687,-99.49664571950804
-0.4697000000000001,-99.97764756146215
-0.4707,-100.40206095142165
-0.4717000000000001,-100.84062145437981
-0.4727,-101.23674061834203
-0.4737000000000001,-101.59041844330828
-0.4747,-101.92994915527588
-0.4757000000000001,-102.3260683192381
-0.4767,-102.72218748320032
-0.4777000000000001,-103.16074798615847
-0.4787,-103.59930848911664
-0.4797000000000001,-103.98128054008019
-0.4807,-104.3773997040424
-0.48170000000000013,-104.77351886800463
-0.4827,-105.16963803196683
-0.48370000000000013,-105.50916874393444
-0.4847,-105.94772924689259
-0.48570000000000013,-106.30140707185885
-0.4867,-105.07060824097626
-0.48570000000000013,-101.23674061834203
-0.4847,-97.78484504667132
-0.48370000000000013,-94.601744621975
-0.4827,-91.60255666626112
-0.48170000000000013,-88.71654561453644
-0.4807,-86.01444703179425
-0.4797000000000001,-83.39723112704392
-0.4787,-80.9497805782774
-0.4777000000000001,-78.60135982050144
-0.4767,-76.33782174071737
-0.4757000000000001,-74.14501922592657
-0.4747,-72.15027629311687
-0.4737000000000001,-70.14138624730852
-0.4727,-68.25982021848802
-0.4717000000000001,-66.34995996367022
-0.4707,-64.46839393484973
-0.4697000000000001,-62.68585769701977
-0.4687,-60.974057024183075
-0.4677000000000001,-59.23396212534908
-0.4667,-57.57874990450699
-0.4657000000000001,-56.008420361656796
-0.4647,-54.480532157802564
-0.4637000000000001,-53.03752663194023
