Apr. 6, 2025   00:03:08
Cyclic Voltammetry
File: c:/users/guazh/data/banditlqround7_x0exp994_r5/2025-03-28-exp994\exp994-2025-04-05t23_53_27-arkoh\exp994_cv_sr_100mvs_efin_-1500mv.bin
Data Source:  Experiment
Instrument Model:  CHI760E
Header: CV ran at 100 mVs
Note: 

Init E (V) = -1
High E (V) = -1
Low E (V) = -1.5
Final E (V) = -1
Init P/N = N
Scan Rate (V/s) = 0.1
Segment = 3
Sample Interval (V) = 0.001
Quiet Time (sec) = 2
Sensitivity (A/V) = 0.01
Comp R (ohm) = 1.7

Results:

Channel 1:
Segment 1:
Ep = -1.268V
ip = 1.044e-3A
Ah = 8.380e-4C

Segment 2:
Ep = -1.138V
ip = -9.399e-4A
Ah = -6.123e-4C

Segment 3:

Potential/V, Current/A

-1.000, -2.486e-5
-1.001, 4.826e-5
-1.002, 8.074e-5
-1.003, 1.079e-4
-1.004, 1.217e-4
-1.005, 1.351e-4
-1.006, 1.478e-4
-1.007, 1.541e-4
-1.008, 1.667e-4
-1.009, 1.719e-4
-1.010, 1.800e-4
-1.011, 1.887e-4
-1.012, 1.920e-4
-1.013, 2.021e-4
-1.014, 2.051e-4
-1.015, 2.122e-4
-1.016, 2.192e-4
-1.017, 2.213e-4
-1.018, 2.301e-4
-1.019, 2.327e-4
-1.020, 2.393e-4
-1.021, 2.456e-4
-1.022, 2.474e-4
-1.023, 2.567e-4
-1.024, 2.590e-4
-1.025, 2.648e-4
-1.026, 2.709e-4
-1.027, 2.721e-4
-1.028, 2.813e-4
-1.029, 2.825e-4
-1.030, 2.876e-4
-1.031, 2.949e-4
-1.032, 2.956e-4
-1.033, 3.048e-4
-1.034, 3.064e-4
-1.035, 3.113e-4
-1.036, 3.184e-4
-1.037, 3.193e-4
-1.038, 3.279e-4
-1.039, 3.298e-4
-1.040, 3.353e-4
-1.041, 3.416e-4
-1.042, 3.425e-4
-1.043, 3.503e-4
-1.044, 3.524e-4
-1.045, 3.575e-4
-1.046, 3.632e-4
-1.047, 3.645e-4
-1.048, 3.733e-4
-1.049, 3.751e-4
-1.050, 3.807e-4
-1.051, 3.864e-4
-1.052, 3.875e-4
-1.053, 3.957e-4
-1.054, 3.976e-4
-1.055, 4.022e-4
-1.056, 4.077e-4
-1.057, 4.077e-4
-1.058, 4.161e-4
-1.059, 4.175e-4
-1.060, 4.228e-4
-1.061, 4.276e-4
-1.062, 4.282e-4
-1.063, 4.368e-4
-1.064, 4.377e-4
-1.065, 4.429e-4
-1.066, 4.486e-4
-1.067, 4.485e-4
-1.068, 4.575e-4
-1.069, 4.588e-4
-1.070, 4.632e-4
-1.071, 4.692e-4
-1.072, 4.693e-4
-1.073, 4.768e-4
-1.074, 4.774e-4
-1.075, 4.825e-4
-1.076, 4.889e-4
-1.077, 4.886e-4
-1.078, 4.967e-4
-1.079, 4.973e-4
-1.080, 5.019e-4
-1.081, 5.074e-4
-1.082, 5.076e-4
-1.083, 5.157e-4
-1.084, 5.171e-4
-1.085, 5.210e-4
-1.086, 5.271e-4
-1.087, 5.275e-4
-1.088, 5.353e-4
-1.089, 5.376e-4
-1.090, 5.425e-4
-1.091, 5.483e-4
-1.092, 5.489e-4
-1.093, 5.572e-4
-1.094, 5.592e-4
-1.095, 5.650e-4
-1.096, 5.708e-4
-1.097, 5.717e-4
-1.098, 5.805e-4
-1.099, 5.828e-4
-1.100, 5.889e-4
-1.101, 5.951e-4
-1.102, 5.964e-4
-1.103, 6.065e-4
-1.104, 6.080e-4
-1.105, 6.142e-4
-1.106, 6.214e-4
-1.107, 6.233e-4
-1.108, 6.332e-4
-1.109, 6.349e-4
-1.110, 6.426e-4
-1.111, 6.512e-4
-1.112, 6.533e-4
-1.113, 6.641e-4
-1.114, 6.676e-4
-1.115, 6.747e-4
-1.116, 6.839e-4
-1.117, 6.864e-4
-1.118, 6.972e-4
-1.119, 7.015e-4
-1.120, 7.091e-4
-1.121, 7.193e-4
-1.122, 7.220e-4
-1.123, 7.333e-4
-1.124, 7.376e-4
-1.125, 7.446e-4
-1.126, 7.548e-4
-1.127, 7.589e-4
-1.128, 7.704e-4
-1.129, 7.768e-4
-1.130, 7.856e-4
-1.131, 7.959e-4
-1.132, 8.006e-4
-1.133, 8.126e-4
-1.134, 8.184e-4
-1.135, 8.282e-4
-1.136, 8.399e-4
-1.137, 8.464e-4
-1.138, 8.587e-4
-1.139, 8.643e-4
-1.140, 8.748e-4
-1.141, 8.861e-4
-1.142, 8.918e-4
-1.143, 9.052e-4
-1.144, 9.114e-4
-1.145, 9.223e-4
-1.146, 9.337e-4
-1.147, 9.399e-4
-1.148, 9.553e-4
-1.149, 9.614e-4
-1.150, 9.734e-4
-1.151, 9.856e-4
-1.152, 9.913e-4
-1.153, 1.007e-3
-1.154, 1.013e-3
-1.155, 1.025e-3
-1.156, 1.038e-3
-1.157, 1.045e-3
-1.158, 1.060e-3
-1.159, 1.068e-3
-1.160, 1.079e-3
-1.161, 1.092e-3
-1.162, 1.101e-3
-1.163, 1.117e-3
-1.164, 1.125e-3
-1.165, 1.136e-3
-1.166, 1.149e-3
-1.167, 1.158e-3
-1.168, 1.174e-3
-1.169, 1.184e-3
-1.170, 1.195e-3
-1.171, 1.209e-3
-1.172, 1.217e-3
-1.173, 1.233e-3
-1.174, 1.243e-3
-1.175, 1.257e-3
-1.176, 1.271e-3
-1.177, 1.279e-3
-1.178, 1.295e-3
-1.179, 1.304e-3
-1.180, 1.318e-3
-1.181, 1.332e-3
-1.182, 1.342e-3
-1.183, 1.362e-3
-1.184, 1.370e-3
-1.185, 1.383e-3
-1.186, 1.398e-3
-1.187, 1.407e-3
-1.188, 1.424e-3
-1.189, 1.433e-3
-1.190, 1.448e-3
-1.191, 1.465e-3
-1.192, 1.474e-3
-1.193, 1.491e-3
-1.194, 1.501e-3
-1.195, 1.515e-3
-1.196, 1.530e-3
-1.197, 1.539e-3
-1.198, 1.557e-3
-1.199, 1.568e-3
-1.200, 1.581e-3
-1.201, 1.597e-3
-1.202, 1.608e-3
-1.203, 1.625e-3
-1.204, 1.635e-3
-1.205, 1.650e-3
-1.206, 1.667e-3
-1.207, 1.676e-3
-1.208, 1.694e-3
-1.209, 1.706e-3
-1.210, 1.721e-3
-1.211, 1.740e-3
-1.212, 1.750e-3
-1.213, 1.766e-3
-1.214, 1.778e-3
-1.215, 1.793e-3
-1.216, 1.807e-3
-1.217, 1.815e-3
-1.218, 1.833e-3
-1.219, 1.840e-3
-1.220, 1.855e-3
-1.221, 1.872e-3
-1.222, 1.883e-3
-1.223, 1.901e-3
-1.224, 1.910e-3
-1.225, 1.925e-3
-1.226, 1.939e-3
-1.227, 1.948e-3
-1.228, 1.966e-3
-1.229, 1.979e-3
-1.230, 1.993e-3
-1.231, 2.007e-3
-1.232, 2.014e-3
-1.233, 2.031e-3
-1.234, 2.040e-3
-1.235, 2.051e-3
-1.236, 2.065e-3
-1.237, 2.073e-3
-1.238, 2.091e-3
-1.239, 2.101e-3
-1.240, 2.113e-3
-1.241, 2.126e-3
-1.242, 2.133e-3
-1.243, 2.147e-3
-1.244, 2.153e-3
-1.245, 2.164e-3
-1.246, 2.175e-3
-1.247, 2.180e-3
-1.248, 2.192e-3
-1.249, 2.197e-3
-1.250, 2.206e-3
-1.251, 2.217e-3
-1.252, 2.222e-3
-1.253, 2.233e-3
-1.254, 2.238e-3
-1.255, 2.246e-3
-1.256, 2.252e-3
-1.257, 2.256e-3
-1.258, 2.267e-3
-1.259, 2.270e-3
-1.260, 2.278e-3
-1.261, 2.286e-3
-1.262, 2.287e-3
-1.263, 2.293e-3
-1.264, 2.291e-3
-1.265, 2.293e-3
-1.266, 2.295e-3
-1.267, 2.292e-3
-1.268, 2.298e-3
-1.269, 2.295e-3
-1.270, 2.295e-3
-1.271, 2.294e-3
-1.272, 2.290e-3
-1.273, 2.295e-3
-1.274, 2.292e-3
-1.275, 2.291e-3
-1.276, 2.290e-3
-1.277, 2.282e-3
-1.278, 2.283e-3
-1.279, 2.276e-3
-1.280, 2.274e-3
-1.281, 2.268e-3
-1.282, 2.254e-3
-1.283, 2.250e-3
-1.284, 2.238e-3
-1.285, 2.229e-3
-1.286, 2.221e-3
-1.287, 2.206e-3
-1.288, 2.200e-3
-1.289, 2.187e-3
-1.290, 2.176e-3
-1.291, 2.162e-3
-1.292, 2.144e-3
-1.293, 2.138e-3
-1.294, 2.122e-3
-1.295, 2.108e-3
-1.296, 2.094e-3
-1.297, 2.073e-3
-1.298, 2.061e-3
-1.299, 2.040e-3
-1.300, 2.021e-3
-1.301, 2.003e-3
-1.302, 1.980e-3
-1.303, 1.963e-3
-1.304, 1.938e-3
-1.305, 1.919e-3
-1.306, 1.901e-3
-1.307, 1.875e-3
-1.308, 1.858e-3
-1.309, 1.832e-3
-1.310, 1.810e-3
-1.311, 1.790e-3
-1.312, 1.764e-3
-1.313, 1.747e-3
-1.314, 1.722e-3
-1.315, 1.700e-3
-1.316, 1.679e-3
-1.317, 1.651e-3
-1.318, 1.632e-3
-1.319, 1.608e-3
-1.320, 1.589e-3
-1.321, 1.570e-3
-1.322, 1.546e-3
-1.323, 1.530e-3
-1.324, 1.509e-3
-1.325, 1.490e-3
-1.326, 1.472e-3
-1.327, 1.448e-3
-1.328, 1.434e-3
-1.329, 1.414e-3
-1.330, 1.400e-3
-1.331, 1.389e-3
-1.332, 1.368e-3
-1.333, 1.357e-3
-1.334, 1.341e-3
-1.335, 1.333e-3
-1.336, 1.323e-3
-1.337, 1.307e-3
-1.338, 1.300e-3
-1.339, 1.285e-3
-1.340, 1.276e-3
-1.341, 1.270e-3
-1.342, 1.258e-3
-1.343, 1.257e-3
-1.344, 1.247e-3
-1.345, 1.242e-3
-1.346, 1.240e-3
-1.347, 1.232e-3
-1.348, 1.235e-3
-1.349, 1.229e-3
-1.350, 1.228e-3
-1.351, 1.230e-3
-1.352, 1.224e-3
-1.353, 1.227e-3
-1.354, 1.222e-3
-1.355, 1.222e-3
-1.356, 1.225e-3
-1.357, 1.222e-3
-1.358, 1.229e-3
-1.359, 1.228e-3
-1.360, 1.230e-3
-1.361, 1.236e-3
-1.362, 1.236e-3
-1.363, 1.245e-3
-1.364, 1.248e-3
-1.365, 1.255e-3
-1.366, 1.264e-3
-1.367, 1.266e-3
-1.368, 1.278e-3
-1.369, 1.282e-3
-1.370, 1.288e-3
-1.371, 1.296e-3
-1.372, 1.299e-3
-1.373, 1.311e-3
-1.374, 1.315e-3
-1.375, 1.323e-3
-1.376, 1.333e-3
-1.377, 1.340e-3
-1.378, 1.354e-3
-1.379, 1.360e-3
-1.380, 1.371e-3
-1.381, 1.381e-3
-1.382, 1.389e-3
-1.383, 1.405e-3
-1.384, 1.411e-3
-1.385, 1.421e-3
-1.386, 1.432e-3
-1.387, 1.438e-3
-1.388, 1.455e-3
-1.389, 1.463e-3
-1.390, 1.477e-3
-1.391, 1.489e-3
-1.392, 1.495e-3
-1.393, 1.511e-3
-1.394, 1.518e-3
-1.395, 1.530e-3
-1.396, 1.544e-3
-1.397, 1.551e-3
-1.398, 1.567e-3
-1.399, 1.575e-3
-1.400, 1.586e-3
-1.401, 1.599e-3
-1.402, 1.605e-3
-1.403, 1.620e-3
-1.404, 1.628e-3
-1.405, 1.638e-3
-1.406, 1.651e-3
-1.407, 1.659e-3
-1.408, 1.672e-3
-1.409, 1.676e-3
-1.410, 1.688e-3
-1.411, 1.700e-3
-1.412, 1.703e-3
-1.413, 1.712e-3
-1.414, 1.717e-3
-1.415, 1.725e-3
-1.416, 1.736e-3
-1.417, 1.739e-3
-1.418, 1.750e-3
-1.419, 1.752e-3
-1.420, 1.758e-3
-1.421, 1.766e-3
-1.422, 1.768e-3
-1.423, 1.778e-3
-1.424, 1.780e-3
-1.425, 1.784e-3
-1.426, 1.789e-3
-1.427, 1.787e-3
-1.428, 1.793e-3
-1.429, 1.790e-3
-1.430, 1.793e-3
-1.431, 1.797e-3
-1.432, 1.791e-3
-1.433, 1.797e-3
-1.434, 1.792e-3
-1.435, 1.791e-3
-1.436, 1.794e-3
-1.437, 1.788e-3
-1.438, 1.791e-3
-1.439, 1.787e-3
-1.440, 1.786e-3
-1.441, 1.786e-3
-1.442, 1.778e-3
-1.443, 1.783e-3
-1.444, 1.781e-3
-1.445, 1.780e-3
-1.446, 1.780e-3
-1.447, 1.772e-3
-1.448, 1.773e-3
-1.449, 1.767e-3
-1.450, 1.769e-3
-1.451, 1.770e-3
-1.452, 1.767e-3
-1.453, 1.773e-3
-1.454, 1.772e-3
-1.455, 1.773e-3
-1.456, 1.775e-3
-1.457, 1.773e-3
-1.458, 1.779e-3
-1.459, 1.781e-3
-1.460, 1.789e-3
-1.461, 1.800e-3
-1.462, 1.809e-3
-1.463, 1.826e-3
-1.464, 1.835e-3
-1.465, 1.853e-3
-1.466, 1.876e-3
-1.467, 1.895e-3
-1.468, 1.928e-3
-1.469, 1.959e-3
-1.470, 1.999e-3
-1.471, 2.053e-3
-1.472, 2.115e-3
-1.473, 2.205e-3
-1.474, 2.312e-3
-1.475, 2.450e-3
-1.476, 2.622e-3
-1.477, 2.813e-3
-1.478, 3.037e-3
-1.479, 3.271e-3
-1.480, 3.515e-3
-1.481, 3.763e-3
-1.482, 3.998e-3
-1.483, 4.243e-3
-1.484, 4.472e-3
-1.485, 4.707e-3
-1.486, 4.956e-3
-1.487, 5.195e-3
-1.488, 5.470e-3
-1.489, 5.761e-3
-1.490, 6.074e-3
-1.491, 6.418e-3
-1.492, 6.778e-3
-1.493, 7.165e-3
-1.494, 7.559e-3
-1.495, 7.948e-3
-1.496, 8.325e-3
-1.497, 8.656e-3
-1.498, 8.993e-3
-1.499, 9.285e-3
-1.500, 9.439e-3
-1.499, 9.456e-3
-1.498, 9.451e-3
-1.497, 9.428e-3
-1.496, 9.409e-3
-1.495, 9.386e-3
-1.494, 9.349e-3
-1.493, 9.286e-3
-1.492, 9.226e-3
-1.491, 9.156e-3
-1.490, 9.080e-3
-1.489, 8.993e-3
-1.488, 8.912e-3
-1.487, 8.847e-3
-1.486, 8.770e-3
-1.485, 8.689e-3
-1.484, 8.601e-3
-1.483, 8.501e-3
-1.482, 8.401e-3
-1.481, 8.301e-3
-1.480, 8.195e-3
-1.479, 8.121e-3
-1.478, 8.025e-3
-1.477, 7.937e-3
-1.476, 7.842e-3
-1.475, 7.752e-3
-1.474, 7.667e-3
-1.473, 7.573e-3
-1.472, 7.489e-3
-1.471, 7.396e-3
-1.470, 7.298e-3
-1.469, 7.233e-3
-1.468, 7.128e-3
-1.467, 7.038e-3
-1.466, 6.940e-3
-1.465, 6.852e-3
-1.464, 6.766e-3
-1.463, 6.663e-3
-1.462, 6.570e-3
-1.461, 6.470e-3
-1.460, 6.374e-3
-1.459, 6.292e-3
-1.458, 6.209e-3
-1.457, 6.118e-3
-1.456, 6.020e-3
-1.455, 5.932e-3
-1.454, 5.843e-3
-1.453, 5.751e-3
-1.452, 5.665e-3
-1.451, 5.568e-3
-1.450, 5.473e-3
-1.449, 5.387e-3
-1.448, 5.291e-3
-1.447, 5.201e-3
-1.446, 5.110e-3
-1.445, 5.026e-3
-1.444, 4.938e-3
-1.443, 4.853e-3
-1.442, 4.772e-3
-1.441, 4.682e-3
-1.440, 4.595e-3
-1.439, 4.515e-3
-1.438, 4.434e-3
-1.437, 4.362e-3
-1.436, 4.275e-3
-1.435, 4.192e-3
-1.434, 4.111e-3
-1.433, 4.027e-3
-1.432, 3.947e-3
-1.431, 3.863e-3
-1.430, 3.783e-3
-1.429, 3.712e-3
-1.428, 3.632e-3
-1.427, 3.545e-3
-1.426, 3.469e-3
-1.425, 3.394e-3
-1.424, 3.318e-3
-1.423, 3.238e-3
-1.422, 3.166e-3
-1.421, 3.094e-3
-1.420, 3.017e-3
-1.419, 2.945e-3
-1.418, 2.874e-3
-1.417, 2.808e-3
-1.416, 2.742e-3
-1.415, 2.672e-3
-1.414, 2.610e-3
-1.413, 2.537e-3
-1.412, 2.475e-3
-1.411, 2.407e-3
-1.410, 2.346e-3
-1.409, 2.288e-3
-1.408, 2.224e-3
-1.407, 2.163e-3
-1.406, 2.098e-3
-1.405, 2.037e-3
-1.404, 1.979e-3
-1.403, 1.913e-3
-1.402, 1.858e-3
-1.401, 1.799e-3
-1.400, 1.743e-3
-1.399, 1.692e-3
-1.398, 1.633e-3
-1.397, 1.582e-3
-1.396, 1.528e-3
-1.395, 1.476e-3
-1.394, 1.428e-3
-1.393, 1.375e-3
-1.392, 1.330e-3
-1.391, 1.282e-3
-1.390, 1.234e-3
-1.389, 1.193e-3
-1.388, 1.145e-3
-1.387, 1.105e-3
-1.386, 1.061e-3
-1.385, 1.015e-3
-1.384, 9.765e-4
-1.383, 9.308e-4
-1.382, 8.934e-4
-1.381, 8.552e-4
-1.380, 8.168e-4
-1.379, 7.815e-4
-1.378, 7.420e-4
-1.377, 7.115e-4
-1.376, 6.759e-4
-1.375, 6.423e-4
-1.374, 6.129e-4
-1.373, 5.776e-4
-1.372, 5.502e-4
-1.371, 5.178e-4
-1.370, 4.870e-4
-1.369, 4.604e-4
-1.368, 4.303e-4
-1.367, 4.066e-4
-1.366, 3.772e-4
-1.365, 3.514e-4
-1.364, 3.286e-4
-1.363, 3.004e-4
-1.362, 2.799e-4
-1.361, 2.528e-4
-1.360, 2.306e-4
-1.359, 2.114e-4
-1.358, 1.852e-4
-1.357, 1.690e-4
-1.356, 1.455e-4
-1.355, 1.261e-4
-1.354, 1.091e-4
-1.353, 8.530e-5
-1.352, 7.041e-5
-1.351, 4.910e-5
-1.350, 3.046e-5
-1.349, 1.500e-5
-1.348, -6.750e-6
-1.347, -2.002e-5
-1.346, -3.763e-5
-1.345, -5.339e-5
-1.344, -6.547e-5
-1.343, -8.467e-5
-1.342, -9.536e-5
-1.341, -1.103e-4
-1.340, -1.244e-4
-1.339, -1.342e-4
-1.338, -1.496e-4
-1.337, -1.589e-4
-1.336, -1.727e-4
-1.335, -1.836e-4
-1.334, -1.918e-4
-1.333, -2.068e-4
-1.332, -2.137e-4
-1.331, -2.259e-4
-1.330, -2.360e-4
-1.329, -2.431e-4
-1.328, -2.563e-4
-1.327, -2.606e-4
-1.326, -2.720e-4
-1.325, -2.798e-4
-1.324, -2.868e-4
-1.323, -2.980e-4
-1.322, -3.018e-4
-1.321, -3.118e-4
-1.320, -3.185e-4
-1.319, -3.234e-4
-1.318, -3.343e-4
-1.317, -3.365e-4
-1.316, -3.439e-4
-1.315, -3.497e-4
-1.314, -3.538e-4
-1.313, -3.642e-4
-1.312, -3.661e-4
-1.311, -3.746e-4
-1.310, -3.805e-4
-1.309, -3.829e-4
-1.308, -3.924e-4
-1.307, -3.930e-4
-1.306, -4.006e-4
-1.305, -4.059e-4
-1.304, -4.086e-4
-1.303, -4.170e-4
-1.302, -4.182e-4
-1.301, -4.250e-4
-1.300, -4.304e-4
-1.299, -4.325e-4
-1.298, -4.419e-4
-1.297, -4.424e-4
-1.296, -4.479e-4
-1.295, -4.519e-4
-1.294, -4.540e-4
-1.293, -4.620e-4
-1.292, -4.630e-4
-1.291, -4.710e-4
-1.290, -4.747e-4
-1.289, -4.760e-4
-1.288, -4.837e-4
-1.287, -4.851e-4
-1.286, -4.912e-4
-1.285, -4.945e-4
-1.284, -4.961e-4
-1.283, -5.038e-4
-1.282, -5.041e-4
-1.281, -5.118e-4
-1.280, -5.177e-4
-1.279, -5.200e-4
-1.278, -5.290e-4
-1.277, -5.294e-4
-1.276, -5.366e-4
-1.275, -5.410e-4
-1.274, -5.428e-4
-1.273, -5.535e-4
-1.272, -5.542e-4
-1.271, -5.610e-4
-1.270, -5.665e-4
-1.269, -5.691e-4
-1.268, -5.790e-4
-1.267, -5.806e-4
-1.266, -5.872e-4
-1.265, -5.947e-4
-1.264, -5.979e-4
-1.263, -6.073e-4
-1.262, -6.087e-4
-1.261, -6.189e-4
-1.260, -6.287e-4
-1.259, -6.306e-4
-1.258, -6.411e-4
-1.257, -6.451e-4
-1.256, -6.538e-4
-1.255, -6.606e-4
-1.254, -6.660e-4
-1.253, -6.775e-4
-1.252, -6.816e-4
-1.251, -6.920e-4
-1.250, -6.994e-4
-1.249, -7.052e-4
-1.248, -7.181e-4
-1.247, -7.246e-4
-1.246, -7.342e-4
-1.245, -7.431e-4
-1.244, -7.492e-4
-1.243, -7.612e-4
-1.242, -7.664e-4
-1.241, -7.785e-4
-1.240, -7.873e-4
-1.239, -7.950e-4
-1.238, -8.109e-4
-1.237, -8.169e-4
-1.236, -8.284e-4
-1.235, -8.376e-4
-1.234, -8.437e-4
-1.233, -8.571e-4
-1.232, -8.618e-4
-1.231, -8.722e-4
-1.230, -8.792e-4
-1.229, -8.893e-4
-1.228, -9.052e-4
-1.227, -9.135e-4
-1.226, -9.281e-4
-1.225, -9.410e-4
-1.224, -9.494e-4
-1.223, -9.678e-4
-1.222, -9.802e-4
-1.221, -9.948e-4
-1.220, -1.006e-3
-1.219, -1.017e-3
-1.218, -1.036e-3
-1.217, -1.047e-3
-1.216, -1.065e-3
-1.215, -1.079e-3
-1.214, -1.093e-3
-1.213, -1.112e-3
-1.212, -1.124e-3
-1.211, -1.141e-3
-1.210, -1.156e-3
-1.209, -1.169e-3
-1.208, -1.189e-3
-1.207, -1.202e-3
-1.206, -1.222e-3
-1.205, -1.240e-3
-1.204, -1.255e-3
-1.203, -1.278e-3
-1.202, -1.294e-3
-1.201, -1.314e-3
-1.200, -1.330e-3
-1.199, -1.347e-3
-1.198, -1.370e-3
-1.197, -1.385e-3
-1.196, -1.408e-3
-1.195, -1.425e-3
-1.194, -1.440e-3
-1.193, -1.463e-3
-1.192, -1.475e-3
-1.191, -1.497e-3
-1.190, -1.516e-3
-1.189, -1.534e-3
-1.188, -1.556e-3
-1.187, -1.573e-3
-1.186, -1.594e-3
-1.185, -1.612e-3
-1.184, -1.628e-3
-1.183, -1.650e-3
-1.182, -1.664e-3
-1.181, -1.687e-3
-1.180, -1.705e-3
-1.179, -1.720e-3
-1.178, -1.741e-3
-1.177, -1.752e-3
-1.176, -1.772e-3
-1.175, -1.791e-3
-1.174, -1.825e-3
-1.173, -1.847e-3
-1.172, -1.854e-3
-1.171, -1.869e-3
-1.170, -1.883e-3
-1.169, -1.894e-3
-1.168, -1.908e-3
-1.167, -1.915e-3
-1.166, -1.931e-3
-1.165, -1.942e-3
-1.164, -1.954e-3
-1.163, -1.967e-3
-1.162, -1.975e-3
-1.161, -1.990e-3
-1.160, -1.997e-3
-1.159, -2.000e-3
-1.158, -2.014e-3
-1.157, -2.021e-3
-1.156, -2.033e-3
-1.155, -2.045e-3
-1.154, -2.047e-3
-1.153, -2.057e-3
-1.152, -2.057e-3
-1.151, -2.063e-3
-1.150, -2.066e-3
-1.149, -2.068e-3
-1.148, -2.076e-3
-1.147, -2.074e-3
-1.146, -2.078e-3
-1.145, -2.082e-3
-1.144, -2.080e-3
-1.143, -2.085e-3
-1.142, -2.082e-3
-1.141, -2.087e-3
-1.140, -2.095e-3
-1.139, -2.093e-3
-1.138, -2.095e-3
-1.137, -2.091e-3
-1.136, -2.088e-3
-1.135, -2.086e-3
-1.134, -2.078e-3
-1.133, -2.073e-3
-1.132, -2.062e-3
-1.131, -2.059e-3
-1.130, -2.058e-3
-1.129, -2.049e-3
-1.128, -2.048e-3
-1.127, -2.045e-3
-1.126, -2.045e-3
-1.125, -2.040e-3
-1.124, -2.027e-3
-1.123, -2.023e-3
-1.122, -2.011e-3
-1.121, -2.005e-3
-1.120, -1.997e-3
-1.119, -1.986e-3
-1.118, -1.988e-3
-1.117, -1.977e-3
-1.116, -1.970e-3
-1.115, -1.960e-3
-1.114, -1.957e-3
-1.113, -1.952e-3
-1.112, -1.943e-3
-1.111, -1.940e-3
-1.110, -1.935e-3
-1.109, -1.928e-3
-1.108, -1.926e-3
-1.107, -1.914e-3
-1.106, -1.909e-3
-1.105, -1.899e-3
-1.104, -1.886e-3
-1.103, -1.880e-3
-1.102, -1.866e-3
-1.101, -1.860e-3
-1.100, -1.848e-3
-1.099, -1.835e-3
-1.098, -1.829e-3
-1.097, -1.816e-3
-1.096, -1.808e-3
-1.095, -1.802e-3
-1.094, -1.793e-3
-1.093, -1.786e-3
-1.092, -1.773e-3
-1.091, -1.767e-3
-1.090, -1.761e-3
-1.089, -1.752e-3
-1.088, -1.748e-3
-1.087, -1.734e-3
-1.086, -1.728e-3
-1.085, -1.718e-3
-1.084, -1.705e-3
-1.083, -1.700e-3
-1.082, -1.692e-3
-1.081, -1.685e-3
-1.080, -1.675e-3
-1.079, -1.665e-3
-1.078, -1.661e-3
-1.077, -1.647e-3
-1.076, -1.643e-3
-1.075, -1.637e-3
-1.074, -1.627e-3
-1.073, -1.623e-3
-1.072, -1.610e-3
-1.071, -1.605e-3
-1.070, -1.598e-3
-1.069, -1.588e-3
-1.068, -1.586e-3
-1.067, -1.576e-3
-1.066, -1.570e-3
-1.065, -1.564e-3
-1.064, -1.553e-3
-1.063, -1.553e-3
-1.062, -1.543e-3
-1.061, -1.538e-3
-1.060, -1.532e-3
-1.059, -1.524e-3
-1.058, -1.522e-3
-1.057, -1.512e-3
-1.056, -1.508e-3
-1.055, -1.504e-3
-1.054, -1.496e-3
-1.053, -1.494e-3
-1.052, -1.486e-3
-1.051, -1.483e-3
-1.050, -1.481e-3
-1.049, -1.472e-3
-1.048, -1.472e-3
-1.047, -1.463e-3
-1.046, -1.461e-3
-1.045, -1.457e-3
-1.044, -1.450e-3
-1.043, -1.451e-3
-1.042, -1.443e-3
-1.041, -1.445e-3
-1.040, -1.440e-3
-1.039, -1.433e-3
-1.038, -1.435e-3
-1.037, -1.427e-3
-1.036, -1.425e-3
-1.035, -1.423e-3
-1.034, -1.417e-3
-1.033, -1.418e-3
-1.032, -1.409e-3
-1.031, -1.408e-3
-1.030, -1.408e-3
-1.029, -1.401e-3
-1.028, -1.404e-3
-1.027, -1.397e-3
-1.026, -1.397e-3
-1.025, -1.397e-3
-1.024, -1.392e-3
-1.023, -1.393e-3
-1.022, -1.387e-3
-1.021, -1.387e-3
-1.020, -1.386e-3
-1.019, -1.382e-3
-1.018, -1.385e-3
-1.017, -1.380e-3
-1.016, -1.380e-3
-1.015, -1.379e-3
-1.014, -1.375e-3
-1.013, -1.378e-3
-1.012, -1.374e-3
-1.011, -1.375e-3
-1.010, -1.374e-3
-1.009, -1.371e-3
-1.008, -1.373e-3
-1.007, -1.368e-3
-1.006, -1.369e-3
-1.005, -1.369e-3
-1.004, -1.365e-3
-1.003, -1.369e-3
-1.002, -1.365e-3
-1.001, -1.366e-3
