Potential V vs RHE, Current mA cm-2
0.013299999999999867,0.6520404381077953
0.012299999999999978,-1.3107300193249565
0.011299999999999866,-2.968064307116847
0.010299999999999976,-4.406825699079589
0.009299999999999864,-5.715433651454749
0.008299999999999974,-6.806176063650692
0.007299999999999862,-7.7653503249591855
0.006299999999999972,-8.638227196975913
0.00529999999999986,-9.379535918105192
0.0042999999999999705,-10.078403300238522
0.0032999999999998586,-10.731999920776168
0.0022999999999999687,-11.385596541313816
0.0012999999999998568,-11.996751822855511
0.00029999999999996696,-12.520195003805576
-0.000700000000000145,-13.043638184755638
-0.0017000000000000348,-13.567081365705702
-0.0027000000000001467,-13.960371107068182
-0.0037000000000000366,-14.401761032626075
-0.0047000000000001485,-14.741291744593681
-0.005700000000000038,-15.05252823056399
-0.00670000000000015,-15.3920589425316
-0.00770000000000004,-15.74573676749786
-0.008700000000000152,-16.099414592464115
-0.009700000000000042,-16.396503965435777
-0.010700000000000154,-16.750181790402035
-0.011700000000000044,-17.103859615368293
-0.012700000000000156,-17.40094898833995
-0.013700000000000045,-17.75462681330621
-0.014700000000000157,-18.009274847281915
-0.015700000000000047,-18.320511333252224
-0.01670000000000016,-18.589306480226583
-0.01770000000000005,-18.843954514202288
-0.01870000000000016,-19.056161209182044
-0.01970000000000005,-19.367397695152352
-0.020700000000000163,-19.636192842126707
-0.021700000000000053,-19.93328221509837
-0.022700000000000164,-20.286960040064624
-0.023700000000000054,-20.584049413036283
-0.024700000000000166,-20.89528589900659
-0.025700000000000056,-21.248963723972853
-0.026700000000000168,-21.503611757948562
-0.027700000000000058,-21.772406904922917
-0.02870000000000017,-22.069496277894572
-0.02970000000000006,-22.33829142486893
-0.03070000000000017,-22.592939458844636
-0.03170000000000006,-22.904175944814945
-0.03270000000000017,-23.24370665678255
-0.03370000000000006,-23.597384481748815
-0.034700000000000175,-23.908620967719123
-0.035700000000000065,-24.290593018682678
-0.03670000000000018,-24.64427084364894
-0.03770000000000007,-24.95550732961925
-0.03870000000000018,-25.295038041586857
-0.03970000000000007,-25.563833188561212
-0.04070000000000018,-25.86092256153287
-0.04170000000000007,-26.17215904750318
-0.04270000000000018,-26.483395533473487
-0.04370000000000007,-26.822926245441096
-0.044700000000000184,-27.176604070407354
-0.045700000000000074,-27.530281895373616
-0.046700000000000186,-27.912253946337174
-0.047700000000000076,-28.265931771303435
-0.04870000000000019,-28.662050935265643
-0.04970000000000008,-29.001581647233255
-0.05070000000000019,-29.31281813320356
-0.05170000000000008,-29.66649595816982
-0.05270000000000019,-30.00602667013743
-0.05370000000000008,-30.317263156107735
-0.05470000000000019,-30.670940981073993
-0.05570000000000008,-31.052913032037555
-0.056700000000000195,-31.449032195999767
-0.057700000000000085,-31.84515135996197
-0.058700000000000196,-32.283711862920136
-0.059700000000000086,-32.66568391388369
-0.0607000000000002,-33.06180307784591
-0.06170000000000009,-33.45792224180811
-0.0627000000000002,-33.85404140577033
-0.06370000000000009,-34.15113077874198
-0.0647000000000002,-34.50480860370825
-0.06570000000000009,-34.90092776767045
-0.0667000000000002,-35.240458479638065
-0.0677000000000001,-35.679018982596226
-0.0687000000000002,-36.07513814655844
-0.0697000000000001,-36.5136986495166
-0.07070000000000021,-36.95225915247476
-0.0717000000000001,-37.334231203438314
-0.07270000000000021,-37.73035036740053
-0.0737000000000001,-38.16891087035869
-0.07470000000000021,-38.522588695324956
-0.0757000000000001,-38.86211940729255
-0.07670000000000021,-39.21579723225882
-0.0777000000000001,-39.61191639622103
-0.07870000000000021,-39.99388844718459
-0.0797000000000001,-40.3900076111468
-0.08070000000000022,-40.828568114104954
-0.0817000000000001,-41.267128617063115
-0.08270000000000022,-41.66324778102533
-0.08370000000000011,-42.087661170984845
-0.08470000000000022,-42.4413389959511
-0.08570000000000011,-42.837458159913304
-0.08670000000000022,-43.23357732387552
-0.08770000000000011,-43.53066669684718
-0.08870000000000022,-43.92678586080939
-0.08970000000000011,-44.28046368577565
-0.09070000000000022,-44.619994397743255
-0.09170000000000011,-45.01611356170547
-0.09270000000000023,-45.45467406466363
-0.09370000000000012,-45.85079322862584
-0.09470000000000023,-46.27520661858535
-0.09570000000000012,-46.67132578254756
-0.09670000000000023,-47.067444946509774
-0.09770000000000012,-47.40697565847737
-0.09870000000000023,-47.76065348344364
-0.09970000000000012,-48.114331308409895
-0.10070000000000023,-48.45386202037751
-0.10170000000000012,-48.80753984534376
-0.10270000000000024,-49.20365900930597
-0.10370000000000013,-49.557336834272235
-0.10470000000000024,-49.939308885235796
-0.10570000000000013,-50.37786938819396
-0.10670000000000024,-50.73154721316022
-0.10770000000000013,-51.17010771611838
-0.10870000000000024,-51.509638428085985
-0.10970000000000013,-51.82087491405629
-0.11070000000000024,-52.2169940780185
-0.11170000000000013,-52.514083450990164
-0.11270000000000002,-52.86776127595642
-0.11370000000000013,-53.22143910092268
-0.11470000000000002,-53.603411151886235
-0.11570000000000014,-53.999530315848446
-0.11670000000000003,-54.35320814081471
-0.11770000000000014,-54.73518019177827
-0.11870000000000003,-55.13129935574048
-0.11970000000000014,-55.484977180706736
-0.12070000000000003,-55.838655005673
-0.12170000000000014,-56.13574437864466
-0.12270000000000003,-56.489422203610914
-0.12370000000000014,-56.786511576582576
-0.12470000000000003,-57.097748062552874
-0.12570000000000014,-57.45142588751914
-0.12670000000000003,-57.79095659948675
-0.12770000000000015,-58.18707576344896
-0.12870000000000004,-58.54075358841522
-0.12970000000000015,-58.92272563937878
-0.13070000000000004,-59.27640346434504
-0.13170000000000015,-59.6300812893113
-0.13270000000000004,-59.92717066228296
-0.13370000000000015,-60.23840714825326
-0.13470000000000004,-60.54964363422357
-0.13570000000000015,-60.84673300719523
-0.13670000000000004,-61.15796949316553
-0.13770000000000016,-61.49750020513315
-0.13870000000000005,-61.89361936909536
-0.13970000000000016,-62.24729719406162
-0.14070000000000005,-62.64341635802381
-0.14170000000000016,-63.02538840898739
-0.14270000000000005,-63.37906623395363
-0.14370000000000016,-63.6761556069253
-0.14470000000000005,-64.02983343189156
-0.14570000000000016,-64.38351125685783
-0.14670000000000005,-64.63815929083353
-0.14770000000000016,-64.99183711579978
-0.14870000000000005,-65.34551494076604
-0.14970000000000017,-65.64260431373769
-0.15070000000000006,-66.03872347769992
-0.15170000000000017,-66.39240130266617
-0.15270000000000006,-66.81681469262568
-0.15370000000000017,-67.17049251759194
-0.15470000000000006,-67.56661168155415
-0.15570000000000017,-67.9202895065204
-0.15670000000000006,-68.21737887949207
-0.15770000000000017,-68.57105670445833
-0.15870000000000006,-68.91058741642594
-0.15970000000000018,-69.22182390239624
-0.16070000000000007,-69.61794306635846
-0.16170000000000018,-70.01406223032066
-0.16270000000000007,-70.35359294228827
-0.16370000000000018,-70.70727076725453
-0.16470000000000007,-71.10338993121674
-0.16570000000000018,-71.48536198218031
-0.16670000000000007,-71.7965984681506
-0.16770000000000018,-72.10783495412092
-0.16870000000000007,-72.44736566608852
-0.16970000000000018,-72.71616081306288
-0.17070000000000007,-73.0556915250305
-0.17170000000000019,-73.3669280110008
-0.17270000000000008,-73.72060583596706
-0.1737000000000002,-74.10257788693062
-0.17470000000000008,-74.45625571189689
-0.1757000000000002,-74.8523748758591
-0.17670000000000008,-75.19190558782671
-0.1777000000000002,-75.5880247517889
-0.17870000000000008,-75.94170257675518
-0.1797000000000002,-76.29538040172143
-0.18070000000000008,-76.67735245268499
-0.1817000000000002,-77.03103027765125
-0.18270000000000008,-77.42714944161345
-0.1837000000000002,-77.76668015358106
-0.1847000000000001,-78.20524065653922
-0.1857000000000002,-78.64380115949739
-0.1867000000000001,-79.0399203234596
-0.1877000000000002,-79.52092216541372
-0.1887000000000001,-79.94533555537322
-0.1897000000000002,-80.34145471933543
-0.1907000000000001,-80.73757388329766
-0.1917000000000001,-81.1761343862558
-0.19269999999999998,-81.57225355021802
-0.1937000000000001,-81.95422560118158
-0.19469999999999998,-82.39278610413973
-0.1957000000000001,-82.8313466070979
-0.19669999999999999,-83.31234844905201
-0.1977000000000001,-83.79335029100612
-0.1987,-84.27435213296022
-0.1997000000000001,-84.75535397491434
-0.2007,-85.27879715586442
-0.2017000000000001,-85.70321054582392
-0.2027,-86.18421238777805
-0.2037000000000001,-86.66521422973216
-0.2047,-87.14621607168625
-0.2057000000000001,-87.62721791364037
-0.2067,-88.15066109459043
-0.2077000000000001,-88.63166293654454
-0.2087,-89.19754745649055
-0.2097000000000001,-89.76343197643658
-0.2107,-90.32931649638259
-0.2117000000000001,-90.89520101632861
-0.2127,-91.41864419727867
-0.2137000000000001,-91.94208737822873
-0.2147,-92.42308922018285
-0.2157000000000001,-92.98897374012887
-0.2167,-93.51241692107894
-0.21770000000000012,-94.03586010202899
-0.2187,-94.601744621975
-0.21970000000000012,-95.18177625491967
-0.2207,-95.74766077486568
-0.22170000000000012,-96.31354529481169
-0.2227,-96.96431249274961
-0.22370000000000012,-97.53019701269562
-0.2247,-98.09608153264163
-0.22570000000000012,-98.6195247135917
-0.2267,-99.18540923353773
-0.22770000000000012,-99.75129375348374
-0.22870000000000001,-100.2747369344338
-0.22970000000000013,-100.84062145437981
-0.23070000000000002,-101.40650597432582
-0.23170000000000013,-101.97239049427183
-0.23270000000000002,-102.59486346621246
-0.23370000000000013,-103.20318932515443
-0.23470000000000002,-103.81151518409638
-0.23570000000000013,-104.3773997040424
-0.23670000000000002,-104.98572556298437
-0.2376999999999999,-105.5516100829304
-0.23870000000000002,-106.11749460287639
-0.2396999999999999,-106.59849644483052
-0.24070000000000003,-107.20682230377247
-0.24169999999999991,-107.8292952757131
-0.24270000000000003,-108.43762113465506
-0.24369999999999992,-109.08838833259297
-0.24470000000000003,-109.73915553053091
-0.24569999999999992,-110.40406984146746
-0.24670000000000003,-111.05483703940537
-0.24769999999999992,-111.7056042373433
-0.24870000000000003,-112.3563714352812
-0.24969999999999992,-112.96469729422319
-0.25070000000000003,-113.53058181416918
-0.2516999999999999,-114.11061344711386
-0.25270000000000004,-114.71893930605583
-0.2536999999999999,-115.32726516499778
-0.25470000000000004,-115.97803236293572
-0.2556999999999999,-116.62879956087362
-0.25670000000000004,-117.33615521080614
-0.25769999999999993,-117.98692240874406
-0.25870000000000004,-118.63768960668197
-0.25969999999999993,-119.2884568046199
-0.26070000000000004,-119.95337111555646
-0.26169999999999993,-120.60413831349437
-0.26270000000000004,-121.21246417243634
-0.26369999999999993,-121.82079003137831
-0.26470000000000005,-122.42911589032028
-0.26569999999999994,-123.09403020125686
-0.26670000000000005,-123.74479739919475
-0.26769999999999994,-124.43800593612862
-0.26870000000000005,-125.14536158606113
-0.26969999999999994,-125.83857012299501
-0.27070000000000005,-126.5317786599289
-0.27169999999999994,-127.23913430986138
-0.27270000000000005,-127.88990150779931
-0.27369999999999994,-128.4982273667413
-0.27470000000000006,-129.10655322568326
-0.27569999999999995,-129.75732042362114
-0.27670000000000006,-130.42223473455772
-0.27769999999999995,-131.1154432714916
-0.27870000000000006,-131.80865180842545
-0.27969999999999995,-132.47356611936203
-0.28070000000000006,-133.20921599529186
-0.28169999999999995,-133.8599831932298
-0.28270000000000006,-134.56733884316228
-0.28369999999999995,-135.2181060411002
-0.28470000000000006,-135.82643190004217
-0.28569999999999995,-136.47719909798008
-0.28670000000000007,-137.08552495692206
-0.28769999999999996,-137.70799792886265
-0.28870000000000007,-138.3163237878046
-0.28969999999999996,-138.96709098574257
-0.29070000000000007,-139.61785818368048
-0.29169999999999996,-140.22618404262244
-0.29270000000000007,-140.84865701456303
-0.29369999999999996,-141.456982873505
-0.2947000000000001,-142.03701450644968
-0.29569999999999996,-142.7443701563822
-0.2967000000000001,-143.3102546763282
-0.29769999999999996,-143.87613919627424
-0.2987000000000001,-144.44202371622026
-0.29969999999999997,-145.00790823616626
-0.3007000000000001,-145.57379275611228
-0.30169999999999997,-146.1396772760583
-0.3027000000000001,-146.7055617960043
-0.30369999999999997,-147.27144631595033
-0.3047000000000001,-147.6958597059098
-0.30569999999999997,-148.26174422585584
-0.3067000000000001,-148.68615761581535
-0.3077,-149.25204213576137
-0.3087000000000001,-149.6764555257209
-0.3097,-150.1008689156804
-0.3107000000000001,-150.66675343562642
-0.3117,-151.09116682558593
-0.3127000000000001,-151.5155802155454
-0.3137,-152.0814647354914
-0.3147000000000001,-152.50587812545095
-0.3157,-153.07176264539694
-0.3167000000000001,-153.49617603535648
-0.3177,-153.920589425316
-0.3187000000000001,-154.3450028152755
-0.3197,-154.76941620523502
-0.3207000000000001,-155.19382959519453
-0.3217,-155.61824298515404
-0.3227000000000001,-156.04265637511355
-0.3237,-156.46706976507306
-0.3247000000000001,-156.75001202504606
-0.3257,-157.17442541500557
-0.3267000000000001,-157.59883880496508
-0.3277,-157.88178106493808
-0.3287000000000001,-158.3061944548976
-0.3297,-158.5891367148706
-0.3307000000000001,-159.01355010483013
-0.3317,-159.29649236480313
-0.3327000000000001,-159.57943462477613
-0.3337,-160.00384801473567
-0.3347000000000001,-160.14531914472215
-0.3357,-160.5697325346817
-0.3367000000000001,-160.71120366466818
-0.3377,-161.1356170546277
-0.3387000000000001,-161.41855931460069
-0.3397,-161.70150157457368
-0.3407000000000001,-161.9844438345467
-0.3417,-162.2673860945197
-0.3427000000000001,-162.40885722450622
-0.3437,-162.6917994844792
-0.3447000000000001,-162.8332706144657
-0.3457,-162.97474174445222
-0.3467000000000001,-163.11621287443873
-0.3477,-163.25768400442522
-0.3487000000000001,-163.54062626439824
-0.3497,-163.68209739438475
-0.3507000000000001,-163.82356852437124
-0.3517,-163.96503965435775
-0.3527000000000001,-163.96503965435775
-0.3537,-163.96503965435775
-0.3547000000000001,-164.10651078434424
-0.3557,-164.10651078434424
-0.35670000000000013,-164.10651078434424
-0.3577,-164.10651078434424
-0.35870000000000013,-163.96503965435775
-0.3597,-163.96503965435775
-0.36070000000000013,-163.96503965435775
-0.3617,-163.82356852437124
-0.3626999999999999,-163.68209739438475
-0.3637,-163.54062626439824
-0.3646999999999999,-163.39915513441173
-0.3657,-163.11621287443873
-0.3666999999999999,-162.8332706144657
-0.3677,-162.5503283544927
-0.3686999999999999,-162.2673860945197
-0.36970000000000003,-161.84297270456022
-0.3706999999999999,-161.5600304445872
-0.37170000000000003,-161.2770881846142
-0.3726999999999999,-160.8526747946547
-0.37370000000000003,-160.42826140469515
-0.3746999999999999,-160.00384801473567
-0.37570000000000003,-159.43796349478964
-0.3766999999999999,-158.87207897484362
-0.37770000000000004,-158.3061944548976
-0.3786999999999999,-157.7403099349516
-0.37970000000000004,-157.03295428501906
-0.3806999999999999,-156.32559863508658
-0.38170000000000004,-155.75971411514055
-0.38269999999999993,-155.05235846520802
-0.38370000000000004,-154.3450028152755
-0.38469999999999993,-153.63764716534297
-0.38570000000000004,-152.78882038542397
-0.38669999999999993,-152.0814647354914
-0.38770000000000004,-151.23263795557244
-0.38869999999999993,-150.38381117565342
-0.38970000000000005,-149.53498439573437
-0.39069999999999994,-148.54468648582886
-0.39170000000000005,-147.6958597059098
-0.39269999999999994,-146.7055617960043
-0.39370000000000005,-145.7152638860988
-0.39469999999999994,-144.72496597619326
-0.39570000000000005,-143.73466806628772
-0.39669999999999994,-142.7443701563822
-0.39770000000000005,-141.61260111649017
-0.39869999999999994,-140.5798618675887
-0.39970000000000006,-139.49053416669264
-0.40069999999999995,-138.3163237878046
-0.40170000000000006,-137.12796629591801
-0.40269999999999995,-135.95375591703004
-0.40370000000000006,-134.73710419914607
-0.40469999999999995,-133.52045248126214
-0.40570000000000006,-132.33209498937555
-0.40669999999999995,-131.2003259494835
-0.40770000000000006,-130.02611557059552
-0.40869999999999995,-128.89434653070347
-0.40970000000000006,-127.76257749081147
-0.41069999999999995,-126.61666133792076
-0.41170000000000007,-125.48489229802875
-0.41269999999999996,-124.31068191914078
-0.41370000000000007,-123.1364715402528
-0.41469999999999996,-121.96226116136481
-0.41570000000000007,-120.81634500847414
-0.41669999999999996,-119.68457596858211
-0.41770000000000007,-118.63768960668197
-0.41869999999999996,-117.59080324478184
-0.4197000000000001,-116.58635822187767
-0.42069999999999996,-115.62435453796945
-0.4217000000000001,-114.76138064505177
-0.42269999999999996,-113.84181830013951
-0.4237000000000001,-112.96469729422319
-0.42469999999999997,-112.10172340130552
-0.4257000000000001,-111.22460239538917
-0.42669999999999997,-110.4465111804634
-0.4277000000000001,-109.69671419153494
-0.42869999999999997,-109.00350565460108
-0.4297000000000001,-108.35273845666316
-0.43069999999999997,-107.78685393671715
-0.4317000000000001,-107.26341075576708
-0.4327,-106.78240891381296
-0.4337000000000001,-106.34384841085482
-0.4347,-105.94772924689259
-0.4357000000000001,-105.5516100829304
-0.4367,-105.21207937096277
-0.4377000000000001,-104.90084288499246
-0.4387,-104.58960639902216
-0.4397000000000001,-104.33495836504645
-0.4407,-104.2076343480586
-0.4417000000000001,-104.06616321807209
-0.4427,-103.98128054008019
-0.4437000000000001,-103.89639786208829
-0.4447,-103.85395652309235
-0.4457000000000001,-103.85395652309235
-0.4467,-103.85395652309235
-0.4477000000000001,-103.85395652309235
-0.4487,-103.85395652309235
-0.4497000000000001,-103.85395652309235
-0.4507,-103.89639786208829
-0.4517000000000001,-104.02372187907615
-0.4527,-104.16519300906265
-0.4537000000000001,-104.33495836504645
-0.4547,-104.50472372103027
-0.4557000000000001,-104.73107752900866
-0.4567,-104.98572556298437
-0.4577000000000001,-105.21207937096277
-0.4587,-105.42428606594254
-0.4597000000000001,-105.69308121291688
-0.4607,-105.94772924689259
-0.4617000000000001,-106.15993594187235
-0.4627,-106.47117242784265
-0.4637000000000001,-106.78240891381296
-0.4647,-107.12193962578058
-0.4657000000000001,-107.47561745074682
-0.4667,-107.87173661470905
-0.4677000000000001,-108.3102971176672
-0.4687,-108.69226916863077
-0.4697000000000001,-109.08838833259297
-0.4707,-109.4845074965552
-0.4717000000000001,-109.8806266605174
-0.4727,-110.26259871148096
-0.4737000000000001,-110.65871787544317
-0.4747,-111.05483703940537
-0.4757000000000001,-111.5358388813595
-0.4767,-111.96025227131899
-0.4777000000000001,-112.44125411327312
-0.4787,-112.92225595522721
-0.4797000000000001,-113.40325779718134
-0.4807,-113.84181830013951
-0.48170000000000013,-114.3228201420936
-0.4827,-114.76138064505177
-0.48370000000000013,-115.19994114800993
-0.4847,-115.5819131989735
-0.48570000000000013,-115.97803236293572
-0.4867,-114.80382198404773
-0.48570000000000013,-110.96995436141347
-0.4847,-107.51805878974278
-0.48370000000000013,-104.2925170260505
-0.4827,-101.32162329633393
-0.48170000000000013,-98.4497593576079
-0.4807,-95.74766077486568
-0.4797000000000001,-93.13044487011537
-0.4787,-90.59811164335694
-0.4777000000000001,-88.15066109459043
-0.4767,-85.75979899781852
-0.4757000000000001,-83.43967246603985
-0.4747,-81.21857572525175
-0.4737000000000001,-79.16724434044745
-0.4727,-77.11591295564315
-0.4717000000000001,-75.1070229098348
-0.4707,-73.197162655017
-0.4697000000000001,-71.31559662619651
-0.4687,-69.4906190493706
-0.4677000000000001,-67.65149435954605
-0.4667,-65.82651678272015
-0.4657000000000001,-64.0722747708875
