Potential V vs RHE, Current mA cm-2
0.013299999999999867,-0.48199213986401795
0.012299999999999978,-1.8334658446250875
0.011299999999999866,-2.706342716641815
0.010299999999999976,-3.317497998183511
0.009299999999999864,-3.7532290785419424
0.008299999999999974,-4.102662769608606
0.007299999999999862,-4.3205283097878215
0.006299999999999972,-4.538393849967037
0.00529999999999986,-4.668547289554621
0.0042999999999999705,-4.800115440442069
0.0032999999999998586,-4.887827541033701
0.0022999999999999687,-4.9302688800296535
0.0012999999999998568,-4.974124930325469
0.00029999999999996696,-4.974124930325469
-0.000700000000000145,-5.017980980621284
-0.0017000000000000348,-5.017980980621284
-0.0027000000000001467,-5.0618370309171015
-0.0037000000000000366,-5.105693081212917
-0.0047000000000001485,-5.105693081212917
-0.005700000000000038,-5.191990470504685
-0.00670000000000015,-5.191990470504685
-0.00770000000000004,-5.235846520800501
-0.008700000000000152,-5.191990470504685
-0.009700000000000042,-5.191990470504685
-0.010700000000000154,-5.149549131508733
-0.011700000000000044,-5.149549131508733
-0.012700000000000156,-5.149549131508733
-0.013700000000000045,-5.191990470504685
-0.014700000000000157,-5.235846520800501
-0.015700000000000047,-5.235846520800501
-0.01670000000000016,-5.235846520800501
-0.01770000000000005,-5.235846520800501
-0.01870000000000016,-5.235846520800501
-0.01970000000000005,-5.191990470504685
-0.020700000000000163,-5.191990470504685
-0.021700000000000053,-5.191990470504685
-0.022700000000000164,-5.191990470504685
-0.023700000000000054,-5.235846520800501
-0.024700000000000166,-5.235846520800501
-0.025700000000000056,-5.279702571096316
-0.026700000000000168,-5.279702571096316
-0.027700000000000058,-5.279702571096316
-0.02870000000000017,-5.279702571096316
-0.02970000000000006,-5.235846520800501
-0.03070000000000017,-5.235846520800501
-0.03170000000000006,-5.191990470504685
-0.03270000000000017,-5.191990470504685
-0.03370000000000006,-5.235846520800501
-0.034700000000000175,-5.235846520800501
-0.035700000000000065,-5.279702571096316
-0.03670000000000018,-5.279702571096316
-0.03770000000000007,-5.279702571096316
-0.03870000000000018,-5.235846520800501
-0.03970000000000007,-5.235846520800501
-0.04070000000000018,-5.191990470504685
-0.04170000000000007,-5.191990470504685
-0.04270000000000018,-5.191990470504685
-0.04370000000000007,-5.191990470504685
-0.044700000000000184,-5.235846520800501
-0.045700000000000074,-5.279702571096316
-0.046700000000000186,-5.279702571096316
-0.047700000000000076,-5.279702571096316
-0.04870000000000019,-5.279702571096316
-0.04970000000000008,-5.279702571096316
-0.05070000000000019,-5.235846520800501
-0.05170000000000008,-5.235846520800501
-0.05270000000000019,-5.191990470504685
-0.05370000000000008,-5.235846520800501
-0.05470000000000019,-5.235846520800501
-0.05570000000000008,-5.235846520800501
-0.056700000000000195,-5.235846520800501
-0.057700000000000085,-5.235846520800501
-0.058700000000000196,-5.191990470504685
-0.059700000000000086,-5.191990470504685
-0.0607000000000002,-5.191990470504685
-0.06170000000000009,-5.191990470504685
-0.0627000000000002,-5.191990470504685
-0.06370000000000009,-5.235846520800501
-0.0647000000000002,-5.279702571096316
-0.06570000000000009,-5.279702571096316
-0.0667000000000002,-5.279702571096316
-0.0677000000000001,-5.279702571096316
-0.0687000000000002,-5.279702571096316
-0.0697000000000001,-5.279702571096316
-0.07070000000000021,-5.235846520800501
-0.0717000000000001,-5.191990470504685
-0.07270000000000021,-5.235846520800501
-0.0737000000000001,-5.235846520800501
-0.07470000000000021,-5.235846520800501
-0.0757000000000001,-5.279702571096316
-0.07670000000000021,-5.279702571096316
-0.0777000000000001,-5.279702571096316
-0.07870000000000021,-5.279702571096316
-0.0797000000000001,-5.235846520800501
-0.08070000000000022,-5.235846520800501
-0.0817000000000001,-5.191990470504685
-0.08270000000000022,-5.191990470504685
-0.08370000000000011,-5.235846520800501
-0.08470000000000022,-5.279702571096316
-0.08570000000000011,-5.279702571096316
-0.08670000000000022,-5.279702571096316
-0.08770000000000011,-5.235846520800501
-0.08870000000000022,-5.235846520800501
-0.08970000000000011,-5.191990470504685
-0.09070000000000022,-5.191990470504685
-0.09170000000000011,-5.191990470504685
-0.09270000000000023,-5.191990470504685
-0.09370000000000012,-5.191990470504685
-0.09470000000000023,-5.279702571096316
-0.09570000000000012,-5.279702571096316
-0.09670000000000023,-5.323558621392133
-0.09770000000000012,-5.323558621392133
-0.09870000000000023,-5.323558621392133
-0.09970000000000012,-5.279702571096316
-0.10070000000000023,-5.235846520800501
-0.10170000000000012,-5.235846520800501
-0.10270000000000024,-5.235846520800501
-0.10370000000000013,-5.235846520800501
-0.10470000000000024,-5.279702571096316
-0.10570000000000013,-5.323558621392133
-0.10670000000000024,-5.279702571096316
-0.10770000000000013,-5.323558621392133
-0.10870000000000024,-5.279702571096316
-0.10970000000000013,-5.279702571096316
-0.11070000000000024,-5.235846520800501
-0.11170000000000013,-5.235846520800501
-0.11270000000000002,-5.279702571096316
-0.11370000000000013,-5.279702571096316
-0.11470000000000002,-5.323558621392133
-0.11570000000000014,-5.367414671687949
-0.11670000000000003,-5.367414671687949
-0.11770000000000014,-5.367414671687949
-0.11870000000000003,-5.323558621392133
-0.11970000000000014,-5.323558621392133
-0.12070000000000003,-5.279702571096316
-0.12170000000000014,-5.279702571096316
-0.12270000000000003,-5.235846520800501
-0.12370000000000014,-5.279702571096316
-0.12470000000000003,-5.323558621392133
-0.12570000000000014,-5.323558621392133
-0.12670000000000003,-5.367414671687949
-0.12770000000000015,-5.323558621392133
-0.12870000000000004,-5.279702571096316
-0.12970000000000015,-5.279702571096316
-0.13070000000000004,-5.279702571096316
-0.13170000000000015,-5.279702571096316
-0.13270000000000004,-5.279702571096316
-0.13370000000000015,-5.323558621392133
-0.13470000000000004,-5.323558621392133
-0.13570000000000015,-5.367414671687949
-0.13670000000000004,-5.411270721983764
-0.13770000000000016,-5.411270721983764
-0.13870000000000005,-5.411270721983764
-0.13970000000000016,-5.367414671687949
-0.14070000000000005,-5.367414671687949
-0.14170000000000016,-5.367414671687949
-0.14270000000000005,-5.367414671687949
-0.14370000000000016,-5.367414671687949
-0.14470000000000005,-5.367414671687949
-0.14570000000000016,-5.411270721983764
-0.14670000000000005,-5.367414671687949
-0.14770000000000016,-5.411270721983764
-0.14870000000000005,-5.367414671687949
-0.14970000000000017,-5.323558621392133
-0.15070000000000006,-5.323558621392133
-0.15170000000000017,-5.323558621392133
-0.15270000000000006,-5.323558621392133
-0.15370000000000017,-5.367414671687949
-0.15470000000000006,-5.411270721983764
-0.15570000000000017,-5.453712060979717
-0.15670000000000006,-5.453712060979717
-0.15770000000000017,-5.453712060979717
-0.15870000000000006,-5.453712060979717
-0.15970000000000018,-5.453712060979717
-0.16070000000000007,-5.411270721983764
-0.16170000000000018,-5.411270721983764
-0.16270000000000007,-5.411270721983764
-0.16370000000000018,-5.453712060979717
-0.16470000000000007,-5.453712060979717
-0.16570000000000018,-5.453712060979717
-0.16670000000000007,-5.497568111275533
-0.16770000000000018,-5.453712060979717
-0.16870000000000007,-5.453712060979717
-0.16970000000000018,-5.453712060979717
-0.17070000000000007,-5.411270721983764
-0.17170000000000019,-5.411270721983764
-0.17270000000000008,-5.411270721983764
-0.1737000000000002,-5.453712060979717
-0.17470000000000008,-5.497568111275533
-0.1757000000000002,-5.5414241615713475
-0.17670000000000008,-5.5414241615713475
-0.1777000000000002,-5.5414241615713475
-0.17870000000000008,-5.5414241615713475
-0.1797000000000002,-5.5414241615713475
-0.18070000000000008,-5.497568111275533
-0.1817000000000002,-5.497568111275533
-0.18270000000000008,-5.497568111275533
-0.1837000000000002,-5.497568111275533
-0.1847000000000001,-5.5414241615713475
-0.1857000000000002,-5.5414241615713475
-0.1867000000000001,-5.585280211867165
-0.1877000000000002,-5.585280211867165
-0.1887000000000001,-5.5414241615713475
-0.1897000000000002,-5.5414241615713475
-0.1907000000000001,-5.5414241615713475
-0.1917000000000001,-5.497568111275533
-0.19269999999999998,-5.5414241615713475
-0.1937000000000001,-5.585280211867165
-0.19469999999999998,-5.629136262162981
-0.1957000000000001,-5.672992312458796
-0.19669999999999999,-5.672992312458796
-0.1977000000000001,-5.672992312458796
-0.1987,-5.672992312458796
-0.1997000000000001,-5.672992312458796
-0.2007,-5.629136262162981
-0.2017000000000001,-5.629136262162981
-0.2027,-5.629136262162981
-0.2037000000000001,-5.672992312458796
-0.2047,-5.672992312458796
-0.2057000000000001,-5.715433651454749
-0.2067,-5.715433651454749
-0.2077000000000001,-5.715433651454749
-0.2087,-5.715433651454749
-0.2097000000000001,-5.672992312458796
-0.2107,-5.672992312458796
-0.2117000000000001,-5.672992312458796
-0.2127,-5.672992312458796
-0.2137000000000001,-5.715433651454749
-0.2147,-5.80314575204638
-0.2157000000000001,-5.847001802342197
-0.2167,-5.890857852638012
-0.21770000000000012,-5.890857852638012
-0.2187,-5.890857852638012
-0.21970000000000012,-5.890857852638012
-0.2207,-5.847001802342197
-0.22170000000000012,-5.847001802342197
-0.2227,-5.847001802342197
-0.22370000000000012,-5.847001802342197
-0.2247,-5.890857852638012
-0.22570000000000012,-5.9347139029338285
-0.2267,-5.9347139029338285
-0.22770000000000012,-5.977155241929781
-0.22870000000000001,-5.9347139029338285
-0.22970000000000013,-5.9347139029338285
-0.23070000000000002,-5.9347139029338285
-0.23170000000000013,-5.9347139029338285
-0.23270000000000002,-5.9347139029338285
-0.23370000000000013,-5.977155241929781
-0.23470000000000002,-6.021011292225596
-0.23570000000000013,-6.064867342521412
-0.23670000000000002,-6.108723392817228
-0.2376999999999999,-6.152579443113044
-0.23870000000000002,-6.108723392817228
-0.2396999999999999,-6.108723392817228
-0.24070000000000003,-6.108723392817228
-0.24169999999999991,-6.152579443113044
-0.24270000000000003,-6.152579443113044
-0.24369999999999992,-6.196435493408861
-0.24470000000000003,-6.238876832404812
-0.24569999999999992,-6.326588932996443
-0.24670000000000003,-6.326588932996443
-0.24769999999999992,-6.326588932996443
-0.24870000000000003,-6.326588932996443
-0.24969999999999992,-6.326588932996443
-0.25070000000000003,-6.282732882700628
-0.2516999999999999,-6.326588932996443
-0.25270000000000004,-6.326588932996443
-0.2536999999999999,-6.37044498329226
-0.25470000000000004,-6.458157083883892
-0.2556999999999999,-6.500598422879844
-0.25670000000000004,-6.54445447317566
-0.25769999999999993,-6.588310523471475
-0.25870000000000004,-6.588310523471475
-0.25969999999999993,-6.632166573767292
-0.26070000000000004,-6.632166573767292
-0.26169999999999993,-6.6760226240631075
-0.26270000000000004,-6.719878674358924
-0.26369999999999993,-6.762320013354876
-0.26470000000000005,-6.850032113946507
-0.26569999999999994,-6.93774421453814
-0.26670000000000005,-6.981600264833956
-0.26769999999999994,-6.981600264833956
-0.26870000000000005,-6.981600264833956
-0.26969999999999994,-6.981600264833956
-0.27070000000000005,-6.981600264833956
-0.27169999999999994,-7.024041603829907
-0.27270000000000005,-7.024041603829907
-0.27369999999999994,-7.111753704421539
-0.27470000000000006,-7.155609754717355
-0.27569999999999995,-7.243321855308987
-0.27670000000000006,-7.329619244600755
-0.27769999999999995,-7.37347529489657
-0.27870000000000006,-7.461187395488204
-0.27969999999999995,-7.50504344578402
-0.28070000000000006,-7.50504344578402
-0.28169999999999995,-7.591340835075788
-0.28270000000000006,-7.635196885371603
-0.28369999999999995,-7.722908985963235
-0.28470000000000006,-7.7653503249591855
-0.28569999999999995,-7.853062425550818
-0.28670000000000007,-7.940774526142452
-0.28769999999999996,-7.940774526142452
-0.28870000000000007,-7.984630576438266
-0.28969999999999996,-8.027071915434218
-0.29070000000000007,-8.070927965730034
-0.29169999999999996,-8.158640066321666
-0.29270000000000007,-8.202496116617484
-0.29369999999999996,-8.332649556205066
-0.2947000000000001,-8.4203616567967
-0.29569999999999996,-8.55051509638428
-0.2967000000000001,-8.68208324727173
-0.29769999999999996,-8.769795347863363
-0.2987000000000001,-8.812236686859313
-0.29969999999999997,-8.899948787450944
-0.3007000000000001,-8.943804837746763
-0.30169999999999997,-9.031516938338395
-0.3027000000000001,-9.11781432763016
-0.30369999999999997,-9.205526428221793
-0.3047000000000001,-9.335679867809377
-0.30569999999999997,-9.467248018696827
-0.3067000000000001,-9.55496011928846
-0.3077,-9.685113558876042
-0.3087000000000001,-9.728969609171857
-0.3097,-9.81668170976349
-0.3107000000000001,-9.902979099055257
-0.3117,-10.034547249942705
-0.3127000000000001,-10.164700689530287
-0.3137,-10.296268840417738
-0.3147000000000001,-10.42642228000532
-0.3157,-10.557990430892769
-0.3167000000000001,-10.688143870480351
-0.3177,-10.819712021367803
-0.3187000000000001,-10.906009410659568
-0.3197,-10.993721511251199
-0.3207000000000001,-11.123874950838783
-0.3217,-11.255443101726232
-0.3227000000000001,-11.385596541313816
-0.3237,-11.56102074249708
-0.3247000000000001,-11.73503023238048
-0.3257,-11.909039722263879
-0.3267000000000001,-12.12831997374296
-0.3277,-12.258473413330542
-0.3287000000000001,-12.390041564217992
-0.3297,-12.520195003805576
-0.3307000000000001,-12.651763154693022
-0.3317,-12.825772644576423
-0.3327000000000001,-12.99978213445982
-0.3337,-13.175206335643086
-0.3347000000000001,-13.349215825526485
-0.3357,-13.567081365705702
-0.3367000000000001,-13.741090855589102
-0.3377,-13.960371107068182
-0.3387000000000001,-14.090524546655764
-0.3397,-14.30273124163552
-0.3407000000000001,-14.486643710617974
-0.3417,-14.65640906660178
-0.3427000000000001,-14.925204213576137
-0.3437,-15.179852247551842
-0.3447000000000001,-15.448647394526201
-0.3457,-15.660854089505953
-0.3467000000000001,-15.91550212348166
-0.3477,-16.141855931460068
-0.3487000000000001,-16.311621287443874
-0.3497,-16.53797509542228
-0.3507000000000001,-16.750181790402035
-0.3517,-16.919947146385837
-0.3527000000000001,-17.103859615368293
-0.3537,-17.2736249713521
-0.3547000000000001,-17.542420118326454
-0.3557,-17.839509491298113
-0.35670000000000013,-18.15074597726842
-0.3577,-18.53271802823198
-0.35870000000000013,-18.88639585319824
-0.3597,-19.155191000172596
-0.36070000000000013,-19.409839034148305
-0.3617,-19.678634181122664
-0.3626999999999999,-19.848399537106463
-0.3637,-20.06060623208622
-0.3646999999999999,-20.286960040064624
-0.3657,-20.541608074040333
-0.3666999999999999,-20.76796188201874
-0.3677,-21.065051254990397
-0.3686999999999999,-21.418729079956652
-0.36970000000000003,-21.814848243918867
-0.3706999999999999,-22.15437895588647
-0.37170000000000003,-22.550498119848687
-0.3726999999999999,-22.989058622806844
-0.37370000000000003,-23.427619125765005
-0.3746999999999999,-23.86617962872317
-0.37570000000000003,-24.24815167968673
-0.3766999999999999,-24.64427084364894
-0.37770000000000004,-24.997948668615198
-0.3786999999999999,-25.295038041586857
-0.37970000000000004,-25.648715866553115
-0.3806999999999999,-25.91751101352747
-0.38170000000000004,-26.257041725495082
-0.38269999999999993,-26.568278211465387
-0.38370000000000004,-26.86536758443705
-0.38469999999999993,-27.176604070407354
-0.38570000000000004,-27.487840556377662
-0.38669999999999993,-27.78492992934932
-0.38770000000000004,-28.18104909331153
-0.38869999999999993,-28.619609596269694
-0.38970000000000005,-28.959140308237306
-0.39069999999999994,-29.440142150191413
-0.39170000000000005,-29.878702653149578
-0.39269999999999994,-30.359704495103685
-0.39370000000000005,-30.8407063370578
-0.39469999999999994,-31.36414951800786
-0.39570000000000005,-31.887592698957924
-0.39669999999999994,-32.41103587990799
-0.39770000000000005,-32.93447906085806
-0.39869999999999994,-33.373039563816214
-0.39970000000000006,-33.81160006677438
-0.40069999999999995,-34.193572117737936
-0.40170000000000006,-34.632132620696105
-0.40269999999999995,-35.02825178465831
-0.40370000000000006,-35.46681228761647
-0.40469999999999995,-35.94781412957058
-0.40570000000000006,-36.4288159715247
-0.40669999999999995,-36.8532293614842
-0.40770000000000006,-37.291789864442364
-0.40869999999999995,-37.77279170639648
-0.40970000000000006,-38.211352209354644
-0.41069999999999995,-38.692354051308754
-0.41170000000000007,-39.258238571254765
-0.41269999999999996,-39.78168175220483
-0.41370000000000007,-40.3900076111468
-0.41469999999999996,-41.04077480908471
-0.41570000000000007,-41.66324778102533
-0.41669999999999996,-42.2715736399673
-0.41770000000000007,-42.837458159913304
-0.41869999999999996,-43.40334267985933
-0.4197000000000001,-43.96922719980534
-0.42069999999999996,-44.4926703807554
-0.4217000000000001,-45.05855490070142
-0.42269999999999996,-45.53955674265553
-0.4237000000000001,-46.062999923605595
-0.42469999999999997,-46.586443104555656
-0.4257000000000001,-47.10988628550572
-0.42669999999999997,-47.633329466455784
-0.4277000000000001,-48.24165532539775
-0.42869999999999997,-48.80753984534376
-0.4297000000000001,-49.458307043281685
-0.43069999999999997,-50.12322135421825
-0.4317000000000001,-50.77398855215617
-0.4327,-51.46719708909004
-0.4337000000000001,-52.2169940780185
-0.4347,-52.95264395394832
-0.4357000000000001,-53.603411151886235
-0.4367,-54.2117370108282
-0.4377000000000001,-54.791768643772876
-0.4387,-55.357653163718886
-0.4397000000000001,-55.9235376836649
-0.4407,-56.53186354260687
-0.4417000000000001,-57.14018940154883
-0.4427,-57.79095659948675
-0.4437000000000001,-58.583194927411164
-0.4447,-59.403727481332886
-0.4457000000000001,-60.28084848724921
-0.4467,-61.07308681517363
-0.4477000000000001,-61.5965299961237
-0.4487,-62.33217987205352
-0.4497000000000001,-63.06782974798333
-0.4507,-63.860068075907755
-0.4517000000000001,-64.59571795183757
-0.4527,-65.20404381077954
-0.4537000000000001,-65.82651678272015
-0.4547,-66.43484264166212
-0.4557000000000001,-67.08560983960004
-0.4567,-67.6090530205501
-0.4577000000000001,-68.17493754049613
-0.4587,-68.78326339943808
-0.4597000000000001,-69.43403059737601
-0.4607,-70.09894490831257
-0.4617000000000001,-70.8345947842424
-0.4627,-71.7117157901587
-0.4637000000000001,-72.67371947406694
-0.4647,-73.72060583596706
-0.4657000000000001,-74.72505085887124
-0.4667,-75.63046609078486
-0.4677000000000001,-76.55002843569714
-0.4687,-77.38470810261751
-0.4697000000000001,-78.20524065653922
-0.4707,-78.99747898446365
-0.4717000000000001,-79.73312886039348
-0.4727,-80.42633739732734
-0.4737000000000001,-81.09125170826391
-0.4747,-81.82690158419373
-0.4757000000000001,-82.52011012112759
-0.4767,-83.22746577106011
-0.4777000000000001,-83.92067430799398
-0.4787,-84.6563241839238
-0.4797000000000001,-85.44856251184822
-0.4807,-86.22665372677399
-0.48170000000000013,-87.06133339369435
-0.4827,-87.93845439961068
-0.48370000000000013,-88.9004580835189
-0.4847,-89.89075599342443
-0.48570000000000013,-90.89520101632861
-0.4867,-90.6405529823529
-0.48570000000000013,-88.6741042755405
-0.4847,-87.14621607168625
-0.48370000000000013,-85.88712301480638
-0.4827,-84.6563241839238
-0.48170000000000013,-83.48211380503581
-0.4807,-82.39278610413973
-0.4797000000000001,-81.3458997422396
-0.4787,-80.29901338033947
-0.4777000000000001,-79.37945103542721
-0.4767,-78.51647714250953
-0.4757000000000001,-77.46959078060941
-0.4747,-76.46514575770523
-0.4737000000000001,-75.50314207379701
-0.4727,-74.58357972888473
-0.4717000000000001,-73.62157604497652
-0.4707,-72.63127813507097
-0.4697000000000001,-71.66927445116276
-0.4687,-70.79215344524643
-0.4677000000000001,-70.09894490831257
-0.4667,-69.26426524139221
-0.4657000000000001,-68.44373268747047
-0.4647,-67.52417034255821
-0.4637000000000001,-66.47728398065809
-0.4627,-65.51528029674984
-0.4617000000000001,-64.68060062982947
-0.4607,-63.902509414903705
