Apr. 1, 2025   20:35:48
Cyclic Voltammetry
File: c:/users/guazh/data/banditlqround7_x0exp518_r20/2025-03-28-exp1013\exp1013-2025-04-01t20_24_11-h2koh\exp1013_cv_sr_700mvs_efin_-1500mv.bin
Data Source:  Experiment
Instrument Model:  CHI760E
Header: CV ran at 700 mVs
Note: 

Init E (V) = -1
High E (V) = -1
Low E (V) = -1.5
Final E (V) = -1
Init P/N = N
Scan Rate (V/s) = 0.7
Segment = 3
Sample Interval (V) = 0.001
Quiet Time (sec) = 2
Sensitivity (A/V) = 0.01
Comp R (ohm) = 1.7

Results:

Channel 1:
Segment 1:

Segment 2:

Segment 3:

Potential/V, Current/A

-1.000, 2.482e-5
-1.001, 1.266e-4
-1.002, 1.975e-4
-1.003, 2.499e-4
-1.004, 2.900e-4
-1.005, 3.208e-4
-1.006, 3.424e-4
-1.007, 3.609e-4
-1.008, 3.732e-4
-1.009, 3.825e-4
-1.010, 3.886e-4
-1.011, 3.948e-4
-1.012, 4.010e-4
-1.013, 4.040e-4
-1.014, 4.071e-4
-1.015, 4.133e-4
-1.016, 4.164e-4
-1.017, 4.195e-4
-1.018, 4.195e-4
-1.019, 4.195e-4
-1.020, 4.195e-4
-1.021, 4.164e-4
-1.022, 4.164e-4
-1.023, 4.164e-4
-1.024, 4.164e-4
-1.025, 4.195e-4
-1.026, 4.225e-4
-1.027, 4.225e-4
-1.028, 4.256e-4
-1.029, 4.287e-4
-1.030, 4.287e-4
-1.031, 4.287e-4
-1.032, 4.287e-4
-1.033, 4.287e-4
-1.034, 4.256e-4
-1.035, 4.256e-4
-1.036, 4.256e-4
-1.037, 4.256e-4
-1.038, 4.287e-4
-1.039, 4.287e-4
-1.040, 4.287e-4
-1.041, 4.287e-4
-1.042, 4.287e-4
-1.043, 4.256e-4
-1.044, 4.256e-4
-1.045, 4.225e-4
-1.046, 4.225e-4
-1.047, 4.225e-4
-1.048, 4.225e-4
-1.049, 4.225e-4
-1.050, 4.256e-4
-1.051, 4.287e-4
-1.052, 4.318e-4
-1.053, 4.318e-4
-1.054, 4.318e-4
-1.055, 4.287e-4
-1.056, 4.287e-4
-1.057, 4.256e-4
-1.058, 4.256e-4
-1.059, 4.256e-4
-1.060, 4.256e-4
-1.061, 4.256e-4
-1.062, 4.256e-4
-1.063, 4.287e-4
-1.064, 4.287e-4
-1.065, 4.287e-4
-1.066, 4.287e-4
-1.067, 4.256e-4
-1.068, 4.225e-4
-1.069, 4.225e-4
-1.070, 4.225e-4
-1.071, 4.225e-4
-1.072, 4.256e-4
-1.073, 4.256e-4
-1.074, 4.287e-4
-1.075, 4.318e-4
-1.076, 4.349e-4
-1.077, 4.318e-4
-1.078, 4.318e-4
-1.079, 4.287e-4
-1.080, 4.287e-4
-1.081, 4.256e-4
-1.082, 4.256e-4
-1.083, 4.256e-4
-1.084, 4.256e-4
-1.085, 4.256e-4
-1.086, 4.287e-4
-1.087, 4.287e-4
-1.088, 4.287e-4
-1.089, 4.287e-4
-1.090, 4.256e-4
-1.091, 4.256e-4
-1.092, 4.225e-4
-1.093, 4.225e-4
-1.094, 4.256e-4
-1.095, 4.256e-4
-1.096, 4.256e-4
-1.097, 4.287e-4
-1.098, 4.287e-4
-1.099, 4.287e-4
-1.100, 4.318e-4
-1.101, 4.287e-4
-1.102, 4.287e-4
-1.103, 4.256e-4
-1.104, 4.256e-4
-1.105, 4.256e-4
-1.106, 4.256e-4
-1.107, 4.256e-4
-1.108, 4.287e-4
-1.109, 4.318e-4
-1.110, 4.349e-4
-1.111, 4.349e-4
-1.112, 4.349e-4
-1.113, 4.349e-4
-1.114, 4.318e-4
-1.115, 4.318e-4
-1.116, 4.287e-4
-1.117, 4.287e-4
-1.118, 4.287e-4
-1.119, 4.287e-4
-1.120, 4.287e-4
-1.121, 4.287e-4
-1.122, 4.287e-4
-1.123, 4.287e-4
-1.124, 4.287e-4
-1.125, 4.287e-4
-1.126, 4.287e-4
-1.127, 4.287e-4
-1.128, 4.287e-4
-1.129, 4.287e-4
-1.130, 4.287e-4
-1.131, 4.318e-4
-1.132, 4.349e-4
-1.133, 4.349e-4
-1.134, 4.349e-4
-1.135, 4.380e-4
-1.136, 4.349e-4
-1.137, 4.349e-4
-1.138, 4.318e-4
-1.139, 4.287e-4
-1.140, 4.287e-4
-1.141, 4.287e-4
-1.142, 4.287e-4
-1.143, 4.318e-4
-1.144, 4.318e-4
-1.145, 4.349e-4
-1.146, 4.349e-4
-1.147, 4.349e-4
-1.148, 4.349e-4
-1.149, 4.349e-4
-1.150, 4.349e-4
-1.151, 4.318e-4
-1.152, 4.318e-4
-1.153, 4.349e-4
-1.154, 4.349e-4
-1.155, 4.380e-4
-1.156, 4.410e-4
-1.157, 4.410e-4
-1.158, 4.410e-4
-1.159, 4.410e-4
-1.160, 4.410e-4
-1.161, 4.380e-4
-1.162, 4.349e-4
-1.163, 4.349e-4
-1.164, 4.349e-4
-1.165, 4.349e-4
-1.166, 4.349e-4
-1.167, 4.380e-4
-1.168, 4.410e-4
-1.169, 4.441e-4
-1.170, 4.441e-4
-1.171, 4.441e-4
-1.172, 4.410e-4
-1.173, 4.380e-4
-1.174, 4.380e-4
-1.175, 4.380e-4
-1.176, 4.380e-4
-1.177, 4.410e-4
-1.178, 4.410e-4
-1.179, 4.441e-4
-1.180, 4.472e-4
-1.181, 4.441e-4
-1.182, 4.472e-4
-1.183, 4.441e-4
-1.184, 4.441e-4
-1.185, 4.441e-4
-1.186, 4.410e-4
-1.187, 4.441e-4
-1.188, 4.441e-4
-1.189, 4.472e-4
-1.190, 4.472e-4
-1.191, 4.503e-4
-1.192, 4.503e-4
-1.193, 4.503e-4
-1.194, 4.534e-4
-1.195, 4.503e-4
-1.196, 4.503e-4
-1.197, 4.472e-4
-1.198, 4.472e-4
-1.199, 4.472e-4
-1.200, 4.472e-4
-1.201, 4.503e-4
-1.202, 4.503e-4
-1.203, 4.565e-4
-1.204, 4.565e-4
-1.205, 4.565e-4
-1.206, 4.565e-4
-1.207, 4.565e-4
-1.208, 4.534e-4
-1.209, 4.534e-4
-1.210, 4.534e-4
-1.211, 4.534e-4
-1.212, 4.565e-4
-1.213, 4.565e-4
-1.214, 4.595e-4
-1.215, 4.626e-4
-1.216, 4.626e-4
-1.217, 4.626e-4
-1.218, 4.595e-4
-1.219, 4.595e-4
-1.220, 4.595e-4
-1.221, 4.595e-4
-1.222, 4.595e-4
-1.223, 4.595e-4
-1.224, 4.626e-4
-1.225, 4.626e-4
-1.226, 4.657e-4
-1.227, 4.657e-4
-1.228, 4.688e-4
-1.229, 4.719e-4
-1.230, 4.719e-4
-1.231, 4.688e-4
-1.232, 4.688e-4
-1.233, 4.688e-4
-1.234, 4.688e-4
-1.235, 4.688e-4
-1.236, 4.719e-4
-1.237, 4.750e-4
-1.238, 4.780e-4
-1.239, 4.811e-4
-1.240, 4.811e-4
-1.241, 4.811e-4
-1.242, 4.811e-4
-1.243, 4.811e-4
-1.244, 4.811e-4
-1.245, 4.780e-4
-1.246, 4.811e-4
-1.247, 4.842e-4
-1.248, 4.873e-4
-1.249, 4.904e-4
-1.250, 4.935e-4
-1.251, 4.935e-4
-1.252, 4.965e-4
-1.253, 4.965e-4
-1.254, 4.965e-4
-1.255, 4.965e-4
-1.256, 4.935e-4
-1.257, 4.965e-4
-1.258, 4.965e-4
-1.259, 4.965e-4
-1.260, 4.996e-4
-1.261, 5.027e-4
-1.262, 5.027e-4
-1.263, 5.058e-4
-1.264, 5.058e-4
-1.265, 5.089e-4
-1.266, 5.089e-4
-1.267, 5.120e-4
-1.268, 5.181e-4
-1.269, 5.212e-4
-1.270, 5.243e-4
-1.271, 5.274e-4
-1.272, 5.305e-4
-1.273, 5.366e-4
-1.274, 5.366e-4
-1.275, 5.397e-4
-1.276, 5.366e-4
-1.277, 5.366e-4
-1.278, 5.397e-4
-1.279, 5.366e-4
-1.280, 5.397e-4
-1.281, 5.428e-4
-1.282, 5.459e-4
-1.283, 5.520e-4
-1.284, 5.582e-4
-1.285, 5.613e-4
-1.286, 5.674e-4
-1.287, 5.705e-4
-1.288, 5.705e-4
-1.289, 5.767e-4
-1.290, 5.798e-4
-1.291, 5.829e-4
-1.292, 5.859e-4
-1.293, 5.890e-4
-1.294, 5.921e-4
-1.295, 5.952e-4
-1.296, 6.014e-4
-1.297, 6.044e-4
-1.298, 6.075e-4
-1.299, 6.106e-4
-1.300, 6.137e-4
-1.301, 6.137e-4
-1.302, 6.199e-4
-1.303, 6.229e-4
-1.304, 6.291e-4
-1.305, 6.353e-4
-1.306, 6.445e-4
-1.307, 6.507e-4
-1.308, 6.599e-4
-1.309, 6.692e-4
-1.310, 6.754e-4
-1.311, 6.815e-4
-1.312, 6.815e-4
-1.313, 6.877e-4
-1.314, 6.877e-4
-1.315, 6.939e-4
-1.316, 6.969e-4
-1.317, 7.031e-4
-1.318, 7.093e-4
-1.319, 7.154e-4
-1.320, 7.247e-4
-1.321, 7.339e-4
-1.322, 7.401e-4
-1.323, 7.463e-4
-1.324, 7.555e-4
-1.325, 7.617e-4
-1.326, 7.709e-4
-1.327, 7.771e-4
-1.328, 7.863e-4
-1.329, 7.956e-4
-1.330, 8.048e-4
-1.331, 8.172e-4
-1.332, 8.264e-4
-1.333, 8.357e-4
-1.334, 8.449e-4
-1.335, 8.542e-4
-1.336, 8.603e-4
-1.337, 8.665e-4
-1.338, 8.758e-4
-1.339, 8.850e-4
-1.340, 8.973e-4
-1.341, 9.066e-4
-1.342, 9.189e-4
-1.343, 9.313e-4
-1.344, 9.436e-4
-1.345, 9.590e-4
-1.346, 9.683e-4
-1.347, 9.806e-4
-1.348, 9.929e-4
-1.349, 1.008e-3
-1.350, 1.021e-3
-1.351, 1.033e-3
-1.352, 1.048e-3
-1.353, 1.064e-3
-1.354, 1.079e-3
-1.355, 1.095e-3
-1.356, 1.110e-3
-1.357, 1.122e-3
-1.358, 1.138e-3
-1.359, 1.150e-3
-1.360, 1.159e-3
-1.361, 1.175e-3
-1.362, 1.187e-3
-1.363, 1.203e-3
-1.364, 1.218e-3
-1.365, 1.236e-3
-1.366, 1.252e-3
-1.367, 1.270e-3
-1.368, 1.289e-3
-1.369, 1.307e-3
-1.370, 1.326e-3
-1.371, 1.341e-3
-1.372, 1.360e-3
-1.373, 1.375e-3
-1.374, 1.394e-3
-1.375, 1.412e-3
-1.376, 1.431e-3
-1.377, 1.452e-3
-1.378, 1.471e-3
-1.379, 1.492e-3
-1.380, 1.514e-3
-1.381, 1.532e-3
-1.382, 1.554e-3
-1.383, 1.579e-3
-1.384, 1.597e-3
-1.385, 1.622e-3
-1.386, 1.643e-3
-1.387, 1.668e-3
-1.388, 1.693e-3
-1.389, 1.717e-3
-1.390, 1.745e-3
-1.391, 1.770e-3
-1.392, 1.795e-3
-1.393, 1.819e-3
-1.394, 1.841e-3
-1.395, 1.865e-3
-1.396, 1.890e-3
-1.397, 1.915e-3
-1.398, 1.943e-3
-1.399, 1.970e-3
-1.400, 2.001e-3
-1.401, 2.032e-3
-1.402, 2.063e-3
-1.403, 2.094e-3
-1.404, 2.121e-3
-1.405, 2.146e-3
-1.406, 2.174e-3
-1.407, 2.201e-3
-1.408, 2.229e-3
-1.409, 2.257e-3
-1.410, 2.288e-3
-1.411, 2.319e-3
-1.412, 2.353e-3
-1.413, 2.383e-3
-1.414, 2.417e-3
-1.415, 2.451e-3
-1.416, 2.482e-3
-1.417, 2.516e-3
-1.418, 2.547e-3
-1.419, 2.581e-3
-1.420, 2.618e-3
-1.421, 2.652e-3
-1.422, 2.686e-3
-1.423, 2.723e-3
-1.424, 2.756e-3
-1.425, 2.793e-3
-1.426, 2.827e-3
-1.427, 2.861e-3
-1.428, 2.895e-3
-1.429, 2.929e-3
-1.430, 2.966e-3
-1.431, 3.000e-3
-1.432, 3.037e-3
-1.433, 3.074e-3
-1.434, 3.114e-3
-1.435, 3.151e-3
-1.436, 3.191e-3
-1.437, 3.234e-3
-1.438, 3.274e-3
-1.439, 3.318e-3
-1.440, 3.361e-3
-1.441, 3.404e-3
-1.442, 3.447e-3
-1.443, 3.487e-3
-1.444, 3.533e-3
-1.445, 3.580e-3
-1.446, 3.626e-3
-1.447, 3.672e-3
-1.448, 3.715e-3
-1.449, 3.758e-3
-1.450, 3.799e-3
-1.451, 3.836e-3
-1.452, 3.879e-3
-1.453, 3.928e-3
-1.454, 3.977e-3
-1.455, 4.024e-3
-1.456, 4.073e-3
-1.457, 4.125e-3
-1.458, 4.178e-3
-1.459, 4.230e-3
-1.460, 4.283e-3
-1.461, 4.332e-3
-1.462, 4.381e-3
-1.463, 4.424e-3
-1.464, 4.461e-3
-1.465, 4.498e-3
-1.466, 4.535e-3
-1.467, 4.572e-3
-1.468, 4.612e-3
-1.469, 4.656e-3
-1.470, 4.705e-3
-1.471, 4.754e-3
-1.472, 4.813e-3
-1.473, 4.871e-3
-1.474, 4.930e-3
-1.475, 4.992e-3
-1.476, 5.047e-3
-1.477, 5.106e-3
-1.478, 5.164e-3
-1.479, 5.226e-3
-1.480, 5.291e-3
-1.481, 5.356e-3
-1.482, 5.414e-3
-1.483, 5.473e-3
-1.484, 5.525e-3
-1.485, 5.578e-3
-1.486, 5.624e-3
-1.487, 5.673e-3
-1.488, 5.722e-3
-1.489, 5.769e-3
-1.490, 5.815e-3
-1.491, 5.864e-3
-1.492, 5.920e-3
-1.493, 5.972e-3
-1.494, 6.034e-3
-1.495, 6.092e-3
-1.496, 6.151e-3
-1.497, 6.216e-3
-1.498, 6.277e-3
-1.499, 6.339e-3
-1.500, 6.321e-3
-1.499, 6.182e-3
-1.498, 6.074e-3
-1.497, 5.978e-3
-1.496, 5.898e-3
-1.495, 5.815e-3
-1.494, 5.735e-3
-1.493, 5.661e-3
-1.492, 5.587e-3
-1.491, 5.513e-3
-1.490, 5.442e-3
-1.489, 5.371e-3
-1.488, 5.303e-3
-1.487, 5.235e-3
-1.486, 5.171e-3
-1.485, 5.112e-3
-1.484, 5.050e-3
-1.483, 4.989e-3
-1.482, 4.930e-3
-1.481, 4.868e-3
-1.480, 4.807e-3
-1.479, 4.745e-3
-1.478, 4.686e-3
-1.477, 4.628e-3
-1.476, 4.566e-3
-1.475, 4.508e-3
-1.474, 4.446e-3
-1.473, 4.387e-3
-1.472, 4.329e-3
-1.471, 4.273e-3
-1.470, 4.215e-3
-1.469, 4.156e-3
-1.468, 4.095e-3
-1.467, 4.036e-3
-1.466, 3.974e-3
-1.465, 3.913e-3
-1.464, 3.854e-3
-1.463, 3.799e-3
-1.462, 3.743e-3
-1.461, 3.688e-3
-1.460, 3.638e-3
-1.459, 3.586e-3
-1.458, 3.536e-3
-1.457, 3.487e-3
-1.456, 3.438e-3
-1.455, 3.385e-3
-1.454, 3.336e-3
-1.453, 3.287e-3
-1.452, 3.237e-3
-1.451, 3.185e-3
-1.450, 3.136e-3
-1.449, 3.089e-3
-1.448, 3.043e-3
-1.447, 2.997e-3
-1.446, 2.951e-3
-1.445, 2.908e-3
-1.444, 2.858e-3
-1.443, 2.809e-3
-1.442, 2.763e-3
-1.441, 2.716e-3
-1.440, 2.670e-3
-1.439, 2.624e-3
-1.438, 2.584e-3
-1.437, 2.541e-3
-1.436, 2.501e-3
-1.435, 2.457e-3
-1.434, 2.414e-3
-1.433, 2.371e-3
-1.432, 2.331e-3
-1.431, 2.288e-3
-1.430, 2.248e-3
-1.429, 2.208e-3
-1.428, 2.168e-3
-1.427, 2.128e-3
-1.426, 2.087e-3
-1.425, 2.050e-3
-1.424, 2.017e-3
-1.423, 1.980e-3
-1.422, 1.939e-3
-1.421, 1.906e-3
-1.420, 1.865e-3
-1.419, 1.828e-3
-1.418, 1.791e-3
-1.417, 1.758e-3
-1.416, 1.721e-3
-1.415, 1.684e-3
-1.414, 1.653e-3
-1.413, 1.619e-3
-1.412, 1.588e-3
-1.411, 1.557e-3
-1.410, 1.523e-3
-1.409, 1.492e-3
-1.408, 1.458e-3
-1.407, 1.425e-3
-1.406, 1.394e-3
-1.405, 1.363e-3
-1.404, 1.332e-3
-1.403, 1.304e-3
-1.402, 1.273e-3
-1.401, 1.246e-3
-1.400, 1.218e-3
-1.399, 1.190e-3
-1.398, 1.162e-3
-1.397, 1.132e-3
-1.396, 1.104e-3
-1.395, 1.076e-3
-1.394, 1.045e-3
-1.393, 1.021e-3
-1.392, 9.960e-4
-1.391, 9.713e-4
-1.390, 9.436e-4
-1.389, 9.220e-4
-1.388, 8.973e-4
-1.387, 8.727e-4
-1.386, 8.480e-4
-1.385, 8.233e-4
-1.384, 7.987e-4
-1.383, 7.740e-4
-1.382, 7.494e-4
-1.381, 7.247e-4
-1.380, 7.031e-4
-1.379, 6.846e-4
-1.378, 6.630e-4
-1.377, 6.445e-4
-1.376, 6.260e-4
-1.375, 6.044e-4
-1.374, 5.829e-4
-1.373, 5.613e-4
-1.372, 5.397e-4
-1.371, 5.212e-4
-1.370, 4.996e-4
-1.369, 4.811e-4
-1.368, 4.626e-4
-1.367, 4.441e-4
-1.366, 4.287e-4
-1.365, 4.133e-4
-1.364, 3.948e-4
-1.363, 3.794e-4
-1.362, 3.609e-4
-1.361, 3.424e-4
-1.360, 3.270e-4
-1.359, 3.085e-4
-1.358, 2.900e-4
-1.357, 2.746e-4
-1.356, 2.591e-4
-1.355, 2.468e-4
-1.354, 2.345e-4
-1.353, 2.221e-4
-1.352, 2.067e-4
-1.351, 1.913e-4
-1.350, 1.759e-4
-1.349, 1.605e-4
-1.348, 1.451e-4
-1.347, 1.327e-4
-1.346, 1.173e-4
-1.345, 1.050e-4
-1.344, 9.265e-5
-1.343, 8.032e-5
-1.342, 7.107e-5
-1.341, 6.182e-5
-1.340, 4.949e-5
-1.339, 3.715e-5
-1.338, 2.482e-5
-1.337, 1.249e-5
-1.336, 1.559e-7
-1.335, -1.218e-5
-1.334, -2.451e-5
-1.333, -3.376e-5
-1.332, -4.301e-5
-1.331, -4.917e-5
-1.330, -5.842e-5
-1.329, -6.767e-5
-1.328, -7.692e-5
-1.327, -8.617e-5
-1.326, -9.850e-5
-1.325, -1.078e-4
-1.324, -1.201e-4
-1.323, -1.263e-4
-1.322, -1.355e-4
-1.321, -1.417e-4
-1.320, -1.478e-4
-1.319, -1.540e-4
-1.318, -1.602e-4
-1.317, -1.663e-4
-1.316, -1.756e-4
-1.315, -1.848e-4
-1.314, -1.910e-4
-1.313, -2.002e-4
-1.312, -2.095e-4
-1.311, -2.187e-4
-1.310, -2.218e-4
-1.309, -2.280e-4
-1.308, -2.342e-4
-1.307, -2.372e-4
-1.306, -2.434e-4
-1.305, -2.496e-4
-1.304, -2.527e-4
-1.303, -2.619e-4
-1.302, -2.650e-4
-1.301, -2.742e-4
-1.300, -2.804e-4
-1.299, -2.835e-4
-1.298, -2.897e-4
-1.297, -2.927e-4
-1.296, -2.958e-4
-1.295, -2.989e-4
-1.294, -3.051e-4
-1.293, -3.051e-4
-1.292, -3.143e-4
-1.291, -3.205e-4
-1.290, -3.267e-4
-1.289, -3.297e-4
-1.288, -3.328e-4
-1.287, -3.390e-4
-1.286, -3.421e-4
-1.285, -3.421e-4
-1.284, -3.452e-4
-1.283, -3.452e-4
-1.282, -3.482e-4
-1.281, -3.544e-4
-1.280, -3.575e-4
-1.279, -3.637e-4
-1.278, -3.667e-4
-1.277, -3.698e-4
-1.276, -3.760e-4
-1.275, -3.760e-4
-1.274, -3.791e-4
-1.273, -3.791e-4
-1.272, -3.791e-4
-1.271, -3.821e-4
-1.270, -3.821e-4
-1.269, -3.852e-4
-1.268, -3.883e-4
-1.267, -3.945e-4
-1.266, -3.976e-4
-1.265, -4.006e-4
-1.264, -4.006e-4
-1.263, -4.037e-4
-1.262, -4.037e-4
-1.261, -4.006e-4
-1.260, -4.037e-4
-1.259, -4.037e-4
-1.258, -4.068e-4
-1.257, -4.068e-4
-1.256, -4.099e-4
-1.255, -4.130e-4
-1.254, -4.161e-4
-1.253, -4.191e-4
-1.252, -4.222e-4
-1.251, -4.222e-4
-1.250, -4.222e-4
-1.249, -4.222e-4
-1.248, -4.191e-4
-1.247, -4.222e-4
-1.246, -4.222e-4
-1.245, -4.253e-4
-1.244, -4.284e-4
-1.243, -4.315e-4
-1.242, -4.346e-4
-1.241, -4.346e-4
-1.240, -4.346e-4
-1.239, -4.346e-4
-1.238, -4.346e-4
-1.237, -4.315e-4
-1.236, -4.346e-4
-1.235, -4.346e-4
-1.234, -4.346e-4
-1.233, -4.376e-4
-1.232, -4.376e-4
-1.231, -4.407e-4
-1.230, -4.438e-4
-1.229, -4.469e-4
-1.228, -4.469e-4
-1.227, -4.469e-4
-1.226, -4.438e-4
-1.225, -4.438e-4
-1.224, -4.438e-4
-1.223, -4.407e-4
-1.222, -4.438e-4
-1.221, -4.438e-4
-1.220, -4.469e-4
-1.219, -4.500e-4
-1.218, -4.500e-4
-1.217, -4.500e-4
-1.216, -4.500e-4
-1.215, -4.500e-4
-1.214, -4.469e-4
-1.213, -4.438e-4
-1.212, -4.469e-4
-1.211, -4.438e-4
-1.210, -4.469e-4
-1.209, -4.500e-4
-1.208, -4.500e-4
-1.207, -4.561e-4
-1.206, -4.531e-4
-1.205, -4.531e-4
-1.204, -4.531e-4
-1.203, -4.500e-4
-1.202, -4.500e-4
-1.201, -4.500e-4
-1.200, -4.469e-4
-1.199, -4.500e-4
-1.198, -4.531e-4
-1.197, -4.531e-4
-1.196, -4.561e-4
-1.195, -4.561e-4
-1.194, -4.561e-4
-1.193, -4.561e-4
-1.192, -4.561e-4
-1.191, -4.561e-4
-1.190, -4.531e-4
-1.189, -4.531e-4
-1.188, -4.531e-4
-1.187, -4.531e-4
-1.186, -4.561e-4
-1.185, -4.561e-4
-1.184, -4.561e-4
-1.183, -4.561e-4
-1.182, -4.561e-4
-1.181, -4.531e-4
-1.180, -4.531e-4
-1.179, -4.531e-4
-1.178, -4.500e-4
-1.177, -4.531e-4
-1.176, -4.500e-4
-1.175, -4.531e-4
-1.174, -4.531e-4
-1.173, -4.561e-4
-1.172, -4.592e-4
-1.171, -4.592e-4
-1.170, -4.592e-4
-1.169, -4.592e-4
-1.168, -4.561e-4
-1.167, -4.561e-4
-1.166, -4.561e-4
-1.165, -4.531e-4
-1.164, -4.561e-4
-1.163, -4.592e-4
-1.162, -4.623e-4
-1.161, -4.623e-4
-1.160, -4.592e-4
-1.159, -4.592e-4
-1.158, -4.592e-4
-1.157, -4.561e-4
-1.156, -4.531e-4
-1.155, -4.500e-4
-1.154, -4.500e-4
-1.153, -4.500e-4
-1.152, -4.500e-4
-1.151, -4.531e-4
-1.150, -4.531e-4
-1.149, -4.561e-4
-1.148, -4.561e-4
-1.147, -4.561e-4
-1.146, -4.561e-4
-1.145, -4.592e-4
-1.144, -4.592e-4
-1.143, -4.561e-4
-1.142, -4.561e-4
-1.141, -4.592e-4
-1.140, -4.623e-4
-1.139, -4.623e-4
-1.138, -4.623e-4
-1.137, -4.654e-4
-1.136, -4.654e-4
-1.135, -4.623e-4
-1.134, -4.623e-4
-1.133, -4.592e-4
-1.132, -4.561e-4
-1.131, -4.561e-4
-1.130, -4.531e-4
-1.129, -4.561e-4
-1.128, -4.561e-4
-1.127, -4.592e-4
-1.126, -4.592e-4
-1.125, -4.592e-4
-1.124, -4.623e-4
-1.123, -4.623e-4
-1.122, -4.623e-4
-1.121, -4.623e-4
-1.120, -4.592e-4
-1.119, -4.592e-4
-1.118, -4.592e-4
-1.117, -4.623e-4
-1.116, -4.623e-4
-1.115, -4.654e-4
-1.114, -4.654e-4
-1.113, -4.654e-4
-1.112, -4.654e-4
-1.111, -4.623e-4
-1.110, -4.623e-4
-1.109, -4.592e-4
-1.108, -4.592e-4
-1.107, -4.592e-4
-1.106, -4.592e-4
-1.105, -4.623e-4
-1.104, -4.623e-4
-1.103, -4.623e-4
-1.102, -4.654e-4
-1.101, -4.685e-4
-1.100, -4.685e-4
-1.099, -4.654e-4
-1.098, -4.654e-4
-1.097, -4.623e-4
-1.096, -4.623e-4
-1.095, -4.623e-4
-1.094, -4.623e-4
-1.093, -4.654e-4
-1.092, -4.685e-4
-1.091, -4.716e-4
-1.090, -4.716e-4
-1.089, -4.716e-4
-1.088, -4.716e-4
-1.087, -4.716e-4
-1.086, -4.716e-4
-1.085, -4.654e-4
-1.084, -4.685e-4
-1.083, -4.654e-4
-1.082, -4.685e-4
-1.081, -4.685e-4
-1.080, -4.685e-4
-1.079, -4.716e-4
-1.078, -4.746e-4
-1.077, -4.746e-4
-1.076, -4.716e-4
-1.075, -4.746e-4
-1.074, -4.716e-4
-1.073, -4.716e-4
-1.072, -4.716e-4
-1.071, -4.716e-4
-1.070, -4.716e-4
-1.069, -4.746e-4
-1.068, -4.777e-4
-1.067, -4.777e-4
-1.066, -4.777e-4
-1.065, -4.777e-4
-1.064, -4.777e-4
-1.063, -4.777e-4
-1.062, -4.746e-4
-1.061, -4.746e-4
-1.060, -4.746e-4
-1.059, -4.746e-4
-1.058, -4.777e-4
-1.057, -4.777e-4
-1.056, -4.808e-4
-1.055, -4.808e-4
-1.054, -4.839e-4
-1.053, -4.839e-4
-1.052, -4.839e-4
-1.051, -4.808e-4
-1.050, -4.808e-4
-1.049, -4.808e-4
-1.048, -4.808e-4
-1.047, -4.808e-4
-1.046, -4.839e-4
-1.045, -4.870e-4
-1.044, -4.901e-4
-1.043, -4.931e-4
-1.042, -4.931e-4
-1.041, -4.962e-4
-1.040, -4.931e-4
-1.039, -4.931e-4
-1.038, -4.931e-4
-1.037, -4.931e-4
-1.036, -4.931e-4
-1.035, -4.931e-4
-1.034, -4.962e-4
-1.033, -4.993e-4
-1.032, -4.993e-4
-1.031, -5.024e-4
-1.030, -5.024e-4
-1.029, -5.024e-4
-1.028, -5.024e-4
-1.027, -5.024e-4
-1.026, -5.024e-4
-1.025, -5.024e-4
-1.024, -5.055e-4
-1.023, -5.086e-4
-1.022, -5.086e-4
-1.021, -5.116e-4
-1.020, -5.147e-4
-1.019, -5.147e-4
-1.018, -5.147e-4
-1.017, -5.147e-4
-1.016, -5.147e-4
-1.015, -5.147e-4
-1.014, -5.178e-4
-1.013, -5.178e-4
-1.012, -5.209e-4
-1.011, -5.209e-4
-1.010, -5.240e-4
-1.009, -5.301e-4
-1.008, -5.301e-4
-1.007, -5.332e-4
-1.006, -5.332e-4
-1.005, -5.332e-4
-1.004, -5.363e-4
-1.003, -5.363e-4
-1.002, -5.394e-4
-1.001, -5.425e-4
