Potential V vs RHE, Current mA cm-2
0.05339999999999995,0.6052134940822627
0.05239999999999995,0.5493323977375938
0.051399999999999946,0.5051934051818046
0.050399999999999945,0.47435269884474673
0.049399999999999944,0.44818053979724365
0.04839999999999994,0.423847505439565
0.04739999999999994,0.4013535957717109
0.04639999999999994,0.3802743974037219
0.04539999999999994,0.3597610835556788
0.04439999999999994,0.34009659648755486
0.04339999999999994,0.32099799393937684
0.04239999999999994,0.30260674704113133
0.04139999999999994,0.2849228557928184
0.040399999999999936,0.267946320194438
0.039399999999999935,0.250828313466071
0.038399999999999934,0.23399324899767707
0.03739999999999993,0.21828995356917516
0.03639999999999993,0.20286960040064628
0.03539999999999993,0.18773218949209036
0.03439999999999993,0.172736249713521
0.03339999999999993,0.1583061944548976
0.03239999999999993,0.14401761032626076
0.03139999999999993,0.13023832226557527
0.030399999999999927,0.11708150717683044
0.029399999999999926,0.10342954313313284
0.028399999999999925,0.09017369825339744
0.027399999999999924,0.07759691479759726
0.026399999999999924,0.06487866021181057
0.025399999999999923,0.05292434972795102
0.024399999999999922,0.04075783254911171
0.02339999999999992,0.028662050935265648
0.02239999999999992,0.017471684553333203
0.02139999999999992,0.006047890806923031
0.020399999999999918,-0.005166525667107114
0.019399999999999917,-0.016354062626439823
0.018399999999999916,-0.02741710499138441
0.017399999999999916,-0.03802743974037219
0.016399999999999915,-0.048368979342385605
0.015399999999999914,-0.058724666057397665
0.014399999999999913,-0.0689813229814192
0.013399999999999912,-0.07923797990544071
0.012399999999999911,-0.08931072436047977
0.01139999999999991,-0.09854878914859845
0.01039999999999991,-0.10838103268266046
0.009399999999999908,-0.11790203973075215
0.008399999999999908,-0.12739475255284655
0.007399999999999907,-0.1369864951659315
0.006399999999999906,-0.1458567350160853
0.005399999999999905,-0.155052358465208
0.004399999999999904,-0.16396503965435774
0.003399999999999903,-0.17259477858353447
0.002399999999999902,-0.18164893090267073
0.0013999999999999013,-0.1899957275718744
0.00039999999999990044,-0.19862546650105112
-0.0006000000000001005,-0.2073966765602144
-0.0016000000000001013,-0.2157434732294181
-0.0026000000000001022,-0.2242317410286083
-0.003600000000000103,-0.23243706656782553
-0.004600000000000104,-0.24050092097705625
-0.005600000000000105,-0.24898918877624646
-0.006600000000000106,-0.25691157205549064
-0.007600000000000107,-0.2651168975947079
-0.008600000000000108,-0.2731807520039386
-0.009600000000000108,-0.2808201930232098
-0.01060000000000011,-0.289025518562427
-0.01160000000000011,-0.2969479018416712
-0.012600000000000111,-0.30529469851087493
-0.013600000000000112,-0.3130756106601326
-0.014600000000000113,-0.32029063828944426
-0.015600000000000114,-0.32821302156868853
-0.016600000000000115,-0.3359939337179463
-0.017600000000000116,-0.3433504324772444
-0.018600000000000116,-0.3511313446265021
-0.019600000000000117,-0.3587707856457733
-0.020600000000000118,-0.366268755535058
-0.02160000000000012,-0.3740496676843157
-0.02260000000000012,-0.38168910870358685
-0.02360000000000012,-0.38890413633289855
-0.024600000000000122,-0.39640210622218325
-0.025600000000000123,-0.40390007611146794
-0.026600000000000124,-0.4115395171307392
-0.027600000000000124,-0.4191789581500104
-0.028600000000000125,-0.4265354569093086
-0.029600000000000126,-0.43403342679859325
-0.030600000000000127,-0.4413899255578914
-0.03160000000000013,-0.4490293665771626
-0.03260000000000013,-0.45666880759643386
-0.03360000000000013,-0.4641667774857185
-0.03460000000000002,-0.47166474737500325
-0.03560000000000002,-0.47916271726428794
-0.03660000000000002,-0.4868021582835591
-0.03760000000000002,-0.49458307043281674
-0.03860000000000002,-0.5017980980621284
-0.039600000000000024,-0.5092960679514131
-0.040600000000000025,-0.5170769801006708
-0.041600000000000026,-0.5245749499899556
-0.04260000000000003,-0.5323558621392133
-0.04360000000000003,-0.539853832028498
-0.04460000000000003,-0.5474932730477692
-0.04560000000000003,-0.5554156563270134
-0.04660000000000003,-0.5631965684762711
-0.04760000000000003,-0.5709774806255288
-0.04860000000000003,-0.5787583927747865
-0.04960000000000003,-0.5863978337940576
-0.050600000000000034,-0.5944616882032884
-0.051600000000000035,-0.6023840714825326
-0.052600000000000036,-0.6100235125018038
-0.053600000000000037,-0.6178044246510616
-0.05460000000000004,-0.6254438656703327
-0.05560000000000004,-0.63364919120955
-0.05660000000000004,-0.6418545167487671
-0.05760000000000004,-0.6497769000280114
-0.05860000000000004,-0.657840754437242
-0.05960000000000004,-0.6657631377164863
-0.06060000000000004,-0.67410993438569
-0.061600000000000044,-0.6825982021848802
-0.06260000000000004,-0.6908035277240974
-0.06360000000000005,-0.6990088532633147
-0.06460000000000005,-0.7072141788025319
-0.06560000000000005,-0.7152780332117625
-0.06660000000000005,-0.7240492432709258
-0.06760000000000005,-0.732254568810143
-0.06860000000000005,-0.7406013654793466
-0.06960000000000005,-0.74937257553851
-0.07060000000000005,-0.7580023144676866
-0.07160000000000005,-0.7666320533968634
-0.07260000000000005,-0.77526179232604
-0.07360000000000005,-0.7837500601252303
-0.07460000000000006,-0.79266274131438
-0.07560000000000006,-0.8014339513735432
-0.07660000000000006,-0.810346632562693
-0.07760000000000006,-0.8194007848818293
-0.07860000000000006,-0.828030523811006
-0.07960000000000006,-0.8369432050001557
-0.08060000000000006,-0.8458558861893055
-0.08160000000000006,-0.8550515096384281
-0.08260000000000006,-0.864247133087551
-0.08360000000000006,-0.8731598142767006
-0.08460000000000006,-0.8824969088558098
-0.08560000000000006,-0.8921169456948921
-0.08660000000000007,-0.9013125691440148
-0.08760000000000007,-0.9109326059830971
-0.08860000000000007,-0.9201282294322198
-0.08960000000000007,-0.9294653240113291
-0.09060000000000007,-0.9393683031103843
-0.09160000000000007,-0.9488468688194802
-0.09260000000000007,-0.9584669056585623
-0.09360000000000007,-0.9680869424976446
-0.09460000000000007,-0.9775655082067403
-0.09560000000000007,-0.9874684873057956
-0.09660000000000007,-0.9977958797948104
-0.09760000000000008,-1.0074159166338927
-0.09860000000000008,-1.0174603668629343
-0.09960000000000008,-1.0273633459619895
-0.10060000000000008,-1.0376907384510043
-0.10160000000000008,-1.0480181309400192
-0.10260000000000008,-1.0580625811690607
-0.10360000000000008,-1.0679655602681162
-0.10460000000000008,-1.078292952757131
-0.10560000000000008,-1.0884788741161593
-0.10660000000000008,-1.099089208865147
-0.10760000000000008,-1.1094166013541618
-0.10860000000000009,-1.1198854649731629
-0.10960000000000009,-1.1304957997221508
-0.11060000000000009,-1.1411061344711386
-0.11160000000000009,-1.15157499809014
-0.11260000000000009,-1.1624682750991004
-0.11360000000000009,-1.1729371387181018
-0.11460000000000009,-1.1839718868570492
-0.11560000000000009,-1.1955725195159426
-0.11660000000000009,-1.206324325394917
-0.1176000000000001,-1.2170761312738911
-0.1186000000000001,-1.2276864660228788
-0.1196000000000001,-1.2384382719018532
-0.1206000000000001,-1.2497559623007732
-0.1216000000000001,-1.2607907104397207
-0.1226000000000001,-1.2719669297086544
-0.1236000000000001,-1.2830016778476019
-0.1246000000000001,-1.2938949548565624
-0.1256000000000001,-1.305495587515456
-0.1266000000000001,-1.3166718067843897
-0.1276000000000001,-1.32798949718331
-0.1286000000000001,-1.3393071875822302
-0.1296000000000001,-1.3506248779811505
-0.1306000000000001,-1.3625084529000169
-0.1316000000000001,-1.3735432010389639
-0.1326000000000001,-1.385002362567871
-0.1336000000000001,-1.3967444663567505
-0.1346000000000001,-1.408062156755671
-0.1356000000000001,-1.420370145064497
-0.1366000000000001,-1.431687835463417
-0.1376000000000001,-1.4430055258623373
-0.1386000000000001,-1.4543232162612578
-0.1396000000000001,-1.4670556179600431
-0.1406000000000001,-1.4783733083589634
-0.14160000000000011,-1.4911057100577487
-0.14260000000000012,-1.502423400456669
-0.14360000000000012,-1.5137410908555893
-0.14460000000000012,-1.5250587812545096
-0.14560000000000012,-1.5377911829532949
-0.14660000000000012,-1.55052358465208
-0.14760000000000012,-1.5618412750510005
-0.14860000000000012,-1.5731589654499207
-0.14960000000000012,-1.585891367148706
-0.15060000000000012,-1.5986237688474914
-0.15160000000000012,-1.6099414592464116
-0.15260000000000012,-1.6226738609451972
-0.15360000000000013,-1.6339915513441174
-0.15460000000000013,-1.6467239530429028
-0.15560000000000013,-1.6594563547416883
-0.15660000000000013,-1.6707740451406083
-0.15760000000000013,-1.6835064468393939
-0.15860000000000013,-1.696238848538179
-0.15960000000000002,-1.7075565389370995
-0.16060000000000002,-1.7202889406358846
-0.16160000000000002,-1.7330213423346699
-0.16260000000000002,-1.7457537440334552
-0.16360000000000002,-1.7584861457322407
-0.16460000000000002,-1.769803836131161
-0.16560000000000002,-1.7839509491298113
-0.16660000000000003,-1.7980980621284617
-0.16760000000000003,-1.8108304638272468
-0.16860000000000003,-1.823562865526032
-0.16960000000000003,-1.8348805559249526
-0.17060000000000003,-1.847612957623738
-0.17160000000000003,-1.8603453593225232
-0.17260000000000003,-1.8730777610213083
-0.17360000000000003,-1.8858101627200938
-0.17460000000000003,-1.8985425644188794
-0.17560000000000003,-1.9112749661176645
-0.17660000000000003,-1.92400736781645
-0.17760000000000004,-1.9367397695152353
-0.17860000000000004,-1.9494721712140204
-0.17960000000000004,-1.9622045729128061
-0.18060000000000004,-1.9763516859114565
-0.18160000000000004,-1.9890840876102414
-0.18260000000000004,-2.001816489309027
-0.18360000000000004,-2.014548891007812
-0.18460000000000004,-2.0286960040064623
-0.18560000000000004,-2.0414284057052483
-0.18660000000000004,-2.054160807404033
-0.18760000000000004,-2.0683079204026833
-0.18860000000000005,-2.081040322101469
-0.18960000000000005,-2.095187435100119
-0.19060000000000005,-2.1079198367989047
-0.19160000000000005,-2.122066949797555
-0.19260000000000005,-2.136214062796206
-0.19360000000000005,-2.148946464494991
-0.19460000000000005,-2.1630935774936413
-0.19560000000000005,-2.1758259791924264
-0.19660000000000005,-2.1899730921910767
-0.19760000000000005,-2.204120205189727
-0.19860000000000005,-2.216852606888512
-0.19960000000000006,-2.230999719887163
-0.20060000000000006,-2.2451468328858133
-0.20160000000000006,-2.2592939458844636
-0.20260000000000006,-2.273441058883114
-0.20360000000000006,-2.2875881718817643
-0.20460000000000006,-2.3003205735805494
-0.20560000000000006,-2.3158823978790646
-0.20660000000000006,-2.32861479957785
-0.20760000000000006,-2.3441766238763657
-0.20860000000000006,-2.3569090255751513
-0.20960000000000006,-2.3710561385738016
-0.21060000000000006,-2.386617962872317
-0.21160000000000007,-2.4007650758709675
-0.21260000000000007,-2.414912188869618
-0.21360000000000007,-2.430474013168133
-0.21460000000000007,-2.4446211261667834
-0.21560000000000007,-2.4587682391654337
-0.21660000000000007,-2.4743300634639493
-0.21760000000000007,-2.4898918877624645
-0.21860000000000007,-2.504039000761115
-0.21960000000000007,-2.5196008250596305
-0.22060000000000007,-2.533747938058281
-0.22160000000000007,-2.549309762356796
-0.22260000000000008,-2.5634568753554463
-0.22360000000000008,-2.579018699653962
-0.22460000000000008,-2.5945805239524775
-0.22560000000000008,-2.6087276369511274
-0.22660000000000008,-2.624289461249643
-0.22760000000000008,-2.639851285548158
-0.22860000000000008,-2.6539983985468085
-0.22960000000000008,-2.669560222845324
-0.23060000000000008,-2.6851220471438397
-0.23160000000000008,-2.700683871442355
-0.23260000000000008,-2.7162456957408705
-0.23360000000000009,-2.7318075200393857
-0.2346000000000001,-2.7473693443379013
-0.2356000000000001,-2.7629311686364164
-0.2366000000000001,-2.778492992934932
-0.2376000000000001,-2.794054817233447
-0.2386000000000001,-2.8096166415319628
-0.2396000000000001,-2.8251784658304784
-0.2406000000000001,-2.842155001428859
-0.2416000000000001,-2.8577168257273744
-0.2426000000000001,-2.8732786500258896
-0.2436000000000001,-2.888840474324405
-0.2446000000000001,-2.9044022986229203
-0.2456000000000001,-2.9213788342213007
-0.2466000000000001,-2.9369406585198163
-0.2476000000000001,-2.9525024828183315
-0.2486000000000001,-2.9694790184167124
-0.2496000000000001,-2.9850408427152275
-0.2506000000000001,-3.000602667013743
-0.2516000000000001,-3.0175792026121235
-0.2526000000000001,-3.0331410269106387
-0.2536000000000001,-3.050117562509019
-0.2546000000000001,-3.0656793868075347
-0.2556000000000001,-3.082655922405915
-0.2566000000000001,-3.0982177467044303
-0.2576000000000001,-3.1151942823028107
-0.2586000000000001,-3.1307561066013263
-0.2596000000000001,-3.1463179308998415
-0.2606000000000001,-3.1632944664982214
-0.2616000000000001,-3.1802710020966023
-0.2626000000000001,-3.195832826395118
-0.2636000000000001,-3.211394650693633
-0.2646000000000001,-3.228371186292014
-0.2656000000000001,-3.243933010590529
-0.2666000000000001,-3.2609095461889095
-0.2676000000000001,-3.276471370487425
-0.2686000000000001,-3.2934479060858055
-0.2696000000000001,-3.3090097303843207
-0.2706000000000001,-3.3245715546828363
-0.2716000000000001,-3.3415480902812167
-0.2726000000000001,-3.357109914579732
-0.2736000000000001,-3.3726717388782474
-0.2746000000000001,-3.389648274476628
-0.2756000000000001,-3.405210098775143
-0.2766000000000001,-3.4207719230736586
-0.2776000000000001,-3.437748458672039
-0.2786000000000001,-3.453310282970554
-0.2796000000000001,-3.46887210726907
-0.2806000000000001,-3.4844339315675854
-0.28160000000000013,-3.4999957558661006
-0.28260000000000013,-3.515557580164616
-0.28360000000000013,-3.5311194044631313
-0.2846,-3.546681228761647
-0.2856,-3.562243053060162
-0.2866,-3.5778048773586777
-0.2876,-3.591951990357328
-0.2886,-3.6075138146558436
-0.2896,-3.6216609276544935
-0.2906,-3.6372227519530096
-0.2916,-3.6527845762515243
-0.2926,-3.666931689250175
-0.2936,-3.681078802248825
-0.29460000000000003,-3.695225915247476
-0.29560000000000003,-3.710787739545991
-0.29660000000000003,-3.7249348525446417
-0.29760000000000003,-3.7390819655432916
-0.29860000000000003,-3.751814367242077
-0.29960000000000003,-3.765961480240728
-0.30060000000000003,-3.780108593239378
-0.30160000000000003,-3.7928409949381634
-0.30260000000000004,-3.8069881079368133
-0.30360000000000004,-3.819720509635599
-0.30460000000000004,-3.832452911334385
-0.30560000000000004,-3.84518531303317
-0.30660000000000004,-3.8579177147319554
-0.30760000000000004,-3.87065011643074
-0.30860000000000004,-3.881967806829661
-0.30960000000000004,-3.8947002085284463
-0.31060000000000004,-3.906017898927366
-0.31160000000000004,-3.918750300626152
-0.31260000000000004,-3.9300679910250715
-0.31360000000000005,-3.939970970124127
-0.31460000000000005,-3.9512886605230477
-0.31560000000000005,-3.962606350921967
-0.31660000000000005,-3.9725093300210226
-0.31760000000000005,-3.9838270204199433
-0.31860000000000005,-3.9937299995189983
-0.31960000000000005,-4.003632978618054
-0.32060000000000005,-4.014950669016974
-0.32160000000000005,-4.023438936816164
-0.32260000000000005,-4.033341915915219
-0.32360000000000005,-4.04183018371441
-0.32460000000000006,-4.050318451513601
-0.32560000000000006,-4.060221430612655
-0.32660000000000006,-4.068709698411845
-0.32760000000000006,-4.075783254911171
-0.32860000000000006,-4.084271522710361
-0.32960000000000006,-4.091345079209686
-0.33060000000000006,-4.099833347008876
-0.33160000000000006,-4.106906903508202
-0.33260000000000006,-4.113980460007527
-0.33360000000000006,-4.121054016506851
-0.33460000000000006,-4.128127573006177
-0.33560000000000006,-4.135201129505503
-0.33660000000000007,-4.142274686004828
-0.33760000000000007,-4.147933531204288
-0.33860000000000007,-4.153592376403748
-0.33960000000000007,-4.160665932903073
-0.34060000000000007,-4.166324778102533
-0.34160000000000007,-4.171983623301993
-0.34260000000000007,-4.1762277572015885
-0.34360000000000007,-4.1833013137009125
-0.3446000000000001,-4.1889601589003735
-0.3456000000000001,-4.193204292799969
-0.3466000000000001,-4.198863137999429
-0.34759999999999996,-4.203107271899024
-0.3486000000000001,-4.2087661170984845
-0.34959999999999997,-4.213010250998079
-0.3506000000000001,-4.217254384897673
-0.35159999999999997,-4.222913230097134
-0.3526000000000001,-4.22715736399673
-0.35359999999999997,-4.231401497896325
-0.3546000000000001,-4.237060343095785
-0.35559999999999997,-4.2413044769953805
-0.3566000000000001,-4.245548610894974
-0.3576,-4.24979274479457
-0.3586000000000001,-4.254036878694166
-0.3596,-4.259695723893626
-0.3606000000000001,-4.26393985779322
-0.3616,-4.269598702992681
-0.3626000000000001,-4.273842836892276
-0.3636,-4.278086970791871
-0.3646000000000001,-4.283745815991331
-0.3656,-4.289404661190791
-0.3666000000000001,-4.2936487950903865
-0.3676,-4.297892928989982
-0.3686000000000001,-4.303551774189442
-0.3696,-4.309210619388901
-0.3706000000000001,-4.314869464588361
-0.3716,-4.3205283097878215
-0.3726000000000001,-4.326187154987283
-0.3736,-4.331846000186743
-0.3746000000000001,-4.337504845386203
-0.3756,-4.343163690585662
-0.3766000000000001,-4.350237247084988
-0.3776,-4.355896092284448
-0.3786000000000001,-4.362969648783774
-0.3796,-4.368628493983234
-0.3806000000000001,-4.375702050482558
-0.3816,-4.384190318281749
-0.3826000000000001,-4.389849163481209
-0.3836,-4.398337431280399
-0.3846000000000001,-4.405410987779724
-0.3856,-4.413899255578914
-0.3866000000000001,-4.420972812078239
-0.3876,-4.42946107987743
-0.3886000000000001,-4.4379493476766205
-0.3896,-4.447852326775675
-0.3906000000000001,-4.456340594574866
-0.3916,-4.466243573673921
-0.3926000000000001,-4.476146552772976
-0.3936,-4.4846348205721664
-0.3946000000000001,-4.495952510971087
-0.3956,-4.505855490070142
-0.3966000000000001,-4.515758469169198
-0.3976,-4.527076159568118
-0.3986000000000001,-4.538393849967037
-0.3996,-4.5497115403659585
-0.4006000000000001,-4.562443942064744
-0.4016,-4.573761632463664
-0.4026000000000001,-4.586494034162449
-0.4036,-4.599226435861234
-0.4046000000000001,-4.61195883756002
-0.4056,-4.626105950558669
-0.40660000000000013,-4.640253063557321
-0.4076,-4.654400176555971
-0.40860000000000013,-4.668547289554621
-0.4096,-4.682694402553271
-0.41060000000000013,-4.698256226851787
-0.4116,-4.7138180511503025
-0.41260000000000013,-4.729379875448817
-0.4136,-4.7463564110471985
-0.41460000000000014,-4.761918235345714
-0.4156,-4.778894770944094
-0.41660000000000014,-4.797286017842339
-0.4176,-4.814262553440719
-0.41860000000000014,-4.832653800338965
-0.41960000000000003,-4.851045047237211
-0.42060000000000014,-4.869436294135457
-0.42160000000000003,-4.889242252333567
-0.42260000000000014,-4.910462921831542
-0.42360000000000003,-4.9302688800296535
-0.42460000000000014,-4.950074838227763
-0.42560000000000003,-4.971295507725738
-0.42660000000000015,-4.992516177223715
-0.42760000000000004,-5.01373684672169
-0.42860000000000015,-5.034957516219666
-0.42960000000000004,-5.057592897017507
-0.43060000000000015,-5.080228277815347
-0.43160000000000004,-5.104278369913052
-0.43260000000000015,-5.128328462010757
-0.43360000000000004,-5.150963842808599
-0.43460000000000015,-5.17642864620617
-0.43560000000000004,-5.201893449603739
-0.43660000000000015,-5.2259435417014455
-0.43760000000000004,-5.252823056398881
-0.43860000000000016,-5.278287859796452
-0.43960000000000005,-5.305167374493887
-0.44060000000000016,-5.332046889191323
-0.44160000000000005,-5.358926403888759
-0.44260000000000016,-5.38722062988606
-0.44360000000000005,-5.4169295671832245
-0.44460000000000016,-5.445223793180525
-0.44560000000000005,-5.474932730477692
-0.44660000000000016,-5.504641667774858
-0.44760000000000005,-5.535765316371888
-0.44860000000000017,-5.5668889649689195
-0.44960000000000006,-5.59801261356595
-0.45060000000000017,-5.629136262162981
-0.45160000000000006,-5.661674622059877
-0.45260000000000017,-5.694212981956773
