Potential V vs RHE, Current mA cm-2
0.013299999999999867,0.045666880759643376
0.012299999999999978,0.011752006767978862
0.011299999999999866,-0.012254229279430947
0.010299999999999976,-0.03584878433858003
0.009299999999999864,-0.05245749499899556
0.008299999999999974,-0.06195020782108995
0.007299999999999862,-0.07896918475846634
0.006299999999999972,-0.09027272804438799
0.00529999999999986,-0.10311830664716252
0.0042999999999999705,-0.11930260391761856
0.0032999999999998586,-0.12531512694204497
0.0022999999999999687,-0.13871244295176685
0.0012999999999998568,-0.1465640906660178
0.00029999999999996696,-0.1587306078448571
-0.000700000000000145,-0.16877505807389886
-0.0017000000000000348,-0.17217036519357498
-0.0027000000000001467,-0.18688336271217135
-0.0037000000000000366,-0.19254220791163149
-0.0047000000000001485,-0.20315254266061927
-0.005700000000000038,-0.20711373430024138
-0.00670000000000015,-0.21588494435940458
-0.00770000000000004,-0.22493909667854084
-0.008700000000000152,-0.2307394130079875
-0.009700000000000042,-0.2397935653271237
-0.010700000000000154,-0.24870624651627343
-0.011700000000000044,-0.24997948668615194
-0.012700000000000156,-0.2622874749949778
-0.013700000000000045,-0.2651168975947079
-0.014700000000000157,-0.27303928087395213
-0.015700000000000047,-0.2801128373732773
-0.01670000000000016,-0.28322520223298037
-0.01770000000000005,-0.29454289263190064
-0.01870000000000016,-0.29652348845171167
-0.01970000000000005,-0.2999187955713878
-0.020700000000000163,-0.3102461880604025
-0.021700000000000053,-0.30826559224059147
-0.022700000000000164,-0.3185929847296063
-0.023700000000000054,-0.3236859454091204
-0.024700000000000166,-0.33019361738849956
-0.025700000000000056,-0.3342962801581082
-0.026700000000000168,-0.3378330584077708
-0.027700000000000058,-0.3425016056973254
-0.02870000000000017,-0.346604268466934
-0.02970000000000006,-0.35509253626612425
-0.03070000000000017,-0.36075138146558433
-0.03170000000000006,-0.3570731320859353
-0.03270000000000017,-0.3692396492647746
-0.03370000000000006,-0.3712202450845856
-0.034700000000000175,-0.3747570233342482
-0.035700000000000065,-0.3818305798335734
-0.03670000000000018,-0.38522588695324944
-0.03770000000000007,-0.3893285497228581
-0.03870000000000018,-0.3930067991025072
-0.03970000000000007,-0.39710946187211577
-0.04070000000000018,-0.40333419159152195
-0.04170000000000007,-0.4010706535117379
-0.04270000000000018,-0.40899303679098215
-0.04370000000000007,-0.40899303679098215
-0.044700000000000184,-0.4133786418205638
-0.045700000000000074,-0.41422746860048276
-0.046700000000000186,-0.42115955396982147
-0.047700000000000076,-0.42271573639967297
-0.04870000000000019,-0.4245548610894975
-0.04970000000000008,-0.43304312888868773
-0.05070000000000019,-0.4338919556686068
-0.05170000000000008,-0.43459931131853924
-0.05270000000000019,-0.44322905024771597
-0.05370000000000008,-0.444926703807554
-0.05470000000000019,-0.44818053979724365
-0.05570000000000008,-0.45398085612669026
-0.056700000000000195,-0.4521417314368657
-0.057700000000000085,-0.45652733646644733
-0.058700000000000196,-0.4563858653364608
-0.059700000000000086,-0.46020558584609644
-0.0607000000000002,-0.4667132578254756
-0.06170000000000009,-0.46699620008544857
-0.0627000000000002,-0.4699670938151651
-0.06370000000000009,-0.47166474737500325
-0.0647000000000002,-0.47180621850498966
-0.06570000000000009,-0.47166474737500325
-0.0667000000000002,-0.47774800596442285
-0.0677000000000001,-0.4812847842140855
-0.0687000000000002,-0.4815677264740585
-0.0697000000000001,-0.48552891811368054
-0.07070000000000021,-0.48609480263362664
-0.0717000000000001,-0.48552891811368054
-0.07270000000000021,-0.4877924561934647
-0.0737000000000001,-0.4917536478330867
-0.07470000000000021,-0.4907633499231812
-0.0757000000000001,-0.4950074838227763
-0.07670000000000021,-0.49302688800296524
-0.0777000000000001,-0.4965636662526278
-0.07870000000000021,-0.49967603111233094
-0.0797000000000001,-0.5008078001522229
-0.08070000000000022,-0.5046275206618586
-0.0817000000000001,-0.5015151558021554
-0.08270000000000022,-0.5019395691921149
-0.08370000000000011,-0.5059007608317371
-0.08470000000000022,-0.5020810403221014
-0.08570000000000011,-0.505051934051818
-0.08670000000000022,-0.5092960679514131
-0.08770000000000011,-0.5118425482911703
-0.08870000000000022,-0.5111351926412377
-0.08970000000000011,-0.5160866821907654
-0.09070000000000022,-0.5156622688008059
-0.09170000000000011,-0.5129743173310622
-0.09270000000000023,-0.5177843357506035
-0.09370000000000012,-0.5165110955807248
-0.09470000000000023,-0.520189344960374
-0.09570000000000012,-0.5191990470504685
-0.09670000000000023,-0.5234431809500636
-0.09770000000000012,-0.5237261232100366
-0.09870000000000023,-0.5233017098200771
-0.09970000000000012,-0.5252823056398881
-0.10070000000000023,-0.5310826219693349
-0.10170000000000012,-0.5242920077299826
-0.10270000000000024,-0.5247164211199421
-0.10370000000000013,-0.5245749499899556
-0.10470000000000024,-0.5248578922499286
-0.10570000000000013,-0.5249993633799152
-0.10670000000000024,-0.5313655642293078
-0.10770000000000013,-0.5305167374493888
-0.10870000000000024,-0.5305167374493888
-0.10970000000000013,-0.5309411508393483
-0.11070000000000024,-0.5310826219693349
-0.11170000000000013,-0.5265555458097667
-0.11270000000000002,-0.5329217466591593
-0.11370000000000013,-0.533346160049119
-0.11470000000000002,-0.5324973332691998
-0.11570000000000014,-0.536458524908822
-0.11670000000000003,-0.5323558621392133
-0.11770000000000014,-0.533346160049119
-0.11870000000000003,-0.5330632177891458
-0.11970000000000014,-0.539853832028498
-0.12070000000000003,-0.540136774288471
-0.12170000000000014,-0.5322143910092269
-0.12270000000000003,-0.537873236208687
-0.12370000000000014,-0.5349023424789704
-0.12470000000000003,-0.5353267558689299
-0.12570000000000014,-0.5349023424789704
-0.12670000000000003,-0.5377317650787005
-0.12770000000000015,-0.5363170537788354
-0.12870000000000004,-0.5380147073386735
-0.12970000000000015,-0.5365999960388084
-0.13070000000000004,-0.535892640388876
-0.13170000000000015,-0.5354682269989164
-0.13270000000000004,-0.5457956194879312
-0.13370000000000015,-0.5428247257582146
-0.13470000000000004,-0.5440979659280931
-0.13570000000000015,-0.5409856010683901
-0.13670000000000004,-0.5394294186385385
-0.13770000000000016,-0.5399953031584845
-0.13870000000000005,-0.5361755826488489
-0.13970000000000016,-0.5411270721983766
-0.14070000000000005,-0.5446638504480392
-0.14170000000000016,-0.5346194002189975
-0.14270000000000005,-0.5428247257582146
-0.14370000000000016,-0.5409856010683901
-0.14470000000000005,-0.539853832028498
-0.14570000000000016,-0.5374488228187275
-0.14670000000000005,-0.5436735525381337
-0.14770000000000016,-0.539853832028498
-0.14870000000000005,-0.5354682269989164
-0.14970000000000017,-0.539570889768525
-0.15070000000000006,-0.539287947508552
-0.15170000000000017,-0.5357511692588894
-0.15270000000000006,-0.5424003123682551
-0.15370000000000017,-0.5394294186385385
-0.15470000000000006,-0.5380147073386735
-0.15570000000000017,-0.538722062988606
-0.15670000000000006,-0.535892640388876
-0.15770000000000017,-0.5407026588084171
-0.15870000000000006,-0.5408441299384036
-0.15970000000000018,-0.540136774288471
-0.16070000000000007,-0.5419758989782956
-0.16170000000000018,-0.5368829382987814
-0.16270000000000007,-0.540136774288471
-0.16370000000000018,-0.5411270721983766
-0.16470000000000007,-0.5426832546282281
-0.16570000000000018,-0.539005005248579
-0.16670000000000007,-0.539287947508552
-0.16770000000000018,-0.5426832546282281
-0.16870000000000007,-0.539853832028498
-0.16970000000000018,-0.5432491391481741
-0.17070000000000007,-0.5424003123682551
-0.17170000000000019,-0.5428247257582146
-0.17270000000000008,-0.5459370906179177
-0.1737000000000002,-0.5419758989782956
-0.17470000000000008,-0.5433906102781606
-0.1757000000000002,-0.5452297349679852
-0.17670000000000008,-0.5422588412382686
-0.1777000000000002,-0.5482006286977017
-0.17870000000000008,-0.5419758989782956
-0.1797000000000002,-0.5469273885278232
-0.18070000000000008,-0.5490494554776209
-0.1817000000000002,-0.5453712060979717
-0.18270000000000008,-0.5507471090374588
-0.1837000000000002,-0.5472103307877962
-0.1847000000000001,-0.5473518019177827
-0.1857000000000002,-0.5456541483579447
-0.1867000000000001,-0.5452297349679852
-0.1877000000000002,-0.5455126772279582
-0.1887000000000001,-0.5416929567183226
-0.1897000000000002,-0.5456541483579447
-0.1907000000000001,-0.5472103307877962
-0.1917000000000001,-0.5457956194879312
-0.19269999999999998,-0.5489079843476343
-0.1937000000000001,-0.5477762153077422
-0.19469999999999998,-0.5479176864377286
-0.1957000000000001,-0.5474932730477692
-0.19669999999999999,-0.5483420998276882
-0.1977000000000001,-0.5491909266076073
-0.1987,-0.5496153399975668
-0.1997000000000001,-0.5510300512974318
-0.2007,-0.5527277048572699
-0.2017000000000001,-0.5487665132176478
-0.2027,-0.5541424161571349
-0.2037000000000001,-0.553293589377216
-0.2047,-0.5542838872871214
-0.2057000000000001,-0.5537180027671754
-0.2067,-0.5549912429370539
-0.2077000000000001,-0.5554156563270134
-0.2087,-0.5500397533875263
-0.2097000000000001,-0.5576791944067975
-0.2107,-0.5576791944067975
-0.2117000000000001,-0.5518788780773508
-0.2127,-0.5602256747465546
-0.2137000000000001,-0.5556985985869863
-0.2147,-0.558669492316703
-0.2157000000000001,-0.561781857176406
-0.2167,-0.5641868663861767
-0.21770000000000012,-0.5603671458765411
-0.2187,-0.5614989149164331
-0.21970000000000012,-0.5650356931660957
-0.2207,-0.5667333467259337
-0.22170000000000012,-0.5600842036165681
-0.2227,-0.5665918755959471
-0.22370000000000012,-0.5653186354260686
-0.2247,-0.5671577601158931
-0.22570000000000012,-0.5667333467259337
-0.2267,-0.5689968848057178
-0.22770000000000012,-0.5711189517555153
-0.22870000000000001,-0.5691383559357043
-0.22970000000000013,-0.5742313166152184
-0.23070000000000002,-0.5743727877452048
-0.23170000000000013,-0.5718263074054479
-0.23270000000000002,-0.5798901618146786
-0.23370000000000013,-0.578051037124854
-0.23470000000000002,-0.5773436814749214
-0.23570000000000013,-0.5779095659948674
-0.23670000000000002,-0.5808804597245841
-0.2376999999999999,-0.5852660647541656
-0.23870000000000002,-0.5832854689343547
-0.2396999999999999,-0.5854075358841522
-0.24070000000000003,-0.5889443141338148
-0.24169999999999991,-0.5868222471840172
-0.24270000000000003,-0.5890857852638013
-0.24369999999999992,-0.5910663810836124
-0.24470000000000003,-0.5912078522135988
-0.24569999999999992,-0.5896516697837473
-0.24670000000000003,-0.5964422840230995
-0.24769999999999992,-0.595169043853221
-0.24870000000000003,-0.5975740530629915
-0.24969999999999992,-0.6035158405224247
-0.25070000000000003,-0.6022426003525461
-0.2516999999999999,-0.600262004532735
-0.25270000000000004,-0.5999790622727621
-0.2536999999999999,-0.6037987827823976
-0.25470000000000004,-0.6054964363422356
-0.2556999999999999,-0.6120041083216149
-0.25670000000000004,-0.61624824222121
-0.25769999999999993,-0.6197850204708726
-0.25870000000000004,-0.614267646401399
-0.25969999999999993,-0.6175214823910884
-0.26070000000000004,-0.6219070874206701
-0.26169999999999993,-0.619926491600859
-0.26270000000000004,-0.6223315008106296
-0.26369999999999993,-0.6245950388904137
-0.26470000000000005,-0.6261512213202652
-0.26569999999999994,-0.6272829903601572
-0.26670000000000005,-0.6363371426792934
-0.26769999999999994,-0.6363371426792934
-0.26870000000000005,-0.6377518539791586
-0.26969999999999994,-0.6408642188388616
-0.27070000000000005,-0.6451083527384567
-0.27169999999999994,-0.6418545167487671
-0.27270000000000005,-0.6466645351683082
-0.27369999999999994,-0.6493524866380518
-0.27470000000000006,-0.6530307360177009
-0.27569999999999995,-0.6569919276573231
-0.27670000000000006,-0.658689581217161
-0.27769999999999995,-0.6627922439867696
-0.27870000000000006,-0.6593969368670936
-0.27969999999999995,-0.6646313686765942
-0.28070000000000006,-0.6695828582261218
-0.28169999999999995,-0.6651972531965403
-0.28270000000000006,-0.6697243293561084
-0.28369999999999995,-0.6708560983960004
-0.28470000000000006,-0.6739684632557035
-0.28569999999999995,-0.6736855209957305
-0.28670000000000007,-0.6831640867048262
-0.28769999999999996,-0.6825982021848802
-0.28870000000000007,-0.6876911628643944
-0.28969999999999996,-0.6908035277240974
-0.29070000000000007,-0.6956135461436386
-0.29169999999999996,-0.6941988348437735
-0.29270000000000007,-0.7018382758630447
-0.29369999999999996,-0.7029700449029368
-0.2947000000000001,-0.7090533034923564
-0.29569999999999996,-0.713721850781911
-0.2967000000000001,-0.7141462641718705
-0.29769999999999996,-0.7164098022516546
-0.2987000000000001,-0.7182489269414791
-0.29969999999999997,-0.7243321855308987
-0.3007000000000001,-0.736498702709738
-0.30169999999999997,-0.733386337850035
-0.3027000000000001,-0.7421575479091983
-0.30369999999999997,-0.7411672499992927
-0.3047000000000001,-0.7509287579683614
-0.30569999999999997,-0.7475334508486854
-0.3067000000000001,-0.7543240650880375
-0.3077,-0.7575779010777272
-0.3087000000000001,-0.7611146793273897
-0.3097,-0.7677638224367553
-0.3107000000000001,-0.7745544366761076
-0.3117,-0.771017658426445
-0.3127000000000001,-0.7803547530055542
-0.3137,-0.7817694643054193
-0.3147000000000001,-0.7836085889952439
-0.3157,-0.7898333187146499
-0.3167000000000001,-0.7966239329540021
-0.3177,-0.8024242492834487
-0.3187000000000001,-0.8027071915434218
-0.3197,-0.8116198727325715
-0.3207000000000001,-0.8160054777621532
-0.3217,-0.8130345840324366
-0.3227000000000001,-0.8219472652215865
-0.3237,-0.8305770041507631
-0.3247000000000001,-0.8334064267504931
-0.3257,-0.8380749740400478
-0.3267000000000001,-0.8448655882794
-0.3277,-0.8526465004286576
-0.3287000000000001,-0.8529294426886307
-0.3297,-0.8587297590180772
-0.3307000000000001,-0.8646715464775104
-0.3317,-0.8655203732574294
-0.3327000000000001,-0.8774039481762959
-0.3337,-0.8766965925263633
-0.3347000000000001,-0.8791016017361337
-0.3357,-0.8909851766550001
-0.3367000000000001,-0.8965025507244737
-0.3377,-0.9020199247939473
-0.3387000000000001,-0.9037175783537855
-0.3397,-0.9100837792031781
-0.3407000000000001,-0.9198452871722468
-0.3417,-0.9191379315223143
-0.3427000000000001,-0.9298897374012886
-0.3437,-0.9345582846908432
-0.3447000000000001,-0.9429050813600469
-0.3457,-0.9453100905698175
-0.3467000000000001,-0.9505445223793181
-0.3477,-0.9603060303483869
-0.3487000000000001,-0.9656819332878741
-0.3497,-0.9761507969068753
-0.3507000000000001,-0.979687575156538
-0.3517,-0.9775655082067403
-0.3527000000000001,-0.9894490831256065
-0.3537,-0.9946835149351072
-0.3547000000000001,-1.0027473693443378
-0.3557,-1.0146309442632042
-0.35670000000000013,-1.0171774246029612
-0.3577,-1.019299491552759
-0.35870000000000013,-1.0266559903120571
-0.3597,-1.0335880756813958
-0.36070000000000013,-1.0422178146105725
-0.3617,-1.041793401220613
-0.3626999999999999,-1.060609061508818
-0.3637,-1.0683899736580758
-0.3646999999999999,-1.0756050012873875
-0.3657,-1.0809809042268743
-0.3666999999999999,-1.0872056339462806
-0.3677,-1.090317998805984
-0.3686999999999999,-1.0975330264352956
-0.36970000000000003,-1.113377792993784
-0.3706999999999999,-1.121017234013055
-0.37170000000000003,-1.1231393009628525
-0.3726999999999999,-1.1347399336217459
-0.37370000000000003,-1.1411061344711386
-0.3746999999999999,-1.1511505847001804
-0.37570000000000003,-1.15440442068987
-0.3766999999999999,-1.1677027069086015
-0.37770000000000004,-1.1756250901878456
-0.3786999999999999,-1.176332445837778
-0.37970000000000004,-1.1899136743164824
-0.3806999999999999,-1.2037778450551597
-0.38170000000000004,-1.2022216626253082
-0.38269999999999993,-1.211417286074431
-0.38370000000000004,-1.2208958517835267
-0.38469999999999993,-1.2223105630833917
-0.38570000000000004,-1.231081773142555
-0.38669999999999993,-1.2428238769314346
-0.38770000000000004,-1.2479168376109488
-0.38869999999999993,-1.2605077681797476
-0.38970000000000005,-1.2674398535490865
-0.39069999999999994,-1.278333130558047
-0.39170000000000005,-1.279464899597939
-0.39269999999999994,-1.2970073197162655
-0.39370000000000005,-1.3012514536158606
-0.39469999999999994,-1.3124276728847946
-0.39570000000000005,-1.3179450469542682
-0.39669999999999994,-1.3313848043029861
-0.39770000000000005,-1.3407218988820953
-0.39869999999999994,-1.34539044617165
-0.39970000000000006,-1.3548690118807456
-0.40069999999999995,-1.366469644539639
-0.40170000000000006,-1.3717040763491395
-0.40269999999999995,-1.3834461801380193
-0.40370000000000006,-1.3933491592370746
-0.40469999999999995,-1.4008471291263593
-0.40570000000000006,-1.406364503195833
-0.40669999999999995,-1.423199567664227
-0.40770000000000006,-1.431687835463417
-0.40869999999999995,-1.4444202371622026
-0.40970000000000006,-1.462811484060448
-0.41069999999999995,-1.4755438857592333
-0.41170000000000007,-1.4797880196588282
-0.41269999999999996,-1.4925204213576138
-0.41370000000000007,-1.4967645552572086
-0.41469999999999996,-1.512326379555724
-0.41570000000000007,-1.5165705134553193
-0.41669999999999996,-1.5165705134553193
-0.41770000000000007,-1.5363764716534298
-0.41869999999999996,-1.546279450752485
-0.4197000000000001,-1.5575971411514054
-0.42069999999999996,-1.5759883880496508
-0.4217000000000001,-1.5774030993495158
-0.42269999999999996,-1.5943796349478963
-0.4237000000000001,-1.6028679027470865
-0.42469999999999997,-1.6212591496453321
-0.4257000000000001,-1.6283327061446573
-0.42669999999999997,-1.6410651078434426
-0.4277000000000001,-1.6509680869424979
-0.42869999999999997,-1.6622857773414181
-0.4297000000000001,-1.6806770242396636
-0.43069999999999997,-1.6891652920388538
-0.4317000000000001,-1.6976535598380442
-0.4327,-1.7160448067362895
-0.4337000000000001,-1.7259477858353447
-0.4347,-1.7415096101338603
-0.4357000000000001,-1.7556567231325106
-0.4367,-1.766974413531431
-0.4377000000000001,-1.778292103930351
-0.4387,-1.7896097943292715
-0.4397000000000001,-1.8023421960280568
-0.4407,-1.813659886426977
-0.4417000000000001,-1.8164893090267071
-0.4427,-1.8334658446250875
-0.4437000000000001,-1.8447835350240078
-0.4447,-1.8589306480226582
-0.4457000000000001,-1.8674189158218486
-0.4467,-1.8872248740199586
-0.4477000000000001,-1.8999572757187444
-0.4487,-1.9084455435179344
-0.4497000000000001,-1.9282515017160449
-0.4507,-1.9480574599141556
-0.4517000000000001,-1.9607898616129409
-0.4527,-1.9791811085111866
-0.4537000000000001,-1.9890840876102414
-0.4547,-2.004645911908757
-0.4557000000000001,-2.0258665814067327
-0.4567,-2.0357695605057877
-0.4577000000000001,-2.054160807404033
-0.4587,-2.052746096104168
-0.4597000000000001,-2.072552054302279
-0.4607,-2.0909433012005243
-0.4617000000000001,-2.0937727238002544
-0.4627,-2.116408104598095
-0.4637000000000001,-2.1432876192955304
-0.4647,-2.158849443594046
-0.4657000000000001,-2.1800701130920217
-0.4667,-2.208364339089322
-0.4677000000000001,-2.192802514790807
-0.4687,-2.202705493889862
-0.4697000000000001,-2.226755585987568
-0.4707,-2.2437321215859485
-0.4717000000000001,-2.2564645232847336
-0.4727,-2.280514615382439
-0.4737000000000001,-2.2974911509808194
-0.4747,-2.3158823978790646
-0.4757000000000001,-2.3356883560771755
-0.4767,-2.355494314275286
-0.4777000000000001,-2.3767149837732613
-0.4787,-2.3936915193716417
-0.4797000000000001,-2.4134974775697526
-0.4807,-2.436132858367593
-0.48170000000000013,-2.4432064148669186
-0.4827,-2.465841795664759
-0.48370000000000013,-2.485647753862869
-0.4847,-2.504039000761115
-0.48570000000000013,-2.5238449589592253
-0.4867,-2.5535538962563913
-0.4876999999999999,-2.5705304318547717
-0.4887,-2.590336390052882
-0.4896999999999999,-2.618630616050183
-0.4907,-2.641265996848024
-0.4916999999999999,-2.656827821146539
-0.4927,-2.6837073358439745
-0.4936999999999999,-2.706342716641815
-0.49470000000000003,-2.7332222313392514
-0.4956999999999999,-2.7572723234369563
-0.49670000000000003,-2.7770782816350668
-0.4976999999999999,-2.8096166415319628
-0.49870000000000003,-2.819519620631018
-0.4996999999999999,-2.8492285579281837
