Potential V vs RHE, Current mA cm-2
0.4132999999999999,-0.0021404581966958007
0.4122999999999999,-0.004870851005435321
0.4112999999999999,-0.005665918755959472
0.4102999999999999,-0.006070526187720872
0.4092999999999999,-0.006309612397398063
0.4082999999999999,-0.006493524866380518
0.4072999999999999,-0.006664704933664187
0.4062999999999999,-0.006787784816752447
0.4052999999999999,-0.00694057363713787
0.4042999999999999,-0.007069312365425588
0.4032999999999999,-0.007165512733816412
0.4022999999999999,-0.007254639545707908
0.4012999999999999,-0.007348010491499
0.4002999999999999,-0.007435722592090633
0.3992999999999999,-0.007541825939580511
0.3982999999999999,-0.007621049772372953
0.3972999999999999,-0.007686126492166745
0.3962999999999999,-0.007765350324959188
0.3952999999999999,-0.007833256467352709
0.3942999999999999,-0.007894089053246905
0.39329999999999987,-0.007983215865138404
0.39229999999999987,-0.008093563346527874
0.39129999999999987,-0.008206740250517076
0.39029999999999987,-0.00825766985731222
0.38929999999999987,-0.00830859946410736
0.38829999999999987,-0.008363773204802099
0.38729999999999987,-0.008379335029100614
0.38629999999999987,-0.00843450876979535
0.38529999999999986,-0.008486853087890354
0.38429999999999986,-0.008501000200889005
0.38329999999999986,-0.008578809322381583
0.38229999999999986,-0.008638227196975915
0.38129999999999986,-0.008655203732574295
0.38029999999999986,-0.008717451029768357
0.37929999999999986,-0.008766965925263631
0.37829999999999986,-0.008861751582354591
0.37729999999999986,-0.00894380483774676
0.37629999999999986,-0.008963610795944873
0.37529999999999986,-0.00902161395923934
0.37429999999999986,-0.009042834628737314
0.37329999999999985,-0.009075372988634211
0.37229999999999985,-0.009134790863228543
0.37129999999999985,-0.009143279131027731
0.37029999999999985,-0.009214014696020985
0.36929999999999985,-0.009250797189817474
0.36829999999999985,-0.009318703332210998
0.36729999999999985,-0.009371047650306004
0.36629999999999985,-0.00941773312320155
0.36529999999999985,-0.009470077441296555
0.36429999999999985,-0.009498371667293856
0.36329999999999985,-0.009506859935093048
0.36229999999999984,-0.009540813006289806
0.36129999999999984,-0.009567692520987244
0.36029999999999984,-0.009614377993882789
0.35929999999999984,-0.009683698847576177
0.35829999999999984,-0.009713407784873344
0.35729999999999984,-0.00979687575156538
0.35629999999999984,-0.00984497593576079
0.35529999999999984,-0.009894490831256066
0.35429999999999984,-0.009929858613752693
0.35329999999999984,-0.009970885241448778
0.35229999999999984,-0.009977958797948105
0.35129999999999983,-0.01001615600304446
0.35029999999999983,-0.01005859734204041
0.34929999999999983,-0.010085476856737845
0.34829999999999983,-0.010147724153931907
0.34729999999999983,-0.010232606831923811
0.34629999999999983,-0.010252412790121922
0.34529999999999983,-0.01028919528391841
0.34429999999999983,-0.010313245376016118
0.3432999999999998,-0.0103868103636091
0.3422999999999998,-0.010433495836504644
0.3412999999999998,-0.010439154681704105
0.3402999999999998,-0.010519793225796412
0.3392999999999998,-0.010549502163093579
0.3382999999999998,-0.010618823016786965
0.3372999999999998,-0.010635799552385347
0.3362999999999998,-0.010662679067082782
0.3352999999999998,-0.010723511652976978
0.3342999999999998,-0.010758879435473602
0.3332999999999998,-0.01080839433096888
0.3322999999999998,-0.010881959318561863
0.3312999999999998,-0.010903179988059836
0.3302999999999998,-0.010966841996553765
0.3292999999999998,-0.011034748138947286
0.3282999999999998,-0.011102654281340808
0.3272999999999998,-0.011237051854827986
0.3262999999999998,-0.011306372708521374
0.3252999999999999,-0.011385596541313816
0.3242999999999999,-0.01143794085940882
0.3232999999999999,-0.011469064508005854
0.3222999999999999,-0.01152989709390005
0.3212999999999999,-0.011551117763398025
0.3202999999999999,-0.011590729679794246
0.3192999999999999,-0.011668538801286822
0.3182999999999999,-0.011719468408081964
0.3172999999999999,-0.011804351086073866
0.3162999999999999,-0.01185245127026928
0.3152999999999999,-0.011914698567463338
0.3142999999999999,-0.012023631337552947
0.3132999999999999,-0.01214246708674161
0.3122999999999999,-0.012203299672635807
0.3112999999999999,-0.012261302835930273
0.3102999999999999,-0.012303744174926225
0.3092999999999999,-0.012340526668722714
0.3082999999999999,-0.012371650317319745
0.3072999999999999,-0.012388626852918127
0.3062999999999999,-0.012445215304912728
0.3052999999999999,-0.01253858625070382
0.3042999999999999,-0.012588101146199097
0.3032999999999999,-0.012680057380690323
0.3022999999999999,-0.012728157564885736
0.3012999999999999,-0.012770598903881686
0.3002999999999999,-0.0128469933140744
0.2992999999999999,-0.012873872828771834
0.2982999999999999,-0.012972902619762385
0.2972999999999999,-0.013043638184755638
0.2962999999999999,-0.013084664812451725
0.2952999999999999,-0.013169547490443625
0.2942999999999999,-0.013220477097238767
0.2932999999999999,-0.013278480260533233
0.2922999999999999,-0.013377510051523787
0.2912999999999999,-0.013435513214818253
0.2902999999999999,-0.01355010483010732
0.2892999999999999,-0.013646305198498144
0.2882999999999999,-0.013700064227893015
0.2872999999999999,-0.013814655843182085
0.2862999999999999,-0.013930662169771017
0.2852999999999999,-0.014094768680555363
0.2842999999999999,-0.014217848563643616
0.2832999999999999,-0.01427443701563822
0.2822999999999999,-0.014373466806628774
0.2812999999999999,-0.014430055258623373
0.2802999999999999,-0.014472496597619325
0.2792999999999999,-0.014529085049613928
0.2782999999999999,-0.014599820614607179
0.2772999999999999,-0.014727144631595034
0.2762999999999999,-0.014812027309586936
0.2752999999999999,-0.014882762874580187
0.2742999999999999,-0.014981792665570736
0.2732999999999999,-0.015080822456561293
0.2722999999999999,-0.015193999360550494
0.2712999999999999,-0.015321323377538347
0.2702999999999999,-0.015420353168528897
0.2692999999999999,-0.01546279450752485
0.26829999999999987,-0.015519382959519455
0.26729999999999987,-0.015575971411514053
0.26629999999999987,-0.015646706976507305
0.26529999999999987,-0.015745736767497857
0.26429999999999987,-0.01578817810649381
0.26329999999999987,-0.01588720789748436
0.26229999999999987,-0.015957943462477614
0.26129999999999987,-0.016000384801473564
0.26029999999999986,-0.01608526747946547
0.25929999999999986,-0.01615600304445872
0.25829999999999986,-0.016269179948447923
0.25729999999999986,-0.016339915513441175
0.25629999999999986,-0.016339915513441175
0.25529999999999986,-0.01638235685243712
0.25429999999999986,-0.016396503965435776
0.25329999999999986,-0.016410651078434424
0.25229999999999986,-0.01646723953042903
0.25129999999999986,-0.01650968086942498
0.25029999999999986,-0.01659456354741688
0.24929999999999986,-0.01666529911241013
0.24829999999999985,-0.016721887564404736
0.24729999999999985,-0.016764328903400686
0.24629999999999985,-0.01673603467740338
0.24529999999999985,-0.016806770242396636
0.24429999999999985,-0.016778476016399334
0.24329999999999985,-0.016778476016399334
0.24229999999999985,-0.016820917355395284
0.24129999999999985,-0.01687750580738989
0.24029999999999985,-0.01693409425938449
0.23929999999999985,-0.01697653559838044
0.23829999999999985,-0.017018976937376393
0.23729999999999984,-0.01703312405037504
0.23629999999999984,-0.017047271163373692
0.23529999999999984,-0.01706141827637234
0.23429999999999984,-0.017075565389370995
0.23329999999999984,-0.017132153841365592
0.23229999999999984,-0.017160448067362895
0.23129999999999984,-0.017188742293360197
0.23029999999999984,-0.017231183632356147
0.22929999999999984,-0.017273624971352097
0.22829999999999984,-0.01731606631034805
0.22729999999999984,-0.017358507649344
0.22629999999999983,-0.017400948988339954
0.22529999999999983,-0.017471684553333203
0.22429999999999983,-0.017499978779330502
0.22329999999999983,-0.017570714344323755
0.22229999999999983,-0.017641449909317007
0.22129999999999983,-0.01771218547431026
0.22029999999999983,-0.01781121526530081
0.21929999999999983,-0.017881950830294063
0.21829999999999983,-0.017966833508285963
0.21729999999999983,-0.018009274847281917
0.21629999999999983,-0.018023421960280565
0.21529999999999982,-0.018080010412275173
0.21429999999999982,-0.018108304638272472
0.21329999999999982,-0.018193187316264375
0.21229999999999982,-0.018278069994256275
0.21129999999999982,-0.018320511333252226
0.21029999999999982,-0.018419541124242777
0.20929999999999982,-0.01847612957623738
0.20829999999999982,-0.01856101225422928
0.20729999999999982,-0.018660042045219833
0.20629999999999982,-0.018744924723211737
0.20529999999999982,-0.018843954514202284
0.20429999999999982,-0.018942984305192843
0.20329999999999981,-0.018985425644188793
0.2022999999999998,-0.019070308322180696
0.2012999999999998,-0.019126896774175294
0.20029999999999992,-0.0191834852261699
0.19929999999999992,-0.0192683679041618
0.19829999999999992,-0.01933910346915505
0.19729999999999992,-0.019452280373144254
0.19629999999999992,-0.019537163051136158
0.19529999999999992,-0.019622045729128058
0.19429999999999992,-0.019820105311109164
0.19329999999999992,-0.019919135102099715
0.19229999999999992,-0.019919135102099715
0.19129999999999991,-0.01997572355409432
0.1902999999999999,-0.02004645911908757
0.1892999999999999,-0.020131341797079472
0.1882999999999999,-0.020230371588070024
0.1872999999999999,-0.020315254266061927
0.1862999999999999,-0.020442578283049778
0.1852999999999999,-0.020513313848043033
0.1842999999999999,-0.020569902300037635
0.1832999999999999,-0.020654784978029535
0.1822999999999999,-0.02071137343002414
0.1812999999999999,-0.020810403221014687
0.1802999999999999,-0.020923580125003893
0.1792999999999999,-0.020994315689997142
0.1782999999999999,-0.021121639706984996
0.1772999999999999,-0.0212065223849769
0.1762999999999999,-0.021305552175967454
0.1752999999999999,-0.021418729079956657
0.1742999999999999,-0.02150361175794856
0.1732999999999999,-0.02161678866193776
0.1722999999999999,-0.021701671339929663
0.1712999999999999,-0.021701671339929663
0.1702999999999999,-0.021772406904922915
0.1692999999999999,-0.02185728958291482
0.1682999999999999,-0.021956319373905367
0.1672999999999999,-0.02204120205189727
0.1662999999999999,-0.022111937616890523
0.1652999999999999,-0.022210967407881078
0.1642999999999999,-0.02232414431187028
0.1632999999999999,-0.02239487987686353
0.1622999999999999,-0.022508056780852735
0.1612999999999999,-0.022592939458844635
0.1602999999999999,-0.022635380797840585
0.1592999999999999,-0.02274855770182979
0.15829999999999989,-0.02280514615382439
0.15729999999999988,-0.022847587492820343
0.15629999999999988,-0.022890028831816296
0.15529999999999988,-0.022960764396809545
0.15429999999999988,-0.0230597941878001
0.15329999999999988,-0.02310223552679605
0.15229999999999988,-0.023172971091789302
0.15129999999999988,-0.023257853769781203
0.15029999999999988,-0.023286147995778505
0.14929999999999988,-0.023371030673770405
0.14829999999999988,-0.02345591335176231
0.14729999999999988,-0.02352664891675556
0.14629999999999987,-0.02356909025575151
0.14529999999999987,-0.023639825820744764
0.14429999999999987,-0.023668120046742062
0.14329999999999987,-0.02378129695073127
0.14229999999999987,-0.023866179628723165
0.14129999999999987,-0.02390862096771912
0.14029999999999987,-0.023965209419713723
0.13929999999999987,-0.02397935653271237
0.13829999999999987,-0.02400765075870967
0.13729999999999987,-0.024050092097705623
0.13629999999999987,-0.024092533436701577
0.13529999999999986,-0.024120827662698876
0.13429999999999986,-0.024149121888696175
0.13329999999999986,-0.02423400456668808
0.13229999999999986,-0.02429059301868268
0.13129999999999986,-0.02434718147067728
0.13029999999999986,-0.024375475696674583
0.12929999999999986,-0.024432064148669184
0.12829999999999986,-0.024488652600663786
0.12729999999999986,-0.024545241052658383
0.12629999999999986,-0.02457353527865569
0.12529999999999986,-0.024630123730650287
0.12429999999999986,-0.024700859295643543
0.12329999999999985,-0.02474330063463949
0.12229999999999985,-0.02479988908663409
0.12129999999999985,-0.02482818331263139
0.12029999999999985,-0.024842330425630044
0.11929999999999985,-0.024913065990623297
0.11829999999999985,-0.024898918877624646
0.11729999999999985,-0.024898918877624646
0.11629999999999985,-0.024898918877624646
0.11529999999999985,-0.0249413602166206
0.11429999999999985,-0.0249979486686152
0.11329999999999985,-0.025012095781613848
0.11229999999999984,-0.0250262428946125
0.11129999999999984,-0.02509697845960575
0.11029999999999984,-0.02512527268560305
0.10929999999999984,-0.0251111255726044
0.10829999999999984,-0.025139419798601705
0.10729999999999984,-0.02515356691160035
0.10629999999999984,-0.025224302476593602
0.10529999999999984,-0.025266743815589552
0.10429999999999984,-0.025323332267584157
0.10329999999999984,-0.025323332267584157
0.10229999999999984,-0.025309185154585506
0.10129999999999983,-0.025337479380582808
0.10029999999999983,-0.025365773606580107
0.09929999999999983,-0.025337479380582808
0.09829999999999983,-0.02539406783257741
0.09729999999999983,-0.02545065628457201
0.09629999999999983,-0.02545065628457201
0.09529999999999983,-0.02546480339757066
0.09429999999999983,-0.02547895051056931
0.09329999999999983,-0.02554968607556256
0.09229999999999983,-0.025592127414558512
0.09129999999999983,-0.025606274527557166
0.09029999999999982,-0.025662862979551764
0.08929999999999982,-0.025719451431546365
0.08829999999999982,-0.02576189277054232
0.08729999999999982,-0.025832628335535568
0.08629999999999982,-0.025846775448534223
0.08529999999999982,-0.02591751101352747
0.08429999999999982,-0.025974099465522073
0.08329999999999982,-0.02600239369151937
0.08229999999999982,-0.026073129256512624
0.08129999999999982,-0.026044835030515325
0.08029999999999982,-0.026030687917516674
0.07929999999999982,-0.026115570595508578
0.07829999999999981,-0.02614386482150588
0.07729999999999981,-0.026186306160501827
0.07629999999999981,-0.02622874749949778
0.07529999999999992,-0.02627118883849373
0.07429999999999992,-0.026356071516485634
0.07329999999999992,-0.026370218629484285
0.07229999999999992,-0.026398512855481584
0.07129999999999992,-0.026469248420474833
0.07029999999999992,-0.02649754264647214
0.06929999999999992,-0.026539983985468085
0.06829999999999992,-0.026539983985468085
0.06729999999999992,-0.026511689759470786
0.06629999999999991,-0.026511689759470786
0.06529999999999991,-0.02655413109846674
0.06429999999999991,-0.026539983985468085
0.06329999999999991,-0.02659657243746269
0.06229999999999991,-0.02661071955046134
0.06129999999999991,-0.026639013776458643
0.06029999999999991,-0.026709749341451892
0.05929999999999991,-0.026723896454450544
0.05829999999999991,-0.026794632019443793
0.05729999999999991,-0.02682292624544109
0.056299999999999906,-0.026808779132442447
0.055299999999999905,-0.026808779132442447
0.054299999999999904,-0.026808779132442447
0.0532999999999999,-0.026837073358439746
0.0522999999999999,-0.026907808923433
0.0512999999999999,-0.026893661810434347
0.0502999999999999,-0.02695025026242895
0.0492999999999999,-0.026978544488426247
0.0482999999999999,-0.026992691601424906
0.0472999999999999,-0.02703513294042085
0.0462999999999999,-0.027049280053419503
0.045299999999999896,-0.02703513294042085
0.044299999999999895,-0.0270209858274222
0.043299999999999894,-0.026992691601424906
0.04229999999999989,-0.027049280053419503
0.04129999999999989,-0.0270775742794168
0.04029999999999989,-0.027120015618412752
0.03929999999999989,-0.027148309844410055
0.03829999999999989,-0.027162456957408702
0.03729999999999989,-0.027176604070407354
0.03629999999999989,-0.027204898296404656
0.03529999999999989,-0.027176604070407354
0.034299999999999886,-0.027190751183406005
0.033299999999999885,-0.02723319252240196
0.032299999999999884,-0.027261486748399254
0.031299999999999883,-0.027247339635400606
0.030299999999999883,-0.027219045409403307
0.02929999999999988,-0.027204898296404656
0.02829999999999988,-0.027204898296404656
0.02729999999999988,-0.027190751183406005
0.02629999999999988,-0.027219045409403307
0.025299999999999878,-0.027261486748399254
0.024299999999999877,-0.027247339635400606
0.023299999999999876,-0.027247339635400606
0.022299999999999875,-0.02723319252240196
0.021299999999999875,-0.02723319252240196
0.020299999999999874,-0.027261486748399254
0.019299999999999873,-0.027204898296404656
0.018299999999999872,-0.027261486748399254
0.01729999999999987,-0.027289780974396556
0.01629999999999987,-0.027289780974396556
0.01529999999999987,-0.02734636942639116
0.014299999999999868,-0.02734636942639116
0.013299999999999867,-0.027374663652388463
0.012299999999999978,-0.027445399217381712
0.011299999999999866,-0.02741710499138441
0.010299999999999976,-0.027445399217381712
0.009299999999999864,-0.027473693443379014
0.008299999999999974,-0.027487840556377662
0.007299999999999862,-0.027516134782374965
0.006299999999999972,-0.027544429008372267
0.00529999999999986,-0.027544429008372267
0.0042999999999999705,-0.02755857612137091
0.0032999999999998586,-0.02750198766937631
0.0022999999999999687,-0.027516134782374965
0.0012999999999998568,-0.027487840556377662
0.00029999999999996696,-0.027459546330380363
-0.000700000000000145,-0.027473693443379014
-0.0017000000000000348,-0.027459546330380363
-0.0027000000000001467,-0.027516134782374965
-0.0037000000000000366,-0.027544429008372267
-0.0047000000000001485,-0.027530281895373616
-0.005700000000000038,-0.02755857612137091
-0.00670000000000015,-0.02755857612137091
-0.00770000000000004,-0.027572723234369562
-0.008700000000000152,-0.02755857612137091
-0.009700000000000042,-0.027572723234369562
-0.010700000000000154,-0.027615164573365516
-0.011700000000000044,-0.027601017460366868
-0.012700000000000156,-0.027572723234369562
-0.013700000000000045,-0.027586870347368214
-0.014700000000000157,-0.027601017460366868
-0.015700000000000047,-0.027615164573365516
-0.01670000000000016,-0.027657605912361466
-0.01770000000000005,-0.027671753025360117
-0.01870000000000016,-0.02768590013835877
-0.01970000000000005,-0.027714194364356067
-0.020700000000000163,-0.027714194364356067
-0.021700000000000053,-0.02774248859035337
-0.022700000000000164,-0.027784929929349323
-0.023700000000000054,-0.027770782816350672
-0.024700000000000166,-0.027784929929349323
-0.025700000000000056,-0.027770782816350672
-0.026700000000000168,-0.02775663570335202
-0.027700000000000058,-0.027799077042347967
-0.02870000000000017,-0.02774248859035337
-0.02970000000000006,-0.02775663570335202
-0.03070000000000017,-0.027770782816350672
-0.03170000000000006,-0.02775663570335202
-0.03270000000000017,-0.027813224155346622
-0.03370000000000006,-0.027784929929349323
-0.034700000000000175,-0.027813224155346622
-0.035700000000000065,-0.027841518381343924
-0.03670000000000018,-0.027855665494342572
-0.03770000000000007,-0.027869812607341227
-0.03870000000000018,-0.027869812607341227
-0.03970000000000007,-0.027855665494342572
-0.04070000000000018,-0.027898106833338522
-0.04170000000000007,-0.027855665494342572
-0.04270000000000018,-0.02788395972033987
-0.04370000000000007,-0.027926401059335824
-0.044700000000000184,-0.027940548172334476
-0.045700000000000074,-0.027940548172334476
-0.046700000000000186,-0.02796884239833177
-0.047700000000000076,-0.027954695285333123
-0.04870000000000019,-0.027982989511330426
-0.04970000000000008,-0.027982989511330426
-0.05070000000000019,-0.028011283737327728
-0.05170000000000008,-0.028053725076323675
-0.05270000000000019,-0.028053725076323675
-0.05370000000000008,-0.02806787218932233
-0.05470000000000019,-0.028053725076323675
-0.05570000000000008,-0.028039577963325023
-0.056700000000000195,-0.028082019302320977
-0.057700000000000085,-0.02811031352831828
-0.058700000000000196,-0.02811031352831828
-0.059700000000000086,-0.02815275486731423
-0.0607000000000002,-0.02815275486731423
-0.06170000000000009,-0.02820934331930883
-0.0627000000000002,-0.028237637545306133
-0.06370000000000009,-0.02820934331930883
