Potential V vs RHE, Current mA cm-2
0.013299999999999867,-0.2202705493889862
0.012299999999999978,-1.0054353208140816
0.011299999999999866,-1.4854468648582886
0.010299999999999976,-1.8773218949209036
0.009299999999999864,-2.1828995356917518
0.008299999999999974,-2.4446211261667834
0.007299999999999862,-2.662486666345999
0.006299999999999972,-2.8379108675292635
0.00529999999999986,-2.968064307116847
0.0042999999999999705,-3.1420737970002466
0.0032999999999998586,-3.273641947887695
0.0022999999999999687,-3.403795387475278
0.0012999999999998568,-3.4915074880669104
0.00029999999999996696,-3.623075638954359
-0.000700000000000145,-3.7532290785419424
-0.0017000000000000348,-3.840941179133574
-0.0027000000000001467,-3.927238568425342
-0.0037000000000000366,-4.014950669016974
-0.0047000000000001485,-4.102662769608606
-0.005700000000000038,-4.1889601589003735
-0.00670000000000015,-4.23281620919619
-0.00770000000000004,-4.276672259492005
-0.008700000000000152,-4.364384360083638
-0.009700000000000042,-4.450681749375406
-0.010700000000000154,-4.538393849967037
-0.011700000000000044,-4.582249900262854
-0.012700000000000156,-4.712403339850438
-0.013700000000000045,-4.800115440442069
-0.014700000000000157,-4.9302688800296535
-0.015700000000000047,-5.0618370309171015
-0.01670000000000016,-5.235846520800501
-0.01770000000000005,-5.453712060979717
-0.01870000000000016,-5.672992312458796
-0.01970000000000005,-5.977155241929781
-0.020700000000000163,-6.282732882700628
-0.021700000000000053,-6.6760226240631075
-0.022700000000000164,-7.111753704421539
-0.023700000000000054,-7.5474847847799715
-0.024700000000000166,-8.027071915434218
-0.025700000000000056,-8.464217707092514
-0.026700000000000168,-8.899948787450944
-0.027700000000000058,-9.379535918105192
-0.02870000000000017,-9.81668170976349
-0.02970000000000006,-10.164700689530287
-0.03070000000000017,-10.601846481188586
-0.03170000000000006,-10.993721511251199
-0.03270000000000017,-11.343155202317865
-0.03370000000000006,-11.647318131788847
-0.034700000000000175,-11.952895772559694
-0.035700000000000065,-12.214617363034726
-0.03670000000000018,-12.476338953509758
-0.03770000000000007,-12.694204493688973
-0.03870000000000018,-12.913484745168056
-0.03970000000000007,-13.087494235051453
-0.04070000000000018,-13.261503724934855
-0.04170000000000007,-13.436927926118118
-0.04270000000000018,-13.567081365705702
-0.04370000000000007,-13.698649516593148
-0.044700000000000184,-13.784946905884919
-0.045700000000000074,-13.872659006476551
-0.046700000000000186,-13.916515056772363
-0.047700000000000076,-13.960371107068182
-0.04870000000000019,-13.960371107068182
-0.04970000000000008,-13.960371107068182
-0.05070000000000019,-14.002812446064135
-0.05170000000000008,-13.960371107068182
-0.05270000000000019,-13.916515056772363
-0.05370000000000008,-13.872659006476551
-0.05470000000000019,-13.828802956180734
-0.05570000000000008,-13.784946905884919
-0.056700000000000195,-13.698649516593148
-0.057700000000000085,-13.567081365705702
-0.058700000000000196,-13.47936926511407
-0.059700000000000086,-13.436927926118118
-0.0607000000000002,-13.3930718758223
-0.06170000000000009,-13.30535977523067
-0.0627000000000002,-13.217647674639037
-0.06370000000000009,-13.175206335643086
-0.0647000000000002,-13.13135028534727
-0.06570000000000009,-13.087494235051453
-0.0667000000000002,-13.043638184755638
-0.0677000000000001,-12.99978213445982
-0.0687000000000002,-12.955926084164007
-0.0697000000000001,-12.99978213445982
-0.07070000000000021,-12.955926084164007
-0.0717000000000001,-12.955926084164007
-0.07270000000000021,-12.955926084164007
-0.0737000000000001,-12.955926084164007
-0.07470000000000021,-12.955926084164007
-0.0757000000000001,-12.99978213445982
-0.07670000000000021,-12.99978213445982
-0.0777000000000001,-13.087494235051453
-0.07870000000000021,-13.13135028534727
-0.0797000000000001,-13.175206335643086
-0.08070000000000022,-13.217647674639037
-0.0817000000000001,-13.30535977523067
-0.08270000000000022,-13.349215825526485
-0.08370000000000011,-13.436927926118118
-0.08470000000000022,-13.523225315409885
-0.08570000000000011,-13.523225315409885
-0.08670000000000022,-13.610937416001518
-0.08770000000000011,-13.654793466297335
-0.08870000000000022,-13.741090855589102
-0.08970000000000011,-13.784946905884919
-0.09070000000000022,-13.828802956180734
-0.09170000000000011,-13.916515056772363
-0.09270000000000023,-14.002812446064135
-0.09370000000000012,-14.046668496359947
-0.09470000000000023,-14.13438059695158
-0.09570000000000012,-14.175407224647667
-0.09670000000000023,-14.26028990263957
-0.09770000000000012,-14.345172580631472
-0.09870000000000023,-14.401761032626075
-0.09970000000000012,-14.444202371622024
-0.10070000000000023,-14.529085049613924
-0.10170000000000012,-14.57152638860988
-0.10270000000000024,-14.61396772760583
-0.10370000000000013,-14.65640906660178
-0.10470000000000024,-14.741291744593681
-0.10570000000000013,-14.783733083589633
-0.10670000000000024,-14.826174422585586
-0.10770000000000013,-14.925204213576137
-0.10870000000000024,-14.925204213576137
-0.10970000000000013,-15.01008689156804
-0.11070000000000024,-15.05252823056399
-0.11170000000000013,-15.094969569559943
-0.11270000000000002,-15.094969569559943
-0.11370000000000013,-15.137410908555893
-0.11470000000000002,-15.137410908555893
-0.11570000000000014,-15.179852247551842
-0.11670000000000003,-15.179852247551842
-0.11770000000000014,-15.222293586547794
-0.11870000000000003,-15.222293586547794
-0.11970000000000014,-15.222293586547794
-0.12070000000000003,-15.222293586547794
-0.12170000000000014,-15.264734925543747
-0.12270000000000003,-15.222293586547794
-0.12370000000000014,-15.307176264539699
-0.12470000000000003,-15.264734925543747
-0.12570000000000014,-15.264734925543747
-0.12670000000000003,-15.222293586547794
-0.12770000000000015,-15.264734925543747
-0.12870000000000004,-15.264734925543747
-0.12970000000000015,-15.264734925543747
-0.13070000000000004,-15.222293586547794
-0.13170000000000015,-15.222293586547794
-0.13270000000000004,-15.307176264539699
-0.13370000000000015,-15.264734925543747
-0.13470000000000004,-15.307176264539699
-0.13570000000000015,-15.307176264539699
-0.13670000000000004,-15.349617603535648
-0.13770000000000016,-15.349617603535648
-0.13870000000000005,-15.3920589425316
-0.13970000000000016,-15.349617603535648
-0.14070000000000005,-15.3920589425316
-0.14170000000000016,-15.3920589425316
-0.14270000000000005,-15.3920589425316
-0.14370000000000016,-15.3920589425316
-0.14470000000000005,-15.448647394526201
-0.14570000000000016,-15.491088733522153
-0.14670000000000005,-15.533530072518102
-0.14770000000000016,-15.533530072518102
-0.14870000000000005,-15.533530072518102
-0.14970000000000017,-15.575971411514052
-0.15070000000000006,-15.618412750510005
-0.15170000000000017,-15.660854089505953
-0.15270000000000006,-15.70329542850191
-0.15370000000000017,-15.70329542850191
-0.15470000000000006,-15.74573676749786
-0.15570000000000017,-15.78817810649381
-0.15670000000000006,-15.830619445489761
-0.15770000000000017,-15.87306078448571
-0.15870000000000006,-15.87306078448571
-0.15970000000000018,-15.972090575476265
-0.16070000000000007,-16.014531914472215
-0.16170000000000018,-16.099414592464115
-0.16270000000000007,-16.141855931460068
-0.16370000000000018,-16.184297270456018
-0.16470000000000007,-16.269179948447924
-0.16570000000000018,-16.311621287443874
-0.16670000000000007,-16.354062626439823
-0.16770000000000018,-16.396503965435777
-0.16870000000000007,-16.438945304431726
-0.16970000000000018,-16.495533756426326
-0.17070000000000007,-16.53797509542228
-0.17170000000000019,-16.580416434418233
-0.17270000000000008,-16.665299112410132
-0.1737000000000002,-16.70774045140608
-0.17470000000000008,-16.792623129397985
-0.1757000000000002,-16.835064468393938
-0.17670000000000008,-16.877505807389888
-0.1777000000000002,-16.919947146385837
-0.17870000000000008,-16.962388485381787
-0.1797000000000002,-17.018976937376394
-0.18070000000000008,-17.018976937376394
-0.1817000000000002,-17.061418276372343
-0.18270000000000008,-17.103859615368293
-0.1837000000000002,-17.103859615368293
-0.1847000000000001,-17.188742293360193
-0.1857000000000002,-17.188742293360193
-0.1867000000000001,-17.231183632356142
-0.1877000000000002,-17.2736249713521
-0.1887000000000001,-17.358507649344002
-0.1897000000000002,-17.358507649344002
-0.1907000000000001,-17.40094898833995
-0.1917000000000001,-17.4433903273359
-0.19269999999999998,-17.48583166633185
-0.1937000000000001,-17.542420118326454
-0.19469999999999998,-17.542420118326454
-0.1957000000000001,-17.542420118326454
-0.19669999999999999,-17.627302796318357
-0.1977000000000001,-17.627302796318357
-0.1987,-17.627302796318357
-0.1997000000000001,-17.71218547431026
-0.2007,-17.75462681330621
-0.2017000000000001,-17.797068152302163
-0.2027,-17.839509491298113
-0.2037000000000001,-17.881950830294063
-0.2047,-17.881950830294063
-0.2057000000000001,-17.924392169290012
-0.2067,-17.966833508285966
-0.2077000000000001,-17.966833508285966
-0.2087,-18.009274847281915
-0.2097000000000001,-18.009274847281915
-0.2107,-18.06586329927652
-0.2117000000000001,-18.06586329927652
-0.2127,-18.10830463827247
-0.2137000000000001,-18.15074597726842
-0.2147,-18.19318731626437
-0.2157000000000001,-18.23562865526032
-0.2167,-18.27806999425627
-0.21770000000000012,-18.320511333252224
-0.2187,-18.320511333252224
-0.21970000000000012,-18.362952672248177
-0.2207,-18.40539401124413
-0.22170000000000012,-18.40539401124413
-0.2227,-18.44783535024008
-0.22370000000000012,-18.49027668923603
-0.2247,-18.53271802823198
-0.22570000000000012,-18.589306480226583
-0.2267,-18.589306480226583
-0.22770000000000012,-18.631747819222536
-0.22870000000000001,-18.716630497214435
-0.22970000000000013,-18.759071836210385
-0.23070000000000002,-18.80151317520634
-0.23170000000000013,-18.843954514202288
-0.23270000000000002,-18.843954514202288
-0.23370000000000013,-18.92883719219419
-0.23470000000000002,-18.97127853119014
-0.23570000000000013,-19.01371987018609
-0.23670000000000002,-19.01371987018609
-0.2376999999999999,-19.112749661176647
-0.23870000000000002,-19.155191000172596
-0.2396999999999999,-19.197632339168546
-0.24070000000000003,-19.2400736781645
-0.24169999999999991,-19.3249563561564
-0.24270000000000003,-19.367397695152352
-0.24369999999999992,-19.452280373144255
-0.24470000000000003,-19.49472171214021
-0.24569999999999992,-19.537163051136158
-0.24670000000000003,-19.579604390132108
-0.24769999999999992,-19.636192842126707
-0.24870000000000003,-19.721075520118614
-0.24969999999999992,-19.763516859114564
-0.25070000000000003,-19.805958198110513
-0.2516999999999999,-19.848399537106463
-0.25270000000000004,-19.97572355409432
-0.2536999999999999,-20.01816489309027
-0.25470000000000004,-20.10304757108217
-0.2556999999999999,-20.202077362072725
-0.25670000000000004,-20.286960040064624
-0.25769999999999993,-20.371842718056527
-0.25870000000000004,-20.414284057052477
-0.25969999999999993,-20.499166735044383
-0.26070000000000004,-20.584049413036283
-0.26169999999999993,-20.683079204026836
-0.26270000000000004,-20.76796188201874
-0.26369999999999993,-20.810403221014692
-0.26470000000000005,-20.89528589900659
-0.26569999999999994,-20.980168576998494
-0.26670000000000005,-21.107492593986347
-0.26769999999999994,-21.2065223849769
-0.26870000000000005,-21.291405062968803
-0.26969999999999994,-21.418729079956652
-0.27070000000000005,-21.503611757948562
-0.27169999999999994,-21.63093577493641
-0.27270000000000005,-21.67337711393236
-0.27369999999999994,-21.814848243918867
-0.27470000000000006,-21.899730921910766
-0.27569999999999995,-22.027054938898623
-0.27670000000000006,-22.111937616890522
-0.27769999999999995,-22.196820294882425
-0.27870000000000006,-22.33829142486893
-0.27969999999999995,-22.46561544185678
-0.28070000000000006,-22.592939458844636
-0.28169999999999995,-22.72026347583249
-0.28270000000000006,-22.861734605818995
-0.28369999999999995,-22.989058622806844
-0.28470000000000006,-23.1163826397947
-0.28569999999999995,-23.300295108777156
-0.28670000000000007,-23.385177786769056
-0.28769999999999996,-23.55494314275286
-0.28870000000000007,-23.682267159740714
-0.28969999999999996,-23.823738289727217
-0.29070000000000007,-23.951062306715073
-0.29169999999999996,-24.120827662698876
-0.29270000000000007,-24.290593018682678
-0.29369999999999996,-24.474505487665134
-0.2947000000000001,-24.64427084364894
-0.29569999999999996,-24.814036199632742
-0.2967000000000001,-24.997948668615198
-0.29769999999999996,-25.167714024599
-0.2987000000000001,-25.337479380582806
-0.29969999999999997,-25.521391849565262
-0.3007000000000001,-25.73359854454502
-0.30169999999999997,-25.86092256153287
-0.3027000000000001,-26.087276369511276
-0.30369999999999997,-26.257041725495082
-0.3047000000000001,-26.483395533473487
-0.30569999999999997,-26.65316088945729
-0.3067000000000001,-26.86536758443705
-0.3077,-27.091721392415455
-0.3087000000000001,-27.303928087395207
-0.3097,-27.530281895373616
-0.3107000000000001,-27.742488590353368
-0.3117,-27.954695285333123
-0.3127000000000001,-28.18104909331153
-0.3137,-28.393255788291288
-0.3147000000000001,-28.619609596269694
-0.3157,-28.8742576302454
-0.3167000000000001,-29.14305277721976
-0.3177,-29.35525947219951
-0.3187000000000001,-29.62405461917387
-0.3197,-29.878702653149578
-0.3207000000000001,-30.189939139119886
-0.3217,-30.487028512091538
-0.3227000000000001,-30.7558236590659
-0.3237,-31.010471693041605
-0.3247000000000001,-31.321708179011907
-0.3257,-31.57635621298762
-0.3267000000000001,-31.887592698957924
-0.3277,-32.184682071929586
-0.3287000000000001,-32.45347721890394
-0.3297,-32.807155043870196
-0.3307000000000001,-33.06180307784591
-0.3317,-33.41548090281216
-0.3327000000000001,-33.712570275783825
-0.3337,-34.02380676175414
-0.3347000000000001,-34.377484586720385
-0.3357,-34.717015298688004
-0.3367000000000001,-35.02825178465831
-0.3377,-35.42437094862052
-0.3387000000000001,-35.721460321592176
-0.3397,-36.11757948555439
-0.3407000000000001,-36.47125731052064
-0.3417,-36.768346683492304
-0.3427000000000001,-37.122024508458566
-0.3437,-37.51814367242077
-0.3447000000000001,-37.90011572338433
-0.3457,-38.253793548350586
-0.3467000000000001,-38.6499127123128
-0.3477,-39.046031876275016
-0.3487000000000001,-39.47044526623452
-0.3497,-39.86656443019674
-0.3507000000000001,-40.30512493315489
-0.3517,-40.701244097117105
-0.3527000000000001,-41.139804600075266
-0.3537,-41.56421799003478
-0.3547000000000001,-42.00277849299294
-0.3557,-42.4413389959511
-0.35670000000000013,-42.87989949890926
-0.3577,-43.36090134086337
-0.35870000000000013,-43.79946184382153
-0.3597,-44.28046368577565
-0.36070000000000013,-44.74731841473111
-0.3617,-45.27076159568118
-0.3626999999999999,-45.75176343763528
-0.3637,-46.27520661858535
-0.3646999999999999,-46.75620846053947
-0.3657,-47.27965164148953
-0.3666999999999999,-47.76065348344364
-0.3677,-48.2840966643937
-0.3686999999999999,-48.80753984534376
-0.36970000000000003,-49.33098302629383
-0.3706999999999999,-49.81198486824794
-0.37170000000000003,-50.335428049198
-0.3726999999999999,-50.90131256914402
-0.37370000000000003,-51.38231441109813
-0.3746999999999999,-51.948198931044146
-0.37570000000000003,-52.471642111994214
-0.3766999999999999,-53.079967970936174
-0.37770000000000004,-53.64585249088219
-0.3786999999999999,-54.2117370108282
-0.37970000000000004,-54.791768643772876
-0.3806999999999999,-55.400094502714836
-0.38170000000000004,-56.05086170065276
-0.38269999999999993,-56.61674622059877
-0.38370000000000004,-57.22507207954074
-0.38469999999999993,-57.87583927747865
-0.38570000000000004,-58.498312249419264
-0.38669999999999993,-58.18707576344896
-0.38570000000000004,-56.13574437864466
-0.38469999999999993,-54.31076680181876
-0.38370000000000004,-52.59896612898206
-0.38269999999999993,-50.98619524713592
-0.38170000000000004,-49.50074838227763
-0.3806999999999999,-48.071889969413945
-0.37970000000000004,-46.79864979953541
-0.3786999999999999,-45.581998081651484
-0.37770000000000004,-44.4077877027635
-0.3766999999999999,-43.27601866287147
-0.37570000000000003,-42.186690961975394
-0.3746999999999999,-41.139804600075266
-0.37370000000000003,-40.177800916167044
-0.3726999999999999,-39.21579723225882
-0.37170000000000003,-38.29623488734655
-0.3706999999999999,-37.41911388143023
-0.36970000000000003,-36.5136986495166
-0.3686999999999999,-35.636577643600276
-0.3677,-34.8018979766799
-0.3666999999999999,-33.93892408376223
-0.3657,-33.14668575583781
-0.3646999999999999,-32.368594540912035
-0.3637,-31.57635621298762
-0.3626999999999999,-30.8407063370578
-0.3617,-30.04846800913338
-0.36070000000000013,-29.39770081119546
-0.3597,-28.704492274261593
-0.35870000000000013,-27.954695285333123
-0.3577,-27.261486748399253
-0.35670000000000013,-26.61071955046134
-0.3557,-25.959952352523427
-0.3547000000000001,-25.252596702590903
-0.3537,-24.559388165657033
-0.3527000000000001,-23.908620967719123
-0.3517,-23.24370665678255
-0.3507000000000001,-22.63538079784059
-0.3497,-21.98461359990267
-0.3487000000000001,-21.333846401964752
-0.3477,-20.72552054302279
-0.3467000000000001,-20.159636023076775
-0.3457,-19.537163051136158
-0.3447000000000001,-18.97127853119014
-0.3437,-18.40539401124413
-0.3427000000000001,-17.797068152302163
-0.3417,-17.2736249713521
-0.3407000000000001,-16.70774045140608
-0.3397,-16.099414592464115
-0.3387000000000001,-15.575971411514052
-0.3377,-15.05252823056399
-0.3367000000000001,-14.529085049613924
-0.3357,-13.960371107068182
-0.3347000000000001,-13.436927926118118
-0.3337,-12.955926084164007
-0.3327000000000001,-12.432482903213943
-0.3317,-11.952895772559694
-0.3307000000000001,-11.42945259160963
-0.3297,-10.949865460955383
-0.3287000000000001,-10.470278330301136
-0.3277,-10.034547249942705
-0.3267000000000001,-9.511104068992642
-0.3257,-9.073958277334345
-0.3247000000000001,-8.594371146680096
-0.3237,-8.158640066321666
-0.3227000000000001,-7.722908985963235
-0.3217,-7.28576319430494
-0.3207000000000001,-6.893888164242324
-0.3197,-6.458157083883892
-0.3187000000000001,-6.021011292225596
-0.3177,-5.629136262162981
-0.3167000000000001,-5.235846520800501
-0.3157,-4.843971490737885
-0.3147000000000001,-4.494537799671222
-0.3137,-4.102662769608606
-0.3127000000000001,-3.7093730282461257
-0.3117,-3.317497998183511
-0.3107000000000001,-2.968064307116847
-0.3097,-2.576189277054232
-0.3087000000000001,-2.2706116362833835
-0.3077,-1.92117794521672
-0.3067000000000001,-1.5717442541500557
-0.30569999999999997,-1.2671569112891135
-0.3047000000000001,-0.9617207416482519
-0.30369999999999997,-0.6564260431373771
-0.3027000000000001,-0.30755823659065895
-0.30169999999999997,-0.002205534916489592
-0.3007000000000001,0.2594580523952477
-0.29969999999999997,0.6084673300719523
-0.2987000000000001,0.870188920546984
-0.29769999999999996,1.175483619057859
-0.2967000000000001,1.4373466806628774
-0.29569999999999996,1.6990682711379093
-0.2947000000000001,2.004645911908757
-0.29369999999999996,2.2225114520879723
-0.29270000000000007,2.4842330425630044
-0.29169999999999996,2.70209858274222
-0.29070000000000007,2.919964122921436
-0.28969999999999996,3.1816857133964676
-0.28870000000000007,3.3995512535756833
-0.28769999999999996,3.6174167937548987
-0.28670000000000007,3.8366970452339793
-0.28569999999999995,4.054562585413195
-0.28470000000000006,4.272428125592412
-0.28369999999999995,4.534149716067443
-0.28270000000000006,4.708159205950842
-0.28169999999999995,4.883583407134107
-0.28070000000000006,5.057592897017507
-0.27969999999999995,5.275458437196722
-0.27870000000000006,5.449467927080121
-0.27769999999999995,5.624892128263387
-0.27670000000000006,5.798901618146785
-0.27569999999999995,5.9729111080301855
-0.27470000000000006,6.1044792589176335
-0.27369999999999994,6.278488748801033
-0.27270000000000005,6.452498238684432
-0.27169999999999994,6.671778490163514
-0.27070000000000005,6.845787980046913
-0.26969999999999994,6.975941419634496
-0.26870000000000005,7.107509570521944
-0.26769999999999994,7.281519060405343
