Potential V vs RHE, Current mA cm-2
0.4132999999999999,0.007349425202798865
0.4122999999999999,0.005596597902266086
0.4112999999999999,0.005075984143915752
0.4102999999999999,0.0047859683274434186
0.4092999999999999,0.004548296829066094
0.4082999999999999,0.004317698887188092
0.4072999999999999,0.004121054016506852
0.4062999999999999,0.0039470445266234526
0.4052999999999999,0.003778693881939513
0.4042999999999999,0.003604684392056113
0.4032999999999999,0.0034589691281700146
0.4022999999999999,0.0033005214625851306
0.4012999999999999,0.0031618797551983572
0.4002999999999999,0.0030472881399092894
0.3992999999999999,0.0028874257630245397
0.3982999999999999,0.002727563386139791
0.3972999999999999,0.0026073129256512628
0.3962999999999999,0.00249413602166206
0.3952999999999999,0.0023823738289727218
0.3942999999999999,0.0022564645232847334
0.39329999999999987,0.002133384640196475
0.39229999999999987,0.0020258665814067325
0.39129999999999987,0.0018999572757187441
0.39029999999999987,0.0018164893090267073
0.38929999999999987,0.001691994714638584
0.38829999999999987,0.00154486473945262
0.38729999999999987,0.0014840321535584235
0.38629999999999987,0.001363923164199882
0.38529999999999986,0.0012606492393097341
0.38429999999999986,0.0011685515336885201
0.38329999999999986,0.001037266325061045
0.38229999999999986,0.000945168619439831
0.38129999999999986,0.0008587297590180771
0.38029999999999986,0.0007567290742978081
0.37929999999999986,0.0006660460799764593
0.37829999999999986,0.0005599427324865815
0.37729999999999986,0.0004678450268653676
0.37629999999999986,0.0003840941179133575
0.37529999999999986,0.0002919964122921436
0.37429999999999986,0.0001844783535024008
0.37329999999999985,5.750801433951375e-05
0.37229999999999985,-2.4842330425630044e-05
0.37129999999999985,-9.741702010870641e-05
0.37029999999999985,-0.00016438945304431729
0.36929999999999985,-0.00024955507329619246
0.36829999999999985,-0.00034448220151713643
0.36729999999999985,-0.0004170568912002128
0.36629999999999985,-0.00048680215828355916
0.36529999999999985,-0.0005482006286977017
0.36429999999999985,-0.0006585481100871745
0.36329999999999985,-0.0007492311044085234
0.36229999999999984,-0.0008134589974223961
0.36129999999999984,-0.000866510671167335
0.36029999999999984,-0.0009669551734577526
0.35929999999999984,-0.0010507060824097628
0.35829999999999984,-0.0011442184993308417
0.35729999999999984,-0.0011986848843756456
0.35629999999999984,-0.0012712595740587218
0.35529999999999984,-0.0013228965365037957
0.35429999999999984,-0.0014189554337646318
0.35329999999999984,-0.001509496956955994
0.35229999999999984,-0.0015618412750510004
0.35129999999999983,-0.0016368209739438474
0.35029999999999983,-0.0016934094259384487
0.34929999999999983,-0.001779706815230216
0.34829999999999983,-0.0018801513175206337
0.34729999999999983,-0.0019523015938137506
0.34629999999999983,-0.002003231200608892
0.34529999999999983,-0.0020711373430024136
0.34429999999999983,-0.002122066949797555
0.3432999999999998,-0.0022196820294882427
0.3422999999999998,-0.002259293945884464
0.3412999999999998,-0.002321541243078525
0.3402999999999998,-0.0023979356532712374
0.3392999999999998,-0.0024644270843648943
0.3382999999999998,-0.0025521391849565264
0.3372999999999998,-0.002621460038649913
0.3362999999999998,-0.002655413109846674
0.3352999999999998,-0.002736051653938981
0.3342999999999998,-0.0028039577963325023
0.3332999999999998,-0.0028888404743244046
0.3322999999999998,-0.002948258348918737
0.3312999999999998,-0.0029906996879146873
0.3302999999999998,-0.0030472881399092894
0.3292999999999998,-0.003127926684001596
0.3282999999999998,-0.0031915886924955227
0.3272999999999998,-0.0032594948348890446
0.3262999999999998,-0.003314668575583781
0.3252999999999999,-0.003354280491980002
0.3242999999999999,-0.0034476514377710945
0.3232999999999999,-0.003518387002764346
0.3222999999999999,-0.003591951990357328
0.3212999999999999,-0.0036442963084523344
0.3202999999999999,-0.0036952259152474754
0.3192999999999999,-0.0037617173463411328
0.3182999999999999,-0.003822549932235329
0.3172999999999999,-0.0038805530955297956
0.3162999999999999,-0.003942800392723857
0.3152999999999999,-0.003982412309120079
0.3142999999999999,-0.004050318451513601
0.3132999999999999,-0.004150762953804018
0.3122999999999999,-0.004183301313700913
0.3112999999999999,-0.004235645631795919
0.3102999999999999,-0.004283745815991331
0.3092999999999999,-0.004367213782683368
0.3082999999999999,-0.0044393640589764855
0.3072999999999999,-0.0044775612640728405
0.3062999999999999,-0.004536979138667172
0.3052999999999999,-0.004600641147161099
0.3042999999999999,-0.004654400176555971
0.3032999999999999,-0.004718062185049898
0.3022999999999999,-0.004771821214444768
0.3012999999999999,-0.004812847842140855
0.3002999999999999,-0.004855289181136806
0.2992999999999999,-0.004910462921831542
0.2982999999999999,-0.004992516177223715
0.2972999999999999,-0.00504203107271899
0.2962999999999999,-0.0050858871230148065
0.2952999999999999,-0.005158037399307923
0.2942999999999999,-0.005217455273902255
0.2932999999999999,-0.005272629014596992
0.2922999999999999,-0.005324973332691998
0.2912999999999999,-0.005344779290890109
0.2902999999999999,-0.005414100144583496
0.2892999999999999,-0.005463615040078772
0.2882999999999999,-0.005525862337272833
0.2872999999999999,-0.00559518319096622
0.2862999999999999,-0.005626306839563252
0.2852999999999999,-0.005663089333359742
0.2842999999999999,-0.0057451425887519135
0.2832999999999999,-0.005801731040746516
0.2822999999999999,-0.005845587091042332
0.2812999999999999,-0.005885199007438552
0.2802999999999999,-0.005938958036833424
0.2792999999999999,-0.006005449467927081
0.2782999999999999,-0.006062037919921682
0.2772999999999999,-0.006115796949316554
0.2762999999999999,-0.0061624824222121
0.2752999999999999,-0.0061992649160085905
0.2742999999999999,-0.006253023945403462
0.2732999999999999,-0.00633366248949577
0.2722999999999999,-0.006377518539791585
0.2712999999999999,-0.006415715744887941
0.2702999999999999,-0.006475133619482273
0.2692999999999999,-0.006518989669778089
0.26829999999999987,-0.006603872347769991
0.26729999999999987,-0.006629337151167562
0.26629999999999987,-0.0066661196449640525
0.26529999999999987,-0.0067043168500604084
0.26429999999999987,-0.006749587611656089
0.26329999999999987,-0.006825982021848803
0.26229999999999987,-0.0068754969173440775
0.26129999999999987,-0.006903791143341379
0.26029999999999986,-0.00695472075013652
0.25929999999999986,-0.0069915032439330106
0.25829999999999986,-0.007080630055824508
0.25729999999999986,-0.007118827260920864
0.25629999999999986,-0.007117412549620999
0.25529999999999986,-0.007198051093713307
0.25429999999999986,-0.007253224834408043
0.25329999999999986,-0.007311227997702509
0.25229999999999986,-0.0073508399140987295
0.25129999999999986,-0.007380548851395896
0.25029999999999986,-0.007439966725990228
0.24929999999999986,-0.007493725755385099
0.24829999999999985,-0.0075503142073797
0.24729999999999985,-0.007596999680275247
0.24629999999999985,-0.007643685153170794
0.24529999999999985,-0.007705932450364854
0.24429999999999985,-0.007739885521561615
0.24329999999999985,-0.0077837415718574315
0.24229999999999985,-0.007853062425550818
0.24129999999999985,-0.007884186074147849
0.24029999999999985,-0.00793228625834326
0.23929999999999985,-0.007969068752139753
0.23829999999999985,-0.008039804317133005
0.23729999999999984,-0.00808648979002855
0.23629999999999984,-0.00810346632562693
0.23529999999999984,-0.008157225355021802
0.23429999999999984,-0.008199666694017753
0.23329999999999984,-0.008268987547711139
0.23229999999999984,-0.008322746577106011
0.23129999999999984,-0.008362358493502232
0.23029999999999984,-0.0084203616567967
0.22929999999999984,-0.00844299703759454
0.22829999999999984,-0.008506659046088464
0.22729999999999984,-0.008553344518984013
0.22629999999999983,-0.008581638744981314
0.22529999999999983,-0.008636812485676049
0.22429999999999983,-0.008656618443874161
0.22329999999999983,-0.008744330544465792
0.22229999999999983,-0.008774039481762958
0.22129999999999983,-0.008813651398159178
0.22029999999999983,-0.00887306927275351
0.21929999999999983,-0.008914095900449595
0.21829999999999983,-0.008974928486343793
0.21729999999999983,-0.00902161395923934
0.21629999999999983,-0.009047078762636909
0.21529999999999982,-0.009100837792031781
0.21429999999999982,-0.009124887884129487
0.21329999999999982,-0.00919845287172247
0.21229999999999982,-0.009262114880216395
0.21129999999999982,-0.00926918843671572
0.21029999999999982,-0.009322947466110591
0.20929999999999982,-0.009361144671206948
0.20829999999999982,-0.0094035860102029
0.20729999999999982,-0.009489883399494666
0.20629999999999982,-0.009529495315890887
0.20529999999999982,-0.009557789541888188
0.20429999999999982,-0.00961154857128306
0.20329999999999981,-0.00965681933287874
0.2022999999999998,-0.009731799031771586
0.2012999999999998,-0.009741702010870643
0.20029999999999992,-0.009794046328965649
0.19929999999999992,-0.009830828822762141
0.19829999999999992,-0.00987892900695755
0.19729999999999992,-0.009949664571950801
0.19629999999999992,-0.00998786177704716
0.19529999999999992,-0.01002747369344338
0.19429999999999992,-0.010106697526235822
0.19329999999999992,-0.010184506647728398
0.19229999999999992,-0.01018167722512867
0.19129999999999991,-0.01022411856412462
0.1902999999999999,-0.010252412790121922
0.1892999999999999,-0.010300512974317333
0.1882999999999999,-0.010371248539310585
0.1872999999999999,-0.010393883920108425
0.1862999999999999,-0.010439154681704105
0.1852999999999999,-0.010488669577199383
0.1842999999999999,-0.010499987267598302
0.1832999999999999,-0.010580625811690609
0.1822999999999999,-0.01062872599588602
0.1812999999999999,-0.010662679067082782
0.1802999999999999,-0.010707949828678464
0.1792999999999999,-0.010744732322474953
0.1782999999999999,-0.010815467887468205
0.1772999999999999,-0.010869226916863078
0.1762999999999999,-0.010890447586361053
0.1752999999999999,-0.010944206615755923
0.1742999999999999,-0.01098240382085228
0.1732999999999999,-0.01104182169544661
0.1722999999999999,-0.011098410147441212
0.1712999999999999,-0.011122460239538919
0.1702999999999999,-0.011181878114133249
0.1692999999999999,-0.011224319453129203
0.1682999999999999,-0.011287981461623128
0.1672999999999999,-0.011354472892716785
0.1662999999999999,-0.011379937696114355
0.1652999999999999,-0.011413890767311117
0.1642999999999999,-0.011467649796705988
0.1632999999999999,-0.011517164692201263
0.1622999999999999,-0.011587900257194516
0.1612999999999999,-0.011620438617091411
0.1602999999999999,-0.011641659286589386
0.1592999999999999,-0.011698247738583988
0.15829999999999989,-0.011754836190578589
0.15729999999999988,-0.011802936374774
0.15629999999999988,-0.011842548291170221
0.15529999999999988,-0.011889233764065768
0.15429999999999988,-0.01193167510306172
0.15329999999999988,-0.011984019421156726
0.15229999999999988,-0.012037778450551597
0.15129999999999988,-0.01208587863474701
0.15029999999999988,-0.012119831705943768
0.14929999999999988,-0.012169346601439045
0.14829999999999988,-0.012245741011631757
0.14729999999999988,-0.012286767639327845
0.14629999999999987,-0.0123249648444242
0.14529999999999987,-0.012360332626920826
0.14429999999999987,-0.01237872387381907
0.14329999999999987,-0.012481997798709218
0.14229999999999987,-0.012537171539403955
0.14129999999999987,-0.012559806920201795
0.14029999999999987,-0.012612151238296801
0.13929999999999987,-0.012640445464294103
0.13829999999999987,-0.012705522184087896
0.13729999999999987,-0.012776257749081147
0.13629999999999987,-0.012793234284679527
0.13529999999999986,-0.012844163891474669
0.13429999999999986,-0.012873872828771834
0.13329999999999986,-0.012940364259865491
0.13229999999999986,-0.013004026268359416
0.13129999999999986,-0.013022417515257663
0.13029999999999986,-0.01308890894635132
0.12929999999999986,-0.01313983855314646
0.12829999999999986,-0.013200671139040658
0.12729999999999986,-0.013254430168435529
0.12629999999999986,-0.01329121266223202
0.12529999999999986,-0.01333931284642743
0.12429999999999986,-0.013376095340223921
0.12329999999999985,-0.013451075039116769
0.12229999999999985,-0.013503419357211773
0.12129999999999985,-0.013554348964006917
0.12029999999999985,-0.013567081365705703
0.11929999999999985,-0.013630743374199627
0.11829999999999985,-0.013685917114894365
0.11729999999999985,-0.013755237968587752
0.11629999999999985,-0.013786361617184781
0.11529999999999985,-0.013820314688381543
0.11429999999999985,-0.01388114727427574
0.11329999999999985,-0.013941979860169935
0.11229999999999984,-0.013994324178264943
0.11129999999999984,-0.014035350805961029
0.11029999999999984,-0.014087695124056035
0.10929999999999984,-0.014124477617852528
0.10829999999999984,-0.014203701450644968
0.10729999999999984,-0.01424614278964092
0.10629999999999984,-0.014288584128636872
0.10529999999999984,-0.014345172580631472
0.10429999999999984,-0.014359319693630123
0.10329999999999984,-0.014444202371622025
0.10229999999999984,-0.014500790823616624
0.10129999999999983,-0.014529085049613928
0.10029999999999983,-0.014585673501608528
0.09929999999999983,-0.01461396772760583
0.09829999999999983,-0.01469885040559773
0.09729999999999983,-0.014769585970590984
0.09629999999999983,-0.014797880196588285
0.09529999999999983,-0.014854468648582884
0.09429999999999983,-0.014896909987578835
0.09329999999999983,-0.014953498439573438
0.09229999999999983,-0.01505252823056399
0.09129999999999983,-0.01509496956955994
0.09029999999999982,-0.015137410908555892
0.08929999999999982,-0.015165705134553195
0.08829999999999982,-0.015222293586547794
0.08729999999999982,-0.015293029151541045
0.08629999999999982,-0.015307176264539698
0.08529999999999982,-0.015377911829532949
0.08429999999999982,-0.015420353168528897
0.08329999999999982,-0.015476941620523503
0.08229999999999982,-0.015547677185516754
0.08129999999999982,-0.015575971411514053
0.08029999999999982,-0.015604265637511355
0.07929999999999982,-0.01568914831550326
0.07829999999999981,-0.015745736767497857
0.07729999999999981,-0.01580232521949246
0.07629999999999981,-0.01583061944548976
0.07529999999999992,-0.015873060784485714
0.07429999999999992,-0.015929649236480315
0.07329999999999992,-0.016014531914472215
0.07229999999999992,-0.016071120366466816
0.07129999999999992,-0.01611356170546277
0.07029999999999992,-0.016170150157457368
0.06929999999999992,-0.01619844438345467
0.06829999999999992,-0.016283327061446574
0.06729999999999992,-0.016339915513441175
0.06629999999999991,-0.016396503965435776
0.06529999999999991,-0.01648138664342768
0.06429999999999991,-0.016495533756426328
0.06329999999999991,-0.01659456354741688
0.06229999999999991,-0.01665115199941148
0.06129999999999991,-0.016679446225408782
0.06029999999999991,-0.016750181790402035
0.05929999999999991,-0.016806770242396636
0.05829999999999991,-0.016863358694391237
0.05729999999999991,-0.01693409425938449
0.056299999999999906,-0.016962388485381792
0.055299999999999905,-0.017018976937376393
0.054299999999999904,-0.01706141827637234
0.0532999999999999,-0.017146300954364244
0.0522999999999999,-0.017231183632356147
0.0512999999999999,-0.017259477858353446
0.0502999999999999,-0.0173019191973494
0.0492999999999999,-0.017358507649344
0.0482999999999999,-0.0174150961013386
0.0472999999999999,-0.017499978779330502
0.0462999999999999,-0.017542420118326456
0.045299999999999896,-0.017599008570321057
0.044299999999999895,-0.01765559702231566
0.043299999999999894,-0.01771218547431026
0.04229999999999989,-0.017782921039303512
0.04129999999999989,-0.017839509491298113
0.04029999999999989,-0.017924392169290013
0.03929999999999989,-0.017966833508285963
0.03829999999999989,-0.018023421960280565
0.03729999999999989,-0.018094157525273817
0.03629999999999989,-0.018150745977268422
0.03529999999999989,-0.018193187316264375
0.034299999999999886,-0.018278069994256275
0.033299999999999885,-0.018334658446250877
0.032299999999999884,-0.018405394011244126
0.031299999999999883,-0.01847612957623738
0.030299999999999883,-0.01851857091523333
0.02929999999999988,-0.018575159367227933
0.02829999999999988,-0.018660042045219833
0.02729999999999988,-0.018744924723211737
0.02629999999999988,-0.018801513175206338
0.025299999999999878,-0.018843954514202284
0.024299999999999877,-0.018900542966196893
0.023299999999999876,-0.018985425644188793
0.022299999999999875,-0.019042014096183394
0.021299999999999875,-0.019112749661176646
0.020299999999999874,-0.019169338113171244
0.019299999999999873,-0.01922592656516585
0.018299999999999872,-0.019310809243157753
0.01729999999999987,-0.019381544808151
0.01629999999999987,-0.019438133260145606
0.01529999999999987,-0.019494721712140204
0.014299999999999868,-0.019551310164134805
0.013299999999999867,-0.01963619284212671
0.012299999999999978,-0.019721075520118612
0.011299999999999866,-0.019763516859114563
0.010299999999999976,-0.019848399537106463
0.009299999999999864,-0.019904987989101064
0.008299999999999974,-0.01997572355409432
0.007299999999999862,-0.02007475334508487
0.006299999999999972,-0.02011719468408082
0.00529999999999986,-0.020173783136075422
0.0042999999999999705,-0.020244518701068675
0.0032999999999998586,-0.020315254266061927
0.0022999999999999687,-0.02041428405705248
0.0012999999999998568,-0.020470872509047083
0.00029999999999996696,-0.02052746096104168
-0.000700000000000145,-0.020598196526034934
-0.0017000000000000348,-0.020668932091028186
-0.0027000000000001467,-0.02075381476902009
-0.0037000000000000366,-0.020810403221014687
-0.0047000000000001485,-0.02088113878600794
-0.005700000000000038,-0.020937727238002544
-0.00670000000000015,-0.021036757028993096
-0.00770000000000004,-0.021121639706984996
-0.008700000000000152,-0.0211782281589796
-0.009700000000000042,-0.02124896372397285
-0.010700000000000154,-0.021333846401964753
-0.011700000000000044,-0.021432876192955305
-0.012700000000000156,-0.021489464644949906
-0.013700000000000045,-0.02153190598394586
-0.014700000000000157,-0.02161678866193776
-0.015700000000000047,-0.021687524226931015
-0.01670000000000016,-0.021772406904922915
-0.01770000000000005,-0.021871436695913467
-0.01870000000000016,-0.02194217226090672
-0.01970000000000005,-0.02199876071290132
-0.020700000000000163,-0.022069496277894573
-0.021700000000000053,-0.022140231842887825
-0.022700000000000164,-0.022239261633878377
-0.023700000000000054,-0.02230999719887163
-0.024700000000000166,-0.02238073276386488
-0.025700000000000056,-0.02245146832885813
-0.026700000000000168,-0.022508056780852735
-0.027700000000000058,-0.022621233684841938
-0.02870000000000017,-0.02267782213683654
-0.02970000000000006,-0.02274855770182979
-0.03070000000000017,-0.022819293266823044
-0.03170000000000006,-0.022890028831816296
-0.03270000000000017,-0.022989058622806844
-0.03370000000000006,-0.023045647074801445
-0.034700000000000175,-0.02310223552679605
-0.035700000000000065,-0.0232012653177866
-0.03670000000000018,-0.023286147995778505
-0.03770000000000007,-0.023371030673770405
-0.03870000000000018,-0.02341347201276636
-0.03970000000000007,-0.023484207577759608
-0.04070000000000018,-0.02355494314275286
-0.04170000000000007,-0.023639825820744764
-0.04270000000000018,-0.023724708498736664
-0.04370000000000007,-0.023809591176728567
-0.044700000000000184,-0.023837885402725866
-0.045700000000000074,-0.02392276808071777
-0.046700000000000186,-0.02400765075870967
-0.047700000000000076,-0.024106680549700225
-0.04870000000000019,-0.024163269001694826
-0.04970000000000008,-0.02423400456668808
-0.05070000000000019,-0.024304740131681327
-0.05170000000000008,-0.024403769922671882
-0.05270000000000019,-0.024488652600663786
-0.05370000000000008,-0.02457353527865569
-0.05470000000000019,-0.024630123730650287
-0.05570000000000008,-0.024700859295643543
-0.056700000000000195,-0.024785741973635443
-0.057700000000000085,-0.024870624651627343
-0.058700000000000196,-0.024927213103621948
-0.059700000000000086,-0.025012095781613848
-0.0607000000000002,-0.0250828313466071
-0.06170000000000009,-0.025181861137597652
