Sept. 25, 2024   19:42:56
Cyclic Voltammetry
File: c:/users/guazh/data/20240922_batch_417_500/2024-09-22-exp447\exp447-2024-09-25t19_28_32-h2koh\exp447_cv_sr_50mvs_efin_-1700mv.bin
Data Source:  Experiment
Instrument Model:  CHI760E
Header: CV ran at 50 mVs
Note: 

Init E (V) = -1
High E (V) = -1
Low E (V) = -1.7
Final E (V) = -1
Init P/N = N
Scan Rate (V/s) = 0.05
Segment = 3
Sample Interval (V) = 0.001
Quiet Time (sec) = 2
Sensitivity (A/V) = 0.01
Comp R (ohm) = 3.7

Results:

Channel 1:
Segment 1:

Segment 2:

Segment 3:

Potential/V, Current/A

-1.000, 3.335e-7
-1.001, 1.064e-6
-1.002, 1.221e-6
-1.003, 1.290e-6
-1.004, 1.340e-6
-1.005, 1.557e-6
-1.006, 1.557e-6
-1.007, 1.823e-6
-1.008, 1.764e-6
-1.009, 1.803e-6
-1.010, 1.833e-6
-1.011, 1.942e-6
-1.012, 1.912e-6
-1.013, 2.080e-6
-1.014, 2.021e-6
-1.015, 2.208e-6
-1.016, 2.238e-6
-1.017, 2.267e-6
-1.018, 2.326e-6
-1.019, 2.198e-6
-1.020, 2.326e-6
-1.021, 2.405e-6
-1.022, 2.435e-6
-1.023, 2.484e-6
-1.024, 2.504e-6
-1.025, 2.583e-6
-1.026, 2.721e-6
-1.027, 2.682e-6
-1.028, 2.711e-6
-1.029, 2.632e-6
-1.030, 2.711e-6
-1.031, 2.820e-6
-1.032, 2.859e-6
-1.033, 2.790e-6
-1.034, 2.741e-6
-1.035, 2.830e-6
-1.036, 2.997e-6
-1.037, 3.037e-6
-1.038, 2.908e-6
-1.039, 2.879e-6
-1.040, 3.007e-6
-1.041, 3.126e-6
-1.042, 3.017e-6
-1.043, 2.928e-6
-1.044, 2.859e-6
-1.045, 3.116e-6
-1.046, 3.204e-6
-1.047, 3.135e-6
-1.048, 3.135e-6
-1.049, 3.066e-6
-1.050, 3.234e-6
-1.051, 3.224e-6
-1.052, 3.313e-6
-1.053, 3.195e-6
-1.054, 3.224e-6
-1.055, 3.352e-6
-1.056, 3.372e-6
-1.057, 3.352e-6
-1.058, 3.441e-6
-1.059, 3.254e-6
-1.060, 3.323e-6
-1.061, 3.471e-6
-1.062, 3.362e-6
-1.063, 3.481e-6
-1.064, 3.303e-6
-1.065, 3.422e-6
-1.066, 3.481e-6
-1.067, 3.520e-6
-1.068, 3.451e-6
-1.069, 3.362e-6
-1.070, 3.579e-6
-1.071, 3.589e-6
-1.072, 3.530e-6
-1.073, 3.570e-6
-1.074, 3.451e-6
-1.075, 3.678e-6
-1.076, 3.708e-6
-1.077, 3.767e-6
-1.078, 3.629e-6
-1.079, 3.629e-6
-1.080, 3.648e-6
-1.081, 3.698e-6
-1.082, 3.737e-6
-1.083, 3.777e-6
-1.084, 3.668e-6
-1.085, 3.806e-6
-1.086, 3.796e-6
-1.087, 3.767e-6
-1.088, 3.757e-6
-1.089, 3.678e-6
-1.090, 3.895e-6
-1.091, 3.875e-6
-1.092, 4.004e-6
-1.093, 3.826e-6
-1.094, 3.757e-6
-1.095, 3.895e-6
-1.096, 3.846e-6
-1.097, 4.013e-6
-1.098, 3.944e-6
-1.099, 3.767e-6
-1.100, 3.935e-6
-1.101, 4.043e-6
-1.102, 4.063e-6
-1.103, 4.053e-6
-1.104, 3.944e-6
-1.105, 3.974e-6
-1.106, 4.063e-6
-1.107, 4.132e-6
-1.108, 4.013e-6
-1.109, 3.954e-6
-1.110, 4.102e-6
-1.111, 4.112e-6
-1.112, 4.181e-6
-1.113, 4.102e-6
-1.114, 4.102e-6
-1.115, 4.201e-6
-1.116, 4.132e-6
-1.117, 4.211e-6
-1.118, 4.191e-6
-1.119, 4.004e-6
-1.120, 4.221e-6
-1.121, 4.290e-6
-1.122, 4.309e-6
-1.123, 4.201e-6
-1.124, 4.181e-6
-1.125, 4.339e-6
-1.126, 4.211e-6
-1.127, 4.467e-6
-1.128, 4.339e-6
-1.129, 4.191e-6
-1.130, 4.438e-6
-1.131, 4.300e-6
-1.132, 4.467e-6
-1.133, 4.487e-6
-1.134, 4.309e-6
-1.135, 4.457e-6
-1.136, 4.448e-6
-1.137, 4.418e-6
-1.138, 4.418e-6
-1.139, 4.359e-6
-1.140, 4.566e-6
-1.141, 4.438e-6
-1.142, 4.526e-6
-1.143, 4.497e-6
-1.144, 4.428e-6
-1.145, 4.536e-6
-1.146, 4.546e-6
-1.147, 4.546e-6
-1.148, 4.665e-6
-1.149, 4.507e-6
-1.150, 4.586e-6
-1.151, 4.546e-6
-1.152, 4.684e-6
-1.153, 4.576e-6
-1.154, 4.655e-6
-1.155, 4.566e-6
-1.156, 4.605e-6
-1.157, 4.724e-6
-1.158, 4.645e-6
-1.159, 4.596e-6
-1.160, 4.773e-6
-1.161, 4.773e-6
-1.162, 4.813e-6
-1.163, 4.674e-6
-1.164, 4.576e-6
-1.165, 4.822e-6
-1.166, 4.734e-6
-1.167, 4.882e-6
-1.168, 4.753e-6
-1.169, 4.734e-6
-1.170, 4.744e-6
-1.171, 4.704e-6
-1.172, 4.931e-6
-1.173, 4.793e-6
-1.174, 4.704e-6
-1.175, 4.901e-6
-1.176, 4.852e-6
-1.177, 5.000e-6
-1.178, 4.931e-6
-1.179, 4.931e-6
-1.180, 4.980e-6
-1.181, 4.872e-6
-1.182, 5.000e-6
-1.183, 5.010e-6
-1.184, 4.852e-6
-1.185, 4.990e-6
-1.186, 4.990e-6
-1.187, 5.168e-6
-1.188, 4.911e-6
-1.189, 4.931e-6
-1.190, 5.128e-6
-1.191, 4.990e-6
-1.192, 5.138e-6
-1.193, 5.079e-6
-1.194, 5.089e-6
-1.195, 5.030e-6
-1.196, 5.109e-6
-1.197, 5.217e-6
-1.198, 5.049e-6
-1.199, 5.178e-6
-1.200, 5.168e-6
-1.201, 5.168e-6
-1.202, 5.227e-6
-1.203, 5.158e-6
-1.204, 5.217e-6
-1.205, 5.247e-6
-1.206, 5.237e-6
-1.207, 5.276e-6
-1.208, 5.257e-6
-1.209, 5.197e-6
-1.210, 5.237e-6
-1.211, 5.336e-6
-1.212, 5.395e-6
-1.213, 5.266e-6
-1.214, 5.296e-6
-1.215, 5.414e-6
-1.216, 5.395e-6
-1.217, 5.483e-6
-1.218, 5.424e-6
-1.219, 5.395e-6
-1.220, 5.464e-6
-1.221, 5.513e-6
-1.222, 5.641e-6
-1.223, 5.444e-6
-1.224, 5.405e-6
-1.225, 5.562e-6
-1.226, 5.641e-6
-1.227, 5.582e-6
-1.228, 5.641e-6
-1.229, 5.582e-6
-1.230, 5.819e-6
-1.231, 5.770e-6
-1.232, 5.710e-6
-1.233, 5.809e-6
-1.234, 5.750e-6
-1.235, 5.819e-6
-1.236, 5.779e-6
-1.237, 5.908e-6
-1.238, 5.839e-6
-1.239, 5.868e-6
-1.240, 5.967e-6
-1.241, 5.918e-6
-1.242, 6.056e-6
-1.243, 6.046e-6
-1.244, 5.957e-6
-1.245, 6.056e-6
-1.246, 6.154e-6
-1.247, 6.085e-6
-1.248, 6.154e-6
-1.249, 6.105e-6
-1.250, 6.204e-6
-1.251, 6.164e-6
-1.252, 6.371e-6
-1.253, 6.253e-6
-1.254, 6.283e-6
-1.255, 6.529e-6
-1.256, 6.411e-6
-1.257, 6.470e-6
-1.258, 6.500e-6
-1.259, 6.431e-6
-1.260, 6.510e-6
-1.261, 6.658e-6
-1.262, 6.786e-6
-1.263, 6.756e-6
-1.264, 6.736e-6
-1.265, 6.875e-6
-1.266, 6.717e-6
-1.267, 6.944e-6
-1.268, 6.904e-6
-1.269, 6.963e-6
-1.270, 7.072e-6
-1.271, 7.121e-6
-1.272, 7.230e-6
-1.273, 7.151e-6
-1.274, 7.190e-6
-1.275, 7.378e-6
-1.276, 7.358e-6
-1.277, 7.417e-6
-1.278, 7.348e-6
-1.279, 7.476e-6
-1.280, 7.555e-6
-1.281, 7.575e-6
-1.282, 7.634e-6
-1.283, 7.753e-6
-1.284, 7.792e-6
-1.285, 7.841e-6
-1.286, 7.950e-6
-1.287, 8.088e-6
-1.288, 8.039e-6
-1.289, 8.167e-6
-1.290, 8.345e-6
-1.291, 8.295e-6
-1.292, 8.443e-6
-1.293, 8.502e-6
-1.294, 8.463e-6
-1.295, 8.680e-6
-1.296, 8.710e-6
-1.297, 8.818e-6
-1.298, 8.848e-6
-1.299, 8.897e-6
-1.300, 9.085e-6
-1.301, 9.144e-6
-1.302, 9.223e-6
-1.303, 9.321e-6
-1.304, 9.223e-6
-1.305, 9.450e-6
-1.306, 9.598e-6
-1.307, 9.864e-6
-1.308, 9.775e-6
-1.309, 9.903e-6
-1.310, 9.953e-6
-1.311, 1.009e-5
-1.312, 1.031e-5
-1.313, 1.027e-5
-1.314, 1.031e-5
-1.315, 1.054e-5
-1.316, 1.064e-5
-1.317, 1.072e-5
-1.318, 1.071e-5
-1.319, 1.108e-5
-1.320, 1.111e-5
-1.321, 1.124e-5
-1.322, 1.144e-5
-1.323, 1.137e-5
-1.324, 1.155e-5
-1.325, 1.188e-5
-1.326, 1.184e-5
-1.327, 1.202e-5
-1.328, 1.215e-5
-1.329, 1.230e-5
-1.330, 1.248e-5
-1.331, 1.247e-5
-1.332, 1.279e-5
-1.333, 1.289e-5
-1.334, 1.304e-5
-1.335, 1.320e-5
-1.336, 1.342e-5
-1.337, 1.353e-5
-1.338, 1.372e-5
-1.339, 1.383e-5
-1.340, 1.402e-5
-1.341, 1.405e-5
-1.342, 1.428e-5
-1.343, 1.440e-5
-1.344, 1.459e-5
-1.345, 1.493e-5
-1.346, 1.501e-5
-1.347, 1.520e-5
-1.348, 1.524e-5
-1.349, 1.540e-5
-1.350, 1.575e-5
-1.351, 1.593e-5
-1.352, 1.613e-5
-1.353, 1.629e-5
-1.354, 1.642e-5
-1.355, 1.666e-5
-1.356, 1.690e-5
-1.357, 1.722e-5
-1.358, 1.733e-5
-1.359, 1.745e-5
-1.360, 1.763e-5
-1.361, 1.782e-5
-1.362, 1.804e-5
-1.363, 1.828e-5
-1.364, 1.852e-5
-1.365, 1.877e-5
-1.366, 1.891e-5
-1.367, 1.927e-5
-1.368, 1.934e-5
-1.369, 1.954e-5
-1.370, 2.009e-5
-1.371, 2.014e-5
-1.372, 2.036e-5
-1.373, 2.058e-5
-1.374, 2.071e-5
-1.375, 2.105e-5
-1.376, 2.123e-5
-1.377, 2.161e-5
-1.378, 2.175e-5
-1.379, 2.198e-5
-1.380, 2.237e-5
-1.381, 2.252e-5
-1.382, 2.293e-5
-1.383, 2.316e-5
-1.384, 2.332e-5
-1.385, 2.357e-5
-1.386, 2.391e-5
-1.387, 2.434e-5
-1.388, 2.446e-5
-1.389, 2.475e-5
-1.390, 2.520e-5
-1.391, 2.527e-5
-1.392, 2.577e-5
-1.393, 2.587e-5
-1.394, 2.618e-5
-1.395, 2.654e-5
-1.396, 2.692e-5
-1.397, 2.718e-5
-1.398, 2.746e-5
-1.399, 2.778e-5
-1.400, 2.814e-5
-1.401, 2.837e-5
-1.402, 2.878e-5
-1.403, 2.903e-5
-1.404, 2.922e-5
-1.405, 2.974e-5
-1.406, 2.997e-5
-1.407, 3.041e-5
-1.408, 3.061e-5
-1.409, 3.113e-5
-1.410, 3.142e-5
-1.411, 3.173e-5
-1.412, 3.224e-5
-1.413, 3.248e-5
-1.414, 3.283e-5
-1.415, 3.330e-5
-1.416, 3.379e-5
-1.417, 3.417e-5
-1.418, 3.431e-5
-1.419, 3.483e-5
-1.420, 3.542e-5
-1.421, 3.569e-5
-1.422, 3.599e-5
-1.423, 3.629e-5
-1.424, 3.673e-5
-1.425, 3.717e-5
-1.426, 3.755e-5
-1.427, 3.806e-5
-1.428, 3.841e-5
-1.429, 3.892e-5
-1.430, 3.928e-5
-1.431, 3.978e-5
-1.432, 4.026e-5
-1.433, 4.060e-5
-1.434, 4.122e-5
-1.435, 4.163e-5
-1.436, 4.211e-5
-1.437, 4.261e-5
-1.438, 4.292e-5
-1.439, 4.355e-5
-1.440, 4.396e-5
-1.441, 4.446e-5
-1.442, 4.506e-5
-1.443, 4.545e-5
-1.444, 4.596e-5
-1.445, 4.644e-5
-1.446, 4.702e-5
-1.447, 4.758e-5
-1.448, 4.807e-5
-1.449, 4.844e-5
-1.450, 4.911e-5
-1.451, 4.971e-5
-1.452, 5.017e-5
-1.453, 5.075e-5
-1.454, 5.136e-5
-1.455, 5.192e-5
-1.456, 5.243e-5
-1.457, 5.308e-5
-1.458, 5.352e-5
-1.459, 5.412e-5
-1.460, 5.483e-5
-1.461, 5.541e-5
-1.462, 5.611e-5
-1.463, 5.672e-5
-1.464, 5.729e-5
-1.465, 5.797e-5
-1.466, 5.865e-5
-1.467, 5.933e-5
-1.468, 5.989e-5
-1.469, 6.056e-5
-1.470, 6.130e-5
-1.471, 6.201e-5
-1.472, 6.283e-5
-1.473, 6.340e-5
-1.474, 6.408e-5
-1.475, 6.492e-5
-1.476, 6.562e-5
-1.477, 6.638e-5
-1.478, 6.701e-5
-1.479, 6.794e-5
-1.480, 6.872e-5
-1.481, 6.949e-5
-1.482, 7.035e-5
-1.483, 7.112e-5
-1.484, 7.186e-5
-1.485, 7.288e-5
-1.486, 7.377e-5
-1.487, 7.470e-5
-1.488, 7.543e-5
-1.489, 7.639e-5
-1.490, 7.745e-5
-1.491, 7.815e-5
-1.492, 7.930e-5
-1.493, 8.009e-5
-1.494, 8.112e-5
-1.495, 8.221e-5
-1.496, 8.302e-5
-1.497, 8.422e-5
-1.498, 8.520e-5
-1.499, 8.628e-5
-1.500, 8.729e-5
-1.501, 8.846e-5
-1.502, 8.961e-5
-1.503, 9.058e-5
-1.504, 9.181e-5
-1.505, 9.302e-5
-1.506, 9.423e-5
-1.507, 9.554e-5
-1.508, 9.660e-5
-1.509, 9.786e-5
-1.510, 9.919e-5
-1.511, 1.006e-4
-1.512, 1.020e-4
-1.513, 1.032e-4
-1.514, 1.046e-4
-1.515, 1.059e-4
-1.516, 1.074e-4
-1.517, 1.089e-4
-1.518, 1.102e-4
-1.519, 1.118e-4
-1.520, 1.134e-4
-1.521, 1.149e-4
-1.522, 1.166e-4
-1.523, 1.181e-4
-1.524, 1.201e-4
-1.525, 1.216e-4
-1.526, 1.233e-4
-1.527, 1.251e-4
-1.528, 1.268e-4
-1.529, 1.286e-4
-1.530, 1.306e-4
-1.531, 1.326e-4
-1.532, 1.346e-4
-1.533, 1.365e-4
-1.534, 1.386e-4
-1.535, 1.407e-4
-1.536, 1.428e-4
-1.537, 1.452e-4
-1.538, 1.472e-4
-1.539, 1.495e-4
-1.540, 1.518e-4
-1.541, 1.542e-4
-1.542, 1.567e-4
-1.543, 1.592e-4
-1.544, 1.617e-4
-1.545, 1.643e-4
-1.546, 1.671e-4
-1.547, 1.698e-4
-1.548, 1.724e-4
-1.549, 1.755e-4
-1.550, 1.785e-4
-1.551, 1.817e-4
-1.552, 1.848e-4
-1.553, 1.878e-4
-1.554, 1.911e-4
-1.555, 1.943e-4
-1.556, 1.977e-4
-1.557, 2.012e-4
-1.558, 2.046e-4
-1.559, 2.086e-4
-1.560, 2.120e-4
-1.561, 2.158e-4
-1.562, 2.199e-4
-1.563, 2.237e-4
-1.564, 2.280e-4
-1.565, 2.324e-4
-1.566, 2.366e-4
-1.567, 2.413e-4
-1.568, 2.457e-4
-1.569, 2.505e-4
-1.570, 2.554e-4
-1.571, 2.603e-4
-1.572, 2.655e-4
-1.573, 2.705e-4
-1.574, 2.762e-4
-1.575, 2.819e-4
-1.576, 2.876e-4
-1.577, 2.936e-4
-1.578, 2.993e-4
-1.579, 3.055e-4
-1.580, 3.121e-4
-1.581, 3.187e-4
-1.582, 3.255e-4
-1.583, 3.320e-4
-1.584, 3.393e-4
-1.585, 3.468e-4
-1.586, 3.544e-4
-1.587, 3.624e-4
-1.588, 3.704e-4
-1.589, 3.785e-4
-1.590, 3.861e-4
-1.591, 3.949e-4
-1.592, 4.036e-4
-1.593, 4.124e-4
-1.594, 4.218e-4
-1.595, 4.315e-4
-1.596, 4.412e-4
-1.597, 4.510e-4
-1.598, 4.608e-4
-1.599, 4.715e-4
-1.600, 4.821e-4
-1.601, 4.932e-4
-1.602, 5.044e-4
-1.603, 5.154e-4
-1.604, 5.273e-4
-1.605, 5.395e-4
-1.606, 5.520e-4
-1.607, 5.647e-4
-1.608, 5.767e-4
-1.609, 5.897e-4
-1.610, 6.029e-4
-1.611, 6.162e-4
-1.612, 6.303e-4
-1.613, 6.447e-4
-1.614, 6.595e-4
-1.615, 6.742e-4
-1.616, 6.896e-4
-1.617, 7.051e-4
-1.618, 7.200e-4
-1.619, 7.361e-4
-1.620, 7.524e-4
-1.621, 7.690e-4
-1.622, 7.863e-4
-1.623, 8.042e-4
-1.624, 8.221e-4
-1.625, 8.401e-4
-1.626, 8.592e-4
-1.627, 8.783e-4
-1.628, 8.974e-4
-1.629, 9.162e-4
-1.630, 9.357e-4
-1.631, 9.562e-4
-1.632, 9.769e-4
-1.633, 9.984e-4
-1.634, 1.020e-3
-1.635, 1.041e-3
-1.636, 1.063e-3
-1.637, 1.085e-3
-1.638, 1.108e-3
-1.639, 1.132e-3
-1.640, 1.157e-3
-1.641, 1.180e-3
-1.642, 1.204e-3
-1.643, 1.229e-3
-1.644, 1.254e-3
-1.645, 1.281e-3
-1.646, 1.308e-3
-1.647, 1.336e-3
-1.648, 1.361e-3
-1.649, 1.386e-3
-1.650, 1.415e-3
-1.651, 1.443e-3
-1.652, 1.473e-3
-1.653, 1.503e-3
-1.654, 1.532e-3
-1.655, 1.563e-3
-1.656, 1.594e-3
-1.657, 1.626e-3
-1.658, 1.658e-3
-1.659, 1.689e-3
-1.660, 1.721e-3
-1.661, 1.753e-3
-1.662, 1.787e-3
-1.663, 1.821e-3
-1.664, 1.856e-3
-1.665, 1.892e-3
-1.666, 1.927e-3
-1.667, 1.965e-3
-1.668, 2.003e-3
-1.669, 2.040e-3
-1.670, 2.071e-3
-1.671, 2.109e-3
-1.672, 2.147e-3
-1.673, 2.184e-3
-1.674, 2.226e-3
-1.675, 2.265e-3
-1.676, 2.305e-3
-1.677, 2.347e-3
-1.678, 2.388e-3
-1.679, 2.433e-3
-1.680, 2.474e-3
-1.681, 2.513e-3
-1.682, 2.556e-3
-1.683, 2.598e-3
-1.684, 2.641e-3
-1.685, 2.689e-3
-1.686, 2.737e-3
-1.687, 2.778e-3
-1.688, 2.824e-3
-1.689, 2.870e-3
-1.690, 2.919e-3
-1.691, 2.968e-3
-1.692, 3.013e-3
-1.693, 3.056e-3
-1.694, 3.108e-3
-1.695, 3.158e-3
-1.696, 3.206e-3
-1.697, 3.260e-3
-1.698, 3.308e-3
-1.699, 3.355e-3
-1.700, 3.374e-3
-1.699, 3.356e-3
-1.698, 3.330e-3
-1.697, 3.301e-3
-1.696, 3.274e-3
-1.695, 3.247e-3
-1.694, 3.214e-3
-1.693, 3.184e-3
-1.692, 3.155e-3
-1.691, 3.125e-3
-1.690, 3.098e-3
-1.689, 3.069e-3
-1.688, 3.032e-3
-1.687, 2.997e-3
-1.686, 2.968e-3
-1.685, 2.934e-3
-1.684, 2.901e-3
-1.683, 2.869e-3
-1.682, 2.838e-3
-1.681, 2.809e-3
-1.680, 2.779e-3
-1.679, 2.745e-3
-1.678, 2.712e-3
-1.677, 2.680e-3
-1.676, 2.644e-3
-1.675, 2.610e-3
-1.674, 2.582e-3
-1.673, 2.551e-3
-1.672, 2.520e-3
-1.671, 2.488e-3
-1.670, 2.457e-3
-1.669, 2.427e-3
-1.668, 2.396e-3
-1.667, 2.363e-3
-1.666, 2.331e-3
-1.665, 2.300e-3
-1.664, 2.270e-3
-1.663, 2.240e-3
-1.662, 2.213e-3
-1.661, 2.185e-3
-1.660, 2.151e-3
-1.659, 2.122e-3
-1.658, 2.094e-3
-1.657, 2.065e-3
-1.656, 2.038e-3
-1.655, 2.010e-3
-1.654, 1.980e-3
-1.653, 1.949e-3
-1.652, 1.923e-3
-1.651, 1.897e-3
-1.650, 1.869e-3
-1.649, 1.841e-3
-1.648, 1.813e-3
-1.647, 1.788e-3
-1.646, 1.762e-3
-1.645, 1.737e-3
-1.644, 1.712e-3
-1.643, 1.687e-3
-1.642, 1.658e-3
-1.641, 1.633e-3
-1.640, 1.608e-3
-1.639, 1.581e-3
-1.638, 1.557e-3
-1.637, 1.534e-3
-1.636, 1.511e-3
-1.635, 1.487e-3
-1.634, 1.464e-3
-1.633, 1.441e-3
-1.632, 1.419e-3
-1.631, 1.396e-3
-1.630, 1.372e-3
-1.629, 1.351e-3
-1.628, 1.330e-3
-1.627, 1.309e-3
-1.626, 1.288e-3
-1.625, 1.268e-3
-1.624, 1.246e-3
-1.623, 1.226e-3
-1.622, 1.206e-3
-1.621, 1.186e-3
-1.620, 1.166e-3
-1.619, 1.148e-3
-1.618, 1.130e-3
-1.617, 1.110e-3
-1.616, 1.091e-3
-1.615, 1.074e-3
-1.614, 1.055e-3
-1.613, 1.038e-3
-1.612, 1.020e-3
-1.611, 1.002e-3
-1.610, 9.848e-4
-1.609, 9.687e-4
-1.608, 9.524e-4
-1.607, 9.366e-4
-1.606, 9.208e-4
-1.605, 9.051e-4
-1.604, 8.896e-4
-1.603, 8.731e-4
-1.602, 8.570e-4
-1.601, 8.422e-4
-1.600, 8.272e-4
-1.599, 8.127e-4
-1.598, 7.986e-4
-1.597, 7.840e-4
-1.596, 7.703e-4
-1.595, 7.568e-4
-1.594, 7.436e-4
-1.593, 7.308e-4
-1.592, 7.171e-4
-1.591, 7.040e-4
-1.590, 6.915e-4
-1.589, 6.790e-4
-1.588, 6.676e-4
-1.587, 6.559e-4
-1.586, 6.441e-4
-1.585, 6.326e-4
-1.584, 6.212e-4
-1.583, 6.100e-4
-1.582, 5.987e-4
-1.581, 5.881e-4
-1.580, 5.772e-4
-1.579, 5.666e-4
-1.578, 5.566e-4
-1.577, 5.465e-4
-1.576, 5.367e-4
-1.575, 5.268e-4
-1.574, 5.173e-4
-1.573, 5.076e-4
-1.572, 4.981e-4
-1.571, 4.888e-4
-1.570, 4.797e-4
-1.569, 4.709e-4
-1.568, 4.626e-4
-1.567, 4.538e-4
-1.566, 4.454e-4
-1.565, 4.374e-4
-1.564, 4.294e-4
-1.563, 4.214e-4
-1.562, 4.138e-4
-1.561, 4.058e-4
-1.560, 3.985e-4
-1.559, 3.909e-4
-1.558, 3.837e-4
-1.557, 3.764e-4
-1.556, 3.696e-4
-1.555, 3.626e-4
-1.554, 3.559e-4
-1.553, 3.493e-4
-1.552, 3.426e-4
-1.551, 3.362e-4
-1.550, 3.298e-4
-1.549, 3.236e-4
-1.548, 3.176e-4
-1.547, 3.114e-4
-1.546, 3.057e-4
-1.545, 3.000e-4
-1.544, 2.945e-4
-1.543, 2.890e-4
-1.542, 2.832e-4
-1.541, 2.777e-4
-1.540, 2.727e-4
-1.539, 2.675e-4
-1.538, 2.625e-4
-1.537, 2.574e-4
-1.536, 2.525e-4
-1.535, 2.477e-4
-1.534, 2.431e-4
-1.533, 2.387e-4
-1.532, 2.340e-4
-1.531, 2.296e-4
-1.530, 2.251e-4
-1.529, 2.208e-4
-1.528, 2.167e-4
-1.527, 2.125e-4
-1.526, 2.085e-4
-1.525, 2.046e-4
-1.524, 2.008e-4
-1.523, 1.968e-4
-1.522, 1.929e-4
-1.521, 1.893e-4
-1.520, 1.857e-4
-1.519, 1.823e-4
-1.518, 1.787e-4
-1.517, 1.752e-4
-1.516, 1.717e-4
-1.515, 1.684e-4
-1.514, 1.652e-4
-1.513, 1.621e-4
-1.512, 1.588e-4
-1.511, 1.557e-4
-1.510, 1.527e-4
-1.509, 1.498e-4
-1.508, 1.469e-4
-1.507, 1.439e-4
-1.506, 1.411e-4
-1.505, 1.384e-4
-1.504, 1.357e-4
-1.503, 1.331e-4
-1.502, 1.301e-4
-1.501, 1.277e-4
-1.500, 1.253e-4
-1.499, 1.228e-4
-1.498, 1.205e-4
-1.497, 1.179e-4
-1.496, 1.157e-4
-1.495, 1.133e-4
-1.494, 1.111e-4
-1.493, 1.091e-4
-1.492, 1.067e-4
-1.491, 1.046e-4
-1.490, 1.026e-4
-1.489, 1.005e-4
-1.488, 9.862e-5
-1.487, 9.659e-5
-1.486, 9.458e-5
-1.485, 9.267e-5
-1.484, 9.078e-5
-1.483, 8.899e-5
-1.482, 8.706e-5
-1.481, 8.532e-5
-1.480, 8.366e-5
-1.479, 8.206e-5
-1.478, 8.037e-5
-1.477, 7.862e-5
-1.476, 7.695e-5
-1.475, 7.539e-5
-1.474, 7.391e-5
-1.473, 7.251e-5
-1.472, 7.073e-5
-1.471, 6.931e-5
-1.470, 6.794e-5
-1.469, 6.668e-5
-1.468, 6.522e-5
-1.467, 6.369e-5
-1.466, 6.239e-5
-1.465, 6.118e-5
-1.464, 5.983e-5
-1.463, 5.860e-5
-1.462, 5.728e-5
-1.461, 5.605e-5
-1.460, 5.489e-5
-1.459, 5.370e-5
-1.458, 5.264e-5
-1.457, 5.129e-5
-1.456, 5.023e-5
-1.455, 4.913e-5
-1.454, 4.815e-5
-1.453, 4.726e-5
-1.452, 4.596e-5
-1.451, 4.494e-5
-1.450, 4.411e-5
-1.449, 4.309e-5
-1.448, 4.212e-5
-1.447, 4.120e-5
-1.446, 4.017e-5
-1.445, 3.934e-5
-1.444, 3.849e-5
-1.443, 3.758e-5
-1.442, 3.667e-5
-1.441, 3.579e-5
-1.440, 3.512e-5
-1.439, 3.428e-5
-1.438, 3.353e-5
-1.437, 3.266e-5
-1.436, 3.187e-5
-1.435, 3.125e-5
-1.434, 3.043e-5
-1.433, 2.970e-5
-1.432, 2.898e-5
-1.431, 2.818e-5
-1.430, 2.751e-5
-1.429, 2.705e-5
-1.428, 2.640e-5
-1.427, 2.546e-5
-1.426, 2.493e-5
-1.425, 2.435e-5
-1.424, 2.384e-5
-1.423, 2.332e-5
-1.422, 2.251e-5
-1.421, 2.179e-5
-1.420, 2.140e-5
-1.419, 2.099e-5
-1.418, 2.048e-5
-1.417, 1.969e-5
-1.416, 1.927e-5
-1.415, 1.881e-5
-1.414, 1.829e-5
-1.413, 1.790e-5
-1.412, 1.729e-5
-1.411, 1.673e-5
-1.410, 1.644e-5
-1.409, 1.599e-5
-1.408, 1.560e-5
-1.407, 1.498e-5
-1.406, 1.451e-5
-1.405, 1.422e-5
-1.404, 1.384e-5
-1.403, 1.350e-5
-1.402, 1.303e-5
-1.401, 1.250e-5
-1.400, 1.225e-5
-1.399, 1.194e-5
-1.398, 1.158e-5
-1.397, 1.104e-5
-1.396, 1.075e-5
-1.395, 1.037e-5
-1.394, 1.010e-5
-1.393, 9.815e-6
-1.392, 9.410e-6
-1.391, 9.025e-6
-1.390, 8.759e-6
-1.389, 8.493e-6
-1.388, 8.147e-6
-1.387, 7.772e-6
-1.386, 7.457e-6
-1.385, 7.210e-6
-1.384, 6.973e-6
-1.383, 6.825e-6
-1.382, 6.312e-6
-1.381, 6.056e-6
-1.380, 5.878e-6
-1.379, 5.592e-6
-1.378, 5.493e-6
-1.377, 5.030e-6
-1.376, 4.862e-6
-1.375, 4.576e-6
-1.374, 4.349e-6
-1.373, 4.221e-6
-1.372, 3.905e-6
-1.371, 3.570e-6
-1.370, 3.491e-6
-1.369, 3.283e-6
-1.368, 3.047e-6
-1.367, 2.958e-6
-1.366, 2.524e-6
-1.365, 2.484e-6
-1.364, 2.336e-6
-1.363, 2.099e-6
-1.362, 1.853e-6
-1.361, 1.586e-6
-1.360, 1.547e-6
-1.359, 1.458e-6
-1.358, 1.281e-6
-1.357, 9.057e-7
-1.356, 5.900e-7
-1.355, 6.985e-7
-1.354, 5.209e-7
-1.353, 4.025e-7
-1.352, 2.644e-7
-1.351, 3.749e-8
-1.350, -1.598e-7
-1.349, -1.500e-7
-1.348, -3.966e-7
-1.347, -5.643e-7
-1.346, -8.406e-7
-1.345, -7.912e-7
-1.344, -9.392e-7
-1.343, -1.008e-6
-1.342, -1.344e-6
-1.341, -1.521e-6
-1.340, -1.521e-6
-1.339, -1.630e-6
-1.338, -1.817e-6
-1.337, -1.886e-6
-1.336, -2.143e-6
-1.335, -2.103e-6
-1.334, -2.212e-6
-1.333, -2.360e-6
-1.332, -2.350e-6
-1.331, -2.616e-6
-1.330, -2.686e-6
-1.329, -2.774e-6
-1.328, -2.824e-6
-1.327, -3.031e-6
-1.326, -3.021e-6
-1.325, -3.120e-6
-1.324, -3.208e-6
-1.323, -3.327e-6
-1.322, -3.416e-6
-1.321, -3.682e-6
-1.320, -3.702e-6
-1.319, -3.781e-6
-1.318, -3.731e-6
-1.317, -3.948e-6
-1.316, -4.185e-6
-1.315, -4.146e-6
-1.314, -4.077e-6
-1.313, -4.175e-6
-1.312, -4.343e-6
-1.311, -4.471e-6
-1.310, -4.580e-6
-1.309, -4.521e-6
-1.308, -4.501e-6
-1.307, -4.708e-6
-1.306, -4.866e-6
-1.305, -4.886e-6
-1.304, -4.895e-6
-1.303, -4.955e-6
-1.302, -5.053e-6
-1.301, -5.261e-6
-1.300, -5.201e-6
-1.299, -5.280e-6
-1.298, -5.320e-6
-1.297, -5.458e-6
-1.296, -5.468e-6
-1.295, -5.399e-6
-1.294, -5.606e-6
-1.293, -5.586e-6
-1.292, -5.655e-6
-1.291, -5.931e-6
-1.290, -5.783e-6
-1.289, -5.774e-6
-1.288, -5.931e-6
-1.287, -5.951e-6
-1.286, -6.099e-6
-1.285, -6.129e-6
-1.284, -6.089e-6
-1.283, -6.109e-6
-1.282, -6.139e-6
-1.281, -6.435e-6
-1.280, -6.415e-6
-1.279, -6.484e-6
-1.278, -6.405e-6
-1.277, -6.543e-6
-1.276, -6.740e-6
-1.275, -6.632e-6
-1.274, -6.642e-6
-1.273, -6.721e-6
-1.272, -6.701e-6
-1.271, -6.829e-6
-1.270, -6.869e-6
-1.269, -6.839e-6
-1.268, -6.957e-6
-1.267, -6.908e-6
-1.266, -7.135e-6
-1.265, -7.105e-6
-1.264, -7.096e-6
-1.263, -7.046e-6
-1.262, -7.273e-6
-1.261, -7.313e-6
-1.260, -7.293e-6
-1.259, -7.273e-6
-1.258, -7.303e-6
-1.257, -7.362e-6
-1.256, -7.431e-6
-1.255, -7.431e-6
-1.254, -7.500e-6
-1.253, -7.569e-6
-1.252, -7.599e-6
-1.251, -7.766e-6
-1.250, -7.707e-6
-1.249, -7.658e-6
-1.248, -7.697e-6
-1.247, -7.786e-6
-1.246, -7.944e-6
-1.245, -7.924e-6
-1.244, -7.806e-6
-1.243, -7.885e-6
-1.242, -7.865e-6
-1.241, -8.141e-6
-1.240, -8.112e-6
-1.239, -8.092e-6
-1.238, -8.033e-6
-1.237, -8.122e-6
-1.236, -8.102e-6
-1.235, -8.299e-6
-1.234, -8.210e-6
-1.233, -8.260e-6
-1.232, -8.250e-6
-1.231, -8.339e-6
-1.230, -8.467e-6
-1.229, -8.516e-6
-1.228, -8.408e-6
-1.227, -8.447e-6
-1.226, -8.645e-6
-1.225, -8.763e-6
-1.224, -8.575e-6
-1.223, -8.566e-6
-1.222, -8.773e-6
-1.221, -8.704e-6
-1.220, -8.763e-6
-1.219, -8.822e-6
-1.218, -8.723e-6
-1.217, -8.832e-6
-1.216, -9.010e-6
-1.215, -8.970e-6
-1.214, -8.960e-6
-1.213, -8.931e-6
-1.212, -9.019e-6
-1.211, -9.098e-6
-1.210, -9.167e-6
-1.209, -9.059e-6
-1.208, -9.177e-6
-1.207, -9.158e-6
-1.206, -9.345e-6
-1.205, -9.138e-6
-1.204, -9.256e-6
-1.203, -9.365e-6
-1.202, -9.335e-6
-1.201, -9.493e-6
-1.200, -9.493e-6
-1.199, -9.404e-6
-1.198, -9.276e-6
-1.197, -9.384e-6
-1.196, -9.532e-6
-1.195, -9.592e-6
-1.194, -9.513e-6
-1.193, -9.513e-6
-1.192, -9.562e-6
-1.191, -9.779e-6
-1.190, -9.740e-6
-1.189, -9.720e-6
-1.188, -9.720e-6
-1.187, -9.641e-6
-1.186, -9.878e-6
-1.185, -9.868e-6
-1.184, -9.809e-6
-1.183, -9.828e-6
-1.182, -9.907e-6
-1.181, -9.957e-6
-1.180, -9.917e-6
-1.179, -9.957e-6
-1.178, -1.004e-5
-1.177, -1.004e-5
-1.176, -1.021e-5
-1.175, -1.010e-5
-1.174, -1.018e-5
-1.173, -1.009e-5
-1.172, -1.018e-5
-1.171, -1.027e-5
-1.170, -1.029e-5
-1.169, -1.026e-5
-1.168, -1.029e-5
-1.167, -1.040e-5
-1.166, -1.044e-5
-1.165, -1.044e-5
-1.164, -1.048e-5
-1.163, -1.043e-5
-1.162, -1.049e-5
-1.161, -1.058e-5
-1.160, -1.050e-5
-1.159, -1.054e-5
-1.158, -1.054e-5
-1.157, -1.056e-5
-1.156, -1.075e-5
-1.155, -1.070e-5
-1.154, -1.069e-5
-1.153, -1.064e-5
-1.152, -1.084e-5
-1.151, -1.080e-5
-1.150, -1.083e-5
-1.149, -1.083e-5
-1.148, -1.072e-5
-1.147, -1.081e-5
-1.146, -1.089e-5
-1.145, -1.080e-5
-1.144, -1.098e-5
-1.143, -1.091e-5
-1.142, -1.106e-5
-1.141, -1.104e-5
-1.140, -1.089e-5
-1.139, -1.109e-5
-1.138, -1.098e-5
-1.137, -1.110e-5
-1.136, -1.117e-5
-1.135, -1.105e-5
-1.134, -1.113e-5
-1.133, -1.102e-5
-1.132, -1.118e-5
-1.131, -1.135e-5
-1.130, -1.119e-5
-1.129, -1.130e-5
-1.128, -1.107e-5
-1.127, -1.122e-5
-1.126, -1.145e-5
-1.125, -1.126e-5
-1.124, -1.141e-5
-1.123, -1.134e-5
-1.122, -1.135e-5
-1.121, -1.138e-5
-1.120, -1.139e-5
-1.119, -1.148e-5
-1.118, -1.139e-5
-1.117, -1.141e-5
-1.116, -1.156e-5
-1.115, -1.142e-5
-1.114, -1.146e-5
-1.113, -1.155e-5
-1.112, -1.153e-5
-1.111, -1.154e-5
-1.110, -1.158e-5
-1.109, -1.158e-5
-1.108, -1.149e-5
-1.107, -1.156e-5
-1.106, -1.168e-5
-1.105, -1.168e-5
-1.104, -1.170e-5
-1.103, -1.154e-5
-1.102, -1.157e-5
-1.101, -1.184e-5
-1.100, -1.174e-5
-1.099, -1.173e-5
-1.098, -1.164e-5
-1.097, -1.175e-5
-1.096, -1.169e-5
-1.095, -1.182e-5
-1.094, -1.187e-5
-1.093, -1.166e-5
-1.092, -1.171e-5
-1.091, -1.191e-5
-1.090, -1.174e-5
-1.089, -1.178e-5
-1.088, -1.170e-5
-1.087, -1.190e-5
-1.086, -1.183e-5
-1.085, -1.179e-5
-1.084, -1.179e-5
-1.083, -1.177e-5
-1.082, -1.181e-5
-1.081, -1.187e-5
-1.080, -1.186e-5
-1.079, -1.183e-5
-1.078, -1.179e-5
-1.077, -1.187e-5
-1.076, -1.189e-5
-1.075, -1.195e-5
-1.074, -1.199e-5
-1.073, -1.189e-5
-1.072, -1.189e-5
-1.071, -1.200e-5
-1.070, -1.197e-5
-1.069, -1.201e-5
-1.068, -1.184e-5
-1.067, -1.193e-5
-1.066, -1.197e-5
-1.065, -1.201e-5
-1.064, -1.189e-5
-1.063, -1.197e-5
-1.062, -1.198e-5
-1.061, -1.198e-5
-1.060, -1.203e-5
-1.059, -1.205e-5
-1.058, -1.206e-5
-1.057, -1.192e-5
-1.056, -1.209e-5
-1.055, -1.192e-5
-1.054, -1.194e-5
-1.053, -1.198e-5
-1.052, -1.196e-5
-1.051, -1.195e-5
-1.050, -1.193e-5
-1.049, -1.203e-5
-1.048, -1.202e-5
-1.047, -1.214e-5
-1.046, -1.211e-5
-1.045, -1.208e-5
-1.044, -1.195e-5
-1.043, -1.211e-5
-1.042, -1.213e-5
-1.041, -1.219e-5
-1.040, -1.210e-5
-1.039, -1.202e-5
-1.038, -1.223e-5
-1.037, -1.212e-5
-1.036, -1.213e-5
-1.035, -1.209e-5
-1.034, -1.210e-5
-1.033, -1.221e-5
-1.032, -1.208e-5
-1.031, -1.221e-5
-1.030, -1.229e-5
-1.029, -1.206e-5
-1.028, -1.213e-5
-1.027, -1.219e-5
-1.026, -1.229e-5
-1.025, -1.233e-5
-1.024, -1.231e-5
-1.023, -1.234e-5
-1.022, -1.236e-5
-1.021, -1.244e-5
-1.020, -1.246e-5
-1.019, -1.238e-5
-1.018, -1.246e-5
-1.017, -1.241e-5
-1.016, -1.255e-5
-1.015, -1.246e-5
-1.014, -1.233e-5
-1.013, -1.235e-5
-1.012, -1.246e-5
-1.011, -1.255e-5
-1.010, -1.254e-5
-1.009, -1.250e-5
-1.008, -1.251e-5
-1.007, -1.242e-5
-1.006, -1.270e-5
-1.005, -1.257e-5
-1.004, -1.250e-5
-1.003, -1.278e-5
-1.002, -1.258e-5
-1.001, -1.270e-5
