Potential V vs RHE, Current mA cm-2
0.05339999999999995,0.0557537723276811
0.05239999999999995,-0.0052231141191017155
0.051399999999999946,-0.04712403339850437
0.050399999999999945,-0.06442595259585376
0.049399999999999944,-0.07332448667200485
0.04839999999999994,-0.07933700969643126
0.04739999999999994,-0.08423191079396428
0.04639999999999994,-0.08826383799857963
0.04539999999999994,-0.09143279131027732
0.04439999999999994,-0.0949695695599399
0.04339999999999994,-0.09798290462865245
0.04239999999999994,-0.1015904184433083
0.04139999999999994,-0.10365589694111124
0.040399999999999936,-0.10618823016786964
0.039399999999999935,-0.10897521142860378
0.038399999999999934,-0.11183292825433114
0.03739999999999993,-0.11377108273514626
0.03639999999999993,-0.1156385016509681
0.03539999999999993,-0.11800106952174272
0.03439999999999993,-0.11995337111555646
0.03339999999999993,-0.12180664291837967
0.03239999999999993,-0.12387212141618263
0.03139999999999993,-0.12593759991398557
0.030399999999999927,-0.12730986987485465
0.029399999999999926,-0.12903581766069
0.028399999999999925,-0.13149741532245518
0.027399999999999924,-0.1329404208483175
0.026399999999999924,-0.13492101666812856
0.025399999999999923,-0.13622255106400438
0.024399999999999922,-0.13766555658986673
0.02339999999999992,-0.13944809282769668
0.02239999999999992,-0.1409759810315509
0.02139999999999992,-0.1426028990263957
0.020399999999999918,-0.14387613919627423
0.019399999999999917,-0.14514937936615277
0.018399999999999916,-0.14727144631595032
0.017399999999999916,-0.14840321535584233
0.016399999999999915,-0.1498179266557074
0.015399999999999914,-0.1509496956955994
0.014399999999999913,-0.15236440699546444
0.013399999999999912,-0.15392058942531597
0.012399999999999911,-0.15547677185516753
0.01139999999999991,-0.15675001202504607
0.01039999999999991,-0.15802325219492458
0.009399999999999908,-0.15901355010483012
0.008399999999999908,-0.16014531914472213
0.007399999999999907,-0.1622673860945197
0.006399999999999906,-0.16339915513441172
0.005399999999999905,-0.16467239530429026
0.004399999999999904,-0.1659456354741688
0.003399999999999903,-0.16736034677403386
0.002399999999999902,-0.16905800033387192
0.0013999999999999013,-0.16990682711379093
0.00039999999999990044,-0.17089712502369644
-0.0006000000000001005,-0.17217036519357498
-0.0016000000000001013,-0.1734436053634535
-0.0026000000000001022,-0.17528273005327805
-0.003600000000000103,-0.17627302796318356
-0.004600000000000104,-0.1772633258730891
-0.005600000000000105,-0.17881950830294063
-0.006600000000000106,-0.18023421960280567
-0.007600000000000107,-0.18164893090267073
-0.008600000000000108,-0.18306364220253574
-0.009600000000000108,-0.1844783535024008
-0.01060000000000011,-0.1860345359322523
-0.01160000000000011,-0.18744924723211737
-0.012600000000000111,-0.18957131418191492
-0.013600000000000112,-0.19098602548177993
-0.014600000000000113,-0.19169338113171247
-0.015600000000000114,-0.1931080924315775
-0.016600000000000115,-0.19466427486142904
-0.017600000000000116,-0.19636192842126707
-0.018600000000000116,-0.19820105311109162
-0.019600000000000117,-0.19933282215098366
-0.020600000000000118,-0.20060606232086217
-0.02160000000000012,-0.20258665814067325
-0.02260000000000012,-0.2041428405705248
-0.02360000000000012,-0.20612343639033584
-0.024600000000000122,-0.2078210899501739
-0.025600000000000123,-0.20923580125003893
-0.026600000000000124,-0.21149933932982298
-0.027600000000000124,-0.21319699288966104
-0.028600000000000125,-0.21489464644949907
-0.029600000000000126,-0.21659230000933713
-0.030600000000000127,-0.21843142469916169
-0.03160000000000013,-0.22083643390893223
-0.03260000000000013,-0.2232414431187028
-0.03360000000000013,-0.22479762554855431
-0.03460000000000002,-0.22663675023837887
-0.03560000000000002,-0.2293247017081224
-0.03660000000000002,-0.231729710917893
-0.03760000000000002,-0.23413472012766354
-0.03860000000000002,-0.23625678707746112
-0.039600000000000024,-0.2385203251572452
-0.040600000000000025,-0.24092533436701574
-0.041600000000000026,-0.24333034357678635
-0.04260000000000003,-0.2460182950465299
-0.04360000000000003,-0.24870624651627343
-0.04460000000000003,-0.2512527268560305
-0.04560000000000003,-0.2540821494557606
-0.04660000000000003,-0.25662862979551765
-0.04760000000000003,-0.25959952352523424
-0.04860000000000003,-0.2628533595149239
-0.04960000000000003,-0.26554131098466743
-0.050600000000000034,-0.2686536758443705
-0.051600000000000035,-0.27190751183406003
-0.052600000000000036,-0.2751613478237496
-0.053600000000000037,-0.27855665494342574
-0.05460000000000004,-0.2813860775431558
-0.05560000000000004,-0.28478138466283187
-0.05660000000000004,-0.2888840474324405
-0.05760000000000004,-0.29256229681208956
-0.05860000000000004,-0.2960990750617522
-0.05960000000000004,-0.29977732444140126
-0.06060000000000004,-0.30373851608102337
-0.061600000000000044,-0.308124121110605
-0.06260000000000004,-0.3119438416202406
-0.06360000000000005,-0.3164709177798087
-0.06460000000000005,-0.3204321094194308
-0.06560000000000005,-0.3243933010590529
-0.06660000000000005,-0.329203319478594
-0.06760000000000005,-0.3340133378981352
-0.06860000000000005,-0.3388233563176763
-0.06960000000000005,-0.3434919036072309
-0.07060000000000005,-0.34844339315675854
-0.07160000000000005,-0.35311194044631317
-0.07260000000000005,-0.3587707856457733
-0.07360000000000005,-0.36343933293532793
-0.07460000000000006,-0.3689567070048016
-0.07560000000000006,-0.37461555220426174
-0.07660000000000006,-0.3799914551437488
-0.07760000000000006,-0.385933242603182
-0.07860000000000006,-0.3913091455426691
-0.07960000000000006,-0.39725093300210224
-0.08060000000000006,-0.4034756627215085
-0.08160000000000006,-0.40955892131092814
-0.08260000000000006,-0.4157836510303343
-0.08360000000000006,-0.4218669096197539
-0.08460000000000006,-0.42823311046914664
-0.08560000000000006,-0.4348822535785123
-0.08660000000000007,-0.4413899255578914
-0.08760000000000007,-0.4484634820572166
-0.08860000000000007,-0.45596145194650134
-0.08960000000000007,-0.4627520661858534
-0.09060000000000007,-0.46968415155519216
-0.09160000000000007,-0.47718212144447686
-0.09260000000000007,-0.4845386202037751
-0.09360000000000007,-0.4923195323530327
-0.09460000000000007,-0.4999589733723039
-0.09560000000000007,-0.5074569432615886
-0.09660000000000007,-0.5153793265408328
-0.09760000000000008,-0.5234431809500636
-0.09860000000000008,-0.5313655642293078
-0.09960000000000008,-0.539570889768525
-0.10060000000000008,-0.5479176864377286
-0.10160000000000008,-0.5565474253669055
-0.10260000000000008,-0.5651771642960822
-0.10360000000000008,-0.5739483743552454
-0.10460000000000008,-0.5827195844144085
-0.10560000000000008,-0.5910663810836124
-0.10660000000000008,-0.6005449467927081
-0.10760000000000008,-0.6093161568518712
-0.10860000000000009,-0.618228838041021
-0.10960000000000009,-0.6272829903601572
-0.11060000000000009,-0.6366200849392665
-0.11160000000000009,-0.6463815929083352
-0.11260000000000009,-0.655860158617431
-0.11360000000000009,-0.6651972531965403
-0.11460000000000009,-0.6753831745555685
-0.11560000000000009,-0.6857105670445833
-0.11660000000000009,-0.6953306038836656
-0.1176000000000001,-0.7048091695927613
-0.1186000000000001,-0.7151365620817761
-0.1196000000000001,-0.7248980700508447
-0.1206000000000001,-0.7349425202798866
-0.1216000000000001,-0.7449869705089284
-0.1226000000000001,-0.7553143629979431
-0.1236000000000001,-0.7649343998370254
-0.1246000000000001,-0.7755447345860131
-0.1256000000000001,-0.7860135982050144
-0.1266000000000001,-0.7959165773040696
-0.1276000000000001,-0.8070927965730035
-0.1286000000000001,-0.8177031313219912
-0.1296000000000001,-0.828030523811006
-0.1306000000000001,-0.8383579163000208
-0.1316000000000001,-0.8486853087890355
-0.1326000000000001,-0.8591541724080368
-0.1336000000000001,-0.8700474494169976
-0.1346000000000001,-0.8798089573860663
-0.1356000000000001,-0.8912681189149732
-0.1366000000000001,-0.9024443381839068
-0.1376000000000001,-0.9124887884129486
-0.1386000000000001,-0.9230991231619364
-0.1396000000000001,-0.9339924001708971
-0.1406000000000001,-0.9448856771798579
-0.14160000000000011,-0.9554960119288457
-0.14260000000000012,-0.965964875547847
-0.14360000000000012,-0.9769996236867944
-0.14460000000000012,-0.9873270161758091
-0.14560000000000012,-0.9976544086648237
-0.14660000000000012,-1.0088306279337578
-0.14760000000000012,-1.019582433812732
-0.14860000000000012,-1.0300512974317333
-0.14960000000000012,-1.0410860455706805
-0.15060000000000012,-1.0511304957997225
-0.15160000000000012,-1.0615993594187236
-0.15260000000000012,-1.072492636427684
-0.15360000000000013,-1.0829615000466857
-0.15460000000000013,-1.0931474214057137
-0.15560000000000013,-1.1036162850247149
-0.15660000000000013,-1.114226619773703
-0.15760000000000013,-1.1249784256526771
-0.15860000000000013,-1.1353058181416917
-0.15960000000000002,-1.1453502683707337
-0.16060000000000002,-1.1546873629498429
-0.16160000000000002,-1.1668538801286823
-0.16260000000000002,-1.1771812726176971
-0.16360000000000002,-1.1873671939767252
-0.16460000000000002,-1.1974116442057672
-0.16560000000000002,-1.2080219789547548
-0.16660000000000003,-1.2199055538736212
-0.16760000000000003,-1.2298085329726764
-0.16860000000000003,-1.2394285698117586
-0.16960000000000003,-1.2491900777808274
-0.17060000000000003,-1.2595174702698424
-0.17160000000000003,-1.2694204493688974
-0.17260000000000003,-1.2796063707279257
-0.17360000000000003,-1.289226407567008
-0.17460000000000003,-1.2989879155360766
-0.17560000000000003,-1.3093153080250914
-0.17660000000000003,-1.319642700514106
-0.17760000000000004,-1.329970093003121
-0.17860000000000004,-1.3401560143621492
-0.17960000000000004,-1.349917522331218
-0.18060000000000004,-1.3595375591703005
-0.18160000000000004,-1.369864951659315
-0.18260000000000004,-1.3793435173684108
-0.18360000000000004,-1.389529438727439
-0.18460000000000004,-1.3987250621765617
-0.18560000000000004,-1.408628041275617
-0.18660000000000004,-1.4189554337646317
-0.18760000000000004,-1.4288584128636872
-0.18860000000000005,-1.4373466806628774
-0.18960000000000005,-1.4472496597619326
-0.19060000000000005,-1.4571526388609877
-0.19160000000000005,-1.4684703292599082
-0.19260000000000005,-1.4769585970590984
-0.19360000000000005,-1.4868615761581534
-0.19460000000000005,-1.4967645552572086
-0.19560000000000005,-1.506667534356264
-0.19660000000000005,-1.5151558021554543
-0.19760000000000005,-1.5250587812545096
-0.19860000000000005,-1.5349617603535646
-0.19960000000000006,-1.543450028152755
-0.20060000000000006,-1.5533530072518102
-0.20160000000000006,-1.5632559863508655
-0.20260000000000006,-1.5731589654499207
-0.20360000000000006,-1.5816472332491107
-0.20460000000000006,-1.5915502123481662
-0.20560000000000006,-1.6000384801473564
-0.20660000000000006,-1.6099414592464116
-0.20760000000000006,-1.6184297270456018
-0.20860000000000006,-1.6283327061446573
-0.20960000000000006,-1.6368209739438475
-0.21060000000000006,-1.6467239530429028
-0.21160000000000007,-1.655212220842093
-0.21260000000000007,-1.6637004886412832
-0.21360000000000007,-1.6736034677403384
-0.21460000000000007,-1.6806770242396636
-0.21560000000000007,-1.690580003338719
-0.21660000000000007,-1.6990682711379093
-0.21760000000000007,-1.7089712502369643
-0.21860000000000007,-1.7188742293360195
-0.21960000000000007,-1.7259477858353447
-0.22060000000000007,-1.734436053634535
-0.22160000000000007,-1.7429243214337253
-0.22260000000000008,-1.7499978779330503
-0.22360000000000008,-1.7584861457322407
-0.22460000000000008,-1.766974413531431
-0.22560000000000008,-1.775462681330621
-0.22660000000000008,-1.7839509491298113
-0.22760000000000008,-1.7924392169290013
-0.22860000000000008,-1.7995127734283267
-0.22960000000000008,-1.8065863299276517
-0.23060000000000008,-1.815074597726842
-0.23160000000000008,-1.822148154226167
-0.23260000000000008,-1.8292217107254924
-0.23360000000000009,-1.8362952672248178
-0.2346000000000001,-1.8433688237241426
-0.2356000000000001,-1.8518570915233332
-0.2366000000000001,-1.8589306480226582
-0.2376000000000001,-1.8660042045219833
-0.2386000000000001,-1.8730777610213083
-0.2396000000000001,-1.8787366062207687
-0.2406000000000001,-1.8858101627200938
-0.2416000000000001,-1.892883719219419
-0.2426000000000001,-1.8985425644188794
-0.2436000000000001,-1.9056161209182045
-0.2446000000000001,-1.9112749661176645
-0.2456000000000001,-1.9169338113171246
-0.2466000000000001,-1.92400736781645
-0.2476000000000001,-1.9296662130159101
-0.2486000000000001,-1.93532505821537
-0.2496000000000001,-1.9409839034148304
-0.2506000000000001,-1.9466427486142908
-0.2516000000000001,-1.9523015938137507
-0.2526000000000001,-1.9565457277133458
-0.2536000000000001,-1.9622045729128061
-0.2546000000000001,-1.9664487068124006
-0.2556000000000001,-1.972107552011861
-0.2566000000000001,-1.9763516859114565
-0.2576000000000001,-1.980595819811051
-0.2586000000000001,-1.9848399537106465
-0.2596000000000001,-1.9890840876102414
-0.2606000000000001,-1.993328221509837
-0.2616000000000001,-1.9975723554094316
-0.2626000000000001,-2.0004017780091616
-0.2636000000000001,-2.004645911908757
-0.2646000000000001,-2.007475334508487
-0.2656000000000001,-2.011719468408082
-0.2666000000000001,-2.014548891007812
-0.2676000000000001,-2.017378313607542
-0.2686000000000001,-2.0216224475071374
-0.2696000000000001,-2.0244518701068674
-0.2706000000000001,-2.0272812927065975
-0.2716000000000001,-2.0301107153063276
-0.2726000000000001,-2.0329401379060577
-0.2736000000000001,-2.0343548492059225
-0.2746000000000001,-2.0357695605057877
-0.2756000000000001,-2.038598983105518
-0.2766000000000001,-2.044257828304978
-0.2776000000000001,-2.045672539604843
-0.2786000000000001,-2.045672539604843
-0.2796000000000001,-2.047087250904708
-0.2806000000000001,-2.049916673504438
-0.28160000000000013,-2.051331384804303
-0.28260000000000013,-2.052746096104168
-0.28360000000000013,-2.054160807404033
-0.2846,-2.0555755187038987
-0.2856,-2.0569902300037635
-0.2866,-2.0584049413036287
-0.2876,-2.0598196526034935
-0.2886,-2.0612343639033583
-0.2896,-2.0626490752032236
-0.2906,-2.0640637865030884
-0.2916,-2.0640637865030884
-0.2926,-2.0654784978029537
-0.2936,-2.0668932091028185
-0.29460000000000003,-2.0683079204026833
-0.29560000000000003,-2.0697226317025486
-0.29660000000000003,-2.071137343002414
-0.29760000000000003,-2.072552054302279
-0.29860000000000003,-2.073966765602144
-0.29960000000000003,-2.0753814769020087
-0.30060000000000003,-2.0753814769020087
-0.30160000000000003,-2.0782108995017388
-0.30260000000000004,-2.079625610801604
-0.30360000000000004,-2.081040322101469
-0.30460000000000004,-2.082455033401334
-0.30560000000000004,-2.083869744701199
-0.30660000000000004,-2.0866991673009294
-0.30760000000000004,-2.0881138786007942
-0.30860000000000004,-2.0895285899006595
-0.30960000000000004,-2.092358012500389
-0.31060000000000004,-2.0937727238002544
-0.31160000000000004,-2.0966021463999844
-0.31260000000000004,-2.0994315689997145
-0.31360000000000005,-2.1008462802995793
-0.31460000000000005,-2.10367570289931
-0.31560000000000005,-2.1065051254990395
-0.31660000000000005,-2.1093345480987695
-0.31760000000000005,-2.1121639706984996
-0.31860000000000005,-2.116408104598095
-0.31960000000000005,-2.1192375271978254
-0.32060000000000005,-2.122066949797555
-0.32160000000000005,-2.12631108369715
-0.32260000000000005,-2.1305552175967453
-0.32360000000000005,-2.133384640196476
-0.32460000000000006,-2.13762877409607
-0.32560000000000006,-2.1418729079956655
-0.32660000000000006,-2.1461170418952604
-0.32760000000000006,-2.150361175794856
-0.32860000000000006,-2.1546053096944506
-0.32960000000000006,-2.158849443594046
-0.33060000000000006,-2.1645082887935065
-0.33160000000000006,-2.1687524226931014
-0.33260000000000006,-2.174411267892561
-0.33360000000000006,-2.1800701130920217
-0.33460000000000006,-2.184314246991617
-0.33560000000000006,-2.1899730921910767
-0.33660000000000007,-2.1956319373905373
-0.33760000000000007,-2.201290782589997
-0.33860000000000007,-2.208364339089322
-0.33960000000000007,-2.2140231842887825
-0.34060000000000007,-2.2196820294882422
-0.34160000000000007,-2.226755585987568
-0.34260000000000007,-2.2338291424868926
-0.34360000000000007,-2.2409026989862184
-0.3446000000000001,-2.2479762554855434
-0.3456000000000001,-2.253635100685003
-0.3466000000000001,-2.2621233684841937
-0.34759999999999996,-2.2691969249835187
-0.3486000000000001,-2.276270481482844
-0.34959999999999997,-2.283344037982169
-0.3506000000000001,-2.2918323057813597
-0.35159999999999997,-2.3003205735805494
-0.3526000000000001,-2.307394130079875
-0.35359999999999997,-2.3158823978790646
-0.3546000000000001,-2.3229559543783904
-0.35559999999999997,-2.33144422217758
-0.3566000000000001,-2.339932489976771
-0.3576,-2.348420757775961
-0.3586000000000001,-2.3569090255751513
-0.3596,-2.3668120046742067
-0.3606000000000001,-2.3753002724733965
-0.3616,-2.383788540272587
-0.3626000000000001,-2.392276808071777
-0.3636,-2.4021797871708324
-0.3646000000000001,-2.4106680549700226
-0.3656,-2.4191563227692128
-0.3666000000000001,-2.427644590568403
-0.3676,-2.437547569667458
-0.3686000000000001,-2.4460358374666487
-0.3696,-2.4559388165657037
-0.3706000000000001,-2.465841795664759
-0.3716,-2.4743300634639493
-0.3726000000000001,-2.4842330425630044
-0.3736,-2.4927213103621946
-0.3746000000000001,-2.5012095781613843
-0.3756,-2.5111125572604402
-0.3766000000000001,-2.5196008250596305
-0.3776,-2.5280890928588207
-0.3786000000000001,-2.5379920719578757
-0.3796,-2.546480339757066
-0.3806000000000001,-2.554968607556256
-0.3816,-2.5634568753554463
-0.3826000000000001,-2.5719451431546365
-0.3836,-2.5804334109538267
-0.3846000000000001,-2.588921678753017
-0.3856,-2.597409946552207
-0.3866000000000001,-2.6044835030515325
-0.3876,-2.6129717708507227
-0.3886000000000001,-2.6200453273500477
-0.3896,-2.6285335951492383
-0.3906000000000001,-2.634192440348698
-0.3916,-2.6426807081478887
-0.3926000000000001,-2.6497542646472136
-0.3936,-2.655413109846674
-0.3946000000000001,-2.662486666345999
-0.3956,-2.6681455115454593
-0.3966000000000001,-2.6738043567449195
-0.3976,-2.6794632019443796
-0.3986000000000001,-2.6851220471438397
-0.3996,-2.6907808923433
-0.4006000000000001,-2.6950250262428948
-0.4016,-2.69926916014249
-0.4026000000000001,-2.7035132940420854
-0.4036,-2.7077574279416803
-0.4046000000000001,-2.7105868505414104
-0.4056,-2.7148309844410052
-0.40660000000000013,-2.7176604070407357
-0.4076,-2.720489829640466
-0.40860000000000013,-2.7219045409403306
-0.4096,-2.7247339635400607
-0.41060000000000013,-2.7261486748399255
-0.4116,-2.7261486748399255
-0.41260000000000013,-2.7275633861397908
-0.4136,-2.7275633861397908
-0.41460000000000014,-2.7275633861397908
-0.4156,-2.7275633861397908
-0.41660000000000014,-2.7275633861397908
-0.4176,-2.7261486748399255
-0.41860000000000014,-2.7247339635400607
-0.41960000000000003,-2.7219045409403306
-0.42060000000000014,-2.720489829640466
-0.42160000000000003,-2.7176604070407357
-0.42260000000000014,-2.7148309844410052
-0.42360000000000003,-2.712001561841275
-0.42460000000000014,-2.7077574279416803
-0.42560000000000003,-2.7035132940420854
-0.42660000000000015,-2.69926916014249
-0.42760000000000004,-2.6950250262428948
-0.42860000000000015,-2.689366181043435
-0.42960000000000004,-2.6851220471438397
-0.43060000000000015,-2.6794632019443796
-0.43160000000000004,-2.6738043567449195
-0.43260000000000015,-2.666730800245594
-0.43360000000000004,-2.661071955046134
-0.43460000000000015,-2.6539983985468085
-0.43560000000000004,-2.648339553347349
-0.43660000000000015,-2.641265996848024
-0.43760000000000004,-2.634192440348698
-0.43860000000000016,-2.6257041725495083
-0.43960000000000005,-2.618630616050183
-0.44060000000000016,-2.6115570595508575
-0.44160000000000005,-2.6030687917516673
-0.44260000000000016,-2.5959952352523423
-0.44360000000000005,-2.587506967453152
-0.44460000000000016,-2.579018699653962
-0.44560000000000005,-2.5705304318547717
-0.44660000000000016,-2.5620421640555815
-0.44760000000000005,-2.554968607556256
