Oct. 20, 2024   09:41:41
Cyclic Voltammetry
File: c:/users/guazh/data/banditlqround2/2024-10-18-exp583\exp583-2024-10-20t09_26_53-h2koh\exp583_cv_sr_300mvs_efin_-1700mv.bin
Data Source:  Experiment
Instrument Model:  CHI760E
Header: CV ran at 300 mVs
Note: 

Init E (V) = -1
High E (V) = -1
Low E (V) = -1.7
Final E (V) = -1
Init P/N = N
Scan Rate (V/s) = 0.3
Segment = 3
Sample Interval (V) = 0.001
Quiet Time (sec) = 2
Sensitivity (A/V) = 0.01
Comp R (ohm) = 0.9

Results:

Channel 1:
Segment 1:

Segment 2:

Segment 3:

Potential/V, Current/A

-1.000, 1.865e-5
-1.001, 2.174e-5
-1.002, 2.174e-5
-1.003, 2.482e-5
-1.004, 2.790e-5
-1.005, 2.790e-5
-1.006, 2.482e-5
-1.007, 2.482e-5
-1.008, 2.790e-5
-1.009, 3.099e-5
-1.010, 2.790e-5
-1.011, 2.790e-5
-1.012, 2.790e-5
-1.013, 2.790e-5
-1.014, 3.099e-5
-1.015, 2.790e-5
-1.016, 2.790e-5
-1.017, 2.790e-5
-1.018, 3.099e-5
-1.019, 3.407e-5
-1.020, 3.099e-5
-1.021, 2.790e-5
-1.022, 2.790e-5
-1.023, 3.099e-5
-1.024, 3.407e-5
-1.025, 3.099e-5
-1.026, 3.099e-5
-1.027, 2.790e-5
-1.028, 3.099e-5
-1.029, 3.407e-5
-1.030, 3.407e-5
-1.031, 3.099e-5
-1.032, 3.099e-5
-1.033, 3.407e-5
-1.034, 3.407e-5
-1.035, 3.407e-5
-1.036, 3.099e-5
-1.037, 3.099e-5
-1.038, 3.407e-5
-1.039, 3.715e-5
-1.040, 3.407e-5
-1.041, 3.099e-5
-1.042, 3.099e-5
-1.043, 3.407e-5
-1.044, 3.715e-5
-1.045, 3.407e-5
-1.046, 3.407e-5
-1.047, 3.407e-5
-1.048, 3.715e-5
-1.049, 3.715e-5
-1.050, 3.715e-5
-1.051, 3.407e-5
-1.052, 3.407e-5
-1.053, 3.715e-5
-1.054, 3.715e-5
-1.055, 3.715e-5
-1.056, 3.407e-5
-1.057, 3.407e-5
-1.058, 3.715e-5
-1.059, 4.024e-5
-1.060, 3.715e-5
-1.061, 3.715e-5
-1.062, 3.407e-5
-1.063, 3.715e-5
-1.064, 4.024e-5
-1.065, 3.715e-5
-1.066, 3.715e-5
-1.067, 3.407e-5
-1.068, 3.715e-5
-1.069, 4.024e-5
-1.070, 3.715e-5
-1.071, 3.715e-5
-1.072, 3.715e-5
-1.073, 3.715e-5
-1.074, 4.024e-5
-1.075, 4.024e-5
-1.076, 3.715e-5
-1.077, 3.715e-5
-1.078, 4.024e-5
-1.079, 4.332e-5
-1.080, 4.024e-5
-1.081, 3.715e-5
-1.082, 3.715e-5
-1.083, 4.024e-5
-1.084, 4.332e-5
-1.085, 4.024e-5
-1.086, 4.024e-5
-1.087, 3.715e-5
-1.088, 4.024e-5
-1.089, 4.332e-5
-1.090, 4.024e-5
-1.091, 3.715e-5
-1.092, 3.715e-5
-1.093, 4.024e-5
-1.094, 4.332e-5
-1.095, 4.024e-5
-1.096, 3.715e-5
-1.097, 3.715e-5
-1.098, 4.024e-5
-1.099, 4.332e-5
-1.100, 4.024e-5
-1.101, 4.024e-5
-1.102, 4.024e-5
-1.103, 4.024e-5
-1.104, 4.332e-5
-1.105, 4.024e-5
-1.106, 4.024e-5
-1.107, 4.024e-5
-1.108, 4.024e-5
-1.109, 4.332e-5
-1.110, 4.024e-5
-1.111, 4.024e-5
-1.112, 4.024e-5
-1.113, 4.024e-5
-1.114, 4.332e-5
-1.115, 4.332e-5
-1.116, 4.024e-5
-1.117, 4.024e-5
-1.118, 4.332e-5
-1.119, 4.640e-5
-1.120, 4.332e-5
-1.121, 4.024e-5
-1.122, 4.024e-5
-1.123, 4.024e-5
-1.124, 4.332e-5
-1.125, 4.332e-5
-1.126, 4.024e-5
-1.127, 4.024e-5
-1.128, 4.332e-5
-1.129, 4.640e-5
-1.130, 4.332e-5
-1.131, 4.024e-5
-1.132, 4.024e-5
-1.133, 4.332e-5
-1.134, 4.640e-5
-1.135, 4.332e-5
-1.136, 4.024e-5
-1.137, 4.024e-5
-1.138, 4.332e-5
-1.139, 4.640e-5
-1.140, 4.332e-5
-1.141, 4.024e-5
-1.142, 4.024e-5
-1.143, 4.332e-5
-1.144, 4.332e-5
-1.145, 4.640e-5
-1.146, 4.332e-5
-1.147, 4.024e-5
-1.148, 4.332e-5
-1.149, 4.640e-5
-1.150, 4.640e-5
-1.151, 4.332e-5
-1.152, 4.024e-5
-1.153, 4.332e-5
-1.154, 4.640e-5
-1.155, 4.332e-5
-1.156, 4.332e-5
-1.157, 4.024e-5
-1.158, 4.332e-5
-1.159, 4.640e-5
-1.160, 4.640e-5
-1.161, 4.332e-5
-1.162, 4.332e-5
-1.163, 4.332e-5
-1.164, 4.640e-5
-1.165, 4.640e-5
-1.166, 4.332e-5
-1.167, 4.332e-5
-1.168, 4.332e-5
-1.169, 4.640e-5
-1.170, 4.640e-5
-1.171, 4.332e-5
-1.172, 4.332e-5
-1.173, 4.640e-5
-1.174, 4.640e-5
-1.175, 4.949e-5
-1.176, 4.332e-5
-1.177, 4.332e-5
-1.178, 4.640e-5
-1.179, 4.949e-5
-1.180, 4.640e-5
-1.181, 4.332e-5
-1.182, 4.332e-5
-1.183, 4.640e-5
-1.184, 4.640e-5
-1.185, 4.640e-5
-1.186, 4.332e-5
-1.187, 4.332e-5
-1.188, 4.640e-5
-1.189, 4.949e-5
-1.190, 4.640e-5
-1.191, 4.640e-5
-1.192, 4.332e-5
-1.193, 4.640e-5
-1.194, 4.949e-5
-1.195, 4.640e-5
-1.196, 4.640e-5
-1.197, 4.332e-5
-1.198, 4.949e-5
-1.199, 4.949e-5
-1.200, 4.640e-5
-1.201, 4.640e-5
-1.202, 4.640e-5
-1.203, 4.640e-5
-1.204, 4.949e-5
-1.205, 4.949e-5
-1.206, 4.640e-5
-1.207, 4.640e-5
-1.208, 4.640e-5
-1.209, 4.949e-5
-1.210, 4.949e-5
-1.211, 4.640e-5
-1.212, 4.640e-5
-1.213, 4.949e-5
-1.214, 4.949e-5
-1.215, 4.949e-5
-1.216, 4.640e-5
-1.217, 4.640e-5
-1.218, 4.949e-5
-1.219, 5.257e-5
-1.220, 5.257e-5
-1.221, 4.949e-5
-1.222, 4.640e-5
-1.223, 4.949e-5
-1.224, 5.257e-5
-1.225, 5.257e-5
-1.226, 4.949e-5
-1.227, 4.949e-5
-1.228, 5.257e-5
-1.229, 5.565e-5
-1.230, 5.257e-5
-1.231, 4.949e-5
-1.232, 4.640e-5
-1.233, 5.257e-5
-1.234, 5.257e-5
-1.235, 5.257e-5
-1.236, 4.949e-5
-1.237, 4.949e-5
-1.238, 5.257e-5
-1.239, 5.257e-5
-1.240, 5.257e-5
-1.241, 4.949e-5
-1.242, 4.949e-5
-1.243, 5.257e-5
-1.244, 5.565e-5
-1.245, 5.257e-5
-1.246, 5.257e-5
-1.247, 4.949e-5
-1.248, 5.257e-5
-1.249, 5.565e-5
-1.250, 5.257e-5
-1.251, 5.257e-5
-1.252, 4.949e-5
-1.253, 5.257e-5
-1.254, 5.565e-5
-1.255, 5.257e-5
-1.256, 5.257e-5
-1.257, 4.949e-5
-1.258, 5.257e-5
-1.259, 5.565e-5
-1.260, 5.565e-5
-1.261, 5.257e-5
-1.262, 5.257e-5
-1.263, 5.565e-5
-1.264, 5.565e-5
-1.265, 5.565e-5
-1.266, 5.257e-5
-1.267, 5.257e-5
-1.268, 5.565e-5
-1.269, 5.565e-5
-1.270, 5.565e-5
-1.271, 5.257e-5
-1.272, 5.257e-5
-1.273, 5.565e-5
-1.274, 5.873e-5
-1.275, 5.565e-5
-1.276, 5.257e-5
-1.277, 5.257e-5
-1.278, 5.565e-5
-1.279, 5.873e-5
-1.280, 5.565e-5
-1.281, 5.565e-5
-1.282, 5.565e-5
-1.283, 5.565e-5
-1.284, 5.873e-5
-1.285, 5.873e-5
-1.286, 5.565e-5
-1.287, 5.565e-5
-1.288, 5.565e-5
-1.289, 5.873e-5
-1.290, 5.873e-5
-1.291, 5.565e-5
-1.292, 5.565e-5
-1.293, 5.873e-5
-1.294, 5.873e-5
-1.295, 5.873e-5
-1.296, 5.565e-5
-1.297, 5.565e-5
-1.298, 5.873e-5
-1.299, 6.182e-5
-1.300, 5.873e-5
-1.301, 5.565e-5
-1.302, 5.565e-5
-1.303, 5.873e-5
-1.304, 6.182e-5
-1.305, 5.873e-5
-1.306, 5.565e-5
-1.307, 5.565e-5
-1.308, 5.873e-5
-1.309, 6.182e-5
-1.310, 5.873e-5
-1.311, 5.873e-5
-1.312, 5.565e-5
-1.313, 5.873e-5
-1.314, 6.182e-5
-1.315, 5.873e-5
-1.316, 5.873e-5
-1.317, 5.565e-5
-1.318, 5.873e-5
-1.319, 6.182e-5
-1.320, 6.182e-5
-1.321, 5.873e-5
-1.322, 5.873e-5
-1.323, 5.873e-5
-1.324, 6.182e-5
-1.325, 6.182e-5
-1.326, 5.873e-5
-1.327, 5.565e-5
-1.328, 5.873e-5
-1.329, 6.182e-5
-1.330, 6.182e-5
-1.331, 5.873e-5
-1.332, 5.873e-5
-1.333, 5.873e-5
-1.334, 6.182e-5
-1.335, 6.182e-5
-1.336, 5.873e-5
-1.337, 5.873e-5
-1.338, 6.182e-5
-1.339, 6.490e-5
-1.340, 6.182e-5
-1.341, 5.873e-5
-1.342, 5.873e-5
-1.343, 6.182e-5
-1.344, 6.490e-5
-1.345, 6.182e-5
-1.346, 6.182e-5
-1.347, 5.873e-5
-1.348, 6.182e-5
-1.349, 6.490e-5
-1.350, 6.182e-5
-1.351, 6.182e-5
-1.352, 6.182e-5
-1.353, 6.182e-5
-1.354, 6.490e-5
-1.355, 6.490e-5
-1.356, 6.182e-5
-1.357, 6.182e-5
-1.358, 6.490e-5
-1.359, 6.490e-5
-1.360, 6.490e-5
-1.361, 6.182e-5
-1.362, 6.182e-5
-1.363, 6.490e-5
-1.364, 6.490e-5
-1.365, 6.490e-5
-1.366, 6.182e-5
-1.367, 6.182e-5
-1.368, 6.490e-5
-1.369, 6.798e-5
-1.370, 6.490e-5
-1.371, 6.182e-5
-1.372, 6.182e-5
-1.373, 6.490e-5
-1.374, 6.490e-5
-1.375, 6.490e-5
-1.376, 6.182e-5
-1.377, 6.182e-5
-1.378, 6.182e-5
-1.379, 6.490e-5
-1.380, 6.490e-5
-1.381, 6.182e-5
-1.382, 6.182e-5
-1.383, 6.490e-5
-1.384, 6.490e-5
-1.385, 6.490e-5
-1.386, 6.182e-5
-1.387, 6.182e-5
-1.388, 6.182e-5
-1.389, 6.490e-5
-1.390, 6.490e-5
-1.391, 6.182e-5
-1.392, 6.182e-5
-1.393, 6.490e-5
-1.394, 6.490e-5
-1.395, 6.490e-5
-1.396, 6.182e-5
-1.397, 6.182e-5
-1.398, 6.182e-5
-1.399, 6.490e-5
-1.400, 6.490e-5
-1.401, 6.182e-5
-1.402, 6.182e-5
-1.403, 6.490e-5
-1.404, 6.490e-5
-1.405, 6.490e-5
-1.406, 6.182e-5
-1.407, 6.182e-5
-1.408, 6.490e-5
-1.409, 6.798e-5
-1.410, 6.490e-5
-1.411, 6.490e-5
-1.412, 6.490e-5
-1.413, 6.490e-5
-1.414, 6.798e-5
-1.415, 6.798e-5
-1.416, 6.490e-5
-1.417, 6.490e-5
-1.418, 6.798e-5
-1.419, 7.107e-5
-1.420, 6.798e-5
-1.421, 6.798e-5
-1.422, 6.798e-5
-1.423, 7.107e-5
-1.424, 7.415e-5
-1.425, 7.107e-5
-1.426, 7.107e-5
-1.427, 6.798e-5
-1.428, 7.415e-5
-1.429, 7.415e-5
-1.430, 7.415e-5
-1.431, 7.415e-5
-1.432, 7.415e-5
-1.433, 7.723e-5
-1.434, 8.032e-5
-1.435, 8.032e-5
-1.436, 8.032e-5
-1.437, 8.032e-5
-1.438, 8.340e-5
-1.439, 8.648e-5
-1.440, 8.648e-5
-1.441, 8.648e-5
-1.442, 8.648e-5
-1.443, 8.957e-5
-1.444, 9.265e-5
-1.445, 9.265e-5
-1.446, 9.265e-5
-1.447, 9.573e-5
-1.448, 9.882e-5
-1.449, 1.019e-4
-1.450, 1.019e-4
-1.451, 1.019e-4
-1.452, 1.050e-4
-1.453, 1.081e-4
-1.454, 1.142e-4
-1.455, 1.142e-4
-1.456, 1.142e-4
-1.457, 1.173e-4
-1.458, 1.204e-4
-1.459, 1.266e-4
-1.460, 1.296e-4
-1.461, 1.296e-4
-1.462, 1.327e-4
-1.463, 1.389e-4
-1.464, 1.420e-4
-1.465, 1.451e-4
-1.466, 1.451e-4
-1.467, 1.481e-4
-1.468, 1.543e-4
-1.469, 1.636e-4
-1.470, 1.636e-4
-1.471, 1.666e-4
-1.472, 1.697e-4
-1.473, 1.790e-4
-1.474, 1.851e-4
-1.475, 1.882e-4
-1.476, 1.913e-4
-1.477, 1.944e-4
-1.478, 2.036e-4
-1.479, 2.098e-4
-1.480, 2.160e-4
-1.481, 2.191e-4
-1.482, 2.252e-4
-1.483, 2.314e-4
-1.484, 2.406e-4
-1.485, 2.468e-4
-1.486, 2.499e-4
-1.487, 2.591e-4
-1.488, 2.653e-4
-1.489, 2.746e-4
-1.490, 2.838e-4
-1.491, 2.869e-4
-1.492, 2.961e-4
-1.493, 3.085e-4
-1.494, 3.177e-4
-1.495, 3.270e-4
-1.496, 3.331e-4
-1.497, 3.393e-4
-1.498, 3.516e-4
-1.499, 3.609e-4
-1.500, 3.732e-4
-1.501, 3.825e-4
-1.502, 3.917e-4
-1.503, 4.040e-4
-1.504, 4.164e-4
-1.505, 4.287e-4
-1.506, 4.380e-4
-1.507, 4.503e-4
-1.508, 4.626e-4
-1.509, 4.780e-4
-1.510, 4.935e-4
-1.511, 5.058e-4
-1.512, 5.181e-4
-1.513, 5.335e-4
-1.514, 5.520e-4
-1.515, 5.674e-4
-1.516, 5.798e-4
-1.517, 5.952e-4
-1.518, 6.106e-4
-1.519, 6.322e-4
-1.520, 6.476e-4
-1.521, 6.661e-4
-1.522, 6.815e-4
-1.523, 7.031e-4
-1.524, 7.278e-4
-1.525, 7.463e-4
-1.526, 7.679e-4
-1.527, 7.863e-4
-1.528, 8.079e-4
-1.529, 8.326e-4
-1.530, 8.573e-4
-1.531, 8.758e-4
-1.532, 8.973e-4
-1.533, 9.251e-4
-1.534, 9.528e-4
-1.535, 9.775e-4
-1.536, 1.002e-3
-1.537, 1.027e-3
-1.538, 1.055e-3
-1.539, 1.088e-3
-1.540, 1.119e-3
-1.541, 1.147e-3
-1.542, 1.175e-3
-1.543, 1.206e-3
-1.544, 1.236e-3
-1.545, 1.270e-3
-1.546, 1.298e-3
-1.547, 1.329e-3
-1.548, 1.363e-3
-1.549, 1.403e-3
-1.550, 1.440e-3
-1.551, 1.474e-3
-1.552, 1.508e-3
-1.553, 1.551e-3
-1.554, 1.594e-3
-1.555, 1.637e-3
-1.556, 1.674e-3
-1.557, 1.705e-3
-1.558, 1.742e-3
-1.559, 1.785e-3
-1.560, 1.825e-3
-1.561, 1.865e-3
-1.562, 1.902e-3
-1.563, 1.946e-3
-1.564, 1.992e-3
-1.565, 2.038e-3
-1.566, 2.081e-3
-1.567, 2.124e-3
-1.568, 2.171e-3
-1.569, 2.226e-3
-1.570, 2.279e-3
-1.571, 2.322e-3
-1.572, 2.359e-3
-1.573, 2.402e-3
-1.574, 2.454e-3
-1.575, 2.501e-3
-1.576, 2.544e-3
-1.577, 2.587e-3
-1.578, 2.636e-3
-1.579, 2.686e-3
-1.580, 2.741e-3
-1.581, 2.787e-3
-1.582, 2.840e-3
-1.583, 2.898e-3
-1.584, 2.963e-3
-1.585, 3.019e-3
-1.586, 3.062e-3
-1.587, 3.105e-3
-1.588, 3.154e-3
-1.589, 3.210e-3
-1.590, 3.265e-3
-1.591, 3.311e-3
-1.592, 3.361e-3
-1.593, 3.419e-3
-1.594, 3.478e-3
-1.595, 3.536e-3
-1.596, 3.595e-3
-1.597, 3.654e-3
-1.598, 3.718e-3
-1.599, 3.789e-3
-1.600, 3.851e-3
-1.601, 3.891e-3
-1.602, 3.931e-3
-1.603, 3.980e-3
-1.604, 4.042e-3
-1.605, 4.095e-3
-1.606, 4.147e-3
-1.607, 4.196e-3
-1.608, 4.249e-3
-1.609, 4.310e-3
-1.610, 4.375e-3
-1.611, 4.437e-3
-1.612, 4.498e-3
-1.613, 4.566e-3
-1.614, 4.628e-3
-1.615, 4.668e-3
-1.616, 4.711e-3
-1.617, 4.754e-3
-1.618, 4.801e-3
-1.619, 4.853e-3
-1.620, 4.908e-3
-1.621, 4.958e-3
-1.622, 5.007e-3
-1.623, 5.069e-3
-1.624, 5.137e-3
-1.625, 5.208e-3
-1.626, 5.278e-3
-1.627, 5.346e-3
-1.628, 5.420e-3
-1.629, 5.473e-3
-1.630, 5.504e-3
-1.631, 5.534e-3
-1.632, 5.571e-3
-1.633, 5.618e-3
-1.634, 5.673e-3
-1.635, 5.732e-3
-1.636, 5.787e-3
-1.637, 5.836e-3
-1.638, 5.898e-3
-1.639, 5.969e-3
-1.640, 6.049e-3
-1.641, 6.123e-3
-1.642, 6.197e-3
-1.643, 6.265e-3
-1.644, 6.305e-3
-1.645, 6.339e-3
-1.646, 6.382e-3
-1.647, 6.425e-3
-1.648, 6.478e-3
-1.649, 6.533e-3
-1.650, 6.592e-3
-1.651, 6.638e-3
-1.652, 6.681e-3
-1.653, 6.740e-3
-1.654, 6.811e-3
-1.655, 6.882e-3
-1.656, 6.956e-3
-1.657, 7.017e-3
-1.658, 7.057e-3
-1.659, 7.088e-3
-1.660, 7.141e-3
-1.661, 7.187e-3
-1.662, 7.224e-3
-1.663, 7.279e-3
-1.664, 7.344e-3
-1.665, 7.400e-3
-1.666, 7.452e-3
-1.667, 7.508e-3
-1.668, 7.575e-3
-1.669, 7.659e-3
-1.670, 7.736e-3
-1.671, 7.816e-3
-1.672, 7.884e-3
-1.673, 7.914e-3
-1.674, 7.936e-3
-1.675, 7.973e-3
-1.676, 8.016e-3
-1.677, 8.056e-3
-1.678, 8.106e-3
-1.679, 8.155e-3
-1.680, 8.207e-3
-1.681, 8.263e-3
-1.682, 8.309e-3
-1.683, 8.377e-3
-1.684, 8.460e-3
-1.685, 8.537e-3
-1.686, 8.605e-3
-1.687, 8.667e-3
-1.688, 8.688e-3
-1.689, 8.735e-3
-1.690, 8.793e-3
-1.691, 8.839e-3
-1.692, 8.889e-3
-1.693, 8.941e-3
-1.694, 8.994e-3
-1.695, 9.040e-3
-1.696, 9.080e-3
-1.697, 9.120e-3
-1.698, 9.182e-3
-1.699, 9.256e-3
-1.700, 9.290e-3
-1.699, 9.225e-3
-1.698, 9.117e-3
-1.697, 8.991e-3
-1.696, 8.883e-3
-1.695, 8.790e-3
-1.694, 8.701e-3
-1.693, 8.608e-3
-1.692, 8.531e-3
-1.691, 8.488e-3
-1.690, 8.405e-3
-1.689, 8.315e-3
-1.688, 8.223e-3
-1.687, 8.149e-3
-1.686, 8.090e-3
-1.685, 8.035e-3
-1.684, 7.964e-3
-1.683, 7.850e-3
-1.682, 7.748e-3
-1.681, 7.689e-3
-1.680, 7.615e-3
-1.679, 7.532e-3
-1.678, 7.446e-3
-1.677, 7.369e-3
-1.676, 7.298e-3
-1.675, 7.224e-3
-1.674, 7.153e-3
-1.673, 7.076e-3
-1.672, 7.011e-3
-1.671, 6.962e-3
-1.670, 6.916e-3
-1.669, 6.832e-3
-1.668, 6.737e-3
-1.667, 6.657e-3
-1.666, 6.592e-3
-1.665, 6.530e-3
-1.664, 6.469e-3
-1.663, 6.391e-3
-1.662, 6.339e-3
-1.661, 6.271e-3
-1.660, 6.206e-3
-1.659, 6.132e-3
-1.658, 6.058e-3
-1.657, 6.015e-3
-1.656, 5.963e-3
-1.655, 5.901e-3
-1.654, 5.815e-3
-1.653, 5.741e-3
-1.652, 5.682e-3
-1.651, 5.655e-3
-1.650, 5.596e-3
-1.649, 5.525e-3
-1.648, 5.454e-3
-1.647, 5.393e-3
-1.646, 5.343e-3
-1.645, 5.282e-3
-1.644, 5.214e-3
-1.643, 5.155e-3
-1.642, 5.106e-3
-1.641, 5.056e-3
-1.640, 4.992e-3
-1.639, 4.918e-3
-1.638, 4.847e-3
-1.637, 4.785e-3
-1.636, 4.745e-3
-1.635, 4.686e-3
-1.634, 4.622e-3
-1.633, 4.563e-3
-1.632, 4.505e-3
-1.631, 4.452e-3
-1.630, 4.397e-3
-1.629, 4.338e-3
-1.628, 4.283e-3
-1.627, 4.246e-3
-1.626, 4.202e-3
-1.625, 4.141e-3
-1.624, 4.082e-3
-1.623, 4.027e-3
-1.622, 3.971e-3
-1.621, 3.919e-3
-1.620, 3.863e-3
-1.619, 3.802e-3
-1.618, 3.743e-3
-1.617, 3.691e-3
-1.616, 3.641e-3
-1.615, 3.595e-3
-1.614, 3.543e-3
-1.613, 3.490e-3
-1.612, 3.447e-3
-1.611, 3.395e-3
-1.610, 3.342e-3
-1.609, 3.293e-3
-1.608, 3.237e-3
-1.607, 3.185e-3
-1.606, 3.139e-3
-1.605, 3.093e-3
-1.604, 3.043e-3
-1.603, 2.997e-3
-1.602, 2.951e-3
-1.601, 2.911e-3
-1.600, 2.871e-3
-1.599, 2.824e-3
-1.598, 2.781e-3
-1.597, 2.741e-3
-1.596, 2.701e-3
-1.595, 2.661e-3
-1.594, 2.618e-3
-1.593, 2.575e-3
-1.592, 2.534e-3
-1.591, 2.497e-3
-1.590, 2.454e-3
-1.589, 2.414e-3
-1.588, 2.368e-3
-1.587, 2.325e-3
-1.586, 2.288e-3
-1.585, 2.251e-3
-1.584, 2.214e-3
-1.583, 2.174e-3
-1.582, 2.134e-3
-1.581, 2.100e-3
-1.580, 2.063e-3
-1.579, 2.023e-3
-1.578, 1.983e-3
-1.577, 1.949e-3
-1.576, 1.915e-3
-1.575, 1.881e-3
-1.574, 1.841e-3
-1.573, 1.807e-3
-1.572, 1.776e-3
-1.571, 1.742e-3
-1.570, 1.714e-3
-1.569, 1.677e-3
-1.568, 1.643e-3
-1.567, 1.613e-3
-1.566, 1.582e-3
-1.565, 1.551e-3
-1.564, 1.517e-3
-1.563, 1.483e-3
-1.562, 1.455e-3
-1.561, 1.428e-3
-1.560, 1.400e-3
-1.559, 1.369e-3
-1.558, 1.338e-3
-1.557, 1.310e-3
-1.556, 1.286e-3
-1.555, 1.261e-3
-1.554, 1.233e-3
-1.553, 1.206e-3
-1.552, 1.181e-3
-1.551, 1.156e-3
-1.550, 1.132e-3
-1.549, 1.107e-3
-1.548, 1.079e-3
-1.547, 1.058e-3
-1.546, 1.036e-3
-1.545, 1.014e-3
-1.544, 9.898e-4
-1.543, 9.652e-4
-1.542, 9.436e-4
-1.541, 9.251e-4
-1.540, 9.066e-4
-1.539, 8.819e-4
-1.538, 8.603e-4
-1.537, 8.418e-4
-1.536, 8.233e-4
-1.535, 8.048e-4
-1.534, 7.833e-4
-1.533, 7.617e-4
-1.532, 7.432e-4
-1.531, 7.309e-4
-1.530, 7.124e-4
-1.529, 6.939e-4
-1.528, 6.754e-4
-1.527, 6.599e-4
-1.526, 6.445e-4
-1.525, 6.291e-4
-1.524, 6.137e-4
-1.523, 5.952e-4
-1.522, 5.829e-4
-1.521, 5.705e-4
-1.520, 5.551e-4
-1.519, 5.397e-4
-1.518, 5.243e-4
-1.517, 5.120e-4
-1.516, 5.027e-4
-1.515, 4.904e-4
-1.514, 4.750e-4
-1.513, 4.626e-4
-1.512, 4.503e-4
-1.511, 4.410e-4
-1.510, 4.318e-4
-1.509, 4.164e-4
-1.508, 4.071e-4
-1.507, 3.979e-4
-1.506, 3.886e-4
-1.505, 3.794e-4
-1.504, 3.670e-4
-1.503, 3.578e-4
-1.502, 3.485e-4
-1.501, 3.424e-4
-1.500, 3.331e-4
-1.499, 3.208e-4
-1.498, 3.115e-4
-1.497, 3.054e-4
-1.496, 2.992e-4
-1.495, 2.900e-4
-1.494, 2.807e-4
-1.493, 2.746e-4
-1.492, 2.653e-4
-1.491, 2.591e-4
-1.490, 2.530e-4
-1.489, 2.437e-4
-1.488, 2.376e-4
-1.487, 2.314e-4
-1.486, 2.283e-4
-1.485, 2.221e-4
-1.484, 2.129e-4
-1.483, 2.067e-4
-1.482, 2.036e-4
-1.481, 1.975e-4
-1.480, 1.944e-4
-1.479, 1.851e-4
-1.478, 1.821e-4
-1.477, 1.790e-4
-1.476, 1.728e-4
-1.475, 1.697e-4
-1.474, 1.605e-4
-1.473, 1.574e-4
-1.472, 1.543e-4
-1.471, 1.512e-4
-1.470, 1.451e-4
-1.469, 1.420e-4
-1.468, 1.358e-4
-1.467, 1.358e-4
-1.466, 1.327e-4
-1.465, 1.266e-4
-1.464, 1.235e-4
-1.463, 1.173e-4
-1.462, 1.173e-4
-1.461, 1.142e-4
-1.460, 1.111e-4
-1.459, 1.050e-4
-1.458, 1.019e-4
-1.457, 1.019e-4
-1.456, 9.882e-5
-1.455, 9.573e-5
-1.454, 9.265e-5
-1.453, 8.957e-5
-1.452, 8.957e-5
-1.451, 8.648e-5
-1.450, 8.340e-5
-1.449, 8.032e-5
-1.448, 7.723e-5
-1.447, 7.415e-5
-1.446, 7.415e-5
-1.445, 7.107e-5
-1.444, 6.798e-5
-1.443, 6.798e-5
-1.442, 6.490e-5
-1.441, 6.490e-5
-1.440, 6.182e-5
-1.439, 5.873e-5
-1.438, 5.565e-5
-1.437, 5.565e-5
-1.436, 5.565e-5
-1.435, 5.257e-5
-1.434, 4.949e-5
-1.433, 4.949e-5
-1.432, 4.949e-5
-1.431, 4.949e-5
-1.430, 4.640e-5
-1.429, 4.332e-5
-1.428, 4.332e-5
-1.427, 4.024e-5
-1.426, 4.024e-5
-1.425, 4.024e-5
-1.424, 3.715e-5
-1.423, 3.715e-5
-1.422, 3.715e-5
-1.421, 3.407e-5
-1.420, 3.407e-5
-1.419, 3.099e-5
-1.418, 3.099e-5
-1.417, 2.790e-5
-1.416, 3.099e-5
-1.415, 2.790e-5
-1.414, 2.482e-5
-1.413, 2.482e-5
-1.412, 2.482e-5
-1.411, 2.482e-5
-1.410, 2.482e-5
-1.409, 2.174e-5
-1.408, 2.174e-5
-1.407, 2.174e-5
-1.406, 2.174e-5
-1.405, 1.865e-5
-1.404, 1.557e-5
-1.403, 1.557e-5
-1.402, 1.865e-5
-1.401, 1.557e-5
-1.400, 1.557e-5
-1.399, 1.249e-5
-1.398, 1.249e-5
-1.397, 1.249e-5
-1.396, 1.249e-5
-1.395, 1.249e-5
-1.394, 1.249e-5
-1.393, 9.405e-6
-1.392, 9.405e-6
-1.391, 9.405e-6
-1.390, 9.405e-6
-1.389, 6.322e-6
-1.388, 6.322e-6
-1.387, 6.322e-6
-1.386, 9.405e-6
-1.385, 6.322e-6
-1.384, 3.239e-6
-1.383, 3.239e-6
-1.382, 6.322e-6
-1.381, 6.322e-6
-1.380, 3.239e-6
-1.379, 3.239e-6
-1.378, 3.239e-6
-1.377, 3.239e-6
-1.376, 3.239e-6
-1.375, 3.239e-6
-1.374, 1.559e-7
-1.373, 1.559e-7
-1.372, 1.559e-7
-1.371, 1.559e-7
-1.370, 1.559e-7
-1.369, -2.927e-6
-1.368, -2.927e-6
-1.367, 1.559e-7
-1.366, 1.559e-7
-1.365, 1.559e-7
-1.364, -2.927e-6
-1.363, -2.927e-6
-1.362, -2.927e-6
-1.361, -2.927e-6
-1.360, -2.927e-6
-1.359, -6.010e-6
-1.358, -6.010e-6
-1.357, -6.010e-6
-1.356, -2.927e-6
-1.355, -6.010e-6
-1.354, -6.010e-6
-1.353, -6.010e-6
-1.352, -6.010e-6
-1.351, -6.010e-6
-1.350, -6.010e-6
-1.349, -9.093e-6
-1.348, -9.093e-6
-1.347, -6.010e-6
-1.346, -6.010e-6
-1.345, -9.093e-6
-1.344, -9.093e-6
-1.343, -9.093e-6
-1.342, -9.093e-6
-1.341, -9.093e-6
-1.340, -1.218e-5
-1.339, -1.218e-5
-1.338, -1.218e-5
-1.337, -1.218e-5
-1.336, -9.093e-6
-1.335, -1.218e-5
-1.334, -1.218e-5
-1.333, -1.218e-5
-1.332, -1.218e-5
-1.331, -1.218e-5
-1.330, -1.526e-5
-1.329, -1.526e-5
-1.328, -1.526e-5
-1.327, -1.218e-5
-1.326, -1.218e-5
-1.325, -1.526e-5
-1.324, -1.834e-5
-1.323, -1.526e-5
-1.322, -1.218e-5
-1.321, -1.526e-5
-1.320, -1.526e-5
-1.319, -1.834e-5
-1.318, -1.834e-5
-1.317, -1.526e-5
-1.316, -1.526e-5
-1.315, -1.834e-5
-1.314, -1.834e-5
-1.313, -1.834e-5
-1.312, -1.834e-5
-1.311, -1.834e-5
-1.310, -1.834e-5
-1.309, -2.143e-5
-1.308, -2.143e-5
-1.307, -1.834e-5
-1.306, -1.834e-5
-1.305, -2.143e-5
-1.304, -2.143e-5
-1.303, -2.451e-5
-1.302, -2.143e-5
-1.301, -1.834e-5
-1.300, -2.451e-5
-1.299, -2.451e-5
-1.298, -2.451e-5
-1.297, -2.143e-5
-1.296, -2.143e-5
-1.295, -2.451e-5
-1.294, -2.451e-5
-1.293, -2.451e-5
-1.292, -2.143e-5
-1.291, -2.451e-5
-1.290, -2.759e-5
-1.289, -2.759e-5
-1.288, -2.759e-5
-1.287, -2.451e-5
-1.286, -2.451e-5
-1.285, -2.759e-5
-1.284, -2.759e-5
-1.283, -2.759e-5
-1.282, -2.759e-5
-1.281, -2.759e-5
-1.280, -2.759e-5
-1.279, -3.068e-5
-1.278, -3.068e-5
-1.277, -2.759e-5
-1.276, -2.451e-5
-1.275, -3.068e-5
-1.274, -3.068e-5
-1.273, -3.068e-5
-1.272, -2.759e-5
-1.271, -2.759e-5
-1.270, -3.068e-5
-1.269, -3.068e-5
-1.268, -3.376e-5
-1.267, -3.068e-5
-1.266, -3.068e-5
-1.265, -3.068e-5
-1.264, -3.376e-5
-1.263, -3.376e-5
-1.262, -3.068e-5
-1.261, -3.068e-5
-1.260, -3.376e-5
-1.259, -3.376e-5
-1.258, -3.376e-5
-1.257, -3.068e-5
-1.256, -3.068e-5
-1.255, -3.376e-5
-1.254, -3.376e-5
-1.253, -3.376e-5
-1.252, -3.068e-5
-1.251, -3.068e-5
-1.250, -3.376e-5
-1.249, -3.376e-5
-1.248, -3.376e-5
-1.247, -3.376e-5
-1.246, -3.376e-5
-1.245, -3.376e-5
-1.244, -3.684e-5
-1.243, -3.684e-5
-1.242, -3.376e-5
-1.241, -3.376e-5
-1.240, -3.376e-5
-1.239, -3.684e-5
-1.238, -3.684e-5
-1.237, -3.376e-5
-1.236, -3.376e-5
-1.235, -3.684e-5
-1.234, -3.684e-5
-1.233, -3.684e-5
-1.232, -3.376e-5
-1.231, -3.376e-5
-1.230, -3.684e-5
-1.229, -3.992e-5
-1.228, -3.684e-5
-1.227, -3.684e-5
-1.226, -3.376e-5
-1.225, -3.684e-5
-1.224, -3.684e-5
-1.223, -3.684e-5
-1.222, -3.684e-5
-1.221, -3.376e-5
-1.220, -3.684e-5
-1.219, -3.684e-5
-1.218, -3.992e-5
-1.217, -3.684e-5
-1.216, -3.684e-5
-1.215, -3.684e-5
-1.214, -3.992e-5
-1.213, -3.992e-5
-1.212, -3.684e-5
-1.211, -3.376e-5
-1.210, -3.684e-5
-1.209, -3.992e-5
-1.208, -3.992e-5
-1.207, -3.684e-5
-1.206, -3.684e-5
-1.205, -3.992e-5
-1.204, -3.992e-5
-1.203, -3.992e-5
-1.202, -3.684e-5
-1.201, -3.684e-5
-1.200, -3.684e-5
-1.199, -3.992e-5
-1.198, -3.992e-5
-1.197, -3.992e-5
-1.196, -3.684e-5
-1.195, -3.992e-5
-1.194, -3.992e-5
-1.193, -4.301e-5
-1.192, -3.992e-5
-1.191, -3.684e-5
-1.190, -3.992e-5
-1.189, -4.301e-5
-1.188, -4.301e-5
-1.187, -3.992e-5
-1.186, -3.684e-5
-1.185, -3.992e-5
-1.184, -4.301e-5
-1.183, -4.301e-5
-1.182, -3.992e-5
-1.181, -3.992e-5
-1.180, -4.301e-5
-1.179, -4.301e-5
-1.178, -4.301e-5
-1.177, -3.992e-5
-1.176, -3.684e-5
-1.175, -3.992e-5
-1.174, -4.301e-5
-1.173, -4.301e-5
-1.172, -3.992e-5
-1.171, -3.992e-5
-1.170, -3.992e-5
-1.169, -4.301e-5
-1.168, -4.301e-5
-1.167, -3.992e-5
-1.166, -3.992e-5
-1.165, -3.992e-5
-1.164, -4.301e-5
-1.163, -4.301e-5
-1.162, -3.992e-5
-1.161, -3.992e-5
-1.160, -4.301e-5
-1.159, -4.301e-5
-1.158, -4.301e-5
-1.157, -4.301e-5
-1.156, -3.992e-5
-1.155, -4.301e-5
-1.154, -4.301e-5
-1.153, -4.609e-5
-1.152, -3.992e-5
-1.151, -3.992e-5
-1.150, -4.301e-5
-1.149, -4.609e-5
-1.148, -4.609e-5
-1.147, -4.301e-5
-1.146, -3.992e-5
-1.145, -4.301e-5
-1.144, -4.609e-5
-1.143, -4.301e-5
-1.142, -4.301e-5
-1.141, -3.992e-5
-1.140, -4.301e-5
-1.139, -4.609e-5
-1.138, -4.301e-5
-1.137, -4.301e-5
-1.136, -4.301e-5
-1.135, -4.301e-5
-1.134, -4.609e-5
-1.133, -4.609e-5
-1.132, -4.301e-5
-1.131, -4.301e-5
-1.130, -4.301e-5
-1.129, -4.609e-5
-1.128, -4.609e-5
-1.127, -4.301e-5
-1.126, -4.301e-5
-1.125, -4.301e-5
-1.124, -4.609e-5
-1.123, -4.609e-5
-1.122, -4.301e-5
-1.121, -4.301e-5
-1.120, -4.301e-5
-1.119, -4.609e-5
-1.118, -4.609e-5
-1.117, -4.301e-5
-1.116, -4.301e-5
-1.115, -4.609e-5
-1.114, -4.609e-5
-1.113, -4.609e-5
-1.112, -4.301e-5
-1.111, -4.301e-5
-1.110, -4.609e-5
-1.109, -4.917e-5
-1.108, -4.609e-5
-1.107, -4.609e-5
-1.106, -4.301e-5
-1.105, -4.609e-5
-1.104, -4.917e-5
-1.103, -4.609e-5
-1.102, -4.609e-5
-1.101, -4.301e-5
-1.100, -4.609e-5
-1.099, -4.917e-5
-1.098, -4.609e-5
-1.097, -4.609e-5
-1.096, -4.301e-5
-1.095, -4.609e-5
-1.094, -4.917e-5
-1.093, -4.917e-5
-1.092, -4.609e-5
-1.091, -4.301e-5
-1.090, -4.609e-5
-1.089, -4.917e-5
-1.088, -4.917e-5
-1.087, -4.609e-5
-1.086, -4.609e-5
-1.085, -4.917e-5
-1.084, -4.917e-5
-1.083, -4.917e-5
-1.082, -4.609e-5
-1.081, -4.609e-5
-1.080, -4.917e-5
-1.079, -4.917e-5
-1.078, -4.917e-5
-1.077, -4.917e-5
-1.076, -4.609e-5
-1.075, -4.917e-5
-1.074, -4.917e-5
-1.073, -4.917e-5
-1.072, -4.917e-5
-1.071, -4.609e-5
-1.070, -4.917e-5
-1.069, -4.917e-5
-1.068, -4.917e-5
-1.067, -4.609e-5
-1.066, -4.609e-5
-1.065, -4.917e-5
-1.064, -5.226e-5
-1.063, -4.917e-5
-1.062, -4.917e-5
-1.061, -4.609e-5
-1.060, -4.917e-5
-1.059, -5.226e-5
-1.058, -4.917e-5
-1.057, -4.917e-5
-1.056, -4.609e-5
-1.055, -4.917e-5
-1.054, -5.226e-5
-1.053, -5.226e-5
-1.052, -4.917e-5
-1.051, -4.917e-5
-1.050, -4.917e-5
-1.049, -5.226e-5
-1.048, -5.226e-5
-1.047, -4.917e-5
-1.046, -4.609e-5
-1.045, -4.917e-5
-1.044, -5.226e-5
-1.043, -5.226e-5
-1.042, -4.917e-5
-1.041, -4.609e-5
-1.040, -5.226e-5
-1.039, -5.226e-5
-1.038, -5.226e-5
-1.037, -4.917e-5
-1.036, -4.609e-5
-1.035, -4.917e-5
-1.034, -5.226e-5
-1.033, -5.226e-5
-1.032, -4.917e-5
-1.031, -4.609e-5
-1.030, -4.917e-5
-1.029, -5.226e-5
-1.028, -4.917e-5
-1.027, -4.917e-5
-1.026, -4.609e-5
-1.025, -4.917e-5
-1.024, -5.226e-5
-1.023, -5.226e-5
-1.022, -4.917e-5
-1.021, -4.609e-5
-1.020, -4.917e-5
-1.019, -5.226e-5
-1.018, -5.226e-5
-1.017, -4.917e-5
-1.016, -4.609e-5
-1.015, -4.917e-5
-1.014, -5.226e-5
-1.013, -4.917e-5
-1.012, -4.917e-5
-1.011, -4.609e-5
-1.010, -4.917e-5
-1.009, -4.917e-5
-1.008, -4.917e-5
-1.007, -4.917e-5
-1.006, -4.917e-5
-1.005, -4.917e-5
-1.004, -5.226e-5
-1.003, -4.917e-5
-1.002, -4.609e-5
-1.001, -4.609e-5
