Potential V vs RHE, Current mA cm-2
0.05339999999999995,-0.24502799713662435
0.05239999999999995,-0.24700859295643537
0.051399999999999946,-0.2482818331263139
0.050399999999999945,-0.24927213103621945
0.049399999999999944,-0.25026242894612494
0.04839999999999994,-0.2512527268560305
0.04739999999999994,-0.252243024765936
0.04639999999999994,-0.2532333226758416
0.04539999999999994,-0.25394067832577405
0.04439999999999994,-0.25493097623567956
0.04339999999999994,-0.25563833188561214
0.04239999999999994,-0.25662862979551765
0.04139999999999994,-0.25733598544545017
0.040399999999999936,-0.2580433410953827
0.039399999999999935,-0.2587506967453152
0.038399999999999934,-0.25959952352523424
0.03739999999999993,-0.26030687917516676
0.03639999999999993,-0.2611557059550858
0.03539999999999993,-0.2618630616050183
0.03439999999999993,-0.2627118883849373
0.03339999999999993,-0.2634192440348699
0.03239999999999993,-0.2639851285548159
0.03139999999999993,-0.2646924842047484
0.030399999999999927,-0.2653998398546809
0.029399999999999926,-0.2661071955046134
0.028399999999999925,-0.26681455115454594
0.027399999999999924,-0.26766337793446493
0.026399999999999924,-0.26837073358439745
0.025399999999999923,-0.2689366181043435
0.024399999999999922,-0.269643973754276
0.02339999999999992,-0.27035132940420853
0.02239999999999992,-0.2709172139241546
0.02139999999999992,-0.27162456957408704
0.020399999999999918,-0.27219045409403303
0.019399999999999917,-0.2728978097439656
0.018399999999999916,-0.2734636942639116
0.017399999999999916,-0.2740295787838576
0.016399999999999915,-0.27459546330380363
0.015399999999999914,-0.27530281895373615
0.014399999999999913,-0.27586870347368214
0.013399999999999912,-0.2764345879936282
0.012399999999999911,-0.2770004725135742
0.01139999999999991,-0.2777078281635067
0.01039999999999991,-0.27827371268345275
0.009399999999999908,-0.27898106833338526
0.008399999999999908,-0.27954695285333125
0.007399999999999907,-0.2801128373732773
0.006399999999999906,-0.2805372507632368
0.005399999999999905,-0.2812446064131693
0.004399999999999904,-0.2816690198031288
0.003399999999999903,-0.28223490432307485
0.002399999999999902,-0.2826593177130343
0.0013999999999999013,-0.28308373110299384
0.00039999999999990044,-0.28350814449295336
-0.0006000000000001005,-0.2840740290128994
-0.0016000000000001013,-0.2844984424028589
-0.0026000000000001022,-0.2849228557928184
-0.003600000000000103,-0.2854887403127644
-0.004600000000000104,-0.28591315370272397
-0.005600000000000105,-0.28633756709268343
-0.006600000000000106,-0.28676198048264295
-0.007600000000000107,-0.28732786500258894
-0.008600000000000108,-0.28761080726256194
-0.009600000000000108,-0.2880352206525215
-0.01060000000000011,-0.288459634042481
-0.01160000000000011,-0.289025518562427
-0.012600000000000111,-0.289874345342346
-0.013600000000000112,-0.290157287602319
-0.014600000000000113,-0.29058170099227854
-0.015600000000000114,-0.29100611438223806
-0.016600000000000115,-0.29128905664221105
-0.017600000000000116,-0.2915719989021841
-0.018600000000000116,-0.2918549411621571
-0.019600000000000117,-0.29227935455211657
-0.020600000000000118,-0.29256229681208956
-0.02160000000000012,-0.29284523907206256
-0.02260000000000012,-0.2932696524620221
-0.02360000000000012,-0.29369406585198166
-0.024600000000000122,-0.29397700811195465
-0.025600000000000123,-0.29425995037192765
-0.026600000000000124,-0.2946843637618871
-0.027600000000000124,-0.29482583489187364
-0.028600000000000125,-0.2952502482818331
-0.029600000000000126,-0.2955331905418062
-0.030600000000000127,-0.2956746616717927
-0.03160000000000013,-0.2959576039317657
-0.03260000000000013,-0.2963820173217252
-0.03360000000000013,-0.2966649595816982
-0.03460000000000002,-0.2969479018416712
-0.03560000000000002,-0.2972308441016442
-0.03660000000000002,-0.2973723152316307
-0.03760000000000002,-0.2976552574916037
-0.03860000000000002,-0.29807967088156323
-0.039600000000000024,-0.2983626131415362
-0.040600000000000025,-0.29850408427152275
-0.041600000000000026,-0.29878702653149575
-0.04260000000000003,-0.29906996879146874
-0.04360000000000003,-0.2993529110514418
-0.04460000000000003,-0.29949438218142826
-0.04560000000000003,-0.2996358533114148
-0.04660000000000003,-0.2999187955713878
-0.04760000000000003,-0.30006026670137426
-0.04860000000000003,-0.30034320896134725
-0.04960000000000003,-0.3004846800913338
-0.050600000000000034,-0.3006261512213203
-0.051600000000000035,-0.3009090934812933
-0.052600000000000036,-0.3011920357412663
-0.053600000000000037,-0.30147497800123935
-0.05460000000000004,-0.3016164491312258
-0.05560000000000004,-0.30175792026121234
-0.05660000000000004,-0.3018993913911988
-0.05760000000000004,-0.30204086252118534
-0.05860000000000004,-0.3024652759111448
-0.05960000000000004,-0.3027482181711178
-0.06060000000000004,-0.30303116043109085
-0.061600000000000044,-0.3033141026910639
-0.06260000000000004,-0.3033141026910639
-0.06360000000000005,-0.30373851608102337
-0.06460000000000005,-0.30373851608102337
-0.06560000000000005,-0.3038799872110099
-0.06660000000000005,-0.30402145834099636
-0.06760000000000005,-0.30402145834099636
-0.06860000000000005,-0.3041629294709829
-0.06960000000000005,-0.30430440060096936
-0.07060000000000005,-0.3044458717309559
-0.07160000000000005,-0.30458734286094236
-0.07260000000000005,-0.3047288139909289
-0.07360000000000005,-0.30487028512091535
-0.07460000000000006,-0.3050117562509019
-0.07560000000000006,-0.3051532273808884
-0.07660000000000006,-0.3051532273808884
-0.07760000000000006,-0.30529469851087493
-0.07860000000000006,-0.30529469851087493
-0.07960000000000006,-0.30543616964086145
-0.08060000000000006,-0.3055776407708479
-0.08160000000000006,-0.30571911190083445
-0.08260000000000006,-0.30571911190083445
-0.08360000000000006,-0.30600205416080745
-0.08460000000000006,-0.3061435252907939
-0.08560000000000006,-0.30628499642078044
-0.08660000000000007,-0.30628499642078044
-0.08760000000000007,-0.30628499642078044
-0.08860000000000007,-0.3064264675507669
-0.08960000000000007,-0.3064264675507669
-0.09060000000000007,-0.3064264675507669
-0.09160000000000007,-0.3064264675507669
-0.09260000000000007,-0.3064264675507669
-0.09360000000000007,-0.3064264675507669
-0.09460000000000007,-0.30656793868075344
-0.09560000000000007,-0.30656793868075344
-0.09660000000000007,-0.30656793868075344
-0.09760000000000008,-0.30656793868075344
-0.09860000000000008,-0.30656793868075344
-0.09960000000000008,-0.3067094098107399
-0.10060000000000008,-0.3067094098107399
-0.10160000000000008,-0.3067094098107399
-0.10260000000000008,-0.30685088094072643
-0.10360000000000008,-0.30699235207071296
-0.10460000000000008,-0.30699235207071296
-0.10560000000000008,-0.30699235207071296
-0.10660000000000008,-0.30699235207071296
-0.10760000000000008,-0.3071338232006995
-0.10860000000000009,-0.3071338232006995
-0.10960000000000009,-0.30727529433068596
-0.11060000000000009,-0.3071338232006995
-0.11160000000000009,-0.3071338232006995
-0.11260000000000009,-0.3071338232006995
-0.11360000000000009,-0.30699235207071296
-0.11460000000000009,-0.3071338232006995
-0.11560000000000009,-0.30727529433068596
-0.11660000000000009,-0.3074167654606725
-0.1176000000000001,-0.3074167654606725
-0.1186000000000001,-0.30755823659065895
-0.1196000000000001,-0.3074167654606725
-0.1206000000000001,-0.3074167654606725
-0.1216000000000001,-0.30727529433068596
-0.1226000000000001,-0.30727529433068596
-0.1236000000000001,-0.3074167654606725
-0.1246000000000001,-0.3074167654606725
-0.1256000000000001,-0.3074167654606725
-0.1266000000000001,-0.30727529433068596
-0.1276000000000001,-0.3071338232006995
-0.1286000000000001,-0.3071338232006995
-0.1296000000000001,-0.30699235207071296
-0.1306000000000001,-0.30685088094072643
-0.1316000000000001,-0.30699235207071296
-0.1326000000000001,-0.30699235207071296
-0.1336000000000001,-0.30699235207071296
-0.1346000000000001,-0.30699235207071296
-0.1356000000000001,-0.30685088094072643
-0.1366000000000001,-0.30685088094072643
-0.1376000000000001,-0.3067094098107399
-0.1386000000000001,-0.30656793868075344
-0.1396000000000001,-0.30656793868075344
-0.1406000000000001,-0.30656793868075344
-0.14160000000000011,-0.3064264675507669
-0.14260000000000012,-0.30656793868075344
-0.14360000000000012,-0.30656793868075344
-0.14460000000000012,-0.30656793868075344
-0.14560000000000012,-0.3064264675507669
-0.14660000000000012,-0.3061435252907939
-0.14760000000000012,-0.30600205416080745
-0.14860000000000012,-0.30600205416080745
-0.14960000000000012,-0.3058605830308209
-0.15060000000000012,-0.30571911190083445
-0.15160000000000012,-0.3055776407708479
-0.15260000000000012,-0.3055776407708479
-0.15360000000000013,-0.3055776407708479
-0.15460000000000013,-0.3055776407708479
-0.15560000000000013,-0.3055776407708479
-0.15660000000000013,-0.30543616964086145
-0.15760000000000013,-0.30543616964086145
-0.15860000000000013,-0.30529469851087493
-0.15960000000000002,-0.3051532273808884
-0.16060000000000002,-0.3050117562509019
-0.16160000000000002,-0.30487028512091535
-0.16260000000000002,-0.30487028512091535
-0.16360000000000002,-0.30487028512091535
-0.16460000000000002,-0.3047288139909289
-0.16560000000000002,-0.30487028512091535
-0.16660000000000003,-0.30487028512091535
-0.16760000000000003,-0.30487028512091535
-0.16860000000000003,-0.3050117562509019
-0.16960000000000003,-0.3050117562509019
-0.17060000000000003,-0.3047288139909289
-0.17160000000000003,-0.30458734286094236
-0.17260000000000003,-0.30458734286094236
-0.17360000000000003,-0.3044458717309559
-0.17460000000000003,-0.30430440060096936
-0.17560000000000003,-0.3041629294709829
-0.17660000000000003,-0.30402145834099636
-0.17760000000000004,-0.3038799872110099
-0.17860000000000004,-0.3038799872110099
-0.17960000000000004,-0.3038799872110099
-0.18060000000000004,-0.3038799872110099
-0.18160000000000004,-0.30373851608102337
-0.18260000000000004,-0.30373851608102337
-0.18360000000000004,-0.30373851608102337
-0.18460000000000004,-0.3035970449510369
-0.18560000000000004,-0.3034555738210504
-0.18660000000000004,-0.3035970449510369
-0.18760000000000004,-0.3034555738210504
-0.18860000000000005,-0.3034555738210504
-0.18960000000000005,-0.3033141026910639
-0.19060000000000005,-0.3031726315610774
-0.19160000000000005,-0.3031726315610774
-0.19260000000000005,-0.30303116043109085
-0.19360000000000005,-0.30303116043109085
-0.19460000000000005,-0.3027482181711178
-0.19560000000000005,-0.30260674704113133
-0.19660000000000005,-0.30232380478115833
-0.19760000000000005,-0.30204086252118534
-0.19860000000000005,-0.3018993913911988
-0.19960000000000006,-0.3016164491312258
-0.20060000000000006,-0.3016164491312258
-0.20160000000000006,-0.30147497800123935
-0.20260000000000006,-0.3011920357412663
-0.20360000000000006,-0.30105056461127977
-0.20460000000000006,-0.3009090934812933
-0.20560000000000006,-0.3009090934812933
-0.20660000000000006,-0.3009090934812933
-0.20760000000000006,-0.3007676223513068
-0.20860000000000006,-0.3006261512213203
-0.20960000000000006,-0.3004846800913338
-0.21060000000000006,-0.30034320896134725
-0.21160000000000007,-0.30034320896134725
-0.21260000000000007,-0.3002017378313608
-0.21360000000000007,-0.2999187955713878
-0.21460000000000007,-0.29977732444140126
-0.21560000000000007,-0.29977732444140126
-0.21660000000000007,-0.2996358533114148
-0.21760000000000007,-0.29949438218142826
-0.21860000000000007,-0.2992114399214552
-0.21960000000000007,-0.29878702653149575
-0.22060000000000007,-0.29850408427152275
-0.22160000000000007,-0.29850408427152275
-0.22260000000000008,-0.29850408427152275
-0.22360000000000008,-0.29878702653149575
-0.22460000000000008,-0.2986455554015092
-0.22560000000000008,-0.29822114201154976
-0.22660000000000008,-0.29793819975157676
-0.22760000000000008,-0.29751378636161724
-0.22860000000000008,-0.2973723152316307
-0.22960000000000008,-0.2969479018416712
-0.23060000000000008,-0.29652348845171167
-0.23160000000000008,-0.2962405461917387
-0.23260000000000008,-0.2960990750617522
-0.23360000000000009,-0.2958161328017792
-0.2346000000000001,-0.29539171941181963
-0.2356000000000001,-0.2952502482818331
-0.2366000000000001,-0.2949673060218601
-0.2376000000000001,-0.29482583489187364
-0.2386000000000001,-0.29454289263190064
-0.2396000000000001,-0.2944014215019141
-0.2406000000000001,-0.2944014215019141
-0.2416000000000001,-0.29425995037192765
-0.2426000000000001,-0.29397700811195465
-0.2436000000000001,-0.29369406585198166
-0.2446000000000001,-0.2934111235920086
-0.2456000000000001,-0.2932696524620221
-0.2466000000000001,-0.29284523907206256
-0.2476000000000001,-0.2924208256821031
-0.2486000000000001,-0.2924208256821031
-0.2496000000000001,-0.2921378834221301
-0.2506000000000001,-0.2918549411621571
-0.2516000000000001,-0.2915719989021841
-0.2526000000000001,-0.2914305277721975
-0.2536000000000001,-0.2911475855122245
-0.2546000000000001,-0.29086464325225153
-0.2556000000000001,-0.29058170099227854
-0.2566000000000001,-0.29058170099227854
-0.2576000000000001,-0.29044022986229207
-0.2586000000000001,-0.290157287602319
-0.2596000000000001,-0.289874345342346
-0.2606000000000001,-0.28973287421235955
-0.2616000000000001,-0.28930846082239997
-0.2626000000000001,-0.2891669896924135
-0.2636000000000001,-0.289025518562427
-0.2646000000000001,-0.28930846082239997
-0.2656000000000001,-0.28959140308237297
-0.2666000000000001,-0.28930846082239997
-0.2676000000000001,-0.2888840474324405
-0.2686000000000001,-0.2888840474324405
-0.2696000000000001,-0.288459634042481
-0.2706000000000001,-0.2880352206525215
-0.2716000000000001,-0.28775227839254847
-0.2726000000000001,-0.28761080726256194
-0.2736000000000001,-0.2871863938726024
-0.2746000000000001,-0.28676198048264295
-0.2756000000000001,-0.28647903822266996
-0.2766000000000001,-0.28647903822266996
-0.2776000000000001,-0.28605462483271044
-0.2786000000000001,-0.2857716825727374
-0.2796000000000001,-0.2856302114427509
-0.2806000000000001,-0.2854887403127644
-0.28160000000000013,-0.2852057980527914
-0.28260000000000013,-0.28534726918277786
-0.28360000000000013,-0.2854887403127644
-0.2846,-0.2852057980527914
-0.2856,-0.2852057980527914
-0.2866,-0.28506432692280487
-0.2876,-0.2849228557928184
-0.2886,-0.28478138466283187
-0.2896,-0.2843569712728724
-0.2906,-0.2840740290128994
-0.2916,-0.2839325578829129
-0.2926,-0.2840740290128994
-0.2936,-0.2840740290128994
-0.29460000000000003,-0.2843569712728724
-0.29560000000000003,-0.2842155001428859
-0.29660000000000003,-0.2843569712728724
-0.29760000000000003,-0.2839325578829129
-0.29860000000000003,-0.28379108675292636
-0.29960000000000003,-0.28350814449295336
-0.30060000000000003,-0.28322520223298037
-0.30160000000000003,-0.28308373110299384
-0.30260000000000004,-0.28294225997300737
-0.30360000000000004,-0.28280078884302084
-0.30460000000000004,-0.28280078884302084
-0.30560000000000004,-0.28280078884302084
-0.30660000000000004,-0.28294225997300737
-0.30760000000000004,-0.28280078884302084
-0.30860000000000004,-0.2826593177130343
-0.30960000000000004,-0.2826593177130343
-0.31060000000000004,-0.28280078884302084
-0.31160000000000004,-0.2826593177130343
-0.31260000000000004,-0.2826593177130343
-0.31360000000000005,-0.28294225997300737
-0.31460000000000005,-0.28294225997300737
-0.31560000000000005,-0.28280078884302084
-0.31660000000000005,-0.2826593177130343
-0.31760000000000005,-0.2826593177130343
-0.31860000000000005,-0.28280078884302084
-0.31960000000000005,-0.28280078884302084
-0.32060000000000005,-0.28308373110299384
-0.32160000000000005,-0.28364961562293983
-0.32260000000000005,-0.28350814449295336
-0.32360000000000005,-0.28336667336296684
-0.32460000000000006,-0.28322520223298037
-0.32560000000000006,-0.28336667336296684
-0.32660000000000006,-0.28350814449295336
-0.32760000000000006,-0.28322520223298037
-0.32860000000000006,-0.28336667336296684
-0.32960000000000006,-0.28350814449295336
-0.33060000000000006,-0.28379108675292636
-0.33160000000000006,-0.28379108675292636
-0.33260000000000006,-0.28364961562293983
-0.33360000000000006,-0.28350814449295336
-0.33460000000000006,-0.28364961562293983
-0.33560000000000006,-0.2840740290128994
-0.33660000000000007,-0.2840740290128994
-0.33760000000000007,-0.2842155001428859
-0.33860000000000007,-0.2840740290128994
-0.33960000000000007,-0.2843569712728724
-0.34060000000000007,-0.2843569712728724
-0.34160000000000007,-0.2844984424028589
-0.34260000000000007,-0.2849228557928184
-0.34360000000000007,-0.28506432692280487
-0.3446000000000001,-0.2852057980527914
-0.3456000000000001,-0.2856302114427509
-0.3466000000000001,-0.28605462483271044
-0.34759999999999996,-0.28591315370272397
-0.3486000000000001,-0.2854887403127644
-0.34959999999999997,-0.28534726918277786
-0.3506000000000001,-0.28534726918277786
-0.35159999999999997,-0.28591315370272397
-0.3526000000000001,-0.28605462483271044
-0.35359999999999997,-0.28591315370272397
-0.3546000000000001,-0.28591315370272397
-0.35559999999999997,-0.28647903822266996
-0.3566000000000001,-0.2869034516126294
-0.3576,-0.28732786500258894
-0.3586000000000001,-0.28761080726256194
-0.3596,-0.2871863938726024
-0.3606000000000001,-0.28704492274261595
-0.3616,-0.2874693361325754
-0.3626000000000001,-0.28775227839254847
-0.3636,-0.28761080726256194
-0.3646000000000001,-0.28775227839254847
-0.3656,-0.2883181629124945
-0.3666000000000001,-0.2888840474324405
-0.3676,-0.28930846082239997
-0.3686000000000001,-0.2894499319523865
-0.3696,-0.28959140308237297
-0.3706000000000001,-0.29001581647233254
-0.3716,-0.29044022986229207
-0.3726000000000001,-0.29086464325225153
-0.3736,-0.2914305277721975
-0.3746000000000001,-0.2917134700321706
-0.3756,-0.29199641229214357
-0.3766000000000001,-0.29256229681208956
-0.3776,-0.29369406585198166
-0.3786000000000001,-0.2934111235920086
-0.3796,-0.29355259472199513
-0.3806000000000001,-0.2946843637618871
-0.3816,-0.2952502482818331
-0.3826000000000001,-0.2955331905418062
-0.3836,-0.2962405461917387
-0.3846000000000001,-0.29708937297165766
-0.3856,-0.29793819975157676
-0.3866000000000001,-0.2993529110514418
-0.3876,-0.2999187955713878
-0.3886000000000001,-0.29977732444140126
-0.3896,-0.3006261512213203
-0.3906000000000001,-0.3013335068712528
-0.3916,-0.3013335068712528
-0.3926000000000001,-0.30204086252118534
-0.3936,-0.30260674704113133
-0.3946000000000001,-0.3024652759111448
-0.3956,-0.30260674704113133
-0.3966000000000001,-0.3031726315610774
-0.3976,-0.3050117562509019
-0.3986000000000001,-0.30600205416080745
-0.3996,-0.30685088094072643
-0.4006000000000001,-0.30727529433068596
-0.4016,-0.30727529433068596
-0.4026000000000001,-0.30784117885063195
-0.4036,-0.3091144190205105
-0.4046000000000001,-0.30982177467044303
-0.4056,-0.31052913032037555
-0.40660000000000013,-0.3110950148403216
-0.4076,-0.3119438416202406
-0.40860000000000013,-0.3130756106601326
-0.4096,-0.3136414951800786
-0.41060000000000013,-0.3142073797000246
-0.4116,-0.31477326421997065
-0.41260000000000013,-0.3159050332598627
-0.4136,-0.3166123889097952
-0.41460000000000014,-0.3176026868197007
-0.4156,-0.31930034037953875
-0.41660000000000014,-0.3204321094194308
-0.4176,-0.32099799393937684
-0.41860000000000014,-0.3217053495893093
-0.41960000000000003,-0.3231200608891744
-0.42060000000000014,-0.32354447427913385
-0.42160000000000003,-0.32382741653910685
-0.42260000000000014,-0.32411035879907985
-0.42360000000000003,-0.32580801235891793
-0.42460000000000014,-0.32764713704874243
-0.42560000000000003,-0.32821302156868853
-0.42660000000000015,-0.329203319478594
-0.42760000000000004,-0.32948626173856704
-0.42860000000000015,-0.33019361738849956
-0.42960000000000004,-0.3309009730384321
-0.43060000000000015,-0.33217421320831064
-0.43160000000000004,-0.33344745337818915
-0.43260000000000015,-0.3348621646780542
-0.43360000000000004,-0.3350036358080407
-0.43460000000000015,-0.3355695203279867
-0.43560000000000004,-0.33698423162785174
-0.43660000000000015,-0.33740864501781126
-0.43760000000000004,-0.33769158727778426
-0.43860000000000016,-0.3385404140577033
-0.43960000000000005,-0.3391062985776493
-0.44060000000000016,-0.34023806761754133
-0.44160000000000005,-0.34136983665743337
