Potential V vs RHE, Current mA cm-2
0.013299999999999867,-0.6564260431373771
0.012299999999999978,-2.7501987669376318
0.011299999999999866,-4.102662769608606
0.010299999999999976,-5.191990470504685
0.009299999999999864,-5.9347139029338285
0.008299999999999974,-6.588310523471475
0.007299999999999862,-7.111753704421539
0.006299999999999972,-7.5474847847799715
0.00529999999999986,-7.940774526142452
0.0042999999999999705,-8.332649556205066
0.0032999999999998586,-8.725939297567548
0.0022999999999999687,-9.073958277334345
0.0012999999999998568,-9.379535918105192
0.00029999999999996696,-9.685113558876042
-0.000700000000000145,-9.946835149351072
-0.0017000000000000348,-10.164700689530287
-0.0027000000000001467,-10.296268840417738
-0.0037000000000000366,-10.470278330301136
-0.0047000000000001485,-10.644287820184536
-0.005700000000000038,-10.775855971071984
-0.00670000000000015,-10.949865460955383
-0.00770000000000004,-11.123874950838783
-0.008700000000000152,-11.343155202317865
-0.009700000000000042,-11.56102074249708
-0.010700000000000154,-11.73503023238048
-0.011700000000000044,-11.909039722263879
-0.012700000000000156,-12.040607873151327
-0.013700000000000045,-12.12831997374296
-0.014700000000000157,-12.214617363034726
-0.015700000000000047,-12.302329463626359
-0.01670000000000016,-12.390041564217992
-0.01770000000000005,-12.476338953509758
-0.01870000000000016,-12.56405105410139
-0.01970000000000005,-12.694204493688973
-0.020700000000000163,-12.869628694872238
-0.021700000000000053,-12.99978213445982
-0.022700000000000164,-13.175206335643086
-0.023700000000000054,-13.261503724934855
-0.024700000000000166,-13.349215825526485
-0.025700000000000056,-13.3930718758223
-0.026700000000000168,-13.436927926118118
-0.027700000000000058,-13.47936926511407
-0.02870000000000017,-13.523225315409885
-0.02970000000000006,-13.610937416001518
-0.03070000000000017,-13.698649516593148
-0.03170000000000006,-13.784946905884919
-0.03270000000000017,-13.916515056772363
-0.03370000000000006,-14.002812446064135
-0.034700000000000175,-14.090524546655764
-0.035700000000000065,-14.217848563643619
-0.03670000000000018,-14.217848563643619
-0.03770000000000007,-14.26028990263957
-0.03870000000000018,-14.26028990263957
-0.03970000000000007,-14.30273124163552
-0.04070000000000018,-14.30273124163552
-0.04170000000000007,-14.401761032626075
-0.04270000000000018,-14.444202371622024
-0.04370000000000007,-14.529085049613924
-0.044700000000000184,-14.65640906660178
-0.045700000000000074,-14.741291744593681
-0.046700000000000186,-14.826174422585586
-0.047700000000000076,-14.868615761581536
-0.04870000000000019,-14.868615761581536
-0.04970000000000008,-14.868615761581536
-0.05070000000000019,-14.868615761581536
-0.05170000000000008,-14.868615761581536
-0.05270000000000019,-14.925204213576137
-0.05370000000000008,-14.967645552572087
-0.05470000000000019,-15.05252823056399
-0.05570000000000008,-15.137410908555893
-0.056700000000000195,-15.179852247551842
-0.057700000000000085,-15.307176264539699
-0.058700000000000196,-15.349617603535648
-0.059700000000000086,-15.3920589425316
-0.0607000000000002,-15.3920589425316
-0.06170000000000009,-15.448647394526201
-0.0627000000000002,-15.3920589425316
-0.06370000000000009,-15.3920589425316
-0.0647000000000002,-15.448647394526201
-0.06570000000000009,-15.491088733522153
-0.0667000000000002,-15.533530072518102
-0.0677000000000001,-15.618412750510005
-0.0687000000000002,-15.660854089505953
-0.0697000000000001,-15.74573676749786
-0.07070000000000021,-15.78817810649381
-0.0717000000000001,-15.78817810649381
-0.07270000000000021,-15.78817810649381
-0.0737000000000001,-15.830619445489761
-0.07470000000000021,-15.78817810649381
-0.0757000000000001,-15.78817810649381
-0.07670000000000021,-15.830619445489761
-0.0777000000000001,-15.87306078448571
-0.07870000000000021,-15.972090575476265
-0.0797000000000001,-16.014531914472215
-0.08070000000000022,-16.099414592464115
-0.0817000000000001,-16.184297270456018
-0.08270000000000022,-16.22673860945197
-0.08370000000000011,-16.22673860945197
-0.08470000000000022,-16.184297270456018
-0.08570000000000011,-16.184297270456018
-0.08670000000000022,-16.184297270456018
-0.08770000000000011,-16.184297270456018
-0.08870000000000022,-16.184297270456018
-0.08970000000000011,-16.269179948447924
-0.09070000000000022,-16.354062626439823
-0.09170000000000011,-16.396503965435777
-0.09270000000000023,-16.495533756426326
-0.09370000000000012,-16.53797509542228
-0.09470000000000023,-16.580416434418233
-0.09570000000000012,-16.53797509542228
-0.09670000000000023,-16.580416434418233
-0.09770000000000012,-16.53797509542228
-0.09870000000000023,-16.495533756426326
-0.09970000000000012,-16.580416434418233
-0.10070000000000023,-16.580416434418233
-0.10170000000000012,-16.665299112410132
-0.10270000000000024,-16.70774045140608
-0.10370000000000013,-16.792623129397985
-0.10470000000000024,-16.835064468393938
-0.10570000000000013,-16.877505807389888
-0.10670000000000024,-16.877505807389888
-0.10770000000000013,-16.877505807389888
-0.10870000000000024,-16.877505807389888
-0.10970000000000013,-16.877505807389888
-0.11070000000000024,-16.877505807389888
-0.11170000000000013,-16.877505807389888
-0.11270000000000002,-16.962388485381787
-0.11370000000000013,-17.018976937376394
-0.11470000000000002,-17.061418276372343
-0.11570000000000014,-17.146300954364243
-0.11670000000000003,-17.188742293360193
-0.11770000000000014,-17.231183632356142
-0.11870000000000003,-17.231183632356142
-0.11970000000000014,-17.188742293360193
-0.12070000000000003,-17.231183632356142
-0.12170000000000014,-17.188742293360193
-0.12270000000000003,-17.188742293360193
-0.12370000000000014,-17.231183632356142
-0.12470000000000003,-17.2736249713521
-0.12570000000000014,-17.358507649344002
-0.12670000000000003,-17.4433903273359
-0.12770000000000015,-17.542420118326454
-0.12870000000000004,-17.584861457322408
-0.12970000000000015,-17.627302796318357
-0.13070000000000004,-17.584861457322408
-0.13170000000000015,-17.584861457322408
-0.13270000000000004,-17.584861457322408
-0.13370000000000015,-17.584861457322408
-0.13470000000000004,-17.584861457322408
-0.13570000000000015,-17.627302796318357
-0.13670000000000004,-17.71218547431026
-0.13770000000000016,-17.797068152302163
-0.13870000000000005,-17.839509491298113
-0.13970000000000016,-17.924392169290012
-0.14070000000000005,-17.966833508285966
-0.14170000000000016,-18.009274847281915
-0.14270000000000005,-18.009274847281915
-0.14370000000000016,-17.966833508285966
-0.14470000000000005,-18.009274847281915
-0.14570000000000016,-18.009274847281915
-0.14670000000000005,-18.009274847281915
-0.14770000000000016,-18.10830463827247
-0.14870000000000005,-18.15074597726842
-0.14970000000000017,-18.23562865526032
-0.15070000000000006,-18.320511333252224
-0.15170000000000017,-18.40539401124413
-0.15270000000000006,-18.44783535024008
-0.15370000000000017,-18.44783535024008
-0.15470000000000006,-18.40539401124413
-0.15570000000000017,-18.44783535024008
-0.15670000000000006,-18.40539401124413
-0.15770000000000017,-18.44783535024008
-0.15870000000000006,-18.49027668923603
-0.15970000000000018,-18.589306480226583
-0.16070000000000007,-18.674189158218486
-0.16170000000000018,-18.716630497214435
-0.16270000000000007,-18.80151317520634
-0.16370000000000018,-18.843954514202288
-0.16470000000000007,-18.92883719219419
-0.16570000000000018,-18.92883719219419
-0.16670000000000007,-18.92883719219419
-0.16770000000000018,-18.92883719219419
-0.16870000000000007,-18.92883719219419
-0.16970000000000018,-18.97127853119014
-0.17070000000000007,-18.97127853119014
-0.17170000000000019,-19.112749661176647
-0.17270000000000008,-19.197632339168546
-0.1737000000000002,-19.2400736781645
-0.17470000000000008,-19.3249563561564
-0.1757000000000002,-19.367397695152352
-0.17670000000000008,-19.409839034148305
-0.1777000000000002,-19.409839034148305
-0.17870000000000008,-19.409839034148305
-0.1797000000000002,-19.452280373144255
-0.18070000000000008,-19.452280373144255
-0.1817000000000002,-19.49472171214021
-0.18270000000000008,-19.537163051136158
-0.1837000000000002,-19.636192842126707
-0.1847000000000001,-19.763516859114564
-0.1857000000000002,-19.805958198110513
-0.1867000000000001,-19.890840876102416
-0.1877000000000002,-19.93328221509837
-0.1887000000000001,-19.93328221509837
-0.1897000000000002,-19.97572355409432
-0.1907000000000001,-19.97572355409432
-0.1917000000000001,-19.97572355409432
-0.19269999999999998,-20.01816489309027
-0.1937000000000001,-20.06060623208622
-0.19469999999999998,-20.10304757108217
-0.1957000000000001,-20.202077362072725
-0.19669999999999999,-20.286960040064624
-0.1977000000000001,-20.414284057052477
-0.1987,-20.456725396048434
-0.1997000000000001,-20.499166735044383
-0.2007,-20.541608074040333
-0.2017000000000001,-20.541608074040333
-0.2027,-20.541608074040333
-0.2037000000000001,-20.541608074040333
-0.2047,-20.584049413036283
-0.2057000000000001,-20.683079204026836
-0.2067,-20.76796188201874
-0.2077000000000001,-20.810403221014692
-0.2087,-20.93772723800254
-0.2097000000000001,-21.022609915994444
-0.2107,-21.065051254990397
-0.2117000000000001,-21.149933932982297
-0.2127,-21.149933932982297
-0.2137000000000001,-21.149933932982297
-0.2147,-21.149933932982297
-0.2157000000000001,-21.291405062968803
-0.2167,-21.291405062968803
-0.21770000000000012,-21.333846401964752
-0.2187,-21.418729079956652
-0.21970000000000012,-21.54605309694451
-0.2207,-21.63093577493641
-0.22170000000000012,-21.729965565926964
-0.2227,-21.814848243918867
-0.22370000000000012,-21.814848243918867
-0.2247,-21.857289582914817
-0.22570000000000012,-21.857289582914817
-0.2267,-21.857289582914817
-0.22770000000000012,-21.899730921910766
-0.22870000000000001,-21.94217226090672
-0.22970000000000013,-22.027054938898623
-0.23070000000000002,-22.15437895588647
-0.23170000000000013,-22.253408746877028
-0.23270000000000002,-22.38073276386488
-0.23370000000000013,-22.42317410286083
-0.23470000000000002,-22.508056780852733
-0.23570000000000013,-22.508056780852733
-0.23670000000000002,-22.550498119848687
-0.2376999999999999,-22.550498119848687
-0.23870000000000002,-22.550498119848687
-0.2396999999999999,-22.63538079784059
-0.24070000000000003,-22.72026347583249
-0.24169999999999991,-22.819293266823045
-0.24270000000000003,-22.904175944814945
-0.24369999999999992,-23.031499961802798
-0.24470000000000003,-23.15882397879065
-0.24569999999999992,-23.2012653177866
-0.24670000000000003,-23.300295108777156
-0.24769999999999992,-23.300295108777156
-0.24870000000000003,-23.342736447773106
-0.24969999999999992,-23.342736447773106
-0.25070000000000003,-23.385177786769056
-0.2516999999999999,-23.47006046476096
-0.25270000000000004,-23.55494314275286
-0.2536999999999999,-23.639825820744765
-0.25470000000000004,-23.767149837732617
-0.2556999999999999,-23.908620967719123
-0.25670000000000004,-23.993503645711023
-0.25769999999999993,-24.078386323702922
-0.25870000000000004,-24.120827662698876
-0.25969999999999993,-24.16326900169483
-0.26070000000000004,-24.16326900169483
-0.26169999999999993,-24.20571034069078
-0.26270000000000004,-24.290593018682678
-0.26369999999999993,-24.34718147067728
-0.26470000000000005,-24.474505487665134
-0.26569999999999994,-24.559388165657033
-0.26670000000000005,-24.686712182644893
-0.26769999999999994,-24.870624651627345
-0.26870000000000005,-24.95550732961925
-0.26969999999999994,-25.04039000761115
-0.27070000000000005,-25.0828313466071
-0.27169999999999994,-25.12527268560305
-0.27270000000000005,-25.167714024599
-0.27369999999999994,-25.167714024599
-0.27470000000000006,-25.252596702590903
-0.27569999999999995,-25.337479380582806
-0.27670000000000006,-25.478950510569312
-0.27769999999999995,-25.60627452755716
-0.27870000000000006,-25.73359854454502
-0.27969999999999995,-25.86092256153287
-0.28070000000000006,-25.959952352523427
-0.28169999999999995,-26.044835030515326
-0.28270000000000006,-26.087276369511276
-0.28369999999999995,-26.129717708507226
-0.28470000000000006,-26.17215904750318
-0.28569999999999995,-26.257041725495082
-0.28670000000000007,-26.34192440348698
-0.28769999999999996,-26.483395533473487
-0.28870000000000007,-26.61071955046134
-0.28969999999999996,-26.738043567449193
-0.29070000000000007,-26.86536758443705
-0.29169999999999996,-27.00683871442355
-0.29270000000000007,-27.134162731411404
-0.29369999999999996,-27.176604070407354
-0.2947000000000001,-27.261486748399253
-0.29569999999999996,-27.303928087395207
-0.2967000000000001,-27.34636942639116
-0.29769999999999996,-27.487840556377662
-0.2987000000000001,-27.572723234369565
-0.29969999999999997,-27.700047251357418
-0.3007000000000001,-27.869812607341224
-0.30169999999999997,-28.011283737327723
-0.3027000000000001,-28.18104909331153
-0.30369999999999997,-28.265931771303435
-0.3047000000000001,-28.435697127287238
-0.30569999999999997,-28.53472691827779
-0.3067000000000001,-28.577168257273744
-0.3077,-28.662050935265643
-0.3087000000000001,-28.704492274261593
-0.3097,-28.831816291249446
-0.3107000000000001,-28.959140308237306
-0.3117,-29.14305277721976
-0.3127000000000001,-29.27037679420761
-0.3137,-29.440142150191413
-0.3147000000000001,-29.581613280177915
-0.3157,-29.751378636161718
-0.3167000000000001,-29.836261314153624
-0.3177,-29.921143992145527
-0.3187000000000001,-30.04846800913338
-0.3197,-30.147497800123933
-0.3207000000000001,-30.232380478115836
-0.3217,-30.359704495103685
-0.3227000000000001,-30.487028512091538
-0.3237,-30.670940981073993
-0.3247000000000001,-30.8407063370578
-0.3257,-31.052913032037555
-0.3267000000000001,-31.19438416202406
-0.3277,-31.321708179011907
-0.3287000000000001,-31.449032195999767
-0.3297,-31.533914873991666
-0.3307000000000001,-31.661238890979522
-0.3317,-31.76026868197007
-0.3327000000000001,-31.84515135996197
-0.3337,-32.01491671594578
-0.3347000000000001,-32.184682071929586
-0.3357,-32.368594540912035
-0.3367000000000001,-32.58080123589179
-0.3377,-32.807155043870196
-0.3387000000000001,-32.97692039985401
-0.3397,-33.10424441684186
-0.3407000000000001,-33.231568433829715
-0.3417,-33.330598224820264
-0.3427000000000001,-33.45792224180811
-0.3437,-33.54280491980002
-0.3447000000000001,-33.755011614779775
-0.3457,-33.89648274476628
-0.3467000000000001,-34.10868943974604
-0.3477,-34.33504324772444
-0.3487000000000001,-34.50480860370825
-0.3497,-34.717015298688004
-0.3507000000000001,-34.90092776767045
-0.3517,-35.07069312365426
-0.3527000000000001,-35.198017140642115
-0.3537,-35.32534115762997
-0.3547000000000001,-35.42437094862052
-0.3557,-35.594136304604326
-0.35670000000000013,-35.763901660588125
-0.3577,-35.99025546856653
-0.35870000000000013,-36.20246216354629
-0.3597,-36.37222751953009
-0.36070000000000013,-36.64102266650445
-0.3617,-36.81078802248826
-0.3626999999999999,-37.037141830466666
-0.3637,-37.206907186450465
-0.3646999999999999,-37.334231203438314
-0.3657,-37.47570233342482
-0.3666999999999999,-37.60302635041268
-0.3677,-37.81523304539243
-0.3686999999999999,-37.99914551437489
-0.36970000000000003,-38.253793548350586
-0.3706999999999999,-38.46600024333035
-0.37170000000000003,-38.734795390304704
-0.3726999999999999,-38.98944342428042
-0.37370000000000003,-39.21579723225882
-0.3746999999999999,-39.42800392723857
-0.37570000000000003,-39.56947505722508
-0.3766999999999999,-39.739240413208876
-0.37770000000000004,-39.90900576919269
-0.3786999999999999,-40.092918238175145
-0.37970000000000004,-40.30512493315489
-0.3806999999999999,-40.51733162813464
-0.38170000000000004,-40.78612677510901
-0.38269999999999993,-41.083216148080666
-0.38370000000000004,-41.30956995605907
-0.38469999999999993,-41.56421799003478
-0.38570000000000004,-41.83301313700913
-0.38669999999999993,-42.00277849299294
-0.38770000000000004,-42.229132300971344
-0.38869999999999993,-42.39889765695515
-0.38970000000000005,-42.568663012938956
-0.39069999999999994,-42.79501682091736
-0.39170000000000005,-43.007223515897124
-0.39269999999999994,-43.27601866287147
-0.39370000000000005,-43.53066669684718
-0.39469999999999994,-43.84190318281749
-0.39570000000000005,-44.096551216793195
-0.39669999999999994,-44.36534636376755
-0.39770000000000005,-44.619994397743255
-0.39869999999999994,-44.84634820572166
-0.39970000000000006,-45.05855490070142
-0.40069999999999995,-45.27076159568118
-0.40170000000000006,-45.45467406466363
-0.40269999999999995,-45.70932209863933
-0.40370000000000006,-45.97811724561369
-0.40469999999999995,-46.27520661858535
-0.40570000000000006,-46.586443104555656
-0.40669999999999995,-46.88353247752732
-0.40770000000000006,-47.19476896349763
-0.40869999999999995,-47.506005449467935
-0.40970000000000006,-47.76065348344364
-0.41069999999999995,-47.987007291422046
-0.41170000000000007,-48.24165532539775
-0.41269999999999996,-48.51045047237211
-0.41370000000000007,-48.72265716735186
-0.41469999999999996,-49.03389365332217
-0.41570000000000007,-49.28854168729788
-0.41669999999999996,-49.642219512264134
-0.41770000000000007,-49.939308885235796
-0.41869999999999996,-50.2505453712061
-0.4197000000000001,-50.64666453516831
-0.42069999999999996,-50.943753908139975
-0.4217000000000001,-51.21254905511432
-0.42269999999999996,-51.46719708909004
-0.4237000000000001,-51.73599223606439
-0.42469999999999997,-51.948198931044146
-0.4257000000000001,-52.2169940780185
-0.42669999999999997,-52.514083450990164
-0.4277000000000001,-52.82531993696047
-0.42869999999999997,-53.16485064892808
-0.4297000000000001,-53.518528473894335
-0.43069999999999997,-53.91464763785655
-0.4317000000000001,-54.26832546282281
-0.4327,-54.60785617479041
-0.4337000000000001,-54.919092660760725
-0.4347,-55.21618203373238
-0.4357000000000001,-55.527418519702685
-0.4367,-55.7820665536784
-0.4377000000000001,-56.13574437864466
-0.4387,-56.44698086461496
-0.4397000000000001,-56.82895291557852
-0.4407,-57.22507207954074
-0.4417000000000001,-57.62119124350295
-0.4427,-58.05975174646111
-0.4437000000000001,-58.39928245842871
-0.4447,-58.79540162239092
-0.4457000000000001,-59.10663810836124
-0.4467,-59.44616882032884
-0.4477000000000001,-59.7998466452951
-0.4487,-60.11108313126541
-0.4497000000000001,-60.49305518222897
-0.4507,-60.889174346191176
-0.4517000000000001,-61.327734849149344
-0.4527,-61.72385401311155
-0.4537000000000001,-62.11997317707376
-0.4547,-62.58682790602922
-0.4557000000000001,-62.98294706999144
-0.4567,-63.421507572949594
-0.4577000000000001,-63.77518539791585
-0.4587,-64.11471610988345
-0.4597000000000001,-64.51083527384567
-0.4607,-64.86451309881193
-0.4617000000000001,-65.2464851497755
-0.4627,-65.7274869917296
-0.4637000000000001,-66.16604749468777
-0.4647,-66.64704933664189
-0.4657000000000001,-67.128051178596
-0.4667,-67.6090530205501
-0.4677000000000001,-68.04761352350828
-0.4687,-68.48617402646643
-0.4697000000000001,-68.86814607742998
-0.4707,-69.30670658038814
-0.4717000000000001,-69.74526708334632
-0.4727,-70.18382758630447
-0.4737000000000001,-70.62238808926263
-0.4747,-71.1458312702127
-0.4757000000000001,-71.66927445116276
-0.4767,-72.19271763211282
-0.4777000000000001,-72.71616081306288
-0.4787,-73.23960399401295
-0.4797000000000001,-73.6781644969711
-0.4807,-74.14501922592657
-0.48170000000000013,-74.62602106788069
-0.4827,-75.06458157083884
-0.48370000000000013,-75.50314207379701
-0.4847,-76.02658525474708
-0.48570000000000013,-76.50758709670117
-0.4867,-77.0734716166472
-0.4876999999999999,-77.63935613659322
-0.4887,-78.20524065653922
-0.4896999999999999,-78.8135665154812
-0.4907,-79.33700969643127
-0.4916999999999999,-79.86045287738132
-0.4927,-80.38389605833139
-0.4936999999999999,-80.86489790028548
-0.49470000000000003,-81.38834108123557
-0.4956999999999999,-81.91178426218562
-0.49670000000000003,-82.47766878213164
-0.4976999999999999,-83.08599464107361
-0.49870000000000003,-83.70846761301424
-0.4996999999999999,-84.31679347195619
-0.5007,-84.96756066989411
-0.5016999999999999,-85.61832786783202
-0.5027,-86.22665372677399
-0.5036999999999999,-86.84912669871461
-0.5047,-87.41501121866061
-0.5056999999999999,-88.02333707760259
-0.5067,-88.5892215975486
