Potential V vs RHE, Current mA cm-2
0.013299999999999867,-0.7872868383748929
0.012299999999999978,-2.924208256821031
0.011299999999999866,-4.494537799671222
0.010299999999999976,-5.672992312458796
0.009299999999999864,-6.6760226240631075
0.008299999999999974,-7.461187395488204
0.007299999999999862,-8.158640066321666
0.006299999999999972,-8.769795347863363
0.00529999999999986,-9.24938247851761
0.0042999999999999705,-9.772825659467674
0.0032999999999998586,-10.208556739826104
0.0022999999999999687,-10.601846481188586
0.0012999999999998568,-10.993721511251199
0.00029999999999996696,-11.385596541313816
-0.000700000000000145,-11.73503023238048
-0.0017000000000000348,-12.040607873151327
-0.0027000000000001467,-12.302329463626359
-0.0037000000000000366,-12.56405105410139
-0.0047000000000001485,-12.73806054398479
-0.005700000000000038,-12.955926084164007
-0.00670000000000015,-13.175206335643086
-0.00770000000000004,-13.30535977523067
-0.008700000000000152,-13.47936926511407
-0.009700000000000042,-13.698649516593148
-0.010700000000000154,-13.872659006476551
-0.011700000000000044,-14.090524546655764
-0.012700000000000156,-14.26028990263957
-0.013700000000000045,-14.486643710617974
-0.014700000000000157,-14.65640906660178
-0.015700000000000047,-14.868615761581536
-0.01670000000000016,-15.01008689156804
-0.01770000000000005,-15.179852247551842
-0.01870000000000016,-15.264734925543747
-0.01970000000000005,-15.349617603535648
-0.020700000000000163,-15.491088733522153
-0.021700000000000053,-15.533530072518102
-0.022700000000000164,-15.618412750510005
-0.023700000000000054,-15.74573676749786
-0.024700000000000166,-15.87306078448571
-0.025700000000000056,-15.972090575476265
-0.026700000000000168,-16.099414592464115
-0.027700000000000058,-16.269179948447924
-0.02870000000000017,-16.396503965435777
-0.02970000000000006,-16.53797509542228
-0.03070000000000017,-16.665299112410132
-0.03170000000000006,-16.750181790402035
-0.03270000000000017,-16.877505807389888
-0.03370000000000006,-16.919947146385837
-0.034700000000000175,-17.018976937376394
-0.035700000000000065,-17.061418276372343
-0.03670000000000018,-17.146300954364243
-0.03770000000000007,-17.146300954364243
-0.03870000000000018,-17.231183632356142
-0.03970000000000007,-17.316066310348052
-0.04070000000000018,-17.358507649344002
-0.04170000000000007,-17.4433903273359
-0.04270000000000018,-17.584861457322408
-0.04370000000000007,-17.71218547431026
-0.044700000000000184,-17.797068152302163
-0.045700000000000074,-17.924392169290012
-0.046700000000000186,-18.009274847281915
-0.047700000000000076,-18.06586329927652
-0.04870000000000019,-18.10830463827247
-0.04970000000000008,-18.15074597726842
-0.05070000000000019,-18.19318731626437
-0.05170000000000008,-18.23562865526032
-0.05270000000000019,-18.23562865526032
-0.05370000000000008,-18.27806999425627
-0.05470000000000019,-18.320511333252224
-0.05570000000000008,-18.362952672248177
-0.056700000000000195,-18.44783535024008
-0.057700000000000085,-18.589306480226583
-0.058700000000000196,-18.631747819222536
-0.059700000000000086,-18.759071836210385
-0.0607000000000002,-18.843954514202288
-0.06170000000000009,-18.92883719219419
-0.0627000000000002,-19.01371987018609
-0.06370000000000009,-19.01371987018609
-0.0647000000000002,-19.01371987018609
-0.06570000000000009,-19.056161209182044
-0.0667000000000002,-19.056161209182044
-0.0677000000000001,-19.056161209182044
-0.0687000000000002,-19.112749661176647
-0.0697000000000001,-19.155191000172596
-0.07070000000000021,-19.197632339168546
-0.0717000000000001,-19.28251501716045
-0.07270000000000021,-19.367397695152352
-0.0737000000000001,-19.452280373144255
-0.07470000000000021,-19.49472171214021
-0.0757000000000001,-19.636192842126707
-0.07670000000000021,-19.678634181122664
-0.0777000000000001,-19.678634181122664
-0.07870000000000021,-19.678634181122664
-0.0797000000000001,-19.721075520118614
-0.08070000000000022,-19.763516859114564
-0.0817000000000001,-19.763516859114564
-0.08270000000000022,-19.763516859114564
-0.08370000000000011,-19.763516859114564
-0.08470000000000022,-19.805958198110513
-0.08570000000000011,-19.848399537106463
-0.08670000000000022,-19.93328221509837
-0.08770000000000011,-19.97572355409432
-0.08870000000000022,-20.06060623208622
-0.08970000000000011,-20.10304757108217
-0.09070000000000022,-20.202077362072725
-0.09170000000000011,-20.244518701068674
-0.09270000000000023,-20.286960040064624
-0.09370000000000012,-20.286960040064624
-0.09470000000000023,-20.329401379060574
-0.09570000000000012,-20.329401379060574
-0.09670000000000023,-20.329401379060574
-0.09770000000000012,-20.329401379060574
-0.09870000000000023,-20.329401379060574
-0.09970000000000012,-20.414284057052477
-0.10070000000000023,-20.414284057052477
-0.10170000000000012,-20.499166735044383
-0.10270000000000024,-20.584049413036283
-0.10370000000000013,-20.626490752032236
-0.10470000000000024,-20.72552054302279
-0.10570000000000013,-20.810403221014692
-0.10670000000000024,-20.85284456001064
-0.10770000000000013,-20.89528589900659
-0.10870000000000024,-20.89528589900659
-0.10970000000000013,-20.89528589900659
-0.11070000000000024,-20.93772723800254
-0.11170000000000013,-20.93772723800254
-0.11270000000000002,-20.89528589900659
-0.11370000000000013,-20.93772723800254
-0.11470000000000002,-20.980168576998494
-0.11570000000000014,-20.980168576998494
-0.11670000000000003,-21.065051254990397
-0.11770000000000014,-21.149933932982297
-0.11870000000000003,-21.248963723972853
-0.11970000000000014,-21.291405062968803
-0.12070000000000003,-21.376287740960702
-0.12170000000000014,-21.418729079956652
-0.12270000000000003,-21.461170418952605
-0.12370000000000014,-21.461170418952605
-0.12470000000000003,-21.461170418952605
-0.12570000000000014,-21.461170418952605
-0.12670000000000003,-21.461170418952605
-0.12770000000000015,-21.461170418952605
-0.12870000000000004,-21.503611757948562
-0.12970000000000015,-21.54605309694451
-0.13070000000000004,-21.54605309694451
-0.13170000000000015,-21.63093577493641
-0.13270000000000004,-21.729965565926964
-0.13370000000000015,-21.814848243918867
-0.13470000000000004,-21.857289582914817
-0.13570000000000015,-21.94217226090672
-0.13670000000000004,-21.98461359990267
-0.13770000000000016,-22.027054938898623
-0.13870000000000005,-22.027054938898623
-0.13970000000000016,-22.027054938898623
-0.14070000000000005,-22.069496277894572
-0.14170000000000016,-22.069496277894572
-0.14270000000000005,-22.069496277894572
-0.14370000000000016,-22.111937616890522
-0.14470000000000005,-22.15437895588647
-0.14570000000000016,-22.15437895588647
-0.14670000000000005,-22.253408746877028
-0.14770000000000016,-22.33829142486893
-0.14870000000000005,-22.42317410286083
-0.14970000000000017,-22.508056780852733
-0.15070000000000006,-22.550498119848687
-0.15170000000000017,-22.63538079784059
-0.15270000000000006,-22.67782213683654
-0.15370000000000017,-22.67782213683654
-0.15470000000000006,-22.67782213683654
-0.15570000000000017,-22.72026347583249
-0.15670000000000006,-22.72026347583249
-0.15770000000000017,-22.72026347583249
-0.15870000000000006,-22.776851927827092
-0.15970000000000018,-22.819293266823045
-0.16070000000000007,-22.861734605818995
-0.16170000000000018,-22.946617283810895
-0.16270000000000007,-22.989058622806844
-0.16370000000000018,-23.1163826397947
-0.16470000000000007,-23.2012653177866
-0.16570000000000018,-23.300295108777156
-0.16670000000000007,-23.342736447773106
-0.16770000000000018,-23.385177786769056
-0.16870000000000007,-23.385177786769056
-0.16970000000000018,-23.385177786769056
-0.17070000000000007,-23.427619125765005
-0.17170000000000019,-23.427619125765005
-0.17270000000000008,-23.427619125765005
-0.1737000000000002,-23.47006046476096
-0.17470000000000008,-23.55494314275286
-0.1757000000000002,-23.55494314275286
-0.17670000000000008,-23.639825820744765
-0.1777000000000002,-23.724708498736668
-0.17870000000000008,-23.823738289727217
-0.1797000000000002,-23.908620967719123
-0.18070000000000008,-23.951062306715073
-0.1817000000000002,-24.035944984706973
-0.18270000000000008,-24.120827662698876
-0.1837000000000002,-24.120827662698876
-0.1847000000000001,-24.120827662698876
-0.1857000000000002,-24.16326900169483
-0.1867000000000001,-24.16326900169483
-0.1877000000000002,-24.16326900169483
-0.1887000000000001,-24.20571034069078
-0.1897000000000002,-24.290593018682678
-0.1907000000000001,-24.34718147067728
-0.1917000000000001,-24.389622809673234
-0.19269999999999998,-24.516946826661083
-0.1937000000000001,-24.601829504652986
-0.19469999999999998,-24.64427084364894
-0.1957000000000001,-24.771594860636792
-0.19669999999999999,-24.814036199632742
-0.1977000000000001,-24.870624651627345
-0.1987,-24.9130659906233
-0.1997000000000001,-24.9130659906233
-0.2007,-24.95550732961925
-0.2017000000000001,-24.95550732961925
-0.2027,-24.95550732961925
-0.2037000000000001,-25.04039000761115
-0.2047,-25.0828313466071
-0.2057000000000001,-25.12527268560305
-0.2067,-25.210155363594954
-0.2077000000000001,-25.295038041586857
-0.2087,-25.39406783257741
-0.2097000000000001,-25.478950510569312
-0.2107,-25.563833188561212
-0.2117000000000001,-25.648715866553115
-0.2127,-25.73359854454502
-0.2137000000000001,-25.73359854454502
-0.2147,-25.77603988354097
-0.2157000000000001,-25.86092256153287
-0.2167,-25.91751101352747
-0.21770000000000012,-25.91751101352747
-0.2187,-25.91751101352747
-0.21970000000000012,-26.002393691519377
-0.2207,-26.044835030515326
-0.22170000000000012,-26.087276369511276
-0.2227,-26.21460038649913
-0.22370000000000012,-26.29948306449103
-0.2247,-26.38436574248293
-0.22570000000000012,-26.525836872469437
-0.2267,-26.568278211465387
-0.22770000000000012,-26.65316088945729
-0.22870000000000001,-26.65316088945729
-0.22970000000000013,-26.69560222845324
-0.23070000000000002,-26.738043567449193
-0.23170000000000013,-26.780484906445146
-0.23270000000000002,-26.780484906445146
-0.23370000000000013,-26.86536758443705
-0.23470000000000002,-26.907808923433
-0.23570000000000013,-27.00683871442355
-0.23670000000000002,-27.091721392415455
-0.2376999999999999,-27.176604070407354
-0.23870000000000002,-27.261486748399253
-0.2396999999999999,-27.38881076538711
-0.24070000000000003,-27.487840556377662
-0.24169999999999991,-27.572723234369565
-0.24270000000000003,-27.65760591236147
-0.24369999999999992,-27.65760591236147
-0.24470000000000003,-27.700047251357418
-0.24569999999999992,-27.742488590353368
-0.24670000000000003,-27.78492992934932
-0.24769999999999992,-27.78492992934932
-0.24870000000000003,-27.869812607341224
-0.24969999999999992,-27.954695285333123
-0.25070000000000003,-28.05372507632368
-0.2516999999999999,-28.13860775431558
-0.25270000000000004,-28.22349043230748
-0.2536999999999999,-28.350814449295335
-0.25470000000000004,-28.478138466283188
-0.2556999999999999,-28.577168257273744
-0.25670000000000004,-28.662050935265643
-0.25769999999999993,-28.746933613257543
-0.25870000000000004,-28.789374952253496
-0.25969999999999993,-28.831816291249446
-0.26070000000000004,-28.8742576302454
-0.26169999999999993,-28.959140308237306
-0.26270000000000004,-28.959140308237306
-0.26369999999999993,-29.058170099227848
-0.26470000000000005,-29.14305277721976
-0.26569999999999994,-29.22793545521166
-0.26670000000000005,-29.31281813320356
-0.26769999999999994,-29.482583489187363
-0.26870000000000005,-29.581613280177915
-0.26969999999999994,-29.708937297165768
-0.27070000000000005,-29.836261314153624
-0.27169999999999994,-29.921143992145527
-0.27270000000000005,-30.04846800913338
-0.27369999999999994,-30.10505646112798
-0.27470000000000006,-30.10505646112798
-0.27569999999999995,-30.189939139119886
-0.27670000000000006,-30.274821817111786
-0.27769999999999995,-30.274821817111786
-0.27870000000000006,-30.402145834099635
-0.27969999999999995,-30.487028512091538
-0.28070000000000006,-30.529469851087494
-0.28169999999999995,-30.670940981073993
-0.28270000000000006,-30.79826499806185
-0.28369999999999995,-30.968030354045652
-0.28470000000000006,-31.095354371033505
-0.28569999999999995,-31.19438416202406
-0.28670000000000007,-31.321708179011907
-0.28769999999999996,-31.449032195999767
-0.28870000000000007,-31.49147353499572
-0.28969999999999996,-31.57635621298762
-0.29070000000000007,-31.618797551983565
-0.29169999999999996,-31.717827342974125
-0.29270000000000007,-31.76026868197007
-0.29369999999999996,-31.887592698957924
-0.2947000000000001,-32.01491671594578
-0.29569999999999996,-32.09979939393769
-0.2967000000000001,-32.184682071929586
-0.29769999999999996,-32.368594540912035
-0.2987000000000001,-32.53835989689585
-0.29969999999999997,-32.66568391388369
-0.3007000000000001,-32.84959638286615
-0.30169999999999997,-32.93447906085806
-0.3027000000000001,-33.06180307784591
-0.30369999999999997,-33.14668575583781
-0.3047000000000001,-33.231568433829715
-0.30569999999999997,-33.330598224820264
-0.3067000000000001,-33.41548090281216
-0.3077,-33.50036358080407
-0.3087000000000001,-33.627687597791926
-0.3097,-33.755011614779775
-0.3107000000000001,-33.89648274476628
-0.3117,-34.02380676175414
-0.3127000000000001,-34.193572117737936
-0.3137,-34.377484586720385
-0.3147000000000001,-34.50480860370825
-0.3157,-34.67457395969205
-0.3167000000000001,-34.8018979766799
-0.3177,-34.94336910666641
-0.3187000000000001,-35.11313446265021
-0.3197,-35.15557580164616
-0.3207000000000001,-35.282899818634014
-0.3217,-35.42437094862052
-0.3227000000000001,-35.46681228761647
-0.3237,-35.636577643600276
-0.3247000000000001,-35.763901660588125
-0.3257,-35.90537279057463
-0.3267000000000001,-36.07513814655844
-0.3277,-36.244903502542236
-0.3287000000000001,-36.4288159715247
-0.3297,-36.5985813275085
-0.3307000000000001,-36.768346683492304
-0.3317,-36.99470049147071
-0.3327000000000001,-37.07958316946261
-0.3337,-37.249348525446415
-0.3347000000000001,-37.291789864442364
-0.3357,-37.47570233342482
-0.3367000000000001,-37.60302635041268
-0.3377,-37.687909028404576
-0.3387000000000001,-37.85767438438838
-0.3397,-38.04158685337084
-0.3407000000000001,-38.16891087035869
-0.3417,-38.33867622634249
-0.3427000000000001,-38.5650300343209
-0.3437,-38.777236729300654
-0.3447000000000001,-38.98944342428042
-0.3457,-39.21579723225882
-0.3467000000000001,-39.38556258824262
-0.3477,-39.56947505722508
-0.3487000000000001,-39.696799074212926
-0.3497,-39.82412309120078
-0.3507000000000001,-39.99388844718459
-0.3517,-40.092918238175145
-0.3527000000000001,-40.26268359415894
-0.3537,-40.43244895014274
-0.3547000000000001,-40.616361419125205
-0.3557,-40.78612677510901
-0.35670000000000013,-40.99833347008877
-0.3577,-41.267128617063115
-0.35870000000000013,-41.43689397304693
-0.3597,-41.66324778102533
-0.36070000000000013,-41.91789581500104
-0.3617,-42.087661170984845
-0.3626999999999999,-42.31401497896325
-0.3637,-42.483780334947056
-0.3646999999999999,-42.653545690930855
-0.3657,-42.79501682091736
-0.3666999999999999,-43.007223515897124
-0.3677,-43.134547532884966
-0.3686999999999999,-43.36090134086337
-0.36970000000000003,-43.57310803584313
-0.3706999999999999,-43.75702050482558
-0.37170000000000003,-43.96922719980534
-0.3726999999999999,-44.181433894785094
-0.37370000000000003,-44.45022904175945
-0.3746999999999999,-44.704877075735155
-0.37570000000000003,-44.97367222270952
-0.3766999999999999,-45.18587891768927
-0.37770000000000004,-45.45467406466363
-0.3786999999999999,-45.624439420647434
-0.37970000000000004,-45.85079322862584
-0.3806999999999999,-46.02055858460964
-0.38170000000000004,-46.2327652795894
-0.38269999999999993,-46.41667774857186
-0.38370000000000004,-46.586443104555656
-0.38469999999999993,-46.84109113853137
-0.38570000000000004,-47.067444946509774
-0.38669999999999993,-47.27965164148953
-0.38770000000000004,-47.590888127459834
-0.38869999999999993,-47.84553616143554
-0.38970000000000005,-48.114331308409895
-0.39069999999999994,-48.36897934238561
-0.39170000000000005,-48.63777448935996
-0.39269999999999994,-48.89242252333566
-0.39370000000000005,-49.118776331314066
-0.39469999999999994,-49.28854168729788
-0.39570000000000005,-49.557336834272235
-0.39669999999999994,-49.76954352925199
-0.39770000000000005,-49.939308885235796
-0.39869999999999994,-50.20810403221015
-0.39970000000000006,-50.42031072718991
-0.40069999999999995,-50.73154721316022
-0.40170000000000006,-50.943753908139975
-0.40269999999999995,-51.25499039411028
-0.40370000000000006,-51.594521106077885
-0.40469999999999995,-51.86331625305225
-0.40570000000000006,-52.17455273902255
-0.40669999999999995,-52.471642111994214
-0.40770000000000006,-52.74043725896857
-0.40869999999999995,-52.995085292944275
-0.40970000000000006,-53.26388043991864
-0.41069999999999995,-53.476087134898386
-0.41170000000000007,-53.74488228187274
-0.41269999999999996,-53.9570889768525
-0.41370000000000007,-54.26832546282281
-0.41469999999999996,-54.56541483579447
-0.41570000000000007,-54.876651321764776
-0.41669999999999996,-55.13129935574048
-0.41770000000000007,-55.484977180706736
-0.41869999999999996,-55.838655005673
-0.4197000000000001,-56.1781857176406
-0.42069999999999996,-56.57430488160282
-0.4217000000000001,-56.88554136757313
-0.42269999999999996,-57.22507207954074
-0.4237000000000001,-57.45142588751914
-0.42469999999999997,-57.79095659948675
-0.4257000000000001,-58.05975174646111
-0.42669999999999997,-58.35684111943277
-0.4277000000000001,-58.62563626640712
-0.42869999999999997,-58.97931409137338
-0.4297000000000001,-59.27640346434504
-0.43069999999999997,-59.587639950315335
-0.4317000000000001,-59.92717066228296
-0.4327,-60.32328982624517
-0.4337000000000001,-60.67696765121143
-0.4347,-61.01649836317903
-0.4357000000000001,-61.455058866137186
-0.4367,-61.80873669110345
-0.4377000000000001,-62.11997317707376
-0.4387,-62.459503889041365
-0.4397000000000001,-62.72829903601572
-0.4407,-63.06782974798333
-0.4417000000000001,-63.37906623395363
-0.4427,-63.6761556069253
-0.4437000000000001,-64.0722747708875
-0.4447,-64.42595259585376
-0.4457000000000001,-64.77963042082003
-0.4467,-65.16160247178358
-0.4477000000000001,-65.5577216357458
-0.4487,-65.99628213870396
-0.4497000000000001,-66.39240130266617
-0.4507,-66.81681469262568
-0.4517000000000001,-67.21293385658788
-0.4527,-67.65149435954605
-0.4537000000000001,-67.96273084551636
-0.4547,-68.30226155748396
-0.4557000000000001,-68.69838072144618
-0.4567,-69.0944998854084
-0.4577000000000001,-69.43403059737601
-0.4587,-69.8301497613382
-0.4597000000000001,-70.22626892530042
-0.4607,-70.62238808926263
-0.4617000000000001,-71.10338993121674
-0.4627,-71.52780332117625
-0.4637000000000001,-72.00880516313036
-0.4647,-72.48980700508447
-0.4657000000000001,-72.97080884703858
-0.4667,-73.45181068899271
-0.4677000000000001,-73.89037119195086
-0.4687,-74.28649035591307
-0.4697000000000001,-74.66846240687663
-0.4707,-75.1070229098348
-0.4717000000000001,-75.54558341279296
-0.4727,-75.94170257675518
-0.4737000000000001,-76.42270441870929
-0.4747,-76.86126492166746
-0.4757000000000001,-77.34226676362155
-0.4767,-77.80912149257702
-0.4777000000000001,-78.33256467352709
-0.4787,-78.91259630647174
-0.4797000000000001,-79.37945103542721
-0.4807,-79.90289421637728
-0.48170000000000013,-80.38389605833139
-0.4827,-80.90733923928146
-0.48370000000000013,-81.38834108123557
-0.4847,-81.86934292318966
-0.48570000000000013,-82.35034476514379
-0.4867,-82.8313466070979
-0.4876999999999999,-83.31234844905201
-0.4887,-83.79335029100612
-0.4896999999999999,-84.31679347195619
-0.4907,-84.8826779919022
-0.4916999999999999,-85.40612117285227
-0.4927,-85.97200569279828
-0.4936999999999999,-86.58033155174023
-0.49470000000000003,-87.18865741068221
-0.4956999999999999,-87.75454193062824
-0.49670000000000003,-88.37701490256885
-0.4976999999999999,-88.9853407615108
-0.49870000000000003,-89.50878394246087
-0.4996999999999999,-90.07466846240689
-0.5007,-90.59811164335694
-0.5016999999999999,-91.16399616330297
-0.5027,-91.72988068324898
-0.5036999999999999,-92.29576520319499
-0.5047,-92.94653240113291
-0.5056999999999999,-93.55485826007487
-0.5067,-94.21977257101145
-0.5076999999999999,-94.87053976894937
