Potential V vs RHE, Current mA cm-2
0.013299999999999867,-0.26384365742482935
0.012299999999999978,-2.8379108675292635
0.011299999999999866,-5.0618370309171015
0.010299999999999976,-7.199465805013171
0.009299999999999864,-9.11781432763016
0.008299999999999974,-10.863568071663616
0.007299999999999862,-12.56405105410139
0.006299999999999972,-14.090524546655764
0.00529999999999986,-15.491088733522153
0.0042999999999999705,-16.835064468393938
0.0032999999999998586,-18.06586329927652
0.0022999999999999687,-19.2400736781645
0.0012999999999998568,-20.414284057052477
0.00029999999999996696,-21.503611757948562
-0.000700000000000145,-22.550498119848687
-0.0017000000000000348,-23.51250180375691
-0.0027000000000001467,-24.474505487665134
-0.0037000000000000366,-25.295038041586857
-0.0047000000000001485,-26.129717708507226
-0.005700000000000038,-26.822926245441096
-0.00670000000000015,-27.530281895373616
-0.00770000000000004,-28.13860775431558
-0.008700000000000152,-28.746933613257543
-0.009700000000000042,-29.22793545521166
-0.010700000000000154,-29.793819975157668
-0.011700000000000044,-30.274821817111786
-0.012700000000000156,-30.7558236590659
-0.013700000000000045,-31.23682550102001
-0.014700000000000157,-31.717827342974125
-0.015700000000000047,-32.14224073293363
-0.01670000000000016,-32.58080123589179
-0.01770000000000005,-33.01936173884996
-0.01870000000000016,-33.41548090281216
-0.01970000000000005,-33.755011614779775
-0.020700000000000163,-34.06624810075008
-0.021700000000000053,-34.41992592571634
-0.022700000000000164,-34.632132620696105
-0.023700000000000054,-34.85848642867451
-0.024700000000000166,-35.11313446265021
-0.025700000000000056,-35.282899818634014
-0.026700000000000168,-35.55169496560837
-0.027700000000000058,-35.721460321592176
-0.02870000000000017,-35.99025546856653
-0.02970000000000006,-36.244903502542236
-0.03070000000000017,-36.47125731052064
-0.03170000000000006,-36.725905344496354
-0.03270000000000017,-36.99470049147071
-0.03370000000000006,-37.206907186450465
-0.034700000000000175,-37.376672542434264
-0.035700000000000065,-37.60302635041268
-0.03670000000000018,-37.73035036740053
-0.03770000000000007,-37.85767438438838
-0.03870000000000018,-37.99914551437489
-0.03970000000000007,-38.04158685337084
-0.04070000000000018,-38.16891087035869
-0.04170000000000007,-38.29623488734655
-0.04270000000000018,-38.38111756533845
-0.04370000000000007,-38.5650300343209
-0.044700000000000184,-38.734795390304704
-0.045700000000000074,-38.90456074628851
-0.046700000000000186,-39.08847321527096
-0.047700000000000076,-39.30067991025072
-0.04870000000000019,-39.47044526623452
-0.04970000000000008,-39.61191639622103
-0.05070000000000019,-39.739240413208876
-0.05170000000000008,-39.86656443019674
-0.05270000000000019,-39.95144710818864
-0.05370000000000008,-39.99388844718459
-0.05470000000000019,-40.092918238175145
-0.05570000000000008,-40.177800916167044
-0.056700000000000195,-40.26268359415894
-0.057700000000000085,-40.34756627215084
-0.058700000000000196,-40.51733162813464
-0.059700000000000086,-40.701244097117105
-0.0607000000000002,-40.78612677510901
-0.06170000000000009,-40.95589213109281
-0.0627000000000002,-41.22468727806717
-0.06370000000000009,-41.30956995605907
-0.0647000000000002,-41.47933531204288
-0.06570000000000009,-41.56421799003478
-0.0667000000000002,-41.606659329030734
-0.0677000000000001,-41.70568912002128
-0.0687000000000002,-41.79057179801318
-0.0697000000000001,-41.79057179801318
-0.07070000000000021,-41.87545447600508
-0.0717000000000001,-41.96033715399699
-0.07270000000000021,-41.96033715399699
-0.0737000000000001,-42.130102509980794
-0.07470000000000021,-42.229132300971344
-0.0757000000000001,-42.39889765695515
-0.07670000000000021,-42.483780334947056
-0.0777000000000001,-42.71013414292546
-0.07870000000000021,-42.837458159913304
-0.0797000000000001,-42.92234083790521
-0.08070000000000022,-43.007223515897124
-0.0817000000000001,-43.09210619388902
-0.08270000000000022,-43.134547532884966
-0.08370000000000011,-43.17698887188092
-0.08470000000000022,-43.23357732387552
-0.08570000000000011,-43.31846000186743
-0.08670000000000022,-43.40334267985933
-0.08770000000000011,-43.44578401885527
-0.08870000000000022,-43.57310803584313
-0.08970000000000011,-43.75702050482558
-0.09070000000000022,-43.84190318281749
-0.09170000000000011,-43.96922719980534
-0.09270000000000023,-44.138992555789144
-0.09370000000000012,-44.223875233781044
-0.09470000000000023,-44.36534636376755
-0.09570000000000012,-44.4077877027635
-0.09670000000000023,-44.4926703807554
-0.09770000000000012,-44.577553058747306
-0.09870000000000023,-44.577553058747306
-0.09970000000000012,-44.619994397743255
-0.10070000000000023,-44.66243573673921
-0.10170000000000012,-44.704877075735155
-0.10270000000000024,-44.74731841473111
-0.10370000000000013,-44.88878954471762
-0.10470000000000024,-44.97367222270952
-0.10570000000000013,-45.10099623969737
-0.10670000000000024,-45.18587891768927
-0.10770000000000013,-45.412232725667685
-0.10870000000000024,-45.45467406466363
-0.10970000000000013,-45.581998081651484
-0.11070000000000024,-45.624439420647434
-0.11170000000000013,-45.666880759643384
-0.11270000000000002,-45.75176343763528
-0.11370000000000013,-45.75176343763528
-0.11470000000000002,-45.79420477663124
-0.11570000000000014,-45.79420477663124
-0.11670000000000003,-45.85079322862584
-0.11770000000000014,-45.89323456762179
-0.11870000000000003,-46.02055858460964
-0.11970000000000014,-46.10544126260155
-0.12070000000000003,-46.2327652795894
-0.12170000000000014,-46.3176479575813
-0.12270000000000003,-46.501560426563756
-0.12370000000000014,-46.586443104555656
-0.12470000000000003,-46.713767121543505
-0.12570000000000014,-46.79864979953541
-0.12670000000000003,-46.84109113853137
-0.12770000000000015,-46.88353247752732
-0.12870000000000004,-46.88353247752732
-0.12970000000000015,-46.94012092952192
-0.13070000000000004,-46.94012092952192
-0.13170000000000015,-47.067444946509774
-0.13270000000000004,-47.067444946509774
-0.13370000000000015,-47.19476896349763
-0.13470000000000004,-47.32209298048547
-0.13570000000000015,-47.40697565847737
-0.13670000000000004,-47.54844678846388
-0.13770000000000016,-47.71821214444768
-0.13870000000000005,-47.80309482243959
-0.13970000000000016,-47.8879775004315
-0.14070000000000005,-47.93041883942744
-0.14170000000000016,-47.987007291422046
-0.14270000000000005,-48.029448630417996
-0.14370000000000016,-48.029448630417996
-0.14470000000000005,-48.071889969413945
-0.14570000000000016,-48.071889969413945
-0.14670000000000005,-48.114331308409895
-0.14770000000000016,-48.156772647405845
-0.14870000000000005,-48.24165532539775
-0.14970000000000017,-48.32653800338966
-0.15070000000000006,-48.45386202037751
-0.15170000000000017,-48.55289181136806
-0.15270000000000006,-48.72265716735186
-0.15370000000000017,-48.84998118433972
-0.15470000000000006,-48.89242252333566
-0.15570000000000017,-49.03389365332217
-0.15670000000000006,-49.076334992318124
-0.15770000000000017,-49.118776331314066
-0.15870000000000006,-49.118776331314066
-0.15970000000000018,-49.16121767031002
-0.16070000000000007,-49.20365900930597
-0.16170000000000018,-49.28854168729788
-0.16270000000000007,-49.33098302629383
-0.16370000000000018,-49.41586570428573
-0.16470000000000007,-49.642219512264134
-0.16570000000000018,-49.72710219025603
-0.16670000000000007,-49.85442620724389
-0.16770000000000018,-50.024191563227696
-0.16870000000000007,-50.1656626932142
-0.16970000000000018,-50.2505453712061
-0.17070000000000007,-50.335428049198
-0.17170000000000019,-50.42031072718991
-0.17270000000000008,-50.46275206618586
-0.1737000000000002,-50.50519340518181
-0.17470000000000008,-50.547634744177756
-0.1757000000000002,-50.60422319617236
-0.17670000000000008,-50.64666453516831
-0.1777000000000002,-50.68910587416426
-0.17870000000000008,-50.81642989115212
-0.1797000000000002,-50.943753908139975
-0.18070000000000008,-51.071077925127824
-0.1817000000000002,-51.21254905511432
-0.18270000000000008,-51.38231441109813
-0.1837000000000002,-51.46719708909004
-0.1847000000000001,-51.594521106077885
-0.1857000000000002,-51.65110955807249
-0.1867000000000001,-51.73599223606439
-0.1877000000000002,-51.77843357506035
-0.1887000000000001,-51.82087491405629
-0.1897000000000002,-51.86331625305225
-0.1907000000000001,-51.90575759204819
-0.1917000000000001,-51.948198931044146
-0.19269999999999998,-51.990640270040096
-0.1937000000000001,-52.11796428702795
-0.19469999999999998,-52.25943541701445
-0.1957000000000001,-52.386759434002315
-0.19669999999999999,-52.514083450990164
-0.1977000000000001,-52.69799591997262
-0.1987,-52.78287859796452
-0.1997000000000001,-52.86776127595642
-0.2007,-52.95264395394832
-0.2017000000000001,-53.03752663194023
-0.2027,-53.03752663194023
-0.2037000000000001,-53.12240930993213
-0.2047,-53.16485064892808
-0.2057000000000001,-53.16485064892808
-0.2067,-53.30632177891458
-0.2077000000000001,-53.30632177891458
-0.2087,-53.433645795902436
-0.2097000000000001,-53.56096981289029
-0.2107,-53.68829382987814
-0.2117000000000001,-53.872206298860604
-0.2127,-53.999530315848446
-0.2137000000000001,-54.1268543328363
-0.2147,-54.2117370108282
-0.2157000000000001,-54.39564947981066
-0.2167,-54.480532157802564
-0.21770000000000012,-54.52297349679851
-0.2187,-54.52297349679851
-0.21970000000000012,-54.60785617479041
-0.2207,-54.65029751378637
-0.22170000000000012,-54.69273885278232
-0.2227,-54.73518019177827
-0.22370000000000012,-54.876651321764776
-0.2247,-55.003975338752625
-0.22570000000000012,-55.088858016744524
-0.2267,-55.21618203373238
-0.22770000000000012,-55.442535841710786
-0.22870000000000001,-55.527418519702685
-0.22970000000000013,-55.612301197694585
-0.23070000000000002,-55.73962521468245
-0.23170000000000013,-55.7820665536784
-0.23270000000000002,-55.9235376836649
-0.23370000000000013,-55.9235376836649
-0.23470000000000002,-55.96597902266086
-0.23570000000000013,-56.05086170065276
-0.23670000000000002,-56.13574437864466
-0.2376999999999999,-56.1781857176406
-0.23870000000000002,-56.30550973462846
-0.2396999999999999,-56.489422203610914
-0.24070000000000003,-56.61674622059877
-0.24169999999999991,-56.786511576582576
-0.24270000000000003,-56.97042404556503
-0.24369999999999992,-57.097748062552874
-0.24470000000000003,-57.22507207954074
-0.24569999999999992,-57.30995475753264
-0.24670000000000003,-57.408984548523186
-0.24769999999999992,-57.53630856551105
-0.24870000000000003,-57.62119124350295
-0.24969999999999992,-57.66363258249889
-0.25070000000000003,-57.79095659948675
-0.2516999999999999,-57.87583927747865
-0.25270000000000004,-57.974869068469204
-0.2536999999999999,-58.18707576344896
-0.25470000000000004,-58.35684111943277
-0.2556999999999999,-58.498312249419264
-0.25670000000000004,-58.71051894439902
-0.25769999999999993,-58.97931409137338
-0.25870000000000004,-59.14907944735718
-0.25969999999999993,-59.31884480334099
-0.26070000000000004,-59.44616882032884
-0.26169999999999993,-59.6300812893113
-0.26270000000000004,-59.757405306299155
-0.26369999999999993,-59.842287984291055
-0.26470000000000005,-59.9696120012789
-0.26569999999999994,-60.15352447026136
-0.26670000000000005,-60.32328982624517
-0.26769999999999994,-60.49305518222897
-0.26870000000000005,-60.67696765121143
-0.26969999999999994,-60.93161568518713
-0.27070000000000005,-61.20041083216149
-0.27169999999999994,-61.412617527141244
-0.27270000000000005,-61.72385401311155
-0.27369999999999994,-61.936060708091304
-0.27470000000000006,-62.16241451606972
-0.27569999999999995,-62.37462121104946
-0.27670000000000006,-62.58682790602922
-0.27769999999999995,-62.81318171400764
-0.27870000000000006,-62.98294706999144
-0.27969999999999995,-63.20930087796983
-0.28070000000000006,-63.46394891194555
-0.28169999999999995,-63.6761556069253
-0.28270000000000006,-63.902509414903705
-0.28369999999999995,-64.25618723986996
-0.28470000000000006,-64.55327661284163
-0.28569999999999995,-64.86451309881193
-0.28670000000000007,-65.20404381077954
-0.28769999999999996,-65.5577216357458
-0.28870000000000007,-65.91139946071206
-0.28969999999999996,-66.25093017267966
-0.29070000000000007,-66.60460799764593
-0.29169999999999996,-66.91584448361623
-0.29270000000000007,-67.21293385658788
-0.29369999999999996,-67.52417034255821
-0.2947000000000001,-67.82125971552985
-0.29569999999999996,-68.17493754049613
-0.2967000000000001,-68.52861536546239
-0.29769999999999996,-68.82570473843404
-0.2987000000000001,-69.22182390239624
-0.29969999999999997,-69.70282574435035
-0.3007000000000001,-70.09894490831257
-0.30169999999999997,-70.53750541127073
-0.3027000000000001,-71.06094859222078
-0.30369999999999997,-71.48536198218031
-0.3047000000000001,-71.96636382413442
-0.30569999999999997,-72.40492432709259
-0.3067000000000001,-72.80104349105478
-0.3077,-73.23960399401295
-0.3087000000000001,-73.6781644969711
-0.3097,-74.10257788693062
-0.3107000000000001,-74.58357972888473
-0.3117,-75.02214023184291
-0.3127000000000001,-75.50314207379701
-0.3137,-76.02658525474708
-0.3147000000000001,-76.5924697746931
-0.3157,-77.20079563363505
-0.3167000000000001,-77.76668015358106
-0.3177,-78.43159446451764
-0.3187000000000001,-79.0399203234596
-0.3197,-79.60580484340561
-0.3207000000000001,-80.21413070234757
-0.3217,-80.7800152222936
-0.3227000000000001,-81.3458997422396
-0.3237,-81.91178426218562
-0.3247000000000001,-82.47766878213164
-0.3257,-83.14258309306821
-0.3267000000000001,-83.70846761301424
-0.3277,-84.31679347195619
-0.3287000000000001,-85.052443347886
-0.3297,-85.75979899781852
-0.3307000000000001,-86.45300753475239
-0.3317,-87.18865741068221
-0.3327000000000001,-87.98089573860662
-0.3337,-88.6741042755405
-0.3347000000000001,-89.36731281247435
-0.3357,-90.11710980140283
-0.3367000000000001,-90.85275967733266
-0.3377,-91.60255666626112
-0.3387000000000001,-92.25332386419905
-0.3397,-93.03141507912481
-0.3407000000000001,-93.73877072905732
-0.3417,-94.5168619439831
-0.3427000000000001,-95.26665893291157
-0.3437,-96.12963282582925
-0.3447000000000001,-97.00675383174556
-0.3457,-97.88387483766188
-0.3467000000000001,-98.74684873057957
-0.3477,-99.66641107549184
-0.3487000000000001,-100.54353208140815
-0.3497,-101.44894731332178
-0.3507000000000001,-102.36850965823406
-0.3517,-103.24563066415038
-0.3527000000000001,-104.16519300906265
-0.3537,-105.02816690198033
-0.3547000000000001,-105.86284656890071
-0.3557,-106.82485025280893
-0.35670000000000013,-107.73026548472255
-0.3577,-108.64982782963483
-0.35870000000000013,-109.654272852539
-0.3597,-110.70115921443913
-0.36070000000000013,-111.7056042373433
-0.3617,-112.75249059924342
-0.3626999999999999,-113.84181830013951
-0.3637,-114.93114600103557
-0.3646999999999999,-115.93559102393975
-0.3657,-116.98247738583989
-0.3666999999999999,-118.02936374774
-0.3677,-119.07625010964013
-0.3686999999999999,-120.12313647154028
-0.36970000000000003,-121.17002283344038
-0.3706999999999999,-122.25935053433648
-0.37170000000000003,-123.34867823523254
-0.3726999999999999,-124.35312325813672
-0.37370000000000003,-125.5273336370247
-0.3746999999999999,-126.71569112891132
-0.37570000000000003,-127.88990150779931
-0.3766999999999999,-129.0641118866873
-0.37770000000000004,-130.28076360457123
-0.3786999999999999,-131.5115624354538
-0.37970000000000004,-132.6857728143418
-0.3806999999999999,-133.8599831932298
-0.38170000000000004,-135.09078202411234
-0.38269999999999993,-136.2225510640044
-0.38370000000000004,-137.39676144289237
-0.38469999999999993,-138.57097182178035
-0.38570000000000004,-139.80177065266292
-0.38669999999999993,-139.13685634172634
-0.38570000000000004,-135.387871397084
-0.38469999999999993,-132.07744695539984
-0.38370000000000004,-129.02167054769134
-0.38269999999999993,-126.14980660896532
-0.38170000000000004,-123.4760022522204
-0.3806999999999999,-120.95781613846064
-0.37970000000000004,-118.55280692869007
-0.3786999999999999,-116.24682750991008
-0.37770000000000004,-114.0115836561233
-0.3766999999999999,-111.83292825433115
-0.37570000000000003,-109.78159686952685
-0.3746999999999999,-107.68782414572658
-0.37370000000000003,-105.73552255191284
-0.3726999999999999,-103.85395652309235
-0.37170000000000003,-101.97239049427183
-0.3706999999999999,-100.14741291744595
-0.36970000000000003,-98.40731801861195
-0.3686999999999999,-96.69551734577524
-0.3677,-95.04030512493317
-0.3666999999999999,-93.38509290409107
-0.3657,-91.85720470023682
-0.3646999999999999,-90.24443381839069
-0.3637,-88.6741042755405
-0.3626999999999999,-87.06133339369435
-0.3617,-85.49100385084417
-0.36070000000000013,-83.92067430799398
-0.3597,-82.30790342614785
-0.35870000000000013,-80.73757388329766
-0.3577,-79.16724434044745
-0.35670000000000013,-77.68179747558916
-0.3557,-76.15390927173492
-0.3547000000000001,-74.72505085887124
-0.3537,-73.2820453330089
-0.3527000000000001,-71.92392248513846
-0.3517,-70.53750541127073
-0.3507000000000001,-69.22182390239624
-0.3497,-67.82125971552985
-0.3487000000000001,-66.47728398065809
-0.3477,-65.0767197937917
-0.3467000000000001,-63.732744058919906
-0.3457,-62.33217987205352
-0.3447000000000001,-60.974057024183075
-0.3437,-59.587639950315335
-0.3427000000000001,-58.22951710244491
-0.3417,-56.927982706569075
-0.3407000000000001,-55.56985985869864
-0.3397,-54.35320814081471
-0.3387000000000001,-53.079967970936174
-0.3377,-51.90575759204819
-0.3367000000000001,-50.64666453516831
-0.3357,-49.50074838227763
-0.3347000000000001,-48.2840966643937
-0.3337,-47.10988628550572
-0.3327000000000001,-45.89323456762179
-0.3317,-44.66243573673921
-0.3307000000000001,-43.44578401885527
-0.3297,-42.229132300971344
-0.3287000000000001,-40.99833347008877
-0.3277,-39.78168175220483
-0.3267000000000001,-38.607471373316855
-0.3257,-37.41911388143023
-0.3247000000000001,-36.329786180534136
-0.3237,-35.240458479638065
-0.3227000000000001,-34.15113077874198
-0.3217,-33.10424441684186
-0.3207000000000001,-32.09979939393769
-0.3197,-31.010471693041605
-0.3187000000000001,-29.96358533114148
-0.3177,-28.8742576302454
-0.3167000000000001,-27.827371268345274
-0.3157,-26.738043567449193
-0.3147000000000001,-25.648715866553115
-0.3137,-24.559388165657033
-0.3127000000000001,-23.47006046476096
-0.3117,-22.46561544185678
-0.3107000000000001,-21.418729079956652
-0.3097,-20.456725396048434
-0.3087000000000001,-19.537163051136158
-0.3077,-18.53271802823198
-0.3067000000000001,-17.627302796318357
-0.30569999999999997,-16.750181790402035
-0.3047000000000001,-15.830619445489761
-0.30369999999999997,-14.967645552572087
-0.3027000000000001,-14.002812446064135
-0.30169999999999997,-13.087494235051453
-0.3007000000000001,-12.12831997374296
-0.29969999999999997,-11.1677310011346
-0.2987000000000001,-10.208556739826104
-0.29769999999999996,-9.293238528813426
-0.2967000000000001,-8.4203616567967
-0.29569999999999996,-7.50504344578402
-0.2947000000000001,-6.632166573767292
-0.29369999999999996,-5.890857852638012
-0.29270000000000007,-5.105693081212917
-0.29169999999999996,-4.276672259492005
-0.29070000000000007,-3.5353635383627267
-0.28969999999999996,-2.794054817233447
-0.28870000000000007,-2.008890045808352
-0.28769999999999996,-1.1798692240874404
-0.28670000000000007,-0.3947044526623452
-0.28569999999999995,0.43403342679859325
-0.28470000000000006,1.219056727093702
-0.28369999999999995,2.048501962204573
-0.28270000000000006,2.7898106833338523
-0.28169999999999995,3.5311194044631313
-0.28070000000000006,4.316284175888227
-0.27969999999999995,5.01373684672169
-0.27870000000000006,5.667333467259336
-0.27769999999999995,6.322344799096849
-0.27670000000000006,7.019797469930312
-0.27569999999999995,7.587096701176192
-0.27470000000000006,8.242108033013702
-0.27369999999999994,8.89570465355135
-0.27270000000000005,9.549301274088998
-0.27169999999999994,10.20431260592651
-0.27070000000000005,10.901765276759972
-0.26969999999999994,11.556776608597485
-0.26870000000000005,12.254229279430946
-0.26769999999999994,12.907825899968595
-0.26670000000000005,13.518981181510291
-0.26569999999999994,14.217848563643619
-0.26470000000000005,14.741291744593681
