May 1, 2025   16:01:46
Cyclic Voltammetry
File: c:/users/guazh/data/banditlqround7_x0exp1108_r5/2025-04-30-exp1208\exp1208-2025-05-01t15_54_51-arkoh\exp1208_cv_sr_400mvs_efin_-1400mv.bin
Data Source:  Experiment
Instrument Model:  CHI760E
Header: CV ran at 400 mVs
Note: 

Init E (V) = -1
High E (V) = -1
Low E (V) = -1.4
Final E (V) = -1
Init P/N = N
Scan Rate (V/s) = 0.4
Segment = 3
Sample Interval (V) = 0.001
Quiet Time (sec) = 2
Sensitivity (A/V) = 0.01
Comp R (ohm) = 1.0

Results:

Channel 1:
Segment 1:

Segment 2:

Segment 3:

Potential/V, Current/A

-1.000, 1.865e-5
-1.001, 1.759e-4
-1.002, 3.023e-4
-1.003, 4.133e-4
-1.004, 5.181e-4
-1.005, 6.106e-4
-1.006, 6.969e-4
-1.007, 7.679e-4
-1.008, 8.203e-4
-1.009, 8.665e-4
-1.010, 9.097e-4
-1.011, 9.528e-4
-1.012, 9.991e-4
-1.013, 1.039e-3
-1.014, 1.067e-3
-1.015, 1.088e-3
-1.016, 1.104e-3
-1.017, 1.125e-3
-1.018, 1.150e-3
-1.019, 1.178e-3
-1.020, 1.199e-3
-1.021, 1.209e-3
-1.022, 1.215e-3
-1.023, 1.224e-3
-1.024, 1.236e-3
-1.025, 1.255e-3
-1.026, 1.273e-3
-1.027, 1.283e-3
-1.028, 1.289e-3
-1.029, 1.289e-3
-1.030, 1.292e-3
-1.031, 1.301e-3
-1.032, 1.317e-3
-1.033, 1.332e-3
-1.034, 1.338e-3
-1.035, 1.338e-3
-1.036, 1.335e-3
-1.037, 1.338e-3
-1.038, 1.351e-3
-1.039, 1.366e-3
-1.040, 1.375e-3
-1.041, 1.378e-3
-1.042, 1.375e-3
-1.043, 1.375e-3
-1.044, 1.381e-3
-1.045, 1.391e-3
-1.046, 1.403e-3
-1.047, 1.412e-3
-1.048, 1.409e-3
-1.049, 1.409e-3
-1.050, 1.409e-3
-1.051, 1.418e-3
-1.052, 1.431e-3
-1.053, 1.440e-3
-1.054, 1.443e-3
-1.055, 1.443e-3
-1.056, 1.437e-3
-1.057, 1.440e-3
-1.058, 1.452e-3
-1.059, 1.462e-3
-1.060, 1.474e-3
-1.061, 1.474e-3
-1.062, 1.471e-3
-1.063, 1.468e-3
-1.064, 1.471e-3
-1.065, 1.483e-3
-1.066, 1.495e-3
-1.067, 1.502e-3
-1.068, 1.499e-3
-1.069, 1.492e-3
-1.070, 1.495e-3
-1.071, 1.502e-3
-1.072, 1.511e-3
-1.073, 1.523e-3
-1.074, 1.526e-3
-1.075, 1.526e-3
-1.076, 1.523e-3
-1.077, 1.523e-3
-1.078, 1.532e-3
-1.079, 1.545e-3
-1.080, 1.551e-3
-1.081, 1.551e-3
-1.082, 1.548e-3
-1.083, 1.545e-3
-1.084, 1.548e-3
-1.085, 1.557e-3
-1.086, 1.569e-3
-1.087, 1.573e-3
-1.088, 1.569e-3
-1.089, 1.566e-3
-1.090, 1.563e-3
-1.091, 1.573e-3
-1.092, 1.585e-3
-1.093, 1.591e-3
-1.094, 1.594e-3
-1.095, 1.591e-3
-1.096, 1.585e-3
-1.097, 1.585e-3
-1.098, 1.594e-3
-1.099, 1.603e-3
-1.100, 1.613e-3
-1.101, 1.613e-3
-1.102, 1.606e-3
-1.103, 1.603e-3
-1.104, 1.606e-3
-1.105, 1.619e-3
-1.106, 1.628e-3
-1.107, 1.634e-3
-1.108, 1.631e-3
-1.109, 1.625e-3
-1.110, 1.622e-3
-1.111, 1.628e-3
-1.112, 1.637e-3
-1.113, 1.643e-3
-1.114, 1.650e-3
-1.115, 1.643e-3
-1.116, 1.637e-3
-1.117, 1.637e-3
-1.118, 1.647e-3
-1.119, 1.656e-3
-1.120, 1.662e-3
-1.121, 1.662e-3
-1.122, 1.656e-3
-1.123, 1.653e-3
-1.124, 1.656e-3
-1.125, 1.662e-3
-1.126, 1.674e-3
-1.127, 1.677e-3
-1.128, 1.677e-3
-1.129, 1.671e-3
-1.130, 1.671e-3
-1.131, 1.674e-3
-1.132, 1.687e-3
-1.133, 1.693e-3
-1.134, 1.696e-3
-1.135, 1.693e-3
-1.136, 1.687e-3
-1.137, 1.687e-3
-1.138, 1.693e-3
-1.139, 1.705e-3
-1.140, 1.714e-3
-1.141, 1.711e-3
-1.142, 1.708e-3
-1.143, 1.705e-3
-1.144, 1.708e-3
-1.145, 1.717e-3
-1.146, 1.727e-3
-1.147, 1.733e-3
-1.148, 1.730e-3
-1.149, 1.724e-3
-1.150, 1.724e-3
-1.151, 1.727e-3
-1.152, 1.739e-3
-1.153, 1.748e-3
-1.154, 1.751e-3
-1.155, 1.745e-3
-1.156, 1.742e-3
-1.157, 1.742e-3
-1.158, 1.751e-3
-1.159, 1.764e-3
-1.160, 1.770e-3
-1.161, 1.773e-3
-1.162, 1.767e-3
-1.163, 1.764e-3
-1.164, 1.770e-3
-1.165, 1.779e-3
-1.166, 1.791e-3
-1.167, 1.798e-3
-1.168, 1.795e-3
-1.169, 1.788e-3
-1.170, 1.785e-3
-1.171, 1.795e-3
-1.172, 1.804e-3
-1.173, 1.813e-3
-1.174, 1.813e-3
-1.175, 1.810e-3
-1.176, 1.804e-3
-1.177, 1.804e-3
-1.178, 1.813e-3
-1.179, 1.822e-3
-1.180, 1.832e-3
-1.181, 1.832e-3
-1.182, 1.825e-3
-1.183, 1.822e-3
-1.184, 1.825e-3
-1.185, 1.835e-3
-1.186, 1.844e-3
-1.187, 1.850e-3
-1.188, 1.847e-3
-1.189, 1.841e-3
-1.190, 1.841e-3
-1.191, 1.847e-3
-1.192, 1.856e-3
-1.193, 1.865e-3
-1.194, 1.865e-3
-1.195, 1.865e-3
-1.196, 1.856e-3
-1.197, 1.856e-3
-1.198, 1.865e-3
-1.199, 1.875e-3
-1.200, 1.884e-3
-1.201, 1.884e-3
-1.202, 1.878e-3
-1.203, 1.875e-3
-1.204, 1.875e-3
-1.205, 1.884e-3
-1.206, 1.893e-3
-1.207, 1.899e-3
-1.208, 1.893e-3
-1.209, 1.890e-3
-1.210, 1.887e-3
-1.211, 1.893e-3
-1.212, 1.902e-3
-1.213, 1.912e-3
-1.214, 1.915e-3
-1.215, 1.912e-3
-1.216, 1.906e-3
-1.217, 1.909e-3
-1.218, 1.915e-3
-1.219, 1.927e-3
-1.220, 1.933e-3
-1.221, 1.933e-3
-1.222, 1.930e-3
-1.223, 1.927e-3
-1.224, 1.927e-3
-1.225, 1.939e-3
-1.226, 1.952e-3
-1.227, 1.958e-3
-1.228, 1.958e-3
-1.229, 1.955e-3
-1.230, 1.955e-3
-1.231, 1.961e-3
-1.232, 1.970e-3
-1.233, 1.983e-3
-1.234, 1.986e-3
-1.235, 1.986e-3
-1.236, 1.980e-3
-1.237, 1.983e-3
-1.238, 1.995e-3
-1.239, 2.007e-3
-1.240, 2.017e-3
-1.241, 2.020e-3
-1.242, 2.017e-3
-1.243, 2.017e-3
-1.244, 2.023e-3
-1.245, 2.035e-3
-1.246, 2.047e-3
-1.247, 2.060e-3
-1.248, 2.060e-3
-1.249, 2.060e-3
-1.250, 2.063e-3
-1.251, 2.072e-3
-1.252, 2.087e-3
-1.253, 2.103e-3
-1.254, 2.112e-3
-1.255, 2.115e-3
-1.256, 2.115e-3
-1.257, 2.121e-3
-1.258, 2.137e-3
-1.259, 2.155e-3
-1.260, 2.171e-3
-1.261, 2.180e-3
-1.262, 2.183e-3
-1.263, 2.189e-3
-1.264, 2.198e-3
-1.265, 2.217e-3
-1.266, 2.238e-3
-1.267, 2.254e-3
-1.268, 2.260e-3
-1.269, 2.266e-3
-1.270, 2.275e-3
-1.271, 2.291e-3
-1.272, 2.312e-3
-1.273, 2.337e-3
-1.274, 2.353e-3
-1.275, 2.362e-3
-1.276, 2.371e-3
-1.277, 2.383e-3
-1.278, 2.408e-3
-1.279, 2.433e-3
-1.280, 2.457e-3
-1.281, 2.476e-3
-1.282, 2.485e-3
-1.283, 2.497e-3
-1.284, 2.513e-3
-1.285, 2.541e-3
-1.286, 2.568e-3
-1.287, 2.596e-3
-1.288, 2.608e-3
-1.289, 2.624e-3
-1.290, 2.639e-3
-1.291, 2.664e-3
-1.292, 2.698e-3
-1.293, 2.726e-3
-1.294, 2.753e-3
-1.295, 2.772e-3
-1.296, 2.790e-3
-1.297, 2.812e-3
-1.298, 2.846e-3
-1.299, 2.880e-3
-1.300, 2.914e-3
-1.301, 2.938e-3
-1.302, 2.963e-3
-1.303, 2.985e-3
-1.304, 3.015e-3
-1.305, 3.056e-3
-1.306, 3.093e-3
-1.307, 3.130e-3
-1.308, 3.157e-3
-1.309, 3.182e-3
-1.310, 3.213e-3
-1.311, 3.250e-3
-1.312, 3.293e-3
-1.313, 3.336e-3
-1.314, 3.370e-3
-1.315, 3.404e-3
-1.316, 3.435e-3
-1.317, 3.472e-3
-1.318, 3.515e-3
-1.319, 3.564e-3
-1.320, 3.607e-3
-1.321, 3.647e-3
-1.322, 3.681e-3
-1.323, 3.721e-3
-1.324, 3.765e-3
-1.325, 3.811e-3
-1.326, 3.866e-3
-1.327, 3.916e-3
-1.328, 3.956e-3
-1.329, 3.999e-3
-1.330, 4.045e-3
-1.331, 4.095e-3
-1.332, 4.153e-3
-1.333, 4.209e-3
-1.334, 4.261e-3
-1.335, 4.307e-3
-1.336, 4.350e-3
-1.337, 4.397e-3
-1.338, 4.458e-3
-1.339, 4.520e-3
-1.340, 4.582e-3
-1.341, 4.634e-3
-1.342, 4.683e-3
-1.343, 4.736e-3
-1.344, 4.791e-3
-1.345, 4.856e-3
-1.346, 4.924e-3
-1.347, 4.986e-3
-1.348, 5.041e-3
-1.349, 5.097e-3
-1.350, 5.152e-3
-1.351, 5.220e-3
-1.352, 5.291e-3
-1.353, 5.368e-3
-1.354, 5.433e-3
-1.355, 5.494e-3
-1.356, 5.553e-3
-1.357, 5.614e-3
-1.358, 5.688e-3
-1.359, 5.762e-3
-1.360, 5.836e-3
-1.361, 5.904e-3
-1.362, 5.966e-3
-1.363, 6.031e-3
-1.364, 6.105e-3
-1.365, 6.182e-3
-1.366, 6.265e-3
-1.367, 6.345e-3
-1.368, 6.413e-3
-1.369, 6.481e-3
-1.370, 6.552e-3
-1.371, 6.629e-3
-1.372, 6.715e-3
-1.373, 6.798e-3
-1.374, 6.882e-3
-1.375, 6.956e-3
-1.376, 7.033e-3
-1.377, 7.113e-3
-1.378, 7.202e-3
-1.379, 7.292e-3
-1.380, 7.378e-3
-1.381, 7.455e-3
-1.382, 7.532e-3
-1.383, 7.606e-3
-1.384, 7.689e-3
-1.385, 7.779e-3
-1.386, 7.874e-3
-1.387, 7.964e-3
-1.388, 8.047e-3
-1.389, 8.127e-3
-1.390, 8.210e-3
-1.391, 8.303e-3
-1.392, 8.399e-3
-1.393, 8.497e-3
-1.394, 8.590e-3
-1.395, 8.676e-3
-1.396, 8.762e-3
-1.397, 8.852e-3
-1.398, 8.950e-3
-1.399, 9.052e-3
-1.400, 9.031e-3
-1.399, 8.793e-3
-1.398, 8.590e-3
-1.397, 8.408e-3
-1.396, 8.251e-3
-1.395, 8.112e-3
-1.394, 7.985e-3
-1.393, 7.859e-3
-1.392, 7.730e-3
-1.391, 7.603e-3
-1.390, 7.486e-3
-1.389, 7.378e-3
-1.388, 7.273e-3
-1.387, 7.175e-3
-1.386, 7.067e-3
-1.385, 6.953e-3
-1.384, 6.838e-3
-1.383, 6.731e-3
-1.382, 6.632e-3
-1.381, 6.539e-3
-1.380, 6.447e-3
-1.379, 6.345e-3
-1.378, 6.237e-3
-1.377, 6.136e-3
-1.376, 6.037e-3
-1.375, 5.947e-3
-1.374, 5.861e-3
-1.373, 5.772e-3
-1.372, 5.670e-3
-1.371, 5.568e-3
-1.370, 5.470e-3
-1.369, 5.374e-3
-1.368, 5.291e-3
-1.367, 5.204e-3
-1.366, 5.118e-3
-1.365, 5.023e-3
-1.364, 4.924e-3
-1.363, 4.834e-3
-1.362, 4.751e-3
-1.361, 4.671e-3
-1.360, 4.588e-3
-1.359, 4.501e-3
-1.358, 4.409e-3
-1.357, 4.323e-3
-1.356, 4.239e-3
-1.355, 4.162e-3
-1.354, 4.091e-3
-1.353, 4.011e-3
-1.352, 3.925e-3
-1.351, 3.832e-3
-1.350, 3.749e-3
-1.349, 3.672e-3
-1.348, 3.598e-3
-1.347, 3.527e-3
-1.346, 3.450e-3
-1.345, 3.367e-3
-1.344, 3.281e-3
-1.343, 3.207e-3
-1.342, 3.136e-3
-1.341, 3.068e-3
-1.340, 3.000e-3
-1.339, 2.929e-3
-1.338, 2.852e-3
-1.337, 2.775e-3
-1.336, 2.704e-3
-1.335, 2.639e-3
-1.334, 2.578e-3
-1.333, 2.513e-3
-1.332, 2.442e-3
-1.331, 2.365e-3
-1.330, 2.297e-3
-1.329, 2.232e-3
-1.328, 2.177e-3
-1.327, 2.121e-3
-1.326, 2.060e-3
-1.325, 1.992e-3
-1.324, 1.921e-3
-1.323, 1.859e-3
-1.322, 1.804e-3
-1.321, 1.751e-3
-1.320, 1.699e-3
-1.319, 1.640e-3
-1.318, 1.573e-3
-1.317, 1.514e-3
-1.316, 1.455e-3
-1.315, 1.403e-3
-1.314, 1.357e-3
-1.313, 1.304e-3
-1.312, 1.249e-3
-1.311, 1.187e-3
-1.310, 1.132e-3
-1.309, 1.082e-3
-1.308, 1.039e-3
-1.307, 9.960e-4
-1.306, 9.498e-4
-1.305, 8.973e-4
-1.304, 8.388e-4
-1.303, 7.894e-4
-1.302, 7.463e-4
-1.301, 7.093e-4
-1.300, 6.661e-4
-1.299, 6.229e-4
-1.298, 5.705e-4
-1.297, 5.212e-4
-1.296, 4.780e-4
-1.295, 4.410e-4
-1.294, 4.102e-4
-1.293, 3.732e-4
-1.292, 3.270e-4
-1.291, 2.807e-4
-1.290, 2.376e-4
-1.289, 2.006e-4
-1.288, 1.728e-4
-1.287, 1.420e-4
-1.286, 1.050e-4
-1.285, 6.490e-5
-1.284, 2.174e-5
-1.283, -1.526e-5
-1.282, -4.609e-5
-1.281, -7.076e-5
-1.280, -1.016e-4
-1.279, -1.355e-4
-1.278, -1.725e-4
-1.277, -2.095e-4
-1.276, -2.434e-4
-1.275, -2.650e-4
-1.274, -2.866e-4
-1.273, -3.112e-4
-1.272, -3.452e-4
-1.271, -3.821e-4
-1.270, -4.130e-4
-1.269, -4.346e-4
-1.268, -4.561e-4
-1.267, -4.746e-4
-1.266, -4.962e-4
-1.265, -5.301e-4
-1.264, -5.610e-4
-1.263, -5.887e-4
-1.262, -6.072e-4
-1.261, -6.226e-4
-1.260, -6.380e-4
-1.259, -6.627e-4
-1.258, -6.935e-4
-1.257, -7.182e-4
-1.256, -7.398e-4
-1.255, -7.552e-4
-1.254, -7.675e-4
-1.253, -7.830e-4
-1.252, -8.076e-4
-1.251, -8.323e-4
-1.250, -8.569e-4
-1.249, -8.724e-4
-1.248, -8.816e-4
-1.247, -8.939e-4
-1.246, -9.094e-4
-1.245, -9.309e-4
-1.244, -9.556e-4
-1.243, -9.710e-4
-1.242, -9.834e-4
-1.241, -9.895e-4
-1.240, -9.988e-4
-1.239, -1.014e-3
-1.238, -1.039e-3
-1.237, -1.057e-3
-1.236, -1.073e-3
-1.235, -1.079e-3
-1.234, -1.085e-3
-1.233, -1.091e-3
-1.232, -1.110e-3
-1.231, -1.128e-3
-1.230, -1.147e-3
-1.229, -1.159e-3
-1.228, -1.165e-3
-1.227, -1.168e-3
-1.226, -1.178e-3
-1.225, -1.193e-3
-1.224, -1.212e-3
-1.223, -1.224e-3
-1.222, -1.227e-3
-1.221, -1.227e-3
-1.220, -1.230e-3
-1.219, -1.239e-3
-1.218, -1.255e-3
-1.217, -1.270e-3
-1.216, -1.279e-3
-1.215, -1.286e-3
-1.214, -1.282e-3
-1.213, -1.289e-3
-1.212, -1.301e-3
-1.211, -1.316e-3
-1.210, -1.329e-3
-1.209, -1.335e-3
-1.208, -1.332e-3
-1.207, -1.332e-3
-1.206, -1.341e-3
-1.205, -1.350e-3
-1.204, -1.369e-3
-1.203, -1.375e-3
-1.202, -1.378e-3
-1.201, -1.375e-3
-1.200, -1.375e-3
-1.199, -1.381e-3
-1.198, -1.393e-3
-1.197, -1.406e-3
-1.196, -1.412e-3
-1.195, -1.409e-3
-1.194, -1.406e-3
-1.193, -1.409e-3
-1.192, -1.415e-3
-1.191, -1.430e-3
-1.190, -1.440e-3
-1.189, -1.443e-3
-1.188, -1.443e-3
-1.187, -1.437e-3
-1.186, -1.440e-3
-1.185, -1.449e-3
-1.184, -1.464e-3
-1.183, -1.470e-3
-1.182, -1.470e-3
-1.181, -1.467e-3
-1.180, -1.467e-3
-1.179, -1.470e-3
-1.178, -1.483e-3
-1.177, -1.492e-3
-1.176, -1.495e-3
-1.175, -1.492e-3
-1.174, -1.486e-3
-1.173, -1.489e-3
-1.172, -1.495e-3
-1.171, -1.504e-3
-1.170, -1.514e-3
-1.169, -1.514e-3
-1.168, -1.511e-3
-1.167, -1.507e-3
-1.166, -1.507e-3
-1.165, -1.517e-3
-1.164, -1.529e-3
-1.163, -1.535e-3
-1.162, -1.535e-3
-1.161, -1.532e-3
-1.160, -1.526e-3
-1.159, -1.532e-3
-1.158, -1.541e-3
-1.157, -1.551e-3
-1.156, -1.554e-3
-1.155, -1.551e-3
-1.154, -1.541e-3
-1.153, -1.544e-3
-1.152, -1.548e-3
-1.151, -1.560e-3
-1.150, -1.569e-3
-1.149, -1.569e-3
-1.148, -1.563e-3
-1.147, -1.560e-3
-1.146, -1.560e-3
-1.145, -1.569e-3
-1.144, -1.578e-3
-1.143, -1.588e-3
-1.142, -1.585e-3
-1.141, -1.578e-3
-1.140, -1.578e-3
-1.139, -1.581e-3
-1.138, -1.591e-3
-1.137, -1.603e-3
-1.136, -1.606e-3
-1.135, -1.603e-3
-1.134, -1.597e-3
-1.133, -1.594e-3
-1.132, -1.600e-3
-1.131, -1.612e-3
-1.130, -1.618e-3
-1.129, -1.615e-3
-1.128, -1.615e-3
-1.127, -1.609e-3
-1.126, -1.612e-3
-1.125, -1.618e-3
-1.124, -1.631e-3
-1.123, -1.640e-3
-1.122, -1.634e-3
-1.121, -1.631e-3
-1.120, -1.628e-3
-1.119, -1.634e-3
-1.118, -1.643e-3
-1.117, -1.655e-3
-1.116, -1.662e-3
-1.115, -1.655e-3
-1.114, -1.649e-3
-1.113, -1.649e-3
-1.112, -1.655e-3
-1.111, -1.665e-3
-1.110, -1.671e-3
-1.109, -1.674e-3
-1.108, -1.671e-3
-1.107, -1.665e-3
-1.106, -1.668e-3
-1.105, -1.677e-3
-1.104, -1.686e-3
-1.103, -1.696e-3
-1.102, -1.696e-3
-1.101, -1.689e-3
-1.100, -1.686e-3
-1.099, -1.692e-3
-1.098, -1.702e-3
-1.097, -1.714e-3
-1.096, -1.717e-3
-1.095, -1.717e-3
-1.094, -1.711e-3
-1.093, -1.711e-3
-1.092, -1.720e-3
-1.091, -1.729e-3
-1.090, -1.739e-3
-1.089, -1.739e-3
-1.088, -1.736e-3
-1.087, -1.733e-3
-1.086, -1.733e-3
-1.085, -1.742e-3
-1.084, -1.754e-3
-1.083, -1.757e-3
-1.082, -1.760e-3
-1.081, -1.754e-3
-1.080, -1.751e-3
-1.079, -1.757e-3
-1.078, -1.766e-3
-1.077, -1.779e-3
-1.076, -1.788e-3
-1.075, -1.785e-3
-1.074, -1.779e-3
-1.073, -1.782e-3
-1.072, -1.788e-3
-1.071, -1.800e-3
-1.070, -1.807e-3
-1.069, -1.807e-3
-1.068, -1.803e-3
-1.067, -1.797e-3
-1.066, -1.800e-3
-1.065, -1.810e-3
-1.064, -1.822e-3
-1.063, -1.831e-3
-1.062, -1.831e-3
-1.061, -1.825e-3
-1.060, -1.825e-3
-1.059, -1.828e-3
-1.058, -1.840e-3
-1.057, -1.850e-3
-1.056, -1.856e-3
-1.055, -1.853e-3
-1.054, -1.850e-3
-1.053, -1.850e-3
-1.052, -1.856e-3
-1.051, -1.868e-3
-1.050, -1.877e-3
-1.049, -1.881e-3
-1.048, -1.877e-3
-1.047, -1.874e-3
-1.046, -1.874e-3
-1.045, -1.884e-3
-1.044, -1.899e-3
-1.043, -1.905e-3
-1.042, -1.908e-3
-1.041, -1.905e-3
-1.040, -1.902e-3
-1.039, -1.908e-3
-1.038, -1.918e-3
-1.037, -1.930e-3
-1.036, -1.936e-3
-1.035, -1.936e-3
-1.034, -1.936e-3
-1.033, -1.936e-3
-1.032, -1.942e-3
-1.031, -1.958e-3
-1.030, -1.967e-3
-1.029, -1.970e-3
-1.028, -1.973e-3
-1.027, -1.967e-3
-1.026, -1.970e-3
-1.025, -1.982e-3
-1.024, -1.998e-3
-1.023, -2.007e-3
-1.022, -2.007e-3
-1.021, -2.004e-3
-1.020, -2.004e-3
-1.019, -2.010e-3
-1.018, -2.022e-3
-1.017, -2.035e-3
-1.016, -2.041e-3
-1.015, -2.041e-3
-1.014, -2.038e-3
-1.013, -2.038e-3
-1.012, -2.047e-3
-1.011, -2.062e-3
-1.010, -2.072e-3
-1.009, -2.078e-3
-1.008, -2.075e-3
-1.007, -2.075e-3
-1.006, -2.078e-3
-1.005, -2.087e-3
-1.004, -2.103e-3
-1.003, -2.112e-3
-1.002, -2.115e-3
-1.001, -2.115e-3
