Aug. 26, 2024   09:12:52
Cyclic Voltammetry
File: c:/users/guazh/data/20240813_batch_181_500/2024-08-25-exp186\exp186-2024-08-26t09_07_58-arkoh\exp186_cv_50mvs_efin_-1400mv.bin
Data Source:  Experiment
Instrument Model:  CHI760E
Header: CV ran at 50 mVs
Note: 

Init E (V) = -1
High E (V) = -1
Low E (V) = -1.4
Final E (V) = -1
Init P/N = N
Scan Rate (V/s) = 0.05
Segment = 7
Sample Interval (V) = 0.001
Quiet Time (sec) = 60
Sensitivity (A/V) = 0.001
Comp R (ohm) = 1.5

Results:

Channel 1:
Segment 1:

Segment 2:

Segment 3:

Segment 4:

Segment 5:

Segment 6:

Segment 7:

Potential/V, Current/A

-1.000, 3.153e-6
-1.001, 3.965e-6
-1.002, 4.237e-6
-1.003, 4.393e-6
-1.004, 4.648e-6
-1.005, 4.896e-6
-1.006, 5.031e-6
-1.007, 5.158e-6
-1.008, 5.287e-6
-1.009, 5.452e-6
-1.010, 5.591e-6
-1.011, 5.732e-6
-1.012, 5.836e-6
-1.013, 5.957e-6
-1.014, 6.036e-6
-1.015, 6.256e-6
-1.016, 6.378e-6
-1.017, 6.416e-6
-1.018, 6.521e-6
-1.019, 6.612e-6
-1.020, 6.763e-6
-1.021, 6.905e-6
-1.022, 6.994e-6
-1.023, 7.072e-6
-1.024, 7.134e-6
-1.025, 7.346e-6
-1.026, 7.429e-6
-1.027, 7.460e-6
-1.028, 7.528e-6
-1.029, 7.676e-6
-1.030, 7.815e-6
-1.031, 7.898e-6
-1.032, 8.001e-6
-1.033, 8.050e-6
-1.034, 8.122e-6
-1.035, 8.287e-6
-1.036, 8.409e-6
-1.037, 8.517e-6
-1.038, 8.477e-6
-1.039, 8.666e-6
-1.040, 8.787e-6
-1.041, 8.862e-6
-1.042, 8.920e-6
-1.043, 9.002e-6
-1.044, 9.035e-6
-1.045, 9.270e-6
-1.046, 9.282e-6
-1.047, 9.415e-6
-1.048, 9.426e-6
-1.049, 9.527e-6
-1.050, 9.746e-6
-1.051, 9.766e-6
-1.052, 9.865e-6
-1.053, 9.907e-6
-1.054, 9.983e-6
-1.055, 1.018e-5
-1.056, 1.023e-5
-1.057, 1.030e-5
-1.058, 1.036e-5
-1.059, 1.045e-5
-1.060, 1.063e-5
-1.061, 1.071e-5
-1.062, 1.073e-5
-1.063, 1.086e-5
-1.064, 1.088e-5
-1.065, 1.106e-5
-1.066, 1.117e-5
-1.067, 1.122e-5
-1.068, 1.122e-5
-1.069, 1.139e-5
-1.070, 1.153e-5
-1.071, 1.160e-5
-1.072, 1.165e-5
-1.073, 1.171e-5
-1.074, 1.181e-5
-1.075, 1.203e-5
-1.076, 1.205e-5
-1.077, 1.215e-5
-1.078, 1.218e-5
-1.079, 1.234e-5
-1.080, 1.245e-5
-1.081, 1.253e-5
-1.082, 1.267e-5
-1.083, 1.263e-5
-1.084, 1.282e-5
-1.085, 1.294e-5
-1.086, 1.304e-5
-1.087, 1.313e-5
-1.088, 1.317e-5
-1.089, 1.332e-5
-1.090, 1.347e-5
-1.091, 1.357e-5
-1.092, 1.369e-5
-1.093, 1.371e-5
-1.094, 1.389e-5
-1.095, 1.406e-5
-1.096, 1.414e-5
-1.097, 1.427e-5
-1.098, 1.427e-5
-1.099, 1.445e-5
-1.100, 1.460e-5
-1.101, 1.476e-5
-1.102, 1.485e-5
-1.103, 1.493e-5
-1.104, 1.508e-5
-1.105, 1.527e-5
-1.106, 1.540e-5
-1.107, 1.548e-5
-1.108, 1.553e-5
-1.109, 1.580e-5
-1.110, 1.596e-5
-1.111, 1.611e-5
-1.112, 1.616e-5
-1.113, 1.625e-5
-1.114, 1.654e-5
-1.115, 1.668e-5
-1.116, 1.688e-5
-1.117, 1.696e-5
-1.118, 1.706e-5
-1.119, 1.736e-5
-1.120, 1.754e-5
-1.121, 1.770e-5
-1.122, 1.779e-5
-1.123, 1.795e-5
-1.124, 1.826e-5
-1.125, 1.842e-5
-1.126, 1.865e-5
-1.127, 1.876e-5
-1.128, 1.890e-5
-1.129, 1.916e-5
-1.130, 1.946e-5
-1.131, 1.956e-5
-1.132, 1.973e-5
-1.133, 1.995e-5
-1.134, 2.022e-5
-1.135, 2.049e-5
-1.136, 2.067e-5
-1.137, 2.078e-5
-1.138, 2.103e-5
-1.139, 2.131e-5
-1.140, 2.160e-5
-1.141, 2.185e-5
-1.142, 2.195e-5
-1.143, 2.224e-5
-1.144, 2.250e-5
-1.145, 2.279e-5
-1.146, 2.315e-5
-1.147, 2.316e-5
-1.148, 2.350e-5
-1.149, 2.384e-5
-1.150, 2.406e-5
-1.151, 2.438e-5
-1.152, 2.451e-5
-1.153, 2.485e-5
-1.154, 2.512e-5
-1.155, 2.549e-5
-1.156, 2.582e-5
-1.157, 2.596e-5
-1.158, 2.633e-5
-1.159, 2.666e-5
-1.160, 2.694e-5
-1.161, 2.732e-5
-1.162, 2.752e-5
-1.163, 2.788e-5
-1.164, 2.817e-5
-1.165, 2.855e-5
-1.166, 2.892e-5
-1.167, 2.910e-5
-1.168, 2.950e-5
-1.169, 2.979e-5
-1.170, 3.018e-5
-1.171, 3.060e-5
-1.172, 3.080e-5
-1.173, 3.124e-5
-1.174, 3.151e-5
-1.175, 3.200e-5
-1.176, 3.236e-5
-1.177, 3.259e-5
-1.178, 3.303e-5
-1.179, 3.336e-5
-1.180, 3.380e-5
-1.181, 3.422e-5
-1.182, 3.443e-5
-1.183, 3.486e-5
-1.184, 3.525e-5
-1.185, 3.566e-5
-1.186, 3.610e-5
-1.187, 3.630e-5
-1.188, 3.679e-5
-1.189, 3.717e-5
-1.190, 3.761e-5
-1.191, 3.800e-5
-1.192, 3.829e-5
-1.193, 3.877e-5
-1.194, 3.916e-5
-1.195, 3.960e-5
-1.196, 3.997e-5
-1.197, 4.033e-5
-1.198, 4.071e-5
-1.199, 4.115e-5
-1.200, 4.163e-5
-1.201, 4.196e-5
-1.202, 4.233e-5
-1.203, 4.271e-5
-1.204, 4.318e-5
-1.205, 4.358e-5
-1.206, 4.392e-5
-1.207, 4.440e-5
-1.208, 4.472e-5
-1.209, 4.514e-5
-1.210, 4.562e-5
-1.211, 4.595e-5
-1.212, 4.628e-5
-1.213, 4.667e-5
-1.214, 4.713e-5
-1.215, 4.756e-5
-1.216, 4.783e-5
-1.217, 4.823e-5
-1.218, 4.861e-5
-1.219, 4.902e-5
-1.220, 4.939e-5
-1.221, 4.976e-5
-1.222, 5.010e-5
-1.223, 5.046e-5
-1.224, 5.076e-5
-1.225, 5.123e-5
-1.226, 5.154e-5
-1.227, 5.185e-5
-1.228, 5.218e-5
-1.229, 5.261e-5
-1.230, 5.300e-5
-1.231, 5.328e-5
-1.232, 5.356e-5
-1.233, 5.386e-5
-1.234, 5.427e-5
-1.235, 5.460e-5
-1.236, 5.490e-5
-1.237, 5.519e-5
-1.238, 5.543e-5
-1.239, 5.583e-5
-1.240, 5.617e-5
-1.241, 5.644e-5
-1.242, 5.678e-5
-1.243, 5.700e-5
-1.244, 5.737e-5
-1.245, 5.771e-5
-1.246, 5.800e-5
-1.247, 5.835e-5
-1.248, 5.854e-5
-1.249, 5.892e-5
-1.250, 5.935e-5
-1.251, 5.957e-5
-1.252, 5.992e-5
-1.253, 6.019e-5
-1.254, 6.061e-5
-1.255, 6.104e-5
-1.256, 6.119e-5
-1.257, 6.164e-5
-1.258, 6.184e-5
-1.259, 6.231e-5
-1.260, 6.271e-5
-1.261, 6.307e-5
-1.262, 6.339e-5
-1.263, 6.374e-5
-1.264, 6.418e-5
-1.265, 6.464e-5
-1.266, 6.496e-5
-1.267, 6.540e-5
-1.268, 6.574e-5
-1.269, 6.623e-5
-1.270, 6.671e-5
-1.271, 6.712e-5
-1.272, 6.751e-5
-1.273, 6.790e-5
-1.274, 6.846e-5
-1.275, 6.894e-5
-1.276, 6.937e-5
-1.277, 6.982e-5
-1.278, 7.025e-5
-1.279, 7.083e-5
-1.280, 7.134e-5
-1.281, 7.186e-5
-1.282, 7.236e-5
-1.283, 7.274e-5
-1.284, 7.340e-5
-1.285, 7.395e-5
-1.286, 7.445e-5
-1.287, 7.495e-5
-1.288, 7.544e-5
-1.289, 7.605e-5
-1.290, 7.669e-5
-1.291, 7.719e-5
-1.292, 7.770e-5
-1.293, 7.825e-5
-1.294, 7.882e-5
-1.295, 7.956e-5
-1.296, 8.006e-5
-1.297, 8.058e-5
-1.298, 8.114e-5
-1.299, 8.174e-5
-1.300, 8.239e-5
-1.301, 8.301e-5
-1.302, 8.351e-5
-1.303, 8.410e-5
-1.304, 8.461e-5
-1.305, 8.534e-5
-1.306, 8.595e-5
-1.307, 8.638e-5
-1.308, 8.695e-5
-1.309, 8.758e-5
-1.310, 8.815e-5
-1.311, 8.877e-5
-1.312, 8.914e-5
-1.313, 8.969e-5
-1.314, 9.031e-5
-1.315, 9.078e-5
-1.316, 9.135e-5
-1.317, 9.174e-5
-1.318, 9.218e-5
-1.319, 9.269e-5
-1.320, 9.319e-5
-1.321, 9.362e-5
-1.322, 9.388e-5
-1.323, 9.427e-5
-1.324, 9.466e-5
-1.325, 9.502e-5
-1.326, 9.530e-5
-1.327, 9.551e-5
-1.328, 9.575e-5
-1.329, 9.601e-5
-1.330, 9.626e-5
-1.331, 9.642e-5
-1.332, 9.644e-5
-1.333, 9.655e-5
-1.334, 9.661e-5
-1.335, 9.671e-5
-1.336, 9.663e-5
-1.337, 9.652e-5
-1.338, 9.647e-5
-1.339, 9.635e-5
-1.340, 9.631e-5
-1.341, 9.613e-5
-1.342, 9.590e-5
-1.343, 9.572e-5
-1.344, 9.551e-5
-1.345, 9.544e-5
-1.346, 9.516e-5
-1.347, 9.490e-5
-1.348, 9.468e-5
-1.349, 9.455e-5
-1.350, 9.437e-5
-1.351, 9.421e-5
-1.352, 9.399e-5
-1.353, 9.380e-5
-1.354, 9.379e-5
-1.355, 9.375e-5
-1.356, 9.365e-5
-1.357, 9.358e-5
-1.358, 9.361e-5
-1.359, 9.371e-5
-1.360, 9.381e-5
-1.361, 9.387e-5
-1.362, 9.408e-5
-1.363, 9.417e-5
-1.364, 9.449e-5
-1.365, 9.486e-5
-1.366, 9.513e-5
-1.367, 9.544e-5
-1.368, 9.578e-5
-1.369, 9.638e-5
-1.370, 9.692e-5
-1.371, 9.738e-5
-1.372, 9.793e-5
-1.373, 9.850e-5
-1.374, 9.923e-5
-1.375, 1.001e-4
-1.376, 1.006e-4
-1.377, 1.013e-4
-1.378, 1.021e-4
-1.379, 1.031e-4
-1.380, 1.040e-4
-1.381, 1.048e-4
-1.382, 1.057e-4
-1.383, 1.066e-4
-1.384, 1.076e-4
-1.385, 1.087e-4
-1.386, 1.096e-4
-1.387, 1.105e-4
-1.388, 1.116e-4
-1.389, 1.128e-4
-1.390, 1.139e-4
-1.391, 1.150e-4
-1.392, 1.160e-4
-1.393, 1.172e-4
-1.394, 1.186e-4
-1.395, 1.196e-4
-1.396, 1.209e-4
-1.397, 1.220e-4
-1.398, 1.232e-4
-1.399, 1.246e-4
-1.400, 1.193e-4
-1.399, 1.155e-4
-1.398, 1.127e-4
-1.397, 1.102e-4
-1.396, 1.081e-4
-1.395, 1.058e-4
-1.394, 1.038e-4
-1.393, 1.017e-4
-1.392, 9.977e-5
-1.391, 9.803e-5
-1.390, 9.612e-5
-1.389, 9.453e-5
-1.388, 9.272e-5
-1.387, 9.106e-5
-1.386, 8.967e-5
-1.385, 8.804e-5
-1.384, 8.661e-5
-1.383, 8.507e-5
-1.382, 8.352e-5
-1.381, 8.232e-5
-1.380, 8.096e-5
-1.379, 7.969e-5
-1.378, 7.826e-5
-1.377, 7.693e-5
-1.376, 7.591e-5
-1.375, 7.453e-5
-1.374, 7.339e-5
-1.373, 7.213e-5
-1.372, 7.098e-5
-1.371, 7.001e-5
-1.370, 6.882e-5
-1.369, 6.774e-5
-1.368, 6.659e-5
-1.367, 6.557e-5
-1.366, 6.460e-5
-1.365, 6.354e-5
-1.364, 6.260e-5
-1.363, 6.147e-5
-1.362, 6.056e-5
-1.361, 5.974e-5
-1.360, 5.876e-5
-1.359, 5.783e-5
-1.358, 5.686e-5
-1.357, 5.606e-5
-1.356, 5.517e-5
-1.355, 5.424e-5
-1.354, 5.352e-5
-1.353, 5.254e-5
-1.352, 5.179e-5
-1.351, 5.104e-5
-1.350, 5.016e-5
-1.349, 4.943e-5
-1.348, 4.865e-5
-1.347, 4.791e-5
-1.346, 4.719e-5
-1.345, 4.643e-5
-1.344, 4.567e-5
-1.343, 4.491e-5
-1.342, 4.425e-5
-1.341, 4.361e-5
-1.340, 4.291e-5
-1.339, 4.218e-5
-1.338, 4.150e-5
-1.337, 4.091e-5
-1.336, 4.027e-5
-1.335, 3.963e-5
-1.334, 3.900e-5
-1.333, 3.836e-5
-1.332, 3.785e-5
-1.331, 3.719e-5
-1.330, 3.666e-5
-1.329, 3.606e-5
-1.328, 3.539e-5
-1.327, 3.494e-5
-1.326, 3.434e-5
-1.325, 3.386e-5
-1.324, 3.329e-5
-1.323, 3.267e-5
-1.322, 3.224e-5
-1.321, 3.169e-5
-1.320, 3.131e-5
-1.319, 3.075e-5
-1.318, 3.013e-5
-1.317, 2.974e-5
-1.316, 2.930e-5
-1.315, 2.885e-5
-1.314, 2.837e-5
-1.313, 2.781e-5
-1.312, 2.749e-5
-1.311, 2.698e-5
-1.310, 2.666e-5
-1.309, 2.617e-5
-1.308, 2.567e-5
-1.307, 2.531e-5
-1.306, 2.493e-5
-1.305, 2.460e-5
-1.304, 2.413e-5
-1.303, 2.372e-5
-1.302, 2.336e-5
-1.301, 2.301e-5
-1.300, 2.273e-5
-1.299, 2.229e-5
-1.298, 2.186e-5
-1.297, 2.156e-5
-1.296, 2.123e-5
-1.295, 2.094e-5
-1.294, 2.054e-5
-1.293, 2.022e-5
-1.292, 1.993e-5
-1.291, 1.954e-5
-1.290, 1.933e-5
-1.289, 1.898e-5
-1.288, 1.859e-5
-1.287, 1.838e-5
-1.286, 1.806e-5
-1.285, 1.782e-5
-1.284, 1.749e-5
-1.283, 1.717e-5
-1.282, 1.694e-5
-1.281, 1.667e-5
-1.280, 1.639e-5
-1.279, 1.617e-5
-1.278, 1.578e-5
-1.277, 1.557e-5
-1.276, 1.543e-5
-1.275, 1.514e-5
-1.274, 1.490e-5
-1.273, 1.454e-5
-1.272, 1.436e-5
-1.271, 1.423e-5
-1.270, 1.391e-5
-1.269, 1.371e-5
-1.268, 1.344e-5
-1.267, 1.320e-5
-1.266, 1.306e-5
-1.265, 1.283e-5
-1.264, 1.261e-5
-1.263, 1.234e-5
-1.262, 1.213e-5
-1.261, 1.204e-5
-1.260, 1.179e-5
-1.259, 1.151e-5
-1.258, 1.134e-5
-1.257, 1.115e-5
-1.256, 1.097e-5
-1.255, 1.084e-5
-1.254, 1.058e-5
-1.253, 1.035e-5
-1.252, 1.016e-5
-1.251, 1.010e-5
-1.250, 9.821e-6
-1.249, 9.672e-6
-1.248, 9.477e-6
-1.247, 9.278e-6
-1.246, 9.162e-6
-1.245, 9.003e-6
-1.244, 8.802e-6
-1.243, 8.570e-6
-1.242, 8.386e-6
-1.241, 8.330e-6
-1.240, 8.188e-6
-1.239, 7.985e-6
-1.238, 7.713e-6
-1.237, 7.631e-6
-1.236, 7.516e-6
-1.235, 7.301e-6
-1.234, 7.194e-6
-1.233, 6.929e-6
-1.232, 6.882e-6
-1.231, 6.746e-6
-1.230, 6.601e-6
-1.229, 6.352e-6
-1.228, 6.193e-6
-1.227, 6.071e-6
-1.226, 5.973e-6
-1.225, 5.776e-6
-1.224, 5.726e-6
-1.223, 5.468e-6
-1.222, 5.346e-6
-1.221, 5.247e-6
-1.220, 5.180e-6
-1.219, 4.962e-6
-1.218, 4.737e-6
-1.217, 4.675e-6
-1.216, 4.620e-6
-1.215, 4.463e-6
-1.214, 4.232e-6
-1.213, 4.073e-6
-1.212, 4.050e-6
-1.211, 3.865e-6
-1.210, 3.831e-6
-1.209, 3.560e-6
-1.208, 3.405e-6
-1.207, 3.384e-6
-1.206, 3.244e-6
-1.205, 3.151e-6
-1.204, 2.883e-6
-1.203, 2.712e-6
-1.202, 2.660e-6
-1.201, 2.579e-6
-1.200, 2.519e-6
-1.199, 2.204e-6
-1.198, 2.088e-6
-1.197, 2.076e-6
-1.196, 1.894e-6
-1.195, 1.784e-6
-1.194, 1.550e-6
-1.193, 1.449e-6
-1.192, 1.313e-6
-1.191, 1.254e-6
-1.190, 1.116e-6
-1.189, 8.729e-7
-1.188, 7.605e-7
-1.187, 6.677e-7
-1.186, 5.434e-7
-1.185, 3.905e-7
-1.184, 1.981e-7
-1.183, 1.409e-7
-1.182, -1.107e-7
-1.181, -1.926e-7
-1.180, -2.281e-7
-1.179, -5.389e-7
-1.178, -6.711e-7
-1.177, -8.033e-7
-1.176, -8.773e-7
-1.175, -9.542e-7
-1.174, -1.360e-6
-1.173, -1.350e-6
-1.172, -1.516e-6
-1.171, -1.659e-6
-1.170, -1.734e-6
-1.169, -2.003e-6
-1.168, -2.077e-6
-1.167, -2.305e-6
-1.166, -2.359e-6
-1.165, -2.435e-6
-1.164, -2.797e-6
-1.163, -2.885e-6
-1.162, -3.038e-6
-1.161, -3.149e-6
-1.160, -3.308e-6
-1.159, -3.524e-6
-1.158, -3.682e-6
-1.157, -3.789e-6
-1.156, -3.900e-6
-1.155, -4.092e-6
-1.154, -4.306e-6
-1.153, -4.450e-6
-1.152, -4.588e-6
-1.151, -4.650e-6
-1.150, -4.897e-6
-1.149, -5.120e-6
-1.148, -5.214e-6
-1.147, -5.373e-6
-1.146, -5.509e-6
-1.145, -5.743e-6
-1.144, -5.893e-6
-1.143, -6.068e-6
-1.142, -6.229e-6
-1.141, -6.330e-6
-1.140, -6.480e-6
-1.139, -6.759e-6
-1.138, -6.863e-6
-1.137, -6.993e-6
-1.136, -7.188e-6
-1.135, -7.341e-6
-1.134, -7.514e-6
-1.133, -7.708e-6
-1.132, -7.839e-6
-1.131, -8.014e-6
-1.130, -8.191e-6
-1.129, -8.349e-6
-1.128, -8.552e-6
-1.127, -8.643e-6
-1.126, -8.853e-6
-1.125, -9.072e-6
-1.124, -9.141e-6
-1.123, -9.467e-6
-1.122, -9.558e-6
-1.121, -9.714e-6
-1.120, -9.885e-6
-1.119, -1.005e-5
-1.118, -1.039e-5
-1.117, -1.044e-5
-1.116, -1.058e-5
-1.115, -1.079e-5
-1.114, -1.098e-5
-1.113, -1.126e-5
-1.112, -1.131e-5
-1.111, -1.148e-5
-1.110, -1.174e-5
-1.109, -1.188e-5
-1.108, -1.216e-5
-1.107, -1.231e-5
-1.106, -1.241e-5
-1.105, -1.273e-5
-1.104, -1.286e-5
-1.103, -1.314e-5
-1.102, -1.321e-5
-1.101, -1.332e-5
-1.100, -1.366e-5
-1.099, -1.381e-5
-1.098, -1.405e-5
-1.097, -1.422e-5
-1.096, -1.432e-5
-1.095, -1.459e-5
-1.094, -1.480e-5
-1.093, -1.502e-5
-1.092, -1.518e-5
-1.091, -1.533e-5
-1.090, -1.552e-5
-1.089, -1.580e-5
-1.088, -1.601e-5
-1.087, -1.610e-5
-1.086, -1.633e-5
-1.085, -1.654e-5
-1.084, -1.674e-5
-1.083, -1.700e-5
-1.082, -1.715e-5
-1.081, -1.732e-5
-1.080, -1.752e-5
-1.079, -1.777e-5
-1.078, -1.795e-5
-1.077, -1.811e-5
-1.076, -1.833e-5
-1.075, -1.854e-5
-1.074, -1.871e-5
-1.073, -1.893e-5
-1.072, -1.908e-5
-1.071, -1.921e-5
-1.070, -1.939e-5
-1.069, -1.967e-5
-1.068, -1.985e-5
-1.067, -1.998e-5
-1.066, -2.009e-5
-1.065, -2.032e-5
-1.064, -2.054e-5
-1.063, -2.075e-5
-1.062, -2.088e-5
-1.061, -2.099e-5
-1.060, -2.111e-5
-1.059, -2.142e-5
-1.058, -2.160e-5
-1.057, -2.169e-5
-1.056, -2.184e-5
-1.055, -2.200e-5
-1.054, -2.228e-5
-1.053, -2.236e-5
-1.052, -2.249e-5
-1.051, -2.269e-5
-1.050, -2.280e-5
-1.049, -2.305e-5
-1.048, -2.319e-5
-1.047, -2.333e-5
-1.046, -2.340e-5
-1.045, -2.355e-5
-1.044, -2.380e-5
-1.043, -2.390e-5
-1.042, -2.403e-5
-1.041, -2.416e-5
-1.040, -2.425e-5
-1.039, -2.444e-5
-1.038, -2.463e-5
-1.037, -2.471e-5
-1.036, -2.479e-5
-1.035, -2.497e-5
-1.034, -2.516e-5
-1.033, -2.525e-5
-1.032, -2.535e-5
-1.031, -2.544e-5
-1.030, -2.564e-5
-1.029, -2.575e-5
-1.028, -2.590e-5
-1.027, -2.603e-5
-1.026, -2.601e-5
-1.025, -2.629e-5
-1.024, -2.644e-5
-1.023, -2.657e-5
-1.022, -2.664e-5
-1.021, -2.669e-5
-1.020, -2.686e-5
-1.019, -2.705e-5
-1.018, -2.717e-5
-1.017, -2.725e-5
-1.016, -2.729e-5
-1.015, -2.748e-5
-1.014, -2.768e-5
-1.013, -2.778e-5
-1.012, -2.776e-5
-1.011, -2.794e-5
-1.010, -2.809e-5
-1.009, -2.824e-5
-1.008, -2.842e-5
-1.007, -2.845e-5
-1.006, -2.854e-5
-1.005, -2.870e-5
-1.004, -2.891e-5
-1.003, -2.912e-5
-1.002, -2.902e-5
-1.001, -2.920e-5
-1.000, -2.417e-5
-1.001, -2.151e-5
-1.002, -1.991e-5
-1.003, -1.848e-5
-1.004, -1.736e-5
-1.005, -1.632e-5
-1.006, -1.538e-5
-1.007, -1.452e-5
-1.008, -1.359e-5
-1.009, -1.282e-5
-1.010, -1.207e-5
-1.011, -1.148e-5
-1.012, -1.079e-5
-1.013, -1.002e-5
-1.014, -9.545e-6
-1.015, -8.950e-6
-1.016, -8.492e-6
-1.017, -7.938e-6
-1.018, -7.246e-6
-1.019, -6.926e-6
-1.020, -6.370e-6
-1.021, -5.978e-6
-1.022, -5.618e-6
-1.023, -5.029e-6
-1.024, -4.671e-6
-1.025, -4.255e-6
-1.026, -3.892e-6
-1.027, -3.577e-6
-1.028, -3.036e-6
-1.029, -2.720e-6
-1.030, -2.359e-6
-1.031, -1.979e-6
-1.032, -1.795e-6
-1.033, -1.333e-6
-1.034, -1.008e-6
-1.035, -6.277e-7
-1.036, -4.284e-7
-1.037, -1.581e-7
-1.038, 3.826e-7
-1.039, 5.553e-7
-1.040, 8.917e-7
-1.041, 1.091e-6
-1.042, 1.367e-6
-1.043, 1.751e-6
-1.044, 1.957e-6
-1.045, 2.315e-6
-1.046, 2.404e-6
-1.047, 2.690e-6
-1.048, 3.005e-6
-1.049, 3.211e-6
-1.050, 3.483e-6
-1.051, 3.590e-6
-1.052, 3.867e-6
-1.053, 4.207e-6
-1.054, 4.363e-6
-1.055, 4.599e-6
-1.056, 4.750e-6
-1.057, 4.984e-6
-1.058, 5.259e-6
-1.059, 5.386e-6
-1.060, 5.654e-6
-1.061, 5.760e-6
-1.062, 5.929e-6
-1.063, 6.303e-6
-1.064, 6.401e-6
-1.065, 6.556e-6
-1.066, 6.786e-6
-1.067, 6.964e-6
-1.068, 7.144e-6
-1.069, 7.332e-6
-1.070, 7.566e-6
-1.071, 7.650e-6
-1.072, 7.827e-6
-1.073, 8.030e-6
-1.074, 8.243e-6
-1.075, 8.365e-6
-1.076, 8.477e-6
-1.077, 8.684e-6
-1.078, 8.817e-6
-1.079, 9.065e-6
-1.080, 9.168e-6
-1.081, 9.232e-6
-1.082, 9.426e-6
-1.083, 9.595e-6
-1.084, 9.772e-6
-1.085, 9.863e-6
-1.086, 9.937e-6
-1.087, 1.014e-5
-1.088, 1.029e-5
-1.089, 1.049e-5
-1.090, 1.061e-5
-1.091, 1.060e-5
-1.092, 1.089e-5
-1.093, 1.103e-5
-1.094, 1.120e-5
-1.095, 1.128e-5
-1.096, 1.127e-5
-1.097, 1.148e-5
-1.098, 1.167e-5
-1.099, 1.183e-5
-1.100, 1.191e-5
-1.101, 1.199e-5
-1.102, 1.217e-5
-1.103, 1.227e-5
-1.104, 1.245e-5
-1.105, 1.257e-5
-1.106, 1.260e-5
-1.107, 1.277e-5
-1.108, 1.289e-5
-1.109, 1.310e-5
-1.110, 1.313e-5
-1.111, 1.325e-5
-1.112, 1.340e-5
-1.113, 1.348e-5
-1.114, 1.366e-5
-1.115, 1.375e-5
-1.116, 1.381e-5
-1.117, 1.396e-5
-1.118, 1.417e-5
-1.119, 1.433e-5
-1.120, 1.430e-5
-1.121, 1.444e-5
-1.122, 1.458e-5
-1.123, 1.469e-5
-1.124, 1.486e-5
-1.125, 1.500e-5
-1.126, 1.505e-5
-1.127, 1.514e-5
-1.128, 1.537e-5
-1.129, 1.543e-5
-1.130, 1.557e-5
-1.131, 1.565e-5
-1.132, 1.572e-5
-1.133, 1.591e-5
-1.134, 1.600e-5
-1.135, 1.616e-5
-1.136, 1.615e-5
-1.137, 1.629e-5
-1.138, 1.654e-5
-1.139, 1.656e-5
-1.140, 1.672e-5
-1.141, 1.676e-5
-1.142, 1.688e-5
-1.143, 1.706e-5
-1.144, 1.716e-5
-1.145, 1.724e-5
-1.146, 1.734e-5
-1.147, 1.747e-5
-1.148, 1.765e-5
-1.149, 1.769e-5
-1.150, 1.781e-5
-1.151, 1.795e-5
-1.152, 1.802e-5
-1.153, 1.821e-5
-1.154, 1.831e-5
-1.155, 1.840e-5
-1.156, 1.844e-5
-1.157, 1.859e-5
-1.158, 1.875e-5
-1.159, 1.887e-5
-1.160, 1.893e-5
-1.161, 1.897e-5
-1.162, 1.923e-5
-1.163, 1.928e-5
-1.164, 1.942e-5
-1.165, 1.953e-5
-1.166, 1.960e-5
-1.167, 1.977e-5
-1.168, 1.990e-5
-1.169, 1.999e-5
-1.170, 2.010e-5
-1.171, 2.014e-5
-1.172, 2.030e-5
-1.173, 2.046e-5
-1.174, 2.062e-5
-1.175, 2.069e-5
-1.176, 2.069e-5
-1.177, 2.093e-5
-1.178, 2.111e-5
-1.179, 2.121e-5
-1.180, 2.128e-5
-1.181, 2.129e-5
-1.182, 2.152e-5
-1.183, 2.171e-5
-1.184, 2.180e-5
-1.185, 2.178e-5
-1.186, 2.194e-5
-1.187, 2.209e-5
-1.188, 2.226e-5
-1.189, 2.242e-5
-1.190, 2.242e-5
-1.191, 2.254e-5
-1.192, 2.269e-5
-1.193, 2.287e-5
-1.194, 2.300e-5
-1.195, 2.294e-5
-1.196, 2.313e-5
-1.197, 2.326e-5
-1.198, 2.339e-5
-1.199, 2.357e-5
-1.200, 2.355e-5
-1.201, 2.370e-5
-1.202, 2.385e-5
-1.203, 2.396e-5
-1.204, 2.412e-5
-1.205, 2.412e-5
-1.206, 2.430e-5
-1.207, 2.439e-5
-1.208, 2.451e-5
-1.209, 2.463e-5
-1.210, 2.468e-5
-1.211, 2.480e-5
-1.212, 2.485e-5
-1.213, 2.508e-5
-1.214, 2.520e-5
-1.215, 2.518e-5
-1.216, 2.532e-5
-1.217, 2.537e-5
-1.218, 2.564e-5
-1.219, 2.572e-5
-1.220, 2.568e-5
-1.221, 2.589e-5
-1.222, 2.594e-5
-1.223, 2.616e-5
-1.224, 2.627e-5
-1.225, 2.621e-5
-1.226, 2.643e-5
-1.227, 2.648e-5
-1.228, 2.675e-5
-1.229, 2.684e-5
-1.230, 2.681e-5
-1.231, 2.699e-5
-1.232, 2.707e-5
-1.233, 2.728e-5
-1.234, 2.739e-5
-1.235, 2.736e-5
-1.236, 2.757e-5
-1.237, 2.774e-5
-1.238, 2.786e-5
-1.239, 2.795e-5
-1.240, 2.800e-5
-1.241, 2.816e-5
-1.242, 2.830e-5
-1.243, 2.844e-5
-1.244, 2.854e-5
-1.245, 2.865e-5
-1.246, 2.877e-5
-1.247, 2.897e-5
-1.248, 2.906e-5
-1.249, 2.919e-5
-1.250, 2.936e-5
-1.251, 2.942e-5
-1.252, 2.960e-5
-1.253, 2.982e-5
-1.254, 2.983e-5
-1.255, 3.007e-5
-1.256, 3.009e-5
-1.257, 3.025e-5
-1.258, 3.058e-5
-1.259, 3.061e-5
-1.260, 3.078e-5
-1.261, 3.080e-5
-1.262, 3.108e-5
-1.263, 3.126e-5
-1.264, 3.131e-5
-1.265, 3.148e-5
-1.266, 3.156e-5
-1.267, 3.180e-5
-1.268, 3.206e-5
-1.269, 3.210e-5
-1.270, 3.223e-5
-1.271, 3.232e-5
-1.272, 3.258e-5
-1.273, 3.279e-5
-1.274, 3.295e-5
-1.275, 3.313e-5
-1.276, 3.317e-5
-1.277, 3.344e-5
-1.278, 3.368e-5
-1.279, 3.381e-5
-1.280, 3.400e-5
-1.281, 3.406e-5
-1.282, 3.439e-5
-1.283, 3.453e-5
-1.284, 3.472e-5
-1.285, 3.490e-5
-1.286, 3.504e-5
-1.287, 3.534e-5
-1.288, 3.549e-5
-1.289, 3.564e-5
-1.290, 3.588e-5
-1.291, 3.602e-5
-1.292, 3.632e-5
-1.293, 3.659e-5
-1.294, 3.678e-5
-1.295, 3.695e-5
-1.296, 3.713e-5
-1.297, 3.743e-5
-1.298, 3.772e-5
-1.299, 3.796e-5
-1.300, 3.809e-5
-1.301, 3.834e-5
-1.302, 3.866e-5
-1.303, 3.897e-5
-1.304, 3.921e-5
-1.305, 3.939e-5
-1.306, 3.971e-5
-1.307, 3.999e-5
-1.308, 4.038e-5
-1.309, 4.061e-5
-1.310, 4.084e-5
-1.311, 4.121e-5
-1.312, 4.152e-5
-1.313, 4.187e-5
-1.314, 4.219e-5
-1.315, 4.244e-5
-1.316, 4.275e-5
-1.317, 4.320e-5
-1.318, 4.359e-5
-1.319, 4.395e-5
-1.320, 4.423e-5
-1.321, 4.466e-5
-1.322, 4.507e-5
-1.323, 4.550e-5
-1.324, 4.588e-5
-1.325, 4.622e-5
-1.326, 4.665e-5
-1.327, 4.713e-5
-1.328, 4.756e-5
-1.329, 4.793e-5
-1.330, 4.844e-5
-1.331, 4.890e-5
-1.332, 4.934e-5
-1.333, 4.988e-5
-1.334, 5.037e-5
-1.335, 5.081e-5
-1.336, 5.127e-5
-1.337, 5.180e-5
-1.338, 5.247e-5
-1.339, 5.289e-5
-1.340, 5.344e-5
-1.341, 5.396e-5
-1.342, 5.456e-5
-1.343, 5.527e-5
-1.344, 5.576e-5
-1.345, 5.627e-5
-1.346, 5.681e-5
-1.347, 5.758e-5
-1.348, 5.819e-5
-1.349, 5.874e-5
-1.350, 5.933e-5
-1.351, 6.002e-5
-1.352, 6.072e-5
-1.353, 6.142e-5
-1.354, 6.205e-5
-1.355, 6.264e-5
-1.356, 6.335e-5
-1.357, 6.421e-5
-1.358, 6.487e-5
-1.359, 6.553e-5
-1.360, 6.627e-5
-1.361, 6.702e-5
-1.362, 6.792e-5
-1.363, 6.862e-5
-1.364, 6.940e-5
-1.365, 7.011e-5
-1.366, 7.100e-5
-1.367, 7.199e-5
-1.368, 7.265e-5
-1.369, 7.349e-5
-1.370, 7.440e-5
-1.371, 7.511e-5
-1.372, 7.623e-5
-1.373, 7.703e-5
-1.374, 7.793e-5
-1.375, 7.882e-5
-1.376, 7.971e-5
-1.377, 8.075e-5
-1.378, 8.170e-5
-1.379, 8.268e-5
-1.380, 8.357e-5
-1.381, 8.452e-5
-1.382, 8.575e-5
-1.383, 8.669e-5
-1.384, 8.774e-5
-1.385, 8.871e-5
-1.386, 8.979e-5
-1.387, 9.096e-5
-1.388, 9.197e-5
-1.389, 9.319e-5
-1.390, 9.412e-5
-1.391, 9.525e-5
-1.392, 9.654e-5
-1.393, 9.759e-5
-1.394, 9.878e-5
-1.395, 9.988e-5
-1.396, 1.011e-4
-1.397, 1.024e-4
-1.398, 1.036e-4
-1.399, 1.049e-4
-1.400, 9.961e-5
-1.399, 9.634e-5
-1.398, 9.401e-5
-1.397, 9.177e-5
-1.396, 8.981e-5
-1.395, 8.780e-5
-1.394, 8.601e-5
-1.393, 8.430e-5
-1.392, 8.263e-5
-1.391, 8.101e-5
-1.390, 7.937e-5
-1.389, 7.793e-5
-1.388, 7.650e-5
-1.387, 7.502e-5
-1.386, 7.371e-5
-1.385, 7.222e-5
-1.384, 7.095e-5
-1.383, 6.968e-5
-1.382, 6.841e-5
-1.381, 6.723e-5
-1.380, 6.600e-5
-1.379, 6.485e-5
-1.378, 6.373e-5
-1.377, 6.263e-5
-1.376, 6.160e-5
-1.375, 6.042e-5
-1.374, 5.935e-5
-1.373, 5.843e-5
-1.372, 5.749e-5
-1.371, 5.640e-5
-1.370, 5.537e-5
-1.369, 5.448e-5
-1.368, 5.354e-5
-1.367, 5.275e-5
-1.366, 5.179e-5
-1.365, 5.081e-5
-1.364, 5.006e-5
-1.363, 4.919e-5
-1.362, 4.840e-5
-1.361, 4.752e-5
-1.360, 4.667e-5
-1.359, 4.599e-5
-1.358, 4.513e-5
-1.357, 4.448e-5
-1.356, 4.369e-5
-1.355, 4.287e-5
-1.354, 4.231e-5
-1.353, 4.155e-5
-1.352, 4.093e-5
-1.351, 4.018e-5
-1.350, 3.942e-5
-1.349, 3.880e-5
-1.348, 3.826e-5
-1.347, 3.761e-5
-1.346, 3.693e-5
-1.345, 3.626e-5
-1.344, 3.571e-5
-1.343, 3.514e-5
-1.342, 3.457e-5
-1.341, 3.399e-5
-1.340, 3.332e-5
-1.339, 3.275e-5
-1.338, 3.236e-5
-1.337, 3.176e-5
-1.336, 3.122e-5
-1.335, 3.066e-5
-1.334, 3.011e-5
-1.333, 2.973e-5
-1.332, 2.923e-5
-1.331, 2.868e-5
-1.330, 2.812e-5
-1.329, 2.768e-5
-1.328, 2.729e-5
-1.327, 2.681e-5
-1.326, 2.632e-5
-1.325, 2.586e-5
-1.324, 2.536e-5
-1.323, 2.508e-5
-1.322, 2.461e-5
-1.321, 2.413e-5
-1.320, 2.373e-5
-1.319, 2.333e-5
-1.318, 2.296e-5
-1.317, 2.257e-5
-1.316, 2.221e-5
-1.315, 2.170e-5
-1.314, 2.143e-5
-1.313, 2.111e-5
-1.312, 2.071e-5
-1.311, 2.036e-5
-1.310, 1.994e-5
-1.309, 1.961e-5
-1.308, 1.934e-5
-1.307, 1.896e-5
-1.306, 1.863e-5
-1.305, 1.821e-5
-1.304, 1.800e-5
-1.303, 1.773e-5
-1.302, 1.735e-5
-1.301, 1.711e-5
-1.300, 1.674e-5
-1.299, 1.645e-5
-1.298, 1.625e-5
-1.297, 1.594e-5
-1.296, 1.561e-5
-1.295, 1.534e-5
-1.294, 1.507e-5
-1.293, 1.486e-5
-1.292, 1.463e-5
-1.291, 1.429e-5
-1.290, 1.397e-5
-1.289, 1.378e-5
-1.288, 1.362e-5
-1.287, 1.340e-5
-1.286, 1.307e-5
-1.285, 1.281e-5
-1.284, 1.264e-5
-1.283, 1.240e-5
-1.282, 1.229e-5
-1.281, 1.195e-5
-1.280, 1.166e-5
-1.279, 1.159e-5
-1.278, 1.139e-5
-1.277, 1.126e-5
-1.276, 1.094e-5
-1.275, 1.071e-5
-1.274, 1.062e-5
-1.273, 1.044e-5
-1.272, 1.030e-5
-1.271, 9.930e-6
-1.270, 9.776e-6
-1.269, 9.717e-6
-1.268, 9.561e-6
-1.267, 9.358e-6
-1.266, 9.111e-6
-1.265, 8.867e-6
-1.264, 8.842e-6
-1.263, 8.755e-6
-1.262, 8.525e-6
-1.261, 8.300e-6
-1.260, 8.179e-6
-1.259, 8.045e-6
-1.258, 7.924e-6
-1.257, 7.818e-6
-1.256, 7.524e-6
-1.255, 7.419e-6
-1.254, 7.313e-6
-1.253, 7.173e-6
-1.252, 7.086e-6
-1.251, 6.793e-6
-1.250, 6.742e-6
-1.249, 6.562e-6
-1.248, 6.553e-6
-1.247, 6.422e-6
-1.246, 6.108e-6
-1.245, 6.097e-6
-1.244, 5.924e-6
-1.243, 5.844e-6
-1.242, 5.720e-6
-1.241, 5.459e-6
-1.240, 5.449e-6
-1.239, 5.296e-6
-1.238, 5.167e-6
-1.237, 5.132e-6
-1.236, 4.853e-6
-1.235, 4.775e-6
-1.234, 4.701e-6
-1.233, 4.621e-6
-1.232, 4.512e-6
-1.231, 4.297e-6
-1.230, 4.189e-6
-1.229, 3.967e-6
-1.228, 4.008e-6
-1.227, 3.849e-6
-1.226, 3.629e-6
-1.225, 3.603e-6
-1.224, 3.475e-6
-1.223, 3.426e-6
-1.222, 3.293e-6
-1.221, 3.098e-6
-1.220, 3.028e-6
-1.219, 2.932e-6
-1.218, 2.843e-6
-1.217, 2.701e-6
-1.216, 2.538e-6
-1.215, 2.468e-6
-1.214, 2.347e-6
-1.213, 2.309e-6
-1.212, 2.118e-6
-1.211, 2.020e-6
-1.210, 1.912e-6
-1.209, 1.781e-6
-1.208, 1.782e-6
-1.207, 1.644e-6
-1.206, 1.460e-6
-1.205, 1.377e-6
-1.204, 1.307e-6
-1.203, 1.190e-6
-1.202, 1.062e-6
-1.201, 9.075e-7
-1.200, 8.187e-7
-1.199, 7.999e-7
-1.198, 6.352e-7
-1.197, 5.316e-7
-1.196, 4.487e-7
-1.195, 2.109e-7
-1.194, 1.873e-7
-1.193, 1.212e-7
-1.192, -2.684e-8
-1.191, -4.953e-8
-1.190, -3.475e-7
-1.189, -3.327e-7
-1.188, -4.057e-7
-1.187, -5.695e-7
-1.186, -6.622e-7
-1.185, -9.237e-7
-1.184, -9.444e-7
-1.183, -9.503e-7
-1.182, -1.173e-6
-1.181, -1.251e-6
-1.180, -1.463e-6
-1.179, -1.519e-6
-1.178, -1.584e-6
-1.177, -1.738e-6
-1.176, -1.864e-6
-1.175, -2.040e-6
-1.174, -2.078e-6
-1.173, -2.132e-6
-1.172, -2.346e-6
-1.171, -2.505e-6
-1.170, -2.625e-6
-1.169, -2.672e-6
-1.168, -2.701e-6
-1.167, -2.970e-6
-1.166, -3.046e-6
-1.165, -3.217e-6
-1.164, -3.272e-6
-1.163, -3.380e-6
-1.162, -3.513e-6
-1.161, -3.662e-6
-1.160, -3.790e-6
-1.159, -3.890e-6
-1.158, -3.998e-6
-1.157, -4.090e-6
-1.156, -4.305e-6
-1.155, -4.415e-6
-1.154, -4.507e-6
-1.153, -4.593e-6
-1.152, -4.706e-6
-1.151, -4.917e-6
-1.150, -5.056e-6
-1.149, -5.071e-6
-1.148, -5.164e-6
-1.147, -5.345e-6
-1.146, -5.489e-6
-1.145, -5.701e-6
-1.144, -5.677e-6
-1.143, -5.798e-6
-1.142, -5.909e-6
-1.141, -6.134e-6
-1.140, -6.209e-6
-1.139, -6.372e-6
-1.138, -6.396e-6
-1.137, -6.579e-6
-1.136, -6.671e-6
-1.135, -6.865e-6
-1.134, -6.972e-6
-1.133, -7.008e-6
-1.132, -7.128e-6
-1.131, -7.378e-6
-1.130, -7.474e-6
-1.129, -7.606e-6
-1.128, -7.648e-6
-1.127, -7.733e-6
-1.126, -8.043e-6
-1.125, -8.042e-6
-1.124, -8.228e-6
-1.123, -8.366e-6
-1.122, -8.389e-6
-1.121, -8.687e-6
-1.120, -8.740e-6
-1.119, -8.819e-6
-1.118, -8.971e-6
-1.117, -9.042e-6
-1.116, -9.264e-6
-1.115, -9.394e-6
-1.114, -9.476e-6
-1.113, -9.618e-6
-1.112, -9.738e-6
-1.111, -9.905e-6
-1.110, -1.007e-5
-1.109, -1.018e-5
-1.108, -1.019e-5
-1.107, -1.042e-5
-1.106, -1.060e-5
-1.105, -1.079e-5
-1.104, -1.087e-5
-1.103, -1.090e-5
-1.102, -1.114e-5
-1.101, -1.133e-5
-1.100, -1.150e-5
-1.099, -1.158e-5
-1.098, -1.165e-5
-1.097, -1.185e-5
-1.096, -1.203e-5
-1.095, -1.223e-5
-1.094, -1.232e-5
-1.093, -1.239e-5
-1.092, -1.266e-5
-1.091, -1.280e-5
-1.090, -1.298e-5
-1.089, -1.305e-5
-1.088, -1.313e-5
-1.087, -1.341e-5
-1.086, -1.358e-5
-1.085, -1.374e-5
-1.084, -1.384e-5
-1.083, -1.393e-5
-1.082, -1.412e-5
-1.081, -1.437e-5
-1.080, -1.452e-5
-1.079, -1.458e-5
-1.078, -1.473e-5
-1.077, -1.493e-5
-1.076, -1.516e-5
-1.075, -1.534e-5
-1.074, -1.533e-5
-1.073, -1.557e-5
-1.072, -1.575e-5
-1.071, -1.599e-5
-1.070, -1.618e-5
-1.069, -1.615e-5
-1.068, -1.637e-5
-1.067, -1.660e-5
-1.066, -1.679e-5
-1.065, -1.703e-5
-1.064, -1.692e-5
-1.063, -1.723e-5
-1.062, -1.740e-5
-1.061, -1.755e-5
-1.060, -1.778e-5
-1.059, -1.782e-5
-1.058, -1.795e-5
-1.057, -1.816e-5
-1.056, -1.831e-5
-1.055, -1.854e-5
-1.054, -1.859e-5
-1.053, -1.876e-5
-1.052, -1.894e-5
-1.051, -1.912e-5
-1.050, -1.932e-5
-1.049, -1.939e-5
-1.048, -1.955e-5
-1.047, -1.966e-5
-1.046, -1.997e-5
-1.045, -2.004e-5
-1.044, -2.009e-5
-1.043, -2.038e-5
-1.042, -2.040e-5
-1.041, -2.069e-5
-1.040, -2.084e-5
-1.039, -2.084e-5
-1.038, -2.113e-5
-1.037, -2.114e-5
-1.036, -2.145e-5
-1.035, -2.161e-5
-1.034, -2.160e-5
-1.033, -2.186e-5
-1.032, -2.193e-5
-1.031, -2.218e-5
-1.030, -2.239e-5
-1.029, -2.235e-5
-1.028, -2.258e-5
-1.027, -2.273e-5
-1.026, -2.290e-5
-1.025, -2.306e-5
-1.024, -2.313e-5
-1.023, -2.339e-5
-1.022, -2.352e-5
-1.021, -2.372e-5
-1.020, -2.381e-5
-1.019, -2.395e-5
-1.018, -2.409e-5
-1.017, -2.425e-5
-1.016, -2.445e-5
-1.015, -2.455e-5
-1.014, -2.476e-5
-1.013, -2.487e-5
-1.012, -2.501e-5
-1.011, -2.527e-5
-1.010, -2.532e-5
-1.009, -2.551e-5
-1.008, -2.567e-5
-1.007, -2.576e-5
-1.006, -2.604e-5
-1.005, -2.614e-5
-1.004, -2.626e-5
-1.003, -2.643e-5
-1.002, -2.662e-5
-1.001, -2.686e-5
-1.000, -2.158e-5
-1.001, -1.895e-5
-1.002, -1.728e-5
-1.003, -1.605e-5
-1.004, -1.497e-5
-1.005, -1.386e-5
-1.006, -1.292e-5
-1.007, -1.198e-5
-1.008, -1.123e-5
-1.009, -1.054e-5
-1.010, -9.725e-6
-1.011, -9.077e-6
-1.012, -8.436e-6
-1.013, -7.835e-6
-1.014, -7.372e-6
-1.015, -6.733e-6
-1.016, -6.237e-6
-1.017, -5.641e-6
-1.018, -5.241e-6
-1.019, -4.896e-6
-1.020, -4.341e-6
-1.021, -3.977e-6
-1.022, -3.437e-6
-1.023, -3.100e-6
-1.024, -2.812e-6
-1.025, -2.341e-6
-1.026, -1.989e-6
-1.027, -1.602e-6
-1.028, -1.317e-6
-1.029, -1.033e-6
-1.030, -6.099e-7
-1.031, -2.735e-7
-1.032, 2.644e-8
-1.033, 2.899e-7
-1.034, 5.049e-7
-1.035, 8.059e-7
-1.036, 1.164e-6
-1.037, 1.420e-6
-1.038, 1.600e-6
-1.039, 1.846e-6
-1.040, 2.082e-6
-1.041, 2.354e-6
-1.042, 2.654e-6
-1.043, 2.785e-6
-1.044, 2.996e-6
-1.045, 3.205e-6
-1.046, 3.431e-6
-1.047, 3.704e-6
-1.048, 3.873e-6
-1.049, 4.019e-6
-1.050, 4.218e-6
-1.051, 4.452e-6
-1.052, 4.693e-6
-1.053, 4.861e-6
-1.054, 4.915e-6
-1.055, 5.148e-6
-1.056, 5.367e-6
-1.057, 5.519e-6
-1.058, 5.729e-6
-1.059, 5.792e-6
-1.060, 5.916e-6
-1.061, 6.250e-6
-1.062, 6.345e-6
-1.063, 6.504e-6
-1.064, 6.593e-6
-1.065, 6.767e-6
-1.066, 7.014e-6
-1.067, 7.106e-6
-1.068, 7.265e-6
-1.069, 7.350e-6
-1.070, 7.473e-6
-1.071, 7.707e-6
-1.072, 7.806e-6
-1.073, 7.954e-6
-1.074, 8.021e-6
-1.075, 8.195e-6
-1.076, 8.347e-6
-1.077, 8.478e-6
-1.078, 8.547e-6
-1.079, 8.668e-6
-1.080, 8.833e-6
-1.081, 8.974e-6
-1.082, 9.092e-6
-1.083, 9.172e-6
-1.084, 9.206e-6
-1.085, 9.397e-6
-1.086, 9.528e-6
-1.087, 9.620e-6
-1.088, 9.737e-6
-1.089, 9.764e-6
-1.090, 9.957e-6
-1.091, 1.008e-5
-1.092, 1.013e-5
-1.093, 1.026e-5
-1.094, 1.031e-5
-1.095, 1.047e-5
-1.096, 1.056e-5
-1.097, 1.065e-5
-1.098, 1.077e-5
-1.099, 1.083e-5
-1.100, 1.098e-5
-1.101, 1.108e-5
-1.102, 1.125e-5
-1.103, 1.126e-5
-1.104, 1.131e-5
-1.105, 1.140e-5
-1.106, 1.159e-5
-1.107, 1.174e-5
-1.108, 1.164e-5
-1.109, 1.179e-5
-1.110, 1.191e-5
-1.111, 1.203e-5
-1.112, 1.216e-5
-1.113, 1.216e-5
-1.114, 1.220e-5
-1.115, 1.244e-5
-1.116, 1.248e-5
-1.117, 1.265e-5
-1.118, 1.260e-5
-1.119, 1.270e-5
-1.120, 1.287e-5
-1.121, 1.296e-5
-1.122, 1.310e-5
-1.123, 1.307e-5
-1.124, 1.312e-5
-1.125, 1.331e-5
-1.126, 1.342e-5
-1.127, 1.357e-5
-1.128, 1.346e-5
-1.129, 1.360e-5
-1.130, 1.374e-5
-1.131, 1.383e-5
-1.132, 1.396e-5
-1.133, 1.396e-5
-1.134, 1.403e-5
-1.135, 1.416e-5
-1.136, 1.426e-5
-1.137, 1.433e-5
-1.138, 1.436e-5
-1.139, 1.444e-5
-1.140, 1.450e-5
-1.141, 1.465e-5
-1.142, 1.480e-5
-1.143, 1.474e-5
-1.144, 1.490e-5
-1.145, 1.493e-5
-1.146, 1.513e-5
-1.147, 1.519e-5
-1.148, 1.510e-5
-1.149, 1.532e-5
-1.150, 1.533e-5
-1.151, 1.550e-5
-1.152, 1.561e-5
-1.153, 1.551e-5
-1.154, 1.570e-5
-1.155, 1.575e-5
-1.156, 1.587e-5
-1.157, 1.601e-5
-1.158, 1.588e-5
-1.159, 1.610e-5
-1.160, 1.611e-5
-1.161, 1.626e-5
-1.162, 1.639e-5
-1.163, 1.623e-5
-1.164, 1.643e-5
-1.165, 1.651e-5
-1.166, 1.666e-5
-1.167, 1.672e-5
-1.168, 1.669e-5
-1.169, 1.681e-5
-1.170, 1.694e-5
-1.171, 1.706e-5
-1.172, 1.707e-5
-1.173, 1.711e-5
-1.174, 1.720e-5
-1.175, 1.735e-5
-1.176, 1.743e-5
-1.177, 1.750e-5
-1.178, 1.754e-5
-1.179, 1.760e-5
-1.180, 1.773e-5
-1.181, 1.785e-5
-1.182, 1.788e-5
-1.183, 1.803e-5
-1.184, 1.801e-5
-1.185, 1.810e-5
-1.186, 1.826e-5
-1.187, 1.829e-5
-1.188, 1.840e-5
-1.189, 1.846e-5
-1.190, 1.856e-5
-1.191, 1.867e-5
-1.192, 1.867e-5
-1.193, 1.877e-5
-1.194, 1.889e-5
-1.195, 1.897e-5
-1.196, 1.908e-5
-1.197, 1.918e-5
-1.198, 1.919e-5
-1.199, 1.926e-5
-1.200, 1.939e-5
-1.201, 1.954e-5
-1.202, 1.958e-5
-1.203, 1.960e-5
-1.204, 1.967e-5
-1.205, 1.986e-5
-1.206, 1.995e-5
-1.207, 2.002e-5
-1.208, 2.010e-5
-1.209, 2.009e-5
-1.210, 2.026e-5
-1.211, 2.044e-5
-1.212, 2.045e-5
-1.213, 2.057e-5
-1.214, 2.054e-5
-1.215, 2.072e-5
-1.216, 2.084e-5
-1.217, 2.086e-5
-1.218, 2.094e-5
-1.219, 2.095e-5
-1.220, 2.116e-5
-1.221, 2.129e-5
-1.222, 2.128e-5
-1.223, 2.145e-5
-1.224, 2.138e-5
-1.225, 2.162e-5
-1.226, 2.173e-5
-1.227, 2.172e-5
-1.228, 2.190e-5
-1.229, 2.190e-5
-1.230, 2.207e-5
-1.231, 2.218e-5
-1.232, 2.218e-5
-1.233, 2.227e-5
-1.234, 2.239e-5
-1.235, 2.251e-5
-1.236, 2.265e-5
-1.237, 2.265e-5
-1.238, 2.277e-5
-1.239, 2.286e-5
-1.240, 2.292e-5
-1.241, 2.313e-5
-1.242, 2.323e-5
-1.243, 2.320e-5
-1.244, 2.333e-5
-1.245, 2.346e-5
-1.246, 2.361e-5
-1.247, 2.372e-5
-1.248, 2.373e-5
-1.249, 2.384e-5
-1.250, 2.402e-5
-1.251, 2.416e-5
-1.252, 2.429e-5
-1.253, 2.428e-5
-1.254, 2.437e-5
-1.255, 2.463e-5
-1.256, 2.473e-5
-1.257, 2.478e-5
-1.258, 2.492e-5
-1.259, 2.501e-5
-1.260, 2.517e-5
-1.261, 2.536e-5
-1.262, 2.544e-5
-1.263, 2.550e-5
-1.264, 2.564e-5
-1.265, 2.583e-5
-1.266, 2.606e-5
-1.267, 2.609e-5
-1.268, 2.617e-5
-1.269, 2.641e-5
-1.270, 2.650e-5
-1.271, 2.673e-5
-1.272, 2.679e-5
-1.273, 2.692e-5
-1.274, 2.714e-5
-1.275, 2.725e-5
-1.276, 2.746e-5
-1.277, 2.765e-5
-1.278, 2.771e-5
-1.279, 2.789e-5
-1.280, 2.814e-5
-1.281, 2.838e-5
-1.282, 2.847e-5
-1.283, 2.865e-5
-1.284, 2.880e-5
-1.285, 2.901e-5
-1.286, 2.929e-5
-1.287, 2.949e-5
-1.288, 2.963e-5
-1.289, 2.976e-5
-1.290, 3.002e-5
-1.291, 3.035e-5
-1.292, 3.052e-5
-1.293, 3.064e-5
-1.294, 3.089e-5
-1.295, 3.116e-5
-1.296, 3.144e-5
-1.297, 3.164e-5
-1.298, 3.183e-5
-1.299, 3.201e-5
-1.300, 3.248e-5
-1.301, 3.275e-5
-1.302, 3.289e-5
-1.303, 3.314e-5
-1.304, 3.338e-5
-1.305, 3.379e-5
-1.306, 3.409e-5
-1.307, 3.425e-5
-1.308, 3.457e-5
-1.309, 3.486e-5
-1.310, 3.533e-5
-1.311, 3.566e-5
-1.312, 3.581e-5
-1.313, 3.615e-5
-1.314, 3.647e-5
-1.315, 3.691e-5
-1.316, 3.727e-5
-1.317, 3.762e-5
-1.318, 3.785e-5
-1.319, 3.830e-5
-1.320, 3.877e-5
-1.321, 3.909e-5
-1.322, 3.950e-5
-1.323, 3.980e-5
-1.324, 4.023e-5
-1.325, 4.080e-5
-1.326, 4.114e-5
-1.327, 4.157e-5
-1.328, 4.199e-5
-1.329, 4.236e-5
-1.330, 4.303e-5
-1.331, 4.340e-5
-1.332, 4.385e-5
-1.333, 4.433e-5
-1.334, 4.473e-5
-1.335, 4.542e-5
-1.336, 4.588e-5
-1.337, 4.636e-5
-1.338, 4.688e-5
-1.339, 4.733e-5
-1.340, 4.803e-5
-1.341, 4.856e-5
-1.342, 4.912e-5
-1.343, 4.959e-5
-1.344, 5.014e-5
-1.345, 5.092e-5
-1.346, 5.146e-5
-1.347, 5.211e-5
-1.348, 5.257e-5
-1.349, 5.324e-5
-1.350, 5.403e-5
-1.351, 5.461e-5
-1.352, 5.530e-5
-1.353, 5.587e-5
-1.354, 5.656e-5
-1.355, 5.741e-5
-1.356, 5.801e-5
-1.357, 5.875e-5
-1.358, 5.940e-5
-1.359, 6.016e-5
-1.360, 6.100e-5
-1.361, 6.167e-5
-1.362, 6.248e-5
-1.363, 6.318e-5
-1.364, 6.398e-5
-1.365, 6.486e-5
-1.366, 6.562e-5
-1.367, 6.651e-5
-1.368, 6.716e-5
-1.369, 6.812e-5
-1.370, 6.900e-5
-1.371, 6.982e-5
-1.372, 7.071e-5
-1.373, 7.152e-5
-1.374, 7.247e-5
-1.375, 7.343e-5
-1.376, 7.429e-5
-1.377, 7.526e-5
-1.378, 7.615e-5
-1.379, 7.710e-5
-1.380, 7.819e-5
-1.381, 7.910e-5
-1.382, 8.010e-5
-1.383, 8.111e-5
-1.384, 8.212e-5
-1.385, 8.316e-5
-1.386, 8.427e-5
-1.387, 8.517e-5
-1.388, 8.627e-5
-1.389, 8.741e-5
-1.390, 8.844e-5
-1.391, 8.961e-5
-1.392, 9.062e-5
-1.393, 9.181e-5
-1.394, 9.288e-5
-1.395, 9.406e-5
-1.396, 9.531e-5
-1.397, 9.645e-5
-1.398, 9.758e-5
-1.399, 9.888e-5
-1.400, 9.377e-5
-1.399, 9.055e-5
-1.398, 8.818e-5
-1.397, 8.595e-5
-1.396, 8.409e-5
-1.395, 8.227e-5
-1.394, 8.054e-5
-1.393, 7.880e-5
-1.392, 7.708e-5
-1.391, 7.558e-5
-1.390, 7.401e-5
-1.389, 7.266e-5
-1.388, 7.111e-5
-1.387, 6.962e-5
-1.386, 6.846e-5
-1.385, 6.708e-5
-1.384, 6.593e-5
-1.383, 6.457e-5
-1.382, 6.325e-5
-1.381, 6.223e-5
-1.380, 6.106e-5
-1.379, 5.993e-5
-1.378, 5.886e-5
-1.377, 5.772e-5
-1.376, 5.673e-5
-1.375, 5.569e-5
-1.374, 5.470e-5
-1.373, 5.372e-5
-1.372, 5.272e-5
-1.371, 5.180e-5
-1.370, 5.097e-5
-1.369, 5.001e-5
-1.368, 4.911e-5
-1.367, 4.816e-5
-1.366, 4.730e-5
-1.365, 4.660e-5
-1.364, 4.576e-5
-1.363, 4.487e-5
-1.362, 4.408e-5
-1.361, 4.330e-5
-1.360, 4.266e-5
-1.359, 4.190e-5
-1.358, 4.110e-5
-1.357, 4.032e-5
-1.356, 3.970e-5
-1.355, 3.893e-5
-1.354, 3.833e-5
-1.353, 3.763e-5
-1.352, 3.691e-5
-1.351, 3.626e-5
-1.350, 3.569e-5
-1.349, 3.507e-5
-1.348, 3.449e-5
-1.347, 3.376e-5
-1.346, 3.315e-5
-1.345, 3.269e-5
-1.344, 3.208e-5
-1.343, 3.153e-5
-1.342, 3.091e-5
-1.341, 3.033e-5
-1.340, 2.993e-5
-1.339, 2.937e-5
-1.338, 2.878e-5
-1.337, 2.822e-5
-1.336, 2.777e-5
-1.335, 2.736e-5
-1.334, 2.681e-5
-1.333, 2.635e-5
-1.332, 2.585e-5
-1.331, 2.538e-5
-1.330, 2.501e-5
-1.329, 2.450e-5
-1.328, 2.410e-5
-1.327, 2.358e-5
-1.326, 2.317e-5
-1.325, 2.286e-5
-1.324, 2.241e-5
-1.323, 2.198e-5
-1.322, 2.156e-5
-1.321, 2.110e-5
-1.320, 2.088e-5
-1.319, 2.047e-5
-1.318, 2.005e-5
-1.317, 1.966e-5
-1.316, 1.928e-5
-1.315, 1.904e-5
-1.314, 1.868e-5
-1.313, 1.827e-5
-1.312, 1.793e-5
-1.311, 1.763e-5
-1.310, 1.732e-5
-1.309, 1.706e-5
-1.308, 1.671e-5
-1.307, 1.633e-5
-1.306, 1.616e-5
-1.305, 1.574e-5
-1.304, 1.556e-5
-1.303, 1.524e-5
-1.302, 1.482e-5
-1.301, 1.469e-5
-1.300, 1.444e-5
-1.299, 1.414e-5
-1.298, 1.387e-5
-1.297, 1.352e-5
-1.296, 1.332e-5
-1.295, 1.312e-5
-1.294, 1.291e-5
-1.293, 1.262e-5
-1.292, 1.233e-5
-1.291, 1.215e-5
-1.290, 1.196e-5
-1.289, 1.175e-5
-1.288, 1.147e-5
-1.287, 1.124e-5
-1.286, 1.109e-5
-1.285, 1.090e-5
-1.284, 1.074e-5
-1.283, 1.039e-5
-1.282, 1.020e-5
-1.281, 1.008e-5
-1.280, 9.881e-6
-1.279, 9.794e-6
-1.278, 9.435e-6
-1.277, 9.235e-6
-1.276, 9.183e-6
-1.275, 8.993e-6
-1.274, 8.838e-6
-1.273, 8.531e-6
-1.272, 8.418e-6
-1.271, 8.328e-6
-1.270, 8.186e-6
-1.269, 8.017e-6
-1.268, 7.724e-6
-1.267, 7.642e-6
-1.266, 7.539e-6
-1.265, 7.382e-6
-1.264, 7.310e-6
-1.263, 6.955e-6
-1.262, 6.924e-6
-1.261, 6.766e-6
-1.260, 6.681e-6
-1.259, 6.557e-6
-1.258, 6.313e-6
-1.257, 6.183e-6
-1.256, 6.096e-6
-1.255, 5.989e-6
-1.254, 5.873e-6
-1.253, 5.681e-6
-1.252, 5.581e-6
-1.251, 5.415e-6
-1.250, 5.345e-6
-1.249, 5.264e-6
-1.248, 5.032e-6
-1.247, 4.986e-6
-1.246, 4.799e-6
-1.245, 4.805e-6
-1.244, 4.652e-6
-1.243, 4.446e-6
-1.242, 4.408e-6
-1.241, 4.175e-6
-1.240, 4.219e-6
-1.239, 4.155e-6
-1.238, 3.803e-6
-1.237, 3.886e-6
-1.236, 3.718e-6
-1.235, 3.648e-6
-1.234, 3.529e-6
-1.233, 3.298e-6
-1.232, 3.315e-6
-1.231, 3.179e-6
-1.230, 3.087e-6
-1.229, 2.935e-6
-1.228, 2.798e-6
-1.227, 2.642e-6
-1.226, 2.671e-6
-1.225, 2.569e-6
-1.224, 2.465e-6
-1.223, 2.303e-6
-1.222, 2.201e-6
-1.221, 2.083e-6
-1.220, 2.113e-6
-1.219, 1.936e-6
-1.218, 1.775e-6
-1.217, 1.697e-6
-1.216, 1.629e-6
-1.215, 1.550e-6
-1.214, 1.435e-6
-1.213, 1.254e-6
-1.212, 1.215e-6
-1.211, 1.084e-6
-1.210, 1.062e-6
-1.209, 8.917e-7
-1.208, 7.930e-7
-1.207, 7.259e-7
-1.206, 6.075e-7
-1.205, 5.444e-7
-1.204, 4.655e-7
-1.203, 3.056e-7
-1.202, 1.803e-7
-1.201, 8.761e-8
-1.200, 7.577e-8
-1.199, -1.048e-7
-1.198, -1.896e-7
-1.197, -3.080e-7
-1.196, -4.254e-7
-1.195, -4.501e-7
-1.194, -6.385e-7
-1.193, -6.819e-7
-1.192, -8.418e-7
-1.191, -8.753e-7
-1.190, -9.582e-7
-1.189, -1.074e-6
-1.188, -1.169e-6
-1.187, -1.399e-6
-1.186, -1.336e-6
-1.185, -1.453e-6
-1.184, -1.617e-6
-1.183, -1.669e-6
-1.182, -1.911e-6
-1.181, -1.893e-6
-1.180, -1.947e-6
-1.179, -2.143e-6
-1.178, -2.257e-6
-1.177, -2.435e-6
-1.176, -2.452e-6
-1.175, -2.455e-6
-1.174, -2.700e-6
-1.173, -2.711e-6
-1.172, -2.936e-6
-1.171, -3.002e-6
-1.170, -2.942e-6
-1.169, -3.213e-6
-1.168, -3.260e-6
-1.167, -3.469e-6
-1.166, -3.512e-6
-1.165, -3.482e-6
-1.164, -3.699e-6
-1.163, -3.834e-6
-1.162, -3.985e-6
-1.161, -3.996e-6
-1.160, -3.986e-6
-1.159, -4.242e-6
-1.158, -4.322e-6
-1.157, -4.494e-6
-1.156, -4.488e-6
-1.155, -4.544e-6
-1.154, -4.754e-6
-1.153, -4.874e-6
-1.152, -4.930e-6
-1.151, -5.068e-6
-1.150, -5.098e-6
-1.149, -5.252e-6
-1.148, -5.351e-6
-1.147, -5.537e-6
-1.146, -5.556e-6
-1.145, -5.656e-6
-1.144, -5.787e-6
-1.143, -5.917e-6
-1.142, -6.077e-6
-1.141, -6.072e-6
-1.140, -6.164e-6
-1.139, -6.295e-6
-1.138, -6.442e-6
-1.137, -6.566e-6
-1.136, -6.585e-6
-1.135, -6.633e-6
-1.134, -6.842e-6
-1.133, -6.965e-6
-1.132, -7.089e-6
-1.131, -7.153e-6
-1.130, -7.197e-6
-1.129, -7.353e-6
-1.128, -7.480e-6
-1.127, -7.607e-6
-1.126, -7.742e-6
-1.125, -7.733e-6
-1.124, -7.819e-6
-1.123, -8.080e-6
-1.122, -8.149e-6
-1.121, -8.226e-6
-1.120, -8.296e-6
-1.119, -8.383e-6
-1.118, -8.597e-6
-1.117, -8.701e-6
-1.116, -8.732e-6
-1.115, -8.856e-6
-1.114, -8.926e-6
-1.113, -9.140e-6
-1.112, -9.237e-6
-1.111, -9.298e-6
-1.110, -9.400e-6
-1.109, -9.541e-6
-1.108, -9.700e-6
-1.107, -9.805e-6
-1.106, -9.861e-6
-1.105, -9.941e-6
-1.104, -1.009e-5
-1.103, -1.032e-5
-1.102, -1.039e-5
-1.101, -1.041e-5
-1.100, -1.057e-5
-1.099, -1.064e-5
-1.098, -1.088e-5
-1.097, -1.094e-5
-1.096, -1.103e-5
-1.095, -1.113e-5
-1.094, -1.130e-5
-1.093, -1.146e-5
-1.092, -1.156e-5
-1.091, -1.169e-5
-1.090, -1.172e-5
-1.089, -1.189e-5
-1.088, -1.205e-5
-1.087, -1.216e-5
-1.086, -1.233e-5
-1.085, -1.232e-5
-1.084, -1.253e-5
-1.083, -1.265e-5
-1.082, -1.282e-5
-1.081, -1.298e-5
-1.080, -1.296e-5
-1.079, -1.315e-5
-1.078, -1.340e-5
-1.077, -1.352e-5
-1.076, -1.362e-5
-1.075, -1.372e-5
-1.074, -1.381e-5
-1.073, -1.409e-5
-1.072, -1.420e-5
-1.071, -1.425e-5
-1.070, -1.440e-5
-1.069, -1.452e-5
-1.068, -1.472e-5
-1.067, -1.494e-5
-1.066, -1.491e-5
-1.065, -1.506e-5
-1.064, -1.530e-5
-1.063, -1.539e-5
-1.062, -1.563e-5
-1.061, -1.564e-5
-1.060, -1.574e-5
-1.059, -1.601e-5
-1.058, -1.615e-5
-1.057, -1.634e-5
-1.056, -1.637e-5
-1.055, -1.648e-5
-1.054, -1.674e-5
-1.053, -1.688e-5
-1.052, -1.703e-5
-1.051, -1.710e-5
-1.050, -1.722e-5
-1.049, -1.745e-5
-1.048, -1.764e-5
-1.047, -1.781e-5
-1.046, -1.782e-5
-1.045, -1.798e-5
-1.044, -1.814e-5
-1.043, -1.836e-5
-1.042, -1.853e-5
-1.041, -1.852e-5
-1.040, -1.875e-5
-1.039, -1.894e-5
-1.038, -1.907e-5
-1.037, -1.930e-5
-1.036, -1.928e-5
-1.035, -1.950e-5
-1.034, -1.962e-5
-1.033, -1.986e-5
-1.032, -1.997e-5
-1.031, -2.004e-5
-1.030, -2.027e-5
-1.029, -2.038e-5
-1.028, -2.059e-5
-1.027, -2.079e-5
-1.026, -2.081e-5
-1.025, -2.106e-5
-1.024, -2.117e-5
-1.023, -2.139e-5
-1.022, -2.158e-5
-1.021, -2.155e-5
-1.020, -2.185e-5
-1.019, -2.191e-5
-1.018, -2.213e-5
-1.017, -2.237e-5
-1.016, -2.237e-5
-1.015, -2.257e-5
-1.014, -2.272e-5
-1.013, -2.294e-5
-1.012, -2.313e-5
-1.011, -2.316e-5
-1.010, -2.340e-5
-1.009, -2.352e-5
-1.008, -2.376e-5
-1.007, -2.388e-5
-1.006, -2.402e-5
-1.005, -2.418e-5
-1.004, -2.429e-5
-1.003, -2.462e-5
-1.002, -2.473e-5
-1.001, -2.482e-5
