Oct. 25, 2024   18:48:33
Cyclic Voltammetry
File: c:/users/guazh/data/banditlqv2round1/2024-10-24-exp598\exp598-2024-10-25t18_18_43-arkoh\exp598_cv_sr_200mvs_efin_-2200mv.bin
Data Source:  Experiment
Instrument Model:  CHI760E
Header: CV ran at 200 mVs
Note: 

Init E (V) = -1
High E (V) = -1
Low E (V) = -2.2
Final E (V) = -1
Init P/N = N
Scan Rate (V/s) = 0.2
Segment = 3
Sample Interval (V) = 0.001
Quiet Time (sec) = 2
Sensitivity (A/V) = 0.01
Comp R (ohm) = 0.9

Results:

Channel 1:
Segment 1:

Segment 2:

Segment 3:

Potential/V, Current/A

-1.000, 8.761e-7
-1.001, 6.788e-7
-1.002, 8.958e-7
-1.003, 7.182e-7
-1.004, 8.169e-7
-1.005, 9.452e-7
-1.006, 8.761e-7
-1.007, 1.152e-6
-1.008, 8.958e-7
-1.009, 8.958e-7
-1.010, 9.846e-7
-1.011, 9.945e-7
-1.012, 1.133e-6
-1.013, 1.034e-6
-1.014, 9.945e-7
-1.015, 1.162e-6
-1.016, 8.662e-7
-1.017, 1.083e-6
-1.018, 1.064e-6
-1.019, 1.172e-6
-1.020, 1.192e-6
-1.021, 9.649e-7
-1.022, 1.182e-6
-1.023, 1.113e-6
-1.024, 1.083e-6
-1.025, 1.310e-6
-1.026, 1.241e-6
-1.027, 1.320e-6
-1.028, 1.241e-6
-1.029, 1.251e-6
-1.030, 1.468e-6
-1.031, 1.073e-6
-1.032, 1.389e-6
-1.033, 1.350e-6
-1.034, 1.448e-6
-1.035, 1.310e-6
-1.036, 1.064e-6
-1.037, 1.547e-6
-1.038, 1.360e-6
-1.039, 1.665e-6
-1.040, 1.478e-6
-1.041, 1.320e-6
-1.042, 1.616e-6
-1.043, 1.389e-6
-1.044, 1.478e-6
-1.045, 1.527e-6
-1.046, 1.409e-6
-1.047, 1.685e-6
-1.048, 1.429e-6
-1.049, 1.567e-6
-1.050, 1.685e-6
-1.051, 1.389e-6
-1.052, 1.626e-6
-1.053, 1.675e-6
-1.054, 1.646e-6
-1.055, 1.596e-6
-1.056, 1.705e-6
-1.057, 1.764e-6
-1.058, 1.646e-6
-1.059, 1.794e-6
-1.060, 1.902e-6
-1.061, 1.537e-6
-1.062, 2.011e-6
-1.063, 1.942e-6
-1.064, 1.823e-6
-1.065, 1.951e-6
-1.066, 1.675e-6
-1.067, 1.991e-6
-1.068, 1.853e-6
-1.069, 1.774e-6
-1.070, 2.001e-6
-1.071, 1.863e-6
-1.072, 2.050e-6
-1.073, 1.981e-6
-1.074, 1.961e-6
-1.075, 1.961e-6
-1.076, 1.961e-6
-1.077, 2.159e-6
-1.078, 1.813e-6
-1.079, 2.129e-6
-1.080, 2.030e-6
-1.081, 1.951e-6
-1.082, 2.109e-6
-1.083, 2.099e-6
-1.084, 2.090e-6
-1.085, 2.060e-6
-1.086, 2.287e-6
-1.087, 2.129e-6
-1.088, 2.099e-6
-1.089, 2.267e-6
-1.090, 2.198e-6
-1.091, 2.247e-6
-1.092, 2.297e-6
-1.093, 2.188e-6
-1.094, 2.149e-6
-1.095, 2.455e-6
-1.096, 2.169e-6
-1.097, 2.484e-6
-1.098, 2.534e-6
-1.099, 2.386e-6
-1.100, 2.356e-6
-1.101, 2.405e-6
-1.102, 2.553e-6
-1.103, 2.603e-6
-1.104, 2.425e-6
-1.105, 2.583e-6
-1.106, 2.563e-6
-1.107, 2.810e-6
-1.108, 2.524e-6
-1.109, 2.642e-6
-1.110, 2.652e-6
-1.111, 2.425e-6
-1.112, 2.780e-6
-1.113, 2.553e-6
-1.114, 2.652e-6
-1.115, 2.830e-6
-1.116, 2.682e-6
-1.117, 2.721e-6
-1.118, 2.721e-6
-1.119, 2.632e-6
-1.120, 2.879e-6
-1.121, 2.662e-6
-1.122, 2.859e-6
-1.123, 2.800e-6
-1.124, 2.918e-6
-1.125, 2.978e-6
-1.126, 2.958e-6
-1.127, 2.997e-6
-1.128, 2.958e-6
-1.129, 3.076e-6
-1.130, 3.185e-6
-1.131, 2.820e-6
-1.132, 3.047e-6
-1.133, 3.352e-6
-1.134, 3.047e-6
-1.135, 3.283e-6
-1.136, 3.027e-6
-1.137, 3.145e-6
-1.138, 3.155e-6
-1.139, 3.185e-6
-1.140, 3.254e-6
-1.141, 3.145e-6
-1.142, 3.372e-6
-1.143, 3.155e-6
-1.144, 3.303e-6
-1.145, 3.323e-6
-1.146, 3.264e-6
-1.147, 3.362e-6
-1.148, 3.333e-6
-1.149, 3.313e-6
-1.150, 3.352e-6
-1.151, 3.412e-6
-1.152, 3.609e-6
-1.153, 3.550e-6
-1.154, 3.599e-6
-1.155, 3.500e-6
-1.156, 3.392e-6
-1.157, 3.589e-6
-1.158, 3.846e-6
-1.159, 3.619e-6
-1.160, 3.846e-6
-1.161, 3.570e-6
-1.162, 3.609e-6
-1.163, 3.500e-6
-1.164, 3.520e-6
-1.165, 3.678e-6
-1.166, 3.658e-6
-1.167, 3.826e-6
-1.168, 3.885e-6
-1.169, 3.846e-6
-1.170, 3.984e-6
-1.171, 3.856e-6
-1.172, 3.905e-6
-1.173, 3.737e-6
-1.174, 4.033e-6
-1.175, 3.895e-6
-1.176, 3.935e-6
-1.177, 4.102e-6
-1.178, 3.974e-6
-1.179, 3.984e-6
-1.180, 4.112e-6
-1.181, 4.023e-6
-1.182, 4.191e-6
-1.183, 4.112e-6
-1.184, 4.171e-6
-1.185, 4.092e-6
-1.186, 4.043e-6
-1.187, 4.270e-6
-1.188, 4.211e-6
-1.189, 4.083e-6
-1.190, 4.369e-6
-1.191, 4.191e-6
-1.192, 4.231e-6
-1.193, 4.300e-6
-1.194, 4.250e-6
-1.195, 4.319e-6
-1.196, 4.201e-6
-1.197, 4.526e-6
-1.198, 4.171e-6
-1.199, 4.467e-6
-1.200, 4.497e-6
-1.201, 4.171e-6
-1.202, 4.507e-6
-1.203, 4.329e-6
-1.204, 4.369e-6
-1.205, 4.625e-6
-1.206, 4.300e-6
-1.207, 4.684e-6
-1.208, 4.428e-6
-1.209, 4.615e-6
-1.210, 4.556e-6
-1.211, 4.438e-6
-1.212, 4.546e-6
-1.213, 4.497e-6
-1.214, 4.517e-6
-1.215, 4.536e-6
-1.216, 4.270e-6
-1.217, 4.645e-6
-1.218, 4.517e-6
-1.219, 4.507e-6
-1.220, 4.645e-6
-1.221, 4.645e-6
-1.222, 4.684e-6
-1.223, 4.694e-6
-1.224, 4.655e-6
-1.225, 4.674e-6
-1.226, 4.655e-6
-1.227, 4.793e-6
-1.228, 4.763e-6
-1.229, 4.704e-6
-1.230, 4.921e-6
-1.231, 4.813e-6
-1.232, 4.803e-6
-1.233, 4.862e-6
-1.234, 4.872e-6
-1.235, 5.059e-6
-1.236, 4.684e-6
-1.237, 5.178e-6
-1.238, 4.773e-6
-1.239, 4.901e-6
-1.240, 5.000e-6
-1.241, 4.704e-6
-1.242, 4.822e-6
-1.243, 4.852e-6
-1.244, 5.020e-6
-1.245, 5.079e-6
-1.246, 5.197e-6
-1.247, 5.247e-6
-1.248, 4.931e-6
-1.249, 5.030e-6
-1.250, 5.118e-6
-1.251, 4.872e-6
-1.252, 5.247e-6
-1.253, 5.010e-6
-1.254, 5.079e-6
-1.255, 5.138e-6
-1.256, 5.118e-6
-1.257, 5.217e-6
-1.258, 5.109e-6
-1.259, 5.089e-6
-1.260, 5.533e-6
-1.261, 5.010e-6
-1.262, 5.316e-6
-1.263, 5.237e-6
-1.264, 5.099e-6
-1.265, 5.286e-6
-1.266, 5.030e-6
-1.267, 5.454e-6
-1.268, 5.326e-6
-1.269, 5.276e-6
-1.270, 5.424e-6
-1.271, 5.405e-6
-1.272, 5.286e-6
-1.273, 5.454e-6
-1.274, 5.434e-6
-1.275, 5.316e-6
-1.276, 5.237e-6
-1.277, 5.444e-6
-1.278, 5.474e-6
-1.279, 5.276e-6
-1.280, 5.434e-6
-1.281, 5.336e-6
-1.282, 5.395e-6
-1.283, 5.434e-6
-1.284, 5.375e-6
-1.285, 5.336e-6
-1.286, 5.493e-6
-1.287, 5.474e-6
-1.288, 5.582e-6
-1.289, 5.493e-6
-1.290, 5.582e-6
-1.291, 5.464e-6
-1.292, 5.592e-6
-1.293, 5.533e-6
-1.294, 5.543e-6
-1.295, 5.730e-6
-1.296, 5.592e-6
-1.297, 5.710e-6
-1.298, 5.553e-6
-1.299, 5.651e-6
-1.300, 5.602e-6
-1.301, 5.533e-6
-1.302, 5.760e-6
-1.303, 5.701e-6
-1.304, 5.701e-6
-1.305, 5.809e-6
-1.306, 5.858e-6
-1.307, 5.849e-6
-1.308, 5.799e-6
-1.309, 5.868e-6
-1.310, 6.026e-6
-1.311, 5.868e-6
-1.312, 5.651e-6
-1.313, 6.036e-6
-1.314, 5.730e-6
-1.315, 5.868e-6
-1.316, 5.720e-6
-1.317, 6.075e-6
-1.318, 5.898e-6
-1.319, 5.918e-6
-1.320, 5.967e-6
-1.321, 5.997e-6
-1.322, 6.253e-6
-1.323, 5.977e-6
-1.324, 5.997e-6
-1.325, 6.066e-6
-1.326, 5.957e-6
-1.327, 6.085e-6
-1.328, 6.056e-6
-1.329, 6.006e-6
-1.330, 6.204e-6
-1.331, 5.888e-6
-1.332, 6.095e-6
-1.333, 6.283e-6
-1.334, 6.066e-6
-1.335, 6.283e-6
-1.336, 6.145e-6
-1.337, 6.243e-6
-1.338, 6.214e-6
-1.339, 6.105e-6
-1.340, 6.332e-6
-1.341, 6.026e-6
-1.342, 6.253e-6
-1.343, 6.233e-6
-1.344, 6.283e-6
-1.345, 6.243e-6
-1.346, 6.125e-6
-1.347, 6.460e-6
-1.348, 6.342e-6
-1.349, 6.322e-6
-1.350, 6.411e-6
-1.351, 6.263e-6
-1.352, 6.421e-6
-1.353, 6.401e-6
-1.354, 6.115e-6
-1.355, 6.510e-6
-1.356, 6.253e-6
-1.357, 6.579e-6
-1.358, 6.302e-6
-1.359, 6.401e-6
-1.360, 6.549e-6
-1.361, 6.371e-6
-1.362, 6.687e-6
-1.363, 6.460e-6
-1.364, 6.421e-6
-1.365, 6.490e-6
-1.366, 6.342e-6
-1.367, 6.766e-6
-1.368, 6.421e-6
-1.369, 6.401e-6
-1.370, 6.559e-6
-1.371, 6.450e-6
-1.372, 6.707e-6
-1.373, 6.667e-6
-1.374, 6.490e-6
-1.375, 6.529e-6
-1.376, 6.529e-6
-1.377, 6.598e-6
-1.378, 6.736e-6
-1.379, 6.490e-6
-1.380, 6.845e-6
-1.381, 6.677e-6
-1.382, 6.618e-6
-1.383, 6.786e-6
-1.384, 6.648e-6
-1.385, 6.904e-6
-1.386, 6.736e-6
-1.387, 6.736e-6
-1.388, 6.934e-6
-1.389, 6.677e-6
-1.390, 6.934e-6
-1.391, 6.756e-6
-1.392, 6.825e-6
-1.393, 6.914e-6
-1.394, 6.638e-6
-1.395, 6.973e-6
-1.396, 6.697e-6
-1.397, 6.914e-6
-1.398, 6.697e-6
-1.399, 6.954e-6
-1.400, 7.032e-6
-1.401, 6.756e-6
-1.402, 6.963e-6
-1.403, 7.082e-6
-1.404, 6.904e-6
-1.405, 7.042e-6
-1.406, 6.914e-6
-1.407, 7.082e-6
-1.408, 7.062e-6
-1.409, 6.973e-6
-1.410, 6.934e-6
-1.411, 6.884e-6
-1.412, 7.111e-6
-1.413, 7.180e-6
-1.414, 7.032e-6
-1.415, 7.121e-6
-1.416, 6.904e-6
-1.417, 7.102e-6
-1.418, 7.062e-6
-1.419, 6.983e-6
-1.420, 7.368e-6
-1.421, 7.092e-6
-1.422, 7.190e-6
-1.423, 7.111e-6
-1.424, 7.042e-6
-1.425, 7.328e-6
-1.426, 7.161e-6
-1.427, 7.378e-6
-1.428, 7.269e-6
-1.429, 7.111e-6
-1.430, 7.319e-6
-1.431, 7.220e-6
-1.432, 7.210e-6
-1.433, 7.299e-6
-1.434, 7.526e-6
-1.435, 7.417e-6
-1.436, 7.417e-6
-1.437, 7.565e-6
-1.438, 7.368e-6
-1.439, 7.437e-6
-1.440, 7.555e-6
-1.441, 7.289e-6
-1.442, 7.368e-6
-1.443, 7.713e-6
-1.444, 7.289e-6
-1.445, 7.467e-6
-1.446, 7.555e-6
-1.447, 7.654e-6
-1.448, 7.634e-6
-1.449, 7.378e-6
-1.450, 7.999e-6
-1.451, 7.427e-6
-1.452, 7.644e-6
-1.453, 7.684e-6
-1.454, 7.703e-6
-1.455, 7.615e-6
-1.456, 7.624e-6
-1.457, 7.733e-6
-1.458, 7.615e-6
-1.459, 7.615e-6
-1.460, 7.802e-6
-1.461, 7.693e-6
-1.462, 7.812e-6
-1.463, 7.930e-6
-1.464, 7.772e-6
-1.465, 7.693e-6
-1.466, 7.605e-6
-1.467, 7.812e-6
-1.468, 7.822e-6
-1.469, 7.812e-6
-1.470, 7.891e-6
-1.471, 7.595e-6
-1.472, 7.871e-6
-1.473, 7.792e-6
-1.474, 7.753e-6
-1.475, 7.999e-6
-1.476, 7.743e-6
-1.477, 7.989e-6
-1.478, 7.920e-6
-1.479, 7.822e-6
-1.480, 7.989e-6
-1.481, 7.812e-6
-1.482, 8.078e-6
-1.483, 8.068e-6
-1.484, 7.940e-6
-1.485, 8.147e-6
-1.486, 8.049e-6
-1.487, 8.167e-6
-1.488, 8.187e-6
-1.489, 8.029e-6
-1.490, 8.433e-6
-1.491, 7.980e-6
-1.492, 8.177e-6
-1.493, 8.295e-6
-1.494, 8.157e-6
-1.495, 8.206e-6
-1.496, 8.246e-6
-1.497, 8.226e-6
-1.498, 8.236e-6
-1.499, 8.256e-6
-1.500, 8.532e-6
-1.501, 8.404e-6
-1.502, 8.473e-6
-1.503, 8.463e-6
-1.504, 8.236e-6
-1.505, 8.463e-6
-1.506, 8.236e-6
-1.507, 8.512e-6
-1.508, 8.493e-6
-1.509, 8.433e-6
-1.510, 8.581e-6
-1.511, 8.562e-6
-1.512, 8.532e-6
-1.513, 8.680e-6
-1.514, 8.581e-6
-1.515, 8.621e-6
-1.516, 8.700e-6
-1.517, 8.818e-6
-1.518, 8.779e-6
-1.519, 8.690e-6
-1.520, 8.907e-6
-1.521, 8.779e-6
-1.522, 8.631e-6
-1.523, 8.956e-6
-1.524, 8.729e-6
-1.525, 8.868e-6
-1.526, 8.739e-6
-1.527, 8.976e-6
-1.528, 8.927e-6
-1.529, 8.887e-6
-1.530, 9.173e-6
-1.531, 8.907e-6
-1.532, 9.025e-6
-1.533, 9.114e-6
-1.534, 8.838e-6
-1.535, 9.114e-6
-1.536, 9.016e-6
-1.537, 9.223e-6
-1.538, 9.292e-6
-1.539, 9.213e-6
-1.540, 9.390e-6
-1.541, 9.183e-6
-1.542, 9.223e-6
-1.543, 9.469e-6
-1.544, 9.262e-6
-1.545, 9.489e-6
-1.546, 9.361e-6
-1.547, 9.361e-6
-1.548, 9.390e-6
-1.549, 9.479e-6
-1.550, 9.538e-6
-1.551, 9.529e-6
-1.552, 9.469e-6
-1.553, 9.647e-6
-1.554, 9.538e-6
-1.555, 9.578e-6
-1.556, 9.499e-6
-1.557, 9.736e-6
-1.558, 9.568e-6
-1.559, 9.598e-6
-1.560, 9.795e-6
-1.561, 9.538e-6
-1.562, 9.992e-6
-1.563, 9.913e-6
-1.564, 9.785e-6
-1.565, 9.825e-6
-1.566, 9.903e-6
-1.567, 1.011e-5
-1.568, 9.874e-6
-1.569, 9.854e-6
-1.570, 1.006e-5
-1.571, 9.884e-6
-1.572, 1.007e-5
-1.573, 1.012e-5
-1.574, 9.953e-6
-1.575, 1.025e-5
-1.576, 1.017e-5
-1.577, 1.032e-5
-1.578, 1.037e-5
-1.579, 9.973e-6
-1.580, 1.029e-5
-1.581, 1.011e-5
-1.582, 1.030e-5
-1.583, 1.049e-5
-1.584, 1.037e-5
-1.585, 1.043e-5
-1.586, 1.048e-5
-1.587, 1.048e-5
-1.588, 1.067e-5
-1.589, 1.035e-5
-1.590, 1.070e-5
-1.591, 1.064e-5
-1.592, 1.071e-5
-1.593, 1.071e-5
-1.594, 1.061e-5
-1.595, 1.070e-5
-1.596, 1.082e-5
-1.597, 1.099e-5
-1.598, 1.096e-5
-1.599, 1.086e-5
-1.600, 1.102e-5
-1.601, 1.094e-5
-1.602, 1.111e-5
-1.603, 1.116e-5
-1.604, 1.107e-5
-1.605, 1.121e-5
-1.606, 1.118e-5
-1.607, 1.122e-5
-1.608, 1.129e-5
-1.609, 1.111e-5
-1.610, 1.168e-5
-1.611, 1.109e-5
-1.612, 1.112e-5
-1.613, 1.159e-5
-1.614, 1.126e-5
-1.615, 1.167e-5
-1.616, 1.133e-5
-1.617, 1.162e-5
-1.618, 1.171e-5
-1.619, 1.159e-5
-1.620, 1.189e-5
-1.621, 1.154e-5
-1.622, 1.177e-5
-1.623, 1.204e-5
-1.624, 1.167e-5
-1.625, 1.202e-5
-1.626, 1.195e-5
-1.627, 1.218e-5
-1.628, 1.197e-5
-1.629, 1.200e-5
-1.630, 1.212e-5
-1.631, 1.241e-5
-1.632, 1.221e-5
-1.633, 1.242e-5
-1.634, 1.237e-5
-1.635, 1.239e-5
-1.636, 1.231e-5
-1.637, 1.263e-5
-1.638, 1.249e-5
-1.639, 1.264e-5
-1.640, 1.284e-5
-1.641, 1.269e-5
-1.642, 1.288e-5
-1.643, 1.321e-5
-1.644, 1.284e-5
-1.645, 1.327e-5
-1.646, 1.299e-5
-1.647, 1.321e-5
-1.648, 1.297e-5
-1.649, 1.300e-5
-1.650, 1.344e-5
-1.651, 1.324e-5
-1.652, 1.359e-5
-1.653, 1.345e-5
-1.654, 1.339e-5
-1.655, 1.352e-5
-1.656, 1.363e-5
-1.657, 1.384e-5
-1.658, 1.375e-5
-1.659, 1.358e-5
-1.660, 1.390e-5
-1.661, 1.378e-5
-1.662, 1.379e-5
-1.663, 1.424e-5
-1.664, 1.382e-5
-1.665, 1.410e-5
-1.666, 1.417e-5
-1.667, 1.436e-5
-1.668, 1.444e-5
-1.669, 1.435e-5
-1.670, 1.462e-5
-1.671, 1.454e-5
-1.672, 1.473e-5
-1.673, 1.463e-5
-1.674, 1.465e-5
-1.675, 1.478e-5
-1.676, 1.493e-5
-1.677, 1.505e-5
-1.678, 1.514e-5
-1.679, 1.500e-5
-1.680, 1.540e-5
-1.681, 1.524e-5
-1.682, 1.524e-5
-1.683, 1.571e-5
-1.684, 1.548e-5
-1.685, 1.566e-5
-1.686, 1.591e-5
-1.687, 1.595e-5
-1.688, 1.605e-5
-1.689, 1.581e-5
-1.690, 1.621e-5
-1.691, 1.610e-5
-1.692, 1.648e-5
-1.693, 1.635e-5
-1.694, 1.648e-5
-1.695, 1.650e-5
-1.696, 1.669e-5
-1.697, 1.696e-5
-1.698, 1.687e-5
-1.699, 1.691e-5
-1.700, 1.740e-5
-1.701, 1.704e-5
-1.702, 1.743e-5
-1.703, 1.761e-5
-1.704, 1.745e-5
-1.705, 1.770e-5
-1.706, 1.788e-5
-1.707, 1.779e-5
-1.708, 1.783e-5
-1.709, 1.795e-5
-1.710, 1.856e-5
-1.711, 1.824e-5
-1.712, 1.860e-5
-1.713, 1.866e-5
-1.714, 1.872e-5
-1.715, 1.888e-5
-1.716, 1.899e-5
-1.717, 1.938e-5
-1.718, 1.933e-5
-1.719, 1.935e-5
-1.720, 1.972e-5
-1.721, 1.973e-5
-1.722, 2.005e-5
-1.723, 2.038e-5
-1.724, 2.027e-5
-1.725, 2.043e-5
-1.726, 2.055e-5
-1.727, 2.096e-5
-1.728, 2.081e-5
-1.729, 2.114e-5
-1.730, 2.134e-5
-1.731, 2.127e-5
-1.732, 2.156e-5
-1.733, 2.200e-5
-1.734, 2.183e-5
-1.735, 2.224e-5
-1.736, 2.230e-5
-1.737, 2.287e-5
-1.738, 2.280e-5
-1.739, 2.300e-5
-1.740, 2.327e-5
-1.741, 2.350e-5
-1.742, 2.367e-5
-1.743, 2.392e-5
-1.744, 2.402e-5
-1.745, 2.443e-5
-1.746, 2.444e-5
-1.747, 2.509e-5
-1.748, 2.523e-5
-1.749, 2.516e-5
-1.750, 2.573e-5
-1.751, 2.571e-5
-1.752, 2.602e-5
-1.753, 2.653e-5
-1.754, 2.656e-5
-1.755, 2.682e-5
-1.756, 2.711e-5
-1.757, 2.753e-5
-1.758, 2.788e-5
-1.759, 2.800e-5
-1.760, 2.854e-5
-1.761, 2.874e-5
-1.762, 2.895e-5
-1.763, 2.949e-5
-1.764, 2.966e-5
-1.765, 3.010e-5
-1.766, 3.036e-5
-1.767, 3.104e-5
-1.768, 3.117e-5
-1.769, 3.137e-5
-1.770, 3.214e-5
-1.771, 3.201e-5
-1.772, 3.258e-5
-1.773, 3.307e-5
-1.774, 3.339e-5
-1.775, 3.368e-5
-1.776, 3.427e-5
-1.777, 3.447e-5
-1.778, 3.512e-5
-1.779, 3.548e-5
-1.780, 3.612e-5
-1.781, 3.640e-5
-1.782, 3.686e-5
-1.783, 3.742e-5
-1.784, 3.785e-5
-1.785, 3.831e-5
-1.786, 3.894e-5
-1.787, 3.939e-5
-1.788, 3.966e-5
-1.789, 4.037e-5
-1.790, 4.110e-5
-1.791, 4.154e-5
-1.792, 4.193e-5
-1.793, 4.277e-5
-1.794, 4.332e-5
-1.795, 4.387e-5
-1.796, 4.454e-5
-1.797, 4.504e-5
-1.798, 4.576e-5
-1.799, 4.614e-5
-1.800, 4.713e-5
-1.801, 4.758e-5
-1.802, 4.823e-5
-1.803, 4.913e-5
-1.804, 4.953e-5
-1.805, 5.047e-5
-1.806, 5.113e-5
-1.807, 5.209e-5
-1.808, 5.276e-5
-1.809, 5.323e-5
-1.810, 5.437e-5
-1.811, 5.478e-5
-1.812, 5.576e-5
-1.813, 5.665e-5
-1.814, 5.736e-5
-1.815, 5.823e-5
-1.816, 5.905e-5
-1.817, 6.011e-5
-1.818, 6.086e-5
-1.819, 6.173e-5
-1.820, 6.304e-5
-1.821, 6.366e-5
-1.822, 6.482e-5
-1.823, 6.579e-5
-1.824, 6.671e-5
-1.825, 6.773e-5
-1.826, 6.849e-5
-1.827, 6.977e-5
-1.828, 7.081e-5
-1.829, 7.179e-5
-1.830, 7.316e-5
-1.831, 7.432e-5
-1.832, 7.531e-5
-1.833, 7.668e-5
-1.834, 7.786e-5
-1.835, 7.913e-5
-1.836, 8.012e-5
-1.837, 8.154e-5
-1.838, 8.278e-5
-1.839, 8.379e-5
-1.840, 8.545e-5
-1.841, 8.676e-5
-1.842, 8.804e-5
-1.843, 8.975e-5
-1.844, 9.084e-5
-1.845, 9.230e-5
-1.846, 9.381e-5
-1.847, 9.547e-5
-1.848, 9.687e-5
-1.849, 9.840e-5
-1.850, 1.002e-4
-1.851, 1.016e-4
-1.852, 1.031e-4
-1.853, 1.051e-4
-1.854, 1.066e-4
-1.855, 1.082e-4
-1.856, 1.099e-4
-1.857, 1.119e-4
-1.858, 1.136e-4
-1.859, 1.152e-4
-1.860, 1.173e-4
-1.861, 1.191e-4
-1.862, 1.207e-4
-1.863, 1.230e-4
-1.864, 1.248e-4
-1.865, 1.269e-4
-1.866, 1.288e-4
-1.867, 1.310e-4
-1.868, 1.332e-4
-1.869, 1.350e-4
-1.870, 1.376e-4
-1.871, 1.397e-4
-1.872, 1.417e-4
-1.873, 1.441e-4
-1.874, 1.463e-4
-1.875, 1.489e-4
-1.876, 1.510e-4
-1.877, 1.538e-4
-1.878, 1.562e-4
-1.879, 1.584e-4
-1.880, 1.614e-4
-1.881, 1.637e-4
-1.882, 1.662e-4
-1.883, 1.691e-4
-1.884, 1.719e-4
-1.885, 1.744e-4
-1.886, 1.772e-4
-1.887, 1.803e-4
-1.888, 1.829e-4
-1.889, 1.856e-4
-1.890, 1.890e-4
-1.891, 1.919e-4
-1.892, 1.947e-4
-1.893, 1.980e-4
-1.894, 2.011e-4
-1.895, 2.044e-4
-1.896, 2.075e-4
-1.897, 2.111e-4
-1.898, 2.146e-4
-1.899, 2.174e-4
-1.900, 2.213e-4
-1.901, 2.246e-4
-1.902, 2.277e-4
-1.903, 2.316e-4
-1.904, 2.352e-4
-1.905, 2.387e-4
-1.906, 2.426e-4
-1.907, 2.466e-4
-1.908, 2.505e-4
-1.909, 2.538e-4
-1.910, 2.586e-4
-1.911, 2.624e-4
-1.912, 2.664e-4
-1.913, 2.707e-4
-1.914, 2.750e-4
-1.915, 2.792e-4
-1.916, 2.835e-4
-1.917, 2.882e-4
-1.918, 2.926e-4
-1.919, 2.967e-4
-1.920, 3.020e-4
-1.921, 3.066e-4
-1.922, 3.111e-4
-1.923, 3.161e-4
-1.924, 3.212e-4
-1.925, 3.259e-4
-1.926, 3.308e-4
-1.927, 3.365e-4
-1.928, 3.416e-4
-1.929, 3.464e-4
-1.930, 3.524e-4
-1.931, 3.577e-4
-1.932, 3.629e-4
-1.933, 3.689e-4
-1.934, 3.746e-4
-1.935, 3.803e-4
-1.936, 3.858e-4
-1.937, 3.924e-4
-1.938, 3.980e-4
-1.939, 4.037e-4
-1.940, 4.104e-4
-1.941, 4.165e-4
-1.942, 4.223e-4
-1.943, 4.290e-4
-1.944, 4.355e-4
-1.945, 4.418e-4
-1.946, 4.485e-4
-1.947, 4.560e-4
-1.948, 4.629e-4
-1.949, 4.690e-4
-1.950, 4.769e-4
-1.951, 4.840e-4
-1.952, 4.908e-4
-1.953, 4.984e-4
-1.954, 5.060e-4
-1.955, 5.135e-4
-1.956, 5.209e-4
-1.957, 5.293e-4
-1.958, 5.370e-4
-1.959, 5.446e-4
-1.960, 5.536e-4
-1.961, 5.617e-4
-1.962, 5.696e-4
-1.963, 5.783e-4
-1.964, 5.871e-4
-1.965, 5.952e-4
-1.966, 6.036e-4
-1.967, 6.133e-4
-1.968, 6.219e-4
-1.969, 6.303e-4
-1.970, 6.404e-4
-1.971, 6.499e-4
-1.972, 6.587e-4
-1.973, 6.688e-4
-1.974, 6.791e-4
-1.975, 6.886e-4
-1.976, 6.981e-4
-1.977, 7.090e-4
-1.978, 7.194e-4
-1.979, 7.288e-4
-1.980, 7.401e-4
-1.981, 7.508e-4
-1.982, 7.609e-4
-1.983, 7.724e-4
-1.984, 7.840e-4
-1.985, 7.946e-4
-1.986, 8.058e-4
-1.987, 8.183e-4
-1.988, 8.300e-4
-1.989, 8.410e-4
-1.990, 8.540e-4
-1.991, 8.660e-4
-1.992, 8.777e-4
-1.993, 8.903e-4
-1.994, 9.033e-4
-1.995, 9.154e-4
-1.996, 9.280e-4
-1.997, 9.420e-4
-1.998, 9.549e-4
-1.999, 9.674e-4
-2.000, 9.820e-4
-2.001, 9.956e-4
-2.002, 1.009e-3
-2.003, 1.023e-3
-2.004, 1.037e-3
-2.005, 1.050e-3
-2.006, 1.065e-3
-2.007, 1.080e-3
-2.008, 1.095e-3
-2.009, 1.109e-3
-2.010, 1.125e-3
-2.011, 1.141e-3
-2.012, 1.155e-3
-2.013, 1.171e-3
-2.014, 1.188e-3
-2.015, 1.202e-3
-2.016, 1.217e-3
-2.017, 1.234e-3
-2.018, 1.250e-3
-2.019, 1.266e-3
-2.020, 1.284e-3
-2.021, 1.302e-3
-2.022, 1.317e-3
-2.023, 1.335e-3
-2.024, 1.354e-3
-2.025, 1.370e-3
-2.026, 1.388e-3
-2.027, 1.407e-3
-2.028, 1.425e-3
-2.029, 1.442e-3
-2.030, 1.462e-3
-2.031, 1.481e-3
-2.032, 1.499e-3
-2.033, 1.519e-3
-2.034, 1.539e-3
-2.035, 1.558e-3
-2.036, 1.578e-3
-2.037, 1.599e-3
-2.038, 1.619e-3
-2.039, 1.638e-3
-2.040, 1.661e-3
-2.041, 1.682e-3
-2.042, 1.701e-3
-2.043, 1.723e-3
-2.044, 1.745e-3
-2.045, 1.766e-3
-2.046, 1.787e-3
-2.047, 1.810e-3
-2.048, 1.832e-3
-2.049, 1.853e-3
-2.050, 1.878e-3
-2.051, 1.901e-3
-2.052, 1.922e-3
-2.053, 1.946e-3
-2.054, 1.970e-3
-2.055, 1.993e-3
-2.056, 2.016e-3
-2.057, 2.041e-3
-2.058, 2.065e-3
-2.059, 2.088e-3
-2.060, 2.114e-3
-2.061, 2.139e-3
-2.062, 2.163e-3
-2.063, 2.189e-3
-2.064, 2.215e-3
-2.065, 2.239e-3
-2.066, 2.265e-3
-2.067, 2.293e-3
-2.068, 2.318e-3
-2.069, 2.343e-3
-2.070, 2.372e-3
-2.071, 2.399e-3
-2.072, 2.425e-3
-2.073, 2.453e-3
-2.074, 2.482e-3
-2.075, 2.508e-3
-2.076, 2.536e-3
-2.077, 2.566e-3
-2.078, 2.593e-3
-2.079, 2.621e-3
-2.080, 2.651e-3
-2.081, 2.681e-3
-2.082, 2.708e-3
-2.083, 2.738e-3
-2.084, 2.769e-3
-2.085, 2.796e-3
-2.086, 2.826e-3
-2.087, 2.858e-3
-2.088, 2.888e-3
-2.089, 2.917e-3
-2.090, 2.950e-3
-2.091, 2.982e-3
-2.092, 3.011e-3
-2.093, 3.043e-3
-2.094, 3.077e-3
-2.095, 3.108e-3
-2.096, 3.139e-3
-2.097, 3.174e-3
-2.098, 3.207e-3
-2.099, 3.238e-3
-2.100, 3.274e-3
-2.101, 3.307e-3
-2.102, 3.340e-3
-2.103, 3.374e-3
-2.104, 3.409e-3
-2.105, 3.441e-3
-2.106, 3.475e-3
-2.107, 3.512e-3
-2.108, 3.546e-3
-2.109, 3.579e-3
-2.110, 3.616e-3
-2.111, 3.653e-3
-2.112, 3.686e-3
-2.113, 3.723e-3
-2.114, 3.761e-3
-2.115, 3.795e-3
-2.116, 3.831e-3
-2.117, 3.870e-3
-2.118, 3.907e-3
-2.119, 3.942e-3
-2.120, 3.982e-3
-2.121, 4.023e-3
-2.122, 4.056e-3
-2.123, 4.096e-3
-2.124, 4.136e-3
-2.125, 4.172e-3
-2.126, 4.210e-3
-2.127, 4.252e-3
-2.128, 4.290e-3
-2.129, 4.327e-3
-2.130, 4.368e-3
-2.131, 4.408e-3
-2.132, 4.445e-3
-2.133, 4.486e-3
-2.134, 4.529e-3
-2.135, 4.567e-3
-2.136, 4.607e-3
-2.137, 4.651e-3
-2.138, 4.691e-3
-2.139, 4.730e-3
-2.140, 4.775e-3
-2.141, 4.819e-3
-2.142, 4.858e-3
-2.143, 4.902e-3
-2.144, 4.947e-3
-2.145, 4.986e-3
-2.146, 5.029e-3
-2.147, 5.074e-3
-2.148, 5.117e-3
-2.149, 5.158e-3
-2.150, 5.204e-3
-2.151, 5.249e-3
-2.152, 5.290e-3
-2.153, 5.336e-3
-2.154, 5.383e-3
-2.155, 5.425e-3
-2.156, 5.470e-3
-2.157, 5.517e-3
-2.158, 5.562e-3
-2.159, 5.606e-3
-2.160, 5.654e-3
-2.161, 5.701e-3
-2.162, 5.743e-3
-2.163, 5.792e-3
-2.164, 5.840e-3
-2.165, 5.884e-3
-2.166, 5.930e-3
-2.167, 5.979e-3
-2.168, 6.025e-3
-2.169, 6.070e-3
-2.170, 6.121e-3
-2.171, 6.169e-3
-2.172, 6.213e-3
-2.173, 6.262e-3
-2.174, 6.313e-3
-2.175, 6.359e-3
-2.176, 6.407e-3
-2.177, 6.459e-3
-2.178, 6.506e-3
-2.179, 6.552e-3
-2.180, 6.608e-3
-2.181, 6.663e-3
-2.182, 6.708e-3
-2.183, 6.760e-3
-2.184, 6.812e-3
-2.185, 6.871e-3
-2.186, 6.920e-3
-2.187, 6.968e-3
-2.188, 7.016e-3
-2.189, 7.067e-3
-2.190, 7.119e-3
-2.191, 7.171e-3
-2.192, 7.218e-3
-2.193, 7.270e-3
-2.194, 7.325e-3
-2.195, 7.373e-3
-2.196, 7.424e-3
-2.197, 7.478e-3
-2.198, 7.527e-3
-2.199, 7.576e-3
-2.200, 7.590e-3
-2.199, 7.550e-3
-2.198, 7.508e-3
-2.197, 7.475e-3
-2.196, 7.434e-3
-2.195, 7.390e-3
-2.194, 7.348e-3
-2.193, 7.311e-3
-2.192, 7.267e-3
-2.191, 7.222e-3
-2.190, 7.186e-3
-2.189, 7.154e-3
-2.188, 7.104e-3
-2.187, 7.063e-3
-2.186, 7.022e-3
-2.185, 6.977e-3
-2.184, 6.933e-3
-2.183, 6.895e-3
-2.182, 6.852e-3
-2.181, 6.807e-3
-2.180, 6.767e-3
-2.179, 6.729e-3
-2.178, 6.682e-3
-2.177, 6.641e-3
-2.176, 6.622e-3
-2.175, 6.583e-3
-2.174, 6.525e-3
-2.173, 6.491e-3
-2.172, 6.451e-3
-2.171, 6.409e-3
-2.170, 6.372e-3
-2.169, 6.331e-3
-2.168, 6.289e-3
-2.167, 6.251e-3
-2.166, 6.216e-3
-2.165, 6.175e-3
-2.164, 6.137e-3
-2.163, 6.101e-3
-2.162, 6.064e-3
-2.161, 6.024e-3
-2.160, 5.988e-3
-2.159, 5.949e-3
-2.158, 5.908e-3
-2.157, 5.871e-3
-2.156, 5.834e-3
-2.155, 5.792e-3
-2.154, 5.755e-3
-2.153, 5.720e-3
-2.152, 5.680e-3
-2.151, 5.638e-3
-2.150, 5.601e-3
-2.149, 5.563e-3
-2.148, 5.526e-3
-2.147, 5.492e-3
-2.146, 5.456e-3
-2.145, 5.416e-3
-2.144, 5.378e-3
-2.143, 5.343e-3
-2.142, 5.306e-3
-2.141, 5.268e-3
-2.140, 5.233e-3
-2.139, 5.196e-3
-2.138, 5.156e-3
-2.137, 5.120e-3
-2.136, 5.086e-3
-2.135, 5.047e-3
-2.134, 5.010e-3
-2.133, 4.975e-3
-2.132, 4.938e-3
-2.131, 4.899e-3
-2.130, 4.868e-3
-2.129, 4.833e-3
-2.128, 4.794e-3
-2.127, 4.760e-3
-2.126, 4.726e-3
-2.125, 4.688e-3
-2.124, 4.652e-3
-2.123, 4.620e-3
-2.122, 4.583e-3
-2.121, 4.547e-3
-2.120, 4.516e-3
-2.119, 4.481e-3
-2.118, 4.445e-3
-2.117, 4.412e-3
-2.116, 4.382e-3
-2.115, 4.347e-3
-2.114, 4.313e-3
-2.113, 4.281e-3
-2.112, 4.246e-3
-2.111, 4.210e-3
-2.110, 4.179e-3
-2.109, 4.146e-3
-2.108, 4.111e-3
-2.107, 4.081e-3
-2.106, 4.048e-3
-2.105, 4.014e-3
-2.104, 3.981e-3
-2.103, 3.950e-3
-2.102, 3.916e-3
-2.101, 3.882e-3
-2.100, 3.852e-3
-2.099, 3.820e-3
-2.098, 3.785e-3
-2.097, 3.755e-3
-2.096, 3.725e-3
-2.095, 3.693e-3
-2.094, 3.661e-3
-2.093, 3.631e-3
-2.092, 3.599e-3
-2.091, 3.567e-3
-2.090, 3.539e-3
-2.089, 3.509e-3
-2.088, 3.476e-3
-2.087, 3.448e-3
-2.086, 3.419e-3
-2.085, 3.388e-3
-2.084, 3.358e-3
-2.083, 3.331e-3
-2.082, 3.302e-3
-2.081, 3.272e-3
-2.080, 3.246e-3
-2.079, 3.216e-3
-2.078, 3.185e-3
-2.077, 3.157e-3
-2.076, 3.130e-3
-2.075, 3.100e-3
-2.074, 3.072e-3
-2.073, 3.046e-3
-2.072, 3.018e-3
-2.071, 2.989e-3
-2.070, 2.965e-3
-2.069, 2.939e-3
-2.068, 2.909e-3
-2.067, 2.884e-3
-2.066, 2.859e-3
-2.065, 2.834e-3
-2.064, 2.810e-3
-2.063, 2.782e-3
-2.062, 2.755e-3
-2.061, 2.729e-3
-2.060, 2.705e-3
-2.059, 2.680e-3
-2.058, 2.654e-3
-2.057, 2.630e-3
-2.056, 2.607e-3
-2.055, 2.581e-3
-2.054, 2.557e-3
-2.053, 2.535e-3
-2.052, 2.509e-3
-2.051, 2.484e-3
-2.050, 2.463e-3
-2.049, 2.440e-3
-2.048, 2.414e-3
-2.047, 2.391e-3
-2.046, 2.369e-3
-2.045, 2.344e-3
-2.044, 2.321e-3
-2.043, 2.302e-3
-2.042, 2.278e-3
-2.041, 2.255e-3
-2.040, 2.234e-3
-2.039, 2.213e-3
-2.038, 2.190e-3
-2.037, 2.169e-3
-2.036, 2.149e-3
-2.035, 2.127e-3
-2.034, 2.105e-3
-2.033, 2.086e-3
-2.032, 2.065e-3
-2.031, 2.044e-3
-2.030, 2.025e-3
-2.029, 2.005e-3
-2.028, 1.984e-3
-2.027, 1.967e-3
-2.026, 1.947e-3
-2.025, 1.927e-3
-2.024, 1.909e-3
-2.023, 1.891e-3
-2.022, 1.871e-3
-2.021, 1.851e-3
-2.020, 1.834e-3
-2.019, 1.817e-3
-2.018, 1.797e-3
-2.017, 1.780e-3
-2.016, 1.764e-3
-2.015, 1.743e-3
-2.014, 1.725e-3
-2.013, 1.708e-3
-2.012, 1.690e-3
-2.011, 1.671e-3
-2.010, 1.655e-3
-2.009, 1.638e-3
-2.008, 1.619e-3
-2.007, 1.603e-3
-2.006, 1.587e-3
-2.005, 1.569e-3
-2.004, 1.553e-3
-2.003, 1.538e-3
-2.002, 1.521e-3
-2.001, 1.504e-3
-2.000, 1.490e-3
-1.999, 1.474e-3
-1.998, 1.457e-3
-1.997, 1.442e-3
-1.996, 1.427e-3
-1.995, 1.411e-3
-1.994, 1.396e-3
-1.993, 1.382e-3
-1.992, 1.367e-3
-1.991, 1.351e-3
-1.990, 1.338e-3
-1.989, 1.323e-3
-1.988, 1.308e-3
-1.987, 1.294e-3
-1.986, 1.281e-3
-1.985, 1.266e-3
-1.984, 1.253e-3
-1.983, 1.239e-3
-1.982, 1.225e-3
-1.981, 1.211e-3
-1.980, 1.200e-3
-1.979, 1.187e-3
-1.978, 1.174e-3
-1.977, 1.161e-3
-1.976, 1.148e-3
-1.975, 1.135e-3
-1.974, 1.123e-3
-1.973, 1.111e-3
-1.972, 1.098e-3
-1.971, 1.085e-3
-1.970, 1.074e-3
-1.969, 1.062e-3
-1.968, 1.049e-3
-1.967, 1.037e-3
-1.966, 1.026e-3
-1.965, 1.014e-3
-1.964, 1.003e-3
-1.963, 9.920e-4
-1.962, 9.806e-4
-1.961, 9.686e-4
-1.960, 9.589e-4
-1.959, 9.477e-4
-1.958, 9.362e-4
-1.957, 9.261e-4
-1.956, 9.161e-4
-1.955, 9.043e-4
-1.954, 8.940e-4
-1.953, 8.844e-4
-1.952, 8.741e-4
-1.951, 8.636e-4
-1.950, 8.547e-4
-1.949, 8.446e-4
-1.948, 8.341e-4
-1.947, 8.248e-4
-1.946, 8.148e-4
-1.945, 8.045e-4
-1.944, 7.954e-4
-1.943, 7.862e-4
-1.942, 7.766e-4
-1.941, 7.670e-4
-1.940, 7.587e-4
-1.939, 7.495e-4
-1.938, 7.396e-4
-1.937, 7.313e-4
-1.936, 7.228e-4
-1.935, 7.138e-4
-1.934, 7.051e-4
-1.933, 6.971e-4
-1.932, 6.884e-4
-1.931, 6.796e-4
-1.930, 6.723e-4
-1.929, 6.638e-4
-1.928, 6.551e-4
-1.927, 6.477e-4
-1.926, 6.399e-4
-1.925, 6.313e-4
-1.924, 6.241e-4
-1.923, 6.167e-4
-1.922, 6.087e-4
-1.921, 6.011e-4
-1.920, 5.941e-4
-1.919, 5.869e-4
-1.918, 5.792e-4
-1.917, 5.724e-4
-1.916, 5.653e-4
-1.915, 5.578e-4
-1.914, 5.508e-4
-1.913, 5.439e-4
-1.912, 5.371e-4
-1.911, 5.301e-4
-1.910, 5.239e-4
-1.909, 5.173e-4
-1.908, 5.102e-4
-1.907, 5.043e-4
-1.906, 4.976e-4
-1.905, 4.910e-4
-1.904, 4.849e-4
-1.903, 4.790e-4
-1.902, 4.726e-4
-1.901, 4.664e-4
-1.900, 4.610e-4
-1.899, 4.547e-4
-1.898, 4.482e-4
-1.897, 4.430e-4
-1.896, 4.373e-4
-1.895, 4.311e-4
-1.894, 4.258e-4
-1.893, 4.204e-4
-1.892, 4.150e-4
-1.891, 4.094e-4
-1.890, 4.046e-4
-1.889, 3.992e-4
-1.888, 3.933e-4
-1.887, 3.887e-4
-1.886, 3.836e-4
-1.885, 3.783e-4
-1.884, 3.733e-4
-1.883, 3.683e-4
-1.882, 3.631e-4
-1.881, 3.580e-4
-1.880, 3.535e-4
-1.879, 3.487e-4
-1.878, 3.437e-4
-1.877, 3.393e-4
-1.876, 3.351e-4
-1.875, 3.299e-4
-1.874, 3.258e-4
-1.873, 3.213e-4
-1.872, 3.169e-4
-1.871, 3.123e-4
-1.870, 3.085e-4
-1.869, 3.039e-4
-1.868, 2.995e-4
-1.867, 2.959e-4
-1.866, 2.916e-4
-1.865, 2.874e-4
-1.864, 2.837e-4
-1.863, 2.796e-4
-1.862, 2.759e-4
-1.861, 2.717e-4
-1.860, 2.681e-4
-1.859, 2.644e-4
-1.858, 2.603e-4
-1.857, 2.569e-4
-1.856, 2.532e-4
-1.855, 2.494e-4
-1.854, 2.462e-4
-1.853, 2.428e-4
-1.852, 2.393e-4
-1.851, 2.358e-4
-1.850, 2.326e-4
-1.849, 2.294e-4
-1.848, 2.259e-4
-1.847, 2.231e-4
-1.846, 2.198e-4
-1.845, 2.166e-4
-1.844, 2.135e-4
-1.843, 2.102e-4
-1.842, 2.073e-4
-1.841, 2.043e-4
-1.840, 2.017e-4
-1.839, 1.986e-4
-1.838, 1.953e-4
-1.837, 1.928e-4
-1.836, 1.898e-4
-1.835, 1.868e-4
-1.834, 1.844e-4
-1.833, 1.813e-4
-1.832, 1.790e-4
-1.831, 1.758e-4
-1.830, 1.734e-4
-1.829, 1.707e-4
-1.828, 1.680e-4
-1.827, 1.659e-4
-1.826, 1.633e-4
-1.825, 1.608e-4
-1.824, 1.584e-4
-1.823, 1.558e-4
-1.822, 1.535e-4
-1.821, 1.511e-4
-1.820, 1.489e-4
-1.819, 1.468e-4
-1.818, 1.442e-4
-1.817, 1.422e-4
-1.816, 1.399e-4
-1.815, 1.377e-4
-1.814, 1.357e-4
-1.813, 1.335e-4
-1.812, 1.316e-4
-1.811, 1.293e-4
-1.810, 1.278e-4
-1.809, 1.257e-4
-1.808, 1.234e-4
-1.807, 1.220e-4
-1.806, 1.198e-4
-1.805, 1.180e-4
-1.804, 1.162e-4
-1.803, 1.142e-4
-1.802, 1.125e-4
-1.801, 1.107e-4
-1.800, 1.092e-4
-1.799, 1.073e-4
-1.798, 1.055e-4
-1.797, 1.042e-4
-1.796, 1.025e-4
-1.795, 1.006e-4
-1.794, 9.937e-5
-1.793, 9.756e-5
-1.792, 9.592e-5
-1.791, 9.435e-5
-1.790, 9.269e-5
-1.789, 9.144e-5
-1.788, 8.964e-5
-1.787, 8.853e-5
-1.786, 8.697e-5
-1.785, 8.546e-5
-1.784, 8.424e-5
-1.783, 8.273e-5
-1.782, 8.135e-5
-1.781, 8.011e-5
-1.780, 7.899e-5
-1.779, 7.748e-5
-1.778, 7.593e-5
-1.777, 7.511e-5
-1.776, 7.374e-5
-1.775, 7.242e-5
-1.774, 7.148e-5
-1.773, 7.013e-5
-1.772, 6.893e-5
-1.771, 6.782e-5
-1.770, 6.695e-5
-1.769, 6.570e-5
-1.768, 6.458e-5
-1.767, 6.352e-5
-1.766, 6.244e-5
-1.765, 6.128e-5
-1.764, 6.047e-5
-1.763, 5.938e-5
-1.762, 5.833e-5
-1.761, 5.723e-5
-1.760, 5.632e-5
-1.759, 5.552e-5
-1.758, 5.438e-5
-1.757, 5.355e-5
-1.756, 5.255e-5
-1.755, 5.172e-5
-1.754, 5.100e-5
-1.753, 4.998e-5
-1.752, 4.933e-5
-1.751, 4.821e-5
-1.750, 4.766e-5
-1.749, 4.666e-5
-1.748, 4.571e-5
-1.747, 4.529e-5
-1.746, 4.431e-5
-1.745, 4.352e-5
-1.744, 4.291e-5
-1.743, 4.203e-5
-1.742, 4.134e-5
-1.741, 4.059e-5
-1.740, 3.988e-5
-1.739, 3.927e-5
-1.738, 3.846e-5
-1.737, 3.803e-5
-1.736, 3.739e-5
-1.735, 3.651e-5
-1.734, 3.615e-5
-1.733, 3.528e-5
-1.732, 3.475e-5
-1.731, 3.404e-5
-1.730, 3.356e-5
-1.729, 3.296e-5
-1.728, 3.224e-5
-1.727, 3.174e-5
-1.726, 3.103e-5
-1.725, 3.057e-5
-1.724, 3.036e-5
-1.723, 2.944e-5
-1.722, 2.912e-5
-1.721, 2.830e-5
-1.720, 2.819e-5
-1.719, 2.755e-5
-1.718, 2.694e-5
-1.717, 2.656e-5
-1.716, 2.604e-5
-1.715, 2.552e-5
-1.714, 2.507e-5
-1.713, 2.454e-5
-1.712, 2.406e-5
-1.711, 2.361e-5
-1.710, 2.336e-5
-1.709, 2.279e-5
-1.708, 2.242e-5
-1.707, 2.223e-5
-1.706, 2.158e-5
-1.705, 2.114e-5
-1.704, 2.110e-5
-1.703, 2.054e-5
-1.702, 2.013e-5
-1.701, 1.988e-5
-1.700, 1.936e-5
-1.699, 1.907e-5
-1.698, 1.857e-5
-1.697, 1.858e-5
-1.696, 1.796e-5
-1.695, 1.781e-5
-1.694, 1.761e-5
-1.693, 1.717e-5
-1.692, 1.695e-5
-1.691, 1.650e-5
-1.690, 1.630e-5
-1.689, 1.585e-5
-1.688, 1.534e-5
-1.687, 1.546e-5
-1.686, 1.515e-5
-1.685, 1.491e-5
-1.684, 1.455e-5
-1.683, 1.438e-5
-1.682, 1.414e-5
-1.681, 1.373e-5
-1.680, 1.366e-5
-1.679, 1.347e-5
-1.678, 1.316e-5
-1.677, 1.296e-5
-1.676, 1.262e-5
-1.675, 1.242e-5
-1.674, 1.245e-5
-1.673, 1.172e-5
-1.672, 1.175e-5
-1.671, 1.157e-5
-1.670, 1.148e-5
-1.669, 1.124e-5
-1.668, 1.074e-5
-1.667, 1.102e-5
-1.666, 1.040e-5
-1.665, 1.042e-5
-1.664, 1.034e-5
-1.663, 9.933e-6
-1.662, 9.903e-6
-1.661, 9.706e-6
-1.660, 9.479e-6
-1.659, 9.400e-6
-1.658, 9.134e-6
-1.657, 9.134e-6
-1.656, 8.966e-6
-1.655, 8.502e-6
-1.654, 8.749e-6
-1.653, 8.364e-6
-1.652, 8.424e-6
-1.651, 8.177e-6
-1.650, 7.920e-6
-1.649, 7.891e-6
-1.648, 7.703e-6
-1.647, 7.881e-6
-1.646, 7.486e-6
-1.645, 7.220e-6
-1.644, 7.358e-6
-1.643, 6.894e-6
-1.642, 7.052e-6
-1.641, 6.954e-6
-1.640, 6.766e-6
-1.639, 6.490e-6
-1.638, 6.154e-6
-1.637, 6.293e-6
-1.636, 6.085e-6
-1.635, 5.849e-6
-1.634, 6.006e-6
-1.633, 5.582e-6
-1.632, 5.839e-6
-1.631, 5.612e-6
-1.630, 5.612e-6
-1.629, 5.493e-6
-1.628, 5.237e-6
-1.627, 5.336e-6
-1.626, 5.227e-6
-1.625, 4.980e-6
-1.624, 5.079e-6
-1.623, 4.813e-6
-1.622, 4.645e-6
-1.621, 4.586e-6
-1.620, 4.635e-6
-1.619, 4.408e-6
-1.618, 4.240e-6
-1.617, 4.645e-6
-1.616, 4.250e-6
-1.615, 4.181e-6
-1.614, 4.556e-6
-1.613, 3.856e-6
-1.612, 3.974e-6
-1.611, 3.658e-6
-1.610, 3.905e-6
-1.609, 3.717e-6
-1.608, 3.402e-6
-1.607, 3.727e-6
-1.606, 3.560e-6
-1.605, 3.352e-6
-1.604, 3.412e-6
-1.603, 3.500e-6
-1.602, 3.382e-6
-1.601, 3.303e-6
-1.600, 3.165e-6
-1.599, 3.195e-6
-1.598, 2.948e-6
-1.597, 3.145e-6
-1.596, 2.908e-6
-1.595, 2.810e-6
-1.594, 3.116e-6
-1.593, 2.622e-6
-1.592, 2.691e-6
-1.591, 2.780e-6
-1.590, 2.770e-6
-1.589, 2.721e-6
-1.588, 2.494e-6
-1.587, 2.593e-6
-1.586, 2.267e-6
-1.585, 2.376e-6
-1.584, 2.543e-6
-1.583, 2.188e-6
-1.582, 2.297e-6
-1.581, 2.317e-6
-1.580, 2.297e-6
-1.579, 2.119e-6
-1.578, 1.833e-6
-1.577, 2.257e-6
-1.576, 2.129e-6
-1.575, 1.912e-6
-1.574, 1.912e-6
-1.573, 1.882e-6
-1.572, 2.040e-6
-1.571, 1.951e-6
-1.570, 1.853e-6
-1.569, 1.794e-6
-1.568, 1.646e-6
-1.567, 1.942e-6
-1.566, 1.656e-6
-1.565, 1.567e-6
-1.564, 1.922e-6
-1.563, 1.458e-6
-1.562, 1.744e-6
-1.561, 1.389e-6
-1.560, 1.429e-6
-1.559, 1.567e-6
-1.558, 1.369e-6
-1.557, 1.784e-6
-1.556, 1.231e-6
-1.555, 1.192e-6
-1.554, 1.508e-6
-1.553, 1.271e-6
-1.552, 1.310e-6
-1.551, 1.350e-6
-1.550, 1.172e-6
-1.549, 1.271e-6
-1.548, 1.133e-6
-1.547, 1.290e-6
-1.546, 1.409e-6
-1.545, 1.093e-6
-1.544, 1.261e-6
-1.543, 9.748e-7
-1.542, 9.846e-7
-1.541, 1.152e-6
-1.540, 1.271e-6
-1.539, 9.649e-7
-1.538, 9.748e-7
-1.537, 1.123e-6
-1.536, 1.034e-6
-1.535, 7.577e-7
-1.534, 1.142e-6
-1.533, 7.380e-7
-1.532, 7.774e-7
-1.531, 8.366e-7
-1.530, 7.084e-7
-1.529, 7.182e-7
-1.528, 7.380e-7
-1.527, 7.281e-7
-1.526, 5.209e-7
-1.525, 5.604e-7
-1.524, 9.254e-7
-1.523, 3.631e-7
-1.522, 6.393e-7
-1.521, 6.097e-7
-1.520, 4.420e-7
-1.519, 5.505e-7
-1.518, 4.321e-7
-1.517, 7.873e-7
-1.516, 5.604e-7
-1.515, 4.420e-7
-1.514, 5.703e-7
-1.513, 5.407e-7
-1.512, 6.689e-7
-1.511, 5.111e-7
-1.510, 3.729e-7
-1.509, 4.321e-7
-1.508, 2.447e-7
-1.507, 4.913e-7
-1.506, 3.631e-7
-1.505, 3.039e-7
-1.504, 4.519e-7
-1.503, 1.855e-7
-1.502, 5.012e-7
-1.501, 2.743e-7
-1.500, 5.209e-7
-1.499, 2.940e-7
-1.498, 2.447e-7
-1.497, 4.420e-7
-1.496, 1.559e-7
-1.495, 6.709e-8
-1.494, 4.124e-7
-1.493, 7.695e-8
-1.492, 2.545e-7
-1.491, 1.657e-7
-1.490, 1.657e-7
-1.489, 2.249e-7
-1.488, 2.762e-8
-1.487, 4.519e-7
-1.486, 2.940e-7
-1.485, 4.736e-8
-1.484, 2.052e-7
-1.483, -1.973e-9
-1.482, 1.559e-7
-1.481, 2.841e-7
-1.480, 1.066e-7
-1.479, 1.657e-7
-1.478, -1.697e-7
-1.477, 1.855e-7
-1.476, 7.893e-9
-1.475, 2.762e-8
-1.474, 8.682e-8
-1.473, 1.776e-8
-1.472, -1.006e-7
-1.471, 2.762e-8
-1.470, -1.006e-7
-1.469, 7.893e-9
-1.468, -2.684e-7
-1.467, 8.682e-8
-1.466, -4.144e-8
-1.465, -1.401e-7
-1.464, 3.749e-8
-1.463, -2.881e-7
-1.462, 7.893e-9
-1.461, -1.006e-7
-1.460, -9.077e-8
-1.459, -3.157e-8
-1.458, -3.275e-7
-1.457, -4.144e-8
-1.456, -1.796e-7
-1.455, -6.117e-8
-1.454, -3.157e-8
-1.453, -2.190e-7
-1.452, -2.388e-7
-1.451, -2.388e-7
-1.450, -3.473e-7
-1.449, -1.302e-7
-1.448, -2.289e-7
-1.447, -5.130e-8
-1.446, -4.262e-7
-1.445, -2.092e-7
-1.444, -1.105e-7
-1.443, -3.769e-7
-1.442, -2.388e-7
-1.441, -1.796e-7
-1.440, -2.980e-7
-1.439, -3.177e-7
-1.438, -4.558e-7
-1.437, -3.473e-7
-1.436, -4.065e-7
-1.435, -3.769e-7
-1.434, -3.867e-7
-1.433, -5.742e-7
-1.432, -2.980e-7
-1.431, -5.939e-7
-1.430, -5.249e-7
-1.429, -4.558e-7
-1.428, -5.841e-7
-1.427, -4.657e-7
-1.426, -4.657e-7
-1.425, -4.854e-7
-1.424, -3.473e-7
-1.423, -6.038e-7
-1.422, -5.643e-7
-1.421, -6.038e-7
-1.420, -6.038e-7
-1.419, -5.742e-7
-1.418, -5.150e-7
-1.417, -4.854e-7
-1.416, -5.742e-7
-1.415, -6.729e-7
-1.414, -6.137e-7
-1.413, -6.334e-7
-1.412, -7.222e-7
-1.411, -3.769e-7
-1.410, -6.433e-7
-1.409, -5.347e-7
-1.408, -7.025e-7
-1.407, -5.545e-7
-1.406, -7.321e-7
-1.405, -8.011e-7
-1.404, -5.347e-7
-1.403, -7.025e-7
-1.402, -6.433e-7
-1.401, -7.617e-7
-1.400, -6.433e-7
-1.399, -7.715e-7
-1.398, -7.617e-7
-1.397, -6.630e-7
-1.396, -8.800e-7
-1.395, -7.912e-7
-1.394, -7.518e-7
-1.393, -8.208e-7
-1.392, -7.419e-7
-1.391, -8.307e-7
-1.390, -6.137e-7
-1.389, -7.025e-7
-1.388, -8.800e-7
-1.387, -8.406e-7
-1.386, -7.222e-7
-1.385, -9.787e-7
-1.384, -7.814e-7
-1.383, -9.195e-7
-1.382, -8.208e-7
-1.381, -8.702e-7
-1.380, -8.702e-7
-1.379, -8.899e-7
-1.378, -9.195e-7
-1.377, -7.912e-7
-1.376, -9.787e-7
-1.375, -1.018e-6
-1.374, -8.110e-7
-1.373, -9.886e-7
-1.372, -8.800e-7
-1.371, -7.419e-7
-1.370, -9.688e-7
-1.369, -8.899e-7
-1.368, -1.166e-6
-1.367, -8.110e-7
-1.366, -1.077e-6
-1.365, -9.590e-7
-1.364, -9.688e-7
-1.363, -1.127e-6
-1.362, -8.406e-7
-1.361, -8.504e-7
-1.360, -1.087e-6
-1.359, -9.688e-7
-1.358, -1.196e-6
-1.357, -9.294e-7
-1.356, -9.886e-7
-1.355, -1.215e-6
-1.354, -9.096e-7
-1.353, -1.127e-6
-1.352, -9.787e-7
-1.351, -1.107e-6
-1.350, -1.137e-6
-1.349, -1.058e-6
-1.348, -1.196e-6
-1.347, -6.729e-7
-1.346, -9.886e-7
-1.345, -1.008e-6
-1.344, -9.491e-7
-1.343, -1.255e-6
-1.342, -1.038e-6
-1.341, -1.176e-6
-1.340, -1.137e-6
-1.339, -1.117e-6
-1.338, -1.196e-6
-1.337, -1.067e-6
-1.336, -1.215e-6
-1.335, -1.067e-6
-1.334, -1.087e-6
-1.333, -1.156e-6
-1.332, -1.018e-6
-1.331, -1.235e-6
-1.330, -1.146e-6
-1.329, -9.984e-7
-1.328, -1.413e-6
-1.327, -8.800e-7
-1.326, -1.206e-6
-1.325, -1.373e-6
-1.324, -1.225e-6
-1.323, -1.354e-6
-1.322, -1.117e-6
-1.321, -1.235e-6
-1.320, -1.206e-6
-1.319, -1.206e-6
-1.318, -1.206e-6
-1.317, -1.196e-6
-1.316, -1.146e-6
-1.315, -1.314e-6
-1.314, -1.156e-6
-1.313, -1.304e-6
-1.312, -1.097e-6
-1.311, -1.137e-6
-1.310, -1.294e-6
-1.309, -1.304e-6
-1.308, -1.275e-6
-1.307, -1.235e-6
-1.306, -1.294e-6
-1.305, -1.423e-6
-1.304, -1.225e-6
-1.303, -1.531e-6
-1.302, -1.285e-6
-1.301, -1.314e-6
-1.300, -1.196e-6
-1.299, -1.403e-6
-1.298, -1.373e-6
-1.297, -1.413e-6
-1.296, -1.393e-6
-1.295, -1.482e-6
-1.294, -1.324e-6
-1.293, -1.561e-6
-1.292, -1.186e-6
-1.291, -1.433e-6
-1.290, -1.452e-6
-1.289, -1.393e-6
-1.288, -1.551e-6
-1.287, -1.275e-6
-1.286, -1.610e-6
-1.285, -1.541e-6
-1.284, -1.294e-6
-1.283, -1.324e-6
-1.282, -1.245e-6
-1.281, -1.255e-6
-1.280, -1.492e-6
-1.279, -1.393e-6
-1.278, -1.650e-6
-1.277, -1.433e-6
-1.276, -1.452e-6
-1.275, -1.492e-6
-1.274, -1.314e-6
-1.273, -1.561e-6
-1.272, -1.373e-6
-1.271, -1.462e-6
-1.270, -1.482e-6
-1.269, -1.729e-6
-1.268, -1.689e-6
-1.267, -1.472e-6
-1.266, -1.551e-6
-1.265, -1.531e-6
-1.264, -1.413e-6
-1.263, -1.709e-6
-1.262, -1.452e-6
-1.261, -1.354e-6
-1.260, -1.571e-6
-1.259, -1.393e-6
-1.258, -1.650e-6
-1.257, -1.511e-6
-1.256, -1.452e-6
-1.255, -1.600e-6
-1.254, -1.551e-6
-1.253, -1.778e-6
-1.252, -1.541e-6
-1.251, -1.571e-6
-1.250, -1.758e-6
-1.249, -1.492e-6
-1.248, -1.798e-6
-1.247, -1.294e-6
-1.246, -1.502e-6
-1.245, -1.581e-6
-1.244, -1.590e-6
-1.243, -1.709e-6
-1.242, -1.719e-6
-1.241, -1.373e-6
-1.240, -1.581e-6
-1.239, -1.719e-6
-1.238, -1.837e-6
-1.237, -1.600e-6
-1.236, -1.571e-6
-1.235, -1.946e-6
-1.234, -1.551e-6
-1.233, -1.659e-6
-1.232, -1.620e-6
-1.231, -1.502e-6
-1.230, -1.827e-6
-1.229, -1.729e-6
-1.228, -1.807e-6
-1.227, -1.659e-6
-1.226, -1.748e-6
-1.225, -1.857e-6
-1.224, -1.590e-6
-1.223, -1.867e-6
-1.222, -1.709e-6
-1.221, -1.768e-6
-1.220, -1.837e-6
-1.219, -1.906e-6
-1.218, -1.955e-6
-1.217, -1.768e-6
-1.216, -1.896e-6
-1.215, -1.729e-6
-1.214, -1.699e-6
-1.213, -1.807e-6
-1.212, -1.985e-6
-1.211, -1.827e-6
-1.210, -1.738e-6
-1.209, -1.926e-6
-1.208, -1.985e-6
-1.207, -1.640e-6
-1.206, -1.807e-6
-1.205, -1.778e-6
-1.204, -1.650e-6
-1.203, -1.985e-6
-1.202, -1.827e-6
-1.201, -1.768e-6
-1.200, -2.084e-6
-1.199, -1.867e-6
-1.198, -1.916e-6
-1.197, -1.709e-6
-1.196, -1.738e-6
-1.195, -1.906e-6
-1.194, -1.650e-6
-1.193, -1.896e-6
-1.192, -1.699e-6
-1.191, -1.807e-6
-1.190, -2.005e-6
-1.189, -1.788e-6
-1.188, -1.926e-6
-1.187, -1.788e-6
-1.186, -1.965e-6
-1.185, -2.064e-6
-1.184, -1.768e-6
-1.183, -2.054e-6
-1.182, -1.817e-6
-1.181, -1.886e-6
-1.180, -1.916e-6
-1.179, -2.024e-6
-1.178, -2.054e-6
-1.177, -1.926e-6
-1.176, -1.916e-6
-1.175, -1.975e-6
-1.174, -1.857e-6
-1.173, -2.044e-6
-1.172, -1.955e-6
-1.171, -1.916e-6
-1.170, -2.153e-6
-1.169, -1.955e-6
-1.168, -2.113e-6
-1.167, -1.995e-6
-1.166, -2.054e-6
-1.165, -2.064e-6
-1.164, -1.926e-6
-1.163, -2.182e-6
-1.162, -2.084e-6
-1.161, -1.916e-6
-1.160, -2.024e-6
-1.159, -2.084e-6
-1.158, -2.143e-6
-1.157, -2.044e-6
-1.156, -2.074e-6
-1.155, -2.163e-6
-1.154, -2.202e-6
-1.153, -2.133e-6
-1.152, -2.064e-6
-1.151, -2.064e-6
-1.150, -2.370e-6
-1.149, -2.015e-6
-1.148, -2.242e-6
-1.147, -2.084e-6
-1.146, -2.202e-6
-1.145, -2.163e-6
-1.144, -2.024e-6
-1.143, -2.340e-6
-1.142, -2.113e-6
-1.141, -2.034e-6
-1.140, -2.222e-6
-1.139, -2.044e-6
-1.138, -2.360e-6
-1.137, -2.103e-6
-1.136, -2.232e-6
-1.135, -2.429e-6
-1.134, -2.192e-6
-1.133, -2.024e-6
-1.132, -2.143e-6
-1.131, -2.015e-6
-1.130, -2.242e-6
-1.129, -2.172e-6
-1.128, -2.498e-6
-1.127, -2.024e-6
-1.126, -2.301e-6
-1.125, -2.380e-6
-1.124, -2.202e-6
-1.123, -2.478e-6
-1.122, -2.232e-6
-1.121, -2.182e-6
-1.120, -2.291e-6
-1.119, -2.320e-6
-1.118, -2.459e-6
-1.117, -2.251e-6
-1.116, -2.301e-6
-1.115, -2.518e-6
-1.114, -2.222e-6
-1.113, -2.498e-6
-1.112, -2.360e-6
-1.111, -2.320e-6
-1.110, -2.390e-6
-1.109, -2.380e-6
-1.108, -2.528e-6
-1.107, -2.390e-6
-1.106, -2.390e-6
-1.105, -2.449e-6
-1.104, -2.468e-6
-1.103, -2.311e-6
-1.102, -2.439e-6
-1.101, -2.370e-6
-1.100, -2.646e-6
-1.099, -2.301e-6
-1.098, -2.508e-6
-1.097, -2.528e-6
-1.096, -2.380e-6
-1.095, -2.745e-6
-1.094, -2.320e-6
-1.093, -2.626e-6
-1.092, -2.251e-6
-1.091, -2.459e-6
-1.090, -2.636e-6
-1.089, -2.597e-6
-1.088, -2.676e-6
-1.087, -2.468e-6
-1.086, -2.419e-6
-1.085, -2.646e-6
-1.084, -2.478e-6
-1.083, -2.636e-6
-1.082, -2.498e-6
-1.081, -2.498e-6
-1.080, -2.646e-6
-1.079, -2.676e-6
-1.078, -2.735e-6
-1.077, -2.508e-6
-1.076, -2.577e-6
-1.075, -2.893e-6
-1.074, -2.636e-6
-1.073, -2.853e-6
-1.072, -2.656e-6
-1.071, -2.557e-6
-1.070, -2.725e-6
-1.069, -2.616e-6
-1.068, -2.745e-6
-1.067, -2.498e-6
-1.066, -2.646e-6
-1.065, -2.636e-6
-1.064, -2.607e-6
-1.063, -2.745e-6
-1.062, -2.794e-6
-1.061, -2.547e-6
-1.060, -2.873e-6
-1.059, -2.735e-6
-1.058, -2.498e-6
-1.057, -2.824e-6
-1.056, -2.764e-6
-1.055, -2.883e-6
-1.054, -2.676e-6
-1.053, -2.903e-6
-1.052, -2.705e-6
-1.051, -2.676e-6
-1.050, -2.853e-6
-1.049, -2.863e-6
-1.048, -3.001e-6
-1.047, -2.626e-6
-1.046, -2.735e-6
-1.045, -2.893e-6
-1.044, -2.616e-6
-1.043, -2.883e-6
-1.042, -2.873e-6
-1.041, -2.557e-6
-1.040, -2.932e-6
-1.039, -2.853e-6
-1.038, -2.893e-6
-1.037, -2.666e-6
-1.036, -2.834e-6
-1.035, -2.853e-6
-1.034, -2.863e-6
-1.033, -2.962e-6
-1.032, -2.843e-6
-1.031, -2.784e-6
-1.030, -3.031e-6
-1.029, -2.883e-6
-1.028, -2.912e-6
-1.027, -2.735e-6
-1.026, -2.824e-6
-1.025, -2.764e-6
-1.024, -2.952e-6
-1.023, -3.149e-6
-1.022, -2.893e-6
-1.021, -2.784e-6
-1.020, -3.001e-6
-1.019, -2.972e-6
-1.018, -3.070e-6
-1.017, -2.962e-6
-1.016, -2.932e-6
-1.015, -2.932e-6
-1.014, -2.863e-6
-1.013, -2.962e-6
-1.012, -2.903e-6
-1.011, -3.129e-6
-1.010, -3.199e-6
-1.009, -2.952e-6
-1.008, -3.139e-6
-1.007, -2.893e-6
-1.006, -2.893e-6
-1.005, -3.070e-6
-1.004, -2.853e-6
-1.003, -3.129e-6
-1.002, -3.051e-6
-1.001, -3.090e-6
