Oct. 25, 2024   18:47:18
Cyclic Voltammetry
File: c:/users/guazh/data/banditlqv2round1/2024-10-24-exp598\exp598-2024-10-25t18_18_43-arkoh\exp598_cv_sr_50mvs_efin_-2200mv.bin
Data Source:  Experiment
Instrument Model:  CHI760E
Header: CV ran at 50 mVs
Note: 

Init E (V) = -1
High E (V) = -1
Low E (V) = -2.2
Final E (V) = -1
Init P/N = N
Scan Rate (V/s) = 0.05
Segment = 3
Sample Interval (V) = 0.001
Quiet Time (sec) = 2
Sensitivity (A/V) = 0.01
Comp R (ohm) = 0.9

Results:

Channel 1:
Segment 1:

Segment 2:

Segment 3:

Potential/V, Current/A

-1.000, 8.958e-7
-1.001, 8.958e-7
-1.002, 8.662e-7
-1.003, 8.860e-7
-1.004, 9.353e-7
-1.005, 9.353e-7
-1.006, 9.353e-7
-1.007, 9.846e-7
-1.008, 1.004e-6
-1.009, 1.054e-6
-1.010, 9.649e-7
-1.011, 1.014e-6
-1.012, 1.024e-6
-1.013, 1.044e-6
-1.014, 1.034e-6
-1.015, 1.113e-6
-1.016, 1.142e-6
-1.017, 1.054e-6
-1.018, 1.152e-6
-1.019, 1.123e-6
-1.020, 1.083e-6
-1.021, 1.123e-6
-1.022, 1.133e-6
-1.023, 1.093e-6
-1.024, 1.290e-6
-1.025, 1.231e-6
-1.026, 1.290e-6
-1.027, 1.251e-6
-1.028, 1.231e-6
-1.029, 1.290e-6
-1.030, 1.231e-6
-1.031, 1.251e-6
-1.032, 1.251e-6
-1.033, 1.290e-6
-1.034, 1.330e-6
-1.035, 1.330e-6
-1.036, 1.251e-6
-1.037, 1.369e-6
-1.038, 1.429e-6
-1.039, 1.369e-6
-1.040, 1.429e-6
-1.041, 1.468e-6
-1.042, 1.429e-6
-1.043, 1.438e-6
-1.044, 1.537e-6
-1.045, 1.419e-6
-1.046, 1.448e-6
-1.047, 1.419e-6
-1.048, 1.360e-6
-1.049, 1.577e-6
-1.050, 1.517e-6
-1.051, 1.537e-6
-1.052, 1.557e-6
-1.053, 1.488e-6
-1.054, 1.557e-6
-1.055, 1.557e-6
-1.056, 1.656e-6
-1.057, 1.616e-6
-1.058, 1.517e-6
-1.059, 1.656e-6
-1.060, 1.606e-6
-1.061, 1.527e-6
-1.062, 1.715e-6
-1.063, 1.685e-6
-1.064, 1.725e-6
-1.065, 1.656e-6
-1.066, 1.715e-6
-1.067, 1.646e-6
-1.068, 1.636e-6
-1.069, 1.675e-6
-1.070, 1.734e-6
-1.071, 1.744e-6
-1.072, 1.744e-6
-1.073, 1.725e-6
-1.074, 1.695e-6
-1.075, 1.715e-6
-1.076, 1.823e-6
-1.077, 1.794e-6
-1.078, 1.784e-6
-1.079, 1.863e-6
-1.080, 1.843e-6
-1.081, 1.882e-6
-1.082, 1.784e-6
-1.083, 1.892e-6
-1.084, 1.971e-6
-1.085, 1.882e-6
-1.086, 1.873e-6
-1.087, 1.922e-6
-1.088, 2.011e-6
-1.089, 1.942e-6
-1.090, 2.030e-6
-1.091, 2.070e-6
-1.092, 2.001e-6
-1.093, 1.971e-6
-1.094, 2.169e-6
-1.095, 2.050e-6
-1.096, 2.109e-6
-1.097, 2.109e-6
-1.098, 2.080e-6
-1.099, 2.080e-6
-1.100, 2.070e-6
-1.101, 2.198e-6
-1.102, 2.208e-6
-1.103, 2.178e-6
-1.104, 2.238e-6
-1.105, 2.208e-6
-1.106, 2.159e-6
-1.107, 2.198e-6
-1.108, 2.238e-6
-1.109, 2.277e-6
-1.110, 2.228e-6
-1.111, 2.297e-6
-1.112, 2.188e-6
-1.113, 2.297e-6
-1.114, 2.267e-6
-1.115, 2.346e-6
-1.116, 2.307e-6
-1.117, 2.376e-6
-1.118, 2.386e-6
-1.119, 2.445e-6
-1.120, 2.376e-6
-1.121, 2.455e-6
-1.122, 2.474e-6
-1.123, 2.425e-6
-1.124, 2.494e-6
-1.125, 2.415e-6
-1.126, 2.514e-6
-1.127, 2.563e-6
-1.128, 2.484e-6
-1.129, 2.524e-6
-1.130, 2.553e-6
-1.131, 2.603e-6
-1.132, 2.543e-6
-1.133, 2.682e-6
-1.134, 2.593e-6
-1.135, 2.613e-6
-1.136, 2.662e-6
-1.137, 2.662e-6
-1.138, 2.652e-6
-1.139, 2.652e-6
-1.140, 2.741e-6
-1.141, 2.711e-6
-1.142, 2.731e-6
-1.143, 2.751e-6
-1.144, 2.780e-6
-1.145, 2.751e-6
-1.146, 2.810e-6
-1.147, 2.770e-6
-1.148, 2.721e-6
-1.149, 2.830e-6
-1.150, 2.800e-6
-1.151, 2.869e-6
-1.152, 2.928e-6
-1.153, 2.928e-6
-1.154, 2.928e-6
-1.155, 2.968e-6
-1.156, 3.007e-6
-1.157, 2.889e-6
-1.158, 2.958e-6
-1.159, 3.027e-6
-1.160, 2.997e-6
-1.161, 3.037e-6
-1.162, 3.047e-6
-1.163, 3.027e-6
-1.164, 2.997e-6
-1.165, 3.096e-6
-1.166, 3.126e-6
-1.167, 3.056e-6
-1.168, 3.135e-6
-1.169, 3.135e-6
-1.170, 3.145e-6
-1.171, 3.126e-6
-1.172, 3.145e-6
-1.173, 3.234e-6
-1.174, 3.204e-6
-1.175, 3.126e-6
-1.176, 3.155e-6
-1.177, 3.135e-6
-1.178, 3.293e-6
-1.179, 3.283e-6
-1.180, 3.155e-6
-1.181, 3.244e-6
-1.182, 3.234e-6
-1.183, 3.244e-6
-1.184, 3.333e-6
-1.185, 3.244e-6
-1.186, 3.343e-6
-1.187, 3.303e-6
-1.188, 3.323e-6
-1.189, 3.293e-6
-1.190, 3.352e-6
-1.191, 3.333e-6
-1.192, 3.283e-6
-1.193, 3.343e-6
-1.194, 3.352e-6
-1.195, 3.382e-6
-1.196, 3.343e-6
-1.197, 3.431e-6
-1.198, 3.412e-6
-1.199, 3.422e-6
-1.200, 3.372e-6
-1.201, 3.402e-6
-1.202, 3.402e-6
-1.203, 3.491e-6
-1.204, 3.491e-6
-1.205, 3.422e-6
-1.206, 3.570e-6
-1.207, 3.461e-6
-1.208, 3.560e-6
-1.209, 3.510e-6
-1.210, 3.422e-6
-1.211, 3.579e-6
-1.212, 3.481e-6
-1.213, 3.530e-6
-1.214, 3.471e-6
-1.215, 3.412e-6
-1.216, 3.550e-6
-1.217, 3.510e-6
-1.218, 3.550e-6
-1.219, 3.550e-6
-1.220, 3.609e-6
-1.221, 3.550e-6
-1.222, 3.619e-6
-1.223, 3.589e-6
-1.224, 3.629e-6
-1.225, 3.629e-6
-1.226, 3.599e-6
-1.227, 3.550e-6
-1.228, 3.629e-6
-1.229, 3.737e-6
-1.230, 3.629e-6
-1.231, 3.708e-6
-1.232, 3.688e-6
-1.233, 3.678e-6
-1.234, 3.698e-6
-1.235, 3.678e-6
-1.236, 3.737e-6
-1.237, 3.717e-6
-1.238, 3.619e-6
-1.239, 3.836e-6
-1.240, 3.668e-6
-1.241, 3.737e-6
-1.242, 3.757e-6
-1.243, 3.816e-6
-1.244, 3.767e-6
-1.245, 3.737e-6
-1.246, 3.885e-6
-1.247, 3.737e-6
-1.248, 3.737e-6
-1.249, 3.757e-6
-1.250, 3.717e-6
-1.251, 3.737e-6
-1.252, 3.688e-6
-1.253, 3.727e-6
-1.254, 3.816e-6
-1.255, 3.806e-6
-1.256, 3.826e-6
-1.257, 3.856e-6
-1.258, 3.816e-6
-1.259, 3.875e-6
-1.260, 3.836e-6
-1.261, 3.895e-6
-1.262, 3.806e-6
-1.263, 3.905e-6
-1.264, 3.796e-6
-1.265, 3.875e-6
-1.266, 3.806e-6
-1.267, 3.885e-6
-1.268, 3.905e-6
-1.269, 4.004e-6
-1.270, 3.944e-6
-1.271, 3.944e-6
-1.272, 3.915e-6
-1.273, 3.905e-6
-1.274, 3.905e-6
-1.275, 3.836e-6
-1.276, 3.954e-6
-1.277, 3.925e-6
-1.278, 3.954e-6
-1.279, 3.954e-6
-1.280, 3.944e-6
-1.281, 4.023e-6
-1.282, 3.905e-6
-1.283, 4.013e-6
-1.284, 4.023e-6
-1.285, 4.013e-6
-1.286, 4.013e-6
-1.287, 3.964e-6
-1.288, 3.994e-6
-1.289, 4.013e-6
-1.290, 3.964e-6
-1.291, 4.023e-6
-1.292, 3.994e-6
-1.293, 4.033e-6
-1.294, 4.053e-6
-1.295, 4.033e-6
-1.296, 4.161e-6
-1.297, 4.023e-6
-1.298, 4.092e-6
-1.299, 4.102e-6
-1.300, 4.112e-6
-1.301, 4.132e-6
-1.302, 4.023e-6
-1.303, 4.152e-6
-1.304, 4.092e-6
-1.305, 4.161e-6
-1.306, 4.211e-6
-1.307, 4.152e-6
-1.308, 4.161e-6
-1.309, 4.132e-6
-1.310, 4.181e-6
-1.311, 4.083e-6
-1.312, 4.122e-6
-1.313, 4.221e-6
-1.314, 4.092e-6
-1.315, 4.102e-6
-1.316, 4.221e-6
-1.317, 4.132e-6
-1.318, 4.181e-6
-1.319, 4.231e-6
-1.320, 4.171e-6
-1.321, 4.240e-6
-1.322, 4.211e-6
-1.323, 4.260e-6
-1.324, 4.191e-6
-1.325, 4.270e-6
-1.326, 4.231e-6
-1.327, 4.231e-6
-1.328, 4.191e-6
-1.329, 4.250e-6
-1.330, 4.240e-6
-1.331, 4.300e-6
-1.332, 4.319e-6
-1.333, 4.339e-6
-1.334, 4.290e-6
-1.335, 4.359e-6
-1.336, 4.280e-6
-1.337, 4.221e-6
-1.338, 4.369e-6
-1.339, 4.309e-6
-1.340, 4.309e-6
-1.341, 4.231e-6
-1.342, 4.260e-6
-1.343, 4.319e-6
-1.344, 4.349e-6
-1.345, 4.369e-6
-1.346, 4.379e-6
-1.347, 4.329e-6
-1.348, 4.329e-6
-1.349, 4.319e-6
-1.350, 4.339e-6
-1.351, 4.339e-6
-1.352, 4.329e-6
-1.353, 4.418e-6
-1.354, 4.290e-6
-1.355, 4.319e-6
-1.356, 4.457e-6
-1.357, 4.408e-6
-1.358, 4.428e-6
-1.359, 4.398e-6
-1.360, 4.428e-6
-1.361, 4.408e-6
-1.362, 4.398e-6
-1.363, 4.457e-6
-1.364, 4.428e-6
-1.365, 4.457e-6
-1.366, 4.428e-6
-1.367, 4.369e-6
-1.368, 4.467e-6
-1.369, 4.428e-6
-1.370, 4.457e-6
-1.371, 4.428e-6
-1.372, 4.546e-6
-1.373, 4.467e-6
-1.374, 4.517e-6
-1.375, 4.448e-6
-1.376, 4.517e-6
-1.377, 4.487e-6
-1.378, 4.546e-6
-1.379, 4.507e-6
-1.380, 4.507e-6
-1.381, 4.448e-6
-1.382, 4.428e-6
-1.383, 4.605e-6
-1.384, 4.556e-6
-1.385, 4.566e-6
-1.386, 4.674e-6
-1.387, 4.546e-6
-1.388, 4.556e-6
-1.389, 4.517e-6
-1.390, 4.536e-6
-1.391, 4.487e-6
-1.392, 4.536e-6
-1.393, 4.605e-6
-1.394, 4.556e-6
-1.395, 4.635e-6
-1.396, 4.635e-6
-1.397, 4.635e-6
-1.398, 4.645e-6
-1.399, 4.615e-6
-1.400, 4.586e-6
-1.401, 4.655e-6
-1.402, 4.546e-6
-1.403, 4.635e-6
-1.404, 4.536e-6
-1.405, 4.605e-6
-1.406, 4.674e-6
-1.407, 4.576e-6
-1.408, 4.605e-6
-1.409, 4.596e-6
-1.410, 4.724e-6
-1.411, 4.724e-6
-1.412, 4.645e-6
-1.413, 4.694e-6
-1.414, 4.655e-6
-1.415, 4.655e-6
-1.416, 4.704e-6
-1.417, 4.615e-6
-1.418, 4.734e-6
-1.419, 4.625e-6
-1.420, 4.655e-6
-1.421, 4.783e-6
-1.422, 4.665e-6
-1.423, 4.655e-6
-1.424, 4.674e-6
-1.425, 4.694e-6
-1.426, 4.704e-6
-1.427, 4.625e-6
-1.428, 4.783e-6
-1.429, 4.694e-6
-1.430, 4.734e-6
-1.431, 4.684e-6
-1.432, 4.665e-6
-1.433, 4.822e-6
-1.434, 4.822e-6
-1.435, 4.813e-6
-1.436, 4.793e-6
-1.437, 4.911e-6
-1.438, 4.862e-6
-1.439, 4.793e-6
-1.440, 4.852e-6
-1.441, 4.832e-6
-1.442, 4.822e-6
-1.443, 4.931e-6
-1.444, 4.773e-6
-1.445, 4.892e-6
-1.446, 4.842e-6
-1.447, 4.970e-6
-1.448, 4.941e-6
-1.449, 4.872e-6
-1.450, 4.961e-6
-1.451, 4.931e-6
-1.452, 4.872e-6
-1.453, 5.010e-6
-1.454, 4.961e-6
-1.455, 4.951e-6
-1.456, 5.030e-6
-1.457, 4.921e-6
-1.458, 5.000e-6
-1.459, 5.000e-6
-1.460, 5.040e-6
-1.461, 4.990e-6
-1.462, 5.010e-6
-1.463, 5.059e-6
-1.464, 4.970e-6
-1.465, 5.010e-6
-1.466, 5.059e-6
-1.467, 5.079e-6
-1.468, 5.109e-6
-1.469, 5.040e-6
-1.470, 5.089e-6
-1.471, 5.049e-6
-1.472, 5.089e-6
-1.473, 5.207e-6
-1.474, 5.020e-6
-1.475, 5.128e-6
-1.476, 5.217e-6
-1.477, 5.128e-6
-1.478, 5.138e-6
-1.479, 5.178e-6
-1.480, 5.059e-6
-1.481, 5.188e-6
-1.482, 5.197e-6
-1.483, 5.197e-6
-1.484, 5.158e-6
-1.485, 5.257e-6
-1.486, 5.316e-6
-1.487, 5.227e-6
-1.488, 5.306e-6
-1.489, 5.316e-6
-1.490, 5.247e-6
-1.491, 5.227e-6
-1.492, 5.217e-6
-1.493, 5.276e-6
-1.494, 5.296e-6
-1.495, 5.316e-6
-1.496, 5.355e-6
-1.497, 5.355e-6
-1.498, 5.424e-6
-1.499, 5.306e-6
-1.500, 5.336e-6
-1.501, 5.405e-6
-1.502, 5.395e-6
-1.503, 5.434e-6
-1.504, 5.405e-6
-1.505, 5.493e-6
-1.506, 5.523e-6
-1.507, 5.395e-6
-1.508, 5.474e-6
-1.509, 5.385e-6
-1.510, 5.454e-6
-1.511, 5.602e-6
-1.512, 5.503e-6
-1.513, 5.543e-6
-1.514, 5.424e-6
-1.515, 5.553e-6
-1.516, 5.474e-6
-1.517, 5.533e-6
-1.518, 5.671e-6
-1.519, 5.562e-6
-1.520, 5.641e-6
-1.521, 5.572e-6
-1.522, 5.602e-6
-1.523, 5.602e-6
-1.524, 5.592e-6
-1.525, 5.691e-6
-1.526, 5.720e-6
-1.527, 5.681e-6
-1.528, 5.750e-6
-1.529, 5.701e-6
-1.530, 5.760e-6
-1.531, 5.681e-6
-1.532, 5.691e-6
-1.533, 5.760e-6
-1.534, 5.849e-6
-1.535, 5.770e-6
-1.536, 5.868e-6
-1.537, 5.868e-6
-1.538, 5.878e-6
-1.539, 5.819e-6
-1.540, 5.868e-6
-1.541, 5.809e-6
-1.542, 5.977e-6
-1.543, 5.908e-6
-1.544, 5.888e-6
-1.545, 5.927e-6
-1.546, 5.967e-6
-1.547, 5.947e-6
-1.548, 5.987e-6
-1.549, 5.957e-6
-1.550, 6.016e-6
-1.551, 6.046e-6
-1.552, 6.046e-6
-1.553, 6.075e-6
-1.554, 5.997e-6
-1.555, 6.085e-6
-1.556, 6.075e-6
-1.557, 6.164e-6
-1.558, 6.056e-6
-1.559, 6.115e-6
-1.560, 6.125e-6
-1.561, 6.145e-6
-1.562, 6.233e-6
-1.563, 6.184e-6
-1.564, 6.204e-6
-1.565, 6.293e-6
-1.566, 6.204e-6
-1.567, 6.233e-6
-1.568, 6.312e-6
-1.569, 6.283e-6
-1.570, 6.293e-6
-1.571, 6.312e-6
-1.572, 6.342e-6
-1.573, 6.362e-6
-1.574, 6.371e-6
-1.575, 6.411e-6
-1.576, 6.440e-6
-1.577, 6.312e-6
-1.578, 6.440e-6
-1.579, 6.490e-6
-1.580, 6.411e-6
-1.581, 6.411e-6
-1.582, 6.371e-6
-1.583, 6.618e-6
-1.584, 6.588e-6
-1.585, 6.588e-6
-1.586, 6.549e-6
-1.587, 6.588e-6
-1.588, 6.727e-6
-1.589, 6.677e-6
-1.590, 6.707e-6
-1.591, 6.628e-6
-1.592, 6.736e-6
-1.593, 6.806e-6
-1.594, 6.776e-6
-1.595, 6.815e-6
-1.596, 6.746e-6
-1.597, 6.736e-6
-1.598, 6.884e-6
-1.599, 6.756e-6
-1.600, 6.924e-6
-1.601, 6.934e-6
-1.602, 6.855e-6
-1.603, 6.983e-6
-1.604, 6.973e-6
-1.605, 6.973e-6
-1.606, 6.993e-6
-1.607, 7.032e-6
-1.608, 7.042e-6
-1.609, 7.042e-6
-1.610, 7.082e-6
-1.611, 7.121e-6
-1.612, 7.072e-6
-1.613, 7.328e-6
-1.614, 7.200e-6
-1.615, 7.328e-6
-1.616, 7.240e-6
-1.617, 7.328e-6
-1.618, 7.417e-6
-1.619, 7.348e-6
-1.620, 7.368e-6
-1.621, 7.476e-6
-1.622, 7.397e-6
-1.623, 7.437e-6
-1.624, 7.516e-6
-1.625, 7.397e-6
-1.626, 7.476e-6
-1.627, 7.555e-6
-1.628, 7.693e-6
-1.629, 7.674e-6
-1.630, 7.772e-6
-1.631, 7.624e-6
-1.632, 7.693e-6
-1.633, 7.822e-6
-1.634, 7.861e-6
-1.635, 7.891e-6
-1.636, 7.832e-6
-1.637, 7.861e-6
-1.638, 7.960e-6
-1.639, 8.128e-6
-1.640, 8.147e-6
-1.641, 8.177e-6
-1.642, 8.167e-6
-1.643, 8.285e-6
-1.644, 8.236e-6
-1.645, 8.364e-6
-1.646, 8.354e-6
-1.647, 8.374e-6
-1.648, 8.502e-6
-1.649, 8.433e-6
-1.650, 8.483e-6
-1.651, 8.542e-6
-1.652, 8.591e-6
-1.653, 8.670e-6
-1.654, 8.611e-6
-1.655, 8.710e-6
-1.656, 8.739e-6
-1.657, 8.749e-6
-1.658, 8.877e-6
-1.659, 8.858e-6
-1.660, 8.917e-6
-1.661, 8.996e-6
-1.662, 9.065e-6
-1.663, 9.114e-6
-1.664, 9.114e-6
-1.665, 9.183e-6
-1.666, 9.252e-6
-1.667, 9.321e-6
-1.668, 9.390e-6
-1.669, 9.400e-6
-1.670, 9.509e-6
-1.671, 9.509e-6
-1.672, 9.588e-6
-1.673, 9.647e-6
-1.674, 9.647e-6
-1.675, 9.657e-6
-1.676, 9.755e-6
-1.677, 9.844e-6
-1.678, 1.003e-5
-1.679, 9.992e-6
-1.680, 1.006e-5
-1.681, 1.018e-5
-1.682, 1.020e-5
-1.683, 1.039e-5
-1.684, 1.032e-5
-1.685, 1.037e-5
-1.686, 1.052e-5
-1.687, 1.053e-5
-1.688, 1.059e-5
-1.689, 1.070e-5
-1.690, 1.079e-5
-1.691, 1.091e-5
-1.692, 1.095e-5
-1.693, 1.104e-5
-1.694, 1.115e-5
-1.695, 1.130e-5
-1.696, 1.126e-5
-1.697, 1.150e-5
-1.698, 1.149e-5
-1.699, 1.164e-5
-1.700, 1.167e-5
-1.701, 1.170e-5
-1.702, 1.190e-5
-1.703, 1.212e-5
-1.704, 1.201e-5
-1.705, 1.222e-5
-1.706, 1.230e-5
-1.707, 1.249e-5
-1.708, 1.253e-5
-1.709, 1.267e-5
-1.710, 1.288e-5
-1.711, 1.299e-5
-1.712, 1.308e-5
-1.713, 1.312e-5
-1.714, 1.324e-5
-1.715, 1.350e-5
-1.716, 1.362e-5
-1.717, 1.373e-5
-1.718, 1.401e-5
-1.719, 1.398e-5
-1.720, 1.417e-5
-1.721, 1.434e-5
-1.722, 1.457e-5
-1.723, 1.468e-5
-1.724, 1.485e-5
-1.725, 1.502e-5
-1.726, 1.513e-5
-1.727, 1.529e-5
-1.728, 1.554e-5
-1.729, 1.571e-5
-1.730, 1.582e-5
-1.731, 1.611e-5
-1.732, 1.625e-5
-1.733, 1.652e-5
-1.734, 1.665e-5
-1.735, 1.686e-5
-1.736, 1.708e-5
-1.737, 1.739e-5
-1.738, 1.760e-5
-1.739, 1.767e-5
-1.740, 1.789e-5
-1.741, 1.828e-5
-1.742, 1.848e-5
-1.743, 1.883e-5
-1.744, 1.891e-5
-1.745, 1.927e-5
-1.746, 1.944e-5
-1.747, 1.979e-5
-1.748, 2.009e-5
-1.749, 2.027e-5
-1.750, 2.064e-5
-1.751, 2.098e-5
-1.752, 2.130e-5
-1.753, 2.158e-5
-1.754, 2.183e-5
-1.755, 2.217e-5
-1.756, 2.248e-5
-1.757, 2.284e-5
-1.758, 2.328e-5
-1.759, 2.353e-5
-1.760, 2.394e-5
-1.761, 2.432e-5
-1.762, 2.465e-5
-1.763, 2.506e-5
-1.764, 2.543e-5
-1.765, 2.580e-5
-1.766, 2.616e-5
-1.767, 2.672e-5
-1.768, 2.706e-5
-1.769, 2.745e-5
-1.770, 2.791e-5
-1.771, 2.843e-5
-1.772, 2.884e-5
-1.773, 2.942e-5
-1.774, 2.984e-5
-1.775, 3.026e-5
-1.776, 3.074e-5
-1.777, 3.114e-5
-1.778, 3.178e-5
-1.779, 3.239e-5
-1.780, 3.293e-5
-1.781, 3.339e-5
-1.782, 3.407e-5
-1.783, 3.456e-5
-1.784, 3.505e-5
-1.785, 3.574e-5
-1.786, 3.625e-5
-1.787, 3.687e-5
-1.788, 3.764e-5
-1.789, 3.811e-5
-1.790, 3.876e-5
-1.791, 3.947e-5
-1.792, 4.015e-5
-1.793, 4.092e-5
-1.794, 4.160e-5
-1.795, 4.231e-5
-1.796, 4.293e-5
-1.797, 4.367e-5
-1.798, 4.448e-5
-1.799, 4.526e-5
-1.800, 4.597e-5
-1.801, 4.673e-5
-1.802, 4.757e-5
-1.803, 4.840e-5
-1.804, 4.924e-5
-1.805, 5.008e-5
-1.806, 5.090e-5
-1.807, 5.174e-5
-1.808, 5.269e-5
-1.809, 5.353e-5
-1.810, 5.450e-5
-1.811, 5.538e-5
-1.812, 5.635e-5
-1.813, 5.731e-5
-1.814, 5.836e-5
-1.815, 5.938e-5
-1.816, 6.036e-5
-1.817, 6.130e-5
-1.818, 6.240e-5
-1.819, 6.346e-5
-1.820, 6.449e-5
-1.821, 6.560e-5
-1.822, 6.672e-5
-1.823, 6.796e-5
-1.824, 6.903e-5
-1.825, 7.025e-5
-1.826, 7.133e-5
-1.827, 7.249e-5
-1.828, 7.383e-5
-1.829, 7.497e-5
-1.830, 7.628e-5
-1.831, 7.757e-5
-1.832, 7.886e-5
-1.833, 8.028e-5
-1.834, 8.158e-5
-1.835, 8.302e-5
-1.836, 8.446e-5
-1.837, 8.590e-5
-1.838, 8.732e-5
-1.839, 8.882e-5
-1.840, 9.024e-5
-1.841, 9.179e-5
-1.842, 9.344e-5
-1.843, 9.504e-5
-1.844, 9.664e-5
-1.845, 9.824e-5
-1.846, 9.988e-5
-1.847, 1.016e-4
-1.848, 1.032e-4
-1.849, 1.050e-4
-1.850, 1.067e-4
-1.851, 1.084e-4
-1.852, 1.102e-4
-1.853, 1.122e-4
-1.854, 1.140e-4
-1.855, 1.157e-4
-1.856, 1.176e-4
-1.857, 1.196e-4
-1.858, 1.217e-4
-1.859, 1.236e-4
-1.860, 1.257e-4
-1.861, 1.278e-4
-1.862, 1.298e-4
-1.863, 1.320e-4
-1.864, 1.342e-4
-1.865, 1.364e-4
-1.866, 1.386e-4
-1.867, 1.409e-4
-1.868, 1.433e-4
-1.869, 1.457e-4
-1.870, 1.480e-4
-1.871, 1.504e-4
-1.872, 1.529e-4
-1.873, 1.555e-4
-1.874, 1.580e-4
-1.875, 1.605e-4
-1.876, 1.630e-4
-1.877, 1.657e-4
-1.878, 1.685e-4
-1.879, 1.712e-4
-1.880, 1.740e-4
-1.881, 1.768e-4
-1.882, 1.796e-4
-1.883, 1.827e-4
-1.884, 1.856e-4
-1.885, 1.885e-4
-1.886, 1.914e-4
-1.887, 1.946e-4
-1.888, 1.978e-4
-1.889, 2.010e-4
-1.890, 2.043e-4
-1.891, 2.075e-4
-1.892, 2.108e-4
-1.893, 2.144e-4
-1.894, 2.178e-4
-1.895, 2.212e-4
-1.896, 2.247e-4
-1.897, 2.283e-4
-1.898, 2.320e-4
-1.899, 2.356e-4
-1.900, 2.394e-4
-1.901, 2.432e-4
-1.902, 2.470e-4
-1.903, 2.511e-4
-1.904, 2.551e-4
-1.905, 2.591e-4
-1.906, 2.633e-4
-1.907, 2.676e-4
-1.908, 2.719e-4
-1.909, 2.761e-4
-1.910, 2.806e-4
-1.911, 2.851e-4
-1.912, 2.896e-4
-1.913, 2.942e-4
-1.914, 2.990e-4
-1.915, 3.037e-4
-1.916, 3.085e-4
-1.917, 3.135e-4
-1.918, 3.187e-4
-1.919, 3.237e-4
-1.920, 3.288e-4
-1.921, 3.341e-4
-1.922, 3.393e-4
-1.923, 3.448e-4
-1.924, 3.502e-4
-1.925, 3.558e-4
-1.926, 3.614e-4
-1.927, 3.671e-4
-1.928, 3.730e-4
-1.929, 3.790e-4
-1.930, 3.849e-4
-1.931, 3.909e-4
-1.932, 3.970e-4
-1.933, 4.034e-4
-1.934, 4.096e-4
-1.935, 4.159e-4
-1.936, 4.222e-4
-1.937, 4.289e-4
-1.938, 4.355e-4
-1.939, 4.424e-4
-1.940, 4.494e-4
-1.941, 4.563e-4
-1.942, 4.636e-4
-1.943, 4.708e-4
-1.944, 4.780e-4
-1.945, 4.856e-4
-1.946, 4.930e-4
-1.947, 5.006e-4
-1.948, 5.085e-4
-1.949, 5.164e-4
-1.950, 5.244e-4
-1.951, 5.326e-4
-1.952, 5.409e-4
-1.953, 5.493e-4
-1.954, 5.577e-4
-1.955, 5.663e-4
-1.956, 5.750e-4
-1.957, 5.838e-4
-1.958, 5.929e-4
-1.959, 6.019e-4
-1.960, 6.110e-4
-1.961, 6.201e-4
-1.962, 6.295e-4
-1.963, 6.392e-4
-1.964, 6.492e-4
-1.965, 6.589e-4
-1.966, 6.688e-4
-1.967, 6.791e-4
-1.968, 6.893e-4
-1.969, 6.999e-4
-1.970, 7.104e-4
-1.971, 7.209e-4
-1.972, 7.319e-4
-1.973, 7.429e-4
-1.974, 7.540e-4
-1.975, 7.653e-4
-1.976, 7.769e-4
-1.977, 7.887e-4
-1.978, 8.007e-4
-1.979, 8.127e-4
-1.980, 8.249e-4
-1.981, 8.372e-4
-1.982, 8.496e-4
-1.983, 8.622e-4
-1.984, 8.749e-4
-1.985, 8.878e-4
-1.986, 9.007e-4
-1.987, 9.139e-4
-1.988, 9.275e-4
-1.989, 9.412e-4
-1.990, 9.549e-4
-1.991, 9.689e-4
-1.992, 9.830e-4
-1.993, 9.974e-4
-1.994, 1.012e-3
-1.995, 1.026e-3
-1.996, 1.041e-3
-1.997, 1.056e-3
-1.998, 1.071e-3
-1.999, 1.087e-3
-2.000, 1.102e-3
-2.001, 1.117e-3
-2.002, 1.133e-3
-2.003, 1.149e-3
-2.004, 1.165e-3
-2.005, 1.182e-3
-2.006, 1.198e-3
-2.007, 1.213e-3
-2.008, 1.230e-3
-2.009, 1.247e-3
-2.010, 1.264e-3
-2.011, 1.282e-3
-2.012, 1.300e-3
-2.013, 1.318e-3
-2.014, 1.336e-3
-2.015, 1.354e-3
-2.016, 1.372e-3
-2.017, 1.391e-3
-2.018, 1.410e-3
-2.019, 1.429e-3
-2.020, 1.448e-3
-2.021, 1.467e-3
-2.022, 1.487e-3
-2.023, 1.507e-3
-2.024, 1.527e-3
-2.025, 1.547e-3
-2.026, 1.567e-3
-2.027, 1.588e-3
-2.028, 1.609e-3
-2.029, 1.630e-3
-2.030, 1.652e-3
-2.031, 1.673e-3
-2.032, 1.695e-3
-2.033, 1.717e-3
-2.034, 1.739e-3
-2.035, 1.761e-3
-2.036, 1.783e-3
-2.037, 1.806e-3
-2.038, 1.828e-3
-2.039, 1.851e-3
-2.040, 1.874e-3
-2.041, 1.898e-3
-2.042, 1.921e-3
-2.043, 1.946e-3
-2.044, 1.969e-3
-2.045, 1.993e-3
-2.046, 2.017e-3
-2.047, 2.042e-3
-2.048, 2.068e-3
-2.049, 2.093e-3
-2.050, 2.119e-3
-2.051, 2.144e-3
-2.052, 2.170e-3
-2.053, 2.195e-3
-2.054, 2.221e-3
-2.055, 2.247e-3
-2.056, 2.274e-3
-2.057, 2.300e-3
-2.058, 2.327e-3
-2.059, 2.354e-3
-2.060, 2.382e-3
-2.061, 2.409e-3
-2.062, 2.437e-3
-2.063, 2.465e-3
-2.064, 2.494e-3
-2.065, 2.522e-3
-2.066, 2.550e-3
-2.067, 2.579e-3
-2.068, 2.607e-3
-2.069, 2.637e-3
-2.070, 2.666e-3
-2.071, 2.696e-3
-2.072, 2.725e-3
-2.073, 2.755e-3
-2.074, 2.785e-3
-2.075, 2.814e-3
-2.076, 2.846e-3
-2.077, 2.877e-3
-2.078, 2.911e-3
-2.079, 2.942e-3
-2.080, 2.973e-3
-2.081, 3.005e-3
-2.082, 3.037e-3
-2.083, 3.070e-3
-2.084, 3.103e-3
-2.085, 3.135e-3
-2.086, 3.168e-3
-2.087, 3.202e-3
-2.088, 3.236e-3
-2.089, 3.270e-3
-2.090, 3.304e-3
-2.091, 3.339e-3
-2.092, 3.373e-3
-2.093, 3.408e-3
-2.094, 3.444e-3
-2.095, 3.479e-3
-2.096, 3.515e-3
-2.097, 3.552e-3
-2.098, 3.589e-3
-2.099, 3.627e-3
-2.100, 3.663e-3
-2.101, 3.700e-3
-2.102, 3.739e-3
-2.103, 3.776e-3
-2.104, 3.813e-3
-2.105, 3.851e-3
-2.106, 3.889e-3
-2.107, 3.927e-3
-2.108, 3.965e-3
-2.109, 4.004e-3
-2.110, 4.042e-3
-2.111, 4.079e-3
-2.112, 4.119e-3
-2.113, 4.160e-3
-2.114, 4.198e-3
-2.115, 4.236e-3
-2.116, 4.274e-3
-2.117, 4.315e-3
-2.118, 4.354e-3
-2.119, 4.393e-3
-2.120, 4.434e-3
-2.121, 4.474e-3
-2.122, 4.515e-3
-2.123, 4.557e-3
-2.124, 4.597e-3
-2.125, 4.637e-3
-2.126, 4.678e-3
-2.127, 4.720e-3
-2.128, 4.764e-3
-2.129, 4.805e-3
-2.130, 4.846e-3
-2.131, 4.888e-3
-2.132, 4.930e-3
-2.133, 4.971e-3
-2.134, 5.013e-3
-2.135, 5.054e-3
-2.136, 5.097e-3
-2.137, 5.139e-3
-2.138, 5.182e-3
-2.139, 5.227e-3
-2.140, 5.277e-3
-2.141, 5.326e-3
-2.142, 5.373e-3
-2.143, 5.418e-3
-2.144, 5.463e-3
-2.145, 5.512e-3
-2.146, 5.562e-3
-2.147, 5.607e-3
-2.148, 5.653e-3
-2.149, 5.694e-3
-2.150, 5.734e-3
-2.151, 5.775e-3
-2.152, 5.817e-3
-2.153, 5.862e-3
-2.154, 5.900e-3
-2.155, 5.941e-3
-2.156, 5.980e-3
-2.157, 6.023e-3
-2.158, 6.064e-3
-2.159, 6.106e-3
-2.160, 6.147e-3
-2.161, 6.190e-3
-2.162, 6.231e-3
-2.163, 6.281e-3
-2.164, 6.329e-3
-2.165, 6.380e-3
-2.166, 6.429e-3
-2.167, 6.487e-3
-2.168, 6.543e-3
-2.169, 6.598e-3
-2.170, 6.651e-3
-2.171, 6.706e-3
-2.172, 6.764e-3
-2.173, 6.820e-3
-2.174, 6.872e-3
-2.175, 6.925e-3
-2.176, 6.984e-3
-2.177, 7.038e-3
-2.178, 7.094e-3
-2.179, 7.150e-3
-2.180, 7.195e-3
-2.181, 7.247e-3
-2.182, 7.304e-3
-2.183, 7.355e-3
-2.184, 7.404e-3
-2.185, 7.468e-3
-2.186, 7.515e-3
-2.187, 7.566e-3
-2.188, 7.615e-3
-2.189, 7.660e-3
-2.190, 7.713e-3
-2.191, 7.767e-3
-2.192, 7.827e-3
-2.193, 7.882e-3
-2.194, 7.948e-3
-2.195, 8.011e-3
-2.196, 8.071e-3
-2.197, 8.129e-3
-2.198, 8.184e-3
-2.199, 8.254e-3
-2.200, 8.267e-3
-2.199, 8.221e-3
-2.198, 8.176e-3
-2.197, 8.140e-3
-2.196, 8.135e-3
-2.195, 8.096e-3
-2.194, 8.049e-3
-2.193, 8.017e-3
-2.192, 7.977e-3
-2.191, 7.943e-3
-2.190, 7.910e-3
-2.189, 7.858e-3
-2.188, 7.809e-3
-2.187, 7.762e-3
-2.186, 7.713e-3
-2.185, 7.665e-3
-2.184, 7.616e-3
-2.183, 7.568e-3
-2.182, 7.519e-3
-2.181, 7.472e-3
-2.180, 7.417e-3
-2.179, 7.366e-3
-2.178, 7.316e-3
-2.177, 7.263e-3
-2.176, 7.215e-3
-2.175, 7.172e-3
-2.174, 7.129e-3
-2.173, 7.072e-3
-2.172, 7.024e-3
-2.171, 6.973e-3
-2.170, 6.919e-3
-2.169, 6.868e-3
-2.168, 6.827e-3
-2.167, 6.778e-3
-2.166, 6.733e-3
-2.165, 6.696e-3
-2.164, 6.654e-3
-2.163, 6.613e-3
-2.162, 6.569e-3
-2.161, 6.523e-3
-2.160, 6.477e-3
-2.159, 6.432e-3
-2.158, 6.386e-3
-2.157, 6.340e-3
-2.156, 6.295e-3
-2.155, 6.251e-3
-2.154, 6.204e-3
-2.153, 6.162e-3
-2.152, 6.117e-3
-2.151, 6.073e-3
-2.150, 6.031e-3
-2.149, 5.987e-3
-2.148, 5.957e-3
-2.147, 5.920e-3
-2.146, 5.877e-3
-2.145, 5.834e-3
-2.144, 5.792e-3
-2.143, 5.761e-3
-2.142, 5.740e-3
-2.141, 5.703e-3
-2.140, 5.662e-3
-2.139, 5.622e-3
-2.138, 5.581e-3
-2.137, 5.539e-3
-2.136, 5.502e-3
-2.135, 5.459e-3
-2.134, 5.422e-3
-2.133, 5.381e-3
-2.132, 5.341e-3
-2.131, 5.301e-3
-2.130, 5.259e-3
-2.129, 5.216e-3
-2.128, 5.172e-3
-2.127, 5.129e-3
-2.126, 5.090e-3
-2.125, 5.048e-3
-2.124, 5.007e-3
-2.123, 4.966e-3
-2.122, 4.928e-3
-2.121, 4.887e-3
-2.120, 4.853e-3
-2.119, 4.813e-3
-2.118, 4.774e-3
-2.117, 4.747e-3
-2.116, 4.708e-3
-2.115, 4.676e-3
-2.114, 4.647e-3
-2.113, 4.617e-3
-2.112, 4.584e-3
-2.111, 4.550e-3
-2.110, 4.513e-3
-2.109, 4.475e-3
-2.108, 4.440e-3
-2.107, 4.410e-3
-2.106, 4.376e-3
-2.105, 4.342e-3
-2.104, 4.308e-3
-2.103, 4.272e-3
-2.102, 4.238e-3
-2.101, 4.203e-3
-2.100, 4.167e-3
-2.099, 4.133e-3
-2.098, 4.100e-3
-2.097, 4.067e-3
-2.096, 4.035e-3
-2.095, 4.003e-3
-2.094, 3.968e-3
-2.093, 3.935e-3
-2.092, 3.900e-3
-2.091, 3.866e-3
-2.090, 3.832e-3
-2.089, 3.801e-3
-2.088, 3.768e-3
-2.087, 3.737e-3
-2.086, 3.706e-3
-2.085, 3.676e-3
-2.084, 3.644e-3
-2.083, 3.613e-3
-2.082, 3.583e-3
-2.081, 3.554e-3
-2.080, 3.523e-3
-2.079, 3.493e-3
-2.078, 3.463e-3
-2.077, 3.435e-3
-2.076, 3.406e-3
-2.075, 3.378e-3
-2.074, 3.351e-3
-2.073, 3.321e-3
-2.072, 3.291e-3
-2.071, 3.261e-3
-2.070, 3.231e-3
-2.069, 3.203e-3
-2.068, 3.174e-3
-2.067, 3.146e-3
-2.066, 3.121e-3
-2.065, 3.094e-3
-2.064, 3.066e-3
-2.063, 3.038e-3
-2.062, 3.012e-3
-2.061, 2.987e-3
-2.060, 2.960e-3
-2.059, 2.934e-3
-2.058, 2.908e-3
-2.057, 2.883e-3
-2.056, 2.858e-3
-2.055, 2.832e-3
-2.054, 2.806e-3
-2.053, 2.782e-3
-2.052, 2.757e-3
-2.051, 2.733e-3
-2.050, 2.708e-3
-2.049, 2.683e-3
-2.048, 2.658e-3
-2.047, 2.634e-3
-2.046, 2.610e-3
-2.045, 2.586e-3
-2.044, 2.561e-3
-2.043, 2.537e-3
-2.042, 2.513e-3
-2.041, 2.488e-3
-2.040, 2.464e-3
-2.039, 2.440e-3
-2.038, 2.417e-3
-2.037, 2.393e-3
-2.036, 2.369e-3
-2.035, 2.346e-3
-2.034, 2.324e-3
-2.033, 2.301e-3
-2.032, 2.278e-3
-2.031, 2.256e-3
-2.030, 2.234e-3
-2.029, 2.213e-3
-2.028, 2.192e-3
-2.027, 2.172e-3
-2.026, 2.151e-3
-2.025, 2.130e-3
-2.024, 2.110e-3
-2.023, 2.089e-3
-2.022, 2.069e-3
-2.021, 2.050e-3
-2.020, 2.029e-3
-2.019, 2.009e-3
-2.018, 1.991e-3
-2.017, 1.972e-3
-2.016, 1.952e-3
-2.015, 1.933e-3
-2.014, 1.913e-3
-2.013, 1.894e-3
-2.012, 1.876e-3
-2.011, 1.858e-3
-2.010, 1.839e-3
-2.009, 1.820e-3
-2.008, 1.802e-3
-2.007, 1.784e-3
-2.006, 1.766e-3
-2.005, 1.748e-3
-2.004, 1.730e-3
-2.003, 1.712e-3
-2.002, 1.695e-3
-2.001, 1.678e-3
-2.000, 1.661e-3
-1.999, 1.644e-3
-1.998, 1.628e-3
-1.997, 1.610e-3
-1.996, 1.593e-3
-1.995, 1.575e-3
-1.994, 1.559e-3
-1.993, 1.543e-3
-1.992, 1.528e-3
-1.991, 1.513e-3
-1.990, 1.496e-3
-1.989, 1.480e-3
-1.988, 1.465e-3
-1.987, 1.450e-3
-1.986, 1.434e-3
-1.985, 1.419e-3
-1.984, 1.404e-3
-1.983, 1.389e-3
-1.982, 1.374e-3
-1.981, 1.359e-3
-1.980, 1.344e-3
-1.979, 1.329e-3
-1.978, 1.315e-3
-1.977, 1.301e-3
-1.976, 1.287e-3
-1.975, 1.272e-3
-1.974, 1.258e-3
-1.973, 1.245e-3
-1.972, 1.231e-3
-1.971, 1.217e-3
-1.970, 1.204e-3
-1.969, 1.191e-3
-1.968, 1.178e-3
-1.967, 1.165e-3
-1.966, 1.152e-3
-1.965, 1.138e-3
-1.964, 1.125e-3
-1.963, 1.112e-3
-1.962, 1.100e-3
-1.961, 1.087e-3
-1.960, 1.074e-3
-1.959, 1.062e-3
-1.958, 1.050e-3
-1.957, 1.038e-3
-1.956, 1.026e-3
-1.955, 1.015e-3
-1.954, 1.004e-3
-1.953, 9.923e-4
-1.952, 9.808e-4
-1.951, 9.692e-4
-1.950, 9.577e-4
-1.949, 9.463e-4
-1.948, 9.352e-4
-1.947, 9.242e-4
-1.946, 9.131e-4
-1.945, 9.025e-4
-1.944, 8.917e-4
-1.943, 8.815e-4
-1.942, 8.706e-4
-1.941, 8.601e-4
-1.940, 8.500e-4
-1.939, 8.401e-4
-1.938, 8.298e-4
-1.937, 8.197e-4
-1.936, 8.098e-4
-1.935, 8.002e-4
-1.934, 7.907e-4
-1.933, 7.812e-4
-1.932, 7.717e-4
-1.931, 7.624e-4
-1.930, 7.533e-4
-1.929, 7.440e-4
-1.928, 7.353e-4
-1.927, 7.265e-4
-1.926, 7.175e-4
-1.925, 7.087e-4
-1.924, 7.003e-4
-1.923, 6.918e-4
-1.922, 6.833e-4
-1.921, 6.750e-4
-1.920, 6.664e-4
-1.919, 6.580e-4
-1.918, 6.498e-4
-1.917, 6.414e-4
-1.916, 6.333e-4
-1.915, 6.254e-4
-1.914, 6.177e-4
-1.913, 6.100e-4
-1.912, 6.023e-4
-1.911, 5.948e-4
-1.910, 5.872e-4
-1.909, 5.797e-4
-1.908, 5.724e-4
-1.907, 5.650e-4
-1.906, 5.577e-4
-1.905, 5.504e-4
-1.904, 5.433e-4
-1.903, 5.364e-4
-1.902, 5.292e-4
-1.901, 5.221e-4
-1.900, 5.152e-4
-1.899, 5.083e-4
-1.898, 5.016e-4
-1.897, 4.950e-4
-1.896, 4.884e-4
-1.895, 4.820e-4
-1.894, 4.753e-4
-1.893, 4.690e-4
-1.892, 4.627e-4
-1.891, 4.566e-4
-1.890, 4.506e-4
-1.889, 4.444e-4
-1.888, 4.384e-4
-1.887, 4.326e-4
-1.886, 4.268e-4
-1.885, 4.212e-4
-1.884, 4.155e-4
-1.883, 4.101e-4
-1.882, 4.045e-4
-1.881, 3.989e-4
-1.880, 3.935e-4
-1.879, 3.882e-4
-1.878, 3.830e-4
-1.877, 3.776e-4
-1.876, 3.724e-4
-1.875, 3.672e-4
-1.874, 3.619e-4
-1.873, 3.568e-4
-1.872, 3.519e-4
-1.871, 3.471e-4
-1.870, 3.421e-4
-1.869, 3.370e-4
-1.868, 3.323e-4
-1.867, 3.276e-4
-1.866, 3.228e-4
-1.865, 3.182e-4
-1.864, 3.137e-4
-1.863, 3.093e-4
-1.862, 3.048e-4
-1.861, 3.004e-4
-1.860, 2.962e-4
-1.859, 2.919e-4
-1.858, 2.877e-4
-1.857, 2.836e-4
-1.856, 2.792e-4
-1.855, 2.752e-4
-1.854, 2.712e-4
-1.853, 2.672e-4
-1.852, 2.633e-4
-1.851, 2.593e-4
-1.850, 2.555e-4
-1.849, 2.516e-4
-1.848, 2.480e-4
-1.847, 2.444e-4
-1.846, 2.408e-4
-1.845, 2.373e-4
-1.844, 2.336e-4
-1.843, 2.301e-4
-1.842, 2.267e-4
-1.841, 2.233e-4
-1.840, 2.200e-4
-1.839, 2.168e-4
-1.838, 2.137e-4
-1.837, 2.104e-4
-1.836, 2.072e-4
-1.835, 2.040e-4
-1.834, 2.008e-4
-1.833, 1.979e-4
-1.832, 1.948e-4
-1.831, 1.917e-4
-1.830, 1.886e-4
-1.829, 1.858e-4
-1.828, 1.829e-4
-1.827, 1.800e-4
-1.826, 1.772e-4
-1.825, 1.745e-4
-1.824, 1.716e-4
-1.823, 1.690e-4
-1.822, 1.662e-4
-1.821, 1.634e-4
-1.820, 1.607e-4
-1.819, 1.581e-4
-1.818, 1.557e-4
-1.817, 1.532e-4
-1.816, 1.509e-4
-1.815, 1.485e-4
-1.814, 1.461e-4
-1.813, 1.438e-4
-1.812, 1.414e-4
-1.811, 1.390e-4
-1.810, 1.368e-4
-1.809, 1.346e-4
-1.808, 1.324e-4
-1.807, 1.303e-4
-1.806, 1.281e-4
-1.805, 1.260e-4
-1.804, 1.239e-4
-1.803, 1.220e-4
-1.802, 1.198e-4
-1.801, 1.179e-4
-1.800, 1.161e-4
-1.799, 1.142e-4
-1.798, 1.123e-4
-1.797, 1.105e-4
-1.796, 1.087e-4
-1.795, 1.070e-4
-1.794, 1.051e-4
-1.793, 1.036e-4
-1.792, 1.018e-4
-1.791, 1.001e-4
-1.790, 9.837e-5
-1.789, 9.672e-5
-1.788, 9.519e-5
-1.787, 9.350e-5
-1.786, 9.179e-5
-1.785, 9.030e-5
-1.784, 8.871e-5
-1.783, 8.729e-5
-1.782, 8.573e-5
-1.781, 8.429e-5
-1.780, 8.281e-5
-1.779, 8.136e-5
-1.778, 8.009e-5
-1.777, 7.868e-5
-1.776, 7.744e-5
-1.775, 7.622e-5
-1.774, 7.486e-5
-1.773, 7.370e-5
-1.772, 7.249e-5
-1.771, 7.126e-5
-1.770, 7.011e-5
-1.769, 6.882e-5
-1.768, 6.778e-5
-1.767, 6.654e-5
-1.766, 6.545e-5
-1.765, 6.433e-5
-1.764, 6.318e-5
-1.763, 6.215e-5
-1.762, 6.111e-5
-1.761, 6.000e-5
-1.760, 5.901e-5
-1.759, 5.785e-5
-1.758, 5.689e-5
-1.757, 5.589e-5
-1.756, 5.492e-5
-1.755, 5.405e-5
-1.754, 5.315e-5
-1.753, 5.229e-5
-1.752, 5.119e-5
-1.751, 5.028e-5
-1.750, 4.915e-5
-1.749, 4.810e-5
-1.748, 4.741e-5
-1.747, 4.659e-5
-1.746, 4.573e-5
-1.745, 4.500e-5
-1.744, 4.414e-5
-1.743, 4.354e-5
-1.742, 4.270e-5
-1.741, 4.185e-5
-1.740, 4.115e-5
-1.739, 4.036e-5
-1.738, 3.978e-5
-1.737, 3.899e-5
-1.736, 3.832e-5
-1.735, 3.772e-5
-1.734, 3.695e-5
-1.733, 3.636e-5
-1.732, 3.566e-5
-1.731, 3.501e-5
-1.730, 3.440e-5
-1.729, 3.377e-5
-1.728, 3.309e-5
-1.727, 3.254e-5
-1.726, 3.201e-5
-1.725, 3.151e-5
-1.724, 3.087e-5
-1.723, 3.036e-5
-1.722, 2.979e-5
-1.721, 2.929e-5
-1.720, 2.885e-5
-1.719, 2.819e-5
-1.718, 2.781e-5
-1.717, 2.736e-5
-1.716, 2.672e-5
-1.715, 2.628e-5
-1.714, 2.580e-5
-1.713, 2.541e-5
-1.712, 2.498e-5
-1.711, 2.449e-5
-1.710, 2.407e-5
-1.709, 2.360e-5
-1.708, 2.322e-5
-1.707, 2.281e-5
-1.706, 2.244e-5
-1.705, 2.207e-5
-1.704, 2.168e-5
-1.703, 2.133e-5
-1.702, 2.089e-5
-1.701, 2.053e-5
-1.700, 2.027e-5
-1.699, 1.990e-5
-1.698, 1.961e-5
-1.697, 1.919e-5
-1.696, 1.884e-5
-1.695, 1.858e-5
-1.694, 1.822e-5
-1.693, 1.788e-5
-1.692, 1.764e-5
-1.691, 1.731e-5
-1.690, 1.696e-5
-1.689, 1.667e-5
-1.688, 1.641e-5
-1.687, 1.617e-5
-1.686, 1.594e-5
-1.685, 1.564e-5
-1.684, 1.537e-5
-1.683, 1.518e-5
-1.682, 1.486e-5
-1.681, 1.467e-5
-1.680, 1.450e-5
-1.679, 1.421e-5
-1.678, 1.402e-5
-1.677, 1.380e-5
-1.676, 1.351e-5
-1.675, 1.340e-5
-1.674, 1.307e-5
-1.673, 1.289e-5
-1.672, 1.273e-5
-1.671, 1.255e-5
-1.670, 1.232e-5
-1.669, 1.209e-5
-1.668, 1.200e-5
-1.667, 1.170e-5
-1.666, 1.164e-5
-1.665, 1.148e-5
-1.664, 1.117e-5
-1.663, 1.105e-5
-1.662, 1.087e-5
-1.661, 1.076e-5
-1.660, 1.064e-5
-1.659, 1.042e-5
-1.658, 1.030e-5
-1.657, 1.001e-5
-1.656, 9.982e-6
-1.655, 9.903e-6
-1.654, 9.765e-6
-1.653, 9.627e-6
-1.652, 9.469e-6
-1.651, 9.282e-6
-1.650, 9.104e-6
-1.649, 9.075e-6
-1.648, 8.966e-6
-1.647, 8.720e-6
-1.646, 8.670e-6
-1.645, 8.522e-6
-1.644, 8.384e-6
-1.643, 8.354e-6
-1.642, 8.177e-6
-1.641, 8.128e-6
-1.640, 7.980e-6
-1.639, 7.802e-6
-1.638, 7.624e-6
-1.637, 7.496e-6
-1.636, 7.358e-6
-1.635, 7.319e-6
-1.634, 7.279e-6
-1.633, 7.210e-6
-1.632, 7.023e-6
-1.631, 6.973e-6
-1.630, 7.003e-6
-1.629, 6.776e-6
-1.628, 6.756e-6
-1.627, 6.579e-6
-1.626, 6.529e-6
-1.625, 6.450e-6
-1.624, 6.342e-6
-1.623, 6.421e-6
-1.622, 6.263e-6
-1.621, 6.085e-6
-1.620, 6.075e-6
-1.619, 5.967e-6
-1.618, 5.937e-6
-1.617, 5.868e-6
-1.616, 5.779e-6
-1.615, 5.710e-6
-1.614, 5.513e-6
-1.613, 5.474e-6
-1.612, 5.444e-6
-1.611, 5.257e-6
-1.610, 5.414e-6
-1.609, 5.217e-6
-1.608, 5.296e-6
-1.607, 5.188e-6
-1.606, 5.118e-6
-1.605, 5.059e-6
-1.604, 5.030e-6
-1.603, 5.040e-6
-1.602, 4.882e-6
-1.601, 4.842e-6
-1.600, 4.763e-6
-1.599, 4.773e-6
-1.598, 4.714e-6
-1.597, 4.487e-6
-1.596, 4.448e-6
-1.595, 4.398e-6
-1.594, 4.438e-6
-1.593, 4.526e-6
-1.592, 4.507e-6
-1.591, 4.457e-6
-1.590, 4.369e-6
-1.589, 4.448e-6
-1.588, 4.290e-6
-1.587, 4.211e-6
-1.586, 4.152e-6
-1.585, 4.112e-6
-1.584, 4.132e-6
-1.583, 4.112e-6
-1.582, 4.033e-6
-1.581, 3.994e-6
-1.580, 3.895e-6
-1.579, 3.915e-6
-1.578, 3.935e-6
-1.577, 3.885e-6
-1.576, 3.826e-6
-1.575, 3.836e-6
-1.574, 3.737e-6
-1.573, 3.708e-6
-1.572, 3.599e-6
-1.571, 3.678e-6
-1.570, 3.668e-6
-1.569, 3.550e-6
-1.568, 3.550e-6
-1.567, 3.500e-6
-1.566, 3.500e-6
-1.565, 3.500e-6
-1.564, 3.510e-6
-1.563, 3.510e-6
-1.562, 3.392e-6
-1.561, 3.352e-6
-1.560, 3.244e-6
-1.559, 3.264e-6
-1.558, 3.382e-6
-1.557, 3.195e-6
-1.556, 3.244e-6
-1.555, 3.234e-6
-1.554, 3.165e-6
-1.553, 3.165e-6
-1.552, 3.106e-6
-1.551, 3.175e-6
-1.550, 3.116e-6
-1.549, 3.007e-6
-1.548, 3.047e-6
-1.547, 2.968e-6
-1.546, 2.908e-6
-1.545, 2.958e-6
-1.544, 2.938e-6
-1.543, 3.027e-6
-1.542, 2.908e-6
-1.541, 2.908e-6
-1.540, 2.908e-6
-1.539, 2.800e-6
-1.538, 2.879e-6
-1.537, 2.889e-6
-1.536, 2.820e-6
-1.535, 2.711e-6
-1.534, 2.790e-6
-1.533, 2.721e-6
-1.532, 2.672e-6
-1.531, 2.760e-6
-1.530, 2.652e-6
-1.529, 2.632e-6
-1.528, 2.751e-6
-1.527, 2.622e-6
-1.526, 2.593e-6
-1.525, 2.573e-6
-1.524, 2.593e-6
-1.523, 2.553e-6
-1.522, 2.524e-6
-1.521, 2.553e-6
-1.520, 2.514e-6
-1.519, 2.534e-6
-1.518, 2.593e-6
-1.517, 2.395e-6
-1.516, 2.307e-6
-1.515, 2.376e-6
-1.514, 2.386e-6
-1.513, 2.445e-6
-1.512, 2.346e-6
-1.511, 2.346e-6
-1.510, 2.317e-6
-1.509, 2.356e-6
-1.508, 2.405e-6
-1.507, 2.307e-6
-1.506, 2.366e-6
-1.505, 2.287e-6
-1.504, 2.247e-6
-1.503, 2.336e-6
-1.502, 2.228e-6
-1.501, 2.257e-6
-1.500, 2.267e-6
-1.499, 2.257e-6
-1.498, 2.238e-6
-1.497, 2.188e-6
-1.496, 2.109e-6
-1.495, 2.257e-6
-1.494, 2.169e-6
-1.493, 2.228e-6
-1.492, 2.109e-6
-1.491, 2.198e-6
-1.490, 2.119e-6
-1.489, 2.129e-6
-1.488, 2.129e-6
-1.487, 2.188e-6
-1.486, 2.119e-6
-1.485, 2.080e-6
-1.484, 2.050e-6
-1.483, 2.030e-6
-1.482, 2.021e-6
-1.481, 2.021e-6
-1.480, 2.099e-6
-1.479, 2.030e-6
-1.478, 2.030e-6
-1.477, 2.001e-6
-1.476, 2.030e-6
-1.475, 1.951e-6
-1.474, 1.991e-6
-1.473, 1.942e-6
-1.472, 1.981e-6
-1.471, 1.961e-6
-1.470, 1.981e-6
-1.469, 1.912e-6
-1.468, 1.981e-6
-1.467, 1.942e-6
-1.466, 1.942e-6
-1.465, 1.873e-6
-1.464, 1.863e-6
-1.463, 1.971e-6
-1.462, 1.863e-6
-1.461, 1.882e-6
-1.460, 1.892e-6
-1.459, 1.803e-6
-1.458, 1.853e-6
-1.457, 1.863e-6
-1.456, 1.803e-6
-1.455, 1.833e-6
-1.454, 1.734e-6
-1.453, 1.803e-6
-1.452, 1.656e-6
-1.451, 1.813e-6
-1.450, 1.784e-6
-1.449, 1.734e-6
-1.448, 1.853e-6
-1.447, 1.734e-6
-1.446, 1.685e-6
-1.445, 1.675e-6
-1.444, 1.794e-6
-1.443, 1.784e-6
-1.442, 1.764e-6
-1.441, 1.754e-6
-1.440, 1.744e-6
-1.439, 1.734e-6
-1.438, 1.715e-6
-1.437, 1.725e-6
-1.436, 1.695e-6
-1.435, 1.715e-6
-1.434, 1.577e-6
-1.433, 1.616e-6
-1.432, 1.626e-6
-1.431, 1.586e-6
-1.430, 1.567e-6
-1.429, 1.586e-6
-1.428, 1.646e-6
-1.427, 1.458e-6
-1.426, 1.517e-6
-1.425, 1.498e-6
-1.424, 1.488e-6
-1.423, 1.498e-6
-1.422, 1.517e-6
-1.421, 1.438e-6
-1.420, 1.399e-6
-1.419, 1.409e-6
-1.418, 1.478e-6
-1.417, 1.448e-6
-1.416, 1.360e-6
-1.415, 1.320e-6
-1.414, 1.438e-6
-1.413, 1.379e-6
-1.412, 1.320e-6
-1.411, 1.330e-6
-1.410, 1.350e-6
-1.409, 1.231e-6
-1.408, 1.350e-6
-1.407, 1.251e-6
-1.406, 1.350e-6
-1.405, 1.281e-6
-1.404, 1.389e-6
-1.403, 1.517e-6
-1.402, 1.379e-6
-1.401, 1.379e-6
-1.400, 1.300e-6
-1.399, 1.360e-6
-1.398, 1.379e-6
-1.397, 1.379e-6
-1.396, 1.409e-6
-1.395, 1.360e-6
-1.394, 1.241e-6
-1.393, 1.419e-6
-1.392, 1.310e-6
-1.391, 1.379e-6
-1.390, 1.419e-6
-1.389, 1.300e-6
-1.388, 1.379e-6
-1.387, 1.290e-6
-1.386, 1.369e-6
-1.385, 1.310e-6
-1.384, 1.300e-6
-1.383, 1.310e-6
-1.382, 1.261e-6
-1.381, 1.300e-6
-1.380, 1.271e-6
-1.379, 1.221e-6
-1.378, 1.261e-6
-1.377, 1.202e-6
-1.376, 1.231e-6
-1.375, 1.290e-6
-1.374, 1.182e-6
-1.373, 1.271e-6
-1.372, 1.261e-6
-1.371, 1.212e-6
-1.370, 1.221e-6
-1.369, 1.212e-6
-1.368, 1.221e-6
-1.367, 1.192e-6
-1.366, 1.202e-6
-1.365, 1.221e-6
-1.364, 1.142e-6
-1.363, 1.202e-6
-1.362, 1.182e-6
-1.361, 1.221e-6
-1.360, 1.172e-6
-1.359, 1.212e-6
-1.358, 1.251e-6
-1.357, 1.113e-6
-1.356, 1.192e-6
-1.355, 1.103e-6
-1.354, 1.182e-6
-1.353, 1.221e-6
-1.352, 1.202e-6
-1.351, 1.152e-6
-1.350, 1.113e-6
-1.349, 1.152e-6
-1.348, 1.152e-6
-1.347, 1.133e-6
-1.346, 1.142e-6
-1.345, 1.192e-6
-1.344, 1.172e-6
-1.343, 1.133e-6
-1.342, 1.073e-6
-1.341, 1.152e-6
-1.340, 1.123e-6
-1.339, 1.133e-6
-1.338, 1.152e-6
-1.337, 1.044e-6
-1.336, 1.093e-6
-1.335, 1.034e-6
-1.334, 1.113e-6
-1.333, 1.113e-6
-1.332, 1.123e-6
-1.331, 1.073e-6
-1.330, 9.846e-7
-1.329, 1.083e-6
-1.328, 1.123e-6
-1.327, 1.064e-6
-1.326, 1.083e-6
-1.325, 1.044e-6
-1.324, 9.550e-7
-1.323, 1.093e-6
-1.322, 1.014e-6
-1.321, 1.044e-6
-1.320, 1.044e-6
-1.319, 1.073e-6
-1.318, 1.044e-6
-1.317, 1.064e-6
-1.316, 1.024e-6
-1.315, 9.945e-7
-1.314, 1.044e-6
-1.313, 1.093e-6
-1.312, 1.004e-6
-1.311, 1.014e-6
-1.310, 1.024e-6
-1.309, 1.014e-6
-1.308, 1.024e-6
-1.307, 1.034e-6
-1.306, 9.748e-7
-1.305, 1.024e-6
-1.304, 1.014e-6
-1.303, 1.034e-6
-1.302, 9.452e-7
-1.301, 1.014e-6
-1.300, 1.054e-6
-1.299, 9.353e-7
-1.298, 1.073e-6
-1.297, 9.452e-7
-1.296, 9.748e-7
-1.295, 9.945e-7
-1.294, 1.004e-6
-1.293, 1.004e-6
-1.292, 9.550e-7
-1.291, 9.846e-7
-1.290, 9.353e-7
-1.289, 1.034e-6
-1.288, 1.004e-6
-1.287, 1.034e-6
-1.286, 9.353e-7
-1.285, 9.945e-7
-1.284, 9.945e-7
-1.283, 9.254e-7
-1.282, 9.353e-7
-1.281, 9.452e-7
-1.280, 9.353e-7
-1.279, 9.353e-7
-1.278, 1.004e-6
-1.277, 8.860e-7
-1.276, 1.014e-6
-1.275, 9.550e-7
-1.274, 9.452e-7
-1.273, 9.353e-7
-1.272, 9.748e-7
-1.271, 8.860e-7
-1.270, 9.353e-7
-1.269, 9.254e-7
-1.268, 9.649e-7
-1.267, 9.550e-7
-1.266, 9.254e-7
-1.265, 9.353e-7
-1.264, 9.156e-7
-1.263, 9.452e-7
-1.262, 9.057e-7
-1.261, 1.004e-6
-1.260, 9.057e-7
-1.259, 8.860e-7
-1.258, 9.452e-7
-1.257, 8.366e-7
-1.256, 8.958e-7
-1.255, 9.846e-7
-1.254, 9.452e-7
-1.253, 9.945e-7
-1.252, 8.958e-7
-1.251, 9.550e-7
-1.250, 8.662e-7
-1.249, 8.465e-7
-1.248, 9.452e-7
-1.247, 8.465e-7
-1.246, 9.156e-7
-1.245, 9.353e-7
-1.244, 9.649e-7
-1.243, 8.958e-7
-1.242, 8.169e-7
-1.241, 8.958e-7
-1.240, 7.676e-7
-1.239, 8.564e-7
-1.238, 8.268e-7
-1.237, 8.662e-7
-1.236, 9.156e-7
-1.235, 8.564e-7
-1.234, 8.761e-7
-1.233, 9.353e-7
-1.232, 8.169e-7
-1.231, 9.156e-7
-1.230, 9.254e-7
-1.229, 7.774e-7
-1.228, 8.268e-7
-1.227, 8.169e-7
-1.226, 8.268e-7
-1.225, 7.972e-7
-1.224, 7.972e-7
-1.223, 7.774e-7
-1.222, 8.366e-7
-1.221, 7.774e-7
-1.220, 8.070e-7
-1.219, 7.774e-7
-1.218, 8.366e-7
-1.217, 7.774e-7
-1.216, 7.676e-7
-1.215, 7.774e-7
-1.214, 7.182e-7
-1.213, 7.478e-7
-1.212, 8.268e-7
-1.211, 7.972e-7
-1.210, 7.084e-7
-1.209, 8.366e-7
-1.208, 7.972e-7
-1.207, 7.380e-7
-1.206, 7.676e-7
-1.205, 7.873e-7
-1.204, 7.972e-7
-1.203, 6.985e-7
-1.202, 7.380e-7
-1.201, 6.097e-7
-1.200, 7.084e-7
-1.199, 6.788e-7
-1.198, 7.281e-7
-1.197, 6.886e-7
-1.196, 7.182e-7
-1.195, 7.182e-7
-1.194, 7.281e-7
-1.193, 7.380e-7
-1.192, 7.380e-7
-1.191, 6.097e-7
-1.190, 6.492e-7
-1.189, 6.985e-7
-1.188, 6.294e-7
-1.187, 6.886e-7
-1.186, 7.281e-7
-1.185, 6.985e-7
-1.184, 5.900e-7
-1.183, 6.393e-7
-1.182, 6.492e-7
-1.181, 6.886e-7
-1.180, 6.097e-7
-1.179, 5.998e-7
-1.178, 6.097e-7
-1.177, 5.505e-7
-1.176, 6.689e-7
-1.175, 5.703e-7
-1.174, 6.492e-7
-1.173, 5.900e-7
-1.172, 6.097e-7
-1.171, 5.505e-7
-1.170, 5.801e-7
-1.169, 6.097e-7
-1.168, 5.505e-7
-1.167, 6.294e-7
-1.166, 6.590e-7
-1.165, 5.900e-7
-1.164, 4.617e-7
-1.163, 5.801e-7
-1.162, 5.012e-7
-1.161, 6.294e-7
-1.160, 5.505e-7
-1.159, 5.407e-7
-1.158, 5.407e-7
-1.157, 5.407e-7
-1.156, 5.308e-7
-1.155, 5.111e-7
-1.154, 5.505e-7
-1.153, 5.505e-7
-1.152, 4.519e-7
-1.151, 5.111e-7
-1.150, 4.420e-7
-1.149, 5.900e-7
-1.148, 4.815e-7
-1.147, 4.617e-7
-1.146, 4.716e-7
-1.145, 3.729e-7
-1.144, 4.815e-7
-1.143, 4.815e-7
-1.142, 3.828e-7
-1.141, 4.321e-7
-1.140, 4.321e-7
-1.139, 4.420e-7
-1.138, 4.025e-7
-1.137, 3.729e-7
-1.136, 4.519e-7
-1.135, 3.236e-7
-1.134, 5.308e-7
-1.133, 3.532e-7
-1.132, 3.236e-7
-1.131, 4.223e-7
-1.130, 4.420e-7
-1.129, 4.617e-7
-1.128, 3.532e-7
-1.127, 3.631e-7
-1.126, 3.335e-7
-1.125, 3.335e-7
-1.124, 3.236e-7
-1.123, 3.631e-7
-1.122, 3.335e-7
-1.121, 3.532e-7
-1.120, 2.940e-7
-1.119, 3.335e-7
-1.118, 3.236e-7
-1.117, 2.841e-7
-1.116, 4.025e-7
-1.115, 3.828e-7
-1.114, 3.137e-7
-1.113, 2.348e-7
-1.112, 2.447e-7
-1.111, 2.348e-7
-1.110, 3.335e-7
-1.109, 3.236e-7
-1.108, 2.052e-7
-1.107, 1.559e-7
-1.106, 2.545e-7
-1.105, 1.657e-7
-1.104, 2.545e-7
-1.103, 1.756e-7
-1.102, 2.151e-7
-1.101, 2.940e-7
-1.100, 1.362e-7
-1.099, 1.953e-7
-1.098, 1.657e-7
-1.097, 1.559e-7
-1.096, 2.249e-7
-1.095, 2.348e-7
-1.094, 1.657e-7
-1.093, 1.263e-7
-1.092, 9.669e-8
-1.091, 1.460e-7
-1.090, 2.762e-8
-1.089, 2.052e-7
-1.088, 5.722e-8
-1.087, 1.263e-7
-1.086, 1.164e-7
-1.085, 7.695e-8
-1.084, 1.066e-7
-1.083, 8.682e-8
-1.082, 6.709e-8
-1.081, 2.762e-8
-1.080, 2.762e-8
-1.079, 1.263e-7
-1.078, 5.722e-8
-1.077, 3.749e-8
-1.076, 9.669e-8
-1.075, -4.144e-8
-1.074, 6.709e-8
-1.073, -1.184e-8
-1.072, -7.103e-8
-1.071, 7.695e-8
-1.070, -7.103e-8
-1.069, 5.722e-8
-1.068, -5.130e-8
-1.067, -6.117e-8
-1.066, -1.184e-8
-1.065, -2.171e-8
-1.064, 3.749e-8
-1.063, -6.117e-8
-1.062, -1.598e-7
-1.061, -5.130e-8
-1.060, -1.500e-7
-1.059, -4.144e-8
-1.058, -5.130e-8
-1.057, -8.090e-8
-1.056, -5.130e-8
-1.055, -1.204e-7
-1.054, -9.077e-8
-1.053, -1.401e-7
-1.052, -9.077e-8
-1.051, -9.077e-8
-1.050, -1.598e-7
-1.049, -1.598e-7
-1.048, -1.302e-7
-1.047, -2.289e-7
-1.046, -1.796e-7
-1.045, -2.190e-7
-1.044, -1.204e-7
-1.043, -2.388e-7
-1.042, -1.204e-7
-1.041, -1.204e-7
-1.040, -1.796e-7
-1.039, -1.302e-7
-1.038, -1.993e-7
-1.037, -2.388e-7
-1.036, -2.585e-7
-1.035, -1.204e-7
-1.034, -2.684e-7
-1.033, -2.782e-7
-1.032, -1.894e-7
-1.031, -1.302e-7
-1.030, -2.388e-7
-1.029, -1.006e-7
-1.028, -3.473e-7
-1.027, -3.177e-7
-1.026, -1.796e-7
-1.025, -2.684e-7
-1.024, -3.473e-7
-1.023, -4.163e-7
-1.022, -2.684e-7
-1.021, -3.275e-7
-1.020, -3.275e-7
-1.019, -2.388e-7
-1.018, -3.769e-7
-1.017, -3.571e-7
-1.016, -4.065e-7
-1.015, -3.177e-7
-1.014, -3.177e-7
-1.013, -3.275e-7
-1.012, -3.867e-7
-1.011, -3.177e-7
-1.010, -3.966e-7
-1.009, -3.473e-7
-1.008, -4.854e-7
-1.007, -4.163e-7
-1.006, -3.670e-7
-1.005, -3.670e-7
-1.004, -3.473e-7
-1.003, -4.065e-7
-1.002, -3.571e-7
-1.001, -4.262e-7
