Jan. 8, 2025   21:37:23
Cyclic Voltammetry
File: c:/users/guazh/data/banditlqround7_x0exp772_r5/2025-01-08-exp802\exp802-2025-01-08t21_27_07-arkoh\exp802_cv_sr_300mvs_efin_-1500mv.bin
Data Source:  Experiment
Instrument Model:  CHI760E
Header: CV ran at 300 mVs
Note: 

Init E (V) = -1
High E (V) = -1
Low E (V) = -1.5
Final E (V) = -1
Init P/N = N
Scan Rate (V/s) = 0.3
Segment = 3
Sample Interval (V) = 0.001
Quiet Time (sec) = 2
Sensitivity (A/V) = 0.01
Comp R (ohm) = 1.6

Results:

Channel 1:
Segment 1:

Segment 2:

Segment 3:

Potential/V, Current/A

-1.000, -1.787e-4
-1.001, -1.324e-4
-1.002, -7.692e-5
-1.003, -3.068e-5
-1.004, -1.218e-5
-1.005, -9.093e-6
-1.006, 3.239e-6
-1.007, 3.715e-5
-1.008, 7.107e-5
-1.009, 8.340e-5
-1.010, 7.723e-5
-1.011, 8.032e-5
-1.012, 1.111e-4
-1.013, 1.420e-4
-1.014, 1.512e-4
-1.015, 1.420e-4
-1.016, 1.451e-4
-1.017, 1.728e-4
-1.018, 2.006e-4
-1.019, 2.067e-4
-1.020, 1.975e-4
-1.021, 2.006e-4
-1.022, 2.283e-4
-1.023, 2.561e-4
-1.024, 2.622e-4
-1.025, 2.530e-4
-1.026, 2.561e-4
-1.027, 2.807e-4
-1.028, 3.085e-4
-1.029, 3.146e-4
-1.030, 3.023e-4
-1.031, 3.054e-4
-1.032, 3.300e-4
-1.033, 3.609e-4
-1.034, 3.670e-4
-1.035, 3.547e-4
-1.036, 3.578e-4
-1.037, 3.825e-4
-1.038, 4.133e-4
-1.039, 4.195e-4
-1.040, 4.071e-4
-1.041, 4.133e-4
-1.042, 4.349e-4
-1.043, 4.657e-4
-1.044, 4.719e-4
-1.045, 4.626e-4
-1.046, 4.657e-4
-1.047, 4.904e-4
-1.048, 5.212e-4
-1.049, 5.305e-4
-1.050, 5.212e-4
-1.051, 5.243e-4
-1.052, 5.489e-4
-1.053, 5.798e-4
-1.054, 5.890e-4
-1.055, 5.798e-4
-1.056, 5.798e-4
-1.057, 6.075e-4
-1.058, 6.384e-4
-1.059, 6.476e-4
-1.060, 6.384e-4
-1.061, 6.384e-4
-1.062, 6.692e-4
-1.063, 7.000e-4
-1.064, 7.093e-4
-1.065, 7.000e-4
-1.066, 7.031e-4
-1.067, 7.339e-4
-1.068, 7.648e-4
-1.069, 7.740e-4
-1.070, 7.679e-4
-1.071, 7.679e-4
-1.072, 7.925e-4
-1.073, 8.295e-4
-1.074, 8.388e-4
-1.075, 8.326e-4
-1.076, 8.388e-4
-1.077, 8.665e-4
-1.078, 9.004e-4
-1.079, 9.097e-4
-1.080, 9.004e-4
-1.081, 9.066e-4
-1.082, 9.343e-4
-1.083, 9.713e-4
-1.084, 9.837e-4
-1.085, 9.744e-4
-1.086, 9.775e-4
-1.087, 1.005e-3
-1.088, 1.039e-3
-1.089, 1.051e-3
-1.090, 1.045e-3
-1.091, 1.048e-3
-1.092, 1.079e-3
-1.093, 1.116e-3
-1.094, 1.129e-3
-1.095, 1.122e-3
-1.096, 1.125e-3
-1.097, 1.156e-3
-1.098, 1.193e-3
-1.099, 1.206e-3
-1.100, 1.196e-3
-1.101, 1.199e-3
-1.102, 1.230e-3
-1.103, 1.267e-3
-1.104, 1.283e-3
-1.105, 1.277e-3
-1.106, 1.280e-3
-1.107, 1.310e-3
-1.108, 1.347e-3
-1.109, 1.363e-3
-1.110, 1.357e-3
-1.111, 1.360e-3
-1.112, 1.391e-3
-1.113, 1.428e-3
-1.114, 1.440e-3
-1.115, 1.437e-3
-1.116, 1.437e-3
-1.117, 1.468e-3
-1.118, 1.508e-3
-1.119, 1.520e-3
-1.120, 1.514e-3
-1.121, 1.520e-3
-1.122, 1.548e-3
-1.123, 1.591e-3
-1.124, 1.603e-3
-1.125, 1.597e-3
-1.126, 1.606e-3
-1.127, 1.634e-3
-1.128, 1.677e-3
-1.129, 1.690e-3
-1.130, 1.684e-3
-1.131, 1.687e-3
-1.132, 1.717e-3
-1.133, 1.758e-3
-1.134, 1.776e-3
-1.135, 1.770e-3
-1.136, 1.779e-3
-1.137, 1.810e-3
-1.138, 1.844e-3
-1.139, 1.859e-3
-1.140, 1.850e-3
-1.141, 1.856e-3
-1.142, 1.890e-3
-1.143, 1.927e-3
-1.144, 1.946e-3
-1.145, 1.939e-3
-1.146, 1.943e-3
-1.147, 1.980e-3
-1.148, 2.017e-3
-1.149, 2.032e-3
-1.150, 2.029e-3
-1.151, 2.035e-3
-1.152, 2.069e-3
-1.153, 2.106e-3
-1.154, 2.118e-3
-1.155, 2.112e-3
-1.156, 2.115e-3
-1.157, 2.149e-3
-1.158, 2.192e-3
-1.159, 2.211e-3
-1.160, 2.205e-3
-1.161, 2.211e-3
-1.162, 2.242e-3
-1.163, 2.282e-3
-1.164, 2.297e-3
-1.165, 2.288e-3
-1.166, 2.294e-3
-1.167, 2.328e-3
-1.168, 2.368e-3
-1.169, 2.386e-3
-1.170, 2.380e-3
-1.171, 2.383e-3
-1.172, 2.414e-3
-1.173, 2.454e-3
-1.174, 2.470e-3
-1.175, 2.467e-3
-1.176, 2.473e-3
-1.177, 2.507e-3
-1.178, 2.553e-3
-1.179, 2.571e-3
-1.180, 2.562e-3
-1.181, 2.568e-3
-1.182, 2.596e-3
-1.183, 2.630e-3
-1.184, 2.652e-3
-1.185, 2.645e-3
-1.186, 2.655e-3
-1.187, 2.689e-3
-1.188, 2.729e-3
-1.189, 2.744e-3
-1.190, 2.732e-3
-1.191, 2.729e-3
-1.192, 2.763e-3
-1.193, 2.803e-3
-1.194, 2.821e-3
-1.195, 2.815e-3
-1.196, 2.818e-3
-1.197, 2.849e-3
-1.198, 2.892e-3
-1.199, 2.911e-3
-1.200, 2.904e-3
-1.201, 2.904e-3
-1.202, 2.935e-3
-1.203, 2.978e-3
-1.204, 2.994e-3
-1.205, 2.988e-3
-1.206, 2.991e-3
-1.207, 3.025e-3
-1.208, 3.068e-3
-1.209, 3.083e-3
-1.210, 3.077e-3
-1.211, 3.077e-3
-1.212, 3.108e-3
-1.213, 3.148e-3
-1.214, 3.163e-3
-1.215, 3.160e-3
-1.216, 3.160e-3
-1.217, 3.188e-3
-1.218, 3.231e-3
-1.219, 3.244e-3
-1.220, 3.234e-3
-1.221, 3.237e-3
-1.222, 3.271e-3
-1.223, 3.318e-3
-1.224, 3.336e-3
-1.225, 3.327e-3
-1.226, 3.321e-3
-1.227, 3.348e-3
-1.228, 3.388e-3
-1.229, 3.410e-3
-1.230, 3.401e-3
-1.231, 3.395e-3
-1.232, 3.413e-3
-1.233, 3.441e-3
-1.234, 3.456e-3
-1.235, 3.453e-3
-1.236, 3.453e-3
-1.237, 3.484e-3
-1.238, 3.524e-3
-1.239, 3.540e-3
-1.240, 3.524e-3
-1.241, 3.524e-3
-1.242, 3.546e-3
-1.243, 3.580e-3
-1.244, 3.589e-3
-1.245, 3.580e-3
-1.246, 3.577e-3
-1.247, 3.610e-3
-1.248, 3.647e-3
-1.249, 3.654e-3
-1.250, 3.641e-3
-1.251, 3.632e-3
-1.252, 3.654e-3
-1.253, 3.688e-3
-1.254, 3.697e-3
-1.255, 3.691e-3
-1.256, 3.688e-3
-1.257, 3.712e-3
-1.258, 3.749e-3
-1.259, 3.758e-3
-1.260, 3.743e-3
-1.261, 3.731e-3
-1.262, 3.746e-3
-1.263, 3.777e-3
-1.264, 3.783e-3
-1.265, 3.762e-3
-1.266, 3.758e-3
-1.267, 3.774e-3
-1.268, 3.802e-3
-1.269, 3.805e-3
-1.270, 3.783e-3
-1.271, 3.771e-3
-1.272, 3.789e-3
-1.273, 3.820e-3
-1.274, 3.826e-3
-1.275, 3.802e-3
-1.276, 3.786e-3
-1.277, 3.805e-3
-1.278, 3.826e-3
-1.279, 3.829e-3
-1.280, 3.802e-3
-1.281, 3.780e-3
-1.282, 3.792e-3
-1.283, 3.814e-3
-1.284, 3.814e-3
-1.285, 3.786e-3
-1.286, 3.765e-3
-1.287, 3.783e-3
-1.288, 3.802e-3
-1.289, 3.795e-3
-1.290, 3.771e-3
-1.291, 3.749e-3
-1.292, 3.758e-3
-1.293, 3.774e-3
-1.294, 3.768e-3
-1.295, 3.743e-3
-1.296, 3.721e-3
-1.297, 3.728e-3
-1.298, 3.746e-3
-1.299, 3.734e-3
-1.300, 3.700e-3
-1.301, 3.675e-3
-1.302, 3.681e-3
-1.303, 3.700e-3
-1.304, 3.691e-3
-1.305, 3.651e-3
-1.306, 3.623e-3
-1.307, 3.626e-3
-1.308, 3.641e-3
-1.309, 3.629e-3
-1.310, 3.592e-3
-1.311, 3.570e-3
-1.312, 3.577e-3
-1.313, 3.586e-3
-1.314, 3.573e-3
-1.315, 3.540e-3
-1.316, 3.509e-3
-1.317, 3.515e-3
-1.318, 3.530e-3
-1.319, 3.515e-3
-1.320, 3.475e-3
-1.321, 3.447e-3
-1.322, 3.456e-3
-1.323, 3.466e-3
-1.324, 3.453e-3
-1.325, 3.413e-3
-1.326, 3.385e-3
-1.327, 3.388e-3
-1.328, 3.398e-3
-1.329, 3.385e-3
-1.330, 3.345e-3
-1.331, 3.314e-3
-1.332, 3.314e-3
-1.333, 3.324e-3
-1.334, 3.314e-3
-1.335, 3.281e-3
-1.336, 3.256e-3
-1.337, 3.253e-3
-1.338, 3.262e-3
-1.339, 3.244e-3
-1.340, 3.210e-3
-1.341, 3.182e-3
-1.342, 3.185e-3
-1.343, 3.200e-3
-1.344, 3.188e-3
-1.345, 3.151e-3
-1.346, 3.126e-3
-1.347, 3.133e-3
-1.348, 3.148e-3
-1.349, 3.139e-3
-1.350, 3.102e-3
-1.351, 3.080e-3
-1.352, 3.089e-3
-1.353, 3.108e-3
-1.354, 3.102e-3
-1.355, 3.065e-3
-1.356, 3.043e-3
-1.357, 3.049e-3
-1.358, 3.071e-3
-1.359, 3.065e-3
-1.360, 3.031e-3
-1.361, 3.012e-3
-1.362, 3.031e-3
-1.363, 3.056e-3
-1.364, 3.049e-3
-1.365, 3.019e-3
-1.366, 2.997e-3
-1.367, 3.012e-3
-1.368, 3.031e-3
-1.369, 3.031e-3
-1.370, 3.003e-3
-1.371, 2.985e-3
-1.372, 3.000e-3
-1.373, 3.025e-3
-1.374, 3.022e-3
-1.375, 2.997e-3
-1.376, 2.978e-3
-1.377, 2.994e-3
-1.378, 3.019e-3
-1.379, 3.019e-3
-1.380, 2.997e-3
-1.381, 2.982e-3
-1.382, 2.997e-3
-1.383, 3.031e-3
-1.384, 3.034e-3
-1.385, 3.019e-3
-1.386, 3.006e-3
-1.387, 3.022e-3
-1.388, 3.049e-3
-1.389, 3.046e-3
-1.390, 3.022e-3
-1.391, 3.009e-3
-1.392, 3.031e-3
-1.393, 3.065e-3
-1.394, 3.071e-3
-1.395, 3.056e-3
-1.396, 3.046e-3
-1.397, 3.071e-3
-1.398, 3.105e-3
-1.399, 3.108e-3
-1.400, 3.089e-3
-1.401, 3.086e-3
-1.402, 3.108e-3
-1.403, 3.136e-3
-1.404, 3.142e-3
-1.405, 3.123e-3
-1.406, 3.114e-3
-1.407, 3.136e-3
-1.408, 3.170e-3
-1.409, 3.182e-3
-1.410, 3.170e-3
-1.411, 3.160e-3
-1.412, 3.185e-3
-1.413, 3.216e-3
-1.414, 3.222e-3
-1.415, 3.200e-3
-1.416, 3.191e-3
-1.417, 3.222e-3
-1.418, 3.262e-3
-1.419, 3.268e-3
-1.420, 3.250e-3
-1.421, 3.241e-3
-1.422, 3.268e-3
-1.423, 3.302e-3
-1.424, 3.305e-3
-1.425, 3.293e-3
-1.426, 3.284e-3
-1.427, 3.305e-3
-1.428, 3.336e-3
-1.429, 3.339e-3
-1.430, 3.324e-3
-1.431, 3.321e-3
-1.432, 3.336e-3
-1.433, 3.367e-3
-1.434, 3.376e-3
-1.435, 3.361e-3
-1.436, 3.355e-3
-1.437, 3.367e-3
-1.438, 3.392e-3
-1.439, 3.404e-3
-1.440, 3.392e-3
-1.441, 3.385e-3
-1.442, 3.410e-3
-1.443, 3.441e-3
-1.444, 3.444e-3
-1.445, 3.419e-3
-1.446, 3.407e-3
-1.447, 3.429e-3
-1.448, 3.462e-3
-1.449, 3.472e-3
-1.450, 3.450e-3
-1.451, 3.444e-3
-1.452, 3.472e-3
-1.453, 3.496e-3
-1.454, 3.493e-3
-1.455, 3.469e-3
-1.456, 3.462e-3
-1.457, 3.484e-3
-1.458, 3.515e-3
-1.459, 3.518e-3
-1.460, 3.499e-3
-1.461, 3.484e-3
-1.462, 3.506e-3
-1.463, 3.533e-3
-1.464, 3.533e-3
-1.465, 3.515e-3
-1.466, 3.503e-3
-1.467, 3.524e-3
-1.468, 3.555e-3
-1.469, 3.552e-3
-1.470, 3.524e-3
-1.471, 3.506e-3
-1.472, 3.524e-3
-1.473, 3.552e-3
-1.474, 3.552e-3
-1.475, 3.533e-3
-1.476, 3.524e-3
-1.477, 3.536e-3
-1.478, 3.564e-3
-1.479, 3.564e-3
-1.480, 3.536e-3
-1.481, 3.524e-3
-1.482, 3.536e-3
-1.483, 3.555e-3
-1.484, 3.552e-3
-1.485, 3.536e-3
-1.486, 3.536e-3
-1.487, 3.570e-3
-1.488, 3.598e-3
-1.489, 3.598e-3
-1.490, 3.573e-3
-1.491, 3.558e-3
-1.492, 3.577e-3
-1.493, 3.592e-3
-1.494, 3.592e-3
-1.495, 3.570e-3
-1.496, 3.567e-3
-1.497, 3.592e-3
-1.498, 3.620e-3
-1.499, 3.620e-3
-1.500, 3.543e-3
-1.499, 3.388e-3
-1.498, 3.296e-3
-1.497, 3.234e-3
-1.496, 3.154e-3
-1.495, 3.059e-3
-1.494, 2.978e-3
-1.493, 2.935e-3
-1.492, 2.898e-3
-1.491, 2.843e-3
-1.490, 2.772e-3
-1.489, 2.710e-3
-1.488, 2.679e-3
-1.487, 2.655e-3
-1.486, 2.599e-3
-1.485, 2.528e-3
-1.484, 2.476e-3
-1.483, 2.454e-3
-1.482, 2.442e-3
-1.481, 2.405e-3
-1.480, 2.349e-3
-1.479, 2.306e-3
-1.478, 2.288e-3
-1.477, 2.285e-3
-1.476, 2.248e-3
-1.475, 2.189e-3
-1.474, 2.146e-3
-1.473, 2.128e-3
-1.472, 2.124e-3
-1.471, 2.100e-3
-1.470, 2.054e-3
-1.469, 2.017e-3
-1.468, 2.007e-3
-1.467, 2.007e-3
-1.466, 1.980e-3
-1.465, 1.930e-3
-1.464, 1.893e-3
-1.463, 1.887e-3
-1.462, 1.890e-3
-1.461, 1.865e-3
-1.460, 1.822e-3
-1.459, 1.791e-3
-1.458, 1.788e-3
-1.457, 1.791e-3
-1.456, 1.770e-3
-1.455, 1.730e-3
-1.454, 1.696e-3
-1.453, 1.696e-3
-1.452, 1.702e-3
-1.451, 1.684e-3
-1.450, 1.643e-3
-1.449, 1.613e-3
-1.448, 1.616e-3
-1.447, 1.622e-3
-1.446, 1.600e-3
-1.445, 1.566e-3
-1.444, 1.536e-3
-1.443, 1.536e-3
-1.442, 1.545e-3
-1.441, 1.523e-3
-1.440, 1.486e-3
-1.439, 1.458e-3
-1.438, 1.455e-3
-1.437, 1.465e-3
-1.436, 1.443e-3
-1.435, 1.406e-3
-1.434, 1.375e-3
-1.433, 1.372e-3
-1.432, 1.381e-3
-1.431, 1.360e-3
-1.430, 1.317e-3
-1.429, 1.289e-3
-1.428, 1.286e-3
-1.427, 1.289e-3
-1.426, 1.270e-3
-1.425, 1.227e-3
-1.424, 1.199e-3
-1.423, 1.196e-3
-1.422, 1.199e-3
-1.421, 1.178e-3
-1.420, 1.135e-3
-1.419, 1.104e-3
-1.418, 1.098e-3
-1.417, 1.104e-3
-1.416, 1.082e-3
-1.415, 1.039e-3
-1.414, 1.005e-3
-1.413, 1.005e-3
-1.412, 1.008e-3
-1.411, 9.837e-4
-1.410, 9.405e-4
-1.409, 9.066e-4
-1.408, 9.035e-4
-1.407, 9.066e-4
-1.406, 8.850e-4
-1.405, 8.418e-4
-1.404, 8.079e-4
-1.403, 8.048e-4
-1.402, 8.079e-4
-1.401, 7.833e-4
-1.400, 7.432e-4
-1.399, 7.093e-4
-1.398, 7.062e-4
-1.397, 7.124e-4
-1.396, 6.877e-4
-1.395, 6.445e-4
-1.394, 6.137e-4
-1.393, 6.075e-4
-1.392, 6.137e-4
-1.391, 5.921e-4
-1.390, 5.489e-4
-1.389, 5.181e-4
-1.388, 5.150e-4
-1.387, 5.212e-4
-1.386, 4.996e-4
-1.385, 4.565e-4
-1.384, 4.256e-4
-1.383, 4.225e-4
-1.382, 4.287e-4
-1.381, 4.102e-4
-1.380, 3.670e-4
-1.379, 3.362e-4
-1.378, 3.362e-4
-1.377, 3.424e-4
-1.376, 3.239e-4
-1.375, 2.838e-4
-1.374, 2.530e-4
-1.373, 2.530e-4
-1.372, 2.591e-4
-1.371, 2.437e-4
-1.370, 2.036e-4
-1.369, 1.728e-4
-1.368, 1.759e-4
-1.367, 1.851e-4
-1.366, 1.666e-4
-1.365, 1.296e-4
-1.364, 9.882e-5
-1.363, 1.019e-4
-1.362, 1.142e-4
-1.361, 9.573e-5
-1.360, 5.873e-5
-1.359, 2.790e-5
-1.358, 3.407e-5
-1.357, 4.332e-5
-1.356, 2.482e-5
-1.355, -9.093e-6
-1.354, -3.684e-5
-1.353, -3.376e-5
-1.352, -2.143e-5
-1.351, -3.992e-5
-1.350, -7.384e-5
-1.349, -9.850e-5
-1.348, -9.542e-5
-1.347, -8.309e-5
-1.346, -9.850e-5
-1.345, -1.355e-4
-1.344, -1.571e-4
-1.343, -1.540e-4
-1.342, -1.417e-4
-1.341, -1.540e-4
-1.340, -1.910e-4
-1.339, -2.126e-4
-1.338, -2.095e-4
-1.337, -1.941e-4
-1.336, -2.064e-4
-1.335, -2.434e-4
-1.334, -2.681e-4
-1.333, -2.619e-4
-1.332, -2.465e-4
-1.331, -2.588e-4
-1.330, -2.927e-4
-1.329, -3.174e-4
-1.328, -3.082e-4
-1.327, -2.958e-4
-1.326, -3.051e-4
-1.325, -3.390e-4
-1.324, -3.637e-4
-1.323, -3.544e-4
-1.322, -3.421e-4
-1.321, -3.513e-4
-1.320, -3.821e-4
-1.319, -4.068e-4
-1.318, -4.006e-4
-1.317, -3.852e-4
-1.316, -3.945e-4
-1.315, -4.284e-4
-1.314, -4.500e-4
-1.313, -4.438e-4
-1.312, -4.253e-4
-1.311, -4.376e-4
-1.310, -4.685e-4
-1.309, -4.901e-4
-1.308, -4.839e-4
-1.307, -4.654e-4
-1.306, -4.777e-4
-1.305, -5.086e-4
-1.304, -5.301e-4
-1.303, -5.240e-4
-1.302, -5.055e-4
-1.301, -5.147e-4
-1.300, -5.486e-4
-1.299, -5.702e-4
-1.298, -5.610e-4
-1.297, -5.425e-4
-1.296, -5.548e-4
-1.295, -5.856e-4
-1.294, -6.041e-4
-1.293, -6.011e-4
-1.292, -5.826e-4
-1.291, -5.887e-4
-1.290, -6.226e-4
-1.289, -6.442e-4
-1.288, -6.350e-4
-1.287, -6.195e-4
-1.286, -6.257e-4
-1.285, -6.565e-4
-1.284, -6.812e-4
-1.283, -6.720e-4
-1.282, -6.565e-4
-1.281, -6.627e-4
-1.280, -6.935e-4
-1.279, -7.182e-4
-1.278, -7.090e-4
-1.277, -6.935e-4
-1.276, -6.997e-4
-1.275, -7.305e-4
-1.274, -7.521e-4
-1.273, -7.460e-4
-1.272, -7.244e-4
-1.271, -7.336e-4
-1.270, -7.645e-4
-1.269, -7.860e-4
-1.268, -7.799e-4
-1.267, -7.583e-4
-1.266, -7.706e-4
-1.265, -8.015e-4
-1.264, -8.230e-4
-1.263, -8.169e-4
-1.262, -7.953e-4
-1.261, -8.045e-4
-1.260, -8.354e-4
-1.259, -8.569e-4
-1.258, -8.477e-4
-1.257, -8.323e-4
-1.256, -8.385e-4
-1.255, -8.693e-4
-1.254, -8.939e-4
-1.253, -8.847e-4
-1.252, -8.693e-4
-1.251, -8.754e-4
-1.250, -9.094e-4
-1.249, -9.279e-4
-1.248, -9.217e-4
-1.247, -9.063e-4
-1.246, -9.124e-4
-1.245, -9.433e-4
-1.244, -9.679e-4
-1.243, -9.618e-4
-1.242, -9.433e-4
-1.241, -9.494e-4
-1.240, -9.834e-4
-1.239, -1.005e-3
-1.238, -9.957e-4
-1.237, -9.772e-4
-1.236, -9.834e-4
-1.235, -1.017e-3
-1.234, -1.042e-3
-1.233, -1.033e-3
-1.232, -1.017e-3
-1.231, -1.027e-3
-1.230, -1.057e-3
-1.229, -1.082e-3
-1.228, -1.076e-3
-1.227, -1.057e-3
-1.226, -1.067e-3
-1.225, -1.094e-3
-1.224, -1.122e-3
-1.223, -1.113e-3
-1.222, -1.097e-3
-1.221, -1.104e-3
-1.220, -1.134e-3
-1.219, -1.159e-3
-1.218, -1.156e-3
-1.217, -1.138e-3
-1.216, -1.147e-3
-1.215, -1.181e-3
-1.214, -1.205e-3
-1.213, -1.202e-3
-1.212, -1.184e-3
-1.211, -1.193e-3
-1.210, -1.224e-3
-1.209, -1.249e-3
-1.208, -1.242e-3
-1.207, -1.224e-3
-1.206, -1.233e-3
-1.205, -1.270e-3
-1.204, -1.292e-3
-1.203, -1.289e-3
-1.202, -1.270e-3
-1.201, -1.279e-3
-1.200, -1.313e-3
-1.199, -1.338e-3
-1.198, -1.335e-3
-1.197, -1.322e-3
-1.196, -1.332e-3
-1.195, -1.366e-3
-1.194, -1.387e-3
-1.193, -1.381e-3
-1.192, -1.366e-3
-1.191, -1.372e-3
-1.190, -1.406e-3
-1.189, -1.437e-3
-1.188, -1.433e-3
-1.187, -1.421e-3
-1.186, -1.430e-3
-1.185, -1.464e-3
-1.184, -1.492e-3
-1.183, -1.486e-3
-1.182, -1.470e-3
-1.181, -1.480e-3
-1.180, -1.517e-3
-1.179, -1.548e-3
-1.178, -1.541e-3
-1.177, -1.529e-3
-1.176, -1.541e-3
-1.175, -1.572e-3
-1.174, -1.597e-3
-1.173, -1.594e-3
-1.172, -1.581e-3
-1.171, -1.600e-3
-1.170, -1.640e-3
-1.169, -1.671e-3
-1.168, -1.668e-3
-1.167, -1.649e-3
-1.166, -1.659e-3
-1.165, -1.692e-3
-1.164, -1.723e-3
-1.163, -1.726e-3
-1.162, -1.714e-3
-1.161, -1.726e-3
-1.160, -1.760e-3
-1.159, -1.785e-3
-1.158, -1.782e-3
-1.157, -1.770e-3
-1.156, -1.779e-3
-1.155, -1.816e-3
-1.154, -1.847e-3
-1.153, -1.847e-3
-1.152, -1.837e-3
-1.151, -1.850e-3
-1.150, -1.887e-3
-1.149, -1.914e-3
-1.148, -1.914e-3
-1.147, -1.902e-3
-1.146, -1.911e-3
-1.145, -1.945e-3
-1.144, -1.976e-3
-1.143, -1.976e-3
-1.142, -1.964e-3
-1.141, -1.979e-3
-1.140, -2.016e-3
-1.139, -2.047e-3
-1.138, -2.050e-3
-1.137, -2.038e-3
-1.136, -2.050e-3
-1.135, -2.084e-3
-1.134, -2.112e-3
-1.133, -2.112e-3
-1.132, -2.103e-3
-1.131, -2.118e-3
-1.130, -2.155e-3
-1.129, -2.189e-3
-1.128, -2.186e-3
-1.127, -2.170e-3
-1.126, -2.180e-3
-1.125, -2.220e-3
-1.124, -2.251e-3
-1.123, -2.254e-3
-1.122, -2.241e-3
-1.121, -2.254e-3
-1.120, -2.281e-3
-1.119, -2.312e-3
-1.118, -2.315e-3
-1.117, -2.297e-3
-1.116, -2.312e-3
-1.115, -2.352e-3
-1.114, -2.380e-3
-1.113, -2.380e-3
-1.112, -2.365e-3
-1.111, -2.374e-3
-1.110, -2.411e-3
-1.109, -2.439e-3
-1.108, -2.439e-3
-1.107, -2.426e-3
-1.106, -2.436e-3
-1.105, -2.469e-3
-1.104, -2.494e-3
-1.103, -2.494e-3
-1.102, -2.479e-3
-1.101, -2.485e-3
-1.100, -2.519e-3
-1.099, -2.546e-3
-1.098, -2.546e-3
-1.097, -2.537e-3
-1.096, -2.550e-3
-1.095, -2.580e-3
-1.094, -2.611e-3
-1.093, -2.605e-3
-1.092, -2.590e-3
-1.091, -2.596e-3
-1.090, -2.627e-3
-1.089, -2.654e-3
-1.088, -2.651e-3
-1.087, -2.636e-3
-1.086, -2.642e-3
-1.085, -2.670e-3
-1.084, -2.701e-3
-1.083, -2.701e-3
-1.082, -2.685e-3
-1.081, -2.694e-3
-1.080, -2.725e-3
-1.079, -2.750e-3
-1.078, -2.741e-3
-1.077, -2.719e-3
-1.076, -2.731e-3
-1.075, -2.759e-3
-1.074, -2.787e-3
-1.073, -2.790e-3
-1.072, -2.775e-3
-1.071, -2.787e-3
-1.070, -2.818e-3
-1.069, -2.839e-3
-1.068, -2.836e-3
-1.067, -2.815e-3
-1.066, -2.818e-3
-1.065, -2.849e-3
-1.064, -2.867e-3
-1.063, -2.864e-3
-1.062, -2.846e-3
-1.061, -2.849e-3
-1.060, -2.879e-3
-1.059, -2.901e-3
-1.058, -2.892e-3
-1.057, -2.870e-3
-1.056, -2.873e-3
-1.055, -2.901e-3
-1.054, -2.926e-3
-1.053, -2.916e-3
-1.052, -2.898e-3
-1.051, -2.901e-3
-1.050, -2.926e-3
-1.049, -2.947e-3
-1.048, -2.938e-3
-1.047, -2.923e-3
-1.046, -2.926e-3
-1.045, -2.953e-3
-1.044, -2.972e-3
-1.043, -2.963e-3
-1.042, -2.941e-3
-1.041, -2.944e-3
-1.040, -2.972e-3
-1.039, -2.994e-3
-1.038, -2.984e-3
-1.037, -2.963e-3
-1.036, -2.966e-3
-1.035, -2.994e-3
-1.034, -3.012e-3
-1.033, -3.003e-3
-1.032, -2.978e-3
-1.031, -2.978e-3
-1.030, -2.994e-3
-1.029, -3.009e-3
-1.028, -3.003e-3
-1.027, -2.987e-3
-1.026, -2.994e-3
-1.025, -3.018e-3
-1.024, -3.037e-3
-1.023, -3.021e-3
-1.022, -2.994e-3
-1.021, -2.990e-3
-1.020, -3.012e-3
-1.019, -3.027e-3
-1.018, -3.021e-3
-1.017, -3.006e-3
-1.016, -3.015e-3
-1.015, -3.040e-3
-1.014, -3.046e-3
-1.013, -3.031e-3
-1.012, -3.003e-3
-1.011, -3.000e-3
-1.010, -3.021e-3
-1.009, -3.043e-3
-1.008, -3.034e-3
-1.007, -3.012e-3
-1.006, -3.003e-3
-1.005, -3.024e-3
-1.004, -3.034e-3
-1.003, -3.018e-3
-1.002, -2.997e-3
-1.001, -3.000e-3
