Potential V vs RHE, Current mA cm-2
0.013299999999999867,-6.850032113946507
0.012299999999999978,-8.594371146680096
0.011299999999999866,-9.85912304875944
0.010299999999999976,-10.819712021367803
0.009299999999999864,-11.647318131788847
0.008299999999999974,-12.390041564217992
0.007299999999999862,-13.043638184755638
0.006299999999999972,-13.610937416001518
0.00529999999999986,-14.090524546655764
0.0042999999999999705,-14.486643710617974
0.0032999999999998586,-14.783733083589633
0.0022999999999999687,-15.094969569559943
0.0012999999999998568,-15.3920589425316
0.00029999999999996696,-15.660854089505953
-0.000700000000000145,-16.014531914472215
-0.0017000000000000348,-16.354062626439823
-0.0027000000000001467,-16.580416434418233
-0.0037000000000000366,-16.835064468393938
-0.0047000000000001485,-17.018976937376394
-0.005700000000000038,-17.188742293360193
-0.00670000000000015,-17.316066310348052
-0.00770000000000004,-17.542420118326454
-0.008700000000000152,-17.75462681330621
-0.009700000000000042,-18.009274847281915
-0.010700000000000154,-18.27806999425627
-0.011700000000000044,-18.44783535024008
-0.012700000000000156,-18.589306480226583
-0.013700000000000045,-18.716630497214435
-0.014700000000000157,-18.843954514202288
-0.015700000000000047,-18.97127853119014
-0.01670000000000016,-19.197632339168546
-0.01770000000000005,-19.409839034148305
-0.01870000000000016,-19.636192842126707
-0.01970000000000005,-19.848399537106463
-0.020700000000000163,-19.97572355409432
-0.021700000000000053,-20.06060623208622
-0.022700000000000164,-20.202077362072725
-0.023700000000000054,-20.329401379060574
-0.024700000000000166,-20.499166735044383
-0.025700000000000056,-20.683079204026836
-0.026700000000000168,-20.89528589900659
-0.027700000000000058,-21.065051254990397
-0.02870000000000017,-21.248963723972853
-0.02970000000000006,-21.376287740960702
-0.03070000000000017,-21.461170418952605
-0.03170000000000006,-21.54605309694451
-0.03270000000000017,-21.729965565926964
-0.03370000000000006,-21.899730921910766
-0.034700000000000175,-22.111937616890522
-0.035700000000000065,-22.33829142486893
-0.03670000000000018,-22.508056780852733
-0.03770000000000007,-22.63538079784059
-0.03870000000000018,-22.72026347583249
-0.03970000000000007,-22.819293266823045
-0.04070000000000018,-22.946617283810895
-0.04170000000000007,-23.1163826397947
-0.04270000000000018,-23.300295108777156
-0.04370000000000007,-23.55494314275286
-0.044700000000000184,-23.682267159740714
-0.045700000000000074,-23.823738289727217
-0.046700000000000186,-23.951062306715073
-0.047700000000000076,-23.993503645711023
-0.04870000000000019,-24.16326900169483
-0.04970000000000008,-24.34718147067728
-0.05070000000000019,-24.516946826661083
-0.05170000000000008,-24.771594860636792
-0.05270000000000019,-24.95550732961925
-0.05370000000000008,-25.12527268560305
-0.05470000000000019,-25.252596702590903
-0.05570000000000008,-25.337479380582806
-0.056700000000000195,-25.478950510569312
-0.057700000000000085,-25.60627452755716
-0.058700000000000196,-25.77603988354097
-0.059700000000000086,-26.002393691519377
-0.0607000000000002,-26.21460038649913
-0.06170000000000009,-26.440954194477534
-0.0627000000000002,-26.61071955046134
-0.06370000000000009,-26.738043567449193
-0.0647000000000002,-26.86536758443705
-0.06570000000000009,-27.00683871442355
-0.0667000000000002,-27.176604070407354
-0.0677000000000001,-27.38881076538711
-0.0687000000000002,-27.65760591236147
-0.0697000000000001,-27.827371268345274
-0.07070000000000021,-28.05372507632368
-0.0717000000000001,-28.13860775431558
-0.07270000000000021,-28.265931771303435
-0.0737000000000001,-28.393255788291288
-0.07470000000000021,-28.577168257273744
-0.0757000000000001,-28.789374952253496
-0.07670000000000021,-29.001581647233255
-0.0777000000000001,-29.22793545521166
-0.07870000000000021,-29.440142150191413
-0.0797000000000001,-29.525024828183312
-0.08070000000000022,-29.66649595816982
-0.0817000000000001,-29.793819975157668
-0.08270000000000022,-29.96358533114148
-0.08370000000000011,-30.189939139119886
-0.08470000000000022,-30.444587173095588
-0.08570000000000011,-30.670940981073993
-0.08670000000000022,-30.88314767605375
-0.08770000000000011,-31.010471693041605
-0.08870000000000022,-31.095354371033505
-0.08970000000000011,-31.23682550102001
-0.09070000000000022,-31.40659085700382
-0.09170000000000011,-31.661238890979522
-0.09270000000000023,-31.887592698957924
-0.09370000000000012,-32.14224073293363
-0.09470000000000023,-32.368594540912035
-0.09570000000000012,-32.53835989689585
-0.09670000000000023,-32.70812525287965
-0.09770000000000012,-32.84959638286615
-0.09870000000000023,-33.01936173884996
-0.09970000000000012,-33.18912709483376
-0.10070000000000023,-33.45792224180811
-0.10170000000000012,-33.712570275783825
-0.10270000000000024,-33.93892408376223
-0.10370000000000013,-34.15113077874198
-0.10470000000000024,-34.33504324772444
-0.10570000000000013,-34.50480860370825
-0.10670000000000024,-34.632132620696105
-0.10770000000000013,-34.8018979766799
-0.10870000000000024,-35.07069312365426
-0.10970000000000013,-35.32534115762997
-0.11070000000000024,-35.594136304604326
-0.11170000000000013,-35.806342999584075
-0.11270000000000002,-35.99025546856653
-0.11370000000000013,-36.16002082455034
-0.11470000000000002,-36.28734484153819
-0.11570000000000014,-36.5136986495166
-0.11670000000000003,-36.725905344496354
-0.11770000000000014,-36.99470049147071
-0.11870000000000003,-37.249348525446415
-0.11970000000000014,-37.51814367242077
-0.12070000000000003,-37.73035036740053
-0.12170000000000014,-37.90011572338433
-0.12270000000000003,-38.04158685337084
-0.12370000000000014,-38.253793548350586
-0.12470000000000003,-38.46600024333035
-0.12570000000000014,-38.734795390304704
-0.12670000000000003,-38.98944342428042
-0.12770000000000015,-39.258238571254765
-0.12870000000000004,-39.47044526623452
-0.12970000000000015,-39.654357735216976
-0.13070000000000004,-39.82412309120078
-0.13170000000000015,-39.99388844718459
-0.13270000000000004,-40.220242255162994
-0.13370000000000015,-40.4748902891387
-0.13470000000000004,-40.743685436113054
-0.13570000000000015,-40.99833347008877
-0.13670000000000004,-41.22468727806717
-0.13770000000000016,-41.43689397304693
-0.13870000000000005,-41.56421799003478
-0.13970000000000016,-41.74813045901723
-0.14070000000000005,-41.91789581500104
-0.14170000000000016,-42.186690961975394
-0.14270000000000005,-42.483780334947056
-0.14370000000000016,-42.752575481921404
-0.14470000000000005,-43.007223515897124
-0.14570000000000016,-43.23357732387552
-0.14670000000000005,-43.40334267985933
-0.14770000000000016,-43.57310803584313
-0.14870000000000005,-43.75702050482558
-0.14970000000000017,-44.011668538801295
-0.15070000000000006,-44.28046368577565
-0.15170000000000017,-44.577553058747306
-0.15270000000000006,-44.84634820572166
-0.15370000000000017,-45.10099623969737
-0.15470000000000006,-45.27076159568118
-0.15570000000000017,-45.45467406466363
-0.15670000000000006,-45.666880759643384
-0.15770000000000017,-45.89323456762179
-0.15870000000000006,-46.147882601597495
-0.15970000000000018,-46.45911908756781
-0.16070000000000007,-46.75620846053947
-0.16170000000000018,-47.02500360751382
-0.16270000000000007,-47.19476896349763
-0.16370000000000018,-47.40697565847737
-0.16470000000000007,-47.633329466455784
-0.16570000000000018,-47.80309482243959
-0.16670000000000007,-48.071889969413945
-0.16770000000000018,-48.36897934238561
-0.16870000000000007,-48.68021582835591
-0.16970000000000018,-48.89242252333566
-0.17070000000000007,-49.118776331314066
-0.17170000000000019,-49.33098302629383
-0.17270000000000008,-49.458307043281685
-0.1737000000000002,-49.68466085126009
-0.17470000000000008,-49.98175022423175
-0.1757000000000002,-50.2505453712061
-0.17670000000000008,-50.547634744177756
-0.1777000000000002,-50.81642989115212
-0.17870000000000008,-51.071077925127824
-0.1797000000000002,-51.29743173310623
-0.18070000000000008,-51.424755750094086
-0.1817000000000002,-51.65110955807249
-0.18270000000000008,-51.86331625305225
-0.1837000000000002,-52.17455273902255
-0.1847000000000001,-52.42920077299826
-0.1857000000000002,-52.74043725896857
-0.1867000000000001,-52.95264395394832
-0.1877000000000002,-53.16485064892808
-0.1887000000000001,-53.39120445690648
-0.1897000000000002,-53.56096981289029
-0.1907000000000001,-53.7873236208687
-0.1917000000000001,-54.0419716548444
-0.19269999999999998,-54.31076680181876
-0.1937000000000001,-54.60785617479041
-0.19469999999999998,-54.919092660760725
-0.1957000000000001,-55.13129935574048
-0.19669999999999999,-55.357653163718886
-0.1977000000000001,-55.527418519702685
-0.1987,-55.73962521468245
-0.1997000000000001,-56.008420361656796
-0.2007,-56.26306839563251
-0.2017000000000001,-56.57430488160282
-0.2027,-56.88554136757313
-0.2037000000000001,-57.14018940154883
-0.2047,-57.352396096528594
-0.2057000000000001,-57.53630856551105
-0.2067,-57.7485152604908
-0.2077000000000001,-58.017310407465146
-0.2087,-58.27195844144086
-0.2097000000000001,-58.583194927411164
-0.2107,-58.880284300382826
-0.2117000000000001,-59.14907944735718
-0.2127,-59.36128614233694
-0.2137000000000001,-59.587639950315335
-0.2147,-59.7998466452951
-0.2157000000000001,-60.11108313126541
-0.2167,-60.36573116524111
-0.21770000000000012,-60.63452631221547
-0.2187,-60.93161568518713
-0.21970000000000012,-61.20041083216149
-0.2207,-61.412617527141244
-0.22170000000000012,-61.63897133511965
-0.2227,-61.80873669110345
-0.22370000000000012,-61.97850204708726
-0.2247,-62.28973853305756
-0.22570000000000012,-62.544386567033264
-0.2267,-62.855623053003576
-0.22770000000000012,-63.15271242597524
-0.22870000000000001,-63.421507572949594
-0.22970000000000013,-63.633714267929356
-0.23070000000000002,-63.860068075907755
-0.23170000000000013,-64.0722747708875
-0.23270000000000002,-64.34106991786187
-0.23370000000000013,-64.63815929083353
-0.23470000000000002,-64.90695443780788
-0.23570000000000013,-65.20404381077954
-0.23670000000000002,-65.43039761875795
-0.2376999999999999,-65.64260431373769
-0.23870000000000002,-65.86895812171612
-0.2396999999999999,-66.08116481669586
-0.24070000000000003,-66.29337151167562
-0.24169999999999991,-66.56216665864997
-0.24270000000000003,-66.87340314462028
-0.24369999999999992,-67.21293385658788
-0.24470000000000003,-67.48172900356225
-0.24569999999999992,-67.73637703753796
-0.24670000000000003,-68.0051721845123
-0.24769999999999992,-68.17493754049613
-0.24870000000000003,-68.44373268747047
-0.24969999999999992,-68.69838072144618
-0.25070000000000003,-69.0096172074165
-0.2516999999999999,-69.30670658038814
-0.25270000000000004,-69.61794306635846
-0.2536999999999999,-69.87259110033416
-0.25470000000000004,-70.09894490831257
-0.2556999999999999,-70.26871026429637
-0.25670000000000004,-70.53750541127073
-0.25769999999999993,-70.79215344524643
-0.25870000000000004,-71.10338993121674
-0.25969999999999993,-71.48536198218031
-0.26070000000000004,-71.83903980714656
-0.26169999999999993,-72.10783495412092
-0.26270000000000004,-72.32004164910067
-0.26369999999999993,-72.53224834408043
-0.26470000000000005,-72.75860215205884
-0.26569999999999994,-72.97080884703858
-0.26670000000000005,-73.32448667200485
-0.26769999999999994,-73.62157604497652
-0.26870000000000005,-73.97525386994278
-0.26969999999999994,-74.28649035591307
-0.27070000000000005,-74.49869705089283
-0.27169999999999994,-74.72505085887124
-0.27270000000000005,-74.93725755385098
-0.27369999999999994,-75.14946424883075
-0.27470000000000006,-75.4182593958051
-0.27569999999999995,-75.77193722077136
-0.27670000000000006,-76.06902659374302
-0.27769999999999995,-76.38026307971333
-0.27870000000000006,-76.5924697746931
-0.27969999999999995,-76.7622351306769
-0.28070000000000006,-76.98858893865528
-0.28169999999999995,-77.20079563363505
-0.28270000000000006,-77.38470810261751
-0.28369999999999995,-77.68179747558916
-0.28470000000000006,-77.95059262256353
-0.28569999999999995,-78.24768199553519
-0.28670000000000007,-78.55891848150549
-0.28769999999999996,-78.77112517648524
-0.28870000000000007,-78.99747898446365
-0.28969999999999996,-79.16724434044745
-0.29070000000000007,-79.42189237442317
-0.29169999999999996,-79.73312886039348
-0.29270000000000007,-80.04436534636378
-0.29369999999999996,-80.34145471933543
-0.2947000000000001,-80.65269120530574
-0.29569999999999996,-80.86489790028548
-0.2967000000000001,-81.13369304725985
-0.29769999999999996,-81.3458997422396
-0.2987000000000001,-81.61469488921396
-0.29969999999999997,-81.91178426218562
-0.3007000000000001,-82.22302074815593
-0.30169999999999997,-82.56255146012353
-0.3027000000000001,-82.87378794609386
-0.30369999999999997,-83.18502443206415
-0.3047000000000001,-83.39723112704392
-0.30569999999999997,-83.60943782202366
-0.3067000000000001,-83.83579163000208
-0.3077,-84.09043966397778
-0.3087000000000001,-84.40167614994809
-0.3097,-84.7129126359184
-0.3107000000000001,-85.052443347886
-0.3117,-85.36367983385631
-0.3127000000000001,-85.57588652883607
-0.3137,-85.80224033681448
-0.3147000000000001,-86.01444703179425
-0.3157,-86.32568351776455
-0.3167000000000001,-86.6227728907362
-0.3177,-86.97645071570246
-0.3187000000000001,-87.33012854066871
-0.3197,-87.66965925263632
-0.3207000000000001,-87.93845439961068
-0.3217,-88.23554377258235
-0.3227000000000001,-88.46189758056073
-0.3237,-88.7589869535324
-0.3247000000000001,-89.07022343950271
-0.3257,-89.42390126446898
-0.3267000000000001,-89.80587331543254
-0.3277,-90.15955114039879
-0.3287000000000001,-90.51322896536506
-0.3297,-90.76787699934074
-0.3307000000000001,-91.03667214631511
-0.3317,-91.33376151928677
-0.3327000000000001,-91.68743934425302
-0.3337,-92.08355850821525
-0.3347000000000001,-92.42308922018285
-0.3357,-92.7767670451491
-0.3367000000000001,-93.17288620911131
-0.3377,-93.46997558208298
-0.3387000000000001,-93.78121206805329
-0.3397,-94.07830144102493
-0.3407000000000001,-94.4319792659912
-0.3417,-94.8280984299534
-0.3427000000000001,-95.26665893291157
-0.3437,-95.64863098387512
-0.3447000000000001,-96.04475014783733
-0.3457,-96.3984279728036
-0.3467000000000001,-96.69551734577524
-0.3477,-97.00675383174556
-0.3487000000000001,-97.36043165671182
-0.3497,-97.74240370767538
-0.3507000000000001,-98.18096421063355
-0.3517,-98.66196605258766
-0.3527000000000001,-99.14296789454177
-0.3537,-99.58152839749994
-0.3547000000000001,-99.97764756146215
-0.3557,-100.35961961242569
-0.35670000000000013,-100.75573877638791
-0.3577,-101.23674061834203
-0.35870000000000013,-101.71774246029614
-0.3597,-102.19874430225026
-0.36070000000000013,-102.72218748320032
-0.3617,-103.20318932515443
-0.3626999999999999,-103.68419116710854
-0.3637,-104.16519300906265
-0.3646999999999999,-104.64619485101677
-0.3657,-105.16963803196683
-0.3666999999999999,-105.73552255191284
-0.3677,-106.34384841085482
-0.3686999999999999,-106.90973293080083
-0.36970000000000003,-107.47561745074682
-0.3706999999999999,-107.99906063169689
-0.37170000000000003,-108.48006247365102
-0.3726999999999999,-108.96106431560513
-0.37370000000000003,-109.4845074965552
-0.3746999999999999,-110.09283335549715
-0.37570000000000003,-110.70115921443913
-0.3766999999999999,-111.35192641237703
-0.37770000000000004,-112.01684072331359
-0.3786999999999999,-112.66760792125153
-0.37970000000000004,-113.27593378019348
-0.3806999999999999,-113.84181830013951
-0.38170000000000004,-114.40770282008553
-0.38269999999999993,-115.01602867902749
-0.38370000000000004,-115.68094298996405
-0.38469999999999993,-116.33171018790196
-0.38570000000000004,-117.02491872483584
-0.38669999999999993,-116.02047370193165
-0.38570000000000004,-112.75249059924342
-0.38469999999999993,-110.17771603348905
-0.38370000000000004,-107.914177953705
-0.38269999999999993,-105.94772924689259
-0.38170000000000004,-104.2076343480586
-0.3806999999999999,-102.59486346621246
-0.37970000000000004,-101.02453392336226
-0.3786999999999999,-99.53908705850398
-0.37770000000000004,-97.96875751565379
-0.3766999999999999,-96.4833106507955
-0.37570000000000003,-95.04030512493317
-0.3746999999999999,-93.61144671206948
-0.37370000000000003,-92.29576520319499
-0.3726999999999999,-91.03667214631511
-0.37170000000000003,-89.76343197643658
-0.3706999999999999,-88.54678025855264
-0.36970000000000003,-87.33012854066871
-0.3686999999999999,-86.01444703179425
-0.3677,-84.7977953139103
-0.3666999999999999,-83.56699648302772
-0.3657,-82.43522744313569
-0.3646999999999999,-81.38834108123557
-0.3637,-80.34145471933543
-0.3626999999999999,-79.33700969643127
-0.3617,-78.24768199553519
-0.36070000000000013,-77.1583542946391
-0.3597,-76.06902659374302
-0.35870000000000013,-74.97969889284694
-0.3577,-73.93281253094682
-0.35670000000000013,-72.92836750804264
-0.3557,-71.96636382413442
-0.3547000000000001,-71.06094859222078
-0.3537,-70.09894490831257
-0.3527000000000001,-69.0944998854084
-0.3517,-68.0900548625042
-0.3507000000000001,-67.04316850060408
-0.3497,-66.08116481669586
-0.3487000000000001,-65.11916113278764
-0.3477,-64.25618723986996
-0.3467000000000001,-63.421507572949594
-0.3457,-62.501945228037314
-0.3447000000000001,-61.63897133511965
-0.3437,-60.71940899020737
-0.3427000000000001,-59.7998466452951
-0.3417,-58.880284300382826
-0.3407000000000001,-58.017310407465146
-0.3397,-57.22507207954074
-0.3387000000000001,-56.404539525619015
-0.3377,-55.612301197694585
-0.3367000000000001,-54.791768643772876
-0.3357,-53.9570889768525
-0.3347000000000001,-53.079967970936174
-0.3337,-52.2169940780185
-0.3327000000000001,-51.38231441109813
-0.3317,-50.68910587416426
-0.3307000000000001,-49.939308885235796
-0.3297,-49.24610034830193
-0.3287000000000001,-48.51045047237211
-0.3277,-47.76065348344364
-0.3267000000000001,-46.982562268517874
-0.3257,-46.2327652795894
-0.3247000000000001,-45.497115403659585
-0.3237,-44.80390686672572
-0.3227000000000001,-44.181433894785094
-0.3217,-43.57310803584313
-0.3207000000000001,-42.92234083790521
-0.3197,-42.229132300971344
-0.3187000000000001,-41.52177665103883
-0.3177,-40.828568114104954
-0.3167000000000001,-40.092918238175145
-0.3157,-39.42800392723857
-0.3147000000000001,-38.86211940729255
-0.3137,-38.29623488734655
-0.3127000000000001,-37.73035036740053
-0.3117,-37.164465847454515
-0.3107000000000001,-36.5136986495166
-0.3097,-35.848784338580025
-0.3087000000000001,-35.198017140642115
-0.3077,-34.632132620696105
-0.3067000000000001,-34.06624810075008
-0.30569999999999997,-33.54280491980002
-0.3047000000000001,-33.06180307784591
-0.30369999999999997,-32.53835989689585
-0.3027000000000001,-31.930034037953877
-0.30169999999999997,-31.36414951800786
-0.3007000000000001,-30.79826499806185
-0.29969999999999997,-30.189939139119886
-0.2987000000000001,-29.708937297165768
-0.29769999999999996,-29.18549411621571
-0.2967000000000001,-28.746933613257543
-0.29569999999999996,-28.265931771303435
-0.2947000000000001,-27.742488590353368
-0.29369999999999996,-27.219045409403304
-0.29270000000000007,-26.65316088945729
-0.29169999999999996,-26.129717708507226
-0.29070000000000007,-25.60627452755716
-0.28969999999999996,-25.167714024599
-0.28870000000000007,-24.771594860636792
-0.28769999999999996,-24.389622809673234
-0.28670000000000007,-23.908620967719123
-0.28569999999999995,-23.427619125765005
-0.28470000000000006,-22.904175944814945
-0.28369999999999995,-22.38073276386488
-0.28270000000000006,-21.94217226090672
-0.28169999999999995,-21.54605309694451
-0.28070000000000006,-21.149933932982297
-0.27969999999999995,-20.810403221014692
-0.27870000000000006,-20.371842718056527
-0.27769999999999995,-19.97572355409432
-0.27670000000000006,-19.49472171214021
-0.27569999999999995,-19.056161209182044
-0.27470000000000006,-18.631747819222536
-0.27369999999999994,-18.27806999425627
-0.27270000000000005,-17.924392169290012
-0.27169999999999994,-17.584861457322408
-0.27070000000000005,-17.2736249713521
-0.26969999999999994,-16.919947146385837
-0.26870000000000005,-16.53797509542228
-0.26769999999999994,-16.099414592464115
-0.26670000000000005,-15.70329542850191
-0.26569999999999994,-15.307176264539699
