Potential V vs RHE, Current mA cm-2
0.013299999999999867,-6.6760226240631075
0.012299999999999978,-8.638227196975913
0.011299999999999866,-10.120844639234473
0.010299999999999976,-11.343155202317865
0.009299999999999864,-12.390041564217992
0.008299999999999974,-13.217647674639037
0.007299999999999862,-13.960371107068182
0.006299999999999972,-14.57152638860988
0.00529999999999986,-15.179852247551842
0.0042999999999999705,-15.74573676749786
0.0032999999999998586,-16.269179948447924
0.0022999999999999687,-16.750181790402035
0.0012999999999998568,-17.188742293360193
0.00029999999999996696,-17.627302796318357
-0.000700000000000145,-17.966833508285966
-0.0017000000000000348,-18.320511333252224
-0.0027000000000001467,-18.631747819222536
-0.0037000000000000366,-18.92883719219419
-0.0047000000000001485,-19.155191000172596
-0.005700000000000038,-19.452280373144255
-0.00670000000000015,-19.721075520118614
-0.00770000000000004,-19.97572355409432
-0.008700000000000152,-20.286960040064624
-0.009700000000000042,-20.541608074040333
-0.010700000000000154,-20.85284456001064
-0.011700000000000044,-21.107492593986347
-0.012700000000000156,-21.333846401964752
-0.013700000000000045,-21.503611757948562
-0.014700000000000157,-21.67337711393236
-0.015700000000000047,-21.857289582914817
-0.01670000000000016,-21.98461359990267
-0.01770000000000005,-22.196820294882425
-0.01870000000000016,-22.38073276386488
-0.01970000000000005,-22.592939458844636
-0.020700000000000163,-22.819293266823045
-0.021700000000000053,-23.031499961802798
-0.022700000000000164,-23.300295108777156
-0.023700000000000054,-23.51250180375691
-0.024700000000000166,-23.682267159740714
-0.025700000000000056,-23.823738289727217
-0.026700000000000168,-23.993503645711023
-0.027700000000000058,-24.120827662698876
-0.02870000000000017,-24.24815167968673
-0.02970000000000006,-24.432064148669184
-0.03070000000000017,-24.601829504652986
-0.03170000000000006,-24.771594860636792
-0.03270000000000017,-24.997948668615198
-0.03370000000000006,-25.210155363594954
-0.034700000000000175,-25.39406783257741
-0.035700000000000065,-25.563833188561212
-0.03670000000000018,-25.73359854454502
-0.03770000000000007,-25.86092256153287
-0.03870000000000018,-26.002393691519377
-0.03970000000000007,-26.129717708507226
-0.04070000000000018,-26.29948306449103
-0.04170000000000007,-26.483395533473487
-0.04270000000000018,-26.65316088945729
-0.04370000000000007,-26.86536758443705
-0.044700000000000184,-27.091721392415455
-0.045700000000000074,-27.303928087395207
-0.046700000000000186,-27.487840556377662
-0.047700000000000076,-27.700047251357418
-0.04870000000000019,-27.869812607341224
-0.04970000000000008,-28.011283737327723
-0.05070000000000019,-28.09616641531963
-0.05170000000000008,-28.265931771303435
-0.05270000000000019,-28.393255788291288
-0.05370000000000008,-28.577168257273744
-0.05470000000000019,-28.789374952253496
-0.05570000000000008,-29.001581647233255
-0.056700000000000195,-29.22793545521166
-0.057700000000000085,-29.440142150191413
-0.058700000000000196,-29.62405461917387
-0.059700000000000086,-29.836261314153624
-0.0607000000000002,-30.00602667013743
-0.06170000000000009,-30.147497800123933
-0.0627000000000002,-30.317263156107735
-0.06370000000000009,-30.444587173095588
-0.0647000000000002,-30.614352529079397
-0.06570000000000009,-30.79826499806185
-0.0667000000000002,-31.010471693041605
-0.0677000000000001,-31.23682550102001
-0.0687000000000002,-31.49147353499572
-0.0697000000000001,-31.717827342974125
-0.07070000000000021,-31.930034037953877
-0.0717000000000001,-32.05735805494172
-0.07270000000000021,-32.24127052392419
-0.0737000000000001,-32.368594540912035
-0.07470000000000021,-32.53835989689585
-0.0757000000000001,-32.66568391388369
-0.07670000000000021,-32.892037721862096
-0.0777000000000001,-33.06180307784591
-0.07870000000000021,-33.330598224820264
-0.0797000000000001,-33.54280491980002
-0.08070000000000022,-33.81160006677438
-0.0817000000000001,-33.98136542275818
-0.08270000000000022,-34.193572117737936
-0.08370000000000011,-34.377484586720385
-0.08470000000000022,-34.58969128170015
-0.08570000000000011,-34.67457395969205
-0.08670000000000022,-34.85848642867451
-0.08770000000000011,-35.02825178465831
-0.08870000000000022,-35.240458479638065
-0.08970000000000011,-35.46681228761647
-0.09070000000000022,-35.721460321592176
-0.09170000000000011,-35.99025546856653
-0.09270000000000023,-36.244903502542236
-0.09370000000000012,-36.47125731052064
-0.09470000000000023,-36.6834640055004
-0.09570000000000012,-36.8532293614842
-0.09670000000000023,-37.037141830466666
-0.09770000000000012,-37.206907186450465
-0.09870000000000023,-37.376672542434264
-0.09970000000000012,-37.60302635041268
-0.10070000000000023,-37.81523304539243
-0.10170000000000012,-38.04158685337084
-0.10270000000000024,-38.29623488734655
-0.10370000000000013,-38.5650300343209
-0.10470000000000024,-38.81967806829661
-0.10570000000000013,-39.046031876275016
-0.10670000000000024,-39.258238571254765
-0.10770000000000013,-39.42800392723857
-0.10870000000000024,-39.654357735216976
-0.10970000000000013,-39.82412309120078
-0.11070000000000024,-40.03632978618054
-0.11170000000000013,-40.26268359415894
-0.11270000000000002,-40.51733162813464
-0.11370000000000013,-40.78612677510901
-0.11470000000000002,-41.04077480908471
-0.11570000000000014,-41.352011295055014
-0.11670000000000003,-41.56421799003478
-0.11770000000000014,-41.83301313700913
-0.11870000000000003,-42.04521983198889
-0.11970000000000014,-42.229132300971344
-0.12070000000000003,-42.4413389959511
-0.12170000000000014,-42.6111043519349
-0.12270000000000003,-42.837458159913304
-0.12370000000000014,-43.04966485489307
-0.12470000000000003,-43.31846000186743
-0.12570000000000014,-43.57310803584313
-0.12670000000000003,-43.88434452181344
-0.12770000000000015,-44.138992555789144
-0.12870000000000004,-44.4077877027635
-0.12970000000000015,-44.66243573673921
-0.13070000000000004,-44.84634820572166
-0.13170000000000015,-45.10099623969737
-0.13270000000000004,-45.27076159568118
-0.13370000000000015,-45.45467406466363
-0.13470000000000004,-45.70932209863933
-0.13570000000000015,-45.93567590661774
-0.13670000000000004,-46.19032394059345
-0.13770000000000016,-46.45911908756781
-0.13870000000000005,-46.75620846053947
-0.13970000000000016,-47.02500360751382
-0.14070000000000005,-47.27965164148953
-0.14170000000000016,-47.54844678846388
-0.14270000000000005,-47.76065348344364
-0.14370000000000016,-47.987007291422046
-0.14470000000000005,-48.156772647405845
-0.14570000000000016,-48.41142068138156
-0.14670000000000005,-48.63777448935996
-0.14770000000000016,-48.93486386233162
-0.14870000000000005,-49.16121767031002
-0.14970000000000017,-49.458307043281685
-0.15070000000000006,-49.76954352925199
-0.15170000000000017,-50.024191563227696
-0.15270000000000006,-50.335428049198
-0.15370000000000017,-50.547634744177756
-0.15470000000000006,-50.77398855215617
-0.15570000000000017,-50.98619524713592
-0.15670000000000006,-51.21254905511432
-0.15770000000000017,-51.424755750094086
-0.15870000000000006,-51.69355089706845
-0.15970000000000018,-51.990640270040096
-0.16070000000000007,-52.30187675601041
-0.16170000000000018,-52.59896612898206
-0.16270000000000007,-52.91020261495237
-0.16370000000000018,-53.22143910092268
-0.16470000000000007,-53.476087134898386
-0.16570000000000018,-53.74488228187274
-0.16670000000000007,-53.999530315848446
-0.16770000000000018,-54.2117370108282
-0.16870000000000007,-54.43809081880661
-0.16970000000000018,-54.69273885278232
-0.17070000000000007,-54.961533999756675
-0.17170000000000019,-55.25862337272834
-0.17270000000000008,-55.56985985869864
-0.1737000000000002,-55.838655005673
-0.17470000000000008,-56.1781857176406
-0.1757000000000002,-56.44698086461496
-0.17670000000000008,-56.70162889859067
-0.1777000000000002,-56.97042404556503
-0.17870000000000008,-57.182630740544774
-0.1797000000000002,-57.408984548523186
-0.18070000000000008,-57.66363258249889
-0.1817000000000002,-57.93242772947325
-0.18270000000000008,-58.22951710244491
-0.1837000000000002,-58.498312249419264
-0.1847000000000001,-58.83784296138688
-0.1857000000000002,-59.14907944735718
-0.1867000000000001,-59.44616882032884
-0.1877000000000002,-59.757405306299155
-0.1887000000000001,-60.06864179226946
-0.1897000000000002,-60.32328982624517
-0.1907000000000001,-60.59208497321952
-0.1917000000000001,-60.80429166819927
-0.19269999999999998,-61.11552815416958
-0.1937000000000001,-61.327734849149344
-0.19469999999999998,-61.63897133511965
-0.1957000000000001,-61.97850204708726
-0.19669999999999999,-62.28973853305756
-0.1977000000000001,-62.58682790602922
-0.1987,-62.89806439199953
-0.1997000000000001,-63.20930087796983
-0.2007,-63.46394891194555
-0.2017000000000001,-63.732744058919906
-0.2027,-63.98739209289561
-0.2037000000000001,-64.25618723986996
-0.2047,-64.51083527384567
-0.2057000000000001,-64.82207175981598
-0.2067,-65.16160247178358
-0.2077000000000001,-65.4728389577539
-0.2087,-65.82651678272015
-0.2097000000000001,-66.16604749468777
-0.2107,-66.47728398065809
-0.2117000000000001,-66.77437335362974
-0.2127,-67.04316850060408
-0.2137000000000001,-67.34025787357575
-0.2147,-67.6090530205501
-0.2157000000000001,-67.9202895065204
-0.2167,-68.21737887949207
-0.21770000000000012,-68.52861536546239
-0.2187,-68.82570473843404
-0.21970000000000012,-69.22182390239624
-0.2207,-69.53306038836655
-0.22170000000000012,-69.8301497613382
-0.2227,-70.14138624730852
-0.22370000000000012,-70.43847562028017
-0.2247,-70.70727076725453
-0.22570000000000012,-70.96191880123024
-0.2267,-71.2307139482046
-0.22770000000000012,-71.52780332117625
-0.22870000000000001,-71.83903980714656
-0.22970000000000013,-72.19271763211282
-0.23070000000000002,-72.53224834408043
-0.23170000000000013,-72.8859261690467
-0.23270000000000002,-73.23960399401295
-0.23370000000000013,-73.53669336698461
-0.23470000000000002,-73.8479298529549
-0.23570000000000013,-74.14501922592657
-0.23670000000000002,-74.41381437290093
-0.2376999999999999,-74.72505085887124
-0.23870000000000002,-75.02214023184291
-0.2396999999999999,-75.33337671781321
-0.24070000000000003,-75.63046609078486
-0.24169999999999991,-75.98414391575112
-0.24270000000000003,-76.33782174071737
-0.24369999999999992,-76.67735245268499
-0.24470000000000003,-77.03103027765125
-0.24569999999999992,-77.34226676362155
-0.24670000000000003,-77.63935613659322
-0.24769999999999992,-77.90815128356756
-0.24870000000000003,-78.20524065653922
-0.24969999999999992,-78.47403580351359
-0.25070000000000003,-78.72868383748929
-0.2516999999999999,-79.08236166245555
-0.25270000000000004,-79.37945103542721
-0.2536999999999999,-79.73312886039348
-0.25470000000000004,-80.12924802435568
-0.2556999999999999,-80.52536718831789
-0.25670000000000004,-80.86489790028548
-0.25769999999999993,-81.26101706424771
-0.25870000000000004,-81.61469488921396
-0.25969999999999993,-81.91178426218562
-0.26070000000000004,-82.18057940915998
-0.26169999999999993,-82.47766878213164
-0.26270000000000004,-82.78890526810196
-0.26369999999999993,-83.04355330207765
-0.26470000000000005,-83.43967246603985
-0.26569999999999994,-83.79335029100612
-0.26670000000000005,-84.13288100297372
-0.26769999999999994,-84.52900016693594
-0.26870000000000005,-84.84023665290624
-0.26969999999999994,-85.17976736487385
-0.27070000000000005,-85.53344518984011
-0.27169999999999994,-85.84468167581042
-0.27270000000000005,-86.09932970978613
-0.27369999999999994,-86.41056619575643
-0.27470000000000006,-86.7076555687281
-0.27569999999999995,-87.06133339369435
-0.27670000000000006,-87.41501121866061
-0.27769999999999995,-87.75454193062824
-0.27870000000000006,-88.10821975559449
-0.27969999999999995,-88.46189758056073
-0.28070000000000006,-88.8438696315243
-0.28169999999999995,-89.15510611749461
-0.28270000000000006,-89.46634260346492
-0.28369999999999995,-89.76343197643658
-0.28470000000000006,-90.07466846240689
-0.28569999999999995,-90.32931649638259
-0.28670000000000007,-90.68299432134886
-0.28769999999999996,-90.99423080731917
-0.28870000000000007,-91.33376151928677
-0.28969999999999996,-91.68743934425302
-0.29070000000000007,-92.08355850821525
-0.29169999999999996,-92.42308922018285
-0.29270000000000007,-92.73432570615316
-0.29369999999999996,-93.03141507912481
-0.2947000000000001,-93.34265156509512
-0.29569999999999996,-93.61144671206948
-0.2967000000000001,-93.86609474604518
-0.29769999999999996,-94.17733123201549
-0.2987000000000001,-94.47442060498715
-0.29969999999999997,-94.87053976894937
-0.3007000000000001,-95.22421759391563
-0.30169999999999997,-95.60618964487918
-0.3027000000000001,-96.00230880884139
-0.30369999999999997,-96.35598663380765
-0.3047000000000001,-96.69551734577524
-0.30569999999999997,-97.00675383174556
-0.3067000000000001,-97.36043165671182
-0.3077,-97.6575210296835
-0.3087000000000001,-97.92631617665783
-0.3097,-98.26584688862545
-0.3107000000000001,-98.66196605258766
-0.3117,-99.01564387755391
-0.3127000000000001,-99.41176304151614
-0.3137,-99.75129375348374
-0.3147000000000001,-100.14741291744595
-0.3157,-100.5010907424122
-0.3167000000000001,-100.84062145437981
-0.3177,-101.19429927934607
-0.3187000000000001,-101.54797710431234
-0.3197,-101.84506647728399
-0.3207000000000001,-102.1563029632543
-0.3217,-102.4958336752219
-0.3227000000000001,-102.84951150018817
-0.3237,-103.20318932515443
-0.3247000000000001,-103.64174982811258
-0.3257,-104.02372187907615
-0.3267000000000001,-104.3773997040424
-0.3277,-104.77351886800463
-0.3287000000000001,-105.07060824097626
-0.3297,-105.42428606594254
-0.3307000000000001,-105.73552255191284
-0.3317,-106.07505326388046
-0.3327000000000001,-106.38628974985076
-0.3337,-106.68337912282242
-0.3347000000000001,-107.12193962578058
-0.3357,-107.47561745074682
-0.3367000000000001,-107.914177953705
-0.3377,-108.35273845666316
-0.3387000000000001,-108.69226916863077
-0.3397,-109.13082967158894
-0.3407000000000001,-109.4845074965552
-0.3417,-109.8240382085228
-0.3427000000000001,-110.17771603348905
-0.3437,-110.53139385845533
-0.3447000000000001,-110.92751302241753
-0.3457,-111.3094850733811
-0.3467000000000001,-111.74804557633925
-0.3477,-112.18660607929739
-0.3487000000000001,-112.66760792125153
-0.3497,-113.06372708521374
-0.3507000000000001,-113.53058181416918
-0.3517,-113.92670097813141
-0.3527000000000001,-114.3228201420936
-0.3537,-114.71893930605583
-0.3547000000000001,-115.10091135701937
-0.3557,-115.53947185997755
-0.35670000000000013,-115.93559102393975
-0.3577,-116.41659286589388
-0.35870000000000013,-116.94003604684394
-0.3597,-117.42103788879804
-0.36070000000000013,-117.94448106974811
-0.3617,-118.42548291170223
-0.3626999999999999,-118.90648475365633
-0.3637,-119.3450452566145
-0.3646999999999999,-119.769458646574
-0.3657,-120.20801914953216
-0.3666999999999999,-120.64657965249035
-0.3677,-121.0851401554485
-0.3686999999999999,-121.60858333639854
-0.36970000000000003,-122.1320265173486
-0.3706999999999999,-122.65546969829869
-0.37170000000000003,-123.2213542182447
-0.3726999999999999,-123.74479739919475
-0.37370000000000003,-124.22579924114888
-0.3746999999999999,-124.7916837610949
-0.37570000000000003,-125.23024426405304
-0.3766999999999999,-125.7536874450031
-0.37770000000000004,-126.19224794796128
-0.3786999999999999,-126.6732497899154
-0.37970000000000004,-127.19669297086547
-0.3806999999999999,-127.72013615181551
-0.38170000000000004,-128.32846201075745
-0.38269999999999993,-128.89434653070347
-0.38370000000000004,-129.4602310506495
-0.38469999999999993,-130.06855690959148
-0.38570000000000004,-130.67688276853346
-0.38669999999999993,-129.58755506763737
-0.38570000000000004,-126.14980660896532
-0.38469999999999993,-123.26379555724066
-0.38370000000000004,-120.77390366947817
-0.38269999999999993,-118.51036558969413
-0.38170000000000004,-116.41659286589388
-0.3806999999999999,-114.4925854980774
-0.37970000000000004,-112.66760792125153
-0.3786999999999999,-110.92751302241753
-0.37770000000000004,-109.25815368857677
-0.3766999999999999,-107.64538280673065
-0.37570000000000003,-106.07505326388046
-0.3746999999999999,-104.50472372103027
-0.37370000000000003,-102.93439417818009
-0.3726999999999999,-101.40650597432582
-0.37170000000000003,-99.87861777047159
-0.3706999999999999,-98.4497593576079
-0.36970000000000003,-97.04919517074151
-0.3686999999999999,-95.64863098387512
-0.3677,-94.38953792699526
-0.3666999999999999,-93.08800353111941
-0.3657,-91.85720470023682
-0.3646999999999999,-90.55567030436099
-0.3637,-89.28243013448247
-0.3626999999999999,-88.02333707760259
-0.3617,-86.7076555687281
-0.36070000000000013,-85.49100385084417
-0.3597,-84.23191079396429
-0.35870000000000013,-83.04355330207765
-0.3577,-81.86934292318966
-0.35670000000000013,-80.73757388329766
-0.3557,-79.64824618240156
-0.3547000000000001,-78.51647714250953
-0.3537,-77.46959078060941
-0.3527000000000001,-76.38026307971333
-0.3517,-75.29093537881725
-0.3507000000000001,-74.14501922592657
-0.3497,-73.0556915250305
-0.3487000000000001,-71.96636382413442
-0.3477,-70.91947746223428
-0.3467000000000001,-69.87259110033416
-0.3457,-68.86814607742998
-0.3447000000000001,-67.9202895065204
-0.3437,-66.9582858226122
-0.3427000000000001,-65.99628213870396
-0.3417,-65.03427845479574
-0.3407000000000001,-64.11471610988345
-0.3397,-63.11027108697928
-0.3387000000000001,-62.20485585506566
-0.3377,-61.242852171157445
-0.3367000000000001,-60.28084848724921
-0.3357,-59.36128614233694
-0.3347000000000001,-58.45587091042332
-0.3337,-57.57874990450699
-0.3327000000000001,-56.74407023758662
-0.3317,-55.881096344668954
-0.3307000000000001,-55.13129935574048
-0.3297,-54.26832546282281
-0.3287000000000001,-53.476087134898386
-0.3277,-52.64140746797801
-0.3267000000000001,-51.77843357506035
-0.3257,-50.943753908139975
-0.3247000000000001,-50.12322135421825
-0.3237,-49.33098302629383
-0.3227000000000001,-48.55289181136806
-0.3217,-47.80309482243959
-0.3207000000000001,-47.067444946509774
-0.3197,-46.37423640957591
-0.3187000000000001,-45.666880759643384
-0.3177,-44.97367222270952
-0.3167000000000001,-44.223875233781044
-0.3157,-43.48822535785123
-0.3147000000000001,-42.752575481921404
-0.3137,-42.00277849299294
-0.3127000000000001,-41.267128617063115
-0.3117,-40.559772967130606
-0.3107000000000001,-39.90900576919269
-0.3097,-39.30067991025072
-0.3087000000000001,-38.692354051308754
-0.3077,-38.08402819236679
-0.3067000000000001,-37.47570233342482
-0.30569999999999997,-36.8532293614842
-0.3047000000000001,-36.20246216354629
-0.30369999999999997,-35.55169496560837
-0.3027000000000001,-34.90092776767045
-0.30169999999999997,-34.193572117737936
-0.3007000000000001,-33.58524625879597
-0.29969999999999997,-32.97692039985401
-0.2987000000000001,-32.41103587990799
-0.29769999999999996,-31.84515135996197
-0.2967000000000001,-31.321708179011907
-0.29569999999999996,-30.79826499806185
-0.2947000000000001,-30.232380478115836
-0.29369999999999996,-29.708937297165768
-0.29270000000000007,-29.100611438223805
-0.29169999999999996,-28.53472691827779
-0.29070000000000007,-27.954695285333123
-0.28969999999999996,-27.38881076538711
-0.28870000000000007,-26.822926245441096
-0.28769999999999996,-26.29948306449103
-0.28670000000000007,-25.81848122253692
-0.28569999999999995,-25.337479380582806
-0.28470000000000006,-24.870624651627345
-0.28369999999999995,-24.432064148669184
-0.28270000000000006,-23.951062306715073
-0.28169999999999995,-23.47006046476096
-0.28070000000000006,-22.946617283810895
-0.27969999999999995,-22.46561544185678
-0.27870000000000006,-21.94217226090672
-0.27769999999999995,-21.418729079956652
-0.27670000000000006,-20.980168576998494
-0.27569999999999995,-20.456725396048434
-0.27470000000000006,-20.06060623208622
-0.27369999999999994,-19.678634181122664
-0.27270000000000005,-19.28251501716045
-0.27169999999999994,-18.843954514202288
-0.27070000000000005,-18.40539401124413
-0.26969999999999994,-17.966833508285966
-0.26870000000000005,-17.542420118326454
-0.26769999999999994,-17.103859615368293
-0.26670000000000005,-16.622857773414182
-0.26569999999999994,-16.184297270456018
