Apr. 24, 2025   18:47:37
Cyclic Voltammetry
File: c:/users/guazh/data/banditlqround7_x0exp590_r20/2025-04-16-exp1178\exp1178-2025-04-24t18_35_15-h2koh\exp1178_cv_50mvs_efin_-1600mv.bin
Data Source:  Experiment
Instrument Model:  CHI760E
Header: CV ran at 50 mVs
Note: 

Init E (V) = -1
High E (V) = -1
Low E (V) = -1.6
Final E (V) = -1
Init P/N = N
Scan Rate (V/s) = 0.05
Segment = 7
Sample Interval (V) = 0.001
Quiet Time (sec) = 60
Sensitivity (A/V) = 0.001
Comp R (ohm) = 1.4

Results:

Channel 1:
Segment 1:

Segment 2:

Segment 3:

Segment 4:

Segment 5:

Segment 6:

Segment 7:

Potential/V, Current/A

-1.000, 1.892e-5
-1.001, 3.185e-5
-1.002, 3.524e-5
-1.003, 3.625e-5
-1.004, 3.647e-5
-1.005, 3.685e-5
-1.006, 3.794e-5
-1.007, 3.951e-5
-1.008, 3.952e-5
-1.009, 3.913e-5
-1.010, 3.932e-5
-1.011, 3.995e-5
-1.012, 4.112e-5
-1.013, 4.137e-5
-1.014, 4.072e-5
-1.015, 4.080e-5
-1.016, 4.118e-5
-1.017, 4.287e-5
-1.018, 4.286e-5
-1.019, 4.183e-5
-1.020, 4.213e-5
-1.021, 4.290e-5
-1.022, 4.378e-5
-1.023, 4.400e-5
-1.024, 4.338e-5
-1.025, 4.321e-5
-1.026, 4.407e-5
-1.027, 4.495e-5
-1.028, 4.505e-5
-1.029, 4.429e-5
-1.030, 4.437e-5
-1.031, 4.548e-5
-1.032, 4.604e-5
-1.033, 4.600e-5
-1.034, 4.564e-5
-1.035, 4.472e-5
-1.036, 4.613e-5
-1.037, 4.730e-5
-1.038, 4.738e-5
-1.039, 4.665e-5
-1.040, 4.649e-5
-1.041, 4.777e-5
-1.042, 4.831e-5
-1.043, 4.816e-5
-1.044, 4.801e-5
-1.045, 4.743e-5
-1.046, 4.900e-5
-1.047, 4.965e-5
-1.048, 4.965e-5
-1.049, 4.892e-5
-1.050, 4.914e-5
-1.051, 4.959e-5
-1.052, 5.092e-5
-1.053, 5.092e-5
-1.054, 5.016e-5
-1.055, 4.992e-5
-1.056, 5.104e-5
-1.057, 5.199e-5
-1.058, 5.193e-5
-1.059, 5.104e-5
-1.060, 5.087e-5
-1.061, 5.215e-5
-1.062, 5.302e-5
-1.063, 5.312e-5
-1.064, 5.238e-5
-1.065, 5.245e-5
-1.066, 5.325e-5
-1.067, 5.402e-5
-1.068, 5.408e-5
-1.069, 5.340e-5
-1.070, 5.348e-5
-1.071, 5.444e-5
-1.072, 5.519e-5
-1.073, 5.510e-5
-1.074, 5.463e-5
-1.075, 5.476e-5
-1.076, 5.542e-5
-1.077, 5.636e-5
-1.078, 5.624e-5
-1.079, 5.549e-5
-1.080, 5.551e-5
-1.081, 5.643e-5
-1.082, 5.747e-5
-1.083, 5.711e-5
-1.084, 5.654e-5
-1.085, 5.649e-5
-1.086, 5.724e-5
-1.087, 5.831e-5
-1.088, 5.809e-5
-1.089, 5.739e-5
-1.090, 5.742e-5
-1.091, 5.809e-5
-1.092, 5.925e-5
-1.093, 5.881e-5
-1.094, 5.815e-5
-1.095, 5.842e-5
-1.096, 5.916e-5
-1.097, 5.979e-5
-1.098, 5.983e-5
-1.099, 5.887e-5
-1.100, 5.917e-5
-1.101, 5.978e-5
-1.102, 6.074e-5
-1.103, 6.035e-5
-1.104, 5.975e-5
-1.105, 6.041e-5
-1.106, 6.122e-5
-1.107, 6.146e-5
-1.108, 6.147e-5
-1.109, 6.070e-5
-1.110, 6.048e-5
-1.111, 6.160e-5
-1.112, 6.213e-5
-1.113, 6.192e-5
-1.114, 6.139e-5
-1.115, 6.112e-5
-1.116, 6.226e-5
-1.117, 6.283e-5
-1.118, 6.260e-5
-1.119, 6.212e-5
-1.120, 6.184e-5
-1.121, 6.264e-5
-1.122, 6.363e-5
-1.123, 6.309e-5
-1.124, 6.268e-5
-1.125, 6.244e-5
-1.126, 6.334e-5
-1.127, 6.423e-5
-1.128, 6.372e-5
-1.129, 6.310e-5
-1.130, 6.322e-5
-1.131, 6.384e-5
-1.132, 6.474e-5
-1.133, 6.428e-5
-1.134, 6.361e-5
-1.135, 6.375e-5
-1.136, 6.446e-5
-1.137, 6.523e-5
-1.138, 6.505e-5
-1.139, 6.417e-5
-1.140, 6.440e-5
-1.141, 6.505e-5
-1.142, 6.568e-5
-1.143, 6.559e-5
-1.144, 6.483e-5
-1.145, 6.470e-5
-1.146, 6.586e-5
-1.147, 6.628e-5
-1.148, 6.613e-5
-1.149, 6.545e-5
-1.150, 6.549e-5
-1.151, 6.632e-5
-1.152, 6.691e-5
-1.153, 6.668e-5
-1.154, 6.620e-5
-1.155, 6.599e-5
-1.156, 6.703e-5
-1.157, 6.783e-5
-1.158, 6.797e-5
-1.159, 6.717e-5
-1.160, 6.712e-5
-1.161, 6.782e-5
-1.162, 6.865e-5
-1.163, 6.829e-5
-1.164, 6.782e-5
-1.165, 6.759e-5
-1.166, 6.842e-5
-1.167, 6.934e-5
-1.168, 6.888e-5
-1.169, 6.827e-5
-1.170, 6.845e-5
-1.171, 6.900e-5
-1.172, 6.995e-5
-1.173, 6.949e-5
-1.174, 6.878e-5
-1.175, 6.902e-5
-1.176, 6.974e-5
-1.177, 7.066e-5
-1.178, 7.043e-5
-1.179, 6.948e-5
-1.180, 6.974e-5
-1.181, 7.038e-5
-1.182, 7.126e-5
-1.183, 7.101e-5
-1.184, 7.012e-5
-1.185, 7.037e-5
-1.186, 7.122e-5
-1.187, 7.201e-5
-1.188, 7.186e-5
-1.189, 7.116e-5
-1.190, 7.116e-5
-1.191, 7.231e-5
-1.192, 7.290e-5
-1.193, 7.259e-5
-1.194, 7.213e-5
-1.195, 7.216e-5
-1.196, 7.318e-5
-1.197, 7.397e-5
-1.198, 7.356e-5
-1.199, 7.331e-5
-1.200, 7.313e-5
-1.201, 7.405e-5
-1.202, 7.493e-5
-1.203, 7.457e-5
-1.204, 7.403e-5
-1.205, 7.416e-5
-1.206, 7.514e-5
-1.207, 7.610e-5
-1.208, 7.561e-5
-1.209, 7.512e-5
-1.210, 7.537e-5
-1.211, 7.622e-5
-1.212, 7.709e-5
-1.213, 7.677e-5
-1.214, 7.615e-5
-1.215, 7.668e-5
-1.216, 7.739e-5
-1.217, 7.826e-5
-1.218, 7.824e-5
-1.219, 7.742e-5
-1.220, 7.787e-5
-1.221, 7.879e-5
-1.222, 7.967e-5
-1.223, 7.957e-5
-1.224, 7.886e-5
-1.225, 7.946e-5
-1.226, 8.052e-5
-1.227, 8.142e-5
-1.228, 8.147e-5
-1.229, 8.124e-5
-1.230, 8.109e-5
-1.231, 8.228e-5
-1.232, 8.299e-5
-1.233, 8.290e-5
-1.234, 8.266e-5
-1.235, 8.283e-5
-1.236, 8.409e-5
-1.237, 8.513e-5
-1.238, 8.491e-5
-1.239, 8.482e-5
-1.240, 8.516e-5
-1.241, 8.628e-5
-1.242, 8.743e-5
-1.243, 8.720e-5
-1.244, 8.710e-5
-1.245, 8.737e-5
-1.246, 8.865e-5
-1.247, 9.003e-5
-1.248, 8.982e-5
-1.249, 8.968e-5
-1.250, 9.026e-5
-1.251, 9.149e-5
-1.252, 9.283e-5
-1.253, 9.271e-5
-1.254, 9.259e-5
-1.255, 9.348e-5
-1.256, 9.466e-5
-1.257, 9.598e-5
-1.258, 9.628e-5
-1.259, 9.616e-5
-1.260, 9.701e-5
-1.261, 9.838e-5
-1.262, 9.956e-5
-1.263, 1.001e-4
-1.264, 9.958e-5
-1.265, 1.008e-4
-1.266, 1.025e-4
-1.267, 1.039e-4
-1.268, 1.045e-4
-1.269, 1.042e-4
-1.270, 1.053e-4
-1.271, 1.069e-4
-1.272, 1.081e-4
-1.273, 1.087e-4
-1.274, 1.091e-4
-1.275, 1.097e-4
-1.276, 1.117e-4
-1.277, 1.130e-4
-1.278, 1.135e-4
-1.279, 1.142e-4
-1.280, 1.154e-4
-1.281, 1.168e-4
-1.282, 1.187e-4
-1.283, 1.191e-4
-1.284, 1.197e-4
-1.285, 1.207e-4
-1.286, 1.228e-4
-1.287, 1.248e-4
-1.288, 1.252e-4
-1.289, 1.259e-4
-1.290, 1.273e-4
-1.291, 1.294e-4
-1.292, 1.313e-4
-1.293, 1.320e-4
-1.294, 1.327e-4
-1.295, 1.344e-4
-1.296, 1.364e-4
-1.297, 1.386e-4
-1.298, 1.399e-4
-1.299, 1.408e-4
-1.300, 1.426e-4
-1.301, 1.448e-4
-1.302, 1.471e-4
-1.303, 1.490e-4
-1.304, 1.497e-4
-1.305, 1.518e-4
-1.306, 1.547e-4
-1.307, 1.571e-4
-1.308, 1.587e-4
-1.309, 1.598e-4
-1.310, 1.624e-4
-1.311, 1.656e-4
-1.312, 1.684e-4
-1.313, 1.705e-4
-1.314, 1.726e-4
-1.315, 1.753e-4
-1.316, 1.790e-4
-1.317, 1.823e-4
-1.318, 1.850e-4
-1.319, 1.877e-4
-1.320, 1.909e-4
-1.321, 1.954e-4
-1.322, 2.000e-4
-1.323, 2.036e-4
-1.324, 2.077e-4
-1.325, 2.125e-4
-1.326, 2.184e-4
-1.327, 2.246e-4
-1.328, 2.293e-4
-1.329, 2.351e-4
-1.330, 2.421e-4
-1.331, 2.506e-4
-1.332, 2.597e-4
-1.333, 2.686e-4
-1.334, 2.787e-4
-1.335, 2.910e-4
-1.336, 3.053e-4
-1.337, 3.213e-4
-1.338, 3.387e-4
-1.339, 3.575e-4
-1.340, 3.802e-4
-1.341, 4.060e-4
-1.342, 4.358e-4
-1.343, 4.687e-4
-1.344, 5.058e-4
-1.345, 5.495e-4
-1.346, 5.998e-4
-1.347, 6.573e-4
-1.348, 7.214e-4
-1.349, 7.945e-4
-1.350, 8.770e-4
-1.351, 9.686e-4
-1.352, 1.069e-3
-1.353, 1.179e-3
-1.354, 1.301e-3
-1.355, 1.430e-3
-1.356, 1.567e-3
-1.357, 1.706e-3
-1.358, 1.849e-3
-1.359, 1.995e-3
-1.360, 2.141e-3
-1.361, 2.288e-3
-1.362, 2.435e-3
-1.363, 2.576e-3
-1.364, 2.719e-3
-1.365, 2.862e-3
-1.366, 2.999e-3
-1.367, 3.132e-3
-1.368, 3.262e-3
-1.369, 3.387e-3
-1.370, 3.510e-3
-1.371, 3.625e-3
-1.372, 3.740e-3
-1.373, 3.849e-3
-1.374, 3.950e-3
-1.375, 4.041e-3
-1.376, 4.138e-3
-1.377, 4.227e-3
-1.378, 4.315e-3
-1.379, 4.404e-3
-1.380, 4.487e-3
-1.381, 4.569e-3
-1.382, 4.645e-3
-1.383, 4.712e-3
-1.384, 4.779e-3
-1.385, 4.839e-3
-1.386, 4.906e-3
-1.387, 4.973e-3
-1.388, 5.036e-3
-1.389, 5.088e-3
-1.390, 5.150e-3
-1.391, 5.213e-3
-1.392, 5.248e-3
-1.393, 5.300e-3
-1.394, 5.358e-3
-1.395, 5.394e-3
-1.396, 5.437e-3
-1.397, 5.512e-3
-1.398, 5.579e-3
-1.399, 5.640e-3
-1.400, 5.724e-3
-1.401, 5.794e-3
-1.402, 5.843e-3
-1.403, 5.882e-3
-1.404, 5.926e-3
-1.405, 5.963e-3
-1.406, 6.002e-3
-1.407, 6.060e-3
-1.408, 6.124e-3
-1.409, 6.220e-3
-1.410, 6.307e-3
-1.411, 6.346e-3
-1.412, 6.365e-3
-1.413, 6.403e-3
-1.414, 6.450e-3
-1.415, 6.518e-3
-1.416, 6.578e-3
-1.417, 6.629e-3
-1.418, 6.698e-3
-1.419, 6.813e-3
-1.420, 6.913e-3
-1.421, 6.946e-3
-1.422, 7.006e-3
-1.423, 7.072e-3
-1.424, 7.117e-3
-1.425, 7.184e-3
-1.426, 7.293e-3
-1.427, 7.437e-3
-1.428, 7.557e-3
-1.429, 7.637e-3
-1.430, 7.665e-3
-1.431, 7.697e-3
-1.432, 7.729e-3
-1.433, 7.808e-3
-1.434, 7.865e-3
-1.435, 7.865e-3
-1.436, 7.970e-3
-1.437, 8.065e-3
-1.438, 8.084e-3
-1.439, 8.102e-3
-1.440, 8.152e-3
-1.441, 8.219e-3
-1.442, 8.303e-3
-1.443, 8.399e-3
-1.444, 8.439e-3
-1.445, 8.463e-3
-1.446, 8.523e-3
-1.447, 8.626e-3
-1.448, 8.719e-3
-1.449, 8.773e-3
-1.450, 8.817e-3
-1.451, 8.826e-3
-1.452, 8.882e-3
-1.453, 8.924e-3
-1.454, 9.026e-3
-1.455, 9.153e-3
-1.456, 9.207e-3
-1.457, 9.278e-3
-1.458, 9.364e-3
-1.459, 9.432e-3
-1.460, 9.477e-3
-1.461, 9.514e-3
-1.462, 9.554e-3
-1.463, 9.582e-3
-1.464, 9.617e-3
-1.465, 9.807e-3
-1.466, 9.997e-3
-1.467, 1.001e-2
-1.468, 9.988e-3
-1.469, 1.001e-2
-1.470, 1.004e-2
-1.471, 1.011e-2
-1.472, 1.011e-2
-1.473, 1.011e-2
-1.474, 1.011e-2
-1.475, 1.011e-2
-1.476, 1.011e-2
-1.477, 1.011e-2
-1.478, 1.011e-2
-1.479, 1.011e-2
-1.480, 1.011e-2
-1.481, 1.011e-2
-1.482, 1.011e-2
-1.483, 1.011e-2
-1.484, 1.011e-2
-1.485, 1.011e-2
-1.486, 1.011e-2
-1.487, 1.011e-2
-1.488, 1.011e-2
-1.489, 1.011e-2
-1.490, 1.011e-2
-1.491, 1.011e-2
-1.492, 1.011e-2
-1.493, 1.011e-2
-1.494, 1.011e-2
-1.495, 1.011e-2
-1.496, 1.011e-2
-1.497, 1.011e-2
-1.498, 1.011e-2
-1.499, 1.011e-2
-1.500, 1.011e-2
-1.501, 1.011e-2
-1.502, 1.011e-2
-1.503, 1.011e-2
-1.504, 1.011e-2
-1.505, 1.011e-2
-1.506, 1.011e-2
-1.507, 1.011e-2
-1.508, 1.011e-2
-1.509, 1.011e-2
-1.510, 1.011e-2
-1.511, 1.011e-2
-1.512, 1.011e-2
-1.513, 1.011e-2
-1.514, 1.011e-2
-1.515, 1.011e-2
-1.516, 1.011e-2
-1.517, 1.011e-2
-1.518, 1.011e-2
-1.519, 1.011e-2
-1.520, 1.011e-2
-1.521, 1.011e-2
-1.522, 1.011e-2
-1.523, 1.011e-2
-1.524, 1.011e-2
-1.525, 1.011e-2
-1.526, 1.011e-2
-1.527, 1.011e-2
-1.528, 1.011e-2
-1.529, 1.011e-2
-1.530, 1.011e-2
-1.531, 1.011e-2
-1.532, 1.011e-2
-1.533, 1.011e-2
-1.534, 1.011e-2
-1.535, 1.011e-2
-1.536, 1.011e-2
-1.537, 1.011e-2
-1.538, 1.011e-2
-1.539, 1.011e-2
-1.540, 1.011e-2
-1.541, 1.011e-2
-1.542, 1.011e-2
-1.543, 1.011e-2
-1.544, 1.011e-2
-1.545, 1.011e-2
-1.546, 1.011e-2
-1.547, 1.011e-2
-1.548, 1.011e-2
-1.549, 1.011e-2
-1.550, 1.011e-2
-1.551, 1.011e-2
-1.552, 1.011e-2
-1.553, 1.011e-2
-1.554, 1.011e-2
-1.555, 1.011e-2
-1.556, 1.011e-2
-1.557, 1.011e-2
-1.558, 1.011e-2
-1.559, 1.011e-2
-1.560, 1.011e-2
-1.561, 1.011e-2
-1.562, 1.011e-2
-1.563, 1.011e-2
-1.564, 1.011e-2
-1.565, 1.011e-2
-1.566, 1.011e-2
-1.567, 1.011e-2
-1.568, 1.011e-2
-1.569, 1.011e-2
-1.570, 1.011e-2
-1.571, 1.011e-2
-1.572, 1.011e-2
-1.573, 1.011e-2
-1.574, 1.011e-2
-1.575, 1.011e-2
-1.576, 1.011e-2
-1.577, 1.011e-2
-1.578, 1.011e-2
-1.579, 1.011e-2
-1.580, 1.011e-2
-1.581, 1.011e-2
-1.582, 1.011e-2
-1.583, 1.011e-2
-1.584, 1.011e-2
-1.585, 1.011e-2
-1.586, 1.011e-2
-1.587, 1.011e-2
-1.588, 1.011e-2
-1.589, 1.011e-2
-1.590, 1.011e-2
-1.591, 1.011e-2
-1.592, 1.011e-2
-1.593, 1.011e-2
-1.594, 1.011e-2
-1.595, 1.011e-2
-1.596, 1.011e-2
-1.597, 1.011e-2
-1.598, 1.011e-2
-1.599, 1.011e-2
-1.600, 1.011e-2
-1.599, 1.011e-2
-1.598, 1.011e-2
-1.597, 1.011e-2
-1.596, 1.011e-2
-1.595, 1.011e-2
-1.594, 1.011e-2
-1.593, 1.011e-2
-1.592, 1.011e-2
-1.591, 1.011e-2
-1.590, 1.011e-2
-1.589, 1.011e-2
-1.588, 1.011e-2
-1.587, 1.011e-2
-1.586, 1.011e-2
-1.585, 1.011e-2
-1.584, 1.011e-2
-1.583, 1.011e-2
-1.582, 1.011e-2
-1.581, 1.011e-2
-1.580, 1.011e-2
-1.579, 1.011e-2
-1.578, 1.011e-2
-1.577, 1.011e-2
-1.576, 1.011e-2
-1.575, 1.011e-2
-1.574, 1.011e-2
-1.573, 1.011e-2
-1.572, 1.011e-2
-1.571, 1.011e-2
-1.570, 1.011e-2
-1.569, 1.011e-2
-1.568, 1.011e-2
-1.567, 1.011e-2
-1.566, 1.011e-2
-1.565, 1.011e-2
-1.564, 1.011e-2
-1.563, 1.011e-2
-1.562, 1.011e-2
-1.561, 1.011e-2
-1.560, 1.011e-2
-1.559, 1.011e-2
-1.558, 1.011e-2
-1.557, 1.011e-2
-1.556, 1.011e-2
-1.555, 1.011e-2
-1.554, 1.011e-2
-1.553, 1.011e-2
-1.552, 1.011e-2
-1.551, 1.011e-2
-1.550, 1.011e-2
-1.549, 1.011e-2
-1.548, 1.011e-2
-1.547, 1.011e-2
-1.546, 1.011e-2
-1.545, 1.011e-2
-1.544, 1.011e-2
-1.543, 1.011e-2
-1.542, 1.011e-2
-1.541, 1.011e-2
-1.540, 1.011e-2
-1.539, 1.011e-2
-1.538, 1.011e-2
-1.537, 1.011e-2
-1.536, 1.011e-2
-1.535, 1.011e-2
-1.534, 1.011e-2
-1.533, 1.011e-2
-1.532, 1.011e-2
-1.531, 1.011e-2
-1.530, 1.011e-2
-1.529, 1.011e-2
-1.528, 1.011e-2
-1.527, 1.011e-2
-1.526, 1.011e-2
-1.525, 1.011e-2
-1.524, 1.011e-2
-1.523, 1.011e-2
-1.522, 1.011e-2
-1.521, 1.011e-2
-1.520, 1.011e-2
-1.519, 1.011e-2
-1.518, 1.011e-2
-1.517, 1.011e-2
-1.516, 1.011e-2
-1.515, 1.011e-2
-1.514, 1.011e-2
-1.513, 1.011e-2
-1.512, 1.011e-2
-1.511, 1.011e-2
-1.510, 1.011e-2
-1.509, 1.011e-2
-1.508, 1.011e-2
-1.507, 1.011e-2
-1.506, 1.011e-2
-1.505, 1.011e-2
-1.504, 1.011e-2
-1.503, 1.011e-2
-1.502, 1.011e-2
-1.501, 1.011e-2
-1.500, 1.011e-2
-1.499, 1.011e-2
-1.498, 1.011e-2
-1.497, 1.011e-2
-1.496, 1.011e-2
-1.495, 1.011e-2
-1.494, 1.011e-2
-1.493, 1.011e-2
-1.492, 1.011e-2
-1.491, 1.011e-2
-1.490, 1.011e-2
-1.489, 1.011e-2
-1.488, 1.011e-2
-1.487, 1.011e-2
-1.486, 1.011e-2
-1.485, 1.011e-2
-1.484, 1.011e-2
-1.483, 1.008e-2
-1.482, 9.986e-3
-1.481, 9.922e-3
-1.480, 9.855e-3
-1.479, 9.832e-3
-1.478, 9.870e-3
-1.477, 9.934e-3
-1.476, 9.892e-3
-1.475, 9.744e-3
-1.474, 9.595e-3
-1.473, 9.483e-3
-1.472, 9.351e-3
-1.471, 9.232e-3
-1.470, 9.120e-3
-1.469, 9.055e-3
-1.468, 9.033e-3
-1.467, 9.049e-3
-1.466, 8.970e-3
-1.465, 8.856e-3
-1.464, 8.716e-3
-1.463, 8.640e-3
-1.462, 8.534e-3
-1.461, 8.388e-3
-1.460, 8.293e-3
-1.459, 8.225e-3
-1.458, 8.179e-3
-1.457, 8.098e-3
-1.456, 8.003e-3
-1.455, 7.915e-3
-1.454, 7.828e-3
-1.453, 7.738e-3
-1.452, 7.714e-3
-1.451, 7.628e-3
-1.450, 7.608e-3
-1.449, 7.579e-3
-1.448, 7.510e-3
-1.447, 7.459e-3
-1.446, 7.381e-3
-1.445, 7.304e-3
-1.444, 7.258e-3
-1.443, 7.223e-3
-1.442, 7.137e-3
-1.441, 7.067e-3
-1.440, 6.958e-3
-1.439, 6.873e-3
-1.438, 6.804e-3
-1.437, 6.752e-3
-1.436, 6.682e-3
-1.435, 6.592e-3
-1.434, 6.501e-3
-1.433, 6.420e-3
-1.432, 6.322e-3
-1.431, 6.282e-3
-1.430, 6.193e-3
-1.429, 6.114e-3
-1.428, 6.064e-3
-1.427, 5.987e-3
-1.426, 5.893e-3
-1.425, 5.819e-3
-1.424, 5.769e-3
-1.423, 5.734e-3
-1.422, 5.693e-3
-1.421, 5.693e-3
-1.420, 5.675e-3
-1.419, 5.608e-3
-1.418, 5.526e-3
-1.417, 5.439e-3
-1.416, 5.352e-3
-1.415, 5.276e-3
-1.414, 5.187e-3
-1.413, 5.099e-3
-1.412, 5.039e-3
-1.411, 4.997e-3
-1.410, 4.916e-3
-1.409, 4.844e-3
-1.408, 4.765e-3
-1.407, 4.692e-3
-1.406, 4.618e-3
-1.405, 4.543e-3
-1.404, 4.485e-3
-1.403, 4.411e-3
-1.402, 4.345e-3
-1.401, 4.280e-3
-1.400, 4.228e-3
-1.399, 4.205e-3
-1.398, 4.213e-3
-1.397, 4.167e-3
-1.396, 4.088e-3
-1.395, 4.018e-3
-1.394, 3.953e-3
-1.393, 3.887e-3
-1.392, 3.825e-3
-1.391, 3.783e-3
-1.390, 3.737e-3
-1.389, 3.684e-3
-1.388, 3.616e-3
-1.387, 3.548e-3
-1.386, 3.491e-3
-1.385, 3.442e-3
-1.384, 3.387e-3
-1.383, 3.326e-3
-1.382, 3.267e-3
-1.381, 3.218e-3
-1.380, 3.163e-3
-1.379, 3.113e-3
-1.378, 3.063e-3
-1.377, 3.005e-3
-1.376, 2.948e-3
-1.375, 2.890e-3
-1.374, 2.837e-3
-1.373, 2.795e-3
-1.372, 2.755e-3
-1.371, 2.709e-3
-1.370, 2.658e-3
-1.369, 2.608e-3
-1.368, 2.550e-3
-1.367, 2.502e-3
-1.366, 2.452e-3
-1.365, 2.400e-3
-1.364, 2.345e-3
-1.363, 2.295e-3
-1.362, 2.245e-3
-1.361, 2.190e-3
-1.360, 2.142e-3
-1.359, 2.088e-3
-1.358, 2.042e-3
-1.357, 1.995e-3
-1.356, 1.951e-3
-1.355, 1.906e-3
-1.354, 1.856e-3
-1.353, 1.812e-3
-1.352, 1.769e-3
-1.351, 1.725e-3
-1.350, 1.679e-3
-1.349, 1.642e-3
-1.348, 1.604e-3
-1.347, 1.574e-3
-1.346, 1.548e-3
-1.345, 1.508e-3
-1.344, 1.475e-3
-1.343, 1.442e-3
-1.342, 1.412e-3
-1.341, 1.380e-3
-1.340, 1.347e-3
-1.339, 1.313e-3
-1.338, 1.278e-3
-1.337, 1.243e-3
-1.336, 1.207e-3
-1.335, 1.174e-3
-1.334, 1.141e-3
-1.333, 1.111e-3
-1.332, 1.080e-3
-1.331, 1.049e-3
-1.330, 1.020e-3
-1.329, 9.907e-4
-1.328, 9.624e-4
-1.327, 9.331e-4
-1.326, 9.048e-4
-1.325, 8.774e-4
-1.324, 8.520e-4
-1.323, 8.290e-4
-1.322, 8.063e-4
-1.321, 7.811e-4
-1.320, 7.563e-4
-1.319, 7.329e-4
-1.318, 7.102e-4
-1.317, 6.890e-4
-1.316, 6.690e-4
-1.315, 6.486e-4
-1.314, 6.285e-4
-1.313, 6.089e-4
-1.312, 5.894e-4
-1.311, 5.696e-4
-1.310, 5.512e-4
-1.309, 5.334e-4
-1.308, 5.161e-4
-1.307, 4.983e-4
-1.306, 4.811e-4
-1.305, 4.645e-4
-1.304, 4.489e-4
-1.303, 4.336e-4
-1.302, 4.183e-4
-1.301, 4.030e-4
-1.300, 3.886e-4
-1.299, 3.750e-4
-1.298, 3.618e-4
-1.297, 3.485e-4
-1.296, 3.351e-4
-1.295, 3.231e-4
-1.294, 3.116e-4
-1.293, 3.003e-4
-1.292, 2.888e-4
-1.291, 2.773e-4
-1.290, 2.662e-4
-1.289, 2.560e-4
-1.288, 2.468e-4
-1.287, 2.369e-4
-1.286, 2.265e-4
-1.285, 2.173e-4
-1.284, 2.092e-4
-1.283, 2.011e-4
-1.282, 1.940e-4
-1.281, 1.851e-4
-1.280, 1.772e-4
-1.279, 1.703e-4
-1.278, 1.634e-4
-1.277, 1.563e-4
-1.276, 1.484e-4
-1.275, 1.415e-4
-1.274, 1.357e-4
-1.273, 1.302e-4
-1.272, 1.244e-4
-1.271, 1.179e-4
-1.270, 1.120e-4
-1.269, 1.076e-4
-1.268, 1.030e-4
-1.267, 9.794e-5
-1.266, 9.250e-5
-1.265, 8.782e-5
-1.264, 8.403e-5
-1.263, 8.030e-5
-1.262, 7.591e-5
-1.261, 7.147e-5
-1.260, 6.750e-5
-1.259, 6.426e-5
-1.258, 6.135e-5
-1.257, 5.770e-5
-1.256, 5.398e-5
-1.255, 5.050e-5
-1.254, 4.775e-5
-1.253, 4.566e-5
-1.252, 4.281e-5
-1.251, 3.923e-5
-1.250, 3.640e-5
-1.249, 3.439e-5
-1.248, 3.271e-5
-1.247, 3.033e-5
-1.246, 2.705e-5
-1.245, 2.473e-5
-1.244, 2.327e-5
-1.243, 2.168e-5
-1.242, 1.991e-5
-1.241, 1.721e-5
-1.240, 1.520e-5
-1.239, 1.392e-5
-1.238, 1.268e-5
-1.237, 1.128e-5
-1.236, 8.769e-6
-1.235, 6.884e-6
-1.234, 6.115e-6
-1.233, 5.224e-6
-1.232, 3.962e-6
-1.231, 2.008e-6
-1.230, 2.208e-7
-1.229, -9.769e-7
-1.228, -1.100e-6
-1.227, -2.369e-6
-1.226, -3.790e-6
-1.225, -5.485e-6
-1.224, -5.735e-6
-1.223, -6.094e-6
-1.222, -7.199e-6
-1.221, -8.655e-6
-1.220, -9.968e-6
-1.219, -1.035e-5
-1.218, -1.038e-5
-1.217, -1.111e-5
-1.216, -1.249e-5
-1.215, -1.369e-5
-1.214, -1.398e-5
-1.213, -1.384e-5
-1.212, -1.436e-5
-1.211, -1.561e-5
-1.210, -1.666e-5
-1.209, -1.686e-5
-1.208, -1.650e-5
-1.207, -1.703e-5
-1.206, -1.848e-5
-1.205, -1.926e-5
-1.204, -1.938e-5
-1.203, -1.908e-5
-1.202, -1.944e-5
-1.201, -2.059e-5
-1.200, -2.140e-5
-1.199, -2.140e-5
-1.198, -2.122e-5
-1.197, -2.126e-5
-1.196, -2.240e-5
-1.195, -2.340e-5
-1.194, -2.317e-5
-1.193, -2.283e-5
-1.192, -2.302e-5
-1.191, -2.402e-5
-1.190, -2.487e-5
-1.189, -2.454e-5
-1.188, -2.405e-5
-1.187, -2.438e-5
-1.186, -2.506e-5
-1.185, -2.605e-5
-1.184, -2.574e-5
-1.183, -2.542e-5
-1.182, -2.566e-5
-1.181, -2.650e-5
-1.180, -2.741e-5
-1.179, -2.737e-5
-1.178, -2.714e-5
-1.177, -2.707e-5
-1.176, -2.780e-5
-1.175, -2.852e-5
-1.174, -2.853e-5
-1.173, -2.788e-5
-1.172, -2.784e-5
-1.171, -2.873e-5
-1.170, -2.933e-5
-1.169, -2.938e-5
-1.168, -2.870e-5
-1.167, -2.871e-5
-1.166, -2.967e-5
-1.165, -3.013e-5
-1.164, -2.985e-5
-1.163, -2.952e-5
-1.162, -2.923e-5
-1.161, -3.033e-5
-1.160, -3.069e-5
-1.159, -3.064e-5
-1.158, -3.018e-5
-1.157, -2.998e-5
-1.156, -3.095e-5
-1.155, -3.158e-5
-1.154, -3.119e-5
-1.153, -3.080e-5
-1.152, -3.059e-5
-1.151, -3.142e-5
-1.150, -3.207e-5
-1.149, -3.173e-5
-1.148, -3.126e-5
-1.147, -3.135e-5
-1.146, -3.202e-5
-1.145, -3.285e-5
-1.144, -3.251e-5
-1.143, -3.197e-5
-1.142, -3.217e-5
-1.141, -3.266e-5
-1.140, -3.340e-5
-1.139, -3.332e-5
-1.138, -3.259e-5
-1.137, -3.257e-5
-1.136, -3.317e-5
-1.135, -3.392e-5
-1.134, -3.400e-5
-1.133, -3.321e-5
-1.132, -3.311e-5
-1.131, -3.402e-5
-1.130, -3.451e-5
-1.129, -3.471e-5
-1.128, -3.377e-5
-1.127, -3.377e-5
-1.126, -3.471e-5
-1.125, -3.529e-5
-1.124, -3.522e-5
-1.123, -3.465e-5
-1.122, -3.447e-5
-1.121, -3.543e-5
-1.120, -3.585e-5
-1.119, -3.583e-5
-1.118, -3.545e-5
-1.117, -3.510e-5
-1.116, -3.584e-5
-1.115, -3.693e-5
-1.114, -3.666e-5
-1.113, -3.626e-5
-1.112, -3.588e-5
-1.111, -3.639e-5
-1.110, -3.728e-5
-1.109, -3.707e-5
-1.108, -3.657e-5
-1.107, -3.650e-5
-1.106, -3.723e-5
-1.105, -3.824e-5
-1.104, -3.815e-5
-1.103, -3.752e-5
-1.102, -3.766e-5
-1.101, -3.808e-5
-1.100, -3.900e-5
-1.099, -3.913e-5
-1.098, -3.837e-5
-1.097, -3.838e-5
-1.096, -3.892e-5
-1.095, -3.983e-5
-1.094, -3.985e-5
-1.093, -3.924e-5
-1.092, -3.905e-5
-1.091, -3.995e-5
-1.090, -4.065e-5
-1.089, -4.078e-5
-1.088, -4.013e-5
-1.087, -4.005e-5
-1.086, -4.095e-5
-1.085, -4.162e-5
-1.084, -4.185e-5
-1.083, -4.130e-5
-1.082, -4.114e-5
-1.081, -4.209e-5
-1.080, -4.277e-5
-1.079, -4.285e-5
-1.078, -4.259e-5
-1.077, -4.223e-5
-1.076, -4.322e-5
-1.075, -4.420e-5
-1.074, -4.412e-5
-1.073, -4.369e-5
-1.072, -4.334e-5
-1.071, -4.409e-5
-1.070, -4.529e-5
-1.069, -4.525e-5
-1.068, -4.480e-5
-1.067, -4.478e-5
-1.066, -4.559e-5
-1.065, -4.675e-5
-1.064, -4.700e-5
-1.063, -4.671e-5
-1.062, -4.674e-5
-1.061, -4.728e-5
-1.060, -4.823e-5
-1.059, -4.848e-5
-1.058, -4.797e-5
-1.057, -4.791e-5
-1.056, -4.858e-5
-1.055, -4.957e-5
-1.054, -5.010e-5
-1.053, -4.957e-5
-1.052, -4.955e-5
-1.051, -5.043e-5
-1.050, -5.136e-5
-1.049, -5.177e-5
-1.048, -5.130e-5
-1.047, -5.111e-5
-1.046, -5.204e-5
-1.045, -5.296e-5
-1.044, -5.326e-5
-1.043, -5.323e-5
-1.042, -5.283e-5
-1.041, -5.408e-5
-1.040, -5.489e-5
-1.039, -5.532e-5
-1.038, -5.531e-5
-1.037, -5.507e-5
-1.036, -5.591e-5
-1.035, -5.726e-5
-1.034, -5.782e-5
-1.033, -5.772e-5
-1.032, -5.722e-5
-1.031, -5.815e-5
-1.030, -5.949e-5
-1.029, -5.986e-5
-1.028, -5.963e-5
-1.027, -5.966e-5
-1.026, -6.047e-5
-1.025, -6.201e-5
-1.024, -6.257e-5
-1.023, -6.220e-5
-1.022, -6.226e-5
-1.021, -6.284e-5
-1.020, -6.414e-5
-1.019, -6.486e-5
-1.018, -6.451e-5
-1.017, -6.467e-5
-1.016, -6.545e-5
-1.015, -6.676e-5
-1.014, -6.738e-5
-1.013, -6.715e-5
-1.012, -6.726e-5
-1.011, -6.826e-5
-1.010, -6.941e-5
-1.009, -7.038e-5
-1.008, -7.001e-5
-1.007, -6.994e-5
-1.006, -7.090e-5
-1.005, -7.193e-5
-1.004, -7.295e-5
-1.003, -7.291e-5
-1.002, -7.262e-5
-1.001, -7.387e-5
-1.000, -3.818e-5
-1.001, -1.497e-5
-1.002, -6.932e-6
-1.003, -1.546e-6
-1.004, 1.860e-6
-1.005, 4.117e-6
-1.006, 6.502e-6
-1.007, 9.485e-6
-1.008, 1.180e-5
-1.009, 1.329e-5
-1.010, 1.402e-5
-1.011, 1.519e-5
-1.012, 1.723e-5
-1.013, 1.896e-5
-1.014, 1.972e-5
-1.015, 2.017e-5
-1.016, 2.058e-5
-1.017, 2.211e-5
-1.018, 2.372e-5
-1.019, 2.387e-5
-1.020, 2.399e-5
-1.021, 2.429e-5
-1.022, 2.545e-5
-1.023, 2.691e-5
-1.024, 2.707e-5
-1.025, 2.688e-5
-1.026, 2.711e-5
-1.027, 2.809e-5
-1.028, 2.918e-5
-1.029, 2.926e-5
-1.030, 2.876e-5
-1.031, 2.903e-5
-1.032, 2.981e-5
-1.033, 3.081e-5
-1.034, 3.102e-5
-1.035, 3.023e-5
-1.036, 3.058e-5
-1.037, 3.137e-5
-1.038, 3.223e-5
-1.039, 3.228e-5
-1.040, 3.157e-5
-1.041, 3.162e-5
-1.042, 3.243e-5
-1.043, 3.336e-5
-1.044, 3.347e-5
-1.045, 3.283e-5
-1.046, 3.268e-5
-1.047, 3.346e-5
-1.048, 3.399e-5
-1.049, 3.389e-5
-1.050, 3.331e-5
-1.051, 3.312e-5
-1.052, 3.405e-5
-1.053, 3.477e-5
-1.054, 3.480e-5
-1.055, 3.431e-5
-1.056, 3.399e-5
-1.057, 3.463e-5
-1.058, 3.536e-5
-1.059, 3.520e-5
-1.060, 3.455e-5
-1.061, 3.431e-5
-1.062, 3.493e-5
-1.063, 3.597e-5
-1.064, 3.568e-5
-1.065, 3.502e-5
-1.066, 3.493e-5
-1.067, 3.542e-5
-1.068, 3.618e-5
-1.069, 3.598e-5
-1.070, 3.523e-5
-1.071, 3.520e-5
-1.072, 3.552e-5
-1.073, 3.617e-5
-1.074, 3.631e-5
-1.075, 3.580e-5
-1.076, 3.560e-5
-1.077, 3.598e-5
-1.078, 3.670e-5
-1.079, 3.690e-5
-1.080, 3.582e-5
-1.081, 3.562e-5
-1.082, 3.628e-5
-1.083, 3.685e-5
-1.084, 3.680e-5
-1.085, 3.602e-5
-1.086, 3.575e-5
-1.087, 3.644e-5
-1.088, 3.695e-5
-1.089, 3.697e-5
-1.090, 3.636e-5
-1.091, 3.596e-5
-1.092, 3.671e-5
-1.093, 3.712e-5
-1.094, 3.715e-5
-1.095, 3.656e-5
-1.096, 3.610e-5
-1.097, 3.668e-5
-1.098, 3.737e-5
-1.099, 3.723e-5
-1.100, 3.668e-5
-1.101, 3.627e-5
-1.102, 3.680e-5
-1.103, 3.757e-5
-1.104, 3.743e-5
-1.105, 3.677e-5
-1.106, 3.652e-5
-1.107, 3.701e-5
-1.108, 3.776e-5
-1.109, 3.761e-5
-1.110, 3.694e-5
-1.111, 3.673e-5
-1.112, 3.701e-5
-1.113, 3.779e-5
-1.114, 3.808e-5
-1.115, 3.721e-5
-1.116, 3.691e-5
-1.117, 3.742e-5
-1.118, 3.810e-5
-1.119, 3.821e-5
-1.120, 3.729e-5
-1.121, 3.700e-5
-1.122, 3.758e-5
-1.123, 3.816e-5
-1.124, 3.841e-5
-1.125, 3.758e-5
-1.126, 3.715e-5
-1.127, 3.794e-5
-1.128, 3.850e-5
-1.129, 3.863e-5
-1.130, 3.799e-5
-1.131, 3.752e-5
-1.132, 3.819e-5
-1.133, 3.886e-5
-1.134, 3.880e-5
-1.135, 3.829e-5
-1.136, 3.771e-5
-1.137, 3.838e-5
-1.138, 3.919e-5
-1.139, 3.917e-5
-1.140, 3.854e-5
-1.141, 3.810e-5
-1.142, 3.860e-5
-1.143, 3.953e-5
-1.144, 3.950e-5
-1.145, 3.879e-5
-1.146, 3.853e-5
-1.147, 3.884e-5
-1.148, 3.982e-5
-1.149, 3.973e-5
-1.150, 3.922e-5
-1.151, 3.896e-5
-1.152, 3.928e-5
-1.153, 3.998e-5
-1.154, 4.024e-5
-1.155, 3.956e-5
-1.156, 3.916e-5
-1.157, 3.960e-5
-1.158, 4.047e-5
-1.159, 4.084e-5
-1.160, 3.996e-5
-1.161, 3.963e-5
-1.162, 4.022e-5
-1.163, 4.082e-5
-1.164, 4.117e-5
-1.165, 4.053e-5
-1.166, 3.990e-5
-1.167, 4.057e-5
-1.168, 4.127e-5
-1.169, 4.155e-5
-1.170, 4.100e-5
-1.171, 4.046e-5
-1.172, 4.104e-5
-1.173, 4.169e-5
-1.174, 4.190e-5
-1.175, 4.143e-5
-1.176, 4.080e-5
-1.177, 4.136e-5
-1.178, 4.221e-5
-1.179, 4.229e-5
-1.180, 4.193e-5
-1.181, 4.132e-5
-1.182, 4.183e-5
-1.183, 4.275e-5
-1.184, 4.282e-5
-1.185, 4.230e-5
-1.186, 4.198e-5
-1.187, 4.218e-5
-1.188, 4.322e-5
-1.189, 4.341e-5
-1.190, 4.297e-5
-1.191, 4.268e-5
-1.192, 4.270e-5
-1.193, 4.372e-5
-1.194, 4.418e-5
-1.195, 4.347e-5
-1.196, 4.321e-5
-1.197, 4.348e-5
-1.198, 4.445e-5
-1.199, 4.512e-5
-1.200, 4.439e-5
-1.201, 4.411e-5
-1.202, 4.459e-5
-1.203, 4.543e-5
-1.204, 4.585e-5
-1.205, 4.521e-5
-1.206, 4.478e-5
-1.207, 4.529e-5
-1.208, 4.593e-5
-1.209, 4.639e-5
-1.210, 4.611e-5
-1.211, 4.553e-5
-1.212, 4.597e-5
-1.213, 4.674e-5
-1.214, 4.726e-5
-1.215, 4.703e-5
-1.216, 4.633e-5
-1.217, 4.694e-5
-1.218, 4.788e-5
-1.219, 4.814e-5
-1.220, 4.794e-5
-1.221, 4.744e-5
-1.222, 4.794e-5
-1.223, 4.903e-5
-1.224, 4.933e-5
-1.225, 4.906e-5
-1.226, 4.877e-5
-1.227, 4.915e-5
-1.228, 5.042e-5
-1.229, 5.105e-5
-1.230, 5.052e-5
-1.231, 5.028e-5
-1.232, 5.059e-5
-1.233, 5.175e-5
-1.234, 5.246e-5
-1.235, 5.218e-5
-1.236, 5.188e-5
-1.237, 5.236e-5
-1.238, 5.345e-5
-1.239, 5.430e-5
-1.240, 5.395e-5
-1.241, 5.365e-5
-1.242, 5.455e-5
-1.243, 5.575e-5
-1.244, 5.678e-5
-1.245, 5.653e-5
-1.246, 5.650e-5
-1.247, 5.731e-5
-1.248, 5.824e-5
-1.249, 5.922e-5
-1.250, 5.936e-5
-1.251, 5.915e-5
-1.252, 5.995e-5
-1.253, 6.148e-5
-1.254, 6.254e-5
-1.255, 6.293e-5
-1.256, 6.300e-5
-1.257, 6.370e-5
-1.258, 6.526e-5
-1.259, 6.641e-5
-1.260, 6.674e-5
-1.261, 6.673e-5
-1.262, 6.787e-5
-1.263, 6.965e-5
-1.264, 7.090e-5
-1.265, 7.145e-5
-1.266, 7.193e-5
-1.267, 7.311e-5
-1.268, 7.508e-5
-1.269, 7.674e-5
-1.270, 7.738e-5
-1.271, 7.846e-5
-1.272, 7.975e-5
-1.273, 8.187e-5
-1.274, 8.423e-5
-1.275, 8.507e-5
-1.276, 8.614e-5
-1.277, 8.823e-5
-1.278, 9.078e-5
-1.279, 9.367e-5
-1.280, 9.512e-5
-1.281, 9.636e-5
-1.282, 9.894e-5
-1.283, 1.020e-4
-1.284, 1.054e-4
-1.285, 1.074e-4
-1.286, 1.099e-4
-1.287, 1.134e-4
-1.288, 1.173e-4
-1.289, 1.214e-4
-1.290, 1.249e-4
-1.291, 1.284e-4
-1.292, 1.328e-4
-1.293, 1.384e-4
-1.294, 1.442e-4
-1.295, 1.495e-4
-1.296, 1.549e-4
-1.297, 1.615e-4
-1.298, 1.694e-4
-1.299, 1.776e-4
-1.300, 1.855e-4
-1.301, 1.939e-4
-1.302, 2.036e-4
-1.303, 2.150e-4
-1.304, 2.271e-4
-1.305, 2.395e-4
-1.306, 2.528e-4
-1.307, 2.678e-4
-1.308, 2.852e-4
-1.309, 3.036e-4
-1.310, 3.228e-4
-1.311, 3.440e-4
-1.312, 3.673e-4
-1.313, 3.931e-4
-1.314, 4.212e-4
-1.315, 4.508e-4
-1.316, 4.827e-4
-1.317, 5.172e-4
-1.318, 5.551e-4
-1.319, 5.959e-4
-1.320, 6.374e-4
-1.321, 6.821e-4
-1.322, 7.303e-4
-1.323, 7.810e-4
-1.324, 8.338e-4
-1.325, 8.880e-4
-1.326, 9.433e-4
-1.327, 1.000e-3
-1.328, 1.059e-3
-1.329, 1.119e-3
-1.330, 1.180e-3
-1.331, 1.242e-3
-1.332, 1.303e-3
-1.333, 1.366e-3
-1.334, 1.428e-3
-1.335, 1.491e-3
-1.336, 1.553e-3
-1.337, 1.613e-3
-1.338, 1.676e-3
-1.339, 1.735e-3
-1.340, 1.795e-3
-1.341, 1.855e-3
-1.342, 1.915e-3
-1.343, 1.977e-3
-1.344, 2.035e-3
-1.345, 2.090e-3
-1.346, 2.146e-3
-1.347, 2.206e-3
-1.348, 2.268e-3
-1.349, 2.325e-3
-1.350, 2.379e-3
-1.351, 2.433e-3
-1.352, 2.492e-3
-1.353, 2.558e-3
-1.354, 2.620e-3
-1.355, 2.676e-3
-1.356, 2.731e-3
-1.357, 2.786e-3
-1.358, 2.844e-3
-1.359, 2.908e-3
-1.360, 2.965e-3
-1.361, 3.027e-3
-1.362, 3.088e-3
-1.363, 3.146e-3
-1.364, 3.206e-3
-1.365, 3.264e-3
-1.366, 3.319e-3
-1.367, 3.374e-3
-1.368, 3.428e-3
-1.369, 3.481e-3
-1.370, 3.533e-3
-1.371, 3.586e-3
-1.372, 3.645e-3
-1.373, 3.700e-3
-1.374, 3.757e-3
-1.375, 3.811e-3
-1.376, 3.872e-3
-1.377, 3.928e-3
-1.378, 3.978e-3
-1.379, 4.030e-3
-1.380, 4.067e-3
-1.381, 4.111e-3
-1.382, 4.159e-3
-1.383, 4.231e-3
-1.384, 4.312e-3
-1.385, 4.362e-3
-1.386, 4.424e-3
-1.387, 4.495e-3
-1.388, 4.555e-3
-1.389, 4.622e-3
-1.390, 4.700e-3
-1.391, 4.778e-3
-1.392, 4.822e-3
-1.393, 4.877e-3
-1.394, 4.923e-3
-1.395, 5.001e-3
-1.396, 5.087e-3
-1.397, 5.176e-3
-1.398, 5.211e-3
-1.399, 5.257e-3
-1.400, 5.344e-3
-1.401, 5.453e-3
-1.402, 5.542e-3
-1.403, 5.608e-3
-1.404, 5.655e-3
-1.405, 5.711e-3
-1.406, 5.752e-3
-1.407, 5.797e-3
-1.408, 5.854e-3
-1.409, 5.904e-3
-1.410, 5.970e-3
-1.411, 6.054e-3
-1.412, 6.097e-3
-1.413, 6.152e-3
-1.414, 6.217e-3
-1.415, 6.264e-3
-1.416, 6.340e-3
-1.417, 6.416e-3
-1.418, 6.529e-3
-1.419, 6.631e-3
-1.420, 6.687e-3
-1.421, 6.745e-3
-1.422, 6.801e-3
-1.423, 6.863e-3
-1.424, 6.917e-3
-1.425, 6.946e-3
-1.426, 6.989e-3
-1.427, 7.062e-3
-1.428, 7.143e-3
-1.429, 7.199e-3
-1.430, 7.275e-3
-1.431, 7.341e-3
-1.432, 7.405e-3
-1.433, 7.474e-3
-1.434, 7.534e-3
-1.435, 7.604e-3
-1.436, 7.668e-3
-1.437, 7.735e-3
-1.438, 7.765e-3
-1.439, 7.817e-3
-1.440, 7.886e-3
-1.441, 7.971e-3
-1.442, 8.041e-3
-1.443, 8.072e-3
-1.444, 8.195e-3
-1.445, 8.279e-3
-1.446, 8.387e-3
-1.447, 8.502e-3
-1.448, 8.582e-3
-1.449, 8.624e-3
-1.450, 8.643e-3
-1.451, 8.743e-3
-1.452, 8.793e-3
-1.453, 8.848e-3
-1.454, 8.881e-3
-1.455, 8.949e-3
-1.456, 9.088e-3
-1.457, 9.315e-3
-1.458, 9.478e-3
-1.459, 9.602e-3
-1.460, 9.587e-3
-1.461, 9.542e-3
-1.462, 9.574e-3
-1.463, 9.598e-3
-1.464, 9.685e-3
-1.465, 9.777e-3
-1.466, 9.850e-3
-1.467, 9.988e-3
-1.468, 1.002e-2
-1.469, 1.004e-2
-1.470, 1.010e-2
-1.471, 1.011e-2
-1.472, 1.011e-2
-1.473, 1.011e-2
-1.474, 1.011e-2
-1.475, 1.011e-2
-1.476, 1.011e-2
-1.477, 1.011e-2
-1.478, 1.011e-2
-1.479, 1.011e-2
-1.480, 1.011e-2
-1.481, 1.011e-2
-1.482, 1.011e-2
-1.483, 1.011e-2
-1.484, 1.011e-2
-1.485, 1.011e-2
-1.486, 1.011e-2
-1.487, 1.011e-2
-1.488, 1.011e-2
-1.489, 1.011e-2
-1.490, 1.011e-2
-1.491, 1.011e-2
-1.492, 1.011e-2
-1.493, 1.011e-2
-1.494, 1.011e-2
-1.495, 1.011e-2
-1.496, 1.011e-2
-1.497, 1.011e-2
-1.498, 1.011e-2
-1.499, 1.011e-2
-1.500, 1.011e-2
-1.501, 1.011e-2
-1.502, 1.011e-2
-1.503, 1.011e-2
-1.504, 1.011e-2
-1.505, 1.011e-2
-1.506, 1.011e-2
-1.507, 1.011e-2
-1.508, 1.011e-2
-1.509, 1.011e-2
-1.510, 1.011e-2
-1.511, 1.011e-2
-1.512, 1.011e-2
-1.513, 1.011e-2
-1.514, 1.011e-2
-1.515, 1.011e-2
-1.516, 1.011e-2
-1.517, 1.011e-2
-1.518, 1.011e-2
-1.519, 1.011e-2
-1.520, 1.011e-2
-1.521, 1.011e-2
-1.522, 1.011e-2
-1.523, 1.011e-2
-1.524, 1.011e-2
-1.525, 1.011e-2
-1.526, 1.011e-2
-1.527, 1.011e-2
-1.528, 1.011e-2
-1.529, 1.011e-2
-1.530, 1.011e-2
-1.531, 1.011e-2
-1.532, 1.011e-2
-1.533, 1.011e-2
-1.534, 1.011e-2
-1.535, 1.011e-2
-1.536, 1.011e-2
-1.537, 1.011e-2
-1.538, 1.011e-2
-1.539, 1.011e-2
-1.540, 1.011e-2
-1.541, 1.011e-2
-1.542, 1.011e-2
-1.543, 1.011e-2
-1.544, 1.011e-2
-1.545, 1.011e-2
-1.546, 1.011e-2
-1.547, 1.011e-2
-1.548, 1.011e-2
-1.549, 1.011e-2
-1.550, 1.011e-2
-1.551, 1.011e-2
-1.552, 1.011e-2
-1.553, 1.011e-2
-1.554, 1.011e-2
-1.555, 1.011e-2
-1.556, 1.011e-2
-1.557, 1.011e-2
-1.558, 1.011e-2
-1.559, 1.011e-2
-1.560, 1.011e-2
-1.561, 1.011e-2
-1.562, 1.011e-2
-1.563, 1.011e-2
-1.564, 1.011e-2
-1.565, 1.011e-2
-1.566, 1.011e-2
-1.567, 1.011e-2
-1.568, 1.011e-2
-1.569, 1.011e-2
-1.570, 1.011e-2
-1.571, 1.011e-2
-1.572, 1.011e-2
-1.573, 1.011e-2
-1.574, 1.011e-2
-1.575, 1.011e-2
-1.576, 1.011e-2
-1.577, 1.011e-2
-1.578, 1.011e-2
-1.579, 1.011e-2
-1.580, 1.011e-2
-1.581, 1.011e-2
-1.582, 1.011e-2
-1.583, 1.011e-2
-1.584, 1.011e-2
-1.585, 1.011e-2
-1.586, 1.011e-2
-1.587, 1.011e-2
-1.588, 1.011e-2
-1.589, 1.011e-2
-1.590, 1.011e-2
-1.591, 1.011e-2
-1.592, 1.011e-2
-1.593, 1.011e-2
-1.594, 1.011e-2
-1.595, 1.011e-2
-1.596, 1.011e-2
-1.597, 1.011e-2
-1.598, 1.011e-2
-1.599, 1.011e-2
-1.600, 1.011e-2
-1.599, 1.011e-2
-1.598, 1.011e-2
-1.597, 1.011e-2
-1.596, 1.011e-2
-1.595, 1.011e-2
-1.594, 1.011e-2
-1.593, 1.011e-2
-1.592, 1.011e-2
-1.591, 1.011e-2
-1.590, 1.011e-2
-1.589, 1.011e-2
-1.588, 1.011e-2
-1.587, 1.011e-2
-1.586, 1.011e-2
-1.585, 1.011e-2
-1.584, 1.011e-2
-1.583, 1.011e-2
-1.582, 1.011e-2
-1.581, 1.011e-2
-1.580, 1.011e-2
-1.579, 1.011e-2
-1.578, 1.011e-2
-1.577, 1.011e-2
-1.576, 1.011e-2
-1.575, 1.011e-2
-1.574, 1.011e-2
-1.573, 1.011e-2
-1.572, 1.011e-2
-1.571, 1.011e-2
-1.570, 1.011e-2
-1.569, 1.011e-2
-1.568, 1.011e-2
-1.567, 1.011e-2
-1.566, 1.011e-2
-1.565, 1.011e-2
-1.564, 1.011e-2
-1.563, 1.011e-2
-1.562, 1.011e-2
-1.561, 1.011e-2
-1.560, 1.011e-2
-1.559, 1.011e-2
-1.558, 1.011e-2
-1.557, 1.011e-2
-1.556, 1.011e-2
-1.555, 1.011e-2
-1.554, 1.011e-2
-1.553, 1.011e-2
-1.552, 1.011e-2
-1.551, 1.011e-2
-1.550, 1.011e-2
-1.549, 1.011e-2
-1.548, 1.011e-2
-1.547, 1.011e-2
-1.546, 1.011e-2
-1.545, 1.011e-2
-1.544, 1.011e-2
-1.543, 1.011e-2
-1.542, 1.011e-2
-1.541, 1.011e-2
-1.540, 1.011e-2
-1.539, 1.011e-2
-1.538, 1.011e-2
-1.537, 1.011e-2
-1.536, 1.011e-2
-1.535, 1.011e-2
-1.534, 1.011e-2
-1.533, 1.011e-2
-1.532, 1.011e-2
-1.531, 1.011e-2
-1.530, 1.011e-2
-1.529, 1.011e-2
-1.528, 1.011e-2
-1.527, 1.011e-2
-1.526, 1.011e-2
-1.525, 1.011e-2
-1.524, 1.011e-2
-1.523, 1.011e-2
-1.522, 1.011e-2
-1.521, 1.011e-2
-1.520, 1.011e-2
-1.519, 1.011e-2
-1.518, 1.011e-2
-1.517, 1.011e-2
-1.516, 1.011e-2
-1.515, 1.011e-2
-1.514, 1.011e-2
-1.513, 1.011e-2
-1.512, 1.011e-2
-1.511, 1.011e-2
-1.510, 1.011e-2
-1.509, 1.011e-2
-1.508, 1.011e-2
-1.507, 1.011e-2
-1.506, 1.011e-2
-1.505, 1.011e-2
-1.504, 1.011e-2
-1.503, 1.011e-2
-1.502, 1.011e-2
-1.501, 1.011e-2
-1.500, 1.011e-2
-1.499, 1.011e-2
-1.498, 1.011e-2
-1.497, 1.011e-2
-1.496, 1.011e-2
-1.495, 1.011e-2
-1.494, 1.011e-2
-1.493, 1.011e-2
-1.492, 1.011e-2
-1.491, 1.011e-2
-1.490, 1.011e-2
-1.489, 1.011e-2
-1.488, 1.011e-2
-1.487, 1.011e-2
-1.486, 1.011e-2
-1.485, 1.011e-2
-1.484, 1.011e-2
-1.483, 1.011e-2
-1.482, 1.011e-2
-1.481, 1.011e-2
-1.480, 1.011e-2
-1.479, 1.011e-2
-1.478, 1.011e-2
-1.477, 1.011e-2
-1.476, 1.011e-2
-1.475, 1.003e-2
-1.474, 9.936e-3
-1.473, 9.832e-3
-1.472, 9.739e-3
-1.471, 9.665e-3
-1.470, 9.574e-3
-1.469, 9.481e-3
-1.468, 9.381e-3
-1.467, 9.329e-3
-1.466, 9.245e-3
-1.465, 9.196e-3
-1.464, 9.166e-3
-1.463, 9.090e-3
-1.462, 8.967e-3
-1.461, 8.894e-3
-1.460, 8.865e-3
-1.459, 8.803e-3
-1.458, 8.704e-3
-1.457, 8.606e-3
-1.456, 8.465e-3
-1.455, 8.333e-3
-1.454, 8.223e-3
-1.453, 8.183e-3
-1.452, 8.108e-3
-1.451, 7.986e-3
-1.450, 7.897e-3
-1.449, 7.814e-3
-1.448, 7.707e-3
-1.447, 7.596e-3
-1.446, 7.514e-3
-1.445, 7.418e-3
-1.444, 7.345e-3
-1.443, 7.271e-3
-1.442, 7.190e-3
-1.441, 7.125e-3
-1.440, 7.072e-3
-1.439, 7.024e-3
-1.438, 6.956e-3
-1.437, 6.877e-3
-1.436, 6.790e-3
-1.435, 6.728e-3
-1.434, 6.656e-3
-1.433, 6.590e-3
-1.432, 6.530e-3
-1.431, 6.463e-3
-1.430, 6.392e-3
-1.429, 6.314e-3
-1.428, 6.223e-3
-1.427, 6.163e-3
-1.426, 6.086e-3
-1.425, 6.001e-3
-1.424, 5.911e-3
-1.423, 5.830e-3
-1.422, 5.747e-3
-1.421, 5.687e-3
-1.420, 5.657e-3
-1.419, 5.612e-3
-1.418, 5.582e-3
-1.417, 5.535e-3
-1.416, 5.457e-3
-1.415, 5.376e-3
-1.414, 5.300e-3
-1.413, 5.235e-3
-1.412, 5.174e-3
-1.411, 5.110e-3
-1.410, 5.039e-3
-1.409, 4.998e-3
-1.408, 4.931e-3
-1.407, 4.849e-3
-1.406, 4.762e-3
-1.405, 4.682e-3
-1.404, 4.599e-3
-1.403, 4.521e-3
-1.402, 4.463e-3
-1.401, 4.402e-3
-1.400, 4.342e-3
-1.399, 4.279e-3
-1.398, 4.212e-3
-1.397, 4.169e-3
-1.396, 4.100e-3
-1.395, 4.040e-3
-1.394, 4.001e-3
-1.393, 3.966e-3
-1.392, 3.905e-3
-1.391, 3.835e-3
-1.390, 3.772e-3
-1.389, 3.711e-3
-1.388, 3.671e-3
-1.387, 3.624e-3
-1.386, 3.579e-3
-1.385, 3.514e-3
-1.384, 3.446e-3
-1.383, 3.379e-3
-1.382, 3.315e-3
-1.381, 3.249e-3
-1.380, 3.185e-3
-1.379, 3.138e-3
-1.378, 3.055e-3
-1.377, 2.983e-3
-1.376, 2.931e-3
-1.375, 2.874e-3
-1.374, 2.827e-3
-1.373, 2.771e-3
-1.372, 2.714e-3
-1.371, 2.676e-3
-1.370, 2.627e-3
-1.369, 2.574e-3
-1.368, 2.533e-3
-1.367, 2.488e-3
-1.366, 2.471e-3
-1.365, 2.448e-3
-1.364, 2.408e-3
-1.363, 2.365e-3
-1.362, 2.314e-3
-1.361, 2.265e-3
-1.360, 2.215e-3
-1.359, 2.168e-3
-1.358, 2.129e-3
-1.357, 2.085e-3
-1.356, 2.039e-3
-1.355, 1.994e-3
-1.354, 1.950e-3
-1.353, 1.902e-3
-1.352, 1.854e-3
-1.351, 1.809e-3
-1.350, 1.765e-3
-1.349, 1.723e-3
-1.348, 1.681e-3
-1.347, 1.639e-3
-1.346, 1.598e-3
-1.345, 1.559e-3
-1.344, 1.519e-3
-1.343, 1.479e-3
-1.342, 1.438e-3
-1.341, 1.399e-3
-1.340, 1.363e-3
-1.339, 1.329e-3
-1.338, 1.292e-3
-1.337, 1.255e-3
-1.336, 1.222e-3
-1.335, 1.188e-3
-1.334, 1.154e-3
-1.333, 1.121e-3
-1.332, 1.089e-3
-1.331, 1.060e-3
-1.330, 1.031e-3
-1.329, 1.002e-3
-1.328, 9.738e-4
-1.327, 9.455e-4
-1.326, 9.175e-4
-1.325, 8.906e-4
-1.324, 8.645e-4
-1.323, 8.377e-4
-1.322, 8.117e-4
-1.321, 7.856e-4
-1.320, 7.609e-4
-1.319, 7.375e-4
-1.318, 7.144e-4
-1.317, 6.914e-4
-1.316, 6.690e-4
-1.315, 6.472e-4
-1.314, 6.261e-4
-1.313, 6.053e-4
-1.312, 5.847e-4
-1.311, 5.657e-4
-1.310, 5.467e-4
-1.309, 5.289e-4
-1.308, 5.103e-4
-1.307, 4.918e-4
-1.306, 4.748e-4
-1.305, 4.591e-4
-1.304, 4.436e-4
-1.303, 4.272e-4
-1.302, 4.111e-4
-1.301, 3.961e-4
-1.300, 3.822e-4
-1.299, 3.685e-4
-1.298, 3.546e-4
-1.297, 3.407e-4
-1.296, 3.281e-4
-1.295, 3.175e-4
-1.294, 3.062e-4
-1.293, 2.941e-4
-1.292, 2.818e-4
-1.291, 2.710e-4
-1.290, 2.611e-4
-1.289, 2.513e-4
-1.288, 2.408e-4
-1.287, 2.306e-4
-1.286, 2.212e-4
-1.285, 2.131e-4
-1.284, 2.049e-4
-1.283, 1.962e-4
-1.282, 1.872e-4
-1.281, 1.791e-4
-1.280, 1.722e-4
-1.279, 1.655e-4
-1.278, 1.577e-4
-1.277, 1.504e-4
-1.276, 1.439e-4
-1.275, 1.382e-4
-1.274, 1.326e-4
-1.273, 1.263e-4
-1.272, 1.201e-4
-1.271, 1.147e-4
-1.270, 1.100e-4
-1.269, 1.055e-4
-1.268, 1.002e-4
-1.267, 9.454e-5
-1.266, 9.011e-5
-1.265, 8.616e-5
-1.264, 8.249e-5
-1.263, 7.807e-5
-1.262, 7.318e-5
-1.261, 6.953e-5
-1.260, 6.657e-5
-1.259, 6.346e-5
-1.258, 5.980e-5
-1.257, 5.576e-5
-1.256, 5.272e-5
-1.255, 5.022e-5
-1.254, 4.758e-5
-1.253, 4.480e-5
-1.252, 4.144e-5
-1.251, 3.857e-5
-1.250, 3.669e-5
-1.249, 3.472e-5
-1.248, 3.216e-5
-1.247, 2.926e-5
-1.246, 2.682e-5
-1.245, 2.540e-5
-1.244, 2.393e-5
-1.243, 2.143e-5
-1.242, 1.913e-5
-1.241, 1.688e-5
-1.240, 1.606e-5
-1.239, 1.495e-5
-1.238, 1.286e-5
-1.237, 1.068e-5
-1.236, 8.971e-6
-1.235, 8.090e-6
-1.234, 7.332e-6
-1.233, 5.559e-6
-1.232, 3.768e-6
-1.231, 2.482e-6
-1.230, 1.621e-6
-1.229, 6.983e-7
-1.228, -3.721e-7
-1.227, -2.286e-6
-1.226, -3.229e-6
-1.225, -3.812e-6
-1.224, -3.849e-6
-1.223, -5.151e-6
-1.222, -6.901e-6
-1.221, -7.667e-6
-1.220, -7.910e-6
-1.219, -8.166e-6
-1.218, -9.152e-6
-1.217, -1.056e-5
-1.216, -1.125e-5
-1.215, -1.134e-5
-1.214, -1.140e-5
-1.213, -1.209e-5
-1.212, -1.348e-5
-1.211, -1.422e-5
-1.210, -1.410e-5
-1.209, -1.434e-5
-1.208, -1.500e-5
-1.207, -1.628e-5
-1.206, -1.708e-5
-1.205, -1.675e-5
-1.204, -1.665e-5
-1.203, -1.733e-5
-1.202, -1.858e-5
-1.201, -1.919e-5
-1.200, -1.894e-5
-1.199, -1.879e-5
-1.198, -1.934e-5
-1.197, -2.026e-5
-1.196, -2.084e-5
-1.195, -2.091e-5
-1.194, -2.038e-5
-1.193, -2.096e-5
-1.192, -2.192e-5
-1.191, -2.253e-5
-1.190, -2.242e-5
-1.189, -2.195e-5
-1.188, -2.240e-5
-1.187, -2.354e-5
-1.186, -2.393e-5
-1.185, -2.386e-5
-1.184, -2.317e-5
-1.183, -2.370e-5
-1.182, -2.477e-5
-1.181, -2.512e-5
-1.180, -2.484e-5
-1.179, -2.446e-5
-1.178, -2.490e-5
-1.177, -2.595e-5
-1.176, -2.606e-5
-1.175, -2.575e-5
-1.174, -2.557e-5
-1.173, -2.562e-5
-1.172, -2.669e-5
-1.171, -2.718e-5
-1.170, -2.672e-5
-1.169, -2.643e-5
-1.168, -2.664e-5
-1.167, -2.759e-5
-1.166, -2.815e-5
-1.165, -2.766e-5
-1.164, -2.706e-5
-1.163, -2.744e-5
-1.162, -2.820e-5
-1.161, -2.881e-5
-1.160, -2.803e-5
-1.159, -2.755e-5
-1.158, -2.793e-5
-1.157, -2.851e-5
-1.156, -2.910e-5
-1.155, -2.881e-5
-1.154, -2.824e-5
-1.153, -2.855e-5
-1.152, -2.935e-5
-1.151, -2.985e-5
-1.150, -2.955e-5
-1.149, -2.881e-5
-1.148, -2.910e-5
-1.147, -3.008e-5
-1.146, -3.039e-5
-1.145, -3.022e-5
-1.144, -2.938e-5
-1.143, -2.963e-5
-1.142, -3.063e-5
-1.141, -3.097e-5
-1.140, -3.052e-5
-1.139, -3.008e-5
-1.138, -3.013e-5
-1.137, -3.117e-5
-1.136, -3.150e-5
-1.135, -3.110e-5
-1.134, -3.085e-5
-1.133, -3.089e-5
-1.132, -3.174e-5
-1.131, -3.227e-5
-1.130, -3.180e-5
-1.129, -3.140e-5
-1.128, -3.133e-5
-1.127, -3.234e-5
-1.126, -3.292e-5
-1.125, -3.251e-5
-1.124, -3.198e-5
-1.123, -3.213e-5
-1.122, -3.291e-5
-1.121, -3.360e-5
-1.120, -3.305e-5
-1.119, -3.246e-5
-1.118, -3.280e-5
-1.117, -3.352e-5
-1.116, -3.407e-5
-1.115, -3.386e-5
-1.114, -3.314e-5
-1.113, -3.340e-5
-1.112, -3.425e-5
-1.111, -3.477e-5
-1.110, -3.463e-5
-1.109, -3.378e-5
-1.108, -3.388e-5
-1.107, -3.483e-5
-1.106, -3.515e-5
-1.105, -3.506e-5
-1.104, -3.424e-5
-1.103, -3.447e-5
-1.102, -3.553e-5
-1.101, -3.603e-5
-1.100, -3.570e-5
-1.099, -3.519e-5
-1.098, -3.523e-5
-1.097, -3.616e-5
-1.096, -3.667e-5
-1.095, -3.650e-5
-1.094, -3.606e-5
-1.093, -3.598e-5
-1.092, -3.700e-5
-1.091, -3.770e-5
-1.090, -3.731e-5
-1.089, -3.690e-5
-1.088, -3.686e-5
-1.087, -3.771e-5
-1.086, -3.866e-5
-1.085, -3.823e-5
-1.084, -3.768e-5
-1.083, -3.801e-5
-1.082, -3.871e-5
-1.081, -3.954e-5
-1.080, -3.922e-5
-1.079, -3.876e-5
-1.078, -3.918e-5
-1.077, -3.997e-5
-1.076, -4.084e-5
-1.075, -4.058e-5
-1.074, -3.992e-5
-1.073, -4.014e-5
-1.072, -4.097e-5
-1.071, -4.171e-5
-1.070, -4.180e-5
-1.069, -4.112e-5
-1.068, -4.139e-5
-1.067, -4.247e-5
-1.066, -4.314e-5
-1.065, -4.308e-5
-1.064, -4.245e-5
-1.063, -4.263e-5
-1.062, -4.372e-5
-1.061, -4.440e-5
-1.060, -4.441e-5
-1.059, -4.403e-5
-1.058, -4.425e-5
-1.057, -4.527e-5
-1.056, -4.598e-5
-1.055, -4.594e-5
-1.054, -4.569e-5
-1.053, -4.562e-5
-1.052, -4.675e-5
-1.051, -4.773e-5
-1.050, -4.759e-5
-1.049, -4.746e-5
-1.048, -4.750e-5
-1.047, -4.852e-5
-1.046, -4.959e-5
-1.045, -4.940e-5
-1.044, -4.896e-5
-1.043, -4.933e-5
-1.042, -5.034e-5
-1.041, -5.147e-5
-1.040, -5.133e-5
-1.039, -5.104e-5
-1.038, -5.148e-5
-1.037, -5.231e-5
-1.036, -5.344e-5
-1.035, -5.353e-5
-1.034, -5.308e-5
-1.033, -5.343e-5
-1.032, -5.456e-5
-1.031, -5.554e-5
-1.030, -5.594e-5
-1.029, -5.536e-5
-1.028, -5.571e-5
-1.027, -5.685e-5
-1.026, -5.789e-5
-1.025, -5.828e-5
-1.024, -5.823e-5
-1.023, -5.838e-5
-1.022, -5.946e-5
-1.021, -6.049e-5
-1.020, -6.062e-5
-1.019, -6.063e-5
-1.018, -6.088e-5
-1.017, -6.218e-5
-1.016, -6.302e-5
-1.015, -6.341e-5
-1.014, -6.337e-5
-1.013, -6.344e-5
-1.012, -6.480e-5
-1.011, -6.606e-5
-1.010, -6.621e-5
-1.009, -6.624e-5
-1.008, -6.620e-5
-1.007, -6.751e-5
-1.006, -6.894e-5
-1.005, -6.920e-5
-1.004, -6.910e-5
-1.003, -6.958e-5
-1.002, -7.069e-5
-1.001, -7.197e-5
-1.000, -3.590e-5
-1.001, -1.236e-5
-1.002, -5.167e-6
-1.003, -1.406e-6
-1.004, 1.572e-6
-1.005, 4.507e-6
-1.006, 7.704e-6
-1.007, 1.001e-5
-1.008, 1.102e-5
-1.009, 1.207e-5
-1.010, 1.379e-5
-1.011, 1.581e-5
-1.012, 1.738e-5
-1.013, 1.774e-5
-1.014, 1.804e-5
-1.015, 1.941e-5
-1.016, 2.093e-5
-1.017, 2.193e-5
-1.018, 2.213e-5
-1.019, 2.204e-5
-1.020, 2.302e-5
-1.021, 2.440e-5
-1.022, 2.529e-5
-1.023, 2.538e-5
-1.024, 2.522e-5
-1.025, 2.579e-5
-1.026, 2.692e-5
-1.027, 2.736e-5
-1.028, 2.732e-5
-1.029, 2.696e-5
-1.030, 2.747e-5
-1.031, 2.871e-5
-1.032, 2.918e-5
-1.033, 2.878e-5
-1.034, 2.864e-5
-1.035, 2.887e-5
-1.036, 3.021e-5
-1.037, 3.057e-5
-1.038, 3.019e-5
-1.039, 2.989e-5
-1.040, 3.023e-5
-1.041, 3.115e-5
-1.042, 3.177e-5
-1.043, 3.106e-5
-1.044, 3.078e-5
-1.045, 3.099e-5
-1.046, 3.199e-5
-1.047, 3.259e-5
-1.048, 3.204e-5
-1.049, 3.165e-5
-1.050, 3.195e-5
-1.051, 3.272e-5
-1.052, 3.326e-5
-1.053, 3.263e-5
-1.054, 3.209e-5
-1.055, 3.264e-5
-1.056, 3.330e-5
-1.057, 3.377e-5
-1.058, 3.339e-5
-1.059, 3.271e-5
-1.060, 3.312e-5
-1.061, 3.382e-5
-1.062, 3.414e-5
-1.063, 3.375e-5
-1.064, 3.300e-5
-1.065, 3.340e-5
-1.066, 3.409e-5
-1.067, 3.440e-5
-1.068, 3.411e-5
-1.069, 3.342e-5
-1.070, 3.359e-5
-1.071, 3.459e-5
-1.072, 3.474e-5
-1.073, 3.432e-5
-1.074, 3.376e-5
-1.075, 3.409e-5
-1.076, 3.479e-5
-1.077, 3.501e-5
-1.078, 3.445e-5
-1.079, 3.417e-5
-1.080, 3.414e-5
-1.081, 3.494e-5
-1.082, 3.540e-5
-1.083, 3.470e-5
-1.084, 3.425e-5
-1.085, 3.432e-5
-1.086, 3.519e-5
-1.087, 3.574e-5
-1.088, 3.499e-5
-1.089, 3.443e-5
-1.090, 3.481e-5
-1.091, 3.541e-5
-1.092, 3.586e-5
-1.093, 3.525e-5
-1.094, 3.454e-5
-1.095, 3.504e-5
-1.096, 3.550e-5
-1.097, 3.589e-5
-1.098, 3.548e-5
-1.099, 3.475e-5
-1.100, 3.505e-5
-1.101, 3.580e-5
-1.102, 3.605e-5
-1.103, 3.591e-5
-1.104, 3.507e-5
-1.105, 3.519e-5
-1.106, 3.603e-5
-1.107, 3.626e-5
-1.108, 3.591e-5
-1.109, 3.517e-5
-1.110, 3.533e-5
-1.111, 3.618e-5
-1.112, 3.645e-5
-1.113, 3.607e-5
-1.114, 3.553e-5
-1.115, 3.574e-5
-1.116, 3.650e-5
-1.117, 3.672e-5
-1.118, 3.620e-5
-1.119, 3.578e-5
-1.120, 3.570e-5
-1.121, 3.657e-5
-1.122, 3.702e-5
-1.123, 3.636e-5
-1.124, 3.598e-5
-1.125, 3.602e-5
-1.126, 3.682e-5
-1.127, 3.733e-5
-1.128, 3.659e-5
-1.129, 3.605e-5
-1.130, 3.639e-5
-1.131, 3.703e-5
-1.132, 3.747e-5
-1.133, 3.696e-5
-1.134, 3.626e-5
-1.135, 3.676e-5
-1.136, 3.730e-5
-1.137, 3.773e-5
-1.138, 3.737e-5
-1.139, 3.656e-5
-1.140, 3.696e-5
-1.141, 3.757e-5
-1.142, 3.802e-5
-1.143, 3.770e-5
-1.144, 3.694e-5
-1.145, 3.710e-5
-1.146, 3.798e-5
-1.147, 3.831e-5
-1.148, 3.787e-5
-1.149, 3.726e-5
-1.150, 3.743e-5
-1.151, 3.835e-5
-1.152, 3.876e-5
-1.153, 3.824e-5
-1.154, 3.781e-5
-1.155, 3.784e-5
-1.156, 3.863e-5
-1.157, 3.902e-5
-1.158, 3.860e-5
-1.159, 3.810e-5
-1.160, 3.824e-5
-1.161, 3.898e-5
-1.162, 3.964e-5
-1.163, 3.901e-5
-1.164, 3.859e-5
-1.165, 3.868e-5
-1.166, 3.939e-5
-1.167, 4.012e-5
-1.168, 3.935e-5
-1.169, 3.894e-5
-1.170, 3.925e-5
-1.171, 3.976e-5
-1.172, 4.042e-5
-1.173, 3.982e-5
-1.174, 3.929e-5
-1.175, 3.947e-5
-1.176, 4.015e-5
-1.177, 4.100e-5
-1.178, 4.044e-5
-1.179, 3.975e-5
-1.180, 3.996e-5
-1.181, 4.064e-5
-1.182, 4.118e-5
-1.183, 4.098e-5
-1.184, 4.023e-5
-1.185, 4.045e-5
-1.186, 4.123e-5
-1.187, 4.159e-5
-1.188, 4.138e-5
-1.189, 4.064e-5
-1.190, 4.082e-5
-1.191, 4.174e-5
-1.192, 4.205e-5
-1.193, 4.177e-5
-1.194, 4.126e-5
-1.195, 4.118e-5
-1.196, 4.216e-5
-1.197, 4.255e-5
-1.198, 4.215e-5
-1.199, 4.177e-5
-1.200, 4.179e-5
-1.201, 4.276e-5
-1.202, 4.345e-5
-1.203, 4.304e-5
-1.204, 4.242e-5
-1.205, 4.263e-5
-1.206, 4.333e-5
-1.207, 4.405e-5
-1.208, 4.347e-5
-1.209, 4.307e-5
-1.210, 4.329e-5
-1.211, 4.404e-5
-1.212, 4.480e-5
-1.213, 4.441e-5
-1.214, 4.394e-5
-1.215, 4.430e-5
-1.216, 4.496e-5
-1.217, 4.574e-5
-1.218, 4.564e-5
-1.219, 4.495e-5
-1.220, 4.528e-5
-1.221, 4.601e-5
-1.222, 4.684e-5
-1.223, 4.664e-5
-1.224, 4.605e-5
-1.225, 4.637e-5
-1.226, 4.731e-5
-1.227, 4.787e-5
-1.228, 4.815e-5
-1.229, 4.759e-5
-1.230, 4.750e-5
-1.231, 4.863e-5
-1.232, 4.936e-5
-1.233, 4.911e-5
-1.234, 4.896e-5
-1.235, 4.909e-5
-1.236, 5.011e-5
-1.237, 5.102e-5
-1.238, 5.087e-5
-1.239, 5.066e-5
-1.240, 5.082e-5
-1.241, 5.184e-5
-1.242, 5.293e-5
-1.243, 5.284e-5
-1.244, 5.264e-5
-1.245, 5.299e-5
-1.246, 5.409e-5
-1.247, 5.532e-5
-1.248, 5.508e-5
-1.249, 5.502e-5
-1.250, 5.561e-5
-1.251, 5.680e-5
-1.252, 5.824e-5
-1.253, 5.830e-5
-1.254, 5.820e-5
-1.255, 5.891e-5
-1.256, 6.005e-5
-1.257, 6.134e-5
-1.258, 6.174e-5
-1.259, 6.165e-5
-1.260, 6.274e-5
-1.261, 6.431e-5
-1.262, 6.566e-5
-1.263, 6.628e-5
-1.264, 6.622e-5
-1.265, 6.720e-5
-1.266, 6.895e-5
-1.267, 7.034e-5
-1.268, 7.129e-5
-1.269, 7.155e-5
-1.270, 7.272e-5
-1.271, 7.495e-5
-1.272, 7.659e-5
-1.273, 7.766e-5
-1.274, 7.845e-5
-1.275, 7.988e-5
-1.276, 8.222e-5
-1.277, 8.450e-5
-1.278, 8.580e-5
-1.279, 8.732e-5
-1.280, 8.935e-5
-1.281, 9.204e-5
-1.282, 9.499e-5
-1.283, 9.693e-5
-1.284, 9.878e-5
-1.285, 1.015e-4
-1.286, 1.049e-4
-1.287, 1.088e-4
-1.288, 1.115e-4
-1.289, 1.145e-4
-1.290, 1.182e-4
-1.291, 1.228e-4
-1.292, 1.279e-4
-1.293, 1.322e-4
-1.294, 1.365e-4
-1.295, 1.421e-4
-1.296, 1.483e-4
-1.297, 1.555e-4
-1.298, 1.621e-4
-1.299, 1.689e-4
-1.300, 1.771e-4
-1.301, 1.866e-4
-1.302, 1.969e-4
-1.303, 2.074e-4
-1.304, 2.185e-4
-1.305, 2.315e-4
-1.306, 2.461e-4
-1.307, 2.618e-4
-1.308, 2.780e-4
-1.309, 2.953e-4
-1.310, 3.146e-4
-1.311, 3.367e-4
-1.312, 3.603e-4
-1.313, 3.846e-4
-1.314, 4.110e-4
-1.315, 4.393e-4
-1.316, 4.707e-4
-1.317, 5.044e-4
-1.318, 5.393e-4
-1.319, 5.764e-4
-1.320, 6.156e-4
-1.321, 6.584e-4
-1.322, 7.033e-4
-1.323, 7.496e-4
-1.324, 7.977e-4
-1.325, 8.477e-4
-1.326, 9.005e-4
-1.327, 9.547e-4
-1.328, 1.010e-3
-1.329, 1.065e-3
-1.330, 1.122e-3
-1.331, 1.181e-3
-1.332, 1.240e-3
-1.333, 1.298e-3
-1.334, 1.356e-3
-1.335, 1.416e-3
-1.336, 1.476e-3
-1.337, 1.535e-3
-1.338, 1.594e-3
-1.339, 1.653e-3
-1.340, 1.711e-3
-1.341, 1.771e-3
-1.342, 1.829e-3
-1.343, 1.889e-3
-1.344, 1.948e-3
-1.345, 2.007e-3
-1.346, 2.067e-3
-1.347, 2.128e-3
-1.348, 2.185e-3
-1.349, 2.242e-3
-1.350, 2.303e-3
-1.351, 2.362e-3
-1.352, 2.419e-3
-1.353, 2.480e-3
-1.354, 2.538e-3
-1.355, 2.594e-3
-1.356, 2.653e-3
-1.357, 2.709e-3
-1.358, 2.764e-3
-1.359, 2.820e-3
-1.360, 2.892e-3
-1.361, 2.951e-3
-1.362, 3.010e-3
-1.363, 3.067e-3
-1.364, 3.128e-3
-1.365, 3.189e-3
-1.366, 3.246e-3
-1.367, 3.307e-3
-1.368, 3.365e-3
-1.369, 3.416e-3
-1.370, 3.472e-3
-1.371, 3.531e-3
-1.372, 3.585e-3
-1.373, 3.636e-3
-1.374, 3.688e-3
-1.375, 3.736e-3
-1.376, 3.794e-3
-1.377, 3.852e-3
-1.378, 3.905e-3
-1.379, 3.961e-3
-1.380, 4.012e-3
-1.381, 4.073e-3
-1.382, 4.126e-3
-1.383, 4.185e-3
-1.384, 4.238e-3
-1.385, 4.291e-3
-1.386, 4.345e-3
-1.387, 4.394e-3
-1.388, 4.450e-3
-1.389, 4.514e-3
-1.390, 4.587e-3
-1.391, 4.658e-3
-1.392, 4.723e-3
-1.393, 4.816e-3
-1.394, 4.891e-3
-1.395, 4.941e-3
-1.396, 4.999e-3
-1.397, 5.052e-3
-1.398, 5.108e-3
-1.399, 5.168e-3
-1.400, 5.227e-3
-1.401, 5.311e-3
-1.402, 5.389e-3
-1.403, 5.460e-3
-1.404, 5.537e-3
-1.405, 5.601e-3
-1.406, 5.655e-3
-1.407, 5.713e-3
-1.408, 5.780e-3
-1.409, 5.832e-3
-1.410, 5.891e-3
-1.411, 5.965e-3
-1.412, 6.047e-3
-1.413, 6.090e-3
-1.414, 6.149e-3
-1.415, 6.212e-3
-1.416, 6.276e-3
-1.417, 6.343e-3
-1.418, 6.384e-3
-1.419, 6.446e-3
-1.420, 6.496e-3
-1.421, 6.548e-3
-1.422, 6.601e-3
-1.423, 6.685e-3
-1.424, 6.825e-3
-1.425, 6.915e-3
-1.426, 6.941e-3
-1.427, 6.970e-3
-1.428, 7.014e-3
-1.429, 7.048e-3
-1.430, 7.120e-3
-1.431, 7.210e-3
-1.432, 7.328e-3
-1.433, 7.423e-3
-1.434, 7.475e-3
-1.435, 7.542e-3
-1.436, 7.638e-3
-1.437, 7.661e-3
-1.438, 7.708e-3
-1.439, 7.762e-3
-1.440, 7.822e-3
-1.441, 7.868e-3
-1.442, 7.932e-3
-1.443, 7.990e-3
-1.444, 8.061e-3
-1.445, 8.140e-3
-1.446, 8.202e-3
-1.447, 8.264e-3
-1.448, 8.367e-3
-1.449, 8.461e-3
-1.450, 8.573e-3
-1.451, 8.647e-3
-1.452, 8.699e-3
-1.453, 8.722e-3
-1.454, 8.730e-3
-1.455, 8.794e-3
-1.456, 8.927e-3
-1.457, 9.015e-3
-1.458, 9.067e-3
-1.459, 9.153e-3
-1.460, 9.285e-3
-1.461, 9.472e-3
-1.462, 9.609e-3
-1.463, 9.653e-3
-1.464, 9.606e-3
-1.465, 9.611e-3
-1.466, 9.650e-3
-1.467, 9.715e-3
-1.468, 9.815e-3
-1.469, 9.869e-3
-1.470, 9.948e-3
-1.471, 9.982e-3
-1.472, 1.009e-2
-1.473, 1.011e-2
-1.474, 1.011e-2
-1.475, 1.011e-2
-1.476, 1.011e-2
-1.477, 1.011e-2
-1.478, 1.011e-2
-1.479, 1.011e-2
-1.480, 1.011e-2
-1.481, 1.011e-2
-1.482, 1.011e-2
-1.483, 1.011e-2
-1.484, 1.011e-2
-1.485, 1.011e-2
-1.486, 1.011e-2
-1.487, 1.011e-2
-1.488, 1.011e-2
-1.489, 1.011e-2
-1.490, 1.011e-2
-1.491, 1.011e-2
-1.492, 1.011e-2
-1.493, 1.011e-2
-1.494, 1.011e-2
-1.495, 1.011e-2
-1.496, 1.011e-2
-1.497, 1.011e-2
-1.498, 1.011e-2
-1.499, 1.011e-2
-1.500, 1.011e-2
-1.501, 1.011e-2
-1.502, 1.011e-2
-1.503, 1.011e-2
-1.504, 1.011e-2
-1.505, 1.011e-2
-1.506, 1.011e-2
-1.507, 1.011e-2
-1.508, 1.011e-2
-1.509, 1.011e-2
-1.510, 1.011e-2
-1.511, 1.011e-2
-1.512, 1.011e-2
-1.513, 1.011e-2
-1.514, 1.011e-2
-1.515, 1.011e-2
-1.516, 1.011e-2
-1.517, 1.011e-2
-1.518, 1.011e-2
-1.519, 1.011e-2
-1.520, 1.011e-2
-1.521, 1.011e-2
-1.522, 1.011e-2
-1.523, 1.011e-2
-1.524, 1.011e-2
-1.525, 1.011e-2
-1.526, 1.011e-2
-1.527, 1.011e-2
-1.528, 1.011e-2
-1.529, 1.011e-2
-1.530, 1.011e-2
-1.531, 1.011e-2
-1.532, 1.011e-2
-1.533, 1.011e-2
-1.534, 1.011e-2
-1.535, 1.011e-2
-1.536, 1.011e-2
-1.537, 1.011e-2
-1.538, 1.011e-2
-1.539, 1.011e-2
-1.540, 1.011e-2
-1.541, 1.011e-2
-1.542, 1.011e-2
-1.543, 1.011e-2
-1.544, 1.011e-2
-1.545, 1.011e-2
-1.546, 1.011e-2
-1.547, 1.011e-2
-1.548, 1.011e-2
-1.549, 1.011e-2
-1.550, 1.011e-2
-1.551, 1.011e-2
-1.552, 1.011e-2
-1.553, 1.011e-2
-1.554, 1.011e-2
-1.555, 1.011e-2
-1.556, 1.011e-2
-1.557, 1.011e-2
-1.558, 1.011e-2
-1.559, 1.011e-2
-1.560, 1.011e-2
-1.561, 1.011e-2
-1.562, 1.011e-2
-1.563, 1.011e-2
-1.564, 1.011e-2
-1.565, 1.011e-2
-1.566, 1.011e-2
-1.567, 1.011e-2
-1.568, 1.011e-2
-1.569, 1.011e-2
-1.570, 1.011e-2
-1.571, 1.011e-2
-1.572, 1.011e-2
-1.573, 1.011e-2
-1.574, 1.011e-2
-1.575, 1.011e-2
-1.576, 1.011e-2
-1.577, 1.011e-2
-1.578, 1.011e-2
-1.579, 1.011e-2
-1.580, 1.011e-2
-1.581, 1.011e-2
-1.582, 1.011e-2
-1.583, 1.011e-2
-1.584, 1.011e-2
-1.585, 1.011e-2
-1.586, 1.011e-2
-1.587, 1.011e-2
-1.588, 1.011e-2
-1.589, 1.011e-2
-1.590, 1.011e-2
-1.591, 1.011e-2
-1.592, 1.011e-2
-1.593, 1.011e-2
-1.594, 1.011e-2
-1.595, 1.011e-2
-1.596, 1.011e-2
-1.597, 1.011e-2
-1.598, 1.011e-2
-1.599, 1.011e-2
-1.600, 1.011e-2
-1.599, 1.011e-2
-1.598, 1.011e-2
-1.597, 1.011e-2
-1.596, 1.011e-2
-1.595, 1.011e-2
-1.594, 1.011e-2
-1.593, 1.011e-2
-1.592, 1.011e-2
-1.591, 1.011e-2
-1.590, 1.011e-2
-1.589, 1.011e-2
-1.588, 1.011e-2
-1.587, 1.011e-2
-1.586, 1.011e-2
-1.585, 1.011e-2
-1.584, 1.011e-2
-1.583, 1.011e-2
-1.582, 1.011e-2
-1.581, 1.011e-2
-1.580, 1.011e-2
-1.579, 1.011e-2
-1.578, 1.011e-2
-1.577, 1.011e-2
-1.576, 1.011e-2
-1.575, 1.011e-2
-1.574, 1.011e-2
-1.573, 1.011e-2
-1.572, 1.011e-2
-1.571, 1.011e-2
-1.570, 1.011e-2
-1.569, 1.011e-2
-1.568, 1.011e-2
-1.567, 1.011e-2
-1.566, 1.011e-2
-1.565, 1.011e-2
-1.564, 1.011e-2
-1.563, 1.011e-2
-1.562, 1.011e-2
-1.561, 1.011e-2
-1.560, 1.011e-2
-1.559, 1.011e-2
-1.558, 1.011e-2
-1.557, 1.011e-2
-1.556, 1.011e-2
-1.555, 1.011e-2
-1.554, 1.011e-2
-1.553, 1.011e-2
-1.552, 1.011e-2
-1.551, 1.011e-2
-1.550, 1.011e-2
-1.549, 1.011e-2
-1.548, 1.011e-2
-1.547, 1.011e-2
-1.546, 1.011e-2
-1.545, 1.011e-2
-1.544, 1.011e-2
-1.543, 1.011e-2
-1.542, 1.011e-2
-1.541, 1.011e-2
-1.540, 1.011e-2
-1.539, 1.011e-2
-1.538, 1.011e-2
-1.537, 1.011e-2
-1.536, 1.011e-2
-1.535, 1.011e-2
-1.534, 1.011e-2
-1.533, 1.011e-2
-1.532, 1.011e-2
-1.531, 1.011e-2
-1.530, 1.011e-2
-1.529, 1.011e-2
-1.528, 1.011e-2
-1.527, 1.011e-2
-1.526, 1.011e-2
-1.525, 1.011e-2
-1.524, 1.011e-2
-1.523, 1.011e-2
-1.522, 1.011e-2
-1.521, 1.011e-2
-1.520, 1.011e-2
-1.519, 1.011e-2
-1.518, 1.011e-2
-1.517, 1.011e-2
-1.516, 1.011e-2
-1.515, 1.011e-2
-1.514, 1.011e-2
-1.513, 1.011e-2
-1.512, 1.011e-2
-1.511, 1.011e-2
-1.510, 1.011e-2
-1.509, 1.011e-2
-1.508, 1.011e-2
-1.507, 1.011e-2
-1.506, 1.011e-2
-1.505, 1.011e-2
-1.504, 1.011e-2
-1.503, 1.011e-2
-1.502, 1.011e-2
-1.501, 1.011e-2
-1.500, 1.011e-2
-1.499, 1.011e-2
-1.498, 1.011e-2
-1.497, 1.011e-2
-1.496, 1.011e-2
-1.495, 1.011e-2
-1.494, 1.011e-2
-1.493, 1.011e-2
-1.492, 1.011e-2
-1.491, 1.011e-2
-1.490, 1.011e-2
-1.489, 1.011e-2
-1.488, 1.011e-2
-1.487, 1.011e-2
-1.486, 1.011e-2
-1.485, 1.011e-2
-1.484, 1.011e-2
-1.483, 1.011e-2
-1.482, 1.011e-2
-1.481, 1.010e-2
-1.480, 1.004e-2
-1.479, 9.974e-3
-1.478, 9.920e-3
-1.477, 9.815e-3
-1.476, 9.725e-3
-1.475, 9.681e-3
-1.474, 9.756e-3
-1.473, 9.837e-3
-1.472, 9.797e-3
-1.471, 9.649e-3
-1.470, 9.519e-3
-1.469, 9.420e-3
-1.468, 9.287e-3
-1.467, 9.193e-3
-1.466, 9.122e-3
-1.465, 9.067e-3
-1.464, 8.981e-3
-1.463, 8.898e-3
-1.462, 8.843e-3
-1.461, 8.803e-3
-1.460, 8.717e-3
-1.459, 8.592e-3
-1.458, 8.531e-3
-1.457, 8.441e-3
-1.456, 8.325e-3
-1.455, 8.220e-3
-1.454, 8.129e-3
-1.453, 8.044e-3
-1.452, 7.964e-3
-1.451, 7.974e-3
-1.450, 7.854e-3
-1.449, 7.743e-3
-1.448, 7.645e-3
-1.447, 7.567e-3
-1.446, 7.483e-3
-1.445, 7.396e-3
-1.444, 7.319e-3
-1.443, 7.277e-3
-1.442, 7.180e-3
-1.441, 7.074e-3
-1.440, 7.008e-3
-1.439, 7.007e-3
-1.438, 6.933e-3
-1.437, 6.857e-3
-1.436, 6.834e-3
-1.435, 6.785e-3
-1.434, 6.733e-3
-1.433, 6.658e-3
-1.432, 6.569e-3
-1.431, 6.458e-3
-1.430, 6.387e-3
-1.429, 6.315e-3
-1.428, 6.258e-3
-1.427, 6.180e-3
-1.426, 6.121e-3
-1.425, 6.038e-3
-1.424, 5.983e-3
-1.423, 5.925e-3
-1.422, 5.827e-3
-1.421, 5.731e-3
-1.420, 5.644e-3
-1.419, 5.551e-3
-1.418, 5.448e-3
-1.417, 5.366e-3
-1.416, 5.312e-3
-1.415, 5.248e-3
-1.414, 5.193e-3
-1.413, 5.120e-3
-1.412, 5.062e-3
-1.411, 5.021e-3
-1.410, 4.954e-3
-1.409, 4.878e-3
-1.408, 4.815e-3
-1.407, 4.767e-3
-1.406, 4.698e-3
-1.405, 4.616e-3
-1.404, 4.542e-3
-1.403, 4.474e-3
-1.402, 4.435e-3
-1.401, 4.397e-3
-1.400, 4.341e-3
-1.399, 4.280e-3
-1.398, 4.220e-3
-1.397, 4.169e-3
-1.396, 4.128e-3
-1.395, 4.064e-3
-1.394, 3.993e-3
-1.393, 3.921e-3
-1.392, 3.873e-3
-1.391, 3.809e-3
-1.390, 3.743e-3
-1.389, 3.682e-3
-1.388, 3.624e-3
-1.387, 3.579e-3
-1.386, 3.524e-3
-1.385, 3.460e-3
-1.384, 3.396e-3
-1.383, 3.343e-3
-1.382, 3.296e-3
-1.381, 3.238e-3
-1.380, 3.178e-3
-1.379, 3.116e-3
-1.378, 3.053e-3
-1.377, 2.996e-3
-1.376, 2.938e-3
-1.375, 2.882e-3
-1.374, 2.825e-3
-1.373, 2.776e-3
-1.372, 2.720e-3
-1.371, 2.663e-3
-1.370, 2.610e-3
-1.369, 2.555e-3
-1.368, 2.510e-3
-1.367, 2.460e-3
-1.366, 2.410e-3
-1.365, 2.360e-3
-1.364, 2.307e-3
-1.363, 2.255e-3
-1.362, 2.203e-3
-1.361, 2.151e-3
-1.360, 2.102e-3
-1.359, 2.054e-3
-1.358, 2.000e-3
-1.357, 1.954e-3
-1.356, 1.922e-3
-1.355, 1.877e-3
-1.354, 1.827e-3
-1.353, 1.783e-3
-1.352, 1.747e-3
-1.351, 1.705e-3
-1.350, 1.674e-3
-1.349, 1.637e-3
-1.348, 1.601e-3
-1.347, 1.563e-3
-1.346, 1.527e-3
-1.345, 1.488e-3
-1.344, 1.451e-3
-1.343, 1.413e-3
-1.342, 1.380e-3
-1.341, 1.345e-3
-1.340, 1.310e-3
-1.339, 1.273e-3
-1.338, 1.238e-3
-1.337, 1.205e-3
-1.336, 1.174e-3
-1.335, 1.144e-3
-1.334, 1.111e-3
-1.333, 1.080e-3
-1.332, 1.051e-3
-1.331, 1.021e-3
-1.330, 9.905e-4
-1.329, 9.611e-4
-1.328, 9.321e-4
-1.327, 9.026e-4
-1.326, 8.761e-4
-1.325, 8.484e-4
-1.324, 8.199e-4
-1.323, 7.937e-4
-1.322, 7.689e-4
-1.321, 7.445e-4
-1.320, 7.196e-4
-1.319, 6.951e-4
-1.318, 6.721e-4
-1.317, 6.509e-4
-1.316, 6.306e-4
-1.315, 6.080e-4
-1.314, 5.871e-4
-1.313, 5.671e-4
-1.312, 5.481e-4
-1.311, 5.296e-4
-1.310, 5.105e-4
-1.309, 4.929e-4
-1.308, 4.752e-4
-1.307, 4.607e-4
-1.306, 4.445e-4
-1.305, 4.282e-4
-1.304, 4.124e-4
-1.303, 3.973e-4
-1.302, 3.838e-4
-1.301, 3.701e-4
-1.300, 3.563e-4
-1.299, 3.425e-4
-1.298, 3.303e-4
-1.297, 3.181e-4
-1.296, 3.063e-4
-1.295, 2.942e-4
-1.294, 2.822e-4
-1.293, 2.713e-4
-1.292, 2.610e-4
-1.291, 2.514e-4
-1.290, 2.411e-4
-1.289, 2.308e-4
-1.288, 2.215e-4
-1.287, 2.130e-4
-1.286, 2.046e-4
-1.285, 1.960e-4
-1.284, 1.874e-4
-1.283, 1.794e-4
-1.282, 1.725e-4
-1.281, 1.657e-4
-1.280, 1.581e-4
-1.279, 1.508e-4
-1.278, 1.441e-4
-1.277, 1.383e-4
-1.276, 1.327e-4
-1.275, 1.265e-4
-1.274, 1.200e-4
-1.273, 1.145e-4
-1.272, 1.101e-4
-1.271, 1.055e-4
-1.270, 1.002e-4
-1.269, 9.494e-5
-1.268, 9.006e-5
-1.267, 8.605e-5
-1.266, 8.241e-5
-1.265, 7.788e-5
-1.264, 7.335e-5
-1.263, 6.937e-5
-1.262, 6.625e-5
-1.261, 6.334e-5
-1.260, 5.963e-5
-1.259, 5.580e-5
-1.258, 5.265e-5
-1.257, 5.005e-5
-1.256, 4.783e-5
-1.255, 4.474e-5
-1.254, 4.128e-5
-1.253, 3.872e-5
-1.252, 3.671e-5
-1.251, 3.469e-5
-1.250, 3.230e-5
-1.249, 2.911e-5
-1.248, 2.698e-5
-1.247, 2.537e-5
-1.246, 2.372e-5
-1.245, 2.182e-5
-1.244, 1.915e-5
-1.243, 1.709e-5
-1.242, 1.599e-5
-1.241, 1.483e-5
-1.240, 1.317e-5
-1.239, 1.075e-5
-1.238, 8.848e-6
-1.237, 8.374e-6
-1.236, 7.475e-6
-1.235, 5.975e-6
-1.234, 4.174e-6
-1.233, 2.784e-6
-1.232, 2.274e-6
-1.231, 1.861e-6
-1.230, 6.312e-7
-1.229, -1.334e-6
-1.228, -2.089e-6
-1.227, -2.526e-6
-1.226, -2.600e-6
-1.225, -3.819e-6
-1.224, -5.308e-6
-1.223, -6.510e-6
-1.222, -6.896e-6
-1.221, -6.866e-6
-1.220, -7.796e-6
-1.219, -9.219e-6
-1.218, -9.967e-6
-1.217, -1.028e-5
-1.216, -1.004e-5
-1.215, -1.098e-5
-1.214, -1.247e-5
-1.213, -1.316e-5
-1.212, -1.322e-5
-1.211, -1.329e-5
-1.210, -1.372e-5
-1.209, -1.510e-5
-1.208, -1.577e-5
-1.207, -1.574e-5
-1.206, -1.559e-5
-1.205, -1.607e-5
-1.204, -1.717e-5
-1.203, -1.810e-5
-1.202, -1.779e-5
-1.201, -1.766e-5
-1.200, -1.796e-5
-1.199, -1.901e-5
-1.198, -1.994e-5
-1.197, -1.959e-5
-1.196, -1.934e-5
-1.195, -1.972e-5
-1.194, -2.048e-5
-1.193, -2.142e-5
-1.192, -2.111e-5
-1.191, -2.082e-5
-1.190, -2.123e-5
-1.189, -2.192e-5
-1.188, -2.261e-5
-1.187, -2.258e-5
-1.186, -2.186e-5
-1.185, -2.232e-5
-1.184, -2.302e-5
-1.183, -2.380e-5
-1.182, -2.362e-5
-1.181, -2.302e-5
-1.180, -2.317e-5
-1.179, -2.414e-5
-1.178, -2.490e-5
-1.177, -2.444e-5
-1.176, -2.383e-5
-1.175, -2.382e-5
-1.174, -2.488e-5
-1.173, -2.535e-5
-1.172, -2.519e-5
-1.171, -2.486e-5
-1.170, -2.483e-5
-1.169, -2.577e-5
-1.168, -2.630e-5
-1.167, -2.597e-5
-1.166, -2.555e-5
-1.165, -2.555e-5
-1.164, -2.627e-5
-1.163, -2.712e-5
-1.162, -2.664e-5
-1.161, -2.629e-5
-1.160, -2.607e-5
-1.159, -2.691e-5
-1.158, -2.766e-5
-1.157, -2.716e-5
-1.156, -2.661e-5
-1.155, -2.687e-5
-1.154, -2.747e-5
-1.153, -2.815e-5
-1.152, -2.776e-5
-1.151, -2.720e-5
-1.150, -2.737e-5
-1.149, -2.801e-5
-1.148, -2.851e-5
-1.147, -2.849e-5
-1.146, -2.782e-5
-1.145, -2.795e-5
-1.144, -2.861e-5
-1.143, -2.925e-5
-1.142, -2.912e-5
-1.141, -2.832e-5
-1.140, -2.839e-5
-1.139, -2.927e-5
-1.138, -2.973e-5
-1.137, -2.971e-5
-1.136, -2.894e-5
-1.135, -2.885e-5
-1.134, -2.976e-5
-1.133, -3.026e-5
-1.132, -2.999e-5
-1.131, -2.949e-5
-1.130, -2.946e-5
-1.129, -3.034e-5
-1.128, -3.067e-5
-1.127, -3.049e-5
-1.126, -3.014e-5
-1.125, -2.983e-5
-1.124, -3.066e-5
-1.123, -3.143e-5
-1.122, -3.104e-5
-1.121, -3.077e-5
-1.120, -3.054e-5
-1.119, -3.124e-5
-1.118, -3.200e-5
-1.117, -3.168e-5
-1.116, -3.121e-5
-1.115, -3.090e-5
-1.114, -3.175e-5
-1.113, -3.244e-5
-1.112, -3.228e-5
-1.111, -3.170e-5
-1.110, -3.177e-5
-1.109, -3.233e-5
-1.108, -3.308e-5
-1.107, -3.311e-5
-1.106, -3.232e-5
-1.105, -3.241e-5
-1.104, -3.305e-5
-1.103, -3.362e-5
-1.102, -3.389e-5
-1.101, -3.308e-5
-1.100, -3.313e-5
-1.099, -3.392e-5
-1.098, -3.443e-5
-1.097, -3.455e-5
-1.096, -3.388e-5
-1.095, -3.380e-5
-1.094, -3.465e-5
-1.093, -3.529e-5
-1.092, -3.533e-5
-1.091, -3.485e-5
-1.090, -3.466e-5
-1.089, -3.561e-5
-1.088, -3.617e-5
-1.087, -3.623e-5
-1.086, -3.582e-5
-1.085, -3.551e-5
-1.084, -3.624e-5
-1.083, -3.717e-5
-1.082, -3.705e-5
-1.081, -3.684e-5
-1.080, -3.657e-5
-1.079, -3.724e-5
-1.078, -3.826e-5
-1.077, -3.810e-5
-1.076, -3.780e-5
-1.075, -3.774e-5
-1.074, -3.821e-5
-1.073, -3.927e-5
-1.072, -3.920e-5
-1.071, -3.885e-5
-1.070, -3.886e-5
-1.069, -3.953e-5
-1.068, -4.039e-5
-1.067, -4.059e-5
-1.066, -3.989e-5
-1.065, -3.993e-5
-1.064, -4.056e-5
-1.063, -4.140e-5
-1.062, -4.191e-5
-1.061, -4.130e-5
-1.060, -4.128e-5
-1.059, -4.213e-5
-1.058, -4.305e-5
-1.057, -4.335e-5
-1.056, -4.278e-5
-1.055, -4.268e-5
-1.054, -4.367e-5
-1.053, -4.442e-5
-1.052, -4.481e-5
-1.051, -4.451e-5
-1.050, -4.425e-5
-1.049, -4.524e-5
-1.048, -4.608e-5
-1.047, -4.641e-5
-1.046, -4.624e-5
-1.045, -4.598e-5
-1.044, -4.686e-5
-1.043, -4.816e-5
-1.042, -4.815e-5
-1.041, -4.816e-5
-1.040, -4.774e-5
-1.039, -4.883e-5
-1.038, -5.002e-5
-1.037, -5.022e-5
-1.036, -4.998e-5
-1.035, -4.998e-5
-1.034, -5.089e-5
-1.033, -5.223e-5
-1.032, -5.242e-5
-1.031, -5.216e-5
-1.030, -5.212e-5
-1.029, -5.295e-5
-1.028, -5.415e-5
-1.027, -5.480e-5
-1.026, -5.445e-5
-1.025, -5.460e-5
-1.024, -5.547e-5
-1.023, -5.666e-5
-1.022, -5.730e-5
-1.021, -5.680e-5
-1.020, -5.693e-5
-1.019, -5.783e-5
-1.018, -5.907e-5
-1.017, -5.978e-5
-1.016, -5.960e-5
-1.015, -5.953e-5
-1.014, -6.067e-5
-1.013, -6.180e-5
-1.012, -6.239e-5
-1.011, -6.254e-5
-1.010, -6.232e-5
-1.009, -6.357e-5
-1.008, -6.463e-5
-1.007, -6.523e-5
-1.006, -6.541e-5
-1.005, -6.529e-5
-1.004, -6.646e-5
-1.003, -6.781e-5
-1.002, -6.839e-5
-1.001, -6.859e-5
