July 11, 2024   21:46:58
Cyclic Voltammetry
File: c:/users/guazh/data/20240709_batch67/2024-07-10-exp15\exp15-2024-07-11t21_26_09-arkoh\exp15_cv_sr_700mvs_efin_-1800mv.bin
Data Source:  Experiment
Instrument Model:  CHI760E
Header: CV ran at 700 mVs
Note: 

Init E (V) = -1
High E (V) = -1
Low E (V) = -1.8
Final E (V) = -1
Init P/N = N
Scan Rate (V/s) = 0.7
Segment = 3
Sample Interval (V) = 0.001
Quiet Time (sec) = 2
Sensitivity (A/V) = 0.01
Comp R (ohm) = 1.6

Results:

Channel 1:
Segment 1:

Segment 2:

Segment 3:

Potential/V, Current/A

-1.000, 3.239e-6
-1.001, 3.239e-6
-1.002, 3.239e-6
-1.003, 6.322e-6
-1.004, 6.322e-6
-1.005, 6.322e-6
-1.006, 6.322e-6
-1.007, 6.322e-6
-1.008, 6.322e-6
-1.009, 6.322e-6
-1.010, 6.322e-6
-1.011, 6.322e-6
-1.012, 6.322e-6
-1.013, 6.322e-6
-1.014, 6.322e-6
-1.015, 6.322e-6
-1.016, 6.322e-6
-1.017, 9.405e-6
-1.018, 9.405e-6
-1.019, 6.322e-6
-1.020, 6.322e-6
-1.021, 6.322e-6
-1.022, 6.322e-6
-1.023, 9.405e-6
-1.024, 6.322e-6
-1.025, 6.322e-6
-1.026, 6.322e-6
-1.027, 9.405e-6
-1.028, 9.405e-6
-1.029, 9.405e-6
-1.030, 6.322e-6
-1.031, 6.322e-6
-1.032, 9.405e-6
-1.033, 9.405e-6
-1.034, 9.405e-6
-1.035, 6.322e-6
-1.036, 6.322e-6
-1.037, 6.322e-6
-1.038, 9.405e-6
-1.039, 9.405e-6
-1.040, 9.405e-6
-1.041, 9.405e-6
-1.042, 9.405e-6
-1.043, 9.405e-6
-1.044, 9.405e-6
-1.045, 9.405e-6
-1.046, 9.405e-6
-1.047, 6.322e-6
-1.048, 6.322e-6
-1.049, 9.405e-6
-1.050, 9.405e-6
-1.051, 9.405e-6
-1.052, 9.405e-6
-1.053, 9.405e-6
-1.054, 9.405e-6
-1.055, 9.405e-6
-1.056, 9.405e-6
-1.057, 9.405e-6
-1.058, 9.405e-6
-1.059, 9.405e-6
-1.060, 9.405e-6
-1.061, 9.405e-6
-1.062, 9.405e-6
-1.063, 9.405e-6
-1.064, 9.405e-6
-1.065, 9.405e-6
-1.066, 9.405e-6
-1.067, 9.405e-6
-1.068, 9.405e-6
-1.069, 9.405e-6
-1.070, 9.405e-6
-1.071, 9.405e-6
-1.072, 9.405e-6
-1.073, 9.405e-6
-1.074, 9.405e-6
-1.075, 9.405e-6
-1.076, 9.405e-6
-1.077, 9.405e-6
-1.078, 9.405e-6
-1.079, 9.405e-6
-1.080, 9.405e-6
-1.081, 9.405e-6
-1.082, 9.405e-6
-1.083, 9.405e-6
-1.084, 9.405e-6
-1.085, 9.405e-6
-1.086, 9.405e-6
-1.087, 9.405e-6
-1.088, 9.405e-6
-1.089, 9.405e-6
-1.090, 9.405e-6
-1.091, 9.405e-6
-1.092, 9.405e-6
-1.093, 9.405e-6
-1.094, 9.405e-6
-1.095, 9.405e-6
-1.096, 9.405e-6
-1.097, 9.405e-6
-1.098, 9.405e-6
-1.099, 9.405e-6
-1.100, 9.405e-6
-1.101, 1.249e-5
-1.102, 9.405e-6
-1.103, 9.405e-6
-1.104, 9.405e-6
-1.105, 9.405e-6
-1.106, 9.405e-6
-1.107, 9.405e-6
-1.108, 9.405e-6
-1.109, 9.405e-6
-1.110, 9.405e-6
-1.111, 9.405e-6
-1.112, 9.405e-6
-1.113, 9.405e-6
-1.114, 9.405e-6
-1.115, 9.405e-6
-1.116, 9.405e-6
-1.117, 9.405e-6
-1.118, 9.405e-6
-1.119, 9.405e-6
-1.120, 9.405e-6
-1.121, 9.405e-6
-1.122, 1.249e-5
-1.123, 9.405e-6
-1.124, 1.249e-5
-1.125, 9.405e-6
-1.126, 9.405e-6
-1.127, 9.405e-6
-1.128, 9.405e-6
-1.129, 9.405e-6
-1.130, 9.405e-6
-1.131, 1.249e-5
-1.132, 9.405e-6
-1.133, 1.249e-5
-1.134, 1.249e-5
-1.135, 9.405e-6
-1.136, 1.249e-5
-1.137, 9.405e-6
-1.138, 9.405e-6
-1.139, 9.405e-6
-1.140, 1.249e-5
-1.141, 9.405e-6
-1.142, 9.405e-6
-1.143, 1.249e-5
-1.144, 1.249e-5
-1.145, 1.249e-5
-1.146, 1.249e-5
-1.147, 1.249e-5
-1.148, 1.249e-5
-1.149, 1.249e-5
-1.150, 1.249e-5
-1.151, 1.249e-5
-1.152, 1.249e-5
-1.153, 1.249e-5
-1.154, 9.405e-6
-1.155, 1.249e-5
-1.156, 1.249e-5
-1.157, 1.249e-5
-1.158, 1.249e-5
-1.159, 1.249e-5
-1.160, 1.249e-5
-1.161, 1.249e-5
-1.162, 1.249e-5
-1.163, 1.249e-5
-1.164, 1.249e-5
-1.165, 1.249e-5
-1.166, 1.249e-5
-1.167, 1.249e-5
-1.168, 1.249e-5
-1.169, 1.249e-5
-1.170, 1.249e-5
-1.171, 1.249e-5
-1.172, 1.249e-5
-1.173, 1.249e-5
-1.174, 1.249e-5
-1.175, 1.249e-5
-1.176, 1.249e-5
-1.177, 1.249e-5
-1.178, 1.249e-5
-1.179, 1.249e-5
-1.180, 1.249e-5
-1.181, 1.249e-5
-1.182, 1.249e-5
-1.183, 1.249e-5
-1.184, 1.249e-5
-1.185, 1.249e-5
-1.186, 1.249e-5
-1.187, 1.249e-5
-1.188, 1.249e-5
-1.189, 1.249e-5
-1.190, 1.249e-5
-1.191, 1.249e-5
-1.192, 1.249e-5
-1.193, 1.249e-5
-1.194, 1.249e-5
-1.195, 1.249e-5
-1.196, 1.249e-5
-1.197, 1.249e-5
-1.198, 1.249e-5
-1.199, 1.249e-5
-1.200, 1.249e-5
-1.201, 1.249e-5
-1.202, 1.249e-5
-1.203, 1.249e-5
-1.204, 1.249e-5
-1.205, 1.249e-5
-1.206, 1.249e-5
-1.207, 1.249e-5
-1.208, 1.249e-5
-1.209, 1.249e-5
-1.210, 1.249e-5
-1.211, 1.249e-5
-1.212, 1.249e-5
-1.213, 1.249e-5
-1.214, 1.249e-5
-1.215, 1.249e-5
-1.216, 1.249e-5
-1.217, 1.249e-5
-1.218, 1.557e-5
-1.219, 1.557e-5
-1.220, 1.249e-5
-1.221, 1.249e-5
-1.222, 1.249e-5
-1.223, 1.249e-5
-1.224, 1.557e-5
-1.225, 1.557e-5
-1.226, 1.557e-5
-1.227, 1.557e-5
-1.228, 1.249e-5
-1.229, 1.557e-5
-1.230, 1.557e-5
-1.231, 1.557e-5
-1.232, 1.557e-5
-1.233, 1.249e-5
-1.234, 1.249e-5
-1.235, 1.249e-5
-1.236, 1.557e-5
-1.237, 1.249e-5
-1.238, 1.557e-5
-1.239, 1.249e-5
-1.240, 1.557e-5
-1.241, 1.557e-5
-1.242, 1.249e-5
-1.243, 1.557e-5
-1.244, 1.557e-5
-1.245, 1.557e-5
-1.246, 1.557e-5
-1.247, 1.557e-5
-1.248, 1.557e-5
-1.249, 1.557e-5
-1.250, 1.557e-5
-1.251, 1.557e-5
-1.252, 1.557e-5
-1.253, 1.557e-5
-1.254, 1.557e-5
-1.255, 1.557e-5
-1.256, 1.557e-5
-1.257, 1.557e-5
-1.258, 1.557e-5
-1.259, 1.557e-5
-1.260, 1.557e-5
-1.261, 1.557e-5
-1.262, 1.557e-5
-1.263, 1.557e-5
-1.264, 1.557e-5
-1.265, 1.557e-5
-1.266, 1.557e-5
-1.267, 1.557e-5
-1.268, 1.557e-5
-1.269, 1.557e-5
-1.270, 1.557e-5
-1.271, 1.557e-5
-1.272, 1.557e-5
-1.273, 1.557e-5
-1.274, 1.557e-5
-1.275, 1.557e-5
-1.276, 1.557e-5
-1.277, 1.557e-5
-1.278, 1.557e-5
-1.279, 1.557e-5
-1.280, 1.557e-5
-1.281, 1.557e-5
-1.282, 1.557e-5
-1.283, 1.557e-5
-1.284, 1.557e-5
-1.285, 1.557e-5
-1.286, 1.557e-5
-1.287, 1.865e-5
-1.288, 1.557e-5
-1.289, 1.557e-5
-1.290, 1.557e-5
-1.291, 1.557e-5
-1.292, 1.557e-5
-1.293, 1.557e-5
-1.294, 1.557e-5
-1.295, 1.557e-5
-1.296, 1.557e-5
-1.297, 1.865e-5
-1.298, 1.865e-5
-1.299, 1.865e-5
-1.300, 1.557e-5
-1.301, 1.557e-5
-1.302, 1.865e-5
-1.303, 1.865e-5
-1.304, 1.865e-5
-1.305, 1.557e-5
-1.306, 1.865e-5
-1.307, 1.557e-5
-1.308, 1.865e-5
-1.309, 1.865e-5
-1.310, 1.865e-5
-1.311, 1.865e-5
-1.312, 1.865e-5
-1.313, 1.865e-5
-1.314, 1.865e-5
-1.315, 1.865e-5
-1.316, 1.865e-5
-1.317, 1.865e-5
-1.318, 1.865e-5
-1.319, 1.865e-5
-1.320, 1.865e-5
-1.321, 1.865e-5
-1.322, 1.865e-5
-1.323, 1.865e-5
-1.324, 1.865e-5
-1.325, 1.865e-5
-1.326, 1.865e-5
-1.327, 1.865e-5
-1.328, 1.865e-5
-1.329, 1.865e-5
-1.330, 1.865e-5
-1.331, 1.865e-5
-1.332, 2.174e-5
-1.333, 2.174e-5
-1.334, 1.865e-5
-1.335, 1.865e-5
-1.336, 1.865e-5
-1.337, 1.865e-5
-1.338, 2.174e-5
-1.339, 1.865e-5
-1.340, 1.865e-5
-1.341, 1.865e-5
-1.342, 2.174e-5
-1.343, 2.174e-5
-1.344, 2.174e-5
-1.345, 2.174e-5
-1.346, 2.174e-5
-1.347, 2.174e-5
-1.348, 2.174e-5
-1.349, 2.174e-5
-1.350, 2.174e-5
-1.351, 2.174e-5
-1.352, 2.174e-5
-1.353, 2.174e-5
-1.354, 2.174e-5
-1.355, 2.174e-5
-1.356, 2.174e-5
-1.357, 2.174e-5
-1.358, 2.174e-5
-1.359, 2.482e-5
-1.360, 2.174e-5
-1.361, 2.482e-5
-1.362, 2.174e-5
-1.363, 2.174e-5
-1.364, 2.482e-5
-1.365, 2.174e-5
-1.366, 2.482e-5
-1.367, 2.482e-5
-1.368, 2.482e-5
-1.369, 2.482e-5
-1.370, 2.482e-5
-1.371, 2.482e-5
-1.372, 2.482e-5
-1.373, 2.482e-5
-1.374, 2.482e-5
-1.375, 2.482e-5
-1.376, 2.790e-5
-1.377, 2.482e-5
-1.378, 2.790e-5
-1.379, 2.790e-5
-1.380, 2.482e-5
-1.381, 2.790e-5
-1.382, 2.790e-5
-1.383, 2.790e-5
-1.384, 2.790e-5
-1.385, 2.790e-5
-1.386, 2.790e-5
-1.387, 2.790e-5
-1.388, 2.790e-5
-1.389, 3.099e-5
-1.390, 3.099e-5
-1.391, 3.099e-5
-1.392, 3.099e-5
-1.393, 3.099e-5
-1.394, 3.099e-5
-1.395, 3.099e-5
-1.396, 3.099e-5
-1.397, 3.099e-5
-1.398, 3.099e-5
-1.399, 3.407e-5
-1.400, 3.407e-5
-1.401, 3.407e-5
-1.402, 3.407e-5
-1.403, 3.407e-5
-1.404, 3.407e-5
-1.405, 3.407e-5
-1.406, 3.715e-5
-1.407, 3.715e-5
-1.408, 3.407e-5
-1.409, 3.715e-5
-1.410, 3.715e-5
-1.411, 4.024e-5
-1.412, 4.024e-5
-1.413, 4.024e-5
-1.414, 4.024e-5
-1.415, 4.024e-5
-1.416, 4.332e-5
-1.417, 4.024e-5
-1.418, 4.332e-5
-1.419, 4.332e-5
-1.420, 4.332e-5
-1.421, 4.332e-5
-1.422, 4.640e-5
-1.423, 4.640e-5
-1.424, 4.640e-5
-1.425, 4.640e-5
-1.426, 4.949e-5
-1.427, 4.949e-5
-1.428, 4.949e-5
-1.429, 4.949e-5
-1.430, 4.949e-5
-1.431, 5.257e-5
-1.432, 5.257e-5
-1.433, 5.257e-5
-1.434, 5.565e-5
-1.435, 5.565e-5
-1.436, 5.565e-5
-1.437, 5.873e-5
-1.438, 5.873e-5
-1.439, 5.873e-5
-1.440, 6.182e-5
-1.441, 6.182e-5
-1.442, 6.182e-5
-1.443, 6.182e-5
-1.444, 6.490e-5
-1.445, 6.490e-5
-1.446, 6.798e-5
-1.447, 6.798e-5
-1.448, 6.798e-5
-1.449, 7.107e-5
-1.450, 7.107e-5
-1.451, 7.415e-5
-1.452, 7.415e-5
-1.453, 7.415e-5
-1.454, 7.723e-5
-1.455, 7.723e-5
-1.456, 8.032e-5
-1.457, 8.032e-5
-1.458, 8.340e-5
-1.459, 8.340e-5
-1.460, 8.648e-5
-1.461, 8.957e-5
-1.462, 8.957e-5
-1.463, 9.265e-5
-1.464, 9.265e-5
-1.465, 9.573e-5
-1.466, 9.882e-5
-1.467, 9.882e-5
-1.468, 1.019e-4
-1.469, 1.019e-4
-1.470, 1.050e-4
-1.471, 1.081e-4
-1.472, 1.111e-4
-1.473, 1.111e-4
-1.474, 1.142e-4
-1.475, 1.142e-4
-1.476, 1.173e-4
-1.477, 1.204e-4
-1.478, 1.235e-4
-1.479, 1.235e-4
-1.480, 1.266e-4
-1.481, 1.296e-4
-1.482, 1.327e-4
-1.483, 1.358e-4
-1.484, 1.389e-4
-1.485, 1.420e-4
-1.486, 1.451e-4
-1.487, 1.481e-4
-1.488, 1.512e-4
-1.489, 1.543e-4
-1.490, 1.574e-4
-1.491, 1.605e-4
-1.492, 1.636e-4
-1.493, 1.666e-4
-1.494, 1.697e-4
-1.495, 1.728e-4
-1.496, 1.790e-4
-1.497, 1.821e-4
-1.498, 1.851e-4
-1.499, 1.882e-4
-1.500, 1.913e-4
-1.501, 1.975e-4
-1.502, 2.006e-4
-1.503, 2.036e-4
-1.504, 2.067e-4
-1.505, 2.129e-4
-1.506, 2.160e-4
-1.507, 2.221e-4
-1.508, 2.252e-4
-1.509, 2.283e-4
-1.510, 2.345e-4
-1.511, 2.406e-4
-1.512, 2.437e-4
-1.513, 2.499e-4
-1.514, 2.530e-4
-1.515, 2.561e-4
-1.516, 2.622e-4
-1.517, 2.684e-4
-1.518, 2.746e-4
-1.519, 2.807e-4
-1.520, 2.869e-4
-1.521, 2.931e-4
-1.522, 2.961e-4
-1.523, 3.023e-4
-1.524, 3.085e-4
-1.525, 3.146e-4
-1.526, 3.208e-4
-1.527, 3.270e-4
-1.528, 3.331e-4
-1.529, 3.393e-4
-1.530, 3.455e-4
-1.531, 3.547e-4
-1.532, 3.609e-4
-1.533, 3.670e-4
-1.534, 3.732e-4
-1.535, 3.794e-4
-1.536, 3.855e-4
-1.537, 3.948e-4
-1.538, 4.010e-4
-1.539, 4.071e-4
-1.540, 4.164e-4
-1.541, 4.225e-4
-1.542, 4.318e-4
-1.543, 4.410e-4
-1.544, 4.472e-4
-1.545, 4.565e-4
-1.546, 4.657e-4
-1.547, 4.719e-4
-1.548, 4.811e-4
-1.549, 4.873e-4
-1.550, 4.965e-4
-1.551, 5.027e-4
-1.552, 5.150e-4
-1.553, 5.243e-4
-1.554, 5.335e-4
-1.555, 5.428e-4
-1.556, 5.489e-4
-1.557, 5.613e-4
-1.558, 5.674e-4
-1.559, 5.798e-4
-1.560, 5.859e-4
-1.561, 5.952e-4
-1.562, 6.044e-4
-1.563, 6.168e-4
-1.564, 6.260e-4
-1.565, 6.353e-4
-1.566, 6.476e-4
-1.567, 6.569e-4
-1.568, 6.692e-4
-1.569, 6.784e-4
-1.570, 6.877e-4
-1.571, 6.969e-4
-1.572, 7.062e-4
-1.573, 7.185e-4
-1.574, 7.309e-4
-1.575, 7.401e-4
-1.576, 7.524e-4
-1.577, 7.648e-4
-1.578, 7.771e-4
-1.579, 7.894e-4
-1.580, 8.018e-4
-1.581, 8.141e-4
-1.582, 8.264e-4
-1.583, 8.357e-4
-1.584, 8.480e-4
-1.585, 8.603e-4
-1.586, 8.727e-4
-1.587, 8.850e-4
-1.588, 8.973e-4
-1.589, 9.128e-4
-1.590, 9.251e-4
-1.591, 9.405e-4
-1.592, 9.528e-4
-1.593, 9.652e-4
-1.594, 9.806e-4
-1.595, 9.929e-4
-1.596, 1.005e-3
-1.597, 1.018e-3
-1.598, 1.030e-3
-1.599, 1.045e-3
-1.600, 1.064e-3
-1.601, 1.076e-3
-1.602, 1.092e-3
-1.603, 1.107e-3
-1.604, 1.122e-3
-1.605, 1.135e-3
-1.606, 1.150e-3
-1.607, 1.162e-3
-1.608, 1.178e-3
-1.609, 1.193e-3
-1.610, 1.206e-3
-1.611, 1.221e-3
-1.612, 1.240e-3
-1.613, 1.258e-3
-1.614, 1.273e-3
-1.615, 1.289e-3
-1.616, 1.304e-3
-1.617, 1.320e-3
-1.618, 1.338e-3
-1.619, 1.354e-3
-1.620, 1.369e-3
-1.621, 1.384e-3
-1.622, 1.403e-3
-1.623, 1.418e-3
-1.624, 1.440e-3
-1.625, 1.458e-3
-1.626, 1.477e-3
-1.627, 1.492e-3
-1.628, 1.511e-3
-1.629, 1.529e-3
-1.630, 1.545e-3
-1.631, 1.563e-3
-1.632, 1.582e-3
-1.633, 1.600e-3
-1.634, 1.622e-3
-1.635, 1.643e-3
-1.636, 1.665e-3
-1.637, 1.684e-3
-1.638, 1.705e-3
-1.639, 1.724e-3
-1.640, 1.745e-3
-1.641, 1.764e-3
-1.642, 1.782e-3
-1.643, 1.801e-3
-1.644, 1.819e-3
-1.645, 1.844e-3
-1.646, 1.865e-3
-1.647, 1.887e-3
-1.648, 1.912e-3
-1.649, 1.933e-3
-1.650, 1.955e-3
-1.651, 1.976e-3
-1.652, 1.998e-3
-1.653, 2.020e-3
-1.654, 2.041e-3
-1.655, 2.063e-3
-1.656, 2.084e-3
-1.657, 2.109e-3
-1.658, 2.137e-3
-1.659, 2.161e-3
-1.660, 2.186e-3
-1.661, 2.211e-3
-1.662, 2.232e-3
-1.663, 2.257e-3
-1.664, 2.282e-3
-1.665, 2.303e-3
-1.666, 2.328e-3
-1.667, 2.353e-3
-1.668, 2.377e-3
-1.669, 2.405e-3
-1.670, 2.436e-3
-1.671, 2.464e-3
-1.672, 2.491e-3
-1.673, 2.519e-3
-1.674, 2.547e-3
-1.675, 2.571e-3
-1.676, 2.599e-3
-1.677, 2.624e-3
-1.678, 2.652e-3
-1.679, 2.679e-3
-1.680, 2.707e-3
-1.681, 2.738e-3
-1.682, 2.769e-3
-1.683, 2.803e-3
-1.684, 2.830e-3
-1.685, 2.864e-3
-1.686, 2.892e-3
-1.687, 2.923e-3
-1.688, 2.951e-3
-1.689, 2.982e-3
-1.690, 3.009e-3
-1.691, 3.043e-3
-1.692, 3.077e-3
-1.693, 3.108e-3
-1.694, 3.145e-3
-1.695, 3.179e-3
-1.696, 3.216e-3
-1.697, 3.250e-3
-1.698, 3.281e-3
-1.699, 3.318e-3
-1.700, 3.348e-3
-1.701, 3.379e-3
-1.702, 3.413e-3
-1.703, 3.453e-3
-1.704, 3.487e-3
-1.705, 3.524e-3
-1.706, 3.564e-3
-1.707, 3.604e-3
-1.708, 3.644e-3
-1.709, 3.678e-3
-1.710, 3.715e-3
-1.711, 3.749e-3
-1.712, 3.786e-3
-1.713, 3.826e-3
-1.714, 3.863e-3
-1.715, 3.900e-3
-1.716, 3.943e-3
-1.717, 3.987e-3
-1.718, 4.030e-3
-1.719, 4.073e-3
-1.720, 4.113e-3
-1.721, 4.156e-3
-1.722, 4.196e-3
-1.723, 4.236e-3
-1.724, 4.273e-3
-1.725, 4.317e-3
-1.726, 4.357e-3
-1.727, 4.403e-3
-1.728, 4.446e-3
-1.729, 4.495e-3
-1.730, 4.542e-3
-1.731, 4.588e-3
-1.732, 4.634e-3
-1.733, 4.677e-3
-1.734, 4.720e-3
-1.735, 4.767e-3
-1.736, 4.810e-3
-1.737, 4.856e-3
-1.738, 4.902e-3
-1.739, 4.955e-3
-1.740, 5.004e-3
-1.741, 5.053e-3
-1.742, 5.109e-3
-1.743, 5.161e-3
-1.744, 5.208e-3
-1.745, 5.257e-3
-1.746, 5.306e-3
-1.747, 5.352e-3
-1.748, 5.402e-3
-1.749, 5.451e-3
-1.750, 5.507e-3
-1.751, 5.562e-3
-1.752, 5.618e-3
-1.753, 5.670e-3
-1.754, 5.725e-3
-1.755, 5.784e-3
-1.756, 5.840e-3
-1.757, 5.895e-3
-1.758, 5.941e-3
-1.759, 5.994e-3
-1.760, 6.049e-3
-1.761, 6.105e-3
-1.762, 6.160e-3
-1.763, 6.219e-3
-1.764, 6.280e-3
-1.765, 6.342e-3
-1.766, 6.404e-3
-1.767, 6.462e-3
-1.768, 6.521e-3
-1.769, 6.580e-3
-1.770, 6.635e-3
-1.771, 6.691e-3
-1.772, 6.749e-3
-1.773, 6.811e-3
-1.774, 6.875e-3
-1.775, 6.937e-3
-1.776, 6.999e-3
-1.777, 7.067e-3
-1.778, 7.131e-3
-1.779, 7.193e-3
-1.780, 7.255e-3
-1.781, 7.316e-3
-1.782, 7.375e-3
-1.783, 7.437e-3
-1.784, 7.498e-3
-1.785, 7.566e-3
-1.786, 7.637e-3
-1.787, 7.702e-3
-1.788, 7.776e-3
-1.789, 7.844e-3
-1.790, 7.911e-3
-1.791, 7.976e-3
-1.792, 8.041e-3
-1.793, 8.106e-3
-1.794, 8.170e-3
-1.795, 8.235e-3
-1.796, 8.303e-3
-1.797, 8.374e-3
-1.798, 8.445e-3
-1.799, 8.516e-3
-1.800, 8.550e-3
-1.799, 8.513e-3
-1.798, 8.479e-3
-1.797, 8.432e-3
-1.796, 8.389e-3
-1.795, 8.340e-3
-1.794, 8.294e-3
-1.793, 8.244e-3
-1.792, 8.201e-3
-1.791, 8.158e-3
-1.790, 8.112e-3
-1.789, 8.069e-3
-1.788, 8.025e-3
-1.787, 7.979e-3
-1.786, 7.930e-3
-1.785, 7.878e-3
-1.784, 7.828e-3
-1.783, 7.773e-3
-1.782, 7.723e-3
-1.781, 7.671e-3
-1.780, 7.625e-3
-1.779, 7.575e-3
-1.778, 7.529e-3
-1.777, 7.483e-3
-1.776, 7.437e-3
-1.775, 7.390e-3
-1.774, 7.338e-3
-1.773, 7.289e-3
-1.772, 7.236e-3
-1.771, 7.184e-3
-1.770, 7.131e-3
-1.769, 7.079e-3
-1.768, 7.033e-3
-1.767, 6.983e-3
-1.766, 6.937e-3
-1.765, 6.894e-3
-1.764, 6.848e-3
-1.763, 6.798e-3
-1.762, 6.746e-3
-1.761, 6.694e-3
-1.760, 6.638e-3
-1.759, 6.586e-3
-1.758, 6.536e-3
-1.757, 6.487e-3
-1.756, 6.441e-3
-1.755, 6.395e-3
-1.754, 6.348e-3
-1.753, 6.302e-3
-1.752, 6.253e-3
-1.751, 6.203e-3
-1.750, 6.154e-3
-1.749, 6.105e-3
-1.748, 6.052e-3
-1.747, 6.000e-3
-1.746, 5.951e-3
-1.745, 5.904e-3
-1.744, 5.861e-3
-1.743, 5.815e-3
-1.742, 5.772e-3
-1.741, 5.725e-3
-1.740, 5.679e-3
-1.739, 5.630e-3
-1.738, 5.584e-3
-1.737, 5.534e-3
-1.736, 5.485e-3
-1.735, 5.436e-3
-1.734, 5.393e-3
-1.733, 5.349e-3
-1.732, 5.303e-3
-1.731, 5.260e-3
-1.730, 5.217e-3
-1.729, 5.174e-3
-1.728, 5.130e-3
-1.727, 5.084e-3
-1.726, 5.038e-3
-1.725, 4.989e-3
-1.724, 4.942e-3
-1.723, 4.899e-3
-1.722, 4.856e-3
-1.721, 4.813e-3
-1.720, 4.773e-3
-1.719, 4.733e-3
-1.718, 4.690e-3
-1.717, 4.653e-3
-1.716, 4.612e-3
-1.715, 4.566e-3
-1.714, 4.520e-3
-1.713, 4.477e-3
-1.712, 4.434e-3
-1.711, 4.391e-3
-1.710, 4.350e-3
-1.709, 4.310e-3
-1.708, 4.273e-3
-1.707, 4.233e-3
-1.706, 4.193e-3
-1.705, 4.156e-3
-1.704, 4.113e-3
-1.703, 4.073e-3
-1.702, 4.030e-3
-1.701, 3.987e-3
-1.700, 3.947e-3
-1.699, 3.906e-3
-1.698, 3.869e-3
-1.697, 3.832e-3
-1.696, 3.795e-3
-1.695, 3.758e-3
-1.694, 3.725e-3
-1.693, 3.688e-3
-1.692, 3.647e-3
-1.691, 3.607e-3
-1.690, 3.567e-3
-1.689, 3.527e-3
-1.688, 3.490e-3
-1.687, 3.453e-3
-1.686, 3.419e-3
-1.685, 3.385e-3
-1.684, 3.351e-3
-1.683, 3.318e-3
-1.682, 3.284e-3
-1.681, 3.250e-3
-1.680, 3.213e-3
-1.679, 3.176e-3
-1.678, 3.139e-3
-1.677, 3.105e-3
-1.676, 3.068e-3
-1.675, 3.034e-3
-1.674, 3.003e-3
-1.673, 2.972e-3
-1.672, 2.941e-3
-1.671, 2.908e-3
-1.670, 2.877e-3
-1.669, 2.843e-3
-1.668, 2.815e-3
-1.667, 2.781e-3
-1.666, 2.747e-3
-1.665, 2.716e-3
-1.664, 2.682e-3
-1.663, 2.652e-3
-1.662, 2.621e-3
-1.661, 2.593e-3
-1.660, 2.565e-3
-1.659, 2.538e-3
-1.658, 2.507e-3
-1.657, 2.476e-3
-1.656, 2.445e-3
-1.655, 2.414e-3
-1.654, 2.383e-3
-1.653, 2.353e-3
-1.652, 2.322e-3
-1.651, 2.297e-3
-1.650, 2.269e-3
-1.649, 2.245e-3
-1.648, 2.217e-3
-1.647, 2.192e-3
-1.646, 2.164e-3
-1.645, 2.137e-3
-1.644, 2.109e-3
-1.643, 2.078e-3
-1.642, 2.054e-3
-1.641, 2.026e-3
-1.640, 2.001e-3
-1.639, 1.976e-3
-1.638, 1.952e-3
-1.637, 1.927e-3
-1.636, 1.902e-3
-1.635, 1.878e-3
-1.634, 1.853e-3
-1.633, 1.828e-3
-1.632, 1.804e-3
-1.631, 1.779e-3
-1.630, 1.754e-3
-1.629, 1.730e-3
-1.628, 1.708e-3
-1.627, 1.687e-3
-1.626, 1.665e-3
-1.625, 1.643e-3
-1.624, 1.622e-3
-1.623, 1.597e-3
-1.622, 1.576e-3
-1.621, 1.554e-3
-1.620, 1.529e-3
-1.619, 1.508e-3
-1.618, 1.486e-3
-1.617, 1.465e-3
-1.616, 1.446e-3
-1.615, 1.425e-3
-1.614, 1.406e-3
-1.613, 1.388e-3
-1.612, 1.369e-3
-1.611, 1.347e-3
-1.610, 1.326e-3
-1.609, 1.307e-3
-1.608, 1.286e-3
-1.607, 1.267e-3
-1.606, 1.246e-3
-1.605, 1.230e-3
-1.604, 1.215e-3
-1.603, 1.196e-3
-1.602, 1.181e-3
-1.601, 1.162e-3
-1.600, 1.144e-3
-1.599, 1.129e-3
-1.598, 1.110e-3
-1.597, 1.092e-3
-1.596, 1.073e-3
-1.595, 1.058e-3
-1.594, 1.039e-3
-1.593, 1.027e-3
-1.592, 1.008e-3
-1.591, 9.960e-4
-1.590, 9.806e-4
-1.589, 9.652e-4
-1.588, 9.528e-4
-1.587, 9.343e-4
-1.586, 9.189e-4
-1.585, 9.035e-4
-1.584, 8.881e-4
-1.583, 8.727e-4
-1.582, 8.573e-4
-1.581, 8.449e-4
-1.580, 8.326e-4
-1.579, 8.172e-4
-1.578, 8.048e-4
-1.577, 7.925e-4
-1.576, 7.771e-4
-1.575, 7.648e-4
-1.574, 7.494e-4
-1.573, 7.370e-4
-1.572, 7.247e-4
-1.571, 7.093e-4
-1.570, 7.000e-4
-1.569, 6.877e-4
-1.568, 6.754e-4
-1.567, 6.661e-4
-1.566, 6.538e-4
-1.565, 6.414e-4
-1.564, 6.322e-4
-1.563, 6.199e-4
-1.562, 6.075e-4
-1.561, 5.952e-4
-1.560, 5.859e-4
-1.559, 5.736e-4
-1.558, 5.644e-4
-1.557, 5.551e-4
-1.556, 5.459e-4
-1.555, 5.366e-4
-1.554, 5.243e-4
-1.553, 5.181e-4
-1.552, 5.058e-4
-1.551, 4.965e-4
-1.550, 4.873e-4
-1.549, 4.750e-4
-1.548, 4.688e-4
-1.547, 4.595e-4
-1.546, 4.503e-4
-1.545, 4.441e-4
-1.544, 4.349e-4
-1.543, 4.256e-4
-1.542, 4.195e-4
-1.541, 4.102e-4
-1.540, 4.010e-4
-1.539, 3.948e-4
-1.538, 3.855e-4
-1.537, 3.763e-4
-1.536, 3.670e-4
-1.535, 3.609e-4
-1.534, 3.547e-4
-1.533, 3.485e-4
-1.532, 3.424e-4
-1.531, 3.362e-4
-1.530, 3.300e-4
-1.529, 3.208e-4
-1.528, 3.146e-4
-1.527, 3.085e-4
-1.526, 2.992e-4
-1.525, 2.931e-4
-1.524, 2.869e-4
-1.523, 2.807e-4
-1.522, 2.776e-4
-1.521, 2.715e-4
-1.520, 2.653e-4
-1.519, 2.622e-4
-1.518, 2.561e-4
-1.517, 2.499e-4
-1.516, 2.437e-4
-1.515, 2.376e-4
-1.514, 2.314e-4
-1.513, 2.283e-4
-1.512, 2.221e-4
-1.511, 2.160e-4
-1.510, 2.129e-4
-1.509, 2.098e-4
-1.508, 2.036e-4
-1.507, 2.006e-4
-1.506, 1.975e-4
-1.505, 1.913e-4
-1.504, 1.851e-4
-1.503, 1.821e-4
-1.502, 1.759e-4
-1.501, 1.728e-4
-1.500, 1.697e-4
-1.499, 1.666e-4
-1.498, 1.636e-4
-1.497, 1.574e-4
-1.496, 1.543e-4
-1.495, 1.512e-4
-1.494, 1.481e-4
-1.493, 1.451e-4
-1.492, 1.389e-4
-1.491, 1.358e-4
-1.490, 1.358e-4
-1.489, 1.296e-4
-1.488, 1.266e-4
-1.487, 1.235e-4
-1.486, 1.204e-4
-1.485, 1.204e-4
-1.484, 1.173e-4
-1.483, 1.142e-4
-1.482, 1.111e-4
-1.481, 1.081e-4
-1.480, 1.050e-4
-1.479, 1.019e-4
-1.478, 1.019e-4
-1.477, 9.882e-5
-1.476, 9.573e-5
-1.475, 9.265e-5
-1.474, 9.265e-5
-1.473, 8.957e-5
-1.472, 8.648e-5
-1.471, 8.340e-5
-1.470, 8.340e-5
-1.469, 8.032e-5
-1.468, 7.723e-5
-1.467, 7.723e-5
-1.466, 7.415e-5
-1.465, 7.107e-5
-1.464, 7.107e-5
-1.463, 6.798e-5
-1.462, 6.798e-5
-1.461, 6.490e-5
-1.460, 6.490e-5
-1.459, 6.182e-5
-1.458, 5.873e-5
-1.457, 5.873e-5
-1.456, 5.565e-5
-1.455, 5.565e-5
-1.454, 5.257e-5
-1.453, 5.257e-5
-1.452, 5.257e-5
-1.451, 4.949e-5
-1.450, 4.949e-5
-1.449, 4.640e-5
-1.448, 4.640e-5
-1.447, 4.332e-5
-1.446, 4.332e-5
-1.445, 4.332e-5
-1.444, 4.024e-5
-1.443, 4.024e-5
-1.442, 3.715e-5
-1.441, 3.715e-5
-1.440, 3.715e-5
-1.439, 3.715e-5
-1.438, 3.407e-5
-1.437, 3.099e-5
-1.436, 3.099e-5
-1.435, 3.099e-5
-1.434, 3.099e-5
-1.433, 2.790e-5
-1.432, 2.790e-5
-1.431, 2.790e-5
-1.430, 2.482e-5
-1.429, 2.482e-5
-1.428, 2.482e-5
-1.427, 2.482e-5
-1.426, 2.482e-5
-1.425, 2.174e-5
-1.424, 2.174e-5
-1.423, 2.174e-5
-1.422, 2.174e-5
-1.421, 1.865e-5
-1.420, 1.865e-5
-1.419, 1.865e-5
-1.418, 1.865e-5
-1.417, 1.557e-5
-1.416, 1.865e-5
-1.415, 1.557e-5
-1.414, 1.557e-5
-1.413, 1.557e-5
-1.412, 1.249e-5
-1.411, 1.249e-5
-1.410, 1.249e-5
-1.409, 1.249e-5
-1.408, 1.249e-5
-1.407, 1.249e-5
-1.406, 1.249e-5
-1.405, 1.249e-5
-1.404, 9.405e-6
-1.403, 9.405e-6
-1.402, 9.405e-6
-1.401, 9.405e-6
-1.400, 9.405e-6
-1.399, 6.322e-6
-1.398, 6.322e-6
-1.397, 6.322e-6
-1.396, 6.322e-6
-1.395, 6.322e-6
-1.394, 6.322e-6
-1.393, 6.322e-6
-1.392, 6.322e-6
-1.391, 3.239e-6
-1.390, 3.239e-6
-1.389, 3.239e-6
-1.388, 3.239e-6
-1.387, 3.239e-6
-1.386, 3.239e-6
-1.385, 1.559e-7
-1.384, 3.239e-6
-1.383, 3.239e-6
-1.382, 3.239e-6
-1.381, 1.559e-7
-1.380, 1.559e-7
-1.379, 1.559e-7
-1.378, 1.559e-7
-1.377, 1.559e-7
-1.376, 1.559e-7
-1.375, 1.559e-7
-1.374, 1.559e-7
-1.373, 1.559e-7
-1.372, 1.559e-7
-1.371, 1.559e-7
-1.370, 1.559e-7
-1.369, -2.927e-6
-1.368, -2.927e-6
-1.367, -2.927e-6
-1.366, 1.559e-7
-1.365, -2.927e-6
-1.364, -2.927e-6
-1.363, -2.927e-6
-1.362, -2.927e-6
-1.361, -2.927e-6
-1.360, -2.927e-6
-1.359, -2.927e-6
-1.358, -2.927e-6
-1.357, -2.927e-6
-1.356, -6.010e-6
-1.355, -2.927e-6
-1.354, -6.010e-6
-1.353, -2.927e-6
-1.352, -6.010e-6
-1.351, -6.010e-6
-1.350, -6.010e-6
-1.349, -6.010e-6
-1.348, -6.010e-6
-1.347, -6.010e-6
-1.346, -6.010e-6
-1.345, -6.010e-6
-1.344, -6.010e-6
-1.343, -6.010e-6
-1.342, -6.010e-6
-1.341, -6.010e-6
-1.340, -6.010e-6
-1.339, -6.010e-6
-1.338, -6.010e-6
-1.337, -6.010e-6
-1.336, -6.010e-6
-1.335, -6.010e-6
-1.334, -6.010e-6
-1.333, -6.010e-6
-1.332, -6.010e-6
-1.331, -6.010e-6
-1.330, -6.010e-6
-1.329, -9.093e-6
-1.328, -6.010e-6
-1.327, -9.093e-6
-1.326, -6.010e-6
-1.325, -9.093e-6
-1.324, -6.010e-6
-1.323, -6.010e-6
-1.322, -9.093e-6
-1.321, -6.010e-6
-1.320, -6.010e-6
-1.319, -9.093e-6
-1.318, -9.093e-6
-1.317, -9.093e-6
-1.316, -9.093e-6
-1.315, -6.010e-6
-1.314, -9.093e-6
-1.313, -9.093e-6
-1.312, -9.093e-6
-1.311, -9.093e-6
-1.310, -6.010e-6
-1.309, -9.093e-6
-1.308, -6.010e-6
-1.307, -9.093e-6
-1.306, -9.093e-6
-1.305, -9.093e-6
-1.304, -9.093e-6
-1.303, -9.093e-6
-1.302, -9.093e-6
-1.301, -9.093e-6
-1.300, -9.093e-6
-1.299, -9.093e-6
-1.298, -9.093e-6
-1.297, -9.093e-6
-1.296, -9.093e-6
-1.295, -9.093e-6
-1.294, -9.093e-6
-1.293, -9.093e-6
-1.292, -9.093e-6
-1.291, -9.093e-6
-1.290, -9.093e-6
-1.289, -9.093e-6
-1.288, -9.093e-6
-1.287, -9.093e-6
-1.286, -9.093e-6
-1.285, -9.093e-6
-1.284, -9.093e-6
-1.283, -9.093e-6
-1.282, -9.093e-6
-1.281, -9.093e-6
-1.280, -9.093e-6
-1.279, -9.093e-6
-1.278, -9.093e-6
-1.277, -9.093e-6
-1.276, -9.093e-6
-1.275, -9.093e-6
-1.274, -9.093e-6
-1.273, -9.093e-6
-1.272, -9.093e-6
-1.271, -9.093e-6
-1.270, -9.093e-6
-1.269, -9.093e-6
-1.268, -9.093e-6
-1.267, -9.093e-6
-1.266, -9.093e-6
-1.265, -9.093e-6
-1.264, -9.093e-6
-1.263, -9.093e-6
-1.262, -1.218e-5
-1.261, -9.093e-6
-1.260, -9.093e-6
-1.259, -9.093e-6
-1.258, -9.093e-6
-1.257, -1.218e-5
-1.256, -1.218e-5
-1.255, -9.093e-6
-1.254, -9.093e-6
-1.253, -9.093e-6
-1.252, -9.093e-6
-1.251, -9.093e-6
-1.250, -9.093e-6
-1.249, -9.093e-6
-1.248, -9.093e-6
-1.247, -9.093e-6
-1.246, -9.093e-6
-1.245, -9.093e-6
-1.244, -1.218e-5
-1.243, -9.093e-6
-1.242, -9.093e-6
-1.241, -9.093e-6
-1.240, -9.093e-6
-1.239, -1.218e-5
-1.238, -9.093e-6
-1.237, -9.093e-6
-1.236, -9.093e-6
-1.235, -9.093e-6
-1.234, -1.218e-5
-1.233, -1.218e-5
-1.232, -9.093e-6
-1.231, -9.093e-6
-1.230, -9.093e-6
-1.229, -9.093e-6
-1.228, -1.218e-5
-1.227, -9.093e-6
-1.226, -9.093e-6
-1.225, -9.093e-6
-1.224, -9.093e-6
-1.223, -9.093e-6
-1.222, -1.218e-5
-1.221, -1.218e-5
-1.220, -9.093e-6
-1.219, -9.093e-6
-1.218, -9.093e-6
-1.217, -9.093e-6
-1.216, -9.093e-6
-1.215, -1.218e-5
-1.214, -9.093e-6
-1.213, -1.218e-5
-1.212, -1.218e-5
-1.211, -1.218e-5
-1.210, -1.218e-5
-1.209, -1.218e-5
-1.208, -9.093e-6
-1.207, -9.093e-6
-1.206, -1.218e-5
-1.205, -1.218e-5
-1.204, -1.218e-5
-1.203, -1.218e-5
-1.202, -9.093e-6
-1.201, -9.093e-6
-1.200, -9.093e-6
-1.199, -1.218e-5
-1.198, -1.218e-5
-1.197, -1.218e-5
-1.196, -9.093e-6
-1.195, -9.093e-6
-1.194, -1.218e-5
-1.193, -1.218e-5
-1.192, -1.218e-5
-1.191, -9.093e-6
-1.190, -1.218e-5
-1.189, -9.093e-6
-1.188, -1.218e-5
-1.187, -1.218e-5
-1.186, -1.218e-5
-1.185, -1.218e-5
-1.184, -9.093e-6
-1.183, -9.093e-6
-1.182, -1.218e-5
-1.181, -9.093e-6
-1.180, -9.093e-6
-1.179, -1.218e-5
-1.178, -1.218e-5
-1.177, -1.218e-5
-1.176, -1.218e-5
-1.175, -1.218e-5
-1.174, -9.093e-6
-1.173, -1.218e-5
-1.172, -9.093e-6
-1.171, -9.093e-6
-1.170, -1.218e-5
-1.169, -9.093e-6
-1.168, -1.218e-5
-1.167, -1.218e-5
-1.166, -1.218e-5
-1.165, -1.218e-5
-1.164, -1.218e-5
-1.163, -1.218e-5
-1.162, -1.218e-5
-1.161, -1.218e-5
-1.160, -9.093e-6
-1.159, -1.218e-5
-1.158, -1.218e-5
-1.157, -9.093e-6
-1.156, -1.218e-5
-1.155, -1.218e-5
-1.154, -1.218e-5
-1.153, -1.218e-5
-1.152, -9.093e-6
-1.151, -9.093e-6
-1.150, -1.218e-5
-1.149, -1.218e-5
-1.148, -9.093e-6
-1.147, -1.218e-5
-1.146, -9.093e-6
-1.145, -1.218e-5
-1.144, -1.218e-5
-1.143, -1.218e-5
-1.142, -1.218e-5
-1.141, -1.218e-5
-1.140, -1.218e-5
-1.139, -1.218e-5
-1.138, -1.218e-5
-1.137, -1.218e-5
-1.136, -1.218e-5
-1.135, -1.218e-5
-1.134, -1.218e-5
-1.133, -9.093e-6
-1.132, -1.218e-5
-1.131, -1.218e-5
-1.130, -1.218e-5
-1.129, -1.218e-5
-1.128, -9.093e-6
-1.127, -1.218e-5
-1.126, -1.218e-5
-1.125, -1.218e-5
-1.124, -9.093e-6
-1.123, -9.093e-6
-1.122, -1.218e-5
-1.121, -1.218e-5
-1.120, -1.218e-5
-1.119, -1.218e-5
-1.118, -1.218e-5
-1.117, -1.218e-5
-1.116, -1.218e-5
-1.115, -1.218e-5
-1.114, -1.218e-5
-1.113, -1.218e-5
-1.112, -9.093e-6
-1.111, -1.218e-5
-1.110, -1.218e-5
-1.109, -1.218e-5
-1.108, -1.218e-5
-1.107, -1.218e-5
-1.106, -9.093e-6
-1.105, -1.218e-5
-1.104, -1.218e-5
-1.103, -1.218e-5
-1.102, -1.218e-5
-1.101, -9.093e-6
-1.100, -9.093e-6
-1.099, -1.218e-5
-1.098, -1.218e-5
-1.097, -1.218e-5
-1.096, -1.218e-5
-1.095, -9.093e-6
-1.094, -1.218e-5
-1.093, -1.218e-5
-1.092, -1.218e-5
-1.091, -1.218e-5
-1.090, -9.093e-6
-1.089, -1.218e-5
-1.088, -1.218e-5
-1.087, -1.218e-5
-1.086, -1.218e-5
-1.085, -1.218e-5
-1.084, -1.218e-5
-1.083, -9.093e-6
-1.082, -1.218e-5
-1.081, -1.218e-5
-1.080, -1.218e-5
-1.079, -1.218e-5
-1.078, -1.218e-5
-1.077, -9.093e-6
-1.076, -1.218e-5
-1.075, -1.218e-5
-1.074, -1.218e-5
-1.073, -1.218e-5
-1.072, -9.093e-6
-1.071, -1.218e-5
-1.070, -1.218e-5
-1.069, -1.218e-5
-1.068, -1.218e-5
-1.067, -1.218e-5
-1.066, -1.218e-5
-1.065, -1.218e-5
-1.064, -1.218e-5
-1.063, -1.218e-5
-1.062, -1.218e-5
-1.061, -1.218e-5
-1.060, -1.218e-5
-1.059, -1.218e-5
-1.058, -1.218e-5
-1.057, -1.218e-5
-1.056, -1.218e-5
-1.055, -1.218e-5
-1.054, -9.093e-6
-1.053, -1.218e-5
-1.052, -1.218e-5
-1.051, -1.218e-5
-1.050, -1.218e-5
-1.049, -1.218e-5
-1.048, -1.218e-5
-1.047, -1.218e-5
-1.046, -1.218e-5
-1.045, -1.218e-5
-1.044, -1.218e-5
-1.043, -1.218e-5
-1.042, -1.218e-5
-1.041, -1.218e-5
-1.040, -1.218e-5
-1.039, -1.218e-5
-1.038, -1.218e-5
-1.037, -1.218e-5
-1.036, -1.218e-5
-1.035, -1.218e-5
-1.034, -1.218e-5
-1.033, -1.218e-5
-1.032, -1.218e-5
-1.031, -1.218e-5
-1.030, -1.218e-5
-1.029, -1.218e-5
-1.028, -1.218e-5
-1.027, -9.093e-6
-1.026, -1.218e-5
-1.025, -1.218e-5
-1.024, -1.218e-5
-1.023, -1.218e-5
-1.022, -1.218e-5
-1.021, -1.218e-5
-1.020, -1.218e-5
-1.019, -1.218e-5
-1.018, -1.218e-5
-1.017, -1.218e-5
-1.016, -1.218e-5
-1.015, -1.218e-5
-1.014, -1.218e-5
-1.013, -1.218e-5
-1.012, -1.218e-5
-1.011, -1.218e-5
-1.010, -1.218e-5
-1.009, -1.218e-5
-1.008, -1.218e-5
-1.007, -1.218e-5
-1.006, -1.218e-5
-1.005, -1.218e-5
-1.004, -1.218e-5
-1.003, -1.218e-5
-1.002, -1.218e-5
-1.001, -1.218e-5
