July 11, 2024   21:45:04
Cyclic Voltammetry
File: c:/users/guazh/data/20240709_batch67/2024-07-10-exp15\exp15-2024-07-11t21_26_09-arkoh\exp15_cv_sr_200mvs_efin_-1800mv.bin
Data Source:  Experiment
Instrument Model:  CHI760E
Header: CV ran at 200 mVs
Note: 

Init E (V) = -1
High E (V) = -1
Low E (V) = -1.8
Final E (V) = -1
Init P/N = N
Scan Rate (V/s) = 0.2
Segment = 3
Sample Interval (V) = 0.001
Quiet Time (sec) = 2
Sensitivity (A/V) = 0.01
Comp R (ohm) = 1.6

Results:

Channel 1:
Segment 1:

Segment 2:

Segment 3:

Potential/V, Current/A

-1.000, 5.012e-7
-1.001, 8.070e-7
-1.002, 1.044e-6
-1.003, 9.748e-7
-1.004, 1.705e-6
-1.005, 1.251e-6
-1.006, 1.409e-6
-1.007, 1.715e-6
-1.008, 1.350e-6
-1.009, 1.498e-6
-1.010, 1.705e-6
-1.011, 1.853e-6
-1.012, 1.498e-6
-1.013, 1.823e-6
-1.014, 1.971e-6
-1.015, 1.942e-6
-1.016, 1.468e-6
-1.017, 2.040e-6
-1.018, 1.764e-6
-1.019, 1.873e-6
-1.020, 1.971e-6
-1.021, 1.961e-6
-1.022, 1.636e-6
-1.023, 1.803e-6
-1.024, 2.287e-6
-1.025, 2.001e-6
-1.026, 1.932e-6
-1.027, 2.208e-6
-1.028, 2.208e-6
-1.029, 1.882e-6
-1.030, 2.395e-6
-1.031, 2.228e-6
-1.032, 2.149e-6
-1.033, 2.099e-6
-1.034, 2.573e-6
-1.035, 2.119e-6
-1.036, 1.892e-6
-1.037, 2.899e-6
-1.038, 2.317e-6
-1.039, 1.971e-6
-1.040, 2.386e-6
-1.041, 2.238e-6
-1.042, 2.435e-6
-1.043, 2.415e-6
-1.044, 2.830e-6
-1.045, 2.336e-6
-1.046, 2.099e-6
-1.047, 2.593e-6
-1.048, 2.198e-6
-1.049, 2.238e-6
-1.050, 2.731e-6
-1.051, 2.632e-6
-1.052, 2.346e-6
-1.053, 2.691e-6
-1.054, 2.741e-6
-1.055, 2.386e-6
-1.056, 2.159e-6
-1.057, 2.751e-6
-1.058, 2.474e-6
-1.059, 2.474e-6
-1.060, 2.820e-6
-1.061, 2.780e-6
-1.062, 2.504e-6
-1.063, 2.652e-6
-1.064, 2.839e-6
-1.065, 2.603e-6
-1.066, 2.494e-6
-1.067, 3.195e-6
-1.068, 2.780e-6
-1.069, 2.524e-6
-1.070, 3.066e-6
-1.071, 2.632e-6
-1.072, 2.672e-6
-1.073, 2.741e-6
-1.074, 3.027e-6
-1.075, 2.642e-6
-1.076, 2.889e-6
-1.077, 3.027e-6
-1.078, 3.007e-6
-1.079, 2.839e-6
-1.080, 2.997e-6
-1.081, 2.938e-6
-1.082, 2.869e-6
-1.083, 2.780e-6
-1.084, 3.500e-6
-1.085, 3.056e-6
-1.086, 2.810e-6
-1.087, 3.214e-6
-1.088, 2.908e-6
-1.089, 2.849e-6
-1.090, 3.086e-6
-1.091, 2.968e-6
-1.092, 3.135e-6
-1.093, 2.948e-6
-1.094, 3.382e-6
-1.095, 3.135e-6
-1.096, 2.800e-6
-1.097, 3.402e-6
-1.098, 3.244e-6
-1.099, 3.007e-6
-1.100, 3.126e-6
-1.101, 3.066e-6
-1.102, 3.244e-6
-1.103, 3.106e-6
-1.104, 3.412e-6
-1.105, 3.175e-6
-1.106, 3.096e-6
-1.107, 3.668e-6
-1.108, 3.086e-6
-1.109, 3.264e-6
-1.110, 3.441e-6
-1.111, 3.135e-6
-1.112, 3.165e-6
-1.113, 3.126e-6
-1.114, 3.698e-6
-1.115, 3.372e-6
-1.116, 3.303e-6
-1.117, 3.471e-6
-1.118, 3.264e-6
-1.119, 3.224e-6
-1.120, 3.747e-6
-1.121, 3.481e-6
-1.122, 3.274e-6
-1.123, 3.431e-6
-1.124, 3.757e-6
-1.125, 3.441e-6
-1.126, 3.323e-6
-1.127, 3.757e-6
-1.128, 3.461e-6
-1.129, 3.333e-6
-1.130, 3.757e-6
-1.131, 3.639e-6
-1.132, 3.550e-6
-1.133, 3.500e-6
-1.134, 3.856e-6
-1.135, 3.570e-6
-1.136, 3.303e-6
-1.137, 3.757e-6
-1.138, 3.579e-6
-1.139, 3.441e-6
-1.140, 3.964e-6
-1.141, 3.717e-6
-1.142, 3.441e-6
-1.143, 3.589e-6
-1.144, 4.073e-6
-1.145, 3.599e-6
-1.146, 3.570e-6
-1.147, 3.925e-6
-1.148, 3.885e-6
-1.149, 3.540e-6
-1.150, 3.836e-6
-1.151, 3.717e-6
-1.152, 3.698e-6
-1.153, 3.846e-6
-1.154, 4.092e-6
-1.155, 3.826e-6
-1.156, 3.885e-6
-1.157, 3.974e-6
-1.158, 4.033e-6
-1.159, 3.550e-6
-1.160, 4.161e-6
-1.161, 3.944e-6
-1.162, 4.033e-6
-1.163, 3.727e-6
-1.164, 4.142e-6
-1.165, 3.925e-6
-1.166, 3.589e-6
-1.167, 4.349e-6
-1.168, 3.826e-6
-1.169, 3.964e-6
-1.170, 4.290e-6
-1.171, 3.964e-6
-1.172, 3.974e-6
-1.173, 4.152e-6
-1.174, 4.408e-6
-1.175, 4.053e-6
-1.176, 3.589e-6
-1.177, 4.566e-6
-1.178, 4.043e-6
-1.179, 4.063e-6
-1.180, 4.448e-6
-1.181, 4.290e-6
-1.182, 4.004e-6
-1.183, 4.102e-6
-1.184, 4.566e-6
-1.185, 3.974e-6
-1.186, 4.142e-6
-1.187, 4.398e-6
-1.188, 4.191e-6
-1.189, 4.102e-6
-1.190, 4.487e-6
-1.191, 4.161e-6
-1.192, 4.290e-6
-1.193, 4.171e-6
-1.194, 4.793e-6
-1.195, 4.260e-6
-1.196, 4.201e-6
-1.197, 4.674e-6
-1.198, 4.201e-6
-1.199, 4.191e-6
-1.200, 4.408e-6
-1.201, 4.388e-6
-1.202, 4.300e-6
-1.203, 4.329e-6
-1.204, 4.813e-6
-1.205, 4.517e-6
-1.206, 4.250e-6
-1.207, 4.911e-6
-1.208, 4.586e-6
-1.209, 4.526e-6
-1.210, 4.763e-6
-1.211, 4.467e-6
-1.212, 4.526e-6
-1.213, 4.408e-6
-1.214, 4.714e-6
-1.215, 4.635e-6
-1.216, 4.250e-6
-1.217, 4.931e-6
-1.218, 4.724e-6
-1.219, 4.546e-6
-1.220, 4.921e-6
-1.221, 4.635e-6
-1.222, 4.605e-6
-1.223, 4.507e-6
-1.224, 4.862e-6
-1.225, 4.684e-6
-1.226, 4.724e-6
-1.227, 5.049e-6
-1.228, 4.862e-6
-1.229, 4.783e-6
-1.230, 5.000e-6
-1.231, 4.822e-6
-1.232, 4.744e-6
-1.233, 4.734e-6
-1.234, 5.217e-6
-1.235, 4.931e-6
-1.236, 4.842e-6
-1.237, 5.188e-6
-1.238, 4.961e-6
-1.239, 4.783e-6
-1.240, 5.247e-6
-1.241, 4.990e-6
-1.242, 5.000e-6
-1.243, 4.901e-6
-1.244, 5.444e-6
-1.245, 5.109e-6
-1.246, 4.803e-6
-1.247, 5.602e-6
-1.248, 4.990e-6
-1.249, 4.872e-6
-1.250, 5.375e-6
-1.251, 5.276e-6
-1.252, 4.970e-6
-1.253, 5.178e-6
-1.254, 5.355e-6
-1.255, 5.266e-6
-1.256, 5.118e-6
-1.257, 5.631e-6
-1.258, 5.336e-6
-1.259, 5.168e-6
-1.260, 5.562e-6
-1.261, 5.395e-6
-1.262, 5.316e-6
-1.263, 5.040e-6
-1.264, 5.612e-6
-1.265, 5.316e-6
-1.266, 5.099e-6
-1.267, 5.740e-6
-1.268, 5.572e-6
-1.269, 5.345e-6
-1.270, 5.730e-6
-1.271, 5.444e-6
-1.272, 5.474e-6
-1.273, 5.720e-6
-1.274, 5.947e-6
-1.275, 5.385e-6
-1.276, 5.444e-6
-1.277, 5.819e-6
-1.278, 5.572e-6
-1.279, 5.375e-6
-1.280, 5.997e-6
-1.281, 5.691e-6
-1.282, 5.898e-6
-1.283, 5.819e-6
-1.284, 6.006e-6
-1.285, 5.868e-6
-1.286, 5.661e-6
-1.287, 6.293e-6
-1.288, 5.878e-6
-1.289, 5.730e-6
-1.290, 6.253e-6
-1.291, 6.046e-6
-1.292, 6.026e-6
-1.293, 5.947e-6
-1.294, 6.362e-6
-1.295, 6.115e-6
-1.296, 5.927e-6
-1.297, 6.431e-6
-1.298, 6.371e-6
-1.299, 6.223e-6
-1.300, 6.529e-6
-1.301, 6.391e-6
-1.302, 6.164e-6
-1.303, 6.391e-6
-1.304, 6.707e-6
-1.305, 6.539e-6
-1.306, 6.490e-6
-1.307, 6.796e-6
-1.308, 6.697e-6
-1.309, 6.510e-6
-1.310, 6.954e-6
-1.311, 6.845e-6
-1.312, 6.746e-6
-1.313, 6.855e-6
-1.314, 7.200e-6
-1.315, 7.151e-6
-1.316, 6.875e-6
-1.317, 7.180e-6
-1.318, 7.062e-6
-1.319, 6.736e-6
-1.320, 7.536e-6
-1.321, 7.348e-6
-1.322, 7.447e-6
-1.323, 7.476e-6
-1.324, 7.703e-6
-1.325, 7.545e-6
-1.326, 7.496e-6
-1.327, 8.039e-6
-1.328, 7.891e-6
-1.329, 7.585e-6
-1.330, 8.216e-6
-1.331, 8.088e-6
-1.332, 8.009e-6
-1.333, 8.266e-6
-1.334, 8.463e-6
-1.335, 8.463e-6
-1.336, 8.473e-6
-1.337, 8.838e-6
-1.338, 8.572e-6
-1.339, 8.877e-6
-1.340, 9.302e-6
-1.341, 9.085e-6
-1.342, 9.025e-6
-1.343, 9.035e-6
-1.344, 9.706e-6
-1.345, 9.568e-6
-1.346, 9.548e-6
-1.347, 9.953e-6
-1.348, 1.005e-5
-1.349, 9.607e-6
-1.350, 1.043e-5
-1.351, 1.012e-5
-1.352, 1.014e-5
-1.353, 1.044e-5
-1.354, 1.107e-5
-1.355, 1.075e-5
-1.356, 1.091e-5
-1.357, 1.149e-5
-1.358, 1.121e-5
-1.359, 1.136e-5
-1.360, 1.177e-5
-1.361, 1.205e-5
-1.362, 1.200e-5
-1.363, 1.221e-5
-1.364, 1.281e-5
-1.365, 1.282e-5
-1.366, 1.255e-5
-1.367, 1.321e-5
-1.368, 1.323e-5
-1.369, 1.333e-5
-1.370, 1.390e-5
-1.371, 1.400e-5
-1.372, 1.403e-5
-1.373, 1.431e-5
-1.374, 1.499e-5
-1.375, 1.492e-5
-1.376, 1.508e-5
-1.377, 1.585e-5
-1.378, 1.565e-5
-1.379, 1.585e-5
-1.380, 1.660e-5
-1.381, 1.661e-5
-1.382, 1.684e-5
-1.383, 1.728e-5
-1.384, 1.791e-5
-1.385, 1.791e-5
-1.386, 1.801e-5
-1.387, 1.885e-5
-1.388, 1.903e-5
-1.389, 1.913e-5
-1.390, 2.009e-5
-1.391, 2.034e-5
-1.392, 2.061e-5
-1.393, 2.090e-5
-1.394, 2.184e-5
-1.395, 2.169e-5
-1.396, 2.211e-5
-1.397, 2.300e-5
-1.398, 2.340e-5
-1.399, 2.350e-5
-1.400, 2.445e-5
-1.401, 2.491e-5
-1.402, 2.524e-5
-1.403, 2.588e-5
-1.404, 2.659e-5
-1.405, 2.690e-5
-1.406, 2.728e-5
-1.407, 2.851e-5
-1.408, 2.891e-5
-1.409, 2.937e-5
-1.410, 3.014e-5
-1.411, 3.059e-5
-1.412, 3.107e-5
-1.413, 3.195e-5
-1.414, 3.299e-5
-1.415, 3.337e-5
-1.416, 3.412e-5
-1.417, 3.514e-5
-1.418, 3.613e-5
-1.419, 3.620e-5
-1.420, 3.750e-5
-1.421, 3.844e-5
-1.422, 3.918e-5
-1.423, 3.999e-5
-1.424, 4.156e-5
-1.425, 4.196e-5
-1.426, 4.264e-5
-1.427, 4.404e-5
-1.428, 4.494e-5
-1.429, 4.565e-5
-1.430, 4.724e-5
-1.431, 4.841e-5
-1.432, 4.925e-5
-1.433, 5.038e-5
-1.434, 5.194e-5
-1.435, 5.273e-5
-1.436, 5.340e-5
-1.437, 5.561e-5
-1.438, 5.670e-5
-1.439, 5.769e-5
-1.440, 5.975e-5
-1.441, 6.092e-5
-1.442, 6.201e-5
-1.443, 6.357e-5
-1.444, 6.542e-5
-1.445, 6.684e-5
-1.446, 6.781e-5
-1.447, 7.022e-5
-1.448, 7.181e-5
-1.449, 7.312e-5
-1.450, 7.489e-5
-1.451, 7.691e-5
-1.452, 7.839e-5
-1.453, 8.016e-5
-1.454, 8.271e-5
-1.455, 8.426e-5
-1.456, 8.599e-5
-1.457, 8.837e-5
-1.458, 9.038e-5
-1.459, 9.171e-5
-1.460, 9.493e-5
-1.461, 9.706e-5
-1.462, 9.883e-5
-1.463, 1.013e-4
-1.464, 1.041e-4
-1.465, 1.062e-4
-1.466, 1.082e-4
-1.467, 1.115e-4
-1.468, 1.143e-4
-1.469, 1.161e-4
-1.470, 1.191e-4
-1.471, 1.224e-4
-1.472, 1.247e-4
-1.473, 1.276e-4
-1.474, 1.314e-4
-1.475, 1.340e-4
-1.476, 1.365e-4
-1.477, 1.404e-4
-1.478, 1.437e-4
-1.479, 1.465e-4
-1.480, 1.501e-4
-1.481, 1.542e-4
-1.482, 1.568e-4
-1.483, 1.601e-4
-1.484, 1.650e-4
-1.485, 1.683e-4
-1.486, 1.717e-4
-1.487, 1.767e-4
-1.488, 1.804e-4
-1.489, 1.837e-4
-1.490, 1.886e-4
-1.491, 1.932e-4
-1.492, 1.965e-4
-1.493, 2.007e-4
-1.494, 2.064e-4
-1.495, 2.107e-4
-1.496, 2.145e-4
-1.497, 2.204e-4
-1.498, 2.253e-4
-1.499, 2.289e-4
-1.500, 2.347e-4
-1.501, 2.403e-4
-1.502, 2.449e-4
-1.503, 2.497e-4
-1.504, 2.567e-4
-1.505, 2.612e-4
-1.506, 2.658e-4
-1.507, 2.727e-4
-1.508, 2.787e-4
-1.509, 2.833e-4
-1.510, 2.902e-4
-1.511, 2.973e-4
-1.512, 3.025e-4
-1.513, 3.082e-4
-1.514, 3.159e-4
-1.515, 3.217e-4
-1.516, 3.272e-4
-1.517, 3.355e-4
-1.518, 3.423e-4
-1.519, 3.479e-4
-1.520, 3.557e-4
-1.521, 3.638e-4
-1.522, 3.698e-4
-1.523, 3.770e-4
-1.524, 3.860e-4
-1.525, 3.927e-4
-1.526, 3.989e-4
-1.527, 4.083e-4
-1.528, 4.166e-4
-1.529, 4.226e-4
-1.530, 4.313e-4
-1.531, 4.406e-4
-1.532, 4.473e-4
-1.533, 4.549e-4
-1.534, 4.656e-4
-1.535, 4.734e-4
-1.536, 4.805e-4
-1.537, 4.912e-4
-1.538, 5.004e-4
-1.539, 5.074e-4
-1.540, 5.174e-4
-1.541, 5.277e-4
-1.542, 5.353e-4
-1.543, 5.444e-4
-1.544, 5.562e-4
-1.545, 5.651e-4
-1.546, 5.731e-4
-1.547, 5.848e-4
-1.548, 5.953e-4
-1.549, 6.030e-4
-1.550, 6.142e-4
-1.551, 6.262e-4
-1.552, 6.347e-4
-1.553, 6.446e-4
-1.554, 6.574e-4
-1.555, 6.676e-4
-1.556, 6.768e-4
-1.557, 6.897e-4
-1.558, 7.015e-4
-1.559, 7.103e-4
-1.560, 7.224e-4
-1.561, 7.358e-4
-1.562, 7.452e-4
-1.563, 7.562e-4
-1.564, 7.707e-4
-1.565, 7.820e-4
-1.566, 7.918e-4
-1.567, 8.065e-4
-1.568, 8.196e-4
-1.569, 8.296e-4
-1.570, 8.429e-4
-1.571, 8.577e-4
-1.572, 8.686e-4
-1.573, 8.805e-4
-1.574, 8.963e-4
-1.575, 9.087e-4
-1.576, 9.196e-4
-1.577, 9.354e-4
-1.578, 9.495e-4
-1.579, 9.601e-4
-1.580, 9.752e-4
-1.581, 9.909e-4
-1.582, 1.002e-3
-1.583, 1.016e-3
-1.584, 1.033e-3
-1.585, 1.047e-3
-1.586, 1.058e-3
-1.587, 1.076e-3
-1.588, 1.092e-3
-1.589, 1.103e-3
-1.590, 1.120e-3
-1.591, 1.138e-3
-1.592, 1.150e-3
-1.593, 1.165e-3
-1.594, 1.183e-3
-1.595, 1.197e-3
-1.596, 1.210e-3
-1.597, 1.228e-3
-1.598, 1.245e-3
-1.599, 1.258e-3
-1.600, 1.276e-3
-1.601, 1.296e-3
-1.602, 1.310e-3
-1.603, 1.326e-3
-1.604, 1.347e-3
-1.605, 1.363e-3
-1.606, 1.378e-3
-1.607, 1.398e-3
-1.608, 1.417e-3
-1.609, 1.430e-3
-1.610, 1.449e-3
-1.611, 1.469e-3
-1.612, 1.485e-3
-1.613, 1.502e-3
-1.614, 1.526e-3
-1.615, 1.543e-3
-1.616, 1.559e-3
-1.617, 1.582e-3
-1.618, 1.603e-3
-1.619, 1.618e-3
-1.620, 1.640e-3
-1.621, 1.663e-3
-1.622, 1.680e-3
-1.623, 1.699e-3
-1.624, 1.723e-3
-1.625, 1.743e-3
-1.626, 1.760e-3
-1.627, 1.785e-3
-1.628, 1.808e-3
-1.629, 1.825e-3
-1.630, 1.848e-3
-1.631, 1.873e-3
-1.632, 1.893e-3
-1.633, 1.913e-3
-1.634, 1.940e-3
-1.635, 1.961e-3
-1.636, 1.981e-3
-1.637, 2.007e-3
-1.638, 2.032e-3
-1.639, 2.052e-3
-1.640, 2.078e-3
-1.641, 2.106e-3
-1.642, 2.126e-3
-1.643, 2.150e-3
-1.644, 2.179e-3
-1.645, 2.203e-3
-1.646, 2.224e-3
-1.647, 2.254e-3
-1.648, 2.281e-3
-1.649, 2.302e-3
-1.650, 2.330e-3
-1.651, 2.360e-3
-1.652, 2.383e-3
-1.653, 2.409e-3
-1.654, 2.441e-3
-1.655, 2.465e-3
-1.656, 2.488e-3
-1.657, 2.521e-3
-1.658, 2.551e-3
-1.659, 2.575e-3
-1.660, 2.607e-3
-1.661, 2.639e-3
-1.662, 2.663e-3
-1.663, 2.691e-3
-1.664, 2.726e-3
-1.665, 2.753e-3
-1.666, 2.780e-3
-1.667, 2.814e-3
-1.668, 2.846e-3
-1.669, 2.872e-3
-1.670, 2.906e-3
-1.671, 2.943e-3
-1.672, 2.971e-3
-1.673, 3.001e-3
-1.674, 3.039e-3
-1.675, 3.072e-3
-1.676, 3.101e-3
-1.677, 3.140e-3
-1.678, 3.176e-3
-1.679, 3.205e-3
-1.680, 3.243e-3
-1.681, 3.282e-3
-1.682, 3.313e-3
-1.683, 3.347e-3
-1.684, 3.389e-3
-1.685, 3.422e-3
-1.686, 3.454e-3
-1.687, 3.497e-3
-1.688, 3.535e-3
-1.689, 3.567e-3
-1.690, 3.608e-3
-1.691, 3.651e-3
-1.692, 3.685e-3
-1.693, 3.723e-3
-1.694, 3.770e-3
-1.695, 3.809e-3
-1.696, 3.844e-3
-1.697, 3.890e-3
-1.698, 3.933e-3
-1.699, 3.968e-3
-1.700, 4.012e-3
-1.701, 4.058e-3
-1.702, 4.095e-3
-1.703, 4.135e-3
-1.704, 4.186e-3
-1.705, 4.228e-3
-1.706, 4.266e-3
-1.707, 4.318e-3
-1.708, 4.364e-3
-1.709, 4.401e-3
-1.710, 4.449e-3
-1.711, 4.500e-3
-1.712, 4.541e-3
-1.713, 4.585e-3
-1.714, 4.640e-3
-1.715, 4.688e-3
-1.716, 4.730e-3
-1.717, 4.785e-3
-1.718, 4.835e-3
-1.719, 4.876e-3
-1.720, 4.927e-3
-1.721, 4.982e-3
-1.722, 5.025e-3
-1.723, 5.073e-3
-1.724, 5.133e-3
-1.725, 5.182e-3
-1.726, 5.227e-3
-1.727, 5.285e-3
-1.728, 5.339e-3
-1.729, 5.384e-3
-1.730, 5.440e-3
-1.731, 5.500e-3
-1.732, 5.549e-3
-1.733, 5.600e-3
-1.734, 5.661e-3
-1.735, 5.713e-3
-1.736, 5.762e-3
-1.737, 5.829e-3
-1.738, 5.891e-3
-1.739, 5.939e-3
-1.740, 5.998e-3
-1.741, 6.060e-3
-1.742, 6.112e-3
-1.743, 6.167e-3
-1.744, 6.235e-3
-1.745, 6.292e-3
-1.746, 6.349e-3
-1.747, 6.416e-3
-1.748, 6.474e-3
-1.749, 6.524e-3
-1.750, 6.590e-3
-1.751, 6.656e-3
-1.752, 6.708e-3
-1.753, 6.767e-3
-1.754, 6.836e-3
-1.755, 6.894e-3
-1.756, 6.948e-3
-1.757, 7.016e-3
-1.758, 7.080e-3
-1.759, 7.134e-3
-1.760, 7.201e-3
-1.761, 7.272e-3
-1.762, 7.331e-3
-1.763, 7.397e-3
-1.764, 7.469e-3
-1.765, 7.528e-3
-1.766, 7.584e-3
-1.767, 7.664e-3
-1.768, 7.732e-3
-1.769, 7.785e-3
-1.770, 7.853e-3
-1.771, 7.928e-3
-1.772, 7.988e-3
-1.773, 8.054e-3
-1.774, 8.129e-3
-1.775, 8.195e-3
-1.776, 8.263e-3
-1.777, 8.338e-3
-1.778, 8.411e-3
-1.779, 8.473e-3
-1.780, 8.546e-3
-1.781, 8.623e-3
-1.782, 8.690e-3
-1.783, 8.760e-3
-1.784, 8.839e-3
-1.785, 8.906e-3
-1.786, 8.966e-3
-1.787, 9.046e-3
-1.788, 9.135e-3
-1.789, 9.197e-3
-1.790, 9.272e-3
-1.791, 9.351e-3
-1.792, 9.415e-3
-1.793, 9.483e-3
-1.794, 9.572e-3
-1.795, 9.642e-3
-1.796, 9.706e-3
-1.797, 9.792e-3
-1.798, 9.866e-3
-1.799, 9.932e-3
-1.800, 9.954e-3
-1.799, 9.914e-3
-1.798, 9.864e-3
-1.797, 9.813e-3
-1.796, 9.769e-3
-1.795, 9.721e-3
-1.794, 9.664e-3
-1.793, 9.615e-3
-1.792, 9.563e-3
-1.791, 9.497e-3
-1.790, 9.446e-3
-1.789, 9.394e-3
-1.788, 9.330e-3
-1.787, 9.273e-3
-1.786, 9.235e-3
-1.785, 9.175e-3
-1.784, 9.109e-3
-1.783, 9.065e-3
-1.782, 9.009e-3
-1.781, 8.953e-3
-1.780, 8.897e-3
-1.779, 8.846e-3
-1.778, 8.780e-3
-1.777, 8.721e-3
-1.776, 8.672e-3
-1.775, 8.610e-3
-1.774, 8.545e-3
-1.773, 8.497e-3
-1.772, 8.441e-3
-1.771, 8.372e-3
-1.770, 8.320e-3
-1.769, 8.270e-3
-1.768, 8.204e-3
-1.767, 8.151e-3
-1.766, 8.106e-3
-1.765, 8.045e-3
-1.764, 7.980e-3
-1.763, 7.933e-3
-1.762, 7.879e-3
-1.761, 7.819e-3
-1.760, 7.779e-3
-1.759, 7.734e-3
-1.758, 7.681e-3
-1.757, 7.636e-3
-1.756, 7.588e-3
-1.755, 7.528e-3
-1.754, 7.468e-3
-1.753, 7.419e-3
-1.752, 7.363e-3
-1.751, 7.298e-3
-1.750, 7.252e-3
-1.749, 7.211e-3
-1.748, 7.145e-3
-1.747, 7.085e-3
-1.746, 7.037e-3
-1.745, 6.978e-3
-1.744, 6.915e-3
-1.743, 6.868e-3
-1.742, 6.815e-3
-1.741, 6.754e-3
-1.740, 6.705e-3
-1.739, 6.662e-3
-1.738, 6.607e-3
-1.737, 6.552e-3
-1.736, 6.509e-3
-1.735, 6.454e-3
-1.734, 6.394e-3
-1.733, 6.348e-3
-1.732, 6.295e-3
-1.731, 6.234e-3
-1.730, 6.185e-3
-1.729, 6.139e-3
-1.728, 6.084e-3
-1.727, 6.035e-3
-1.726, 5.990e-3
-1.725, 5.954e-3
-1.724, 5.901e-3
-1.723, 5.854e-3
-1.722, 5.805e-3
-1.721, 5.745e-3
-1.720, 5.698e-3
-1.719, 5.654e-3
-1.718, 5.597e-3
-1.717, 5.547e-3
-1.716, 5.508e-3
-1.715, 5.455e-3
-1.714, 5.403e-3
-1.713, 5.364e-3
-1.712, 5.317e-3
-1.711, 5.268e-3
-1.710, 5.237e-3
-1.709, 5.182e-3
-1.708, 5.125e-3
-1.707, 5.075e-3
-1.706, 5.037e-3
-1.705, 4.985e-3
-1.704, 4.935e-3
-1.703, 4.894e-3
-1.702, 4.851e-3
-1.701, 4.797e-3
-1.700, 4.759e-3
-1.699, 4.718e-3
-1.698, 4.666e-3
-1.697, 4.622e-3
-1.696, 4.585e-3
-1.695, 4.542e-3
-1.694, 4.495e-3
-1.693, 4.458e-3
-1.692, 4.415e-3
-1.691, 4.366e-3
-1.690, 4.326e-3
-1.689, 4.296e-3
-1.688, 4.247e-3
-1.687, 4.200e-3
-1.686, 4.161e-3
-1.685, 4.119e-3
-1.684, 4.073e-3
-1.683, 4.036e-3
-1.682, 3.996e-3
-1.681, 3.947e-3
-1.680, 3.911e-3
-1.679, 3.874e-3
-1.678, 3.828e-3
-1.677, 3.786e-3
-1.676, 3.752e-3
-1.675, 3.711e-3
-1.674, 3.666e-3
-1.673, 3.631e-3
-1.672, 3.594e-3
-1.671, 3.550e-3
-1.670, 3.514e-3
-1.669, 3.479e-3
-1.668, 3.436e-3
-1.667, 3.398e-3
-1.666, 3.366e-3
-1.665, 3.326e-3
-1.664, 3.286e-3
-1.663, 3.252e-3
-1.662, 3.216e-3
-1.661, 3.173e-3
-1.660, 3.139e-3
-1.659, 3.108e-3
-1.658, 3.067e-3
-1.657, 3.030e-3
-1.656, 3.000e-3
-1.655, 2.964e-3
-1.654, 2.925e-3
-1.653, 2.895e-3
-1.652, 2.862e-3
-1.651, 2.822e-3
-1.650, 2.791e-3
-1.649, 2.762e-3
-1.648, 2.724e-3
-1.647, 2.690e-3
-1.646, 2.664e-3
-1.645, 2.628e-3
-1.644, 2.593e-3
-1.643, 2.565e-3
-1.642, 2.534e-3
-1.641, 2.497e-3
-1.640, 2.471e-3
-1.639, 2.441e-3
-1.638, 2.405e-3
-1.637, 2.373e-3
-1.636, 2.349e-3
-1.635, 2.316e-3
-1.634, 2.283e-3
-1.633, 2.259e-3
-1.632, 2.230e-3
-1.631, 2.197e-3
-1.630, 2.170e-3
-1.629, 2.145e-3
-1.628, 2.114e-3
-1.627, 2.085e-3
-1.626, 2.062e-3
-1.625, 2.032e-3
-1.624, 2.002e-3
-1.623, 1.981e-3
-1.622, 1.955e-3
-1.621, 1.926e-3
-1.620, 1.905e-3
-1.619, 1.880e-3
-1.618, 1.851e-3
-1.617, 1.825e-3
-1.616, 1.807e-3
-1.615, 1.778e-3
-1.614, 1.750e-3
-1.613, 1.730e-3
-1.612, 1.706e-3
-1.611, 1.679e-3
-1.610, 1.657e-3
-1.609, 1.636e-3
-1.608, 1.610e-3
-1.607, 1.586e-3
-1.606, 1.567e-3
-1.605, 1.542e-3
-1.604, 1.518e-3
-1.603, 1.498e-3
-1.602, 1.477e-3
-1.601, 1.451e-3
-1.600, 1.432e-3
-1.599, 1.412e-3
-1.598, 1.388e-3
-1.597, 1.367e-3
-1.596, 1.349e-3
-1.595, 1.327e-3
-1.594, 1.305e-3
-1.593, 1.287e-3
-1.592, 1.268e-3
-1.591, 1.244e-3
-1.590, 1.227e-3
-1.589, 1.210e-3
-1.588, 1.189e-3
-1.587, 1.170e-3
-1.586, 1.155e-3
-1.585, 1.135e-3
-1.584, 1.114e-3
-1.583, 1.099e-3
-1.582, 1.082e-3
-1.581, 1.062e-3
-1.580, 1.046e-3
-1.579, 1.031e-3
-1.578, 1.013e-3
-1.577, 9.946e-4
-1.576, 9.796e-4
-1.575, 9.621e-4
-1.574, 9.449e-4
-1.573, 9.329e-4
-1.572, 9.173e-4
-1.571, 8.993e-4
-1.570, 8.859e-4
-1.569, 8.723e-4
-1.568, 8.551e-4
-1.567, 8.404e-4
-1.566, 8.279e-4
-1.565, 8.121e-4
-1.564, 7.963e-4
-1.563, 7.843e-4
-1.562, 7.706e-4
-1.561, 7.540e-4
-1.560, 7.418e-4
-1.559, 7.299e-4
-1.558, 7.144e-4
-1.557, 7.015e-4
-1.556, 6.907e-4
-1.555, 6.766e-4
-1.554, 6.623e-4
-1.553, 6.525e-4
-1.552, 6.406e-4
-1.551, 6.266e-4
-1.550, 6.160e-4
-1.549, 6.050e-4
-1.548, 5.920e-4
-1.547, 5.807e-4
-1.546, 5.713e-4
-1.545, 5.591e-4
-1.544, 5.470e-4
-1.543, 5.383e-4
-1.542, 5.277e-4
-1.541, 5.152e-4
-1.540, 5.065e-4
-1.539, 4.971e-4
-1.538, 4.856e-4
-1.537, 4.755e-4
-1.536, 4.676e-4
-1.535, 4.568e-4
-1.534, 4.464e-4
-1.533, 4.393e-4
-1.532, 4.297e-4
-1.531, 4.196e-4
-1.530, 4.118e-4
-1.529, 4.038e-4
-1.528, 3.941e-4
-1.527, 3.862e-4
-1.526, 3.792e-4
-1.525, 3.702e-4
-1.524, 3.613e-4
-1.523, 3.553e-4
-1.522, 3.474e-4
-1.521, 3.381e-4
-1.520, 3.318e-4
-1.519, 3.251e-4
-1.518, 3.168e-4
-1.517, 3.099e-4
-1.516, 3.043e-4
-1.515, 2.969e-4
-1.514, 2.896e-4
-1.513, 2.844e-4
-1.512, 2.778e-4
-1.511, 2.700e-4
-1.510, 2.648e-4
-1.509, 2.593e-4
-1.508, 2.527e-4
-1.507, 2.468e-4
-1.506, 2.423e-4
-1.505, 2.360e-4
-1.504, 2.303e-4
-1.503, 2.261e-4
-1.502, 2.205e-4
-1.501, 2.143e-4
-1.500, 2.102e-4
-1.499, 2.056e-4
-1.498, 2.000e-4
-1.497, 1.955e-4
-1.496, 1.919e-4
-1.495, 1.865e-4
-1.494, 1.815e-4
-1.493, 1.781e-4
-1.492, 1.735e-4
-1.491, 1.687e-4
-1.490, 1.657e-4
-1.489, 1.616e-4
-1.488, 1.568e-4
-1.487, 1.535e-4
-1.486, 1.501e-4
-1.485, 1.458e-4
-1.484, 1.419e-4
-1.483, 1.396e-4
-1.482, 1.357e-4
-1.481, 1.314e-4
-1.480, 1.290e-4
-1.479, 1.257e-4
-1.478, 1.221e-4
-1.477, 1.194e-4
-1.476, 1.168e-4
-1.475, 1.134e-4
-1.474, 1.103e-4
-1.473, 1.084e-4
-1.472, 1.054e-4
-1.471, 1.018e-4
-1.470, 1.001e-4
-1.469, 9.762e-5
-1.468, 9.462e-5
-1.467, 9.250e-5
-1.466, 9.069e-5
-1.465, 8.764e-5
-1.464, 8.527e-5
-1.463, 8.384e-5
-1.462, 8.129e-5
-1.461, 7.851e-5
-1.460, 7.715e-5
-1.459, 7.509e-5
-1.458, 7.273e-5
-1.457, 7.128e-5
-1.456, 6.965e-5
-1.455, 6.726e-5
-1.454, 6.536e-5
-1.453, 6.415e-5
-1.452, 6.253e-5
-1.451, 6.024e-5
-1.450, 5.938e-5
-1.449, 5.749e-5
-1.448, 5.591e-5
-1.447, 5.421e-5
-1.446, 5.317e-5
-1.445, 5.149e-5
-1.444, 4.960e-5
-1.443, 4.926e-5
-1.442, 4.736e-5
-1.441, 4.548e-5
-1.440, 4.495e-5
-1.439, 4.364e-5
-1.438, 4.211e-5
-1.437, 4.132e-5
-1.436, 4.019e-5
-1.435, 3.878e-5
-1.434, 3.765e-5
-1.433, 3.739e-5
-1.432, 3.562e-5
-1.431, 3.411e-5
-1.430, 3.385e-5
-1.429, 3.294e-5
-1.428, 3.153e-5
-1.427, 3.087e-5
-1.426, 3.021e-5
-1.425, 2.911e-5
-1.424, 2.791e-5
-1.423, 2.777e-5
-1.422, 2.657e-5
-1.421, 2.557e-5
-1.420, 2.523e-5
-1.419, 2.441e-5
-1.418, 2.342e-5
-1.417, 2.296e-5
-1.416, 2.249e-5
-1.415, 2.122e-5
-1.414, 2.071e-5
-1.413, 2.058e-5
-1.412, 1.962e-5
-1.411, 1.879e-5
-1.410, 1.875e-5
-1.409, 1.794e-5
-1.408, 1.705e-5
-1.407, 1.687e-5
-1.406, 1.633e-5
-1.405, 1.546e-5
-1.404, 1.487e-5
-1.403, 1.487e-5
-1.402, 1.418e-5
-1.401, 1.327e-5
-1.400, 1.343e-5
-1.399, 1.290e-5
-1.398, 1.192e-5
-1.397, 1.197e-5
-1.396, 1.141e-5
-1.395, 1.081e-5
-1.394, 1.048e-5
-1.393, 1.058e-5
-1.392, 9.834e-6
-1.391, 9.134e-6
-1.390, 9.282e-6
-1.389, 8.808e-6
-1.388, 8.206e-6
-1.387, 8.187e-6
-1.386, 8.157e-6
-1.385, 7.388e-6
-1.384, 6.904e-6
-1.383, 7.447e-6
-1.382, 6.608e-6
-1.381, 6.125e-6
-1.380, 6.204e-6
-1.379, 5.602e-6
-1.378, 5.336e-6
-1.377, 5.306e-6
-1.376, 5.286e-6
-1.375, 4.625e-6
-1.374, 4.398e-6
-1.373, 4.605e-6
-1.372, 3.885e-6
-1.371, 3.609e-6
-1.370, 4.013e-6
-1.369, 3.204e-6
-1.368, 3.076e-6
-1.367, 3.185e-6
-1.366, 3.106e-6
-1.365, 2.514e-6
-1.364, 2.455e-6
-1.363, 2.474e-6
-1.362, 2.050e-6
-1.361, 1.734e-6
-1.360, 2.099e-6
-1.359, 1.636e-6
-1.358, 1.221e-6
-1.357, 1.478e-6
-1.356, 1.172e-6
-1.355, 7.380e-7
-1.354, 5.111e-7
-1.353, 1.123e-6
-1.352, 4.617e-7
-1.351, 2.348e-7
-1.350, 8.169e-7
-1.349, 3.927e-7
-1.348, -2.171e-8
-1.347, 2.052e-7
-1.346, 4.736e-8
-1.345, -3.769e-7
-1.344, -6.038e-7
-1.343, -5.130e-8
-1.342, -6.038e-7
-1.341, -8.702e-7
-1.340, -5.150e-7
-1.339, -7.814e-7
-1.338, -1.294e-6
-1.337, -1.018e-6
-1.336, -9.491e-7
-1.335, -1.334e-6
-1.334, -1.344e-6
-1.333, -1.058e-6
-1.332, -1.354e-6
-1.331, -1.926e-6
-1.330, -1.334e-6
-1.329, -1.837e-6
-1.328, -1.886e-6
-1.327, -1.571e-6
-1.326, -1.581e-6
-1.325, -2.015e-6
-1.324, -2.133e-6
-1.323, -2.103e-6
-1.322, -1.975e-6
-1.321, -2.636e-6
-1.320, -2.143e-6
-1.319, -2.419e-6
-1.318, -2.557e-6
-1.317, -2.468e-6
-1.316, -2.409e-6
-1.315, -2.626e-6
-1.314, -2.715e-6
-1.313, -2.518e-6
-1.312, -2.863e-6
-1.311, -2.853e-6
-1.310, -2.547e-6
-1.309, -2.814e-6
-1.308, -2.972e-6
-1.307, -2.774e-6
-1.306, -2.991e-6
-1.305, -3.268e-6
-1.304, -3.159e-6
-1.303, -2.863e-6
-1.302, -3.129e-6
-1.301, -3.228e-6
-1.300, -3.021e-6
-1.299, -3.425e-6
-1.298, -3.435e-6
-1.297, -3.041e-6
-1.296, -3.258e-6
-1.295, -3.534e-6
-1.294, -3.396e-6
-1.293, -3.001e-6
-1.292, -3.514e-6
-1.291, -3.643e-6
-1.290, -3.169e-6
-1.289, -3.721e-6
-1.288, -3.771e-6
-1.287, -3.524e-6
-1.286, -3.583e-6
-1.285, -3.524e-6
-1.284, -3.860e-6
-1.283, -3.495e-6
-1.282, -3.603e-6
-1.281, -4.146e-6
-1.280, -3.623e-6
-1.279, -3.909e-6
-1.278, -4.116e-6
-1.277, -3.712e-6
-1.276, -3.731e-6
-1.275, -3.968e-6
-1.274, -3.958e-6
-1.273, -3.692e-6
-1.272, -3.899e-6
-1.271, -4.146e-6
-1.270, -3.948e-6
-1.269, -3.879e-6
-1.268, -4.205e-6
-1.267, -3.830e-6
-1.266, -3.958e-6
-1.265, -4.165e-6
-1.264, -4.156e-6
-1.263, -3.850e-6
-1.262, -4.244e-6
-1.261, -4.234e-6
-1.260, -3.800e-6
-1.259, -4.313e-6
-1.258, -4.244e-6
-1.257, -3.968e-6
-1.256, -3.879e-6
-1.255, -4.274e-6
-1.254, -4.442e-6
-1.253, -3.850e-6
-1.252, -4.343e-6
-1.251, -4.619e-6
-1.250, -4.037e-6
-1.249, -4.313e-6
-1.248, -4.560e-6
-1.247, -4.027e-6
-1.246, -4.215e-6
-1.245, -4.343e-6
-1.244, -4.481e-6
-1.243, -4.017e-6
-1.242, -4.343e-6
-1.241, -4.609e-6
-1.240, -3.998e-6
-1.239, -4.392e-6
-1.238, -4.412e-6
-1.237, -4.284e-6
-1.236, -4.096e-6
-1.235, -4.422e-6
-1.234, -4.649e-6
-1.233, -4.313e-6
-1.232, -4.471e-6
-1.231, -4.669e-6
-1.230, -4.116e-6
-1.229, -4.442e-6
-1.228, -4.363e-6
-1.227, -4.195e-6
-1.226, -4.392e-6
-1.225, -4.708e-6
-1.224, -4.738e-6
-1.223, -4.363e-6
-1.222, -4.659e-6
-1.221, -4.688e-6
-1.220, -4.304e-6
-1.219, -4.530e-6
-1.218, -4.659e-6
-1.217, -4.422e-6
-1.216, -4.540e-6
-1.215, -4.590e-6
-1.214, -4.678e-6
-1.213, -4.294e-6
-1.212, -4.629e-6
-1.211, -4.955e-6
-1.210, -4.234e-6
-1.209, -4.738e-6
-1.208, -4.846e-6
-1.207, -4.452e-6
-1.206, -4.619e-6
-1.205, -4.580e-6
-1.204, -4.491e-6
-1.203, -4.165e-6
-1.202, -4.412e-6
-1.201, -5.004e-6
-1.200, -4.442e-6
-1.199, -4.777e-6
-1.198, -5.004e-6
-1.197, -4.442e-6
-1.196, -4.550e-6
-1.195, -4.797e-6
-1.194, -4.590e-6
-1.193, -4.550e-6
-1.192, -4.669e-6
-1.191, -4.787e-6
-1.190, -4.452e-6
-1.189, -4.698e-6
-1.188, -4.511e-6
-1.187, -4.570e-6
-1.186, -4.866e-6
-1.185, -4.935e-6
-1.184, -4.965e-6
-1.183, -4.382e-6
-1.182, -4.747e-6
-1.181, -4.886e-6
-1.180, -4.521e-6
-1.179, -4.777e-6
-1.178, -4.866e-6
-1.177, -4.521e-6
-1.176, -4.945e-6
-1.175, -4.876e-6
-1.174, -4.905e-6
-1.173, -4.422e-6
-1.172, -4.856e-6
-1.171, -5.024e-6
-1.170, -4.659e-6
-1.169, -4.945e-6
-1.168, -4.945e-6
-1.167, -4.629e-6
-1.166, -4.609e-6
-1.165, -4.797e-6
-1.164, -4.708e-6
-1.163, -4.600e-6
-1.162, -4.609e-6
-1.161, -5.034e-6
-1.160, -4.530e-6
-1.159, -4.777e-6
-1.158, -4.925e-6
-1.157, -4.540e-6
-1.156, -4.738e-6
-1.155, -4.895e-6
-1.154, -4.797e-6
-1.153, -4.649e-6
-1.152, -5.103e-6
-1.151, -5.093e-6
-1.150, -4.382e-6
-1.149, -4.797e-6
-1.148, -4.915e-6
-1.147, -4.718e-6
-1.146, -4.718e-6
-1.145, -5.182e-6
-1.144, -4.965e-6
-1.143, -4.491e-6
-1.142, -4.846e-6
-1.141, -4.974e-6
-1.140, -4.688e-6
-1.139, -4.807e-6
-1.138, -5.270e-6
-1.137, -4.757e-6
-1.136, -4.935e-6
-1.135, -5.280e-6
-1.134, -4.866e-6
-1.133, -4.550e-6
-1.132, -4.955e-6
-1.131, -5.093e-6
-1.130, -4.836e-6
-1.129, -5.093e-6
-1.128, -5.063e-6
-1.127, -4.807e-6
-1.126, -4.866e-6
-1.125, -5.280e-6
-1.124, -4.965e-6
-1.123, -4.669e-6
-1.122, -5.211e-6
-1.121, -5.251e-6
-1.120, -4.698e-6
-1.119, -5.014e-6
-1.118, -4.866e-6
-1.117, -4.836e-6
-1.116, -4.787e-6
-1.115, -5.034e-6
-1.114, -5.162e-6
-1.113, -4.777e-6
-1.112, -4.866e-6
-1.111, -5.152e-6
-1.110, -4.767e-6
-1.109, -5.103e-6
-1.108, -4.984e-6
-1.107, -4.836e-6
-1.106, -4.895e-6
-1.105, -5.083e-6
-1.104, -5.014e-6
-1.103, -4.698e-6
-1.102, -5.221e-6
-1.101, -5.280e-6
-1.100, -4.767e-6
-1.099, -4.965e-6
-1.098, -5.251e-6
-1.097, -4.777e-6
-1.096, -5.043e-6
-1.095, -5.093e-6
-1.094, -5.241e-6
-1.093, -4.639e-6
-1.092, -5.132e-6
-1.091, -5.172e-6
-1.090, -4.905e-6
-1.089, -5.043e-6
-1.088, -5.182e-6
-1.087, -5.093e-6
-1.086, -5.103e-6
-1.085, -5.221e-6
-1.084, -5.122e-6
-1.083, -4.955e-6
-1.082, -5.083e-6
-1.081, -5.182e-6
-1.080, -4.915e-6
-1.079, -5.063e-6
-1.078, -5.231e-6
-1.077, -4.767e-6
-1.076, -5.191e-6
-1.075, -5.310e-6
-1.074, -5.339e-6
-1.073, -5.043e-6
-1.072, -5.330e-6
-1.071, -5.409e-6
-1.070, -4.856e-6
-1.069, -5.152e-6
-1.068, -5.349e-6
-1.067, -4.935e-6
-1.066, -5.221e-6
-1.065, -5.261e-6
-1.064, -5.339e-6
-1.063, -4.886e-6
-1.062, -5.369e-6
-1.061, -5.478e-6
-1.060, -4.945e-6
-1.059, -5.310e-6
-1.058, -5.409e-6
-1.057, -5.103e-6
-1.056, -5.310e-6
-1.055, -5.517e-6
-1.054, -5.310e-6
-1.053, -4.895e-6
-1.052, -5.142e-6
-1.051, -5.458e-6
-1.050, -5.221e-6
-1.049, -5.507e-6
-1.048, -5.576e-6
-1.047, -4.807e-6
-1.046, -5.221e-6
-1.045, -5.241e-6
-1.044, -5.399e-6
-1.043, -5.073e-6
-1.042, -5.655e-6
-1.041, -5.557e-6
-1.040, -5.142e-6
-1.039, -5.290e-6
-1.038, -5.576e-6
-1.037, -5.172e-6
-1.036, -5.300e-6
-1.035, -5.675e-6
-1.034, -5.616e-6
-1.033, -5.103e-6
-1.032, -5.497e-6
-1.031, -5.774e-6
-1.030, -5.191e-6
-1.029, -5.280e-6
-1.028, -5.645e-6
-1.027, -5.241e-6
-1.026, -5.438e-6
-1.025, -5.478e-6
-1.024, -5.586e-6
-1.023, -5.300e-6
-1.022, -5.655e-6
-1.021, -5.537e-6
-1.020, -5.132e-6
-1.019, -5.507e-6
-1.018, -5.912e-6
-1.017, -5.497e-6
-1.016, -5.635e-6
-1.015, -5.557e-6
-1.014, -5.616e-6
-1.013, -5.132e-6
-1.012, -5.695e-6
-1.011, -5.774e-6
-1.010, -5.458e-6
-1.009, -5.803e-6
-1.008, -5.902e-6
-1.007, -5.409e-6
-1.006, -5.724e-6
-1.005, -5.813e-6
-1.004, -6.050e-6
-1.003, -5.428e-6
-1.002, -5.704e-6
-1.001, -5.843e-6
