Mar. 8, 2025   15:48:16
Cyclic Voltammetry
File: c:/users/guazh/data/banditlqround7_x0exp169_r20_3/2025-03-03-exp910\exp910-2025-03-08t15_43_21-h2koh\exp910_cv_50mvs_efin_-1400mv.bin
Data Source:  Experiment
Instrument Model:  CHI760E
Header: CV ran at 50 mVs
Note: 

Init E (V) = -1
High E (V) = -1
Low E (V) = -1.4
Final E (V) = -1
Init P/N = N
Scan Rate (V/s) = 0.05
Segment = 7
Sample Interval (V) = 0.001
Quiet Time (sec) = 60
Sensitivity (A/V) = 0.001
Comp R (ohm) = 1.3

Results:

Channel 1:
Segment 1:
Ep = -1.135V
ip = 8.468e-5A
Ah = 7.524e-5C

Segment 2:

Segment 3:

Segment 4:

Segment 5:

Segment 6:

Segment 7:

Potential/V, Current/A

-1.000, 3.595e-5
-1.001, 9.231e-5
-1.002, 1.241e-4
-1.003, 1.447e-4
-1.004, 1.614e-4
-1.005, 1.747e-4
-1.006, 1.854e-4
-1.007, 1.941e-4
-1.008, 2.010e-4
-1.009, 2.080e-4
-1.010, 2.148e-4
-1.011, 2.211e-4
-1.012, 2.269e-4
-1.013, 2.312e-4
-1.014, 2.361e-4
-1.015, 2.408e-4
-1.016, 2.458e-4
-1.017, 2.498e-4
-1.018, 2.547e-4
-1.019, 2.589e-4
-1.020, 2.630e-4
-1.021, 2.673e-4
-1.022, 2.716e-4
-1.023, 2.754e-4
-1.024, 2.798e-4
-1.025, 2.847e-4
-1.026, 2.892e-4
-1.027, 2.920e-4
-1.028, 2.966e-4
-1.029, 3.001e-4
-1.030, 3.050e-4
-1.031, 3.102e-4
-1.032, 3.127e-4
-1.033, 3.161e-4
-1.034, 3.206e-4
-1.035, 3.255e-4
-1.036, 3.305e-4
-1.037, 3.348e-4
-1.038, 3.391e-4
-1.039, 3.438e-4
-1.040, 3.486e-4
-1.041, 3.536e-4
-1.042, 3.581e-4
-1.043, 3.622e-4
-1.044, 3.671e-4
-1.045, 3.721e-4
-1.046, 3.778e-4
-1.047, 3.831e-4
-1.048, 3.870e-4
-1.049, 3.926e-4
-1.050, 3.979e-4
-1.051, 4.023e-4
-1.052, 4.076e-4
-1.053, 4.120e-4
-1.054, 4.170e-4
-1.055, 4.225e-4
-1.056, 4.284e-4
-1.057, 4.341e-4
-1.058, 4.390e-4
-1.059, 4.440e-4
-1.060, 4.496e-4
-1.061, 4.549e-4
-1.062, 4.594e-4
-1.063, 4.641e-4
-1.064, 4.677e-4
-1.065, 4.741e-4
-1.066, 4.806e-4
-1.067, 4.846e-4
-1.068, 4.907e-4
-1.069, 4.958e-4
-1.070, 5.008e-4
-1.071, 5.071e-4
-1.072, 5.113e-4
-1.073, 5.149e-4
-1.074, 5.200e-4
-1.075, 5.253e-4
-1.076, 5.311e-4
-1.077, 5.349e-4
-1.078, 5.395e-4
-1.079, 5.453e-4
-1.080, 5.497e-4
-1.081, 5.545e-4
-1.082, 5.584e-4
-1.083, 5.620e-4
-1.084, 5.673e-4
-1.085, 5.734e-4
-1.086, 5.779e-4
-1.087, 5.824e-4
-1.088, 5.858e-4
-1.089, 5.912e-4
-1.090, 5.965e-4
-1.091, 6.006e-4
-1.092, 6.045e-4
-1.093, 6.088e-4
-1.094, 6.147e-4
-1.095, 6.185e-4
-1.096, 6.230e-4
-1.097, 6.290e-4
-1.098, 6.345e-4
-1.099, 6.407e-4
-1.100, 6.469e-4
-1.101, 6.514e-4
-1.102, 6.570e-4
-1.103, 6.636e-4
-1.104, 6.683e-4
-1.105, 6.744e-4
-1.106, 6.812e-4
-1.107, 6.886e-4
-1.108, 6.952e-4
-1.109, 7.018e-4
-1.110, 7.099e-4
-1.111, 7.186e-4
-1.112, 7.265e-4
-1.113, 7.331e-4
-1.114, 7.396e-4
-1.115, 7.488e-4
-1.116, 7.581e-4
-1.117, 7.655e-4
-1.118, 7.719e-4
-1.119, 7.792e-4
-1.120, 7.878e-4
-1.121, 7.964e-4
-1.122, 8.025e-4
-1.123, 8.087e-4
-1.124, 8.169e-4
-1.125, 8.242e-4
-1.126, 8.298e-4
-1.127, 8.323e-4
-1.128, 8.359e-4
-1.129, 8.415e-4
-1.130, 8.455e-4
-1.131, 8.480e-4
-1.132, 8.491e-4
-1.133, 8.479e-4
-1.134, 8.475e-4
-1.135, 8.492e-4
-1.136, 8.485e-4
-1.137, 8.463e-4
-1.138, 8.446e-4
-1.139, 8.407e-4
-1.140, 8.383e-4
-1.141, 8.350e-4
-1.142, 8.317e-4
-1.143, 8.261e-4
-1.144, 8.188e-4
-1.145, 8.156e-4
-1.146, 8.131e-4
-1.147, 8.090e-4
-1.148, 8.043e-4
-1.149, 7.986e-4
-1.150, 7.930e-4
-1.151, 7.908e-4
-1.152, 7.863e-4
-1.153, 7.814e-4
-1.154, 7.763e-4
-1.155, 7.713e-4
-1.156, 7.668e-4
-1.157, 7.640e-4
-1.158, 7.601e-4
-1.159, 7.554e-4
-1.160, 7.517e-4
-1.161, 7.472e-4
-1.162, 7.443e-4
-1.163, 7.413e-4
-1.164, 7.383e-4
-1.165, 7.349e-4
-1.166, 7.316e-4
-1.167, 7.280e-4
-1.168, 7.237e-4
-1.169, 7.216e-4
-1.170, 7.174e-4
-1.171, 7.161e-4
-1.172, 7.134e-4
-1.173, 7.107e-4
-1.174, 7.090e-4
-1.175, 7.077e-4
-1.176, 7.064e-4
-1.177, 7.050e-4
-1.178, 7.031e-4
-1.179, 7.009e-4
-1.180, 7.000e-4
-1.181, 6.977e-4
-1.182, 6.983e-4
-1.183, 6.979e-4
-1.184, 6.953e-4
-1.185, 6.934e-4
-1.186, 6.928e-4
-1.187, 6.917e-4
-1.188, 6.908e-4
-1.189, 6.896e-4
-1.190, 6.890e-4
-1.191, 6.878e-4
-1.192, 6.864e-4
-1.193, 6.881e-4
-1.194, 6.883e-4
-1.195, 6.870e-4
-1.196, 6.875e-4
-1.197, 6.872e-4
-1.198, 6.872e-4
-1.199, 6.882e-4
-1.200, 6.890e-4
-1.201, 6.905e-4
-1.202, 6.904e-4
-1.203, 6.903e-4
-1.204, 6.919e-4
-1.205, 6.922e-4
-1.206, 6.925e-4
-1.207, 6.930e-4
-1.208, 6.936e-4
-1.209, 6.946e-4
-1.210, 6.967e-4
-1.211, 6.980e-4
-1.212, 6.979e-4
-1.213, 6.976e-4
-1.214, 6.993e-4
-1.215, 7.015e-4
-1.216, 7.024e-4
-1.217, 7.037e-4
-1.218, 7.059e-4
-1.219, 7.073e-4
-1.220, 7.100e-4
-1.221, 7.113e-4
-1.222, 7.127e-4
-1.223, 7.153e-4
-1.224, 7.169e-4
-1.225, 7.184e-4
-1.226, 7.193e-4
-1.227, 7.217e-4
-1.228, 7.246e-4
-1.229, 7.283e-4
-1.230, 7.307e-4
-1.231, 7.334e-4
-1.232, 7.344e-4
-1.233, 7.365e-4
-1.234, 7.401e-4
-1.235, 7.432e-4
-1.236, 7.465e-4
-1.237, 7.473e-4
-1.238, 7.500e-4
-1.239, 7.551e-4
-1.240, 7.587e-4
-1.241, 7.628e-4
-1.242, 7.668e-4
-1.243, 7.696e-4
-1.244, 7.735e-4
-1.245, 7.783e-4
-1.246, 7.825e-4
-1.247, 7.854e-4
-1.248, 7.866e-4
-1.249, 7.911e-4
-1.250, 7.966e-4
-1.251, 8.026e-4
-1.252, 8.070e-4
-1.253, 8.112e-4
-1.254, 8.171e-4
-1.255, 8.217e-4
-1.256, 8.257e-4
-1.257, 8.315e-4
-1.258, 8.361e-4
-1.259, 8.410e-4
-1.260, 8.480e-4
-1.261, 8.547e-4
-1.262, 8.605e-4
-1.263, 8.668e-4
-1.264, 8.741e-4
-1.265, 8.820e-4
-1.266, 8.908e-4
-1.267, 9.003e-4
-1.268, 9.057e-4
-1.269, 9.135e-4
-1.270, 9.244e-4
-1.271, 9.344e-4
-1.272, 9.437e-4
-1.273, 9.542e-4
-1.274, 9.660e-4
-1.275, 9.798e-4
-1.276, 9.934e-4
-1.277, 1.008e-3
-1.278, 1.024e-3
-1.279, 1.042e-3
-1.280, 1.063e-3
-1.281, 1.084e-3
-1.282, 1.107e-3
-1.283, 1.133e-3
-1.284, 1.165e-3
-1.285, 1.198e-3
-1.286, 1.237e-3
-1.287, 1.282e-3
-1.288, 1.333e-3
-1.289, 1.389e-3
-1.290, 1.454e-3
-1.291, 1.529e-3
-1.292, 1.614e-3
-1.293, 1.708e-3
-1.294, 1.813e-3
-1.295, 1.924e-3
-1.296, 2.046e-3
-1.297, 2.178e-3
-1.298, 2.316e-3
-1.299, 2.455e-3
-1.300, 2.606e-3
-1.301, 2.759e-3
-1.302, 2.915e-3
-1.303, 3.077e-3
-1.304, 3.243e-3
-1.305, 3.413e-3
-1.306, 3.582e-3
-1.307, 3.746e-3
-1.308, 3.905e-3
-1.309, 4.064e-3
-1.310, 4.218e-3
-1.311, 4.365e-3
-1.312, 4.513e-3
-1.313, 4.631e-3
-1.314, 4.764e-3
-1.315, 4.902e-3
-1.316, 5.038e-3
-1.317, 5.163e-3
-1.318, 5.285e-3
-1.319, 5.415e-3
-1.320, 5.527e-3
-1.321, 5.646e-3
-1.322, 5.765e-3
-1.323, 5.867e-3
-1.324, 5.998e-3
-1.325, 6.090e-3
-1.326, 6.174e-3
-1.327, 6.259e-3
-1.328, 6.354e-3
-1.329, 6.451e-3
-1.330, 6.547e-3
-1.331, 6.624e-3
-1.332, 6.709e-3
-1.333, 6.807e-3
-1.334, 6.880e-3
-1.335, 6.961e-3
-1.336, 7.053e-3
-1.337, 7.135e-3
-1.338, 7.219e-3
-1.339, 7.309e-3
-1.340, 7.386e-3
-1.341, 7.469e-3
-1.342, 7.540e-3
-1.343, 7.616e-3
-1.344, 7.699e-3
-1.345, 7.760e-3
-1.346, 7.818e-3
-1.347, 7.878e-3
-1.348, 7.958e-3
-1.349, 8.058e-3
-1.350, 8.127e-3
-1.351, 8.191e-3
-1.352, 8.258e-3
-1.353, 8.337e-3
-1.354, 8.417e-3
-1.355, 8.497e-3
-1.356, 8.558e-3
-1.357, 8.618e-3
-1.358, 8.719e-3
-1.359, 8.774e-3
-1.360, 8.835e-3
-1.361, 8.903e-3
-1.362, 8.991e-3
-1.363, 9.062e-3
-1.364, 9.125e-3
-1.365, 9.212e-3
-1.366, 9.246e-3
-1.367, 9.335e-3
-1.368, 9.444e-3
-1.369, 9.542e-3
-1.370, 9.601e-3
-1.371, 9.636e-3
-1.372, 9.697e-3
-1.373, 9.772e-3
-1.374, 9.946e-3
-1.375, 1.006e-2
-1.376, 1.011e-2
-1.377, 1.011e-2
-1.378, 1.011e-2
-1.379, 1.011e-2
-1.380, 1.011e-2
-1.381, 1.011e-2
-1.382, 1.011e-2
-1.383, 1.011e-2
-1.384, 1.011e-2
-1.385, 1.011e-2
-1.386, 1.011e-2
-1.387, 1.011e-2
-1.388, 1.011e-2
-1.389, 1.011e-2
-1.390, 1.011e-2
-1.391, 1.011e-2
-1.392, 1.011e-2
-1.393, 1.011e-2
-1.394, 1.011e-2
-1.395, 1.011e-2
-1.396, 1.011e-2
-1.397, 1.011e-2
-1.398, 1.011e-2
-1.399, 1.011e-2
-1.400, 1.011e-2
-1.399, 1.011e-2
-1.398, 1.011e-2
-1.397, 1.011e-2
-1.396, 1.011e-2
-1.395, 1.011e-2
-1.394, 1.011e-2
-1.393, 1.011e-2
-1.392, 1.011e-2
-1.391, 1.011e-2
-1.390, 1.011e-2
-1.389, 1.011e-2
-1.388, 1.011e-2
-1.387, 1.011e-2
-1.386, 1.011e-2
-1.385, 1.011e-2
-1.384, 1.011e-2
-1.383, 1.011e-2
-1.382, 1.011e-2
-1.381, 1.011e-2
-1.380, 1.011e-2
-1.379, 1.011e-2
-1.378, 1.011e-2
-1.377, 1.009e-2
-1.376, 1.003e-2
-1.375, 1.003e-2
-1.374, 9.907e-3
-1.373, 9.772e-3
-1.372, 9.644e-3
-1.371, 9.517e-3
-1.370, 9.493e-3
-1.369, 9.473e-3
-1.368, 9.345e-3
-1.367, 9.238e-3
-1.366, 9.126e-3
-1.365, 9.021e-3
-1.364, 8.948e-3
-1.363, 8.857e-3
-1.362, 8.778e-3
-1.361, 8.723e-3
-1.360, 8.602e-3
-1.359, 8.491e-3
-1.358, 8.410e-3
-1.357, 8.347e-3
-1.356, 8.264e-3
-1.355, 8.176e-3
-1.354, 8.084e-3
-1.353, 8.008e-3
-1.352, 7.930e-3
-1.351, 7.878e-3
-1.350, 7.886e-3
-1.349, 7.836e-3
-1.348, 7.704e-3
-1.347, 7.725e-3
-1.346, 7.656e-3
-1.345, 7.550e-3
-1.344, 7.375e-3
-1.343, 7.308e-3
-1.342, 7.295e-3
-1.341, 7.137e-3
-1.340, 7.085e-3
-1.339, 7.015e-3
-1.338, 6.983e-3
-1.337, 6.891e-3
-1.336, 6.829e-3
-1.335, 6.706e-3
-1.334, 6.626e-3
-1.333, 6.550e-3
-1.332, 6.450e-3
-1.331, 6.367e-3
-1.330, 6.340e-3
-1.329, 6.278e-3
-1.328, 6.156e-3
-1.327, 6.111e-3
-1.326, 6.031e-3
-1.325, 5.914e-3
-1.324, 5.834e-3
-1.323, 5.755e-3
-1.322, 5.688e-3
-1.321, 5.616e-3
-1.320, 5.567e-3
-1.319, 5.493e-3
-1.318, 5.423e-3
-1.317, 5.339e-3
-1.316, 5.274e-3
-1.315, 5.244e-3
-1.314, 5.147e-3
-1.313, 5.083e-3
-1.312, 4.999e-3
-1.311, 4.975e-3
-1.310, 4.919e-3
-1.309, 4.830e-3
-1.308, 4.764e-3
-1.307, 4.698e-3
-1.306, 4.626e-3
-1.305, 4.563e-3
-1.304, 4.496e-3
-1.303, 4.438e-3
-1.302, 4.398e-3
-1.301, 4.323e-3
-1.300, 4.310e-3
-1.299, 4.206e-3
-1.298, 4.134e-3
-1.297, 4.077e-3
-1.296, 4.008e-3
-1.295, 4.014e-3
-1.294, 3.907e-3
-1.293, 3.890e-3
-1.292, 3.853e-3
-1.291, 3.759e-3
-1.290, 3.686e-3
-1.289, 3.616e-3
-1.288, 3.558e-3
-1.287, 3.473e-3
-1.286, 3.408e-3
-1.285, 3.360e-3
-1.284, 3.312e-3
-1.283, 3.254e-3
-1.282, 3.191e-3
-1.281, 3.122e-3
-1.280, 3.039e-3
-1.279, 3.003e-3
-1.278, 2.956e-3
-1.277, 2.914e-3
-1.276, 2.852e-3
-1.275, 2.795e-3
-1.274, 2.719e-3
-1.273, 2.669e-3
-1.272, 2.614e-3
-1.271, 2.561e-3
-1.270, 2.521e-3
-1.269, 2.467e-3
-1.268, 2.418e-3
-1.267, 2.373e-3
-1.266, 2.356e-3
-1.265, 2.279e-3
-1.264, 2.235e-3
-1.263, 2.203e-3
-1.262, 2.194e-3
-1.261, 2.147e-3
-1.260, 2.086e-3
-1.259, 2.021e-3
-1.258, 1.963e-3
-1.257, 1.904e-3
-1.256, 1.860e-3
-1.255, 1.832e-3
-1.254, 1.790e-3
-1.253, 1.756e-3
-1.252, 1.707e-3
-1.251, 1.656e-3
-1.250, 1.610e-3
-1.249, 1.567e-3
-1.248, 1.529e-3
-1.247, 1.485e-3
-1.246, 1.455e-3
-1.245, 1.419e-3
-1.244, 1.379e-3
-1.243, 1.345e-3
-1.242, 1.292e-3
-1.241, 1.247e-3
-1.240, 1.212e-3
-1.239, 1.173e-3
-1.238, 1.145e-3
-1.237, 1.114e-3
-1.236, 1.087e-3
-1.235, 1.045e-3
-1.234, 1.009e-3
-1.233, 9.747e-4
-1.232, 9.393e-4
-1.231, 9.105e-4
-1.230, 8.836e-4
-1.229, 8.573e-4
-1.228, 8.460e-4
-1.227, 8.142e-4
-1.226, 7.771e-4
-1.225, 7.398e-4
-1.224, 7.214e-4
-1.223, 6.878e-4
-1.222, 6.623e-4
-1.221, 6.422e-4
-1.220, 6.200e-4
-1.219, 5.925e-4
-1.218, 5.700e-4
-1.217, 5.407e-4
-1.216, 5.191e-4
-1.215, 4.938e-4
-1.214, 4.698e-4
-1.213, 4.510e-4
-1.212, 4.268e-4
-1.211, 4.094e-4
-1.210, 3.884e-4
-1.209, 3.648e-4
-1.208, 3.446e-4
-1.207, 3.308e-4
-1.206, 3.101e-4
-1.205, 2.863e-4
-1.204, 2.703e-4
-1.203, 2.536e-4
-1.202, 2.374e-4
-1.201, 2.203e-4
-1.200, 2.083e-4
-1.199, 1.943e-4
-1.198, 1.748e-4
-1.197, 1.585e-4
-1.196, 1.455e-4
-1.195, 1.339e-4
-1.194, 1.209e-4
-1.193, 1.084e-4
-1.192, 9.460e-5
-1.191, 8.181e-5
-1.190, 7.099e-5
-1.189, 5.799e-5
-1.188, 4.421e-5
-1.187, 3.165e-5
-1.186, 2.182e-5
-1.185, 1.109e-5
-1.184, 8.641e-7
-1.183, -9.859e-6
-1.182, -1.968e-5
-1.181, -2.871e-5
-1.180, -3.729e-5
-1.179, -4.587e-5
-1.178, -5.604e-5
-1.177, -6.552e-5
-1.176, -7.350e-5
-1.175, -8.174e-5
-1.174, -8.937e-5
-1.173, -9.741e-5
-1.172, -1.048e-4
-1.171, -1.119e-4
-1.170, -1.192e-4
-1.169, -1.261e-4
-1.168, -1.334e-4
-1.167, -1.406e-4
-1.166, -1.460e-4
-1.165, -1.517e-4
-1.164, -1.628e-4
-1.163, -1.669e-4
-1.162, -1.710e-4
-1.161, -1.751e-4
-1.160, -1.792e-4
-1.159, -1.857e-4
-1.158, -1.919e-4
-1.157, -1.955e-4
-1.156, -1.999e-4
-1.155, -2.041e-4
-1.154, -2.088e-4
-1.153, -2.132e-4
-1.152, -2.186e-4
-1.151, -2.245e-4
-1.150, -2.272e-4
-1.149, -2.297e-4
-1.148, -2.342e-4
-1.147, -2.399e-4
-1.146, -2.421e-4
-1.145, -2.451e-4
-1.144, -2.485e-4
-1.143, -2.530e-4
-1.142, -2.563e-4
-1.141, -2.597e-4
-1.140, -2.623e-4
-1.139, -2.650e-4
-1.138, -2.683e-4
-1.137, -2.726e-4
-1.136, -2.759e-4
-1.135, -2.771e-4
-1.134, -2.784e-4
-1.133, -2.806e-4
-1.132, -2.840e-4
-1.131, -2.885e-4
-1.130, -2.913e-4
-1.129, -2.947e-4
-1.128, -2.970e-4
-1.127, -2.994e-4
-1.126, -3.006e-4
-1.125, -3.019e-4
-1.124, -3.041e-4
-1.123, -3.140e-4
-1.122, -3.143e-4
-1.121, -3.124e-4
-1.120, -3.133e-4
-1.119, -3.151e-4
-1.118, -3.194e-4
-1.117, -3.216e-4
-1.116, -3.229e-4
-1.115, -3.224e-4
-1.114, -3.221e-4
-1.113, -3.278e-4
-1.112, -3.297e-4
-1.111, -3.323e-4
-1.110, -3.343e-4
-1.109, -3.349e-4
-1.108, -3.364e-4
-1.107, -3.362e-4
-1.106, -3.385e-4
-1.105, -3.408e-4
-1.104, -3.433e-4
-1.103, -3.474e-4
-1.102, -3.497e-4
-1.101, -3.568e-4
-1.100, -3.704e-4
-1.099, -3.709e-4
-1.098, -3.675e-4
-1.097, -3.659e-4
-1.096, -3.664e-4
-1.095, -3.662e-4
-1.094, -3.659e-4
-1.093, -3.678e-4
-1.092, -3.705e-4
-1.091, -3.736e-4
-1.090, -3.727e-4
-1.089, -3.718e-4
-1.088, -3.710e-4
-1.087, -3.770e-4
-1.086, -3.830e-4
-1.085, -3.824e-4
-1.084, -3.825e-4
-1.083, -3.874e-4
-1.082, -3.884e-4
-1.081, -3.880e-4
-1.080, -3.867e-4
-1.079, -3.871e-4
-1.078, -3.909e-4
-1.077, -3.953e-4
-1.076, -3.966e-4
-1.075, -3.986e-4
-1.074, -4.001e-4
-1.073, -3.997e-4
-1.072, -4.008e-4
-1.071, -4.056e-4
-1.070, -4.064e-4
-1.069, -4.079e-4
-1.068, -4.144e-4
-1.067, -4.139e-4
-1.066, -4.146e-4
-1.065, -4.175e-4
-1.064, -4.205e-4
-1.063, -4.221e-4
-1.062, -4.232e-4
-1.061, -4.262e-4
-1.060, -4.285e-4
-1.059, -4.314e-4
-1.058, -4.335e-4
-1.057, -4.354e-4
-1.056, -4.364e-4
-1.055, -4.381e-4
-1.054, -4.388e-4
-1.053, -4.420e-4
-1.052, -4.442e-4
-1.051, -4.466e-4
-1.050, -4.489e-4
-1.049, -4.500e-4
-1.048, -4.505e-4
-1.047, -4.560e-4
-1.046, -4.606e-4
-1.045, -4.601e-4
-1.044, -4.634e-4
-1.043, -4.715e-4
-1.042, -4.727e-4
-1.041, -4.769e-4
-1.040, -4.808e-4
-1.039, -4.837e-4
-1.038, -4.848e-4
-1.037, -4.879e-4
-1.036, -4.930e-4
-1.035, -5.001e-4
-1.034, -5.052e-4
-1.033, -5.053e-4
-1.032, -5.085e-4
-1.031, -5.082e-4
-1.030, -5.128e-4
-1.029, -5.128e-4
-1.028, -5.161e-4
-1.027, -5.205e-4
-1.026, -5.238e-4
-1.025, -5.269e-4
-1.024, -5.293e-4
-1.023, -5.361e-4
-1.022, -5.441e-4
-1.021, -5.477e-4
-1.020, -5.512e-4
-1.019, -5.595e-4
-1.018, -5.561e-4
-1.017, -5.591e-4
-1.016, -5.642e-4
-1.015, -5.708e-4
-1.014, -5.774e-4
-1.013, -5.896e-4
-1.012, -5.867e-4
-1.011, -5.854e-4
-1.010, -5.981e-4
-1.009, -6.051e-4
-1.008, -6.000e-4
-1.007, -6.086e-4
-1.006, -6.141e-4
-1.005, -6.182e-4
-1.004, -6.241e-4
-1.003, -6.284e-4
-1.002, -6.376e-4
-1.001, -6.428e-4
-1.000, -5.776e-4
-1.001, -4.646e-4
-1.002, -3.871e-4
-1.003, -3.293e-4
-1.004, -2.824e-4
-1.005, -2.419e-4
-1.006, -2.082e-4
-1.007, -1.785e-4
-1.008, -1.515e-4
-1.009, -1.256e-4
-1.010, -1.031e-4
-1.011, -8.327e-5
-1.012, -6.383e-5
-1.013, -4.600e-5
-1.014, -3.062e-5
-1.015, -1.533e-5
-1.016, -3.166e-6
-1.017, 9.079e-6
-1.018, 2.117e-5
-1.019, 3.299e-5
-1.020, 4.406e-5
-1.021, 5.348e-5
-1.022, 6.249e-5
-1.023, 7.144e-5
-1.024, 8.052e-5
-1.025, 8.975e-5
-1.026, 9.618e-5
-1.027, 1.015e-4
-1.028, 1.084e-4
-1.029, 1.142e-4
-1.030, 1.212e-4
-1.031, 1.268e-4
-1.032, 1.309e-4
-1.033, 1.365e-4
-1.034, 1.420e-4
-1.035, 1.481e-4
-1.036, 1.535e-4
-1.037, 1.582e-4
-1.038, 1.618e-4
-1.039, 1.619e-4
-1.040, 1.667e-4
-1.041, 1.708e-4
-1.042, 1.749e-4
-1.043, 1.778e-4
-1.044, 1.815e-4
-1.045, 1.860e-4
-1.046, 1.897e-4
-1.047, 1.909e-4
-1.048, 1.904e-4
-1.049, 1.950e-4
-1.050, 1.981e-4
-1.051, 2.005e-4
-1.052, 2.019e-4
-1.053, 2.038e-4
-1.054, 2.071e-4
-1.055, 2.096e-4
-1.056, 2.101e-4
-1.057, 2.115e-4
-1.058, 2.134e-4
-1.059, 2.152e-4
-1.060, 2.182e-4
-1.061, 2.201e-4
-1.062, 2.207e-4
-1.063, 2.241e-4
-1.064, 2.246e-4
-1.065, 2.257e-4
-1.066, 2.272e-4
-1.067, 2.279e-4
-1.068, 2.301e-4
-1.069, 2.311e-4
-1.070, 2.347e-4
-1.071, 2.365e-4
-1.072, 2.347e-4
-1.073, 2.359e-4
-1.074, 2.375e-4
-1.075, 2.405e-4
-1.076, 2.426e-4
-1.077, 2.426e-4
-1.078, 2.427e-4
-1.079, 2.441e-4
-1.080, 2.446e-4
-1.081, 2.458e-4
-1.082, 2.464e-4
-1.083, 2.474e-4
-1.084, 2.489e-4
-1.085, 2.522e-4
-1.086, 2.553e-4
-1.087, 2.577e-4
-1.088, 2.557e-4
-1.089, 2.582e-4
-1.090, 2.606e-4
-1.091, 2.614e-4
-1.092, 2.595e-4
-1.093, 2.559e-4
-1.094, 2.564e-4
-1.095, 2.597e-4
-1.096, 2.615e-4
-1.097, 2.646e-4
-1.098, 2.646e-4
-1.099, 2.649e-4
-1.100, 2.654e-4
-1.101, 2.647e-4
-1.102, 2.659e-4
-1.103, 2.664e-4
-1.104, 2.673e-4
-1.105, 2.686e-4
-1.106, 2.704e-4
-1.107, 2.710e-4
-1.108, 2.718e-4
-1.109, 2.730e-4
-1.110, 2.738e-4
-1.111, 2.754e-4
-1.112, 2.761e-4
-1.113, 2.779e-4
-1.114, 2.796e-4
-1.115, 2.791e-4
-1.116, 2.800e-4
-1.117, 2.810e-4
-1.118, 2.822e-4
-1.119, 2.833e-4
-1.120, 2.842e-4
-1.121, 2.858e-4
-1.122, 2.849e-4
-1.123, 2.854e-4
-1.124, 2.881e-4
-1.125, 2.903e-4
-1.126, 2.954e-4
-1.127, 2.941e-4
-1.128, 2.967e-4
-1.129, 2.969e-4
-1.130, 2.965e-4
-1.131, 2.961e-4
-1.132, 2.969e-4
-1.133, 2.962e-4
-1.134, 2.983e-4
-1.135, 3.014e-4
-1.136, 3.029e-4
-1.137, 3.036e-4
-1.138, 3.062e-4
-1.139, 3.066e-4
-1.140, 3.076e-4
-1.141, 3.076e-4
-1.142, 3.079e-4
-1.143, 3.128e-4
-1.144, 3.157e-4
-1.145, 3.161e-4
-1.146, 3.179e-4
-1.147, 3.182e-4
-1.148, 3.187e-4
-1.149, 3.181e-4
-1.150, 3.195e-4
-1.151, 3.235e-4
-1.152, 3.258e-4
-1.153, 3.288e-4
-1.154, 3.299e-4
-1.155, 3.324e-4
-1.156, 3.322e-4
-1.157, 3.300e-4
-1.158, 3.316e-4
-1.159, 3.347e-4
-1.160, 3.375e-4
-1.161, 3.396e-4
-1.162, 3.419e-4
-1.163, 3.428e-4
-1.164, 3.449e-4
-1.165, 3.462e-4
-1.166, 3.481e-4
-1.167, 3.496e-4
-1.168, 3.507e-4
-1.169, 3.526e-4
-1.170, 3.552e-4
-1.171, 3.590e-4
-1.172, 3.627e-4
-1.173, 3.649e-4
-1.174, 3.671e-4
-1.175, 3.697e-4
-1.176, 3.716e-4
-1.177, 3.723e-4
-1.178, 3.749e-4
-1.179, 3.769e-4
-1.180, 3.796e-4
-1.181, 3.872e-4
-1.182, 3.894e-4
-1.183, 3.928e-4
-1.184, 3.955e-4
-1.185, 3.998e-4
-1.186, 4.004e-4
-1.187, 3.988e-4
-1.188, 4.034e-4
-1.189, 4.102e-4
-1.190, 4.151e-4
-1.191, 4.185e-4
-1.192, 4.206e-4
-1.193, 4.247e-4
-1.194, 4.284e-4
-1.195, 4.356e-4
-1.196, 4.366e-4
-1.197, 4.409e-4
-1.198, 4.475e-4
-1.199, 4.505e-4
-1.200, 4.597e-4
-1.201, 4.641e-4
-1.202, 4.658e-4
-1.203, 4.733e-4
-1.204, 4.765e-4
-1.205, 4.813e-4
-1.206, 4.872e-4
-1.207, 4.935e-4
-1.208, 5.012e-4
-1.209, 5.089e-4
-1.210, 5.169e-4
-1.211, 5.219e-4
-1.212, 5.274e-4
-1.213, 5.348e-4
-1.214, 5.417e-4
-1.215, 5.519e-4
-1.216, 5.621e-4
-1.217, 5.702e-4
-1.218, 5.764e-4
-1.219, 5.879e-4
-1.220, 5.961e-4
-1.221, 6.068e-4
-1.222, 6.168e-4
-1.223, 6.272e-4
-1.224, 6.380e-4
-1.225, 6.518e-4
-1.226, 6.621e-4
-1.227, 6.738e-4
-1.228, 6.876e-4
-1.229, 6.977e-4
-1.230, 7.136e-4
-1.231, 7.287e-4
-1.232, 7.432e-4
-1.233, 7.612e-4
-1.234, 7.777e-4
-1.235, 7.990e-4
-1.236, 8.185e-4
-1.237, 8.397e-4
-1.238, 8.647e-4
-1.239, 8.846e-4
-1.240, 8.940e-4
-1.241, 9.159e-4
-1.242, 9.457e-4
-1.243, 9.754e-4
-1.244, 1.008e-3
-1.245, 1.039e-3
-1.246, 1.075e-3
-1.247, 1.106e-3
-1.248, 1.137e-3
-1.249, 1.173e-3
-1.250, 1.209e-3
-1.251, 1.255e-3
-1.252, 1.299e-3
-1.253, 1.347e-3
-1.254, 1.394e-3
-1.255, 1.446e-3
-1.256, 1.502e-3
-1.257, 1.566e-3
-1.258, 1.622e-3
-1.259, 1.683e-3
-1.260, 1.746e-3
-1.261, 1.817e-3
-1.262, 1.902e-3
-1.263, 1.981e-3
-1.264, 2.049e-3
-1.265, 2.128e-3
-1.266, 2.212e-3
-1.267, 2.299e-3
-1.268, 2.392e-3
-1.269, 2.491e-3
-1.270, 2.582e-3
-1.271, 2.679e-3
-1.272, 2.776e-3
-1.273, 2.882e-3
-1.274, 2.984e-3
-1.275, 3.093e-3
-1.276, 3.191e-3
-1.277, 3.287e-3
-1.278, 3.401e-3
-1.279, 3.497e-3
-1.280, 3.608e-3
-1.281, 3.708e-3
-1.282, 3.810e-3
-1.283, 3.921e-3
-1.284, 4.012e-3
-1.285, 4.119e-3
-1.286, 4.195e-3
-1.287, 4.300e-3
-1.288, 4.412e-3
-1.289, 4.509e-3
-1.290, 4.586e-3
-1.291, 4.645e-3
-1.292, 4.719e-3
-1.293, 4.807e-3
-1.294, 4.896e-3
-1.295, 4.968e-3
-1.296, 5.074e-3
-1.297, 5.188e-3
-1.298, 5.219e-3
-1.299, 5.327e-3
-1.300, 5.364e-3
-1.301, 5.431e-3
-1.302, 5.526e-3
-1.303, 5.580e-3
-1.304, 5.658e-3
-1.305, 5.785e-3
-1.306, 5.936e-3
-1.307, 6.031e-3
-1.308, 6.073e-3
-1.309, 6.099e-3
-1.310, 6.106e-3
-1.311, 6.211e-3
-1.312, 6.283e-3
-1.313, 6.353e-3
-1.314, 6.410e-3
-1.315, 6.527e-3
-1.316, 6.619e-3
-1.317, 6.720e-3
-1.318, 6.746e-3
-1.319, 6.805e-3
-1.320, 6.903e-3
-1.321, 6.951e-3
-1.322, 7.046e-3
-1.323, 7.106e-3
-1.324, 7.178e-3
-1.325, 7.235e-3
-1.326, 7.304e-3
-1.327, 7.412e-3
-1.328, 7.429e-3
-1.329, 7.803e-3
-1.330, 7.949e-3
-1.331, 7.954e-3
-1.332, 8.071e-3
-1.333, 8.231e-3
-1.334, 8.339e-3
-1.335, 8.429e-3
-1.336, 8.482e-3
-1.337, 8.542e-3
-1.338, 8.583e-3
-1.339, 8.647e-3
-1.340, 8.726e-3
-1.341, 8.791e-3
-1.342, 8.894e-3
-1.343, 8.930e-3
-1.344, 9.013e-3
-1.345, 9.085e-3
-1.346, 9.173e-3
-1.347, 9.221e-3
-1.348, 9.317e-3
-1.349, 9.354e-3
-1.350, 9.452e-3
-1.351, 9.517e-3
-1.352, 9.588e-3
-1.353, 9.673e-3
-1.354, 9.750e-3
-1.355, 9.861e-3
-1.356, 9.919e-3
-1.357, 9.947e-3
-1.358, 9.990e-3
-1.359, 1.007e-2
-1.360, 1.010e-2
-1.361, 1.011e-2
-1.362, 1.011e-2
-1.363, 1.011e-2
-1.364, 1.011e-2
-1.365, 1.011e-2
-1.366, 1.011e-2
-1.367, 1.011e-2
-1.368, 1.011e-2
-1.369, 1.011e-2
-1.370, 1.011e-2
-1.371, 1.011e-2
-1.372, 1.011e-2
-1.373, 1.011e-2
-1.374, 1.011e-2
-1.375, 1.011e-2
-1.376, 1.011e-2
-1.377, 1.011e-2
-1.378, 1.011e-2
-1.379, 1.011e-2
-1.380, 1.011e-2
-1.381, 1.011e-2
-1.382, 1.011e-2
-1.383, 1.011e-2
-1.384, 1.011e-2
-1.385, 1.011e-2
-1.386, 1.011e-2
-1.387, 1.011e-2
-1.388, 1.011e-2
-1.389, 1.011e-2
-1.390, 1.011e-2
-1.391, 1.011e-2
-1.392, 1.011e-2
-1.393, 1.011e-2
-1.394, 1.011e-2
-1.395, 1.011e-2
-1.396, 1.011e-2
-1.397, 1.011e-2
-1.398, 1.011e-2
-1.399, 1.011e-2
-1.400, 1.011e-2
-1.399, 1.011e-2
-1.398, 1.011e-2
-1.397, 1.011e-2
-1.396, 1.011e-2
-1.395, 1.011e-2
-1.394, 1.011e-2
-1.393, 1.011e-2
-1.392, 1.011e-2
-1.391, 1.011e-2
-1.390, 1.011e-2
-1.389, 1.011e-2
-1.388, 1.011e-2
-1.387, 1.011e-2
-1.386, 1.011e-2
-1.385, 1.011e-2
-1.384, 1.011e-2
-1.383, 1.011e-2
-1.382, 1.011e-2
-1.381, 1.011e-2
-1.380, 1.011e-2
-1.379, 1.011e-2
-1.378, 1.011e-2
-1.377, 1.011e-2
-1.376, 1.010e-2
-1.375, 1.009e-2
-1.374, 9.964e-3
-1.373, 9.904e-3
-1.372, 9.791e-3
-1.371, 9.669e-3
-1.370, 9.523e-3
-1.369, 9.451e-3
-1.368, 9.357e-3
-1.367, 9.208e-3
-1.366, 9.141e-3
-1.365, 9.002e-3
-1.364, 8.927e-3
-1.363, 8.907e-3
-1.362, 8.883e-3
-1.361, 8.790e-3
-1.360, 8.711e-3
-1.359, 8.528e-3
-1.358, 8.401e-3
-1.357, 8.382e-3
-1.356, 8.315e-3
-1.355, 8.300e-3
-1.354, 8.201e-3
-1.353, 8.122e-3
-1.352, 8.250e-3
-1.351, 8.156e-3
-1.350, 8.063e-3
-1.349, 7.971e-3
-1.348, 7.920e-3
-1.347, 7.800e-3
-1.346, 7.643e-3
-1.345, 7.485e-3
-1.344, 7.402e-3
-1.343, 7.315e-3
-1.342, 7.228e-3
-1.341, 7.132e-3
-1.340, 7.194e-3
-1.339, 7.156e-3
-1.338, 7.102e-3
-1.337, 6.973e-3
-1.336, 6.851e-3
-1.335, 6.769e-3
-1.334, 6.862e-3
-1.333, 6.729e-3
-1.332, 6.639e-3
-1.331, 6.598e-3
-1.330, 6.551e-3
-1.329, 6.443e-3
-1.328, 6.401e-3
-1.327, 6.296e-3
-1.326, 6.230e-3
-1.325, 6.143e-3
-1.324, 6.190e-3
-1.323, 6.101e-3
-1.322, 6.021e-3
-1.321, 5.862e-3
-1.320, 5.789e-3
-1.319, 5.676e-3
-1.318, 5.630e-3
-1.317, 5.623e-3
-1.316, 5.523e-3
-1.315, 5.472e-3
-1.314, 5.373e-3
-1.313, 5.387e-3
-1.312, 5.388e-3
-1.311, 5.332e-3
-1.310, 5.249e-3
-1.309, 5.167e-3
-1.308, 5.078e-3
-1.307, 5.052e-3
-1.306, 5.002e-3
-1.305, 4.944e-3
-1.304, 4.882e-3
-1.303, 4.849e-3
-1.302, 4.760e-3
-1.301, 4.736e-3
-1.300, 4.674e-3
-1.299, 4.607e-3
-1.298, 4.549e-3
-1.297, 4.470e-3
-1.296, 4.410e-3
-1.295, 4.323e-3
-1.294, 4.285e-3
-1.293, 4.270e-3
-1.292, 4.222e-3
-1.291, 4.139e-3
-1.290, 4.068e-3
-1.289, 4.001e-3
-1.288, 3.893e-3
-1.287, 3.858e-3
-1.286, 4.002e-3
-1.285, 4.035e-3
-1.284, 3.993e-3
-1.283, 3.983e-3
-1.282, 3.929e-3
-1.281, 3.854e-3
-1.280, 3.784e-3
-1.279, 3.760e-3
-1.278, 3.663e-3
-1.277, 3.590e-3
-1.276, 3.552e-3
-1.275, 3.498e-3
-1.274, 3.427e-3
-1.273, 3.346e-3
-1.272, 3.273e-3
-1.271, 3.209e-3
-1.270, 3.144e-3
-1.269, 3.080e-3
-1.268, 3.022e-3
-1.267, 2.957e-3
-1.266, 2.910e-3
-1.265, 2.864e-3
-1.264, 2.810e-3
-1.263, 2.742e-3
-1.262, 2.677e-3
-1.261, 2.617e-3
-1.260, 2.575e-3
-1.259, 2.532e-3
-1.258, 2.479e-3
-1.257, 2.432e-3
-1.256, 2.368e-3
-1.255, 2.325e-3
-1.254, 2.265e-3
-1.253, 2.186e-3
-1.252, 2.125e-3
-1.251, 2.075e-3
-1.250, 2.016e-3
-1.249, 1.994e-3
-1.248, 1.945e-3
-1.247, 1.885e-3
-1.246, 1.829e-3
-1.245, 1.779e-3
-1.244, 1.756e-3
-1.243, 1.704e-3
-1.242, 1.647e-3
-1.241, 1.591e-3
-1.240, 1.550e-3
-1.239, 1.512e-3
-1.238, 1.470e-3
-1.237, 1.416e-3
-1.236, 1.369e-3
-1.235, 1.341e-3
-1.234, 1.288e-3
-1.233, 1.253e-3
-1.232, 1.215e-3
-1.231, 1.172e-3
-1.230, 1.131e-3
-1.229, 1.099e-3
-1.228, 1.068e-3
-1.227, 1.030e-3
-1.226, 9.941e-4
-1.225, 9.686e-4
-1.224, 9.360e-4
-1.223, 8.991e-4
-1.222, 8.624e-4
-1.221, 8.330e-4
-1.220, 8.005e-4
-1.219, 7.683e-4
-1.218, 7.353e-4
-1.217, 7.026e-4
-1.216, 6.736e-4
-1.215, 6.477e-4
-1.214, 6.172e-4
-1.213, 5.912e-4
-1.212, 5.634e-4
-1.211, 5.377e-4
-1.210, 5.132e-4
-1.209, 4.872e-4
-1.208, 4.632e-4
-1.207, 4.374e-4
-1.206, 4.123e-4
-1.205, 3.946e-4
-1.204, 3.733e-4
-1.203, 3.497e-4
-1.202, 3.282e-4
-1.201, 3.072e-4
-1.200, 2.866e-4
-1.199, 2.681e-4
-1.198, 2.499e-4
-1.197, 2.314e-4
-1.196, 2.124e-4
-1.195, 1.940e-4
-1.194, 1.763e-4
-1.193, 1.585e-4
-1.192, 1.416e-4
-1.191, 1.265e-4
-1.190, 1.116e-4
-1.189, 9.611e-5
-1.188, 8.063e-5
-1.187, 6.745e-5
-1.186, 5.480e-5
-1.185, 4.122e-5
-1.184, 2.791e-5
-1.183, 1.410e-5
-1.182, 1.627e-6
-1.181, -9.767e-6
-1.180, -2.111e-5
-1.179, -3.178e-5
-1.178, -4.333e-5
-1.177, -5.393e-5
-1.176, -6.330e-5
-1.175, -7.281e-5
-1.174, -8.285e-5
-1.173, -9.216e-5
-1.172, -1.017e-4
-1.171, -1.098e-4
-1.170, -1.172e-4
-1.169, -1.263e-4
-1.168, -1.362e-4
-1.167, -1.428e-4
-1.166, -1.500e-4
-1.165, -1.563e-4
-1.164, -1.639e-4
-1.163, -1.711e-4
-1.162, -1.789e-4
-1.161, -1.849e-4
-1.160, -1.914e-4
-1.159, -1.987e-4
-1.158, -2.056e-4
-1.157, -2.095e-4
-1.156, -2.150e-4
-1.155, -2.200e-4
-1.154, -2.242e-4
-1.153, -2.290e-4
-1.152, -2.335e-4
-1.151, -2.376e-4
-1.150, -2.421e-4
-1.149, -2.464e-4
-1.148, -2.512e-4
-1.147, -2.551e-4
-1.146, -2.591e-4
-1.145, -2.631e-4
-1.144, -2.669e-4
-1.143, -2.731e-4
-1.142, -2.759e-4
-1.141, -2.777e-4
-1.140, -2.833e-4
-1.139, -2.871e-4
-1.138, -2.881e-4
-1.137, -2.932e-4
-1.136, -2.951e-4
-1.135, -2.957e-4
-1.134, -2.976e-4
-1.133, -3.020e-4
-1.132, -3.062e-4
-1.131, -3.090e-4
-1.130, -3.128e-4
-1.129, -3.145e-4
-1.128, -3.158e-4
-1.127, -3.188e-4
-1.126, -3.228e-4
-1.125, -3.260e-4
-1.124, -3.275e-4
-1.123, -3.290e-4
-1.122, -3.313e-4
-1.121, -3.345e-4
-1.120, -3.363e-4
-1.119, -3.372e-4
-1.118, -3.389e-4
-1.117, -3.407e-4
-1.116, -3.430e-4
-1.115, -3.465e-4
-1.114, -3.482e-4
-1.113, -3.519e-4
-1.112, -3.549e-4
-1.111, -3.588e-4
-1.110, -3.585e-4
-1.109, -3.568e-4
-1.108, -3.581e-4
-1.107, -3.615e-4
-1.106, -3.652e-4
-1.105, -3.676e-4
-1.104, -3.679e-4
-1.103, -3.687e-4
-1.102, -3.712e-4
-1.101, -3.751e-4
-1.100, -3.748e-4
-1.099, -3.758e-4
-1.098, -3.786e-4
-1.097, -3.830e-4
-1.096, -3.847e-4
-1.095, -3.848e-4
-1.094, -3.877e-4
-1.093, -3.876e-4
-1.092, -3.891e-4
-1.091, -3.891e-4
-1.090, -3.901e-4
-1.089, -3.932e-4
-1.088, -3.949e-4
-1.087, -3.982e-4
-1.086, -4.005e-4
-1.085, -4.020e-4
-1.084, -4.103e-4
-1.083, -4.113e-4
-1.082, -4.124e-4
-1.081, -4.181e-4
-1.080, -4.172e-4
-1.079, -4.163e-4
-1.078, -4.162e-4
-1.077, -4.235e-4
-1.076, -4.234e-4
-1.075, -4.281e-4
-1.074, -4.326e-4
-1.073, -4.297e-4
-1.072, -4.298e-4
-1.071, -4.319e-4
-1.070, -4.348e-4
-1.069, -4.381e-4
-1.068, -4.412e-4
-1.067, -4.419e-4
-1.066, -4.426e-4
-1.065, -4.445e-4
-1.064, -4.498e-4
-1.063, -4.562e-4
-1.062, -4.565e-4
-1.061, -4.573e-4
-1.060, -4.638e-4
-1.059, -4.664e-4
-1.058, -4.651e-4
-1.057, -4.651e-4
-1.056, -4.700e-4
-1.055, -4.745e-4
-1.054, -4.765e-4
-1.053, -4.770e-4
-1.052, -4.782e-4
-1.051, -4.793e-4
-1.050, -4.850e-4
-1.049, -4.921e-4
-1.048, -4.971e-4
-1.047, -4.976e-4
-1.046, -5.015e-4
-1.045, -5.075e-4
-1.044, -5.076e-4
-1.043, -5.117e-4
-1.042, -5.147e-4
-1.041, -5.154e-4
-1.040, -5.179e-4
-1.039, -5.220e-4
-1.038, -5.256e-4
-1.037, -5.316e-4
-1.036, -5.353e-4
-1.035, -5.385e-4
-1.034, -5.387e-4
-1.033, -5.437e-4
-1.032, -5.474e-4
-1.031, -5.516e-4
-1.030, -5.558e-4
-1.029, -5.590e-4
-1.028, -5.644e-4
-1.027, -5.718e-4
-1.026, -5.732e-4
-1.025, -5.743e-4
-1.024, -5.783e-4
-1.023, -5.827e-4
-1.022, -5.882e-4
-1.021, -5.912e-4
-1.020, -5.955e-4
-1.019, -6.019e-4
-1.018, -6.087e-4
-1.017, -6.155e-4
-1.016, -6.178e-4
-1.015, -6.219e-4
-1.014, -6.280e-4
-1.013, -6.295e-4
-1.012, -6.398e-4
-1.011, -6.469e-4
-1.010, -6.542e-4
-1.009, -6.657e-4
-1.008, -6.717e-4
-1.007, -6.710e-4
-1.006, -6.695e-4
-1.005, -6.754e-4
-1.004, -6.815e-4
-1.003, -6.902e-4
-1.002, -7.134e-4
-1.001, -7.343e-4
-1.000, -6.562e-4
-1.001, -5.331e-4
-1.002, -4.475e-4
-1.003, -3.802e-4
-1.004, -3.289e-4
-1.005, -2.824e-4
-1.006, -2.423e-4
-1.007, -2.078e-4
-1.008, -1.768e-4
-1.009, -1.487e-4
-1.010, -1.231e-4
-1.011, -1.013e-4
-1.012, -8.030e-5
-1.013, -6.067e-5
-1.014, -4.169e-5
-1.015, -2.513e-5
-1.016, -9.463e-6
-1.017, 4.529e-6
-1.018, 1.689e-5
-1.019, 3.105e-5
-1.020, 4.176e-5
-1.021, 5.297e-5
-1.022, 6.320e-5
-1.023, 7.303e-5
-1.024, 8.272e-5
-1.025, 9.215e-5
-1.026, 1.002e-4
-1.027, 1.077e-4
-1.028, 1.173e-4
-1.029, 1.226e-4
-1.030, 1.322e-4
-1.031, 1.392e-4
-1.032, 1.469e-4
-1.033, 1.523e-4
-1.034, 1.565e-4
-1.035, 1.592e-4
-1.036, 1.650e-4
-1.037, 1.691e-4
-1.038, 1.733e-4
-1.039, 1.785e-4
-1.040, 1.836e-4
-1.041, 1.864e-4
-1.042, 1.900e-4
-1.043, 1.942e-4
-1.044, 1.980e-4
-1.045, 2.020e-4
-1.046, 2.047e-4
-1.047, 2.070e-4
-1.048, 2.105e-4
-1.049, 2.143e-4
-1.050, 2.175e-4
-1.051, 2.188e-4
-1.052, 2.217e-4
-1.053, 2.219e-4
-1.054, 2.256e-4
-1.055, 2.290e-4
-1.056, 2.310e-4
-1.057, 2.315e-4
-1.058, 2.313e-4
-1.059, 2.357e-4
-1.060, 2.377e-4
-1.061, 2.396e-4
-1.062, 2.407e-4
-1.063, 2.433e-4
-1.064, 2.434e-4
-1.065, 2.451e-4
-1.066, 2.463e-4
-1.067, 2.474e-4
-1.068, 2.496e-4
-1.069, 2.505e-4
-1.070, 2.525e-4
-1.071, 2.544e-4
-1.072, 2.551e-4
-1.073, 2.560e-4
-1.074, 2.573e-4
-1.075, 2.590e-4
-1.076, 2.596e-4
-1.077, 2.604e-4
-1.078, 2.633e-4
-1.079, 2.646e-4
-1.080, 2.666e-4
-1.081, 2.664e-4
-1.082, 2.653e-4
-1.083, 2.660e-4
-1.084, 2.676e-4
-1.085, 2.691e-4
-1.086, 2.701e-4
-1.087, 2.709e-4
-1.088, 2.718e-4
-1.089, 2.740e-4
-1.090, 2.751e-4
-1.091, 2.750e-4
-1.092, 2.754e-4
-1.093, 2.767e-4
-1.094, 2.778e-4
-1.095, 2.792e-4
-1.096, 2.799e-4
-1.097, 2.797e-4
-1.098, 2.804e-4
-1.099, 2.819e-4
-1.100, 2.835e-4
-1.101, 2.841e-4
-1.102, 2.847e-4
-1.103, 2.859e-4
-1.104, 2.863e-4
-1.105, 2.878e-4
-1.106, 2.888e-4
-1.107, 2.890e-4
-1.108, 2.899e-4
-1.109, 2.901e-4
-1.110, 2.923e-4
-1.111, 2.932e-4
-1.112, 2.930e-4
-1.113, 2.939e-4
-1.114, 2.957e-4
-1.115, 2.964e-4
-1.116, 2.972e-4
-1.117, 2.983e-4
-1.118, 2.994e-4
-1.119, 3.005e-4
-1.120, 3.015e-4
-1.121, 3.017e-4
-1.122, 3.022e-4
-1.123, 3.048e-4
-1.124, 3.058e-4
-1.125, 3.079e-4
-1.126, 3.081e-4
-1.127, 3.071e-4
-1.128, 3.077e-4
-1.129, 3.093e-4
-1.130, 3.114e-4
-1.131, 3.136e-4
-1.132, 3.135e-4
-1.133, 3.130e-4
-1.134, 3.149e-4
-1.135, 3.168e-4
-1.136, 3.165e-4
-1.137, 3.188e-4
-1.138, 3.190e-4
-1.139, 3.206e-4
-1.140, 3.225e-4
-1.141, 3.234e-4
-1.142, 3.246e-4
-1.143, 3.264e-4
-1.144, 3.271e-4
-1.145, 3.282e-4
-1.146, 3.306e-4
-1.147, 3.305e-4
-1.148, 3.318e-4
-1.149, 3.319e-4
-1.150, 3.347e-4
-1.151, 3.366e-4
-1.152, 3.370e-4
-1.153, 3.390e-4
-1.154, 3.403e-4
-1.155, 3.427e-4
-1.156, 3.450e-4
-1.157, 3.451e-4
-1.158, 3.477e-4
-1.159, 3.492e-4
-1.160, 3.502e-4
-1.161, 3.518e-4
-1.162, 3.527e-4
-1.163, 3.550e-4
-1.164, 3.567e-4
-1.165, 3.604e-4
-1.166, 3.619e-4
-1.167, 3.636e-4
-1.168, 3.644e-4
-1.169, 3.667e-4
-1.170, 3.699e-4
-1.171, 3.709e-4
-1.172, 3.733e-4
-1.173, 3.753e-4
-1.174, 3.778e-4
-1.175, 3.808e-4
-1.176, 3.824e-4
-1.177, 3.858e-4
-1.178, 3.883e-4
-1.179, 3.911e-4
-1.180, 3.941e-4
-1.181, 3.965e-4
-1.182, 4.065e-4
-1.183, 4.048e-4
-1.184, 4.050e-4
-1.185, 4.091e-4
-1.186, 4.123e-4
-1.187, 4.153e-4
-1.188, 4.187e-4
-1.189, 4.226e-4
-1.190, 4.261e-4
-1.191, 4.301e-4
-1.192, 4.330e-4
-1.193, 4.371e-4
-1.194, 4.408e-4
-1.195, 4.453e-4
-1.196, 4.505e-4
-1.197, 4.537e-4
-1.198, 4.591e-4
-1.199, 4.645e-4
-1.200, 4.727e-4
-1.201, 4.770e-4
-1.202, 4.807e-4
-1.203, 4.861e-4
-1.204, 4.924e-4
-1.205, 4.966e-4
-1.206, 4.999e-4
-1.207, 5.060e-4
-1.208, 5.137e-4
-1.209, 5.226e-4
-1.210, 5.304e-4
-1.211, 5.372e-4
-1.212, 5.452e-4
-1.213, 5.507e-4
-1.214, 5.563e-4
-1.215, 5.675e-4
-1.216, 5.762e-4
-1.217, 5.853e-4
-1.218, 5.937e-4
-1.219, 6.033e-4
-1.220, 6.156e-4
-1.221, 6.225e-4
-1.222, 6.307e-4
-1.223, 6.414e-4
-1.224, 6.539e-4
-1.225, 6.682e-4
-1.226, 6.814e-4
-1.227, 6.940e-4
-1.228, 7.073e-4
-1.229, 7.253e-4
-1.230, 7.401e-4
-1.231, 7.532e-4
-1.232, 7.698e-4
-1.233, 7.871e-4
-1.234, 8.029e-4
-1.235, 8.241e-4
-1.236, 8.514e-4
-1.237, 8.626e-4
-1.238, 8.819e-4
-1.239, 9.104e-4
-1.240, 9.382e-4
-1.241, 9.631e-4
-1.242, 9.802e-4
-1.243, 9.998e-4
-1.244, 1.032e-3
-1.245, 1.070e-3
-1.246, 1.108e-3
-1.247, 1.148e-3
-1.248, 1.181e-3
-1.249, 1.218e-3
-1.250, 1.259e-3
-1.251, 1.301e-3
-1.252, 1.347e-3
-1.253, 1.396e-3
-1.254, 1.452e-3
-1.255, 1.510e-3
-1.256, 1.568e-3
-1.257, 1.632e-3
-1.258, 1.698e-3
-1.259, 1.762e-3
-1.260, 1.834e-3
-1.261, 1.908e-3
-1.262, 1.988e-3
-1.263, 2.068e-3
-1.264, 2.151e-3
-1.265, 2.241e-3
-1.266, 2.348e-3
-1.267, 2.431e-3
-1.268, 2.519e-3
-1.269, 2.616e-3
-1.270, 2.703e-3
-1.271, 2.778e-3
-1.272, 2.902e-3
-1.273, 2.999e-3
-1.274, 3.079e-3
-1.275, 3.179e-3
-1.276, 3.269e-3
-1.277, 3.377e-3
-1.278, 3.472e-3
-1.279, 3.597e-3
-1.280, 3.651e-3
-1.281, 3.762e-3
-1.282, 3.859e-3
-1.283, 3.965e-3
-1.284, 4.062e-3
-1.285, 4.192e-3
-1.286, 4.302e-3
-1.287, 4.381e-3
-1.288, 4.397e-3
-1.289, 4.530e-3
-1.290, 4.623e-3
-1.291, 4.708e-3
-1.292, 4.841e-3
-1.293, 4.917e-3
-1.294, 4.974e-3
-1.295, 5.050e-3
-1.296, 5.152e-3
-1.297, 5.231e-3
-1.298, 5.296e-3
-1.299, 5.379e-3
-1.300, 5.444e-3
-1.301, 5.525e-3
-1.302, 5.585e-3
-1.303, 5.686e-3
-1.304, 5.738e-3
-1.305, 5.800e-3
-1.306, 5.874e-3
-1.307, 5.908e-3
-1.308, 6.083e-3
-1.309, 6.113e-3
-1.310, 6.185e-3
-1.311, 6.274e-3
-1.312, 6.358e-3
-1.313, 6.408e-3
-1.314, 6.444e-3
-1.315, 6.470e-3
-1.316, 6.548e-3
-1.317, 6.678e-3
-1.318, 6.689e-3
-1.319, 6.764e-3
-1.320, 6.829e-3
-1.321, 6.926e-3
-1.322, 6.854e-3
-1.323, 6.984e-3
-1.324, 7.090e-3
-1.325, 7.163e-3
-1.326, 7.229e-3
-1.327, 7.388e-3
-1.328, 7.514e-3
-1.329, 7.497e-3
-1.330, 7.466e-3
-1.331, 7.528e-3
-1.332, 7.571e-3
-1.333, 7.647e-3
-1.334, 7.708e-3
-1.335, 7.817e-3
-1.336, 7.818e-3
-1.337, 7.954e-3
-1.338, 8.038e-3
-1.339, 8.077e-3
-1.340, 8.149e-3
-1.341, 8.179e-3
-1.342, 8.228e-3
-1.343, 8.319e-3
-1.344, 8.362e-3
-1.345, 8.448e-3
-1.346, 8.511e-3
-1.347, 8.591e-3
-1.348, 8.538e-3
-1.349, 8.594e-3
-1.350, 8.791e-3
-1.351, 8.906e-3
-1.352, 8.935e-3
-1.353, 8.974e-3
-1.354, 9.000e-3
-1.355, 9.001e-3
-1.356, 8.964e-3
-1.357, 9.105e-3
-1.358, 9.154e-3
-1.359, 9.167e-3
-1.360, 9.250e-3
-1.361, 9.487e-3
-1.362, 9.507e-3
-1.363, 9.567e-3
-1.364, 9.578e-3
-1.365, 9.572e-3
-1.366, 9.626e-3
-1.367, 9.745e-3
-1.368, 9.942e-3
-1.369, 9.949e-3
-1.370, 9.941e-3
-1.371, 9.937e-3
-1.372, 9.950e-3
-1.373, 9.982e-3
-1.374, 1.008e-2
-1.375, 1.011e-2
-1.376, 1.011e-2
-1.377, 1.011e-2
-1.378, 1.011e-2
-1.379, 1.011e-2
-1.380, 1.011e-2
-1.381, 1.011e-2
-1.382, 1.011e-2
-1.383, 1.011e-2
-1.384, 1.011e-2
-1.385, 1.011e-2
-1.386, 1.011e-2
-1.387, 1.011e-2
-1.388, 1.011e-2
-1.389, 1.011e-2
-1.390, 1.011e-2
-1.391, 1.011e-2
-1.392, 1.011e-2
-1.393, 1.011e-2
-1.394, 1.011e-2
-1.395, 1.011e-2
-1.396, 1.011e-2
-1.397, 1.011e-2
-1.398, 1.011e-2
-1.399, 1.011e-2
-1.400, 1.011e-2
-1.399, 1.011e-2
-1.398, 1.011e-2
-1.397, 1.011e-2
-1.396, 1.011e-2
-1.395, 1.011e-2
-1.394, 1.011e-2
-1.393, 1.011e-2
-1.392, 1.011e-2
-1.391, 1.011e-2
-1.390, 1.011e-2
-1.389, 1.011e-2
-1.388, 1.011e-2
-1.387, 1.011e-2
-1.386, 1.011e-2
-1.385, 1.011e-2
-1.384, 1.007e-2
-1.383, 9.960e-3
-1.382, 9.957e-3
-1.381, 1.006e-2
-1.380, 1.009e-2
-1.379, 9.947e-3
-1.378, 9.825e-3
-1.377, 9.695e-3
-1.376, 9.517e-3
-1.375, 9.503e-3
-1.374, 9.452e-3
-1.373, 9.478e-3
-1.372, 9.447e-3
-1.371, 9.222e-3
-1.370, 9.077e-3
-1.369, 8.954e-3
-1.368, 8.944e-3
-1.367, 8.819e-3
-1.366, 8.706e-3
-1.365, 8.620e-3
-1.364, 8.582e-3
-1.363, 8.521e-3
-1.362, 8.591e-3
-1.361, 8.535e-3
-1.360, 8.399e-3
-1.359, 8.307e-3
-1.358, 8.213e-3
-1.357, 8.128e-3
-1.356, 8.217e-3
-1.355, 8.223e-3
-1.354, 8.103e-3
-1.353, 7.962e-3
-1.352, 7.870e-3
-1.351, 7.772e-3
-1.350, 7.674e-3
-1.349, 7.549e-3
-1.348, 7.478e-3
-1.347, 7.469e-3
-1.346, 7.418e-3
-1.345, 7.422e-3
-1.344, 7.412e-3
-1.343, 7.372e-3
-1.342, 7.255e-3
-1.341, 7.174e-3
-1.340, 7.040e-3
-1.339, 6.997e-3
-1.338, 7.015e-3
-1.337, 6.947e-3
-1.336, 6.928e-3
-1.335, 6.937e-3
-1.334, 6.843e-3
-1.333, 6.671e-3
-1.332, 6.621e-3
-1.331, 6.560e-3
-1.330, 6.510e-3
-1.329, 6.412e-3
-1.328, 6.369e-3
-1.327, 6.258e-3
-1.326, 6.135e-3
-1.325, 6.063e-3
-1.324, 5.994e-3
-1.323, 5.887e-3
-1.322, 5.872e-3
-1.321, 5.777e-3
-1.320, 5.719e-3
-1.319, 5.657e-3
-1.318, 5.596e-3
-1.317, 5.534e-3
-1.316, 5.437e-3
-1.315, 5.331e-3
-1.314, 5.299e-3
-1.313, 5.231e-3
-1.312, 5.202e-3
-1.311, 5.404e-3
-1.310, 5.322e-3
-1.309, 5.276e-3
-1.308, 5.188e-3
-1.307, 5.093e-3
-1.306, 5.009e-3
-1.305, 4.940e-3
-1.304, 4.853e-3
-1.303, 4.794e-3
-1.302, 4.756e-3
-1.301, 4.662e-3
-1.300, 4.590e-3
-1.299, 4.540e-3
-1.298, 4.502e-3
-1.297, 4.412e-3
-1.296, 4.399e-3
-1.295, 4.309e-3
-1.294, 4.253e-3
-1.293, 4.200e-3
-1.292, 4.149e-3
-1.291, 4.080e-3
-1.290, 4.026e-3
-1.289, 3.975e-3
-1.288, 3.899e-3
-1.287, 3.846e-3
-1.286, 3.772e-3
-1.285, 3.710e-3
-1.284, 3.650e-3
-1.283, 3.622e-3
-1.282, 3.645e-3
-1.281, 3.513e-3
-1.280, 3.456e-3
-1.279, 3.438e-3
-1.278, 3.407e-3
-1.277, 3.362e-3
-1.276, 3.278e-3
-1.275, 3.200e-3
-1.274, 3.152e-3
-1.273, 3.094e-3
-1.272, 3.047e-3
-1.271, 3.008e-3
-1.270, 2.970e-3
-1.269, 2.896e-3
-1.268, 2.827e-3
-1.267, 2.765e-3
-1.266, 2.712e-3
-1.265, 2.670e-3
-1.264, 2.611e-3
-1.263, 2.560e-3
-1.262, 2.509e-3
-1.261, 2.477e-3
-1.260, 2.421e-3
-1.259, 2.361e-3
-1.258, 2.308e-3
-1.257, 2.254e-3
-1.256, 2.201e-3
-1.255, 2.185e-3
-1.254, 2.137e-3
-1.253, 2.091e-3
-1.252, 2.032e-3
-1.251, 1.978e-3
-1.250, 1.928e-3
-1.249, 1.882e-3
-1.248, 1.846e-3
-1.247, 1.798e-3
-1.246, 1.762e-3
-1.245, 1.705e-3
-1.244, 1.665e-3
-1.243, 1.621e-3
-1.242, 1.574e-3
-1.241, 1.533e-3
-1.240, 1.509e-3
-1.239, 1.463e-3
-1.238, 1.418e-3
-1.237, 1.376e-3
-1.236, 1.338e-3
-1.235, 1.300e-3
-1.234, 1.259e-3
-1.233, 1.222e-3
-1.232, 1.184e-3
-1.231, 1.149e-3
-1.230, 1.119e-3
-1.229, 1.081e-3
-1.228, 1.045e-3
-1.227, 1.012e-3
-1.226, 9.875e-4
-1.225, 9.515e-4
-1.224, 9.146e-4
-1.223, 8.831e-4
-1.222, 8.545e-4
-1.221, 8.236e-4
-1.220, 7.884e-4
-1.219, 7.581e-4
-1.218, 7.291e-4
-1.217, 6.973e-4
-1.216, 6.767e-4
-1.215, 6.569e-4
-1.214, 6.371e-4
-1.213, 6.087e-4
-1.212, 5.805e-4
-1.211, 5.544e-4
-1.210, 5.363e-4
-1.209, 5.064e-4
-1.208, 4.802e-4
-1.207, 4.586e-4
-1.206, 4.310e-4
-1.205, 4.091e-4
-1.204, 3.864e-4
-1.203, 3.657e-4
-1.202, 3.485e-4
-1.201, 3.233e-4
-1.200, 3.025e-4
-1.199, 2.817e-4
-1.198, 2.656e-4
-1.197, 2.463e-4
-1.196, 2.291e-4
-1.195, 2.145e-4
-1.194, 1.957e-4
-1.193, 1.776e-4
-1.192, 1.613e-4
-1.191, 1.450e-4
-1.190, 1.289e-4
-1.189, 1.146e-4
-1.188, 9.886e-5
-1.187, 8.388e-5
-1.186, 7.009e-5
-1.185, 5.669e-5
-1.184, 4.296e-5
-1.183, 3.001e-5
-1.182, 1.721e-5
-1.181, 5.306e-6
-1.180, -6.408e-6
-1.179, -1.827e-5
-1.178, -3.019e-5
-1.177, -4.168e-5
-1.176, -5.231e-5
-1.175, -6.310e-5
-1.174, -7.341e-5
-1.173, -8.242e-5
-1.172, -9.213e-5
-1.171, -1.006e-4
-1.170, -1.091e-4
-1.169, -1.178e-4
-1.168, -1.251e-4
-1.167, -1.345e-4
-1.166, -1.420e-4
-1.165, -1.496e-4
-1.164, -1.561e-4
-1.163, -1.627e-4
-1.162, -1.699e-4
-1.161, -1.760e-4
-1.160, -1.820e-4
-1.159, -1.881e-4
-1.158, -1.947e-4
-1.157, -2.001e-4
-1.156, -2.057e-4
-1.155, -2.099e-4
-1.154, -2.149e-4
-1.153, -2.215e-4
-1.152, -2.267e-4
-1.151, -2.317e-4
-1.150, -2.365e-4
-1.149, -2.407e-4
-1.148, -2.454e-4
-1.147, -2.490e-4
-1.146, -2.535e-4
-1.145, -2.570e-4
-1.144, -2.601e-4
-1.143, -2.682e-4
-1.142, -2.778e-4
-1.141, -2.784e-4
-1.140, -2.802e-4
-1.139, -2.828e-4
-1.138, -2.855e-4
-1.137, -2.881e-4
-1.136, -2.901e-4
-1.135, -2.927e-4
-1.134, -2.949e-4
-1.133, -2.998e-4
-1.132, -3.021e-4
-1.131, -3.047e-4
-1.130, -3.082e-4
-1.129, -3.114e-4
-1.128, -3.124e-4
-1.127, -3.143e-4
-1.126, -3.172e-4
-1.125, -3.190e-4
-1.124, -3.203e-4
-1.123, -3.242e-4
-1.122, -3.267e-4
-1.121, -3.284e-4
-1.120, -3.319e-4
-1.119, -3.350e-4
-1.118, -3.371e-4
-1.117, -3.372e-4
-1.116, -3.381e-4
-1.115, -3.388e-4
-1.114, -3.392e-4
-1.113, -3.467e-4
-1.112, -3.524e-4
-1.111, -3.523e-4
-1.110, -3.537e-4
-1.109, -3.544e-4
-1.108, -3.562e-4
-1.107, -3.579e-4
-1.106, -3.608e-4
-1.105, -3.625e-4
-1.104, -3.614e-4
-1.103, -3.631e-4
-1.102, -3.638e-4
-1.101, -3.660e-4
-1.100, -3.676e-4
-1.099, -3.722e-4
-1.098, -3.777e-4
-1.097, -3.805e-4
-1.096, -3.805e-4
-1.095, -3.804e-4
-1.094, -3.796e-4
-1.093, -3.797e-4
-1.092, -3.810e-4
-1.091, -3.860e-4
-1.090, -3.886e-4
-1.089, -3.918e-4
-1.088, -3.929e-4
-1.087, -3.942e-4
-1.086, -3.960e-4
-1.085, -3.958e-4
-1.084, -3.974e-4
-1.083, -3.987e-4
-1.082, -4.015e-4
-1.081, -4.053e-4
-1.080, -4.061e-4
-1.079, -4.078e-4
-1.078, -4.112e-4
-1.077, -4.132e-4
-1.076, -4.140e-4
-1.075, -4.162e-4
-1.074, -4.165e-4
-1.073, -4.200e-4
-1.072, -4.209e-4
-1.071, -4.241e-4
-1.070, -4.278e-4
-1.069, -4.309e-4
-1.068, -4.337e-4
-1.067, -4.498e-4
-1.066, -4.584e-4
-1.065, -4.499e-4
-1.064, -4.466e-4
-1.063, -4.455e-4
-1.062, -4.466e-4
-1.061, -4.498e-4
-1.060, -4.514e-4
-1.059, -4.531e-4
-1.058, -4.576e-4
-1.057, -4.620e-4
-1.056, -4.635e-4
-1.055, -4.664e-4
-1.054, -4.705e-4
-1.053, -4.716e-4
-1.052, -4.735e-4
-1.051, -4.758e-4
-1.050, -4.779e-4
-1.049, -4.814e-4
-1.048, -4.837e-4
-1.047, -4.868e-4
-1.046, -4.899e-4
-1.045, -4.914e-4
-1.044, -4.949e-4
-1.043, -5.006e-4
-1.042, -5.102e-4
-1.041, -5.167e-4
-1.040, -5.294e-4
-1.039, -5.803e-4
-1.038, -5.427e-4
-1.037, -5.479e-4
-1.036, -5.445e-4
-1.035, -5.444e-4
-1.034, -5.537e-4
-1.033, -5.421e-4
-1.032, -5.551e-4
-1.031, -5.502e-4
-1.030, -5.644e-4
-1.029, -5.659e-4
-1.028, -5.701e-4
-1.027, -5.727e-4
-1.026, -5.849e-4
-1.025, -5.894e-4
-1.024, -5.877e-4
-1.023, -5.952e-4
-1.022, -5.955e-4
-1.021, -6.049e-4
-1.020, -6.069e-4
-1.019, -6.175e-4
-1.018, -6.203e-4
-1.017, -6.176e-4
-1.016, -6.283e-4
-1.015, -6.201e-4
-1.014, -6.376e-4
-1.013, -6.331e-4
-1.012, -6.504e-4
-1.011, -6.651e-4
-1.010, -6.670e-4
-1.009, -6.720e-4
-1.008, -6.756e-4
-1.007, -6.764e-4
-1.006, -6.810e-4
-1.005, -6.898e-4
-1.004, -6.893e-4
-1.003, -7.001e-4
-1.002, -7.095e-4
-1.001, -7.112e-4
