Potential V vs RHE, Current mA cm-2
0.013299999999999867,-0.4384190318281749
0.012299999999999978,-1.8773218949209036
0.011299999999999866,-3.055776407708479
0.010299999999999976,-4.0588067193127895
0.009299999999999864,-4.974124930325469
0.008299999999999974,-5.715433651454749
0.007299999999999862,-6.414301033588076
0.006299999999999972,-7.024041603829907
0.00529999999999986,-7.50504344578402
0.0042999999999999705,-7.984630576438266
0.0032999999999998586,-8.332649556205066
0.0022999999999999687,-8.68208324727173
0.0012999999999998568,-9.073958277334345
0.00029999999999996696,-9.379535918105192
-0.000700000000000145,-9.685113558876042
-0.0017000000000000348,-9.902979099055257
-0.0027000000000001467,-10.120844639234473
-0.0037000000000000366,-10.296268840417738
-0.0047000000000001485,-10.470278330301136
-0.005700000000000038,-10.601846481188586
-0.00670000000000015,-10.731999920776168
-0.00770000000000004,-10.906009410659568
-0.008700000000000152,-11.037577561547016
-0.009700000000000042,-11.1677310011346
-0.010700000000000154,-11.299299152022046
-0.011700000000000044,-11.343155202317865
-0.012700000000000156,-11.385596541313816
-0.013700000000000045,-11.473308641905447
-0.014700000000000157,-11.517164692201263
-0.015700000000000047,-11.604876792792895
-0.01670000000000016,-11.647318131788847
-0.01770000000000005,-11.778886282676295
-0.01870000000000016,-11.82274233297211
-0.01970000000000005,-11.82274233297211
-0.020700000000000163,-11.86659838326793
-0.021700000000000053,-11.86659838326793
-0.022700000000000164,-11.909039722263879
-0.023700000000000054,-11.909039722263879
-0.024700000000000166,-11.996751822855511
-0.025700000000000056,-11.996751822855511
-0.026700000000000168,-12.040607873151327
-0.027700000000000058,-12.084463923447142
-0.02870000000000017,-12.084463923447142
-0.02970000000000006,-12.084463923447142
-0.03070000000000017,-12.084463923447142
-0.03170000000000006,-12.084463923447142
-0.03270000000000017,-12.12831997374296
-0.03370000000000006,-12.170761312738911
-0.034700000000000175,-12.214617363034726
-0.035700000000000065,-12.214617363034726
-0.03670000000000018,-12.214617363034726
-0.03770000000000007,-12.214617363034726
-0.03870000000000018,-12.214617363034726
-0.03970000000000007,-12.214617363034726
-0.04070000000000018,-12.214617363034726
-0.04170000000000007,-12.258473413330542
-0.04270000000000018,-12.302329463626359
-0.04370000000000007,-12.302329463626359
-0.044700000000000184,-12.302329463626359
-0.045700000000000074,-12.258473413330542
-0.046700000000000186,-12.258473413330542
-0.047700000000000076,-12.258473413330542
-0.04870000000000019,-12.302329463626359
-0.04970000000000008,-12.302329463626359
-0.05070000000000019,-12.346185513922174
-0.05170000000000008,-12.346185513922174
-0.05270000000000019,-12.346185513922174
-0.05370000000000008,-12.346185513922174
-0.05470000000000019,-12.302329463626359
-0.05570000000000008,-12.346185513922174
-0.056700000000000195,-12.346185513922174
-0.057700000000000085,-12.346185513922174
-0.058700000000000196,-12.390041564217992
-0.059700000000000086,-12.390041564217992
-0.0607000000000002,-12.390041564217992
-0.06170000000000009,-12.432482903213943
-0.0627000000000002,-12.390041564217992
-0.06370000000000009,-12.390041564217992
-0.0647000000000002,-12.390041564217992
-0.06570000000000009,-12.390041564217992
-0.0667000000000002,-12.432482903213943
-0.0677000000000001,-12.476338953509758
-0.0687000000000002,-12.476338953509758
-0.0697000000000001,-12.476338953509758
-0.07070000000000021,-12.432482903213943
-0.0717000000000001,-12.390041564217992
-0.07270000000000021,-12.432482903213943
-0.0737000000000001,-12.432482903213943
-0.07470000000000021,-12.432482903213943
-0.0757000000000001,-12.476338953509758
-0.07670000000000021,-12.476338953509758
-0.0777000000000001,-12.520195003805576
-0.07870000000000021,-12.520195003805576
-0.0797000000000001,-12.476338953509758
-0.08070000000000022,-12.476338953509758
-0.0817000000000001,-12.476338953509758
-0.08270000000000022,-12.520195003805576
-0.08370000000000011,-12.520195003805576
-0.08470000000000022,-12.56405105410139
-0.08570000000000011,-12.56405105410139
-0.08670000000000022,-12.520195003805576
-0.08770000000000011,-12.520195003805576
-0.08870000000000022,-12.520195003805576
-0.08970000000000011,-12.520195003805576
-0.09070000000000022,-12.520195003805576
-0.09170000000000011,-12.56405105410139
-0.09270000000000023,-12.56405105410139
-0.09370000000000012,-12.56405105410139
-0.09470000000000023,-12.607907104397206
-0.09570000000000012,-12.56405105410139
-0.09670000000000023,-12.56405105410139
-0.09770000000000012,-12.56405105410139
-0.09870000000000023,-12.607907104397206
-0.09970000000000012,-12.607907104397206
-0.10070000000000023,-12.651763154693022
-0.10170000000000012,-12.651763154693022
-0.10270000000000024,-12.651763154693022
-0.10370000000000013,-12.651763154693022
-0.10470000000000024,-12.651763154693022
-0.10570000000000013,-12.651763154693022
-0.10670000000000024,-12.607907104397206
-0.10770000000000013,-12.651763154693022
-0.10870000000000024,-12.694204493688973
-0.10970000000000013,-12.73806054398479
-0.11070000000000024,-12.73806054398479
-0.11170000000000013,-12.694204493688973
-0.11270000000000002,-12.694204493688973
-0.11370000000000013,-12.694204493688973
-0.11470000000000002,-12.694204493688973
-0.11570000000000014,-12.73806054398479
-0.11670000000000003,-12.73806054398479
-0.11770000000000014,-12.781916594280606
-0.11870000000000003,-12.825772644576423
-0.11970000000000014,-12.781916594280606
-0.12070000000000003,-12.781916594280606
-0.12170000000000014,-12.73806054398479
-0.12270000000000003,-12.781916594280606
-0.12370000000000014,-12.781916594280606
-0.12470000000000003,-12.825772644576423
-0.12570000000000014,-12.869628694872238
-0.12670000000000003,-12.869628694872238
-0.12770000000000015,-12.869628694872238
-0.12870000000000004,-12.869628694872238
-0.12970000000000015,-12.869628694872238
-0.13070000000000004,-12.869628694872238
-0.13170000000000015,-12.869628694872238
-0.13270000000000004,-12.913484745168056
-0.13370000000000015,-12.955926084164007
-0.13470000000000004,-12.955926084164007
-0.13570000000000015,-12.955926084164007
-0.13670000000000004,-12.955926084164007
-0.13770000000000016,-12.955926084164007
-0.13870000000000005,-12.99978213445982
-0.13970000000000016,-12.99978213445982
-0.14070000000000005,-12.99978213445982
-0.14170000000000016,-13.043638184755638
-0.14270000000000005,-13.087494235051453
-0.14370000000000016,-13.087494235051453
-0.14470000000000005,-13.087494235051453
-0.14570000000000016,-13.13135028534727
-0.14670000000000005,-13.087494235051453
-0.14770000000000016,-13.13135028534727
-0.14870000000000005,-13.13135028534727
-0.14970000000000017,-13.175206335643086
-0.15070000000000006,-13.175206335643086
-0.15170000000000017,-13.217647674639037
-0.15270000000000006,-13.261503724934855
-0.15370000000000017,-13.261503724934855
-0.15470000000000006,-13.217647674639037
-0.15570000000000017,-13.217647674639037
-0.15670000000000006,-13.261503724934855
-0.15770000000000017,-13.30535977523067
-0.15870000000000006,-13.349215825526485
-0.15970000000000018,-13.3930718758223
-0.16070000000000007,-13.436927926118118
-0.16170000000000018,-13.436927926118118
-0.16270000000000007,-13.436927926118118
-0.16370000000000018,-13.47936926511407
-0.16470000000000007,-13.47936926511407
-0.16570000000000018,-13.523225315409885
-0.16670000000000007,-13.567081365705702
-0.16770000000000018,-13.610937416001518
-0.16870000000000007,-13.654793466297335
-0.16970000000000018,-13.654793466297335
-0.17070000000000007,-13.654793466297335
-0.17170000000000019,-13.698649516593148
-0.17270000000000008,-13.698649516593148
-0.1737000000000002,-13.741090855589102
-0.17470000000000008,-13.828802956180734
-0.1757000000000002,-13.872659006476551
-0.17670000000000008,-13.916515056772363
-0.1777000000000002,-13.916515056772363
-0.17870000000000008,-13.960371107068182
-0.1797000000000002,-13.960371107068182
-0.18070000000000008,-14.002812446064135
-0.1817000000000002,-14.046668496359947
-0.18270000000000008,-14.090524546655764
-0.1837000000000002,-14.13438059695158
-0.1847000000000001,-14.217848563643619
-0.1857000000000002,-14.26028990263957
-0.1867000000000001,-14.30273124163552
-0.1877000000000002,-14.30273124163552
-0.1887000000000001,-14.345172580631472
-0.1897000000000002,-14.401761032626075
-0.1907000000000001,-14.444202371622024
-0.1917000000000001,-14.529085049613924
-0.19269999999999998,-14.57152638860988
-0.1937000000000001,-14.65640906660178
-0.19469999999999998,-14.69885040559773
-0.1957000000000001,-14.741291744593681
-0.19669999999999999,-14.741291744593681
-0.1977000000000001,-14.783733083589633
-0.1987,-14.868615761581536
-0.1997000000000001,-14.967645552572087
-0.2007,-15.05252823056399
-0.2017000000000001,-15.094969569559943
-0.2027,-15.179852247551842
-0.2037000000000001,-15.222293586547794
-0.2047,-15.264734925543747
-0.2057000000000001,-15.307176264539699
-0.2067,-15.448647394526201
-0.2077000000000001,-15.491088733522153
-0.2087,-15.618412750510005
-0.2097000000000001,-15.70329542850191
-0.2107,-15.78817810649381
-0.2117000000000001,-15.830619445489761
-0.2127,-15.91550212348166
-0.2137000000000001,-15.972090575476265
-0.2147,-16.056973253468165
-0.2157000000000001,-16.22673860945197
-0.2167,-16.311621287443874
-0.21770000000000012,-16.396503965435777
-0.2187,-16.53797509542228
-0.21970000000000012,-16.622857773414182
-0.2207,-16.70774045140608
-0.22170000000000012,-16.750181790402035
-0.2227,-16.877505807389888
-0.22370000000000012,-17.018976937376394
-0.2247,-17.103859615368293
-0.22570000000000012,-17.231183632356142
-0.2267,-17.358507649344002
-0.22770000000000012,-17.4433903273359
-0.22870000000000001,-17.584861457322408
-0.22970000000000013,-17.669744135314307
-0.23070000000000002,-17.797068152302163
-0.23170000000000013,-17.924392169290012
-0.23270000000000002,-18.06586329927652
-0.23370000000000013,-18.23562865526032
-0.23470000000000002,-18.40539401124413
-0.23570000000000013,-18.53271802823198
-0.23670000000000002,-18.674189158218486
-0.2376999999999999,-18.80151317520634
-0.23870000000000002,-18.92883719219419
-0.2396999999999999,-19.056161209182044
-0.24070000000000003,-19.2400736781645
-0.24169999999999991,-19.409839034148305
-0.24270000000000003,-19.579604390132108
-0.24369999999999992,-19.763516859114564
-0.24470000000000003,-19.93328221509837
-0.24569999999999992,-20.10304757108217
-0.24670000000000003,-20.244518701068674
-0.24769999999999992,-20.414284057052477
-0.24870000000000003,-20.584049413036283
-0.24969999999999992,-20.85284456001064
-0.25070000000000003,-21.022609915994444
-0.2516999999999999,-21.248963723972853
-0.25270000000000004,-21.461170418952605
-0.2536999999999999,-21.63093577493641
-0.25470000000000004,-21.814848243918867
-0.2556999999999999,-21.98461359990267
-0.25670000000000004,-22.253408746877028
-0.25769999999999993,-22.46561544185678
-0.25870000000000004,-22.72026347583249
-0.25969999999999993,-22.946617283810895
-0.26070000000000004,-23.2012653177866
-0.26169999999999993,-23.427619125765005
-0.26270000000000004,-23.639825820744765
-0.26369999999999993,-23.86617962872317
-0.26470000000000005,-24.120827662698876
-0.26569999999999994,-24.389622809673234
-0.26670000000000005,-24.686712182644893
-0.26769999999999994,-24.95550732961925
-0.26870000000000005,-25.210155363594954
-0.26969999999999994,-25.478950510569312
-0.27070000000000005,-25.73359854454502
-0.27169999999999994,-25.959952352523427
-0.27270000000000005,-26.257041725495082
-0.27369999999999994,-26.568278211465387
-0.27470000000000006,-26.86536758443705
-0.27569999999999995,-27.219045409403304
-0.27670000000000006,-27.530281895373616
-0.27769999999999995,-27.827371268345274
-0.27870000000000006,-28.13860775431558
-0.27969999999999995,-28.393255788291288
-0.28070000000000006,-28.746933613257543
-0.28169999999999995,-29.058170099227848
-0.28270000000000006,-29.440142150191413
-0.28369999999999995,-29.793819975157668
-0.28470000000000006,-30.189939139119886
-0.28569999999999995,-30.529469851087494
-0.28670000000000007,-30.88314767605375
-0.28769999999999996,-31.19438416202406
-0.28870000000000007,-31.533914873991666
-0.28969999999999996,-31.930034037953877
-0.29070000000000007,-32.283711862920136
-0.29169999999999996,-32.70812525287965
-0.29270000000000007,-33.10424441684186
-0.29369999999999996,-33.50036358080407
-0.2947000000000001,-33.89648274476628
-0.29569999999999996,-34.278454795729836
-0.2967000000000001,-34.67457395969205
-0.29769999999999996,-35.07069312365426
-0.2987000000000001,-35.50925362661242
-0.29969999999999997,-35.94781412957058
-0.3007000000000001,-36.37222751953009
-0.30169999999999997,-36.8532293614842
-0.3027000000000001,-37.291789864442364
-0.30369999999999997,-37.687909028404576
-0.3047000000000001,-38.12646953136274
-0.30569999999999997,-38.607471373316855
-0.3067000000000001,-39.046031876275016
-0.3077,-39.51288660523048
-0.3087000000000001,-40.03632978618054
-0.3097,-40.51733162813464
-0.3107000000000001,-41.04077480908471
-0.3117,-41.52177665103883
-0.3127000000000001,-42.00277849299294
-0.3137,-42.526221673943
-0.3147000000000001,-43.007223515897124
-0.3157,-43.57310803584313
-0.3167000000000001,-44.138992555789144
-0.3177,-44.619994397743255
-0.3187000000000001,-45.18587891768927
-0.3197,-45.75176343763528
-0.3207000000000001,-46.3176479575813
-0.3217,-46.84109113853137
-0.3227000000000001,-47.36453431948143
-0.3237,-47.93041883942744
-0.3247000000000001,-48.51045047237211
-0.3257,-49.118776331314066
-0.3267000000000001,-49.72710219025603
-0.3277,-50.2505453712061
-0.3287000000000001,-50.85887123014807
-0.3297,-51.424755750094086
-0.3307000000000001,-52.075522948032
-0.3317,-52.69799591997262
-0.3327000000000001,-53.30632177891458
-0.3337,-53.9570889768525
-0.3347000000000001,-54.65029751378637
-0.3357,-55.31521182472294
-0.3367000000000001,-55.9235376836649
-0.3377,-56.53186354260687
-0.3387000000000001,-57.182630740544774
-0.3397,-57.79095659948675
-0.3407000000000001,-58.45587091042332
-0.3417,-59.14907944735718
-0.3427000000000001,-59.842287984291055
-0.3437,-60.54964363422357
-0.3447000000000001,-61.242852171157445
-0.3457,-61.89361936909536
-0.3467000000000001,-62.544386567033264
-0.3477,-63.29418355596174
-0.3487000000000001,-64.02983343189156
-0.3497,-64.77963042082003
-0.3507000000000001,-65.51528029674984
-0.3517,-66.16604749468777
-0.3527000000000001,-66.91584448361623
-0.3537,-67.6090530205501
-0.3547000000000001,-68.34470289647993
-0.3557,-69.0944998854084
-0.35670000000000013,-69.78770842234226
-0.3577,-70.57994675026669
-0.35870000000000013,-71.31559662619651
-0.3597,-72.15027629311687
-0.36070000000000013,-72.92836750804264
-0.3617,-73.6781644969711
-0.3626999999999999,-74.45625571189689
-0.3637,-75.2484940398213
-0.3646999999999999,-76.02658525474708
-0.3657,-76.86126492166746
-0.3666999999999999,-77.63935613659322
-0.3677,-78.51647714250953
-0.3686999999999999,-79.33700969643127
-0.36970000000000003,-80.21413070234757
-0.3706999999999999,-80.9497805782774
-0.37170000000000003,-81.74201890620182
-0.3726999999999999,-82.61913991211814
-0.37370000000000003,-83.48211380503581
-0.3746999999999999,-84.31679347195619
-0.37570000000000003,-85.17976736487385
-0.3766999999999999,-86.05688837079018
-0.37770000000000004,-86.93400937670651
-0.3786999999999999,-87.79698326962418
-0.37970000000000004,-88.6741042755405
-0.3806999999999999,-89.50878394246087
-0.38170000000000004,-90.41419917437449
-0.38269999999999993,-91.29132018029082
-0.38370000000000004,-92.25332386419905
-0.38469999999999993,-93.13044487011537
-0.38570000000000004,-93.99341876303303
-0.38669999999999993,-93.78121206805329
-0.38570000000000004,-91.68743934425302
-0.38469999999999993,-89.98978578441499
-0.38370000000000004,-88.5043389195567
-0.38269999999999993,-87.10377473269031
-0.38170000000000004,-85.97200569279828
-0.3806999999999999,-84.7977953139103
-0.37970000000000004,-83.75090895201016
-0.3786999999999999,-82.6615812511141
-0.37770000000000004,-81.51566509822342
-0.3766999999999999,-80.52536718831789
-0.37570000000000003,-79.52092216541372
-0.3746999999999999,-78.55891848150549
-0.37370000000000003,-77.59691479759726
-0.3726999999999999,-76.63491111368903
-0.37170000000000003,-75.71534876877676
-0.3706999999999999,-74.76749219786718
-0.36970000000000003,-73.80548851395896
-0.3686999999999999,-72.84348483005074
-0.3677,-71.8814811461425
-0.3666999999999999,-71.0043601402262
-0.3657,-70.14138624730852
-0.3646999999999999,-69.26426524139221
-0.3637,-68.34470289647993
-0.3626999999999999,-67.48172900356225
-0.3617,-66.56216665864997
-0.36070000000000013,-65.7274869917296
-0.3597,-64.82207175981598
-0.35870000000000013,-63.902509414903705
-0.3577,-63.06782974798333
-0.35670000000000013,-62.20485585506566
-0.3557,-61.412617527141244
-0.3547000000000001,-60.59208497321952
-0.3537,-59.7149639673032
-0.3527000000000001,-58.880284300382826
-0.3517,-57.974869068469204
-0.3507000000000001,-57.182630740544774
-0.3497,-56.36209818662306
-0.3487000000000001,-55.56985985869864
-0.3477,-54.834209982768826
-0.3467000000000001,-53.999530315848446
-0.3457,-53.16485064892808
-0.3447000000000001,-52.34431809500636
-0.3437,-51.46719708909004
-0.3427000000000001,-50.68910587416426
-0.3417,-49.85442620724389
-0.3407000000000001,-49.118776331314066
-0.3397,-48.32653800338966
-0.3387000000000001,-47.590888127459834
-0.3377,-46.84109113853137
-0.3367000000000001,-46.10544126260155
-0.3357,-45.32735004767578
-0.3347000000000001,-44.535111719751356
-0.3337,-43.79946184382153
-0.3327000000000001,-43.04966485489307
-0.3317,-42.3564563179592
-0.3307000000000001,-41.66324778102533
-0.3297,-40.91345079209687
-0.3287000000000001,-40.177800916167044
-0.3277,-39.47044526623452
-0.3267000000000001,-38.734795390304704
-0.3257,-38.08402819236679
-0.3247000000000001,-37.376672542434264
-0.3237,-36.725905344496354
-0.3227000000000001,-36.07513814655844
-0.3217,-35.38192960962457
-0.3207000000000001,-34.67457395969205
-0.3197,-33.98136542275818
-0.3187000000000001,-33.330598224820264
-0.3177,-32.62324257488775
-0.3167000000000001,-32.01491671594578
-0.3157,-31.36414951800786
-0.3147000000000001,-30.7558236590659
-0.3137,-30.189939139119886
-0.3127000000000001,-29.525024828183312
-0.3117,-28.91669896924135
-0.3107000000000001,-28.22349043230748
-0.3097,-27.615164573365515
-0.3087000000000001,-27.00683871442355
-0.3077,-26.440954194477534
-0.3067000000000001,-25.86092256153287
-0.30569999999999997,-25.295038041586857
-0.3047000000000001,-24.686712182644893
-0.30369999999999997,-24.120827662698876
-0.3027000000000001,-23.51250180375691
-0.30169999999999997,-22.946617283810895
-0.3007000000000001,-22.38073276386488
-0.29969999999999997,-21.814848243918867
-0.2987000000000001,-21.291405062968803
-0.29769999999999996,-20.810403221014692
-0.2967000000000001,-20.244518701068674
-0.29569999999999996,-19.678634181122664
-0.2947000000000001,-19.155191000172596
-0.29369999999999996,-18.589306480226583
-0.29270000000000007,-18.06586329927652
-0.29169999999999996,-17.542420118326454
-0.29070000000000007,-17.061418276372343
-0.28969999999999996,-16.580416434418233
-0.28870000000000007,-16.099414592464115
-0.28769999999999996,-15.618412750510005
-0.28670000000000007,-15.094969569559943
-0.28569999999999995,-14.61396772760583
-0.28470000000000006,-14.090524546655764
-0.28369999999999995,-13.610937416001518
-0.28270000000000006,-13.217647674639037
-0.28169999999999995,-12.73806054398479
-0.28070000000000006,-12.302329463626359
-0.27969999999999995,-11.86659838326793
-0.27870000000000006,-11.385596541313816
-0.27769999999999995,-10.949865460955383
-0.27670000000000006,-10.470278330301136
-0.27569999999999995,-10.034547249942705
-0.27470000000000006,-9.641257508580225
-0.27369999999999994,-9.24938247851761
-0.27270000000000005,-8.85609273715513
-0.27169999999999994,-8.464217707092514
-0.27070000000000005,-8.027071915434218
-0.26969999999999994,-7.635196885371603
-0.26870000000000005,-7.243321855308987
