Aug. 30, 2024   12:53:51
Linear Sweep Voltammetry
File: c:/users/guazh/data/20240829_batch_215_500/2024-08-29-exp220\1acid_1ac-2024-08-30t12_50_45-lsvinphos\1acid_1ac_lsv_50mvs_efin_-2100mv.bin
Data Source:  Experiment
Instrument Model:  CHI760E
Header: LSV ran at 50 mVs with Efin at -2100mV
Note: 

Init E (V) = -0.6
Final E (V) = -2.1
Scan Rate (V/s) = 0.05
Sample Interval (V) = 0.001
Quiet Time (sec) = 2
Sensitivity (A/V) = 1e-4
Comp R (ohm) = 7.0

Results:

Channel 1:
Ep = -2.043V
ip = 5.397e-4A
Ah = 7.924e-4C

Potential/V, Current/A

-0.600, 2.991e-6
-0.601, 3.103e-6
-0.602, 3.163e-6
-0.603, 3.205e-6
-0.604, 3.242e-6
-0.605, 3.275e-6
-0.606, 3.309e-6
-0.607, 3.341e-6
-0.608, 3.375e-6
-0.609, 3.407e-6
-0.610, 3.438e-6
-0.611, 3.467e-6
-0.612, 3.498e-6
-0.613, 3.528e-6
-0.614, 3.560e-6
-0.615, 3.593e-6
-0.616, 3.622e-6
-0.617, 3.654e-6
-0.618, 3.683e-6
-0.619, 3.715e-6
-0.620, 3.746e-6
-0.621, 3.776e-6
-0.622, 3.809e-6
-0.623, 3.840e-6
-0.624, 3.873e-6
-0.625, 3.905e-6
-0.626, 3.934e-6
-0.627, 3.968e-6
-0.628, 4.000e-6
-0.629, 4.031e-6
-0.630, 4.064e-6
-0.631, 4.096e-6
-0.632, 4.128e-6
-0.633, 4.161e-6
-0.634, 4.192e-6
-0.635, 4.225e-6
-0.636, 4.256e-6
-0.637, 4.290e-6
-0.638, 4.325e-6
-0.639, 4.357e-6
-0.640, 4.394e-6
-0.641, 4.428e-6
-0.642, 4.462e-6
-0.643, 4.498e-6
-0.644, 4.534e-6
-0.645, 4.569e-6
-0.646, 4.604e-6
-0.647, 4.639e-6
-0.648, 4.674e-6
-0.649, 4.710e-6
-0.650, 4.745e-6
-0.651, 4.781e-6
-0.652, 4.816e-6
-0.653, 4.854e-6
-0.654, 4.887e-6
-0.655, 4.924e-6
-0.656, 4.961e-6
-0.657, 4.998e-6
-0.658, 5.036e-6
-0.659, 5.073e-6
-0.660, 5.110e-6
-0.661, 5.145e-6
-0.662, 5.184e-6
-0.663, 5.221e-6
-0.664, 5.257e-6
-0.665, 5.297e-6
-0.666, 5.335e-6
-0.667, 5.373e-6
-0.668, 5.409e-6
-0.669, 5.446e-6
-0.670, 5.485e-6
-0.671, 5.522e-6
-0.672, 5.560e-6
-0.673, 5.600e-6
-0.674, 5.637e-6
-0.675, 5.675e-6
-0.676, 5.712e-6
-0.677, 5.751e-6
-0.678, 5.790e-6
-0.679, 5.828e-6
-0.680, 5.867e-6
-0.681, 5.903e-6
-0.682, 5.936e-6
-0.683, 5.975e-6
-0.684, 6.012e-6
-0.685, 6.052e-6
-0.686, 6.089e-6
-0.687, 6.128e-6
-0.688, 6.164e-6
-0.689, 6.199e-6
-0.690, 6.235e-6
-0.691, 6.272e-6
-0.692, 6.310e-6
-0.693, 6.347e-6
-0.694, 6.385e-6
-0.695, 6.422e-6
-0.696, 6.458e-6
-0.697, 6.495e-6
-0.698, 6.531e-6
-0.699, 6.569e-6
-0.700, 6.604e-6
-0.701, 6.639e-6
-0.702, 6.675e-6
-0.703, 6.711e-6
-0.704, 6.747e-6
-0.705, 6.782e-6
-0.706, 6.817e-6
-0.707, 6.851e-6
-0.708, 6.885e-6
-0.709, 6.918e-6
-0.710, 6.953e-6
-0.711, 6.986e-6
-0.712, 7.018e-6
-0.713, 7.052e-6
-0.714, 7.084e-6
-0.715, 7.118e-6
-0.716, 7.149e-6
-0.717, 7.181e-6
-0.718, 7.213e-6
-0.719, 7.241e-6
-0.720, 7.273e-6
-0.721, 7.302e-6
-0.722, 7.332e-6
-0.723, 7.362e-6
-0.724, 7.390e-6
-0.725, 7.418e-6
-0.726, 7.447e-6
-0.727, 7.475e-6
-0.728, 7.503e-6
-0.729, 7.531e-6
-0.730, 7.557e-6
-0.731, 7.583e-6
-0.732, 7.609e-6
-0.733, 7.635e-6
-0.734, 7.660e-6
-0.735, 7.683e-6
-0.736, 7.709e-6
-0.737, 7.733e-6
-0.738, 7.756e-6
-0.739, 7.778e-6
-0.740, 7.799e-6
-0.741, 7.821e-6
-0.742, 7.844e-6
-0.743, 7.865e-6
-0.744, 7.884e-6
-0.745, 7.905e-6
-0.746, 7.923e-6
-0.747, 7.943e-6
-0.748, 7.960e-6
-0.749, 7.978e-6
-0.750, 7.997e-6
-0.751, 8.012e-6
-0.752, 8.029e-6
-0.753, 8.043e-6
-0.754, 8.057e-6
-0.755, 8.073e-6
-0.756, 8.087e-6
-0.757, 8.100e-6
-0.758, 8.114e-6
-0.759, 8.125e-6
-0.760, 8.137e-6
-0.761, 8.149e-6
-0.762, 8.161e-6
-0.763, 8.172e-6
-0.764, 8.182e-6
-0.765, 8.191e-6
-0.766, 8.202e-6
-0.767, 8.211e-6
-0.768, 8.221e-6
-0.769, 8.231e-6
-0.770, 8.237e-6
-0.771, 8.243e-6
-0.772, 8.249e-6
-0.773, 8.254e-6
-0.774, 8.260e-6
-0.775, 8.264e-6
-0.776, 8.267e-6
-0.777, 8.271e-6
-0.778, 8.274e-6
-0.779, 8.277e-6
-0.780, 8.281e-6
-0.781, 8.282e-6
-0.782, 8.286e-6
-0.783, 8.284e-6
-0.784, 8.285e-6
-0.785, 8.286e-6
-0.786, 8.285e-6
-0.787, 8.286e-6
-0.788, 8.285e-6
-0.789, 8.283e-6
-0.790, 8.282e-6
-0.791, 8.279e-6
-0.792, 8.277e-6
-0.793, 8.274e-6
-0.794, 8.271e-6
-0.795, 8.269e-6
-0.796, 8.264e-6
-0.797, 8.261e-6
-0.798, 8.256e-6
-0.799, 8.250e-6
-0.800, 8.245e-6
-0.801, 8.239e-6
-0.802, 8.233e-6
-0.803, 8.227e-6
-0.804, 8.219e-6
-0.805, 8.213e-6
-0.806, 8.207e-6
-0.807, 8.203e-6
-0.808, 8.222e-6
-0.809, 8.207e-6
-0.810, 8.192e-6
-0.811, 8.179e-6
-0.812, 8.168e-6
-0.813, 8.157e-6
-0.814, 8.147e-6
-0.815, 8.138e-6
-0.816, 8.127e-6
-0.817, 8.118e-6
-0.818, 8.108e-6
-0.819, 8.100e-6
-0.820, 8.093e-6
-0.821, 8.080e-6
-0.822, 8.069e-6
-0.823, 8.057e-6
-0.824, 8.048e-6
-0.825, 8.037e-6
-0.826, 8.025e-6
-0.827, 8.014e-6
-0.828, 8.004e-6
-0.829, 7.993e-6
-0.830, 7.982e-6
-0.831, 7.970e-6
-0.832, 7.959e-6
-0.833, 7.947e-6
-0.834, 7.934e-6
-0.835, 7.923e-6
-0.836, 7.912e-6
-0.837, 7.900e-6
-0.838, 7.888e-6
-0.839, 7.875e-6
-0.840, 7.864e-6
-0.841, 7.852e-6
-0.842, 7.841e-6
-0.843, 7.829e-6
-0.844, 7.816e-6
-0.845, 7.805e-6
-0.846, 7.794e-6
-0.847, 7.782e-6
-0.848, 7.769e-6
-0.849, 7.758e-6
-0.850, 7.746e-6
-0.851, 7.733e-6
-0.852, 7.723e-6
-0.853, 7.710e-6
-0.854, 7.697e-6
-0.855, 7.685e-6
-0.856, 7.673e-6
-0.857, 7.661e-6
-0.858, 7.649e-6
-0.859, 7.638e-6
-0.860, 7.625e-6
-0.861, 7.615e-6
-0.862, 7.604e-6
-0.863, 7.591e-6
-0.864, 7.579e-6
-0.865, 7.569e-6
-0.866, 7.556e-6
-0.867, 7.546e-6
-0.868, 7.535e-6
-0.869, 7.523e-6
-0.870, 7.513e-6
-0.871, 7.503e-6
-0.872, 7.490e-6
-0.873, 7.479e-6
-0.874, 7.469e-6
-0.875, 7.458e-6
-0.876, 7.447e-6
-0.877, 7.436e-6
-0.878, 7.426e-6
-0.879, 7.415e-6
-0.880, 7.405e-6
-0.881, 7.394e-6
-0.882, 7.384e-6
-0.883, 7.375e-6
-0.884, 7.365e-6
-0.885, 7.356e-6
-0.886, 7.345e-6
-0.887, 7.335e-6
-0.888, 7.326e-6
-0.889, 7.315e-6
-0.890, 7.306e-6
-0.891, 7.296e-6
-0.892, 7.287e-6
-0.893, 7.277e-6
-0.894, 7.268e-6
-0.895, 7.260e-6
-0.896, 7.252e-6
-0.897, 7.244e-6
-0.898, 7.234e-6
-0.899, 7.227e-6
-0.900, 7.218e-6
-0.901, 7.208e-6
-0.902, 7.201e-6
-0.903, 7.192e-6
-0.904, 7.182e-6
-0.905, 7.175e-6
-0.906, 7.165e-6
-0.907, 7.159e-6
-0.908, 7.150e-6
-0.909, 7.144e-6
-0.910, 7.135e-6
-0.911, 7.126e-6
-0.912, 7.119e-6
-0.913, 7.112e-6
-0.914, 7.103e-6
-0.915, 7.097e-6
-0.916, 7.089e-6
-0.917, 7.082e-6
-0.918, 7.074e-6
-0.919, 7.068e-6
-0.920, 7.060e-6
-0.921, 7.053e-6
-0.922, 7.047e-6
-0.923, 7.040e-6
-0.924, 7.033e-6
-0.925, 7.027e-6
-0.926, 7.019e-6
-0.927, 7.013e-6
-0.928, 7.006e-6
-0.929, 7.002e-6
-0.930, 6.996e-6
-0.931, 6.989e-6
-0.932, 6.983e-6
-0.933, 6.976e-6
-0.934, 6.970e-6
-0.935, 6.965e-6
-0.936, 6.959e-6
-0.937, 6.955e-6
-0.938, 6.948e-6
-0.939, 6.943e-6
-0.940, 6.937e-6
-0.941, 6.931e-6
-0.942, 6.927e-6
-0.943, 6.921e-6
-0.944, 6.915e-6
-0.945, 6.912e-6
-0.946, 6.904e-6
-0.947, 6.902e-6
-0.948, 6.897e-6
-0.949, 6.892e-6
-0.950, 6.889e-6
-0.951, 6.884e-6
-0.952, 6.879e-6
-0.953, 6.874e-6
-0.954, 6.870e-6
-0.955, 6.867e-6
-0.956, 6.862e-6
-0.957, 6.858e-6
-0.958, 6.855e-6
-0.959, 6.849e-6
-0.960, 6.847e-6
-0.961, 6.842e-6
-0.962, 6.838e-6
-0.963, 6.835e-6
-0.964, 6.829e-6
-0.965, 6.825e-6
-0.966, 6.823e-6
-0.967, 6.819e-6
-0.968, 6.815e-6
-0.969, 6.812e-6
-0.970, 6.807e-6
-0.971, 6.803e-6
-0.972, 6.801e-6
-0.973, 6.800e-6
-0.974, 6.797e-6
-0.975, 6.793e-6
-0.976, 6.790e-6
-0.977, 6.789e-6
-0.978, 6.785e-6
-0.979, 6.781e-6
-0.980, 6.777e-6
-0.981, 6.773e-6
-0.982, 6.773e-6
-0.983, 6.768e-6
-0.984, 6.766e-6
-0.985, 6.763e-6
-0.986, 6.759e-6
-0.987, 6.758e-6
-0.988, 6.754e-6
-0.989, 6.752e-6
-0.990, 6.750e-6
-0.991, 6.745e-6
-0.992, 6.745e-6
-0.993, 6.743e-6
-0.994, 6.739e-6
-0.995, 6.738e-6
-0.996, 6.734e-6
-0.997, 6.732e-6
-0.998, 6.731e-6
-0.999, 6.729e-6
-1.000, 6.728e-6
-1.001, 6.724e-6
-1.002, 6.722e-6
-1.003, 6.720e-6
-1.004, 6.720e-6
-1.005, 6.718e-6
-1.006, 6.714e-6
-1.007, 6.712e-6
-1.008, 6.710e-6
-1.009, 6.709e-6
-1.010, 6.707e-6
-1.011, 6.707e-6
-1.012, 6.705e-6
-1.013, 6.703e-6
-1.014, 6.701e-6
-1.015, 6.700e-6
-1.016, 6.698e-6
-1.017, 6.697e-6
-1.018, 6.694e-6
-1.019, 6.694e-6
-1.020, 6.694e-6
-1.021, 6.692e-6
-1.022, 6.692e-6
-1.023, 6.689e-6
-1.024, 6.690e-6
-1.025, 6.689e-6
-1.026, 6.687e-6
-1.027, 6.687e-6
-1.028, 6.686e-6
-1.029, 6.684e-6
-1.030, 6.684e-6
-1.031, 6.680e-6
-1.032, 6.680e-6
-1.033, 6.679e-6
-1.034, 6.677e-6
-1.035, 6.678e-6
-1.036, 6.675e-6
-1.037, 6.676e-6
-1.038, 6.675e-6
-1.039, 6.674e-6
-1.040, 6.674e-6
-1.041, 6.672e-6
-1.042, 6.673e-6
-1.043, 6.672e-6
-1.044, 6.671e-6
-1.045, 6.671e-6
-1.046, 6.671e-6
-1.047, 6.669e-6
-1.048, 6.670e-6
-1.049, 6.669e-6
-1.050, 6.670e-6
-1.051, 6.669e-6
-1.052, 6.670e-6
-1.053, 6.670e-6
-1.054, 6.669e-6
-1.055, 6.668e-6
-1.056, 6.668e-6
-1.057, 6.669e-6
-1.058, 6.667e-6
-1.059, 6.668e-6
-1.060, 6.670e-6
-1.061, 6.668e-6
-1.062, 6.670e-6
-1.063, 6.670e-6
-1.064, 6.670e-6
-1.065, 6.672e-6
-1.066, 6.671e-6
-1.067, 6.672e-6
-1.068, 6.672e-6
-1.069, 6.673e-6
-1.070, 6.675e-6
-1.071, 6.675e-6
-1.072, 6.676e-6
-1.073, 6.676e-6
-1.074, 6.677e-6
-1.075, 6.681e-6
-1.076, 6.683e-6
-1.077, 6.682e-6
-1.078, 6.684e-6
-1.079, 6.685e-6
-1.080, 6.686e-6
-1.081, 6.687e-6
-1.082, 6.687e-6
-1.083, 6.689e-6
-1.084, 6.691e-6
-1.085, 6.693e-6
-1.086, 6.695e-6
-1.087, 6.695e-6
-1.088, 6.698e-6
-1.089, 6.701e-6
-1.090, 6.703e-6
-1.091, 6.704e-6
-1.092, 6.707e-6
-1.093, 6.709e-6
-1.094, 6.711e-6
-1.095, 6.713e-6
-1.096, 6.714e-6
-1.097, 6.717e-6
-1.098, 6.719e-6
-1.099, 6.723e-6
-1.100, 6.725e-6
-1.101, 6.728e-6
-1.102, 6.731e-6
-1.103, 6.734e-6
-1.104, 6.736e-6
-1.105, 6.740e-6
-1.106, 6.742e-6
-1.107, 6.747e-6
-1.108, 6.750e-6
-1.109, 6.753e-6
-1.110, 6.758e-6
-1.111, 6.759e-6
-1.112, 6.764e-6
-1.113, 6.768e-6
-1.114, 6.772e-6
-1.115, 6.777e-6
-1.116, 6.781e-6
-1.117, 6.784e-6
-1.118, 6.788e-6
-1.119, 6.793e-6
-1.120, 6.798e-6
-1.121, 6.802e-6
-1.122, 6.806e-6
-1.123, 6.809e-6
-1.124, 6.814e-6
-1.125, 6.819e-6
-1.126, 6.825e-6
-1.127, 6.828e-6
-1.128, 6.835e-6
-1.129, 6.840e-6
-1.130, 6.845e-6
-1.131, 6.849e-6
-1.132, 6.854e-6
-1.133, 6.860e-6
-1.134, 6.866e-6
-1.135, 6.870e-6
-1.136, 6.875e-6
-1.137, 6.881e-6
-1.138, 6.886e-6
-1.139, 6.892e-6
-1.140, 6.898e-6
-1.141, 6.903e-6
-1.142, 6.910e-6
-1.143, 6.916e-6
-1.144, 6.922e-6
-1.145, 6.928e-6
-1.146, 6.934e-6
-1.147, 6.941e-6
-1.148, 6.947e-6
-1.149, 6.955e-6
-1.150, 6.962e-6
-1.151, 6.968e-6
-1.152, 6.976e-6
-1.153, 6.983e-6
-1.154, 6.990e-6
-1.155, 6.998e-6
-1.156, 7.004e-6
-1.157, 7.011e-6
-1.158, 7.018e-6
-1.159, 7.026e-6
-1.160, 7.034e-6
-1.161, 7.042e-6
-1.162, 7.050e-6
-1.163, 7.060e-6
-1.164, 7.067e-6
-1.165, 7.073e-6
-1.166, 7.082e-6
-1.167, 7.091e-6
-1.168, 7.098e-6
-1.169, 7.107e-6
-1.170, 7.116e-6
-1.171, 7.125e-6
-1.172, 7.133e-6
-1.173, 7.142e-6
-1.174, 7.152e-6
-1.175, 7.161e-6
-1.176, 7.170e-6
-1.177, 7.181e-6
-1.178, 7.191e-6
-1.179, 7.201e-6
-1.180, 7.211e-6
-1.181, 7.219e-6
-1.182, 7.230e-6
-1.183, 7.238e-6
-1.184, 7.248e-6
-1.185, 7.258e-6
-1.186, 7.266e-6
-1.187, 7.278e-6
-1.188, 7.287e-6
-1.189, 7.297e-6
-1.190, 7.309e-6
-1.191, 7.318e-6
-1.192, 7.330e-6
-1.193, 7.341e-6
-1.194, 7.351e-6
-1.195, 7.362e-6
-1.196, 7.374e-6
-1.197, 7.386e-6
-1.198, 7.396e-6
-1.199, 7.406e-6
-1.200, 7.418e-6
-1.201, 7.430e-6
-1.202, 7.442e-6
-1.203, 7.455e-6
-1.204, 7.467e-6
-1.205, 7.479e-6
-1.206, 7.493e-6
-1.207, 7.505e-6
-1.208, 7.517e-6
-1.209, 7.528e-6
-1.210, 7.542e-6
-1.211, 7.552e-6
-1.212, 7.565e-6
-1.213, 7.577e-6
-1.214, 7.590e-6
-1.215, 7.603e-6
-1.216, 7.616e-6
-1.217, 7.631e-6
-1.218, 7.642e-6
-1.219, 7.656e-6
-1.220, 7.670e-6
-1.221, 7.683e-6
-1.222, 7.699e-6
-1.223, 7.711e-6
-1.224, 7.725e-6
-1.225, 7.740e-6
-1.226, 7.753e-6
-1.227, 7.767e-6
-1.228, 7.780e-6
-1.229, 7.799e-6
-1.230, 7.813e-6
-1.231, 7.825e-6
-1.232, 7.840e-6
-1.233, 7.854e-6
-1.234, 7.867e-6
-1.235, 7.882e-6
-1.236, 7.896e-6
-1.237, 7.911e-6
-1.238, 7.927e-6
-1.239, 7.942e-6
-1.240, 7.958e-6
-1.241, 7.974e-6
-1.242, 7.990e-6
-1.243, 8.006e-6
-1.244, 8.021e-6
-1.245, 8.035e-6
-1.246, 8.049e-6
-1.247, 8.065e-6
-1.248, 8.081e-6
-1.249, 8.095e-6
-1.250, 8.111e-6
-1.251, 8.125e-6
-1.252, 8.141e-6
-1.253, 8.156e-6
-1.254, 8.176e-6
-1.255, 8.192e-6
-1.256, 8.210e-6
-1.257, 8.228e-6
-1.258, 8.241e-6
-1.259, 8.259e-6
-1.260, 8.274e-6
-1.261, 8.291e-6
-1.262, 8.309e-6
-1.263, 8.324e-6
-1.264, 8.340e-6
-1.265, 8.357e-6
-1.266, 8.373e-6
-1.267, 8.391e-6
-1.268, 8.405e-6
-1.269, 8.422e-6
-1.270, 8.442e-6
-1.271, 8.456e-6
-1.272, 8.475e-6
-1.273, 8.491e-6
-1.274, 8.508e-6
-1.275, 8.526e-6
-1.276, 8.541e-6
-1.277, 8.560e-6
-1.278, 8.575e-6
-1.279, 8.591e-6
-1.280, 8.610e-6
-1.281, 8.625e-6
-1.282, 8.641e-6
-1.283, 8.659e-6
-1.284, 8.675e-6
-1.285, 8.694e-6
-1.286, 8.711e-6
-1.287, 8.730e-6
-1.288, 8.747e-6
-1.289, 8.767e-6
-1.290, 8.785e-6
-1.291, 8.802e-6
-1.292, 8.820e-6
-1.293, 8.838e-6
-1.294, 8.856e-6
-1.295, 8.872e-6
-1.296, 8.889e-6
-1.297, 8.908e-6
-1.298, 8.924e-6
-1.299, 8.944e-6
-1.300, 8.964e-6
-1.301, 8.981e-6
-1.302, 8.999e-6
-1.303, 9.016e-6
-1.304, 9.035e-6
-1.305, 9.055e-6
-1.306, 9.072e-6
-1.307, 9.092e-6
-1.308, 9.109e-6
-1.309, 9.126e-6
-1.310, 9.146e-6
-1.311, 9.162e-6
-1.312, 9.182e-6
-1.313, 9.200e-6
-1.314, 9.218e-6
-1.315, 9.238e-6
-1.316, 9.257e-6
-1.317, 9.276e-6
-1.318, 9.296e-6
-1.319, 9.315e-6
-1.320, 9.335e-6
-1.321, 9.354e-6
-1.322, 9.371e-6
-1.323, 9.390e-6
-1.324, 9.408e-6
-1.325, 9.428e-6
-1.326, 9.448e-6
-1.327, 9.467e-6
-1.328, 9.486e-6
-1.329, 9.505e-6
-1.330, 9.524e-6
-1.331, 9.544e-6
-1.332, 9.565e-6
-1.333, 9.584e-6
-1.334, 9.604e-6
-1.335, 9.624e-6
-1.336, 9.644e-6
-1.337, 9.664e-6
-1.338, 9.683e-6
-1.339, 9.704e-6
-1.340, 9.724e-6
-1.341, 9.742e-6
-1.342, 9.765e-6
-1.343, 9.784e-6
-1.344, 9.806e-6
-1.345, 9.828e-6
-1.346, 9.847e-6
-1.347, 9.869e-6
-1.348, 9.888e-6
-1.349, 9.908e-6
-1.350, 9.929e-6
-1.351, 9.949e-6
-1.352, 9.970e-6
-1.353, 9.991e-6
-1.354, 1.001e-5
-1.355, 1.003e-5
-1.356, 1.005e-5
-1.357, 1.007e-5
-1.358, 1.009e-5
-1.359, 1.011e-5
-1.360, 1.013e-5
-1.361, 1.016e-5
-1.362, 1.018e-5
-1.363, 1.020e-5
-1.364, 1.022e-5
-1.365, 1.024e-5
-1.366, 1.026e-5
-1.367, 1.028e-5
-1.368, 1.031e-5
-1.369, 1.033e-5
-1.370, 1.035e-5
-1.371, 1.037e-5
-1.372, 1.039e-5
-1.373, 1.042e-5
-1.374, 1.044e-5
-1.375, 1.046e-5
-1.376, 1.048e-5
-1.377, 1.051e-5
-1.378, 1.053e-5
-1.379, 1.055e-5
-1.380, 1.058e-5
-1.381, 1.060e-5
-1.382, 1.062e-5
-1.383, 1.065e-5
-1.384, 1.067e-5
-1.385, 1.070e-5
-1.386, 1.072e-5
-1.387, 1.074e-5
-1.388, 1.077e-5
-1.389, 1.079e-5
-1.390, 1.082e-5
-1.391, 1.084e-5
-1.392, 1.086e-5
-1.393, 1.089e-5
-1.394, 1.091e-5
-1.395, 1.094e-5
-1.396, 1.096e-5
-1.397, 1.099e-5
-1.398, 1.101e-5
-1.399, 1.104e-5
-1.400, 1.106e-5
-1.401, 1.109e-5
-1.402, 1.111e-5
-1.403, 1.114e-5
-1.404, 1.117e-5
-1.405, 1.119e-5
-1.406, 1.122e-5
-1.407, 1.125e-5
-1.408, 1.127e-5
-1.409, 1.130e-5
-1.410, 1.133e-5
-1.411, 1.135e-5
-1.412, 1.138e-5
-1.413, 1.141e-5
-1.414, 1.143e-5
-1.415, 1.146e-5
-1.416, 1.148e-5
-1.417, 1.151e-5
-1.418, 1.153e-5
-1.419, 1.156e-5
-1.420, 1.159e-5
-1.421, 1.161e-5
-1.422, 1.164e-5
-1.423, 1.167e-5
-1.424, 1.170e-5
-1.425, 1.173e-5
-1.426, 1.176e-5
-1.427, 1.179e-5
-1.428, 1.181e-5
-1.429, 1.184e-5
-1.430, 1.187e-5
-1.431, 1.190e-5
-1.432, 1.193e-5
-1.433, 1.196e-5
-1.434, 1.199e-5
-1.435, 1.202e-5
-1.436, 1.204e-5
-1.437, 1.206e-5
-1.438, 1.209e-5
-1.439, 1.212e-5
-1.440, 1.215e-5
-1.441, 1.218e-5
-1.442, 1.221e-5
-1.443, 1.225e-5
-1.444, 1.228e-5
-1.445, 1.231e-5
-1.446, 1.234e-5
-1.447, 1.237e-5
-1.448, 1.240e-5
-1.449, 1.244e-5
-1.450, 1.247e-5
-1.451, 1.250e-5
-1.452, 1.254e-5
-1.453, 1.257e-5
-1.454, 1.260e-5
-1.455, 1.264e-5
-1.456, 1.267e-5
-1.457, 1.271e-5
-1.458, 1.274e-5
-1.459, 1.278e-5
-1.460, 1.281e-5
-1.461, 1.285e-5
-1.462, 1.288e-5
-1.463, 1.292e-5
-1.464, 1.295e-5
-1.465, 1.299e-5
-1.466, 1.302e-5
-1.467, 1.306e-5
-1.468, 1.310e-5
-1.469, 1.313e-5
-1.470, 1.317e-5
-1.471, 1.320e-5
-1.472, 1.324e-5
-1.473, 1.328e-5
-1.474, 1.332e-5
-1.475, 1.336e-5
-1.476, 1.340e-5
-1.477, 1.343e-5
-1.478, 1.347e-5
-1.479, 1.351e-5
-1.480, 1.355e-5
-1.481, 1.359e-5
-1.482, 1.363e-5
-1.483, 1.367e-5
-1.484, 1.371e-5
-1.485, 1.376e-5
-1.486, 1.380e-5
-1.487, 1.384e-5
-1.488, 1.388e-5
-1.489, 1.392e-5
-1.490, 1.397e-5
-1.491, 1.401e-5
-1.492, 1.405e-5
-1.493, 1.409e-5
-1.494, 1.414e-5
-1.495, 1.418e-5
-1.496, 1.422e-5
-1.497, 1.427e-5
-1.498, 1.431e-5
-1.499, 1.436e-5
-1.500, 1.440e-5
-1.501, 1.445e-5
-1.502, 1.449e-5
-1.503, 1.454e-5
-1.504, 1.459e-5
-1.505, 1.464e-5
-1.506, 1.468e-5
-1.507, 1.473e-5
-1.508, 1.478e-5
-1.509, 1.483e-5
-1.510, 1.488e-5
-1.511, 1.493e-5
-1.512, 1.498e-5
-1.513, 1.503e-5
-1.514, 1.508e-5
-1.515, 1.514e-5
-1.516, 1.519e-5
-1.517, 1.524e-5
-1.518, 1.529e-5
-1.519, 1.534e-5
-1.520, 1.540e-5
-1.521, 1.545e-5
-1.522, 1.550e-5
-1.523, 1.556e-5
-1.524, 1.561e-5
-1.525, 1.567e-5
-1.526, 1.573e-5
-1.527, 1.580e-5
-1.528, 1.586e-5
-1.529, 1.591e-5
-1.530, 1.596e-5
-1.531, 1.602e-5
-1.532, 1.608e-5
-1.533, 1.614e-5
-1.534, 1.621e-5
-1.535, 1.627e-5
-1.536, 1.634e-5
-1.537, 1.642e-5
-1.538, 1.646e-5
-1.539, 1.652e-5
-1.540, 1.659e-5
-1.541, 1.664e-5
-1.542, 1.670e-5
-1.543, 1.676e-5
-1.544, 1.683e-5
-1.545, 1.689e-5
-1.546, 1.695e-5
-1.547, 1.702e-5
-1.548, 1.709e-5
-1.549, 1.716e-5
-1.550, 1.723e-5
-1.551, 1.730e-5
-1.552, 1.737e-5
-1.553, 1.744e-5
-1.554, 1.751e-5
-1.555, 1.758e-5
-1.556, 1.765e-5
-1.557, 1.772e-5
-1.558, 1.780e-5
-1.559, 1.787e-5
-1.560, 1.795e-5
-1.561, 1.802e-5
-1.562, 1.810e-5
-1.563, 1.818e-5
-1.564, 1.826e-5
-1.565, 1.834e-5
-1.566, 1.842e-5
-1.567, 1.850e-5
-1.568, 1.858e-5
-1.569, 1.866e-5
-1.570, 1.874e-5
-1.571, 1.883e-5
-1.572, 1.891e-5
-1.573, 1.900e-5
-1.574, 1.909e-5
-1.575, 1.918e-5
-1.576, 1.926e-5
-1.577, 1.935e-5
-1.578, 1.944e-5
-1.579, 1.954e-5
-1.580, 1.963e-5
-1.581, 1.972e-5
-1.582, 1.982e-5
-1.583, 1.992e-5
-1.584, 2.001e-5
-1.585, 2.011e-5
-1.586, 2.021e-5
-1.587, 2.031e-5
-1.588, 2.042e-5
-1.589, 2.052e-5
-1.590, 2.063e-5
-1.591, 2.073e-5
-1.592, 2.084e-5
-1.593, 2.095e-5
-1.594, 2.105e-5
-1.595, 2.117e-5
-1.596, 2.128e-5
-1.597, 2.139e-5
-1.598, 2.150e-5
-1.599, 2.162e-5
-1.600, 2.174e-5
-1.601, 2.186e-5
-1.602, 2.197e-5
-1.603, 2.210e-5
-1.604, 2.223e-5
-1.605, 2.235e-5
-1.606, 2.247e-5
-1.607, 2.260e-5
-1.608, 2.273e-5
-1.609, 2.286e-5
-1.610, 2.300e-5
-1.611, 2.313e-5
-1.612, 2.326e-5
-1.613, 2.340e-5
-1.614, 2.354e-5
-1.615, 2.367e-5
-1.616, 2.381e-5
-1.617, 2.396e-5
-1.618, 2.411e-5
-1.619, 2.425e-5
-1.620, 2.440e-5
-1.621, 2.454e-5
-1.622, 2.469e-5
-1.623, 2.484e-5
-1.624, 2.499e-5
-1.625, 2.515e-5
-1.626, 2.530e-5
-1.627, 2.546e-5
-1.628, 2.562e-5
-1.629, 2.578e-5
-1.630, 2.595e-5
-1.631, 2.611e-5
-1.632, 2.628e-5
-1.633, 2.646e-5
-1.634, 2.662e-5
-1.635, 2.680e-5
-1.636, 2.699e-5
-1.637, 2.716e-5
-1.638, 2.733e-5
-1.639, 2.752e-5
-1.640, 2.770e-5
-1.641, 2.788e-5
-1.642, 2.807e-5
-1.643, 2.826e-5
-1.644, 2.845e-5
-1.645, 2.865e-5
-1.646, 2.885e-5
-1.647, 2.905e-5
-1.648, 2.925e-5
-1.649, 2.945e-5
-1.650, 2.966e-5
-1.651, 2.986e-5
-1.652, 3.008e-5
-1.653, 3.031e-5
-1.654, 3.053e-5
-1.655, 3.076e-5
-1.656, 3.098e-5
-1.657, 3.119e-5
-1.658, 3.142e-5
-1.659, 3.165e-5
-1.660, 3.190e-5
-1.661, 3.213e-5
-1.662, 3.237e-5
-1.663, 3.261e-5
-1.664, 3.286e-5
-1.665, 3.312e-5
-1.666, 3.338e-5
-1.667, 3.365e-5
-1.668, 3.391e-5
-1.669, 3.418e-5
-1.670, 3.445e-5
-1.671, 3.473e-5
-1.672, 3.501e-5
-1.673, 3.528e-5
-1.674, 3.556e-5
-1.675, 3.585e-5
-1.676, 3.614e-5
-1.677, 3.643e-5
-1.678, 3.674e-5
-1.679, 3.705e-5
-1.680, 3.735e-5
-1.681, 3.767e-5
-1.682, 3.798e-5
-1.683, 3.832e-5
-1.684, 3.862e-5
-1.685, 3.892e-5
-1.686, 3.925e-5
-1.687, 3.960e-5
-1.688, 3.993e-5
-1.689, 4.026e-5
-1.690, 4.061e-5
-1.691, 4.096e-5
-1.692, 4.133e-5
-1.693, 4.167e-5
-1.694, 4.203e-5
-1.695, 4.240e-5
-1.696, 4.278e-5
-1.697, 4.316e-5
-1.698, 4.354e-5
-1.699, 4.393e-5
-1.700, 4.433e-5
-1.701, 4.475e-5
-1.702, 4.517e-5
-1.703, 4.559e-5
-1.704, 4.599e-5
-1.705, 4.642e-5
-1.706, 4.687e-5
-1.707, 4.734e-5
-1.708, 4.776e-5
-1.709, 4.821e-5
-1.710, 4.865e-5
-1.711, 4.910e-5
-1.712, 4.954e-5
-1.713, 5.000e-5
-1.714, 5.049e-5
-1.715, 5.100e-5
-1.716, 5.150e-5
-1.717, 5.199e-5
-1.718, 5.251e-5
-1.719, 5.301e-5
-1.720, 5.320e-5
-1.721, 5.337e-5
-1.722, 5.374e-5
-1.723, 5.422e-5
-1.724, 5.471e-5
-1.725, 5.521e-5
-1.726, 5.573e-5
-1.727, 5.627e-5
-1.728, 5.661e-5
-1.729, 5.680e-5
-1.730, 5.741e-5
-1.731, 5.800e-5
-1.732, 5.850e-5
-1.733, 5.911e-5
-1.734, 5.973e-5
-1.735, 6.034e-5
-1.736, 6.097e-5
-1.737, 6.160e-5
-1.738, 6.228e-5
-1.739, 6.307e-5
-1.740, 6.381e-5
-1.741, 6.445e-5
-1.742, 6.513e-5
-1.743, 6.582e-5
-1.744, 6.649e-5
-1.745, 6.711e-5
-1.746, 6.776e-5
-1.747, 6.848e-5
-1.748, 6.924e-5
-1.749, 7.007e-5
-1.750, 7.076e-5
-1.751, 7.152e-5
-1.752, 7.232e-5
-1.753, 7.318e-5
-1.754, 7.410e-5
-1.755, 7.483e-5
-1.756, 7.542e-5
-1.757, 7.587e-5
-1.758, 7.658e-5
-1.759, 7.737e-5
-1.760, 7.822e-5
-1.761, 7.909e-5
-1.762, 7.990e-5
-1.763, 8.065e-5
-1.764, 8.150e-5
-1.765, 8.242e-5
-1.766, 8.340e-5
-1.767, 8.430e-5
-1.768, 8.520e-5
-1.769, 8.614e-5
-1.770, 8.716e-5
-1.771, 8.813e-5
-1.772, 8.908e-5
-1.773, 8.996e-5
-1.774, 9.099e-5
-1.775, 9.200e-5
-1.776, 9.317e-5
-1.777, 9.431e-5
-1.778, 9.542e-5
-1.779, 9.654e-5
-1.780, 9.754e-5
-1.781, 9.847e-5
-1.782, 9.943e-5
-1.783, 1.006e-4
-1.784, 1.019e-4
-1.785, 1.029e-4
-1.786, 1.039e-4
-1.787, 1.050e-4
-1.788, 1.060e-4
-1.789, 1.072e-4
-1.790, 1.084e-4
-1.791, 1.096e-4
-1.792, 1.110e-4
-1.793, 1.121e-4
-1.794, 1.132e-4
-1.795, 1.144e-4
-1.796, 1.158e-4
-1.797, 1.170e-4
-1.798, 1.182e-4
-1.799, 1.194e-4
-1.800, 1.206e-4
-1.801, 1.218e-4
-1.802, 1.229e-4
-1.803, 1.242e-4
-1.804, 1.257e-4
-1.805, 1.272e-4
-1.806, 1.286e-4
-1.807, 1.298e-4
-1.808, 1.312e-4
-1.809, 1.325e-4
-1.810, 1.339e-4
-1.811, 1.355e-4
-1.812, 1.370e-4
-1.813, 1.383e-4
-1.814, 1.397e-4
-1.815, 1.412e-4
-1.816, 1.427e-4
-1.817, 1.442e-4
-1.818, 1.456e-4
-1.819, 1.473e-4
-1.820, 1.491e-4
-1.821, 1.507e-4
-1.822, 1.523e-4
-1.823, 1.538e-4
-1.824, 1.553e-4
-1.825, 1.569e-4
-1.826, 1.586e-4
-1.827, 1.602e-4
-1.828, 1.620e-4
-1.829, 1.637e-4
-1.830, 1.654e-4
-1.831, 1.670e-4
-1.832, 1.687e-4
-1.833, 1.704e-4
-1.834, 1.723e-4
-1.835, 1.742e-4
-1.836, 1.758e-4
-1.837, 1.775e-4
-1.838, 1.792e-4
-1.839, 1.810e-4
-1.840, 1.828e-4
-1.841, 1.844e-4
-1.842, 1.860e-4
-1.843, 1.876e-4
-1.844, 1.896e-4
-1.845, 1.916e-4
-1.846, 1.934e-4
-1.847, 1.949e-4
-1.848, 1.964e-4
-1.849, 1.982e-4
-1.850, 2.003e-4
-1.851, 2.024e-4
-1.852, 2.044e-4
-1.853, 2.065e-4
-1.854, 2.084e-4
-1.855, 2.105e-4
-1.856, 2.127e-4
-1.857, 2.150e-4
-1.858, 2.172e-4
-1.859, 2.194e-4
-1.860, 2.216e-4
-1.861, 2.237e-4
-1.862, 2.258e-4
-1.863, 2.278e-4
-1.864, 2.299e-4
-1.865, 2.322e-4
-1.866, 2.345e-4
-1.867, 2.370e-4
-1.868, 2.394e-4
-1.869, 2.416e-4
-1.870, 2.440e-4
-1.871, 2.465e-4
-1.872, 2.489e-4
-1.873, 2.516e-4
-1.874, 2.541e-4
-1.875, 2.565e-4
-1.876, 2.590e-4
-1.877, 2.616e-4
-1.878, 2.643e-4
-1.879, 2.668e-4
-1.880, 2.693e-4
-1.881, 2.719e-4
-1.882, 2.742e-4
-1.883, 2.765e-4
-1.884, 2.790e-4
-1.885, 2.816e-4
-1.886, 2.842e-4
-1.887, 2.870e-4
-1.888, 2.897e-4
-1.889, 2.928e-4
-1.890, 2.958e-4
-1.891, 2.987e-4
-1.892, 3.016e-4
-1.893, 3.043e-4
-1.894, 3.071e-4
-1.895, 3.097e-4
-1.896, 3.126e-4
-1.897, 3.158e-4
-1.898, 3.189e-4
-1.899, 3.219e-4
-1.900, 3.250e-4
-1.901, 3.283e-4
-1.902, 3.315e-4
-1.903, 3.351e-4
-1.904, 3.383e-4
-1.905, 3.410e-4
-1.906, 3.441e-4
-1.907, 3.474e-4
-1.908, 3.506e-4
-1.909, 3.541e-4
-1.910, 3.577e-4
-1.911, 3.611e-4
-1.912, 3.646e-4
-1.913, 3.682e-4
-1.914, 3.714e-4
-1.915, 3.749e-4
-1.916, 3.787e-4
-1.917, 3.823e-4
-1.918, 3.861e-4
-1.919, 3.899e-4
-1.920, 3.935e-4
-1.921, 3.976e-4
-1.922, 4.018e-4
-1.923, 4.058e-4
-1.924, 4.076e-4
-1.925, 4.100e-4
-1.926, 4.129e-4
-1.927, 4.164e-4
-1.928, 4.201e-4
-1.929, 4.239e-4
-1.930, 4.277e-4
-1.931, 4.314e-4
-1.932, 4.353e-4
-1.933, 4.390e-4
-1.934, 4.437e-4
-1.935, 4.479e-4
-1.936, 4.519e-4
-1.937, 4.557e-4
-1.938, 4.598e-4
-1.939, 4.639e-4
-1.940, 4.684e-4
-1.941, 4.726e-4
-1.942, 4.768e-4
-1.943, 4.808e-4
-1.944, 4.852e-4
-1.945, 4.897e-4
-1.946, 4.943e-4
-1.947, 4.988e-4
-1.948, 5.025e-4
-1.949, 5.069e-4
-1.950, 5.114e-4
-1.951, 5.154e-4
-1.952, 5.195e-4
-1.953, 5.241e-4
-1.954, 5.285e-4
-1.955, 5.330e-4
-1.956, 5.375e-4
-1.957, 5.422e-4
-1.958, 5.470e-4
-1.959, 5.513e-4
-1.960, 5.557e-4
-1.961, 5.603e-4
-1.962, 5.643e-4
-1.963, 5.685e-4
-1.964, 5.733e-4
-1.965, 5.783e-4
-1.966, 5.830e-4
-1.967, 5.873e-4
-1.968, 5.919e-4
-1.969, 5.965e-4
-1.970, 6.010e-4
-1.971, 6.050e-4
-1.972, 6.094e-4
-1.973, 6.144e-4
-1.974, 6.199e-4
-1.975, 6.249e-4
-1.976, 6.292e-4
-1.977, 6.346e-4
-1.978, 6.393e-4
-1.979, 6.442e-4
-1.980, 6.504e-4
-1.981, 6.566e-4
-1.982, 6.621e-4
-1.983, 6.669e-4
-1.984, 6.717e-4
-1.985, 6.771e-4
-1.986, 6.826e-4
-1.987, 6.884e-4
-1.988, 6.934e-4
-1.989, 6.990e-4
-1.990, 7.042e-4
-1.991, 7.097e-4
-1.992, 7.158e-4
-1.993, 7.215e-4
-1.994, 7.269e-4
-1.995, 7.327e-4
-1.996, 7.372e-4
-1.997, 7.433e-4
-1.998, 7.497e-4
-1.999, 7.564e-4
-2.000, 7.624e-4
-2.001, 7.681e-4
-2.002, 7.741e-4
-2.003, 7.798e-4
-2.004, 7.848e-4
-2.005, 7.904e-4
-2.006, 7.955e-4
-2.007, 8.011e-4
-2.008, 8.079e-4
-2.009, 8.137e-4
-2.010, 8.196e-4
-2.011, 8.255e-4
-2.012, 8.318e-4
-2.013, 8.376e-4
-2.014, 8.424e-4
-2.015, 8.477e-4
-2.016, 8.540e-4
-2.017, 8.601e-4
-2.018, 8.658e-4
-2.019, 8.718e-4
-2.020, 8.780e-4
-2.021, 8.827e-4
-2.022, 8.888e-4
-2.023, 8.953e-4
-2.024, 9.022e-4
-2.025, 9.085e-4
-2.026, 9.144e-4
-2.027, 9.210e-4
-2.028, 9.276e-4
-2.029, 9.342e-4
-2.030, 9.395e-4
-2.031, 9.448e-4
-2.032, 9.519e-4
-2.033, 9.586e-4
-2.034, 9.644e-4
-2.035, 9.702e-4
-2.036, 9.762e-4
-2.037, 9.819e-4
-2.038, 9.880e-4
-2.039, 9.950e-4
-2.040, 1.002e-3
-2.041, 1.008e-3
-2.042, 1.011e-3
-2.043, 1.011e-3
-2.044, 1.011e-3
-2.045, 1.011e-3
-2.046, 1.011e-3
-2.047, 1.011e-3
-2.048, 1.011e-3
-2.049, 1.011e-3
-2.050, 1.011e-3
-2.051, 1.011e-3
-2.052, 1.011e-3
-2.053, 1.011e-3
-2.054, 1.011e-3
-2.055, 1.011e-3
-2.056, 1.011e-3
-2.057, 1.011e-3
-2.058, 1.011e-3
-2.059, 1.011e-3
-2.060, 1.011e-3
-2.061, 1.011e-3
-2.062, 1.011e-3
-2.063, 1.011e-3
-2.064, 1.011e-3
-2.065, 1.011e-3
-2.066, 1.011e-3
-2.067, 1.011e-3
-2.068, 1.011e-3
-2.069, 1.011e-3
-2.070, 1.011e-3
-2.071, 1.011e-3
-2.072, 1.011e-3
-2.073, 1.011e-3
-2.074, 1.011e-3
-2.075, 1.011e-3
-2.076, 1.011e-3
-2.077, 1.011e-3
-2.078, 1.011e-3
-2.079, 1.011e-3
-2.080, 1.011e-3
-2.081, 1.011e-3
-2.082, 1.011e-3
-2.083, 1.011e-3
-2.084, 1.011e-3
-2.085, 1.011e-3
-2.086, 1.011e-3
-2.087, 1.011e-3
-2.088, 1.011e-3
-2.089, 1.011e-3
-2.090, 1.011e-3
-2.091, 1.011e-3
-2.092, 1.011e-3
-2.093, 1.011e-3
-2.094, 1.011e-3
-2.095, 1.011e-3
-2.096, 1.011e-3
-2.097, 1.011e-3
-2.098, 1.011e-3
-2.099, 1.011e-3
