Potential V vs RHE, Current mA cm-2
0.013299999999999867,21.461170418952605
0.012299999999999978,19.97572355409432
0.011299999999999866,18.57515936722793
0.010299999999999976,17.316066310348052
0.009299999999999864,16.141855931460068
0.008299999999999974,15.094969569559943
0.007299999999999862,13.998568312164537
0.006299999999999972,12.865384560972643
0.00529999999999986,11.686930048185067
0.0042999999999999705,10.553746296993173
0.0032999999999998586,9.506859935093045
0.0022999999999999687,8.546270962484687
0.0012999999999998568,7.630952751472008
0.00029999999999996696,6.714219829159464
-0.000700000000000145,5.667333467259336
-0.0017000000000000348,4.664303155655026
-0.0027000000000001467,3.661272844050715
-0.0037000000000000366,2.745954633038036
-0.0047000000000001485,1.9169338113171246
-0.005700000000000038,1.1317690398920295
-0.00670000000000015,0.21588494435940458
-0.00770000000000004,-0.7437137303390498
-0.008700000000000152,-1.7033124050375041
-0.009700000000000042,-2.576189277054232
-0.010700000000000154,-3.403795387475278
-0.011700000000000044,-4.102662769608606
-0.012700000000000156,-4.9302688800296535
-0.013700000000000045,-5.759289701750564
-0.014700000000000157,-6.6760226240631075
-0.015700000000000047,-7.5474847847799715
-0.01670000000000016,-8.332649556205066
-0.01770000000000005,-9.073958277334345
-0.01870000000000016,-9.728969609171857
-0.01970000000000005,-10.514134380596953
-0.020700000000000163,-11.343155202317865
-0.021700000000000053,-12.214617363034726
-0.022700000000000164,-12.99978213445982
-0.023700000000000054,-13.698649516593148
-0.024700000000000166,-14.401761032626075
-0.025700000000000056,-15.05252823056399
-0.026700000000000168,-15.78817810649381
-0.027700000000000058,-16.622857773414182
-0.02870000000000017,-17.40094898833995
-0.02970000000000006,-18.15074597726842
-0.03070000000000017,-18.80151317520634
-0.03170000000000006,-19.409839034148305
-0.03270000000000017,-20.06060623208622
-0.03370000000000006,-20.810403221014692
-0.034700000000000175,-21.58849443594046
-0.035700000000000065,-22.38073276386488
-0.03670000000000018,-23.031499961802798
-0.03770000000000007,-23.639825820744765
-0.03870000000000018,-24.24815167968673
-0.03970000000000007,-24.9130659906233
-0.04070000000000018,-25.60627452755716
-0.04170000000000007,-26.38436574248293
-0.04270000000000018,-27.091721392415455
-0.04370000000000007,-27.700047251357418
-0.044700000000000184,-28.308373110299385
-0.045700000000000074,-28.8742576302454
-0.046700000000000186,-29.525024828183312
-0.047700000000000076,-30.232380478115836
-0.04870000000000019,-30.968030354045652
-0.04970000000000008,-31.661238890979522
-0.05070000000000019,-32.24127052392419
-0.05170000000000008,-32.764713704874254
-0.05270000000000019,-33.373039563816214
-0.05370000000000008,-34.02380676175414
-0.05470000000000019,-34.75945663768395
-0.05570000000000008,-35.42437094862052
-0.056700000000000195,-36.07513814655844
-0.057700000000000085,-36.5985813275085
-0.058700000000000196,-37.122024508458566
-0.059700000000000086,-37.73035036740053
-0.0607000000000002,-38.38111756533845
-0.06170000000000009,-39.08847321527096
-0.0627000000000002,-39.739240413208876
-0.06370000000000009,-40.34756627215084
-0.0647000000000002,-40.87100945310091
-0.06570000000000009,-41.39445263405098
-0.0667000000000002,-42.00277849299294
-0.0677000000000001,-42.71013414292546
-0.0687000000000002,-43.36090134086337
-0.0697000000000001,-44.011668538801295
-0.07070000000000021,-44.577553058747306
-0.0717000000000001,-45.05855490070142
-0.07270000000000021,-45.624439420647434
-0.0737000000000001,-46.27520661858535
-0.07470000000000021,-46.982562268517874
-0.0757000000000001,-47.67577080545174
-0.07670000000000021,-48.24165532539775
-0.0777000000000001,-48.76509850634781
-0.07870000000000021,-49.28854168729788
-0.0797000000000001,-49.85442620724389
-0.08070000000000022,-50.547634744177756
-0.0817000000000001,-51.21254905511432
-0.08270000000000022,-51.82087491405629
-0.08370000000000011,-52.386759434002315
-0.08470000000000022,-52.86776127595642
-0.08570000000000011,-53.39120445690648
-0.08670000000000022,-53.999530315848446
-0.08770000000000011,-54.60785617479041
-0.08870000000000022,-55.003975338752625
-0.08970000000000011,-55.31521182472294
-0.09070000000000022,-55.881096344668954
-0.09170000000000011,-56.1781857176406
-0.09270000000000023,-56.61674622059877
-0.09370000000000012,-57.22507207954074
-0.09470000000000023,-58.10219308545706
-0.09570000000000012,-58.75296028339497
-0.09670000000000023,-59.10663810836124
-0.09770000000000012,-59.6300812893113
-0.09870000000000023,-60.06864179226946
-0.09970000000000012,-60.67696765121143
-0.10070000000000023,-61.28529351015339
-0.10170000000000012,-61.97850204708726
-0.10270000000000024,-62.544386567033264
-0.10370000000000013,-62.98294706999144
-0.10470000000000024,-63.46394891194555
-0.10570000000000013,-63.98739209289561
-0.10670000000000024,-64.59571795183757
-0.10770000000000013,-65.34551494076604
-0.10870000000000024,-66.08116481669586
-0.10970000000000013,-66.73193201463377
-0.11070000000000024,-67.25537519558385
-0.11170000000000013,-67.7788183765339
-0.11270000000000002,-68.34470289647993
-0.11370000000000013,-69.0096172074165
-0.11470000000000002,-69.70282574435035
-0.11570000000000014,-70.39603428128423
-0.11670000000000003,-70.96191880123024
-0.11770000000000014,-71.48536198218031
-0.11870000000000003,-71.96636382413442
-0.11970000000000014,-72.53224834408043
-0.12070000000000003,-73.23960399401295
-0.12170000000000014,-73.89037119195086
-0.12270000000000003,-74.49869705089283
-0.12370000000000014,-75.14946424883075
-0.12470000000000003,-75.63046609078486
-0.12570000000000014,-76.11146793273898
-0.12670000000000003,-76.7622351306769
-0.12770000000000015,-77.42714944161345
-0.12870000000000004,-78.20524065653922
-0.12970000000000015,-78.91259630647174
-0.13070000000000004,-79.47848082641775
-0.13170000000000015,-80.04436534636378
-0.13270000000000004,-80.56780852731384
-0.13370000000000015,-81.21857572525175
-0.13470000000000004,-81.91178426218562
-0.13570000000000015,-82.61913991211814
-0.13670000000000004,-83.18502443206415
-0.13770000000000016,-83.66602627401826
-0.13870000000000005,-84.18946945496833
-0.13970000000000016,-84.75535397491434
-0.14070000000000005,-85.44856251184822
-0.14170000000000016,-86.14177104878208
-0.14270000000000005,-86.80668535971866
-0.14370000000000016,-87.33012854066871
-0.14470000000000005,-87.79698326962418
-0.14570000000000016,-88.37701490256885
-0.14670000000000005,-89.02778210050676
-0.14770000000000016,-89.80587331543254
-0.14870000000000005,-90.55567030436099
-0.14970000000000017,-91.24887884129487
-0.15070000000000006,-91.81476336124088
-0.15170000000000017,-92.29576520319499
-0.15270000000000006,-92.86164972314101
-0.15370000000000017,-93.51241692107894
-0.15470000000000006,-94.26221391000739
-0.15570000000000017,-94.95542244694126
-0.15670000000000006,-95.52130696688728
-0.15770000000000017,-96.0871914868333
-0.15870000000000006,-96.65307600677932
-0.15970000000000018,-97.21896052672531
-0.16070000000000007,-97.96875751565379
-0.16170000000000018,-98.7044073915836
-0.16270000000000007,-99.41176304151614
-0.16370000000000018,-100.02008890045809
-0.16470000000000007,-100.54353208140815
-0.16570000000000018,-101.10941660135417
-0.16670000000000007,-101.71774246029614
-0.16770000000000018,-102.45339233622596
-0.16870000000000007,-103.16074798615847
-0.16970000000000018,-103.81151518409638
-0.17070000000000007,-104.3773997040424
-0.17170000000000019,-104.90084288499246
-0.17270000000000008,-105.46672740493848
-0.1737000000000002,-106.07505326388046
-0.17470000000000008,-106.78240891381296
-0.1757000000000002,-107.47561745074682
-0.17670000000000008,-108.0839433096888
-0.1777000000000002,-108.60738649063886
-0.17870000000000008,-109.13082967158894
-0.1797000000000002,-109.73915553053091
-0.18070000000000008,-110.4465111804634
-0.1817000000000002,-111.18216105639323
-0.18270000000000008,-111.8753695933271
-0.1837000000000002,-112.54028390426367
-0.1847000000000001,-113.06372708521374
-0.1857000000000002,-113.62961160515974
-0.1867000000000001,-114.3228201420936
-0.1877000000000002,-115.01602867902749
-0.1887000000000001,-115.85070834594785
-0.1897000000000002,-116.94003604684394
-0.1907000000000001,-117.59080324478184
-0.1917000000000001,-118.11424642573192
-0.19269999999999998,-118.68013094567793
-0.1937000000000001,-119.3450452566145
-0.19469999999999998,-120.08069513254432
-0.1957000000000001,-120.85878634747009
-0.19669999999999999,-121.56614199740261
-0.1977000000000001,-122.17446785634456
-0.1987,-122.69791103729463
-0.1997000000000001,-123.26379555724066
-0.2007,-123.95700409417452
-0.2017000000000001,-124.70680108310299
-0.2027,-125.35756828104091
-0.2037000000000001,-125.92345280098691
-0.2047,-126.48933732093293
-0.2057000000000001,-127.012780501883
-0.2067,-127.62110636082497
-0.2077000000000001,-128.37090334975343
-0.2087,-129.10655322568326
-0.2097000000000001,-129.79976176261712
-0.2107,-130.37979339556176
-0.2117000000000001,-130.90323657651186
-0.2127,-131.55400377444977
-0.2137000000000001,-132.20477097238768
-0.2147,-132.9404208483175
-0.2157000000000001,-133.69021783724597
-0.2167,-134.34098503518388
-0.21770000000000012,-134.86442821613394
-0.2187,-135.47275407507593
-0.21970000000000012,-136.1801097250084
-0.2207,-136.91575960093826
-0.22170000000000012,-137.65140947686808
-0.2227,-138.3163237878046
-0.22370000000000012,-138.96709098574257
-0.2247,-139.49053416669264
-0.22570000000000012,-139.97153600864672
-0.2267,-140.66474454558062
-0.22770000000000012,-141.41454153450906
-0.22870000000000001,-142.17848563643616
-0.22970000000000013,-142.8858412863687
-0.23070000000000002,-143.4517258063147
-0.23170000000000013,-144.01761032626072
-0.23270000000000002,-144.58349484620675
-0.23370000000000013,-145.29085049613926
-0.23470000000000002,-146.1396772760583
-0.23570000000000013,-146.8470329259908
-0.23670000000000002,-147.4129174459368
-0.2376999999999999,-148.12027309586935
-0.23870000000000002,-148.68615761581535
-0.2396999999999999,-149.39351326574788
-0.24070000000000003,-150.1008689156804
-0.24169999999999991,-150.94969569559944
-0.24270000000000003,-151.65705134553193
-0.24369999999999992,-152.22293586547795
-0.24470000000000003,-152.78882038542397
-0.24569999999999992,-153.49617603535648
-0.24670000000000003,-154.0620605553025
-0.24769999999999992,-154.9108873352215
-0.24870000000000003,-155.61824298515404
-0.24969999999999992,-156.32559863508658
-0.25070000000000003,-156.89148315503257
-0.2516999999999999,-157.59883880496508
-0.25270000000000004,-158.1647233249111
-0.2536999999999999,-158.87207897484362
-0.25470000000000004,-159.57943462477613
-0.2556999999999999,-160.28679027470866
-0.25670000000000004,-160.99414592464117
-0.25769999999999993,-161.5600304445872
-0.25870000000000004,-162.2673860945197
-0.25969999999999993,-162.97474174445222
-0.26070000000000004,-163.54062626439824
-0.26169999999999993,-164.38945304431726
-0.26270000000000004,-165.09680869424977
-0.26369999999999993,-165.8041643441823
-0.26470000000000005,-166.3700488641283
-0.26569999999999994,-167.07740451406085
-0.26670000000000005,-167.6432890340068
-0.26769999999999994,-168.49211581392586
-0.26870000000000005,-169.19947146385837
-0.26969999999999994,-169.9068271137909
-0.27070000000000005,-170.33124050375042
-0.27169999999999994,-170.89712502369645
-0.27270000000000005,-171.60448067362896
-0.27369999999999994,-172.31183632356147
-0.27470000000000006,-173.01919197349397
-0.27569999999999995,-173.86801875341303
-0.27670000000000006,-174.57537440334553
-0.27769999999999995,-175.14125892329156
-0.27870000000000006,-175.70714344323756
-0.27969999999999995,-176.4144990931701
-0.28070000000000006,-176.98038361311612
-0.28169999999999995,-177.82921039303508
-0.28270000000000006,-178.53656604296762
-0.28369999999999995,-179.10245056291362
-0.28470000000000006,-179.80980621284618
-0.28569999999999995,-180.23421960280567
-0.28670000000000007,-181.08304638272472
-0.28769999999999996,-181.79040203265723
-0.28870000000000007,-182.63922881257625
-0.28969999999999996,-183.34658446250873
-0.29070000000000007,-184.19541124242778
-0.29169999999999996,-184.7612957623738
-0.29270000000000007,-185.3271802823198
-0.29369999999999996,-186.17600706223882
-0.2947000000000001,-186.88336271217133
-0.29569999999999996,-187.59071836210387
-0.2967000000000001,-188.4395451420229
-0.29769999999999996,-189.1469007919554
-0.2987000000000001,-189.71278531190143
-0.29969999999999997,-190.42014096183394
-0.3007000000000001,-191.268967741753
-0.30169999999999997,-192.11779452167198
-0.3027000000000001,-192.82515017160452
-0.30369999999999997,-193.532505821537
-0.3047000000000001,-194.2398614714695
-0.30569999999999997,-194.80574599141553
-0.3067000000000001,-195.51310164134807
-0.3077,-196.3619284212671
-0.3087000000000001,-197.21075520118612
-0.3097,-198.05958198110514
-0.3107000000000001,-198.76693763103765
-0.3117,-199.33282215098367
-0.3127000000000001,-200.04017780091618
-0.3137,-200.7475334508487
-0.3147000000000001,-201.73783136075423
-0.3157,-202.44518701068677
-0.3167000000000001,-203.15254266061928
-0.3177,-203.71842718056527
-0.3187000000000001,-204.42578283049778
-0.3197,-205.13313848043032
-0.3207000000000001,-205.98196526034934
-0.3217,-206.97226317025488
-0.3227000000000001,-207.8210899501739
-0.3237,-208.52844560010638
-0.3247000000000001,-209.23580125003892
-0.3257,-209.94315689997146
-0.3267000000000001,-210.65051254990397
-0.3277,-211.499339329823
-0.3287000000000001,-212.48963723972852
-0.3297,-213.33846401964755
-0.3307000000000001,-214.18729079956654
-0.3317,-214.75317531951256
-0.3327000000000001,-215.4605309694451
-0.3337,-216.1678866193776
-0.3347000000000001,-217.01671339929663
-0.3357,-218.00701130920217
-0.3367000000000001,-218.57289582914817
-0.3377,-219.13878034909416
-0.3387000000000001,-219.5631937390537
-0.3397,-220.2705493889862
-0.3407000000000001,-221.11937616890526
-0.3417,-222.10967407881074
-0.3427000000000001,-222.81702972874328
-0.3437,-223.52438537867582
-0.3447000000000001,-224.2317410286083
-0.3457,-225.08056780852735
-0.3467000000000001,-225.92939458844637
-0.3477,-226.77822136836537
-0.3487000000000001,-227.4855770182979
-0.3497,-228.47587492820347
-0.3507000000000001,-228.90028831816295
-0.3517,-229.60764396809546
-0.3527000000000001,-230.31499961802797
-0.3537,-231.163826397947
-0.3547000000000001,-231.8711820478795
-0.3557,-232.86147995778504
-0.35670000000000013,-233.85177786769057
-0.3577,-234.55913351762308
-0.35870000000000013,-235.12501803756908
-0.3597,-235.83237368750162
-0.36070000000000013,-236.82267159740715
-0.3617,-237.67149837732615
-0.3626999999999999,-238.5203251572452
-0.3637,-239.0862096771912
-0.3646999999999999,-239.93503645711021
-0.3657,-240.78386323702924
-0.3666999999999999,-241.6326900169483
-0.3677,-242.62298792685377
-0.3686999999999999,-243.47181470677282
-0.36970000000000003,-244.32064148669184
-0.3706999999999999,-245.31093939659738
-0.37170000000000003,-246.01829504652986
-0.3726999999999999,-246.8671218264489
-0.37370000000000003,-247.99889086634093
-0.3746999999999999,-249.13065990623298
-0.37570000000000003,-249.979486686152
-0.3766999999999999,-250.9697845960575
-0.37770000000000004,-251.67714024599002
-0.3786999999999999,-252.38449589592256
-0.37970000000000004,-253.09185154585506
-0.3806999999999999,-253.94067832577412
-0.38170000000000004,-254.78950510569314
-0.38269999999999993,-255.77980301559862
-0.38370000000000004,-256.62862979551767
-0.38469999999999993,-257.4774565754367
-0.38570000000000004,-258.32628335535566
-0.38669999999999993,-258.18481222536917
-0.38570000000000004,-256.20421640555816
-0.38469999999999993,-254.36509171573357
-0.38370000000000004,-252.38449589592256
-0.38269999999999993,-250.262428946125
-0.38170000000000004,-248.28183312631393
-0.3806999999999999,-246.15976617651637
-0.37970000000000004,-243.8962280967323
-0.3786999999999999,-242.05710340690777
-0.37770000000000004,-238.2373828972722
-0.3766999999999999,-236.25678707746113
-0.37570000000000003,-234.84207577759608
-0.3746999999999999,-233.28589334774458
-0.37370000000000003,-231.5882397879065
-0.3726999999999999,-229.89058622806846
-0.37170000000000003,-228.0514615382439
-0.3706999999999999,-226.21233684841937
-0.36970000000000003,-224.37321215859478
-0.3686999999999999,-222.53408746877028
-0.3677,-220.83643390893224
-0.3666999999999999,-219.13878034909416
-0.3657,-217.58259791924263
-0.3646999999999999,-216.1678866193776
-0.3637,-214.47023305953954
-0.3626999999999999,-212.914050629688
-0.3617,-211.07492593986345
-0.36070000000000013,-209.37727238002543
-0.3597,-207.8210899501739
-0.35870000000000013,-206.12343639033585
-0.3577,-204.5672539604843
-0.35670000000000013,-203.01107153063276
-0.3557,-201.4548891007812
-0.3547000000000001,-199.75723554094319
-0.3537,-198.3425242410781
-0.3527000000000001,-196.7863418112266
-0.3517,-195.23015938137505
-0.3507000000000001,-193.532505821537
-0.3497,-191.83485226169896
-0.3487000000000001,-189.99572757187443
-0.3477,-188.29807401203638
-0.3467000000000001,-186.60042045219836
-0.3457,-185.0442380223468
-0.3447000000000001,-184.05394011244127
-0.3437,-182.63922881257625
-0.3427000000000001,-180.94157525273818
-0.3417,-178.96097943292713
-0.3407000000000001,-176.8389124831296
-0.3397,-175.14125892329156
-0.3387000000000001,-173.58507649344
-0.3377,-171.74595180361547
-0.3367000000000001,-168.91652920388537
-0.3357,-167.78476016399335
-0.3347000000000001,-166.0871066041553
-0.3337,-164.53092417430375
-0.3327000000000001,-163.25768400442522
-0.3317,-161.9844438345467
-0.3307000000000001,-160.71120366466818
-0.3297,-159.01355010483013
-0.3287000000000001,-157.45736767497857
-0.3277,-155.90118524512707
-0.3267000000000001,-154.3450028152755
-0.3257,-152.93029151541046
-0.3247000000000001,-151.37410908555893
-0.3237,-149.95939778569388
-0.3227000000000001,-148.26174422585584
-0.3217,-146.7055617960043
-0.3207000000000001,-145.14937936615277
-0.3197,-143.87613919627424
-0.3187000000000001,-142.4614278964092
-0.3177,-140.93353969255494
-0.3167000000000001,-139.49053416669264
-0.3157,-137.70799792886265
-0.3147000000000001,-135.82643190004217
-0.3137,-134.5107503911677
-0.3127000000000001,-133.1667746562959
-0.3117,-131.8510931474214
-0.3107000000000001,-130.46467607355368
-0.3097,-128.93678786969946
-0.3087000000000001,-127.4088996658452
-0.3077,-125.83857012299501
-0.3067000000000001,-124.35312325813672
-0.30569999999999997,-122.95255907127036
-0.3047000000000001,-121.60858333639854
-0.30369999999999997,-120.16557781053622
-0.3027000000000001,-118.59524826768603
-0.30169999999999997,-116.98247738583989
-0.3007000000000001,-115.45458918198564
-0.29969999999999997,-114.0115836561233
-0.2987000000000001,-112.62516658225556
-0.29769999999999996,-111.22460239538917
-0.2967000000000001,-109.73915553053091
-0.29569999999999996,-108.21126732667666
-0.2947000000000001,-106.73996757481702
-0.29369999999999996,-105.29696204895468
-0.29270000000000007,-103.76907384510045
-0.29169999999999996,-101.92994915527588
-0.29070000000000007,-99.97764756146215
-0.28969999999999996,-98.7044073915836
-0.28870000000000007,-97.36043165671182
-0.28769999999999996,-95.95986746984543
-0.28670000000000007,-94.7432157519615
-0.28569999999999995,-93.51241692107894
-0.28470000000000006,-92.25332386419905
-0.28369999999999995,-90.99423080731917
-0.28270000000000006,-89.55122528145681
-0.28169999999999995,-88.15066109459043
-0.28070000000000006,-86.75009690772404
-0.27969999999999995,-85.44856251184822
-0.27870000000000006,-84.13288100297372
-0.27769999999999995,-82.9162292850898
-0.27670000000000006,-81.61469488921396
-0.27569999999999995,-80.25657204134353
-0.27470000000000006,-78.8135665154812
-0.27369999999999994,-77.51203211960537
-0.27270000000000005,-76.23879194972683
-0.27169999999999994,-75.1070229098348
-0.27070000000000005,-73.89037119195086
-0.26969999999999994,-72.53224834408043
-0.26870000000000005,-71.1458312702127
-0.26769999999999994,-69.78770842234226
