Potential V vs RHE, Current mA cm-2
0.013299999999999867,30.04846800913338
0.012299999999999978,27.954695285333123
0.011299999999999866,26.030687917516673
0.010299999999999976,24.20571034069078
0.009299999999999864,22.42317410286083
0.008299999999999974,20.626490752032236
0.007299999999999862,18.88639585319824
0.006299999999999972,17.146300954364243
0.00529999999999986,15.3920589425316
0.0042999999999999705,13.780702771985322
0.0032999999999998586,12.210373229135131
0.0022999999999999687,10.683899736580756
0.0012999999999998568,9.157426244026382
0.00029999999999996696,7.674808801767824
-0.000700000000000145,6.1907766482094
-0.0017000000000000348,4.708159205950842
-0.0027000000000001467,3.1816857133964676
-0.0037000000000000366,1.655212220842093
-0.0047000000000001485,0.17231183632356148
-0.005700000000000038,-1.2671569112891135
-0.00670000000000015,-2.706342716641815
-0.00770000000000004,-4.014950669016974
-0.008700000000000152,-5.411270721983764
-0.009700000000000042,-6.719878674358924
-0.010700000000000154,-8.070927965730034
-0.011700000000000044,-9.467248018696827
-0.012700000000000156,-10.819712021367803
-0.013700000000000045,-12.214617363034726
-0.014700000000000157,-13.567081365705702
-0.015700000000000047,-14.868615761581536
-0.01670000000000016,-16.184297270456018
-0.01770000000000005,-17.40094898833995
-0.01870000000000016,-18.631747819222536
-0.01970000000000005,-19.848399537106463
-0.020700000000000163,-21.107492593986347
-0.021700000000000053,-22.38073276386488
-0.022700000000000164,-23.639825820744765
-0.023700000000000054,-24.9130659906233
-0.024700000000000166,-26.21460038649913
-0.025700000000000056,-27.43125210438306
-0.026700000000000168,-28.662050935265643
-0.027700000000000058,-29.878702653149578
-0.02870000000000017,-31.052913032037555
-0.02970000000000006,-32.184682071929586
-0.03070000000000017,-33.373039563816214
-0.03170000000000006,-34.5472499427042
-0.03270000000000017,-35.763901660588125
-0.03370000000000006,-37.037141830466666
-0.034700000000000175,-38.29623488734655
-0.035700000000000065,-39.47044526623452
-0.03670000000000018,-40.65880275812115
-0.03770000000000007,-41.74813045901723
-0.03870000000000018,-42.87989949890926
-0.03970000000000007,-43.96922719980534
-0.04070000000000018,-45.10099623969737
-0.04170000000000007,-46.2327652795894
-0.04270000000000018,-47.32209298048547
-0.04370000000000007,-48.51045047237211
-0.044700000000000184,-49.68466085126009
-0.045700000000000074,-50.81642989115212
-0.046700000000000186,-51.948198931044146
-0.047700000000000076,-52.995085292944275
-0.04870000000000019,-54.0419716548444
-0.04970000000000008,-55.088858016744524
-0.05070000000000019,-56.1781857176406
-0.05170000000000008,-57.30995475753264
-0.05270000000000019,-58.45587091042332
-0.05370000000000008,-59.6300812893113
-0.05470000000000019,-60.80429166819927
-0.05570000000000008,-61.936060708091304
-0.056700000000000195,-63.06782974798333
-0.057700000000000085,-64.11471610988345
-0.058700000000000196,-65.0767197937917
-0.059700000000000086,-66.08116481669586
-0.0607000000000002,-67.08560983960004
-0.06170000000000009,-68.13249620150016
-0.0627000000000002,-69.22182390239624
-0.06370000000000009,-70.26871026429637
-0.0647000000000002,-71.35803796519245
-0.06570000000000009,-72.40492432709259
-0.0667000000000002,-73.45181068899271
-0.0677000000000001,-74.54113838988879
-0.0687000000000002,-75.54558341279296
-0.0697000000000001,-76.5924697746931
-0.07070000000000021,-77.7242388145851
-0.0717000000000001,-78.85600785447714
-0.07270000000000021,-80.00192400736783
-0.0737000000000001,-81.04881036926795
-0.07470000000000021,-82.09569673116808
-0.0757000000000001,-83.08599464107361
-0.07670000000000021,-84.18946945496833
-0.0777000000000001,-85.27879715586442
-0.07870000000000021,-86.32568351776455
-0.0797000000000001,-87.33012854066871
-0.08070000000000022,-88.37701490256885
-0.0817000000000001,-89.42390126446898
-0.08270000000000022,-90.51322896536506
-0.08370000000000011,-91.56011532726518
-0.08470000000000022,-92.6070016891653
-0.08570000000000011,-93.69632939006138
-0.08670000000000022,-94.8280984299534
-0.08770000000000011,-95.91742613084948
-0.08870000000000022,-96.92187115375367
-0.08970000000000011,-97.88387483766188
-0.09070000000000022,-98.83173140857146
-0.09170000000000011,-99.87861777047159
-0.09270000000000023,-101.02453392336226
-0.09370000000000012,-102.1563029632543
-0.09470000000000023,-103.28807200314633
-0.09570000000000012,-104.3773997040424
-0.09670000000000023,-105.46672740493848
-0.09770000000000012,-106.51361376683862
-0.09870000000000023,-107.56050012873874
-0.09970000000000012,-108.60738649063886
-0.10070000000000023,-109.654272852539
-0.10170000000000012,-110.78604189243102
-0.10270000000000024,-111.91781093232305
-0.10370000000000013,-113.06372708521374
-0.10470000000000024,-114.05402499511925
-0.10570000000000013,-115.10091135701937
-0.10670000000000024,-116.10535637992358
-0.10770000000000013,-117.15224274182368
-0.10870000000000024,-118.15668776472786
-0.10970000000000013,-119.07625010964013
-0.11070000000000024,-119.99581245455242
-0.11170000000000013,-121.04269881645253
-0.11270000000000002,-122.21690919534053
-0.11370000000000013,-123.43356091322445
-0.11470000000000002,-124.57947706611512
-0.11570000000000014,-125.6688047670112
-0.11670000000000003,-126.75813246790726
-0.11770000000000014,-127.84746016880335
-0.11870000000000003,-128.85190519170752
-0.11970000000000014,-129.7148790846252
-0.12070000000000003,-130.59200009054155
-0.12170000000000014,-131.46912109645783
-0.12270000000000003,-132.41697766736743
-0.12370000000000014,-133.4214226902716
-0.12470000000000003,-134.42586771317576
-0.12570000000000014,-135.387871397084
-0.12670000000000003,-136.30743374199628
-0.12770000000000015,-137.22699608690854
-0.12870000000000004,-138.23144110981272
-0.12970000000000015,-139.3207688107088
-0.13070000000000004,-140.4949791895968
-0.13170000000000015,-141.75407224647665
-0.13270000000000004,-142.8858412863687
-0.13370000000000015,-144.30055258623375
-0.13470000000000004,-145.57379275611228
-0.13570000000000015,-146.8470329259908
-0.13670000000000004,-147.83733083589632
-0.13770000000000016,-148.82762874580186
-0.13870000000000005,-149.8179266557074
-0.13970000000000016,-150.66675343562642
-0.14070000000000005,-151.65705134553193
-0.14170000000000016,-152.78882038542397
-0.14270000000000005,-153.920589425316
-0.14370000000000016,-155.05235846520802
-0.14470000000000005,-156.32559863508658
-0.14570000000000016,-157.59883880496508
-0.14670000000000005,-158.87207897484362
-0.14770000000000016,-160.28679027470866
-0.14870000000000005,-161.70150157457368
-0.14970000000000017,-162.97474174445222
-0.15070000000000006,-164.10651078434424
-0.15170000000000017,-164.9553375642633
-0.15270000000000006,-165.8041643441823
-0.15370000000000017,-166.65299112410133
-0.15470000000000006,-167.50181790402033
-0.15570000000000017,-168.49211581392586
-0.15670000000000006,-169.3409425938449
-0.15770000000000017,-170.18976937376394
-0.15870000000000006,-171.18006728366944
-0.15970000000000018,-172.17036519357498
-0.16070000000000007,-173.302134233467
-0.16170000000000018,-174.43390327335902
-0.16270000000000007,-175.56567231325104
-0.16370000000000018,-176.6974413531431
-0.16470000000000007,-177.6877392630486
-0.16570000000000018,-178.81950830294062
-0.16670000000000007,-179.95127734283267
-0.16770000000000018,-181.08304638272472
-0.16870000000000007,-182.21481542261674
-0.16970000000000018,-183.20511333252225
-0.17070000000000007,-184.33688237241427
-0.17170000000000019,-185.6101225422928
-0.17270000000000008,-186.60042045219836
-0.1737000000000002,-187.44924723211736
-0.17470000000000008,-188.29807401203638
-0.1757000000000002,-189.2883719219419
-0.17670000000000008,-190.27866983184742
-0.1777000000000002,-191.268967741753
-0.17870000000000008,-192.40073678164498
-0.1797000000000002,-193.3910346915505
-0.18070000000000008,-194.66427486142905
-0.1817000000000002,-195.93751503130758
-0.18270000000000008,-197.35222633117263
-0.1837000000000002,-198.48399537106465
-0.1847000000000001,-199.47429328097016
-0.1857000000000002,-200.4645911908757
-0.1867000000000001,-201.4548891007812
-0.1877000000000002,-202.44518701068677
-0.1887000000000001,-203.29401379060576
-0.1897000000000002,-204.0013694405383
-0.1907000000000001,-204.8501962204573
-0.1917000000000001,-205.84049413036286
-0.19269999999999998,-207.1137343002414
-0.1937000000000001,-208.24550334013338
-0.19469999999999998,-209.37727238002543
-0.1957000000000001,-210.50904141991748
-0.19669999999999999,-211.64081045980947
-0.1977000000000001,-212.77257949970152
-0.1987,-213.62140627962054
-0.1997000000000001,-214.61170418952605
-0.2007,-215.6020020994316
-0.2017000000000001,-216.59230000933712
-0.2027,-217.58259791924263
-0.2037000000000001,-218.43142469916165
-0.2047,-219.42172260906716
-0.2057000000000001,-220.2705493889862
-0.2067,-221.11937616890526
-0.2077000000000001,-222.10967407881074
-0.2087,-223.2414431187028
-0.2097000000000001,-224.2317410286083
-0.2107,-225.36351006850035
-0.2117000000000001,-226.77822136836537
-0.2127,-228.1929326682304
-0.2137000000000001,-229.60764396809546
-0.2147,-231.0223552679605
-0.2157000000000001,-232.15412430785253
-0.2167,-233.1444222177581
-0.21770000000000012,-233.85177786769057
-0.2187,-234.7006046476096
-0.21970000000000012,-235.12501803756908
-0.2207,-235.54943142752862
-0.22170000000000012,-236.1153159474746
-0.2227,-236.96414272739366
-0.22370000000000012,-237.9544406372992
-0.2247,-239.2276808071777
-0.22570000000000012,-240.50092097705624
-0.2267,-241.9156322769213
-0.22770000000000012,-243.3303435767863
-0.22870000000000001,-244.74505487665132
-0.22970000000000013,-246.01829504652986
-0.23070000000000002,-246.7256506964624
-0.23170000000000013,-247.57447747638145
-0.23270000000000002,-248.56477538628693
-0.23370000000000013,-249.5550732961925
-0.23470000000000002,-250.545371206098
-0.23570000000000013,-251.39419798601702
-0.23670000000000002,-251.96008250596302
-0.2376999999999999,-252.66743815589555
-0.23870000000000002,-253.37479380582806
-0.2396999999999999,-254.2236205857471
-0.24070000000000003,-255.07244736566614
-0.24169999999999991,-255.92127414558513
-0.24270000000000003,-256.77010092550415
-0.24369999999999992,-257.76039883540966
-0.24470000000000003,-258.60922561532874
-0.24569999999999992,-259.3165812652612
-0.24670000000000003,-259.8824657852072
-0.24769999999999992,-260.58982143513975
-0.24870000000000003,-261.2971770850723
-0.24969999999999992,-262.2874749949778
-0.25070000000000003,-263.13630177489676
-0.2516999999999999,-264.12659968480233
-0.25270000000000004,-265.2583687246944
-0.2536999999999999,-266.5316088945729
-0.25470000000000004,-267.94632019443793
-0.2556999999999999,-269.361031494303
-0.25670000000000004,-270.49280053419506
-0.25769999999999993,-271.62456957408705
-0.25870000000000004,-272.8978097439656
-0.25969999999999993,-273.8881076538711
-0.26070000000000004,-274.87840556377665
-0.26169999999999993,-275.7272323436957
-0.26270000000000004,-276.5760591236147
-0.26369999999999993,-277.2834147735472
-0.26470000000000005,-277.9907704234797
-0.26569999999999994,-278.9810683333853
-0.26670000000000005,-279.97136624329073
-0.26769999999999994,-280.82019302320975
-0.26870000000000005,-281.52754867314235
-0.26969999999999994,-282.3763754530613
-0.27070000000000005,-283.3666733629668
-0.27169999999999994,-284.49844240285887
-0.27270000000000005,-285.4887403127644
-0.27369999999999994,-286.47903822266994
-0.27470000000000006,-287.327865002589
-0.27569999999999995,-288.3181629124945
-0.27670000000000006,-289.1669896924135
-0.27769999999999995,-289.87434534234603
-0.27870000000000006,-290.44022986229203
-0.27969999999999995,-291.14758551222457
-0.28070000000000006,-291.9964122921436
-0.28169999999999995,-293.26965246202207
-0.28270000000000006,-294.4014215019141
-0.28369999999999995,-295.3917194118196
-0.28470000000000006,-296.2405461917387
-0.28569999999999995,-297.0893729716577
-0.28670000000000007,-297.9381997515767
-0.28769999999999996,-298.6455554015092
-0.28870000000000007,-299.3529110514418
-0.28969999999999996,-299.7773244414013
-0.29070000000000007,-300.3432089613473
-0.29169999999999996,-301.1920357412663
-0.29270000000000007,-302.18233365117186
-0.29369999999999996,-303.0311604310908
-0.2947000000000001,-304.0214583409964
-0.29569999999999996,-305.0117562509019
-0.2967000000000001,-306.00205416080746
-0.29769999999999996,-306.99235207071297
-0.2987000000000001,-307.69970772064545
-0.29969999999999997,-308.2655922405915
-0.3007000000000001,-308.8314767605375
-0.30169999999999997,-309.3973612804835
-0.3027000000000001,-309.9632458004295
-0.30369999999999997,-310.52913032037554
-0.3047000000000001,-311.2364859703081
-0.30569999999999997,-311.80237049025413
-0.3067000000000001,-312.36825501020013
-0.3077,-313.0756106601326
-0.3087000000000001,-313.5000240500921
-0.3097,-314.0659085700381
-0.3107000000000001,-314.6317930899841
-0.3117,-315.3391487399167
-0.3127000000000001,-316.1879755198357
-0.3137,-317.3197445597277
-0.3147000000000001,-318.4515135996198
-0.3157,-319.4418115095253
-0.3167000000000001,-320.4321094194308
-0.3177,-321.42240732933635
-0.3187000000000001,-322.2712341092554
-0.3197,-323.2615320191609
-0.3207000000000001,-323.9688876690934
-0.3217,-324.67624331902596
-0.3227000000000001,-325.24212783897195
-0.3237,-325.94948348890443
-0.3247000000000001,-326.373896878864
-0.3257,-326.79831026882346
-0.3267000000000001,-327.222723658783
-0.3277,-327.505665918756
-0.3287000000000001,-328.071550438702
-0.3297,-328.7789060886345
-0.3307000000000001,-329.48626173856707
-0.3317,-330.33508851848603
-0.3327000000000001,-331.18391529840505
-0.3337,-332.1742132083106
-0.3347000000000001,-333.1645111182162
-0.3357,-334.01333789813515
-0.3367000000000001,-334.7206935480677
-0.3377,-335.42804919800017
-0.3387000000000001,-336.27687597791925
-0.3397,-336.9842316278517
-0.3407000000000001,-337.69158727778427
-0.3417,-338.2574717977303
-0.3427000000000001,-338.96482744766274
-0.3437,-339.6721830975953
-0.3447000000000001,-340.3795387475279
-0.3457,-341.0868943974603
-0.3467000000000001,-341.65277891740635
-0.3477,-342.21866343735235
-0.3487000000000001,-342.7845479572984
-0.3497,-343.63337473721737
-0.3507000000000001,-344.34073038714996
-0.3517,-344.90661490709596
-0.3527000000000001,-345.47249942704195
-0.3537,-346.03838394698795
-0.3547000000000001,-346.7457395969205
-0.3557,-347.3116241168665
-0.35670000000000013,-347.87750863681254
-0.3577,-348.44339315675853
-0.35870000000000013,-348.72633541673156
-0.3597,-349.15074880669107
-0.36070000000000013,-349.85810445662355
-0.3617,-350.5654601065561
-0.3626999999999999,-351.2728157564886
-0.3637,-351.8387002764346
-0.3646999999999999,-352.4045847963807
-0.3657,-352.9704693163266
-0.3666999999999999,-353.5363538362726
-0.3677,-353.96076722623224
-0.3686999999999999,-354.2437094862052
-0.36970000000000003,-354.8095940061512
-0.3706999999999999,-355.51694965608374
-0.37170000000000003,-356.36577643600276
-0.3726999999999999,-357.35607434590827
-0.37370000000000003,-358.20490112582723
-0.3746999999999999,-358.91225677575983
-0.37570000000000003,-359.7610835556788
-0.3766999999999999,-360.3269680756248
-0.37770000000000004,-360.46843920561133
-0.3786999999999999,-360.0440258156518
-0.37970000000000004,-359.7610835556788
-0.3806999999999999,-359.7610835556788
-0.38170000000000004,-360.0440258156518
-0.38269999999999993,-360.75138146558436
-0.38370000000000004,-361.31726598553036
-0.38469999999999993,-361.88315050547635
-0.38570000000000004,-362.73197728539543
-0.38669999999999993,-363.72227519530094
-0.38770000000000004,-364.57110197521996
-0.38869999999999993,-365.13698649516596
-0.38970000000000005,-365.13698649516596
-0.39069999999999994,-365.13698649516596
-0.39170000000000005,-365.419928755139
-0.39269999999999994,-365.985813275085
-0.39370000000000005,-366.83464005500406
-0.39469999999999994,-367.5419957049365
-0.39570000000000005,-368.2493513548691
-0.39669999999999994,-369.09817813478804
-0.39770000000000005,-369.9470049147071
-0.39869999999999994,-370.5128894346531
-0.39970000000000006,-370.93730282461263
-0.40069999999999995,-371.2202450845856
-0.40170000000000006,-371.5031873445586
-0.40269999999999995,-371.78612960453165
-0.40370000000000006,-371.92760073451814
-0.40469999999999995,-372.2105429944911
-0.40570000000000006,-372.49348525446413
-0.40669999999999995,-372.9178986444237
-0.40770000000000006,-373.4837831643697
-0.40869999999999995,-373.90819655432915
-0.40970000000000006,-374.19113881430224
-0.41069999999999995,-374.4740810742752
-0.41170000000000007,-374.75702333424823
-0.41269999999999996,-375.4643789841807
-0.41370000000000007,-375.8887923741402
-0.41469999999999996,-376.17173463411325
-0.41570000000000007,-376.4546768940863
-0.41669999999999996,-377.16203254401876
-0.41770000000000007,-378.1523304539243
-0.41869999999999996,-379.14262836382983
-0.4197000000000001,-380.13292627373534
-0.42069999999999996,-380.55733966369485
-0.4217000000000001,-380.98175305365436
-0.42269999999999996,-381.5476375736004
-0.4237000000000001,-381.9720509635599
-0.42469999999999997,-382.3964643535194
-0.4257000000000001,-382.6794066134924
-0.42669999999999997,-383.103820003452
-0.4277000000000001,-383.5282333934114
-0.42869999999999997,-383.6697045233979
-0.4297000000000001,-383.6697045233979
-0.43069999999999997,-383.5282333934114
-0.4317000000000001,-383.5282333934114
-0.4327,-383.952646783371
-0.4337000000000001,-384.9429446932765
-0.4347,-386.21618486315504
-0.4357000000000001,-387.347953903047
-0.4367,-387.63089616302005
-0.4377000000000001,-387.63089616302005
-0.4387,-387.48942503303357
-0.4397000000000001,-387.20648277306054
-0.4407,-386.64059825311455
-0.4417000000000001,-386.0747137331685
-0.4427,-386.0747137331685
-0.4437000000000001,-386.0747137331685
-0.4447,-386.21618486315504
-0.4457000000000001,-386.3576559931415
-0.4467,-386.499127123128
-0.4477000000000001,-386.3576559931415
-0.4487,-386.499127123128
-0.4497000000000001,-386.782069383101
-0.4507,-386.782069383101
-0.4517000000000001,-386.782069383101
-0.4527,-387.065011643074
-0.4537000000000001,-387.20648277306054
-0.4547,-387.347953903047
-0.4557000000000001,-387.20648277306054
-0.4567,-387.20648277306054
-0.4577000000000001,-387.347953903047
-0.4587,-387.7723672930066
-0.4597000000000001,-388.19678068296605
-0.4607,-388.9041363328986
-0.4617000000000001,-389.8944342428041
-0.4627,-390.60178989273663
-0.4637000000000001,-391.30914554266917
-0.4647,-391.87503006261517
-0.4657000000000001,-392.1579723225882
-0.4667,-392.2994434525747
-0.4677000000000001,-392.2994434525747
-0.4687,-392.2994434525747
-0.4697000000000001,-392.2994434525747
-0.4707,-392.58238571254765
-0.4717000000000001,-392.8653279725207
-0.4727,-393.00679910250716
-0.4737000000000001,-393.14827023249364
-0.4747,-393.7141547524397
-0.4757000000000001,-394.2800392723857
-0.4767,-394.84592379233175
-0.4777000000000001,-395.1288660523047
-0.4787,-395.41180831227774
-0.4797000000000001,-395.41180831227774
-0.4807,-395.5532794422643
-0.48170000000000013,-395.5532794422643
-0.4827,-395.41180831227774
-0.48370000000000013,-395.27033718229126
-0.4847,-395.41180831227774
-0.48570000000000013,-395.6947505722507
-0.4867,-394.42151040237223
-0.48570000000000013,-390.1773765027771
-0.4847,-386.0747137331685
-0.48370000000000013,-382.2549932235329
-0.4827,-378.7182149738703
-0.48170000000000013,-375.18143672420774
-0.4807,-371.78612960453165
-0.4797000000000001,-368.2493513548691
-0.4787,-364.854044235193
-0.4777000000000001,-361.31726598553036
-0.4767,-357.7804877358678
-0.4757000000000001,-354.2437094862052
-0.4747,-350.7069312365426
-0.4737000000000001,-347.17015298688
-0.4727,-343.7748458672039
-0.4717000000000001,-340.3795387475279
-0.4707,-337.12570275783827
-0.4697000000000001,-333.87186676814866
-0.4687,-330.4765596484726
-0.4677000000000001,-327.3641947887695
-0.4667,-324.25182992906645
-0.4657000000000001,-321.2809361993498
-0.4647,-318.31004246963323
-0.4637000000000001,-315.19767760993017
