Potential V vs RHE, Current mA cm-2
0.013299999999999867,25.662862979551768
0.012299999999999978,23.49835469075826
0.011299999999999866,21.701671339929664
0.010299999999999976,19.97572355409432
0.009299999999999864,18.377099785246827
0.008299999999999974,16.891652920388537
0.007299999999999862,15.278882038542395
0.006299999999999972,13.88963554207493
0.00529999999999986,12.480583087409354
0.0042999999999999705,11.169145712434466
0.0032999999999998586,9.969470530148914
0.0022999999999999687,8.677839113372134
0.0012999999999998568,7.555973052579161
0.00029999999999996696,6.374689117191855
-0.000700000000000145,5.259896612898206
-0.0017000000000000348,4.1960337153996985
-0.0027000000000001467,3.047288139909289
-0.0037000000000000366,2.051331384804303
-0.0047000000000001485,0.9976544086648237
-0.005700000000000038,-0.015179852247551842
-0.00670000000000015,-0.9550715985388862
-0.00770000000000004,-1.9876693763103765
-0.008700000000000152,-2.874693361325755
-0.009700000000000042,-3.832452911334385
-0.010700000000000154,-4.761918235345714
-0.011700000000000044,-5.59518319096622
-0.012700000000000156,-6.537380916676335
-0.013700000000000045,-7.323960399401294
-0.014700000000000157,-8.218057940915998
-0.015700000000000047,-9.05839645303583
-0.01670000000000016,-9.8081934419643
-0.01770000000000005,-10.716438096477654
-0.01870000000000016,-11.464820374106257
-0.01970000000000005,-12.312232442725414
-0.020700000000000163,-13.161059222644436
-0.021700000000000053,-13.891050253374795
-0.022700000000000164,-14.755438857592333
-0.023700000000000054,-15.37791182953295
-0.024700000000000166,-16.056973253468165
-0.025700000000000056,-16.820917355395284
-0.026700000000000168,-17.4433903273359
-0.027700000000000058,-18.249775768258974
-0.02870000000000017,-18.88639585319824
-0.02970000000000006,-19.579604390132108
-0.03070000000000017,-20.357695605057877
-0.03170000000000006,-21.008462802995794
-0.03270000000000017,-21.786554017921564
-0.03370000000000006,-22.39487987686353
-0.034700000000000175,-23.059794187800097
-0.035700000000000065,-23.738855611735314
-0.03670000000000018,-24.36132858367593
-0.03770000000000007,-25.054537120609798
-0.03870000000000018,-25.648715866553115
-0.03970000000000007,-26.32777729048833
-0.04070000000000018,-27.00683871442355
-0.04170000000000007,-27.58687034736821
-0.04270000000000018,-28.265931771303435
-0.04370000000000007,-28.80352206525215
-0.044700000000000184,-29.440142150191413
-0.045700000000000074,-30.09090934812933
-0.046700000000000186,-30.79826499806185
-0.047700000000000076,-31.689533116976815
-0.04870000000000019,-32.340300314914735
-0.04970000000000008,-33.09009730384321
-0.05070000000000019,-33.924776970763574
-0.05170000000000008,-34.702868185689354
-0.05270000000000019,-35.311194044631314
-0.05370000000000008,-35.52340073961108
-0.05470000000000019,-36.04684392056114
-0.05570000000000008,-36.570287101511205
-0.056700000000000195,-37.192760073451815
-0.057700000000000085,-37.98499840137623
-0.058700000000000196,-38.55088292132225
-0.059700000000000086,-39.145061667265566
-0.0607000000000002,-39.52703371822913
-0.06170000000000009,-39.93729999518999
-0.0627000000000002,-40.531478741133306
-0.06370000000000009,-41.05492192208336
-0.0647000000000002,-41.80471891101183
-0.06570000000000009,-42.526221673943
-0.0667000000000002,-43.16284175888227
-0.0677000000000001,-43.82775606981884
-0.0687000000000002,-44.4077877027635
-0.0697000000000001,-45.07270201370007
-0.07070000000000021,-45.93567590661774
-0.0717000000000001,-46.44497197456916
-0.07270000000000021,-46.96841515551922
-0.0737000000000001,-47.32209298048547
-0.07470000000000021,-47.8879775004315
-0.0757000000000001,-48.35483222938696
-0.07670000000000021,-48.80753984534376
-0.0777000000000001,-49.543189721273585
-0.07870000000000021,-50.1656626932142
-0.0797000000000001,-50.71740010016157
-0.08070000000000022,-51.19840194211567
-0.0817000000000001,-51.73599223606439
-0.08270000000000022,-52.44334788599691
-0.08370000000000011,-52.995085292944275
-0.08470000000000022,-53.603411151886235
-0.08570000000000011,-54.14100144583495
-0.08670000000000022,-54.494679270801214
-0.08770000000000011,-55.15959358173778
-0.08870000000000022,-55.76791944067975
-0.08970000000000011,-56.34795107362442
-0.09070000000000022,-56.97042404556503
-0.09170000000000011,-57.66363258249889
-0.09270000000000023,-58.38513534543006
-0.09370000000000012,-59.07834388236393
-0.09470000000000023,-59.78569953229645
-0.09570000000000012,-60.26670137425056
-0.09670000000000023,-60.56379074722222
-0.09770000000000012,-60.59208497321952
-0.09870000000000023,-61.20041083216149
-0.09970000000000012,-61.97850204708726
-0.10070000000000023,-62.75659326201302
-0.10170000000000012,-63.350772007956344
-0.10270000000000024,-64.27033435286862
-0.10370000000000013,-64.55327661284163
-0.10470000000000024,-65.11916113278764
-0.10570000000000013,-65.3596620537647
-0.10670000000000024,-65.84066389571882
-0.10770000000000013,-66.39240130266617
-0.10870000000000024,-66.85925603162164
-0.10970000000000013,-67.53831745555684
-0.11070000000000024,-68.21737887949207
-0.11170000000000013,-68.72667494744348
-0.11270000000000002,-69.40573637137871
-0.11370000000000013,-69.78770842234226
-0.11470000000000002,-70.77800633224777
-0.11570000000000014,-71.48536198218031
-0.11670000000000003,-71.69756867716005
-0.11770000000000014,-72.02295227612902
-0.11870000000000003,-72.23515897110877
-0.11970000000000014,-72.74445503906018
-0.12070000000000003,-73.197162655017
-0.12170000000000014,-74.10257788693062
-0.12270000000000003,-75.06458157083884
-0.12370000000000014,-75.4182593958051
-0.12470000000000003,-75.7577901077727
-0.12570000000000014,-75.84267278576462
-0.12670000000000003,-76.32367462771872
-0.12770000000000015,-77.0168831646526
-0.12870000000000004,-77.2998254246256
-0.12970000000000015,-77.71009170158646
-0.13070000000000004,-78.21938776953787
-0.13170000000000015,-78.8701549674758
-0.13270000000000004,-79.3228625834326
-0.13370000000000015,-79.57751061740831
-0.13470000000000004,-80.05851245936242
-0.13570000000000015,-80.38389605833139
-0.13670000000000004,-81.16198727325715
-0.13770000000000016,-82.13813807016405
-0.13870000000000005,-82.53425723412623
-0.13970000000000016,-82.59084568612084
-0.14070000000000005,-82.97281773708441
-0.14170000000000016,-83.36893690104661
-0.14270000000000005,-84.07629255097913
-0.14370000000000016,-84.58558861893054
-0.14470000000000005,-85.16562025187521
-0.14570000000000016,-85.42026828585092
-0.14670000000000005,-85.68906343282526
-0.14770000000000016,-85.91541724080368
-0.14870000000000005,-86.33983063076319
-0.14970000000000017,-86.9623036027038
-0.15070000000000006,-87.57062946164578
-0.15170000000000017,-88.07992552959718
-0.15270000000000006,-88.36286778957019
-0.15370000000000017,-88.46189758056073
-0.15470000000000006,-89.23998879548651
-0.15570000000000017,-89.42390126446898
-0.15670000000000006,-90.20199247939475
-0.15770000000000017,-90.6122587563556
-0.15870000000000006,-91.09326059830971
-0.15970000000000018,-91.34790863228542
-0.16070000000000007,-91.50352687527057
-0.16170000000000018,-92.19673541220443
-0.16270000000000007,-92.93238528813426
-0.16370000000000018,-93.21532754810727
-0.16470000000000007,-93.80950629405058
-0.16570000000000018,-94.16318411901683
-0.16670000000000007,-94.4602734919885
-0.16770000000000018,-94.88468688194801
-0.16870000000000007,-95.11104068992641
-0.16970000000000018,-95.50715985388862
-0.17070000000000007,-96.03060303483868
-0.17170000000000019,-96.73795868477121
-0.17270000000000008,-97.34628454371318
-0.1737000000000002,-98.08193441964299
-0.17470000000000008,-98.80343718257416
-0.1757000000000002,-99.25614479853097
-0.17670000000000008,-99.56738128450128
-0.1777000000000002,-99.62396973649588
-0.17870000000000008,-99.6522639624932
-0.1797000000000002,-100.37376672542435
-0.18070000000000008,-100.76988588938657
-0.1817000000000002,-101.39235886132718
-0.18270000000000008,-101.85921359028264
-0.1837000000000002,-102.48168656222326
-0.1847000000000001,-102.45339233622596
-0.1857000000000002,-102.84951150018817
-0.1867000000000001,-103.23148355115173
-0.1877000000000002,-103.91054497508695
-0.1887000000000001,-104.05201610507345
-0.1897000000000002,-104.26422280005319
-0.1907000000000001,-104.78766598100327
-0.1917000000000001,-105.32525627495198
-0.19269999999999998,-105.52331585693308
-0.1937000000000001,-105.79211100390745
-0.19469999999999998,-106.3155541848575
-0.1957000000000001,-106.81070313981027
-0.19669999999999999,-107.64538280673065
-0.1977000000000001,-107.81514816271445
-0.1987,-108.21126732667666
-0.1997000000000001,-108.18297310067936
-0.2007,-108.63568071663616
-0.2017000000000001,-109.6825670785363
-0.2027,-109.80989109552415
-0.2037000000000001,-109.83818532152145
-0.2047,-110.03624490350255
-0.2057000000000001,-110.38992272846882
-0.2067,-110.5879823104499
-0.2077000000000001,-110.57383519745127
-0.2087,-111.5641331073568
-0.2097000000000001,-111.88951670632574
-0.2107,-112.49784256526772
-0.2117000000000001,-111.88951670632574
-0.2127,-112.31393009628526
-0.2137000000000001,-112.90810884222859
-0.2147,-112.87981461623129
-0.2157000000000001,-113.07787419821238
-0.2167,-113.62961160515974
-0.21770000000000012,-113.92670097813141
-0.2187,-114.16720189910848
-0.21970000000000012,-115.4970305209816
-0.2207,-116.23268039691139
-0.22170000000000012,-116.55806399588037
-0.2227,-117.01077161183719
-0.22370000000000012,-116.69953512586686
-0.2247,-116.21853328391276
-0.22570000000000012,-116.10535637992358
-0.2267,-116.20438617091412
-0.22770000000000012,-116.30341596190465
-0.22870000000000001,-116.52976976988306
-0.22970000000000013,-116.92588893384529
-0.23070000000000002,-116.85515336885203
-0.23170000000000013,-117.23712541981558
-0.23270000000000002,-117.3785965498021
-0.23370000000000013,-117.61909747077915
-0.23470000000000002,-117.84545127875757
-0.23570000000000013,-118.38304157270628
-0.23670000000000002,-118.75086651067119
-0.2376999999999999,-118.65183671968063
-0.23870000000000002,-118.66598383267927
-0.2396999999999999,-118.5386598156914
-0.24070000000000003,-119.1186914486361
-0.24169999999999991,-118.90648475365633
-0.24270000000000003,-118.68013094567793
-0.24369999999999992,-118.69427805867657
-0.24470000000000003,-118.89233764065769
-0.24569999999999992,-119.2601625786226
-0.24670000000000003,-119.52895772559695
-0.24769999999999992,-119.44407504760505
-0.24870000000000003,-119.64213462958614
-0.24969999999999992,-119.86848843756455
-0.25070000000000003,-120.34949027951868
-0.2516999999999999,-120.81634500847414
-0.25270000000000004,-120.44852007050923
-0.2536999999999999,-120.03825379354835
-0.25470000000000004,-120.16557781053622
-0.2556999999999999,-120.29290182752408
-0.25670000000000004,-120.19387203653352
-0.25769999999999993,-119.78360575957267
-0.25870000000000004,-119.65628174258481
-0.25969999999999993,-120.00995956755105
-0.26070000000000004,-120.16557781053622
-0.26169999999999993,-120.23631337552946
-0.26270000000000004,-121.32564107642554
-0.26369999999999993,-121.19831705943768
-0.26470000000000005,-120.73146233048222
-0.26569999999999994,-119.92507688955916
-0.26670000000000005,-119.4582221606037
-0.26769999999999994,-119.61384040358885
-0.26870000000000005,-119.44407504760505
-0.26969999999999994,-119.65628174258481
-0.27070000000000005,-119.68457596858211
-0.27169999999999994,-119.67042885558345
-0.27270000000000005,-119.5713990645929
-0.27369999999999994,-120.15143069753758
-0.27470000000000006,-120.03825379354835
-0.27569999999999995,-119.4582221606037
-0.27670000000000006,-119.52895772559695
-0.27769999999999995,-120.08069513254432
-0.27870000000000006,-120.49096140950518
-0.27969999999999995,-120.87293346046872
-0.28070000000000006,-120.09484224554296
-0.28169999999999995,-119.9109297765605
-0.28270000000000006,-119.30260391761853
-0.28369999999999995,-118.63768960668197
-0.28470000000000006,-118.77916073666849
-0.28569999999999995,-118.29815889471436
-0.28670000000000007,-118.0576579737373
-0.28769999999999996,-118.21327621672248
-0.28870000000000007,-118.70842517167522
-0.28969999999999996,-117.59080324478184
-0.29070000000000007,-117.93033395674945
-0.29169999999999996,-117.56250901878454
-0.29270000000000007,-117.6615388097751
-0.29369999999999996,-117.6615388097751
-0.2947000000000001,-118.1991291037238
-0.29569999999999996,-118.11424642573192
-0.2967000000000001,-118.2557175557184
-0.29769999999999996,-118.31230600771303
-0.2987000000000001,-117.87374550475487
-0.29969999999999997,-117.08150717683044
-0.3007000000000001,-116.43073997889252
-0.30169999999999997,-116.20438617091412
-0.3027000000000001,-116.40244575289522
-0.30369999999999997,-116.61465244787497
-0.3047000000000001,-116.34585730090062
-0.30569999999999997,-116.17609194491682
-0.3067000000000001,-116.24682750991008
-0.3077,-116.21853328391276
-0.3087000000000001,-116.10535637992358
-0.3097,-116.04876792792896
-0.3107000000000001,-115.8931496849438
-0.3117,-116.24682750991008
-0.3127000000000001,-116.64294667387229
-0.3137,-116.92588893384529
-0.3147000000000001,-117.22297830681694
-0.3157,-117.19468408081964
-0.3167000000000001,-116.36000441389926
-0.3177,-115.77997278095461
-0.3187000000000001,-115.87900257194515
-0.3197,-116.62879956087362
-0.3207000000000001,-116.89759470784797
-0.3217,-117.42103788879804
-0.3227000000000001,-116.95418315984259
-0.3237,-116.21853328391276
-0.3247000000000001,-116.41659286589388
-0.3257,-116.40244575289522
-0.3267000000000001,-116.60050533487632
-0.3277,-117.180536967821
-0.3287000000000001,-117.02491872483584
-0.3297,-117.19468408081964
-0.3307000000000001,-117.19468408081964
-0.3317,-116.91174182084664
-0.3327000000000001,-116.89759470784797
-0.3337,-117.0390658378345
-0.3347000000000001,-117.26541964581288
-0.3357,-117.29371387181018
-0.3367000000000001,-117.30786098480884
-0.3377,-117.4917734537913
-0.3387000000000001,-117.39274366280074
-0.3397,-117.54836190578591
-0.3407000000000001,-117.90203973075215
-0.3417,-118.15668776472786
-0.3427000000000001,-118.43963002470086
-0.3437,-118.73671939767253
-0.3447000000000001,-118.90648475365633
-0.3457,-119.06210299664149
-0.3467000000000001,-119.30260391761853
-0.3477,-119.44407504760505
-0.3487000000000001,-119.82604709856861
-0.3497,-120.61828542649305
-0.3507000000000001,-120.92952191246334
-0.3517,-120.60413831349437
-0.3527000000000001,-120.33534316652002
-0.3537,-120.19387203653352
-0.3547000000000001,-120.17972492353488
-0.3557,-120.75975655647954
-0.35670000000000013,-121.79249580538101
-0.3577,-121.75005446638507
-0.35870000000000013,-121.56614199740261
-0.3597,-121.63687756239585
-0.36070000000000013,-123.40526668722715
-0.3617,-124.94730200408004
-0.3626999999999999,-125.35756828104091
-0.3637,-125.3858625070382
-0.3646999999999999,-125.00389045607463
-0.3657,-124.42385882312999
-0.3666999999999999,-123.2779426702393
-0.3677,-125.73954033200447
-0.3686999999999999,-126.60251422492213
-0.36970000000000003,-127.50792945683575
-0.3706999999999999,-127.42304677884384
-0.37170000000000003,-126.88545648489513
-0.3726999999999999,-126.9561920498884
-0.37370000000000003,-127.84746016880335
-0.3746999999999999,-128.34260912375615
-0.37570000000000003,-129.0641118866873
-0.3766999999999999,-129.04996477368866
-0.37770000000000004,-129.03581766069
-0.3786999999999999,-128.89434653070347
-0.37970000000000004,-128.7811696267143
-0.3806999999999999,-129.07825899968594
-0.38170000000000004,-129.16314167767783
-0.38269999999999993,-129.38949548565625
-0.38370000000000004,-130.01196845759688
-0.38469999999999993,-130.5637058645442
-0.38570000000000004,-131.48326820945653
-0.38669999999999993,-130.66273565553476
-0.38770000000000004,-130.42223473455772
-0.38869999999999993,-130.63444142953747
-0.38970000000000005,-130.73347122052803
-0.39069999999999994,-131.624739339443
-0.39170000000000005,-131.72376913043357
-0.39269999999999994,-132.36038921537283
-0.39370000000000005,-132.60089013634988
-0.39469999999999994,-132.5443016843553
-0.39570000000000005,-132.8555381703256
-0.39669999999999994,-132.8272439443283
-0.39770000000000005,-133.0253035263094
-0.39869999999999994,-132.55844879735392
-0.39970000000000006,-132.24721231138363
-0.40069999999999995,-132.69991992734043
-0.40170000000000006,-132.84139105732694
-0.40269999999999995,-133.5770409332568
-0.40370000000000006,-133.8599831932298
-0.40469999999999995,-134.29854369618792
-0.40570000000000006,-134.5956330691596
-0.40669999999999995,-134.66636863415286
-0.40770000000000006,-134.7936926511407
-0.40869999999999995,-134.83613399013663
-0.40970000000000006,-135.1615175891056
-0.41069999999999995,-135.37372428408534
-0.41170000000000007,-135.387871397084
-0.41269999999999996,-135.58593097906513
-0.41370000000000007,-135.5576367530678
-0.41469999999999996,-135.93960880403137
-0.41570000000000007,-136.06693282101924
-0.41669999999999996,-136.27913951599896
-0.41770000000000007,-136.71770001895717
-0.41869999999999996,-137.0996720699207
-0.4197000000000001,-137.39676144289237
-0.42069999999999996,-137.48164412088425
-0.4217000000000001,-137.67970370286537
-0.42269999999999996,-137.93435173684108
-0.4237000000000001,-138.14655843182084
-0.42469999999999997,-138.08996997982624
-0.4257000000000001,-138.85391408175335
-0.42669999999999997,-138.85391408175335
-0.4277000000000001,-138.78317851676007
-0.42869999999999997,-139.1792976807223
-0.4297000000000001,-138.93879675974523
-0.43069999999999997,-139.80177065266292
-0.4317000000000001,-139.87250621765617
-0.4327,-140.3818022856076
-0.4337000000000001,-141.07501082254146
-0.4347,-141.47112998650366
-0.4357000000000001,-141.75407224647665
-0.4367,-141.75407224647665
-0.4377000000000001,-142.17848563643616
-0.4387,-142.7443701563822
-0.4397000000000001,-142.7443701563822
-0.4407,-143.3102546763282
-0.4417000000000001,-143.5931969363012
-0.4427,-144.01761032626072
-0.4437000000000001,-144.30055258623375
-0.4447,-144.86643710617977
-0.4457000000000001,-145.7152638860988
-0.4467,-146.5640906660178
-0.4477000000000001,-147.6958597059098
-0.4487,-148.68615761581535
-0.4497000000000001,-150.24234004566688
-0.4507,-151.23263795557244
-0.4517000000000001,-152.22293586547795
-0.4527,-153.21323377538346
-0.4537000000000001,-154.0620605553025
-0.4547,-155.47677185516753
-0.4557000000000001,-156.89148315503257
-0.4567,-158.4476655848841
-0.4577000000000001,-160.14531914472215
-0.4587,-162.2673860945197
-0.4597000000000001,-164.53092417430375
-0.4607,-167.07740451406085
-0.4617000000000001,-169.19947146385837
-0.4627,-170.89712502369645
-0.4637000000000001,-173.58507649344
-0.4647,-175.99008570321055
-0.4657000000000001,-178.81950830294062
-0.4667,-181.36598864269772
-0.4677000000000001,-183.91246898245475
-0.4687,-186.60042045219836
-0.4697000000000001,-189.42984305192843
-0.4707,-192.40073678164498
-0.4717000000000001,-195.37163051136156
-0.4727,-198.62546650105114
-0.4737000000000001,-201.03047571082172
-0.4747,-203.29401379060576
-0.4757000000000001,-206.68932091028185
-0.4767,-210.22609915994445
-0.4777000000000001,-213.90434853959354
-0.4787,-217.86554017921566
-0.4797000000000001,-221.68526068885126
-0.4807,-224.2317410286083
-0.48170000000000013,-227.9099904082574
-0.4827,-232.15412430785253
-0.48370000000000013,-234.84207577759608
-0.4847,-237.9544406372992
-0.48570000000000013,-240.64239210704275
-0.4867,-241.06680549700224
-0.48570000000000013,-240.50092097705624
-0.4847,-239.0862096771912
-0.48370000000000013,-238.2373828972722
-0.4827,-237.67149837732615
-0.48170000000000013,-237.10561385738015
-0.4807,-237.24708498736666
-0.4797000000000001,-236.6812004674206
-0.4787,-235.97384481748813
-0.4777000000000001,-235.69090255751513
-0.4767,-235.54943142752862
-0.4757000000000001,-234.27619125765005
-0.4747,-234.7006046476096
-0.4737000000000001,-233.71030673770406
-0.4727,-232.72000882779852
-0.4717000000000001,-232.43706656782552
-0.4707,-231.8711820478795
-0.4697000000000001,-231.3052975279335
-0.4687,-230.59794187800094
-0.4677000000000001,-230.45647074801445
-0.4667,-229.74911509808197
