Potential V vs RHE, Current mA cm-2
0.013299999999999867,0.08502414912188871
0.012299999999999978,-1.6594563547416883
0.011299999999999866,-3.1420737970002466
0.010299999999999976,-4.406825699079589
0.009299999999999864,-5.5414241615713475
0.008299999999999974,-6.500598422879844
0.007299999999999862,-7.329619244600755
0.006299999999999972,-8.070927965730034
0.00529999999999986,-8.68208324727173
0.0042999999999999705,-9.205526428221793
0.0032999999999998586,-9.685113558876042
0.0022999999999999687,-10.078403300238522
0.0012999999999998568,-10.470278330301136
0.00029999999999996696,-10.819712021367803
-0.000700000000000145,-11.1677310011346
-0.0017000000000000348,-11.517164692201263
-0.0027000000000001467,-11.82274233297211
-0.0037000000000000366,-12.170761312738911
-0.0047000000000001485,-12.432482903213943
-0.005700000000000038,-12.607907104397206
-0.00670000000000015,-12.825772644576423
-0.00770000000000004,-12.955926084164007
-0.008700000000000152,-13.087494235051453
-0.009700000000000042,-13.175206335643086
-0.010700000000000154,-13.217647674639037
-0.011700000000000044,-13.349215825526485
-0.012700000000000156,-13.436927926118118
-0.013700000000000045,-13.523225315409885
-0.014700000000000157,-13.654793466297335
-0.015700000000000047,-13.784946905884919
-0.01670000000000016,-13.916515056772363
-0.01770000000000005,-14.046668496359947
-0.01870000000000016,-14.13438059695158
-0.01970000000000005,-14.217848563643619
-0.020700000000000163,-14.217848563643619
-0.021700000000000053,-14.217848563643619
-0.022700000000000164,-14.26028990263957
-0.023700000000000054,-14.26028990263957
-0.024700000000000166,-14.26028990263957
-0.025700000000000056,-14.26028990263957
-0.026700000000000168,-14.26028990263957
-0.027700000000000058,-14.345172580631472
-0.02870000000000017,-14.444202371622024
-0.02970000000000006,-14.529085049613924
-0.03070000000000017,-14.61396772760583
-0.03170000000000006,-14.65640906660178
-0.03270000000000017,-14.69885040559773
-0.03370000000000006,-14.741291744593681
-0.034700000000000175,-14.69885040559773
-0.035700000000000065,-14.69885040559773
-0.03670000000000018,-14.69885040559773
-0.03770000000000007,-14.61396772760583
-0.03870000000000018,-14.65640906660178
-0.03970000000000007,-14.61396772760583
-0.04070000000000018,-14.65640906660178
-0.04170000000000007,-14.741291744593681
-0.04270000000000018,-14.783733083589633
-0.04370000000000007,-14.868615761581536
-0.044700000000000184,-14.925204213576137
-0.045700000000000074,-14.967645552572087
-0.046700000000000186,-15.01008689156804
-0.047700000000000076,-14.967645552572087
-0.04870000000000019,-14.925204213576137
-0.04970000000000008,-14.868615761581536
-0.05070000000000019,-14.826174422585586
-0.05170000000000008,-14.826174422585586
-0.05270000000000019,-14.826174422585586
-0.05370000000000008,-14.868615761581536
-0.05470000000000019,-14.925204213576137
-0.05570000000000008,-14.925204213576137
-0.056700000000000195,-15.01008689156804
-0.057700000000000085,-15.094969569559943
-0.058700000000000196,-15.094969569559943
-0.059700000000000086,-15.137410908555893
-0.0607000000000002,-15.137410908555893
-0.06170000000000009,-15.137410908555893
-0.0627000000000002,-15.094969569559943
-0.06370000000000009,-15.01008689156804
-0.0647000000000002,-15.01008689156804
-0.06570000000000009,-14.967645552572087
-0.0667000000000002,-15.01008689156804
-0.0677000000000001,-15.05252823056399
-0.0687000000000002,-15.094969569559943
-0.0697000000000001,-15.137410908555893
-0.07070000000000021,-15.222293586547794
-0.0717000000000001,-15.264734925543747
-0.07270000000000021,-15.264734925543747
-0.0737000000000001,-15.264734925543747
-0.07470000000000021,-15.222293586547794
-0.0757000000000001,-15.222293586547794
-0.07670000000000021,-15.179852247551842
-0.0777000000000001,-15.137410908555893
-0.07870000000000021,-15.137410908555893
-0.0797000000000001,-15.094969569559943
-0.08070000000000022,-15.137410908555893
-0.0817000000000001,-15.222293586547794
-0.08270000000000022,-15.222293586547794
-0.08370000000000011,-15.307176264539699
-0.08470000000000022,-15.349617603535648
-0.08570000000000011,-15.3920589425316
-0.08670000000000022,-15.3920589425316
-0.08770000000000011,-15.3920589425316
-0.08870000000000022,-15.349617603535648
-0.08970000000000011,-15.307176264539699
-0.09070000000000022,-15.222293586547794
-0.09170000000000011,-15.264734925543747
-0.09270000000000023,-15.264734925543747
-0.09370000000000012,-15.264734925543747
-0.09470000000000023,-15.307176264539699
-0.09570000000000012,-15.349617603535648
-0.09670000000000023,-15.448647394526201
-0.09770000000000012,-15.533530072518102
-0.09870000000000023,-15.533530072518102
-0.09970000000000012,-15.575971411514052
-0.10070000000000023,-15.533530072518102
-0.10170000000000012,-15.533530072518102
-0.10270000000000024,-15.533530072518102
-0.10370000000000013,-15.448647394526201
-0.10470000000000024,-15.3920589425316
-0.10570000000000013,-15.3920589425316
-0.10670000000000024,-15.3920589425316
-0.10770000000000013,-15.448647394526201
-0.10870000000000024,-15.491088733522153
-0.10970000000000013,-15.533530072518102
-0.11070000000000024,-15.618412750510005
-0.11170000000000013,-15.660854089505953
-0.11270000000000002,-15.70329542850191
-0.11370000000000013,-15.70329542850191
-0.11470000000000002,-15.660854089505953
-0.11570000000000014,-15.660854089505953
-0.11670000000000003,-15.618412750510005
-0.11770000000000014,-15.533530072518102
-0.11870000000000003,-15.533530072518102
-0.11970000000000014,-15.533530072518102
-0.12070000000000003,-15.575971411514052
-0.12170000000000014,-15.618412750510005
-0.12270000000000003,-15.660854089505953
-0.12370000000000014,-15.74573676749786
-0.12470000000000003,-15.78817810649381
-0.12570000000000014,-15.830619445489761
-0.12670000000000003,-15.830619445489761
-0.12770000000000015,-15.87306078448571
-0.12870000000000004,-15.78817810649381
-0.12970000000000015,-15.78817810649381
-0.13070000000000004,-15.74573676749786
-0.13170000000000015,-15.74573676749786
-0.13270000000000004,-15.70329542850191
-0.13370000000000015,-15.74573676749786
-0.13470000000000004,-15.78817810649381
-0.13570000000000015,-15.830619445489761
-0.13670000000000004,-15.91550212348166
-0.13770000000000016,-16.014531914472215
-0.13870000000000005,-16.014531914472215
-0.13970000000000016,-16.056973253468165
-0.14070000000000005,-16.056973253468165
-0.14170000000000016,-16.014531914472215
-0.14270000000000005,-15.972090575476265
-0.14370000000000016,-15.91550212348166
-0.14470000000000005,-15.87306078448571
-0.14570000000000016,-15.87306078448571
-0.14670000000000005,-15.87306078448571
-0.14770000000000016,-15.91550212348166
-0.14870000000000005,-15.972090575476265
-0.14970000000000017,-16.056973253468165
-0.15070000000000006,-16.141855931460068
-0.15170000000000017,-16.184297270456018
-0.15270000000000006,-16.22673860945197
-0.15370000000000017,-16.184297270456018
-0.15470000000000006,-16.184297270456018
-0.15570000000000017,-16.184297270456018
-0.15670000000000006,-16.141855931460068
-0.15770000000000017,-16.056973253468165
-0.15870000000000006,-16.099414592464115
-0.15970000000000018,-16.056973253468165
-0.16070000000000007,-16.099414592464115
-0.16170000000000018,-16.184297270456018
-0.16270000000000007,-16.22673860945197
-0.16370000000000018,-16.311621287443874
-0.16470000000000007,-16.396503965435777
-0.16570000000000018,-16.396503965435777
-0.16670000000000007,-16.438945304431726
-0.16770000000000018,-16.396503965435777
-0.16870000000000007,-16.396503965435777
-0.16970000000000018,-16.354062626439823
-0.17070000000000007,-16.311621287443874
-0.17170000000000019,-16.311621287443874
-0.17270000000000008,-16.311621287443874
-0.1737000000000002,-16.354062626439823
-0.17470000000000008,-16.396503965435777
-0.1757000000000002,-16.495533756426326
-0.17670000000000008,-16.53797509542228
-0.1777000000000002,-16.665299112410132
-0.17870000000000008,-16.665299112410132
-0.1797000000000002,-16.70774045140608
-0.18070000000000008,-16.70774045140608
-0.1817000000000002,-16.665299112410132
-0.18270000000000008,-16.665299112410132
-0.1837000000000002,-16.622857773414182
-0.1847000000000001,-16.622857773414182
-0.1857000000000002,-16.622857773414182
-0.1867000000000001,-16.622857773414182
-0.1877000000000002,-16.70774045140608
-0.1887000000000001,-16.750181790402035
-0.1897000000000002,-16.835064468393938
-0.1907000000000001,-16.919947146385837
-0.1917000000000001,-16.962388485381787
-0.19269999999999998,-17.018976937376394
-0.1937000000000001,-17.018976937376394
-0.19469999999999998,-17.018976937376394
-0.1957000000000001,-17.018976937376394
-0.19669999999999999,-16.962388485381787
-0.1977000000000001,-16.919947146385837
-0.1987,-16.962388485381787
-0.1997000000000001,-16.919947146385837
-0.2007,-17.018976937376394
-0.2017000000000001,-17.103859615368293
-0.2027,-17.146300954364243
-0.2037000000000001,-17.2736249713521
-0.2047,-17.316066310348052
-0.2057000000000001,-17.358507649344002
-0.2067,-17.40094898833995
-0.2077000000000001,-17.358507649344002
-0.2087,-17.358507649344002
-0.2097000000000001,-17.358507649344002
-0.2107,-17.316066310348052
-0.2117000000000001,-17.316066310348052
-0.2127,-17.358507649344002
-0.2137000000000001,-17.40094898833995
-0.2147,-17.48583166633185
-0.2157000000000001,-17.627302796318357
-0.2167,-17.669744135314307
-0.21770000000000012,-17.797068152302163
-0.2187,-17.839509491298113
-0.21970000000000012,-17.881950830294063
-0.2207,-17.881950830294063
-0.22170000000000012,-17.881950830294063
-0.2227,-17.881950830294063
-0.22370000000000012,-17.881950830294063
-0.2247,-17.881950830294063
-0.22570000000000012,-17.881950830294063
-0.2267,-17.881950830294063
-0.22770000000000012,-17.966833508285966
-0.22870000000000001,-18.06586329927652
-0.22970000000000013,-18.15074597726842
-0.23070000000000002,-18.23562865526032
-0.23170000000000013,-18.320511333252224
-0.23270000000000002,-18.362952672248177
-0.23370000000000013,-18.40539401124413
-0.23470000000000002,-18.44783535024008
-0.23570000000000013,-18.44783535024008
-0.23670000000000002,-18.40539401124413
-0.2376999999999999,-18.40539401124413
-0.23870000000000002,-18.44783535024008
-0.2396999999999999,-18.44783535024008
-0.24070000000000003,-18.53271802823198
-0.24169999999999991,-18.674189158218486
-0.24270000000000003,-18.759071836210385
-0.24369999999999992,-18.88639585319824
-0.24470000000000003,-18.97127853119014
-0.24569999999999992,-19.01371987018609
-0.24670000000000003,-19.112749661176647
-0.24769999999999992,-19.112749661176647
-0.24870000000000003,-19.155191000172596
-0.24969999999999992,-19.155191000172596
-0.25070000000000003,-19.155191000172596
-0.2516999999999999,-19.197632339168546
-0.25270000000000004,-19.197632339168546
-0.2536999999999999,-19.28251501716045
-0.25470000000000004,-19.409839034148305
-0.2556999999999999,-19.49472171214021
-0.25670000000000004,-19.636192842126707
-0.25769999999999993,-19.721075520118614
-0.25870000000000004,-19.848399537106463
-0.25969999999999993,-19.93328221509837
-0.26070000000000004,-19.97572355409432
-0.26169999999999993,-19.97572355409432
-0.26270000000000004,-20.01816489309027
-0.26369999999999993,-20.01816489309027
-0.26470000000000005,-20.06060623208622
-0.26569999999999994,-20.159636023076775
-0.26670000000000005,-20.244518701068674
-0.26769999999999994,-20.329401379060574
-0.26870000000000005,-20.456725396048434
-0.26969999999999994,-20.584049413036283
-0.27070000000000005,-20.72552054302279
-0.27169999999999994,-20.85284456001064
-0.27270000000000005,-20.93772723800254
-0.27369999999999994,-21.022609915994444
-0.27470000000000006,-21.065051254990397
-0.27569999999999995,-21.149933932982297
-0.27670000000000006,-21.149933932982297
-0.27769999999999995,-21.2065223849769
-0.27870000000000006,-21.291405062968803
-0.27969999999999995,-21.376287740960702
-0.28070000000000006,-21.503611757948562
-0.28169999999999995,-21.63093577493641
-0.28270000000000006,-21.772406904922917
-0.28369999999999995,-21.94217226090672
-0.28470000000000006,-22.111937616890522
-0.28569999999999995,-22.253408746877028
-0.28670000000000007,-22.38073276386488
-0.28769999999999996,-22.46561544185678
-0.28870000000000007,-22.508056780852733
-0.28969999999999996,-22.592939458844636
-0.29070000000000007,-22.63538079784059
-0.29169999999999996,-22.776851927827092
-0.29270000000000007,-22.861734605818995
-0.29369999999999996,-22.989058622806844
-0.2947000000000001,-23.2012653177866
-0.29569999999999996,-23.342736447773106
-0.2967000000000001,-23.55494314275286
-0.29769999999999996,-23.767149837732617
-0.2987000000000001,-23.908620967719123
-0.29969999999999997,-24.078386323702922
-0.3007000000000001,-24.16326900169483
-0.30169999999999997,-24.24815167968673
-0.3027000000000001,-24.389622809673234
-0.30369999999999997,-24.516946826661083
-0.3047000000000001,-24.601829504652986
-0.30569999999999997,-24.729153521640843
-0.3067000000000001,-24.9130659906233
-0.3077,-25.0828313466071
-0.3087000000000001,-25.295038041586857
-0.3097,-25.521391849565262
-0.3107000000000001,-25.77603988354097
-0.3117,-25.959952352523427
-0.3127000000000001,-26.17215904750318
-0.3137,-26.34192440348698
-0.3147000000000001,-26.483395533473487
-0.3157,-26.65316088945729
-0.3167000000000001,-26.780484906445146
-0.3177,-26.907808923433
-0.3187000000000001,-27.134162731411404
-0.3197,-27.261486748399253
-0.3207000000000001,-27.487840556377662
-0.3217,-27.78492992934932
-0.3227000000000001,-28.011283737327723
-0.3237,-28.308373110299385
-0.3247000000000001,-28.577168257273744
-0.3257,-28.789374952253496
-0.3267000000000001,-29.058170099227848
-0.3277,-29.22793545521166
-0.3287000000000001,-29.440142150191413
-0.3297,-29.62405461917387
-0.3307000000000001,-29.793819975157668
-0.3317,-30.04846800913338
-0.3327000000000001,-30.274821817111786
-0.3337,-30.529469851087494
-0.3347000000000001,-30.8407063370578
-0.3357,-31.137795710029454
-0.3367000000000001,-31.449032195999767
-0.3377,-31.802710020966025
-0.3387000000000001,-32.05735805494172
-0.3397,-32.41103587990799
-0.3407000000000001,-32.62324257488775
-0.3417,-32.892037721862096
-0.3427000000000001,-33.14668575583781
-0.3437,-33.373039563816214
-0.3447000000000001,-33.627687597791926
-0.3457,-33.89648274476628
-0.3467000000000001,-34.236013456733886
-0.3477,-34.58969128170015
-0.3487000000000001,-34.90092776767045
-0.3497,-35.282899818634014
-0.3507000000000001,-35.679018982596226
-0.3517,-36.03269680756248
-0.3527000000000001,-36.37222751953009
-0.3537,-36.725905344496354
-0.3547000000000001,-37.037141830466666
-0.3557,-37.334231203438314
-0.35670000000000013,-37.645467689408626
-0.3577,-37.94255706238028
-0.35870000000000013,-38.29623488734655
-0.3597,-38.607471373316855
-0.36070000000000013,-39.046031876275016
-0.3617,-39.42800392723857
-0.3626999999999999,-39.86656443019674
-0.3637,-40.30512493315489
-0.3646999999999999,-40.743685436113054
-0.3657,-41.139804600075266
-0.3666999999999999,-41.56421799003478
-0.3677,-41.96033715399699
-0.3686999999999999,-42.3564563179592
-0.36970000000000003,-42.71013414292546
-0.3706999999999999,-43.09210619388902
-0.37170000000000003,-43.48822535785123
-0.3726999999999999,-43.88434452181344
-0.37370000000000003,-44.3229050247716
-0.3746999999999999,-44.80390686672572
-0.37570000000000003,-45.27076159568118
-0.3766999999999999,-45.79420477663124
-0.37770000000000004,-46.3176479575813
-0.3786999999999999,-46.79864979953541
-0.37970000000000004,-47.32209298048547
-0.3806999999999999,-47.76065348344364
-0.38170000000000004,-48.156772647405845
-0.38269999999999993,-48.59533315036401
-0.38370000000000004,-49.03389365332217
-0.38469999999999993,-49.458307043281685
-0.38570000000000004,-49.939308885235796
-0.38669999999999993,-50.42031072718991
-0.38770000000000004,-50.98619524713592
-0.38869999999999993,-51.509638428085985
-0.38970000000000005,-52.075522948032
-0.39069999999999994,-52.64140746797801
-0.39170000000000005,-53.22143910092268
-0.39269999999999994,-53.7873236208687
-0.39370000000000005,-54.26832546282281
-0.39469999999999994,-54.791768643772876
-0.39570000000000005,-55.25862337272834
-0.39669999999999994,-55.73962521468245
-0.39770000000000005,-56.26306839563251
-0.39869999999999994,-56.786511576582576
-0.39970000000000006,-57.26751341853669
-0.40069999999999995,-57.87583927747865
-0.40170000000000006,-58.498312249419264
-0.40269999999999995,-59.10663810836124
-0.40370000000000006,-59.757405306299155
-0.40469999999999995,-60.32328982624517
-0.40570000000000006,-60.93161568518713
-0.40669999999999995,-61.53994154412909
-0.40770000000000006,-62.06338472507916
-0.40869999999999995,-62.64341635802381
-0.40970000000000006,-63.20930087796983
-0.41069999999999995,-63.732744058919906
-0.41170000000000007,-64.34106991786187
-0.41269999999999996,-64.90695443780788
-0.41370000000000007,-65.51528029674984
-0.41469999999999996,-66.20848883368372
-0.41570000000000007,-66.81681469262568
-0.41669999999999996,-67.52417034255821
-0.41770000000000007,-68.21737887949207
-0.41869999999999996,-68.86814607742998
-0.4197000000000001,-69.61794306635846
-0.42069999999999996,-70.22626892530042
-0.4217000000000001,-70.8345947842424
-0.42269999999999996,-71.44292064318435
-0.4237000000000001,-72.05124650212633
-0.42469999999999997,-72.71616081306288
-0.4257000000000001,-73.3669280110008
-0.42669999999999997,-74.0176952089387
-0.4277000000000001,-74.72505085887124
-0.42869999999999997,-75.46070073480107
-0.4297000000000001,-76.19635061073087
-0.43069999999999997,-76.98858893865528
-0.4317000000000001,-77.68179747558916
-0.4327,-78.38915312552167
-0.4337000000000001,-79.08236166245555
-0.4347,-79.7755701993894
-0.4357000000000001,-80.46877873632329
-0.4367,-81.13369304725985
-0.4377000000000001,-81.78446024519776
-0.4387,-82.56255146012353
-0.4397000000000001,-83.31234844905201
-0.4407,-84.09043966397778
-0.4417000000000001,-84.8826779919022
-0.4427,-85.70321054582392
-0.4437000000000001,-86.5378902127443
-0.4447,-87.37256987966467
-0.4457000000000001,-88.19310243358639
-0.4467,-88.94289942251486
-0.4477000000000001,-89.72099063744062
-0.4487,-90.51322896536506
-0.4497000000000001,-91.20643750229891
-0.4507,-91.89964603923279
-0.4517000000000001,-92.6918843671572
-0.4527,-93.42753424308701
-0.4537000000000001,-94.26221391000739
-0.4547,-95.12518780292505
-0.4557000000000001,-95.95986746984543
-0.4567,-96.79454713676581
-0.4577000000000001,-97.69996236867944
-0.4587,-98.5346420355998
-0.4597000000000001,-99.45420438051207
-0.4607,-100.23229559543785
-0.4617000000000001,-101.06697526235823
-0.4627,-101.88750781627995
-0.4637000000000001,-102.67974614420436
-0.4647,-103.50027869812607
-0.4657000000000001,-104.33495836504645
-0.4667,-105.16963803196683
-0.4677000000000001,-106.07505326388046
-0.4687,-106.95217426979677
-0.4697000000000001,-107.914177953705
-0.4707,-108.87618163761321
-0.4717000000000001,-109.73915553053091
-0.4727,-110.65871787544317
-0.4737000000000001,-111.57828022035544
-0.4747,-112.44125411327312
-0.4757000000000001,-113.27593378019348
-0.4767,-114.1530547861098
-0.4777000000000001,-115.01602867902749
-0.4787,-115.8931496849438
-0.4797000000000001,-116.81271202985609
-0.4807,-117.77471571376431
-0.48170000000000013,-118.72257228467387
-0.4827,-119.72701730757805
-0.48370000000000013,-120.73146233048222
-0.4847,-121.69346601439047
-0.48570000000000013,-122.69791103729463
-0.4867,-122.25935053433648
-0.48570000000000013,-119.64213462958614
-0.4847,-117.42103788879804
-0.48370000000000013,-115.4970305209816
-0.4827,-113.67205294415571
-0.48170000000000013,-112.10172340130552
-0.4807,-110.57383519745127
-0.4797000000000001,-109.17327101058488
-0.4787,-107.914177953705
-0.4777000000000001,-106.68337912282242
-0.4767,-105.50916874393444
-0.4757000000000001,-104.3773997040424
-0.4747,-103.24563066415038
-0.4737000000000001,-102.11386162425833
-0.4727,-100.92550413237171
-0.4717000000000001,-99.75129375348374
-0.4707,-98.57708337459576
-0.4697000000000001,-97.4877556736997
-0.4687,-96.35598663380765
-0.4677000000000001,-95.26665893291157
-0.4667,-94.21977257101145
