Potential V vs RHE, Current mA cm-2
0.013299999999999867,8.284549372009655
0.012299999999999978,6.322344799096849
0.011299999999999866,4.534149716067443
0.010299999999999976,2.8761080726256196
0.009299999999999864,1.349917522331218
0.008299999999999974,-0.1330535977523067
0.007299999999999862,-1.5717442541500557
0.006299999999999972,-2.924208256821031
0.00529999999999986,-4.276672259492005
0.0042999999999999705,-5.629136262162981
0.0032999999999998586,-6.893888164242324
0.0022999999999999687,-8.202496116617484
0.0012999999999998568,-9.55496011928846
0.00029999999999996696,-10.819712021367803
-0.000700000000000145,-12.084463923447142
-0.0017000000000000348,-13.349215825526485
-0.0027000000000001467,-14.529085049613924
-0.0037000000000000366,-15.74573676749786
-0.0047000000000001485,-16.835064468393938
-0.005700000000000038,-17.924392169290012
-0.00670000000000015,-18.92883719219419
-0.00770000000000004,-19.97572355409432
-0.008700000000000152,-20.980168576998494
-0.009700000000000042,-21.98461359990267
-0.010700000000000154,-22.989058622806844
-0.011700000000000044,-23.993503645711023
-0.012700000000000156,-24.997948668615198
-0.013700000000000045,-26.044835030515326
-0.014700000000000157,-27.049280053419505
-0.015700000000000047,-28.05372507632368
-0.01670000000000016,-29.100611438223805
-0.01770000000000005,-30.10505646112798
-0.01870000000000016,-31.052913032037555
-0.01970000000000005,-31.930034037953877
-0.020700000000000163,-32.84959638286615
-0.021700000000000053,-33.670128936787876
-0.022700000000000164,-34.5472499427042
-0.023700000000000054,-35.32534115762997
-0.024700000000000166,-36.16002082455034
-0.025700000000000056,-36.95225915247476
-0.026700000000000168,-37.85767438438838
-0.027700000000000058,-38.734795390304704
-0.02870000000000017,-39.61191639622103
-0.02970000000000006,-40.43244895014274
-0.03070000000000017,-41.352011295055014
-0.03170000000000006,-42.2715736399673
-0.03270000000000017,-43.09210619388902
-0.03370000000000006,-43.96922719980534
-0.034700000000000175,-44.704877075735155
-0.035700000000000065,-45.497115403659585
-0.03670000000000018,-46.27520661858535
-0.03770000000000007,-47.02500360751382
-0.03870000000000018,-47.71821214444768
-0.03970000000000007,-48.45386202037751
-0.04070000000000018,-49.20365900930597
-0.04170000000000007,-49.98175022423175
-0.04270000000000018,-50.73154721316022
-0.04370000000000007,-51.55207976708194
-0.044700000000000184,-52.34431809500636
-0.045700000000000074,-53.16485064892808
-0.046700000000000186,-53.999530315848446
-0.047700000000000076,-54.791768643772876
-0.04870000000000019,-55.56985985869864
-0.04970000000000008,-56.30550973462846
-0.05070000000000019,-57.05530672355693
-0.05170000000000008,-57.79095659948675
-0.05270000000000019,-58.45587091042332
-0.05370000000000008,-59.14907944735718
-0.05470000000000019,-59.842287984291055
-0.05570000000000008,-60.54964363422357
-0.056700000000000195,-61.28529351015339
-0.057700000000000085,-62.02094338608321
-0.058700000000000196,-62.72829903601572
-0.059700000000000086,-63.59127292893339
-0.0607000000000002,-64.38351125685783
-0.06170000000000009,-65.20404381077954
-0.0627000000000002,-65.99628213870396
-0.06370000000000009,-66.77437335362974
-0.0647000000000002,-67.52417034255821
-0.06570000000000009,-68.25982021848802
-0.0667000000000002,-68.91058741642594
-0.0677000000000001,-69.61794306635846
-0.0687000000000002,-70.26871026429637
-0.0697000000000001,-70.96191880123024
-0.07070000000000021,-71.66927445116276
-0.0717000000000001,-72.40492432709259
-0.07270000000000021,-73.15472131602105
-0.0737000000000001,-73.89037119195086
-0.07470000000000021,-74.66846240687663
-0.0757000000000001,-75.46070073480107
-0.07670000000000021,-76.23879194972683
-0.0777000000000001,-77.03103027765125
-0.07870000000000021,-77.80912149257702
-0.0797000000000001,-78.51647714250953
-0.08070000000000022,-79.20968567944341
-0.0817000000000001,-79.90289421637728
-0.08270000000000022,-80.61024986630979
-0.08370000000000011,-81.30345840324367
-0.08470000000000022,-82.03910827917348
-0.08570000000000011,-82.746463929106
-0.08670000000000022,-83.48211380503581
-0.08770000000000011,-84.27435213296022
-0.08870000000000022,-85.052443347886
-0.08970000000000011,-85.88712301480638
-0.09070000000000022,-86.7076555687281
-0.09170000000000011,-87.54233523564847
-0.09270000000000023,-88.32042645057423
-0.09370000000000012,-89.15510611749461
-0.09470000000000023,-89.89075599342443
-0.09570000000000012,-90.6405529823529
-0.09670000000000023,-91.33376151928677
-0.09770000000000012,-92.04111716921928
-0.09870000000000023,-92.73432570615316
-0.09970000000000012,-93.46997558208298
-0.10070000000000023,-94.17733123201549
-0.10170000000000012,-94.95542244694126
-0.10270000000000024,-95.74766077486568
-0.10370000000000013,-96.5681933287874
-0.10470000000000024,-97.40287299570777
-0.10570000000000013,-98.18096421063355
-0.10670000000000024,-99.05808521654988
-0.10770000000000013,-99.87861777047159
-0.10870000000000024,-100.71329743739196
-0.10970000000000013,-101.50553576531638
-0.11070000000000024,-102.24118564124619
-0.11170000000000013,-103.01927685617197
-0.11270000000000002,-103.76907384510045
-0.11370000000000013,-104.46228238203432
-0.11470000000000002,-105.21207937096277
-0.11570000000000014,-105.94772924689259
-0.11670000000000003,-106.68337912282242
-0.11770000000000014,-107.51805878974278
-0.11870000000000003,-108.39517979565912
-0.11970000000000014,-109.21571234958083
-0.12070000000000003,-110.05039201650122
-0.12170000000000014,-110.96995436141347
-0.12270000000000003,-111.83292825433115
-0.12370000000000014,-112.66760792125153
-0.12470000000000003,-113.44569913617728
-0.12570000000000014,-114.23793746410173
-0.12670000000000003,-115.01602867902749
-0.12770000000000015,-115.76582566795594
-0.12870000000000004,-116.45903420488982
-0.12970000000000015,-117.25127253281424
-0.13070000000000004,-117.98692240874406
-0.13170000000000015,-118.76501362366983
-0.13270000000000004,-119.5996932905902
-0.13370000000000015,-120.51925563550247
-0.13470000000000004,-121.38222952842017
-0.13570000000000015,-122.30179187333242
-0.13670000000000004,-123.2213542182447
-0.13770000000000016,-124.09847522416102
-0.13870000000000005,-125.00389045607463
-0.13970000000000016,-125.83857012299501
-0.14070000000000005,-126.6732497899154
-0.14170000000000016,-127.45134100484115
-0.14270000000000005,-128.28602067176152
-0.14370000000000016,-128.9792292086954
-0.14470000000000005,-129.79976176261712
-0.14570000000000016,-130.63444142953747
-0.14670000000000005,-131.4266797574619
-0.14770000000000016,-132.33209498937555
-0.14870000000000005,-133.2516573342878
-0.14970000000000017,-134.17121967920008
-0.15070000000000006,-135.09078202411234
-0.15170000000000017,-136.03863859502192
-0.15270000000000006,-136.91575960093826
-0.15370000000000017,-137.75043926785864
-0.15470000000000006,-138.57097182178035
-0.15570000000000017,-139.44809282769666
-0.15670000000000006,-140.22618404262244
-0.15770000000000017,-141.01842237054686
-0.15870000000000006,-141.75407224647665
-0.15970000000000018,-142.4614278964092
-0.16070000000000007,-143.3102546763282
-0.16170000000000018,-144.01761032626072
-0.16270000000000007,-144.86643710617977
-0.16370000000000018,-145.7152638860988
-0.16470000000000007,-146.5640906660178
-0.16570000000000018,-147.55438857592333
-0.16670000000000007,-148.54468648582886
-0.16770000000000018,-149.25204213576137
-0.16870000000000007,-150.24234004566688
-0.16970000000000018,-151.09116682558593
-0.17070000000000007,-151.93999360550492
-0.17170000000000019,-152.78882038542397
-0.17270000000000008,-153.49617603535648
-0.1737000000000002,-154.203531685289
-0.17470000000000008,-155.05235846520802
-0.1757000000000002,-155.75971411514055
-0.17670000000000008,-156.46706976507306
-0.1777000000000002,-157.31589654499206
-0.17870000000000008,-158.3061944548976
-0.1797000000000002,-159.15502123481662
-0.18070000000000008,-160.00384801473567
-0.1817000000000002,-160.8526747946547
-0.18270000000000008,-161.84297270456022
-0.1837000000000002,-162.6917994844792
-0.1847000000000001,-163.54062626439824
-0.1857000000000002,-164.38945304431726
-0.1867000000000001,-165.09680869424977
-0.1877000000000002,-165.94563547416882
-0.1887000000000001,-166.51151999411482
-0.1897000000000002,-167.36034677403384
-0.1907000000000001,-168.06770242396635
-0.1917000000000001,-168.77505807389886
-0.19269999999999998,-169.6238848538179
-0.1937000000000001,-170.61418276372342
-0.19469999999999998,-171.46300954364247
-0.1957000000000001,-172.31183632356147
-0.19669999999999999,-173.302134233467
-0.1977000000000001,-174.2924321433725
-0.1987,-175.14125892329156
-0.1997000000000001,-175.99008570321055
-0.2007,-176.8389124831296
-0.2017000000000001,-177.54626813306209
-0.2027,-178.3950949129811
-0.2037000000000001,-179.10245056291362
-0.2047,-179.80980621284618
-0.2057000000000001,-180.65863299276518
-0.2067,-181.5074597726842
-0.2077000000000001,-182.35628655260325
-0.2087,-183.34658446250873
-0.2097000000000001,-184.33688237241427
-0.2107,-185.1857091523333
-0.2117000000000001,-186.17600706223882
-0.2127,-187.16630497214436
-0.2137000000000001,-188.15660288204987
-0.2147,-189.1469007919554
-0.2157000000000001,-190.13719870186094
-0.2167,-190.98602548177996
-0.21770000000000012,-191.9763233916855
-0.2187,-192.82515017160452
-0.21970000000000012,-193.81544808151003
-0.2207,-194.66427486142905
-0.22170000000000012,-195.65457277133459
-0.2227,-196.6448706812401
-0.22370000000000012,-197.63516859114563
-0.2247,-198.62546650105114
-0.22570000000000012,-199.61576441095667
-0.2267,-200.7475334508487
-0.22770000000000012,-201.73783136075423
-0.22870000000000001,-202.58665814067325
-0.22970000000000013,-203.57695605057876
-0.23070000000000002,-204.5672539604843
-0.23170000000000013,-205.41608074040332
-0.23270000000000002,-206.26490752032234
-0.23370000000000013,-207.1137343002414
-0.23470000000000002,-207.96256108016038
-0.23570000000000013,-208.95285899006592
-0.23670000000000002,-209.8016857699849
-0.2376999999999999,-210.79198367989048
-0.23870000000000002,-211.782281589796
-0.2396999999999999,-212.77257949970152
-0.24070000000000003,-213.62140627962054
-0.24169999999999991,-214.75317531951256
-0.24270000000000003,-215.4605309694451
-0.24369999999999992,-216.4508288793506
-0.24470000000000003,-217.29965565926966
-0.24569999999999992,-218.14848243918865
-0.24670000000000003,-218.99730921910768
-0.24769999999999992,-219.8461359990267
-0.24870000000000003,-220.6949627789457
-0.24969999999999992,-221.54378955886475
-0.25070000000000003,-222.3926163387838
-0.2516999999999999,-223.38291424868927
-0.25270000000000004,-224.2317410286083
-0.2536999999999999,-225.22203893851383
-0.25470000000000004,-226.21233684841937
-0.2556999999999999,-227.2026347583249
-0.25670000000000004,-228.0514615382439
-0.25769999999999993,-229.04175944814943
-0.25870000000000004,-230.03205735805497
-0.25969999999999993,-231.0223552679605
-0.26070000000000004,-231.8711820478795
-0.26169999999999993,-232.57853769781204
-0.26270000000000004,-233.1444222177581
-0.26369999999999993,-233.85177786769057
-0.26470000000000005,-234.55913351762308
-0.26569999999999994,-235.26648916755556
-0.26670000000000005,-236.1153159474746
-0.26769999999999994,-236.96414272739366
-0.26870000000000005,-237.9544406372992
-0.26969999999999994,-239.0862096771912
-0.27070000000000005,-240.0765075870967
-0.27169999999999994,-241.06680549700224
-0.27270000000000005,-241.9156322769213
-0.27369999999999994,-242.76445905684034
-0.27470000000000006,-243.6132858367593
-0.27569999999999995,-244.46211261667833
-0.27670000000000006,-245.16946826661086
-0.27769999999999995,-246.01829504652986
-0.27870000000000006,-246.7256506964624
-0.27969999999999995,-247.4330063463949
-0.28070000000000006,-248.28183312631393
-0.28169999999999995,-248.9891887762465
-0.28270000000000006,-249.83801555616546
-0.28369999999999995,-250.828313466071
-0.28470000000000006,-251.67714024599002
-0.28569999999999995,-252.66743815589555
-0.28670000000000007,-253.65773606580112
-0.28769999999999996,-254.50656284572008
-0.28870000000000007,-255.35538962563913
-0.28969999999999996,-256.20421640555816
-0.29070000000000007,-257.0530431854772
-0.29169999999999996,-257.76039883540966
-0.29270000000000007,-258.60922561532874
-0.29369999999999996,-259.3165812652612
-0.2947000000000001,-260.02393691519376
-0.29569999999999996,-260.73129256512624
-0.2967000000000001,-261.4386482150588
-0.29769999999999996,-262.42894612496434
-0.2987000000000001,-263.27777290488336
-0.29969999999999997,-264.12659968480233
-0.3007000000000001,-265.11689759470784
-0.30169999999999997,-265.9657243746269
-0.3027000000000001,-266.9560222845325
-0.30369999999999997,-267.94632019443793
-0.3047000000000001,-268.79514697435695
-0.30569999999999997,-269.5025026242895
-0.3067000000000001,-270.35132940420846
-0.3077,-271.05868505414105
-0.3087000000000001,-271.9075118340601
-0.3097,-272.7563386139791
-0.3107000000000001,-273.4636942639116
-0.3117,-274.31252104383066
-0.3127000000000001,-275.30281895373616
-0.3137,-276.15164573365513
-0.3147000000000001,-277.2834147735472
-0.3157,-278.1322415534662
-0.3167000000000001,-279.26401059335825
-0.3177,-280.11283737327733
-0.3187000000000001,-280.9616641531963
-0.3197,-281.8104909331153
-0.3207000000000001,-282.65931771303434
-0.3217,-283.5081444929533
-0.3227000000000001,-284.35697127287233
-0.3237,-285.0643269228049
-0.3247000000000001,-285.9131537027239
-0.3257,-286.6205093526564
-0.3267000000000001,-287.46933613257545
-0.3277,-288.45963404248096
-0.3287000000000001,-289.4499319523865
-0.3297,-290.29875873230554
-0.3307000000000001,-291.28905664221105
-0.3317,-292.4208256821031
-0.3327000000000001,-293.26965246202207
-0.3337,-294.11847924194115
-0.3347000000000001,-294.96730602186017
-0.3357,-295.8161328017792
-0.3367000000000001,-296.52348845171167
-0.3377,-297.3723152316307
-0.3387000000000001,-298.2211420115498
-0.3397,-299.06996879146874
-0.3407000000000001,-300.06026670137425
-0.3417,-300.9090934812933
-0.3427000000000001,-301.8993913911989
-0.3437,-302.88968930110434
-0.3447000000000001,-303.87998721100985
-0.3457,-304.72881399092887
-0.3467000000000001,-305.57764077084795
-0.3477,-306.56793868075346
-0.3487000000000001,-307.27529433068594
-0.3497,-307.98264998061853
-0.3507000000000001,-308.8314767605375
-0.3517,-309.6803035404565
-0.3527000000000001,-310.52913032037554
-0.3537,-311.2364859703081
-0.3547000000000001,-312.0853127502271
-0.3557,-312.9341395301461
-0.35670000000000013,-313.78296631006515
-0.3577,-314.6317930899841
-0.35870000000000013,-315.6220909998897
-0.3597,-316.47091777980876
-0.36070000000000013,-317.46121568971427
-0.3617,-318.31004246963323
-0.3626999999999999,-319.01739811956577
-0.3637,-319.8662248994848
-0.3646999999999999,-320.71505167940376
-0.3657,-321.56387845932284
-0.3666999999999999,-322.2712341092554
-0.3677,-322.97858975918786
-0.3686999999999999,-323.8274165391069
-0.36970000000000003,-324.67624331902596
-0.3706999999999999,-325.6665412289314
-0.37170000000000003,-326.51536800885043
-0.3726999999999999,-327.3641947887695
-0.37370000000000003,-328.2130215686885
-0.3746999999999999,-329.20331947859404
-0.37570000000000003,-330.05214625851306
-0.3766999999999999,-330.9009730384321
-0.37770000000000004,-331.74979981835105
-0.3786999999999999,-332.59862659827013
-0.37970000000000004,-333.30598224820267
-0.3806999999999999,-334.01333789813515
-0.38170000000000004,-334.7206935480677
-0.38269999999999993,-335.5695203279867
-0.38370000000000004,-336.1354048479327
-0.38469999999999993,-337.12570275783827
-0.38570000000000004,-337.9745295377573
-0.38669999999999993,-337.26717388782475
-0.38570000000000004,-333.87186676814866
-0.38469999999999993,-330.9009730384321
-0.38370000000000004,-328.071550438702
-0.38269999999999993,-325.1006567089854
-0.38170000000000004,-322.2712341092554
-0.3806999999999999,-319.58328263951176
-0.37970000000000004,-316.7538600397817
-0.3786999999999999,-313.9244374400517
-0.37770000000000004,-310.95354371033505
-0.3766999999999999,-308.124121110605
-0.37570000000000003,-305.29469851087487
-0.3746999999999999,-302.4652759111449
-0.37370000000000003,-299.6358533114148
-0.3726999999999999,-296.80643071168464
-0.37170000000000003,-294.2599503719276
-0.3706999999999999,-291.71347003217056
-0.36970000000000003,-289.1669896924135
-0.3686999999999999,-286.6205093526564
-0.3677,-284.35697127287233
-0.3666999999999999,-281.9519620631018
-0.3657,-279.6884239833177
-0.3646999999999999,-277.2834147735472
-0.3637,-274.87840556377665
-0.3626999999999999,-272.47339635400607
-0.3617,-270.0683871442355
-0.36070000000000013,-267.5219068044785
-0.3597,-265.11689759470784
-0.35870000000000013,-262.7118883849373
-0.3577,-260.16540804518024
-0.35670000000000013,-257.76039883540966
-0.3557,-255.49686075562562
-0.3547000000000001,-253.23332267584152
-0.3537,-250.9697845960575
-0.3527000000000001,-248.84771764625998
-0.3517,-246.5841795664759
-0.3507000000000001,-244.32064148669184
-0.3497,-242.19857453689428
-0.3487000000000001,-239.93503645711021
-0.3477,-237.67149837732615
-0.3467000000000001,-235.54943142752862
-0.3457,-233.28589334774458
-0.3447000000000001,-231.0223552679605
-0.3437,-228.90028831816295
-0.3427000000000001,-226.63675023837888
-0.3417,-224.37321215859478
-0.3407000000000001,-222.25114520879725
-0.3397,-220.1290782589997
-0.3387000000000001,-218.00701130920217
-0.3377,-216.0264154893911
-0.3367000000000001,-214.04581966958003
-0.3357,-211.9237527197825
-0.3347000000000001,-209.8016857699849
-0.3337,-207.8210899501739
-0.3327000000000001,-205.69902300037634
-0.3317,-203.57695605057876
-0.3307000000000001,-201.59636023076774
-0.3297,-199.47429328097016
-0.3287000000000001,-197.35222633117263
-0.3277,-195.23015938137505
-0.3267000000000001,-193.249563561564
-0.3257,-191.268967741753
-0.3247000000000001,-189.2883719219419
-0.3237,-187.30777610213087
-0.3227000000000001,-185.46865141230631
-0.3217,-183.48805559249527
-0.3207000000000001,-181.64893090267074
-0.3197,-179.66833508285964
-0.3187000000000001,-177.6877392630486
-0.3177,-175.70714344323756
-0.3167000000000001,-173.72654762342648
-0.3157,-171.74595180361547
-0.3147000000000001,-169.7653559838044
-0.3137,-167.92623129397984
-0.3127000000000001,-165.94563547416882
-0.3117,-164.10651078434424
-0.3107000000000001,-162.2673860945197
-0.3097,-160.42826140469515
-0.3087000000000001,-158.5891367148706
-0.3077,-156.75001202504606
-0.3067000000000001,-155.05235846520802
-0.30569999999999997,-153.21323377538346
-0.3047000000000001,-151.5155802155454
-0.30369999999999997,-149.6764555257209
-0.3027000000000001,-147.83733083589632
-0.30169999999999997,-145.9982061460718
-0.3007000000000001,-144.01761032626072
-0.29969999999999997,-142.17848563643616
-0.2987000000000001,-140.36765517260895
-0.29769999999999996,-138.52853048278442
-0.2967000000000001,-136.74599424495443
-0.29569999999999996,-134.94931089412586
-0.2947000000000001,-133.2516573342878
-0.29369999999999996,-131.55400377444977
-0.29270000000000007,-129.8563502146117
-0.29169999999999996,-128.18699088077096
-0.29070000000000007,-126.5317786599289
-0.28969999999999996,-124.87656643908679
-0.28870000000000007,-123.09403020125686
-0.28769999999999996,-121.33978818942418
-0.28670000000000007,-119.5996932905902
-0.28569999999999995,-117.85959839175621
-0.28470000000000006,-116.06291504092759
-0.28369999999999995,-114.3228201420936
-0.28270000000000006,-112.58272524325962
-0.28169999999999995,-110.82848323142699
-0.28070000000000006,-109.17327101058488
-0.27969999999999995,-107.56050012873874
-0.27870000000000006,-105.94772924689259
-0.27769999999999995,-104.3773997040424
-0.27670000000000006,-102.80707016119221
-0.27569999999999995,-101.27918195733798
-0.27470000000000006,-99.66641107549184
-0.27369999999999994,-97.96875751565379
-0.27270000000000005,-96.35598663380765
-0.27169999999999994,-94.6583330739696
-0.27070000000000005,-92.98897374012887
-0.26969999999999994,-91.24887884129487
-0.26870000000000005,-89.59366662045278
