Potential V vs RHE, Current mA cm-2
0.013299999999999867,9.942591015451477
0.012299999999999978,8.022827781534623
0.011299999999999866,6.234632698505217
0.010299999999999976,4.6218618166590755
0.009299999999999864,3.1378296631006513
0.008299999999999974,1.7429243214337253
0.007299999999999862,0.3903188476327636
0.006299999999999972,-0.8745745255765657
0.00529999999999986,-2.095187435100119
0.0042999999999999705,-3.317497998183511
0.0032999999999998586,-4.538393849967037
0.0022999999999999687,-5.80314575204638
0.0012999999999998568,-6.981600264833956
0.00029999999999996696,-8.202496116617484
-0.000700000000000145,-9.379535918105192
-0.0017000000000000348,-10.514134380596953
-0.0027000000000001467,-11.604876792792895
-0.0037000000000000366,-12.651763154693022
-0.0047000000000001485,-13.567081365705702
-0.005700000000000038,-14.486643710617974
-0.00670000000000015,-15.448647394526201
-0.00770000000000004,-16.354062626439823
-0.008700000000000152,-17.316066310348052
-0.009700000000000042,-18.320511333252224
-0.010700000000000154,-19.367397695152352
-0.011700000000000044,-20.371842718056527
-0.012700000000000156,-21.291405062968803
-0.013700000000000045,-22.253408746877028
-0.014700000000000157,-23.073941300798747
-0.015700000000000047,-23.908620967719123
-0.01670000000000016,-24.686712182644893
-0.01770000000000005,-25.43650917157336
-0.01870000000000016,-26.257041725495082
-0.01970000000000005,-27.049280053419505
-0.020700000000000163,-27.869812607341224
-0.021700000000000053,-28.746933613257543
-0.022700000000000164,-29.62405461917387
-0.023700000000000054,-30.487028512091538
-0.024700000000000166,-31.321708179011907
-0.025700000000000056,-32.09979939393769
-0.026700000000000168,-32.84959638286615
-0.027700000000000058,-33.54280491980002
-0.02870000000000017,-34.278454795729836
-0.02970000000000006,-34.90092776767045
-0.03070000000000017,-35.636577643600276
-0.03170000000000006,-36.329786180534136
-0.03270000000000017,-37.122024508458566
-0.03370000000000006,-37.90011572338433
-0.034700000000000175,-38.734795390304704
-0.035700000000000065,-39.51288660523048
-0.03670000000000018,-40.26268359415894
-0.03770000000000007,-40.91345079209687
-0.03870000000000018,-41.606659329030734
-0.03970000000000007,-42.229132300971344
-0.04070000000000018,-42.87989949890926
-0.04170000000000007,-43.48822535785123
-0.04270000000000018,-44.138992555789144
-0.04370000000000007,-44.88878954471762
-0.044700000000000184,-45.624439420647434
-0.045700000000000074,-46.37423640957591
-0.046700000000000186,-47.19476896349763
-0.047700000000000076,-47.8879775004315
-0.04870000000000019,-48.63777448935996
-0.04970000000000008,-49.24610034830193
-0.05070000000000019,-49.85442620724389
-0.05170000000000008,-50.46275206618586
-0.05270000000000019,-51.071077925127824
-0.05370000000000008,-51.69355089706845
-0.05470000000000019,-52.386759434002315
-0.05570000000000008,-53.079967970936174
-0.056700000000000195,-53.82976495986464
-0.057700000000000085,-54.56541483579447
-0.058700000000000196,-55.357653163718886
-0.059700000000000086,-56.093303039648696
-0.0607000000000002,-56.74407023758662
-0.06170000000000009,-57.45142588751914
-0.0627000000000002,-58.05975174646111
-0.06370000000000009,-58.62563626640712
-0.0647000000000002,-59.23396212534908
-0.06570000000000009,-59.884729323287
-0.0667000000000002,-60.54964363422357
-0.0677000000000001,-61.28529351015339
-0.0687000000000002,-61.97850204708726
-0.0697000000000001,-62.77074037501168
-0.07070000000000021,-63.5063902509415
-0.0717000000000001,-64.25618723986996
-0.07270000000000021,-64.90695443780788
-0.0737000000000001,-65.51528029674984
-0.07470000000000021,-66.16604749468777
-0.0757000000000001,-66.73193201463377
-0.07670000000000021,-67.34025787357575
-0.0777000000000001,-68.0051721845123
-0.07870000000000021,-68.69838072144618
-0.0797000000000001,-69.39158925838004
-0.08070000000000022,-70.18382758630447
-0.0817000000000001,-70.96191880123024
-0.08270000000000022,-71.7117157901587
-0.08370000000000011,-72.44736566608852
-0.08470000000000022,-73.15472131602105
-0.08570000000000011,-73.76304717496302
-0.08670000000000022,-74.41381437290093
-0.08770000000000011,-74.97969889284694
-0.08870000000000022,-75.63046609078486
-0.08970000000000011,-76.29538040172143
-0.09070000000000022,-77.03103027765125
-0.09170000000000011,-77.76668015358106
-0.09270000000000023,-78.60135982050144
-0.09370000000000012,-79.42189237442317
-0.09470000000000023,-80.17168936335163
-0.09570000000000012,-80.86489790028548
-0.09670000000000023,-81.57225355021802
-0.09770000000000012,-82.22302074815593
-0.09870000000000023,-82.8313466070979
-0.09970000000000012,-83.48211380503581
-0.10070000000000023,-84.09043966397778
-0.10170000000000012,-84.84023665290624
-0.10270000000000024,-85.57588652883607
-0.10370000000000013,-86.41056619575643
-0.10470000000000024,-87.23109874967815
-0.10570000000000013,-88.02333707760259
-0.10670000000000024,-88.80142829252836
-0.10770000000000013,-89.55122528145681
-0.10870000000000024,-90.24443381839069
-0.10970000000000013,-90.89520101632861
-0.11070000000000024,-91.56011532726518
-0.11170000000000013,-92.2108825252031
-0.11270000000000002,-92.90409106213696
-0.11370000000000013,-93.65388805106544
-0.11470000000000002,-94.4319792659912
-0.11570000000000014,-95.22421759391563
-0.11670000000000003,-96.04475014783733
-0.11770000000000014,-96.83698847576176
-0.11870000000000003,-97.61507969068752
-0.11970000000000014,-98.364876679616
-0.12070000000000003,-99.01564387755391
-0.12170000000000014,-99.70885241448778
-0.12270000000000003,-100.31717827342976
-0.12370000000000014,-101.02453392336226
-0.12470000000000003,-101.71774246029614
-0.12570000000000014,-102.4958336752219
-0.12670000000000003,-103.33051334214227
-0.12770000000000015,-104.12275167006669
-0.12870000000000004,-104.98572556298437
-0.12970000000000015,-105.7779638909088
-0.13070000000000004,-106.51361376683862
-0.13170000000000015,-107.20682230377247
-0.13270000000000004,-107.914177953705
-0.13370000000000015,-108.56494515164292
-0.13470000000000004,-109.30059502757274
-0.13570000000000015,-110.00795067750525
-0.13670000000000004,-110.78604189243102
-0.13770000000000016,-111.6207215593514
-0.13870000000000005,-112.48369545226906
-0.13970000000000016,-113.36081645818538
-0.14070000000000005,-114.19549612510575
-0.14170000000000016,-115.05847001802343
-0.14270000000000005,-115.85070834594785
-0.14370000000000016,-116.58635822187767
-0.14470000000000005,-117.3785965498021
-0.14570000000000016,-118.02936374774
-0.14670000000000005,-118.72257228467387
-0.14770000000000016,-119.47236927360234
-0.14870000000000005,-120.25046048852812
-0.14970000000000017,-121.0851401554485
-0.15070000000000006,-121.96226116136481
-0.15170000000000017,-122.82523505428249
-0.15270000000000006,-123.74479739919475
-0.15370000000000017,-124.52288861412055
-0.15470000000000006,-125.35756828104091
-0.15570000000000017,-126.09321815697072
-0.15670000000000006,-126.80057380690324
-0.15770000000000017,-127.45134100484115
-0.15870000000000006,-128.18699088077096
-0.15970000000000018,-128.93678786969946
-0.16070000000000007,-129.7148790846252
-0.16170000000000018,-130.59200009054155
-0.16270000000000007,-131.46912109645783
-0.16370000000000018,-132.37453632837148
-0.16470000000000007,-133.20921599529186
-0.16570000000000018,-134.04389566221224
-0.16670000000000007,-134.82198687713802
-0.16770000000000018,-135.51519541407185
-0.16870000000000007,-136.26499240300032
-0.16970000000000018,-137.00064227893017
-0.17070000000000007,-137.70799792886265
-0.17170000000000019,-138.52853048278442
-0.17270000000000008,-139.3207688107088
-0.1737000000000002,-140.18374270362645
-0.17470000000000008,-141.10330504853877
-0.1757000000000002,-142.03701450644968
-0.17670000000000008,-142.8858412863687
-0.1777000000000002,-143.5931969363012
-0.17870000000000008,-144.44202371622026
-0.1797000000000002,-145.14937936615277
-0.18070000000000008,-145.85673501608528
-0.1817000000000002,-146.7055617960043
-0.18270000000000008,-147.4129174459368
-0.1837000000000002,-148.12027309586935
-0.1847000000000001,-149.1105710057749
-0.1857000000000002,-149.8179266557074
-0.1867000000000001,-150.8082245656129
-0.1877000000000002,-151.65705134553193
-0.1887000000000001,-152.50587812545095
-0.1897000000000002,-153.35470490536997
-0.1907000000000001,-154.0620605553025
-0.1917000000000001,-154.76941620523502
-0.19269999999999998,-155.47677185516753
-0.1937000000000001,-156.32559863508658
-0.19469999999999998,-157.03295428501906
-0.1957000000000001,-157.88178106493808
-0.19669999999999999,-158.87207897484362
-0.1977000000000001,-159.57943462477613
-0.1987,-160.5697325346817
-0.1997000000000001,-161.41855931460069
-0.2007,-162.2673860945197
-0.2017000000000001,-163.11621287443873
-0.2027,-163.82356852437124
-0.2037000000000001,-164.67239530429026
-0.2047,-165.3797509542228
-0.2057000000000001,-166.0871066041553
-0.2067,-166.93593338407433
-0.2077000000000001,-167.78476016399335
-0.2087,-168.63358694391238
-0.2097000000000001,-169.48241372383137
-0.2107,-170.47271163373694
-0.2117000000000001,-171.32153841365593
-0.2127,-172.17036519357498
-0.2137000000000001,-172.87772084350746
-0.2147,-173.72654762342648
-0.2157000000000001,-174.43390327335902
-0.2167,-175.14125892329156
-0.21770000000000012,-175.99008570321055
-0.2187,-176.8389124831296
-0.21970000000000012,-177.6877392630486
-0.2207,-178.53656604296762
-0.22170000000000012,-179.52686395287316
-0.2227,-180.37569073279218
-0.22370000000000012,-181.2245175127112
-0.2247,-182.07334429263022
-0.22570000000000012,-182.78069994256273
-0.2267,-183.62952672248176
-0.22770000000000012,-184.19541124242778
-0.22870000000000001,-184.9027668923603
-0.22970000000000013,-185.7515936722793
-0.23070000000000002,-186.60042045219836
-0.23170000000000013,-187.44924723211736
-0.23270000000000002,-188.4395451420229
-0.23370000000000013,-189.42984305192843
-0.23470000000000002,-190.27866983184742
-0.23570000000000013,-191.12749661176645
-0.23670000000000002,-191.9763233916855
-0.2376999999999999,-192.683679041618
-0.23870000000000002,-193.249563561564
-0.2396999999999999,-194.09839034148303
-0.24070000000000003,-194.80574599141553
-0.24169999999999991,-195.65457277133459
-0.24270000000000003,-196.50339955125358
-0.24369999999999992,-197.35222633117263
-0.24470000000000003,-198.3425242410781
-0.24569999999999992,-199.19135102099716
-0.24670000000000003,-200.04017780091618
-0.24769999999999992,-200.88900458083523
-0.24870000000000003,-201.59636023076774
-0.24969999999999992,-202.44518701068677
-0.25070000000000003,-203.15254266061928
-0.2516999999999999,-203.85989831055176
-0.25270000000000004,-204.5672539604843
-0.2536999999999999,-205.41608074040332
-0.25470000000000004,-206.26490752032234
-0.2556999999999999,-207.1137343002414
-0.25670000000000004,-208.1040322101469
-0.25769999999999993,-208.95285899006592
-0.25870000000000004,-209.94315689997146
-0.25969999999999993,-210.65051254990397
-0.26070000000000004,-211.499339329823
-0.26169999999999993,-212.2066949797555
-0.26270000000000004,-212.914050629688
-0.26369999999999993,-213.62140627962054
-0.26470000000000005,-214.32876192955305
-0.26569999999999994,-215.17758870947208
-0.26670000000000005,-216.0264154893911
-0.26769999999999994,-217.01671339929663
-0.26870000000000005,-218.00701130920217
-0.26969999999999994,-218.85583808912116
-0.27070000000000005,-219.8461359990267
-0.27169999999999994,-220.6949627789457
-0.27270000000000005,-221.40231842887826
-0.27369999999999994,-222.25114520879725
-0.27470000000000006,-223.09997198871628
-0.27569999999999995,-223.80732763864881
-0.27670000000000006,-224.65615441856778
-0.27769999999999995,-225.64645232847332
-0.27870000000000006,-226.35380797840588
-0.27969999999999995,-227.34410588831142
-0.28070000000000006,-228.1929326682304
-0.28169999999999995,-229.18323057813595
-0.28270000000000006,-229.89058622806846
-0.28369999999999995,-230.7394130079875
-0.28470000000000006,-231.5882397879065
-0.28569999999999995,-232.43706656782552
-0.28670000000000007,-233.28589334774458
-0.28769999999999996,-234.13472012766357
-0.28870000000000007,-234.9835469075826
-0.28969999999999996,-235.97384481748813
-0.29070000000000007,-236.82267159740715
-0.29169999999999996,-237.81296950731266
-0.29270000000000007,-238.8032674172182
-0.29369999999999996,-239.65209419713722
-0.2947000000000001,-240.50092097705624
-0.29569999999999996,-241.20827662698875
-0.2967000000000001,-241.9156322769213
-0.29769999999999996,-242.48151679686728
-0.2987000000000001,-243.04740131681334
-0.29969999999999997,-243.75475696674582
-0.3007000000000001,-244.60358374666484
-0.30169999999999997,-245.45241052658386
-0.3027000000000001,-246.4427084364894
-0.30369999999999997,-247.2915352164084
-0.3047000000000001,-248.28183312631393
-0.30569999999999997,-248.9891887762465
-0.3067000000000001,-249.83801555616546
-0.3077,-250.6868423360845
-0.3087000000000001,-251.39419798601702
-0.3097,-252.10155363594956
-0.3107000000000001,-252.95038041586852
-0.3117,-253.79920719578757
-0.3127000000000001,-254.50656284572008
-0.3137,-255.35538962563913
-0.3147000000000001,-256.20421640555816
-0.3157,-257.0530431854772
-0.3167000000000001,-257.4774565754367
-0.3177,-258.32628335535566
-0.3187000000000001,-259.3165812652612
-0.3197,-260.16540804518024
-0.3207000000000001,-261.01423482509927
-0.3217,-261.8630616050183
-0.3227000000000001,-262.57041725495077
-0.3237,-263.41924403486985
-0.3247000000000001,-264.12659968480233
-0.3257,-264.9754264647214
-0.3267000000000001,-265.6827821146539
-0.3277,-266.3901377645864
-0.3287000000000001,-266.9560222845325
-0.3297,-267.6633779344649
-0.3307000000000001,-267.80484906445145
-0.3317,-268.512204714384
-0.3327000000000001,-269.2195603643164
-0.3337,-270.20985827422203
-0.3347000000000001,-271.20015618412754
-0.3357,-272.3319252240195
-0.3367000000000001,-273.4636942639116
-0.3377,-274.5954633038036
-0.3387000000000001,-275.44429008372265
-0.3397,-276.01017460366864
-0.3407000000000001,-276.43458799362816
-0.3417,-277.0004725135742
-0.3427000000000001,-277.56635703352015
-0.3437,-278.2737126834527
-0.3447000000000001,-278.9810683333853
-0.3457,-279.82989511330425
-0.3467000000000001,-280.82019302320975
-0.3477,-282.09343319308834
-0.3487000000000001,-283.08373110299385
-0.3497,-284.07402901289936
-0.3507000000000001,-284.9228557928184
-0.3517,-285.6302114427509
-0.3527000000000001,-286.33756709268346
-0.3537,-286.9034516126294
-0.3547000000000001,-287.46933613257545
-0.3557,-288.03522065252145
-0.35670000000000013,-288.742576302454
-0.3577,-289.4499319523865
-0.35870000000000013,-290.29875873230554
-0.3597,-291.0061143822381
-0.36070000000000013,-291.85494116215705
-0.3617,-292.70376794207607
-0.3626999999999999,-293.4111235920086
-0.3637,-294.11847924194115
-0.3646999999999999,-294.68436376188714
-0.3657,-295.10877715184665
-0.3666999999999999,-295.67466167179265
-0.3677,-296.0990750617522
-0.3686999999999999,-296.6649595816982
-0.36970000000000003,-297.3723152316307
-0.3706999999999999,-298.2211420115498
-0.37170000000000003,-299.2114399214552
-0.3726999999999999,-300.06026670137425
-0.37370000000000003,-300.9090934812933
-0.3746999999999999,-301.7579202612123
-0.37570000000000003,-302.6067470411313
-0.3766999999999999,-303.5970449510368
-0.37770000000000004,-304.4458717309559
-0.3786999999999999,-305.1532273808884
-0.37970000000000004,-305.8605830308209
-0.3806999999999999,-306.70940981073994
-0.38170000000000004,-307.55823659065896
-0.38269999999999993,-308.407063370578
-0.38370000000000004,-309.1144190205105
-0.38469999999999993,-309.9632458004295
-0.38570000000000004,-310.95354371033505
-0.38669999999999993,-310.2461880604026
-0.38570000000000004,-307.1338232006995
-0.38469999999999993,-304.0214583409964
-0.38370000000000004,-301.1920357412663
-0.38269999999999993,-298.07967088156323
-0.38170000000000004,-295.3917194118196
-0.3806999999999999,-292.56229681208964
-0.37970000000000004,-290.0158164723325
-0.3786999999999999,-287.327865002589
-0.37770000000000004,-284.63991353284536
-0.3766999999999999,-282.09343319308834
-0.37570000000000003,-279.5469528533313
-0.3746999999999999,-276.8590013835877
-0.37370000000000003,-274.0295787838576
-0.3726999999999999,-271.4830984441005
-0.37170000000000003,-268.79514697435695
-0.3706999999999999,-266.2486666345999
-0.36970000000000003,-263.56071516485633
-0.3686999999999999,-261.01423482509927
-0.3677,-258.7506967453152
-0.3666999999999999,-256.4871586655312
-0.3657,-254.36509171573357
-0.3646999999999999,-252.10155363594956
-0.3637,-249.69654442617897
-0.3626999999999999,-247.4330063463949
-0.3617,-244.8865260066378
-0.36070000000000013,-242.48151679686728
-0.3597,-239.93503645711021
-0.35870000000000013,-237.38855611735315
-0.3577,-235.12501803756908
-0.35670000000000013,-232.72000882779852
-0.3557,-230.59794187800094
-0.3547000000000001,-228.61734605818995
-0.3537,-226.63675023837888
-0.3527000000000001,-224.65615441856778
-0.3517,-222.6755585987568
-0.3507000000000001,-220.5534916489592
-0.3497,-218.43142469916165
-0.3487000000000001,-216.3093577493641
-0.3477,-214.18729079956654
-0.3467000000000001,-212.065223849769
-0.3457,-209.94315689997146
-0.3447000000000001,-207.8210899501739
-0.3437,-205.84049413036286
-0.3427000000000001,-203.71842718056527
-0.3417,-201.59636023076774
-0.3407000000000001,-199.47429328097016
-0.3397,-197.35222633117263
-0.3387000000000001,-195.37163051136156
-0.3377,-193.249563561564
-0.3367000000000001,-190.98602548177996
-0.3357,-189.0054296619689
-0.3347000000000001,-186.88336271217133
-0.3337,-184.9027668923603
-0.3327000000000001,-182.92217107254925
-0.3317,-181.08304638272472
-0.3307000000000001,-178.96097943292713
-0.3297,-177.1218547431026
-0.3287000000000001,-175.28273005327804
-0.3277,-173.302134233467
-0.3267000000000001,-171.18006728366944
-0.3257,-169.3409425938449
-0.3247000000000001,-167.21887564404733
-0.3237,-165.3797509542228
-0.3227000000000001,-163.39915513441173
-0.3217,-161.5600304445872
-0.3207000000000001,-159.72090575476264
-0.3197,-157.88178106493808
-0.3187000000000001,-156.04265637511355
-0.3177,-154.3450028152755
-0.3167000000000001,-152.50587812545095
-0.3157,-150.5252823056399
-0.3147000000000001,-148.68615761581535
-0.3137,-146.8470329259908
-0.3127000000000001,-144.86643710617977
-0.3117,-143.0273124163552
-0.3107000000000001,-141.18818772653066
-0.3097,-139.44809282769666
-0.3087000000000001,-137.70799792886265
-0.3077,-136.03863859502192
-0.3067000000000001,-134.38342637417986
-0.30569999999999997,-132.64333147534586
-0.3047000000000001,-130.90323657651186
-0.30369999999999997,-129.10655322568326
-0.3027000000000001,-127.32401698785328
-0.30169999999999997,-125.48489229802875
-0.3007000000000001,-123.65991472120285
-0.29969999999999997,-121.82079003137831
-0.2987000000000001,-120.08069513254432
-0.29769999999999996,-118.3406002337103
-0.2967000000000001,-116.62879956087362
-0.29569999999999996,-114.97358734003153
-0.2947000000000001,-113.40325779718134
-0.29369999999999996,-111.74804557633925
-0.29270000000000007,-110.1352746944931
-0.29169999999999996,-108.43762113465506
-0.29070000000000007,-106.73996757481702
-0.28969999999999996,-105.02816690198033
-0.28870000000000007,-103.28807200314633
-0.28769999999999996,-101.59041844330828
-0.28670000000000007,-99.93520622246619
-0.28569999999999995,-98.40731801861195
-0.28470000000000006,-96.79454713676581
-0.28369999999999995,-95.30910027190752
-0.28270000000000006,-93.78121206805329
-0.28169999999999995,-92.25332386419905
-0.28070000000000006,-90.6405529823529
-0.27969999999999995,-89.07022343950271
-0.27870000000000006,-87.41501121866061
-0.27769999999999995,-85.75979899781852
-0.27670000000000006,-84.18946945496833
-0.27569999999999995,-82.56255146012353
-0.27470000000000006,-81.04881036926795
-0.27369999999999994,-79.56336350440966
-0.27270000000000005,-78.07791663955136
-0.27169999999999994,-76.63491111368903
-0.27070000000000005,-75.2484940398213
-0.26969999999999994,-73.80548851395896
-0.26870000000000005,-72.27760031010472
-0.26769999999999994,-70.70727076725453
