Potential V vs RHE, Current mA cm-2
0.013299999999999867,0.9744531433470374
0.012299999999999978,0.6589725234771341
0.011299999999999866,0.4613373548859885
0.010299999999999976,0.3221297629792688
0.009299999999999864,0.19848399537106462
0.008299999999999974,0.09982202931847699
0.007299999999999862,0.025563833188561213
0.006299999999999972,-0.04965636662526278
0.00529999999999986,-0.09488468688194801
0.0042999999999999705,-0.14486643710617977
0.0032999999999998586,-0.1890054296619689
0.0022999999999999687,-0.21857289582914816
0.0012999999999998568,-0.2580433410953827
0.00029999999999996696,-0.2751613478237496
-0.000700000000000145,-0.3074167654606725
-0.0017000000000000348,-0.3388233563176763
-0.0027000000000001467,-0.3499995755866101
-0.0037000000000000366,-0.3869235405130875
-0.0047000000000001485,-0.404183018371441
-0.005700000000000038,-0.4263939857793221
-0.00670000000000015,-0.45751763437635284
-0.00770000000000004,-0.4740697565847738
-0.008700000000000152,-0.5092960679514131
-0.009700000000000042,-0.5296679106694698
-0.010700000000000154,-0.562913626216298
-0.011700000000000044,-0.5950275727232345
-0.012700000000000156,-0.6247365100204001
-0.013700000000000045,-0.6599628213870395
-0.014700000000000157,-0.6906620565941108
-0.015700000000000047,-0.7275860215205884
-0.01670000000000016,-0.77243236972631
-0.01770000000000005,-0.806385440923071
-0.01870000000000016,-0.8488267799190221
-0.01970000000000005,-0.8836286778957019
-0.020700000000000163,-0.92861649723141
-0.021700000000000053,-0.9710578362273611
-0.022700000000000164,-1.0026058982143515
-0.023700000000000054,-1.0504231401497897
-0.024700000000000166,-1.0804150197069284
-0.025700000000000056,-1.1262516658225556
-0.026700000000000168,-1.1664294667387227
-0.027700000000000058,-1.1995337111555648
-0.02870000000000017,-1.2500389045607463
-0.02970000000000006,-1.2848408025374263
-0.03070000000000017,-1.329687150743148
-0.03170000000000006,-1.372694374259045
-0.03270000000000017,-1.4130136463051988
-0.03370000000000006,-1.4684703292599082
-0.034700000000000175,-1.510911668255859
-0.035700000000000065,-1.5632559863508655
-0.03670000000000018,-1.6240885722450622
-0.03770000000000007,-1.6665299112410132
-0.03870000000000018,-1.7259477858353447
-0.03970000000000007,-1.774047970030756
-0.04070000000000018,-1.8320511333252225
-0.04170000000000007,-1.892883719219419
-0.04270000000000018,-1.9438133260145605
-0.04370000000000007,-2.011719468408082
-0.044700000000000184,-2.0612343639033583
-0.045700000000000074,-2.1192375271978254
-0.046700000000000186,-2.184314246991617
-0.047700000000000076,-2.230999719887163
-0.04870000000000019,-2.2946617283810897
-0.04970000000000008,-2.3427619125765005
-0.05070000000000019,-2.3993503645711023
-0.05170000000000008,-2.4545241052658384
-0.05270000000000019,-2.49696544426179
-0.05370000000000008,-2.550724473656661
-0.05470000000000019,-2.590336390052882
-0.05570000000000008,-2.6384365742482934
-0.056700000000000195,-2.6822926245441097
-0.057700000000000085,-2.7134162731411404
-0.058700000000000196,-2.7558576121370915
-0.059700000000000086,-2.791225394633717
-0.0607000000000002,-2.823763754530613
-0.06170000000000009,-2.854887403127644
-0.0627000000000002,-2.8789374952253497
-0.06370000000000009,-2.9114758551222453
-0.0647000000000002,-2.924208256821031
-0.06570000000000009,-2.9525024828183315
-0.0667000000000002,-2.973723152316307
-0.0677000000000001,-2.9878702653149576
-0.0687000000000002,-3.013335068712528
-0.0697000000000001,-3.0232380478115832
-0.07070000000000021,-3.047288139909289
-0.0717000000000001,-3.0614352529079394
-0.07270000000000021,-3.0727529433068597
-0.0737000000000001,-3.0982177467044303
-0.07470000000000021,-3.1024618806040256
-0.0757000000000001,-3.123682550102001
-0.07670000000000021,-3.1392443744005165
-0.0777000000000001,-3.1463179308998415
-0.07870000000000021,-3.166123889097952
-0.0797000000000001,-3.1703680229975473
-0.08070000000000022,-3.1845151359961976
-0.0817000000000001,-3.198662248994848
-0.08270000000000022,-3.204321094194308
-0.08370000000000011,-3.2198829184928233
-0.08470000000000022,-3.2269564749921487
-0.08570000000000011,-3.2396888766909337
-0.08670000000000022,-3.2566654122893146
-0.08770000000000011,-3.2609095461889095
-0.08870000000000022,-3.279300793087155
-0.08970000000000011,-3.28637434958648
-0.09070000000000022,-3.3005214625851305
-0.09170000000000011,-3.316083286883646
-0.09270000000000023,-3.3189127094833766
-0.09370000000000012,-3.3373039563816214
-0.09470000000000023,-3.3457922241808116
-0.09570000000000012,-3.358524625879597
-0.09670000000000023,-3.3726717388782474
-0.09770000000000012,-3.382574717977303
-0.09870000000000023,-3.3967218309759533
-0.09970000000000012,-3.4066248100750083
-0.10070000000000023,-3.4250160569732535
-0.10170000000000012,-3.440577881271769
-0.10270000000000024,-3.450480860370824
-0.10370000000000013,-3.4660426846693397
-0.10470000000000024,-3.4717015298688
-0.10570000000000013,-3.492922199366775
-0.10670000000000024,-3.507069312365426
-0.10770000000000013,-3.5169722914644814
-0.10870000000000024,-3.5381929609624567
-0.10970000000000013,-3.546681228761647
-0.11070000000000024,-3.569316609559488
-0.11170000000000013,-3.583463722558138
-0.11270000000000002,-3.5990255468566534
-0.11370000000000013,-3.627319772853954
-0.11470000000000002,-3.6372227519530096
-0.11570000000000014,-3.65985813275085
-0.11670000000000003,-3.67966409094896
-0.11770000000000014,-3.6923964926477457
-0.11870000000000003,-3.716446584745451
-0.11970000000000014,-3.7291789864442366
-0.12070000000000003,-3.7532290785419424
-0.12170000000000014,-3.7744497480399173
-0.12270000000000003,-3.784352727138973
-0.12370000000000014,-3.812646953136274
-0.12470000000000003,-3.8296234887346547
-0.12570000000000014,-3.85084415823263
-0.12670000000000003,-3.8748942503303354
-0.12770000000000015,-3.887626652029121
-0.12870000000000004,-3.915920878026421
-0.12970000000000015,-3.9244091458256123
-0.13070000000000004,-3.9470445266234524
-0.13170000000000015,-3.9725093300210226
-0.13270000000000004,-3.9852417317198086
-0.13370000000000015,-4.006462401217783
-0.13470000000000004,-4.023438936816164
-0.13570000000000015,-4.046074317614004
-0.13670000000000004,-4.065880275812115
-0.13770000000000016,-4.077197966211036
-0.13870000000000005,-4.102662769608606
-0.13970000000000016,-4.115395171307392
-0.14070000000000005,-4.133786418205637
-0.14170000000000016,-4.150762953804017
-0.14270000000000005,-4.163495355502803
-0.14370000000000016,-4.187545447600509
-0.14470000000000005,-4.198863137999429
-0.14570000000000016,-4.22149851879727
-0.14670000000000005,-4.234230920496055
-0.14770000000000016,-4.245548610894974
-0.14870000000000005,-4.272428125592412
-0.14970000000000017,-4.265354569093086
-0.15070000000000006,-4.2936487950903865
-0.15170000000000017,-4.326187154987283
-0.15270000000000006,-4.336090134086337
-0.15370000000000017,-4.355896092284448
-0.15470000000000006,-4.3657990713835035
-0.15570000000000017,-4.381360895682018
-0.15670000000000006,-4.394093297380804
-0.15770000000000017,-4.406825699079589
-0.15870000000000006,-4.430875791177296
-0.15970000000000018,-4.43511992507689
-0.16070000000000007,-4.450681749375406
-0.16170000000000018,-4.470487707573516
-0.16270000000000007,-4.470487707573516
-0.16370000000000018,-4.488878954471762
-0.16470000000000007,-4.4973672222709515
-0.16570000000000018,-4.503026067470412
-0.16670000000000007,-4.518587891768927
-0.16770000000000018,-4.521417314368658
-0.16870000000000007,-4.545467406466363
-0.16970000000000018,-4.551126251665823
-0.17070000000000007,-4.566688075964338
-0.17170000000000019,-4.586494034162449
-0.17270000000000008,-4.592152879361908
-0.1737000000000002,-4.6091294149602895
-0.17470000000000008,-4.61478826015975
-0.1757000000000002,-4.636008929657725
-0.17670000000000008,-4.652985465256107
-0.1777000000000002,-4.652985465256107
-0.17870000000000008,-4.668547289554621
-0.1797000000000002,-4.6742061347540815
-0.18070000000000008,-4.681279691253407
-0.1817000000000002,-4.682694402553271
-0.18270000000000008,-4.691182670352461
-0.1837000000000002,-4.703915072051247
-0.1847000000000001,-4.703915072051247
-0.1857000000000002,-4.715232762450168
-0.1867000000000001,-4.719476896349762
-0.1877000000000002,-4.726550452849088
-0.1887000000000001,-4.743526988447469
-0.1897000000000002,-4.753429967546523
-0.1907000000000001,-4.770406503144904
-0.1917000000000001,-4.774650637044499
-0.19269999999999998,-4.783138904843689
-0.1937000000000001,-4.807188996941395
-0.19469999999999998,-4.80577428564153
-0.1957000000000001,-4.818506687340315
-0.19669999999999999,-4.832653800338965
-0.1977000000000001,-4.835483222938696
-0.1987,-4.852459758537076
-0.1997000000000001,-4.851045047237211
-0.2007,-4.863777448935997
-0.2017000000000001,-4.869436294135457
-0.2027,-4.869436294135457
-0.2037000000000001,-4.887827541033701
-0.2047,-4.889242252333567
-0.2057000000000001,-4.900559942732487
-0.2067,-4.918951189630732
-0.2077000000000001,-4.916121767031002
-0.2087,-4.941586570428573
-0.2097000000000001,-4.947245415628033
-0.2107,-4.962807239926549
-0.2117000000000001,-4.979783775524929
-0.2127,-4.991101465923849
-0.2137000000000001,-5.0052485789225
-0.2147,-5.020810403221016
-0.2157000000000001,-5.050519340518181
-0.2167,-5.059007608317371
-0.21770000000000012,-5.06466645351683
-0.2187,-5.084472411714942
-0.21970000000000012,-5.091545968214268
-0.2207,-5.117010771611838
-0.22170000000000012,-5.131157884610488
-0.2227,-5.136816729809948
-0.22370000000000012,-5.156622688008059
-0.2247,-5.1792580688059
-0.22570000000000012,-5.208967006103065
-0.2267,-5.22452883040158
-0.22770000000000012,-5.248578922499286
-0.22870000000000001,-5.285361416295777
-0.22970000000000013,-5.2980938179945625
-0.23070000000000002,-5.323558621392133
-0.23170000000000013,-5.347608713489839
-0.23270000000000002,-5.3759029394871405
-0.23370000000000013,-5.419758989782956
-0.23470000000000002,-5.436735525381336
-0.23570000000000013,-5.473518019177827
-0.23670000000000002,-5.5003975338752635
-0.2376999999999999,-5.517374069473643
-0.23870000000000002,-5.552741851970269
-0.2396999999999999,-5.57537723276811
-0.24070000000000003,-5.612159726564601
-0.24169999999999991,-5.651771642960822
-0.24270000000000003,-5.682895291557853
-0.24369999999999992,-5.729580764453398
-0.24470000000000003,-5.759289701750564
-0.24569999999999992,-5.80031632944665
-0.24670000000000003,-5.852660647541658
-0.24769999999999992,-5.893687275237743
-0.24870000000000003,-5.940372748133289
-0.24969999999999992,-5.98281408712924
-0.25070000000000003,-6.039402539123842
-0.2516999999999999,-6.086088012019388
-0.25270000000000004,-6.114382238016689
-0.2536999999999999,-6.169555978711425
-0.25470000000000004,-6.219070874206701
-0.2556999999999999,-6.270000481001842
-0.25670000000000004,-6.318100665197254
-0.25769999999999993,-6.369030271992395
-0.25870000000000004,-6.427033435286861
-0.25969999999999993,-6.4850365985813285
-0.26070000000000004,-6.55860158617431
-0.26169999999999993,-6.620848883368372
-0.26270000000000004,-6.685925603162163
-0.26369999999999993,-6.75524645685555
-0.26470000000000005,-6.809005486250422
-0.26569999999999994,-6.881155762543538
-0.26670000000000005,-6.958964884036115
-0.26769999999999994,-7.022626892530043
-0.26870000000000005,-7.097606591422889
-0.26969999999999994,-7.16268331121668
-0.27070000000000005,-7.256054257007774
-0.27169999999999994,-7.335278089800215
-0.27270000000000005,-7.413087211292793
-0.27369999999999994,-7.4937257553851
-0.27470000000000006,-7.557387763879025
-0.27569999999999995,-7.638026307971333
-0.27670000000000006,-7.7130060068641795
-0.27769999999999995,-7.792229839656622
-0.27870000000000006,-7.894089053246905
-0.27969999999999995,-7.970483463439617
-0.28070000000000006,-8.053951430131654
-0.28169999999999995,-8.145907664622882
-0.28270000000000006,-8.242108033013702
-0.28369999999999995,-8.363773204802097
-0.28470000000000006,-8.467047129692245
-0.28569999999999995,-8.583053456281176
-0.28670000000000007,-8.67642440207227
-0.28769999999999996,-8.759892368764307
-0.28870000000000007,-8.874483984053375
-0.28969999999999996,-8.983416754142983
-0.29070000000000007,-9.099423080731917
-0.29169999999999996,-9.221088252520309
-0.29270000000000007,-9.331435733909782
-0.29369999999999996,-9.451686194398311
-0.2947000000000001,-9.557789541888187
-0.29569999999999996,-9.672381157177256
-0.2967000000000001,-9.785558061166459
-0.29769999999999996,-9.898734965155663
-0.2987000000000001,-10.041620806442031
-0.29969999999999997,-10.166115400830154
-0.3007000000000001,-10.296268840417738
-0.30169999999999997,-10.42642228000532
-0.3027000000000001,-10.572137543891419
-0.30369999999999997,-10.719267519077382
-0.3047000000000001,-10.853665092564562
-0.30569999999999997,-11.023430448548366
-0.3067000000000001,-11.18470753673298
-0.3077,-11.334666934518673
-0.3087000000000001,-11.477552775805044
-0.3097,-11.616194483191816
-0.3107000000000001,-11.787374550475485
-0.3117,-11.92884568046199
-0.3127000000000001,-12.075975655647953
-0.3137,-12.255643990730812
-0.3147000000000001,-12.414091656315696
-0.3157,-12.578198167100041
-0.3167000000000001,-12.74937823438371
-0.3177,-12.92621714686684
-0.3187000000000001,-13.107300193249564
-0.3197,-13.274236126633639
-0.3207000000000001,-13.4821986877138
-0.3217,-13.67318471319558
-0.3227000000000001,-13.848608914378843
-0.3237,-14.050912630259544
-0.3247000000000001,-14.24614278964092
-0.3257,-14.444202371622024
-0.3267000000000001,-14.65640906660178
-0.3277,-14.854468648582884
-0.3287000000000001,-15.05252823056399
-0.3297,-15.264734925543747
-0.3307000000000001,-15.4769416205235
-0.3317,-15.689148315503255
-0.3327000000000001,-15.901355010483012
-0.3337,-16.127708818461418
-0.3347000000000001,-16.339915513441174
-0.3357,-16.580416434418233
-0.3367000000000001,-16.792623129397985
-0.3377,-17.018976937376394
-0.3387000000000001,-17.2736249713521
-0.3397,-17.48583166633185
-0.3407000000000001,-17.74047970030756
-0.3417,-17.995127734283265
-0.3427000000000001,-18.23562865526032
-0.3437,-18.504423802234676
-0.3447000000000001,-18.759071836210385
-0.3457,-19.01371987018609
-0.3467000000000001,-19.2683679041618
-0.3477,-19.537163051136158
-0.3487000000000001,-19.820105311109163
-0.3497,-20.088900458083522
-0.3507000000000001,-20.38598983105518
-0.3517,-20.654784978029536
-0.3527000000000001,-20.923580125003895
-0.3537,-21.22066949797555
-0.3547000000000001,-21.489464644949905
-0.3557,-21.786554017921564
-0.35670000000000013,-22.083643390893226
-0.3577,-22.36658565086623
-0.35870000000000013,-22.691969249835186
-0.3597,-22.974911509808198
-0.36070000000000013,-23.314442221775803
-0.3617,-23.62567870774611
-0.3626999999999999,-23.93691519371642
-0.3637,-24.27644590568403
-0.3646999999999999,-24.587682391654337
-0.3657,-24.884771764625995
-0.3666999999999999,-25.1394197986017
-0.3677,-25.535538962563912
-0.3686999999999999,-25.959952352523427
-0.36970000000000003,-26.28533595149238
-0.3706999999999999,-26.63901377645864
-0.37170000000000003,-27.0209858274222
-0.3726999999999999,-27.34636942639116
-0.37370000000000003,-27.685900138358768
-0.3746999999999999,-28.082019302320973
-0.37570000000000003,-28.53472691827779
-0.3766999999999999,-28.88840474324405
-0.37770000000000004,-29.22793545521166
-0.3786999999999999,-29.652348845171172
-0.37970000000000004,-30.03432089613473
-0.3806999999999999,-30.345557382105042
-0.38170000000000004,-30.670940981073993
-0.38269999999999993,-31.010471693041605
-0.38370000000000004,-31.37829663100651
-0.38469999999999993,-31.74612156897142
-0.38570000000000004,-32.170534958930936
-0.38669999999999993,-32.59494834889044
-0.38770000000000004,-33.0335088518486
-0.38869999999999993,-33.47206935480677
-0.38970000000000005,-33.924776970763574
-0.39069999999999994,-34.39163169971904
-0.39170000000000005,-34.8301922026772
-0.39269999999999994,-35.297046931632664
-0.39370000000000005,-35.806342999584075
-0.39469999999999994,-36.20246216354629
-0.39570000000000005,-36.5985813275085
-0.39669999999999994,-37.037141830466666
-0.39770000000000005,-37.47570233342482
-0.39869999999999994,-37.88596861038568
-0.39970000000000006,-38.29623488734655
-0.40069999999999995,-38.81967806829661
-0.40170000000000006,-39.28653279725207
-0.40269999999999995,-39.68265196121428
-0.40370000000000006,-40.135359577171094
-0.40469999999999995,-40.644655645122505
-0.40570000000000006,-41.139804600075266
-0.40669999999999995,-41.57836510303343
-0.40770000000000006,-42.115955396982145
-0.40869999999999995,-42.667692803929505
-0.40970000000000006,-43.148694645883616
-0.41069999999999995,-43.657990713835034
-0.41170000000000007,-44.195581007783744
-0.41269999999999996,-44.73317130173246
-0.41370000000000007,-45.25661448268253
-0.41469999999999996,-45.79420477663124
-0.41570000000000007,-46.33179507057995
-0.41669999999999996,-46.82694402553272
-0.41770000000000007,-47.30794586748683
-0.41869999999999996,-47.87383038743284
-0.4197000000000001,-48.38312645538425
-0.42069999999999996,-48.89242252333566
-0.4217000000000001,-49.472454156280335
-0.42269999999999996,-50.024191563227696
-0.4237000000000001,-50.59007608317371
-0.42469999999999997,-51.14181349012107
-0.4257000000000001,-51.69355089706845
-0.42669999999999997,-52.28772964301176
-0.4277000000000001,-52.896055501953725
-0.42869999999999997,-53.49023424789704
-0.4297000000000001,-54.08441299384035
-0.43069999999999997,-54.74932730477692
-0.4317000000000001,-55.30106471172429
-0.4327,-55.9235376836649
-0.4337000000000001,-56.58845199460147
-0.4347,-57.15433651454749
-0.4357000000000001,-57.819250825484055
-0.4367,-58.44172379742467
-0.4377000000000001,-59.02175543036933
-0.4387,-59.6583755153086
-0.4397000000000001,-60.11108313126541
-0.4407,-60.70526187720872
-0.4417000000000001,-61.5965299961237
-0.4427,-62.30388564605621
-0.4437000000000001,-62.95465284399414
-0.4447,-63.59127292893339
-0.4457000000000001,-64.32692280486322
-0.4467,-64.9352486638052
-0.4477000000000001,-65.4728389577539
-0.4487,-66.22263594668237
-0.4497000000000001,-67.0997569525987
-0.4507,-67.9485837325177
-0.4517000000000001,-68.68423360844753
-0.4527,-69.43403059737601
-0.4537000000000001,-70.09894490831257
-0.4547,-70.67897654125723
-0.4557000000000001,-71.32974373919515
-0.4567,-71.92392248513846
-0.4577000000000001,-72.47565989208583
-0.4587,-73.12642709002374
-0.4597000000000001,-73.91866541794816
-0.4607,-74.58357972888473
-0.4617000000000001,-75.20605270082535
-0.4627,-75.94170257675518
-0.4637000000000001,-76.8754120346661
-0.4647,-77.68179747558916
-0.4657000000000001,-78.44574157751629
-0.4667,-79.33700969643127
-0.4677000000000001,-80.31316049333813
-0.4687,-81.03466325626928
-0.4697000000000001,-81.60054777621531
-0.4707,-82.40693321713839
-0.4717000000000001,-83.25575999705741
-0.4727,-83.89238008199668
-0.4737000000000001,-84.59973573192919
-0.4747,-85.42026828585092
-0.4757000000000001,-86.17006527477939
-0.4767,-86.8208324727173
-0.4777000000000001,-87.65551213963768
-0.4787,-88.53263314555399
-0.4797000000000001,-89.22584168248785
-0.4807,-90.11710980140283
-0.48170000000000013,-91.05081925931376
-0.4827,-91.87135181323548
-0.48370000000000013,-92.67773725415857
-0.4847,-93.56900537307352
-0.48570000000000013,-94.5168619439831
-0.4867,-94.2339196840101
-0.48570000000000013,-92.98897374012887
-0.4847,-92.01282294322199
-0.48370000000000013,-91.06496637231241
-0.4827,-90.24443381839069
-0.48170000000000013,-89.33901858647707
-0.4807,-88.43360335456343
-0.4797000000000001,-87.66965925263632
-0.4787,-86.79253824672
-0.4777000000000001,-85.94371146680098
-0.4767,-85.2222087038698
-0.4757000000000001,-84.38752903694943
-0.4747,-83.69432050001558
-0.4737000000000001,-82.90208217209116
-0.4727,-82.15228518316268
-0.4717000000000001,-81.48737087222611
-0.4707,-80.7800152222936
-0.4697000000000001,-80.00192400736783
-0.4687,-79.26627413143801
-0.4677000000000001,-78.50233002951089
-0.4667,-77.73838592758376
-0.4657000000000001,-76.97444182565664
-0.4647,-76.23879194972683
-0.4637000000000001,-75.54558341279296
-0.4627,-74.8806691018564
-0.4617000000000001,-74.13087211292792
