July 14, 2024   15:21:53
Cyclic Voltammetry
File: c:/users/guazh/data/20240709_batch67/2024-07-10-exp43\exp43-2024-07-14t15_01_07-arkoh\exp43_cv_sr_600mvs_efin_-1800mv.bin
Data Source:  Experiment
Instrument Model:  CHI760E
Header: CV ran at 600 mVs
Note: 

Init E (V) = -1
High E (V) = -1
Low E (V) = -1.8
Final E (V) = -1
Init P/N = N
Scan Rate (V/s) = 0.6
Segment = 3
Sample Interval (V) = 0.001
Quiet Time (sec) = 2
Sensitivity (A/V) = 0.01
Comp R (ohm) = 1.7

Results:

Channel 1:
Segment 1:

Segment 2:

Segment 3:

Potential/V, Current/A

-1.000, 1.559e-7
-1.001, 1.559e-7
-1.002, 1.559e-7
-1.003, 1.559e-7
-1.004, 3.239e-6
-1.005, 3.239e-6
-1.006, 3.239e-6
-1.007, 3.239e-6
-1.008, 3.239e-6
-1.009, 3.239e-6
-1.010, 3.239e-6
-1.011, 3.239e-6
-1.012, 3.239e-6
-1.013, 3.239e-6
-1.014, 3.239e-6
-1.015, 3.239e-6
-1.016, 3.239e-6
-1.017, 3.239e-6
-1.018, 6.322e-6
-1.019, 3.239e-6
-1.020, 3.239e-6
-1.021, 3.239e-6
-1.022, 3.239e-6
-1.023, 3.239e-6
-1.024, 3.239e-6
-1.025, 6.322e-6
-1.026, 6.322e-6
-1.027, 6.322e-6
-1.028, 6.322e-6
-1.029, 6.322e-6
-1.030, 6.322e-6
-1.031, 6.322e-6
-1.032, 6.322e-6
-1.033, 6.322e-6
-1.034, 6.322e-6
-1.035, 6.322e-6
-1.036, 6.322e-6
-1.037, 6.322e-6
-1.038, 6.322e-6
-1.039, 6.322e-6
-1.040, 6.322e-6
-1.041, 6.322e-6
-1.042, 6.322e-6
-1.043, 6.322e-6
-1.044, 6.322e-6
-1.045, 6.322e-6
-1.046, 6.322e-6
-1.047, 6.322e-6
-1.048, 6.322e-6
-1.049, 6.322e-6
-1.050, 6.322e-6
-1.051, 6.322e-6
-1.052, 6.322e-6
-1.053, 6.322e-6
-1.054, 6.322e-6
-1.055, 6.322e-6
-1.056, 6.322e-6
-1.057, 9.405e-6
-1.058, 6.322e-6
-1.059, 9.405e-6
-1.060, 9.405e-6
-1.061, 6.322e-6
-1.062, 9.405e-6
-1.063, 6.322e-6
-1.064, 6.322e-6
-1.065, 9.405e-6
-1.066, 6.322e-6
-1.067, 9.405e-6
-1.068, 9.405e-6
-1.069, 9.405e-6
-1.070, 9.405e-6
-1.071, 9.405e-6
-1.072, 9.405e-6
-1.073, 9.405e-6
-1.074, 9.405e-6
-1.075, 9.405e-6
-1.076, 9.405e-6
-1.077, 9.405e-6
-1.078, 9.405e-6
-1.079, 9.405e-6
-1.080, 9.405e-6
-1.081, 9.405e-6
-1.082, 9.405e-6
-1.083, 9.405e-6
-1.084, 9.405e-6
-1.085, 9.405e-6
-1.086, 9.405e-6
-1.087, 9.405e-6
-1.088, 9.405e-6
-1.089, 9.405e-6
-1.090, 9.405e-6
-1.091, 9.405e-6
-1.092, 9.405e-6
-1.093, 9.405e-6
-1.094, 9.405e-6
-1.095, 9.405e-6
-1.096, 9.405e-6
-1.097, 9.405e-6
-1.098, 9.405e-6
-1.099, 1.249e-5
-1.100, 9.405e-6
-1.101, 9.405e-6
-1.102, 9.405e-6
-1.103, 9.405e-6
-1.104, 9.405e-6
-1.105, 9.405e-6
-1.106, 9.405e-6
-1.107, 9.405e-6
-1.108, 1.249e-5
-1.109, 1.249e-5
-1.110, 1.249e-5
-1.111, 1.249e-5
-1.112, 9.405e-6
-1.113, 1.249e-5
-1.114, 1.249e-5
-1.115, 1.249e-5
-1.116, 1.249e-5
-1.117, 1.249e-5
-1.118, 1.249e-5
-1.119, 1.249e-5
-1.120, 1.249e-5
-1.121, 1.249e-5
-1.122, 1.249e-5
-1.123, 1.249e-5
-1.124, 1.249e-5
-1.125, 1.249e-5
-1.126, 1.249e-5
-1.127, 1.249e-5
-1.128, 1.249e-5
-1.129, 1.249e-5
-1.130, 1.249e-5
-1.131, 1.249e-5
-1.132, 1.249e-5
-1.133, 1.249e-5
-1.134, 1.249e-5
-1.135, 1.249e-5
-1.136, 1.249e-5
-1.137, 1.249e-5
-1.138, 1.249e-5
-1.139, 1.249e-5
-1.140, 1.249e-5
-1.141, 1.249e-5
-1.142, 1.249e-5
-1.143, 1.249e-5
-1.144, 1.249e-5
-1.145, 1.249e-5
-1.146, 1.249e-5
-1.147, 1.249e-5
-1.148, 1.557e-5
-1.149, 1.557e-5
-1.150, 1.249e-5
-1.151, 1.249e-5
-1.152, 1.249e-5
-1.153, 1.249e-5
-1.154, 1.249e-5
-1.155, 1.249e-5
-1.156, 1.249e-5
-1.157, 1.557e-5
-1.158, 1.249e-5
-1.159, 1.557e-5
-1.160, 1.249e-5
-1.161, 1.557e-5
-1.162, 1.557e-5
-1.163, 1.557e-5
-1.164, 1.557e-5
-1.165, 1.557e-5
-1.166, 1.557e-5
-1.167, 1.557e-5
-1.168, 1.557e-5
-1.169, 1.557e-5
-1.170, 1.557e-5
-1.171, 1.557e-5
-1.172, 1.557e-5
-1.173, 1.557e-5
-1.174, 1.557e-5
-1.175, 1.557e-5
-1.176, 1.557e-5
-1.177, 1.557e-5
-1.178, 1.557e-5
-1.179, 1.557e-5
-1.180, 1.557e-5
-1.181, 1.557e-5
-1.182, 1.557e-5
-1.183, 1.557e-5
-1.184, 1.557e-5
-1.185, 1.557e-5
-1.186, 1.557e-5
-1.187, 1.557e-5
-1.188, 1.557e-5
-1.189, 1.865e-5
-1.190, 1.557e-5
-1.191, 1.865e-5
-1.192, 1.557e-5
-1.193, 1.557e-5
-1.194, 1.865e-5
-1.195, 1.865e-5
-1.196, 1.865e-5
-1.197, 1.865e-5
-1.198, 1.865e-5
-1.199, 1.865e-5
-1.200, 1.865e-5
-1.201, 1.865e-5
-1.202, 1.865e-5
-1.203, 1.865e-5
-1.204, 1.865e-5
-1.205, 1.865e-5
-1.206, 1.865e-5
-1.207, 1.865e-5
-1.208, 1.865e-5
-1.209, 1.865e-5
-1.210, 1.865e-5
-1.211, 1.865e-5
-1.212, 1.865e-5
-1.213, 1.865e-5
-1.214, 1.865e-5
-1.215, 1.865e-5
-1.216, 1.865e-5
-1.217, 2.174e-5
-1.218, 1.865e-5
-1.219, 2.174e-5
-1.220, 2.174e-5
-1.221, 2.174e-5
-1.222, 2.174e-5
-1.223, 2.174e-5
-1.224, 2.174e-5
-1.225, 2.174e-5
-1.226, 2.174e-5
-1.227, 2.174e-5
-1.228, 2.174e-5
-1.229, 2.174e-5
-1.230, 2.174e-5
-1.231, 2.174e-5
-1.232, 2.174e-5
-1.233, 2.174e-5
-1.234, 2.174e-5
-1.235, 2.174e-5
-1.236, 2.174e-5
-1.237, 2.174e-5
-1.238, 2.482e-5
-1.239, 2.174e-5
-1.240, 2.174e-5
-1.241, 2.482e-5
-1.242, 2.482e-5
-1.243, 2.482e-5
-1.244, 2.482e-5
-1.245, 2.482e-5
-1.246, 2.482e-5
-1.247, 2.482e-5
-1.248, 2.482e-5
-1.249, 2.790e-5
-1.250, 2.482e-5
-1.251, 2.482e-5
-1.252, 2.482e-5
-1.253, 2.482e-5
-1.254, 2.790e-5
-1.255, 2.790e-5
-1.256, 2.482e-5
-1.257, 2.790e-5
-1.258, 2.790e-5
-1.259, 2.790e-5
-1.260, 2.790e-5
-1.261, 2.790e-5
-1.262, 2.790e-5
-1.263, 2.790e-5
-1.264, 2.790e-5
-1.265, 2.790e-5
-1.266, 3.099e-5
-1.267, 3.099e-5
-1.268, 3.099e-5
-1.269, 3.099e-5
-1.270, 3.099e-5
-1.271, 3.099e-5
-1.272, 3.099e-5
-1.273, 3.099e-5
-1.274, 3.099e-5
-1.275, 3.099e-5
-1.276, 3.099e-5
-1.277, 3.407e-5
-1.278, 3.407e-5
-1.279, 3.407e-5
-1.280, 3.407e-5
-1.281, 3.407e-5
-1.282, 3.407e-5
-1.283, 3.407e-5
-1.284, 3.407e-5
-1.285, 3.715e-5
-1.286, 3.715e-5
-1.287, 3.715e-5
-1.288, 3.715e-5
-1.289, 3.715e-5
-1.290, 3.715e-5
-1.291, 3.715e-5
-1.292, 3.715e-5
-1.293, 3.715e-5
-1.294, 4.024e-5
-1.295, 4.024e-5
-1.296, 4.024e-5
-1.297, 4.024e-5
-1.298, 4.024e-5
-1.299, 4.024e-5
-1.300, 4.024e-5
-1.301, 4.332e-5
-1.302, 4.332e-5
-1.303, 4.332e-5
-1.304, 4.332e-5
-1.305, 4.332e-5
-1.306, 4.332e-5
-1.307, 4.640e-5
-1.308, 4.332e-5
-1.309, 4.640e-5
-1.310, 4.640e-5
-1.311, 4.640e-5
-1.312, 4.640e-5
-1.313, 4.640e-5
-1.314, 4.949e-5
-1.315, 4.949e-5
-1.316, 4.949e-5
-1.317, 4.949e-5
-1.318, 4.949e-5
-1.319, 5.257e-5
-1.320, 5.257e-5
-1.321, 5.257e-5
-1.322, 5.257e-5
-1.323, 5.257e-5
-1.324, 5.257e-5
-1.325, 5.257e-5
-1.326, 5.257e-5
-1.327, 5.565e-5
-1.328, 5.565e-5
-1.329, 5.873e-5
-1.330, 5.565e-5
-1.331, 5.873e-5
-1.332, 5.873e-5
-1.333, 5.873e-5
-1.334, 5.873e-5
-1.335, 6.182e-5
-1.336, 5.873e-5
-1.337, 6.182e-5
-1.338, 6.182e-5
-1.339, 6.490e-5
-1.340, 6.490e-5
-1.341, 6.490e-5
-1.342, 6.490e-5
-1.343, 6.490e-5
-1.344, 6.798e-5
-1.345, 6.798e-5
-1.346, 6.798e-5
-1.347, 6.798e-5
-1.348, 7.107e-5
-1.349, 7.107e-5
-1.350, 7.107e-5
-1.351, 7.107e-5
-1.352, 7.415e-5
-1.353, 7.415e-5
-1.354, 7.415e-5
-1.355, 7.415e-5
-1.356, 7.723e-5
-1.357, 7.723e-5
-1.358, 7.723e-5
-1.359, 8.032e-5
-1.360, 8.032e-5
-1.361, 8.340e-5
-1.362, 8.340e-5
-1.363, 8.340e-5
-1.364, 8.340e-5
-1.365, 8.340e-5
-1.366, 8.648e-5
-1.367, 8.648e-5
-1.368, 8.648e-5
-1.369, 8.957e-5
-1.370, 8.957e-5
-1.371, 8.957e-5
-1.372, 9.265e-5
-1.373, 9.265e-5
-1.374, 9.265e-5
-1.375, 9.573e-5
-1.376, 9.573e-5
-1.377, 9.573e-5
-1.378, 9.882e-5
-1.379, 9.882e-5
-1.380, 9.882e-5
-1.381, 1.019e-4
-1.382, 1.019e-4
-1.383, 1.050e-4
-1.384, 1.050e-4
-1.385, 1.050e-4
-1.386, 1.081e-4
-1.387, 1.081e-4
-1.388, 1.111e-4
-1.389, 1.111e-4
-1.390, 1.142e-4
-1.391, 1.142e-4
-1.392, 1.142e-4
-1.393, 1.173e-4
-1.394, 1.173e-4
-1.395, 1.204e-4
-1.396, 1.204e-4
-1.397, 1.204e-4
-1.398, 1.235e-4
-1.399, 1.235e-4
-1.400, 1.266e-4
-1.401, 1.266e-4
-1.402, 1.266e-4
-1.403, 1.266e-4
-1.404, 1.296e-4
-1.405, 1.296e-4
-1.406, 1.327e-4
-1.407, 1.358e-4
-1.408, 1.358e-4
-1.409, 1.389e-4
-1.410, 1.389e-4
-1.411, 1.389e-4
-1.412, 1.420e-4
-1.413, 1.420e-4
-1.414, 1.420e-4
-1.415, 1.451e-4
-1.416, 1.451e-4
-1.417, 1.481e-4
-1.418, 1.481e-4
-1.419, 1.512e-4
-1.420, 1.512e-4
-1.421, 1.543e-4
-1.422, 1.543e-4
-1.423, 1.574e-4
-1.424, 1.574e-4
-1.425, 1.574e-4
-1.426, 1.605e-4
-1.427, 1.636e-4
-1.428, 1.636e-4
-1.429, 1.666e-4
-1.430, 1.666e-4
-1.431, 1.666e-4
-1.432, 1.697e-4
-1.433, 1.728e-4
-1.434, 1.728e-4
-1.435, 1.759e-4
-1.436, 1.759e-4
-1.437, 1.759e-4
-1.438, 1.790e-4
-1.439, 1.821e-4
-1.440, 1.821e-4
-1.441, 1.851e-4
-1.442, 1.851e-4
-1.443, 1.851e-4
-1.444, 1.882e-4
-1.445, 1.882e-4
-1.446, 1.913e-4
-1.447, 1.944e-4
-1.448, 1.944e-4
-1.449, 1.975e-4
-1.450, 2.006e-4
-1.451, 2.006e-4
-1.452, 2.036e-4
-1.453, 2.036e-4
-1.454, 2.067e-4
-1.455, 2.067e-4
-1.456, 2.098e-4
-1.457, 2.098e-4
-1.458, 2.129e-4
-1.459, 2.160e-4
-1.460, 2.160e-4
-1.461, 2.191e-4
-1.462, 2.191e-4
-1.463, 2.221e-4
-1.464, 2.252e-4
-1.465, 2.252e-4
-1.466, 2.283e-4
-1.467, 2.283e-4
-1.468, 2.314e-4
-1.469, 2.345e-4
-1.470, 2.376e-4
-1.471, 2.376e-4
-1.472, 2.406e-4
-1.473, 2.437e-4
-1.474, 2.437e-4
-1.475, 2.468e-4
-1.476, 2.499e-4
-1.477, 2.499e-4
-1.478, 2.530e-4
-1.479, 2.561e-4
-1.480, 2.561e-4
-1.481, 2.591e-4
-1.482, 2.622e-4
-1.483, 2.653e-4
-1.484, 2.684e-4
-1.485, 2.684e-4
-1.486, 2.715e-4
-1.487, 2.746e-4
-1.488, 2.776e-4
-1.489, 2.807e-4
-1.490, 2.807e-4
-1.491, 2.838e-4
-1.492, 2.869e-4
-1.493, 2.900e-4
-1.494, 2.931e-4
-1.495, 2.931e-4
-1.496, 2.961e-4
-1.497, 2.992e-4
-1.498, 3.023e-4
-1.499, 3.054e-4
-1.500, 3.085e-4
-1.501, 3.115e-4
-1.502, 3.146e-4
-1.503, 3.177e-4
-1.504, 3.208e-4
-1.505, 3.208e-4
-1.506, 3.239e-4
-1.507, 3.270e-4
-1.508, 3.300e-4
-1.509, 3.362e-4
-1.510, 3.393e-4
-1.511, 3.424e-4
-1.512, 3.455e-4
-1.513, 3.485e-4
-1.514, 3.516e-4
-1.515, 3.547e-4
-1.516, 3.578e-4
-1.517, 3.609e-4
-1.518, 3.640e-4
-1.519, 3.701e-4
-1.520, 3.701e-4
-1.521, 3.763e-4
-1.522, 3.794e-4
-1.523, 3.825e-4
-1.524, 3.886e-4
-1.525, 3.886e-4
-1.526, 3.917e-4
-1.527, 3.979e-4
-1.528, 4.010e-4
-1.529, 4.040e-4
-1.530, 4.102e-4
-1.531, 4.133e-4
-1.532, 4.164e-4
-1.533, 4.225e-4
-1.534, 4.256e-4
-1.535, 4.287e-4
-1.536, 4.318e-4
-1.537, 4.349e-4
-1.538, 4.410e-4
-1.539, 4.441e-4
-1.540, 4.503e-4
-1.541, 4.534e-4
-1.542, 4.595e-4
-1.543, 4.626e-4
-1.544, 4.657e-4
-1.545, 4.719e-4
-1.546, 4.750e-4
-1.547, 4.811e-4
-1.548, 4.842e-4
-1.549, 4.904e-4
-1.550, 4.965e-4
-1.551, 4.996e-4
-1.552, 5.058e-4
-1.553, 5.120e-4
-1.554, 5.150e-4
-1.555, 5.212e-4
-1.556, 5.274e-4
-1.557, 5.305e-4
-1.558, 5.366e-4
-1.559, 5.428e-4
-1.560, 5.459e-4
-1.561, 5.551e-4
-1.562, 5.582e-4
-1.563, 5.644e-4
-1.564, 5.705e-4
-1.565, 5.767e-4
-1.566, 5.798e-4
-1.567, 5.890e-4
-1.568, 5.921e-4
-1.569, 6.014e-4
-1.570, 6.075e-4
-1.571, 6.137e-4
-1.572, 6.199e-4
-1.573, 6.260e-4
-1.574, 6.322e-4
-1.575, 6.384e-4
-1.576, 6.445e-4
-1.577, 6.507e-4
-1.578, 6.599e-4
-1.579, 6.692e-4
-1.580, 6.754e-4
-1.581, 6.846e-4
-1.582, 6.908e-4
-1.583, 6.969e-4
-1.584, 7.062e-4
-1.585, 7.124e-4
-1.586, 7.185e-4
-1.587, 7.278e-4
-1.588, 7.370e-4
-1.589, 7.463e-4
-1.590, 7.555e-4
-1.591, 7.648e-4
-1.592, 7.709e-4
-1.593, 7.802e-4
-1.594, 7.894e-4
-1.595, 7.987e-4
-1.596, 8.079e-4
-1.597, 8.172e-4
-1.598, 8.264e-4
-1.599, 8.388e-4
-1.600, 8.480e-4
-1.601, 8.603e-4
-1.602, 8.696e-4
-1.603, 8.788e-4
-1.604, 8.912e-4
-1.605, 9.004e-4
-1.606, 9.097e-4
-1.607, 9.220e-4
-1.608, 9.313e-4
-1.609, 9.467e-4
-1.610, 9.590e-4
-1.611, 9.713e-4
-1.612, 9.837e-4
-1.613, 9.960e-4
-1.614, 1.005e-3
-1.615, 1.021e-3
-1.616, 1.030e-3
-1.617, 1.042e-3
-1.618, 1.058e-3
-1.619, 1.073e-3
-1.620, 1.088e-3
-1.621, 1.104e-3
-1.622, 1.116e-3
-1.623, 1.132e-3
-1.624, 1.147e-3
-1.625, 1.159e-3
-1.626, 1.175e-3
-1.627, 1.190e-3
-1.628, 1.206e-3
-1.629, 1.224e-3
-1.630, 1.240e-3
-1.631, 1.258e-3
-1.632, 1.273e-3
-1.633, 1.292e-3
-1.634, 1.310e-3
-1.635, 1.326e-3
-1.636, 1.341e-3
-1.637, 1.360e-3
-1.638, 1.381e-3
-1.639, 1.403e-3
-1.640, 1.421e-3
-1.641, 1.443e-3
-1.642, 1.462e-3
-1.643, 1.483e-3
-1.644, 1.502e-3
-1.645, 1.520e-3
-1.646, 1.542e-3
-1.647, 1.563e-3
-1.648, 1.585e-3
-1.649, 1.610e-3
-1.650, 1.634e-3
-1.651, 1.659e-3
-1.652, 1.684e-3
-1.653, 1.705e-3
-1.654, 1.730e-3
-1.655, 1.754e-3
-1.656, 1.779e-3
-1.657, 1.804e-3
-1.658, 1.832e-3
-1.659, 1.862e-3
-1.660, 1.890e-3
-1.661, 1.918e-3
-1.662, 1.946e-3
-1.663, 1.973e-3
-1.664, 2.004e-3
-1.665, 2.029e-3
-1.666, 2.060e-3
-1.667, 2.091e-3
-1.668, 2.121e-3
-1.669, 2.152e-3
-1.670, 2.186e-3
-1.671, 2.217e-3
-1.672, 2.251e-3
-1.673, 2.282e-3
-1.674, 2.316e-3
-1.675, 2.346e-3
-1.676, 2.380e-3
-1.677, 2.414e-3
-1.678, 2.451e-3
-1.679, 2.491e-3
-1.680, 2.528e-3
-1.681, 2.565e-3
-1.682, 2.605e-3
-1.683, 2.642e-3
-1.684, 2.682e-3
-1.685, 2.719e-3
-1.686, 2.756e-3
-1.687, 2.797e-3
-1.688, 2.840e-3
-1.689, 2.883e-3
-1.690, 2.926e-3
-1.691, 2.972e-3
-1.692, 3.015e-3
-1.693, 3.059e-3
-1.694, 3.102e-3
-1.695, 3.145e-3
-1.696, 3.191e-3
-1.697, 3.237e-3
-1.698, 3.284e-3
-1.699, 3.336e-3
-1.700, 3.385e-3
-1.701, 3.435e-3
-1.702, 3.487e-3
-1.703, 3.536e-3
-1.704, 3.586e-3
-1.705, 3.632e-3
-1.706, 3.684e-3
-1.707, 3.737e-3
-1.708, 3.792e-3
-1.709, 3.848e-3
-1.710, 3.906e-3
-1.711, 3.965e-3
-1.712, 4.021e-3
-1.713, 4.076e-3
-1.714, 4.132e-3
-1.715, 4.187e-3
-1.716, 4.243e-3
-1.717, 4.304e-3
-1.718, 4.363e-3
-1.719, 4.424e-3
-1.720, 4.489e-3
-1.721, 4.554e-3
-1.722, 4.616e-3
-1.723, 4.677e-3
-1.724, 4.739e-3
-1.725, 4.804e-3
-1.726, 4.865e-3
-1.727, 4.930e-3
-1.728, 4.998e-3
-1.729, 5.066e-3
-1.730, 5.137e-3
-1.731, 5.208e-3
-1.732, 5.275e-3
-1.733, 5.343e-3
-1.734, 5.408e-3
-1.735, 5.476e-3
-1.736, 5.547e-3
-1.737, 5.618e-3
-1.738, 5.692e-3
-1.739, 5.766e-3
-1.740, 5.843e-3
-1.741, 5.917e-3
-1.742, 5.991e-3
-1.743, 6.065e-3
-1.744, 6.136e-3
-1.745, 6.210e-3
-1.746, 6.284e-3
-1.747, 6.358e-3
-1.748, 6.438e-3
-1.749, 6.518e-3
-1.750, 6.598e-3
-1.751, 6.678e-3
-1.752, 6.755e-3
-1.753, 6.829e-3
-1.754, 6.912e-3
-1.755, 6.983e-3
-1.756, 7.060e-3
-1.757, 7.138e-3
-1.758, 7.221e-3
-1.759, 7.304e-3
-1.760, 7.390e-3
-1.761, 7.474e-3
-1.762, 7.554e-3
-1.763, 7.634e-3
-1.764, 7.717e-3
-1.765, 7.794e-3
-1.766, 7.874e-3
-1.767, 7.958e-3
-1.768, 8.044e-3
-1.769, 8.133e-3
-1.770, 8.223e-3
-1.771, 8.309e-3
-1.772, 8.395e-3
-1.773, 8.482e-3
-1.774, 8.568e-3
-1.775, 8.651e-3
-1.776, 8.741e-3
-1.777, 8.830e-3
-1.778, 8.923e-3
-1.779, 9.015e-3
-1.780, 9.108e-3
-1.781, 9.200e-3
-1.782, 9.293e-3
-1.783, 9.382e-3
-1.784, 9.471e-3
-1.785, 9.558e-3
-1.786, 9.653e-3
-1.787, 9.743e-3
-1.788, 9.841e-3
-1.789, 9.943e-3
-1.790, 1.004e-2
-1.791, 1.014e-2
-1.792, 1.024e-2
-1.793, 1.033e-2
-1.794, 1.042e-2
-1.795, 1.052e-2
-1.796, 1.061e-2
-1.797, 1.071e-2
-1.798, 1.081e-2
-1.799, 1.091e-2
-1.800, 1.096e-2
-1.799, 1.092e-2
-1.798, 1.087e-2
-1.797, 1.082e-2
-1.796, 1.075e-2
-1.795, 1.069e-2
-1.794, 1.062e-2
-1.793, 1.056e-2
-1.792, 1.049e-2
-1.791, 1.043e-2
-1.790, 1.037e-2
-1.789, 1.030e-2
-1.788, 1.023e-2
-1.787, 1.017e-2
-1.786, 1.009e-2
-1.785, 1.002e-2
-1.784, 9.943e-3
-1.783, 9.872e-3
-1.782, 9.801e-3
-1.781, 9.734e-3
-1.780, 9.669e-3
-1.779, 9.598e-3
-1.778, 9.527e-3
-1.777, 9.450e-3
-1.776, 9.373e-3
-1.775, 9.293e-3
-1.774, 9.219e-3
-1.773, 9.142e-3
-1.772, 9.071e-3
-1.771, 9.000e-3
-1.770, 8.929e-3
-1.769, 8.858e-3
-1.768, 8.781e-3
-1.767, 8.701e-3
-1.766, 8.624e-3
-1.765, 8.547e-3
-1.764, 8.469e-3
-1.763, 8.392e-3
-1.762, 8.321e-3
-1.761, 8.251e-3
-1.760, 8.180e-3
-1.759, 8.109e-3
-1.758, 8.035e-3
-1.757, 7.961e-3
-1.756, 7.884e-3
-1.755, 7.807e-3
-1.754, 7.733e-3
-1.753, 7.656e-3
-1.752, 7.585e-3
-1.751, 7.517e-3
-1.750, 7.452e-3
-1.749, 7.381e-3
-1.748, 7.310e-3
-1.747, 7.236e-3
-1.746, 7.165e-3
-1.745, 7.088e-3
-1.744, 7.017e-3
-1.743, 6.946e-3
-1.742, 6.875e-3
-1.741, 6.811e-3
-1.740, 6.743e-3
-1.739, 6.675e-3
-1.738, 6.607e-3
-1.737, 6.536e-3
-1.736, 6.465e-3
-1.735, 6.395e-3
-1.734, 6.324e-3
-1.733, 6.253e-3
-1.732, 6.188e-3
-1.731, 6.123e-3
-1.730, 6.058e-3
-1.729, 5.994e-3
-1.728, 5.929e-3
-1.727, 5.858e-3
-1.726, 5.793e-3
-1.725, 5.725e-3
-1.724, 5.658e-3
-1.723, 5.590e-3
-1.722, 5.525e-3
-1.721, 5.463e-3
-1.720, 5.405e-3
-1.719, 5.343e-3
-1.718, 5.282e-3
-1.717, 5.217e-3
-1.716, 5.152e-3
-1.715, 5.087e-3
-1.714, 5.023e-3
-1.713, 4.961e-3
-1.712, 4.902e-3
-1.711, 4.844e-3
-1.710, 4.785e-3
-1.709, 4.723e-3
-1.708, 4.665e-3
-1.707, 4.606e-3
-1.706, 4.545e-3
-1.705, 4.483e-3
-1.704, 4.424e-3
-1.703, 4.366e-3
-1.702, 4.310e-3
-1.701, 4.258e-3
-1.700, 4.206e-3
-1.699, 4.150e-3
-1.698, 4.095e-3
-1.697, 4.036e-3
-1.696, 3.980e-3
-1.695, 3.922e-3
-1.694, 3.869e-3
-1.693, 3.814e-3
-1.692, 3.762e-3
-1.691, 3.712e-3
-1.690, 3.660e-3
-1.689, 3.610e-3
-1.688, 3.561e-3
-1.687, 3.509e-3
-1.686, 3.456e-3
-1.685, 3.407e-3
-1.684, 3.355e-3
-1.683, 3.305e-3
-1.682, 3.256e-3
-1.681, 3.210e-3
-1.680, 3.167e-3
-1.679, 3.120e-3
-1.678, 3.074e-3
-1.677, 3.028e-3
-1.676, 2.978e-3
-1.675, 2.932e-3
-1.674, 2.886e-3
-1.673, 2.840e-3
-1.672, 2.800e-3
-1.671, 2.760e-3
-1.670, 2.719e-3
-1.669, 2.676e-3
-1.668, 2.633e-3
-1.667, 2.593e-3
-1.666, 2.553e-3
-1.665, 2.507e-3
-1.664, 2.467e-3
-1.663, 2.427e-3
-1.662, 2.386e-3
-1.661, 2.349e-3
-1.660, 2.312e-3
-1.659, 2.275e-3
-1.658, 2.238e-3
-1.657, 2.201e-3
-1.656, 2.164e-3
-1.655, 2.124e-3
-1.654, 2.091e-3
-1.653, 2.054e-3
-1.652, 2.020e-3
-1.651, 1.989e-3
-1.650, 1.955e-3
-1.649, 1.924e-3
-1.648, 1.890e-3
-1.647, 1.856e-3
-1.646, 1.822e-3
-1.645, 1.791e-3
-1.644, 1.758e-3
-1.643, 1.727e-3
-1.642, 1.696e-3
-1.641, 1.668e-3
-1.640, 1.640e-3
-1.639, 1.613e-3
-1.638, 1.582e-3
-1.637, 1.554e-3
-1.636, 1.526e-3
-1.635, 1.495e-3
-1.634, 1.468e-3
-1.633, 1.440e-3
-1.632, 1.415e-3
-1.631, 1.394e-3
-1.630, 1.366e-3
-1.629, 1.344e-3
-1.628, 1.320e-3
-1.627, 1.295e-3
-1.626, 1.270e-3
-1.625, 1.246e-3
-1.624, 1.221e-3
-1.623, 1.199e-3
-1.622, 1.178e-3
-1.621, 1.156e-3
-1.620, 1.135e-3
-1.619, 1.113e-3
-1.618, 1.092e-3
-1.617, 1.073e-3
-1.616, 1.051e-3
-1.615, 1.030e-3
-1.614, 1.008e-3
-1.613, 9.898e-4
-1.612, 9.713e-4
-1.611, 9.528e-4
-1.610, 9.374e-4
-1.609, 9.158e-4
-1.608, 9.004e-4
-1.607, 8.819e-4
-1.606, 8.634e-4
-1.605, 8.480e-4
-1.604, 8.295e-4
-1.603, 8.141e-4
-1.602, 7.956e-4
-1.601, 7.802e-4
-1.600, 7.648e-4
-1.599, 7.524e-4
-1.598, 7.370e-4
-1.597, 7.216e-4
-1.596, 7.062e-4
-1.595, 6.939e-4
-1.594, 6.784e-4
-1.593, 6.661e-4
-1.592, 6.507e-4
-1.591, 6.384e-4
-1.590, 6.260e-4
-1.589, 6.168e-4
-1.588, 6.044e-4
-1.587, 5.890e-4
-1.586, 5.767e-4
-1.585, 5.644e-4
-1.584, 5.551e-4
-1.583, 5.428e-4
-1.582, 5.335e-4
-1.581, 5.212e-4
-1.580, 5.120e-4
-1.579, 4.996e-4
-1.578, 4.904e-4
-1.577, 4.811e-4
-1.576, 4.719e-4
-1.575, 4.595e-4
-1.574, 4.503e-4
-1.573, 4.410e-4
-1.572, 4.349e-4
-1.571, 4.256e-4
-1.570, 4.164e-4
-1.569, 4.071e-4
-1.568, 4.010e-4
-1.567, 3.917e-4
-1.566, 3.855e-4
-1.565, 3.763e-4
-1.564, 3.701e-4
-1.563, 3.609e-4
-1.562, 3.547e-4
-1.561, 3.485e-4
-1.560, 3.424e-4
-1.559, 3.331e-4
-1.558, 3.270e-4
-1.557, 3.208e-4
-1.556, 3.146e-4
-1.555, 3.085e-4
-1.554, 3.023e-4
-1.553, 2.961e-4
-1.552, 2.900e-4
-1.551, 2.869e-4
-1.550, 2.807e-4
-1.549, 2.746e-4
-1.548, 2.684e-4
-1.547, 2.653e-4
-1.546, 2.591e-4
-1.545, 2.530e-4
-1.544, 2.499e-4
-1.543, 2.437e-4
-1.542, 2.376e-4
-1.541, 2.345e-4
-1.540, 2.314e-4
-1.539, 2.283e-4
-1.538, 2.221e-4
-1.537, 2.191e-4
-1.536, 2.160e-4
-1.535, 2.098e-4
-1.534, 2.067e-4
-1.533, 2.036e-4
-1.532, 1.975e-4
-1.531, 1.975e-4
-1.530, 1.944e-4
-1.529, 1.913e-4
-1.528, 1.851e-4
-1.527, 1.821e-4
-1.526, 1.790e-4
-1.525, 1.759e-4
-1.524, 1.728e-4
-1.523, 1.697e-4
-1.522, 1.666e-4
-1.521, 1.666e-4
-1.520, 1.636e-4
-1.519, 1.605e-4
-1.518, 1.574e-4
-1.517, 1.543e-4
-1.516, 1.512e-4
-1.515, 1.481e-4
-1.514, 1.451e-4
-1.513, 1.451e-4
-1.512, 1.420e-4
-1.511, 1.389e-4
-1.510, 1.389e-4
-1.509, 1.358e-4
-1.508, 1.327e-4
-1.507, 1.327e-4
-1.506, 1.296e-4
-1.505, 1.266e-4
-1.504, 1.266e-4
-1.503, 1.235e-4
-1.502, 1.235e-4
-1.501, 1.204e-4
-1.500, 1.204e-4
-1.499, 1.173e-4
-1.498, 1.142e-4
-1.497, 1.142e-4
-1.496, 1.142e-4
-1.495, 1.111e-4
-1.494, 1.081e-4
-1.493, 1.081e-4
-1.492, 1.050e-4
-1.491, 1.050e-4
-1.490, 1.019e-4
-1.489, 1.019e-4
-1.488, 9.882e-5
-1.487, 9.882e-5
-1.486, 9.573e-5
-1.485, 9.573e-5
-1.484, 9.265e-5
-1.483, 9.265e-5
-1.482, 9.265e-5
-1.481, 9.265e-5
-1.480, 8.957e-5
-1.479, 8.957e-5
-1.478, 8.648e-5
-1.477, 8.648e-5
-1.476, 8.648e-5
-1.475, 8.340e-5
-1.474, 8.340e-5
-1.473, 8.032e-5
-1.472, 8.032e-5
-1.471, 8.032e-5
-1.470, 8.032e-5
-1.469, 7.723e-5
-1.468, 7.723e-5
-1.467, 7.723e-5
-1.466, 7.415e-5
-1.465, 7.415e-5
-1.464, 7.415e-5
-1.463, 7.107e-5
-1.462, 7.107e-5
-1.461, 7.107e-5
-1.460, 7.107e-5
-1.459, 6.798e-5
-1.458, 6.798e-5
-1.457, 6.798e-5
-1.456, 6.798e-5
-1.455, 6.490e-5
-1.454, 6.490e-5
-1.453, 6.490e-5
-1.452, 6.490e-5
-1.451, 6.490e-5
-1.450, 6.182e-5
-1.449, 6.182e-5
-1.448, 6.182e-5
-1.447, 6.182e-5
-1.446, 5.873e-5
-1.445, 5.873e-5
-1.444, 5.565e-5
-1.443, 5.873e-5
-1.442, 5.873e-5
-1.441, 5.565e-5
-1.440, 5.565e-5
-1.439, 5.565e-5
-1.438, 5.257e-5
-1.437, 5.257e-5
-1.436, 5.257e-5
-1.435, 5.257e-5
-1.434, 4.949e-5
-1.433, 4.949e-5
-1.432, 4.949e-5
-1.431, 4.949e-5
-1.430, 4.949e-5
-1.429, 4.949e-5
-1.428, 4.640e-5
-1.427, 4.640e-5
-1.426, 4.640e-5
-1.425, 4.640e-5
-1.424, 4.332e-5
-1.423, 4.332e-5
-1.422, 4.332e-5
-1.421, 4.332e-5
-1.420, 4.332e-5
-1.419, 4.332e-5
-1.418, 4.024e-5
-1.417, 4.024e-5
-1.416, 4.024e-5
-1.415, 4.024e-5
-1.414, 4.024e-5
-1.413, 4.024e-5
-1.412, 3.715e-5
-1.411, 4.024e-5
-1.410, 3.715e-5
-1.409, 3.715e-5
-1.408, 3.715e-5
-1.407, 3.407e-5
-1.406, 3.407e-5
-1.405, 3.407e-5
-1.404, 3.407e-5
-1.403, 3.407e-5
-1.402, 3.407e-5
-1.401, 3.407e-5
-1.400, 3.407e-5
-1.399, 3.407e-5
-1.398, 3.099e-5
-1.397, 3.099e-5
-1.396, 3.099e-5
-1.395, 3.099e-5
-1.394, 2.790e-5
-1.393, 2.790e-5
-1.392, 2.790e-5
-1.391, 2.790e-5
-1.390, 2.790e-5
-1.389, 2.790e-5
-1.388, 2.790e-5
-1.387, 2.790e-5
-1.386, 2.482e-5
-1.385, 2.482e-5
-1.384, 2.482e-5
-1.383, 2.482e-5
-1.382, 2.482e-5
-1.381, 2.482e-5
-1.380, 2.482e-5
-1.379, 2.174e-5
-1.378, 2.174e-5
-1.377, 2.174e-5
-1.376, 2.174e-5
-1.375, 2.174e-5
-1.374, 2.174e-5
-1.373, 2.174e-5
-1.372, 2.174e-5
-1.371, 2.174e-5
-1.370, 2.174e-5
-1.369, 1.865e-5
-1.368, 1.865e-5
-1.367, 1.865e-5
-1.366, 1.865e-5
-1.365, 1.865e-5
-1.364, 1.865e-5
-1.363, 1.865e-5
-1.362, 1.557e-5
-1.361, 1.557e-5
-1.360, 1.865e-5
-1.359, 1.557e-5
-1.358, 1.557e-5
-1.357, 1.557e-5
-1.356, 1.557e-5
-1.355, 1.557e-5
-1.354, 1.249e-5
-1.353, 1.249e-5
-1.352, 1.557e-5
-1.351, 1.249e-5
-1.350, 1.249e-5
-1.349, 1.249e-5
-1.348, 1.249e-5
-1.347, 1.249e-5
-1.346, 1.249e-5
-1.345, 1.249e-5
-1.344, 1.249e-5
-1.343, 1.249e-5
-1.342, 1.249e-5
-1.341, 9.405e-6
-1.340, 9.405e-6
-1.339, 9.405e-6
-1.338, 9.405e-6
-1.337, 9.405e-6
-1.336, 9.405e-6
-1.335, 9.405e-6
-1.334, 9.405e-6
-1.333, 9.405e-6
-1.332, 9.405e-6
-1.331, 9.405e-6
-1.330, 6.322e-6
-1.329, 6.322e-6
-1.328, 6.322e-6
-1.327, 6.322e-6
-1.326, 6.322e-6
-1.325, 6.322e-6
-1.324, 3.239e-6
-1.323, 6.322e-6
-1.322, 6.322e-6
-1.321, 6.322e-6
-1.320, 6.322e-6
-1.319, 3.239e-6
-1.318, 3.239e-6
-1.317, 3.239e-6
-1.316, 6.322e-6
-1.315, 3.239e-6
-1.314, 3.239e-6
-1.313, 3.239e-6
-1.312, 3.239e-6
-1.311, 3.239e-6
-1.310, 3.239e-6
-1.309, 3.239e-6
-1.308, 3.239e-6
-1.307, 3.239e-6
-1.306, 3.239e-6
-1.305, 3.239e-6
-1.304, 1.559e-7
-1.303, 1.559e-7
-1.302, 1.559e-7
-1.301, 1.559e-7
-1.300, 1.559e-7
-1.299, 1.559e-7
-1.298, 1.559e-7
-1.297, 1.559e-7
-1.296, 1.559e-7
-1.295, 1.559e-7
-1.294, 1.559e-7
-1.293, 1.559e-7
-1.292, 1.559e-7
-1.291, 1.559e-7
-1.290, 1.559e-7
-1.289, 1.559e-7
-1.288, 1.559e-7
-1.287, 1.559e-7
-1.286, -2.927e-6
-1.285, 1.559e-7
-1.284, -2.927e-6
-1.283, -2.927e-6
-1.282, -2.927e-6
-1.281, -2.927e-6
-1.280, -2.927e-6
-1.279, -2.927e-6
-1.278, -2.927e-6
-1.277, -2.927e-6
-1.276, -2.927e-6
-1.275, -2.927e-6
-1.274, -2.927e-6
-1.273, -2.927e-6
-1.272, -6.010e-6
-1.271, -2.927e-6
-1.270, -2.927e-6
-1.269, -2.927e-6
-1.268, -2.927e-6
-1.267, -6.010e-6
-1.266, -6.010e-6
-1.265, -2.927e-6
-1.264, -6.010e-6
-1.263, -6.010e-6
-1.262, -6.010e-6
-1.261, -6.010e-6
-1.260, -6.010e-6
-1.259, -6.010e-6
-1.258, -6.010e-6
-1.257, -6.010e-6
-1.256, -6.010e-6
-1.255, -6.010e-6
-1.254, -6.010e-6
-1.253, -6.010e-6
-1.252, -6.010e-6
-1.251, -6.010e-6
-1.250, -6.010e-6
-1.249, -6.010e-6
-1.248, -6.010e-6
-1.247, -6.010e-6
-1.246, -6.010e-6
-1.245, -6.010e-6
-1.244, -6.010e-6
-1.243, -9.093e-6
-1.242, -6.010e-6
-1.241, -6.010e-6
-1.240, -6.010e-6
-1.239, -6.010e-6
-1.238, -6.010e-6
-1.237, -6.010e-6
-1.236, -9.093e-6
-1.235, -9.093e-6
-1.234, -9.093e-6
-1.233, -9.093e-6
-1.232, -9.093e-6
-1.231, -6.010e-6
-1.230, -9.093e-6
-1.229, -9.093e-6
-1.228, -9.093e-6
-1.227, -9.093e-6
-1.226, -9.093e-6
-1.225, -9.093e-6
-1.224, -9.093e-6
-1.223, -9.093e-6
-1.222, -9.093e-6
-1.221, -9.093e-6
-1.220, -9.093e-6
-1.219, -9.093e-6
-1.218, -9.093e-6
-1.217, -9.093e-6
-1.216, -9.093e-6
-1.215, -9.093e-6
-1.214, -9.093e-6
-1.213, -9.093e-6
-1.212, -9.093e-6
-1.211, -9.093e-6
-1.210, -9.093e-6
-1.209, -9.093e-6
-1.208, -9.093e-6
-1.207, -9.093e-6
-1.206, -1.218e-5
-1.205, -9.093e-6
-1.204, -1.218e-5
-1.203, -1.218e-5
-1.202, -1.218e-5
-1.201, -9.093e-6
-1.200, -9.093e-6
-1.199, -9.093e-6
-1.198, -1.218e-5
-1.197, -9.093e-6
-1.196, -1.218e-5
-1.195, -1.218e-5
-1.194, -1.218e-5
-1.193, -1.218e-5
-1.192, -1.218e-5
-1.191, -1.218e-5
-1.190, -1.218e-5
-1.189, -1.218e-5
-1.188, -1.218e-5
-1.187, -1.218e-5
-1.186, -1.218e-5
-1.185, -1.218e-5
-1.184, -1.218e-5
-1.183, -1.218e-5
-1.182, -1.218e-5
-1.181, -1.218e-5
-1.180, -1.218e-5
-1.179, -1.218e-5
-1.178, -1.218e-5
-1.177, -1.218e-5
-1.176, -1.218e-5
-1.175, -1.218e-5
-1.174, -1.218e-5
-1.173, -1.218e-5
-1.172, -1.218e-5
-1.171, -1.218e-5
-1.170, -1.218e-5
-1.169, -1.218e-5
-1.168, -1.218e-5
-1.167, -1.218e-5
-1.166, -1.526e-5
-1.165, -1.218e-5
-1.164, -1.218e-5
-1.163, -1.526e-5
-1.162, -1.218e-5
-1.161, -1.218e-5
-1.160, -1.218e-5
-1.159, -1.218e-5
-1.158, -1.218e-5
-1.157, -1.218e-5
-1.156, -1.218e-5
-1.155, -1.218e-5
-1.154, -1.218e-5
-1.153, -1.218e-5
-1.152, -1.526e-5
-1.151, -1.218e-5
-1.150, -1.218e-5
-1.149, -1.218e-5
-1.148, -1.218e-5
-1.147, -1.526e-5
-1.146, -1.526e-5
-1.145, -1.526e-5
-1.144, -1.526e-5
-1.143, -1.526e-5
-1.142, -1.526e-5
-1.141, -1.526e-5
-1.140, -1.526e-5
-1.139, -1.526e-5
-1.138, -1.526e-5
-1.137, -1.526e-5
-1.136, -1.526e-5
-1.135, -1.526e-5
-1.134, -1.526e-5
-1.133, -1.526e-5
-1.132, -1.526e-5
-1.131, -1.526e-5
-1.130, -1.526e-5
-1.129, -1.526e-5
-1.128, -1.526e-5
-1.127, -1.526e-5
-1.126, -1.526e-5
-1.125, -1.526e-5
-1.124, -1.526e-5
-1.123, -1.526e-5
-1.122, -1.526e-5
-1.121, -1.526e-5
-1.120, -1.526e-5
-1.119, -1.526e-5
-1.118, -1.526e-5
-1.117, -1.526e-5
-1.116, -1.526e-5
-1.115, -1.526e-5
-1.114, -1.526e-5
-1.113, -1.526e-5
-1.112, -1.526e-5
-1.111, -1.526e-5
-1.110, -1.526e-5
-1.109, -1.526e-5
-1.108, -1.526e-5
-1.107, -1.526e-5
-1.106, -1.526e-5
-1.105, -1.526e-5
-1.104, -1.834e-5
-1.103, -1.526e-5
-1.102, -1.834e-5
-1.101, -1.526e-5
-1.100, -1.526e-5
-1.099, -1.526e-5
-1.098, -1.526e-5
-1.097, -1.526e-5
-1.096, -1.526e-5
-1.095, -1.834e-5
-1.094, -1.526e-5
-1.093, -1.834e-5
-1.092, -1.834e-5
-1.091, -1.526e-5
-1.090, -1.526e-5
-1.089, -1.526e-5
-1.088, -1.834e-5
-1.087, -1.834e-5
-1.086, -1.834e-5
-1.085, -1.834e-5
-1.084, -1.834e-5
-1.083, -1.834e-5
-1.082, -1.526e-5
-1.081, -1.834e-5
-1.080, -1.834e-5
-1.079, -1.834e-5
-1.078, -1.834e-5
-1.077, -1.834e-5
-1.076, -1.834e-5
-1.075, -1.834e-5
-1.074, -1.834e-5
-1.073, -1.834e-5
-1.072, -1.834e-5
-1.071, -1.834e-5
-1.070, -1.834e-5
-1.069, -1.834e-5
-1.068, -1.834e-5
-1.067, -1.834e-5
-1.066, -1.834e-5
-1.065, -1.834e-5
-1.064, -1.834e-5
-1.063, -1.834e-5
-1.062, -1.834e-5
-1.061, -1.834e-5
-1.060, -1.834e-5
-1.059, -1.834e-5
-1.058, -1.834e-5
-1.057, -1.834e-5
-1.056, -1.834e-5
-1.055, -1.834e-5
-1.054, -1.834e-5
-1.053, -1.834e-5
-1.052, -1.834e-5
-1.051, -1.834e-5
-1.050, -1.834e-5
-1.049, -1.834e-5
-1.048, -1.834e-5
-1.047, -1.834e-5
-1.046, -1.834e-5
-1.045, -1.834e-5
-1.044, -1.834e-5
-1.043, -2.143e-5
-1.042, -1.834e-5
-1.041, -1.834e-5
-1.040, -1.834e-5
-1.039, -1.834e-5
-1.038, -1.834e-5
-1.037, -1.834e-5
-1.036, -1.834e-5
-1.035, -2.143e-5
-1.034, -2.143e-5
-1.033, -1.834e-5
-1.032, -2.143e-5
-1.031, -2.143e-5
-1.030, -1.834e-5
-1.029, -2.143e-5
-1.028, -2.143e-5
-1.027, -2.143e-5
-1.026, -2.143e-5
-1.025, -2.143e-5
-1.024, -2.143e-5
-1.023, -2.143e-5
-1.022, -2.143e-5
-1.021, -2.143e-5
-1.020, -2.143e-5
-1.019, -2.143e-5
-1.018, -2.143e-5
-1.017, -2.143e-5
-1.016, -2.143e-5
-1.015, -2.143e-5
-1.014, -2.143e-5
-1.013, -2.143e-5
-1.012, -2.143e-5
-1.011, -2.143e-5
-1.010, -2.143e-5
-1.009, -2.143e-5
-1.008, -2.143e-5
-1.007, -2.143e-5
-1.006, -2.143e-5
-1.005, -2.143e-5
-1.004, -2.143e-5
-1.003, -2.143e-5
-1.002, -2.143e-5
-1.001, -2.143e-5
