Potential V vs RHE, Current mA cm-2
0.013299999999999867,-0.30755823659065895
0.012299999999999978,-2.2706116362833835
0.011299999999999866,-3.6655169779503103
0.010299999999999976,-4.756259390146253
0.009299999999999864,-5.629136262162981
0.008299999999999974,-6.282732882700628
0.007299999999999862,-6.893888164242324
0.006299999999999972,-7.37347529489657
0.00529999999999986,-7.853062425550818
0.0042999999999999705,-8.288793505909249
0.0032999999999998586,-8.638227196975913
0.0022999999999999687,-8.899948787450944
0.0012999999999998568,-9.161670377925978
0.00029999999999996696,-9.293238528813426
-0.000700000000000145,-9.511104068992642
-0.0017000000000000348,-9.641257508580225
-0.0027000000000001467,-9.81668170976349
-0.0037000000000000366,-10.034547249942705
-0.0047000000000001485,-10.164700689530287
-0.005700000000000038,-10.296268840417738
-0.00670000000000015,-10.382566229709504
-0.00770000000000004,-10.42642228000532
-0.008700000000000152,-10.470278330301136
-0.009700000000000042,-10.557990430892769
-0.010700000000000154,-10.644287820184536
-0.011700000000000044,-10.731999920776168
-0.012700000000000156,-10.819712021367803
-0.013700000000000045,-10.906009410659568
-0.014700000000000157,-10.993721511251199
-0.015700000000000047,-10.993721511251199
-0.01670000000000016,-11.037577561547016
-0.01770000000000005,-11.081433611842833
-0.01870000000000016,-11.123874950838783
-0.01970000000000005,-11.1677310011346
-0.020700000000000163,-11.211587051430415
-0.021700000000000053,-11.299299152022046
-0.022700000000000164,-11.343155202317865
-0.023700000000000054,-11.343155202317865
-0.024700000000000166,-11.343155202317865
-0.025700000000000056,-11.385596541313816
-0.026700000000000168,-11.42945259160963
-0.027700000000000058,-11.517164692201263
-0.02870000000000017,-11.517164692201263
-0.02970000000000006,-11.647318131788847
-0.03070000000000017,-11.647318131788847
-0.03170000000000006,-11.647318131788847
-0.03270000000000017,-11.647318131788847
-0.03370000000000006,-11.647318131788847
-0.034700000000000175,-11.604876792792895
-0.035700000000000065,-11.691174182084664
-0.03670000000000018,-11.73503023238048
-0.03770000000000007,-11.778886282676295
-0.03870000000000018,-11.86659838326793
-0.03970000000000007,-11.86659838326793
-0.04070000000000018,-11.86659838326793
-0.04170000000000007,-11.86659838326793
-0.04270000000000018,-11.86659838326793
-0.04370000000000007,-11.909039722263879
-0.044700000000000184,-11.952895772559694
-0.045700000000000074,-11.996751822855511
-0.046700000000000186,-12.040607873151327
-0.047700000000000076,-12.084463923447142
-0.04870000000000019,-12.084463923447142
-0.04970000000000008,-12.084463923447142
-0.05070000000000019,-12.084463923447142
-0.05170000000000008,-12.12831997374296
-0.05270000000000019,-12.170761312738911
-0.05370000000000008,-12.214617363034726
-0.05470000000000019,-12.302329463626359
-0.05570000000000008,-12.346185513922174
-0.056700000000000195,-12.346185513922174
-0.057700000000000085,-12.302329463626359
-0.058700000000000196,-12.258473413330542
-0.059700000000000086,-12.302329463626359
-0.0607000000000002,-12.346185513922174
-0.06170000000000009,-12.432482903213943
-0.0627000000000002,-12.520195003805576
-0.06370000000000009,-12.56405105410139
-0.0647000000000002,-12.56405105410139
-0.06570000000000009,-12.56405105410139
-0.0667000000000002,-12.520195003805576
-0.0677000000000001,-12.520195003805576
-0.0687000000000002,-12.56405105410139
-0.0697000000000001,-12.607907104397206
-0.07070000000000021,-12.651763154693022
-0.0717000000000001,-12.651763154693022
-0.07270000000000021,-12.694204493688973
-0.0737000000000001,-12.694204493688973
-0.07470000000000021,-12.694204493688973
-0.0757000000000001,-12.694204493688973
-0.07670000000000021,-12.73806054398479
-0.0777000000000001,-12.781916594280606
-0.07870000000000021,-12.825772644576423
-0.0797000000000001,-12.913484745168056
-0.08070000000000022,-12.913484745168056
-0.0817000000000001,-12.955926084164007
-0.08270000000000022,-12.955926084164007
-0.08370000000000011,-12.955926084164007
-0.08470000000000022,-12.913484745168056
-0.08570000000000011,-12.955926084164007
-0.08670000000000022,-13.043638184755638
-0.08770000000000011,-13.087494235051453
-0.08870000000000022,-13.13135028534727
-0.08970000000000011,-13.13135028534727
-0.09070000000000022,-13.175206335643086
-0.09170000000000011,-13.175206335643086
-0.09270000000000023,-13.175206335643086
-0.09370000000000012,-13.217647674639037
-0.09470000000000023,-13.261503724934855
-0.09570000000000012,-13.30535977523067
-0.09670000000000023,-13.3930718758223
-0.09770000000000012,-13.3930718758223
-0.09870000000000023,-13.3930718758223
-0.09970000000000012,-13.3930718758223
-0.10070000000000023,-13.3930718758223
-0.10170000000000012,-13.3930718758223
-0.10270000000000024,-13.436927926118118
-0.10370000000000013,-13.436927926118118
-0.10470000000000024,-13.523225315409885
-0.10570000000000013,-13.567081365705702
-0.10670000000000024,-13.567081365705702
-0.10770000000000013,-13.610937416001518
-0.10870000000000024,-13.654793466297335
-0.10970000000000013,-13.654793466297335
-0.11070000000000024,-13.741090855589102
-0.11170000000000013,-13.741090855589102
-0.11270000000000002,-13.784946905884919
-0.11370000000000013,-13.784946905884919
-0.11470000000000002,-13.741090855589102
-0.11570000000000014,-13.784946905884919
-0.11670000000000003,-13.784946905884919
-0.11770000000000014,-13.784946905884919
-0.11870000000000003,-13.828802956180734
-0.11970000000000014,-13.872659006476551
-0.12070000000000003,-13.960371107068182
-0.12170000000000014,-14.002812446064135
-0.12270000000000003,-14.002812446064135
-0.12370000000000014,-14.002812446064135
-0.12470000000000003,-14.002812446064135
-0.12570000000000014,-14.002812446064135
-0.12670000000000003,-14.002812446064135
-0.12770000000000015,-14.002812446064135
-0.12870000000000004,-14.090524546655764
-0.12970000000000015,-14.13438059695158
-0.13070000000000004,-14.175407224647667
-0.13170000000000015,-14.175407224647667
-0.13270000000000004,-14.175407224647667
-0.13370000000000015,-14.175407224647667
-0.13470000000000004,-14.175407224647667
-0.13570000000000015,-14.217848563643619
-0.13670000000000004,-14.26028990263957
-0.13770000000000016,-14.30273124163552
-0.13870000000000005,-14.345172580631472
-0.13970000000000016,-14.401761032626075
-0.14070000000000005,-14.345172580631472
-0.14170000000000016,-14.401761032626075
-0.14270000000000005,-14.401761032626075
-0.14370000000000016,-14.444202371622024
-0.14470000000000005,-14.486643710617974
-0.14570000000000016,-14.529085049613924
-0.14670000000000005,-14.61396772760583
-0.14770000000000016,-14.65640906660178
-0.14870000000000005,-14.61396772760583
-0.14970000000000017,-14.61396772760583
-0.15070000000000006,-14.61396772760583
-0.15170000000000017,-14.61396772760583
-0.15270000000000006,-14.65640906660178
-0.15370000000000017,-14.69885040559773
-0.15470000000000006,-14.783733083589633
-0.15570000000000017,-14.868615761581536
-0.15670000000000006,-14.925204213576137
-0.15770000000000017,-14.967645552572087
-0.15870000000000006,-14.967645552572087
-0.15970000000000018,-15.01008689156804
-0.16070000000000007,-15.05252823056399
-0.16170000000000018,-15.094969569559943
-0.16270000000000007,-15.137410908555893
-0.16370000000000018,-15.179852247551842
-0.16470000000000007,-15.222293586547794
-0.16570000000000018,-15.179852247551842
-0.16670000000000007,-15.179852247551842
-0.16770000000000018,-15.222293586547794
-0.16870000000000007,-15.307176264539699
-0.16970000000000018,-15.349617603535648
-0.17070000000000007,-15.491088733522153
-0.17170000000000019,-15.533530072518102
-0.17270000000000008,-15.575971411514052
-0.1737000000000002,-15.618412750510005
-0.17470000000000008,-15.660854089505953
-0.1757000000000002,-15.660854089505953
-0.17670000000000008,-15.70329542850191
-0.1777000000000002,-15.78817810649381
-0.17870000000000008,-15.830619445489761
-0.1797000000000002,-15.91550212348166
-0.18070000000000008,-15.91550212348166
-0.1817000000000002,-15.91550212348166
-0.18270000000000008,-15.91550212348166
-0.1837000000000002,-15.91550212348166
-0.1847000000000001,-15.972090575476265
-0.1857000000000002,-16.099414592464115
-0.1867000000000001,-16.184297270456018
-0.1877000000000002,-16.354062626439823
-0.1887000000000001,-16.438945304431726
-0.1897000000000002,-16.53797509542228
-0.1907000000000001,-16.580416434418233
-0.1917000000000001,-16.580416434418233
-0.19269999999999998,-16.580416434418233
-0.1937000000000001,-16.665299112410132
-0.19469999999999998,-16.70774045140608
-0.1957000000000001,-16.792623129397985
-0.19669999999999999,-16.877505807389888
-0.1977000000000001,-16.919947146385837
-0.1987,-16.962388485381787
-0.1997000000000001,-17.018976937376394
-0.2007,-17.061418276372343
-0.2017000000000001,-17.103859615368293
-0.2027,-17.188742293360193
-0.2037000000000001,-17.2736249713521
-0.2047,-17.358507649344002
-0.2057000000000001,-17.4433903273359
-0.2067,-17.48583166633185
-0.2077000000000001,-17.542420118326454
-0.2087,-17.584861457322408
-0.2097000000000001,-17.627302796318357
-0.2107,-17.71218547431026
-0.2117000000000001,-17.797068152302163
-0.2127,-17.924392169290012
-0.2137000000000001,-18.009274847281915
-0.2147,-18.06586329927652
-0.2157000000000001,-18.15074597726842
-0.2167,-18.19318731626437
-0.21770000000000012,-18.23562865526032
-0.2187,-18.320511333252224
-0.21970000000000012,-18.44783535024008
-0.2207,-18.53271802823198
-0.22170000000000012,-18.674189158218486
-0.2227,-18.759071836210385
-0.22370000000000012,-18.80151317520634
-0.2247,-18.88639585319824
-0.22570000000000012,-18.92883719219419
-0.2267,-19.01371987018609
-0.22770000000000012,-19.155191000172596
-0.22870000000000001,-19.2400736781645
-0.22970000000000013,-19.409839034148305
-0.23070000000000002,-19.49472171214021
-0.23170000000000013,-19.579604390132108
-0.23270000000000002,-19.636192842126707
-0.23370000000000013,-19.721075520118614
-0.23470000000000002,-19.805958198110513
-0.23570000000000013,-19.890840876102416
-0.23670000000000002,-20.01816489309027
-0.2376999999999999,-20.202077362072725
-0.23870000000000002,-20.329401379060574
-0.2396999999999999,-20.414284057052477
-0.24070000000000003,-20.499166735044383
-0.24169999999999991,-20.584049413036283
-0.24270000000000003,-20.683079204026836
-0.24369999999999992,-20.810403221014692
-0.24470000000000003,-20.93772723800254
-0.24569999999999992,-21.149933932982297
-0.24670000000000003,-21.291405062968803
-0.24769999999999992,-21.418729079956652
-0.24870000000000003,-21.54605309694451
-0.24969999999999992,-21.63093577493641
-0.25070000000000003,-21.772406904922917
-0.2516999999999999,-21.899730921910766
-0.25270000000000004,-22.069496277894572
-0.2536999999999999,-22.253408746877028
-0.25470000000000004,-22.46561544185678
-0.2556999999999999,-22.63538079784059
-0.25670000000000004,-22.776851927827092
-0.25769999999999993,-22.861734605818995
-0.25870000000000004,-22.989058622806844
-0.25969999999999993,-23.15882397879065
-0.26070000000000004,-23.342736447773106
-0.26169999999999993,-23.55494314275286
-0.26270000000000004,-23.767149837732617
-0.26369999999999993,-23.951062306715073
-0.26470000000000005,-24.120827662698876
-0.26569999999999994,-24.24815167968673
-0.26670000000000005,-24.432064148669184
-0.26769999999999994,-24.64427084364894
-0.26870000000000005,-24.814036199632742
-0.26969999999999994,-25.0828313466071
-0.27070000000000005,-25.337479380582806
-0.27169999999999994,-25.478950510569312
-0.27270000000000005,-25.73359854454502
-0.27369999999999994,-25.86092256153287
-0.27470000000000006,-26.087276369511276
-0.27569999999999995,-26.257041725495082
-0.27670000000000006,-26.483395533473487
-0.27769999999999995,-26.738043567449193
-0.27870000000000006,-27.00683871442355
-0.27969999999999995,-27.303928087395207
-0.28070000000000006,-27.530281895373616
-0.28169999999999995,-27.78492992934932
-0.28270000000000006,-28.011283737327723
-0.28369999999999995,-28.22349043230748
-0.28470000000000006,-28.435697127287238
-0.28569999999999995,-28.704492274261593
-0.28670000000000007,-28.959140308237306
-0.28769999999999996,-29.27037679420761
-0.28870000000000007,-29.525024828183312
-0.28969999999999996,-29.793819975157668
-0.29070000000000007,-30.00602667013743
-0.29169999999999996,-30.274821817111786
-0.29270000000000007,-30.571911190083444
-0.29369999999999996,-30.88314767605375
-0.2947000000000001,-31.23682550102001
-0.29569999999999996,-31.57635621298762
-0.2967000000000001,-31.972475376949827
-0.29769999999999996,-32.283711862920136
-0.2987000000000001,-32.53835989689585
-0.29969999999999997,-32.807155043870196
-0.3007000000000001,-33.06180307784591
-0.30169999999999997,-33.330598224820264
-0.3027000000000001,-33.670128936787876
-0.30369999999999997,-34.02380676175414
-0.3047000000000001,-34.50480860370825
-0.30569999999999997,-34.98581044566235
-0.3067000000000001,-35.42437094862052
-0.3077,-35.848784338580025
-0.3087000000000001,-36.20246216354629
-0.3097,-36.5985813275085
-0.3107000000000001,-36.99470049147071
-0.3117,-37.334231203438314
-0.3127000000000001,-37.77279170639648
-0.3137,-38.211352209354644
-0.3147000000000001,-38.6499127123128
-0.3157,-39.08847321527096
-0.3167000000000001,-39.56947505722508
-0.3177,-40.03632978618054
-0.3187000000000001,-40.616361419125205
-0.3197,-41.083216148080666
-0.3207000000000001,-41.606659329030734
-0.3217,-42.130102509980794
-0.3227000000000001,-42.568663012938956
-0.3237,-43.007223515897124
-0.3247000000000001,-43.40334267985933
-0.3257,-43.88434452181344
-0.3267000000000001,-44.4077877027635
-0.3277,-44.97367222270952
-0.3287000000000001,-45.53955674265553
-0.3297,-46.10544126260155
-0.3307000000000001,-46.586443104555656
-0.3317,-47.02500360751382
-0.3327000000000001,-47.506005449467935
-0.3337,-47.93041883942744
-0.3347000000000001,-48.51045047237211
-0.3357,-49.16121767031002
-0.3367000000000001,-49.89686754623985
-0.3377,-50.60422319617236
-0.3387000000000001,-51.25499039411028
-0.3397,-51.86331625305225
-0.3407000000000001,-52.386759434002315
-0.3417,-52.95264395394832
-0.3427000000000001,-53.56096981289029
-0.3437,-54.2117370108282
-0.3447000000000001,-55.003975338752625
-0.3457,-55.73962521468245
-0.3467000000000001,-56.489422203610914
-0.3477,-57.182630740544774
-0.3487000000000001,-57.79095659948675
-0.3497,-58.39928245842871
-0.3507000000000001,-59.06419676936528
-0.3517,-59.757405306299155
-0.3527000000000001,-60.59208497321952
-0.3537,-61.412617527141244
-0.3547000000000001,-62.20485585506566
-0.3557,-63.02538840898739
-0.35670000000000013,-63.77518539791585
-0.3577,-64.51083527384567
-0.35870000000000013,-65.3030736017701
-0.3597,-66.08116481669586
-0.36070000000000013,-66.87340314462028
-0.3617,-67.65149435954605
-0.3626999999999999,-68.44373268747047
-0.3637,-69.22182390239624
-0.3646999999999999,-69.95747377832606
-0.3657,-70.74971210625048
-0.3666999999999999,-71.58439177317086
-0.3677,-72.48980700508447
-0.3686999999999999,-73.45181068899271
-0.36970000000000003,-74.41381437290093
-0.3706999999999999,-75.37581805680915
-0.37170000000000003,-76.29538040172143
-0.3726999999999999,-77.1583542946391
-0.37370000000000003,-77.99303396155948
-0.3746999999999999,-78.85600785447714
-0.37570000000000003,-79.73312886039348
-0.3766999999999999,-80.65269120530574
-0.37770000000000004,-81.61469488921396
-0.3786999999999999,-82.56255146012353
-0.37970000000000004,-83.60943782202366
-0.3806999999999999,-84.57144150593189
-0.38170000000000004,-85.53344518984011
-0.38269999999999993,-86.5378902127443
-0.38370000000000004,-87.49989389665252
-0.38469999999999993,-88.5892215975486
-0.38570000000000004,-89.67854929844468
-0.38669999999999993,-89.11266477849867
-0.38570000000000004,-86.36812485676049
-0.38469999999999993,-84.31679347195619
-0.38370000000000004,-82.61913991211814
-0.38269999999999993,-81.09125170826391
-0.38170000000000004,-79.64824618240156
-0.3806999999999999,-78.33256467352709
-0.37970000000000004,-77.1583542946391
-0.3786999999999999,-76.02658525474708
-0.37770000000000004,-74.93725755385098
-0.3766999999999999,-73.8479298529549
-0.37570000000000003,-72.80104349105478
-0.3746999999999999,-71.7117157901587
-0.37370000000000003,-70.66482942825859
-0.3726999999999999,-69.57550172736251
-0.37170000000000003,-68.52861536546239
-0.3706999999999999,-67.48172900356225
-0.36970000000000003,-66.47728398065809
-0.3686999999999999,-65.4728389577539
-0.3677,-64.51083527384567
-0.3666999999999999,-63.5063902509415
-0.3657,-62.544386567033264
-0.3646999999999999,-61.5965299961237
-0.3637,-60.63452631221547
-0.3626999999999999,-59.757405306299155
-0.3617,-58.79540162239092
-0.36070000000000013,-57.93242772947325
-0.3597,-57.05530672355693
-0.35870000000000013,-56.093303039648696
-0.3577,-55.17374069473642
-0.35670000000000013,-54.2117370108282
-0.3557,-53.30632177891458
-0.3547000000000001,-52.42920077299826
-0.3537,-51.594521106077885
-0.3527000000000001,-50.81642989115212
-0.3517,-49.98175022423175
-0.3507000000000001,-49.16121767031002
-0.3497,-48.36897934238561
-0.3487000000000001,-47.506005449467935
-0.3477,-46.628884443551605
-0.3467000000000001,-45.79420477663124
-0.3457,-44.93123088371356
-0.3447000000000001,-44.138992555789144
-0.3437,-43.36090134086337
-0.3427000000000001,-42.6111043519349
-0.3417,-41.83301313700913
-0.3407000000000001,-41.04077480908471
-0.3397,-40.30512493315489
-0.3387000000000001,-39.56947505722508
-0.3377,-38.86211940729255
-0.3367000000000001,-38.211352209354644
-0.3357,-37.56058501141672
-0.3347000000000001,-36.81078802248826
-0.3337,-36.11757948555439
-0.3327000000000001,-35.38192960962457
-0.3317,-34.632132620696105
-0.3307000000000001,-33.89648274476628
-0.3297,-33.231568433829715
-0.3287000000000001,-32.58080123589179
-0.3277,-31.930034037953877
-0.3267000000000001,-31.321708179011907
-0.3257,-30.71338232006995
-0.3247000000000001,-30.04846800913338
-0.3237,-29.35525947219951
-0.3227000000000001,-28.746933613257543
-0.3217,-28.09616641531963
-0.3207000000000001,-27.530281895373616
-0.3197,-26.86536758443705
-0.3187000000000001,-26.257041725495082
-0.3177,-25.648715866553115
-0.3167000000000001,-25.04039000761115
-0.3157,-24.432064148669184
-0.3147000000000001,-23.823738289727217
-0.3137,-23.2012653177866
-0.3127000000000001,-22.67782213683654
-0.3117,-22.196820294882425
-0.3107000000000001,-21.67337711393236
-0.3097,-21.149933932982297
-0.3087000000000001,-20.626490752032236
-0.3077,-20.06060623208622
-0.3067000000000001,-19.452280373144255
-0.30569999999999997,-18.92883719219419
-0.3047000000000001,-18.40539401124413
-0.30369999999999997,-17.924392169290012
-0.3027000000000001,-17.48583166633185
-0.30169999999999997,-17.018976937376394
-0.3007000000000001,-16.53797509542228
-0.29969999999999997,-16.014531914472215
-0.2987000000000001,-15.533530072518102
-0.29769999999999996,-15.01008689156804
-0.2967000000000001,-14.57152638860988
-0.29569999999999996,-14.175407224647667
-0.2947000000000001,-13.784946905884919
-0.29369999999999996,-13.349215825526485
-0.29270000000000007,-12.913484745168056
-0.29169999999999996,-12.476338953509758
-0.29070000000000007,-11.996751822855511
-0.28969999999999996,-11.56102074249708
-0.28870000000000007,-11.081433611842833
-0.28769999999999996,-10.731999920776168
-0.28670000000000007,-10.340124890713554
-0.28569999999999995,-9.99069119964689
-0.28470000000000006,-9.59740145828441
-0.28369999999999995,-9.205526428221793
-0.28270000000000006,-8.812236686859313
-0.28169999999999995,-8.332649556205066
-0.28070000000000006,-7.984630576438266
-0.27969999999999995,-7.679052935667419
-0.27870000000000006,-7.329619244600755
-0.27769999999999995,-7.024041603829907
-0.27670000000000006,-6.6760226240631075
-0.27569999999999995,-6.326588932996443
-0.27470000000000006,-5.977155241929781
-0.27369999999999994,-5.585280211867165
-0.27270000000000005,-5.279702571096316
-0.27169999999999994,-4.974124930325469
-0.27070000000000005,-4.668547289554621
-0.26969999999999994,-4.406825699079589
-0.26870000000000005,-4.102662769608606
-0.26769999999999994,-3.840941179133574
