Potential V vs RHE, Current mA cm-2
0.05339999999999995,-0.039456298153235876
0.05239999999999995,-0.04085686234010226
0.051399999999999946,-0.041578365103033435
0.050399999999999945,-0.04211595539698214
0.049399999999999944,-0.04261110435193491
0.04839999999999994,-0.04304966485489307
0.04739999999999994,-0.04348822535785123
0.04639999999999994,-0.04389849163481209
0.04539999999999994,-0.0443229050247716
0.04439999999999994,-0.044733171301732454
0.04339999999999994,-0.045115143352696015
0.04239999999999994,-0.045511262516658234
0.04139999999999994,-0.045893234567621795
0.040399999999999936,-0.04628935373158401
0.039399999999999935,-0.046713767121543515
0.038399999999999934,-0.04710988628550572
0.03739999999999993,-0.04749185833646928
0.03639999999999993,-0.04788797750043149
0.03539999999999993,-0.048269949551395054
0.03439999999999993,-0.04866606871535726
0.03339999999999993,-0.04903389365332217
0.03239999999999993,-0.04944415993028303
0.03139999999999993,-0.049811984868247935
0.030399999999999927,-0.0501939569192115
0.029399999999999926,-0.050590076083173716
0.028399999999999925,-0.05100034236013457
0.027399999999999924,-0.051396461524096784
0.026399999999999924,-0.05180672780105764
0.025399999999999923,-0.05218869985202121
0.024399999999999922,-0.05259896612898206
0.02339999999999992,-0.05299508529294428
0.02239999999999992,-0.053405351569905134
0.02139999999999992,-0.05380147073386734
0.020399999999999918,-0.05422588412382686
0.019399999999999917,-0.05465029751378637
0.018399999999999916,-0.05506056379074723
0.017399999999999916,-0.05545668295470944
0.016399999999999915,-0.05585280211867165
0.015399999999999914,-0.05626306839563251
0.014399999999999913,-0.056673334672593376
0.013399999999999912,-0.05709774806255288
0.012399999999999911,-0.057522161452512384
0.01139999999999991,-0.0579182806164746
0.01039999999999991,-0.05835684111943277
0.009399999999999908,-0.05878125450939227
0.008399999999999908,-0.05917737367335448
0.007399999999999907,-0.059601787063313996
0.006399999999999906,-0.0599979062272762
0.005399999999999905,-0.06043646673023437
0.004399999999999904,-0.06088917434619118
0.003399999999999903,-0.06129944062315204
0.002399999999999902,-0.06176629535210751
0.0013999999999999013,-0.06220485585506567
0.00039999999999990044,-0.06262926924502517
-0.0006000000000001005,-0.06306782974798335
-0.0016000000000001013,-0.06352053736394014
-0.0026000000000001022,-0.06397324497989695
-0.003600000000000103,-0.06442595259585376
-0.004600000000000104,-0.06485036598581327
-0.005600000000000105,-0.0653313678277674
-0.006600000000000106,-0.0657557812177269
-0.007600000000000107,-0.06622263594668236
-0.008600000000000108,-0.06668949067563783
-0.009600000000000108,-0.06711390406559734
-0.01060000000000011,-0.0675807587945528
-0.01160000000000011,-0.06804761352350826
-0.012600000000000111,-0.06852861536546237
-0.013600000000000112,-0.06896717586842054
-0.014600000000000113,-0.0694057363713787
-0.015600000000000114,-0.06988673821333281
-0.016600000000000115,-0.07033944582928962
-0.017600000000000116,-0.07080630055824509
-0.018600000000000116,-0.07130144951319785
-0.019600000000000117,-0.07175415712915466
-0.020600000000000118,-0.07222101185811013
-0.02160000000000012,-0.07265957236106828
-0.02260000000000012,-0.07315472131602105
-0.02360000000000012,-0.07360742893197786
-0.024600000000000122,-0.07408843077393197
-0.025600000000000123,-0.07458357972888473
-0.026600000000000124,-0.07503628734484155
-0.027600000000000124,-0.07553143629979431
-0.028600000000000125,-0.07596999680275247
-0.029600000000000126,-0.07643685153170793
-0.030600000000000127,-0.07691785337366204
-0.03160000000000013,-0.07738470810261751
-0.03260000000000013,-0.07787985705757026
-0.03360000000000013,-0.07833256467352707
-0.03460000000000002,-0.07881356651548119
-0.03560000000000002,-0.07930871547043396
-0.03660000000000002,-0.07976142308639078
-0.03760000000000002,-0.08025657204134354
-0.03860000000000002,-0.08072342677029899
-0.039600000000000024,-0.08119028149925445
-0.040600000000000025,-0.08168543045420722
-0.041600000000000026,-0.08215228518316267
-0.04260000000000003,-0.08263328702511678
-0.04360000000000003,-0.08310014175407225
-0.04460000000000003,-0.08352455514403176
-0.04560000000000003,-0.08397726275998857
-0.04660000000000003,-0.08442997037594539
-0.04760000000000003,-0.08489682510490085
-0.04860000000000003,-0.08536367983385632
-0.04960000000000003,-0.08581638744981313
-0.050600000000000034,-0.08631153640476588
-0.051600000000000035,-0.0867642440207227
-0.052600000000000036,-0.08721695163667952
-0.053600000000000037,-0.08765551213963767
-0.05460000000000004,-0.08807992552959719
-0.05560000000000004,-0.088532633145554
-0.05660000000000004,-0.08898534076151081
-0.05760000000000004,-0.08943804837746762
-0.05860000000000004,-0.08990490310642309
-0.05960000000000004,-0.09034346360938124
-0.06060000000000004,-0.09079617122533806
-0.061600000000000044,-0.09123473172829621
-0.06260000000000004,-0.09168743934425302
-0.06360000000000005,-0.09211185273421253
-0.06460000000000005,-0.09256456035016934
-0.06560000000000005,-0.09298897374012885
-0.06660000000000005,-0.09342753424308703
-0.06760000000000005,-0.09388024185904384
-0.06860000000000005,-0.09429050813600469
-0.06960000000000005,-0.09471492152596421
-0.07060000000000005,-0.09513933491592372
-0.07160000000000005,-0.09553545407988592
-0.07260000000000005,-0.09595986746984543
-0.07360000000000005,-0.09635598663380765
-0.07460000000000006,-0.0967662529107685
-0.07560000000000006,-0.09719066630072802
-0.07660000000000006,-0.09754434412569428
-0.07760000000000006,-0.09796875751565379
-0.07860000000000006,-0.09835072956661735
-0.07960000000000006,-0.09871855450458226
-0.08060000000000006,-0.09911467366854448
-0.08160000000000006,-0.09946835149351073
-0.08260000000000006,-0.09985032354447429
-0.08360000000000006,-0.10023229559543784
-0.08460000000000006,-0.10057182630740545
-0.08560000000000006,-0.10093965124537037
-0.08660000000000007,-0.10129332907033663
-0.08760000000000007,-0.10164700689530289
-0.08860000000000007,-0.10200068472026914
-0.08960000000000007,-0.1023260683192381
-0.09060000000000007,-0.10266559903120571
-0.09160000000000007,-0.10297683551717601
-0.09260000000000007,-0.10328807200314633
-0.09360000000000007,-0.10362760271511394
-0.09460000000000007,-0.1039246920880856
-0.09560000000000007,-0.10423592857405589
-0.09660000000000007,-0.10451887083402892
-0.09760000000000008,-0.10481596020700056
-0.09860000000000008,-0.10509890246697358
-0.09960000000000008,-0.10539599183994523
-0.10060000000000008,-0.10566478698691958
-0.10160000000000008,-0.10593358213389395
-0.10260000000000008,-0.10621652439386696
-0.10360000000000008,-0.10647117242784265
-0.10460000000000008,-0.10671167334881972
-0.10560000000000008,-0.10696632138279542
-0.10660000000000008,-0.10720682230377249
-0.10760000000000008,-0.10746147033774818
-0.10860000000000009,-0.1076878241457266
-0.10960000000000009,-0.10791417795370499
-0.11060000000000009,-0.10812638464868475
-0.11160000000000009,-0.10832444423066585
-0.11260000000000009,-0.10855079803864424
-0.11360000000000009,-0.10876300473362402
-0.11460000000000009,-0.10894691720260646
-0.11560000000000009,-0.10915912389758622
-0.11660000000000009,-0.1093430363665687
-0.1176000000000001,-0.10952694883555114
-0.1186000000000001,-0.1096825670785363
-0.1196000000000001,-0.1098240382085228
-0.1206000000000001,-0.1099938035645066
-0.1216000000000001,-0.1101352746944931
-0.1226000000000001,-0.11027674582447962
-0.1236000000000001,-0.11041821695446612
-0.1246000000000001,-0.11053139385845531
-0.1256000000000001,-0.11065871787544318
-0.1266000000000001,-0.11077189477943236
-0.1276000000000001,-0.11088507168342157
-0.1286000000000001,-0.11099824858741078
-0.1296000000000001,-0.11105483703940537
-0.1306000000000001,-0.11116801394339458
-0.1316000000000001,-0.11123874950838784
-0.1326000000000001,-0.11130948507338108
-0.1336000000000001,-0.11140851486437164
-0.1346000000000001,-0.11143680909036893
-0.1356000000000001,-0.1115075446553622
-0.1366000000000001,-0.11154998599435814
-0.1376000000000001,-0.11160657444635275
-0.1386000000000001,-0.1116490157853487
-0.1396000000000001,-0.11166316289834735
-0.1406000000000001,-0.1117056042373433
-0.14160000000000011,-0.11173389846334059
-0.14260000000000012,-0.11173389846334059
-0.14360000000000012,-0.11174804557633926
-0.14460000000000012,-0.1117621926893379
-0.14560000000000012,-0.11173389846334059
-0.14660000000000012,-0.11173389846334059
-0.14760000000000012,-0.11171975135034196
-0.14860000000000012,-0.1117056042373433
-0.14960000000000012,-0.111677310011346
-0.15060000000000012,-0.1116490157853487
-0.15160000000000012,-0.11159242733335409
-0.15260000000000012,-0.11156413310735679
-0.15360000000000013,-0.11153583888135948
-0.15460000000000013,-0.11149339754236354
-0.15560000000000013,-0.11143680909036893
-0.15660000000000013,-0.11135192641237703
-0.15760000000000013,-0.11129533796038243
-0.15860000000000013,-0.11122460239538919
-0.15960000000000002,-0.11112557260439863
-0.16060000000000002,-0.11106898415240402
-0.16160000000000002,-0.11096995436141348
-0.16260000000000002,-0.11087092457042293
-0.16360000000000002,-0.11081433611842831
-0.16460000000000002,-0.11068701210144047
-0.16560000000000002,-0.11065871787544318
-0.16660000000000003,-0.11057383519745125
-0.16760000000000003,-0.11043236406746475
-0.16860000000000003,-0.11031918716347557
-0.16960000000000003,-0.1101918631464877
-0.17060000000000003,-0.11009283335549715
-0.17160000000000003,-0.109937215112512
-0.17260000000000003,-0.10980989109552414
-0.17360000000000003,-0.10969671419153494
-0.17460000000000003,-0.10955524306154844
-0.17560000000000003,-0.10941377193156195
-0.17660000000000003,-0.10927230080157543
-0.17760000000000004,-0.10913082967158892
-0.17860000000000004,-0.10898935854160242
-0.17960000000000004,-0.10884788741161593
-0.18060000000000004,-0.10869226916863078
-0.18160000000000004,-0.10852250381264696
-0.18260000000000004,-0.1083668855696618
-0.18360000000000004,-0.10821126732667666
-0.18460000000000004,-0.10804150197069286
-0.18560000000000004,-0.1078858837277077
-0.18660000000000004,-0.10771611837172389
-0.18760000000000004,-0.10756050012873873
-0.18860000000000005,-0.10737658765975629
-0.18960000000000005,-0.10720682230377249
-0.19060000000000005,-0.10703705694778867
-0.19160000000000005,-0.10686729159180487
-0.19260000000000005,-0.10671167334881972
-0.19360000000000005,-0.10651361376683861
-0.19460000000000005,-0.10635799552385346
-0.19560000000000005,-0.10617408305487101
-0.19660000000000005,-0.1059760234728899
-0.19760000000000005,-0.10580625811690608
-0.19860000000000005,-0.10562234564792364
-0.19960000000000006,-0.10542428606594254
-0.20060000000000006,-0.10525452070995873
-0.20160000000000006,-0.10504231401497897
-0.20260000000000006,-0.10487254865899517
-0.20360000000000006,-0.10470278330301136
-0.20460000000000006,-0.10449057660803161
-0.20560000000000006,-0.10430666413904917
-0.20660000000000006,-0.1041227516700667
-0.20760000000000006,-0.1039246920880856
-0.20860000000000006,-0.10375492673210178
-0.20960000000000006,-0.10355686715012069
-0.21060000000000006,-0.10337295468113822
-0.21160000000000007,-0.10318904221215577
-0.21260000000000007,-0.10299098263017467
-0.21360000000000007,-0.10282121727419087
-0.21460000000000007,-0.10262315769220977
-0.21560000000000007,-0.10242509811022867
-0.21660000000000007,-0.10225533275424485
-0.21760000000000007,-0.10208556739826105
-0.21860000000000007,-0.10188750781627993
-0.21960000000000007,-0.10168944823429883
-0.22060000000000007,-0.10147724153931909
-0.22160000000000007,-0.10127918195733798
-0.22260000000000008,-0.10109526948835552
-0.22360000000000008,-0.10089720990637441
-0.22460000000000008,-0.10069915032439332
-0.22560000000000008,-0.10051523785541085
-0.22660000000000008,-0.10031717827342976
-0.22760000000000008,-0.1001332658044473
-0.22860000000000008,-0.09993520622246618
-0.22960000000000008,-0.09973714664048508
-0.23060000000000008,-0.09955323417150262
-0.23160000000000008,-0.09935517458952153
-0.23260000000000008,-0.09918540923353773
-0.23360000000000009,-0.09897320253855796
-0.2346000000000001,-0.09878929006957551
-0.2356000000000001,-0.09861952471359171
-0.2366000000000001,-0.0984214651316106
-0.2376000000000001,-0.09823755266262815
-0.2386000000000001,-0.0980536401936457
-0.2396000000000001,-0.09785558061166459
-0.2406000000000001,-0.09769996236867944
-0.2416000000000001,-0.09748775567369967
-0.2426000000000001,-0.09731799031771587
-0.2436000000000001,-0.09714822496173206
-0.2446000000000001,-0.09696431249274962
-0.2456000000000001,-0.0967945471367658
-0.2466000000000001,-0.096624781780782
-0.2476000000000001,-0.0964267221988009
-0.2486000000000001,-0.09627110395581574
-0.2496000000000001,-0.0960871914868333
-0.2506000000000001,-0.09590327901785084
-0.2516000000000001,-0.0957193665488684
-0.2526000000000001,-0.09554960119288458
-0.2536000000000001,-0.09539398294989941
-0.2546000000000001,-0.09519592336791832
-0.2556000000000001,-0.09505445223793182
-0.2566000000000001,-0.09488468688194801
-0.2576000000000001,-0.09471492152596421
-0.2586000000000001,-0.09455930328297905
-0.2596000000000001,-0.09438953792699524
-0.2606000000000001,-0.09421977257101144
-0.2616000000000001,-0.0940641543280263
-0.2626000000000001,-0.09389438897204248
-0.2636000000000001,-0.09373877072905733
-0.2646000000000001,-0.09356900537307353
-0.2656000000000001,-0.09339924001708971
-0.2666000000000001,-0.09324362177410456
-0.2676000000000001,-0.09311629775711672
-0.2686000000000001,-0.09296067951413156
-0.2696000000000001,-0.09279091415814776
-0.2706000000000001,-0.09264944302816126
-0.2716000000000001,-0.09246553055917879
-0.2726000000000001,-0.09236650076818824
-0.2736000000000001,-0.09219673541220444
-0.2746000000000001,-0.09204111716921928
-0.2756000000000001,-0.09189964603923279
-0.2766000000000001,-0.09172988068324898
-0.2776000000000001,-0.09160255666626112
-0.2786000000000001,-0.09144693842327598
-0.2796000000000001,-0.09130546729328948
-0.2806000000000001,-0.09120643750229893
-0.28160000000000013,-0.09105081925931376
-0.28260000000000013,-0.09090934812932726
-0.28360000000000013,-0.0907820241123394
-0.2846,-0.09062640586935425
-0.2856,-0.0904990818523664
-0.2866,-0.0903576107223799
-0.2876,-0.09023028670539203
-0.2886,-0.09011710980140283
-0.2896,-0.08997563867141634
-0.2906,-0.08984831465442847
-0.2916,-0.08970684352444197
-0.2926,-0.08957951950745412
-0.2936,-0.08946634260346491
-0.29460000000000003,-0.08933901858647707
-0.29560000000000003,-0.08921169456948921
-0.29660000000000003,-0.0890985176655
-0.29760000000000003,-0.0889570465355135
-0.29860000000000003,-0.08885801674452294
-0.29960000000000003,-0.08873069272753512
-0.30060000000000003,-0.08861751582354589
-0.30160000000000003,-0.08849019180655805
-0.30260000000000004,-0.08837701490256884
-0.30360000000000004,-0.08827798511157829
-0.30460000000000004,-0.08815066109459044
-0.30560000000000004,-0.08803748419060124
-0.30660000000000004,-0.08793845439961068
-0.30760000000000004,-0.08783942460862013
-0.30860000000000004,-0.08774039481762959
-0.30960000000000004,-0.08762721791364038
-0.31060000000000004,-0.08751404100965117
-0.31160000000000004,-0.0874150112186606
-0.31260000000000004,-0.08731598142767007
-0.31360000000000005,-0.08723109874967816
-0.31460000000000005,-0.0871037747326903
-0.31560000000000005,-0.0870188920546984
-0.31660000000000005,-0.0869057151507092
-0.31760000000000005,-0.08682083247271731
-0.31860000000000005,-0.0867076555687281
-0.31960000000000005,-0.08663692000373484
-0.32060000000000005,-0.08653789021274429
-0.32160000000000005,-0.08642471330875509
-0.32260000000000005,-0.08635397774376184
-0.32360000000000005,-0.08625494795277128
-0.32460000000000006,-0.08612762393578344
-0.32560000000000006,-0.08607103548378882
-0.32660000000000006,-0.08597200569279828
-0.32760000000000006,-0.08584468167581043
-0.32860000000000006,-0.08577394611081718
-0.32960000000000006,-0.08567491631982663
-0.33060000000000006,-0.08557588652883606
-0.33160000000000006,-0.08547685673784551
-0.33260000000000006,-0.08540612117285226
-0.33360000000000006,-0.08530709138186171
-0.33460000000000006,-0.08520806159087116
-0.33560000000000006,-0.08512317891287925
-0.33660000000000007,-0.08502414912188871
-0.33760000000000007,-0.0849392664438968
-0.33860000000000007,-0.0848826779919022
-0.33960000000000007,-0.08478364820091165
-0.34060000000000007,-0.08469876552291973
-0.34160000000000007,-0.08461388284492784
-0.34260000000000007,-0.08452900016693596
-0.34360000000000007,-0.08444411748894404
-0.3446000000000001,-0.08437338192395079
-0.3456000000000001,-0.0842884992459589
-0.3466000000000001,-0.08421776368096563
-0.34759999999999996,-0.08414702811597238
-0.3486000000000001,-0.08406214543798048
-0.34959999999999997,-0.08400555698598587
-0.3506000000000001,-0.08393482142099262
-0.35159999999999997,-0.08384993874300072
-0.3526000000000001,-0.08379335029100612
-0.35359999999999997,-0.08372261472601288
-0.3546000000000001,-0.08365187916101963
-0.35559999999999997,-0.08359529070902501
-0.3566000000000001,-0.08351040803103311
-0.3576,-0.08346796669203715
-0.3586000000000001,-0.08341137824004256
-0.3596,-0.08332649556205066
-0.3606000000000001,-0.08326990711005607
-0.3616,-0.08319917154506282
-0.3626000000000001,-0.08312843598006955
-0.3636,-0.08307184752807495
-0.3646000000000001,-0.08298696485008306
-0.3656,-0.0829445235110871
-0.3666000000000001,-0.08290208217209115
-0.3676,-0.08281719949409926
-0.3686000000000001,-0.08276061104210465
-0.3696,-0.08267572836411274
-0.3706000000000001,-0.08267572836411274
-0.3716,-0.0826049927991195
-0.3726000000000001,-0.08252011012112759
-0.3736,-0.08247766878213163
-0.3746000000000001,-0.08240693321713838
-0.3756,-0.08233619765214513
-0.3766000000000001,-0.08227960920015054
-0.3776,-0.08222302074815592
-0.3786000000000001,-0.08216643229616134
-0.3796,-0.08212399095716538
-0.3806000000000001,-0.08206740250517078
-0.3816,-0.08201081405317617
-0.3826000000000001,-0.08195422560118158
-0.3836,-0.08192593137518428
-0.3846000000000001,-0.08186934292318966
-0.3856,-0.08179860735819641
-0.3866000000000001,-0.08175616601920047
-0.3876,-0.08169957756720586
-0.3886000000000001,-0.08165713622820991
-0.3896,-0.08162884200221261
-0.3906000000000001,-0.08157225355021802
-0.3916,-0.08152981221122206
-0.3926000000000001,-0.08147322375922747
-0.3936,-0.08143078242023151
-0.3946000000000001,-0.08138834108123556
-0.3956,-0.08136004685523826
-0.3966000000000001,-0.08131760551624231
-0.3976,-0.08126101706424771
-0.3986000000000001,-0.08121857572525175
-0.3996,-0.08119028149925445
-0.4006000000000001,-0.0811478401602585
-0.4016,-0.08110539882126255
-0.4026000000000001,-0.08107710459526525
-0.4036,-0.08104881036926795
-0.4046000000000001,-0.08099222191727334
-0.4056,-0.0809780748042747
-0.40660000000000013,-0.08094978057827738
-0.4076,-0.08090733923928145
-0.40860000000000013,-0.08087904501328413
-0.4096,-0.0808648979002855
-0.41060000000000013,-0.08080830944829089
-0.4116,-0.08079416233529225
-0.41260000000000013,-0.08076586810929494
-0.4136,-0.08075172099629631
-0.41460000000000014,-0.08073757388329764
-0.4156,-0.08070927965730033
-0.41660000000000014,-0.08068098543130305
-0.4176,-0.08068098543130305
-0.41860000000000014,-0.08065269120530574
-0.41960000000000003,-0.0806102498663098
-0.42060000000000014,-0.08059610275331114
-0.42160000000000003,-0.0806102498663098
-0.42260000000000014,-0.08059610275331114
-0.42360000000000003,-0.08056780852731382
-0.42460000000000014,-0.08053951430131655
-0.42560000000000003,-0.08052536718831789
-0.42660000000000015,-0.08052536718831789
-0.42760000000000004,-0.08051122007531925
-0.42860000000000015,-0.08051122007531925
-0.42960000000000004,-0.08051122007531925
-0.43060000000000015,-0.08049707296232057
-0.43160000000000004,-0.08048292584932194
-0.43260000000000015,-0.08045463162332463
-0.43360000000000004,-0.08045463162332463
-0.43460000000000015,-0.08046877873632328
-0.43560000000000004,-0.08046877873632328
-0.43660000000000015,-0.08046877873632328
