Aug. 28, 2024   21:08:20
Cyclic Voltammetry
File: c:/users/guazh/data/20240813_batch_181_500/2024-08-25-exp209\exp209-2024-08-28t20_57_13-h2koh\exp209_cv_sr_400mvs_efin_-1500mv.bin
Data Source:  Experiment
Instrument Model:  CHI760E
Header: CV ran at 400 mVs
Note: 

Init E (V) = -1
High E (V) = -1
Low E (V) = -1.5
Final E (V) = -1
Init P/N = N
Scan Rate (V/s) = 0.4
Segment = 3
Sample Interval (V) = 0.001
Quiet Time (sec) = 2
Sensitivity (A/V) = 0.01
Comp R (ohm) = 1.3

Results:

Channel 1:
Segment 1:

Segment 2:

Segment 3:

Potential/V, Current/A

-1.000, -2.804e-4
-1.001, -2.218e-4
-1.002, -1.879e-4
-1.003, -1.602e-4
-1.004, -1.386e-4
-1.005, -1.232e-4
-1.006, -1.078e-4
-1.007, -9.542e-5
-1.008, -8.309e-5
-1.009, -7.384e-5
-1.010, -6.151e-5
-1.011, -5.534e-5
-1.012, -4.609e-5
-1.013, -3.992e-5
-1.014, -3.068e-5
-1.015, -2.451e-5
-1.016, -1.834e-5
-1.017, -9.093e-6
-1.018, -6.010e-6
-1.019, 3.239e-6
-1.020, 9.405e-6
-1.021, 1.249e-5
-1.022, 1.865e-5
-1.023, 2.482e-5
-1.024, 3.407e-5
-1.025, 4.024e-5
-1.026, 4.640e-5
-1.027, 4.949e-5
-1.028, 5.565e-5
-1.029, 6.182e-5
-1.030, 6.798e-5
-1.031, 7.723e-5
-1.032, 8.032e-5
-1.033, 8.957e-5
-1.034, 9.573e-5
-1.035, 9.882e-5
-1.036, 1.050e-4
-1.037, 1.111e-4
-1.038, 1.204e-4
-1.039, 1.266e-4
-1.040, 1.327e-4
-1.041, 1.389e-4
-1.042, 1.451e-4
-1.043, 1.512e-4
-1.044, 1.605e-4
-1.045, 1.666e-4
-1.046, 1.759e-4
-1.047, 1.821e-4
-1.048, 1.882e-4
-1.049, 1.975e-4
-1.050, 2.067e-4
-1.051, 2.129e-4
-1.052, 2.252e-4
-1.053, 2.314e-4
-1.054, 2.376e-4
-1.055, 2.468e-4
-1.056, 2.530e-4
-1.057, 2.622e-4
-1.058, 2.715e-4
-1.059, 2.776e-4
-1.060, 2.869e-4
-1.061, 2.961e-4
-1.062, 3.054e-4
-1.063, 3.146e-4
-1.064, 3.239e-4
-1.065, 3.331e-4
-1.066, 3.424e-4
-1.067, 3.516e-4
-1.068, 3.578e-4
-1.069, 3.640e-4
-1.070, 3.732e-4
-1.071, 3.794e-4
-1.072, 3.886e-4
-1.073, 3.979e-4
-1.074, 4.071e-4
-1.075, 4.133e-4
-1.076, 4.195e-4
-1.077, 4.287e-4
-1.078, 4.380e-4
-1.079, 4.503e-4
-1.080, 4.565e-4
-1.081, 4.688e-4
-1.082, 4.780e-4
-1.083, 4.904e-4
-1.084, 4.996e-4
-1.085, 5.089e-4
-1.086, 5.212e-4
-1.087, 5.335e-4
-1.088, 5.459e-4
-1.089, 5.582e-4
-1.090, 5.736e-4
-1.091, 5.829e-4
-1.092, 5.890e-4
-1.093, 5.952e-4
-1.094, 5.983e-4
-1.095, 6.044e-4
-1.096, 6.075e-4
-1.097, 6.137e-4
-1.098, 6.199e-4
-1.099, 6.260e-4
-1.100, 6.291e-4
-1.101, 6.322e-4
-1.102, 6.384e-4
-1.103, 6.445e-4
-1.104, 6.507e-4
-1.105, 6.599e-4
-1.106, 6.692e-4
-1.107, 6.754e-4
-1.108, 6.815e-4
-1.109, 6.908e-4
-1.110, 7.031e-4
-1.111, 7.124e-4
-1.112, 7.216e-4
-1.113, 7.309e-4
-1.114, 7.401e-4
-1.115, 7.494e-4
-1.116, 7.586e-4
-1.117, 7.709e-4
-1.118, 7.833e-4
-1.119, 7.956e-4
-1.120, 8.110e-4
-1.121, 8.233e-4
-1.122, 8.418e-4
-1.123, 8.603e-4
-1.124, 8.788e-4
-1.125, 9.004e-4
-1.126, 9.220e-4
-1.127, 9.467e-4
-1.128, 9.683e-4
-1.129, 9.929e-4
-1.130, 1.014e-3
-1.131, 1.039e-3
-1.132, 1.061e-3
-1.133, 1.079e-3
-1.134, 1.101e-3
-1.135, 1.119e-3
-1.136, 1.138e-3
-1.137, 1.159e-3
-1.138, 1.178e-3
-1.139, 1.196e-3
-1.140, 1.212e-3
-1.141, 1.227e-3
-1.142, 1.240e-3
-1.143, 1.255e-3
-1.144, 1.267e-3
-1.145, 1.286e-3
-1.146, 1.295e-3
-1.147, 1.307e-3
-1.148, 1.317e-3
-1.149, 1.326e-3
-1.150, 1.335e-3
-1.151, 1.344e-3
-1.152, 1.354e-3
-1.153, 1.363e-3
-1.154, 1.369e-3
-1.155, 1.378e-3
-1.156, 1.384e-3
-1.157, 1.394e-3
-1.158, 1.400e-3
-1.159, 1.406e-3
-1.160, 1.412e-3
-1.161, 1.415e-3
-1.162, 1.421e-3
-1.163, 1.428e-3
-1.164, 1.437e-3
-1.165, 1.443e-3
-1.166, 1.452e-3
-1.167, 1.455e-3
-1.168, 1.465e-3
-1.169, 1.471e-3
-1.170, 1.477e-3
-1.171, 1.486e-3
-1.172, 1.495e-3
-1.173, 1.502e-3
-1.174, 1.511e-3
-1.175, 1.520e-3
-1.176, 1.526e-3
-1.177, 1.536e-3
-1.178, 1.545e-3
-1.179, 1.557e-3
-1.180, 1.563e-3
-1.181, 1.573e-3
-1.182, 1.582e-3
-1.183, 1.591e-3
-1.184, 1.600e-3
-1.185, 1.616e-3
-1.186, 1.631e-3
-1.187, 1.643e-3
-1.188, 1.653e-3
-1.189, 1.659e-3
-1.190, 1.671e-3
-1.191, 1.684e-3
-1.192, 1.690e-3
-1.193, 1.702e-3
-1.194, 1.711e-3
-1.195, 1.724e-3
-1.196, 1.736e-3
-1.197, 1.745e-3
-1.198, 1.761e-3
-1.199, 1.773e-3
-1.200, 1.785e-3
-1.201, 1.795e-3
-1.202, 1.807e-3
-1.203, 1.819e-3
-1.204, 1.832e-3
-1.205, 1.847e-3
-1.206, 1.859e-3
-1.207, 1.872e-3
-1.208, 1.881e-3
-1.209, 1.893e-3
-1.210, 1.902e-3
-1.211, 1.918e-3
-1.212, 1.933e-3
-1.213, 1.949e-3
-1.214, 1.961e-3
-1.215, 1.973e-3
-1.216, 1.989e-3
-1.217, 2.001e-3
-1.218, 2.017e-3
-1.219, 2.029e-3
-1.220, 2.041e-3
-1.221, 2.054e-3
-1.222, 2.066e-3
-1.223, 2.078e-3
-1.224, 2.091e-3
-1.225, 2.109e-3
-1.226, 2.121e-3
-1.227, 2.137e-3
-1.228, 2.149e-3
-1.229, 2.161e-3
-1.230, 2.177e-3
-1.231, 2.189e-3
-1.232, 2.205e-3
-1.233, 2.217e-3
-1.234, 2.226e-3
-1.235, 2.238e-3
-1.236, 2.251e-3
-1.237, 2.263e-3
-1.238, 2.275e-3
-1.239, 2.291e-3
-1.240, 2.303e-3
-1.241, 2.316e-3
-1.242, 2.328e-3
-1.243, 2.343e-3
-1.244, 2.359e-3
-1.245, 2.371e-3
-1.246, 2.386e-3
-1.247, 2.396e-3
-1.248, 2.408e-3
-1.249, 2.417e-3
-1.250, 2.430e-3
-1.251, 2.442e-3
-1.252, 2.457e-3
-1.253, 2.470e-3
-1.254, 2.482e-3
-1.255, 2.494e-3
-1.256, 2.507e-3
-1.257, 2.519e-3
-1.258, 2.531e-3
-1.259, 2.544e-3
-1.260, 2.556e-3
-1.261, 2.565e-3
-1.262, 2.578e-3
-1.263, 2.587e-3
-1.264, 2.599e-3
-1.265, 2.608e-3
-1.266, 2.621e-3
-1.267, 2.630e-3
-1.268, 2.642e-3
-1.269, 2.652e-3
-1.270, 2.664e-3
-1.271, 2.679e-3
-1.272, 2.695e-3
-1.273, 2.704e-3
-1.274, 2.713e-3
-1.275, 2.723e-3
-1.276, 2.735e-3
-1.277, 2.741e-3
-1.278, 2.753e-3
-1.279, 2.766e-3
-1.280, 2.778e-3
-1.281, 2.787e-3
-1.282, 2.797e-3
-1.283, 2.806e-3
-1.284, 2.818e-3
-1.285, 2.827e-3
-1.286, 2.837e-3
-1.287, 2.849e-3
-1.288, 2.855e-3
-1.289, 2.867e-3
-1.290, 2.877e-3
-1.291, 2.886e-3
-1.292, 2.895e-3
-1.293, 2.904e-3
-1.294, 2.911e-3
-1.295, 2.920e-3
-1.296, 2.929e-3
-1.297, 2.941e-3
-1.298, 2.951e-3
-1.299, 2.963e-3
-1.300, 2.972e-3
-1.301, 2.978e-3
-1.302, 2.988e-3
-1.303, 2.997e-3
-1.304, 3.003e-3
-1.305, 3.012e-3
-1.306, 3.019e-3
-1.307, 3.028e-3
-1.308, 3.037e-3
-1.309, 3.043e-3
-1.310, 3.056e-3
-1.311, 3.065e-3
-1.312, 3.074e-3
-1.313, 3.080e-3
-1.314, 3.086e-3
-1.315, 3.096e-3
-1.316, 3.102e-3
-1.317, 3.111e-3
-1.318, 3.117e-3
-1.319, 3.126e-3
-1.320, 3.133e-3
-1.321, 3.139e-3
-1.322, 3.145e-3
-1.323, 3.154e-3
-1.324, 3.163e-3
-1.325, 3.173e-3
-1.326, 3.182e-3
-1.327, 3.191e-3
-1.328, 3.197e-3
-1.329, 3.207e-3
-1.330, 3.213e-3
-1.331, 3.222e-3
-1.332, 3.228e-3
-1.333, 3.237e-3
-1.334, 3.244e-3
-1.335, 3.253e-3
-1.336, 3.262e-3
-1.337, 3.271e-3
-1.338, 3.281e-3
-1.339, 3.290e-3
-1.340, 3.299e-3
-1.341, 3.302e-3
-1.342, 3.311e-3
-1.343, 3.321e-3
-1.344, 3.333e-3
-1.345, 3.342e-3
-1.346, 3.351e-3
-1.347, 3.358e-3
-1.348, 3.364e-3
-1.349, 3.373e-3
-1.350, 3.379e-3
-1.351, 3.392e-3
-1.352, 3.404e-3
-1.353, 3.416e-3
-1.354, 3.429e-3
-1.355, 3.438e-3
-1.356, 3.453e-3
-1.357, 3.459e-3
-1.358, 3.472e-3
-1.359, 3.481e-3
-1.360, 3.490e-3
-1.361, 3.503e-3
-1.362, 3.512e-3
-1.363, 3.527e-3
-1.364, 3.540e-3
-1.365, 3.555e-3
-1.366, 3.570e-3
-1.367, 3.580e-3
-1.368, 3.592e-3
-1.369, 3.604e-3
-1.370, 3.620e-3
-1.371, 3.635e-3
-1.372, 3.651e-3
-1.373, 3.666e-3
-1.374, 3.678e-3
-1.375, 3.691e-3
-1.376, 3.706e-3
-1.377, 3.721e-3
-1.378, 3.737e-3
-1.379, 3.755e-3
-1.380, 3.768e-3
-1.381, 3.786e-3
-1.382, 3.805e-3
-1.383, 3.823e-3
-1.384, 3.842e-3
-1.385, 3.863e-3
-1.386, 3.882e-3
-1.387, 3.897e-3
-1.388, 3.913e-3
-1.389, 3.931e-3
-1.390, 3.953e-3
-1.391, 3.974e-3
-1.392, 3.996e-3
-1.393, 4.017e-3
-1.394, 4.039e-3
-1.395, 4.061e-3
-1.396, 4.082e-3
-1.397, 4.104e-3
-1.398, 4.128e-3
-1.399, 4.153e-3
-1.400, 4.175e-3
-1.401, 4.196e-3
-1.402, 4.221e-3
-1.403, 4.246e-3
-1.404, 4.267e-3
-1.405, 4.292e-3
-1.406, 4.317e-3
-1.407, 4.338e-3
-1.408, 4.366e-3
-1.409, 4.391e-3
-1.410, 4.421e-3
-1.411, 4.452e-3
-1.412, 4.480e-3
-1.413, 4.508e-3
-1.414, 4.535e-3
-1.415, 4.563e-3
-1.416, 4.588e-3
-1.417, 4.619e-3
-1.418, 4.649e-3
-1.419, 4.677e-3
-1.420, 4.711e-3
-1.421, 4.742e-3
-1.422, 4.773e-3
-1.423, 4.807e-3
-1.424, 4.841e-3
-1.425, 4.871e-3
-1.426, 4.902e-3
-1.427, 4.936e-3
-1.428, 4.970e-3
-1.429, 5.004e-3
-1.430, 5.038e-3
-1.431, 5.072e-3
-1.432, 5.106e-3
-1.433, 5.140e-3
-1.434, 5.174e-3
-1.435, 5.208e-3
-1.436, 5.245e-3
-1.437, 5.282e-3
-1.438, 5.325e-3
-1.439, 5.365e-3
-1.440, 5.405e-3
-1.441, 5.445e-3
-1.442, 5.479e-3
-1.443, 5.516e-3
-1.444, 5.556e-3
-1.445, 5.596e-3
-1.446, 5.633e-3
-1.447, 5.676e-3
-1.448, 5.716e-3
-1.449, 5.759e-3
-1.450, 5.806e-3
-1.451, 5.849e-3
-1.452, 5.895e-3
-1.453, 5.935e-3
-1.454, 5.978e-3
-1.455, 6.021e-3
-1.456, 6.065e-3
-1.457, 6.111e-3
-1.458, 6.154e-3
-1.459, 6.200e-3
-1.460, 6.240e-3
-1.461, 6.284e-3
-1.462, 6.327e-3
-1.463, 6.376e-3
-1.464, 6.425e-3
-1.465, 6.475e-3
-1.466, 6.527e-3
-1.467, 6.576e-3
-1.468, 6.629e-3
-1.469, 6.678e-3
-1.470, 6.728e-3
-1.471, 6.777e-3
-1.472, 6.823e-3
-1.473, 6.872e-3
-1.474, 6.922e-3
-1.475, 6.974e-3
-1.476, 7.027e-3
-1.477, 7.082e-3
-1.478, 7.138e-3
-1.479, 7.193e-3
-1.480, 7.245e-3
-1.481, 7.295e-3
-1.482, 7.350e-3
-1.483, 7.403e-3
-1.484, 7.458e-3
-1.485, 7.517e-3
-1.486, 7.569e-3
-1.487, 7.622e-3
-1.488, 7.674e-3
-1.489, 7.723e-3
-1.490, 7.776e-3
-1.491, 7.834e-3
-1.492, 7.890e-3
-1.493, 7.951e-3
-1.494, 8.013e-3
-1.495, 8.075e-3
-1.496, 8.133e-3
-1.497, 8.195e-3
-1.498, 8.254e-3
-1.499, 8.309e-3
-1.500, 8.294e-3
-1.499, 8.170e-3
-1.498, 8.075e-3
-1.497, 7.988e-3
-1.496, 7.905e-3
-1.495, 7.831e-3
-1.494, 7.754e-3
-1.493, 7.680e-3
-1.492, 7.603e-3
-1.491, 7.529e-3
-1.490, 7.455e-3
-1.489, 7.384e-3
-1.488, 7.316e-3
-1.487, 7.242e-3
-1.486, 7.168e-3
-1.485, 7.094e-3
-1.484, 7.020e-3
-1.483, 6.946e-3
-1.482, 6.875e-3
-1.481, 6.808e-3
-1.480, 6.740e-3
-1.479, 6.675e-3
-1.478, 6.610e-3
-1.477, 6.546e-3
-1.476, 6.481e-3
-1.475, 6.416e-3
-1.474, 6.348e-3
-1.473, 6.277e-3
-1.472, 6.210e-3
-1.471, 6.142e-3
-1.470, 6.080e-3
-1.469, 6.018e-3
-1.468, 5.957e-3
-1.467, 5.895e-3
-1.466, 5.833e-3
-1.465, 5.772e-3
-1.464, 5.710e-3
-1.463, 5.645e-3
-1.462, 5.584e-3
-1.461, 5.525e-3
-1.460, 5.463e-3
-1.459, 5.402e-3
-1.458, 5.340e-3
-1.457, 5.278e-3
-1.456, 5.217e-3
-1.455, 5.155e-3
-1.454, 5.097e-3
-1.453, 5.038e-3
-1.452, 4.979e-3
-1.451, 4.924e-3
-1.450, 4.868e-3
-1.449, 4.816e-3
-1.448, 4.757e-3
-1.447, 4.699e-3
-1.446, 4.643e-3
-1.445, 4.585e-3
-1.444, 4.526e-3
-1.443, 4.471e-3
-1.442, 4.418e-3
-1.441, 4.366e-3
-1.440, 4.313e-3
-1.439, 4.261e-3
-1.438, 4.209e-3
-1.437, 4.156e-3
-1.436, 4.101e-3
-1.435, 4.051e-3
-1.434, 3.996e-3
-1.433, 3.947e-3
-1.432, 3.894e-3
-1.431, 3.842e-3
-1.430, 3.792e-3
-1.429, 3.740e-3
-1.428, 3.691e-3
-1.427, 3.638e-3
-1.426, 3.589e-3
-1.425, 3.540e-3
-1.424, 3.490e-3
-1.423, 3.444e-3
-1.422, 3.398e-3
-1.421, 3.355e-3
-1.420, 3.308e-3
-1.419, 3.262e-3
-1.418, 3.213e-3
-1.417, 3.167e-3
-1.416, 3.120e-3
-1.415, 3.074e-3
-1.414, 3.028e-3
-1.413, 2.985e-3
-1.412, 2.941e-3
-1.411, 2.898e-3
-1.410, 2.855e-3
-1.409, 2.815e-3
-1.408, 2.772e-3
-1.407, 2.726e-3
-1.406, 2.686e-3
-1.405, 2.645e-3
-1.404, 2.602e-3
-1.403, 2.562e-3
-1.402, 2.519e-3
-1.401, 2.482e-3
-1.400, 2.439e-3
-1.399, 2.396e-3
-1.398, 2.356e-3
-1.397, 2.319e-3
-1.396, 2.282e-3
-1.395, 2.242e-3
-1.394, 2.208e-3
-1.393, 2.171e-3
-1.392, 2.134e-3
-1.391, 2.094e-3
-1.390, 2.057e-3
-1.389, 2.023e-3
-1.388, 1.986e-3
-1.387, 1.952e-3
-1.386, 1.915e-3
-1.385, 1.881e-3
-1.384, 1.847e-3
-1.383, 1.813e-3
-1.382, 1.779e-3
-1.381, 1.748e-3
-1.380, 1.714e-3
-1.379, 1.680e-3
-1.378, 1.647e-3
-1.377, 1.613e-3
-1.376, 1.585e-3
-1.375, 1.554e-3
-1.374, 1.520e-3
-1.373, 1.489e-3
-1.372, 1.458e-3
-1.371, 1.428e-3
-1.370, 1.397e-3
-1.369, 1.369e-3
-1.368, 1.341e-3
-1.367, 1.314e-3
-1.366, 1.286e-3
-1.365, 1.258e-3
-1.364, 1.230e-3
-1.363, 1.203e-3
-1.362, 1.178e-3
-1.361, 1.147e-3
-1.360, 1.122e-3
-1.359, 1.095e-3
-1.358, 1.067e-3
-1.357, 1.045e-3
-1.356, 1.021e-3
-1.355, 9.960e-4
-1.354, 9.713e-4
-1.353, 9.467e-4
-1.352, 9.220e-4
-1.351, 8.973e-4
-1.350, 8.727e-4
-1.349, 8.511e-4
-1.348, 8.264e-4
-1.347, 8.048e-4
-1.346, 7.833e-4
-1.345, 7.586e-4
-1.344, 7.401e-4
-1.343, 7.185e-4
-1.342, 6.969e-4
-1.341, 6.784e-4
-1.340, 6.569e-4
-1.339, 6.384e-4
-1.338, 6.168e-4
-1.337, 5.983e-4
-1.336, 5.798e-4
-1.335, 5.613e-4
-1.334, 5.428e-4
-1.333, 5.274e-4
-1.332, 5.058e-4
-1.331, 4.873e-4
-1.330, 4.719e-4
-1.329, 4.565e-4
-1.328, 4.410e-4
-1.327, 4.225e-4
-1.326, 4.071e-4
-1.325, 3.917e-4
-1.324, 3.763e-4
-1.323, 3.640e-4
-1.322, 3.485e-4
-1.321, 3.362e-4
-1.320, 3.208e-4
-1.319, 3.054e-4
-1.318, 2.900e-4
-1.317, 2.807e-4
-1.316, 2.684e-4
-1.315, 2.561e-4
-1.314, 2.437e-4
-1.313, 2.314e-4
-1.312, 2.191e-4
-1.311, 2.067e-4
-1.310, 1.975e-4
-1.309, 1.882e-4
-1.308, 1.759e-4
-1.307, 1.666e-4
-1.306, 1.574e-4
-1.305, 1.481e-4
-1.304, 1.389e-4
-1.303, 1.296e-4
-1.302, 1.235e-4
-1.301, 1.142e-4
-1.300, 1.050e-4
-1.299, 9.573e-5
-1.298, 8.957e-5
-1.297, 8.032e-5
-1.296, 7.415e-5
-1.295, 6.798e-5
-1.294, 5.873e-5
-1.293, 5.257e-5
-1.292, 4.332e-5
-1.291, 3.407e-5
-1.290, 2.790e-5
-1.289, 2.174e-5
-1.288, 1.557e-5
-1.287, 9.405e-6
-1.286, 1.559e-7
-1.285, -6.010e-6
-1.284, -1.218e-5
-1.283, -1.834e-5
-1.282, -2.759e-5
-1.281, -3.376e-5
-1.280, -4.301e-5
-1.279, -5.226e-5
-1.278, -5.842e-5
-1.277, -6.459e-5
-1.276, -7.384e-5
-1.275, -8.000e-5
-1.274, -8.925e-5
-1.273, -9.850e-5
-1.272, -1.047e-4
-1.271, -1.139e-4
-1.270, -1.201e-4
-1.269, -1.263e-4
-1.268, -1.324e-4
-1.267, -1.417e-4
-1.266, -1.478e-4
-1.265, -1.540e-4
-1.264, -1.602e-4
-1.263, -1.663e-4
-1.262, -1.725e-4
-1.261, -1.756e-4
-1.260, -1.848e-4
-1.259, -1.879e-4
-1.258, -1.972e-4
-1.257, -2.002e-4
-1.256, -2.064e-4
-1.255, -2.126e-4
-1.254, -2.187e-4
-1.253, -2.249e-4
-1.252, -2.311e-4
-1.251, -2.372e-4
-1.250, -2.403e-4
-1.249, -2.465e-4
-1.248, -2.496e-4
-1.247, -2.557e-4
-1.246, -2.619e-4
-1.245, -2.650e-4
-1.244, -2.742e-4
-1.243, -2.742e-4
-1.242, -2.804e-4
-1.241, -2.866e-4
-1.240, -2.927e-4
-1.239, -2.989e-4
-1.238, -3.020e-4
-1.237, -3.082e-4
-1.236, -3.112e-4
-1.235, -3.174e-4
-1.234, -3.205e-4
-1.233, -3.297e-4
-1.232, -3.359e-4
-1.231, -3.421e-4
-1.230, -3.482e-4
-1.229, -3.575e-4
-1.228, -3.667e-4
-1.227, -3.760e-4
-1.226, -3.852e-4
-1.225, -3.945e-4
-1.224, -4.037e-4
-1.223, -4.161e-4
-1.222, -4.284e-4
-1.221, -4.407e-4
-1.220, -4.561e-4
-1.219, -4.716e-4
-1.218, -4.870e-4
-1.217, -5.024e-4
-1.216, -5.178e-4
-1.215, -5.363e-4
-1.214, -5.486e-4
-1.213, -5.641e-4
-1.212, -5.795e-4
-1.211, -5.949e-4
-1.210, -6.072e-4
-1.209, -6.195e-4
-1.208, -6.319e-4
-1.207, -6.442e-4
-1.206, -6.565e-4
-1.205, -6.689e-4
-1.204, -6.812e-4
-1.203, -6.935e-4
-1.202, -7.028e-4
-1.201, -7.151e-4
-1.200, -7.244e-4
-1.199, -7.367e-4
-1.198, -7.460e-4
-1.197, -7.552e-4
-1.196, -7.675e-4
-1.195, -7.768e-4
-1.194, -7.860e-4
-1.193, -7.953e-4
-1.192, -8.076e-4
-1.191, -8.200e-4
-1.190, -8.261e-4
-1.189, -8.385e-4
-1.188, -8.446e-4
-1.187, -8.569e-4
-1.186, -8.662e-4
-1.185, -8.754e-4
-1.184, -8.847e-4
-1.183, -8.939e-4
-1.182, -9.032e-4
-1.181, -9.124e-4
-1.180, -9.217e-4
-1.179, -9.309e-4
-1.178, -9.433e-4
-1.177, -9.494e-4
-1.176, -9.618e-4
-1.175, -9.710e-4
-1.174, -9.803e-4
-1.173, -9.895e-4
-1.172, -9.988e-4
-1.171, -1.008e-3
-1.170, -1.017e-3
-1.169, -1.027e-3
-1.168, -1.036e-3
-1.167, -1.045e-3
-1.166, -1.054e-3
-1.165, -1.064e-3
-1.164, -1.076e-3
-1.163, -1.082e-3
-1.162, -1.091e-3
-1.161, -1.101e-3
-1.160, -1.113e-3
-1.159, -1.122e-3
-1.158, -1.131e-3
-1.157, -1.141e-3
-1.156, -1.147e-3
-1.155, -1.159e-3
-1.154, -1.165e-3
-1.153, -1.178e-3
-1.152, -1.187e-3
-1.151, -1.196e-3
-1.150, -1.205e-3
-1.149, -1.212e-3
-1.148, -1.221e-3
-1.147, -1.230e-3
-1.146, -1.242e-3
-1.145, -1.252e-3
-1.144, -1.261e-3
-1.143, -1.270e-3
-1.142, -1.276e-3
-1.141, -1.286e-3
-1.140, -1.295e-3
-1.139, -1.304e-3
-1.138, -1.313e-3
-1.137, -1.322e-3
-1.136, -1.332e-3
-1.135, -1.338e-3
-1.134, -1.350e-3
-1.133, -1.359e-3
-1.132, -1.369e-3
-1.131, -1.375e-3
-1.130, -1.384e-3
-1.129, -1.390e-3
-1.128, -1.400e-3
-1.127, -1.409e-3
-1.126, -1.418e-3
-1.125, -1.427e-3
-1.124, -1.433e-3
-1.123, -1.440e-3
-1.122, -1.446e-3
-1.121, -1.455e-3
-1.120, -1.464e-3
-1.119, -1.474e-3
-1.118, -1.486e-3
-1.117, -1.492e-3
-1.116, -1.504e-3
-1.115, -1.511e-3
-1.114, -1.517e-3
-1.113, -1.532e-3
-1.112, -1.541e-3
-1.111, -1.551e-3
-1.110, -1.560e-3
-1.109, -1.572e-3
-1.108, -1.585e-3
-1.107, -1.597e-3
-1.106, -1.609e-3
-1.105, -1.625e-3
-1.104, -1.637e-3
-1.103, -1.652e-3
-1.102, -1.665e-3
-1.101, -1.677e-3
-1.100, -1.696e-3
-1.099, -1.708e-3
-1.098, -1.723e-3
-1.097, -1.739e-3
-1.096, -1.751e-3
-1.095, -1.766e-3
-1.094, -1.779e-3
-1.093, -1.797e-3
-1.092, -1.813e-3
-1.091, -1.831e-3
-1.090, -1.844e-3
-1.089, -1.859e-3
-1.088, -1.871e-3
-1.087, -1.887e-3
-1.086, -1.902e-3
-1.085, -1.914e-3
-1.084, -1.930e-3
-1.083, -1.942e-3
-1.082, -1.958e-3
-1.081, -1.970e-3
-1.080, -1.985e-3
-1.079, -2.001e-3
-1.078, -2.013e-3
-1.077, -2.025e-3
-1.076, -2.041e-3
-1.075, -2.053e-3
-1.074, -2.069e-3
-1.073, -2.084e-3
-1.072, -2.099e-3
-1.071, -2.112e-3
-1.070, -2.124e-3
-1.069, -2.136e-3
-1.068, -2.152e-3
-1.067, -2.164e-3
-1.066, -2.177e-3
-1.065, -2.189e-3
-1.064, -2.204e-3
-1.063, -2.220e-3
-1.062, -2.232e-3
-1.061, -2.244e-3
-1.060, -2.260e-3
-1.059, -2.272e-3
-1.058, -2.281e-3
-1.057, -2.294e-3
-1.056, -2.309e-3
-1.055, -2.321e-3
-1.054, -2.334e-3
-1.053, -2.349e-3
-1.052, -2.365e-3
-1.051, -2.377e-3
-1.050, -2.392e-3
-1.049, -2.402e-3
-1.048, -2.411e-3
-1.047, -2.426e-3
-1.046, -2.442e-3
-1.045, -2.451e-3
-1.044, -2.466e-3
-1.043, -2.479e-3
-1.042, -2.488e-3
-1.041, -2.500e-3
-1.040, -2.509e-3
-1.039, -2.522e-3
-1.038, -2.534e-3
-1.037, -2.543e-3
-1.036, -2.556e-3
-1.035, -2.568e-3
-1.034, -2.580e-3
-1.033, -2.593e-3
-1.032, -2.602e-3
-1.031, -2.608e-3
-1.030, -2.614e-3
-1.029, -2.620e-3
-1.028, -2.627e-3
-1.027, -2.636e-3
-1.026, -2.645e-3
-1.025, -2.651e-3
-1.024, -2.657e-3
-1.023, -2.661e-3
-1.022, -2.667e-3
-1.021, -2.670e-3
-1.020, -2.679e-3
-1.019, -2.685e-3
-1.018, -2.691e-3
-1.017, -2.694e-3
-1.016, -2.698e-3
-1.015, -2.704e-3
-1.014, -2.707e-3
-1.013, -2.710e-3
-1.012, -2.713e-3
-1.011, -2.719e-3
-1.010, -2.722e-3
-1.009, -2.728e-3
-1.008, -2.735e-3
-1.007, -2.744e-3
-1.006, -2.750e-3
-1.005, -2.756e-3
-1.004, -2.759e-3
-1.003, -2.762e-3
-1.002, -2.765e-3
-1.001, -2.765e-3
