Sept. 21, 2024   12:08:26
Cyclic Voltammetry
File: c:/users/guazh/data/20240903_batch_400_500/2024-09-20-exp408\exp408-2024-09-21t11_43_53-h2koh\exp408_cv_sr_800mvs_efin_-1800mv.bin
Data Source:  Experiment
Instrument Model:  CHI760E
Header: CV ran at 800 mVs
Note: 

Init E (V) = -1
High E (V) = -1
Low E (V) = -1.8
Final E (V) = -1
Init P/N = N
Scan Rate (V/s) = 0.8
Segment = 3
Sample Interval (V) = 0.001
Quiet Time (sec) = 2
Sensitivity (A/V) = 0.01
Comp R (ohm) = 3.0

Results:

Channel 1:
Segment 1:

Segment 2:

Segment 3:

Potential/V, Current/A

-1.000, 3.239e-6
-1.001, 1.865e-5
-1.002, 2.790e-5
-1.003, 3.715e-5
-1.004, 4.332e-5
-1.005, 4.949e-5
-1.006, 5.565e-5
-1.007, 5.873e-5
-1.008, 6.182e-5
-1.009, 6.490e-5
-1.010, 6.798e-5
-1.011, 6.798e-5
-1.012, 7.107e-5
-1.013, 7.415e-5
-1.014, 7.415e-5
-1.015, 7.723e-5
-1.016, 8.032e-5
-1.017, 8.032e-5
-1.018, 8.340e-5
-1.019, 8.340e-5
-1.020, 8.340e-5
-1.021, 8.648e-5
-1.022, 8.648e-5
-1.023, 8.648e-5
-1.024, 8.648e-5
-1.025, 8.957e-5
-1.026, 8.957e-5
-1.027, 8.957e-5
-1.028, 9.265e-5
-1.029, 9.265e-5
-1.030, 9.265e-5
-1.031, 9.573e-5
-1.032, 9.573e-5
-1.033, 9.573e-5
-1.034, 9.573e-5
-1.035, 9.573e-5
-1.036, 9.882e-5
-1.037, 9.882e-5
-1.038, 9.882e-5
-1.039, 1.019e-4
-1.040, 9.882e-5
-1.041, 9.882e-5
-1.042, 9.882e-5
-1.043, 1.019e-4
-1.044, 1.019e-4
-1.045, 1.019e-4
-1.046, 1.019e-4
-1.047, 1.019e-4
-1.048, 1.050e-4
-1.049, 1.050e-4
-1.050, 1.050e-4
-1.051, 1.050e-4
-1.052, 1.050e-4
-1.053, 1.050e-4
-1.054, 1.050e-4
-1.055, 1.050e-4
-1.056, 1.050e-4
-1.057, 1.081e-4
-1.058, 1.081e-4
-1.059, 1.081e-4
-1.060, 1.081e-4
-1.061, 1.081e-4
-1.062, 1.081e-4
-1.063, 1.081e-4
-1.064, 1.081e-4
-1.065, 1.111e-4
-1.066, 1.081e-4
-1.067, 1.111e-4
-1.068, 1.111e-4
-1.069, 1.111e-4
-1.070, 1.111e-4
-1.071, 1.111e-4
-1.072, 1.111e-4
-1.073, 1.111e-4
-1.074, 1.111e-4
-1.075, 1.142e-4
-1.076, 1.142e-4
-1.077, 1.111e-4
-1.078, 1.142e-4
-1.079, 1.142e-4
-1.080, 1.142e-4
-1.081, 1.142e-4
-1.082, 1.142e-4
-1.083, 1.173e-4
-1.084, 1.142e-4
-1.085, 1.173e-4
-1.086, 1.173e-4
-1.087, 1.173e-4
-1.088, 1.173e-4
-1.089, 1.173e-4
-1.090, 1.173e-4
-1.091, 1.173e-4
-1.092, 1.204e-4
-1.093, 1.173e-4
-1.094, 1.173e-4
-1.095, 1.204e-4
-1.096, 1.173e-4
-1.097, 1.204e-4
-1.098, 1.204e-4
-1.099, 1.204e-4
-1.100, 1.204e-4
-1.101, 1.204e-4
-1.102, 1.204e-4
-1.103, 1.204e-4
-1.104, 1.204e-4
-1.105, 1.204e-4
-1.106, 1.204e-4
-1.107, 1.204e-4
-1.108, 1.204e-4
-1.109, 1.204e-4
-1.110, 1.235e-4
-1.111, 1.235e-4
-1.112, 1.235e-4
-1.113, 1.235e-4
-1.114, 1.235e-4
-1.115, 1.235e-4
-1.116, 1.235e-4
-1.117, 1.204e-4
-1.118, 1.235e-4
-1.119, 1.235e-4
-1.120, 1.235e-4
-1.121, 1.235e-4
-1.122, 1.235e-4
-1.123, 1.235e-4
-1.124, 1.235e-4
-1.125, 1.235e-4
-1.126, 1.266e-4
-1.127, 1.266e-4
-1.128, 1.266e-4
-1.129, 1.266e-4
-1.130, 1.266e-4
-1.131, 1.266e-4
-1.132, 1.266e-4
-1.133, 1.266e-4
-1.134, 1.266e-4
-1.135, 1.266e-4
-1.136, 1.266e-4
-1.137, 1.296e-4
-1.138, 1.266e-4
-1.139, 1.266e-4
-1.140, 1.266e-4
-1.141, 1.266e-4
-1.142, 1.266e-4
-1.143, 1.266e-4
-1.144, 1.266e-4
-1.145, 1.296e-4
-1.146, 1.296e-4
-1.147, 1.296e-4
-1.148, 1.296e-4
-1.149, 1.296e-4
-1.150, 1.296e-4
-1.151, 1.296e-4
-1.152, 1.296e-4
-1.153, 1.327e-4
-1.154, 1.296e-4
-1.155, 1.296e-4
-1.156, 1.296e-4
-1.157, 1.296e-4
-1.158, 1.327e-4
-1.159, 1.296e-4
-1.160, 1.296e-4
-1.161, 1.327e-4
-1.162, 1.327e-4
-1.163, 1.327e-4
-1.164, 1.327e-4
-1.165, 1.327e-4
-1.166, 1.327e-4
-1.167, 1.327e-4
-1.168, 1.327e-4
-1.169, 1.327e-4
-1.170, 1.327e-4
-1.171, 1.327e-4
-1.172, 1.327e-4
-1.173, 1.327e-4
-1.174, 1.327e-4
-1.175, 1.327e-4
-1.176, 1.327e-4
-1.177, 1.327e-4
-1.178, 1.327e-4
-1.179, 1.327e-4
-1.180, 1.327e-4
-1.181, 1.327e-4
-1.182, 1.358e-4
-1.183, 1.358e-4
-1.184, 1.358e-4
-1.185, 1.358e-4
-1.186, 1.358e-4
-1.187, 1.358e-4
-1.188, 1.358e-4
-1.189, 1.358e-4
-1.190, 1.358e-4
-1.191, 1.358e-4
-1.192, 1.358e-4
-1.193, 1.358e-4
-1.194, 1.358e-4
-1.195, 1.327e-4
-1.196, 1.358e-4
-1.197, 1.358e-4
-1.198, 1.358e-4
-1.199, 1.358e-4
-1.200, 1.358e-4
-1.201, 1.358e-4
-1.202, 1.358e-4
-1.203, 1.358e-4
-1.204, 1.389e-4
-1.205, 1.389e-4
-1.206, 1.389e-4
-1.207, 1.389e-4
-1.208, 1.358e-4
-1.209, 1.389e-4
-1.210, 1.389e-4
-1.211, 1.389e-4
-1.212, 1.389e-4
-1.213, 1.389e-4
-1.214, 1.389e-4
-1.215, 1.389e-4
-1.216, 1.389e-4
-1.217, 1.389e-4
-1.218, 1.389e-4
-1.219, 1.389e-4
-1.220, 1.389e-4
-1.221, 1.389e-4
-1.222, 1.389e-4
-1.223, 1.389e-4
-1.224, 1.389e-4
-1.225, 1.389e-4
-1.226, 1.389e-4
-1.227, 1.389e-4
-1.228, 1.389e-4
-1.229, 1.420e-4
-1.230, 1.389e-4
-1.231, 1.420e-4
-1.232, 1.389e-4
-1.233, 1.389e-4
-1.234, 1.389e-4
-1.235, 1.389e-4
-1.236, 1.389e-4
-1.237, 1.389e-4
-1.238, 1.389e-4
-1.239, 1.420e-4
-1.240, 1.389e-4
-1.241, 1.420e-4
-1.242, 1.420e-4
-1.243, 1.420e-4
-1.244, 1.420e-4
-1.245, 1.420e-4
-1.246, 1.420e-4
-1.247, 1.420e-4
-1.248, 1.420e-4
-1.249, 1.420e-4
-1.250, 1.420e-4
-1.251, 1.420e-4
-1.252, 1.420e-4
-1.253, 1.420e-4
-1.254, 1.420e-4
-1.255, 1.420e-4
-1.256, 1.420e-4
-1.257, 1.420e-4
-1.258, 1.420e-4
-1.259, 1.420e-4
-1.260, 1.451e-4
-1.261, 1.420e-4
-1.262, 1.420e-4
-1.263, 1.420e-4
-1.264, 1.420e-4
-1.265, 1.420e-4
-1.266, 1.420e-4
-1.267, 1.420e-4
-1.268, 1.420e-4
-1.269, 1.420e-4
-1.270, 1.420e-4
-1.271, 1.420e-4
-1.272, 1.451e-4
-1.273, 1.451e-4
-1.274, 1.420e-4
-1.275, 1.420e-4
-1.276, 1.420e-4
-1.277, 1.451e-4
-1.278, 1.420e-4
-1.279, 1.420e-4
-1.280, 1.420e-4
-1.281, 1.420e-4
-1.282, 1.451e-4
-1.283, 1.420e-4
-1.284, 1.420e-4
-1.285, 1.451e-4
-1.286, 1.451e-4
-1.287, 1.451e-4
-1.288, 1.420e-4
-1.289, 1.451e-4
-1.290, 1.420e-4
-1.291, 1.420e-4
-1.292, 1.420e-4
-1.293, 1.451e-4
-1.294, 1.451e-4
-1.295, 1.451e-4
-1.296, 1.451e-4
-1.297, 1.451e-4
-1.298, 1.451e-4
-1.299, 1.451e-4
-1.300, 1.451e-4
-1.301, 1.451e-4
-1.302, 1.451e-4
-1.303, 1.451e-4
-1.304, 1.451e-4
-1.305, 1.451e-4
-1.306, 1.451e-4
-1.307, 1.481e-4
-1.308, 1.481e-4
-1.309, 1.481e-4
-1.310, 1.481e-4
-1.311, 1.481e-4
-1.312, 1.481e-4
-1.313, 1.481e-4
-1.314, 1.481e-4
-1.315, 1.481e-4
-1.316, 1.481e-4
-1.317, 1.481e-4
-1.318, 1.481e-4
-1.319, 1.512e-4
-1.320, 1.512e-4
-1.321, 1.512e-4
-1.322, 1.512e-4
-1.323, 1.512e-4
-1.324, 1.512e-4
-1.325, 1.512e-4
-1.326, 1.512e-4
-1.327, 1.512e-4
-1.328, 1.512e-4
-1.329, 1.543e-4
-1.330, 1.543e-4
-1.331, 1.543e-4
-1.332, 1.543e-4
-1.333, 1.574e-4
-1.334, 1.574e-4
-1.335, 1.574e-4
-1.336, 1.574e-4
-1.337, 1.574e-4
-1.338, 1.605e-4
-1.339, 1.605e-4
-1.340, 1.605e-4
-1.341, 1.574e-4
-1.342, 1.605e-4
-1.343, 1.605e-4
-1.344, 1.605e-4
-1.345, 1.605e-4
-1.346, 1.636e-4
-1.347, 1.636e-4
-1.348, 1.636e-4
-1.349, 1.636e-4
-1.350, 1.636e-4
-1.351, 1.666e-4
-1.352, 1.666e-4
-1.353, 1.666e-4
-1.354, 1.666e-4
-1.355, 1.697e-4
-1.356, 1.697e-4
-1.357, 1.697e-4
-1.358, 1.697e-4
-1.359, 1.728e-4
-1.360, 1.697e-4
-1.361, 1.728e-4
-1.362, 1.728e-4
-1.363, 1.728e-4
-1.364, 1.759e-4
-1.365, 1.759e-4
-1.366, 1.759e-4
-1.367, 1.790e-4
-1.368, 1.790e-4
-1.369, 1.790e-4
-1.370, 1.790e-4
-1.371, 1.821e-4
-1.372, 1.821e-4
-1.373, 1.851e-4
-1.374, 1.851e-4
-1.375, 1.851e-4
-1.376, 1.851e-4
-1.377, 1.882e-4
-1.378, 1.882e-4
-1.379, 1.882e-4
-1.380, 1.913e-4
-1.381, 1.913e-4
-1.382, 1.944e-4
-1.383, 1.944e-4
-1.384, 1.944e-4
-1.385, 1.944e-4
-1.386, 1.975e-4
-1.387, 1.975e-4
-1.388, 2.006e-4
-1.389, 2.006e-4
-1.390, 2.036e-4
-1.391, 2.036e-4
-1.392, 2.036e-4
-1.393, 2.067e-4
-1.394, 2.067e-4
-1.395, 2.098e-4
-1.396, 2.098e-4
-1.397, 2.098e-4
-1.398, 2.129e-4
-1.399, 2.160e-4
-1.400, 2.160e-4
-1.401, 2.191e-4
-1.402, 2.191e-4
-1.403, 2.191e-4
-1.404, 2.221e-4
-1.405, 2.252e-4
-1.406, 2.252e-4
-1.407, 2.252e-4
-1.408, 2.283e-4
-1.409, 2.314e-4
-1.410, 2.345e-4
-1.411, 2.345e-4
-1.412, 2.376e-4
-1.413, 2.376e-4
-1.414, 2.406e-4
-1.415, 2.406e-4
-1.416, 2.437e-4
-1.417, 2.468e-4
-1.418, 2.468e-4
-1.419, 2.499e-4
-1.420, 2.530e-4
-1.421, 2.561e-4
-1.422, 2.561e-4
-1.423, 2.591e-4
-1.424, 2.591e-4
-1.425, 2.622e-4
-1.426, 2.653e-4
-1.427, 2.684e-4
-1.428, 2.684e-4
-1.429, 2.715e-4
-1.430, 2.746e-4
-1.431, 2.746e-4
-1.432, 2.746e-4
-1.433, 2.807e-4
-1.434, 2.807e-4
-1.435, 2.838e-4
-1.436, 2.838e-4
-1.437, 2.869e-4
-1.438, 2.900e-4
-1.439, 2.961e-4
-1.440, 2.961e-4
-1.441, 2.992e-4
-1.442, 3.023e-4
-1.443, 3.054e-4
-1.444, 3.085e-4
-1.445, 3.115e-4
-1.446, 3.146e-4
-1.447, 3.177e-4
-1.448, 3.177e-4
-1.449, 3.239e-4
-1.450, 3.239e-4
-1.451, 3.270e-4
-1.452, 3.270e-4
-1.453, 3.300e-4
-1.454, 3.331e-4
-1.455, 3.362e-4
-1.456, 3.393e-4
-1.457, 3.424e-4
-1.458, 3.455e-4
-1.459, 3.485e-4
-1.460, 3.547e-4
-1.461, 3.578e-4
-1.462, 3.609e-4
-1.463, 3.640e-4
-1.464, 3.670e-4
-1.465, 3.701e-4
-1.466, 3.732e-4
-1.467, 3.763e-4
-1.468, 3.794e-4
-1.469, 3.825e-4
-1.470, 3.855e-4
-1.471, 3.886e-4
-1.472, 3.948e-4
-1.473, 3.979e-4
-1.474, 4.010e-4
-1.475, 4.040e-4
-1.476, 4.071e-4
-1.477, 4.102e-4
-1.478, 4.164e-4
-1.479, 4.195e-4
-1.480, 4.225e-4
-1.481, 4.256e-4
-1.482, 4.287e-4
-1.483, 4.349e-4
-1.484, 4.380e-4
-1.485, 4.410e-4
-1.486, 4.472e-4
-1.487, 4.503e-4
-1.488, 4.534e-4
-1.489, 4.565e-4
-1.490, 4.595e-4
-1.491, 4.657e-4
-1.492, 4.688e-4
-1.493, 4.719e-4
-1.494, 4.780e-4
-1.495, 4.811e-4
-1.496, 4.842e-4
-1.497, 4.873e-4
-1.498, 4.904e-4
-1.499, 4.935e-4
-1.500, 4.996e-4
-1.501, 5.058e-4
-1.502, 5.089e-4
-1.503, 5.120e-4
-1.504, 5.150e-4
-1.505, 5.212e-4
-1.506, 5.274e-4
-1.507, 5.335e-4
-1.508, 5.397e-4
-1.509, 5.428e-4
-1.510, 5.459e-4
-1.511, 5.520e-4
-1.512, 5.551e-4
-1.513, 5.613e-4
-1.514, 5.644e-4
-1.515, 5.674e-4
-1.516, 5.736e-4
-1.517, 5.767e-4
-1.518, 5.829e-4
-1.519, 5.890e-4
-1.520, 5.921e-4
-1.521, 5.983e-4
-1.522, 6.044e-4
-1.523, 6.106e-4
-1.524, 6.137e-4
-1.525, 6.168e-4
-1.526, 6.229e-4
-1.527, 6.260e-4
-1.528, 6.322e-4
-1.529, 6.353e-4
-1.530, 6.414e-4
-1.531, 6.476e-4
-1.532, 6.538e-4
-1.533, 6.569e-4
-1.534, 6.599e-4
-1.535, 6.661e-4
-1.536, 6.723e-4
-1.537, 6.754e-4
-1.538, 6.815e-4
-1.539, 6.877e-4
-1.540, 6.939e-4
-1.541, 7.000e-4
-1.542, 7.031e-4
-1.543, 7.093e-4
-1.544, 7.154e-4
-1.545, 7.185e-4
-1.546, 7.247e-4
-1.547, 7.309e-4
-1.548, 7.370e-4
-1.549, 7.432e-4
-1.550, 7.463e-4
-1.551, 7.494e-4
-1.552, 7.586e-4
-1.553, 7.648e-4
-1.554, 7.648e-4
-1.555, 7.709e-4
-1.556, 7.771e-4
-1.557, 7.833e-4
-1.558, 7.894e-4
-1.559, 7.956e-4
-1.560, 8.048e-4
-1.561, 8.110e-4
-1.562, 8.172e-4
-1.563, 8.203e-4
-1.564, 8.264e-4
-1.565, 8.295e-4
-1.566, 8.357e-4
-1.567, 8.418e-4
-1.568, 8.511e-4
-1.569, 8.542e-4
-1.570, 8.603e-4
-1.571, 8.665e-4
-1.572, 8.727e-4
-1.573, 8.788e-4
-1.574, 8.850e-4
-1.575, 8.881e-4
-1.576, 8.943e-4
-1.577, 9.035e-4
-1.578, 9.066e-4
-1.579, 9.128e-4
-1.580, 9.189e-4
-1.581, 9.220e-4
-1.582, 9.282e-4
-1.583, 9.313e-4
-1.584, 9.374e-4
-1.585, 9.436e-4
-1.586, 9.498e-4
-1.587, 9.590e-4
-1.588, 9.652e-4
-1.589, 9.713e-4
-1.590, 9.775e-4
-1.591, 9.837e-4
-1.592, 9.868e-4
-1.593, 9.960e-4
-1.594, 1.002e-3
-1.595, 1.011e-3
-1.596, 1.018e-3
-1.597, 1.027e-3
-1.598, 1.033e-3
-1.599, 1.039e-3
-1.600, 1.045e-3
-1.601, 1.051e-3
-1.602, 1.055e-3
-1.603, 1.061e-3
-1.604, 1.070e-3
-1.605, 1.079e-3
-1.606, 1.085e-3
-1.607, 1.092e-3
-1.608, 1.098e-3
-1.609, 1.107e-3
-1.610, 1.116e-3
-1.611, 1.119e-3
-1.612, 1.129e-3
-1.613, 1.135e-3
-1.614, 1.144e-3
-1.615, 1.147e-3
-1.616, 1.153e-3
-1.617, 1.162e-3
-1.618, 1.169e-3
-1.619, 1.175e-3
-1.620, 1.184e-3
-1.621, 1.193e-3
-1.622, 1.206e-3
-1.623, 1.209e-3
-1.624, 1.215e-3
-1.625, 1.221e-3
-1.626, 1.224e-3
-1.627, 1.227e-3
-1.628, 1.236e-3
-1.629, 1.246e-3
-1.630, 1.255e-3
-1.631, 1.267e-3
-1.632, 1.277e-3
-1.633, 1.283e-3
-1.634, 1.289e-3
-1.635, 1.298e-3
-1.636, 1.307e-3
-1.637, 1.317e-3
-1.638, 1.326e-3
-1.639, 1.335e-3
-1.640, 1.344e-3
-1.641, 1.351e-3
-1.642, 1.360e-3
-1.643, 1.369e-3
-1.644, 1.381e-3
-1.645, 1.388e-3
-1.646, 1.397e-3
-1.647, 1.409e-3
-1.648, 1.415e-3
-1.649, 1.425e-3
-1.650, 1.431e-3
-1.651, 1.443e-3
-1.652, 1.452e-3
-1.653, 1.462e-3
-1.654, 1.471e-3
-1.655, 1.480e-3
-1.656, 1.489e-3
-1.657, 1.499e-3
-1.658, 1.508e-3
-1.659, 1.520e-3
-1.660, 1.532e-3
-1.661, 1.542e-3
-1.662, 1.551e-3
-1.663, 1.554e-3
-1.664, 1.560e-3
-1.665, 1.573e-3
-1.666, 1.585e-3
-1.667, 1.594e-3
-1.668, 1.603e-3
-1.669, 1.619e-3
-1.670, 1.631e-3
-1.671, 1.640e-3
-1.672, 1.653e-3
-1.673, 1.665e-3
-1.674, 1.674e-3
-1.675, 1.687e-3
-1.676, 1.696e-3
-1.677, 1.708e-3
-1.678, 1.721e-3
-1.679, 1.730e-3
-1.680, 1.742e-3
-1.681, 1.745e-3
-1.682, 1.764e-3
-1.683, 1.782e-3
-1.684, 1.791e-3
-1.685, 1.807e-3
-1.686, 1.819e-3
-1.687, 1.832e-3
-1.688, 1.844e-3
-1.689, 1.853e-3
-1.690, 1.862e-3
-1.691, 1.869e-3
-1.692, 1.884e-3
-1.693, 1.902e-3
-1.694, 1.918e-3
-1.695, 1.933e-3
-1.696, 1.949e-3
-1.697, 1.958e-3
-1.698, 1.970e-3
-1.699, 1.986e-3
-1.700, 2.001e-3
-1.701, 2.017e-3
-1.702, 2.029e-3
-1.703, 2.044e-3
-1.704, 2.063e-3
-1.705, 2.078e-3
-1.706, 2.094e-3
-1.707, 2.109e-3
-1.708, 2.131e-3
-1.709, 2.146e-3
-1.710, 2.161e-3
-1.711, 2.177e-3
-1.712, 2.189e-3
-1.713, 2.205e-3
-1.714, 2.223e-3
-1.715, 2.242e-3
-1.716, 2.254e-3
-1.717, 2.266e-3
-1.718, 2.282e-3
-1.719, 2.303e-3
-1.720, 2.319e-3
-1.721, 2.340e-3
-1.722, 2.362e-3
-1.723, 2.380e-3
-1.724, 2.402e-3
-1.725, 2.423e-3
-1.726, 2.442e-3
-1.727, 2.460e-3
-1.728, 2.479e-3
-1.729, 2.497e-3
-1.730, 2.519e-3
-1.731, 2.541e-3
-1.732, 2.556e-3
-1.733, 2.584e-3
-1.734, 2.608e-3
-1.735, 2.618e-3
-1.736, 2.642e-3
-1.737, 2.673e-3
-1.738, 2.682e-3
-1.739, 2.698e-3
-1.740, 2.729e-3
-1.741, 2.750e-3
-1.742, 2.778e-3
-1.743, 2.803e-3
-1.744, 2.834e-3
-1.745, 2.855e-3
-1.746, 2.880e-3
-1.747, 2.904e-3
-1.748, 2.929e-3
-1.749, 2.957e-3
-1.750, 2.975e-3
-1.751, 2.997e-3
-1.752, 3.031e-3
-1.753, 3.049e-3
-1.754, 3.089e-3
-1.755, 3.114e-3
-1.756, 3.145e-3
-1.757, 3.163e-3
-1.758, 3.188e-3
-1.759, 3.207e-3
-1.760, 3.241e-3
-1.761, 3.265e-3
-1.762, 3.302e-3
-1.763, 3.333e-3
-1.764, 3.367e-3
-1.765, 3.404e-3
-1.766, 3.441e-3
-1.767, 3.472e-3
-1.768, 3.509e-3
-1.769, 3.540e-3
-1.770, 3.570e-3
-1.771, 3.604e-3
-1.772, 3.641e-3
-1.773, 3.669e-3
-1.774, 3.700e-3
-1.775, 3.734e-3
-1.776, 3.771e-3
-1.777, 3.805e-3
-1.778, 3.836e-3
-1.779, 3.873e-3
-1.780, 3.910e-3
-1.781, 3.950e-3
-1.782, 3.980e-3
-1.783, 4.014e-3
-1.784, 4.058e-3
-1.785, 4.107e-3
-1.786, 4.144e-3
-1.787, 4.181e-3
-1.788, 4.227e-3
-1.789, 4.258e-3
-1.790, 4.298e-3
-1.791, 4.332e-3
-1.792, 4.375e-3
-1.793, 4.421e-3
-1.794, 4.461e-3
-1.795, 4.486e-3
-1.796, 4.538e-3
-1.797, 4.585e-3
-1.798, 4.643e-3
-1.799, 4.696e-3
-1.800, 4.739e-3
-1.799, 4.727e-3
-1.798, 4.653e-3
-1.797, 4.640e-3
-1.796, 4.631e-3
-1.795, 4.619e-3
-1.794, 4.606e-3
-1.793, 4.575e-3
-1.792, 4.501e-3
-1.791, 4.480e-3
-1.790, 4.446e-3
-1.789, 4.431e-3
-1.788, 4.412e-3
-1.787, 4.397e-3
-1.786, 4.366e-3
-1.785, 4.335e-3
-1.784, 4.317e-3
-1.783, 4.276e-3
-1.782, 4.206e-3
-1.781, 4.169e-3
-1.780, 4.141e-3
-1.779, 4.104e-3
-1.778, 4.082e-3
-1.777, 4.048e-3
-1.776, 4.036e-3
-1.775, 4.002e-3
-1.774, 3.984e-3
-1.773, 3.959e-3
-1.772, 3.931e-3
-1.771, 3.897e-3
-1.770, 3.817e-3
-1.769, 3.792e-3
-1.768, 3.752e-3
-1.767, 3.737e-3
-1.766, 3.703e-3
-1.765, 3.684e-3
-1.764, 3.654e-3
-1.763, 3.620e-3
-1.762, 3.607e-3
-1.761, 3.583e-3
-1.760, 3.555e-3
-1.759, 3.533e-3
-1.758, 3.506e-3
-1.757, 3.466e-3
-1.756, 3.447e-3
-1.755, 3.404e-3
-1.754, 3.324e-3
-1.753, 3.308e-3
-1.752, 3.296e-3
-1.751, 3.253e-3
-1.750, 3.237e-3
-1.749, 3.210e-3
-1.748, 3.188e-3
-1.747, 3.163e-3
-1.746, 3.139e-3
-1.745, 3.111e-3
-1.744, 3.102e-3
-1.743, 3.068e-3
-1.742, 3.046e-3
-1.741, 3.025e-3
-1.740, 2.982e-3
-1.739, 2.963e-3
-1.738, 2.923e-3
-1.737, 2.861e-3
-1.736, 2.840e-3
-1.735, 2.797e-3
-1.734, 2.790e-3
-1.733, 2.760e-3
-1.732, 2.747e-3
-1.731, 2.713e-3
-1.730, 2.695e-3
-1.729, 2.670e-3
-1.728, 2.658e-3
-1.727, 2.621e-3
-1.726, 2.605e-3
-1.725, 2.581e-3
-1.724, 2.562e-3
-1.723, 2.544e-3
-1.722, 2.522e-3
-1.721, 2.494e-3
-1.720, 2.476e-3
-1.719, 2.417e-3
-1.718, 2.386e-3
-1.717, 2.365e-3
-1.716, 2.319e-3
-1.715, 2.325e-3
-1.714, 2.303e-3
-1.713, 2.272e-3
-1.712, 2.260e-3
-1.711, 2.251e-3
-1.710, 2.217e-3
-1.709, 2.192e-3
-1.708, 2.192e-3
-1.707, 2.171e-3
-1.706, 2.155e-3
-1.705, 2.134e-3
-1.704, 2.112e-3
-1.703, 2.094e-3
-1.702, 2.081e-3
-1.701, 2.066e-3
-1.700, 2.041e-3
-1.699, 1.976e-3
-1.698, 1.958e-3
-1.697, 1.943e-3
-1.696, 1.924e-3
-1.695, 1.906e-3
-1.694, 1.881e-3
-1.693, 1.875e-3
-1.692, 1.853e-3
-1.691, 1.828e-3
-1.690, 1.813e-3
-1.689, 1.798e-3
-1.688, 1.779e-3
-1.687, 1.754e-3
-1.686, 1.739e-3
-1.685, 1.724e-3
-1.684, 1.711e-3
-1.683, 1.696e-3
-1.682, 1.674e-3
-1.681, 1.656e-3
-1.680, 1.643e-3
-1.679, 1.631e-3
-1.678, 1.606e-3
-1.677, 1.582e-3
-1.676, 1.548e-3
-1.675, 1.532e-3
-1.674, 1.514e-3
-1.673, 1.489e-3
-1.672, 1.477e-3
-1.671, 1.471e-3
-1.670, 1.458e-3
-1.669, 1.440e-3
-1.668, 1.431e-3
-1.667, 1.415e-3
-1.666, 1.394e-3
-1.665, 1.388e-3
-1.664, 1.378e-3
-1.663, 1.360e-3
-1.662, 1.347e-3
-1.661, 1.335e-3
-1.660, 1.320e-3
-1.659, 1.307e-3
-1.658, 1.289e-3
-1.657, 1.277e-3
-1.656, 1.264e-3
-1.655, 1.249e-3
-1.654, 1.236e-3
-1.653, 1.224e-3
-1.652, 1.209e-3
-1.651, 1.193e-3
-1.650, 1.184e-3
-1.649, 1.141e-3
-1.648, 1.125e-3
-1.647, 1.125e-3
-1.646, 1.098e-3
-1.645, 1.092e-3
-1.644, 1.085e-3
-1.643, 1.082e-3
-1.642, 1.064e-3
-1.641, 1.051e-3
-1.640, 1.033e-3
-1.639, 1.030e-3
-1.638, 1.021e-3
-1.637, 1.008e-3
-1.636, 9.960e-4
-1.635, 9.898e-4
-1.634, 9.806e-4
-1.633, 9.713e-4
-1.632, 9.559e-4
-1.631, 9.436e-4
-1.630, 9.313e-4
-1.629, 9.189e-4
-1.628, 9.097e-4
-1.627, 8.973e-4
-1.626, 8.912e-4
-1.625, 8.819e-4
-1.624, 8.727e-4
-1.623, 8.603e-4
-1.622, 8.511e-4
-1.621, 8.418e-4
-1.620, 8.295e-4
-1.619, 8.172e-4
-1.618, 8.079e-4
-1.617, 7.987e-4
-1.616, 7.894e-4
-1.615, 7.802e-4
-1.614, 7.617e-4
-1.613, 7.432e-4
-1.612, 7.432e-4
-1.611, 7.278e-4
-1.610, 7.185e-4
-1.609, 7.093e-4
-1.608, 7.031e-4
-1.607, 7.000e-4
-1.606, 6.908e-4
-1.605, 6.815e-4
-1.604, 6.692e-4
-1.603, 6.630e-4
-1.602, 6.569e-4
-1.601, 6.507e-4
-1.600, 6.445e-4
-1.599, 6.322e-4
-1.598, 6.291e-4
-1.597, 6.229e-4
-1.596, 6.199e-4
-1.595, 6.106e-4
-1.594, 6.044e-4
-1.593, 5.952e-4
-1.592, 5.890e-4
-1.591, 5.798e-4
-1.590, 5.736e-4
-1.589, 5.644e-4
-1.588, 5.551e-4
-1.587, 5.459e-4
-1.586, 5.397e-4
-1.585, 5.335e-4
-1.584, 5.305e-4
-1.583, 5.243e-4
-1.582, 5.150e-4
-1.581, 5.027e-4
-1.580, 4.935e-4
-1.579, 4.873e-4
-1.578, 4.811e-4
-1.577, 4.780e-4
-1.576, 4.750e-4
-1.575, 4.688e-4
-1.574, 4.657e-4
-1.573, 4.595e-4
-1.572, 4.534e-4
-1.571, 4.472e-4
-1.570, 4.410e-4
-1.569, 4.349e-4
-1.568, 4.287e-4
-1.567, 4.256e-4
-1.566, 4.195e-4
-1.565, 4.164e-4
-1.564, 4.102e-4
-1.563, 4.040e-4
-1.562, 3.979e-4
-1.561, 3.948e-4
-1.560, 3.886e-4
-1.559, 3.855e-4
-1.558, 3.794e-4
-1.557, 3.763e-4
-1.556, 3.701e-4
-1.555, 3.670e-4
-1.554, 3.609e-4
-1.553, 3.547e-4
-1.552, 3.516e-4
-1.551, 3.455e-4
-1.550, 3.424e-4
-1.549, 3.393e-4
-1.548, 3.331e-4
-1.547, 3.270e-4
-1.546, 3.208e-4
-1.545, 3.177e-4
-1.544, 3.146e-4
-1.543, 3.115e-4
-1.542, 3.085e-4
-1.541, 3.054e-4
-1.540, 2.992e-4
-1.539, 2.961e-4
-1.538, 2.900e-4
-1.537, 2.838e-4
-1.536, 2.807e-4
-1.535, 2.776e-4
-1.534, 2.746e-4
-1.533, 2.715e-4
-1.532, 2.684e-4
-1.531, 2.561e-4
-1.530, 2.530e-4
-1.529, 2.499e-4
-1.528, 2.468e-4
-1.527, 2.468e-4
-1.526, 2.437e-4
-1.525, 2.376e-4
-1.524, 2.406e-4
-1.523, 2.345e-4
-1.522, 2.345e-4
-1.521, 2.283e-4
-1.520, 2.221e-4
-1.519, 2.191e-4
-1.518, 2.160e-4
-1.517, 2.129e-4
-1.516, 2.098e-4
-1.515, 2.098e-4
-1.514, 2.067e-4
-1.513, 2.036e-4
-1.512, 2.006e-4
-1.511, 1.975e-4
-1.510, 1.944e-4
-1.509, 1.913e-4
-1.508, 1.882e-4
-1.507, 1.851e-4
-1.506, 1.821e-4
-1.505, 1.821e-4
-1.504, 1.759e-4
-1.503, 1.759e-4
-1.502, 1.728e-4
-1.501, 1.697e-4
-1.500, 1.666e-4
-1.499, 1.666e-4
-1.498, 1.605e-4
-1.497, 1.605e-4
-1.496, 1.543e-4
-1.495, 1.543e-4
-1.494, 1.512e-4
-1.493, 1.481e-4
-1.492, 1.451e-4
-1.491, 1.451e-4
-1.490, 1.420e-4
-1.489, 1.389e-4
-1.488, 1.389e-4
-1.487, 1.358e-4
-1.486, 1.327e-4
-1.485, 1.296e-4
-1.484, 1.266e-4
-1.483, 1.266e-4
-1.482, 1.235e-4
-1.481, 1.204e-4
-1.480, 1.173e-4
-1.479, 1.173e-4
-1.478, 1.173e-4
-1.477, 1.111e-4
-1.476, 1.111e-4
-1.475, 1.111e-4
-1.474, 1.081e-4
-1.473, 1.050e-4
-1.472, 1.019e-4
-1.471, 9.882e-5
-1.470, 9.882e-5
-1.469, 9.573e-5
-1.468, 9.265e-5
-1.467, 8.957e-5
-1.466, 8.648e-5
-1.465, 8.648e-5
-1.464, 8.648e-5
-1.463, 8.340e-5
-1.462, 8.340e-5
-1.461, 8.032e-5
-1.460, 8.032e-5
-1.459, 7.723e-5
-1.458, 7.415e-5
-1.457, 7.415e-5
-1.456, 7.107e-5
-1.455, 6.798e-5
-1.454, 6.798e-5
-1.453, 6.490e-5
-1.452, 6.490e-5
-1.451, 6.182e-5
-1.450, 6.182e-5
-1.449, 5.873e-5
-1.448, 5.873e-5
-1.447, 5.873e-5
-1.446, 5.565e-5
-1.445, 5.257e-5
-1.444, 5.257e-5
-1.443, 4.949e-5
-1.442, 4.949e-5
-1.441, 4.640e-5
-1.440, 4.640e-5
-1.439, 4.332e-5
-1.438, 4.024e-5
-1.437, 4.024e-5
-1.436, 3.715e-5
-1.435, 3.715e-5
-1.434, 3.715e-5
-1.433, 3.407e-5
-1.432, 3.099e-5
-1.431, 3.099e-5
-1.430, 3.099e-5
-1.429, 2.790e-5
-1.428, 2.482e-5
-1.427, 2.482e-5
-1.426, 2.482e-5
-1.425, 2.174e-5
-1.424, 2.174e-5
-1.423, 1.865e-5
-1.422, 1.865e-5
-1.421, 1.865e-5
-1.420, 1.557e-5
-1.419, 1.557e-5
-1.418, 1.249e-5
-1.417, 1.249e-5
-1.416, 9.405e-6
-1.415, 6.322e-6
-1.414, 6.322e-6
-1.413, 6.322e-6
-1.412, 6.322e-6
-1.411, 6.322e-6
-1.410, 1.559e-7
-1.409, 1.559e-7
-1.408, 1.559e-7
-1.407, 1.559e-7
-1.406, -2.927e-6
-1.405, -2.927e-6
-1.404, -6.010e-6
-1.403, -6.010e-6
-1.402, -9.093e-6
-1.401, -9.093e-6
-1.400, -9.093e-6
-1.399, -1.218e-5
-1.398, -1.218e-5
-1.397, -1.526e-5
-1.396, -1.526e-5
-1.395, -1.526e-5
-1.394, -1.526e-5
-1.393, -1.834e-5
-1.392, -1.834e-5
-1.391, -1.834e-5
-1.390, -2.143e-5
-1.389, -2.143e-5
-1.388, -2.143e-5
-1.387, -2.451e-5
-1.386, -2.451e-5
-1.385, -2.451e-5
-1.384, -2.759e-5
-1.383, -2.759e-5
-1.382, -2.759e-5
-1.381, -3.068e-5
-1.380, -3.068e-5
-1.379, -3.376e-5
-1.378, -3.068e-5
-1.377, -3.376e-5
-1.376, -3.376e-5
-1.375, -3.376e-5
-1.374, -3.684e-5
-1.373, -3.684e-5
-1.372, -3.684e-5
-1.371, -3.992e-5
-1.370, -3.992e-5
-1.369, -3.992e-5
-1.368, -3.992e-5
-1.367, -4.301e-5
-1.366, -4.301e-5
-1.365, -4.301e-5
-1.364, -4.301e-5
-1.363, -4.609e-5
-1.362, -4.609e-5
-1.361, -4.609e-5
-1.360, -4.609e-5
-1.359, -4.917e-5
-1.358, -4.917e-5
-1.357, -5.226e-5
-1.356, -5.226e-5
-1.355, -5.226e-5
-1.354, -5.226e-5
-1.353, -5.226e-5
-1.352, -5.226e-5
-1.351, -5.534e-5
-1.350, -5.534e-5
-1.349, -5.534e-5
-1.348, -5.534e-5
-1.347, -5.534e-5
-1.346, -5.842e-5
-1.345, -5.842e-5
-1.344, -6.151e-5
-1.343, -5.842e-5
-1.342, -6.151e-5
-1.341, -6.151e-5
-1.340, -6.151e-5
-1.339, -6.151e-5
-1.338, -6.151e-5
-1.337, -6.151e-5
-1.336, -6.459e-5
-1.335, -6.459e-5
-1.334, -6.459e-5
-1.333, -6.459e-5
-1.332, -6.767e-5
-1.331, -6.767e-5
-1.330, -6.767e-5
-1.329, -6.767e-5
-1.328, -6.767e-5
-1.327, -6.767e-5
-1.326, -6.767e-5
-1.325, -7.076e-5
-1.324, -7.076e-5
-1.323, -7.076e-5
-1.322, -7.076e-5
-1.321, -7.384e-5
-1.320, -7.384e-5
-1.319, -7.384e-5
-1.318, -7.384e-5
-1.317, -7.384e-5
-1.316, -7.384e-5
-1.315, -7.384e-5
-1.314, -7.384e-5
-1.313, -7.692e-5
-1.312, -7.692e-5
-1.311, -7.692e-5
-1.310, -7.692e-5
-1.309, -7.692e-5
-1.308, -7.692e-5
-1.307, -7.692e-5
-1.306, -8.000e-5
-1.305, -8.000e-5
-1.304, -7.692e-5
-1.303, -8.000e-5
-1.302, -8.000e-5
-1.301, -8.000e-5
-1.300, -8.000e-5
-1.299, -8.000e-5
-1.298, -8.000e-5
-1.297, -8.309e-5
-1.296, -8.000e-5
-1.295, -8.309e-5
-1.294, -8.309e-5
-1.293, -8.309e-5
-1.292, -8.309e-5
-1.291, -8.309e-5
-1.290, -8.309e-5
-1.289, -8.309e-5
-1.288, -8.309e-5
-1.287, -8.309e-5
-1.286, -8.309e-5
-1.285, -8.309e-5
-1.284, -8.617e-5
-1.283, -8.617e-5
-1.282, -8.617e-5
-1.281, -8.617e-5
-1.280, -8.925e-5
-1.279, -8.925e-5
-1.278, -8.617e-5
-1.277, -8.617e-5
-1.276, -8.925e-5
-1.275, -8.617e-5
-1.274, -8.617e-5
-1.273, -8.925e-5
-1.272, -8.925e-5
-1.271, -8.925e-5
-1.270, -8.925e-5
-1.269, -8.925e-5
-1.268, -8.925e-5
-1.267, -8.925e-5
-1.266, -9.234e-5
-1.265, -8.925e-5
-1.264, -9.234e-5
-1.263, -8.925e-5
-1.262, -9.234e-5
-1.261, -9.234e-5
-1.260, -9.234e-5
-1.259, -8.925e-5
-1.258, -8.925e-5
-1.257, -9.234e-5
-1.256, -9.234e-5
-1.255, -9.234e-5
-1.254, -9.234e-5
-1.253, -9.234e-5
-1.252, -9.234e-5
-1.251, -9.234e-5
-1.250, -9.542e-5
-1.249, -9.542e-5
-1.248, -9.234e-5
-1.247, -9.542e-5
-1.246, -9.234e-5
-1.245, -9.542e-5
-1.244, -9.542e-5
-1.243, -9.542e-5
-1.242, -9.542e-5
-1.241, -9.542e-5
-1.240, -9.542e-5
-1.239, -9.542e-5
-1.238, -9.542e-5
-1.237, -9.542e-5
-1.236, -9.542e-5
-1.235, -9.850e-5
-1.234, -9.542e-5
-1.233, -9.850e-5
-1.232, -9.542e-5
-1.231, -9.542e-5
-1.230, -9.542e-5
-1.229, -9.542e-5
-1.228, -9.542e-5
-1.227, -9.850e-5
-1.226, -9.850e-5
-1.225, -9.850e-5
-1.224, -9.850e-5
-1.223, -9.850e-5
-1.222, -9.850e-5
-1.221, -9.850e-5
-1.220, -9.850e-5
-1.219, -9.850e-5
-1.218, -9.850e-5
-1.217, -9.850e-5
-1.216, -9.850e-5
-1.215, -1.016e-4
-1.214, -1.016e-4
-1.213, -9.850e-5
-1.212, -1.016e-4
-1.211, -9.850e-5
-1.210, -1.016e-4
-1.209, -1.016e-4
-1.208, -1.016e-4
-1.207, -1.016e-4
-1.206, -1.016e-4
-1.205, -1.016e-4
-1.204, -1.047e-4
-1.203, -1.016e-4
-1.202, -1.047e-4
-1.201, -1.016e-4
-1.200, -1.047e-4
-1.199, -1.016e-4
-1.198, -1.047e-4
-1.197, -1.047e-4
-1.196, -1.047e-4
-1.195, -1.047e-4
-1.194, -1.016e-4
-1.193, -1.047e-4
-1.192, -1.047e-4
-1.191, -1.047e-4
-1.190, -1.047e-4
-1.189, -1.047e-4
-1.188, -1.047e-4
-1.187, -1.047e-4
-1.186, -1.047e-4
-1.185, -1.047e-4
-1.184, -1.047e-4
-1.183, -1.078e-4
-1.182, -1.078e-4
-1.181, -1.047e-4
-1.180, -1.078e-4
-1.179, -1.078e-4
-1.178, -1.078e-4
-1.177, -1.078e-4
-1.176, -1.078e-4
-1.175, -1.078e-4
-1.174, -1.108e-4
-1.173, -1.078e-4
-1.172, -1.078e-4
-1.171, -1.078e-4
-1.170, -1.078e-4
-1.169, -1.108e-4
-1.168, -1.078e-4
-1.167, -1.108e-4
-1.166, -1.108e-4
-1.165, -1.108e-4
-1.164, -1.108e-4
-1.163, -1.108e-4
-1.162, -1.108e-4
-1.161, -1.108e-4
-1.160, -1.108e-4
-1.159, -1.108e-4
-1.158, -1.139e-4
-1.157, -1.139e-4
-1.156, -1.139e-4
-1.155, -1.139e-4
-1.154, -1.139e-4
-1.153, -1.139e-4
-1.152, -1.139e-4
-1.151, -1.139e-4
-1.150, -1.139e-4
-1.149, -1.139e-4
-1.148, -1.139e-4
-1.147, -1.139e-4
-1.146, -1.170e-4
-1.145, -1.170e-4
-1.144, -1.170e-4
-1.143, -1.170e-4
-1.142, -1.201e-4
-1.141, -1.170e-4
-1.140, -1.170e-4
-1.139, -1.170e-4
-1.138, -1.201e-4
-1.137, -1.201e-4
-1.136, -1.201e-4
-1.135, -1.201e-4
-1.134, -1.201e-4
-1.133, -1.201e-4
-1.132, -1.232e-4
-1.131, -1.232e-4
-1.130, -1.232e-4
-1.129, -1.232e-4
-1.128, -1.232e-4
-1.127, -1.201e-4
-1.126, -1.232e-4
-1.125, -1.232e-4
-1.124, -1.232e-4
-1.123, -1.232e-4
-1.122, -1.263e-4
-1.121, -1.232e-4
-1.120, -1.263e-4
-1.119, -1.263e-4
-1.118, -1.263e-4
-1.117, -1.263e-4
-1.116, -1.263e-4
-1.115, -1.263e-4
-1.114, -1.263e-4
-1.113, -1.293e-4
-1.112, -1.293e-4
-1.111, -1.293e-4
-1.110, -1.293e-4
-1.109, -1.293e-4
-1.108, -1.324e-4
-1.107, -1.293e-4
-1.106, -1.324e-4
-1.105, -1.324e-4
-1.104, -1.324e-4
-1.103, -1.324e-4
-1.102, -1.355e-4
-1.101, -1.324e-4
-1.100, -1.324e-4
-1.099, -1.355e-4
-1.098, -1.355e-4
-1.097, -1.355e-4
-1.096, -1.355e-4
-1.095, -1.355e-4
-1.094, -1.355e-4
-1.093, -1.355e-4
-1.092, -1.386e-4
-1.091, -1.386e-4
-1.090, -1.386e-4
-1.089, -1.386e-4
-1.088, -1.386e-4
-1.087, -1.417e-4
-1.086, -1.417e-4
-1.085, -1.417e-4
-1.084, -1.417e-4
-1.083, -1.448e-4
-1.082, -1.448e-4
-1.081, -1.448e-4
-1.080, -1.448e-4
-1.079, -1.448e-4
-1.078, -1.448e-4
-1.077, -1.478e-4
-1.076, -1.448e-4
-1.075, -1.478e-4
-1.074, -1.478e-4
-1.073, -1.509e-4
-1.072, -1.478e-4
-1.071, -1.540e-4
-1.070, -1.509e-4
-1.069, -1.540e-4
-1.068, -1.540e-4
-1.067, -1.540e-4
-1.066, -1.571e-4
-1.065, -1.571e-4
-1.064, -1.571e-4
-1.063, -1.571e-4
-1.062, -1.571e-4
-1.061, -1.602e-4
-1.060, -1.571e-4
-1.059, -1.602e-4
-1.058, -1.602e-4
-1.057, -1.632e-4
-1.056, -1.632e-4
-1.055, -1.632e-4
-1.054, -1.632e-4
-1.053, -1.663e-4
-1.052, -1.663e-4
-1.051, -1.663e-4
-1.050, -1.663e-4
-1.049, -1.694e-4
-1.048, -1.694e-4
-1.047, -1.694e-4
-1.046, -1.725e-4
-1.045, -1.725e-4
-1.044, -1.756e-4
-1.043, -1.756e-4
-1.042, -1.756e-4
-1.041, -1.756e-4
-1.040, -1.787e-4
-1.039, -1.787e-4
-1.038, -1.817e-4
-1.037, -1.817e-4
-1.036, -1.817e-4
-1.035, -1.848e-4
-1.034, -1.848e-4
-1.033, -1.848e-4
-1.032, -1.879e-4
-1.031, -1.879e-4
-1.030, -1.879e-4
-1.029, -1.910e-4
-1.028, -1.910e-4
-1.027, -1.910e-4
-1.026, -1.910e-4
-1.025, -1.941e-4
-1.024, -1.941e-4
-1.023, -1.972e-4
-1.022, -2.002e-4
-1.021, -2.002e-4
-1.020, -2.033e-4
-1.019, -2.064e-4
-1.018, -2.064e-4
-1.017, -2.064e-4
-1.016, -2.095e-4
-1.015, -2.095e-4
-1.014, -2.095e-4
-1.013, -2.126e-4
-1.012, -2.126e-4
-1.011, -2.157e-4
-1.010, -2.157e-4
-1.009, -2.157e-4
-1.008, -2.187e-4
-1.007, -2.187e-4
-1.006, -2.218e-4
-1.005, -2.249e-4
-1.004, -2.249e-4
-1.003, -2.280e-4
-1.002, -2.280e-4
-1.001, -2.311e-4
