Sept. 24, 2024   08:47:01
Linear Sweep Voltammetry
File: c:/users/guazh/data/20240922_batch_417_500/2024-09-22-exp433\regeneratedgce-2024-09-24t08_43_58-lsvinkoh\regeneratedgce_lsv_50mvs_efin_-1700mv.bin
Data Source:  Experiment
Instrument Model:  CHI760E
Header: LSV ran at 50 mVs with Efin at -1700mV
Note: 

Init E (V) = -0.6
Final E (V) = -1.7
Scan Rate (V/s) = 0.05
Sample Interval (V) = 0.001
Quiet Time (sec) = 2
Sensitivity (A/V) = 1e-4
Comp R (ohm) = 4.3

Results:

Channel 1:

Potential/V, Current/A

-0.600, 1.311e-6
-0.601, 1.443e-6
-0.602, 1.475e-6
-0.603, 1.492e-6
-0.604, 1.505e-6
-0.605, 1.517e-6
-0.606, 1.528e-6
-0.607, 1.534e-6
-0.608, 1.543e-6
-0.609, 1.552e-6
-0.610, 1.558e-6
-0.611, 1.567e-6
-0.612, 1.575e-6
-0.613, 1.581e-6
-0.614, 1.588e-6
-0.615, 1.594e-6
-0.616, 1.600e-6
-0.617, 1.605e-6
-0.618, 1.610e-6
-0.619, 1.616e-6
-0.620, 1.623e-6
-0.621, 1.627e-6
-0.622, 1.633e-6
-0.623, 1.638e-6
-0.624, 1.644e-6
-0.625, 1.646e-6
-0.626, 1.651e-6
-0.627, 1.659e-6
-0.628, 1.665e-6
-0.629, 1.670e-6
-0.630, 1.673e-6
-0.631, 1.679e-6
-0.632, 1.684e-6
-0.633, 1.692e-6
-0.634, 1.694e-6
-0.635, 1.698e-6
-0.636, 1.704e-6
-0.637, 1.707e-6
-0.638, 1.714e-6
-0.639, 1.720e-6
-0.640, 1.726e-6
-0.641, 1.733e-6
-0.642, 1.737e-6
-0.643, 1.743e-6
-0.644, 1.747e-6
-0.645, 1.749e-6
-0.646, 1.755e-6
-0.647, 1.758e-6
-0.648, 1.764e-6
-0.649, 1.767e-6
-0.650, 1.771e-6
-0.651, 1.778e-6
-0.652, 1.780e-6
-0.653, 1.788e-6
-0.654, 1.792e-6
-0.655, 1.797e-6
-0.656, 1.803e-6
-0.657, 1.809e-6
-0.658, 1.809e-6
-0.659, 1.813e-6
-0.660, 1.816e-6
-0.661, 1.822e-6
-0.662, 1.829e-6
-0.663, 1.836e-6
-0.664, 1.839e-6
-0.665, 1.839e-6
-0.666, 1.842e-6
-0.667, 1.845e-6
-0.668, 1.850e-6
-0.669, 1.854e-6
-0.670, 1.859e-6
-0.671, 1.863e-6
-0.672, 1.866e-6
-0.673, 1.872e-6
-0.674, 1.874e-6
-0.675, 1.878e-6
-0.676, 1.883e-6
-0.677, 1.887e-6
-0.678, 1.892e-6
-0.679, 1.895e-6
-0.680, 1.900e-6
-0.681, 1.906e-6
-0.682, 1.910e-6
-0.683, 1.915e-6
-0.684, 1.919e-6
-0.685, 1.922e-6
-0.686, 1.928e-6
-0.687, 1.932e-6
-0.688, 1.937e-6
-0.689, 1.941e-6
-0.690, 1.942e-6
-0.691, 1.948e-6
-0.692, 1.954e-6
-0.693, 1.958e-6
-0.694, 1.962e-6
-0.695, 1.965e-6
-0.696, 1.971e-6
-0.697, 1.976e-6
-0.698, 1.981e-6
-0.699, 1.986e-6
-0.700, 1.990e-6
-0.701, 1.993e-6
-0.702, 1.993e-6
-0.703, 1.996e-6
-0.704, 2.002e-6
-0.705, 2.004e-6
-0.706, 2.005e-6
-0.707, 2.008e-6
-0.708, 2.012e-6
-0.709, 2.017e-6
-0.710, 2.021e-6
-0.711, 2.026e-6
-0.712, 2.031e-6
-0.713, 2.037e-6
-0.714, 2.039e-6
-0.715, 2.042e-6
-0.716, 2.046e-6
-0.717, 2.050e-6
-0.718, 2.056e-6
-0.719, 2.057e-6
-0.720, 2.061e-6
-0.721, 2.066e-6
-0.722, 2.069e-6
-0.723, 2.075e-6
-0.724, 2.084e-6
-0.725, 2.093e-6
-0.726, 2.097e-6
-0.727, 2.093e-6
-0.728, 2.095e-6
-0.729, 2.096e-6
-0.730, 2.098e-6
-0.731, 2.102e-6
-0.732, 2.109e-6
-0.733, 2.113e-6
-0.734, 2.118e-6
-0.735, 2.121e-6
-0.736, 2.125e-6
-0.737, 2.129e-6
-0.738, 2.130e-6
-0.739, 2.133e-6
-0.740, 2.137e-6
-0.741, 2.142e-6
-0.742, 2.147e-6
-0.743, 2.152e-6
-0.744, 2.154e-6
-0.745, 2.157e-6
-0.746, 2.162e-6
-0.747, 2.167e-6
-0.748, 2.176e-6
-0.749, 2.179e-6
-0.750, 2.186e-6
-0.751, 2.188e-6
-0.752, 2.191e-6
-0.753, 2.196e-6
-0.754, 2.193e-6
-0.755, 2.197e-6
-0.756, 2.203e-6
-0.757, 2.205e-6
-0.758, 2.211e-6
-0.759, 2.214e-6
-0.760, 2.217e-6
-0.761, 2.225e-6
-0.762, 2.229e-6
-0.763, 2.233e-6
-0.764, 2.234e-6
-0.765, 2.240e-6
-0.766, 2.244e-6
-0.767, 2.245e-6
-0.768, 2.252e-6
-0.769, 2.256e-6
-0.770, 2.257e-6
-0.771, 2.262e-6
-0.772, 2.267e-6
-0.773, 2.270e-6
-0.774, 2.273e-6
-0.775, 2.273e-6
-0.776, 2.278e-6
-0.777, 2.281e-6
-0.778, 2.285e-6
-0.779, 2.287e-6
-0.780, 2.291e-6
-0.781, 2.296e-6
-0.782, 2.298e-6
-0.783, 2.303e-6
-0.784, 2.307e-6
-0.785, 2.311e-6
-0.786, 2.315e-6
-0.787, 2.318e-6
-0.788, 2.322e-6
-0.789, 2.326e-6
-0.790, 2.330e-6
-0.791, 2.334e-6
-0.792, 2.341e-6
-0.793, 2.348e-6
-0.794, 2.349e-6
-0.795, 2.353e-6
-0.796, 2.357e-6
-0.797, 2.362e-6
-0.798, 2.369e-6
-0.799, 2.371e-6
-0.800, 2.372e-6
-0.801, 2.376e-6
-0.802, 2.378e-6
-0.803, 2.384e-6
-0.804, 2.388e-6
-0.805, 2.394e-6
-0.806, 2.398e-6
-0.807, 2.402e-6
-0.808, 2.409e-6
-0.809, 2.413e-6
-0.810, 2.414e-6
-0.811, 2.419e-6
-0.812, 2.424e-6
-0.813, 2.425e-6
-0.814, 2.432e-6
-0.815, 2.438e-6
-0.816, 2.441e-6
-0.817, 2.444e-6
-0.818, 2.447e-6
-0.819, 2.457e-6
-0.820, 2.460e-6
-0.821, 2.458e-6
-0.822, 2.463e-6
-0.823, 2.466e-6
-0.824, 2.469e-6
-0.825, 2.473e-6
-0.826, 2.475e-6
-0.827, 2.479e-6
-0.828, 2.483e-6
-0.829, 2.486e-6
-0.830, 2.491e-6
-0.831, 2.493e-6
-0.832, 2.496e-6
-0.833, 2.499e-6
-0.834, 2.502e-6
-0.835, 2.517e-6
-0.836, 2.521e-6
-0.837, 2.516e-6
-0.838, 2.523e-6
-0.839, 2.529e-6
-0.840, 2.534e-6
-0.841, 2.539e-6
-0.842, 2.541e-6
-0.843, 2.545e-6
-0.844, 2.548e-6
-0.845, 2.550e-6
-0.846, 2.556e-6
-0.847, 2.559e-6
-0.848, 2.567e-6
-0.849, 2.571e-6
-0.850, 2.572e-6
-0.851, 2.576e-6
-0.852, 2.579e-6
-0.853, 2.584e-6
-0.854, 2.587e-6
-0.855, 2.590e-6
-0.856, 2.596e-6
-0.857, 2.601e-6
-0.858, 2.607e-6
-0.859, 2.612e-6
-0.860, 2.617e-6
-0.861, 2.618e-6
-0.862, 2.621e-6
-0.863, 2.625e-6
-0.864, 2.627e-6
-0.865, 2.632e-6
-0.866, 2.638e-6
-0.867, 2.642e-6
-0.868, 2.647e-6
-0.869, 2.649e-6
-0.870, 2.658e-6
-0.871, 2.662e-6
-0.872, 2.665e-6
-0.873, 2.673e-6
-0.874, 2.674e-6
-0.875, 2.675e-6
-0.876, 2.682e-6
-0.877, 2.681e-6
-0.878, 2.687e-6
-0.879, 2.689e-6
-0.880, 2.693e-6
-0.881, 2.697e-6
-0.882, 2.700e-6
-0.883, 2.705e-6
-0.884, 2.709e-6
-0.885, 2.713e-6
-0.886, 2.720e-6
-0.887, 2.725e-6
-0.888, 2.728e-6
-0.889, 2.732e-6
-0.890, 2.735e-6
-0.891, 2.738e-6
-0.892, 2.743e-6
-0.893, 2.750e-6
-0.894, 2.761e-6
-0.895, 2.768e-6
-0.896, 2.772e-6
-0.897, 2.766e-6
-0.898, 2.770e-6
-0.899, 2.775e-6
-0.900, 2.779e-6
-0.901, 2.784e-6
-0.902, 2.787e-6
-0.903, 2.794e-6
-0.904, 2.801e-6
-0.905, 2.805e-6
-0.906, 2.809e-6
-0.907, 2.813e-6
-0.908, 2.817e-6
-0.909, 2.823e-6
-0.910, 2.829e-6
-0.911, 2.832e-6
-0.912, 2.836e-6
-0.913, 2.843e-6
-0.914, 2.846e-6
-0.915, 2.850e-6
-0.916, 2.858e-6
-0.917, 2.861e-6
-0.918, 2.865e-6
-0.919, 2.866e-6
-0.920, 2.869e-6
-0.921, 2.876e-6
-0.922, 2.880e-6
-0.923, 2.883e-6
-0.924, 2.891e-6
-0.925, 2.894e-6
-0.926, 2.900e-6
-0.927, 2.904e-6
-0.928, 2.910e-6
-0.929, 2.915e-6
-0.930, 2.918e-6
-0.931, 2.924e-6
-0.932, 2.928e-6
-0.933, 2.933e-6
-0.934, 2.939e-6
-0.935, 2.941e-6
-0.936, 2.950e-6
-0.937, 2.956e-6
-0.938, 2.959e-6
-0.939, 2.963e-6
-0.940, 2.967e-6
-0.941, 2.971e-6
-0.942, 2.978e-6
-0.943, 2.983e-6
-0.944, 2.987e-6
-0.945, 2.993e-6
-0.946, 2.997e-6
-0.947, 3.004e-6
-0.948, 3.008e-6
-0.949, 3.011e-6
-0.950, 3.016e-6
-0.951, 3.021e-6
-0.952, 3.026e-6
-0.953, 3.032e-6
-0.954, 3.038e-6
-0.955, 3.041e-6
-0.956, 3.046e-6
-0.957, 3.051e-6
-0.958, 3.059e-6
-0.959, 3.062e-6
-0.960, 3.070e-6
-0.961, 3.075e-6
-0.962, 3.077e-6
-0.963, 3.082e-6
-0.964, 3.087e-6
-0.965, 3.091e-6
-0.966, 3.100e-6
-0.967, 3.104e-6
-0.968, 3.113e-6
-0.969, 3.120e-6
-0.970, 3.125e-6
-0.971, 3.131e-6
-0.972, 3.137e-6
-0.973, 3.146e-6
-0.974, 3.149e-6
-0.975, 3.152e-6
-0.976, 3.158e-6
-0.977, 3.164e-6
-0.978, 3.170e-6
-0.979, 3.178e-6
-0.980, 3.187e-6
-0.981, 3.192e-6
-0.982, 3.198e-6
-0.983, 3.204e-6
-0.984, 3.210e-6
-0.985, 3.216e-6
-0.986, 3.221e-6
-0.987, 3.226e-6
-0.988, 3.234e-6
-0.989, 3.238e-6
-0.990, 3.246e-6
-0.991, 3.251e-6
-0.992, 3.260e-6
-0.993, 3.267e-6
-0.994, 3.268e-6
-0.995, 3.272e-6
-0.996, 3.279e-6
-0.997, 3.281e-6
-0.998, 3.287e-6
-0.999, 3.291e-6
-1.000, 3.294e-6
-1.001, 3.303e-6
-1.002, 3.308e-6
-1.003, 3.315e-6
-1.004, 3.321e-6
-1.005, 3.328e-6
-1.006, 3.335e-6
-1.007, 3.337e-6
-1.008, 3.343e-6
-1.009, 3.348e-6
-1.010, 3.352e-6
-1.011, 3.361e-6
-1.012, 3.368e-6
-1.013, 3.372e-6
-1.014, 3.378e-6
-1.015, 3.383e-6
-1.016, 3.390e-6
-1.017, 3.394e-6
-1.018, 3.401e-6
-1.019, 3.403e-6
-1.020, 3.410e-6
-1.021, 3.421e-6
-1.022, 3.426e-6
-1.023, 3.430e-6
-1.024, 3.434e-6
-1.025, 3.437e-6
-1.026, 3.441e-6
-1.027, 3.446e-6
-1.028, 3.452e-6
-1.029, 3.455e-6
-1.030, 3.461e-6
-1.031, 3.467e-6
-1.032, 3.473e-6
-1.033, 3.477e-6
-1.034, 3.480e-6
-1.035, 3.485e-6
-1.036, 3.490e-6
-1.037, 3.496e-6
-1.038, 3.504e-6
-1.039, 3.508e-6
-1.040, 3.513e-6
-1.041, 3.518e-6
-1.042, 3.521e-6
-1.043, 3.529e-6
-1.044, 3.533e-6
-1.045, 3.536e-6
-1.046, 3.543e-6
-1.047, 3.548e-6
-1.048, 3.553e-6
-1.049, 3.560e-6
-1.050, 3.564e-6
-1.051, 3.571e-6
-1.052, 3.575e-6
-1.053, 3.577e-6
-1.054, 3.582e-6
-1.055, 3.589e-6
-1.056, 3.599e-6
-1.057, 3.597e-6
-1.058, 3.602e-6
-1.059, 3.606e-6
-1.060, 3.611e-6
-1.061, 3.618e-6
-1.062, 3.627e-6
-1.063, 3.629e-6
-1.064, 3.633e-6
-1.065, 3.640e-6
-1.066, 3.642e-6
-1.067, 3.649e-6
-1.068, 3.655e-6
-1.069, 3.657e-6
-1.070, 3.666e-6
-1.071, 3.672e-6
-1.072, 3.676e-6
-1.073, 3.683e-6
-1.074, 3.683e-6
-1.075, 3.690e-6
-1.076, 3.696e-6
-1.077, 3.702e-6
-1.078, 3.712e-6
-1.079, 3.714e-6
-1.080, 3.713e-6
-1.081, 3.722e-6
-1.082, 3.722e-6
-1.083, 3.725e-6
-1.084, 3.729e-6
-1.085, 3.729e-6
-1.086, 3.734e-6
-1.087, 3.738e-6
-1.088, 3.741e-6
-1.089, 3.745e-6
-1.090, 3.746e-6
-1.091, 3.752e-6
-1.092, 3.759e-6
-1.093, 3.761e-6
-1.094, 3.767e-6
-1.095, 3.770e-6
-1.096, 3.775e-6
-1.097, 3.780e-6
-1.098, 3.785e-6
-1.099, 3.791e-6
-1.100, 3.794e-6
-1.101, 3.800e-6
-1.102, 3.807e-6
-1.103, 3.811e-6
-1.104, 3.813e-6
-1.105, 3.819e-6
-1.106, 3.821e-6
-1.107, 3.829e-6
-1.108, 3.832e-6
-1.109, 3.834e-6
-1.110, 3.837e-6
-1.111, 3.841e-6
-1.112, 3.845e-6
-1.113, 3.851e-6
-1.114, 3.856e-6
-1.115, 3.866e-6
-1.116, 3.870e-6
-1.117, 3.871e-6
-1.118, 3.875e-6
-1.119, 3.879e-6
-1.120, 3.884e-6
-1.121, 3.890e-6
-1.122, 3.894e-6
-1.123, 3.898e-6
-1.124, 3.902e-6
-1.125, 3.906e-6
-1.126, 3.912e-6
-1.127, 3.914e-6
-1.128, 3.920e-6
-1.129, 3.927e-6
-1.130, 3.931e-6
-1.131, 3.940e-6
-1.132, 3.945e-6
-1.133, 3.947e-6
-1.134, 3.948e-6
-1.135, 3.950e-6
-1.136, 3.954e-6
-1.137, 3.956e-6
-1.138, 3.955e-6
-1.139, 3.962e-6
-1.140, 3.965e-6
-1.141, 3.967e-6
-1.142, 3.973e-6
-1.143, 3.980e-6
-1.144, 3.984e-6
-1.145, 3.986e-6
-1.146, 3.990e-6
-1.147, 3.992e-6
-1.148, 3.997e-6
-1.149, 4.000e-6
-1.150, 4.008e-6
-1.151, 4.014e-6
-1.152, 4.020e-6
-1.153, 4.027e-6
-1.154, 4.029e-6
-1.155, 4.030e-6
-1.156, 4.032e-6
-1.157, 4.036e-6
-1.158, 4.045e-6
-1.159, 4.051e-6
-1.160, 4.054e-6
-1.161, 4.058e-6
-1.162, 4.063e-6
-1.163, 4.066e-6
-1.164, 4.069e-6
-1.165, 4.073e-6
-1.166, 4.079e-6
-1.167, 4.084e-6
-1.168, 4.088e-6
-1.169, 4.093e-6
-1.170, 4.096e-6
-1.171, 4.103e-6
-1.172, 4.104e-6
-1.173, 4.107e-6
-1.174, 4.112e-6
-1.175, 4.116e-6
-1.176, 4.123e-6
-1.177, 4.125e-6
-1.178, 4.132e-6
-1.179, 4.137e-6
-1.180, 4.140e-6
-1.181, 4.143e-6
-1.182, 4.144e-6
-1.183, 4.149e-6
-1.184, 4.157e-6
-1.185, 4.159e-6
-1.186, 4.162e-6
-1.187, 4.172e-6
-1.188, 4.178e-6
-1.189, 4.179e-6
-1.190, 4.183e-6
-1.191, 4.188e-6
-1.192, 4.193e-6
-1.193, 4.197e-6
-1.194, 4.197e-6
-1.195, 4.206e-6
-1.196, 4.218e-6
-1.197, 4.214e-6
-1.198, 4.215e-6
-1.199, 4.222e-6
-1.200, 4.224e-6
-1.201, 4.233e-6
-1.202, 4.234e-6
-1.203, 4.240e-6
-1.204, 4.244e-6
-1.205, 4.245e-6
-1.206, 4.254e-6
-1.207, 4.252e-6
-1.208, 4.257e-6
-1.209, 4.261e-6
-1.210, 4.264e-6
-1.211, 4.274e-6
-1.212, 4.277e-6
-1.213, 4.283e-6
-1.214, 4.285e-6
-1.215, 4.289e-6
-1.216, 4.294e-6
-1.217, 4.296e-6
-1.218, 4.296e-6
-1.219, 4.300e-6
-1.220, 4.305e-6
-1.221, 4.311e-6
-1.222, 4.318e-6
-1.223, 4.329e-6
-1.224, 4.331e-6
-1.225, 4.333e-6
-1.226, 4.336e-6
-1.227, 4.341e-6
-1.228, 4.339e-6
-1.229, 4.348e-6
-1.230, 4.350e-6
-1.231, 4.355e-6
-1.232, 4.360e-6
-1.233, 4.367e-6
-1.234, 4.367e-6
-1.235, 4.371e-6
-1.236, 4.379e-6
-1.237, 4.379e-6
-1.238, 4.386e-6
-1.239, 4.388e-6
-1.240, 4.395e-6
-1.241, 4.401e-6
-1.242, 4.401e-6
-1.243, 4.401e-6
-1.244, 4.404e-6
-1.245, 4.408e-6
-1.246, 4.417e-6
-1.247, 4.421e-6
-1.248, 4.429e-6
-1.249, 4.437e-6
-1.250, 4.436e-6
-1.251, 4.443e-6
-1.252, 4.449e-6
-1.253, 4.451e-6
-1.254, 4.453e-6
-1.255, 4.452e-6
-1.256, 4.455e-6
-1.257, 4.463e-6
-1.258, 4.467e-6
-1.259, 4.473e-6
-1.260, 4.475e-6
-1.261, 4.481e-6
-1.262, 4.488e-6
-1.263, 4.491e-6
-1.264, 4.494e-6
-1.265, 4.497e-6
-1.266, 4.499e-6
-1.267, 4.504e-6
-1.268, 4.512e-6
-1.269, 4.513e-6
-1.270, 4.517e-6
-1.271, 4.525e-6
-1.272, 4.535e-6
-1.273, 4.541e-6
-1.274, 4.544e-6
-1.275, 4.546e-6
-1.276, 4.552e-6
-1.277, 4.556e-6
-1.278, 4.562e-6
-1.279, 4.563e-6
-1.280, 4.570e-6
-1.281, 4.577e-6
-1.282, 4.581e-6
-1.283, 4.587e-6
-1.284, 4.594e-6
-1.285, 4.598e-6
-1.286, 4.604e-6
-1.287, 4.606e-6
-1.288, 4.611e-6
-1.289, 4.616e-6
-1.290, 4.613e-6
-1.291, 4.620e-6
-1.292, 4.626e-6
-1.293, 4.633e-6
-1.294, 4.638e-6
-1.295, 4.646e-6
-1.296, 4.654e-6
-1.297, 4.658e-6
-1.298, 4.660e-6
-1.299, 4.669e-6
-1.300, 4.671e-6
-1.301, 4.675e-6
-1.302, 4.683e-6
-1.303, 4.688e-6
-1.304, 4.691e-6
-1.305, 4.697e-6
-1.306, 4.701e-6
-1.307, 4.710e-6
-1.308, 4.719e-6
-1.309, 4.722e-6
-1.310, 4.726e-6
-1.311, 4.732e-6
-1.312, 4.735e-6
-1.313, 4.739e-6
-1.314, 4.746e-6
-1.315, 4.759e-6
-1.316, 4.765e-6
-1.317, 4.771e-6
-1.318, 4.772e-6
-1.319, 4.773e-6
-1.320, 4.777e-6
-1.321, 4.782e-6
-1.322, 4.785e-6
-1.323, 4.792e-6
-1.324, 4.798e-6
-1.325, 4.804e-6
-1.326, 4.810e-6
-1.327, 4.819e-6
-1.328, 4.828e-6
-1.329, 4.832e-6
-1.330, 4.832e-6
-1.331, 4.844e-6
-1.332, 4.853e-6
-1.333, 4.855e-6
-1.334, 4.860e-6
-1.335, 4.862e-6
-1.336, 4.866e-6
-1.337, 4.871e-6
-1.338, 4.879e-6
-1.339, 4.882e-6
-1.340, 4.887e-6
-1.341, 4.893e-6
-1.342, 4.904e-6
-1.343, 4.911e-6
-1.344, 4.914e-6
-1.345, 4.920e-6
-1.346, 4.922e-6
-1.347, 4.927e-6
-1.348, 4.932e-6
-1.349, 4.933e-6
-1.350, 4.942e-6
-1.351, 4.950e-6
-1.352, 4.964e-6
-1.353, 4.973e-6
-1.354, 4.974e-6
-1.355, 4.979e-6
-1.356, 4.984e-6
-1.357, 4.985e-6
-1.358, 4.996e-6
-1.359, 4.995e-6
-1.360, 5.000e-6
-1.361, 5.013e-6
-1.362, 5.023e-6
-1.363, 5.036e-6
-1.364, 5.037e-6
-1.365, 5.039e-6
-1.366, 5.048e-6
-1.367, 5.052e-6
-1.368, 5.058e-6
-1.369, 5.067e-6
-1.370, 5.068e-6
-1.371, 5.073e-6
-1.372, 5.077e-6
-1.373, 5.083e-6
-1.374, 5.093e-6
-1.375, 5.098e-6
-1.376, 5.106e-6
-1.377, 5.115e-6
-1.378, 5.120e-6
-1.379, 5.130e-6
-1.380, 5.134e-6
-1.381, 5.141e-6
-1.382, 5.149e-6
-1.383, 5.155e-6
-1.384, 5.158e-6
-1.385, 5.166e-6
-1.386, 5.173e-6
-1.387, 5.182e-6
-1.388, 5.192e-6
-1.389, 5.198e-6
-1.390, 5.202e-6
-1.391, 5.203e-6
-1.392, 5.206e-6
-1.393, 5.214e-6
-1.394, 5.217e-6
-1.395, 5.225e-6
-1.396, 5.234e-6
-1.397, 5.244e-6
-1.398, 5.252e-6
-1.399, 5.257e-6
-1.400, 5.261e-6
-1.401, 5.268e-6
-1.402, 5.270e-6
-1.403, 5.276e-6
-1.404, 5.284e-6
-1.405, 5.284e-6
-1.406, 5.291e-6
-1.407, 5.294e-6
-1.408, 5.304e-6
-1.409, 5.313e-6
-1.410, 5.319e-6
-1.411, 5.325e-6
-1.412, 5.330e-6
-1.413, 5.335e-6
-1.414, 5.336e-6
-1.415, 5.335e-6
-1.416, 5.339e-6
-1.417, 5.347e-6
-1.418, 5.354e-6
-1.419, 5.366e-6
-1.420, 5.370e-6
-1.421, 5.372e-6
-1.422, 5.375e-6
-1.423, 5.374e-6
-1.424, 5.378e-6
-1.425, 5.381e-6
-1.426, 5.386e-6
-1.427, 5.396e-6
-1.428, 5.402e-6
-1.429, 5.406e-6
-1.430, 5.409e-6
-1.431, 5.416e-6
-1.432, 5.421e-6
-1.433, 5.429e-6
-1.434, 5.439e-6
-1.435, 5.441e-6
-1.436, 5.443e-6
-1.437, 5.445e-6
-1.438, 5.451e-6
-1.439, 5.449e-6
-1.440, 5.454e-6
-1.441, 5.459e-6
-1.442, 5.464e-6
-1.443, 5.472e-6
-1.444, 5.478e-6
-1.445, 5.486e-6
-1.446, 5.493e-6
-1.447, 5.498e-6
-1.448, 5.503e-6
-1.449, 5.508e-6
-1.450, 5.515e-6
-1.451, 5.520e-6
-1.452, 5.530e-6
-1.453, 5.536e-6
-1.454, 5.541e-6
-1.455, 5.548e-6
-1.456, 5.554e-6
-1.457, 5.568e-6
-1.458, 5.577e-6
-1.459, 5.588e-6
-1.460, 5.595e-6
-1.461, 5.601e-6
-1.462, 5.600e-6
-1.463, 5.599e-6
-1.464, 5.606e-6
-1.465, 5.617e-6
-1.466, 5.629e-6
-1.467, 5.638e-6
-1.468, 5.648e-6
-1.469, 5.649e-6
-1.470, 5.658e-6
-1.471, 5.665e-6
-1.472, 5.677e-6
-1.473, 5.683e-6
-1.474, 5.689e-6
-1.475, 5.699e-6
-1.476, 5.705e-6
-1.477, 5.713e-6
-1.478, 5.725e-6
-1.479, 5.739e-6
-1.480, 5.752e-6
-1.481, 5.766e-6
-1.482, 5.776e-6
-1.483, 5.788e-6
-1.484, 5.794e-6
-1.485, 5.798e-6
-1.486, 5.802e-6
-1.487, 5.811e-6
-1.488, 5.819e-6
-1.489, 5.829e-6
-1.490, 5.835e-6
-1.491, 5.841e-6
-1.492, 5.847e-6
-1.493, 5.862e-6
-1.494, 5.874e-6
-1.495, 5.886e-6
-1.496, 5.892e-6
-1.497, 5.904e-6
-1.498, 5.911e-6
-1.499, 5.920e-6
-1.500, 5.926e-6
-1.501, 5.937e-6
-1.502, 5.947e-6
-1.503, 5.948e-6
-1.504, 5.958e-6
-1.505, 5.972e-6
-1.506, 5.983e-6
-1.507, 5.995e-6
-1.508, 6.003e-6
-1.509, 6.014e-6
-1.510, 6.022e-6
-1.511, 6.038e-6
-1.512, 6.044e-6
-1.513, 6.050e-6
-1.514, 6.061e-6
-1.515, 6.078e-6
-1.516, 6.100e-6
-1.517, 6.111e-6
-1.518, 6.118e-6
-1.519, 6.129e-6
-1.520, 6.141e-6
-1.521, 6.154e-6
-1.522, 6.162e-6
-1.523, 6.177e-6
-1.524, 6.188e-6
-1.525, 6.201e-6
-1.526, 6.218e-6
-1.527, 6.239e-6
-1.528, 6.254e-6
-1.529, 6.264e-6
-1.530, 6.289e-6
-1.531, 6.330e-6
-1.532, 6.344e-6
-1.533, 6.353e-6
-1.534, 6.369e-6
-1.535, 6.379e-6
-1.536, 6.400e-6
-1.537, 6.423e-6
-1.538, 6.439e-6
-1.539, 6.457e-6
-1.540, 6.470e-6
-1.541, 6.484e-6
-1.542, 6.504e-6
-1.543, 6.521e-6
-1.544, 6.531e-6
-1.545, 6.547e-6
-1.546, 6.560e-6
-1.547, 6.586e-6
-1.548, 6.603e-6
-1.549, 6.613e-6
-1.550, 6.624e-6
-1.551, 6.634e-6
-1.552, 6.653e-6
-1.553, 6.678e-6
-1.554, 6.696e-6
-1.555, 6.718e-6
-1.556, 6.739e-6
-1.557, 6.749e-6
-1.558, 6.778e-6
-1.559, 6.795e-6
-1.560, 6.820e-6
-1.561, 6.837e-6
-1.562, 6.851e-6
-1.563, 6.883e-6
-1.564, 6.914e-6
-1.565, 6.933e-6
-1.566, 6.956e-6
-1.567, 6.970e-6
-1.568, 6.994e-6
-1.569, 7.013e-6
-1.570, 7.018e-6
-1.571, 7.042e-6
-1.572, 7.071e-6
-1.573, 7.094e-6
-1.574, 7.129e-6
-1.575, 7.151e-6
-1.576, 7.164e-6
-1.577, 7.191e-6
-1.578, 7.207e-6
-1.579, 7.237e-6
-1.580, 7.251e-6
-1.581, 7.268e-6
-1.582, 7.303e-6
-1.583, 7.332e-6
-1.584, 7.363e-6
-1.585, 7.390e-6
-1.586, 7.418e-6
-1.587, 7.459e-6
-1.588, 7.491e-6
-1.589, 7.519e-6
-1.590, 7.552e-6
-1.591, 7.578e-6
-1.592, 7.604e-6
-1.593, 7.638e-6
-1.594, 7.673e-6
-1.595, 7.713e-6
-1.596, 7.748e-6
-1.597, 7.783e-6
-1.598, 7.824e-6
-1.599, 7.861e-6
-1.600, 7.908e-6
-1.601, 7.945e-6
-1.602, 7.978e-6
-1.603, 8.012e-6
-1.604, 8.056e-6
-1.605, 8.092e-6
-1.606, 8.131e-6
-1.607, 8.181e-6
-1.608, 8.226e-6
-1.609, 8.268e-6
-1.610, 8.301e-6
-1.611, 8.354e-6
-1.612, 8.398e-6
-1.613, 8.442e-6
-1.614, 8.488e-6
-1.615, 8.524e-6
-1.616, 8.573e-6
-1.617, 8.625e-6
-1.618, 8.671e-6
-1.619, 8.737e-6
-1.620, 8.792e-6
-1.621, 8.839e-6
-1.622, 8.891e-6
-1.623, 8.933e-6
-1.624, 8.984e-6
-1.625, 9.033e-6
-1.626, 9.073e-6
-1.627, 9.133e-6
-1.628, 9.195e-6
-1.629, 9.274e-6
-1.630, 9.357e-6
-1.631, 9.427e-6
-1.632, 9.484e-6
-1.633, 9.536e-6
-1.634, 9.590e-6
-1.635, 9.669e-6
-1.636, 9.753e-6
-1.637, 9.823e-6
-1.638, 9.902e-6
-1.639, 9.984e-6
-1.640, 1.006e-5
-1.641, 1.013e-5
-1.642, 1.020e-5
-1.643, 1.028e-5
-1.644, 1.036e-5
-1.645, 1.044e-5
-1.646, 1.054e-5
-1.647, 1.063e-5
-1.648, 1.072e-5
-1.649, 1.081e-5
-1.650, 1.090e-5
-1.651, 1.100e-5
-1.652, 1.110e-5
-1.653, 1.120e-5
-1.654, 1.130e-5
-1.655, 1.142e-5
-1.656, 1.153e-5
-1.657, 1.164e-5
-1.658, 1.176e-5
-1.659, 1.189e-5
-1.660, 1.202e-5
-1.661, 1.215e-5
-1.662, 1.229e-5
-1.663, 1.244e-5
-1.664, 1.259e-5
-1.665, 1.272e-5
-1.666, 1.289e-5
-1.667, 1.304e-5
-1.668, 1.318e-5
-1.669, 1.336e-5
-1.670, 1.357e-5
-1.671, 1.376e-5
-1.672, 1.395e-5
-1.673, 1.415e-5
-1.674, 1.434e-5
-1.675, 1.455e-5
-1.676, 1.475e-5
-1.677, 1.495e-5
-1.678, 1.518e-5
-1.679, 1.540e-5
-1.680, 1.562e-5
-1.681, 1.588e-5
-1.682, 1.615e-5
-1.683, 1.642e-5
-1.684, 1.669e-5
-1.685, 1.695e-5
-1.686, 1.723e-5
-1.687, 1.752e-5
-1.688, 1.782e-5
-1.689, 1.813e-5
-1.690, 1.846e-5
-1.691, 1.879e-5
-1.692, 1.913e-5
-1.693, 1.947e-5
-1.694, 1.985e-5
-1.695, 2.025e-5
-1.696, 2.065e-5
-1.697, 2.107e-5
-1.698, 2.149e-5
-1.699, 2.195e-5
