Apr. 3, 2025   13:12:30
Cyclic Voltammetry
File: c:/users/guazh/data/banditlqround7_x0exp518_r20/2025-03-28-exp1030\exp1030-2025-04-03t12_57_57-h2koh\exp1030_cv_sr_400mvs_efin_-1600mv.bin
Data Source:  Experiment
Instrument Model:  CHI760E
Header: CV ran at 400 mVs
Note: 

Init E (V) = -1
High E (V) = -1
Low E (V) = -1.6
Final E (V) = -1
Init P/N = N
Scan Rate (V/s) = 0.4
Segment = 3
Sample Interval (V) = 0.001
Quiet Time (sec) = 2
Sensitivity (A/V) = 0.01
Comp R (ohm) = 1.7

Results:

Channel 1:
Segment 1:

Segment 2:

Segment 3:

Potential/V, Current/A

-1.000, 3.099e-5
-1.001, 6.798e-5
-1.002, 7.723e-5
-1.003, 8.340e-5
-1.004, 8.340e-5
-1.005, 8.340e-5
-1.006, 8.340e-5
-1.007, 8.340e-5
-1.008, 8.340e-5
-1.009, 8.648e-5
-1.010, 8.957e-5
-1.011, 8.957e-5
-1.012, 8.957e-5
-1.013, 8.648e-5
-1.014, 8.648e-5
-1.015, 8.957e-5
-1.016, 8.957e-5
-1.017, 9.265e-5
-1.018, 9.265e-5
-1.019, 8.957e-5
-1.020, 8.957e-5
-1.021, 8.957e-5
-1.022, 9.265e-5
-1.023, 9.265e-5
-1.024, 9.265e-5
-1.025, 9.265e-5
-1.026, 8.957e-5
-1.027, 8.957e-5
-1.028, 9.265e-5
-1.029, 9.265e-5
-1.030, 9.573e-5
-1.031, 9.573e-5
-1.032, 9.265e-5
-1.033, 9.265e-5
-1.034, 9.265e-5
-1.035, 9.265e-5
-1.036, 9.573e-5
-1.037, 9.573e-5
-1.038, 9.573e-5
-1.039, 9.265e-5
-1.040, 9.265e-5
-1.041, 9.265e-5
-1.042, 9.573e-5
-1.043, 9.573e-5
-1.044, 9.882e-5
-1.045, 9.573e-5
-1.046, 9.265e-5
-1.047, 9.265e-5
-1.048, 9.573e-5
-1.049, 9.573e-5
-1.050, 9.882e-5
-1.051, 9.882e-5
-1.052, 9.573e-5
-1.053, 9.265e-5
-1.054, 9.573e-5
-1.055, 9.573e-5
-1.056, 9.882e-5
-1.057, 9.882e-5
-1.058, 9.882e-5
-1.059, 9.573e-5
-1.060, 9.573e-5
-1.061, 9.573e-5
-1.062, 9.882e-5
-1.063, 9.882e-5
-1.064, 9.882e-5
-1.065, 9.882e-5
-1.066, 9.573e-5
-1.067, 9.573e-5
-1.068, 9.573e-5
-1.069, 9.882e-5
-1.070, 1.019e-4
-1.071, 9.882e-5
-1.072, 9.882e-5
-1.073, 9.573e-5
-1.074, 9.882e-5
-1.075, 9.882e-5
-1.076, 9.882e-5
-1.077, 1.019e-4
-1.078, 9.882e-5
-1.079, 9.573e-5
-1.080, 9.573e-5
-1.081, 9.573e-5
-1.082, 9.882e-5
-1.083, 1.019e-4
-1.084, 1.019e-4
-1.085, 9.882e-5
-1.086, 9.882e-5
-1.087, 9.573e-5
-1.088, 9.882e-5
-1.089, 9.882e-5
-1.090, 1.019e-4
-1.091, 1.019e-4
-1.092, 9.882e-5
-1.093, 9.882e-5
-1.094, 9.882e-5
-1.095, 9.882e-5
-1.096, 1.019e-4
-1.097, 1.019e-4
-1.098, 1.019e-4
-1.099, 9.882e-5
-1.100, 9.882e-5
-1.101, 9.882e-5
-1.102, 9.882e-5
-1.103, 1.019e-4
-1.104, 1.019e-4
-1.105, 1.019e-4
-1.106, 9.882e-5
-1.107, 9.882e-5
-1.108, 1.019e-4
-1.109, 1.019e-4
-1.110, 1.019e-4
-1.111, 1.019e-4
-1.112, 9.882e-5
-1.113, 1.019e-4
-1.114, 9.882e-5
-1.115, 1.019e-4
-1.116, 1.019e-4
-1.117, 1.050e-4
-1.118, 1.019e-4
-1.119, 1.019e-4
-1.120, 9.882e-5
-1.121, 9.882e-5
-1.122, 1.019e-4
-1.123, 1.019e-4
-1.124, 1.050e-4
-1.125, 1.019e-4
-1.126, 9.882e-5
-1.127, 9.882e-5
-1.128, 1.019e-4
-1.129, 1.019e-4
-1.130, 1.050e-4
-1.131, 1.050e-4
-1.132, 1.019e-4
-1.133, 1.019e-4
-1.134, 1.019e-4
-1.135, 1.019e-4
-1.136, 1.019e-4
-1.137, 1.050e-4
-1.138, 1.019e-4
-1.139, 1.019e-4
-1.140, 1.019e-4
-1.141, 1.019e-4
-1.142, 1.019e-4
-1.143, 1.050e-4
-1.144, 1.050e-4
-1.145, 1.050e-4
-1.146, 1.019e-4
-1.147, 1.019e-4
-1.148, 1.019e-4
-1.149, 1.050e-4
-1.150, 1.050e-4
-1.151, 1.050e-4
-1.152, 1.019e-4
-1.153, 1.019e-4
-1.154, 1.019e-4
-1.155, 1.019e-4
-1.156, 1.050e-4
-1.157, 1.050e-4
-1.158, 1.050e-4
-1.159, 1.019e-4
-1.160, 1.019e-4
-1.161, 1.019e-4
-1.162, 1.050e-4
-1.163, 1.050e-4
-1.164, 1.081e-4
-1.165, 1.050e-4
-1.166, 1.050e-4
-1.167, 1.019e-4
-1.168, 1.019e-4
-1.169, 1.050e-4
-1.170, 1.081e-4
-1.171, 1.050e-4
-1.172, 1.050e-4
-1.173, 1.050e-4
-1.174, 1.050e-4
-1.175, 1.050e-4
-1.176, 1.050e-4
-1.177, 1.081e-4
-1.178, 1.081e-4
-1.179, 1.050e-4
-1.180, 1.050e-4
-1.181, 1.050e-4
-1.182, 1.081e-4
-1.183, 1.081e-4
-1.184, 1.081e-4
-1.185, 1.081e-4
-1.186, 1.081e-4
-1.187, 1.050e-4
-1.188, 1.050e-4
-1.189, 1.081e-4
-1.190, 1.111e-4
-1.191, 1.111e-4
-1.192, 1.081e-4
-1.193, 1.081e-4
-1.194, 1.081e-4
-1.195, 1.081e-4
-1.196, 1.081e-4
-1.197, 1.111e-4
-1.198, 1.111e-4
-1.199, 1.081e-4
-1.200, 1.081e-4
-1.201, 1.081e-4
-1.202, 1.111e-4
-1.203, 1.142e-4
-1.204, 1.142e-4
-1.205, 1.111e-4
-1.206, 1.111e-4
-1.207, 1.081e-4
-1.208, 1.111e-4
-1.209, 1.142e-4
-1.210, 1.173e-4
-1.211, 1.142e-4
-1.212, 1.142e-4
-1.213, 1.111e-4
-1.214, 1.111e-4
-1.215, 1.142e-4
-1.216, 1.142e-4
-1.217, 1.173e-4
-1.218, 1.142e-4
-1.219, 1.142e-4
-1.220, 1.142e-4
-1.221, 1.142e-4
-1.222, 1.173e-4
-1.223, 1.204e-4
-1.224, 1.173e-4
-1.225, 1.173e-4
-1.226, 1.173e-4
-1.227, 1.173e-4
-1.228, 1.173e-4
-1.229, 1.235e-4
-1.230, 1.235e-4
-1.231, 1.235e-4
-1.232, 1.204e-4
-1.233, 1.204e-4
-1.234, 1.235e-4
-1.235, 1.235e-4
-1.236, 1.266e-4
-1.237, 1.266e-4
-1.238, 1.266e-4
-1.239, 1.266e-4
-1.240, 1.266e-4
-1.241, 1.266e-4
-1.242, 1.296e-4
-1.243, 1.296e-4
-1.244, 1.327e-4
-1.245, 1.327e-4
-1.246, 1.296e-4
-1.247, 1.296e-4
-1.248, 1.327e-4
-1.249, 1.358e-4
-1.250, 1.389e-4
-1.251, 1.358e-4
-1.252, 1.358e-4
-1.253, 1.358e-4
-1.254, 1.389e-4
-1.255, 1.389e-4
-1.256, 1.420e-4
-1.257, 1.451e-4
-1.258, 1.451e-4
-1.259, 1.451e-4
-1.260, 1.451e-4
-1.261, 1.451e-4
-1.262, 1.481e-4
-1.263, 1.512e-4
-1.264, 1.512e-4
-1.265, 1.512e-4
-1.266, 1.512e-4
-1.267, 1.512e-4
-1.268, 1.543e-4
-1.269, 1.574e-4
-1.270, 1.605e-4
-1.271, 1.636e-4
-1.272, 1.636e-4
-1.273, 1.605e-4
-1.274, 1.636e-4
-1.275, 1.666e-4
-1.276, 1.697e-4
-1.277, 1.728e-4
-1.278, 1.728e-4
-1.279, 1.728e-4
-1.280, 1.728e-4
-1.281, 1.759e-4
-1.282, 1.790e-4
-1.283, 1.821e-4
-1.284, 1.851e-4
-1.285, 1.851e-4
-1.286, 1.851e-4
-1.287, 1.851e-4
-1.288, 1.882e-4
-1.289, 1.944e-4
-1.290, 1.975e-4
-1.291, 2.006e-4
-1.292, 2.006e-4
-1.293, 2.006e-4
-1.294, 2.036e-4
-1.295, 2.098e-4
-1.296, 2.098e-4
-1.297, 2.160e-4
-1.298, 2.160e-4
-1.299, 2.160e-4
-1.300, 2.191e-4
-1.301, 2.221e-4
-1.302, 2.252e-4
-1.303, 2.314e-4
-1.304, 2.345e-4
-1.305, 2.345e-4
-1.306, 2.345e-4
-1.307, 2.376e-4
-1.308, 2.437e-4
-1.309, 2.499e-4
-1.310, 2.530e-4
-1.311, 2.561e-4
-1.312, 2.561e-4
-1.313, 2.591e-4
-1.314, 2.622e-4
-1.315, 2.653e-4
-1.316, 2.715e-4
-1.317, 2.776e-4
-1.318, 2.807e-4
-1.319, 2.807e-4
-1.320, 2.838e-4
-1.321, 2.869e-4
-1.322, 2.931e-4
-1.323, 2.992e-4
-1.324, 3.054e-4
-1.325, 3.085e-4
-1.326, 3.085e-4
-1.327, 3.115e-4
-1.328, 3.177e-4
-1.329, 3.239e-4
-1.330, 3.300e-4
-1.331, 3.362e-4
-1.332, 3.393e-4
-1.333, 3.424e-4
-1.334, 3.455e-4
-1.335, 3.547e-4
-1.336, 3.578e-4
-1.337, 3.670e-4
-1.338, 3.701e-4
-1.339, 3.732e-4
-1.340, 3.794e-4
-1.341, 3.825e-4
-1.342, 3.917e-4
-1.343, 3.979e-4
-1.344, 4.040e-4
-1.345, 4.071e-4
-1.346, 4.133e-4
-1.347, 4.164e-4
-1.348, 4.256e-4
-1.349, 4.318e-4
-1.350, 4.410e-4
-1.351, 4.472e-4
-1.352, 4.503e-4
-1.353, 4.565e-4
-1.354, 4.626e-4
-1.355, 4.688e-4
-1.356, 4.811e-4
-1.357, 4.873e-4
-1.358, 4.935e-4
-1.359, 4.996e-4
-1.360, 5.058e-4
-1.361, 5.120e-4
-1.362, 5.212e-4
-1.363, 5.305e-4
-1.364, 5.397e-4
-1.365, 5.459e-4
-1.366, 5.520e-4
-1.367, 5.582e-4
-1.368, 5.674e-4
-1.369, 5.767e-4
-1.370, 5.890e-4
-1.371, 5.983e-4
-1.372, 6.044e-4
-1.373, 6.106e-4
-1.374, 6.168e-4
-1.375, 6.291e-4
-1.376, 6.384e-4
-1.377, 6.507e-4
-1.378, 6.599e-4
-1.379, 6.661e-4
-1.380, 6.754e-4
-1.381, 6.846e-4
-1.382, 6.969e-4
-1.383, 7.093e-4
-1.384, 7.185e-4
-1.385, 7.278e-4
-1.386, 7.370e-4
-1.387, 7.463e-4
-1.388, 7.586e-4
-1.389, 7.709e-4
-1.390, 7.833e-4
-1.391, 7.956e-4
-1.392, 8.048e-4
-1.393, 8.141e-4
-1.394, 8.264e-4
-1.395, 8.388e-4
-1.396, 8.542e-4
-1.397, 8.665e-4
-1.398, 8.788e-4
-1.399, 8.850e-4
-1.400, 8.973e-4
-1.401, 9.128e-4
-1.402, 9.251e-4
-1.403, 9.405e-4
-1.404, 9.528e-4
-1.405, 9.652e-4
-1.406, 9.775e-4
-1.407, 9.898e-4
-1.408, 1.005e-3
-1.409, 1.021e-3
-1.410, 1.033e-3
-1.411, 1.051e-3
-1.412, 1.061e-3
-1.413, 1.076e-3
-1.414, 1.088e-3
-1.415, 1.104e-3
-1.416, 1.119e-3
-1.417, 1.138e-3
-1.418, 1.153e-3
-1.419, 1.166e-3
-1.420, 1.181e-3
-1.421, 1.196e-3
-1.422, 1.212e-3
-1.423, 1.227e-3
-1.424, 1.246e-3
-1.425, 1.261e-3
-1.426, 1.277e-3
-1.427, 1.292e-3
-1.428, 1.310e-3
-1.429, 1.326e-3
-1.430, 1.347e-3
-1.431, 1.363e-3
-1.432, 1.381e-3
-1.433, 1.397e-3
-1.434, 1.415e-3
-1.435, 1.434e-3
-1.436, 1.452e-3
-1.437, 1.474e-3
-1.438, 1.492e-3
-1.439, 1.505e-3
-1.440, 1.520e-3
-1.441, 1.545e-3
-1.442, 1.566e-3
-1.443, 1.591e-3
-1.444, 1.610e-3
-1.445, 1.631e-3
-1.446, 1.647e-3
-1.447, 1.665e-3
-1.448, 1.687e-3
-1.449, 1.708e-3
-1.450, 1.730e-3
-1.451, 1.754e-3
-1.452, 1.773e-3
-1.453, 1.791e-3
-1.454, 1.813e-3
-1.455, 1.835e-3
-1.456, 1.856e-3
-1.457, 1.881e-3
-1.458, 1.902e-3
-1.459, 1.921e-3
-1.460, 1.946e-3
-1.461, 1.967e-3
-1.462, 1.992e-3
-1.463, 2.017e-3
-1.464, 2.041e-3
-1.465, 2.063e-3
-1.466, 2.087e-3
-1.467, 2.109e-3
-1.468, 2.134e-3
-1.469, 2.161e-3
-1.470, 2.186e-3
-1.471, 2.214e-3
-1.472, 2.235e-3
-1.473, 2.260e-3
-1.474, 2.285e-3
-1.475, 2.309e-3
-1.476, 2.337e-3
-1.477, 2.362e-3
-1.478, 2.386e-3
-1.479, 2.411e-3
-1.480, 2.436e-3
-1.481, 2.464e-3
-1.482, 2.491e-3
-1.483, 2.519e-3
-1.484, 2.550e-3
-1.485, 2.575e-3
-1.486, 2.602e-3
-1.487, 2.627e-3
-1.488, 2.658e-3
-1.489, 2.689e-3
-1.490, 2.719e-3
-1.491, 2.747e-3
-1.492, 2.775e-3
-1.493, 2.800e-3
-1.494, 2.830e-3
-1.495, 2.861e-3
-1.496, 2.892e-3
-1.497, 2.926e-3
-1.498, 2.957e-3
-1.499, 2.985e-3
-1.500, 3.012e-3
-1.501, 3.043e-3
-1.502, 3.074e-3
-1.503, 3.111e-3
-1.504, 3.142e-3
-1.505, 3.173e-3
-1.506, 3.204e-3
-1.507, 3.231e-3
-1.508, 3.265e-3
-1.509, 3.299e-3
-1.510, 3.336e-3
-1.511, 3.370e-3
-1.512, 3.401e-3
-1.513, 3.429e-3
-1.514, 3.462e-3
-1.515, 3.496e-3
-1.516, 3.533e-3
-1.517, 3.570e-3
-1.518, 3.604e-3
-1.519, 3.635e-3
-1.520, 3.669e-3
-1.521, 3.706e-3
-1.522, 3.737e-3
-1.523, 3.777e-3
-1.524, 3.814e-3
-1.525, 3.848e-3
-1.526, 3.882e-3
-1.527, 3.916e-3
-1.528, 3.950e-3
-1.529, 3.993e-3
-1.530, 4.030e-3
-1.531, 4.067e-3
-1.532, 4.104e-3
-1.533, 4.138e-3
-1.534, 4.172e-3
-1.535, 4.212e-3
-1.536, 4.249e-3
-1.537, 4.289e-3
-1.538, 4.329e-3
-1.539, 4.363e-3
-1.540, 4.403e-3
-1.541, 4.440e-3
-1.542, 4.480e-3
-1.543, 4.520e-3
-1.544, 4.554e-3
-1.545, 4.591e-3
-1.546, 4.634e-3
-1.547, 4.680e-3
-1.548, 4.723e-3
-1.549, 4.767e-3
-1.550, 4.804e-3
-1.551, 4.838e-3
-1.552, 4.871e-3
-1.553, 4.915e-3
-1.554, 4.961e-3
-1.555, 5.004e-3
-1.556, 5.050e-3
-1.557, 5.093e-3
-1.558, 5.137e-3
-1.559, 5.177e-3
-1.560, 5.217e-3
-1.561, 5.260e-3
-1.562, 5.306e-3
-1.563, 5.352e-3
-1.564, 5.396e-3
-1.565, 5.439e-3
-1.566, 5.482e-3
-1.567, 5.528e-3
-1.568, 5.574e-3
-1.569, 5.621e-3
-1.570, 5.673e-3
-1.571, 5.719e-3
-1.572, 5.766e-3
-1.573, 5.809e-3
-1.574, 5.855e-3
-1.575, 5.904e-3
-1.576, 5.954e-3
-1.577, 6.006e-3
-1.578, 6.052e-3
-1.579, 6.099e-3
-1.580, 6.145e-3
-1.581, 6.188e-3
-1.582, 6.237e-3
-1.583, 6.290e-3
-1.584, 6.339e-3
-1.585, 6.388e-3
-1.586, 6.438e-3
-1.587, 6.487e-3
-1.588, 6.536e-3
-1.589, 6.589e-3
-1.590, 6.641e-3
-1.591, 6.694e-3
-1.592, 6.743e-3
-1.593, 6.795e-3
-1.594, 6.848e-3
-1.595, 6.900e-3
-1.596, 6.956e-3
-1.597, 7.011e-3
-1.598, 7.067e-3
-1.599, 7.122e-3
-1.600, 7.094e-3
-1.599, 6.990e-3
-1.598, 6.912e-3
-1.597, 6.838e-3
-1.596, 6.761e-3
-1.595, 6.687e-3
-1.594, 6.620e-3
-1.593, 6.564e-3
-1.592, 6.512e-3
-1.591, 6.453e-3
-1.590, 6.391e-3
-1.589, 6.324e-3
-1.588, 6.256e-3
-1.587, 6.191e-3
-1.586, 6.132e-3
-1.585, 6.074e-3
-1.584, 6.018e-3
-1.583, 5.960e-3
-1.582, 5.901e-3
-1.581, 5.836e-3
-1.580, 5.772e-3
-1.579, 5.710e-3
-1.578, 5.655e-3
-1.577, 5.599e-3
-1.576, 5.544e-3
-1.575, 5.488e-3
-1.574, 5.430e-3
-1.573, 5.374e-3
-1.572, 5.319e-3
-1.571, 5.272e-3
-1.570, 5.220e-3
-1.569, 5.171e-3
-1.568, 5.118e-3
-1.567, 5.063e-3
-1.566, 5.010e-3
-1.565, 4.964e-3
-1.564, 4.915e-3
-1.563, 4.868e-3
-1.562, 4.822e-3
-1.561, 4.773e-3
-1.560, 4.723e-3
-1.559, 4.677e-3
-1.558, 4.631e-3
-1.557, 4.588e-3
-1.556, 4.542e-3
-1.555, 4.495e-3
-1.554, 4.449e-3
-1.553, 4.400e-3
-1.552, 4.360e-3
-1.551, 4.317e-3
-1.550, 4.276e-3
-1.549, 4.230e-3
-1.548, 4.187e-3
-1.547, 4.144e-3
-1.546, 4.101e-3
-1.545, 4.061e-3
-1.544, 4.021e-3
-1.543, 3.980e-3
-1.542, 3.940e-3
-1.541, 3.900e-3
-1.540, 3.860e-3
-1.539, 3.823e-3
-1.538, 3.789e-3
-1.537, 3.752e-3
-1.536, 3.715e-3
-1.535, 3.675e-3
-1.534, 3.635e-3
-1.533, 3.598e-3
-1.532, 3.564e-3
-1.531, 3.530e-3
-1.530, 3.496e-3
-1.529, 3.462e-3
-1.528, 3.425e-3
-1.527, 3.388e-3
-1.526, 3.351e-3
-1.525, 3.321e-3
-1.524, 3.290e-3
-1.523, 3.256e-3
-1.522, 3.222e-3
-1.521, 3.188e-3
-1.520, 3.151e-3
-1.519, 3.120e-3
-1.518, 3.089e-3
-1.517, 3.059e-3
-1.516, 3.031e-3
-1.515, 2.997e-3
-1.514, 2.966e-3
-1.513, 2.932e-3
-1.512, 2.904e-3
-1.511, 2.877e-3
-1.510, 2.849e-3
-1.509, 2.821e-3
-1.508, 2.790e-3
-1.507, 2.760e-3
-1.506, 2.732e-3
-1.505, 2.704e-3
-1.504, 2.679e-3
-1.503, 2.652e-3
-1.502, 2.624e-3
-1.501, 2.596e-3
-1.500, 2.565e-3
-1.499, 2.541e-3
-1.498, 2.516e-3
-1.497, 2.491e-3
-1.496, 2.467e-3
-1.495, 2.439e-3
-1.494, 2.411e-3
-1.493, 2.383e-3
-1.492, 2.359e-3
-1.491, 2.337e-3
-1.490, 2.312e-3
-1.489, 2.288e-3
-1.488, 2.263e-3
-1.487, 2.235e-3
-1.486, 2.211e-3
-1.485, 2.186e-3
-1.484, 2.164e-3
-1.483, 2.143e-3
-1.482, 2.121e-3
-1.481, 2.094e-3
-1.480, 2.072e-3
-1.479, 2.050e-3
-1.478, 2.029e-3
-1.477, 2.007e-3
-1.476, 1.986e-3
-1.475, 1.961e-3
-1.474, 1.939e-3
-1.473, 1.918e-3
-1.472, 1.896e-3
-1.471, 1.875e-3
-1.470, 1.856e-3
-1.469, 1.838e-3
-1.468, 1.813e-3
-1.467, 1.788e-3
-1.466, 1.767e-3
-1.465, 1.748e-3
-1.464, 1.733e-3
-1.463, 1.714e-3
-1.462, 1.693e-3
-1.461, 1.671e-3
-1.460, 1.650e-3
-1.459, 1.631e-3
-1.458, 1.613e-3
-1.457, 1.594e-3
-1.456, 1.579e-3
-1.455, 1.557e-3
-1.454, 1.539e-3
-1.453, 1.517e-3
-1.452, 1.499e-3
-1.451, 1.483e-3
-1.450, 1.468e-3
-1.449, 1.446e-3
-1.448, 1.428e-3
-1.447, 1.409e-3
-1.446, 1.391e-3
-1.445, 1.375e-3
-1.444, 1.360e-3
-1.443, 1.344e-3
-1.442, 1.326e-3
-1.441, 1.304e-3
-1.440, 1.286e-3
-1.439, 1.270e-3
-1.438, 1.258e-3
-1.437, 1.243e-3
-1.436, 1.227e-3
-1.435, 1.209e-3
-1.434, 1.190e-3
-1.433, 1.175e-3
-1.432, 1.159e-3
-1.431, 1.147e-3
-1.430, 1.132e-3
-1.429, 1.116e-3
-1.428, 1.098e-3
-1.427, 1.082e-3
-1.426, 1.067e-3
-1.425, 1.051e-3
-1.424, 1.039e-3
-1.423, 1.027e-3
-1.422, 1.011e-3
-1.421, 9.960e-4
-1.420, 9.775e-4
-1.419, 9.652e-4
-1.418, 9.559e-4
-1.417, 9.436e-4
-1.416, 9.282e-4
-1.415, 9.128e-4
-1.414, 8.973e-4
-1.413, 8.850e-4
-1.412, 8.696e-4
-1.411, 8.603e-4
-1.410, 8.480e-4
-1.409, 8.357e-4
-1.408, 8.203e-4
-1.407, 8.048e-4
-1.406, 7.925e-4
-1.405, 7.802e-4
-1.404, 7.709e-4
-1.403, 7.586e-4
-1.402, 7.463e-4
-1.401, 7.309e-4
-1.400, 7.185e-4
-1.399, 7.062e-4
-1.398, 6.969e-4
-1.397, 6.877e-4
-1.396, 6.754e-4
-1.395, 6.630e-4
-1.394, 6.507e-4
-1.393, 6.384e-4
-1.392, 6.291e-4
-1.391, 6.199e-4
-1.390, 6.106e-4
-1.389, 5.983e-4
-1.388, 5.859e-4
-1.387, 5.736e-4
-1.386, 5.644e-4
-1.385, 5.520e-4
-1.384, 5.459e-4
-1.383, 5.366e-4
-1.382, 5.243e-4
-1.381, 5.120e-4
-1.380, 4.996e-4
-1.379, 4.935e-4
-1.378, 4.842e-4
-1.377, 4.750e-4
-1.376, 4.688e-4
-1.375, 4.565e-4
-1.374, 4.441e-4
-1.373, 4.349e-4
-1.372, 4.256e-4
-1.371, 4.195e-4
-1.370, 4.133e-4
-1.369, 4.040e-4
-1.368, 3.948e-4
-1.367, 3.825e-4
-1.366, 3.732e-4
-1.365, 3.670e-4
-1.364, 3.609e-4
-1.363, 3.516e-4
-1.362, 3.455e-4
-1.361, 3.331e-4
-1.360, 3.239e-4
-1.359, 3.177e-4
-1.358, 3.115e-4
-1.357, 3.054e-4
-1.356, 2.992e-4
-1.355, 2.869e-4
-1.354, 2.807e-4
-1.353, 2.715e-4
-1.352, 2.653e-4
-1.351, 2.591e-4
-1.350, 2.561e-4
-1.349, 2.468e-4
-1.348, 2.376e-4
-1.347, 2.314e-4
-1.346, 2.221e-4
-1.345, 2.191e-4
-1.344, 2.129e-4
-1.343, 2.067e-4
-1.342, 2.006e-4
-1.341, 1.913e-4
-1.340, 1.821e-4
-1.339, 1.790e-4
-1.338, 1.759e-4
-1.337, 1.697e-4
-1.336, 1.636e-4
-1.335, 1.574e-4
-1.334, 1.481e-4
-1.333, 1.420e-4
-1.332, 1.358e-4
-1.331, 1.358e-4
-1.330, 1.296e-4
-1.329, 1.235e-4
-1.328, 1.173e-4
-1.327, 1.111e-4
-1.326, 1.050e-4
-1.325, 1.019e-4
-1.324, 9.882e-5
-1.323, 9.265e-5
-1.322, 8.957e-5
-1.321, 8.340e-5
-1.320, 7.723e-5
-1.319, 7.415e-5
-1.318, 7.107e-5
-1.317, 6.798e-5
-1.316, 6.182e-5
-1.315, 5.565e-5
-1.314, 4.949e-5
-1.313, 4.640e-5
-1.312, 4.332e-5
-1.311, 4.024e-5
-1.310, 3.715e-5
-1.309, 3.407e-5
-1.308, 2.790e-5
-1.307, 2.174e-5
-1.306, 1.865e-5
-1.305, 1.557e-5
-1.304, 1.249e-5
-1.303, 9.405e-6
-1.302, 6.322e-6
-1.301, 3.239e-6
-1.300, -2.927e-6
-1.299, -6.010e-6
-1.298, -6.010e-6
-1.297, -9.093e-6
-1.296, -1.218e-5
-1.295, -1.526e-5
-1.294, -2.143e-5
-1.293, -2.451e-5
-1.292, -2.759e-5
-1.291, -2.759e-5
-1.290, -3.068e-5
-1.289, -3.376e-5
-1.288, -3.684e-5
-1.287, -4.301e-5
-1.286, -4.609e-5
-1.285, -4.609e-5
-1.284, -4.609e-5
-1.283, -4.917e-5
-1.282, -5.226e-5
-1.281, -5.534e-5
-1.280, -5.842e-5
-1.279, -6.151e-5
-1.278, -6.151e-5
-1.277, -6.151e-5
-1.276, -6.459e-5
-1.275, -6.767e-5
-1.274, -7.076e-5
-1.273, -7.384e-5
-1.272, -7.384e-5
-1.271, -7.384e-5
-1.270, -7.384e-5
-1.269, -7.692e-5
-1.268, -8.000e-5
-1.267, -8.309e-5
-1.266, -8.309e-5
-1.265, -8.617e-5
-1.264, -8.617e-5
-1.263, -8.617e-5
-1.262, -8.925e-5
-1.261, -9.234e-5
-1.260, -9.542e-5
-1.259, -9.542e-5
-1.258, -9.234e-5
-1.257, -9.542e-5
-1.256, -9.542e-5
-1.255, -9.850e-5
-1.254, -1.016e-4
-1.253, -1.016e-4
-1.252, -1.016e-4
-1.251, -1.016e-4
-1.250, -1.016e-4
-1.249, -1.047e-4
-1.248, -1.078e-4
-1.247, -1.108e-4
-1.246, -1.108e-4
-1.245, -1.078e-4
-1.244, -1.078e-4
-1.243, -1.078e-4
-1.242, -1.078e-4
-1.241, -1.139e-4
-1.240, -1.139e-4
-1.239, -1.139e-4
-1.238, -1.139e-4
-1.237, -1.108e-4
-1.236, -1.139e-4
-1.235, -1.170e-4
-1.234, -1.170e-4
-1.233, -1.170e-4
-1.232, -1.170e-4
-1.231, -1.170e-4
-1.230, -1.170e-4
-1.229, -1.201e-4
-1.228, -1.201e-4
-1.227, -1.232e-4
-1.226, -1.232e-4
-1.225, -1.232e-4
-1.224, -1.201e-4
-1.223, -1.201e-4
-1.222, -1.232e-4
-1.221, -1.232e-4
-1.220, -1.263e-4
-1.219, -1.263e-4
-1.218, -1.232e-4
-1.217, -1.232e-4
-1.216, -1.232e-4
-1.215, -1.263e-4
-1.214, -1.263e-4
-1.213, -1.263e-4
-1.212, -1.263e-4
-1.211, -1.232e-4
-1.210, -1.232e-4
-1.209, -1.263e-4
-1.208, -1.263e-4
-1.207, -1.293e-4
-1.206, -1.293e-4
-1.205, -1.263e-4
-1.204, -1.263e-4
-1.203, -1.263e-4
-1.202, -1.263e-4
-1.201, -1.293e-4
-1.200, -1.293e-4
-1.199, -1.293e-4
-1.198, -1.293e-4
-1.197, -1.263e-4
-1.196, -1.263e-4
-1.195, -1.293e-4
-1.194, -1.293e-4
-1.193, -1.324e-4
-1.192, -1.293e-4
-1.191, -1.293e-4
-1.190, -1.293e-4
-1.189, -1.293e-4
-1.188, -1.324e-4
-1.187, -1.324e-4
-1.186, -1.324e-4
-1.185, -1.324e-4
-1.184, -1.293e-4
-1.183, -1.263e-4
-1.182, -1.293e-4
-1.181, -1.324e-4
-1.180, -1.324e-4
-1.179, -1.324e-4
-1.178, -1.293e-4
-1.177, -1.293e-4
-1.176, -1.293e-4
-1.175, -1.324e-4
-1.174, -1.324e-4
-1.173, -1.324e-4
-1.172, -1.324e-4
-1.171, -1.293e-4
-1.170, -1.293e-4
-1.169, -1.324e-4
-1.168, -1.324e-4
-1.167, -1.355e-4
-1.166, -1.324e-4
-1.165, -1.324e-4
-1.164, -1.293e-4
-1.163, -1.293e-4
-1.162, -1.324e-4
-1.161, -1.355e-4
-1.160, -1.324e-4
-1.159, -1.324e-4
-1.158, -1.324e-4
-1.157, -1.293e-4
-1.156, -1.293e-4
-1.155, -1.324e-4
-1.154, -1.355e-4
-1.153, -1.355e-4
-1.152, -1.324e-4
-1.151, -1.324e-4
-1.150, -1.293e-4
-1.149, -1.324e-4
-1.148, -1.355e-4
-1.147, -1.355e-4
-1.146, -1.355e-4
-1.145, -1.324e-4
-1.144, -1.324e-4
-1.143, -1.324e-4
-1.142, -1.324e-4
-1.141, -1.355e-4
-1.140, -1.355e-4
-1.139, -1.355e-4
-1.138, -1.324e-4
-1.137, -1.324e-4
-1.136, -1.324e-4
-1.135, -1.355e-4
-1.134, -1.355e-4
-1.133, -1.355e-4
-1.132, -1.355e-4
-1.131, -1.324e-4
-1.130, -1.324e-4
-1.129, -1.324e-4
-1.128, -1.355e-4
-1.127, -1.355e-4
-1.126, -1.386e-4
-1.125, -1.355e-4
-1.124, -1.324e-4
-1.123, -1.324e-4
-1.122, -1.355e-4
-1.121, -1.386e-4
-1.120, -1.386e-4
-1.119, -1.355e-4
-1.118, -1.355e-4
-1.117, -1.324e-4
-1.116, -1.355e-4
-1.115, -1.355e-4
-1.114, -1.355e-4
-1.113, -1.386e-4
-1.112, -1.355e-4
-1.111, -1.355e-4
-1.110, -1.355e-4
-1.109, -1.355e-4
-1.108, -1.386e-4
-1.107, -1.386e-4
-1.106, -1.386e-4
-1.105, -1.355e-4
-1.104, -1.324e-4
-1.103, -1.355e-4
-1.102, -1.355e-4
-1.101, -1.386e-4
-1.100, -1.386e-4
-1.099, -1.386e-4
-1.098, -1.355e-4
-1.097, -1.355e-4
-1.096, -1.355e-4
-1.095, -1.355e-4
-1.094, -1.417e-4
-1.093, -1.417e-4
-1.092, -1.386e-4
-1.091, -1.386e-4
-1.090, -1.355e-4
-1.089, -1.386e-4
-1.088, -1.386e-4
-1.087, -1.386e-4
-1.086, -1.386e-4
-1.085, -1.386e-4
-1.084, -1.355e-4
-1.083, -1.386e-4
-1.082, -1.386e-4
-1.081, -1.417e-4
-1.080, -1.417e-4
-1.079, -1.417e-4
-1.078, -1.386e-4
-1.077, -1.355e-4
-1.076, -1.386e-4
-1.075, -1.417e-4
-1.074, -1.417e-4
-1.073, -1.417e-4
-1.072, -1.417e-4
-1.071, -1.386e-4
-1.070, -1.386e-4
-1.069, -1.386e-4
-1.068, -1.417e-4
-1.067, -1.448e-4
-1.066, -1.448e-4
-1.065, -1.417e-4
-1.064, -1.417e-4
-1.063, -1.417e-4
-1.062, -1.417e-4
-1.061, -1.417e-4
-1.060, -1.448e-4
-1.059, -1.448e-4
-1.058, -1.417e-4
-1.057, -1.417e-4
-1.056, -1.417e-4
-1.055, -1.417e-4
-1.054, -1.448e-4
-1.053, -1.448e-4
-1.052, -1.448e-4
-1.051, -1.417e-4
-1.050, -1.417e-4
-1.049, -1.417e-4
-1.048, -1.448e-4
-1.047, -1.478e-4
-1.046, -1.478e-4
-1.045, -1.448e-4
-1.044, -1.448e-4
-1.043, -1.448e-4
-1.042, -1.448e-4
-1.041, -1.478e-4
-1.040, -1.478e-4
-1.039, -1.478e-4
-1.038, -1.448e-4
-1.037, -1.448e-4
-1.036, -1.448e-4
-1.035, -1.478e-4
-1.034, -1.478e-4
-1.033, -1.509e-4
-1.032, -1.478e-4
-1.031, -1.478e-4
-1.030, -1.478e-4
-1.029, -1.478e-4
-1.028, -1.509e-4
-1.027, -1.509e-4
-1.026, -1.509e-4
-1.025, -1.509e-4
-1.024, -1.478e-4
-1.023, -1.478e-4
-1.022, -1.509e-4
-1.021, -1.509e-4
-1.020, -1.540e-4
-1.019, -1.540e-4
-1.018, -1.509e-4
-1.017, -1.478e-4
-1.016, -1.509e-4
-1.015, -1.509e-4
-1.014, -1.540e-4
-1.013, -1.540e-4
-1.012, -1.540e-4
-1.011, -1.509e-4
-1.010, -1.509e-4
-1.009, -1.540e-4
-1.008, -1.540e-4
-1.007, -1.571e-4
-1.006, -1.571e-4
-1.005, -1.540e-4
-1.004, -1.540e-4
-1.003, -1.540e-4
-1.002, -1.571e-4
-1.001, -1.571e-4
