Aug. 29, 2024   23:36:42
Linear Sweep Voltammetry
File: c:/users/guazh/data/20240829_batch_215_500/2024-08-29-exp215\post-regen1-2024-08-29t23_33_32-lsvinphos\post-regen1_lsv_50mvs_efin_-2300mv.bin
Data Source:  Experiment
Instrument Model:  CHI760E
Header: LSV ran at 50 mVs with Efin at -2300mV
Note: 

Init E (V) = -0.6
Final E (V) = -2.3
Scan Rate (V/s) = 0.05
Sample Interval (V) = 0.001
Quiet Time (sec) = 2
Sensitivity (A/V) = 1e-4
Comp R (ohm) = 6.6

Results:

Channel 1:
Ep = -2.139V
ip = 5.474e-4A
Ah = 8.484e-4C

Potential/V, Current/A

-0.600, 2.716e-6
-0.601, 2.809e-6
-0.602, 2.861e-6
-0.603, 2.899e-6
-0.604, 2.931e-6
-0.605, 2.963e-6
-0.606, 2.991e-6
-0.607, 3.020e-6
-0.608, 3.049e-6
-0.609, 3.076e-6
-0.610, 3.104e-6
-0.611, 3.132e-6
-0.612, 3.160e-6
-0.613, 3.186e-6
-0.614, 3.213e-6
-0.615, 3.240e-6
-0.616, 3.267e-6
-0.617, 3.297e-6
-0.618, 3.323e-6
-0.619, 3.351e-6
-0.620, 3.379e-6
-0.621, 3.405e-6
-0.622, 3.431e-6
-0.623, 3.458e-6
-0.624, 3.484e-6
-0.625, 3.510e-6
-0.626, 3.535e-6
-0.627, 3.562e-6
-0.628, 3.590e-6
-0.629, 3.616e-6
-0.630, 3.644e-6
-0.631, 3.670e-6
-0.632, 3.697e-6
-0.633, 3.725e-6
-0.634, 3.751e-6
-0.635, 3.779e-6
-0.636, 3.805e-6
-0.637, 3.834e-6
-0.638, 3.862e-6
-0.639, 3.889e-6
-0.640, 3.919e-6
-0.641, 3.944e-6
-0.642, 3.972e-6
-0.643, 4.000e-6
-0.644, 4.028e-6
-0.645, 4.055e-6
-0.646, 4.084e-6
-0.647, 4.112e-6
-0.648, 4.140e-6
-0.649, 4.168e-6
-0.650, 4.195e-6
-0.651, 4.221e-6
-0.652, 4.250e-6
-0.653, 4.278e-6
-0.654, 4.307e-6
-0.655, 4.336e-6
-0.656, 4.364e-6
-0.657, 4.394e-6
-0.658, 4.422e-6
-0.659, 4.452e-6
-0.660, 4.481e-6
-0.661, 4.510e-6
-0.662, 4.542e-6
-0.663, 4.570e-6
-0.664, 4.600e-6
-0.665, 4.629e-6
-0.666, 4.660e-6
-0.667, 4.691e-6
-0.668, 4.720e-6
-0.669, 4.749e-6
-0.670, 4.779e-6
-0.671, 4.808e-6
-0.672, 4.839e-6
-0.673, 4.869e-6
-0.674, 4.896e-6
-0.675, 4.927e-6
-0.676, 4.956e-6
-0.677, 4.986e-6
-0.678, 5.018e-6
-0.679, 5.047e-6
-0.680, 5.079e-6
-0.681, 5.108e-6
-0.682, 5.138e-6
-0.683, 5.168e-6
-0.684, 5.198e-6
-0.685, 5.228e-6
-0.686, 5.259e-6
-0.687, 5.289e-6
-0.688, 5.318e-6
-0.689, 5.349e-6
-0.690, 5.379e-6
-0.691, 5.410e-6
-0.692, 5.439e-6
-0.693, 5.468e-6
-0.694, 5.499e-6
-0.695, 5.529e-6
-0.696, 5.559e-6
-0.697, 5.589e-6
-0.698, 5.618e-6
-0.699, 5.647e-6
-0.700, 5.676e-6
-0.701, 5.705e-6
-0.702, 5.735e-6
-0.703, 5.764e-6
-0.704, 5.795e-6
-0.705, 5.825e-6
-0.706, 5.854e-6
-0.707, 5.881e-6
-0.708, 5.908e-6
-0.709, 5.933e-6
-0.710, 5.962e-6
-0.711, 5.990e-6
-0.712, 6.018e-6
-0.713, 6.047e-6
-0.714, 6.074e-6
-0.715, 6.102e-6
-0.716, 6.129e-6
-0.717, 6.158e-6
-0.718, 6.183e-6
-0.719, 6.207e-6
-0.720, 6.233e-6
-0.721, 6.259e-6
-0.722, 6.283e-6
-0.723, 6.311e-6
-0.724, 6.337e-6
-0.725, 6.362e-6
-0.726, 6.389e-6
-0.727, 6.414e-6
-0.728, 6.439e-6
-0.729, 6.463e-6
-0.730, 6.487e-6
-0.731, 6.511e-6
-0.732, 6.535e-6
-0.733, 6.558e-6
-0.734, 6.582e-6
-0.735, 6.606e-6
-0.736, 6.629e-6
-0.737, 6.654e-6
-0.738, 6.675e-6
-0.739, 6.697e-6
-0.740, 6.717e-6
-0.741, 6.738e-6
-0.742, 6.760e-6
-0.743, 6.781e-6
-0.744, 6.801e-6
-0.745, 6.822e-6
-0.746, 6.840e-6
-0.747, 6.861e-6
-0.748, 6.878e-6
-0.749, 6.896e-6
-0.750, 6.914e-6
-0.751, 6.932e-6
-0.752, 6.950e-6
-0.753, 6.968e-6
-0.754, 6.984e-6
-0.755, 7.005e-6
-0.756, 7.068e-6
-0.757, 7.098e-6
-0.758, 7.108e-6
-0.759, 7.118e-6
-0.760, 7.128e-6
-0.761, 7.139e-6
-0.762, 7.150e-6
-0.763, 7.161e-6
-0.764, 7.170e-6
-0.765, 7.179e-6
-0.766, 7.188e-6
-0.767, 7.199e-6
-0.768, 7.210e-6
-0.769, 7.219e-6
-0.770, 7.227e-6
-0.771, 7.235e-6
-0.772, 7.244e-6
-0.773, 7.250e-6
-0.774, 7.257e-6
-0.775, 7.266e-6
-0.776, 7.273e-6
-0.777, 7.279e-6
-0.778, 7.284e-6
-0.779, 7.290e-6
-0.780, 7.296e-6
-0.781, 7.301e-6
-0.782, 7.307e-6
-0.783, 7.311e-6
-0.784, 7.315e-6
-0.785, 7.320e-6
-0.786, 7.322e-6
-0.787, 7.327e-6
-0.788, 7.328e-6
-0.789, 7.330e-6
-0.790, 7.334e-6
-0.791, 7.335e-6
-0.792, 7.337e-6
-0.793, 7.338e-6
-0.794, 7.338e-6
-0.795, 7.340e-6
-0.796, 7.340e-6
-0.797, 7.340e-6
-0.798, 7.338e-6
-0.799, 7.336e-6
-0.800, 7.336e-6
-0.801, 7.335e-6
-0.802, 7.333e-6
-0.803, 7.330e-6
-0.804, 7.328e-6
-0.805, 7.325e-6
-0.806, 7.322e-6
-0.807, 7.320e-6
-0.808, 7.316e-6
-0.809, 7.312e-6
-0.810, 7.307e-6
-0.811, 7.302e-6
-0.812, 7.298e-6
-0.813, 7.293e-6
-0.814, 7.289e-6
-0.815, 7.283e-6
-0.816, 7.277e-6
-0.817, 7.272e-6
-0.818, 7.265e-6
-0.819, 7.262e-6
-0.820, 7.258e-6
-0.821, 7.249e-6
-0.822, 7.242e-6
-0.823, 7.234e-6
-0.824, 7.227e-6
-0.825, 7.220e-6
-0.826, 7.211e-6
-0.827, 7.204e-6
-0.828, 7.195e-6
-0.829, 7.186e-6
-0.830, 7.178e-6
-0.831, 7.168e-6
-0.832, 7.161e-6
-0.833, 7.151e-6
-0.834, 7.141e-6
-0.835, 7.132e-6
-0.836, 7.121e-6
-0.837, 7.112e-6
-0.838, 7.102e-6
-0.839, 7.092e-6
-0.840, 7.081e-6
-0.841, 7.072e-6
-0.842, 7.062e-6
-0.843, 7.051e-6
-0.844, 7.040e-6
-0.845, 7.032e-6
-0.846, 7.021e-6
-0.847, 7.010e-6
-0.848, 7.000e-6
-0.849, 6.987e-6
-0.850, 6.976e-6
-0.851, 6.966e-6
-0.852, 6.955e-6
-0.853, 6.944e-6
-0.854, 6.933e-6
-0.855, 6.922e-6
-0.856, 6.910e-6
-0.857, 6.900e-6
-0.858, 6.887e-6
-0.859, 6.878e-6
-0.860, 6.867e-6
-0.861, 6.855e-6
-0.862, 6.844e-6
-0.863, 6.831e-6
-0.864, 6.820e-6
-0.865, 6.809e-6
-0.866, 6.796e-6
-0.867, 6.786e-6
-0.868, 6.774e-6
-0.869, 6.761e-6
-0.870, 6.752e-6
-0.871, 6.741e-6
-0.872, 6.730e-6
-0.873, 6.718e-6
-0.874, 6.704e-6
-0.875, 6.694e-6
-0.876, 6.683e-6
-0.877, 6.671e-6
-0.878, 6.660e-6
-0.879, 6.647e-6
-0.880, 6.638e-6
-0.881, 6.626e-6
-0.882, 6.613e-6
-0.883, 6.602e-6
-0.884, 6.591e-6
-0.885, 6.580e-6
-0.886, 6.569e-6
-0.887, 6.558e-6
-0.888, 6.546e-6
-0.889, 6.535e-6
-0.890, 6.524e-6
-0.891, 6.512e-6
-0.892, 6.502e-6
-0.893, 6.489e-6
-0.894, 6.479e-6
-0.895, 6.468e-6
-0.896, 6.460e-6
-0.897, 6.449e-6
-0.898, 6.438e-6
-0.899, 6.426e-6
-0.900, 6.418e-6
-0.901, 6.406e-6
-0.902, 6.396e-6
-0.903, 6.386e-6
-0.904, 6.374e-6
-0.905, 6.366e-6
-0.906, 6.354e-6
-0.907, 6.344e-6
-0.908, 6.334e-6
-0.909, 6.324e-6
-0.910, 6.315e-6
-0.911, 6.304e-6
-0.912, 6.295e-6
-0.913, 6.284e-6
-0.914, 6.274e-6
-0.915, 6.265e-6
-0.916, 6.256e-6
-0.917, 6.245e-6
-0.918, 6.237e-6
-0.919, 6.227e-6
-0.920, 6.219e-6
-0.921, 6.210e-6
-0.922, 6.202e-6
-0.923, 6.193e-6
-0.924, 6.183e-6
-0.925, 6.175e-6
-0.926, 6.166e-6
-0.927, 6.158e-6
-0.928, 6.149e-6
-0.929, 6.140e-6
-0.930, 6.131e-6
-0.931, 6.124e-6
-0.932, 6.114e-6
-0.933, 6.106e-6
-0.934, 6.097e-6
-0.935, 6.089e-6
-0.936, 6.081e-6
-0.937, 6.073e-6
-0.938, 6.064e-6
-0.939, 6.056e-6
-0.940, 6.048e-6
-0.941, 6.040e-6
-0.942, 6.031e-6
-0.943, 6.023e-6
-0.944, 6.015e-6
-0.945, 6.008e-6
-0.946, 5.999e-6
-0.947, 5.993e-6
-0.948, 5.984e-6
-0.949, 5.976e-6
-0.950, 5.970e-6
-0.951, 5.961e-6
-0.952, 5.955e-6
-0.953, 5.947e-6
-0.954, 5.940e-6
-0.955, 5.934e-6
-0.956, 5.927e-6
-0.957, 5.920e-6
-0.958, 5.914e-6
-0.959, 5.906e-6
-0.960, 5.901e-6
-0.961, 5.894e-6
-0.962, 5.889e-6
-0.963, 5.881e-6
-0.964, 5.874e-6
-0.965, 5.868e-6
-0.966, 5.862e-6
-0.967, 5.857e-6
-0.968, 5.849e-6
-0.969, 5.842e-6
-0.970, 5.836e-6
-0.971, 5.829e-6
-0.972, 5.823e-6
-0.973, 5.819e-6
-0.974, 5.813e-6
-0.975, 5.805e-6
-0.976, 5.798e-6
-0.977, 5.793e-6
-0.978, 5.786e-6
-0.979, 5.781e-6
-0.980, 5.775e-6
-0.981, 5.768e-6
-0.982, 5.763e-6
-0.983, 5.756e-6
-0.984, 5.750e-6
-0.985, 5.745e-6
-0.986, 5.738e-6
-0.987, 5.734e-6
-0.988, 5.727e-6
-0.989, 5.722e-6
-0.990, 5.716e-6
-0.991, 5.710e-6
-0.992, 5.706e-6
-0.993, 5.699e-6
-0.994, 5.692e-6
-0.995, 5.689e-6
-0.996, 5.682e-6
-0.997, 5.677e-6
-0.998, 5.673e-6
-0.999, 5.668e-6
-1.000, 5.663e-6
-1.001, 5.657e-6
-1.002, 5.652e-6
-1.003, 5.647e-6
-1.004, 5.643e-6
-1.005, 5.638e-6
-1.006, 5.634e-6
-1.007, 5.628e-6
-1.008, 5.623e-6
-1.009, 5.619e-6
-1.010, 5.614e-6
-1.011, 5.610e-6
-1.012, 5.606e-6
-1.013, 5.600e-6
-1.014, 5.595e-6
-1.015, 5.591e-6
-1.016, 5.586e-6
-1.017, 5.582e-6
-1.018, 5.578e-6
-1.019, 5.572e-6
-1.020, 5.567e-6
-1.021, 5.563e-6
-1.022, 5.560e-6
-1.023, 5.554e-6
-1.024, 5.552e-6
-1.025, 5.548e-6
-1.026, 5.543e-6
-1.027, 5.540e-6
-1.028, 5.535e-6
-1.029, 5.530e-6
-1.030, 5.527e-6
-1.031, 5.523e-6
-1.032, 5.519e-6
-1.033, 5.516e-6
-1.034, 5.510e-6
-1.035, 5.507e-6
-1.036, 5.503e-6
-1.037, 5.500e-6
-1.038, 5.495e-6
-1.039, 5.492e-6
-1.040, 5.489e-6
-1.041, 5.484e-6
-1.042, 5.481e-6
-1.043, 5.478e-6
-1.044, 5.474e-6
-1.045, 5.471e-6
-1.046, 5.468e-6
-1.047, 5.464e-6
-1.048, 5.459e-6
-1.049, 5.457e-6
-1.050, 5.453e-6
-1.051, 5.450e-6
-1.052, 5.447e-6
-1.053, 5.443e-6
-1.054, 5.440e-6
-1.055, 5.438e-6
-1.056, 5.434e-6
-1.057, 5.432e-6
-1.058, 5.427e-6
-1.059, 5.425e-6
-1.060, 5.423e-6
-1.061, 5.420e-6
-1.062, 5.418e-6
-1.063, 5.415e-6
-1.064, 5.412e-6
-1.065, 5.409e-6
-1.066, 5.406e-6
-1.067, 5.403e-6
-1.068, 5.401e-6
-1.069, 5.398e-6
-1.070, 5.397e-6
-1.071, 5.393e-6
-1.072, 5.392e-6
-1.073, 5.388e-6
-1.074, 5.386e-6
-1.075, 5.385e-6
-1.076, 5.384e-6
-1.077, 5.381e-6
-1.078, 5.378e-6
-1.079, 5.376e-6
-1.080, 5.374e-6
-1.081, 5.371e-6
-1.082, 5.369e-6
-1.083, 5.367e-6
-1.084, 5.366e-6
-1.085, 5.364e-6
-1.086, 5.363e-6
-1.087, 5.359e-6
-1.088, 5.357e-6
-1.089, 5.356e-6
-1.090, 5.354e-6
-1.091, 5.352e-6
-1.092, 5.350e-6
-1.093, 5.347e-6
-1.094, 5.348e-6
-1.095, 5.345e-6
-1.096, 5.343e-6
-1.097, 5.342e-6
-1.098, 5.339e-6
-1.099, 5.337e-6
-1.100, 5.336e-6
-1.101, 5.335e-6
-1.102, 5.335e-6
-1.103, 5.331e-6
-1.104, 5.330e-6
-1.105, 5.329e-6
-1.106, 5.327e-6
-1.107, 5.328e-6
-1.108, 5.326e-6
-1.109, 5.324e-6
-1.110, 5.323e-6
-1.111, 5.322e-6
-1.112, 5.321e-6
-1.113, 5.320e-6
-1.114, 5.319e-6
-1.115, 5.319e-6
-1.116, 5.316e-6
-1.117, 5.316e-6
-1.118, 5.316e-6
-1.119, 5.313e-6
-1.120, 5.314e-6
-1.121, 5.313e-6
-1.122, 5.313e-6
-1.123, 5.312e-6
-1.124, 5.311e-6
-1.125, 5.309e-6
-1.126, 5.310e-6
-1.127, 5.309e-6
-1.128, 5.308e-6
-1.129, 5.308e-6
-1.130, 5.307e-6
-1.131, 5.307e-6
-1.132, 5.307e-6
-1.133, 5.307e-6
-1.134, 5.306e-6
-1.135, 5.306e-6
-1.136, 5.306e-6
-1.137, 5.306e-6
-1.138, 5.304e-6
-1.139, 5.305e-6
-1.140, 5.306e-6
-1.141, 5.306e-6
-1.142, 5.306e-6
-1.143, 5.304e-6
-1.144, 5.305e-6
-1.145, 5.305e-6
-1.146, 5.305e-6
-1.147, 5.306e-6
-1.148, 5.305e-6
-1.149, 5.306e-6
-1.150, 5.306e-6
-1.151, 5.305e-6
-1.152, 5.308e-6
-1.153, 5.307e-6
-1.154, 5.307e-6
-1.155, 5.307e-6
-1.156, 5.308e-6
-1.157, 5.309e-6
-1.158, 5.310e-6
-1.159, 5.309e-6
-1.160, 5.310e-6
-1.161, 5.311e-6
-1.162, 5.311e-6
-1.163, 5.312e-6
-1.164, 5.312e-6
-1.165, 5.313e-6
-1.166, 5.315e-6
-1.167, 5.315e-6
-1.168, 5.316e-6
-1.169, 5.316e-6
-1.170, 5.317e-6
-1.171, 5.318e-6
-1.172, 5.320e-6
-1.173, 5.320e-6
-1.174, 5.321e-6
-1.175, 5.321e-6
-1.176, 5.323e-6
-1.177, 5.324e-6
-1.178, 5.326e-6
-1.179, 5.327e-6
-1.180, 5.327e-6
-1.181, 5.329e-6
-1.182, 5.331e-6
-1.183, 5.331e-6
-1.184, 5.334e-6
-1.185, 5.335e-6
-1.186, 5.335e-6
-1.187, 5.337e-6
-1.188, 5.338e-6
-1.189, 5.339e-6
-1.190, 5.342e-6
-1.191, 5.343e-6
-1.192, 5.344e-6
-1.193, 5.346e-6
-1.194, 5.347e-6
-1.195, 5.350e-6
-1.196, 5.352e-6
-1.197, 5.354e-6
-1.198, 5.354e-6
-1.199, 5.356e-6
-1.200, 5.358e-6
-1.201, 5.360e-6
-1.202, 5.363e-6
-1.203, 5.364e-6
-1.204, 5.368e-6
-1.205, 5.369e-6
-1.206, 5.371e-6
-1.207, 5.373e-6
-1.208, 5.374e-6
-1.209, 5.377e-6
-1.210, 5.379e-6
-1.211, 5.383e-6
-1.212, 5.385e-6
-1.213, 5.385e-6
-1.214, 5.388e-6
-1.215, 5.390e-6
-1.216, 5.393e-6
-1.217, 5.397e-6
-1.218, 5.398e-6
-1.219, 5.401e-6
-1.220, 5.401e-6
-1.221, 5.405e-6
-1.222, 5.409e-6
-1.223, 5.410e-6
-1.224, 5.414e-6
-1.225, 5.417e-6
-1.226, 5.418e-6
-1.227, 5.423e-6
-1.228, 5.430e-6
-1.229, 5.435e-6
-1.230, 5.436e-6
-1.231, 5.437e-6
-1.232, 5.440e-6
-1.233, 5.440e-6
-1.234, 5.443e-6
-1.235, 5.446e-6
-1.236, 5.449e-6
-1.237, 5.452e-6
-1.238, 5.454e-6
-1.239, 5.457e-6
-1.240, 5.461e-6
-1.241, 5.464e-6
-1.242, 5.467e-6
-1.243, 5.471e-6
-1.244, 5.474e-6
-1.245, 5.476e-6
-1.246, 5.481e-6
-1.247, 5.484e-6
-1.248, 5.487e-6
-1.249, 5.492e-6
-1.250, 5.495e-6
-1.251, 5.499e-6
-1.252, 5.502e-6
-1.253, 5.505e-6
-1.254, 5.511e-6
-1.255, 5.515e-6
-1.256, 5.519e-6
-1.257, 5.524e-6
-1.258, 5.526e-6
-1.259, 5.531e-6
-1.260, 5.534e-6
-1.261, 5.538e-6
-1.262, 5.543e-6
-1.263, 5.546e-6
-1.264, 5.551e-6
-1.265, 5.555e-6
-1.266, 5.558e-6
-1.267, 5.563e-6
-1.268, 5.567e-6
-1.269, 5.571e-6
-1.270, 5.575e-6
-1.271, 5.577e-6
-1.272, 5.581e-6
-1.273, 5.586e-6
-1.274, 5.590e-6
-1.275, 5.594e-6
-1.276, 5.600e-6
-1.277, 5.603e-6
-1.278, 5.607e-6
-1.279, 5.610e-6
-1.280, 5.617e-6
-1.281, 5.623e-6
-1.282, 5.627e-6
-1.283, 5.631e-6
-1.284, 5.635e-6
-1.285, 5.638e-6
-1.286, 5.643e-6
-1.287, 5.647e-6
-1.288, 5.651e-6
-1.289, 5.657e-6
-1.290, 5.660e-6
-1.291, 5.664e-6
-1.292, 5.670e-6
-1.293, 5.674e-6
-1.294, 5.680e-6
-1.295, 5.684e-6
-1.296, 5.688e-6
-1.297, 5.695e-6
-1.298, 5.698e-6
-1.299, 5.704e-6
-1.300, 5.708e-6
-1.301, 5.713e-6
-1.302, 5.720e-6
-1.303, 5.723e-6
-1.304, 5.729e-6
-1.305, 5.735e-6
-1.306, 5.741e-6
-1.307, 5.746e-6
-1.308, 5.750e-6
-1.309, 5.756e-6
-1.310, 5.762e-6
-1.311, 5.767e-6
-1.312, 5.773e-6
-1.313, 5.777e-6
-1.314, 5.782e-6
-1.315, 5.788e-6
-1.316, 5.794e-6
-1.317, 5.800e-6
-1.318, 5.806e-6
-1.319, 5.812e-6
-1.320, 5.817e-6
-1.321, 5.822e-6
-1.322, 5.828e-6
-1.323, 5.834e-6
-1.324, 5.839e-6
-1.325, 5.845e-6
-1.326, 5.851e-6
-1.327, 5.856e-6
-1.328, 5.863e-6
-1.329, 5.869e-6
-1.330, 5.873e-6
-1.331, 5.880e-6
-1.332, 5.887e-6
-1.333, 5.890e-6
-1.334, 5.898e-6
-1.335, 5.903e-6
-1.336, 5.908e-6
-1.337, 5.914e-6
-1.338, 5.920e-6
-1.339, 5.926e-6
-1.340, 5.932e-6
-1.341, 5.938e-6
-1.342, 5.945e-6
-1.343, 5.949e-6
-1.344, 5.957e-6
-1.345, 5.963e-6
-1.346, 5.969e-6
-1.347, 5.977e-6
-1.348, 5.982e-6
-1.349, 5.988e-6
-1.350, 5.995e-6
-1.351, 6.002e-6
-1.352, 6.008e-6
-1.353, 6.015e-6
-1.354, 6.022e-6
-1.355, 6.029e-6
-1.356, 6.036e-6
-1.357, 6.045e-6
-1.358, 6.052e-6
-1.359, 6.058e-6
-1.360, 6.065e-6
-1.361, 6.073e-6
-1.362, 6.080e-6
-1.363, 6.087e-6
-1.364, 6.094e-6
-1.365, 6.101e-6
-1.366, 6.110e-6
-1.367, 6.117e-6
-1.368, 6.123e-6
-1.369, 6.132e-6
-1.370, 6.138e-6
-1.371, 6.147e-6
-1.372, 6.154e-6
-1.373, 6.160e-6
-1.374, 6.169e-6
-1.375, 6.175e-6
-1.376, 6.183e-6
-1.377, 6.191e-6
-1.378, 6.197e-6
-1.379, 6.206e-6
-1.380, 6.213e-6
-1.381, 6.219e-6
-1.382, 6.230e-6
-1.383, 6.237e-6
-1.384, 6.246e-6
-1.385, 6.253e-6
-1.386, 6.260e-6
-1.387, 6.268e-6
-1.388, 6.278e-6
-1.389, 6.285e-6
-1.390, 6.294e-6
-1.391, 6.302e-6
-1.392, 6.312e-6
-1.393, 6.320e-6
-1.394, 6.328e-6
-1.395, 6.338e-6
-1.396, 6.346e-6
-1.397, 6.355e-6
-1.398, 6.364e-6
-1.399, 6.373e-6
-1.400, 6.381e-6
-1.401, 6.391e-6
-1.402, 6.400e-6
-1.403, 6.409e-6
-1.404, 6.419e-6
-1.405, 6.427e-6
-1.406, 6.438e-6
-1.407, 6.447e-6
-1.408, 6.457e-6
-1.409, 6.466e-6
-1.410, 6.474e-6
-1.411, 6.485e-6
-1.412, 6.494e-6
-1.413, 6.503e-6
-1.414, 6.513e-6
-1.415, 6.524e-6
-1.416, 6.534e-6
-1.417, 6.544e-6
-1.418, 6.554e-6
-1.419, 6.565e-6
-1.420, 6.574e-6
-1.421, 6.586e-6
-1.422, 6.596e-6
-1.423, 6.605e-6
-1.424, 6.618e-6
-1.425, 6.627e-6
-1.426, 6.637e-6
-1.427, 6.649e-6
-1.428, 6.660e-6
-1.429, 6.670e-6
-1.430, 6.682e-6
-1.431, 6.692e-6
-1.432, 6.703e-6
-1.433, 6.715e-6
-1.434, 6.728e-6
-1.435, 6.739e-6
-1.436, 6.750e-6
-1.437, 6.760e-6
-1.438, 6.772e-6
-1.439, 6.783e-6
-1.440, 6.795e-6
-1.441, 6.807e-6
-1.442, 6.818e-6
-1.443, 6.830e-6
-1.444, 6.843e-6
-1.445, 6.853e-6
-1.446, 6.866e-6
-1.447, 6.878e-6
-1.448, 6.889e-6
-1.449, 6.902e-6
-1.450, 6.912e-6
-1.451, 6.926e-6
-1.452, 6.939e-6
-1.453, 6.952e-6
-1.454, 6.965e-6
-1.455, 6.977e-6
-1.456, 6.991e-6
-1.457, 7.003e-6
-1.458, 7.014e-6
-1.459, 7.030e-6
-1.460, 7.042e-6
-1.461, 7.056e-6
-1.462, 7.070e-6
-1.463, 7.081e-6
-1.464, 7.097e-6
-1.465, 7.110e-6
-1.466, 7.124e-6
-1.467, 7.138e-6
-1.468, 7.152e-6
-1.469, 7.166e-6
-1.470, 7.180e-6
-1.471, 7.195e-6
-1.472, 7.210e-6
-1.473, 7.225e-6
-1.474, 7.239e-6
-1.475, 7.254e-6
-1.476, 7.268e-6
-1.477, 7.283e-6
-1.478, 7.297e-6
-1.479, 7.312e-6
-1.480, 7.327e-6
-1.481, 7.343e-6
-1.482, 7.358e-6
-1.483, 7.374e-6
-1.484, 7.389e-6
-1.485, 7.407e-6
-1.486, 7.422e-6
-1.487, 7.437e-6
-1.488, 7.454e-6
-1.489, 7.470e-6
-1.490, 7.486e-6
-1.491, 7.505e-6
-1.492, 7.520e-6
-1.493, 7.535e-6
-1.494, 7.554e-6
-1.495, 7.568e-6
-1.496, 7.586e-6
-1.497, 7.604e-6
-1.498, 7.622e-6
-1.499, 7.640e-6
-1.500, 7.657e-6
-1.501, 7.674e-6
-1.502, 7.693e-6
-1.503, 7.711e-6
-1.504, 7.731e-6
-1.505, 7.749e-6
-1.506, 7.766e-6
-1.507, 7.785e-6
-1.508, 7.802e-6
-1.509, 7.822e-6
-1.510, 7.842e-6
-1.511, 7.861e-6
-1.512, 7.880e-6
-1.513, 7.900e-6
-1.514, 7.918e-6
-1.515, 7.939e-6
-1.516, 7.959e-6
-1.517, 7.980e-6
-1.518, 7.998e-6
-1.519, 8.019e-6
-1.520, 8.037e-6
-1.521, 8.058e-6
-1.522, 8.078e-6
-1.523, 8.100e-6
-1.524, 8.120e-6
-1.525, 8.140e-6
-1.526, 8.163e-6
-1.527, 8.183e-6
-1.528, 8.207e-6
-1.529, 8.233e-6
-1.530, 8.255e-6
-1.531, 8.277e-6
-1.532, 8.298e-6
-1.533, 8.320e-6
-1.534, 8.341e-6
-1.535, 8.362e-6
-1.536, 8.386e-6
-1.537, 8.407e-6
-1.538, 8.431e-6
-1.539, 8.455e-6
-1.540, 8.477e-6
-1.541, 8.502e-6
-1.542, 8.526e-6
-1.543, 8.547e-6
-1.544, 8.571e-6
-1.545, 8.595e-6
-1.546, 8.618e-6
-1.547, 8.642e-6
-1.548, 8.665e-6
-1.549, 8.690e-6
-1.550, 8.716e-6
-1.551, 8.742e-6
-1.552, 8.768e-6
-1.553, 8.793e-6
-1.554, 8.816e-6
-1.555, 8.843e-6
-1.556, 8.868e-6
-1.557, 8.893e-6
-1.558, 8.919e-6
-1.559, 8.944e-6
-1.560, 8.972e-6
-1.561, 9.000e-6
-1.562, 9.027e-6
-1.563, 9.055e-6
-1.564, 9.083e-6
-1.565, 9.109e-6
-1.566, 9.138e-6
-1.567, 9.165e-6
-1.568, 9.194e-6
-1.569, 9.224e-6
-1.570, 9.252e-6
-1.571, 9.282e-6
-1.572, 9.310e-6
-1.573, 9.339e-6
-1.574, 9.368e-6
-1.575, 9.396e-6
-1.576, 9.428e-6
-1.577, 9.458e-6
-1.578, 9.487e-6
-1.579, 9.520e-6
-1.580, 9.550e-6
-1.581, 9.583e-6
-1.582, 9.615e-6
-1.583, 9.644e-6
-1.584, 9.675e-6
-1.585, 9.708e-6
-1.586, 9.741e-6
-1.587, 9.775e-6
-1.588, 9.811e-6
-1.589, 9.843e-6
-1.590, 9.878e-6
-1.591, 9.910e-6
-1.592, 9.944e-6
-1.593, 9.979e-6
-1.594, 1.001e-5
-1.595, 1.005e-5
-1.596, 1.009e-5
-1.597, 1.012e-5
-1.598, 1.015e-5
-1.599, 1.019e-5
-1.600, 1.022e-5
-1.601, 1.026e-5
-1.602, 1.030e-5
-1.603, 1.034e-5
-1.604, 1.037e-5
-1.605, 1.041e-5
-1.606, 1.045e-5
-1.607, 1.049e-5
-1.608, 1.053e-5
-1.609, 1.057e-5
-1.610, 1.061e-5
-1.611, 1.065e-5
-1.612, 1.070e-5
-1.613, 1.074e-5
-1.614, 1.078e-5
-1.615, 1.082e-5
-1.616, 1.087e-5
-1.617, 1.091e-5
-1.618, 1.095e-5
-1.619, 1.100e-5
-1.620, 1.104e-5
-1.621, 1.108e-5
-1.622, 1.113e-5
-1.623, 1.117e-5
-1.624, 1.122e-5
-1.625, 1.127e-5
-1.626, 1.132e-5
-1.627, 1.136e-5
-1.628, 1.141e-5
-1.629, 1.146e-5
-1.630, 1.151e-5
-1.631, 1.156e-5
-1.632, 1.161e-5
-1.633, 1.166e-5
-1.634, 1.172e-5
-1.635, 1.177e-5
-1.636, 1.182e-5
-1.637, 1.187e-5
-1.638, 1.193e-5
-1.639, 1.199e-5
-1.640, 1.204e-5
-1.641, 1.208e-5
-1.642, 1.214e-5
-1.643, 1.219e-5
-1.644, 1.225e-5
-1.645, 1.231e-5
-1.646, 1.237e-5
-1.647, 1.243e-5
-1.648, 1.249e-5
-1.649, 1.256e-5
-1.650, 1.262e-5
-1.651, 1.268e-5
-1.652, 1.274e-5
-1.653, 1.281e-5
-1.654, 1.287e-5
-1.655, 1.294e-5
-1.656, 1.300e-5
-1.657, 1.307e-5
-1.658, 1.314e-5
-1.659, 1.321e-5
-1.660, 1.328e-5
-1.661, 1.335e-5
-1.662, 1.342e-5
-1.663, 1.350e-5
-1.664, 1.357e-5
-1.665, 1.365e-5
-1.666, 1.372e-5
-1.667, 1.380e-5
-1.668, 1.388e-5
-1.669, 1.395e-5
-1.670, 1.403e-5
-1.671, 1.411e-5
-1.672, 1.419e-5
-1.673, 1.427e-5
-1.674, 1.435e-5
-1.675, 1.444e-5
-1.676, 1.452e-5
-1.677, 1.461e-5
-1.678, 1.470e-5
-1.679, 1.479e-5
-1.680, 1.488e-5
-1.681, 1.497e-5
-1.682, 1.506e-5
-1.683, 1.516e-5
-1.684, 1.527e-5
-1.685, 1.537e-5
-1.686, 1.545e-5
-1.687, 1.554e-5
-1.688, 1.564e-5
-1.689, 1.574e-5
-1.690, 1.585e-5
-1.691, 1.596e-5
-1.692, 1.606e-5
-1.693, 1.617e-5
-1.694, 1.628e-5
-1.695, 1.638e-5
-1.696, 1.650e-5
-1.697, 1.661e-5
-1.698, 1.672e-5
-1.699, 1.684e-5
-1.700, 1.695e-5
-1.701, 1.707e-5
-1.702, 1.719e-5
-1.703, 1.731e-5
-1.704, 1.744e-5
-1.705, 1.756e-5
-1.706, 1.768e-5
-1.707, 1.781e-5
-1.708, 1.794e-5
-1.709, 1.807e-5
-1.710, 1.820e-5
-1.711, 1.833e-5
-1.712, 1.847e-5
-1.713, 1.861e-5
-1.714, 1.875e-5
-1.715, 1.889e-5
-1.716, 1.903e-5
-1.717, 1.917e-5
-1.718, 1.932e-5
-1.719, 1.946e-5
-1.720, 1.961e-5
-1.721, 1.977e-5
-1.722, 1.992e-5
-1.723, 2.007e-5
-1.724, 2.023e-5
-1.725, 2.039e-5
-1.726, 2.055e-5
-1.727, 2.071e-5
-1.728, 2.088e-5
-1.729, 2.105e-5
-1.730, 2.124e-5
-1.731, 2.143e-5
-1.732, 2.158e-5
-1.733, 2.175e-5
-1.734, 2.193e-5
-1.735, 2.210e-5
-1.736, 2.228e-5
-1.737, 2.246e-5
-1.738, 2.265e-5
-1.739, 2.284e-5
-1.740, 2.302e-5
-1.741, 2.321e-5
-1.742, 2.341e-5
-1.743, 2.361e-5
-1.744, 2.381e-5
-1.745, 2.401e-5
-1.746, 2.422e-5
-1.747, 2.443e-5
-1.748, 2.464e-5
-1.749, 2.485e-5
-1.750, 2.506e-5
-1.751, 2.527e-5
-1.752, 2.549e-5
-1.753, 2.571e-5
-1.754, 2.594e-5
-1.755, 2.616e-5
-1.756, 2.640e-5
-1.757, 2.663e-5
-1.758, 2.686e-5
-1.759, 2.709e-5
-1.760, 2.734e-5
-1.761, 2.759e-5
-1.762, 2.782e-5
-1.763, 2.806e-5
-1.764, 2.832e-5
-1.765, 2.858e-5
-1.766, 2.884e-5
-1.767, 2.909e-5
-1.768, 2.935e-5
-1.769, 2.961e-5
-1.770, 2.988e-5
-1.771, 3.015e-5
-1.772, 3.042e-5
-1.773, 3.070e-5
-1.774, 3.098e-5
-1.775, 3.127e-5
-1.776, 3.157e-5
-1.777, 3.185e-5
-1.778, 3.214e-5
-1.779, 3.245e-5
-1.780, 3.274e-5
-1.781, 3.302e-5
-1.782, 3.333e-5
-1.783, 3.363e-5
-1.784, 3.395e-5
-1.785, 3.427e-5
-1.786, 3.458e-5
-1.787, 3.492e-5
-1.788, 3.524e-5
-1.789, 3.558e-5
-1.790, 3.591e-5
-1.791, 3.625e-5
-1.792, 3.660e-5
-1.793, 3.695e-5
-1.794, 3.731e-5
-1.795, 3.766e-5
-1.796, 3.802e-5
-1.797, 3.840e-5
-1.798, 3.878e-5
-1.799, 3.916e-5
-1.800, 3.954e-5
-1.801, 3.992e-5
-1.802, 4.031e-5
-1.803, 4.072e-5
-1.804, 4.112e-5
-1.805, 4.153e-5
-1.806, 4.195e-5
-1.807, 4.236e-5
-1.808, 4.278e-5
-1.809, 4.321e-5
-1.810, 4.364e-5
-1.811, 4.408e-5
-1.812, 4.452e-5
-1.813, 4.498e-5
-1.814, 4.544e-5
-1.815, 4.589e-5
-1.816, 4.636e-5
-1.817, 4.683e-5
-1.818, 4.731e-5
-1.819, 4.780e-5
-1.820, 4.830e-5
-1.821, 4.878e-5
-1.822, 4.929e-5
-1.823, 4.982e-5
-1.824, 5.033e-5
-1.825, 5.084e-5
-1.826, 5.131e-5
-1.827, 5.181e-5
-1.828, 5.232e-5
-1.829, 5.285e-5
-1.830, 5.340e-5
-1.831, 5.396e-5
-1.832, 5.452e-5
-1.833, 5.510e-5
-1.834, 5.570e-5
-1.835, 5.632e-5
-1.836, 5.694e-5
-1.837, 5.753e-5
-1.838, 5.812e-5
-1.839, 5.872e-5
-1.840, 5.932e-5
-1.841, 5.982e-5
-1.842, 6.037e-5
-1.843, 6.100e-5
-1.844, 6.164e-5
-1.845, 6.228e-5
-1.846, 6.292e-5
-1.847, 6.357e-5
-1.848, 6.424e-5
-1.849, 6.494e-5
-1.850, 6.563e-5
-1.851, 6.627e-5
-1.852, 6.700e-5
-1.853, 6.773e-5
-1.854, 6.847e-5
-1.855, 6.924e-5
-1.856, 6.999e-5
-1.857, 7.075e-5
-1.858, 7.156e-5
-1.859, 7.236e-5
-1.860, 7.321e-5
-1.861, 7.404e-5
-1.862, 7.489e-5
-1.863, 7.574e-5
-1.864, 7.662e-5
-1.865, 7.754e-5
-1.866, 7.837e-5
-1.867, 7.920e-5
-1.868, 8.002e-5
-1.869, 8.096e-5
-1.870, 8.193e-5
-1.871, 8.286e-5
-1.872, 8.383e-5
-1.873, 8.481e-5
-1.874, 8.580e-5
-1.875, 8.681e-5
-1.876, 8.780e-5
-1.877, 8.885e-5
-1.878, 8.991e-5
-1.879, 9.094e-5
-1.880, 9.188e-5
-1.881, 9.291e-5
-1.882, 9.404e-5
-1.883, 9.508e-5
-1.884, 9.604e-5
-1.885, 9.709e-5
-1.886, 9.820e-5
-1.887, 9.929e-5
-1.888, 1.004e-4
-1.889, 1.015e-4
-1.890, 1.027e-4
-1.891, 1.040e-4
-1.892, 1.053e-4
-1.893, 1.066e-4
-1.894, 1.079e-4
-1.895, 1.091e-4
-1.896, 1.105e-4
-1.897, 1.119e-4
-1.898, 1.132e-4
-1.899, 1.145e-4
-1.900, 1.158e-4
-1.901, 1.170e-4
-1.902, 1.182e-4
-1.903, 1.195e-4
-1.904, 1.207e-4
-1.905, 1.221e-4
-1.906, 1.235e-4
-1.907, 1.249e-4
-1.908, 1.263e-4
-1.909, 1.278e-4
-1.910, 1.293e-4
-1.911, 1.308e-4
-1.912, 1.322e-4
-1.913, 1.337e-4
-1.914, 1.354e-4
-1.915, 1.371e-4
-1.916, 1.387e-4
-1.917, 1.402e-4
-1.918, 1.417e-4
-1.919, 1.434e-4
-1.920, 1.452e-4
-1.921, 1.469e-4
-1.922, 1.485e-4
-1.923, 1.504e-4
-1.924, 1.523e-4
-1.925, 1.541e-4
-1.926, 1.559e-4
-1.927, 1.578e-4
-1.928, 1.596e-4
-1.929, 1.614e-4
-1.930, 1.632e-4
-1.931, 1.651e-4
-1.932, 1.671e-4
-1.933, 1.690e-4
-1.934, 1.709e-4
-1.935, 1.729e-4
-1.936, 1.751e-4
-1.937, 1.773e-4
-1.938, 1.794e-4
-1.939, 1.816e-4
-1.940, 1.837e-4
-1.941, 1.857e-4
-1.942, 1.879e-4
-1.943, 1.901e-4
-1.944, 1.922e-4
-1.945, 1.946e-4
-1.946, 1.970e-4
-1.947, 1.992e-4
-1.948, 2.014e-4
-1.949, 2.037e-4
-1.950, 2.058e-4
-1.951, 2.082e-4
-1.952, 2.106e-4
-1.953, 2.130e-4
-1.954, 2.154e-4
-1.955, 2.180e-4
-1.956, 2.205e-4
-1.957, 2.229e-4
-1.958, 2.256e-4
-1.959, 2.281e-4
-1.960, 2.305e-4
-1.961, 2.329e-4
-1.962, 2.356e-4
-1.963, 2.381e-4
-1.964, 2.409e-4
-1.965, 2.435e-4
-1.966, 2.463e-4
-1.967, 2.490e-4
-1.968, 2.518e-4
-1.969, 2.543e-4
-1.970, 2.569e-4
-1.971, 2.593e-4
-1.972, 2.620e-4
-1.973, 2.645e-4
-1.974, 2.672e-4
-1.975, 2.701e-4
-1.976, 2.730e-4
-1.977, 2.758e-4
-1.978, 2.784e-4
-1.979, 2.814e-4
-1.980, 2.845e-4
-1.981, 2.875e-4
-1.982, 2.907e-4
-1.983, 2.935e-4
-1.984, 2.965e-4
-1.985, 2.993e-4
-1.986, 3.019e-4
-1.987, 3.047e-4
-1.988, 3.081e-4
-1.989, 3.113e-4
-1.990, 3.144e-4
-1.991, 3.174e-4
-1.992, 3.205e-4
-1.993, 3.227e-4
-1.994, 3.257e-4
-1.995, 3.289e-4
-1.996, 3.323e-4
-1.997, 3.356e-4
-1.998, 3.389e-4
-1.999, 3.419e-4
-2.000, 3.450e-4
-2.001, 3.484e-4
-2.002, 3.519e-4
-2.003, 3.553e-4
-2.004, 3.587e-4
-2.005, 3.620e-4
-2.006, 3.652e-4
-2.007, 3.686e-4
-2.008, 3.721e-4
-2.009, 3.755e-4
-2.010, 3.789e-4
-2.011, 3.828e-4
-2.012, 3.864e-4
-2.013, 3.893e-4
-2.014, 3.926e-4
-2.015, 3.961e-4
-2.016, 3.999e-4
-2.017, 4.037e-4
-2.018, 4.076e-4
-2.019, 4.106e-4
-2.020, 4.140e-4
-2.021, 4.180e-4
-2.022, 4.221e-4
-2.023, 4.262e-4
-2.024, 4.301e-4
-2.025, 4.335e-4
-2.026, 4.370e-4
-2.027, 4.410e-4
-2.028, 4.451e-4
-2.029, 4.488e-4
-2.030, 4.527e-4
-2.031, 4.569e-4
-2.032, 4.607e-4
-2.033, 4.645e-4
-2.034, 4.685e-4
-2.035, 4.727e-4
-2.036, 4.775e-4
-2.037, 4.813e-4
-2.038, 4.853e-4
-2.039, 4.893e-4
-2.040, 4.938e-4
-2.041, 4.984e-4
-2.042, 5.025e-4
-2.043, 5.064e-4
-2.044, 5.101e-4
-2.045, 5.147e-4
-2.046, 5.193e-4
-2.047, 5.235e-4
-2.048, 5.280e-4
-2.049, 5.324e-4
-2.050, 5.367e-4
-2.051, 5.409e-4
-2.052, 5.454e-4
-2.053, 5.503e-4
-2.054, 5.548e-4
-2.055, 5.591e-4
-2.056, 5.631e-4
-2.057, 5.679e-4
-2.058, 5.730e-4
-2.059, 5.779e-4
-2.060, 5.827e-4
-2.061, 5.874e-4
-2.062, 5.915e-4
-2.063, 5.960e-4
-2.064, 6.011e-4
-2.065, 6.063e-4
-2.066, 6.117e-4
-2.067, 6.161e-4
-2.068, 6.206e-4
-2.069, 6.259e-4
-2.070, 6.307e-4
-2.071, 6.355e-4
-2.072, 6.407e-4
-2.073, 6.449e-4
-2.074, 6.495e-4
-2.075, 6.542e-4
-2.076, 6.597e-4
-2.077, 6.649e-4
-2.078, 6.699e-4
-2.079, 6.748e-4
-2.080, 6.801e-4
-2.081, 6.853e-4
-2.082, 6.904e-4
-2.083, 6.961e-4
-2.084, 7.014e-4
-2.085, 7.064e-4
-2.086, 7.111e-4
-2.087, 7.169e-4
-2.088, 7.228e-4
-2.089, 7.279e-4
-2.090, 7.338e-4
-2.091, 7.399e-4
-2.092, 7.449e-4
-2.093, 7.501e-4
-2.094, 7.556e-4
-2.095, 7.612e-4
-2.096, 7.669e-4
-2.097, 7.720e-4
-2.098, 7.769e-4
-2.099, 7.823e-4
-2.100, 7.883e-4
-2.101, 7.942e-4
-2.102, 7.996e-4
-2.103, 8.051e-4
-2.104, 8.106e-4
-2.105, 8.158e-4
-2.106, 8.214e-4
-2.107, 8.276e-4
-2.108, 8.333e-4
-2.109, 8.389e-4
-2.110, 8.446e-4
-2.111, 8.506e-4
-2.112, 8.561e-4
-2.113, 8.624e-4
-2.114, 8.684e-4
-2.115, 8.737e-4
-2.116, 8.793e-4
-2.117, 8.848e-4
-2.118, 8.908e-4
-2.119, 8.967e-4
-2.120, 9.027e-4
-2.121, 9.079e-4
-2.122, 9.135e-4
-2.123, 9.201e-4
-2.124, 9.268e-4
-2.125, 9.325e-4
-2.126, 9.387e-4
-2.127, 9.447e-4
-2.128, 9.502e-4
-2.129, 9.567e-4
-2.130, 9.629e-4
-2.131, 9.689e-4
-2.132, 9.755e-4
-2.133, 9.815e-4
-2.134, 9.877e-4
-2.135, 9.939e-4
-2.136, 1.001e-3
-2.137, 1.007e-3
-2.138, 1.011e-3
-2.139, 1.011e-3
-2.140, 1.011e-3
-2.141, 1.011e-3
-2.142, 1.011e-3
-2.143, 1.011e-3
-2.144, 1.011e-3
-2.145, 1.011e-3
-2.146, 1.011e-3
-2.147, 1.011e-3
-2.148, 1.011e-3
-2.149, 1.011e-3
-2.150, 1.011e-3
-2.151, 1.011e-3
-2.152, 1.011e-3
-2.153, 1.011e-3
-2.154, 1.011e-3
-2.155, 1.011e-3
-2.156, 1.011e-3
-2.157, 1.011e-3
-2.158, 1.011e-3
-2.159, 1.011e-3
-2.160, 1.011e-3
-2.161, 1.011e-3
-2.162, 1.011e-3
-2.163, 1.011e-3
-2.164, 1.011e-3
-2.165, 1.011e-3
-2.166, 1.011e-3
-2.167, 1.011e-3
-2.168, 1.011e-3
-2.169, 1.011e-3
-2.170, 1.011e-3
-2.171, 1.011e-3
-2.172, 1.011e-3
-2.173, 1.011e-3
-2.174, 1.011e-3
-2.175, 1.011e-3
-2.176, 1.011e-3
-2.177, 1.011e-3
-2.178, 1.011e-3
-2.179, 1.011e-3
-2.180, 1.011e-3
-2.181, 1.011e-3
-2.182, 1.011e-3
-2.183, 1.011e-3
-2.184, 1.011e-3
-2.185, 1.011e-3
-2.186, 1.011e-3
-2.187, 1.011e-3
-2.188, 1.011e-3
-2.189, 1.011e-3
-2.190, 1.011e-3
-2.191, 1.011e-3
-2.192, 1.011e-3
-2.193, 1.011e-3
-2.194, 1.011e-3
-2.195, 1.011e-3
-2.196, 1.011e-3
-2.197, 1.011e-3
-2.198, 1.011e-3
-2.199, 1.011e-3
-2.200, 1.011e-3
-2.201, 1.011e-3
-2.202, 1.011e-3
-2.203, 1.011e-3
-2.204, 1.011e-3
-2.205, 1.011e-3
-2.206, 1.011e-3
-2.207, 1.011e-3
-2.208, 1.011e-3
-2.209, 1.011e-3
-2.210, 1.011e-3
-2.211, 1.011e-3
-2.212, 1.011e-3
-2.213, 1.011e-3
-2.214, 1.011e-3
-2.215, 1.011e-3
-2.216, 1.011e-3
-2.217, 1.011e-3
-2.218, 1.011e-3
-2.219, 1.011e-3
-2.220, 1.011e-3
-2.221, 1.011e-3
-2.222, 1.011e-3
-2.223, 1.011e-3
-2.224, 1.011e-3
-2.225, 1.011e-3
-2.226, 1.011e-3
-2.227, 1.011e-3
-2.228, 1.011e-3
-2.229, 1.011e-3
-2.230, 1.011e-3
-2.231, 1.011e-3
-2.232, 1.011e-3
-2.233, 1.011e-3
-2.234, 1.011e-3
-2.235, 1.011e-3
-2.236, 1.011e-3
-2.237, 1.011e-3
-2.238, 1.011e-3
-2.239, 1.011e-3
-2.240, 1.011e-3
-2.241, 1.011e-3
-2.242, 1.011e-3
-2.243, 1.011e-3
-2.244, 1.011e-3
-2.245, 1.011e-3
-2.246, 1.011e-3
-2.247, 1.011e-3
-2.248, 1.011e-3
-2.249, 1.011e-3
-2.250, 1.011e-3
-2.251, 1.011e-3
-2.252, 1.011e-3
-2.253, 1.011e-3
-2.254, 1.011e-3
-2.255, 1.011e-3
-2.256, 1.011e-3
-2.257, 1.011e-3
-2.258, 1.011e-3
-2.259, 1.011e-3
-2.260, 1.011e-3
-2.261, 1.011e-3
-2.262, 1.011e-3
-2.263, 1.011e-3
-2.264, 1.011e-3
-2.265, 1.011e-3
-2.266, 1.011e-3
-2.267, 1.011e-3
-2.268, 1.011e-3
-2.269, 1.011e-3
-2.270, 1.011e-3
-2.271, 1.011e-3
-2.272, 1.011e-3
-2.273, 1.011e-3
-2.274, 1.011e-3
-2.275, 1.011e-3
-2.276, 1.011e-3
-2.277, 1.011e-3
-2.278, 1.011e-3
-2.279, 1.011e-3
-2.280, 1.011e-3
-2.281, 1.011e-3
-2.282, 1.011e-3
-2.283, 1.011e-3
-2.284, 1.011e-3
-2.285, 1.011e-3
-2.286, 1.011e-3
-2.287, 1.011e-3
-2.288, 1.011e-3
-2.289, 1.011e-3
-2.290, 1.011e-3
-2.291, 1.011e-3
-2.292, 1.011e-3
-2.293, 1.011e-3
-2.294, 1.011e-3
-2.295, 1.011e-3
-2.296, 1.011e-3
-2.297, 1.011e-3
-2.298, 1.011e-3
-2.299, 1.011e-3
