Potential V vs RHE, Current mA cm-2
0.013299999999999867,0.020966021463999843
0.012299999999999978,-0.002205534916489592
0.011299999999999866,-0.014769585970590984
0.010299999999999976,-0.022861734605818994
0.009299999999999864,-0.027332222313392506
0.008299999999999974,-0.03375501161477978
0.007299999999999862,-0.039894858656194035
0.006299999999999972,-0.04603470569760829
0.00529999999999986,-0.04979783775524929
0.0042999999999999705,-0.05272629014596992
0.0032999999999998586,-0.057479720113516444
0.0022999999999999687,-0.06110138104117093
0.0012999999999998568,-0.06654801954565133
0.00029999999999996696,-0.06947647193637195
-0.000700000000000145,-0.07268786658706558
-0.0017000000000000348,-0.07478163931086583
-0.0027000000000001467,-0.0772998254246256
-0.0037000000000000366,-0.08232205053914649
-0.0047000000000001485,-0.08567491631982663
-0.005700000000000038,-0.08734427565366736
-0.00670000000000015,-0.08860336871054725
-0.00770000000000004,-0.09348412269508162
-0.008700000000000152,-0.09738872588270912
-0.009700000000000042,-0.09935517458952153
-0.010700000000000154,-0.10269389325720302
-0.011700000000000044,-0.10464619485101677
-0.012700000000000156,-0.1079990606316969
-0.013700000000000045,-0.11149339754236354
-0.014700000000000157,-0.11401158365612331
-0.015700000000000047,-0.11596388524993705
-0.01670000000000016,-0.11805765797373731
-0.01770000000000005,-0.12056169697449844
-0.01870000000000016,-0.12531512694204497
-0.01970000000000005,-0.1272674285358587
-0.020700000000000163,-0.12852652159273859
-0.021700000000000053,-0.1307476183335267
-0.022700000000000164,-0.13354874670725947
-0.023700000000000054,-0.13814655843182086
-0.024700000000000166,-0.1420370145064497
-0.025700000000000056,-0.1421784856364362
-0.026700000000000168,-0.14401761032626076
-0.027700000000000058,-0.1458567350160853
-0.02870000000000017,-0.1510911668255859
-0.02970000000000006,-0.1543450028152755
-0.03070000000000017,-0.15476941620523502
-0.03170000000000006,-0.15774030993495158
-0.03270000000000017,-0.16000384801473563
-0.03370000000000006,-0.16354062626439822
-0.034700000000000175,-0.16537975095422278
-0.035700000000000065,-0.16778476016399335
-0.03670000000000018,-0.17174595180361546
-0.03770000000000007,-0.17259477858353447
-0.03870000000000018,-0.17599008570321056
-0.03970000000000007,-0.17938539282288665
-0.04070000000000018,-0.18023421960280567
-0.04170000000000007,-0.18334658446250876
-0.04270000000000018,-0.18532718028231981
-0.04370000000000007,-0.18928837192194192
-0.044700000000000184,-0.19141043887173945
-0.045700000000000074,-0.1933910346915505
-0.046700000000000186,-0.19480574599141554
-0.047700000000000076,-0.19593751503130757
-0.04870000000000019,-0.20060606232086217
-0.04970000000000008,-0.2041428405705248
-0.05070000000000019,-0.20485019622045733
-0.05170000000000008,-0.2079625610801604
-0.05270000000000019,-0.21036757028993097
-0.05370000000000008,-0.21333846401964754
-0.05470000000000019,-0.2167337711393236
-0.05570000000000008,-0.21800701130920216
-0.056700000000000195,-0.21885583808912115
-0.057700000000000085,-0.2235243853786758
-0.058700000000000196,-0.2250805678085273
-0.059700000000000086,-0.22875881718817642
-0.0607000000000002,-0.22989058622806843
-0.06170000000000009,-0.23272000882779853
-0.0627000000000002,-0.23399324899767707
-0.06370000000000009,-0.2392276808071777
-0.0647000000000002,-0.24163269001694826
-0.06570000000000009,-0.24417917035670533
-0.0667000000000002,-0.2437547569667458
-0.0677000000000001,-0.24644270843648935
-0.0687000000000002,-0.2515356691160035
-0.0697000000000001,-0.2540821494557606
-0.07070000000000021,-0.2571945143154637
-0.0717000000000001,-0.25705304318547717
-0.07270000000000021,-0.2608727636951128
-0.0737000000000001,-0.2634192440348699
-0.07470000000000021,-0.268229262454411
-0.0757000000000001,-0.2706342716641816
-0.07670000000000021,-0.27303928087395213
-0.0777000000000001,-0.2738881076538711
-0.07870000000000021,-0.2779907704234797
-0.0797000000000001,-0.28350814449295336
-0.08070000000000022,-0.28591315370272397
-0.0817000000000001,-0.28732786500258894
-0.08270000000000022,-0.28973287421235955
-0.08370000000000011,-0.2941184792419411
-0.08470000000000022,-0.2993529110514418
-0.08570000000000011,-0.30175792026121234
-0.08670000000000022,-0.30260674704113133
-0.08770000000000011,-0.3074167654606725
-0.08870000000000022,-0.3122267838802136
-0.08970000000000011,-0.31576356212987616
-0.09070000000000022,-0.31901739811956575
-0.09170000000000011,-0.3211394650693633
-0.09270000000000023,-0.3246762433190259
-0.09370000000000012,-0.328920377218621
-0.09470000000000023,-0.3342962801581082
-0.09570000000000012,-0.33712570275783826
-0.09670000000000023,-0.3396721830975953
-0.09770000000000012,-0.3417942500473929
-0.09870000000000023,-0.34816045089678554
-0.09970000000000012,-0.35297046931632664
-0.10070000000000023,-0.35735607434590827
-0.10170000000000012,-0.35905372790574636
-0.10270000000000024,-0.36301491954536846
-0.10370000000000013,-0.3688152358748151
-0.10470000000000024,-0.37362525429435617
-0.10570000000000013,-0.37716203254401875
-0.10670000000000024,-0.3790011572338433
-0.10770000000000013,-0.38197205096355985
-0.10870000000000024,-0.38664059825311453
-0.10970000000000013,-0.39314827023249366
-0.11070000000000024,-0.39725093300210224
-0.11170000000000013,-0.3982412309120078
-0.11270000000000002,-0.4010706535117379
-0.11370000000000013,-0.4087100945310091
-0.11470000000000002,-0.41352011295055024
-0.11570000000000014,-0.41719836233019936
-0.11670000000000003,-0.4190374870200239
-0.11770000000000014,-0.42115955396982147
-0.11870000000000003,-0.4268183991692816
-0.11970000000000014,-0.4316284175888227
-0.12070000000000003,-0.4343163690585663
-0.12170000000000014,-0.43672137826833685
-0.12270000000000003,-0.4384190318281749
-0.12370000000000014,-0.4429461079877429
-0.12470000000000003,-0.4478975975372706
-0.12570000000000014,-0.45171731804690624
-0.12670000000000003,-0.45299055821678474
-0.12770000000000015,-0.4548296829066093
-0.12870000000000004,-0.45765910550633937
-0.12970000000000015,-0.464308248615705
-0.13070000000000004,-0.463459421835786
-0.13170000000000015,-0.46685472895546215
-0.13270000000000004,-0.4684109113853136
-0.13370000000000015,-0.47053297833511115
-0.13470000000000004,-0.4753429967546523
-0.13570000000000015,-0.47633329466455787
-0.13670000000000004,-0.47803094822439585
-0.13770000000000016,-0.4778894770944094
-0.13870000000000005,-0.48114331308409897
-0.13970000000000016,-0.4848215624637481
-0.14070000000000005,-0.48637774489359964
-0.14170000000000016,-0.4859533315036401
-0.14270000000000005,-0.4851045047237211
-0.14370000000000016,-0.4872265716735187
-0.14470000000000005,-0.4911877633131407
-0.14570000000000016,-0.49246100348301924
-0.14670000000000005,-0.49090482105316774
-0.14770000000000016,-0.49090482105316774
-0.14870000000000005,-0.49246100348301924
-0.14970000000000017,-0.4948660126927898
-0.15070000000000006,-0.49387571478288433
-0.15170000000000017,-0.4943001281728438
-0.15270000000000006,-0.49246100348301924
-0.15370000000000017,-0.49472454156280327
-0.15470000000000006,-0.49557336834272236
-0.15570000000000017,-0.49613925286266836
-0.15670000000000006,-0.4954318972127358
-0.15770000000000017,-0.4911877633131407
-0.15870000000000006,-0.49246100348301924
-0.15970000000000018,-0.4934513013929247
-0.16070000000000007,-0.49260247461300577
-0.16170000000000018,-0.49147070557311373
-0.16270000000000007,-0.4884998118433972
-0.16370000000000018,-0.48878275410337013
-0.16470000000000007,-0.4900559942732487
-0.16570000000000018,-0.4896315808832892
-0.16670000000000007,-0.4858118603736536
-0.16770000000000018,-0.4841142068138156
-0.16870000000000007,-0.481709197604045
-0.16970000000000018,-0.48439714907378856
-0.17070000000000007,-0.4807188996941395
-0.17170000000000019,-0.47803094822439585
-0.17270000000000008,-0.4747771122347063
-0.1737000000000002,-0.47435269884474673
-0.17470000000000008,-0.47421122771476026
-0.1757000000000002,-0.47166474737500325
-0.17670000000000008,-0.4685523825153001
-0.1777000000000002,-0.4658644310455565
-0.17870000000000008,-0.46289353731584
-0.1797000000000002,-0.46388383522574556
-0.18070000000000008,-0.46119588375600196
-0.1817000000000002,-0.4586494034162448
-0.18270000000000008,-0.45327350047675774
-0.1837000000000002,-0.45299055821678474
-0.1847000000000001,-0.45327350047675774
-0.1857000000000002,-0.45086849126698714
-0.1867000000000001,-0.4470487707573516
-0.1877000000000002,-0.4413899255578914
-0.1887000000000001,-0.4391263874781074
-0.1897000000000002,-0.4396922719980534
-0.1907000000000001,-0.4364384360083638
-0.1917000000000001,-0.4316284175888227
-0.19269999999999998,-0.42823311046914664
-0.1937000000000001,-0.4265354569093086
-0.19469999999999998,-0.42625251464933556
-0.1957000000000001,-0.4237060343095785
-0.19669999999999999,-0.4194619004099834
-0.1977000000000001,-0.41436893973046923
-0.1987,-0.4125298150406447
-0.1997000000000001,-0.4128127573006177
-0.2007,-0.41083216148080665
-0.2017000000000001,-0.40008035560183236
-0.2027,-0.39385562588242623
-0.2037000000000001,-0.39286532797252066
-0.2047,-0.39343121249246665
-0.2057000000000001,-0.38833825181295256
-0.2067,-0.38536735808323597
-0.2077000000000001,-0.38041586853370835
-0.2087,-0.37885968610385684
-0.2097000000000001,-0.3795670417537893
-0.2107,-0.37617173463411324
-0.2117000000000001,-0.3734837831643697
-0.2127,-0.37065436056463963
-0.2137000000000001,-0.36810788022488256
-0.2147,-0.37065436056463963
-0.2157000000000001,-0.3688152358748151
-0.2167,-0.36442963084523344
-0.21770000000000012,-0.3614587371155169
-0.2187,-0.35905372790574636
-0.21970000000000012,-0.3608928525955709
-0.2207,-0.3594781412957058
-0.22170000000000012,-0.35509253626612425
-0.2227,-0.3533948827062862
-0.22370000000000012,-0.3509898734965156
-0.2247,-0.3536778249662592
-0.22570000000000012,-0.34915074880669106
-0.2267,-0.3473116241168665
-0.22770000000000012,-0.346604268466934
-0.22870000000000001,-0.345755441687015
-0.22970000000000013,-0.346887210726907
-0.23070000000000002,-0.3456139705570285
-0.23170000000000013,-0.34391631699719044
-0.23270000000000002,-0.34094542326747385
-0.23370000000000013,-0.3405210098775144
-0.23470000000000002,-0.3405210098775144
-0.23570000000000013,-0.3408039521374874
-0.23670000000000002,-0.3408039521374874
-0.2376999999999999,-0.33740864501781126
-0.23870000000000002,-0.33698423162785174
-0.2396999999999999,-0.33769158727778426
-0.24070000000000003,-0.3395307119676088
-0.24169999999999991,-0.3395307119676088
-0.24270000000000003,-0.33655981823789227
-0.24369999999999992,-0.33571099145797323
-0.24470000000000003,-0.33839894292771683
-0.24569999999999992,-0.3385404140577033
-0.24670000000000003,-0.33641834710790575
-0.24769999999999992,-0.3362768759779193
-0.24870000000000003,-0.33373039563816215
-0.24969999999999992,-0.3386818851876898
-0.25070000000000003,-0.3393892408376223
-0.2516999999999999,-0.33726717388782473
-0.25270000000000004,-0.33769158727778426
-0.2536999999999999,-0.33726717388782473
-0.25470000000000004,-0.34094542326747385
-0.2556999999999999,-0.3427845479572984
-0.25670000000000004,-0.3417942500473929
-0.25769999999999993,-0.34122836552744684
-0.25870000000000004,-0.34136983665743337
-0.25969999999999993,-0.34363337473721745
-0.26070000000000004,-0.3467457395969205
-0.26169999999999993,-0.3464627973369475
-0.26270000000000004,-0.346887210726907
-0.26369999999999993,-0.346321326206961
-0.26470000000000005,-0.34844339315675854
-0.26569999999999994,-0.35169722914644813
-0.26670000000000005,-0.3535363538362727
-0.26769999999999994,-0.35240458479638065
-0.26870000000000005,-0.3525460559263671
-0.26969999999999994,-0.35622430530601623
-0.27070000000000005,-0.35792195886585426
-0.27169999999999994,-0.3570731320859353
-0.27270000000000005,-0.3570731320859353
-0.27369999999999994,-0.36018549694563834
-0.27470000000000006,-0.3617416793754899
-0.27569999999999995,-0.3669761111849905
-0.27670000000000006,-0.366551697795031
-0.27769999999999995,-0.3652784576251525
-0.27870000000000006,-0.3661272844050715
-0.27969999999999995,-0.37051288943465316
-0.28070000000000006,-0.3744740810742752
-0.28169999999999995,-0.3754643789841807
-0.28270000000000006,-0.3732008409043967
-0.28369999999999995,-0.37489849446423473
-0.28470000000000006,-0.38055733966369487
-0.28569999999999995,-0.3828208777434789
-0.28670000000000007,-0.3828208777434789
-0.28769999999999996,-0.38338676226342494
-0.28870000000000007,-0.38508441582326297
-0.28969999999999996,-0.38791383842299304
-0.29070000000000007,-0.3915920878026421
-0.29169999999999996,-0.39229944345257467
-0.29270000000000007,-0.3939970970124127
-0.29369999999999996,-0.3937141547524397
-0.2947000000000001,-0.3992315288219133
-0.29569999999999996,-0.40121212464172434
-0.2967000000000001,-0.4017780091616704
-0.29769999999999996,-0.4022024225516299
-0.2987000000000001,-0.40432448950142746
-0.29969999999999997,-0.4078612677510901
-0.3007000000000001,-0.4126712861706312
-0.30169999999999997,-0.4118224593907122
-0.3027000000000001,-0.41323717069057725
-0.30369999999999997,-0.41451041086045576
-0.3047000000000001,-0.4179057179801318
-0.30569999999999997,-0.42271573639967297
-0.3067000000000001,-0.4237060343095785
-0.3077,-0.424130447699538
-0.3087000000000001,-0.42611104351934903
-0.3097,-0.4279501682091736
-0.3107000000000001,-0.4319113598487957
-0.3117,-0.4333260711486608
-0.3127000000000001,-0.4336090134086337
-0.3137,-0.43573108035843133
-0.3147000000000001,-0.43884344521813434
-0.3157,-0.44195581007783746
-0.3167000000000001,-0.44266316572777
-0.3177,-0.4436534636376755
-0.3187000000000001,-0.44761465527729766
-0.3197,-0.4491708377071491
-0.3207000000000001,-0.45313202934677127
-0.3217,-0.45454674064663625
-0.3227000000000001,-0.4548296829066093
-0.3237,-0.45596145194650134
-0.3247000000000001,-0.4599226435861234
-0.3257,-0.46105441262601543
-0.3267000000000001,-0.46331795070579956
-0.3277,-0.4661473733055296
-0.3287000000000001,-0.465157075395624
-0.3297,-0.4694012092952191
-0.3307000000000001,-0.47378681432480074
-0.3317,-0.47463564110471984
-0.3327000000000001,-0.47675770805451734
-0.3337,-0.47718212144447686
-0.3347000000000001,-0.48086037082412597
-0.3357,-0.48340685116388304
-0.3367000000000001,-0.48637774489359964
-0.3377,-0.4875095139334916
-0.3387000000000001,-0.48807539845343767
-0.3397,-0.4913292344431272
-0.3407000000000001,-0.49557336834272236
-0.3417,-0.49868573320242543
-0.3427000000000001,-0.49868573320242543
-0.3437,-0.5026469248420475
-0.3447000000000001,-0.505617818571764
-0.3457,-0.5111351926412377
-0.3467000000000001,-0.5128328462010757
-0.3477,-0.5148134420208869
-0.3487000000000001,-0.5170769801006708
-0.3497,-0.5224528830401581
-0.3507000000000001,-0.5285361416295777
-0.3517,-0.5323558621392133
-0.3527000000000001,-0.5344779290890109
-0.3537,-0.538722062988606
-0.3547000000000001,-0.5446638504480392
-0.3557,-0.5508885801674454
-0.35670000000000013,-0.556405954236919
-0.3577,-0.5596597902266085
-0.35870000000000013,-0.5653186354260686
-0.3597,-0.5733824898352994
-0.36070000000000013,-0.582861055544395
-0.3617,-0.5899346120437202
-0.3626999999999999,-0.5971496396730319
-0.3637,-0.6062037919921682
-0.3646999999999999,-0.6175214823910884
-0.3657,-0.6308197686098198
-0.3666999999999999,-0.6432692280486321
-0.3677,-0.6571333987873096
-0.3686999999999999,-0.6731196364757845
-0.36970000000000003,-0.6927841235439085
-0.3706999999999999,-0.7147121486918165
-0.37170000000000003,-0.7390451830494952
-0.3726999999999999,-0.7653588132269848
-0.37370000000000003,-0.7947848082641775
-0.3746999999999999,-0.828030523811006
-0.37570000000000003,-0.8631153640476589
-0.3766999999999999,-0.9020199247939473
-0.37770000000000004,-0.9429050813600469
-0.3786999999999999,-0.9932688036352422
-0.37970000000000004,-1.0485840154599653
-0.3806999999999999,-1.1154998599435815
-0.38170000000000004,-1.1910454433563744
-0.38269999999999993,-1.2793234284679527
-0.38370000000000004,-1.384719420307898
-0.38469999999999993,-1.5151558021554543
-0.38570000000000004,-1.6693593338407433
-0.38669999999999993,-1.847612957623738
-0.38770000000000004,-2.0654784978029537
-0.38869999999999993,-2.3272000882779853
-0.38970000000000005,-2.629948306449103
-0.39069999999999994,-2.9878702653149576
-0.39170000000000005,-3.386818851876898
-0.39269999999999994,-3.8027439740372184
-0.39370000000000005,-4.213010250998079
-0.39469999999999994,-4.596397013261504
-0.39570000000000005,-4.9175364783308675
-0.39669999999999994,-5.173599223606439
-0.39770000000000005,-5.40419716548444
-0.39869999999999994,-5.630550973462847
-0.39970000000000006,-5.838513534543006
-0.40069999999999995,-6.076185032920332
-0.40170000000000006,-6.3152712425975235
-0.40269999999999995,-6.548698607075254
-0.40370000000000006,-6.770808281154065
-0.40469999999999995,-6.995747377832608
-0.40570000000000006,-7.223515897110879
-0.40669999999999995,-7.4498697050892835
-0.40770000000000006,-7.6861264921667445
-0.40869999999999995,-7.930871547043396
-0.40970000000000006,-8.198251982717888
-0.41069999999999995,-8.450070594093864
-0.41170000000000007,-8.716036318468491
-0.41269999999999996,-8.960781373345142
-0.41370000000000007,-9.206941139521659
-0.41469999999999996,-9.45451561699804
-0.41570000000000007,-9.740287299570777
-0.41669999999999996,-10.011911869144866
-0.41770000000000007,-10.280707016119223
-0.41869999999999996,-10.545258029193985
-0.4197000000000001,-10.850835669964832
-0.42069999999999996,-11.171975135034195
-0.4217000000000001,-11.443599704608282
-0.42269999999999996,-11.73503023238048
-0.4237000000000001,-12.034949027951868
-0.42469999999999997,-12.337697246122985
-0.4257000000000001,-12.658836711192349
-0.42669999999999997,-12.967243774562927
-0.4277000000000001,-13.27706554923337
-0.42869999999999997,-13.601034436902461
-0.4297000000000001,-13.927832747171284
-0.43069999999999997,-14.24614278964092
-0.4317000000000001,-14.585673501608527
-0.4327,-14.925204213576137
-0.4337000000000001,-15.264734925543747
-0.4347,-15.590118524512702
-0.4357000000000001,-15.957943462477614
-0.4367,-16.29747417444522
-0.4377000000000001,-16.637004886412832
-0.4387,-17.03312405037504
-0.4397000000000001,-17.386801875341302
-0.4407,-17.641449909317007
-0.4417000000000001,-18.03756907327922
-0.4427,-18.40539401124413
-0.4437000000000001,-18.815660288204988
-0.4447,-19.169338113171246
-0.4457000000000001,-19.523015938137508
-0.4467,-19.904987989101066
-0.4477000000000001,-20.272812927065978
-0.4487,-20.626490752032236
-0.4497000000000001,-20.95187435100119
-0.4507,-21.347993514963402
-0.4517000000000001,-21.645082887935057
-0.4527,-22.04120205189727
-0.4537000000000001,-22.40902698986218
-0.4547,-22.833440379821692
-0.4557000000000001,-23.24370665678255
-0.4567,-23.639825820744765
-0.4577000000000001,-24.00765075870967
-0.4587,-24.304740131681328
-0.4597000000000001,-24.67256506964624
-0.4607,-25.026242894612498
-0.4617000000000001,-25.39406783257741
-0.4627,-25.77603988354097
-0.4637000000000001,-26.257041725495082
-0.4647,-26.667308002455943
-0.4657000000000001,-27.035132940420848
-0.4667,-27.34636942639116
-0.4677000000000001,-27.742488590353368
-0.4687,-28.11031352831828
-0.4697000000000001,-28.506432692280487
-0.4707,-28.88840474324405
-0.4717000000000001,-29.284523907206257
-0.4727,-29.652348845171172
-0.4737000000000001,-30.04846800913338
-0.4747,-30.47288139909289
-0.4757000000000001,-30.968030354045652
-0.4767,-31.321708179011907
-0.4777000000000001,-31.76026868197007
-0.4787,-32.170534958930936
-0.4797000000000001,-32.56665412289314
-0.4807,-33.17497998183511
-0.48170000000000013,-33.64183471079057
-0.4827,-34.12283655274469
-0.48370000000000013,-34.64627973369475
-0.4847,-35.098987349651566
-0.48570000000000013,-35.53754785260972
-0.4867,-35.89122567757598
-0.4876999999999999,-36.315639067535486
-0.4887,-36.725905344496354
-0.4896999999999999,-37.26349563844507
-0.4907,-37.57473212441538
-0.4916999999999999,-38.01329262737354
-0.4927,-38.46600024333035
-0.4936999999999999,-38.91870785928716
-0.49470000000000003,-39.39970970124127
-0.4956999999999999,-39.92315288219133
