Potential V vs RHE, Current mA cm-2
0.4132999999999999,-0.002175825979192426
0.4122999999999999,-0.0036570287101511194
0.4112999999999999,-0.004034756627215085
0.4102999999999999,-0.004254036878694165
0.4092999999999999,-0.004411069832979184
0.4082999999999999,-0.004549711540365958
0.4072999999999999,-0.004706744494650977
0.4062999999999999,-0.004824165532539775
0.4052999999999999,-0.0049698807964258735
0.4042999999999999,-0.005105693081212918
0.4032999999999999,-0.00519340518180455
0.4022999999999999,-0.005303752663194023
0.4012999999999999,-0.005405611876784306
0.4002999999999999,-0.005501812245175128
0.3992999999999999,-0.005623477416963521
0.3982999999999999,-0.005722507207954074
0.3972999999999999,-0.00580031632944665
0.3962999999999999,-0.005910663810836123
0.3952999999999999,-0.005995546488828026
0.3942999999999999,-0.006095990991118443
0.39329999999999987,-0.006192191359509265
0.39229999999999987,-0.006299709418299009
0.39129999999999987,-0.0063647861380928
0.39029999999999987,-0.006418545167487672
0.38929999999999987,-0.006509086690679034
0.38829999999999987,-0.006602457636470126
0.38729999999999987,-0.006677437335362973
0.38629999999999987,-0.006762320013354876
0.38529999999999986,-0.006859935093045563
0.38429999999999986,-0.006939158925838005
0.38329999999999986,-0.007005650356931662
0.38229999999999986,-0.007089118323623698
0.38129999999999986,-0.007174001001615601
0.38029999999999986,-0.007260298390907369
0.37929999999999986,-0.007332448667200485
0.37829999999999986,-0.007397525386994277
0.37729999999999986,-0.007468260951987528
0.37629999999999986,-0.007514946424883075
0.37529999999999986,-0.007601243814174842
0.37429999999999986,-0.007680467646967283
0.37329999999999985,-0.007751203211960535
0.37229999999999985,-0.00784457415775163
0.37129999999999985,-0.007894089053246905
0.37029999999999985,-0.007964824618240158
0.36929999999999985,-0.008055366141431519
0.36829999999999985,-0.00811478401602585
0.36729999999999985,-0.008171372468020452
0.36629999999999985,-0.00825484043471249
0.36529999999999985,-0.008319917154506282
0.36429999999999985,-0.008397726275998857
0.36329999999999985,-0.008454314727993458
0.36229999999999984,-0.008519391447787251
0.36129999999999984,-0.008590127012780502
0.36029999999999984,-0.008655203732574295
0.35929999999999984,-0.008733012854066871
0.35829999999999984,-0.008791016017361337
0.35729999999999984,-0.008863166293654455
0.35629999999999984,-0.008936731281247438
0.35529999999999984,-0.008972099063744063
0.35429999999999984,-0.009066884720835021
0.35329999999999984,-0.009129132018029082
0.35229999999999984,-0.009185720470023683
0.35129999999999983,-0.009259285457616666
0.35029999999999983,-0.009313044487011536
0.34929999999999983,-0.009400756587603169
0.34829999999999983,-0.009444612637898985
0.34729999999999983,-0.009540813006289806
0.34629999999999983,-0.009581839633985893
0.34529999999999983,-0.00964833106507955
0.34429999999999983,-0.00970491951707415
0.3432999999999998,-0.009767166814268213
0.3422999999999998,-0.009826584688862544
0.3412999999999998,-0.009891661408656336
0.3402999999999998,-0.009973714664048509
0.3392999999999998,-0.01002747369344338
0.3382999999999998,-0.01008406214543798
0.3372999999999998,-0.010136406463532989
0.3362999999999998,-0.010177433091229074
0.3352999999999998,-0.01024392452232273
0.3342999999999998,-0.010333051334214229
0.3332999999999998,-0.010364174982811258
0.3322999999999998,-0.010433495836504644
0.3312999999999998,-0.010480181309400191
0.3302999999999998,-0.010526866782295738
0.3292999999999998,-0.0105891140794898
0.3282999999999998,-0.010635799552385347
0.3272999999999998,-0.010703705694778867
0.3262999999999998,-0.010773026548472254
0.3252999999999999,-0.010839517979565911
0.3242999999999999,-0.010918741812358352
0.3232999999999999,-0.010947036038355654
0.3222999999999999,-0.011029089293747827
0.3212999999999999,-0.011077189477943237
0.3202999999999999,-0.011125289662138648
0.3192999999999999,-0.011197439938431765
0.3182999999999999,-0.011235637143528121
0.3172999999999999,-0.011289396172922992
0.3162999999999999,-0.01138135240741422
0.3152999999999999,-0.011464820374106257
0.3142999999999999,-0.011518579403501128
0.3132999999999999,-0.011553947185997754
0.3122999999999999,-0.01159214439109411
0.3112999999999999,-0.011664294667387227
0.3102999999999999,-0.01173220080978075
0.3092999999999999,-0.011776056860076566
0.3082999999999999,-0.011839718868570492
0.3072999999999999,-0.011893477897965363
0.3062999999999999,-0.01195148106125983
0.3052999999999999,-0.011984019421156726
0.3042999999999999,-0.012053340274850112
0.3032999999999999,-0.012109928726844714
0.3022999999999999,-0.012155199488440394
0.3012999999999999,-0.012225935053433647
0.3002999999999999,-0.01229101177322744
0.2992999999999999,-0.012337697246122985
0.2982999999999999,-0.01238721214161826
0.2972999999999999,-0.012421165212815022
0.2962999999999999,-0.012494730200408003
0.2952999999999999,-0.012542830384603416
0.2942999999999999,-0.012614980660896532
0.2932999999999999,-0.012671569112891133
0.2922999999999999,-0.012733816410085195
0.2912999999999999,-0.012756451790883035
0.2902999999999999,-0.012827187355876287
0.2892999999999999,-0.012882361096571024
0.2882999999999999,-0.01291489945646792
0.2872999999999999,-0.012979976176261713
0.2862999999999999,-0.013039394050856043
0.2852999999999999,-0.013093153080250913
0.2842999999999999,-0.013166718067843896
0.2832999999999999,-0.013217647674639038
0.2822999999999999,-0.013275650837933504
0.2812999999999999,-0.013325165733428781
0.2802999999999999,-0.013359118804625541
0.2792999999999999,-0.01344541619391731
0.2782999999999999,-0.013456733884316228
0.2772999999999999,-0.013533128294508942
0.2762999999999999,-0.01358688732390381
0.2752999999999999,-0.013640646353298685
0.2742999999999999,-0.013691575960093825
0.2732999999999999,-0.01373826143298937
0.2722999999999999,-0.01377787334938559
0.2712999999999999,-0.013845779491779115
0.2702999999999999,-0.01389812380987412
0.2692999999999999,-0.013949053416669261
0.26829999999999987,-0.013988665333065482
0.26729999999999987,-0.014032521383361298
0.26629999999999987,-0.014082036278856576
0.26529999999999987,-0.014147112998650365
0.26429999999999987,-0.014203701450644968
0.26329999999999987,-0.01424614278964092
0.26229999999999987,-0.014288584128636872
0.26129999999999987,-0.014359319693630123
0.26029999999999986,-0.014415908145624722
0.25929999999999986,-0.014472496597619325
0.25829999999999986,-0.014500790823616624
0.25729999999999986,-0.014571526388609878
0.25629999999999986,-0.01461396772760583
0.25529999999999986,-0.014670556179600431
0.25429999999999986,-0.014727144631595034
0.25329999999999986,-0.014769585970590984
0.25229999999999986,-0.014826174422585584
0.25129999999999986,-0.014854468648582884
0.25029999999999986,-0.014911057100577486
0.24929999999999986,-0.014967645552572089
0.24829999999999985,-0.014995939778569388
0.24729999999999985,-0.015080822456561293
0.24629999999999985,-0.015137410908555892
0.24529999999999985,-0.015208146473549147
0.24429999999999985,-0.015264734925543746
0.24329999999999985,-0.015278882038542396
0.24229999999999985,-0.015321323377538347
0.24129999999999985,-0.0153637647165343
0.24029999999999985,-0.015406206055530251
0.23929999999999985,-0.015476941620523503
0.23829999999999985,-0.015519382959519455
0.23729999999999984,-0.015561824298515404
0.23629999999999984,-0.015618412750510005
0.23529999999999984,-0.015660854089505957
0.23429999999999984,-0.015703295428501907
0.23329999999999984,-0.01573158965449921
0.23229999999999984,-0.01578817810649381
0.23129999999999984,-0.01584476655848841
0.23029999999999984,-0.01588720789748436
0.22929999999999984,-0.015943796349478963
0.22829999999999984,-0.016000384801473564
0.22729999999999984,-0.016056973253468165
0.22629999999999983,-0.016099414592464115
0.22529999999999983,-0.01614185593146007
0.22429999999999983,-0.01618429727045602
0.22329999999999983,-0.016212591496453318
0.22229999999999983,-0.016269179948447923
0.22129999999999983,-0.016325768400442524
0.22029999999999983,-0.016396503965435776
0.21929999999999983,-0.016438945304431726
0.21829999999999983,-0.01646723953042903
0.21729999999999983,-0.01650968086942498
0.21629999999999983,-0.016552122208420932
0.21529999999999982,-0.01662285777341418
0.21429999999999982,-0.016679446225408782
0.21329999999999982,-0.016721887564404736
0.21229999999999982,-0.016778476016399334
0.21129999999999982,-0.016806770242396636
0.21029999999999982,-0.016863358694391237
0.20929999999999982,-0.01691994714638584
0.20829999999999982,-0.016948241372383138
0.20729999999999982,-0.017018976937376393
0.20629999999999982,-0.01706141827637234
0.20529999999999982,-0.017103859615368294
0.20429999999999982,-0.017174595180361543
0.20329999999999981,-0.017202889406358845
0.2022999999999998,-0.017259477858353446
0.2012999999999998,-0.01731606631034805
0.20029999999999992,-0.01734436053634535
0.19929999999999992,-0.017400948988339954
0.19829999999999992,-0.017443390327335904
0.19729999999999992,-0.017499978779330502
0.19629999999999992,-0.017570714344323755
0.19529999999999992,-0.017584861457322406
0.19429999999999992,-0.01768389124831296
0.19329999999999992,-0.01772633258730891
0.19229999999999992,-0.01774047970030756
0.19129999999999991,-0.017797068152302163
0.1902999999999999,-0.01785365660429676
0.1892999999999999,-0.017924392169290013
0.1882999999999999,-0.017952686395287316
0.1872999999999999,-0.017980980621284618
0.1862999999999999,-0.01803756907327922
0.1852999999999999,-0.018080010412275173
0.1842999999999999,-0.01812245175127112
0.1832999999999999,-0.01816489309026707
0.1822999999999999,-0.018235628655260322
0.1812999999999999,-0.018306364220253574
0.1802999999999999,-0.018362952672248176
0.1792999999999999,-0.018377099785246823
0.1782999999999999,-0.018419541124242777
0.1772999999999999,-0.01847612957623738
0.1762999999999999,-0.01851857091523333
0.1752999999999999,-0.018575159367227933
0.1742999999999999,-0.018645894932221182
0.1732999999999999,-0.018702483384215783
0.1722999999999999,-0.018730777610213082
0.1712999999999999,-0.018773218949209036
0.1702999999999999,-0.01882980740120364
0.1692999999999999,-0.01887224874019959
0.1682999999999999,-0.01892883719219419
0.1672999999999999,-0.01897127853119014
0.1662999999999999,-0.019013719870186095
0.1652999999999999,-0.019070308322180696
0.1642999999999999,-0.019126896774175294
0.1632999999999999,-0.0191551910001726
0.1622999999999999,-0.019211779452167198
0.1612999999999999,-0.01928251501716045
0.1602999999999999,-0.0192966621301591
0.1592999999999999,-0.019367397695152354
0.15829999999999989,-0.019381544808151
0.15729999999999988,-0.019438133260145606
0.15629999999999988,-0.01950886882513886
0.15529999999999988,-0.019551310164134805
0.15429999999999988,-0.019607898616129407
0.15329999999999988,-0.019622045729128058
0.15229999999999988,-0.01967863418112266
0.15129999999999988,-0.019749369746115915
0.15029999999999988,-0.019805958198110513
0.14929999999999988,-0.019862546650105117
0.14829999999999988,-0.019904987989101064
0.14729999999999988,-0.019919135102099715
0.14629999999999987,-0.01997572355409432
0.14529999999999987,-0.020018164893090266
0.14429999999999987,-0.02006060623208622
0.14329999999999987,-0.020131341797079472
0.14229999999999987,-0.02020207736207272
0.14129999999999987,-0.020230371588070024
0.14029999999999987,-0.020272812927065977
0.13929999999999987,-0.02032940137906058
0.13829999999999987,-0.02038598983105518
0.13729999999999987,-0.02042843117005113
0.13629999999999987,-0.02048501962204573
0.13529999999999986,-0.020541608074040336
0.13429999999999986,-0.020584049413036282
0.13329999999999986,-0.020626490752032236
0.13229999999999986,-0.020654784978029535
0.13129999999999986,-0.020697226317025485
0.13029999999999986,-0.02075381476902009
0.12929999999999986,-0.020810403221014687
0.12829999999999986,-0.020838697447011986
0.12729999999999986,-0.020895285899006594
0.12629999999999986,-0.020966021463999843
0.12529999999999986,-0.020994315689997142
0.12429999999999986,-0.021079198367989046
0.12329999999999985,-0.021107492593986348
0.12229999999999985,-0.021164081045980946
0.12129999999999985,-0.02122066949797555
0.12029999999999985,-0.0212631108369715
0.11929999999999985,-0.021319699288966102
0.11829999999999985,-0.021347993514963404
0.11729999999999985,-0.021376287740960703
0.11629999999999985,-0.021447023305953956
0.11529999999999985,-0.021489464644949906
0.11429999999999985,-0.021560200209943158
0.11329999999999985,-0.021602641548939108
0.11229999999999984,-0.021645082887935062
0.11129999999999984,-0.021701671339929663
0.11029999999999984,-0.021729965565926962
0.10929999999999984,-0.021772406904922915
0.10829999999999984,-0.021843142469916164
0.10729999999999984,-0.02185728958291482
0.10629999999999984,-0.021928025147908068
0.10529999999999984,-0.02197046648690402
0.10429999999999984,-0.02204120205189727
0.10329999999999984,-0.022097790503891875
0.10229999999999984,-0.022154378955886473
0.10129999999999983,-0.022196820294882423
0.10029999999999983,-0.022253408746877028
0.09929999999999983,-0.022295850085872978
0.09829999999999983,-0.02235243853786758
0.09729999999999983,-0.02239487987686353
0.09629999999999983,-0.022437321215859483
0.09529999999999983,-0.022493909667854084
0.09429999999999983,-0.022508056780852735
0.09329999999999983,-0.022564645232847336
0.09229999999999983,-0.022635380797840585
0.09129999999999983,-0.02270611636283384
0.09029999999999982,-0.02274855770182979
0.08929999999999982,-0.02280514615382439
0.08829999999999982,-0.022819293266823044
0.08729999999999982,-0.022861734605818994
0.08629999999999982,-0.022918323057813595
0.08529999999999982,-0.022960764396809545
0.08429999999999982,-0.023031499961802798
0.08329999999999982,-0.0230597941878001
0.08229999999999982,-0.023116382639794698
0.08129999999999982,-0.023158823978790648
0.08029999999999982,-0.02318711820478795
0.07929999999999982,-0.023257853769781203
0.07829999999999981,-0.023300295108777156
0.07729999999999981,-0.023342736447773106
0.07629999999999981,-0.02341347201276636
0.07529999999999992,-0.023441766238763657
0.07429999999999992,-0.02352664891675556
0.07329999999999992,-0.02356909025575151
0.07229999999999992,-0.023611531594747465
0.07129999999999992,-0.023682267159740714
0.07029999999999992,-0.023710561385738016
0.06929999999999992,-0.023767149837732617
0.06829999999999992,-0.023809591176728567
0.06729999999999992,-0.02385203251572452
0.06629999999999991,-0.02392276808071777
0.06529999999999991,-0.02397935653271237
0.06429999999999991,-0.024035944984706972
0.06329999999999991,-0.024078386323702922
0.06229999999999991,-0.024134974775697527
0.06129999999999991,-0.02420571034069078
0.06029999999999991,-0.02423400456668808
0.05929999999999991,-0.02424815167968673
0.05829999999999991,-0.024318887244679982
0.05729999999999991,-0.024375475696674583
0.056299999999999906,-0.024432064148669184
0.055299999999999905,-0.024488652600663786
0.054299999999999904,-0.02453109393965974
0.0532999999999999,-0.024559388165657038
0.0522999999999999,-0.02461597661765164
0.0512999999999999,-0.02467256506964624
0.0502999999999999,-0.024729153521640842
0.0492999999999999,-0.02479988908663409
0.0482999999999999,-0.024856477538628696
0.0472999999999999,-0.024913065990623297
0.0462999999999999,-0.0249413602166206
0.045299999999999896,-0.0249979486686152
0.044299999999999895,-0.02506868423360845
0.043299999999999894,-0.02509697845960575
0.04229999999999989,-0.025167714024599004
0.04129999999999989,-0.025224302476593602
0.04029999999999989,-0.025280890928588207
0.03929999999999989,-0.025323332267584157
0.03829999999999989,-0.025365773606580107
0.03729999999999989,-0.02540821494557606
0.03629999999999989,-0.025493097623567964
0.03529999999999989,-0.02554968607556256
0.034299999999999886,-0.025606274527557166
0.033299999999999885,-0.025662862979551764
0.032299999999999884,-0.025677010092550415
0.031299999999999883,-0.02576189277054232
0.030299999999999883,-0.02577603988354097
0.02929999999999988,-0.025860922561532867
0.02829999999999988,-0.02591751101352747
0.02729999999999988,-0.025959952352523425
0.02629999999999988,-0.026030687917516674
0.025299999999999878,-0.026101423482509926
0.024299999999999877,-0.02612971770850723
0.023299999999999876,-0.026186306160501827
0.022299999999999875,-0.02621460038649913
0.021299999999999875,-0.02629948306449103
0.020299999999999874,-0.026384365742482933
0.019299999999999873,-0.026412659968480235
0.018299999999999872,-0.02649754264647214
0.01729999999999987,-0.02655413109846674
0.01629999999999987,-0.02662486666345999
0.01529999999999987,-0.026695602228453245
0.014299999999999868,-0.026752190680447843
0.013299999999999867,-0.026780484906445145
0.012299999999999978,-0.02682292624544109
0.011299999999999866,-0.026865367584437045
0.010299999999999976,-0.02692195603643165
0.009299999999999864,-0.027006838714423546
0.008299999999999974,-0.027063427166418155
0.007299999999999862,-0.027120015618412752
0.006299999999999972,-0.027190751183406005
0.00529999999999986,-0.02723319252240196
0.0042999999999999705,-0.027289780974396556
0.0032999999999998586,-0.02731807520039386
0.0022999999999999687,-0.027374663652388463
0.0012999999999998568,-0.027459546330380363
0.00029999999999996696,-0.027487840556377662
-0.000700000000000145,-0.027572723234369562
-0.0017000000000000348,-0.027615164573365516
-0.0027000000000001467,-0.027671753025360117
-0.0037000000000000366,-0.02774248859035337
-0.0047000000000001485,-0.027770782816350672
-0.005700000000000038,-0.027841518381343924
-0.00670000000000015,-0.027912253946337173
-0.00770000000000004,-0.027940548172334476
-0.008700000000000152,-0.02802543085032638
-0.009700000000000042,-0.02806787218932233
-0.010700000000000154,-0.02815275486731423
-0.011700000000000044,-0.028181049093311532
-0.012700000000000156,-0.02819519620631018
-0.013700000000000045,-0.028280078884302083
-0.014700000000000157,-0.028336667336296688
-0.015700000000000047,-0.028379108675292634
-0.01670000000000016,-0.028435697127287232
-0.01770000000000005,-0.02849228557928184
-0.01870000000000016,-0.02854887403127644
-0.01970000000000005,-0.02861960959626969
-0.020700000000000163,-0.028647903822266993
-0.021700000000000053,-0.028718639387260245
-0.022700000000000164,-0.028746933613257548
-0.023700000000000054,-0.028845963404248096
-0.024700000000000166,-0.02888840474324405
-0.025700000000000056,-0.02893084608224
-0.026700000000000168,-0.028987434534234607
-0.027700000000000058,-0.029044022986229205
-0.02870000000000017,-0.0290723172122265
-0.02970000000000006,-0.029143052777219756
-0.03070000000000017,-0.02922793545521166
-0.03170000000000006,-0.02927037679420761
-0.03270000000000017,-0.02935525947219951
-0.03370000000000006,-0.02939770081119546
-0.034700000000000175,-0.029440142150191414
-0.035700000000000065,-0.029510877715184666
-0.03670000000000018,-0.02953917194118197
-0.03770000000000007,-0.029567466167179264
-0.03870000000000018,-0.029652348845171168
-0.03970000000000007,-0.02968064307116847
-0.04070000000000018,-0.029765525749160374
-0.04170000000000007,-0.029779672862159025
-0.04270000000000018,-0.029850408427152274
-0.04370000000000007,-0.029921143992145526
-0.044700000000000184,-0.029963585331141473
-0.045700000000000074,-0.03002017378313608
-0.046700000000000186,-0.030048468009133376
-0.047700000000000076,-0.030090909348129333
-0.04870000000000019,-0.030161644913122586
-0.04970000000000008,-0.030204086252118532
-0.05070000000000019,-0.030260674704113137
-0.05170000000000008,-0.03033141026910639
-0.05270000000000019,-0.03033141026910639
-0.05370000000000008,-0.03040214583409964
-0.05470000000000019,-0.030458734286094236
-0.05570000000000008,-0.030501175625090193
-0.056700000000000195,-0.03055776407708479
-0.057700000000000085,-0.030614352529079396
-0.058700000000000196,-0.030670940981073994
-0.059700000000000086,-0.0307275294330686
-0.0607000000000002,-0.030755823659065897
-0.06170000000000009,-0.030812412111060502
-0.0627000000000002,-0.030883147676053754
-0.06370000000000009,-0.030897294789052406
