July 1, 2026   17:44:30
Cyclic Voltammetry
File: c:/users/guazh/data/20260623_doe_duplica2/2026-07-01-exp60\exp60-2026-07-01t17_17_01-h2koh\exp60_cv_sr_300mvs_efin_-1900mv.bin
Data Source:  Experiment
Instrument Model:  CHI760E
Header: CV ran at 300 mVs
Note: 

Init E (V) = -1
High E (V) = -1
Low E (V) = -1.9
Final E (V) = -1
Init P/N = N
Scan Rate (V/s) = 0.3
Segment = 3
Sample Interval (V) = 0.001
Quiet Time (sec) = 2
Sensitivity (A/V) = 0.01
Comp R (ohm) = 3.0

Results:

Channel 1:
Segment 1:

Segment 2:

Segment 3:

Potential/V, Current/A

-1.000, 1.559e-7
-1.001, 3.239e-6
-1.002, 3.239e-6
-1.003, 6.322e-6
-1.004, 6.322e-6
-1.005, 6.322e-6
-1.006, 6.322e-6
-1.007, 6.322e-6
-1.008, 6.322e-6
-1.009, 6.322e-6
-1.010, 6.322e-6
-1.011, 9.405e-6
-1.012, 9.405e-6
-1.013, 9.405e-6
-1.014, 9.405e-6
-1.015, 9.405e-6
-1.016, 9.405e-6
-1.017, 9.405e-6
-1.018, 9.405e-6
-1.019, 9.405e-6
-1.020, 9.405e-6
-1.021, 9.405e-6
-1.022, 9.405e-6
-1.023, 9.405e-6
-1.024, 9.405e-6
-1.025, 9.405e-6
-1.026, 9.405e-6
-1.027, 9.405e-6
-1.028, 9.405e-6
-1.029, 9.405e-6
-1.030, 9.405e-6
-1.031, 1.249e-5
-1.032, 9.405e-6
-1.033, 1.249e-5
-1.034, 1.249e-5
-1.035, 1.249e-5
-1.036, 1.249e-5
-1.037, 1.249e-5
-1.038, 1.249e-5
-1.039, 1.249e-5
-1.040, 1.249e-5
-1.041, 1.249e-5
-1.042, 1.249e-5
-1.043, 1.249e-5
-1.044, 1.249e-5
-1.045, 1.249e-5
-1.046, 1.249e-5
-1.047, 1.249e-5
-1.048, 1.249e-5
-1.049, 1.249e-5
-1.050, 1.249e-5
-1.051, 1.249e-5
-1.052, 1.249e-5
-1.053, 1.249e-5
-1.054, 1.249e-5
-1.055, 1.249e-5
-1.056, 1.249e-5
-1.057, 1.249e-5
-1.058, 1.249e-5
-1.059, 1.249e-5
-1.060, 1.249e-5
-1.061, 1.249e-5
-1.062, 1.249e-5
-1.063, 1.249e-5
-1.064, 1.249e-5
-1.065, 1.249e-5
-1.066, 1.249e-5
-1.067, 1.249e-5
-1.068, 1.249e-5
-1.069, 1.249e-5
-1.070, 1.249e-5
-1.071, 1.249e-5
-1.072, 1.249e-5
-1.073, 1.249e-5
-1.074, 1.249e-5
-1.075, 1.249e-5
-1.076, 1.249e-5
-1.077, 1.249e-5
-1.078, 1.249e-5
-1.079, 1.249e-5
-1.080, 1.249e-5
-1.081, 1.249e-5
-1.082, 1.249e-5
-1.083, 1.249e-5
-1.084, 1.249e-5
-1.085, 1.249e-5
-1.086, 1.249e-5
-1.087, 1.249e-5
-1.088, 1.249e-5
-1.089, 1.249e-5
-1.090, 1.557e-5
-1.091, 1.249e-5
-1.092, 1.249e-5
-1.093, 1.249e-5
-1.094, 1.249e-5
-1.095, 1.249e-5
-1.096, 1.557e-5
-1.097, 1.249e-5
-1.098, 1.249e-5
-1.099, 1.557e-5
-1.100, 1.249e-5
-1.101, 1.249e-5
-1.102, 1.249e-5
-1.103, 1.249e-5
-1.104, 1.249e-5
-1.105, 1.249e-5
-1.106, 1.557e-5
-1.107, 1.249e-5
-1.108, 1.249e-5
-1.109, 1.557e-5
-1.110, 1.249e-5
-1.111, 1.249e-5
-1.112, 1.557e-5
-1.113, 1.249e-5
-1.114, 1.249e-5
-1.115, 1.557e-5
-1.116, 1.249e-5
-1.117, 1.249e-5
-1.118, 1.557e-5
-1.119, 1.249e-5
-1.120, 1.249e-5
-1.121, 1.557e-5
-1.122, 1.249e-5
-1.123, 1.249e-5
-1.124, 1.557e-5
-1.125, 1.249e-5
-1.126, 1.557e-5
-1.127, 1.249e-5
-1.128, 1.557e-5
-1.129, 1.557e-5
-1.130, 1.557e-5
-1.131, 1.557e-5
-1.132, 1.249e-5
-1.133, 1.557e-5
-1.134, 1.249e-5
-1.135, 1.249e-5
-1.136, 1.557e-5
-1.137, 1.557e-5
-1.138, 1.557e-5
-1.139, 1.557e-5
-1.140, 1.557e-5
-1.141, 1.557e-5
-1.142, 1.557e-5
-1.143, 1.557e-5
-1.144, 1.557e-5
-1.145, 1.557e-5
-1.146, 1.557e-5
-1.147, 1.557e-5
-1.148, 1.557e-5
-1.149, 1.557e-5
-1.150, 1.557e-5
-1.151, 1.557e-5
-1.152, 1.557e-5
-1.153, 1.557e-5
-1.154, 1.557e-5
-1.155, 1.557e-5
-1.156, 1.557e-5
-1.157, 1.557e-5
-1.158, 1.557e-5
-1.159, 1.557e-5
-1.160, 1.557e-5
-1.161, 1.557e-5
-1.162, 1.557e-5
-1.163, 1.557e-5
-1.164, 1.557e-5
-1.165, 1.557e-5
-1.166, 1.557e-5
-1.167, 1.557e-5
-1.168, 1.557e-5
-1.169, 1.557e-5
-1.170, 1.557e-5
-1.171, 1.557e-5
-1.172, 1.557e-5
-1.173, 1.557e-5
-1.174, 1.557e-5
-1.175, 1.557e-5
-1.176, 1.557e-5
-1.177, 1.557e-5
-1.178, 1.557e-5
-1.179, 1.557e-5
-1.180, 1.557e-5
-1.181, 1.557e-5
-1.182, 1.557e-5
-1.183, 1.557e-5
-1.184, 1.557e-5
-1.185, 1.557e-5
-1.186, 1.557e-5
-1.187, 1.557e-5
-1.188, 1.557e-5
-1.189, 1.557e-5
-1.190, 1.557e-5
-1.191, 1.557e-5
-1.192, 1.557e-5
-1.193, 1.557e-5
-1.194, 1.557e-5
-1.195, 1.557e-5
-1.196, 1.557e-5
-1.197, 1.557e-5
-1.198, 1.557e-5
-1.199, 1.557e-5
-1.200, 1.557e-5
-1.201, 1.557e-5
-1.202, 1.557e-5
-1.203, 1.557e-5
-1.204, 1.557e-5
-1.205, 1.557e-5
-1.206, 1.557e-5
-1.207, 1.557e-5
-1.208, 1.557e-5
-1.209, 1.557e-5
-1.210, 1.557e-5
-1.211, 1.557e-5
-1.212, 1.557e-5
-1.213, 1.557e-5
-1.214, 1.557e-5
-1.215, 1.557e-5
-1.216, 1.557e-5
-1.217, 1.557e-5
-1.218, 1.557e-5
-1.219, 1.557e-5
-1.220, 1.557e-5
-1.221, 1.557e-5
-1.222, 1.557e-5
-1.223, 1.865e-5
-1.224, 1.557e-5
-1.225, 1.557e-5
-1.226, 1.557e-5
-1.227, 1.557e-5
-1.228, 1.557e-5
-1.229, 1.557e-5
-1.230, 1.865e-5
-1.231, 1.557e-5
-1.232, 1.865e-5
-1.233, 1.557e-5
-1.234, 1.557e-5
-1.235, 1.557e-5
-1.236, 1.865e-5
-1.237, 1.865e-5
-1.238, 1.865e-5
-1.239, 1.557e-5
-1.240, 1.557e-5
-1.241, 1.865e-5
-1.242, 1.865e-5
-1.243, 1.865e-5
-1.244, 1.865e-5
-1.245, 1.865e-5
-1.246, 1.865e-5
-1.247, 1.865e-5
-1.248, 1.865e-5
-1.249, 1.865e-5
-1.250, 1.865e-5
-1.251, 1.865e-5
-1.252, 1.865e-5
-1.253, 1.865e-5
-1.254, 1.865e-5
-1.255, 1.865e-5
-1.256, 1.865e-5
-1.257, 1.865e-5
-1.258, 1.865e-5
-1.259, 1.865e-5
-1.260, 1.865e-5
-1.261, 1.865e-5
-1.262, 1.865e-5
-1.263, 1.865e-5
-1.264, 1.865e-5
-1.265, 1.865e-5
-1.266, 1.865e-5
-1.267, 1.865e-5
-1.268, 1.865e-5
-1.269, 1.865e-5
-1.270, 1.865e-5
-1.271, 1.865e-5
-1.272, 1.865e-5
-1.273, 2.174e-5
-1.274, 1.865e-5
-1.275, 1.865e-5
-1.276, 1.865e-5
-1.277, 1.865e-5
-1.278, 1.865e-5
-1.279, 1.865e-5
-1.280, 1.865e-5
-1.281, 1.865e-5
-1.282, 2.174e-5
-1.283, 1.865e-5
-1.284, 1.865e-5
-1.285, 1.865e-5
-1.286, 2.174e-5
-1.287, 2.174e-5
-1.288, 1.865e-5
-1.289, 2.174e-5
-1.290, 1.865e-5
-1.291, 2.174e-5
-1.292, 2.174e-5
-1.293, 2.174e-5
-1.294, 2.174e-5
-1.295, 2.174e-5
-1.296, 2.174e-5
-1.297, 2.174e-5
-1.298, 2.174e-5
-1.299, 2.174e-5
-1.300, 2.174e-5
-1.301, 2.174e-5
-1.302, 2.174e-5
-1.303, 2.174e-5
-1.304, 2.174e-5
-1.305, 2.174e-5
-1.306, 2.174e-5
-1.307, 2.174e-5
-1.308, 2.482e-5
-1.309, 2.174e-5
-1.310, 2.174e-5
-1.311, 2.482e-5
-1.312, 2.174e-5
-1.313, 2.174e-5
-1.314, 2.174e-5
-1.315, 2.174e-5
-1.316, 2.482e-5
-1.317, 2.482e-5
-1.318, 2.482e-5
-1.319, 2.482e-5
-1.320, 2.482e-5
-1.321, 2.482e-5
-1.322, 2.482e-5
-1.323, 2.482e-5
-1.324, 2.482e-5
-1.325, 2.482e-5
-1.326, 2.482e-5
-1.327, 2.482e-5
-1.328, 2.482e-5
-1.329, 2.482e-5
-1.330, 2.482e-5
-1.331, 2.482e-5
-1.332, 2.482e-5
-1.333, 2.482e-5
-1.334, 2.482e-5
-1.335, 2.482e-5
-1.336, 2.482e-5
-1.337, 2.482e-5
-1.338, 2.482e-5
-1.339, 2.482e-5
-1.340, 2.482e-5
-1.341, 2.482e-5
-1.342, 2.482e-5
-1.343, 2.482e-5
-1.344, 2.482e-5
-1.345, 2.482e-5
-1.346, 2.482e-5
-1.347, 2.790e-5
-1.348, 2.790e-5
-1.349, 2.482e-5
-1.350, 2.790e-5
-1.351, 2.790e-5
-1.352, 2.482e-5
-1.353, 2.790e-5
-1.354, 2.482e-5
-1.355, 2.790e-5
-1.356, 2.790e-5
-1.357, 2.790e-5
-1.358, 2.790e-5
-1.359, 2.790e-5
-1.360, 2.790e-5
-1.361, 2.790e-5
-1.362, 2.790e-5
-1.363, 2.790e-5
-1.364, 2.790e-5
-1.365, 2.790e-5
-1.366, 2.790e-5
-1.367, 2.482e-5
-1.368, 2.790e-5
-1.369, 2.790e-5
-1.370, 2.790e-5
-1.371, 2.790e-5
-1.372, 2.790e-5
-1.373, 2.790e-5
-1.374, 2.790e-5
-1.375, 2.790e-5
-1.376, 2.790e-5
-1.377, 2.790e-5
-1.378, 2.790e-5
-1.379, 2.790e-5
-1.380, 2.790e-5
-1.381, 2.790e-5
-1.382, 2.790e-5
-1.383, 2.790e-5
-1.384, 2.790e-5
-1.385, 2.790e-5
-1.386, 2.790e-5
-1.387, 2.790e-5
-1.388, 2.790e-5
-1.389, 2.790e-5
-1.390, 2.790e-5
-1.391, 2.790e-5
-1.392, 2.790e-5
-1.393, 2.790e-5
-1.394, 2.790e-5
-1.395, 2.790e-5
-1.396, 2.790e-5
-1.397, 2.790e-5
-1.398, 2.790e-5
-1.399, 2.790e-5
-1.400, 2.790e-5
-1.401, 2.790e-5
-1.402, 2.790e-5
-1.403, 2.790e-5
-1.404, 3.099e-5
-1.405, 2.790e-5
-1.406, 3.099e-5
-1.407, 3.099e-5
-1.408, 3.099e-5
-1.409, 3.099e-5
-1.410, 3.099e-5
-1.411, 3.099e-5
-1.412, 2.790e-5
-1.413, 2.790e-5
-1.414, 2.790e-5
-1.415, 3.099e-5
-1.416, 3.099e-5
-1.417, 3.099e-5
-1.418, 3.099e-5
-1.419, 3.099e-5
-1.420, 3.099e-5
-1.421, 3.099e-5
-1.422, 3.099e-5
-1.423, 3.099e-5
-1.424, 3.099e-5
-1.425, 3.099e-5
-1.426, 3.099e-5
-1.427, 3.099e-5
-1.428, 3.099e-5
-1.429, 3.099e-5
-1.430, 3.099e-5
-1.431, 3.099e-5
-1.432, 3.099e-5
-1.433, 3.099e-5
-1.434, 3.099e-5
-1.435, 3.099e-5
-1.436, 3.099e-5
-1.437, 3.099e-5
-1.438, 3.099e-5
-1.439, 3.407e-5
-1.440, 3.099e-5
-1.441, 3.099e-5
-1.442, 3.099e-5
-1.443, 3.407e-5
-1.444, 3.407e-5
-1.445, 3.407e-5
-1.446, 3.407e-5
-1.447, 3.407e-5
-1.448, 3.407e-5
-1.449, 3.407e-5
-1.450, 3.407e-5
-1.451, 3.407e-5
-1.452, 3.407e-5
-1.453, 3.407e-5
-1.454, 3.407e-5
-1.455, 3.407e-5
-1.456, 3.407e-5
-1.457, 3.407e-5
-1.458, 3.407e-5
-1.459, 3.407e-5
-1.460, 3.407e-5
-1.461, 3.407e-5
-1.462, 3.407e-5
-1.463, 3.715e-5
-1.464, 3.407e-5
-1.465, 3.407e-5
-1.466, 3.407e-5
-1.467, 3.407e-5
-1.468, 3.715e-5
-1.469, 3.715e-5
-1.470, 3.715e-5
-1.471, 3.715e-5
-1.472, 3.715e-5
-1.473, 3.715e-5
-1.474, 3.715e-5
-1.475, 3.715e-5
-1.476, 3.715e-5
-1.477, 3.715e-5
-1.478, 3.715e-5
-1.479, 3.715e-5
-1.480, 3.715e-5
-1.481, 3.715e-5
-1.482, 3.715e-5
-1.483, 3.715e-5
-1.484, 3.715e-5
-1.485, 4.024e-5
-1.486, 4.024e-5
-1.487, 4.024e-5
-1.488, 4.024e-5
-1.489, 4.024e-5
-1.490, 4.024e-5
-1.491, 4.024e-5
-1.492, 4.332e-5
-1.493, 4.024e-5
-1.494, 4.332e-5
-1.495, 4.024e-5
-1.496, 4.332e-5
-1.497, 4.332e-5
-1.498, 4.332e-5
-1.499, 4.332e-5
-1.500, 4.332e-5
-1.501, 4.640e-5
-1.502, 4.332e-5
-1.503, 4.640e-5
-1.504, 4.640e-5
-1.505, 4.640e-5
-1.506, 4.640e-5
-1.507, 4.640e-5
-1.508, 4.640e-5
-1.509, 4.640e-5
-1.510, 4.640e-5
-1.511, 4.949e-5
-1.512, 4.949e-5
-1.513, 4.949e-5
-1.514, 4.949e-5
-1.515, 4.949e-5
-1.516, 4.949e-5
-1.517, 4.949e-5
-1.518, 5.257e-5
-1.519, 5.257e-5
-1.520, 5.257e-5
-1.521, 5.257e-5
-1.522, 5.257e-5
-1.523, 5.257e-5
-1.524, 5.257e-5
-1.525, 5.565e-5
-1.526, 5.565e-5
-1.527, 5.565e-5
-1.528, 5.565e-5
-1.529, 5.565e-5
-1.530, 5.873e-5
-1.531, 5.873e-5
-1.532, 5.873e-5
-1.533, 5.873e-5
-1.534, 6.182e-5
-1.535, 6.182e-5
-1.536, 6.182e-5
-1.537, 6.182e-5
-1.538, 6.182e-5
-1.539, 6.490e-5
-1.540, 6.490e-5
-1.541, 6.490e-5
-1.542, 6.490e-5
-1.543, 6.798e-5
-1.544, 6.798e-5
-1.545, 6.798e-5
-1.546, 6.798e-5
-1.547, 7.107e-5
-1.548, 7.107e-5
-1.549, 7.107e-5
-1.550, 7.415e-5
-1.551, 7.415e-5
-1.552, 7.415e-5
-1.553, 7.415e-5
-1.554, 7.723e-5
-1.555, 7.723e-5
-1.556, 7.723e-5
-1.557, 8.032e-5
-1.558, 8.032e-5
-1.559, 8.340e-5
-1.560, 8.340e-5
-1.561, 8.340e-5
-1.562, 8.340e-5
-1.563, 8.648e-5
-1.564, 8.648e-5
-1.565, 8.648e-5
-1.566, 8.957e-5
-1.567, 9.265e-5
-1.568, 9.265e-5
-1.569, 9.265e-5
-1.570, 9.573e-5
-1.571, 9.573e-5
-1.572, 9.882e-5
-1.573, 9.882e-5
-1.574, 1.019e-4
-1.575, 1.019e-4
-1.576, 1.050e-4
-1.577, 1.050e-4
-1.578, 1.081e-4
-1.579, 1.081e-4
-1.580, 1.111e-4
-1.581, 1.111e-4
-1.582, 1.142e-4
-1.583, 1.142e-4
-1.584, 1.173e-4
-1.585, 1.173e-4
-1.586, 1.204e-4
-1.587, 1.204e-4
-1.588, 1.235e-4
-1.589, 1.235e-4
-1.590, 1.266e-4
-1.591, 1.266e-4
-1.592, 1.327e-4
-1.593, 1.327e-4
-1.594, 1.358e-4
-1.595, 1.358e-4
-1.596, 1.389e-4
-1.597, 1.420e-4
-1.598, 1.420e-4
-1.599, 1.451e-4
-1.600, 1.481e-4
-1.601, 1.512e-4
-1.602, 1.512e-4
-1.603, 1.543e-4
-1.604, 1.574e-4
-1.605, 1.574e-4
-1.606, 1.605e-4
-1.607, 1.636e-4
-1.608, 1.666e-4
-1.609, 1.697e-4
-1.610, 1.697e-4
-1.611, 1.728e-4
-1.612, 1.759e-4
-1.613, 1.790e-4
-1.614, 1.821e-4
-1.615, 1.821e-4
-1.616, 1.882e-4
-1.617, 1.882e-4
-1.618, 1.913e-4
-1.619, 1.944e-4
-1.620, 1.975e-4
-1.621, 2.006e-4
-1.622, 2.036e-4
-1.623, 2.067e-4
-1.624, 2.098e-4
-1.625, 2.129e-4
-1.626, 2.160e-4
-1.627, 2.191e-4
-1.628, 2.221e-4
-1.629, 2.252e-4
-1.630, 2.283e-4
-1.631, 2.345e-4
-1.632, 2.345e-4
-1.633, 2.376e-4
-1.634, 2.437e-4
-1.635, 2.468e-4
-1.636, 2.499e-4
-1.637, 2.530e-4
-1.638, 2.591e-4
-1.639, 2.622e-4
-1.640, 2.653e-4
-1.641, 2.715e-4
-1.642, 2.746e-4
-1.643, 2.776e-4
-1.644, 2.776e-4
-1.645, 2.807e-4
-1.646, 2.869e-4
-1.647, 2.900e-4
-1.648, 2.931e-4
-1.649, 2.992e-4
-1.650, 3.023e-4
-1.651, 3.085e-4
-1.652, 3.115e-4
-1.653, 3.146e-4
-1.654, 3.208e-4
-1.655, 3.270e-4
-1.656, 3.331e-4
-1.657, 3.393e-4
-1.658, 3.362e-4
-1.659, 3.393e-4
-1.660, 3.455e-4
-1.661, 3.516e-4
-1.662, 3.547e-4
-1.663, 3.609e-4
-1.664, 3.640e-4
-1.665, 3.701e-4
-1.666, 3.763e-4
-1.667, 3.794e-4
-1.668, 3.855e-4
-1.669, 3.917e-4
-1.670, 3.979e-4
-1.671, 4.040e-4
-1.672, 4.071e-4
-1.673, 4.133e-4
-1.674, 4.195e-4
-1.675, 4.287e-4
-1.676, 4.349e-4
-1.677, 4.380e-4
-1.678, 4.472e-4
-1.679, 4.503e-4
-1.680, 4.565e-4
-1.681, 4.719e-4
-1.682, 4.750e-4
-1.683, 4.811e-4
-1.684, 4.873e-4
-1.685, 4.873e-4
-1.686, 4.904e-4
-1.687, 4.996e-4
-1.688, 5.089e-4
-1.689, 5.120e-4
-1.690, 5.212e-4
-1.691, 5.305e-4
-1.692, 5.459e-4
-1.693, 5.489e-4
-1.694, 5.489e-4
-1.695, 5.582e-4
-1.696, 5.644e-4
-1.697, 5.736e-4
-1.698, 5.829e-4
-1.699, 5.859e-4
-1.700, 5.952e-4
-1.701, 6.044e-4
-1.702, 6.137e-4
-1.703, 6.229e-4
-1.704, 6.322e-4
-1.705, 6.384e-4
-1.706, 6.476e-4
-1.707, 6.599e-4
-1.708, 6.692e-4
-1.709, 6.815e-4
-1.710, 6.939e-4
-1.711, 7.154e-4
-1.712, 7.247e-4
-1.713, 7.370e-4
-1.714, 7.494e-4
-1.715, 7.339e-4
-1.716, 7.555e-4
-1.717, 7.679e-4
-1.718, 7.771e-4
-1.719, 7.925e-4
-1.720, 7.987e-4
-1.721, 8.110e-4
-1.722, 8.203e-4
-1.723, 8.388e-4
-1.724, 8.418e-4
-1.725, 8.542e-4
-1.726, 8.634e-4
-1.727, 8.727e-4
-1.728, 8.881e-4
-1.729, 9.066e-4
-1.730, 9.220e-4
-1.731, 9.374e-4
-1.732, 9.498e-4
-1.733, 9.713e-4
-1.734, 9.868e-4
-1.735, 1.002e-3
-1.736, 1.018e-3
-1.737, 1.033e-3
-1.738, 1.045e-3
-1.739, 1.064e-3
-1.740, 1.079e-3
-1.741, 1.101e-3
-1.742, 1.116e-3
-1.743, 1.144e-3
-1.744, 1.150e-3
-1.745, 1.169e-3
-1.746, 1.193e-3
-1.747, 1.209e-3
-1.748, 1.230e-3
-1.749, 1.252e-3
-1.750, 1.277e-3
-1.751, 1.295e-3
-1.752, 1.304e-3
-1.753, 1.332e-3
-1.754, 1.351e-3
-1.755, 1.378e-3
-1.756, 1.400e-3
-1.757, 1.428e-3
-1.758, 1.452e-3
-1.759, 1.480e-3
-1.760, 1.495e-3
-1.761, 1.523e-3
-1.762, 1.557e-3
-1.763, 1.576e-3
-1.764, 1.606e-3
-1.765, 1.643e-3
-1.766, 1.674e-3
-1.767, 1.696e-3
-1.768, 1.736e-3
-1.769, 1.761e-3
-1.770, 1.788e-3
-1.771, 1.825e-3
-1.772, 1.853e-3
-1.773, 1.899e-3
-1.774, 1.927e-3
-1.775, 1.955e-3
-1.776, 2.007e-3
-1.777, 2.054e-3
-1.778, 2.081e-3
-1.779, 2.106e-3
-1.780, 2.149e-3
-1.781, 2.198e-3
-1.782, 2.257e-3
-1.783, 2.279e-3
-1.784, 2.328e-3
-1.785, 2.377e-3
-1.786, 2.436e-3
-1.787, 2.470e-3
-1.788, 2.510e-3
-1.789, 2.556e-3
-1.790, 2.602e-3
-1.791, 2.664e-3
-1.792, 2.698e-3
-1.793, 2.778e-3
-1.794, 2.824e-3
-1.795, 2.867e-3
-1.796, 2.926e-3
-1.797, 2.985e-3
-1.798, 3.040e-3
-1.799, 3.096e-3
-1.800, 3.167e-3
-1.801, 3.234e-3
-1.802, 3.302e-3
-1.803, 3.339e-3
-1.804, 3.398e-3
-1.805, 3.459e-3
-1.806, 3.530e-3
-1.807, 3.592e-3
-1.808, 3.669e-3
-1.809, 3.740e-3
-1.810, 3.820e-3
-1.811, 3.885e-3
-1.812, 3.950e-3
-1.813, 4.021e-3
-1.814, 4.113e-3
-1.815, 4.162e-3
-1.816, 4.227e-3
-1.817, 4.301e-3
-1.818, 4.372e-3
-1.819, 4.471e-3
-1.820, 4.535e-3
-1.821, 4.603e-3
-1.822, 4.686e-3
-1.823, 4.773e-3
-1.824, 4.834e-3
-1.825, 4.924e-3
-1.826, 5.010e-3
-1.827, 5.106e-3
-1.828, 5.143e-3
-1.829, 5.251e-3
-1.830, 5.325e-3
-1.831, 5.402e-3
-1.832, 5.479e-3
-1.833, 5.605e-3
-1.834, 5.655e-3
-1.835, 5.787e-3
-1.836, 5.873e-3
-1.837, 5.954e-3
-1.838, 6.037e-3
-1.839, 6.154e-3
-1.840, 6.250e-3
-1.841, 6.321e-3
-1.842, 6.435e-3
-1.843, 6.512e-3
-1.844, 6.601e-3
-1.845, 6.728e-3
-1.846, 6.805e-3
-1.847, 6.925e-3
-1.848, 6.999e-3
-1.849, 7.079e-3
-1.850, 7.187e-3
-1.851, 7.304e-3
-1.852, 7.424e-3
-1.853, 7.495e-3
-1.854, 7.575e-3
-1.855, 7.680e-3
-1.856, 7.807e-3
-1.857, 7.896e-3
-1.858, 8.025e-3
-1.859, 8.087e-3
-1.860, 8.223e-3
-1.861, 8.358e-3
-1.862, 8.395e-3
-1.863, 8.503e-3
-1.864, 8.593e-3
-1.865, 8.679e-3
-1.866, 8.818e-3
-1.867, 8.947e-3
-1.868, 9.074e-3
-1.869, 9.185e-3
-1.870, 9.253e-3
-1.871, 9.339e-3
-1.872, 9.453e-3
-1.873, 9.589e-3
-1.874, 9.712e-3
-1.875, 9.817e-3
-1.876, 9.906e-3
-1.877, 9.993e-3
-1.878, 1.013e-2
-1.879, 1.023e-2
-1.880, 1.034e-2
-1.881, 1.046e-2
-1.882, 1.052e-2
-1.883, 1.062e-2
-1.884, 1.072e-2
-1.885, 1.087e-2
-1.886, 1.099e-2
-1.887, 1.107e-2
-1.888, 1.123e-2
-1.889, 1.135e-2
-1.890, 1.142e-2
-1.891, 1.152e-2
-1.892, 1.168e-2
-1.893, 1.177e-2
-1.894, 1.185e-2
-1.895, 1.197e-2
-1.896, 1.205e-2
-1.897, 1.215e-2
-1.898, 1.224e-2
-1.899, 1.231e-2
-1.900, 1.231e-2
-1.899, 1.223e-2
-1.898, 1.213e-2
-1.897, 1.206e-2
-1.896, 1.202e-2
-1.895, 1.192e-2
-1.894, 1.185e-2
-1.893, 1.181e-2
-1.892, 1.173e-2
-1.891, 1.168e-2
-1.890, 1.165e-2
-1.889, 1.157e-2
-1.888, 1.149e-2
-1.887, 1.140e-2
-1.886, 1.132e-2
-1.885, 1.122e-2
-1.884, 1.116e-2
-1.883, 1.105e-2
-1.882, 1.094e-2
-1.881, 1.085e-2
-1.880, 1.075e-2
-1.879, 1.071e-2
-1.878, 1.060e-2
-1.877, 1.048e-2
-1.876, 1.040e-2
-1.875, 1.031e-2
-1.874, 1.023e-2
-1.873, 1.015e-2
-1.872, 1.006e-2
-1.871, 9.974e-3
-1.870, 9.882e-3
-1.869, 9.829e-3
-1.868, 9.727e-3
-1.867, 9.656e-3
-1.866, 9.502e-3
-1.865, 9.428e-3
-1.864, 9.336e-3
-1.863, 9.209e-3
-1.862, 9.114e-3
-1.861, 9.018e-3
-1.860, 8.944e-3
-1.859, 8.873e-3
-1.858, 8.790e-3
-1.857, 8.701e-3
-1.856, 8.639e-3
-1.855, 8.602e-3
-1.854, 8.537e-3
-1.853, 8.466e-3
-1.852, 8.358e-3
-1.851, 8.297e-3
-1.850, 8.217e-3
-1.849, 8.152e-3
-1.848, 8.056e-3
-1.847, 7.964e-3
-1.846, 7.893e-3
-1.845, 7.807e-3
-1.844, 7.751e-3
-1.843, 7.665e-3
-1.842, 7.572e-3
-1.841, 7.504e-3
-1.840, 7.427e-3
-1.839, 7.338e-3
-1.838, 7.267e-3
-1.837, 7.205e-3
-1.836, 7.125e-3
-1.835, 7.051e-3
-1.834, 7.008e-3
-1.833, 6.928e-3
-1.832, 6.854e-3
-1.831, 6.764e-3
-1.830, 6.697e-3
-1.829, 6.632e-3
-1.828, 6.564e-3
-1.827, 6.506e-3
-1.826, 6.432e-3
-1.825, 6.382e-3
-1.824, 6.299e-3
-1.823, 6.234e-3
-1.822, 6.166e-3
-1.821, 6.102e-3
-1.820, 5.997e-3
-1.819, 5.929e-3
-1.818, 5.864e-3
-1.817, 5.787e-3
-1.816, 5.750e-3
-1.815, 5.685e-3
-1.814, 5.621e-3
-1.813, 5.562e-3
-1.812, 5.504e-3
-1.811, 5.457e-3
-1.810, 5.362e-3
-1.809, 5.328e-3
-1.808, 5.260e-3
-1.807, 5.211e-3
-1.806, 5.127e-3
-1.805, 5.087e-3
-1.804, 5.029e-3
-1.803, 4.958e-3
-1.802, 4.887e-3
-1.801, 4.831e-3
-1.800, 4.801e-3
-1.799, 4.727e-3
-1.798, 4.674e-3
-1.797, 4.619e-3
-1.796, 4.569e-3
-1.795, 4.498e-3
-1.794, 4.449e-3
-1.793, 4.409e-3
-1.792, 4.354e-3
-1.791, 4.273e-3
-1.790, 4.233e-3
-1.789, 4.175e-3
-1.788, 4.141e-3
-1.787, 4.088e-3
-1.786, 4.030e-3
-1.785, 3.987e-3
-1.784, 3.943e-3
-1.783, 3.900e-3
-1.782, 3.832e-3
-1.781, 3.799e-3
-1.780, 3.740e-3
-1.779, 3.691e-3
-1.778, 3.635e-3
-1.777, 3.592e-3
-1.776, 3.543e-3
-1.775, 3.484e-3
-1.774, 3.438e-3
-1.773, 3.398e-3
-1.772, 3.361e-3
-1.771, 3.311e-3
-1.770, 3.284e-3
-1.769, 3.237e-3
-1.768, 3.194e-3
-1.767, 3.136e-3
-1.766, 3.105e-3
-1.765, 3.062e-3
-1.764, 3.019e-3
-1.763, 3.003e-3
-1.762, 2.951e-3
-1.761, 2.908e-3
-1.760, 2.864e-3
-1.759, 2.830e-3
-1.758, 2.797e-3
-1.757, 2.756e-3
-1.756, 2.719e-3
-1.755, 2.670e-3
-1.754, 2.633e-3
-1.753, 2.599e-3
-1.752, 2.559e-3
-1.751, 2.541e-3
-1.750, 2.494e-3
-1.749, 2.467e-3
-1.748, 2.439e-3
-1.747, 2.405e-3
-1.746, 2.365e-3
-1.745, 2.312e-3
-1.744, 2.285e-3
-1.743, 2.263e-3
-1.742, 2.232e-3
-1.741, 2.205e-3
-1.740, 2.168e-3
-1.739, 2.134e-3
-1.738, 2.121e-3
-1.737, 2.066e-3
-1.736, 2.050e-3
-1.735, 2.020e-3
-1.734, 2.004e-3
-1.733, 1.967e-3
-1.732, 1.924e-3
-1.731, 1.906e-3
-1.730, 1.875e-3
-1.729, 1.847e-3
-1.728, 1.835e-3
-1.727, 1.807e-3
-1.726, 1.776e-3
-1.725, 1.742e-3
-1.724, 1.717e-3
-1.723, 1.696e-3
-1.722, 1.687e-3
-1.721, 1.665e-3
-1.720, 1.634e-3
-1.719, 1.603e-3
-1.718, 1.603e-3
-1.717, 1.557e-3
-1.716, 1.536e-3
-1.715, 1.514e-3
-1.714, 1.489e-3
-1.713, 1.462e-3
-1.712, 1.449e-3
-1.711, 1.428e-3
-1.710, 1.412e-3
-1.709, 1.381e-3
-1.708, 1.360e-3
-1.707, 1.351e-3
-1.706, 1.335e-3
-1.705, 1.307e-3
-1.704, 1.286e-3
-1.703, 1.267e-3
-1.702, 1.243e-3
-1.701, 1.227e-3
-1.700, 1.212e-3
-1.699, 1.196e-3
-1.698, 1.175e-3
-1.697, 1.162e-3
-1.696, 1.135e-3
-1.695, 1.125e-3
-1.694, 1.110e-3
-1.693, 1.088e-3
-1.692, 1.079e-3
-1.691, 1.055e-3
-1.690, 1.036e-3
-1.689, 1.024e-3
-1.688, 1.011e-3
-1.687, 9.991e-4
-1.686, 9.806e-4
-1.685, 9.775e-4
-1.684, 9.590e-4
-1.683, 9.405e-4
-1.682, 9.313e-4
-1.681, 9.189e-4
-1.680, 8.943e-4
-1.679, 8.850e-4
-1.678, 8.696e-4
-1.677, 8.603e-4
-1.676, 8.449e-4
-1.675, 8.295e-4
-1.674, 8.203e-4
-1.673, 8.079e-4
-1.672, 7.956e-4
-1.671, 7.771e-4
-1.670, 7.648e-4
-1.669, 7.586e-4
-1.668, 7.494e-4
-1.667, 7.339e-4
-1.666, 7.185e-4
-1.665, 7.093e-4
-1.664, 7.000e-4
-1.663, 6.908e-4
-1.662, 6.723e-4
-1.661, 6.630e-4
-1.660, 6.538e-4
-1.659, 6.476e-4
-1.658, 6.384e-4
-1.657, 6.229e-4
-1.656, 6.168e-4
-1.655, 6.044e-4
-1.654, 5.952e-4
-1.653, 5.890e-4
-1.652, 5.859e-4
-1.651, 5.674e-4
-1.650, 5.674e-4
-1.649, 5.520e-4
-1.648, 5.428e-4
-1.647, 5.366e-4
-1.646, 5.305e-4
-1.645, 5.212e-4
-1.644, 5.120e-4
-1.643, 5.027e-4
-1.642, 4.965e-4
-1.641, 4.873e-4
-1.640, 4.811e-4
-1.639, 4.688e-4
-1.638, 4.626e-4
-1.637, 4.565e-4
-1.636, 4.472e-4
-1.635, 4.410e-4
-1.634, 4.380e-4
-1.633, 4.287e-4
-1.632, 4.225e-4
-1.631, 4.164e-4
-1.630, 4.133e-4
-1.629, 4.071e-4
-1.628, 3.948e-4
-1.627, 3.886e-4
-1.626, 3.855e-4
-1.625, 3.794e-4
-1.624, 3.732e-4
-1.623, 3.670e-4
-1.622, 3.640e-4
-1.621, 3.547e-4
-1.620, 3.485e-4
-1.619, 3.455e-4
-1.618, 3.424e-4
-1.617, 3.331e-4
-1.616, 3.300e-4
-1.615, 3.239e-4
-1.614, 3.146e-4
-1.613, 3.115e-4
-1.612, 3.054e-4
-1.611, 2.992e-4
-1.610, 2.961e-4
-1.609, 2.931e-4
-1.608, 2.869e-4
-1.607, 2.807e-4
-1.606, 2.776e-4
-1.605, 2.746e-4
-1.604, 2.684e-4
-1.603, 2.653e-4
-1.602, 2.622e-4
-1.601, 2.561e-4
-1.600, 2.530e-4
-1.599, 2.468e-4
-1.598, 2.437e-4
-1.597, 2.406e-4
-1.596, 2.345e-4
-1.595, 2.314e-4
-1.594, 2.283e-4
-1.593, 2.252e-4
-1.592, 2.191e-4
-1.591, 2.160e-4
-1.590, 2.129e-4
-1.589, 2.067e-4
-1.588, 2.067e-4
-1.587, 2.006e-4
-1.586, 1.975e-4
-1.585, 1.944e-4
-1.584, 1.913e-4
-1.583, 1.882e-4
-1.582, 1.851e-4
-1.581, 1.821e-4
-1.580, 1.759e-4
-1.579, 1.759e-4
-1.578, 1.728e-4
-1.577, 1.697e-4
-1.576, 1.666e-4
-1.575, 1.636e-4
-1.574, 1.605e-4
-1.573, 1.605e-4
-1.572, 1.574e-4
-1.571, 1.543e-4
-1.570, 1.512e-4
-1.569, 1.481e-4
-1.568, 1.451e-4
-1.567, 1.420e-4
-1.566, 1.389e-4
-1.565, 1.389e-4
-1.564, 1.358e-4
-1.563, 1.327e-4
-1.562, 1.296e-4
-1.561, 1.296e-4
-1.560, 1.266e-4
-1.559, 1.235e-4
-1.558, 1.235e-4
-1.557, 1.204e-4
-1.556, 1.173e-4
-1.555, 1.142e-4
-1.554, 1.142e-4
-1.553, 1.111e-4
-1.552, 1.081e-4
-1.551, 1.081e-4
-1.550, 1.050e-4
-1.549, 1.019e-4
-1.548, 1.019e-4
-1.547, 9.882e-5
-1.546, 9.573e-5
-1.545, 9.573e-5
-1.544, 9.265e-5
-1.543, 9.265e-5
-1.542, 8.957e-5
-1.541, 8.957e-5
-1.540, 8.648e-5
-1.539, 8.648e-5
-1.538, 8.340e-5
-1.537, 8.340e-5
-1.536, 8.032e-5
-1.535, 8.032e-5
-1.534, 7.723e-5
-1.533, 7.723e-5
-1.532, 7.415e-5
-1.531, 7.415e-5
-1.530, 7.415e-5
-1.529, 7.107e-5
-1.528, 7.107e-5
-1.527, 6.798e-5
-1.526, 6.798e-5
-1.525, 6.490e-5
-1.524, 6.490e-5
-1.523, 6.182e-5
-1.522, 6.182e-5
-1.521, 5.873e-5
-1.520, 5.873e-5
-1.519, 5.873e-5
-1.518, 5.565e-5
-1.517, 5.565e-5
-1.516, 5.565e-5
-1.515, 5.257e-5
-1.514, 5.257e-5
-1.513, 4.949e-5
-1.512, 4.949e-5
-1.511, 4.949e-5
-1.510, 4.640e-5
-1.509, 4.640e-5
-1.508, 4.640e-5
-1.507, 4.640e-5
-1.506, 4.332e-5
-1.505, 4.332e-5
-1.504, 4.332e-5
-1.503, 4.024e-5
-1.502, 4.024e-5
-1.501, 4.024e-5
-1.500, 3.715e-5
-1.499, 3.715e-5
-1.498, 3.715e-5
-1.497, 3.715e-5
-1.496, 3.407e-5
-1.495, 3.407e-5
-1.494, 3.407e-5
-1.493, 3.099e-5
-1.492, 3.099e-5
-1.491, 3.099e-5
-1.490, 3.099e-5
-1.489, 3.099e-5
-1.488, 2.790e-5
-1.487, 2.790e-5
-1.486, 2.790e-5
-1.485, 2.790e-5
-1.484, 2.482e-5
-1.483, 2.482e-5
-1.482, 2.482e-5
-1.481, 2.482e-5
-1.480, 2.482e-5
-1.479, 2.482e-5
-1.478, 2.174e-5
-1.477, 2.174e-5
-1.476, 2.174e-5
-1.475, 2.174e-5
-1.474, 1.865e-5
-1.473, 1.865e-5
-1.472, 1.865e-5
-1.471, 1.865e-5
-1.470, 1.865e-5
-1.469, 1.557e-5
-1.468, 1.557e-5
-1.467, 1.557e-5
-1.466, 1.557e-5
-1.465, 1.557e-5
-1.464, 1.557e-5
-1.463, 1.557e-5
-1.462, 1.249e-5
-1.461, 1.249e-5
-1.460, 1.249e-5
-1.459, 1.249e-5
-1.458, 1.249e-5
-1.457, 1.249e-5
-1.456, 9.405e-6
-1.455, 1.249e-5
-1.454, 9.405e-6
-1.453, 9.405e-6
-1.452, 9.405e-6
-1.451, 9.405e-6
-1.450, 9.405e-6
-1.449, 9.405e-6
-1.448, 9.405e-6
-1.447, 6.322e-6
-1.446, 6.322e-6
-1.445, 9.405e-6
-1.444, 6.322e-6
-1.443, 6.322e-6
-1.442, 6.322e-6
-1.441, 6.322e-6
-1.440, 6.322e-6
-1.439, 6.322e-6
-1.438, 6.322e-6
-1.437, 6.322e-6
-1.436, 3.239e-6
-1.435, 3.239e-6
-1.434, 3.239e-6
-1.433, 3.239e-6
-1.432, 3.239e-6
-1.431, 3.239e-6
-1.430, 3.239e-6
-1.429, 3.239e-6
-1.428, 3.239e-6
-1.427, 1.559e-7
-1.426, 3.239e-6
-1.425, 3.239e-6
-1.424, 1.559e-7
-1.423, 3.239e-6
-1.422, 1.559e-7
-1.421, 1.559e-7
-1.420, 1.559e-7
-1.419, 1.559e-7
-1.418, 1.559e-7
-1.417, 1.559e-7
-1.416, 1.559e-7
-1.415, 1.559e-7
-1.414, 1.559e-7
-1.413, 1.559e-7
-1.412, 1.559e-7
-1.411, 1.559e-7
-1.410, 1.559e-7
-1.409, 1.559e-7
-1.408, 1.559e-7
-1.407, -2.927e-6
-1.406, -2.927e-6
-1.405, 1.559e-7
-1.404, -2.927e-6
-1.403, -2.927e-6
-1.402, -2.927e-6
-1.401, -2.927e-6
-1.400, -2.927e-6
-1.399, -2.927e-6
-1.398, -2.927e-6
-1.397, -2.927e-6
-1.396, -2.927e-6
-1.395, -2.927e-6
-1.394, -2.927e-6
-1.393, -6.010e-6
-1.392, -2.927e-6
-1.391, -6.010e-6
-1.390, -2.927e-6
-1.389, -2.927e-6
-1.388, -2.927e-6
-1.387, -6.010e-6
-1.386, -6.010e-6
-1.385, -2.927e-6
-1.384, -6.010e-6
-1.383, -2.927e-6
-1.382, -6.010e-6
-1.381, -6.010e-6
-1.380, -6.010e-6
-1.379, -6.010e-6
-1.378, -6.010e-6
-1.377, -6.010e-6
-1.376, -6.010e-6
-1.375, -6.010e-6
-1.374, -6.010e-6
-1.373, -6.010e-6
-1.372, -6.010e-6
-1.371, -6.010e-6
-1.370, -6.010e-6
-1.369, -6.010e-6
-1.368, -6.010e-6
-1.367, -6.010e-6
-1.366, -6.010e-6
-1.365, -6.010e-6
-1.364, -9.093e-6
-1.363, -6.010e-6
-1.362, -6.010e-6
-1.361, -9.093e-6
-1.360, -9.093e-6
-1.359, -9.093e-6
-1.358, -9.093e-6
-1.357, -9.093e-6
-1.356, -9.093e-6
-1.355, -6.010e-6
-1.354, -9.093e-6
-1.353, -9.093e-6
-1.352, -9.093e-6
-1.351, -9.093e-6
-1.350, -9.093e-6
-1.349, -9.093e-6
-1.348, -9.093e-6
-1.347, -9.093e-6
-1.346, -9.093e-6
-1.345, -9.093e-6
-1.344, -9.093e-6
-1.343, -9.093e-6
-1.342, -9.093e-6
-1.341, -9.093e-6
-1.340, -9.093e-6
-1.339, -9.093e-6
-1.338, -9.093e-6
-1.337, -9.093e-6
-1.336, -9.093e-6
-1.335, -9.093e-6
-1.334, -9.093e-6
-1.333, -9.093e-6
-1.332, -9.093e-6
-1.331, -9.093e-6
-1.330, -9.093e-6
-1.329, -9.093e-6
-1.328, -9.093e-6
-1.327, -1.218e-5
-1.326, -1.218e-5
-1.325, -9.093e-6
-1.324, -1.218e-5
-1.323, -1.218e-5
-1.322, -1.218e-5
-1.321, -1.218e-5
-1.320, -1.218e-5
-1.319, -1.218e-5
-1.318, -1.218e-5
-1.317, -1.218e-5
-1.316, -1.218e-5
-1.315, -1.218e-5
-1.314, -1.218e-5
-1.313, -1.218e-5
-1.312, -1.218e-5
-1.311, -1.218e-5
-1.310, -1.218e-5
-1.309, -1.218e-5
-1.308, -1.218e-5
-1.307, -1.218e-5
-1.306, -1.218e-5
-1.305, -1.218e-5
-1.304, -1.218e-5
-1.303, -1.218e-5
-1.302, -1.218e-5
-1.301, -1.218e-5
-1.300, -1.218e-5
-1.299, -1.218e-5
-1.298, -1.218e-5
-1.297, -1.526e-5
-1.296, -1.218e-5
-1.295, -1.526e-5
-1.294, -1.526e-5
-1.293, -1.526e-5
-1.292, -1.526e-5
-1.291, -1.526e-5
-1.290, -1.526e-5
-1.289, -1.526e-5
-1.288, -1.526e-5
-1.287, -1.526e-5
-1.286, -1.526e-5
-1.285, -1.526e-5
-1.284, -1.526e-5
-1.283, -1.526e-5
-1.282, -1.526e-5
-1.281, -1.526e-5
-1.280, -1.526e-5
-1.279, -1.526e-5
-1.278, -1.526e-5
-1.277, -1.526e-5
-1.276, -1.526e-5
-1.275, -1.526e-5
-1.274, -1.526e-5
-1.273, -1.526e-5
-1.272, -1.526e-5
-1.271, -1.526e-5
-1.270, -1.526e-5
-1.269, -1.526e-5
-1.268, -1.834e-5
-1.267, -1.834e-5
-1.266, -1.526e-5
-1.265, -1.834e-5
-1.264, -1.834e-5
-1.263, -1.834e-5
-1.262, -1.834e-5
-1.261, -1.834e-5
-1.260, -1.834e-5
-1.259, -1.834e-5
-1.258, -1.834e-5
-1.257, -1.834e-5
-1.256, -1.834e-5
-1.255, -1.834e-5
-1.254, -1.834e-5
-1.253, -1.834e-5
-1.252, -1.834e-5
-1.251, -1.834e-5
-1.250, -1.834e-5
-1.249, -1.834e-5
-1.248, -1.834e-5
-1.247, -1.834e-5
-1.246, -1.834e-5
-1.245, -1.834e-5
-1.244, -2.143e-5
-1.243, -2.143e-5
-1.242, -1.834e-5
-1.241, -1.834e-5
-1.240, -1.834e-5
-1.239, -2.143e-5
-1.238, -2.143e-5
-1.237, -2.143e-5
-1.236, -2.143e-5
-1.235, -2.143e-5
-1.234, -2.143e-5
-1.233, -2.143e-5
-1.232, -2.143e-5
-1.231, -2.143e-5
-1.230, -2.143e-5
-1.229, -2.143e-5
-1.228, -2.143e-5
-1.227, -2.143e-5
-1.226, -2.143e-5
-1.225, -2.143e-5
-1.224, -2.143e-5
-1.223, -2.143e-5
-1.222, -2.143e-5
-1.221, -2.143e-5
-1.220, -2.143e-5
-1.219, -2.143e-5
-1.218, -2.451e-5
-1.217, -2.451e-5
-1.216, -2.451e-5
-1.215, -2.451e-5
-1.214, -2.451e-5
-1.213, -2.451e-5
-1.212, -2.451e-5
-1.211, -2.451e-5
-1.210, -2.451e-5
-1.209, -2.451e-5
-1.208, -2.451e-5
-1.207, -2.451e-5
-1.206, -2.451e-5
-1.205, -2.451e-5
-1.204, -2.451e-5
-1.203, -2.451e-5
-1.202, -2.759e-5
-1.201, -2.451e-5
-1.200, -2.451e-5
-1.199, -2.759e-5
-1.198, -2.451e-5
-1.197, -2.759e-5
-1.196, -2.759e-5
-1.195, -2.759e-5
-1.194, -2.759e-5
-1.193, -2.759e-5
-1.192, -2.759e-5
-1.191, -2.759e-5
-1.190, -2.759e-5
-1.189, -2.759e-5
-1.188, -2.759e-5
-1.187, -2.759e-5
-1.186, -2.759e-5
-1.185, -2.759e-5
-1.184, -2.759e-5
-1.183, -2.759e-5
-1.182, -2.759e-5
-1.181, -2.759e-5
-1.180, -2.759e-5
-1.179, -2.759e-5
-1.178, -2.759e-5
-1.177, -2.759e-5
-1.176, -2.759e-5
-1.175, -2.759e-5
-1.174, -3.068e-5
-1.173, -3.068e-5
-1.172, -2.759e-5
-1.171, -3.068e-5
-1.170, -2.759e-5
-1.169, -3.068e-5
-1.168, -3.068e-5
-1.167, -3.068e-5
-1.166, -3.068e-5
-1.165, -3.068e-5
-1.164, -3.068e-5
-1.163, -2.759e-5
-1.162, -3.068e-5
-1.161, -3.068e-5
-1.160, -3.068e-5
-1.159, -3.068e-5
-1.158, -3.068e-5
-1.157, -3.068e-5
-1.156, -3.068e-5
-1.155, -3.068e-5
-1.154, -3.068e-5
-1.153, -3.068e-5
-1.152, -3.068e-5
-1.151, -3.068e-5
-1.150, -3.068e-5
-1.149, -3.068e-5
-1.148, -3.068e-5
-1.147, -3.068e-5
-1.146, -3.376e-5
-1.145, -3.068e-5
-1.144, -3.068e-5
-1.143, -3.068e-5
-1.142, -3.068e-5
-1.141, -3.068e-5
-1.140, -3.068e-5
-1.139, -3.376e-5
-1.138, -3.376e-5
-1.137, -3.376e-5
-1.136, -3.068e-5
-1.135, -3.068e-5
-1.134, -3.376e-5
-1.133, -3.376e-5
-1.132, -3.376e-5
-1.131, -3.376e-5
-1.130, -3.068e-5
-1.129, -3.376e-5
-1.128, -3.376e-5
-1.127, -3.376e-5
-1.126, -3.376e-5
-1.125, -3.376e-5
-1.124, -3.376e-5
-1.123, -3.376e-5
-1.122, -3.376e-5
-1.121, -3.376e-5
-1.120, -3.376e-5
-1.119, -3.376e-5
-1.118, -3.376e-5
-1.117, -3.376e-5
-1.116, -3.376e-5
-1.115, -3.376e-5
-1.114, -3.376e-5
-1.113, -3.376e-5
-1.112, -3.376e-5
-1.111, -3.376e-5
-1.110, -3.376e-5
-1.109, -3.376e-5
-1.108, -3.376e-5
-1.107, -3.376e-5
-1.106, -3.376e-5
-1.105, -3.376e-5
-1.104, -3.376e-5
-1.103, -3.376e-5
-1.102, -3.376e-5
-1.101, -3.376e-5
-1.100, -3.376e-5
-1.099, -3.376e-5
-1.098, -3.376e-5
-1.097, -3.376e-5
-1.096, -3.376e-5
-1.095, -3.376e-5
-1.094, -3.376e-5
-1.093, -3.376e-5
-1.092, -3.376e-5
-1.091, -3.376e-5
-1.090, -3.376e-5
-1.089, -3.376e-5
-1.088, -3.376e-5
-1.087, -3.376e-5
-1.086, -3.376e-5
-1.085, -3.376e-5
-1.084, -3.376e-5
-1.083, -3.376e-5
-1.082, -3.376e-5
-1.081, -3.376e-5
-1.080, -3.376e-5
-1.079, -3.376e-5
-1.078, -3.376e-5
-1.077, -3.376e-5
-1.076, -3.376e-5
-1.075, -3.376e-5
-1.074, -3.376e-5
-1.073, -3.376e-5
-1.072, -3.684e-5
-1.071, -3.376e-5
-1.070, -3.684e-5
-1.069, -3.684e-5
-1.068, -3.376e-5
-1.067, -3.376e-5
-1.066, -3.376e-5
-1.065, -3.376e-5
-1.064, -3.376e-5
-1.063, -3.376e-5
-1.062, -3.684e-5
-1.061, -3.684e-5
-1.060, -3.376e-5
-1.059, -3.684e-5
-1.058, -3.684e-5
-1.057, -3.684e-5
-1.056, -3.684e-5
-1.055, -3.684e-5
-1.054, -3.684e-5
-1.053, -3.684e-5
-1.052, -3.684e-5
-1.051, -3.684e-5
-1.050, -3.684e-5
-1.049, -3.684e-5
-1.048, -3.684e-5
-1.047, -3.684e-5
-1.046, -3.684e-5
-1.045, -3.684e-5
-1.044, -3.684e-5
-1.043, -3.684e-5
-1.042, -3.684e-5
-1.041, -3.684e-5
-1.040, -3.684e-5
-1.039, -3.684e-5
-1.038, -3.684e-5
-1.037, -3.684e-5
-1.036, -3.992e-5
-1.035, -3.992e-5
-1.034, -3.684e-5
-1.033, -3.992e-5
-1.032, -3.992e-5
-1.031, -3.684e-5
-1.030, -3.684e-5
-1.029, -3.992e-5
-1.028, -3.992e-5
-1.027, -3.992e-5
-1.026, -3.992e-5
-1.025, -3.992e-5
-1.024, -3.992e-5
-1.023, -3.992e-5
-1.022, -3.992e-5
-1.021, -3.992e-5
-1.020, -3.992e-5
-1.019, -3.992e-5
-1.018, -3.992e-5
-1.017, -3.992e-5
-1.016, -3.992e-5
-1.015, -3.992e-5
-1.014, -3.992e-5
-1.013, -4.301e-5
-1.012, -4.301e-5
-1.011, -4.301e-5
-1.010, -4.301e-5
-1.009, -4.301e-5
-1.008, -4.301e-5
-1.007, -4.301e-5
-1.006, -4.301e-5
-1.005, -4.301e-5
-1.004, -4.609e-5
-1.003, -4.301e-5
-1.002, -4.609e-5
-1.001, -4.609e-5
