Potential V vs RHE, Current mA cm-2
0.05339999999999995,-0.032552507009894496
0.05239999999999995,-0.03553754785260972
0.051399999999999946,-0.03699470049147071
0.050399999999999945,-0.037970851288377586
0.049399999999999944,-0.038763089616302
0.04839999999999994,-0.03947044526623452
0.04739999999999994,-0.04013535957717109
0.04639999999999994,-0.040729538323114406
0.04539999999999994,-0.04135201129505502
0.04439999999999994,-0.04196033715399699
0.04339999999999994,-0.04248378033494705
0.04239999999999994,-0.04304966485489307
0.04139999999999994,-0.04360140226184043
0.040399999999999936,-0.044124845442790495
0.039399999999999935,-0.044690729962736514
0.038399999999999934,-0.04522832025668522
0.03739999999999993,-0.045709322098639336
0.03639999999999993,-0.0462044710535921
0.03539999999999993,-0.046713767121543515
0.03439999999999993,-0.047237210302493574
0.03339999999999993,-0.04774650637044498
0.03239999999999993,-0.048227508212399094
0.03139999999999993,-0.048736804280350515
0.030399999999999927,-0.049260247461300574
0.029399999999999926,-0.04976954352925199
0.028399999999999925,-0.05026469248420476
0.027399999999999924,-0.050745694326158865
0.026399999999999924,-0.05128328462010758
0.025399999999999923,-0.05179258068805899
0.024399999999999922,-0.05228772964301176
0.02339999999999992,-0.05279702571096317
0.02239999999999992,-0.05327802755291729
0.02139999999999992,-0.053787323620868695
0.020399999999999918,-0.05433906102781606
0.019399999999999917,-0.054820062869770175
0.018399999999999916,-0.05532935893772159
0.017399999999999916,-0.05582450789267435
0.016399999999999915,-0.0563196568476271
0.015399999999999914,-0.05685724714157582
0.014399999999999913,-0.057366543209527235
0.013399999999999912,-0.057875839277478656
0.012399999999999911,-0.05838513534543006
0.01139999999999991,-0.05886613718738417
0.01039999999999991,-0.059403727481332894
0.009399999999999908,-0.0599130235492843
0.008399999999999908,-0.06039402539123842
0.007399999999999907,-0.060931615685187124
0.006399999999999906,-0.061412617527141236
0.005399999999999905,-0.06192191359509265
0.004399999999999904,-0.06248779811503867
0.003399999999999903,-0.0629970941829901
0.002399999999999902,-0.06354883158993745
0.0013999999999999013,-0.06407227477088752
0.00039999999999990044,-0.06463815929083352
-0.0006000000000001005,-0.06517574958478224
-0.0016000000000001013,-0.065670898539735
-0.0026000000000001022,-0.06620848883368373
-0.003600000000000103,-0.06673193201463377
-0.004600000000000104,-0.0672695223085825
-0.005600000000000105,-0.06784955394152717
-0.006600000000000106,-0.06835885000947857
-0.007600000000000107,-0.06888229319042864
-0.008600000000000108,-0.06941988348437735
-0.009600000000000108,-0.06995747377832606
-0.01060000000000011,-0.07053750541127073
-0.01160000000000011,-0.0710892428182181
-0.012600000000000111,-0.07166927445116276
-0.013600000000000112,-0.07219271763211282
-0.014600000000000113,-0.07274445503906019
-0.015600000000000114,-0.0732820453330089
-0.016600000000000115,-0.07386207696595355
-0.017600000000000116,-0.07439966725990228
-0.018600000000000116,-0.074937257553851
-0.019600000000000117,-0.07554558341279295
-0.020600000000000118,-0.07606902659374302
-0.02160000000000012,-0.0766207640006904
-0.02260000000000012,-0.0771866485206364
-0.02360000000000012,-0.07772423881458512
-0.024600000000000122,-0.07831841756052843
-0.025600000000000123,-0.0788984491934731
-0.026600000000000124,-0.0794360394874218
-0.027600000000000124,-0.08000192400736782
-0.028600000000000125,-0.08053951430131655
-0.029600000000000126,-0.0811478401602585
-0.030600000000000127,-0.08174201890620184
-0.03160000000000013,-0.08230790342614784
-0.03260000000000013,-0.08287378794609385
-0.03360000000000013,-0.08341137824004256
-0.03460000000000002,-0.08399140987298723
-0.03560000000000002,-0.0845714415059319
-0.03660000000000002,-0.08512317891287925
-0.03760000000000002,-0.08571735765882257
-0.03860000000000002,-0.0862832421787686
-0.039600000000000024,-0.08686327381171326
-0.040600000000000025,-0.0874433054446579
-0.041600000000000026,-0.08799504285160528
-0.04260000000000003,-0.088532633145554
-0.04360000000000003,-0.08914095900449596
-0.04460000000000003,-0.08973513775043927
-0.04560000000000003,-0.0903576107223799
-0.04660000000000003,-0.09093764235532456
-0.04760000000000003,-0.09148937976227192
-0.04860000000000003,-0.09209770562121389
-0.04960000000000003,-0.09269188436715721
-0.050600000000000034,-0.09331435733909782
-0.051600000000000035,-0.09390853608504113
-0.052600000000000036,-0.09447442060498715
-0.053600000000000037,-0.09506859935093047
-0.05460000000000004,-0.09567692520987243
-0.05560000000000004,-0.09629939818181305
-0.05660000000000004,-0.096907724040755
-0.05760000000000004,-0.09748775567369967
-0.05860000000000004,-0.098081934419643
-0.05960000000000004,-0.09876099584357821
-0.06060000000000004,-0.09931273325052556
-0.061600000000000044,-0.09993520622246618
-0.06260000000000004,-0.10052938496840952
-0.06360000000000005,-0.10115185794035012
-0.06460000000000005,-0.1017884780252894
-0.06560000000000005,-0.10236850965823405
-0.06660000000000005,-0.10296268840417737
-0.06760000000000005,-0.10357101426311933
-0.06860000000000005,-0.104151045896064
-0.06960000000000005,-0.10481596020700056
-0.07060000000000005,-0.10545258029193984
-0.07160000000000005,-0.1060326119248845
-0.07260000000000005,-0.10665508489682511
-0.07360000000000005,-0.10723511652976979
-0.07460000000000006,-0.10792832506670365
-0.07560000000000006,-0.10856494515164292
-0.07660000000000006,-0.10915912389758622
-0.07760000000000006,-0.1098240382085228
-0.07860000000000006,-0.11041821695446612
-0.07960000000000006,-0.11105483703940537
-0.08060000000000006,-0.11171975135034196
-0.08160000000000006,-0.11231393009628526
-0.08260000000000006,-0.11296469729422319
-0.08360000000000006,-0.11357302315316514
-0.08460000000000006,-0.11419549612510577
-0.08560000000000006,-0.11488870466203964
-0.08660000000000007,-0.11549703052098159
-0.08760000000000007,-0.11617609194491682
-0.08860000000000007,-0.11684100625585338
-0.08960000000000007,-0.11750592056678995
-0.09060000000000007,-0.11815668776472787
-0.09160000000000007,-0.11877916073666848
-0.09260000000000007,-0.1194016337086091
-0.09360000000000007,-0.12006654801954567
-0.09460000000000007,-0.12073146233048222
-0.09560000000000007,-0.1213680824154215
-0.09660000000000007,-0.12199055538736212
-0.09760000000000008,-0.12259888124630408
-0.09860000000000008,-0.1232779426702393
-0.09960000000000008,-0.12394285698117587
-0.10060000000000008,-0.12460777129211242
-0.10160000000000008,-0.12525853849005034
-0.10260000000000008,-0.12589515857498962
-0.10360000000000008,-0.12653177865992887
-0.10460000000000008,-0.1272391343098614
-0.10560000000000008,-0.1278899015077993
-0.10660000000000008,-0.12855481581873587
-0.10760000000000008,-0.12920558301667381
-0.10860000000000009,-0.12984220310161304
-0.10960000000000009,-0.13056370586454422
-0.11060000000000009,-0.13124276728847944
-0.11160000000000009,-0.131907681599416
-0.11260000000000009,-0.13255844879735396
-0.11360000000000009,-0.13318092176929455
-0.11460000000000009,-0.13391657164522439
-0.11560000000000009,-0.13463807440815556
-0.11660000000000009,-0.1352746944930948
-0.1176000000000001,-0.13593960880403136
-0.1186000000000001,-0.1365903760019693
-0.1196000000000001,-0.1372694374259045
-0.1206000000000001,-0.1379909401888357
-0.1216000000000001,-0.1386700016127709
-0.1226000000000001,-0.13934906303670613
-0.1236000000000001,-0.14002812446064133
-0.1246000000000001,-0.1406930387715779
-0.1256000000000001,-0.1414286886475077
-0.1266000000000001,-0.1420370145064497
-0.1276000000000001,-0.1427443701563822
-0.1286000000000001,-0.1434517258063147
-0.1296000000000001,-0.14415908145624726
-0.1306000000000001,-0.14472496597619325
-0.1316000000000001,-0.14543232162612577
-0.1326000000000001,-0.14613967727605828
-0.1336000000000001,-0.14684703292599083
-0.1346000000000001,-0.14755438857592332
-0.1356000000000001,-0.14826174422585583
-0.1366000000000001,-0.14896909987578838
-0.1376000000000001,-0.1496764555257209
-0.1386000000000001,-0.1503838111756534
-0.1396000000000001,-0.1510911668255859
-0.1406000000000001,-0.15179852247551845
-0.14160000000000011,-0.15250587812545094
-0.14260000000000012,-0.15321323377538346
-0.14360000000000012,-0.15392058942531597
-0.14460000000000012,-0.15462794507524852
-0.14560000000000012,-0.155335300725181
-0.14660000000000012,-0.15604265637511353
-0.14760000000000012,-0.15675001202504607
-0.14860000000000012,-0.1574573676749786
-0.14960000000000012,-0.1583061944548976
-0.15060000000000012,-0.15901355010483012
-0.15160000000000012,-0.15972090575476264
-0.15260000000000012,-0.16042826140469515
-0.15360000000000013,-0.16113561705462764
-0.15460000000000013,-0.1618429727045602
-0.15560000000000013,-0.1626917994844792
-0.15660000000000013,-0.16325768400442522
-0.15760000000000013,-0.16396503965435774
-0.15860000000000013,-0.16481386643427676
-0.15960000000000002,-0.1655212220842093
-0.16060000000000002,-0.16637004886412832
-0.16160000000000002,-0.16707740451406086
-0.16260000000000002,-0.16778476016399335
-0.16360000000000002,-0.16849211581392587
-0.16460000000000002,-0.1693409425938449
-0.16560000000000002,-0.17004829824377743
-0.16660000000000003,-0.17075565389370992
-0.16760000000000003,-0.17132153841365594
-0.16860000000000003,-0.17217036519357498
-0.16960000000000003,-0.1728777208435075
-0.17060000000000003,-0.17358507649344
-0.17160000000000003,-0.17443390327335903
-0.17260000000000003,-0.17514125892329155
-0.17360000000000003,-0.17599008570321056
-0.17460000000000003,-0.1766974413531431
-0.17560000000000003,-0.17754626813306212
-0.17660000000000003,-0.1782536237829946
-0.17760000000000004,-0.17896097943292713
-0.17860000000000004,-0.17980980621284617
-0.17960000000000004,-0.1806586329927652
-0.18060000000000004,-0.18136598864269768
-0.18160000000000004,-0.18221481542261672
-0.18260000000000004,-0.18306364220253574
-0.18360000000000004,-0.18377099785246825
-0.18460000000000004,-0.1846198246323873
-0.18560000000000004,-0.1854686514123063
-0.18660000000000004,-0.1861760070622388
-0.18760000000000004,-0.18702483384215784
-0.18860000000000005,-0.18787366062207686
-0.18960000000000005,-0.18872248740199588
-0.19060000000000005,-0.18942984305192842
-0.19160000000000005,-0.19027866983184744
-0.19260000000000005,-0.19112749661176645
-0.19360000000000005,-0.1919763233916855
-0.19460000000000005,-0.19282515017160448
-0.19560000000000005,-0.1936739769515235
-0.19660000000000005,-0.19452280373144254
-0.19760000000000005,-0.19537163051136155
-0.19860000000000005,-0.19622045729128057
-0.19960000000000006,-0.1970692840711996
-0.20060000000000006,-0.19805958198110513
-0.20160000000000006,-0.19876693763103764
-0.20260000000000006,-0.19961576441095666
-0.20360000000000006,-0.20046459119087567
-0.20460000000000006,-0.20145488910078121
-0.20560000000000006,-0.20230371588070023
-0.20660000000000006,-0.20329401379060577
-0.20760000000000006,-0.2041428405705248
-0.20860000000000006,-0.20499166735044383
-0.20960000000000006,-0.20584049413036284
-0.21060000000000006,-0.20683079204026839
-0.21160000000000007,-0.2078210899501739
-0.21260000000000007,-0.2086699167300929
-0.21360000000000007,-0.20966021463999845
-0.21460000000000007,-0.21050904141991747
-0.21560000000000007,-0.21149933932982298
-0.21660000000000007,-0.21248963723972852
-0.21760000000000007,-0.21347993514963404
-0.21860000000000007,-0.21447023305953958
-0.21960000000000007,-0.2154605309694451
-0.22060000000000007,-0.2164508288793506
-0.22160000000000007,-0.21744112678925615
-0.22260000000000008,-0.21843142469916169
-0.22360000000000008,-0.21942172260906717
-0.22460000000000008,-0.2204120205189727
-0.22560000000000008,-0.22154378955886472
-0.22660000000000008,-0.22253408746877026
-0.22760000000000008,-0.2235243853786758
-0.22860000000000008,-0.2245146832885813
-0.22960000000000008,-0.22564645232847336
-0.23060000000000008,-0.2267782213683654
-0.23160000000000008,-0.22776851927827088
-0.23260000000000008,-0.22890028831816295
-0.23360000000000009,-0.23003205735805496
-0.2346000000000001,-0.23116382639794697
-0.2356000000000001,-0.23229559543783898
-0.2366000000000001,-0.23342736447773108
-0.2376000000000001,-0.2345591335176231
-0.2386000000000001,-0.2356909025575151
-0.2396000000000001,-0.2368226715974071
-0.2406000000000001,-0.23795444063729917
-0.2416000000000001,-0.23908620967719119
-0.2426000000000001,-0.24035944984706975
-0.2436000000000001,-0.24149121888696176
-0.2446000000000001,-0.2426229879268538
-0.2456000000000001,-0.24389622809673234
-0.2466000000000001,-0.24516946826661082
-0.2476000000000001,-0.24630123730650288
-0.2486000000000001,-0.24757447747638137
-0.2496000000000001,-0.24884771764625993
-0.2506000000000001,-0.25012095781613847
-0.2516000000000001,-0.25139419798601703
-0.2526000000000001,-0.2526674381558955
-0.2536000000000001,-0.25394067832577405
-0.2546000000000001,-0.2552139184956526
-0.2556000000000001,-0.25662862979551765
-0.2566000000000001,-0.25790186996539616
-0.2576000000000001,-0.2591751101352747
-0.2586000000000001,-0.26058982143513976
-0.2596000000000001,-0.2620045327350048
-0.2606000000000001,-0.26327777290488336
-0.2616000000000001,-0.2646924842047484
-0.2626000000000001,-0.2661071955046134
-0.2636000000000001,-0.26752190680447846
-0.2646000000000001,-0.26907808923433
-0.2656000000000001,-0.27049280053419505
-0.2666000000000001,-0.27204898296404656
-0.2676000000000001,-0.2734636942639116
-0.2686000000000001,-0.27487840556377663
-0.2696000000000001,-0.2764345879936282
-0.2706000000000001,-0.2779907704234797
-0.2716000000000001,-0.27954695285333125
-0.2726000000000001,-0.2811031352831828
-0.2736000000000001,-0.2826593177130343
-0.2746000000000001,-0.2842155001428859
-0.2756000000000001,-0.28591315370272397
-0.2766000000000001,-0.2874693361325754
-0.2776000000000001,-0.2891669896924135
-0.2786000000000001,-0.29072317212226506
-0.2796000000000001,-0.2924208256821031
-0.2806000000000001,-0.29425995037192765
-0.28160000000000013,-0.2959576039317657
-0.28260000000000013,-0.2976552574916037
-0.28360000000000013,-0.2993529110514418
-0.2846,-0.3011920357412663
-0.2856,-0.30303116043109085
-0.2866,-0.30487028512091535
-0.2876,-0.3067094098107399
-0.2886,-0.30854853450056446
-0.2896,-0.310387659190389
-0.2906,-0.3122267838802136
-0.2916,-0.3142073797000246
-0.2926,-0.31604650438984916
-0.2936,-0.31802710020966024
-0.29460000000000003,-0.32000769602947127
-0.29560000000000003,-0.3221297629792688
-0.29660000000000003,-0.32411035879907985
-0.29760000000000003,-0.3260909546188909
-0.29860000000000003,-0.32807155043870195
-0.29960000000000003,-0.33019361738849956
-0.30060000000000003,-0.3323156843382971
-0.30160000000000003,-0.3344377512880947
-0.30260000000000004,-0.33655981823789227
-0.30360000000000004,-0.3386818851876898
-0.30460000000000004,-0.34094542326747385
-0.30560000000000004,-0.3432089613472579
-0.30660000000000004,-0.3453310282970554
-0.30760000000000004,-0.34759456637683955
-0.30860000000000004,-0.3498581044566236
-0.30960000000000004,-0.35212164253640765
-0.31060000000000004,-0.3543851806161917
-0.31160000000000004,-0.3565072475659892
-0.31260000000000004,-0.3589122567757598
-0.31360000000000005,-0.3611757948555439
-0.31460000000000005,-0.36343933293532793
-0.31560000000000005,-0.3658443421450985
-0.31660000000000005,-0.36810788022488256
-0.31760000000000005,-0.37051288943465316
-0.31860000000000005,-0.3727764275144372
-0.31960000000000005,-0.3753229078541942
-0.32060000000000005,-0.3775864459339783
-0.32160000000000005,-0.3798499840137623
-0.32260000000000005,-0.3822549932235329
-0.32360000000000005,-0.38466000243330345
-0.32460000000000006,-0.387065011643074
-0.32560000000000006,-0.38947002085284455
-0.32660000000000006,-0.3917335589326287
-0.32760000000000006,-0.3939970970124127
-0.32860000000000006,-0.3962606350921968
-0.32960000000000006,-0.3985241731719808
-0.33060000000000006,-0.40092918238175135
-0.33160000000000006,-0.4031927204615355
-0.33260000000000006,-0.40559772967130603
-0.33360000000000006,-0.4078612677510901
-0.33460000000000006,-0.41012480583087413
-0.33560000000000006,-0.4125298150406447
-0.33660000000000007,-0.4147933531204288
-0.33760000000000007,-0.41691542007022636
-0.33860000000000007,-0.4193204292799969
-0.33960000000000007,-0.42158396735978093
-0.34060000000000007,-0.4237060343095785
-0.34160000000000007,-0.42596957238936256
-0.34260000000000007,-0.4280916393391601
-0.34360000000000007,-0.4303551774189442
-0.3446000000000001,-0.43261871549872827
-0.3456000000000001,-0.4348822535785123
-0.3466000000000001,-0.4370043205283098
-0.34759999999999996,-0.4391263874781074
-0.3486000000000001,-0.4412484544279049
-0.34959999999999997,-0.4433705213777025
-0.3506000000000001,-0.44549258832750005
-0.35159999999999997,-0.44761465527729766
-0.3526000000000001,-0.44973672222709515
-0.35359999999999997,-0.45185878917689276
-0.3546000000000001,-0.45398085612669026
-0.35559999999999997,-0.45610292307648787
-0.3566000000000001,-0.45808351889629884
-0.3576,-0.46020558584609644
-0.3586000000000001,-0.4621861816659074
-0.3596,-0.4641667774857185
-0.3606000000000001,-0.4661473733055296
-0.3616,-0.46812796912534066
-0.3626000000000001,-0.47010856494515163
-0.3636,-0.4720891607649627
-0.3646000000000001,-0.47392828545478727
-0.3656,-0.47590888127459835
-0.3666000000000001,-0.4778894770944094
-0.3676,-0.47972860178423393
-0.3686000000000001,-0.481709197604045
-0.3696,-0.48354832229386957
-0.3706000000000001,-0.48552891811368054
-0.3716,-0.4875095139334916
-0.3726000000000001,-0.4893486386233161
-0.3736,-0.4911877633131407
-0.3746000000000001,-0.49316835913295176
-0.3756,-0.49514895495276273
-0.3766000000000001,-0.4969880796425873
-0.3776,-0.49896867546239837
-0.3786000000000001,-0.5008078001522229
-0.3796,-0.5027883959720341
-0.3806000000000001,-0.504768991791845
-0.3816,-0.5067495876116561
-0.3826000000000001,-0.5087301834314671
-0.3836,-0.5107107792512783
-0.3846000000000001,-0.5128328462010757
-0.3856,-0.5148134420208869
-0.3866000000000001,-0.5167940378406979
-0.3876,-0.518774633660509
-0.3886000000000001,-0.5208967006103065
-0.3896,-0.5230187675601041
-0.3906000000000001,-0.5249993633799152
-0.3916,-0.5271214303297127
-0.3926000000000001,-0.5291020261495237
-0.3936,-0.5310826219693349
-0.3946000000000001,-0.5332046889191324
-0.3956,-0.5353267558689299
-0.3966000000000001,-0.537307351688741
-0.3976,-0.539287947508552
-0.3986000000000001,-0.5414100144583496
-0.3996,-0.5433906102781606
-0.4006000000000001,-0.5455126772279582
-0.4016,-0.5474932730477692
-0.4026000000000001,-0.5494738688675803
-0.4036,-0.5514544646873913
-0.4046000000000001,-0.5534350605072024
-0.4056,-0.5555571274569999
-0.40660000000000013,-0.557537723276811
-0.4076,-0.559518319096622
-0.40860000000000013,-0.5614989149164331
-0.4096,-0.5634795107362441
-0.41060000000000013,-0.5656015776860417
-0.4116,-0.5675821735058527
-0.41260000000000013,-0.5694212981956773
-0.4136,-0.5715433651454748
-0.41460000000000014,-0.5735239609652859
-0.4156,-0.5755045567850969
-0.41660000000000014,-0.5776266237348945
-0.4176,-0.5794657484247191
-0.41860000000000014,-0.5814463442445301
-0.41960000000000003,-0.5834269400643411
-0.42060000000000014,-0.5855490070141387
-0.42160000000000003,-0.5876710739639363
-0.42260000000000014,-0.5896516697837473
-0.42360000000000003,-0.5914907944735719
-0.42460000000000014,-0.5936128614233693
-0.42560000000000003,-0.5954519861131939
-0.42660000000000015,-0.5975740530629915
-0.42760000000000004,-0.5995546488828025
-0.42860000000000015,-0.6015352447026135
-0.42960000000000004,-0.6035158405224247
-0.43060000000000015,-0.6054964363422356
-0.43160000000000004,-0.6073355610320602
-0.43260000000000015,-0.6093161568518712
-0.43360000000000004,-0.6111552815416958
-0.43460000000000015,-0.6132773484914934
-0.43560000000000004,-0.6152579443113044
-0.43660000000000015,-0.6170970690011289
-0.43760000000000004,-0.6189361936909535
-0.43860000000000016,-0.620775318380778
-0.43960000000000005,-0.6227559142005892
-0.44060000000000016,-0.6247365100204001
