Mar. 30, 2025   21:58:05
Linear Sweep Voltammetry
File: c:/users/guazh/data/banditlqround7_x0exp518_r20/2025-03-28-exp993\pre-regen-2025-03-30t21_55_01-lsvinphos\pre-regen_lsv_50mvs_efin_-1900mv.bin
Data Source:  Experiment
Instrument Model:  CHI760E
Header: LSV ran at 50 mVs with Efin at -1900mV
Note: 

Init E (V) = -0.6
Final E (V) = -1.9
Scan Rate (V/s) = 0.05
Sample Interval (V) = 0.001
Quiet Time (sec) = 2
Sensitivity (A/V) = 1e-4
Comp R (ohm) = 8.7

Results:

Channel 1:
Ep = -1.554V
ip = 6.876e-4A
Ah = 1.056e-3C

Potential/V, Current/A

-0.600, 2.301e-6
-0.601, 2.512e-6
-0.602, 2.615e-6
-0.603, 2.684e-6
-0.604, 2.740e-6
-0.605, 2.790e-6
-0.606, 2.837e-6
-0.607, 2.879e-6
-0.608, 2.923e-6
-0.609, 2.966e-6
-0.610, 3.003e-6
-0.611, 3.043e-6
-0.612, 3.082e-6
-0.613, 3.119e-6
-0.614, 3.159e-6
-0.615, 3.197e-6
-0.616, 3.231e-6
-0.617, 3.266e-6
-0.618, 3.302e-6
-0.619, 3.339e-6
-0.620, 3.375e-6
-0.621, 3.409e-6
-0.622, 3.445e-6
-0.623, 3.482e-6
-0.624, 3.518e-6
-0.625, 3.553e-6
-0.626, 3.587e-6
-0.627, 3.625e-6
-0.628, 3.661e-6
-0.629, 3.696e-6
-0.630, 3.732e-6
-0.631, 3.766e-6
-0.632, 3.802e-6
-0.633, 3.841e-6
-0.634, 3.875e-6
-0.635, 3.911e-6
-0.636, 3.946e-6
-0.637, 3.981e-6
-0.638, 4.019e-6
-0.639, 4.055e-6
-0.640, 4.091e-6
-0.641, 4.127e-6
-0.642, 4.161e-6
-0.643, 4.199e-6
-0.644, 4.235e-6
-0.645, 4.269e-6
-0.646, 4.307e-6
-0.647, 4.341e-6
-0.648, 4.377e-6
-0.649, 4.417e-6
-0.650, 4.453e-6
-0.651, 4.492e-6
-0.652, 4.529e-6
-0.653, 4.569e-6
-0.654, 4.607e-6
-0.655, 4.642e-6
-0.656, 4.680e-6
-0.657, 4.717e-6
-0.658, 4.755e-6
-0.659, 4.796e-6
-0.660, 4.832e-6
-0.661, 4.869e-6
-0.662, 4.907e-6
-0.663, 4.945e-6
-0.664, 4.986e-6
-0.665, 5.025e-6
-0.666, 5.066e-6
-0.667, 5.103e-6
-0.668, 5.142e-6
-0.669, 5.180e-6
-0.670, 5.221e-6
-0.671, 5.259e-6
-0.672, 5.297e-6
-0.673, 5.340e-6
-0.674, 5.377e-6
-0.675, 5.416e-6
-0.676, 5.456e-6
-0.677, 5.494e-6
-0.678, 5.536e-6
-0.679, 5.577e-6
-0.680, 5.615e-6
-0.681, 5.655e-6
-0.682, 5.693e-6
-0.683, 5.736e-6
-0.684, 5.778e-6
-0.685, 5.818e-6
-0.686, 5.858e-6
-0.687, 5.896e-6
-0.688, 5.937e-6
-0.689, 5.978e-6
-0.690, 6.017e-6
-0.691, 6.059e-6
-0.692, 6.099e-6
-0.693, 6.140e-6
-0.694, 6.181e-6
-0.695, 6.220e-6
-0.696, 6.258e-6
-0.697, 6.301e-6
-0.698, 6.343e-6
-0.699, 6.387e-6
-0.700, 6.428e-6
-0.701, 6.467e-6
-0.702, 6.510e-6
-0.703, 6.552e-6
-0.704, 6.596e-6
-0.705, 6.638e-6
-0.706, 6.678e-6
-0.707, 6.720e-6
-0.708, 6.763e-6
-0.709, 6.807e-6
-0.710, 6.850e-6
-0.711, 6.891e-6
-0.712, 6.933e-6
-0.713, 6.981e-6
-0.714, 7.020e-6
-0.715, 7.064e-6
-0.716, 7.106e-6
-0.717, 7.150e-6
-0.718, 7.195e-6
-0.719, 7.236e-6
-0.720, 7.278e-6
-0.721, 7.321e-6
-0.722, 7.362e-6
-0.723, 7.409e-6
-0.724, 7.454e-6
-0.725, 7.495e-6
-0.726, 7.539e-6
-0.727, 7.580e-6
-0.728, 7.629e-6
-0.729, 7.674e-6
-0.730, 7.716e-6
-0.731, 7.763e-6
-0.732, 7.805e-6
-0.733, 7.850e-6
-0.734, 7.897e-6
-0.735, 7.939e-6
-0.736, 7.985e-6
-0.737, 8.028e-6
-0.738, 8.072e-6
-0.739, 8.121e-6
-0.740, 8.164e-6
-0.741, 8.212e-6
-0.742, 8.259e-6
-0.743, 8.306e-6
-0.744, 8.352e-6
-0.745, 8.396e-6
-0.746, 8.440e-6
-0.747, 8.487e-6
-0.748, 8.534e-6
-0.749, 8.579e-6
-0.750, 8.623e-6
-0.751, 8.666e-6
-0.752, 8.714e-6
-0.753, 8.761e-6
-0.754, 8.808e-6
-0.755, 8.854e-6
-0.756, 8.899e-6
-0.757, 8.944e-6
-0.758, 8.994e-6
-0.759, 9.040e-6
-0.760, 9.087e-6
-0.761, 9.133e-6
-0.762, 9.178e-6
-0.763, 9.229e-6
-0.764, 9.277e-6
-0.765, 9.324e-6
-0.766, 9.370e-6
-0.767, 9.414e-6
-0.768, 9.466e-6
-0.769, 9.517e-6
-0.770, 9.562e-6
-0.771, 9.609e-6
-0.772, 9.655e-6
-0.773, 9.703e-6
-0.774, 9.754e-6
-0.775, 9.802e-6
-0.776, 9.850e-6
-0.777, 9.898e-6
-0.778, 9.945e-6
-0.779, 9.997e-6
-0.780, 1.004e-5
-0.781, 1.009e-5
-0.782, 1.014e-5
-0.783, 1.019e-5
-0.784, 1.023e-5
-0.785, 1.028e-5
-0.786, 1.033e-5
-0.787, 1.038e-5
-0.788, 1.043e-5
-0.789, 1.048e-5
-0.790, 1.053e-5
-0.791, 1.058e-5
-0.792, 1.063e-5
-0.793, 1.068e-5
-0.794, 1.073e-5
-0.795, 1.078e-5
-0.796, 1.083e-5
-0.797, 1.088e-5
-0.798, 1.093e-5
-0.799, 1.098e-5
-0.800, 1.103e-5
-0.801, 1.108e-5
-0.802, 1.113e-5
-0.803, 1.119e-5
-0.804, 1.124e-5
-0.805, 1.129e-5
-0.806, 1.134e-5
-0.807, 1.139e-5
-0.808, 1.144e-5
-0.809, 1.150e-5
-0.810, 1.154e-5
-0.811, 1.159e-5
-0.812, 1.165e-5
-0.813, 1.170e-5
-0.814, 1.176e-5
-0.815, 1.181e-5
-0.816, 1.186e-5
-0.817, 1.191e-5
-0.818, 1.197e-5
-0.819, 1.202e-5
-0.820, 1.207e-5
-0.821, 1.211e-5
-0.822, 1.217e-5
-0.823, 1.222e-5
-0.824, 1.227e-5
-0.825, 1.233e-5
-0.826, 1.238e-5
-0.827, 1.244e-5
-0.828, 1.249e-5
-0.829, 1.255e-5
-0.830, 1.260e-5
-0.831, 1.265e-5
-0.832, 1.271e-5
-0.833, 1.277e-5
-0.834, 1.282e-5
-0.835, 1.288e-5
-0.836, 1.294e-5
-0.837, 1.299e-5
-0.838, 1.305e-5
-0.839, 1.311e-5
-0.840, 1.316e-5
-0.841, 1.322e-5
-0.842, 1.328e-5
-0.843, 1.334e-5
-0.844, 1.339e-5
-0.845, 1.345e-5
-0.846, 1.351e-5
-0.847, 1.357e-5
-0.848, 1.363e-5
-0.849, 1.369e-5
-0.850, 1.375e-5
-0.851, 1.381e-5
-0.852, 1.387e-5
-0.853, 1.393e-5
-0.854, 1.400e-5
-0.855, 1.405e-5
-0.856, 1.411e-5
-0.857, 1.417e-5
-0.858, 1.424e-5
-0.859, 1.430e-5
-0.860, 1.437e-5
-0.861, 1.443e-5
-0.862, 1.449e-5
-0.863, 1.455e-5
-0.864, 1.462e-5
-0.865, 1.469e-5
-0.866, 1.475e-5
-0.867, 1.482e-5
-0.868, 1.488e-5
-0.869, 1.495e-5
-0.870, 1.502e-5
-0.871, 1.509e-5
-0.872, 1.516e-5
-0.873, 1.523e-5
-0.874, 1.530e-5
-0.875, 1.537e-5
-0.876, 1.544e-5
-0.877, 1.551e-5
-0.878, 1.558e-5
-0.879, 1.566e-5
-0.880, 1.573e-5
-0.881, 1.580e-5
-0.882, 1.587e-5
-0.883, 1.595e-5
-0.884, 1.603e-5
-0.885, 1.610e-5
-0.886, 1.618e-5
-0.887, 1.626e-5
-0.888, 1.634e-5
-0.889, 1.642e-5
-0.890, 1.650e-5
-0.891, 1.658e-5
-0.892, 1.666e-5
-0.893, 1.674e-5
-0.894, 1.682e-5
-0.895, 1.690e-5
-0.896, 1.699e-5
-0.897, 1.707e-5
-0.898, 1.715e-5
-0.899, 1.724e-5
-0.900, 1.733e-5
-0.901, 1.741e-5
-0.902, 1.750e-5
-0.903, 1.759e-5
-0.904, 1.768e-5
-0.905, 1.777e-5
-0.906, 1.786e-5
-0.907, 1.795e-5
-0.908, 1.804e-5
-0.909, 1.814e-5
-0.910, 1.823e-5
-0.911, 1.832e-5
-0.912, 1.842e-5
-0.913, 1.852e-5
-0.914, 1.861e-5
-0.915, 1.871e-5
-0.916, 1.881e-5
-0.917, 1.891e-5
-0.918, 1.902e-5
-0.919, 1.912e-5
-0.920, 1.923e-5
-0.921, 1.933e-5
-0.922, 1.943e-5
-0.923, 1.954e-5
-0.924, 1.965e-5
-0.925, 1.976e-5
-0.926, 1.987e-5
-0.927, 1.998e-5
-0.928, 2.009e-5
-0.929, 2.021e-5
-0.930, 2.032e-5
-0.931, 2.044e-5
-0.932, 2.055e-5
-0.933, 2.067e-5
-0.934, 2.080e-5
-0.935, 2.092e-5
-0.936, 2.104e-5
-0.937, 2.116e-5
-0.938, 2.129e-5
-0.939, 2.142e-5
-0.940, 2.155e-5
-0.941, 2.168e-5
-0.942, 2.181e-5
-0.943, 2.194e-5
-0.944, 2.207e-5
-0.945, 2.221e-5
-0.946, 2.234e-5
-0.947, 2.248e-5
-0.948, 2.262e-5
-0.949, 2.277e-5
-0.950, 2.291e-5
-0.951, 2.305e-5
-0.952, 2.319e-5
-0.953, 2.334e-5
-0.954, 2.349e-5
-0.955, 2.364e-5
-0.956, 2.379e-5
-0.957, 2.394e-5
-0.958, 2.410e-5
-0.959, 2.426e-5
-0.960, 2.441e-5
-0.961, 2.457e-5
-0.962, 2.473e-5
-0.963, 2.489e-5
-0.964, 2.505e-5
-0.965, 2.520e-5
-0.966, 2.537e-5
-0.967, 2.553e-5
-0.968, 2.569e-5
-0.969, 2.586e-5
-0.970, 2.602e-5
-0.971, 2.619e-5
-0.972, 2.635e-5
-0.973, 2.653e-5
-0.974, 2.669e-5
-0.975, 2.685e-5
-0.976, 2.702e-5
-0.977, 2.719e-5
-0.978, 2.736e-5
-0.979, 2.753e-5
-0.980, 2.769e-5
-0.981, 2.785e-5
-0.982, 2.801e-5
-0.983, 2.817e-5
-0.984, 2.834e-5
-0.985, 2.850e-5
-0.986, 2.867e-5
-0.987, 2.883e-5
-0.988, 2.899e-5
-0.989, 2.916e-5
-0.990, 2.932e-5
-0.991, 2.947e-5
-0.992, 2.964e-5
-0.993, 2.980e-5
-0.994, 2.995e-5
-0.995, 3.011e-5
-0.996, 3.026e-5
-0.997, 3.042e-5
-0.998, 3.058e-5
-0.999, 3.074e-5
-1.000, 3.089e-5
-1.001, 3.104e-5
-1.002, 3.119e-5
-1.003, 3.134e-5
-1.004, 3.149e-5
-1.005, 3.164e-5
-1.006, 3.179e-5
-1.007, 3.194e-5
-1.008, 3.209e-5
-1.009, 3.224e-5
-1.010, 3.238e-5
-1.011, 3.253e-5
-1.012, 3.267e-5
-1.013, 3.281e-5
-1.014, 3.295e-5
-1.015, 3.309e-5
-1.016, 3.323e-5
-1.017, 3.337e-5
-1.018, 3.350e-5
-1.019, 3.364e-5
-1.020, 3.378e-5
-1.021, 3.391e-5
-1.022, 3.405e-5
-1.023, 3.418e-5
-1.024, 3.432e-5
-1.025, 3.446e-5
-1.026, 3.459e-5
-1.027, 3.472e-5
-1.028, 3.486e-5
-1.029, 3.500e-5
-1.030, 3.513e-5
-1.031, 3.527e-5
-1.032, 3.540e-5
-1.033, 3.554e-5
-1.034, 3.568e-5
-1.035, 3.582e-5
-1.036, 3.596e-5
-1.037, 3.610e-5
-1.038, 3.625e-5
-1.039, 3.639e-5
-1.040, 3.653e-5
-1.041, 3.667e-5
-1.042, 3.682e-5
-1.043, 3.697e-5
-1.044, 3.711e-5
-1.045, 3.726e-5
-1.046, 3.740e-5
-1.047, 3.754e-5
-1.048, 3.769e-5
-1.049, 3.784e-5
-1.050, 3.798e-5
-1.051, 3.812e-5
-1.052, 3.827e-5
-1.053, 3.841e-5
-1.054, 3.856e-5
-1.055, 3.870e-5
-1.056, 3.884e-5
-1.057, 3.898e-5
-1.058, 3.912e-5
-1.059, 3.927e-5
-1.060, 3.941e-5
-1.061, 3.955e-5
-1.062, 3.969e-5
-1.063, 3.983e-5
-1.064, 3.998e-5
-1.065, 4.012e-5
-1.066, 4.025e-5
-1.067, 4.040e-5
-1.068, 4.054e-5
-1.069, 4.068e-5
-1.070, 4.083e-5
-1.071, 4.096e-5
-1.072, 4.110e-5
-1.073, 4.124e-5
-1.074, 4.139e-5
-1.075, 4.154e-5
-1.076, 4.168e-5
-1.077, 4.181e-5
-1.078, 4.196e-5
-1.079, 4.209e-5
-1.080, 4.224e-5
-1.081, 4.238e-5
-1.082, 4.252e-5
-1.083, 4.266e-5
-1.084, 4.280e-5
-1.085, 4.293e-5
-1.086, 4.307e-5
-1.087, 4.320e-5
-1.088, 4.335e-5
-1.089, 4.349e-5
-1.090, 4.362e-5
-1.091, 4.375e-5
-1.092, 4.388e-5
-1.093, 4.402e-5
-1.094, 4.416e-5
-1.095, 4.430e-5
-1.096, 4.443e-5
-1.097, 4.457e-5
-1.098, 4.470e-5
-1.099, 4.485e-5
-1.100, 4.498e-5
-1.101, 4.511e-5
-1.102, 4.525e-5
-1.103, 4.538e-5
-1.104, 4.552e-5
-1.105, 4.565e-5
-1.106, 4.578e-5
-1.107, 4.592e-5
-1.108, 4.605e-5
-1.109, 4.619e-5
-1.110, 4.632e-5
-1.111, 4.645e-5
-1.112, 4.658e-5
-1.113, 4.672e-5
-1.114, 4.685e-5
-1.115, 4.698e-5
-1.116, 4.711e-5
-1.117, 4.723e-5
-1.118, 4.737e-5
-1.119, 4.750e-5
-1.120, 4.763e-5
-1.121, 4.776e-5
-1.122, 4.789e-5
-1.123, 4.802e-5
-1.124, 4.815e-5
-1.125, 4.828e-5
-1.126, 4.841e-5
-1.127, 4.853e-5
-1.128, 4.866e-5
-1.129, 4.879e-5
-1.130, 4.891e-5
-1.131, 4.904e-5
-1.132, 4.916e-5
-1.133, 4.929e-5
-1.134, 4.942e-5
-1.135, 4.953e-5
-1.136, 4.966e-5
-1.137, 4.977e-5
-1.138, 4.989e-5
-1.139, 5.001e-5
-1.140, 5.013e-5
-1.141, 5.025e-5
-1.142, 5.037e-5
-1.143, 5.049e-5
-1.144, 5.061e-5
-1.145, 5.073e-5
-1.146, 5.084e-5
-1.147, 5.096e-5
-1.148, 5.107e-5
-1.149, 5.118e-5
-1.150, 5.130e-5
-1.151, 5.141e-5
-1.152, 5.152e-5
-1.153, 5.163e-5
-1.154, 5.173e-5
-1.155, 5.183e-5
-1.156, 5.193e-5
-1.157, 5.204e-5
-1.158, 5.214e-5
-1.159, 5.225e-5
-1.160, 5.234e-5
-1.161, 5.244e-5
-1.162, 5.253e-5
-1.163, 5.264e-5
-1.164, 5.273e-5
-1.165, 5.283e-5
-1.166, 5.294e-5
-1.167, 5.303e-5
-1.168, 5.312e-5
-1.169, 5.322e-5
-1.170, 5.331e-5
-1.171, 5.340e-5
-1.172, 5.349e-5
-1.173, 5.360e-5
-1.174, 5.370e-5
-1.175, 5.378e-5
-1.176, 5.384e-5
-1.177, 5.390e-5
-1.178, 5.397e-5
-1.179, 5.410e-5
-1.180, 5.423e-5
-1.181, 5.432e-5
-1.182, 5.440e-5
-1.183, 5.448e-5
-1.184, 5.455e-5
-1.185, 5.470e-5
-1.186, 5.475e-5
-1.187, 5.478e-5
-1.188, 5.483e-5
-1.189, 5.487e-5
-1.190, 5.493e-5
-1.191, 5.498e-5
-1.192, 5.506e-5
-1.193, 5.506e-5
-1.194, 5.505e-5
-1.195, 5.510e-5
-1.196, 5.516e-5
-1.197, 5.522e-5
-1.198, 5.529e-5
-1.199, 5.539e-5
-1.200, 5.548e-5
-1.201, 5.554e-5
-1.202, 5.562e-5
-1.203, 5.570e-5
-1.204, 5.578e-5
-1.205, 5.586e-5
-1.206, 5.592e-5
-1.207, 5.597e-5
-1.208, 5.605e-5
-1.209, 5.613e-5
-1.210, 5.616e-5
-1.211, 5.623e-5
-1.212, 5.630e-5
-1.213, 5.637e-5
-1.214, 5.647e-5
-1.215, 5.658e-5
-1.216, 5.664e-5
-1.217, 5.674e-5
-1.218, 5.681e-5
-1.219, 5.694e-5
-1.220, 5.697e-5
-1.221, 5.711e-5
-1.222, 5.736e-5
-1.223, 5.755e-5
-1.224, 5.788e-5
-1.225, 5.815e-5
-1.226, 5.845e-5
-1.227, 5.866e-5
-1.228, 5.875e-5
-1.229, 5.886e-5
-1.230, 5.903e-5
-1.231, 5.936e-5
-1.232, 5.936e-5
-1.233, 5.948e-5
-1.234, 5.964e-5
-1.235, 5.983e-5
-1.236, 5.996e-5
-1.237, 6.009e-5
-1.238, 6.019e-5
-1.239, 6.049e-5
-1.240, 6.097e-5
-1.241, 6.128e-5
-1.242, 6.191e-5
-1.243, 6.387e-5
-1.244, 6.495e-5
-1.245, 6.536e-5
-1.246, 6.535e-5
-1.247, 6.525e-5
-1.248, 6.523e-5
-1.249, 6.524e-5
-1.250, 6.504e-5
-1.251, 6.513e-5
-1.252, 6.520e-5
-1.253, 6.530e-5
-1.254, 6.534e-5
-1.255, 6.550e-5
-1.256, 6.583e-5
-1.257, 6.602e-5
-1.258, 6.615e-5
-1.259, 6.620e-5
-1.260, 6.628e-5
-1.261, 6.639e-5
-1.262, 6.650e-5
-1.263, 6.660e-5
-1.264, 6.677e-5
-1.265, 6.698e-5
-1.266, 6.726e-5
-1.267, 6.762e-5
-1.268, 6.793e-5
-1.269, 6.821e-5
-1.270, 6.852e-5
-1.271, 6.872e-5
-1.272, 6.896e-5
-1.273, 6.923e-5
-1.274, 6.968e-5
-1.275, 7.031e-5
-1.276, 7.061e-5
-1.277, 7.085e-5
-1.278, 7.118e-5
-1.279, 7.147e-5
-1.280, 7.181e-5
-1.281, 7.224e-5
-1.282, 7.263e-5
-1.283, 7.303e-5
-1.284, 7.366e-5
-1.285, 7.405e-5
-1.286, 7.449e-5
-1.287, 7.494e-5
-1.288, 7.561e-5
-1.289, 7.601e-5
-1.290, 7.626e-5
-1.291, 7.670e-5
-1.292, 7.715e-5
-1.293, 7.762e-5
-1.294, 7.822e-5
-1.295, 7.866e-5
-1.296, 7.915e-5
-1.297, 7.964e-5
-1.298, 8.012e-5
-1.299, 8.070e-5
-1.300, 8.141e-5
-1.301, 8.201e-5
-1.302, 8.254e-5
-1.303, 8.312e-5
-1.304, 8.365e-5
-1.305, 8.412e-5
-1.306, 8.481e-5
-1.307, 8.551e-5
-1.308, 8.607e-5
-1.309, 8.678e-5
-1.310, 8.757e-5
-1.311, 8.833e-5
-1.312, 8.922e-5
-1.313, 9.011e-5
-1.314, 9.113e-5
-1.315, 9.234e-5
-1.316, 9.319e-5
-1.317, 9.403e-5
-1.318, 9.479e-5
-1.319, 9.564e-5
-1.320, 9.682e-5
-1.321, 9.776e-5
-1.322, 9.873e-5
-1.323, 9.959e-5
-1.324, 1.005e-4
-1.325, 1.014e-4
-1.326, 1.023e-4
-1.327, 1.032e-4
-1.328, 1.041e-4
-1.329, 1.050e-4
-1.330, 1.061e-4
-1.331, 1.071e-4
-1.332, 1.083e-4
-1.333, 1.094e-4
-1.334, 1.106e-4
-1.335, 1.119e-4
-1.336, 1.130e-4
-1.337, 1.142e-4
-1.338, 1.154e-4
-1.339, 1.166e-4
-1.340, 1.179e-4
-1.341, 1.191e-4
-1.342, 1.204e-4
-1.343, 1.217e-4
-1.344, 1.232e-4
-1.345, 1.246e-4
-1.346, 1.260e-4
-1.347, 1.275e-4
-1.348, 1.290e-4
-1.349, 1.306e-4
-1.350, 1.321e-4
-1.351, 1.336e-4
-1.352, 1.352e-4
-1.353, 1.369e-4
-1.354, 1.386e-4
-1.355, 1.402e-4
-1.356, 1.418e-4
-1.357, 1.435e-4
-1.358, 1.452e-4
-1.359, 1.470e-4
-1.360, 1.488e-4
-1.361, 1.506e-4
-1.362, 1.524e-4
-1.363, 1.543e-4
-1.364, 1.561e-4
-1.365, 1.581e-4
-1.366, 1.601e-4
-1.367, 1.621e-4
-1.368, 1.642e-4
-1.369, 1.664e-4
-1.370, 1.687e-4
-1.371, 1.711e-4
-1.372, 1.732e-4
-1.373, 1.754e-4
-1.374, 1.778e-4
-1.375, 1.801e-4
-1.376, 1.820e-4
-1.377, 1.844e-4
-1.378, 1.866e-4
-1.379, 1.888e-4
-1.380, 1.912e-4
-1.381, 1.936e-4
-1.382, 1.960e-4
-1.383, 1.985e-4
-1.384, 2.009e-4
-1.385, 2.033e-4
-1.386, 2.054e-4
-1.387, 2.079e-4
-1.388, 2.102e-4
-1.389, 2.126e-4
-1.390, 2.151e-4
-1.391, 2.176e-4
-1.392, 2.202e-4
-1.393, 2.227e-4
-1.394, 2.250e-4
-1.395, 2.279e-4
-1.396, 2.310e-4
-1.397, 2.339e-4
-1.398, 2.367e-4
-1.399, 2.396e-4
-1.400, 2.428e-4
-1.401, 2.460e-4
-1.402, 2.491e-4
-1.403, 2.523e-4
-1.404, 2.554e-4
-1.405, 2.585e-4
-1.406, 2.616e-4
-1.407, 2.648e-4
-1.408, 2.682e-4
-1.409, 2.715e-4
-1.410, 2.749e-4
-1.411, 2.784e-4
-1.412, 2.817e-4
-1.413, 2.850e-4
-1.414, 2.885e-4
-1.415, 2.920e-4
-1.416, 2.953e-4
-1.417, 2.986e-4
-1.418, 3.024e-4
-1.419, 3.061e-4
-1.420, 3.100e-4
-1.421, 3.135e-4
-1.422, 3.165e-4
-1.423, 3.198e-4
-1.424, 3.233e-4
-1.425, 3.270e-4
-1.426, 3.308e-4
-1.427, 3.340e-4
-1.428, 3.379e-4
-1.429, 3.420e-4
-1.430, 3.460e-4
-1.431, 3.499e-4
-1.432, 3.538e-4
-1.433, 3.577e-4
-1.434, 3.615e-4
-1.435, 3.653e-4
-1.436, 3.696e-4
-1.437, 3.735e-4
-1.438, 3.771e-4
-1.439, 3.812e-4
-1.440, 3.852e-4
-1.441, 3.894e-4
-1.442, 3.934e-4
-1.443, 3.976e-4
-1.444, 4.019e-4
-1.445, 4.061e-4
-1.446, 4.106e-4
-1.447, 4.148e-4
-1.448, 4.190e-4
-1.449, 4.236e-4
-1.450, 4.282e-4
-1.451, 4.328e-4
-1.452, 4.377e-4
-1.453, 4.414e-4
-1.454, 4.458e-4
-1.455, 4.505e-4
-1.456, 4.550e-4
-1.457, 4.598e-4
-1.458, 4.644e-4
-1.459, 4.692e-4
-1.460, 4.736e-4
-1.461, 4.784e-4
-1.462, 4.829e-4
-1.463, 4.876e-4
-1.464, 4.922e-4
-1.465, 4.967e-4
-1.466, 5.010e-4
-1.467, 5.055e-4
-1.468, 5.105e-4
-1.469, 5.158e-4
-1.470, 5.208e-4
-1.471, 5.256e-4
-1.472, 5.303e-4
-1.473, 5.349e-4
-1.474, 5.401e-4
-1.475, 5.447e-4
-1.476, 5.497e-4
-1.477, 5.549e-4
-1.478, 5.601e-4
-1.479, 5.656e-4
-1.480, 5.707e-4
-1.481, 5.759e-4
-1.482, 5.811e-4
-1.483, 5.864e-4
-1.484, 5.919e-4
-1.485, 5.975e-4
-1.486, 6.031e-4
-1.487, 6.084e-4
-1.488, 6.139e-4
-1.489, 6.193e-4
-1.490, 6.242e-4
-1.491, 6.295e-4
-1.492, 6.348e-4
-1.493, 6.405e-4
-1.494, 6.463e-4
-1.495, 6.509e-4
-1.496, 6.568e-4
-1.497, 6.620e-4
-1.498, 6.672e-4
-1.499, 6.726e-4
-1.500, 6.778e-4
-1.501, 6.834e-4
-1.502, 6.891e-4
-1.503, 6.942e-4
-1.504, 7.006e-4
-1.505, 7.063e-4
-1.506, 7.121e-4
-1.507, 7.189e-4
-1.508, 7.242e-4
-1.509, 7.293e-4
-1.510, 7.356e-4
-1.511, 7.421e-4
-1.512, 7.476e-4
-1.513, 7.522e-4
-1.514, 7.573e-4
-1.515, 7.623e-4
-1.516, 7.681e-4
-1.517, 7.735e-4
-1.518, 7.787e-4
-1.519, 7.853e-4
-1.520, 7.895e-4
-1.521, 7.947e-4
-1.522, 8.000e-4
-1.523, 8.066e-4
-1.524, 8.143e-4
-1.525, 8.196e-4
-1.526, 8.254e-4
-1.527, 8.321e-4
-1.528, 8.390e-4
-1.529, 8.441e-4
-1.530, 8.507e-4
-1.531, 8.572e-4
-1.532, 8.624e-4
-1.533, 8.693e-4
-1.534, 8.759e-4
-1.535, 8.818e-4
-1.536, 8.875e-4
-1.537, 8.948e-4
-1.538, 9.010e-4
-1.539, 9.069e-4
-1.540, 9.129e-4
-1.541, 9.193e-4
-1.542, 9.260e-4
-1.543, 9.324e-4
-1.544, 9.402e-4
-1.545, 9.462e-4
-1.546, 9.519e-4
-1.547, 9.603e-4
-1.548, 9.713e-4
-1.549, 9.786e-4
-1.550, 9.890e-4
-1.551, 9.970e-4
-1.552, 1.004e-3
-1.553, 1.010e-3
-1.554, 1.011e-3
-1.555, 1.011e-3
-1.556, 1.011e-3
-1.557, 1.011e-3
-1.558, 1.011e-3
-1.559, 1.011e-3
-1.560, 1.011e-3
-1.561, 1.011e-3
-1.562, 1.011e-3
-1.563, 1.011e-3
-1.564, 1.011e-3
-1.565, 1.011e-3
-1.566, 1.011e-3
-1.567, 1.011e-3
-1.568, 1.011e-3
-1.569, 1.011e-3
-1.570, 1.011e-3
-1.571, 1.011e-3
-1.572, 1.011e-3
-1.573, 1.011e-3
-1.574, 1.011e-3
-1.575, 1.011e-3
-1.576, 1.011e-3
-1.577, 1.011e-3
-1.578, 1.011e-3
-1.579, 1.011e-3
-1.580, 1.011e-3
-1.581, 1.011e-3
-1.582, 1.011e-3
-1.583, 1.011e-3
-1.584, 1.011e-3
-1.585, 1.011e-3
-1.586, 1.011e-3
-1.587, 1.011e-3
-1.588, 1.011e-3
-1.589, 1.011e-3
-1.590, 1.011e-3
-1.591, 1.011e-3
-1.592, 1.011e-3
-1.593, 1.011e-3
-1.594, 1.011e-3
-1.595, 1.011e-3
-1.596, 1.011e-3
-1.597, 1.011e-3
-1.598, 1.011e-3
-1.599, 1.011e-3
-1.600, 1.011e-3
-1.601, 1.011e-3
-1.602, 1.011e-3
-1.603, 1.011e-3
-1.604, 1.011e-3
-1.605, 1.011e-3
-1.606, 1.011e-3
-1.607, 1.011e-3
-1.608, 1.011e-3
-1.609, 1.011e-3
-1.610, 1.011e-3
-1.611, 1.011e-3
-1.612, 1.011e-3
-1.613, 1.011e-3
-1.614, 1.011e-3
-1.615, 1.011e-3
-1.616, 1.011e-3
-1.617, 1.011e-3
-1.618, 1.011e-3
-1.619, 1.011e-3
-1.620, 1.011e-3
-1.621, 1.011e-3
-1.622, 1.011e-3
-1.623, 1.011e-3
-1.624, 1.011e-3
-1.625, 1.011e-3
-1.626, 1.011e-3
-1.627, 1.011e-3
-1.628, 1.011e-3
-1.629, 1.011e-3
-1.630, 1.011e-3
-1.631, 1.011e-3
-1.632, 1.011e-3
-1.633, 1.011e-3
-1.634, 1.011e-3
-1.635, 1.011e-3
-1.636, 1.011e-3
-1.637, 1.011e-3
-1.638, 1.011e-3
-1.639, 1.011e-3
-1.640, 1.011e-3
-1.641, 1.011e-3
-1.642, 1.011e-3
-1.643, 1.011e-3
-1.644, 1.011e-3
-1.645, 1.011e-3
-1.646, 1.011e-3
-1.647, 1.011e-3
-1.648, 1.011e-3
-1.649, 1.011e-3
-1.650, 1.011e-3
-1.651, 1.011e-3
-1.652, 1.011e-3
-1.653, 1.011e-3
-1.654, 1.011e-3
-1.655, 1.011e-3
-1.656, 1.011e-3
-1.657, 1.011e-3
-1.658, 1.011e-3
-1.659, 1.011e-3
-1.660, 1.011e-3
-1.661, 1.011e-3
-1.662, 1.011e-3
-1.663, 1.011e-3
-1.664, 1.011e-3
-1.665, 1.011e-3
-1.666, 1.011e-3
-1.667, 1.011e-3
-1.668, 1.011e-3
-1.669, 1.011e-3
-1.670, 1.011e-3
-1.671, 1.011e-3
-1.672, 1.011e-3
-1.673, 1.011e-3
-1.674, 1.011e-3
-1.675, 1.011e-3
-1.676, 1.011e-3
-1.677, 1.011e-3
-1.678, 1.011e-3
-1.679, 1.011e-3
-1.680, 1.011e-3
-1.681, 1.011e-3
-1.682, 1.011e-3
-1.683, 1.011e-3
-1.684, 1.011e-3
-1.685, 1.011e-3
-1.686, 1.011e-3
-1.687, 1.011e-3
-1.688, 1.011e-3
-1.689, 1.011e-3
-1.690, 1.011e-3
-1.691, 1.011e-3
-1.692, 1.011e-3
-1.693, 1.011e-3
-1.694, 1.011e-3
-1.695, 1.011e-3
-1.696, 1.011e-3
-1.697, 1.011e-3
-1.698, 1.011e-3
-1.699, 1.011e-3
-1.700, 1.011e-3
-1.701, 1.011e-3
-1.702, 1.011e-3
-1.703, 1.011e-3
-1.704, 1.011e-3
-1.705, 1.011e-3
-1.706, 1.011e-3
-1.707, 1.011e-3
-1.708, 1.011e-3
-1.709, 1.011e-3
-1.710, 1.011e-3
-1.711, 1.011e-3
-1.712, 1.011e-3
-1.713, 1.011e-3
-1.714, 1.011e-3
-1.715, 1.011e-3
-1.716, 1.011e-3
-1.717, 1.011e-3
-1.718, 1.011e-3
-1.719, 1.011e-3
-1.720, 1.011e-3
-1.721, 1.011e-3
-1.722, 1.011e-3
-1.723, 1.011e-3
-1.724, 1.011e-3
-1.725, 1.011e-3
-1.726, 1.011e-3
-1.727, 1.011e-3
-1.728, 1.011e-3
-1.729, 1.011e-3
-1.730, 1.011e-3
-1.731, 1.011e-3
-1.732, 1.011e-3
-1.733, 1.011e-3
-1.734, 1.011e-3
-1.735, 1.011e-3
-1.736, 1.011e-3
-1.737, 1.011e-3
-1.738, 1.011e-3
-1.739, 1.011e-3
-1.740, 1.011e-3
-1.741, 1.011e-3
-1.742, 1.011e-3
-1.743, 1.011e-3
-1.744, 1.011e-3
-1.745, 1.011e-3
-1.746, 1.011e-3
-1.747, 1.011e-3
-1.748, 1.011e-3
-1.749, 1.011e-3
-1.750, 1.011e-3
-1.751, 1.011e-3
-1.752, 1.011e-3
-1.753, 1.011e-3
-1.754, 1.011e-3
-1.755, 1.011e-3
-1.756, 1.011e-3
-1.757, 1.011e-3
-1.758, 1.011e-3
-1.759, 1.011e-3
-1.760, 1.011e-3
-1.761, 1.011e-3
-1.762, 1.011e-3
-1.763, 1.011e-3
-1.764, 1.011e-3
-1.765, 1.011e-3
-1.766, 1.011e-3
-1.767, 1.011e-3
-1.768, 1.011e-3
-1.769, 1.011e-3
-1.770, 1.011e-3
-1.771, 1.011e-3
-1.772, 1.011e-3
-1.773, 1.011e-3
-1.774, 1.011e-3
-1.775, 1.011e-3
-1.776, 1.011e-3
-1.777, 1.011e-3
-1.778, 1.011e-3
-1.779, 1.011e-3
-1.780, 1.011e-3
-1.781, 1.011e-3
-1.782, 1.011e-3
-1.783, 1.011e-3
-1.784, 1.011e-3
-1.785, 1.011e-3
-1.786, 1.011e-3
-1.787, 1.011e-3
-1.788, 1.011e-3
-1.789, 1.011e-3
-1.790, 1.011e-3
-1.791, 1.011e-3
-1.792, 1.011e-3
-1.793, 1.011e-3
-1.794, 1.011e-3
-1.795, 1.011e-3
-1.796, 1.011e-3
-1.797, 1.011e-3
-1.798, 1.011e-3
-1.799, 1.011e-3
-1.800, 1.011e-3
-1.801, 1.011e-3
-1.802, 1.011e-3
-1.803, 1.011e-3
-1.804, 1.011e-3
-1.805, 1.011e-3
-1.806, 1.011e-3
-1.807, 1.011e-3
-1.808, 1.011e-3
-1.809, 1.011e-3
-1.810, 1.011e-3
-1.811, 1.011e-3
-1.812, 1.011e-3
-1.813, 1.011e-3
-1.814, 1.011e-3
-1.815, 1.011e-3
-1.816, 1.011e-3
-1.817, 1.011e-3
-1.818, 1.011e-3
-1.819, 1.011e-3
-1.820, 1.011e-3
-1.821, 1.011e-3
-1.822, 1.011e-3
-1.823, 1.011e-3
-1.824, 1.011e-3
-1.825, 1.011e-3
-1.826, 1.011e-3
-1.827, 1.011e-3
-1.828, 1.011e-3
-1.829, 1.011e-3
-1.830, 1.011e-3
-1.831, 1.011e-3
-1.832, 1.011e-3
-1.833, 1.011e-3
-1.834, 1.011e-3
-1.835, 1.011e-3
-1.836, 1.011e-3
-1.837, 1.011e-3
-1.838, 1.011e-3
-1.839, 1.011e-3
-1.840, 1.011e-3
-1.841, 1.011e-3
-1.842, 1.011e-3
-1.843, 1.011e-3
-1.844, 1.011e-3
-1.845, 1.011e-3
-1.846, 1.011e-3
-1.847, 1.011e-3
-1.848, 1.011e-3
-1.849, 1.011e-3
-1.850, 1.011e-3
-1.851, 1.011e-3
-1.852, 1.011e-3
-1.853, 1.011e-3
-1.854, 1.011e-3
-1.855, 1.011e-3
-1.856, 1.011e-3
-1.857, 1.011e-3
-1.858, 1.011e-3
-1.859, 1.011e-3
-1.860, 1.011e-3
-1.861, 1.011e-3
-1.862, 1.011e-3
-1.863, 1.011e-3
-1.864, 1.011e-3
-1.865, 1.011e-3
-1.866, 1.011e-3
-1.867, 1.011e-3
-1.868, 1.011e-3
-1.869, 1.011e-3
-1.870, 1.011e-3
-1.871, 1.011e-3
-1.872, 1.011e-3
-1.873, 1.011e-3
-1.874, 1.011e-3
-1.875, 1.011e-3
-1.876, 1.011e-3
-1.877, 1.011e-3
-1.878, 1.011e-3
-1.879, 1.011e-3
-1.880, 1.011e-3
-1.881, 1.011e-3
-1.882, 1.011e-3
-1.883, 1.011e-3
-1.884, 1.011e-3
-1.885, 1.011e-3
-1.886, 1.011e-3
-1.887, 1.011e-3
-1.888, 1.011e-3
-1.889, 1.011e-3
-1.890, 1.011e-3
-1.891, 1.011e-3
-1.892, 1.011e-3
-1.893, 1.011e-3
-1.894, 1.011e-3
-1.895, 1.011e-3
-1.896, 1.011e-3
-1.897, 1.011e-3
-1.898, 1.011e-3
-1.899, 1.011e-3
