Potential V vs RHE, Current mA cm-2
0.013299999999999867,-0.6128529351015338
0.012299999999999978,-1.9650339955125358
0.011299999999999866,-2.706342716641815
0.010299999999999976,-3.1859298472960624
0.009299999999999864,-3.623075638954359
0.008299999999999974,-4.014950669016974
0.007299999999999862,-4.364384360083638
0.006299999999999972,-4.626105950558669
0.00529999999999986,-4.756259390146253
0.0042999999999999705,-4.843971490737885
0.0032999999999998586,-4.887827541033701
0.0022999999999999687,-5.0618370309171015
0.0012999999999998568,-5.235846520800501
0.00029999999999996696,-5.411270721983764
-0.000700000000000145,-5.5414241615713475
-0.0017000000000000348,-5.5414241615713475
-0.0027000000000001467,-5.5414241615713475
-0.0037000000000000366,-5.585280211867165
-0.0047000000000001485,-5.672992312458796
-0.005700000000000038,-5.847001802342197
-0.00670000000000015,-5.977155241929781
-0.00770000000000004,-6.021011292225596
-0.008700000000000152,-6.021011292225596
-0.009700000000000042,-5.977155241929781
-0.010700000000000154,-6.021011292225596
-0.011700000000000044,-6.152579443113044
-0.012700000000000156,-6.282732882700628
-0.013700000000000045,-6.37044498329226
-0.014700000000000157,-6.37044498329226
-0.015700000000000047,-6.326588932996443
-0.01670000000000016,-6.282732882700628
-0.01770000000000005,-6.37044498329226
-0.01870000000000016,-6.500598422879844
-0.01970000000000005,-6.632166573767292
-0.020700000000000163,-6.6760226240631075
-0.021700000000000053,-6.632166573767292
-0.022700000000000164,-6.54445447317566
-0.023700000000000054,-6.54445447317566
-0.024700000000000166,-6.632166573767292
-0.025700000000000056,-6.762320013354876
-0.026700000000000168,-6.850032113946507
-0.027700000000000058,-6.893888164242324
-0.02870000000000017,-6.806176063650692
-0.02970000000000006,-6.719878674358924
-0.03070000000000017,-6.762320013354876
-0.03170000000000006,-6.850032113946507
-0.03270000000000017,-6.981600264833956
-0.03370000000000006,-7.024041603829907
-0.034700000000000175,-7.024041603829907
-0.035700000000000065,-6.93774421453814
-0.03670000000000018,-6.893888164242324
-0.03770000000000007,-6.93774421453814
-0.03870000000000018,-7.024041603829907
-0.03970000000000007,-7.111753704421539
-0.04070000000000018,-7.155609754717355
-0.04170000000000007,-7.111753704421539
-0.04270000000000018,-6.981600264833956
-0.04370000000000007,-6.981600264833956
-0.044700000000000184,-7.024041603829907
-0.045700000000000074,-7.111753704421539
-0.046700000000000186,-7.199465805013171
-0.047700000000000076,-7.199465805013171
-0.04870000000000019,-7.111753704421539
-0.04970000000000008,-7.024041603829907
-0.05070000000000019,-7.024041603829907
-0.05170000000000008,-7.067897654125724
-0.05270000000000019,-7.155609754717355
-0.05370000000000008,-7.199465805013171
-0.05470000000000019,-7.155609754717355
-0.05570000000000008,-7.111753704421539
-0.056700000000000195,-7.024041603829907
-0.057700000000000085,-7.024041603829907
-0.058700000000000196,-7.111753704421539
-0.059700000000000086,-7.199465805013171
-0.0607000000000002,-7.199465805013171
-0.06170000000000009,-7.111753704421539
-0.0627000000000002,-7.024041603829907
-0.06370000000000009,-6.93774421453814
-0.0647000000000002,-6.981600264833956
-0.06570000000000009,-7.067897654125724
-0.0667000000000002,-7.111753704421539
-0.0677000000000001,-7.067897654125724
-0.0687000000000002,-6.981600264833956
-0.0697000000000001,-6.850032113946507
-0.07070000000000021,-6.893888164242324
-0.0717000000000001,-6.93774421453814
-0.07270000000000021,-6.981600264833956
-0.0737000000000001,-7.024041603829907
-0.07470000000000021,-6.93774421453814
-0.0757000000000001,-6.850032113946507
-0.07670000000000021,-6.762320013354876
-0.0777000000000001,-6.762320013354876
-0.07870000000000021,-6.850032113946507
-0.0797000000000001,-6.893888164242324
-0.08070000000000022,-6.893888164242324
-0.0817000000000001,-6.762320013354876
-0.08270000000000022,-6.6760226240631075
-0.08370000000000011,-6.632166573767292
-0.08470000000000022,-6.632166573767292
-0.08570000000000011,-6.719878674358924
-0.08670000000000022,-6.762320013354876
-0.08770000000000011,-6.6760226240631075
-0.08870000000000022,-6.588310523471475
-0.08970000000000011,-6.500598422879844
-0.09070000000000022,-6.458157083883892
-0.09170000000000011,-6.500598422879844
-0.09270000000000023,-6.588310523471475
-0.09370000000000012,-6.588310523471475
-0.09470000000000023,-6.500598422879844
-0.09570000000000012,-6.37044498329226
-0.09670000000000023,-6.326588932996443
-0.09770000000000012,-6.326588932996443
-0.09870000000000023,-6.37044498329226
-0.09970000000000012,-6.458157083883892
-0.10070000000000023,-6.414301033588076
-0.10170000000000012,-6.326588932996443
-0.10270000000000024,-6.238876832404812
-0.10370000000000013,-6.196435493408861
-0.10470000000000024,-6.196435493408861
-0.10570000000000013,-6.238876832404812
-0.10670000000000024,-6.282732882700628
-0.10770000000000013,-6.238876832404812
-0.10870000000000024,-6.152579443113044
-0.10970000000000013,-6.064867342521412
-0.11070000000000024,-6.021011292225596
-0.11170000000000013,-6.108723392817228
-0.11270000000000002,-6.152579443113044
-0.11370000000000013,-6.196435493408861
-0.11470000000000002,-6.064867342521412
-0.11570000000000014,-5.977155241929781
-0.11670000000000003,-5.890857852638012
-0.11770000000000014,-5.890857852638012
-0.11870000000000003,-5.977155241929781
-0.11970000000000014,-6.064867342521412
-0.12070000000000003,-6.021011292225596
-0.12170000000000014,-5.9347139029338285
-0.12270000000000003,-5.80314575204638
-0.12370000000000014,-5.80314575204638
-0.12470000000000003,-5.847001802342197
-0.12570000000000014,-5.890857852638012
-0.12670000000000003,-5.9347139029338285
-0.12770000000000015,-5.890857852638012
-0.12870000000000004,-5.80314575204638
-0.12970000000000015,-5.672992312458796
-0.13070000000000004,-5.672992312458796
-0.13170000000000015,-5.759289701750564
-0.13270000000000004,-5.80314575204638
-0.13370000000000015,-5.80314575204638
-0.13470000000000004,-5.759289701750564
-0.13570000000000015,-5.672992312458796
-0.13670000000000004,-5.585280211867165
-0.13770000000000016,-5.585280211867165
-0.13870000000000005,-5.672992312458796
-0.13970000000000016,-5.759289701750564
-0.14070000000000005,-5.715433651454749
-0.14170000000000016,-5.629136262162981
-0.14270000000000005,-5.5414241615713475
-0.14370000000000016,-5.497568111275533
-0.14470000000000005,-5.5414241615713475
-0.14570000000000016,-5.629136262162981
-0.14670000000000005,-5.629136262162981
-0.14770000000000016,-5.629136262162981
-0.14870000000000005,-5.5414241615713475
-0.14970000000000017,-5.453712060979717
-0.15070000000000006,-5.453712060979717
-0.15170000000000017,-5.497568111275533
-0.15270000000000006,-5.585280211867165
-0.15370000000000017,-5.585280211867165
-0.15470000000000006,-5.5414241615713475
-0.15570000000000017,-5.453712060979717
-0.15670000000000006,-5.367414671687949
-0.15770000000000017,-5.367414671687949
-0.15870000000000006,-5.453712060979717
-0.15970000000000018,-5.5414241615713475
-0.16070000000000007,-5.497568111275533
-0.16170000000000018,-5.453712060979717
-0.16270000000000007,-5.323558621392133
-0.16370000000000018,-5.323558621392133
-0.16470000000000007,-5.367414671687949
-0.16570000000000018,-5.453712060979717
-0.16670000000000007,-5.497568111275533
-0.16770000000000018,-5.453712060979717
-0.16870000000000007,-5.367414671687949
-0.16970000000000018,-5.279702571096316
-0.17070000000000007,-5.279702571096316
-0.17170000000000019,-5.323558621392133
-0.17270000000000008,-5.411270721983764
-0.1737000000000002,-5.411270721983764
-0.17470000000000008,-5.367414671687949
-0.1757000000000002,-5.235846520800501
-0.17670000000000008,-5.191990470504685
-0.1777000000000002,-5.191990470504685
-0.17870000000000008,-5.279702571096316
-0.1797000000000002,-5.367414671687949
-0.18070000000000008,-5.323558621392133
-0.1817000000000002,-5.279702571096316
-0.18270000000000008,-5.149549131508733
-0.1837000000000002,-5.149549131508733
-0.1847000000000001,-5.191990470504685
-0.1857000000000002,-5.279702571096316
-0.1867000000000001,-5.279702571096316
-0.1877000000000002,-5.279702571096316
-0.1887000000000001,-5.149549131508733
-0.1897000000000002,-5.105693081212917
-0.1907000000000001,-5.105693081212917
-0.1917000000000001,-5.149549131508733
-0.19269999999999998,-5.235846520800501
-0.1937000000000001,-5.235846520800501
-0.19469999999999998,-5.149549131508733
-0.1957000000000001,-5.0618370309171015
-0.19669999999999999,-5.017980980621284
-0.1977000000000001,-5.017980980621284
-0.1987,-5.105693081212917
-0.1997000000000001,-5.149549131508733
-0.2007,-5.149549131508733
-0.2017000000000001,-5.0618370309171015
-0.2027,-4.9302688800296535
-0.2037000000000001,-4.9302688800296535
-0.2047,-4.974124930325469
-0.2057000000000001,-5.0618370309171015
-0.2067,-5.0618370309171015
-0.2077000000000001,-5.0618370309171015
-0.2087,-4.9302688800296535
-0.2097000000000001,-4.843971490737885
-0.2107,-4.843971490737885
-0.2117000000000001,-4.9302688800296535
-0.2127,-4.974124930325469
-0.2137000000000001,-5.017980980621284
-0.2147,-4.9302688800296535
-0.2157000000000001,-4.887827541033701
-0.2167,-4.800115440442069
-0.21770000000000012,-4.800115440442069
-0.2187,-4.843971490737885
-0.21970000000000012,-4.9302688800296535
-0.2207,-4.887827541033701
-0.22170000000000012,-4.800115440442069
-0.2227,-4.712403339850438
-0.22370000000000012,-4.668547289554621
-0.2247,-4.712403339850438
-0.22570000000000012,-4.800115440442069
-0.2267,-4.800115440442069
-0.22770000000000012,-4.800115440442069
-0.22870000000000001,-4.668547289554621
-0.22970000000000013,-4.626105950558669
-0.23070000000000002,-4.626105950558669
-0.23170000000000013,-4.668547289554621
-0.23270000000000002,-4.712403339850438
-0.23370000000000013,-4.712403339850438
-0.23470000000000002,-4.626105950558669
-0.23570000000000013,-4.582249900262854
-0.23670000000000002,-4.494537799671222
-0.2376999999999999,-4.538393849967037
-0.23870000000000002,-4.582249900262854
-0.2396999999999999,-4.626105950558669
-0.24070000000000003,-4.626105950558669
-0.24169999999999991,-4.538393849967037
-0.24270000000000003,-4.450681749375406
-0.24369999999999992,-4.406825699079589
-0.24470000000000003,-4.450681749375406
-0.24569999999999992,-4.538393849967037
-0.24670000000000003,-4.582249900262854
-0.24769999999999992,-4.538393849967037
-0.24870000000000003,-4.450681749375406
-0.24969999999999992,-4.364384360083638
-0.25070000000000003,-4.364384360083638
-0.2516999999999999,-4.450681749375406
-0.25270000000000004,-4.494537799671222
-0.2536999999999999,-4.494537799671222
-0.25470000000000004,-4.450681749375406
-0.2556999999999999,-4.3205283097878215
-0.25670000000000004,-4.276672259492005
-0.25769999999999993,-4.3205283097878215
-0.25870000000000004,-4.364384360083638
-0.25969999999999993,-4.450681749375406
-0.26070000000000004,-4.406825699079589
-0.26169999999999993,-4.3205283097878215
-0.26270000000000004,-4.23281620919619
-0.26369999999999993,-4.23281620919619
-0.26470000000000005,-4.276672259492005
-0.26569999999999994,-4.364384360083638
-0.26670000000000005,-4.406825699079589
-0.26769999999999994,-4.364384360083638
-0.26870000000000005,-4.276672259492005
-0.26969999999999994,-4.1889601589003735
-0.27070000000000005,-4.1889601589003735
-0.27169999999999994,-4.276672259492005
-0.27270000000000005,-4.364384360083638
-0.27369999999999994,-4.364384360083638
-0.27470000000000006,-4.276672259492005
-0.27569999999999995,-4.1889601589003735
-0.27670000000000006,-4.146518819904423
-0.27769999999999995,-4.1889601589003735
-0.27870000000000006,-4.276672259492005
-0.27969999999999995,-4.3205283097878215
-0.28070000000000006,-4.3205283097878215
-0.28169999999999995,-4.276672259492005
-0.28270000000000006,-4.1889601589003735
-0.28369999999999995,-4.146518819904423
-0.28470000000000006,-4.1889601589003735
-0.28569999999999995,-4.276672259492005
-0.28670000000000007,-4.3205283097878215
-0.28769999999999996,-4.276672259492005
-0.28870000000000007,-4.23281620919619
-0.28969999999999996,-4.146518819904423
-0.29070000000000007,-4.146518819904423
-0.29169999999999996,-4.23281620919619
-0.29270000000000007,-4.3205283097878215
-0.29369999999999996,-4.364384360083638
-0.2947000000000001,-4.276672259492005
-0.29569999999999996,-4.23281620919619
-0.2967000000000001,-4.1889601589003735
-0.29769999999999996,-4.23281620919619
-0.2987000000000001,-4.276672259492005
-0.29969999999999997,-4.364384360083638
-0.3007000000000001,-4.364384360083638
-0.30169999999999997,-4.276672259492005
-0.3027000000000001,-4.23281620919619
-0.30369999999999997,-4.23281620919619
-0.3047000000000001,-4.276672259492005
-0.30569999999999997,-4.406825699079589
-0.3067000000000001,-4.406825699079589
-0.3077,-4.406825699079589
-0.3087000000000001,-4.3205283097878215
-0.3097,-4.276672259492005
-0.3107000000000001,-4.3205283097878215
-0.3117,-4.406825699079589
-0.3127000000000001,-4.494537799671222
-0.3137,-4.494537799671222
-0.3147000000000001,-4.450681749375406
-0.3157,-4.406825699079589
-0.3167000000000001,-4.364384360083638
-0.3177,-4.406825699079589
-0.3187000000000001,-4.494537799671222
-0.3197,-4.582249900262854
-0.3207000000000001,-4.582249900262854
-0.3217,-4.538393849967037
-0.3227000000000001,-4.450681749375406
-0.3237,-4.450681749375406
-0.3247000000000001,-4.538393849967037
-0.3257,-4.668547289554621
-0.3267000000000001,-4.712403339850438
-0.3277,-4.712403339850438
-0.3287000000000001,-4.668547289554621
-0.3297,-4.582249900262854
-0.3307000000000001,-4.626105950558669
-0.3317,-4.712403339850438
-0.3327000000000001,-4.843971490737885
-0.3337,-4.887827541033701
-0.3347000000000001,-4.843971490737885
-0.3357,-4.800115440442069
-0.3367000000000001,-4.800115440442069
-0.3377,-4.843971490737885
-0.3387000000000001,-4.9302688800296535
-0.3397,-5.017980980621284
-0.3407000000000001,-5.0618370309171015
-0.3417,-4.974124930325469
-0.3427000000000001,-4.974124930325469
-0.3437,-4.974124930325469
-0.3447000000000001,-5.105693081212917
-0.3457,-5.191990470504685
-0.3467000000000001,-5.235846520800501
-0.3477,-5.279702571096316
-0.3487000000000001,-5.235846520800501
-0.3497,-5.191990470504685
-0.3507000000000001,-5.279702571096316
-0.3517,-5.367414671687949
-0.3527000000000001,-5.497568111275533
-0.3537,-5.5414241615713475
-0.3547000000000001,-5.5414241615713475
-0.3557,-5.497568111275533
-0.35670000000000013,-5.5414241615713475
-0.3577,-5.585280211867165
-0.35870000000000013,-5.715433651454749
-0.3597,-5.847001802342197
-0.36070000000000013,-5.890857852638012
-0.3617,-5.847001802342197
-0.3626999999999999,-5.80314575204638
-0.3637,-5.847001802342197
-0.3646999999999999,-5.977155241929781
-0.3657,-6.152579443113044
-0.3666999999999999,-6.238876832404812
-0.3677,-6.238876832404812
-0.3686999999999999,-6.238876832404812
-0.36970000000000003,-6.238876832404812
-0.3706999999999999,-6.326588932996443
-0.37170000000000003,-6.458157083883892
-0.3726999999999999,-6.632166573767292
-0.37370000000000003,-6.6760226240631075
-0.3746999999999999,-6.719878674358924
-0.37570000000000003,-6.6760226240631075
-0.3766999999999999,-6.762320013354876
-0.37770000000000004,-6.850032113946507
-0.3786999999999999,-6.981600264833956
-0.37970000000000004,-7.155609754717355
-0.3806999999999999,-7.243321855308987
-0.38170000000000004,-7.243321855308987
-0.38269999999999993,-7.243321855308987
-0.38370000000000004,-7.329619244600755
-0.38469999999999993,-7.50504344578402
-0.38570000000000004,-7.679052935667419
-0.38669999999999993,-7.809206375255003
-0.38770000000000004,-7.853062425550818
-0.38869999999999993,-7.896918475846635
-0.38970000000000005,-7.940774526142452
-0.39069999999999994,-8.070927965730034
-0.39170000000000005,-8.202496116617484
-0.39269999999999994,-8.4203616567967
-0.39370000000000005,-8.594371146680096
-0.39469999999999994,-8.594371146680096
-0.39570000000000005,-8.68208324727173
-0.39669999999999994,-8.725939297567548
-0.39770000000000005,-8.899948787450944
-0.39869999999999994,-9.11781432763016
-0.39970000000000006,-9.293238528813426
-0.40069999999999995,-9.423391968401008
-0.40170000000000006,-9.511104068992642
-0.40269999999999995,-9.59740145828441
-0.40370000000000006,-9.685113558876042
-0.40469999999999995,-9.902979099055257
-0.40570000000000006,-10.164700689530287
-0.40669999999999995,-10.340124890713554
-0.40770000000000006,-10.470278330301136
-0.40869999999999995,-10.601846481188586
-0.40970000000000006,-10.688143870480351
-0.41069999999999995,-10.863568071663616
-0.41170000000000007,-11.123874950838783
-0.41269999999999996,-11.42945259160963
-0.41370000000000007,-11.604876792792895
-0.41469999999999996,-11.778886282676295
-0.41570000000000007,-11.909039722263879
-0.41669999999999996,-12.084463923447142
-0.41770000000000007,-12.302329463626359
-0.41869999999999996,-12.607907104397206
-0.4197000000000001,-12.869628694872238
-0.42069999999999996,-13.087494235051453
-0.4217000000000001,-13.30535977523067
-0.42269999999999996,-13.436927926118118
-0.4237000000000001,-13.698649516593148
-0.42469999999999997,-14.002812446064135
-0.4257000000000001,-14.345172580631472
-0.42669999999999997,-14.65640906660178
-0.4277000000000001,-14.925204213576137
-0.42869999999999997,-15.137410908555893
-0.4297000000000001,-15.349617603535648
-0.43069999999999997,-15.70329542850191
-0.4317000000000001,-16.056973253468165
-0.4327,-16.495533756426326
-0.4337000000000001,-16.835064468393938
-0.4347,-17.103859615368293
-0.4357000000000001,-17.358507649344002
-0.4367,-17.669744135314307
-0.4377000000000001,-18.10830463827247
-0.4387,-18.589306480226583
-0.4397000000000001,-19.01371987018609
-0.4407,-19.409839034148305
-0.4417000000000001,-19.763516859114564
-0.4427,-20.10304757108217
-0.4437000000000001,-20.541608074040333
-0.4447,-21.065051254990397
-0.4457000000000001,-21.63093577493641
-0.4467,-22.15437895588647
-0.4477000000000001,-22.63538079784059
-0.4487,-23.073941300798747
-0.4497000000000001,-23.51250180375691
-0.4507,-24.078386323702922
-0.4517000000000001,-24.686712182644893
-0.4527,-25.337479380582806
-0.4537000000000001,-25.91751101352747
-0.4547,-26.483395533473487
-0.4557000000000001,-27.00683871442355
-0.4567,-27.615164573365515
-0.4577000000000001,-28.308373110299385
-0.4587,-28.959140308237306
-0.4597000000000001,-29.708937297165768
-0.4607,-30.402145834099635
-0.4617000000000001,-31.052913032037555
-0.4627,-31.661238890979522
-0.4637000000000001,-32.368594540912035
-0.4647,-33.14668575583781
-0.4657000000000001,-34.02380676175414
-0.4667,-34.85848642867451
-0.4677000000000001,-35.594136304604326
-0.4687,-36.329786180534136
-0.4697000000000001,-37.07958316946261
-0.4707,-37.94255706238028
-0.4717000000000001,-38.86211940729255
-0.4727,-39.78168175220483
-0.4737000000000001,-40.701244097117105
-0.4747,-41.47933531204288
-0.4757000000000001,-42.31401497896325
-0.4767,-43.134547532884966
-0.4777000000000001,-44.096551216793195
-0.4787,-45.10099623969737
-0.4797000000000001,-46.147882601597495
-0.4807,-47.10988628550572
-0.48170000000000013,-48.029448630417996
-0.4827,-48.93486386233162
-0.48370000000000013,-49.89686754623985
-0.4847,-50.943753908139975
-0.48570000000000013,-52.033081609036046
-0.4867,-51.90575759204819
-0.48570000000000013,-50.50519340518181
-0.4847,-49.72710219025603
-0.48370000000000013,-49.03389365332217
-0.4827,-48.51045047237211
-0.48170000000000013,-47.987007291422046
-0.4807,-47.506005449467935
-0.4797000000000001,-46.982562268517874
-0.4787,-46.37423640957591
-0.4777000000000001,-45.70932209863933
-0.4767,-45.143437578693316
-0.4757000000000001,-44.535111719751356
-0.4747,-43.96922719980534
-0.4737000000000001,-43.48822535785123
-0.4727,-42.87989949890926
-0.4717000000000001,-42.2715736399673
-0.4707,-41.66324778102533
-0.4697000000000001,-41.04077480908471
-0.4687,-40.4748902891387
-0.4677000000000001,-39.99388844718459
-0.4667,-39.47044526623452
-0.4657000000000001,-38.86211940729255
-0.4647,-38.253793548350586
-0.4637000000000001,-37.60302635041268
-0.4627,-36.99470049147071
-0.4617000000000001,-36.47125731052064
-0.4607,-35.99025546856653
