Dec. 26, 2024   00:06:51
Cyclic Voltammetry
File: c:/users/guazh/data/banditlqround7_x0exp136_r20/2024-12-24-exp742\exp742-2024-12-25t23_57_12-arkoh\exp742_cv_sr_100mvs_efin_-1500mv.bin
Data Source:  Experiment
Instrument Model:  CHI760E
Header: CV ran at 100 mVs
Note: 

Init E (V) = -1
High E (V) = -1
Low E (V) = -1.5
Final E (V) = -1
Init P/N = N
Scan Rate (V/s) = 0.1
Segment = 3
Sample Interval (V) = 0.001
Quiet Time (sec) = 2
Sensitivity (A/V) = 0.01
Comp R (ohm) = 1.3

Results:

Channel 1:
Segment 1:

Segment 2:

Segment 3:

Potential/V, Current/A

-1.000, 2.269e-5
-1.001, 6.956e-5
-1.002, 8.043e-5
-1.003, 9.006e-5
-1.004, 1.023e-4
-1.005, 1.009e-4
-1.006, 1.132e-4
-1.007, 1.136e-4
-1.008, 1.173e-4
-1.009, 1.251e-4
-1.010, 1.211e-4
-1.011, 1.314e-4
-1.012, 1.290e-4
-1.013, 1.315e-4
-1.014, 1.378e-4
-1.015, 1.326e-4
-1.016, 1.410e-4
-1.017, 1.383e-4
-1.018, 1.404e-4
-1.019, 1.451e-4
-1.020, 1.396e-4
-1.021, 1.477e-4
-1.022, 1.443e-4
-1.023, 1.455e-4
-1.024, 1.512e-4
-1.025, 1.444e-4
-1.026, 1.525e-4
-1.027, 1.483e-4
-1.028, 1.494e-4
-1.029, 1.540e-4
-1.030, 1.475e-4
-1.031, 1.552e-4
-1.032, 1.504e-4
-1.033, 1.514e-4
-1.034, 1.559e-4
-1.035, 1.490e-4
-1.036, 1.567e-4
-1.037, 1.522e-4
-1.038, 1.522e-4
-1.039, 1.571e-4
-1.040, 1.498e-4
-1.041, 1.569e-4
-1.042, 1.525e-4
-1.043, 1.524e-4
-1.044, 1.569e-4
-1.045, 1.496e-4
-1.046, 1.563e-4
-1.047, 1.523e-4
-1.048, 1.516e-4
-1.049, 1.563e-4
-1.050, 1.487e-4
-1.051, 1.554e-4
-1.052, 1.514e-4
-1.053, 1.505e-4
-1.054, 1.546e-4
-1.055, 1.477e-4
-1.056, 1.538e-4
-1.057, 1.495e-4
-1.058, 1.491e-4
-1.059, 1.527e-4
-1.060, 1.457e-4
-1.061, 1.518e-4
-1.062, 1.476e-4
-1.063, 1.472e-4
-1.064, 1.506e-4
-1.065, 1.434e-4
-1.066, 1.501e-4
-1.067, 1.450e-4
-1.068, 1.449e-4
-1.069, 1.487e-4
-1.070, 1.410e-4
-1.071, 1.476e-4
-1.072, 1.430e-4
-1.073, 1.422e-4
-1.074, 1.463e-4
-1.075, 1.391e-4
-1.076, 1.450e-4
-1.077, 1.404e-4
-1.078, 1.393e-4
-1.079, 1.439e-4
-1.080, 1.357e-4
-1.081, 1.422e-4
-1.082, 1.375e-4
-1.083, 1.366e-4
-1.084, 1.405e-4
-1.085, 1.329e-4
-1.086, 1.391e-4
-1.087, 1.351e-4
-1.088, 1.335e-4
-1.089, 1.378e-4
-1.090, 1.301e-4
-1.091, 1.358e-4
-1.092, 1.320e-4
-1.093, 1.305e-4
-1.094, 1.343e-4
-1.095, 1.272e-4
-1.096, 1.326e-4
-1.097, 1.286e-4
-1.098, 1.275e-4
-1.099, 1.314e-4
-1.100, 1.241e-4
-1.101, 1.299e-4
-1.102, 1.254e-4
-1.103, 1.244e-4
-1.104, 1.281e-4
-1.105, 1.207e-4
-1.106, 1.268e-4
-1.107, 1.224e-4
-1.108, 1.213e-4
-1.109, 1.252e-4
-1.110, 1.177e-4
-1.111, 1.238e-4
-1.112, 1.194e-4
-1.113, 1.183e-4
-1.114, 1.224e-4
-1.115, 1.149e-4
-1.116, 1.209e-4
-1.117, 1.169e-4
-1.118, 1.153e-4
-1.119, 1.198e-4
-1.120, 1.121e-4
-1.121, 1.182e-4
-1.122, 1.143e-4
-1.123, 1.129e-4
-1.124, 1.171e-4
-1.125, 1.095e-4
-1.126, 1.156e-4
-1.127, 1.121e-4
-1.128, 1.105e-4
-1.129, 1.149e-4
-1.130, 1.078e-4
-1.131, 1.134e-4
-1.132, 1.099e-4
-1.133, 1.083e-4
-1.134, 1.128e-4
-1.135, 1.060e-4
-1.136, 1.113e-4
-1.137, 1.080e-4
-1.138, 1.067e-4
-1.139, 1.108e-4
-1.140, 1.041e-4
-1.141, 1.095e-4
-1.142, 1.064e-4
-1.143, 1.052e-4
-1.144, 1.093e-4
-1.145, 1.023e-4
-1.146, 1.081e-4
-1.147, 1.046e-4
-1.148, 1.036e-4
-1.149, 1.078e-4
-1.150, 1.008e-4
-1.151, 1.068e-4
-1.152, 1.033e-4
-1.153, 1.020e-4
-1.154, 1.069e-4
-1.155, 9.930e-5
-1.156, 1.058e-4
-1.157, 1.022e-4
-1.158, 1.006e-4
-1.159, 1.056e-4
-1.160, 9.835e-5
-1.161, 1.042e-4
-1.162, 1.013e-4
-1.163, 9.969e-5
-1.164, 1.044e-4
-1.165, 9.759e-5
-1.166, 1.030e-4
-1.167, 1.003e-4
-1.168, 9.874e-5
-1.169, 1.035e-4
-1.170, 9.658e-5
-1.171, 1.022e-4
-1.172, 9.911e-5
-1.173, 9.762e-5
-1.174, 1.023e-4
-1.175, 9.589e-5
-1.176, 1.011e-4
-1.177, 9.870e-5
-1.178, 9.726e-5
-1.179, 1.016e-4
-1.180, 9.502e-5
-1.181, 1.003e-4
-1.182, 9.746e-5
-1.183, 9.603e-5
-1.184, 1.006e-4
-1.185, 9.396e-5
-1.186, 9.960e-5
-1.187, 9.640e-5
-1.188, 9.516e-5
-1.189, 9.969e-5
-1.190, 9.292e-5
-1.191, 9.923e-5
-1.192, 9.551e-5
-1.193, 9.433e-5
-1.194, 9.899e-5
-1.195, 9.197e-5
-1.196, 9.795e-5
-1.197, 9.479e-5
-1.198, 9.336e-5
-1.199, 9.831e-5
-1.200, 9.085e-5
-1.201, 9.695e-5
-1.202, 9.414e-5
-1.203, 9.242e-5
-1.204, 9.737e-5
-1.205, 9.020e-5
-1.206, 9.585e-5
-1.207, 9.325e-5
-1.208, 9.146e-5
-1.209, 9.649e-5
-1.210, 8.944e-5
-1.211, 9.487e-5
-1.212, 9.242e-5
-1.213, 9.047e-5
-1.214, 9.519e-5
-1.215, 8.856e-5
-1.216, 9.397e-5
-1.217, 9.126e-5
-1.218, 8.984e-5
-1.219, 9.433e-5
-1.220, 8.776e-5
-1.221, 9.301e-5
-1.222, 9.052e-5
-1.223, 8.906e-5
-1.224, 9.351e-5
-1.225, 8.677e-5
-1.226, 9.248e-5
-1.227, 8.952e-5
-1.228, 8.831e-5
-1.229, 9.393e-5
-1.230, 8.608e-5
-1.231, 9.184e-5
-1.232, 8.874e-5
-1.233, 8.699e-5
-1.234, 9.214e-5
-1.235, 8.516e-5
-1.236, 9.099e-5
-1.237, 8.831e-5
-1.238, 8.633e-5
-1.239, 9.139e-5
-1.240, 8.438e-5
-1.241, 9.018e-5
-1.242, 8.778e-5
-1.243, 8.571e-5
-1.244, 9.104e-5
-1.245, 8.423e-5
-1.246, 8.932e-5
-1.247, 8.748e-5
-1.248, 8.516e-5
-1.249, 9.038e-5
-1.250, 8.378e-5
-1.251, 8.892e-5
-1.252, 8.723e-5
-1.253, 8.485e-5
-1.254, 8.997e-5
-1.255, 8.382e-5
-1.256, 8.883e-5
-1.257, 8.663e-5
-1.258, 8.506e-5
-1.259, 8.972e-5
-1.260, 8.379e-5
-1.261, 8.890e-5
-1.262, 8.654e-5
-1.263, 8.514e-5
-1.264, 8.992e-5
-1.265, 8.347e-5
-1.266, 8.913e-5
-1.267, 8.677e-5
-1.268, 8.540e-5
-1.269, 9.052e-5
-1.270, 8.386e-5
-1.271, 8.960e-5
-1.272, 8.726e-5
-1.273, 8.572e-5
-1.274, 9.090e-5
-1.275, 8.453e-5
-1.276, 9.025e-5
-1.277, 8.800e-5
-1.278, 8.661e-5
-1.279, 9.174e-5
-1.280, 8.578e-5
-1.281, 9.107e-5
-1.282, 8.922e-5
-1.283, 8.740e-5
-1.284, 9.288e-5
-1.285, 8.645e-5
-1.286, 9.211e-5
-1.287, 9.048e-5
-1.288, 8.852e-5
-1.289, 9.430e-5
-1.290, 8.824e-5
-1.291, 9.354e-5
-1.292, 9.210e-5
-1.293, 9.029e-5
-1.294, 9.582e-5
-1.295, 8.994e-5
-1.296, 9.538e-5
-1.297, 9.379e-5
-1.298, 9.237e-5
-1.299, 9.769e-5
-1.300, 9.176e-5
-1.301, 9.760e-5
-1.302, 9.602e-5
-1.303, 9.493e-5
-1.304, 1.000e-4
-1.305, 9.456e-5
-1.306, 1.004e-4
-1.307, 9.892e-5
-1.308, 9.786e-5
-1.309, 1.030e-4
-1.310, 9.752e-5
-1.311, 1.034e-4
-1.312, 1.019e-4
-1.313, 1.010e-4
-1.314, 1.066e-4
-1.315, 1.010e-4
-1.316, 1.071e-4
-1.317, 1.058e-4
-1.318, 1.048e-4
-1.319, 1.108e-4
-1.320, 1.050e-4
-1.321, 1.114e-4
-1.322, 1.101e-4
-1.323, 1.092e-4
-1.324, 1.152e-4
-1.325, 1.097e-4
-1.326, 1.162e-4
-1.327, 1.154e-4
-1.328, 1.142e-4
-1.329, 1.207e-4
-1.330, 1.155e-4
-1.331, 1.219e-4
-1.332, 1.213e-4
-1.333, 1.206e-4
-1.334, 1.268e-4
-1.335, 1.221e-4
-1.336, 1.283e-4
-1.337, 1.281e-4
-1.338, 1.278e-4
-1.339, 1.340e-4
-1.340, 1.295e-4
-1.341, 1.360e-4
-1.342, 1.356e-4
-1.343, 1.359e-4
-1.344, 1.424e-4
-1.345, 1.379e-4
-1.346, 1.450e-4
-1.347, 1.450e-4
-1.348, 1.450e-4
-1.349, 1.520e-4
-1.350, 1.477e-4
-1.351, 1.558e-4
-1.352, 1.550e-4
-1.353, 1.558e-4
-1.354, 1.632e-4
-1.355, 1.590e-4
-1.356, 1.671e-4
-1.357, 1.675e-4
-1.358, 1.683e-4
-1.359, 1.763e-4
-1.360, 1.721e-4
-1.361, 1.806e-4
-1.362, 1.815e-4
-1.363, 1.825e-4
-1.364, 1.911e-4
-1.365, 1.875e-4
-1.366, 1.962e-4
-1.367, 1.978e-4
-1.368, 1.993e-4
-1.369, 2.081e-4
-1.370, 2.054e-4
-1.371, 2.144e-4
-1.372, 2.164e-4
-1.373, 2.185e-4
-1.374, 2.278e-4
-1.375, 2.260e-4
-1.376, 2.354e-4
-1.377, 2.382e-4
-1.378, 2.414e-4
-1.379, 2.510e-4
-1.380, 2.500e-4
-1.381, 2.602e-4
-1.382, 2.640e-4
-1.383, 2.683e-4
-1.384, 2.785e-4
-1.385, 2.785e-4
-1.386, 2.903e-4
-1.387, 2.943e-4
-1.388, 2.993e-4
-1.389, 3.112e-4
-1.390, 3.120e-4
-1.391, 3.250e-4
-1.392, 3.305e-4
-1.393, 3.369e-4
-1.394, 3.502e-4
-1.395, 3.524e-4
-1.396, 3.670e-4
-1.397, 3.738e-4
-1.398, 3.820e-4
-1.399, 3.973e-4
-1.400, 4.006e-4
-1.401, 4.166e-4
-1.402, 4.257e-4
-1.403, 4.354e-4
-1.404, 4.527e-4
-1.405, 4.583e-4
-1.406, 4.771e-4
-1.407, 4.885e-4
-1.408, 5.004e-4
-1.409, 5.202e-4
-1.410, 5.288e-4
-1.411, 5.500e-4
-1.412, 5.644e-4
-1.413, 5.794e-4
-1.414, 6.015e-4
-1.415, 6.137e-4
-1.416, 6.370e-4
-1.417, 6.548e-4
-1.418, 6.737e-4
-1.419, 6.991e-4
-1.420, 7.149e-4
-1.421, 7.420e-4
-1.422, 7.627e-4
-1.423, 7.858e-4
-1.424, 8.151e-4
-1.425, 8.350e-4
-1.426, 8.668e-4
-1.427, 8.915e-4
-1.428, 9.186e-4
-1.429, 9.515e-4
-1.430, 9.754e-4
-1.431, 1.011e-3
-1.432, 1.040e-3
-1.433, 1.071e-3
-1.434, 1.109e-3
-1.435, 1.137e-3
-1.436, 1.177e-3
-1.437, 1.209e-3
-1.438, 1.244e-3
-1.439, 1.286e-3
-1.440, 1.319e-3
-1.441, 1.364e-3
-1.442, 1.401e-3
-1.443, 1.440e-3
-1.444, 1.486e-3
-1.445, 1.523e-3
-1.446, 1.573e-3
-1.447, 1.615e-3
-1.448, 1.660e-3
-1.449, 1.710e-3
-1.450, 1.752e-3
-1.451, 1.804e-3
-1.452, 1.849e-3
-1.453, 1.898e-3
-1.454, 1.952e-3
-1.455, 1.998e-3
-1.456, 2.055e-3
-1.457, 2.105e-3
-1.458, 2.158e-3
-1.459, 2.216e-3
-1.460, 2.266e-3
-1.461, 2.327e-3
-1.462, 2.381e-3
-1.463, 2.439e-3
-1.464, 2.501e-3
-1.465, 2.556e-3
-1.466, 2.621e-3
-1.467, 2.679e-3
-1.468, 2.741e-3
-1.469, 2.804e-3
-1.470, 2.863e-3
-1.471, 2.933e-3
-1.472, 2.996e-3
-1.473, 3.061e-3
-1.474, 3.132e-3
-1.475, 3.196e-3
-1.476, 3.269e-3
-1.477, 3.335e-3
-1.478, 3.405e-3
-1.479, 3.478e-3
-1.480, 3.546e-3
-1.481, 3.625e-3
-1.482, 3.695e-3
-1.483, 3.766e-3
-1.484, 3.848e-3
-1.485, 3.916e-3
-1.486, 3.997e-3
-1.487, 4.070e-3
-1.488, 4.146e-3
-1.489, 4.228e-3
-1.490, 4.302e-3
-1.491, 4.386e-3
-1.492, 4.468e-3
-1.493, 4.547e-3
-1.494, 4.634e-3
-1.495, 4.716e-3
-1.496, 4.804e-3
-1.497, 4.885e-3
-1.498, 4.967e-3
-1.499, 5.055e-3
-1.500, 5.060e-3
-1.499, 5.003e-3
-1.498, 4.943e-3
-1.497, 4.886e-3
-1.496, 4.830e-3
-1.495, 4.768e-3
-1.494, 4.713e-3
-1.493, 4.652e-3
-1.492, 4.596e-3
-1.491, 4.541e-3
-1.490, 4.477e-3
-1.489, 4.425e-3
-1.488, 4.363e-3
-1.487, 4.307e-3
-1.486, 4.251e-3
-1.485, 4.185e-3
-1.484, 4.131e-3
-1.483, 4.068e-3
-1.482, 4.008e-3
-1.481, 3.951e-3
-1.480, 3.886e-3
-1.479, 3.831e-3
-1.478, 3.773e-3
-1.477, 3.715e-3
-1.476, 3.659e-3
-1.475, 3.598e-3
-1.474, 3.546e-3
-1.473, 3.487e-3
-1.472, 3.431e-3
-1.471, 3.378e-3
-1.470, 3.317e-3
-1.469, 3.269e-3
-1.468, 3.212e-3
-1.467, 3.157e-3
-1.466, 3.107e-3
-1.465, 3.050e-3
-1.464, 3.003e-3
-1.463, 2.949e-3
-1.462, 2.897e-3
-1.461, 2.849e-3
-1.460, 2.795e-3
-1.459, 2.750e-3
-1.458, 2.698e-3
-1.457, 2.648e-3
-1.456, 2.602e-3
-1.455, 2.550e-3
-1.454, 2.506e-3
-1.453, 2.457e-3
-1.452, 2.409e-3
-1.451, 2.367e-3
-1.450, 2.317e-3
-1.449, 2.277e-3
-1.448, 2.229e-3
-1.447, 2.185e-3
-1.446, 2.144e-3
-1.445, 2.097e-3
-1.444, 2.059e-3
-1.443, 2.015e-3
-1.442, 1.974e-3
-1.441, 1.936e-3
-1.440, 1.892e-3
-1.439, 1.856e-3
-1.438, 1.815e-3
-1.437, 1.776e-3
-1.436, 1.741e-3
-1.435, 1.698e-3
-1.434, 1.665e-3
-1.433, 1.626e-3
-1.432, 1.589e-3
-1.431, 1.557e-3
-1.430, 1.517e-3
-1.429, 1.487e-3
-1.428, 1.452e-3
-1.427, 1.418e-3
-1.426, 1.388e-3
-1.425, 1.352e-3
-1.424, 1.323e-3
-1.423, 1.291e-3
-1.422, 1.258e-3
-1.421, 1.232e-3
-1.420, 1.199e-3
-1.419, 1.174e-3
-1.418, 1.144e-3
-1.417, 1.114e-3
-1.416, 1.090e-3
-1.415, 1.058e-3
-1.414, 1.035e-3
-1.413, 1.008e-3
-1.412, 9.803e-4
-1.411, 9.592e-4
-1.410, 9.296e-4
-1.409, 9.087e-4
-1.408, 8.836e-4
-1.407, 8.585e-4
-1.406, 8.394e-4
-1.405, 8.121e-4
-1.404, 7.935e-4
-1.403, 7.700e-4
-1.402, 7.474e-4
-1.401, 7.307e-4
-1.400, 7.051e-4
-1.399, 6.895e-4
-1.398, 6.678e-4
-1.397, 6.473e-4
-1.396, 6.328e-4
-1.395, 6.092e-4
-1.394, 5.961e-4
-1.393, 5.778e-4
-1.392, 5.588e-4
-1.391, 5.461e-4
-1.390, 5.243e-4
-1.389, 5.130e-4
-1.388, 4.960e-4
-1.387, 4.788e-4
-1.386, 4.690e-4
-1.385, 4.484e-4
-1.384, 4.390e-4
-1.383, 4.235e-4
-1.382, 4.082e-4
-1.381, 4.000e-4
-1.380, 3.819e-4
-1.379, 3.734e-4
-1.378, 3.602e-4
-1.377, 3.464e-4
-1.376, 3.392e-4
-1.375, 3.227e-4
-1.374, 3.158e-4
-1.373, 3.035e-4
-1.372, 2.913e-4
-1.371, 2.857e-4
-1.370, 2.707e-4
-1.369, 2.648e-4
-1.368, 2.546e-4
-1.367, 2.434e-4
-1.366, 2.390e-4
-1.365, 2.252e-4
-1.364, 2.214e-4
-1.363, 2.116e-4
-1.362, 2.022e-4
-1.361, 1.989e-4
-1.360, 1.860e-4
-1.359, 1.831e-4
-1.358, 1.745e-4
-1.357, 1.656e-4
-1.356, 1.639e-4
-1.355, 1.510e-4
-1.354, 1.493e-4
-1.353, 1.417e-4
-1.352, 1.335e-4
-1.351, 1.327e-4
-1.350, 1.208e-4
-1.349, 1.203e-4
-1.348, 1.135e-4
-1.347, 1.059e-4
-1.346, 1.061e-4
-1.345, 9.441e-5
-1.344, 9.468e-5
-1.343, 8.847e-5
-1.342, 8.156e-5
-1.341, 8.238e-5
-1.340, 7.241e-5
-1.339, 7.285e-5
-1.338, 6.731e-5
-1.337, 6.108e-5
-1.336, 6.259e-5
-1.335, 5.261e-5
-1.334, 5.327e-5
-1.333, 4.860e-5
-1.332, 4.308e-5
-1.331, 4.459e-5
-1.330, 3.475e-5
-1.329, 3.652e-5
-1.328, 3.177e-5
-1.327, 2.679e-5
-1.326, 2.841e-5
-1.325, 1.957e-5
-1.324, 2.213e-5
-1.323, 1.717e-5
-1.322, 1.256e-5
-1.321, 1.474e-5
-1.320, 6.223e-6
-1.319, 8.532e-6
-1.318, 4.300e-6
-1.317, -8.090e-8
-1.316, 3.382e-6
-1.315, -5.537e-6
-1.314, -2.143e-6
-1.313, -6.573e-6
-1.312, -1.015e-5
-1.311, -7.105e-6
-1.310, -1.563e-5
-1.309, -1.194e-5
-1.308, -1.587e-5
-1.307, -1.984e-5
-1.306, -1.619e-5
-1.305, -2.454e-5
-1.304, -2.053e-5
-1.303, -2.409e-5
-1.302, -2.782e-5
-1.301, -2.404e-5
-1.300, -3.187e-5
-1.299, -2.844e-5
-1.298, -3.163e-5
-1.297, -3.511e-5
-1.296, -3.111e-5
-1.295, -3.899e-5
-1.294, -3.511e-5
-1.293, -3.819e-5
-1.292, -4.154e-5
-1.291, -3.776e-5
-1.290, -4.504e-5
-1.289, -4.113e-5
-1.288, -4.421e-5
-1.287, -4.680e-5
-1.286, -4.304e-5
-1.285, -5.043e-5
-1.284, -4.620e-5
-1.283, -4.933e-5
-1.282, -5.203e-5
-1.281, -4.826e-5
-1.280, -5.578e-5
-1.279, -5.124e-5
-1.278, -5.422e-5
-1.277, -5.658e-5
-1.276, -5.245e-5
-1.275, -6.001e-5
-1.274, -5.517e-5
-1.273, -5.854e-5
-1.272, -6.071e-5
-1.271, -5.637e-5
-1.270, -6.405e-5
-1.269, -5.888e-5
-1.268, -6.201e-5
-1.267, -6.455e-5
-1.266, -6.009e-5
-1.265, -6.775e-5
-1.264, -6.222e-5
-1.263, -6.555e-5
-1.262, -6.810e-5
-1.261, -6.320e-5
-1.260, -7.068e-5
-1.259, -6.557e-5
-1.258, -6.828e-5
-1.257, -7.105e-5
-1.256, -6.595e-5
-1.255, -7.351e-5
-1.254, -6.866e-5
-1.253, -7.080e-5
-1.252, -7.335e-5
-1.251, -6.878e-5
-1.250, -7.578e-5
-1.249, -7.079e-5
-1.248, -7.369e-5
-1.247, -7.596e-5
-1.246, -7.153e-5
-1.245, -7.817e-5
-1.244, -7.343e-5
-1.243, -7.582e-5
-1.242, -7.812e-5
-1.241, -7.347e-5
-1.240, -7.990e-5
-1.239, -7.464e-5
-1.238, -7.774e-5
-1.237, -7.931e-5
-1.236, -7.470e-5
-1.235, -8.191e-5
-1.234, -7.644e-5
-1.233, -7.949e-5
-1.232, -8.117e-5
-1.231, -7.611e-5
-1.230, -8.333e-5
-1.229, -7.901e-5
-1.228, -8.069e-5
-1.227, -8.255e-5
-1.226, -7.751e-5
-1.225, -8.453e-5
-1.224, -7.866e-5
-1.223, -8.119e-5
-1.222, -8.347e-5
-1.221, -7.799e-5
-1.220, -8.513e-5
-1.219, -7.989e-5
-1.218, -8.186e-5
-1.217, -8.427e-5
-1.216, -7.889e-5
-1.215, -8.587e-5
-1.214, -8.049e-5
-1.213, -8.260e-5
-1.212, -8.478e-5
-1.211, -7.969e-5
-1.210, -8.611e-5
-1.209, -8.126e-5
-1.208, -8.300e-5
-1.207, -8.548e-5
-1.206, -8.052e-5
-1.205, -8.682e-5
-1.204, -8.162e-5
-1.203, -8.433e-5
-1.202, -8.599e-5
-1.201, -8.105e-5
-1.200, -8.784e-5
-1.199, -8.226e-5
-1.198, -8.490e-5
-1.197, -8.660e-5
-1.196, -8.184e-5
-1.195, -8.857e-5
-1.194, -8.289e-5
-1.193, -8.579e-5
-1.192, -8.711e-5
-1.191, -8.242e-5
-1.190, -8.930e-5
-1.189, -8.376e-5
-1.188, -8.626e-5
-1.187, -8.820e-5
-1.186, -8.316e-5
-1.185, -9.029e-5
-1.184, -8.456e-5
-1.183, -8.721e-5
-1.182, -8.946e-5
-1.181, -8.401e-5
-1.180, -9.097e-5
-1.179, -8.552e-5
-1.178, -8.859e-5
-1.177, -9.054e-5
-1.176, -8.536e-5
-1.175, -9.183e-5
-1.174, -8.702e-5
-1.173, -8.912e-5
-1.172, -9.115e-5
-1.171, -8.627e-5
-1.170, -9.295e-5
-1.169, -8.771e-5
-1.168, -9.016e-5
-1.167, -9.201e-5
-1.166, -8.751e-5
-1.165, -9.370e-5
-1.164, -8.879e-5
-1.163, -9.169e-5
-1.162, -9.321e-5
-1.161, -8.844e-5
-1.160, -9.511e-5
-1.159, -8.957e-5
-1.158, -9.259e-5
-1.157, -9.423e-5
-1.156, -8.929e-5
-1.155, -9.669e-5
-1.154, -9.038e-5
-1.153, -9.370e-5
-1.152, -9.551e-5
-1.151, -9.061e-5
-1.150, -9.763e-5
-1.149, -9.185e-5
-1.148, -9.449e-5
-1.147, -9.688e-5
-1.146, -9.161e-5
-1.145, -9.903e-5
-1.144, -9.324e-5
-1.143, -9.568e-5
-1.142, -9.813e-5
-1.141, -9.264e-5
-1.140, -1.003e-4
-1.139, -9.442e-5
-1.138, -9.723e-5
-1.137, -9.976e-5
-1.136, -9.412e-5
-1.135, -1.012e-4
-1.134, -9.573e-5
-1.133, -9.843e-5
-1.132, -1.004e-4
-1.131, -9.559e-5
-1.130, -1.024e-4
-1.129, -9.731e-5
-1.128, -9.980e-5
-1.127, -1.019e-4
-1.126, -9.726e-5
-1.125, -1.040e-4
-1.124, -9.870e-5
-1.123, -1.013e-4
-1.122, -1.032e-4
-1.121, -9.876e-5
-1.120, -1.051e-4
-1.119, -1.002e-4
-1.118, -1.030e-4
-1.117, -1.046e-4
-1.116, -9.976e-5
-1.115, -1.071e-4
-1.114, -1.017e-4
-1.113, -1.044e-4
-1.112, -1.062e-4
-1.111, -1.015e-4
-1.110, -1.087e-4
-1.109, -1.031e-4
-1.108, -1.059e-4
-1.107, -1.080e-4
-1.106, -1.031e-4
-1.105, -1.104e-4
-1.104, -1.045e-4
-1.103, -1.077e-4
-1.102, -1.100e-4
-1.101, -1.050e-4
-1.100, -1.121e-4
-1.099, -1.070e-4
-1.098, -1.092e-4
-1.097, -1.120e-4
-1.096, -1.067e-4
-1.095, -1.138e-4
-1.094, -1.090e-4
-1.093, -1.115e-4
-1.092, -1.139e-4
-1.091, -1.093e-4
-1.090, -1.161e-4
-1.089, -1.111e-4
-1.088, -1.140e-4
-1.087, -1.159e-4
-1.086, -1.116e-4
-1.085, -1.184e-4
-1.084, -1.134e-4
-1.083, -1.165e-4
-1.082, -1.184e-4
-1.081, -1.143e-4
-1.080, -1.213e-4
-1.079, -1.159e-4
-1.078, -1.196e-4
-1.077, -1.215e-4
-1.076, -1.173e-4
-1.075, -1.252e-4
-1.074, -1.195e-4
-1.073, -1.229e-4
-1.072, -1.249e-4
-1.071, -1.207e-4
-1.070, -1.282e-4
-1.069, -1.227e-4
-1.068, -1.264e-4
-1.067, -1.287e-4
-1.066, -1.246e-4
-1.065, -1.322e-4
-1.064, -1.265e-4
-1.063, -1.305e-4
-1.062, -1.330e-4
-1.061, -1.287e-4
-1.060, -1.363e-4
-1.059, -1.315e-4
-1.058, -1.351e-4
-1.057, -1.379e-4
-1.056, -1.336e-4
-1.055, -1.414e-4
-1.054, -1.371e-4
-1.053, -1.402e-4
-1.052, -1.431e-4
-1.051, -1.390e-4
-1.050, -1.470e-4
-1.049, -1.425e-4
-1.048, -1.462e-4
-1.047, -1.488e-4
-1.046, -1.455e-4
-1.045, -1.531e-4
-1.044, -1.488e-4
-1.043, -1.529e-4
-1.042, -1.557e-4
-1.041, -1.524e-4
-1.040, -1.601e-4
-1.039, -1.557e-4
-1.038, -1.606e-4
-1.037, -1.631e-4
-1.036, -1.597e-4
-1.035, -1.682e-4
-1.034, -1.637e-4
-1.033, -1.685e-4
-1.032, -1.711e-4
-1.031, -1.680e-4
-1.030, -1.770e-4
-1.029, -1.722e-4
-1.028, -1.776e-4
-1.027, -1.802e-4
-1.026, -1.769e-4
-1.025, -1.863e-4
-1.024, -1.824e-4
-1.023, -1.875e-4
-1.022, -1.915e-4
-1.021, -1.879e-4
-1.020, -1.978e-4
-1.019, -1.933e-4
-1.018, -1.990e-4
-1.017, -2.029e-4
-1.016, -2.000e-4
-1.015, -2.099e-4
-1.014, -2.062e-4
-1.013, -2.121e-4
-1.012, -2.159e-4
-1.011, -2.142e-4
-1.010, -2.240e-4
-1.009, -2.210e-4
-1.008, -2.271e-4
-1.007, -2.318e-4
-1.006, -2.302e-4
-1.005, -2.401e-4
-1.004, -2.375e-4
-1.003, -2.445e-4
-1.002, -2.493e-4
-1.001, -2.485e-4
