Sept. 7, 2024   12:09:02
Cyclic Voltammetry
File: c:/users/guazh/data/20240903_batch_252_500/2024-09-03-exp288\exp288-2024-09-07t11_49_57-arkoh\exp288_cv_sr_100mvs_efin_-1900mv.bin
Data Source:  Experiment
Instrument Model:  CHI760E
Header: CV ran at 100 mVs
Note: 

Init E (V) = -1
High E (V) = -1
Low E (V) = -1.9
Final E (V) = -1
Init P/N = N
Scan Rate (V/s) = 0.1
Segment = 3
Sample Interval (V) = 0.001
Quiet Time (sec) = 2
Sensitivity (A/V) = 0.01
Comp R (ohm) = 2.1

Results:

Channel 1:
Segment 1:

Segment 2:

Segment 3:

Potential/V, Current/A

-1.000, -6.235e-7
-1.001, -4.558e-7
-1.002, -1.993e-7
-1.003, -1.006e-7
-1.004, -8.090e-8
-1.005, -3.157e-8
-1.006, -8.090e-8
-1.007, 1.657e-7
-1.008, 2.743e-7
-1.009, 3.433e-7
-1.010, 2.348e-7
-1.011, 4.519e-7
-1.012, 5.111e-7
-1.013, 4.913e-7
-1.014, 5.801e-7
-1.015, 5.407e-7
-1.016, 5.407e-7
-1.017, 5.012e-7
-1.018, 5.505e-7
-1.019, 6.393e-7
-1.020, 4.519e-7
-1.021, 6.196e-7
-1.022, 5.801e-7
-1.023, 6.689e-7
-1.024, 7.676e-7
-1.025, 7.676e-7
-1.026, 6.689e-7
-1.027, 7.182e-7
-1.028, 9.649e-7
-1.029, 7.873e-7
-1.030, 8.169e-7
-1.031, 8.366e-7
-1.032, 8.366e-7
-1.033, 8.070e-7
-1.034, 7.873e-7
-1.035, 8.761e-7
-1.036, 9.254e-7
-1.037, 8.958e-7
-1.038, 1.073e-6
-1.039, 9.945e-7
-1.040, 1.004e-6
-1.041, 1.054e-6
-1.042, 1.083e-6
-1.043, 1.152e-6
-1.044, 1.202e-6
-1.045, 1.162e-6
-1.046, 1.152e-6
-1.047, 1.123e-6
-1.048, 1.182e-6
-1.049, 1.054e-6
-1.050, 1.202e-6
-1.051, 1.142e-6
-1.052, 1.202e-6
-1.053, 1.212e-6
-1.054, 1.271e-6
-1.055, 1.261e-6
-1.056, 1.241e-6
-1.057, 1.251e-6
-1.058, 1.172e-6
-1.059, 1.221e-6
-1.060, 1.221e-6
-1.061, 1.241e-6
-1.062, 1.290e-6
-1.063, 1.320e-6
-1.064, 1.281e-6
-1.065, 1.192e-6
-1.066, 1.231e-6
-1.067, 1.281e-6
-1.068, 1.429e-6
-1.069, 1.350e-6
-1.070, 1.389e-6
-1.071, 1.389e-6
-1.072, 1.478e-6
-1.073, 1.340e-6
-1.074, 1.438e-6
-1.075, 1.310e-6
-1.076, 1.517e-6
-1.077, 1.478e-6
-1.078, 1.675e-6
-1.079, 1.448e-6
-1.080, 1.488e-6
-1.081, 1.340e-6
-1.082, 1.468e-6
-1.083, 1.448e-6
-1.084, 1.419e-6
-1.085, 1.409e-6
-1.086, 1.488e-6
-1.087, 1.537e-6
-1.088, 1.596e-6
-1.089, 1.458e-6
-1.090, 1.458e-6
-1.091, 1.537e-6
-1.092, 1.419e-6
-1.093, 1.488e-6
-1.094, 1.527e-6
-1.095, 1.498e-6
-1.096, 1.409e-6
-1.097, 1.577e-6
-1.098, 1.586e-6
-1.099, 1.557e-6
-1.100, 1.508e-6
-1.101, 1.636e-6
-1.102, 1.744e-6
-1.103, 1.705e-6
-1.104, 1.685e-6
-1.105, 1.764e-6
-1.106, 1.596e-6
-1.107, 1.705e-6
-1.108, 1.665e-6
-1.109, 1.577e-6
-1.110, 1.616e-6
-1.111, 1.596e-6
-1.112, 1.577e-6
-1.113, 1.695e-6
-1.114, 1.636e-6
-1.115, 1.577e-6
-1.116, 1.616e-6
-1.117, 1.527e-6
-1.118, 1.606e-6
-1.119, 1.567e-6
-1.120, 1.685e-6
-1.121, 1.527e-6
-1.122, 1.577e-6
-1.123, 1.606e-6
-1.124, 1.675e-6
-1.125, 1.656e-6
-1.126, 1.675e-6
-1.127, 1.823e-6
-1.128, 1.951e-6
-1.129, 1.813e-6
-1.130, 1.754e-6
-1.131, 1.833e-6
-1.132, 1.873e-6
-1.133, 1.754e-6
-1.134, 1.665e-6
-1.135, 1.646e-6
-1.136, 1.813e-6
-1.137, 1.695e-6
-1.138, 1.695e-6
-1.139, 1.725e-6
-1.140, 1.744e-6
-1.141, 1.764e-6
-1.142, 1.813e-6
-1.143, 1.882e-6
-1.144, 1.853e-6
-1.145, 1.646e-6
-1.146, 1.734e-6
-1.147, 1.863e-6
-1.148, 1.813e-6
-1.149, 1.774e-6
-1.150, 1.646e-6
-1.151, 1.705e-6
-1.152, 1.863e-6
-1.153, 1.902e-6
-1.154, 1.912e-6
-1.155, 1.932e-6
-1.156, 1.961e-6
-1.157, 1.843e-6
-1.158, 1.843e-6
-1.159, 1.932e-6
-1.160, 1.873e-6
-1.161, 1.843e-6
-1.162, 1.942e-6
-1.163, 1.882e-6
-1.164, 1.843e-6
-1.165, 1.863e-6
-1.166, 1.892e-6
-1.167, 1.922e-6
-1.168, 1.942e-6
-1.169, 1.902e-6
-1.170, 1.922e-6
-1.171, 1.981e-6
-1.172, 1.882e-6
-1.173, 1.991e-6
-1.174, 1.971e-6
-1.175, 2.001e-6
-1.176, 1.873e-6
-1.177, 1.922e-6
-1.178, 1.961e-6
-1.179, 1.951e-6
-1.180, 1.942e-6
-1.181, 2.001e-6
-1.182, 2.109e-6
-1.183, 2.099e-6
-1.184, 2.149e-6
-1.185, 2.040e-6
-1.186, 2.169e-6
-1.187, 2.030e-6
-1.188, 2.129e-6
-1.189, 2.021e-6
-1.190, 1.951e-6
-1.191, 1.991e-6
-1.192, 2.080e-6
-1.193, 1.961e-6
-1.194, 2.070e-6
-1.195, 2.050e-6
-1.196, 1.991e-6
-1.197, 2.119e-6
-1.198, 2.149e-6
-1.199, 2.021e-6
-1.200, 2.070e-6
-1.201, 2.099e-6
-1.202, 2.090e-6
-1.203, 2.139e-6
-1.204, 2.198e-6
-1.205, 2.159e-6
-1.206, 2.178e-6
-1.207, 2.129e-6
-1.208, 2.099e-6
-1.209, 2.149e-6
-1.210, 2.139e-6
-1.211, 2.070e-6
-1.212, 2.218e-6
-1.213, 2.198e-6
-1.214, 2.129e-6
-1.215, 2.149e-6
-1.216, 2.198e-6
-1.217, 2.317e-6
-1.218, 2.238e-6
-1.219, 2.169e-6
-1.220, 2.297e-6
-1.221, 2.099e-6
-1.222, 2.257e-6
-1.223, 2.228e-6
-1.224, 2.198e-6
-1.225, 2.257e-6
-1.226, 2.297e-6
-1.227, 2.257e-6
-1.228, 2.198e-6
-1.229, 2.376e-6
-1.230, 2.267e-6
-1.231, 2.247e-6
-1.232, 2.386e-6
-1.233, 2.366e-6
-1.234, 2.376e-6
-1.235, 2.326e-6
-1.236, 2.297e-6
-1.237, 2.484e-6
-1.238, 2.356e-6
-1.239, 2.524e-6
-1.240, 2.386e-6
-1.241, 2.336e-6
-1.242, 2.593e-6
-1.243, 2.652e-6
-1.244, 2.405e-6
-1.245, 2.465e-6
-1.246, 2.445e-6
-1.247, 2.553e-6
-1.248, 2.524e-6
-1.249, 2.534e-6
-1.250, 2.494e-6
-1.251, 2.573e-6
-1.252, 2.445e-6
-1.253, 2.435e-6
-1.254, 2.415e-6
-1.255, 2.435e-6
-1.256, 2.484e-6
-1.257, 2.573e-6
-1.258, 2.731e-6
-1.259, 2.514e-6
-1.260, 2.622e-6
-1.261, 2.642e-6
-1.262, 2.790e-6
-1.263, 2.711e-6
-1.264, 2.652e-6
-1.265, 2.593e-6
-1.266, 2.583e-6
-1.267, 2.632e-6
-1.268, 2.622e-6
-1.269, 2.534e-6
-1.270, 2.593e-6
-1.271, 2.613e-6
-1.272, 2.770e-6
-1.273, 2.711e-6
-1.274, 2.652e-6
-1.275, 2.583e-6
-1.276, 2.652e-6
-1.277, 2.770e-6
-1.278, 2.741e-6
-1.279, 2.691e-6
-1.280, 2.790e-6
-1.281, 2.879e-6
-1.282, 2.839e-6
-1.283, 2.751e-6
-1.284, 2.770e-6
-1.285, 2.968e-6
-1.286, 2.859e-6
-1.287, 2.899e-6
-1.288, 2.899e-6
-1.289, 2.928e-6
-1.290, 2.859e-6
-1.291, 2.790e-6
-1.292, 2.958e-6
-1.293, 2.938e-6
-1.294, 2.790e-6
-1.295, 2.908e-6
-1.296, 2.958e-6
-1.297, 2.790e-6
-1.298, 2.928e-6
-1.299, 2.760e-6
-1.300, 2.968e-6
-1.301, 2.928e-6
-1.302, 2.958e-6
-1.303, 2.918e-6
-1.304, 2.928e-6
-1.305, 2.899e-6
-1.306, 2.987e-6
-1.307, 3.066e-6
-1.308, 3.027e-6
-1.309, 2.770e-6
-1.310, 2.948e-6
-1.311, 3.066e-6
-1.312, 3.175e-6
-1.313, 3.116e-6
-1.314, 3.145e-6
-1.315, 3.126e-6
-1.316, 3.135e-6
-1.317, 3.185e-6
-1.318, 3.234e-6
-1.319, 3.165e-6
-1.320, 3.086e-6
-1.321, 3.086e-6
-1.322, 3.204e-6
-1.323, 3.195e-6
-1.324, 3.175e-6
-1.325, 3.264e-6
-1.326, 3.096e-6
-1.327, 3.165e-6
-1.328, 3.195e-6
-1.329, 3.264e-6
-1.330, 3.333e-6
-1.331, 3.116e-6
-1.332, 3.165e-6
-1.333, 3.185e-6
-1.334, 3.343e-6
-1.335, 3.264e-6
-1.336, 3.204e-6
-1.337, 3.283e-6
-1.338, 3.372e-6
-1.339, 3.323e-6
-1.340, 3.481e-6
-1.341, 3.333e-6
-1.342, 3.461e-6
-1.343, 3.461e-6
-1.344, 3.471e-6
-1.345, 3.500e-6
-1.346, 3.510e-6
-1.347, 3.579e-6
-1.348, 3.461e-6
-1.349, 3.500e-6
-1.350, 3.412e-6
-1.351, 3.372e-6
-1.352, 3.303e-6
-1.353, 3.451e-6
-1.354, 3.412e-6
-1.355, 3.402e-6
-1.356, 3.422e-6
-1.357, 3.717e-6
-1.358, 3.589e-6
-1.359, 3.422e-6
-1.360, 3.550e-6
-1.361, 3.589e-6
-1.362, 3.668e-6
-1.363, 3.668e-6
-1.364, 3.589e-6
-1.365, 3.629e-6
-1.366, 3.599e-6
-1.367, 3.570e-6
-1.368, 3.540e-6
-1.369, 3.550e-6
-1.370, 3.698e-6
-1.371, 3.717e-6
-1.372, 3.796e-6
-1.373, 3.787e-6
-1.374, 3.777e-6
-1.375, 3.875e-6
-1.376, 3.787e-6
-1.377, 3.954e-6
-1.378, 3.826e-6
-1.379, 3.737e-6
-1.380, 3.836e-6
-1.381, 3.856e-6
-1.382, 3.865e-6
-1.383, 3.915e-6
-1.384, 3.865e-6
-1.385, 3.905e-6
-1.386, 4.004e-6
-1.387, 3.994e-6
-1.388, 3.994e-6
-1.389, 3.925e-6
-1.390, 3.994e-6
-1.391, 3.885e-6
-1.392, 4.043e-6
-1.393, 4.013e-6
-1.394, 4.043e-6
-1.395, 4.102e-6
-1.396, 4.152e-6
-1.397, 4.329e-6
-1.398, 4.211e-6
-1.399, 4.280e-6
-1.400, 4.122e-6
-1.401, 4.211e-6
-1.402, 4.191e-6
-1.403, 4.379e-6
-1.404, 4.329e-6
-1.405, 4.181e-6
-1.406, 4.309e-6
-1.407, 4.309e-6
-1.408, 4.379e-6
-1.409, 4.369e-6
-1.410, 4.448e-6
-1.411, 4.349e-6
-1.412, 4.457e-6
-1.413, 4.566e-6
-1.414, 4.408e-6
-1.415, 4.448e-6
-1.416, 4.507e-6
-1.417, 4.546e-6
-1.418, 4.546e-6
-1.419, 4.467e-6
-1.420, 4.438e-6
-1.421, 4.596e-6
-1.422, 4.605e-6
-1.423, 4.813e-6
-1.424, 4.783e-6
-1.425, 4.763e-6
-1.426, 4.793e-6
-1.427, 4.763e-6
-1.428, 4.892e-6
-1.429, 4.862e-6
-1.430, 4.862e-6
-1.431, 4.941e-6
-1.432, 4.901e-6
-1.433, 5.020e-6
-1.434, 4.951e-6
-1.435, 5.069e-6
-1.436, 5.069e-6
-1.437, 5.188e-6
-1.438, 5.089e-6
-1.439, 5.286e-6
-1.440, 5.227e-6
-1.441, 5.296e-6
-1.442, 5.385e-6
-1.443, 5.424e-6
-1.444, 5.395e-6
-1.445, 5.296e-6
-1.446, 5.405e-6
-1.447, 5.533e-6
-1.448, 5.572e-6
-1.449, 5.562e-6
-1.450, 5.681e-6
-1.451, 5.730e-6
-1.452, 5.691e-6
-1.453, 5.799e-6
-1.454, 5.799e-6
-1.455, 5.908e-6
-1.456, 5.789e-6
-1.457, 5.918e-6
-1.458, 6.026e-6
-1.459, 5.947e-6
-1.460, 5.967e-6
-1.461, 6.036e-6
-1.462, 6.046e-6
-1.463, 6.135e-6
-1.464, 6.125e-6
-1.465, 6.322e-6
-1.466, 6.342e-6
-1.467, 6.381e-6
-1.468, 6.470e-6
-1.469, 6.510e-6
-1.470, 6.510e-6
-1.471, 6.559e-6
-1.472, 6.815e-6
-1.473, 6.845e-6
-1.474, 6.756e-6
-1.475, 6.756e-6
-1.476, 6.855e-6
-1.477, 6.993e-6
-1.478, 6.855e-6
-1.479, 6.973e-6
-1.480, 7.082e-6
-1.481, 7.062e-6
-1.482, 7.250e-6
-1.483, 7.269e-6
-1.484, 7.358e-6
-1.485, 7.407e-6
-1.486, 7.486e-6
-1.487, 7.595e-6
-1.488, 7.526e-6
-1.489, 7.545e-6
-1.490, 7.772e-6
-1.491, 7.832e-6
-1.492, 7.960e-6
-1.493, 8.078e-6
-1.494, 7.960e-6
-1.495, 8.118e-6
-1.496, 8.325e-6
-1.497, 8.414e-6
-1.498, 8.453e-6
-1.499, 8.463e-6
-1.500, 8.384e-6
-1.501, 8.690e-6
-1.502, 8.749e-6
-1.503, 8.818e-6
-1.504, 8.927e-6
-1.505, 8.779e-6
-1.506, 8.917e-6
-1.507, 9.144e-6
-1.508, 9.351e-6
-1.509, 9.233e-6
-1.510, 9.420e-6
-1.511, 9.637e-6
-1.512, 9.637e-6
-1.513, 9.726e-6
-1.514, 9.874e-6
-1.515, 9.864e-6
-1.516, 1.012e-5
-1.517, 1.015e-5
-1.518, 1.026e-5
-1.519, 1.043e-5
-1.520, 1.042e-5
-1.521, 1.058e-5
-1.522, 1.068e-5
-1.523, 1.080e-5
-1.524, 1.087e-5
-1.525, 1.104e-5
-1.526, 1.119e-5
-1.527, 1.144e-5
-1.528, 1.141e-5
-1.529, 1.160e-5
-1.530, 1.167e-5
-1.531, 1.182e-5
-1.532, 1.193e-5
-1.533, 1.204e-5
-1.534, 1.223e-5
-1.535, 1.223e-5
-1.536, 1.257e-5
-1.537, 1.291e-5
-1.538, 1.299e-5
-1.539, 1.304e-5
-1.540, 1.330e-5
-1.541, 1.343e-5
-1.542, 1.370e-5
-1.543, 1.374e-5
-1.544, 1.383e-5
-1.545, 1.384e-5
-1.546, 1.416e-5
-1.547, 1.446e-5
-1.548, 1.450e-5
-1.549, 1.474e-5
-1.550, 1.494e-5
-1.551, 1.506e-5
-1.552, 1.532e-5
-1.553, 1.556e-5
-1.554, 1.569e-5
-1.555, 1.581e-5
-1.556, 1.622e-5
-1.557, 1.640e-5
-1.558, 1.651e-5
-1.559, 1.679e-5
-1.560, 1.695e-5
-1.561, 1.699e-5
-1.562, 1.738e-5
-1.563, 1.763e-5
-1.564, 1.784e-5
-1.565, 1.812e-5
-1.566, 1.841e-5
-1.567, 1.865e-5
-1.568, 1.887e-5
-1.569, 1.912e-5
-1.570, 1.935e-5
-1.571, 1.981e-5
-1.572, 1.999e-5
-1.573, 2.020e-5
-1.574, 2.050e-5
-1.575, 2.078e-5
-1.576, 2.107e-5
-1.577, 2.165e-5
-1.578, 2.189e-5
-1.579, 2.196e-5
-1.580, 2.226e-5
-1.581, 2.275e-5
-1.582, 2.314e-5
-1.583, 2.333e-5
-1.584, 2.380e-5
-1.585, 2.398e-5
-1.586, 2.435e-5
-1.587, 2.487e-5
-1.588, 2.514e-5
-1.589, 2.564e-5
-1.590, 2.592e-5
-1.591, 2.659e-5
-1.592, 2.698e-5
-1.593, 2.733e-5
-1.594, 2.774e-5
-1.595, 2.816e-5
-1.596, 2.866e-5
-1.597, 2.921e-5
-1.598, 2.943e-5
-1.599, 2.976e-5
-1.600, 3.005e-5
-1.601, 3.074e-5
-1.602, 3.141e-5
-1.603, 3.169e-5
-1.604, 3.217e-5
-1.605, 3.267e-5
-1.606, 3.323e-5
-1.607, 3.393e-5
-1.608, 3.427e-5
-1.609, 3.495e-5
-1.610, 3.548e-5
-1.611, 3.598e-5
-1.612, 3.663e-5
-1.613, 3.730e-5
-1.614, 3.783e-5
-1.615, 3.846e-5
-1.616, 3.910e-5
-1.617, 3.988e-5
-1.618, 4.048e-5
-1.619, 4.119e-5
-1.620, 4.178e-5
-1.621, 4.242e-5
-1.622, 4.329e-5
-1.623, 4.396e-5
-1.624, 4.468e-5
-1.625, 4.540e-5
-1.626, 4.635e-5
-1.627, 4.731e-5
-1.628, 4.801e-5
-1.629, 4.872e-5
-1.630, 4.959e-5
-1.631, 5.032e-5
-1.632, 5.137e-5
-1.633, 5.210e-5
-1.634, 5.307e-5
-1.635, 5.396e-5
-1.636, 5.498e-5
-1.637, 5.609e-5
-1.638, 5.698e-5
-1.639, 5.826e-5
-1.640, 5.917e-5
-1.641, 6.029e-5
-1.642, 6.149e-5
-1.643, 6.232e-5
-1.644, 6.341e-5
-1.645, 6.453e-5
-1.646, 6.573e-5
-1.647, 6.706e-5
-1.648, 6.803e-5
-1.649, 6.936e-5
-1.650, 7.038e-5
-1.651, 7.165e-5
-1.652, 7.304e-5
-1.653, 7.438e-5
-1.654, 7.568e-5
-1.655, 7.705e-5
-1.656, 7.836e-5
-1.657, 7.991e-5
-1.658, 8.141e-5
-1.659, 8.288e-5
-1.660, 8.456e-5
-1.661, 8.609e-5
-1.662, 8.787e-5
-1.663, 8.945e-5
-1.664, 9.118e-5
-1.665, 9.296e-5
-1.666, 9.470e-5
-1.667, 9.645e-5
-1.668, 9.826e-5
-1.669, 1.002e-4
-1.670, 1.017e-4
-1.671, 1.038e-4
-1.672, 1.055e-4
-1.673, 1.075e-4
-1.674, 1.095e-4
-1.675, 1.114e-4
-1.676, 1.136e-4
-1.677, 1.157e-4
-1.678, 1.178e-4
-1.679, 1.202e-4
-1.680, 1.223e-4
-1.681, 1.244e-4
-1.682, 1.271e-4
-1.683, 1.297e-4
-1.684, 1.319e-4
-1.685, 1.342e-4
-1.686, 1.371e-4
-1.687, 1.399e-4
-1.688, 1.426e-4
-1.689, 1.454e-4
-1.690, 1.484e-4
-1.691, 1.513e-4
-1.692, 1.543e-4
-1.693, 1.570e-4
-1.694, 1.601e-4
-1.695, 1.625e-4
-1.696, 1.655e-4
-1.697, 1.685e-4
-1.698, 1.717e-4
-1.699, 1.751e-4
-1.700, 1.789e-4
-1.701, 1.822e-4
-1.702, 1.863e-4
-1.703, 1.900e-4
-1.704, 1.930e-4
-1.705, 1.966e-4
-1.706, 2.007e-4
-1.707, 2.051e-4
-1.708, 2.089e-4
-1.709, 2.126e-4
-1.710, 2.165e-4
-1.711, 2.209e-4
-1.712, 2.255e-4
-1.713, 2.297e-4
-1.714, 2.340e-4
-1.715, 2.387e-4
-1.716, 2.434e-4
-1.717, 2.481e-4
-1.718, 2.531e-4
-1.719, 2.581e-4
-1.720, 2.631e-4
-1.721, 2.679e-4
-1.722, 2.727e-4
-1.723, 2.779e-4
-1.724, 2.831e-4
-1.725, 2.884e-4
-1.726, 2.939e-4
-1.727, 2.998e-4
-1.728, 3.057e-4
-1.729, 3.120e-4
-1.730, 3.182e-4
-1.731, 3.256e-4
-1.732, 3.324e-4
-1.733, 3.388e-4
-1.734, 3.447e-4
-1.735, 3.524e-4
-1.736, 3.590e-4
-1.737, 3.667e-4
-1.738, 3.744e-4
-1.739, 3.822e-4
-1.740, 3.898e-4
-1.741, 3.976e-4
-1.742, 4.055e-4
-1.743, 4.137e-4
-1.744, 4.221e-4
-1.745, 4.306e-4
-1.746, 4.393e-4
-1.747, 4.485e-4
-1.748, 4.577e-4
-1.749, 4.675e-4
-1.750, 4.773e-4
-1.751, 4.847e-4
-1.752, 4.910e-4
-1.753, 5.001e-4
-1.754, 5.089e-4
-1.755, 5.185e-4
-1.756, 5.297e-4
-1.757, 5.405e-4
-1.758, 5.504e-4
-1.759, 5.621e-4
-1.760, 5.778e-4
-1.761, 5.930e-4
-1.762, 6.045e-4
-1.763, 6.170e-4
-1.764, 6.306e-4
-1.765, 6.427e-4
-1.766, 6.544e-4
-1.767, 6.685e-4
-1.768, 6.828e-4
-1.769, 6.969e-4
-1.770, 7.100e-4
-1.771, 7.253e-4
-1.772, 7.402e-4
-1.773, 7.553e-4
-1.774, 7.712e-4
-1.775, 7.870e-4
-1.776, 8.033e-4
-1.777, 8.213e-4
-1.778, 8.401e-4
-1.779, 8.592e-4
-1.780, 8.772e-4
-1.781, 8.911e-4
-1.782, 8.983e-4
-1.783, 9.125e-4
-1.784, 9.284e-4
-1.785, 9.442e-4
-1.786, 9.607e-4
-1.787, 9.782e-4
-1.788, 9.992e-4
-1.789, 1.029e-3
-1.790, 1.051e-3
-1.791, 1.074e-3
-1.792, 1.099e-3
-1.793, 1.125e-3
-1.794, 1.150e-3
-1.795, 1.176e-3
-1.796, 1.200e-3
-1.797, 1.222e-3
-1.798, 1.246e-3
-1.799, 1.272e-3
-1.800, 1.297e-3
-1.801, 1.323e-3
-1.802, 1.351e-3
-1.803, 1.380e-3
-1.804, 1.412e-3
-1.805, 1.443e-3
-1.806, 1.472e-3
-1.807, 1.489e-3
-1.808, 1.496e-3
-1.809, 1.519e-3
-1.810, 1.541e-3
-1.811, 1.566e-3
-1.812, 1.592e-3
-1.813, 1.619e-3
-1.814, 1.645e-3
-1.815, 1.677e-3
-1.816, 1.725e-3
-1.817, 1.777e-3
-1.818, 1.810e-3
-1.819, 1.844e-3
-1.820, 1.888e-3
-1.821, 1.922e-3
-1.822, 1.957e-3
-1.823, 1.995e-3
-1.824, 2.033e-3
-1.825, 2.072e-3
-1.826, 2.111e-3
-1.827, 2.149e-3
-1.828, 2.188e-3
-1.829, 2.231e-3
-1.830, 2.271e-3
-1.831, 2.311e-3
-1.832, 2.354e-3
-1.833, 2.403e-3
-1.834, 2.456e-3
-1.835, 2.505e-3
-1.836, 2.538e-3
-1.837, 2.525e-3
-1.838, 2.530e-3
-1.839, 2.556e-3
-1.840, 2.582e-3
-1.841, 2.607e-3
-1.842, 2.422e-3
-1.843, 1.854e-3
-1.844, 1.684e-3
-1.845, 1.504e-3
-1.846, 2.797e-3
-1.847, 2.889e-3
-1.848, 2.975e-3
-1.849, 3.048e-3
-1.850, 3.123e-3
-1.851, 3.193e-3
-1.852, 3.252e-3
-1.853, 3.310e-3
-1.854, 3.369e-3
-1.855, 3.425e-3
-1.856, 3.478e-3
-1.857, 3.532e-3
-1.858, 3.586e-3
-1.859, 3.643e-3
-1.860, 3.718e-3
-1.861, 3.811e-3
-1.862, 3.889e-3
-1.863, 3.947e-3
-1.864, 3.979e-3
-1.865, 3.912e-3
-1.866, 3.887e-3
-1.867, 3.592e-3
-1.868, 2.492e-3
-1.869, 1.877e-3
-1.870, 1.518e-3
-1.871, 1.300e-3
-1.872, 1.174e-3
-1.873, 1.136e-3
-1.874, 9.574e-4
-1.875, 4.157e-3
-1.876, 4.321e-3
-1.877, 4.424e-3
-1.878, 4.510e-3
-1.879, 4.647e-3
-1.880, 4.755e-3
-1.881, 4.842e-3
-1.882, 4.915e-3
-1.883, 4.984e-3
-1.884, 5.055e-3
-1.885, 5.129e-3
-1.886, 5.198e-3
-1.887, 5.263e-3
-1.888, 5.336e-3
-1.889, 5.422e-3
-1.890, 5.541e-3
-1.891, 5.689e-3
-1.892, 5.766e-3
-1.893, 5.610e-3
-1.894, 5.402e-3
-1.895, 4.633e-3
-1.896, 4.822e-3
-1.897, 5.399e-3
-1.898, 5.532e-3
-1.899, 5.813e-3
-1.900, 5.919e-3
-1.899, 5.899e-3
-1.898, 5.840e-3
-1.897, 5.825e-3
-1.896, 5.778e-3
-1.895, 5.721e-3
-1.894, 5.684e-3
-1.893, 5.682e-3
-1.892, 5.658e-3
-1.891, 5.606e-3
-1.890, 5.544e-3
-1.889, 5.493e-3
-1.888, 5.448e-3
-1.887, 5.422e-3
-1.886, 5.423e-3
-1.885, 5.401e-3
-1.884, 5.351e-3
-1.883, 5.251e-3
-1.882, 5.009e-3
-1.881, 4.663e-3
-1.880, 3.254e-3
-1.879, 2.143e-3
-1.878, 1.741e-3
-1.877, 1.476e-3
-1.876, 1.169e-3
-1.875, 1.070e-3
-1.874, 1.083e-3
-1.873, 1.060e-3
-1.872, 4.083e-3
-1.871, 4.154e-3
-1.870, 4.161e-3
-1.869, 4.165e-3
-1.868, 4.161e-3
-1.867, 4.152e-3
-1.866, 4.115e-3
-1.865, 4.062e-3
-1.864, 4.013e-3
-1.863, 3.967e-3
-1.862, 3.925e-3
-1.861, 3.874e-3
-1.860, 3.834e-3
-1.859, 3.794e-3
-1.858, 3.756e-3
-1.857, 3.715e-3
-1.856, 3.677e-3
-1.855, 3.645e-3
-1.854, 3.618e-3
-1.853, 3.559e-3
-1.852, 3.407e-3
-1.851, 3.298e-3
-1.850, 3.224e-3
-1.849, 2.876e-3
-1.848, 1.879e-3
-1.847, 1.442e-3
-1.846, 1.161e-3
-1.845, 9.742e-4
-1.844, 1.280e-3
-1.843, 2.851e-3
-1.842, 2.875e-3
-1.841, 2.875e-3
-1.840, 2.864e-3
-1.839, 2.851e-3
-1.838, 2.834e-3
-1.837, 2.808e-3
-1.836, 2.776e-3
-1.835, 2.740e-3
-1.834, 2.703e-3
-1.833, 2.667e-3
-1.832, 2.634e-3
-1.831, 2.602e-3
-1.830, 2.571e-3
-1.829, 2.546e-3
-1.828, 2.520e-3
-1.827, 2.489e-3
-1.826, 2.443e-3
-1.825, 2.357e-3
-1.824, 2.303e-3
-1.823, 2.261e-3
-1.822, 2.218e-3
-1.821, 2.177e-3
-1.820, 1.781e-3
-1.819, 1.492e-3
-1.818, 1.399e-3
-1.817, 1.111e-3
-1.816, 1.632e-3
-1.815, 1.978e-3
-1.814, 1.967e-3
-1.813, 1.953e-3
-1.812, 1.935e-3
-1.811, 1.914e-3
-1.810, 1.894e-3
-1.809, 1.872e-3
-1.808, 1.845e-3
-1.807, 1.818e-3
-1.806, 1.792e-3
-1.805, 1.766e-3
-1.804, 1.739e-3
-1.803, 1.714e-3
-1.802, 1.691e-3
-1.801, 1.669e-3
-1.800, 1.648e-3
-1.799, 1.627e-3
-1.798, 1.600e-3
-1.797, 1.575e-3
-1.796, 1.534e-3
-1.795, 1.489e-3
-1.794, 1.455e-3
-1.793, 1.425e-3
-1.792, 1.401e-3
-1.791, 1.377e-3
-1.790, 1.357e-3
-1.789, 1.356e-3
-1.788, 1.340e-3
-1.787, 1.321e-3
-1.786, 1.302e-3
-1.785, 1.281e-3
-1.784, 1.262e-3
-1.783, 1.241e-3
-1.782, 1.221e-3
-1.781, 1.205e-3
-1.780, 1.187e-3
-1.779, 1.168e-3
-1.778, 1.150e-3
-1.777, 1.134e-3
-1.776, 1.118e-3
-1.775, 1.097e-3
-1.774, 1.081e-3
-1.773, 1.065e-3
-1.772, 1.048e-3
-1.771, 1.031e-3
-1.770, 1.009e-3
-1.769, 9.824e-4
-1.768, 9.623e-4
-1.767, 9.455e-4
-1.766, 9.294e-4
-1.765, 9.142e-4
-1.764, 8.983e-4
-1.763, 8.845e-4
-1.762, 8.753e-4
-1.761, 8.656e-4
-1.760, 8.539e-4
-1.759, 8.430e-4
-1.758, 8.294e-4
-1.757, 8.167e-4
-1.756, 8.044e-4
-1.755, 7.911e-4
-1.754, 7.783e-4
-1.753, 7.671e-4
-1.752, 7.551e-4
-1.751, 7.425e-4
-1.750, 7.304e-4
-1.749, 7.176e-4
-1.748, 7.056e-4
-1.747, 6.947e-4
-1.746, 6.853e-4
-1.745, 6.742e-4
-1.744, 6.627e-4
-1.743, 6.514e-4
-1.742, 6.396e-4
-1.741, 6.247e-4
-1.740, 6.128e-4
-1.739, 6.021e-4
-1.738, 5.918e-4
-1.737, 5.821e-4
-1.736, 5.723e-4
-1.735, 5.624e-4
-1.734, 5.563e-4
-1.733, 5.493e-4
-1.732, 5.405e-4
-1.731, 5.334e-4
-1.730, 5.243e-4
-1.729, 5.163e-4
-1.728, 5.082e-4
-1.727, 4.999e-4
-1.726, 4.916e-4
-1.725, 4.838e-4
-1.724, 4.760e-4
-1.723, 4.683e-4
-1.722, 4.609e-4
-1.721, 4.538e-4
-1.720, 4.454e-4
-1.719, 4.387e-4
-1.718, 4.313e-4
-1.717, 4.241e-4
-1.716, 4.170e-4
-1.715, 4.084e-4
-1.714, 4.013e-4
-1.713, 3.946e-4
-1.712, 3.876e-4
-1.711, 3.812e-4
-1.710, 3.751e-4
-1.709, 3.693e-4
-1.708, 3.629e-4
-1.707, 3.561e-4
-1.706, 3.508e-4
-1.705, 3.457e-4
-1.704, 3.401e-4
-1.703, 3.352e-4
-1.702, 3.305e-4
-1.701, 3.248e-4
-1.700, 3.191e-4
-1.699, 3.136e-4
-1.698, 3.080e-4
-1.697, 3.031e-4
-1.696, 2.982e-4
-1.695, 2.932e-4
-1.694, 2.885e-4
-1.693, 2.841e-4
-1.692, 2.793e-4
-1.691, 2.750e-4
-1.690, 2.704e-4
-1.689, 2.661e-4
-1.688, 2.616e-4
-1.687, 2.560e-4
-1.686, 2.505e-4
-1.685, 2.465e-4
-1.684, 2.424e-4
-1.683, 2.383e-4
-1.682, 2.343e-4
-1.681, 2.304e-4
-1.680, 2.267e-4
-1.679, 2.231e-4
-1.678, 2.200e-4
-1.677, 2.167e-4
-1.676, 2.131e-4
-1.675, 2.097e-4
-1.674, 2.065e-4
-1.673, 2.034e-4
-1.672, 2.003e-4
-1.671, 1.975e-4
-1.670, 1.943e-4
-1.669, 1.909e-4
-1.668, 1.883e-4
-1.667, 1.853e-4
-1.666, 1.821e-4
-1.665, 1.792e-4
-1.664, 1.762e-4
-1.663, 1.733e-4
-1.662, 1.705e-4
-1.661, 1.679e-4
-1.660, 1.651e-4
-1.659, 1.623e-4
-1.658, 1.594e-4
-1.657, 1.561e-4
-1.656, 1.534e-4
-1.655, 1.509e-4
-1.654, 1.482e-4
-1.653, 1.461e-4
-1.652, 1.435e-4
-1.651, 1.411e-4
-1.650, 1.390e-4
-1.649, 1.370e-4
-1.648, 1.345e-4
-1.647, 1.320e-4
-1.646, 1.301e-4
-1.645, 1.281e-4
-1.644, 1.259e-4
-1.643, 1.239e-4
-1.642, 1.218e-4
-1.641, 1.199e-4
-1.640, 1.180e-4
-1.639, 1.159e-4
-1.638, 1.141e-4
-1.637, 1.121e-4
-1.636, 1.101e-4
-1.635, 1.083e-4
-1.634, 1.066e-4
-1.633, 1.049e-4
-1.632, 1.032e-4
-1.631, 1.013e-4
-1.630, 9.937e-5
-1.629, 9.721e-5
-1.628, 9.582e-5
-1.627, 9.419e-5
-1.626, 9.243e-5
-1.625, 9.084e-5
-1.624, 8.932e-5
-1.623, 8.799e-5
-1.622, 8.671e-5
-1.621, 8.536e-5
-1.620, 8.395e-5
-1.619, 8.240e-5
-1.618, 8.092e-5
-1.617, 7.927e-5
-1.616, 7.811e-5
-1.615, 7.683e-5
-1.614, 7.558e-5
-1.613, 7.433e-5
-1.612, 7.291e-5
-1.611, 7.180e-5
-1.610, 7.059e-5
-1.609, 6.928e-5
-1.608, 6.833e-5
-1.607, 6.699e-5
-1.606, 6.590e-5
-1.605, 6.487e-5
-1.604, 6.352e-5
-1.603, 6.251e-5
-1.602, 6.130e-5
-1.601, 6.027e-5
-1.600, 5.915e-5
-1.599, 5.807e-5
-1.598, 5.726e-5
-1.597, 5.626e-5
-1.596, 5.526e-5
-1.595, 5.442e-5
-1.594, 5.371e-5
-1.593, 5.283e-5
-1.592, 5.176e-5
-1.591, 5.086e-5
-1.590, 5.002e-5
-1.589, 4.907e-5
-1.588, 4.836e-5
-1.587, 4.726e-5
-1.586, 4.663e-5
-1.585, 4.590e-5
-1.584, 4.497e-5
-1.583, 4.414e-5
-1.582, 4.344e-5
-1.581, 4.267e-5
-1.580, 4.190e-5
-1.579, 4.118e-5
-1.578, 4.070e-5
-1.577, 3.960e-5
-1.576, 3.878e-5
-1.575, 3.817e-5
-1.574, 3.738e-5
-1.573, 3.697e-5
-1.572, 3.619e-5
-1.571, 3.537e-5
-1.570, 3.481e-5
-1.569, 3.422e-5
-1.568, 3.376e-5
-1.567, 3.298e-5
-1.566, 3.233e-5
-1.565, 3.193e-5
-1.564, 3.131e-5
-1.563, 3.089e-5
-1.562, 3.013e-5
-1.561, 2.952e-5
-1.560, 2.897e-5
-1.559, 2.845e-5
-1.558, 2.809e-5
-1.557, 2.743e-5
-1.556, 2.691e-5
-1.555, 2.637e-5
-1.554, 2.596e-5
-1.553, 2.543e-5
-1.552, 2.506e-5
-1.551, 2.456e-5
-1.550, 2.407e-5
-1.549, 2.346e-5
-1.548, 2.328e-5
-1.547, 2.266e-5
-1.546, 2.228e-5
-1.545, 2.184e-5
-1.544, 2.141e-5
-1.543, 2.074e-5
-1.542, 2.025e-5
-1.541, 1.975e-5
-1.540, 1.937e-5
-1.539, 1.892e-5
-1.538, 1.880e-5
-1.537, 1.860e-5
-1.536, 1.827e-5
-1.535, 1.788e-5
-1.534, 1.744e-5
-1.533, 1.726e-5
-1.532, 1.693e-5
-1.531, 1.648e-5
-1.530, 1.617e-5
-1.529, 1.585e-5
-1.528, 1.575e-5
-1.527, 1.524e-5
-1.526, 1.491e-5
-1.525, 1.467e-5
-1.524, 1.429e-5
-1.523, 1.412e-5
-1.522, 1.362e-5
-1.521, 1.333e-5
-1.520, 1.292e-5
-1.519, 1.251e-5
-1.518, 1.227e-5
-1.517, 1.195e-5
-1.516, 1.177e-5
-1.515, 1.140e-5
-1.514, 1.127e-5
-1.513, 1.119e-5
-1.512, 1.089e-5
-1.511, 1.075e-5
-1.510, 1.056e-5
-1.509, 1.032e-5
-1.508, 1.008e-5
-1.507, 9.884e-6
-1.506, 9.647e-6
-1.505, 9.440e-6
-1.504, 9.114e-6
-1.503, 8.986e-6
-1.502, 8.660e-6
-1.501, 8.650e-6
-1.500, 8.394e-6
-1.499, 8.108e-6
-1.498, 8.049e-6
-1.497, 7.723e-6
-1.496, 7.634e-6
-1.495, 7.545e-6
-1.494, 7.141e-6
-1.493, 6.894e-6
-1.492, 6.460e-6
-1.491, 6.401e-6
-1.490, 6.145e-6
-1.489, 5.947e-6
-1.488, 5.918e-6
-1.487, 5.671e-6
-1.486, 5.631e-6
-1.485, 5.375e-6
-1.484, 5.306e-6
-1.483, 5.405e-6
-1.482, 5.158e-6
-1.481, 5.069e-6
-1.480, 5.010e-6
-1.479, 4.822e-6
-1.478, 4.714e-6
-1.477, 4.566e-6
-1.476, 4.349e-6
-1.475, 4.379e-6
-1.474, 4.132e-6
-1.473, 4.112e-6
-1.472, 3.816e-6
-1.471, 3.698e-6
-1.470, 3.757e-6
-1.469, 3.589e-6
-1.468, 3.402e-6
-1.467, 3.372e-6
-1.466, 3.116e-6
-1.465, 3.056e-6
-1.464, 2.889e-6
-1.463, 2.800e-6
-1.462, 2.356e-6
-1.461, 2.484e-6
-1.460, 2.326e-6
-1.459, 2.198e-6
-1.458, 2.376e-6
-1.457, 2.178e-6
-1.456, 2.001e-6
-1.455, 2.011e-6
-1.454, 1.961e-6
-1.453, 1.764e-6
-1.452, 1.705e-6
-1.451, 1.685e-6
-1.450, 1.616e-6
-1.449, 1.557e-6
-1.448, 1.596e-6
-1.447, 1.330e-6
-1.446, 1.281e-6
-1.445, 1.310e-6
-1.444, 1.093e-6
-1.443, 1.103e-6
-1.442, 8.662e-7
-1.441, 9.156e-7
-1.440, 8.860e-7
-1.439, 6.097e-7
-1.438, 6.196e-7
-1.437, 3.335e-7
-1.436, 3.335e-7
-1.435, 3.335e-7
-1.434, 1.559e-7
-1.433, 1.263e-7
-1.432, 7.893e-9
-1.431, 2.052e-7
-1.430, 1.756e-7
-1.429, 6.709e-8
-1.428, 1.559e-7
-1.427, -2.190e-7
-1.426, -9.077e-8
-1.425, -8.090e-8
-1.424, -1.894e-7
-1.423, -2.092e-7
-1.422, -3.078e-7
-1.421, -4.065e-7
-1.420, -4.459e-7
-1.419, -4.065e-7
-1.418, -3.769e-7
-1.417, -4.361e-7
-1.416, -5.051e-7
-1.415, -5.939e-7
-1.414, -6.433e-7
-1.413, -5.545e-7
-1.412, -8.603e-7
-1.411, -9.491e-7
-1.410, -9.392e-7
-1.409, -1.107e-6
-1.408, -9.392e-7
-1.407, -1.137e-6
-1.406, -1.225e-6
-1.405, -1.206e-6
-1.404, -1.225e-6
-1.403, -1.018e-6
-1.402, -1.166e-6
-1.401, -1.235e-6
-1.400, -1.275e-6
-1.399, -1.186e-6
-1.398, -1.166e-6
-1.397, -1.344e-6
-1.396, -1.373e-6
-1.395, -1.433e-6
-1.394, -1.502e-6
-1.393, -1.423e-6
-1.392, -1.571e-6
-1.391, -1.492e-6
-1.390, -1.551e-6
-1.389, -1.561e-6
-1.388, -1.561e-6
-1.387, -1.600e-6
-1.386, -1.807e-6
-1.385, -1.817e-6
-1.384, -1.936e-6
-1.383, -1.867e-6
-1.382, -2.044e-6
-1.381, -2.015e-6
-1.380, -2.015e-6
-1.379, -1.995e-6
-1.378, -1.896e-6
-1.377, -2.005e-6
-1.376, -1.926e-6
-1.375, -2.015e-6
-1.374, -2.024e-6
-1.373, -1.867e-6
-1.372, -1.896e-6
-1.371, -2.024e-6
-1.370, -1.995e-6
-1.369, -1.985e-6
-1.368, -1.946e-6
-1.367, -2.074e-6
-1.366, -2.123e-6
-1.365, -2.123e-6
-1.364, -2.113e-6
-1.363, -2.103e-6
-1.362, -2.212e-6
-1.361, -2.182e-6
-1.360, -2.212e-6
-1.359, -2.192e-6
-1.358, -2.163e-6
-1.357, -2.370e-6
-1.356, -2.380e-6
-1.355, -2.577e-6
-1.354, -2.488e-6
-1.353, -2.360e-6
-1.352, -2.478e-6
-1.351, -2.607e-6
-1.350, -2.735e-6
-1.349, -2.439e-6
-1.348, -2.261e-6
-1.347, -2.439e-6
-1.346, -2.380e-6
-1.345, -2.409e-6
-1.344, -2.419e-6
-1.343, -2.360e-6
-1.342, -2.547e-6
-1.341, -2.597e-6
-1.340, -2.518e-6
-1.339, -2.449e-6
-1.338, -2.390e-6
-1.337, -2.616e-6
-1.336, -2.538e-6
-1.335, -2.478e-6
-1.334, -2.587e-6
-1.333, -2.439e-6
-1.332, -2.646e-6
-1.331, -2.764e-6
-1.330, -2.755e-6
-1.329, -2.755e-6
-1.328, -2.814e-6
-1.327, -2.922e-6
-1.326, -2.922e-6
-1.325, -2.942e-6
-1.324, -3.011e-6
-1.323, -2.932e-6
-1.322, -2.981e-6
-1.321, -2.893e-6
-1.320, -2.814e-6
-1.319, -2.784e-6
-1.318, -2.676e-6
-1.317, -2.843e-6
-1.316, -2.834e-6
-1.315, -2.794e-6
-1.314, -2.804e-6
-1.313, -2.676e-6
-1.312, -2.843e-6
-1.311, -2.873e-6
-1.310, -2.804e-6
-1.309, -2.784e-6
-1.308, -2.834e-6
-1.307, -2.883e-6
-1.306, -3.011e-6
-1.305, -2.834e-6
-1.304, -3.021e-6
-1.303, -2.843e-6
-1.302, -3.011e-6
-1.301, -2.952e-6
-1.300, -3.011e-6
-1.299, -3.100e-6
-1.298, -3.090e-6
-1.297, -3.159e-6
-1.296, -3.139e-6
-1.295, -3.248e-6
-1.294, -3.139e-6
-1.293, -3.100e-6
-1.292, -3.297e-6
-1.291, -3.258e-6
-1.290, -3.169e-6
-1.289, -3.208e-6
-1.288, -3.051e-6
-1.287, -3.149e-6
-1.286, -3.041e-6
-1.285, -3.060e-6
-1.284, -3.021e-6
-1.283, -2.962e-6
-1.282, -3.051e-6
-1.281, -3.120e-6
-1.280, -3.110e-6
-1.279, -3.169e-6
-1.278, -3.080e-6
-1.277, -3.208e-6
-1.276, -3.248e-6
-1.275, -3.110e-6
-1.274, -3.199e-6
-1.273, -3.149e-6
-1.272, -3.238e-6
-1.271, -3.159e-6
-1.270, -3.169e-6
-1.269, -3.199e-6
-1.268, -3.070e-6
-1.267, -3.179e-6
-1.266, -3.485e-6
-1.265, -3.495e-6
-1.264, -3.455e-6
-1.263, -3.435e-6
-1.262, -3.307e-6
-1.261, -3.425e-6
-1.260, -3.425e-6
-1.259, -3.406e-6
-1.258, -3.179e-6
-1.257, -3.396e-6
-1.256, -3.347e-6
-1.255, -3.317e-6
-1.254, -3.258e-6
-1.253, -3.297e-6
-1.252, -3.356e-6
-1.251, -3.416e-6
-1.250, -3.396e-6
-1.249, -3.327e-6
-1.248, -3.337e-6
-1.247, -3.337e-6
-1.246, -3.238e-6
-1.245, -3.406e-6
-1.244, -3.356e-6
-1.243, -3.277e-6
-1.242, -3.485e-6
-1.241, -3.495e-6
-1.240, -3.406e-6
-1.239, -3.455e-6
-1.238, -3.465e-6
-1.237, -3.573e-6
-1.236, -3.593e-6
-1.235, -3.524e-6
-1.234, -3.583e-6
-1.233, -3.495e-6
-1.232, -3.652e-6
-1.231, -3.573e-6
-1.230, -3.544e-6
-1.229, -3.564e-6
-1.228, -3.416e-6
-1.227, -3.603e-6
-1.226, -3.583e-6
-1.225, -3.583e-6
-1.224, -3.583e-6
-1.223, -3.445e-6
-1.222, -3.652e-6
-1.221, -3.623e-6
-1.220, -3.623e-6
-1.219, -3.583e-6
-1.218, -3.534e-6
-1.217, -3.534e-6
-1.216, -3.623e-6
-1.215, -3.593e-6
-1.214, -3.712e-6
-1.213, -3.583e-6
-1.212, -3.643e-6
-1.211, -3.929e-6
-1.210, -3.810e-6
-1.209, -3.840e-6
-1.208, -3.731e-6
-1.207, -3.840e-6
-1.206, -3.919e-6
-1.205, -3.840e-6
-1.204, -3.781e-6
-1.203, -3.761e-6
-1.202, -3.830e-6
-1.201, -3.879e-6
-1.200, -3.633e-6
-1.199, -3.721e-6
-1.198, -3.652e-6
-1.197, -3.761e-6
-1.196, -3.712e-6
-1.195, -3.790e-6
-1.194, -3.741e-6
-1.193, -3.712e-6
-1.192, -3.810e-6
-1.191, -3.830e-6
-1.190, -3.771e-6
-1.189, -3.721e-6
-1.188, -3.682e-6
-1.187, -3.781e-6
-1.186, -3.721e-6
-1.185, -3.899e-6
-1.184, -3.850e-6
-1.183, -3.889e-6
-1.182, -4.047e-6
-1.181, -3.958e-6
-1.180, -3.938e-6
-1.179, -4.077e-6
-1.178, -3.919e-6
-1.177, -4.156e-6
-1.176, -4.106e-6
-1.175, -4.047e-6
-1.174, -4.037e-6
-1.173, -3.938e-6
-1.172, -4.175e-6
-1.171, -4.116e-6
-1.170, -3.929e-6
-1.169, -3.988e-6
-1.168, -3.909e-6
-1.167, -3.968e-6
-1.166, -3.919e-6
-1.165, -3.998e-6
-1.164, -4.008e-6
-1.163, -3.869e-6
-1.162, -3.998e-6
-1.161, -3.790e-6
-1.160, -4.067e-6
-1.159, -3.998e-6
-1.158, -3.919e-6
-1.157, -4.027e-6
-1.156, -3.919e-6
-1.155, -3.998e-6
-1.154, -3.978e-6
-1.153, -3.879e-6
-1.152, -4.205e-6
-1.151, -4.175e-6
-1.150, -4.274e-6
-1.149, -4.234e-6
-1.148, -4.264e-6
-1.147, -4.294e-6
-1.146, -4.264e-6
-1.145, -4.323e-6
-1.144, -4.264e-6
-1.143, -4.096e-6
-1.142, -4.195e-6
-1.141, -4.156e-6
-1.140, -4.096e-6
-1.139, -4.205e-6
-1.138, -3.998e-6
-1.137, -4.195e-6
-1.136, -4.254e-6
-1.135, -4.126e-6
-1.134, -4.225e-6
-1.133, -4.086e-6
-1.132, -4.205e-6
-1.131, -4.205e-6
-1.130, -4.175e-6
-1.129, -4.254e-6
-1.128, -4.106e-6
-1.127, -4.215e-6
-1.126, -4.294e-6
-1.125, -4.304e-6
-1.124, -4.294e-6
-1.123, -4.146e-6
-1.122, -4.205e-6
-1.121, -4.274e-6
-1.120, -4.363e-6
-1.119, -4.294e-6
-1.118, -4.175e-6
-1.117, -4.422e-6
-1.116, -4.294e-6
-1.115, -4.313e-6
-1.114, -4.382e-6
-1.113, -4.215e-6
-1.112, -4.353e-6
-1.111, -4.461e-6
-1.110, -4.432e-6
-1.109, -4.363e-6
-1.108, -4.304e-6
-1.107, -4.521e-6
-1.106, -4.432e-6
-1.105, -4.382e-6
-1.104, -4.412e-6
-1.103, -4.382e-6
-1.102, -4.442e-6
-1.101, -4.600e-6
-1.100, -4.600e-6
-1.099, -4.609e-6
-1.098, -4.422e-6
-1.097, -4.540e-6
-1.096, -4.669e-6
-1.095, -4.619e-6
-1.094, -4.678e-6
-1.093, -4.787e-6
-1.092, -4.935e-6
-1.091, -4.925e-6
-1.090, -4.659e-6
-1.089, -4.807e-6
-1.088, -4.698e-6
-1.087, -4.757e-6
-1.086, -4.826e-6
-1.085, -4.678e-6
-1.084, -4.747e-6
-1.083, -4.797e-6
-1.082, -4.698e-6
-1.081, -4.787e-6
-1.080, -4.846e-6
-1.079, -4.757e-6
-1.078, -4.836e-6
-1.077, -5.004e-6
-1.076, -4.905e-6
-1.075, -4.905e-6
-1.074, -4.965e-6
-1.073, -4.846e-6
-1.072, -5.211e-6
-1.071, -5.270e-6
-1.070, -5.310e-6
-1.069, -5.241e-6
-1.068, -5.261e-6
-1.067, -5.418e-6
-1.066, -5.320e-6
-1.065, -5.330e-6
-1.064, -5.369e-6
-1.063, -5.320e-6
-1.062, -5.448e-6
-1.061, -5.290e-6
-1.060, -5.270e-6
-1.059, -5.359e-6
-1.058, -5.290e-6
-1.057, -5.241e-6
-1.056, -5.369e-6
-1.055, -5.330e-6
-1.054, -5.448e-6
-1.053, -5.310e-6
-1.052, -5.517e-6
-1.051, -5.300e-6
-1.050, -5.576e-6
-1.049, -5.527e-6
-1.048, -5.576e-6
-1.047, -5.635e-6
-1.046, -5.714e-6
-1.045, -5.645e-6
-1.044, -5.606e-6
-1.043, -5.793e-6
-1.042, -5.961e-6
-1.041, -5.941e-6
-1.040, -6.040e-6
-1.039, -5.981e-6
-1.038, -6.040e-6
-1.037, -6.070e-6
-1.036, -6.257e-6
-1.035, -6.188e-6
-1.034, -6.119e-6
-1.033, -6.060e-6
-1.032, -6.109e-6
-1.031, -6.109e-6
-1.030, -6.099e-6
-1.029, -6.070e-6
-1.028, -6.099e-6
-1.027, -6.148e-6
-1.026, -6.247e-6
-1.025, -6.247e-6
-1.024, -6.336e-6
-1.023, -6.277e-6
-1.022, -6.415e-6
-1.021, -6.385e-6
-1.020, -6.533e-6
-1.019, -6.415e-6
-1.018, -6.356e-6
-1.017, -6.504e-6
-1.016, -6.583e-6
-1.015, -6.612e-6
-1.014, -6.543e-6
-1.013, -6.622e-6
-1.012, -6.809e-6
-1.011, -6.869e-6
-1.010, -6.888e-6
-1.009, -6.879e-6
-1.008, -6.879e-6
-1.007, -7.076e-6
-1.006, -7.007e-6
-1.005, -6.997e-6
-1.004, -6.967e-6
-1.003, -6.898e-6
-1.002, -6.977e-6
-1.001, -6.888e-6
