Potential V vs RHE, Current mA cm-2
0.013299999999999867,0.2420571034069078
0.012299999999999978,-0.06878326339943809
0.011299999999999866,-0.22748557701829786
0.010299999999999976,-0.3260909546188909
0.009299999999999864,-0.40262683594158943
0.008299999999999974,-0.4552540962965688
0.007299999999999862,-0.49529042608274926
0.006299999999999972,-0.5276873148496587
0.00529999999999986,-0.5520203492073373
0.0042999999999999705,-0.5841342957142737
0.0032999999999998586,-0.6122870505815878
0.0022999999999999687,-0.6313856531297658
0.0012999999999998568,-0.6513330824578628
0.00029999999999996696,-0.6633581285067156
-0.000700000000000145,-0.6818908465349477
-0.0017000000000000348,-0.7028285737729503
-0.0027000000000001467,-0.7096191880123024
-0.0037000000000000366,-0.7203709938912767
-0.0047000000000001485,-0.7309813286402644
-0.005700000000000038,-0.7437137303390498
-0.00670000000000015,-0.7568705454277946
-0.00770000000000004,-0.7626708617572412
-0.008700000000000152,-0.7694614759965934
-0.009700000000000042,-0.7787985705757027
-0.010700000000000154,-0.7905406743645824
-0.011700000000000044,-0.7998777689436917
-0.012700000000000156,-0.8007265957236107
-0.013700000000000045,-0.8056780852731383
-0.014700000000000157,-0.8157225355021802
-0.015700000000000047,-0.824352274431357
-0.01670000000000016,-0.8338308401404527
-0.01770000000000005,-0.8326990711005606
-0.01870000000000016,-0.827181697031087
-0.01970000000000005,-0.8343967246603987
-0.020700000000000163,-0.8427435213296024
-0.021700000000000053,-0.8469876552291975
-0.022700000000000164,-0.8481194242690895
-0.023700000000000054,-0.848543837659049
-0.024700000000000166,-0.8532123849486036
-0.025700000000000056,-0.8618421238777804
-0.026700000000000168,-0.8611347682278478
-0.027700000000000058,-0.863681248567605
-0.02870000000000017,-0.8615591816178074
-0.02970000000000006,-0.8658033155174024
-0.03070000000000017,-0.8717451029768355
-0.03170000000000006,-0.8749989389665251
-0.03270000000000017,-0.8774039481762959
-0.03370000000000006,-0.8724524586267681
-0.034700000000000175,-0.8718865741068222
-0.035700000000000065,-0.8815066109459044
-0.03670000000000018,-0.8877313406653105
-0.03770000000000007,-0.8865995716254184
-0.03870000000000018,-0.8837701490256885
-0.03970000000000007,-0.8824969088558098
-0.04070000000000018,-0.8857507448454994
-0.04170000000000007,-0.8936731281247438
-0.04270000000000018,-0.8960781373345142
-0.04370000000000007,-0.8960781373345142
-0.044700000000000184,-0.8946634260346491
-0.045700000000000074,-0.8994734444541903
-0.046700000000000186,-0.904424934003718
-0.047700000000000076,-0.9006052134940823
-0.04870000000000019,-0.9004637423640959
-0.04970000000000008,-0.9048493473936775
-0.05070000000000019,-0.9021613959239337
-0.05170000000000008,-0.9103667214631512
-0.05270000000000019,-0.909800836943205
-0.05370000000000008,-0.9059811164335695
-0.05470000000000019,-0.9081031833833669
-0.05570000000000008,-0.9127717306729216
-0.056700000000000195,-0.9168743934425302
-0.057700000000000085,-0.9177232202224491
-0.058700000000000196,-0.9148937976227193
-0.059700000000000086,-0.9147523264927326
-0.0607000000000002,-0.9187135181323548
-0.06170000000000009,-0.9253626612417204
-0.0627000000000002,-0.9277676704514911
-0.06370000000000009,-0.9232405942919228
-0.0647000000000002,-0.9212599984721118
-0.06570000000000009,-0.9304556219212347
-0.0667000000000002,-0.9322947466110592
-0.0677000000000001,-0.9301726796612616
-0.0687000000000002,-0.9308800353111941
-0.0697000000000001,-0.9297482662713021
-0.07070000000000021,-0.9395097742403707
-0.0717000000000001,-0.9412074278002089
-0.07270000000000021,-0.9402171298903033
-0.0737000000000001,-0.9388024185904382
-0.07470000000000021,-0.9402171298903033
-0.0757000000000001,-0.949129811079453
-0.07670000000000021,-0.9525251181991291
-0.0777000000000001,-0.9502615801193451
-0.07870000000000021,-0.9494127533394261
-0.0797000000000001,-0.948280984299534
-0.08070000000000022,-0.9586083767885488
-0.0817000000000001,-0.9672381157177256
-0.08270000000000022,-0.9668137023277661
-0.08370000000000011,-0.96341839520809
-0.08470000000000022,-0.965398991027901
-0.08570000000000011,-0.9764337391668484
-0.08670000000000022,-0.98364876679616
-0.08770000000000011,-0.9826584688862544
-0.08870000000000022,-0.9813852287163759
-0.08970000000000011,-0.9853464203559981
-0.09070000000000022,-0.9919955634653637
-0.09170000000000011,-0.9979373509247967
-0.09270000000000023,-0.9994935333546484
-0.09370000000000012,-0.9977958797948104
-0.09470000000000023,-1.0028888404743244
-0.09570000000000012,-1.0116600505334876
-0.09670000000000023,-1.014772415393191
-0.09770000000000012,-1.01562124217311
-0.09870000000000023,-1.0157627133030962
-0.09970000000000012,-1.0234021543223675
-0.10070000000000023,-1.0318904221215577
-0.10170000000000012,-1.037549267321018
-0.10270000000000024,-1.038398094100937
-0.10370000000000013,-1.037266325061045
-0.10470000000000024,-1.0430666413904914
-0.10570000000000013,-1.0580625811690607
-0.10670000000000024,-1.0627311284586156
-0.10770000000000013,-1.065136137668386
-0.10870000000000024,-1.0672582046181838
-0.10970000000000013,-1.0731999920776167
-0.11070000000000024,-1.0845176824765372
-0.11170000000000013,-1.0893277008960784
-0.11270000000000002,-1.0920156523658218
-0.11370000000000013,-1.098240382085228
-0.11470000000000002,-1.103899227284688
-0.11570000000000014,-1.1126704373438514
-0.11670000000000003,-1.118753695933271
-0.11770000000000014,-1.1188951670632574
-0.11870000000000003,-1.1271004926024746
-0.11970000000000014,-1.137852298481449
-0.12070000000000003,-1.1439355570708687
-0.12170000000000014,-1.1495944022703288
-0.12270000000000003,-1.1556776608597483
-0.12370000000000014,-1.1624682750991004
-0.12470000000000003,-1.1689759470784797
-0.12570000000000014,-1.177747157137643
-0.12670000000000003,-1.190055145446469
-0.12770000000000015,-1.1910454433563744
-0.12870000000000004,-1.1950066349959965
-0.12970000000000015,-1.208587863474701
-0.13070000000000004,-1.2183493714437694
-0.13170000000000015,-1.2264132258530003
-0.13270000000000004,-1.2305158886226089
-0.13370000000000015,-1.236174733822069
-0.13470000000000004,-1.2465021263110838
-0.13570000000000015,-1.2573954033200445
-0.13670000000000004,-1.2664495556391808
-0.13770000000000016,-1.2716839874486814
-0.13870000000000005,-1.2781916594280607
-0.13970000000000016,-1.2875287540071698
-0.14070000000000005,-1.3006855690959147
-0.14170000000000016,-1.3112959038449024
-0.14270000000000005,-1.3224721231138363
-0.14370000000000016,-1.3264333147534584
-0.14470000000000005,-1.332799515602851
-0.14570000000000016,-1.349351637811272
-0.14670000000000005,-1.3661867022796659
-0.14770000000000016,-1.3741090855589102
-0.14870000000000005,-1.3794849884983973
-0.14970000000000017,-1.3861341316077629
-0.15070000000000006,-1.4065059743258195
-0.15170000000000017,-1.4175407224647667
-0.15270000000000006,-1.421784856364362
-0.15370000000000017,-1.4302731241635522
-0.15470000000000006,-1.4415908145624723
-0.15570000000000017,-1.459982061460718
-0.15670000000000006,-1.4698850405597732
-0.15770000000000017,-1.4755438857592333
-0.15870000000000006,-1.4911057100577487
-0.15970000000000018,-1.5038381117565338
-0.16070000000000007,-1.5179852247551844
-0.16170000000000018,-1.5293029151541047
-0.16270000000000007,-1.5363764716534298
-0.16370000000000018,-1.5519382959519452
-0.16470000000000007,-1.5646706976507305
-0.16570000000000018,-1.580232521949246
-0.16670000000000007,-1.5929649236480312
-0.16770000000000018,-1.5986237688474914
-0.16870000000000007,-1.614185593146007
-0.16970000000000018,-1.6297474174445223
-0.17070000000000007,-1.6453092417430377
-0.17170000000000019,-1.658041643441823
-0.17270000000000008,-1.6693593338407433
-0.1737000000000002,-1.6820917355395286
-0.17470000000000008,-1.6976535598380442
-0.1757000000000002,-1.7160448067362895
-0.17670000000000008,-1.7287772084350748
-0.1777000000000002,-1.7400948988339953
-0.17870000000000008,-1.7499978779330503
-0.1797000000000002,-1.772633258730891
-0.18070000000000008,-1.8009274847281918
-0.1817000000000002,-1.8164893090267071
-0.18270000000000008,-1.8249775768258971
-0.1837000000000002,-1.8391246898245475
-0.1847000000000001,-1.8603453593225232
-0.1857000000000002,-1.8858101627200938
-0.1867000000000001,-1.9042014096183393
-0.1877000000000002,-1.9141043887173947
-0.1887000000000001,-1.92683679041618
-0.1897000000000002,-1.9508868825138854
-0.1907000000000001,-1.9763516859114565
-0.1917000000000001,-1.9904987989101068
-0.19269999999999998,-2.0060606232086218
-0.1937000000000001,-2.0244518701068674
-0.19469999999999998,-2.0414284057052483
-0.1957000000000001,-2.0640637865030884
-0.19669999999999999,-2.0937727238002544
-0.1977000000000001,-2.1149933932982297
-0.1987,-2.133384640196476
-0.1997000000000001,-2.1531905983945863
-0.2007,-2.178655401792157
-0.2017000000000001,-2.2097790503891876
-0.2027,-2.230999719887163
-0.2037000000000001,-2.250805678085273
-0.2047,-2.2748557701829792
-0.2057000000000001,-2.2974911509808194
-0.2067,-2.3243706656782552
-0.2077000000000001,-2.352664891675556
-0.2087,-2.386617962872317
-0.2097000000000001,-2.412082766269888
-0.2107,-2.437547569667458
-0.2117000000000001,-2.472915352164084
-0.2127,-2.50262428946125
-0.2137000000000001,-2.5280890928588207
-0.2147,-2.5634568753554463
-0.2157000000000001,-2.6115570595508575
-0.2167,-2.6426807081478887
-0.21770000000000012,-2.6681455115454593
-0.2187,-2.697854448842625
-0.21970000000000012,-2.741710499138441
-0.2207,-2.785566549434257
-0.22170000000000012,-2.823763754530613
-0.2227,-2.863375670926834
-0.22370000000000012,-2.9029875873230555
-0.2247,-2.9468436376188714
-0.22570000000000012,-2.999187955713878
-0.2267,-3.0487028512091543
-0.22770000000000012,-3.0996324580042955
-0.22870000000000001,-3.1477326421997063
-0.22970000000000013,-3.201491671594578
-0.23070000000000002,-3.265153680088505
-0.23170000000000013,-3.321742132083106
-0.23270000000000002,-3.382574717977303
-0.23370000000000013,-3.4617985507697444
-0.23470000000000002,-3.536778249662592
-0.23570000000000013,-3.608928525955709
-0.23670000000000002,-3.678249379649095
-0.2376999999999999,-3.7617173463411326
-0.23870000000000002,-3.8621618486315503
-0.2396999999999999,-3.958362217022373
-0.24070000000000003,-4.051733162813465
-0.24169999999999991,-4.1564217990034775
-0.24270000000000003,-4.26393985779322
-0.24369999999999992,-4.382775606981883
-0.24470000000000003,-4.508684912669872
-0.24569999999999992,-4.6416677748571855
-0.24670000000000003,-4.776065348344364
-0.24769999999999992,-4.920365900930598
-0.24870000000000003,-5.0745694326158866
-0.24969999999999992,-5.240090654700095
-0.25070000000000003,-5.414100144583495
-0.2516999999999999,-5.582450789267434
-0.25270000000000004,-5.756460279150835
-0.2536999999999999,-5.926225635134639
-0.25470000000000004,-6.131358773615069
-0.2556999999999999,-6.3534684476938805
-0.25670000000000004,-6.55011331837512
-0.25769999999999993,-6.742514055156764
-0.25870000000000004,-6.934914791938409
-0.25969999999999993,-7.1457067756183
-0.26070000000000004,-7.384792985295491
-0.26169999999999993,-7.5941702576755175
-0.26270000000000004,-7.817694643054193
-0.26369999999999993,-8.0723426770299
-0.26470000000000005,-8.312843598006955
-0.26569999999999994,-8.529294426886306
-0.26670000000000005,-8.766965925263634
-0.26769999999999994,-9.027272804438798
-0.26870000000000005,-9.290409106213696
-0.26969999999999994,-9.546471851489269
-0.27070000000000005,-9.82516997756268
-0.27169999999999994,-10.103868103636094
-0.27270000000000005,-10.372663250610449
-0.27369999999999994,-10.662679067082781
-0.27470000000000006,-10.964012573954035
-0.27569999999999995,-11.265346080825287
-0.27670000000000006,-11.562435453796944
-0.27769999999999995,-11.859524826768602
-0.27870000000000006,-12.186323137037425
-0.27969999999999995,-12.49048606650841
-0.28070000000000006,-12.787575439480067
-0.28169999999999995,-13.12286201754808
-0.28270000000000006,-13.473710419914608
-0.28369999999999995,-13.845779491779115
-0.28470000000000006,-14.189554337646317
-0.28569999999999995,-14.486643710617974
-0.28670000000000007,-14.812027309586934
-0.28769999999999996,-15.193999360550496
-0.28870000000000007,-15.604265637511356
-0.28969999999999996,-15.957943462477614
-0.29070000000000007,-16.311621287443874
-0.29169999999999996,-16.679446225408782
-0.29270000000000007,-17.061418276372343
-0.29369999999999996,-17.429243214337255
-0.2947000000000001,-17.81121526530081
-0.29569999999999996,-18.17904020326572
-0.2967000000000001,-18.546865141230633
-0.29769999999999996,-18.94298430519284
-0.2987000000000001,-19.367397695152352
-0.29969999999999997,-19.791811085111863
-0.3007000000000001,-20.202077362072725
-0.30169999999999997,-20.598196526034933
-0.3027000000000001,-20.966021463999844
-0.30369999999999997,-21.362140627962056
-0.3047000000000001,-21.814848243918867
-0.30569999999999997,-22.267555859875678
-0.3067000000000001,-22.72026347583249
-0.3077,-23.1163826397947
-0.3087000000000001,-23.54079602975421
-0.3097,-23.96520941971372
-0.3107000000000001,-24.31888724467998
-0.3117,-24.771594860636792
-0.3127000000000001,-25.252596702590903
-0.3137,-25.73359854454502
-0.3147000000000001,-26.15801193450453
-0.3157,-26.58242532446404
-0.3167000000000001,-27.049280053419505
-0.3177,-27.501987669376312
-0.3187000000000001,-27.883959720339874
-0.3197,-28.294225997300735
-0.3207000000000001,-28.8742576302454
-0.3217,-29.411847924194117
-0.3227000000000001,-29.822114201154974
-0.3237,-30.189939139119886
-0.3247000000000001,-30.656793868075347
-0.3257,-31.180237049025404
-0.3267000000000001,-31.661238890979522
-0.3277,-32.09979939393769
-0.3287000000000001,-32.5525070098945
-0.3297,-33.06180307784591
-0.3307000000000001,-33.59939337179462
-0.3317,-34.15113077874198
-0.3327000000000001,-34.64627973369475
-0.3337,-35.14142868864751
-0.3347000000000001,-35.53754785260972
-0.3357,-35.96196124256923
-0.3367000000000001,-36.5136986495166
-0.3377,-37.093730282461266
-0.3387000000000001,-37.51814367242077
-0.3397,-37.84352727138973
-0.3407000000000001,-38.33867622634249
-0.3417,-38.805530955297954
-0.3427000000000001,-39.272385684253415
-0.3437,-39.82412309120078
-0.3447000000000001,-40.37586049814815
-0.3457,-40.94174501809416
-0.3467000000000001,-41.47933531204288
-0.3477,-41.94619004099834
-0.3487000000000001,-42.45548610894975
-0.3497,-42.95063506390252
-0.3507000000000001,-43.48822535785123
-0.3517,-44.096551216793195
-0.3527000000000001,-44.634141510741905
-0.3537,-45.17173180469062
-0.3547000000000001,-45.78005766363259
-0.3557,-46.19032394059345
-0.35670000000000013,-46.75620846053947
-0.3577,-47.32209298048547
-0.35870000000000013,-47.91627172642879
-0.3597,-48.46800913337616
-0.36070000000000013,-49.019746540323524
-0.3617,-49.52904260827494
-0.3626999999999999,-50.010044450229046
-0.3637,-50.491046292183164
-0.3646999999999999,-50.87301834314672
-0.3657,-51.509638428085985
-0.3666999999999999,-52.08967006103065
-0.3677,-52.72629014596991
-0.3686999999999999,-53.10826219693348
-0.36970000000000003,-53.71658805587545
-0.3706999999999999,-54.423943705807964
-0.37170000000000003,-54.961533999756675
-0.3726999999999999,-55.385947389716186
-0.37370000000000003,-56.022567474655446
-0.3746999999999999,-56.50356931660957
-0.37570000000000003,-56.927982706569075
-0.3766999999999999,-57.52216145251239
-0.37770000000000004,-58.031457520463796
-0.3786999999999999,-58.38513534543006
-0.37970000000000004,-58.54075358841522
-0.3806999999999999,-59.20566789935179
-0.38170000000000004,-59.72911108030185
-0.38269999999999993,-60.28084848724921
-0.38370000000000004,-60.87502723319253
-0.38469999999999993,-61.25699928415608
-0.38570000000000004,-61.7662953521075
-0.38669999999999993,-61.851178030099405
-0.38570000000000004,-61.21455794516014
-0.38469999999999993,-60.57793786022087
-0.38370000000000004,-59.67252262830725
-0.38269999999999993,-58.79540162239092
-0.38170000000000004,-58.37098823243142
-0.3806999999999999,-58.31439978043681
-0.37970000000000004,-57.8051037124854
-0.3786999999999999,-56.800658689581226
-0.37770000000000004,-55.951831909662204
-0.3766999999999999,-55.30106471172429
-0.37570000000000003,-54.77762153077422
-0.3746999999999999,-54.2966196888201
-0.37370000000000003,-53.71658805587545
-0.3726999999999999,-52.92434972795102
-0.37170000000000003,-52.2169940780185
-0.3706999999999999,-51.72184512306574
-0.36970000000000003,-51.24084328111163
-0.3686999999999999,-50.61837030917101
-0.3677,-49.939308885235796
-0.3666999999999999,-49.68466085126009
-0.3657,-49.14707055731138
-0.3646999999999999,-48.609480263362656
-0.3637,-47.87383038743284
-0.3626999999999999,-47.27965164148953
-0.3617,-46.628884443551605
-0.36070000000000013,-46.147882601597495
-0.3597,-45.78005766363259
-0.35870000000000013,-45.18587891768927
-0.3577,-44.619994397743255
-0.35670000000000013,-44.2097281207824
-0.3557,-43.58725514884178
-0.3547000000000001,-43.106253306887666
-0.3537,-42.4696332219484
-0.3527000000000001,-41.97448426699564
-0.3517,-41.53592376403748
-0.3507000000000001,-41.04077480908471
-0.3497,-40.531478741133306
-0.3487000000000001,-39.93729999518999
-0.3477,-39.47044526623452
-0.3467000000000001,-38.94700208528445
-0.3457,-38.522588695324956
-0.3447000000000001,-38.16891087035869
-0.3437,-37.77279170639648
-0.3427000000000001,-37.15031873445586
-0.3417,-36.54199287551389
-0.3407000000000001,-35.93366701657193
-0.3397,-35.46681228761647
-0.3387000000000001,-35.12728157564886
-0.3377,-34.5755441687015
-0.3367000000000001,-33.910629857764924
-0.3357,-33.40133378981351
-0.3347000000000001,-33.07595019084456
-0.3337,-32.6090954618891
-0.3327000000000001,-32.11394650693633
-0.3317,-31.703680229975475
-0.3307000000000001,-31.265119727017314
-0.3297,-30.8407063370578
-0.3287000000000001,-30.303116043109085
-0.3277,-29.793819975157668
-0.3267000000000001,-29.34111235920086
-0.3257,-28.93084608224
-0.3247000000000001,-28.53472691827779
-0.3237,-28.082019302320973
-0.3227000000000001,-27.671753025360115
-0.3217,-27.233192522401957
-0.3207000000000001,-26.851220471438396
-0.3197,-26.398512855481584
-0.3187000000000001,-25.931658126526123
-0.3177,-25.45065628457201
-0.3167000000000001,-24.997948668615198
-0.3157,-24.531093939659737
-0.3147000000000001,-24.20571034069078
-0.3137,-23.908620967719123
-0.3127000000000001,-23.41347201276636
-0.3117,-22.87588171881764
-0.3107000000000001,-22.46561544185678
-0.3097,-22.140231842887825
-0.3087000000000001,-21.786554017921564
-0.3077,-21.447023305953955
-0.3067000000000001,-21.13578681998365
-0.30569999999999997,-20.76796188201874
-0.3047000000000001,-20.47087250904708
-0.30369999999999997,-20.14548891007812
-0.3027000000000001,-19.65033995512536
-0.30169999999999997,-19.2400736781645
-0.3007000000000001,-18.872248740199588
-0.29969999999999997,-18.53271802823198
-0.2987000000000001,-18.17904020326572
-0.29769999999999996,-17.839509491298113
-0.2967000000000001,-17.471684553333205
-0.29569999999999996,-17.118006728366943
-0.2947000000000001,-16.835064468393938
-0.29369999999999996,-16.580416434418233
-0.29270000000000007,-16.24088572245062
-0.29169999999999996,-15.858913671487063
-0.29070000000000007,-15.4769416205235
-0.28969999999999996,-15.179852247551842
-0.28870000000000007,-14.868615761581536
-0.28769999999999996,-14.57152638860988
-0.28670000000000007,-14.26028990263957
-0.28569999999999995,-13.939150437570206
-0.28470000000000006,-13.677428847095173
-0.28369999999999995,-13.387413030622842
-0.28270000000000006,-13.07476183335267
-0.28169999999999995,-12.774843037781283
-0.28070000000000006,-12.498974334307599
-0.27969999999999995,-12.228764476033378
-0.27870000000000006,-11.955725195159426
-0.27769999999999995,-11.679856491685744
-0.27670000000000006,-11.399743654312466
-0.27569999999999995,-11.121045528239053
-0.27470000000000006,-10.843762113465505
-0.27369999999999994,-10.606090615088178
-0.27270000000000005,-10.359930848911663
-0.27169999999999994,-10.092550413237172
-0.27070000000000005,-9.85629362615971
-0.26969999999999994,-9.61154857128306
-0.26870000000000005,-9.380950629405058
