Sept. 28, 2024   23:28:59
Linear Sweep Voltammetry
File: c:/users/guazh/data/20240922_batch_417_500/2024-09-22-exp476\1acid_1ac-2024-09-28t23_25_49-lsvinphos\1acid_1ac_lsv_50mvs_efin_-2100mv.bin
Data Source:  Experiment
Instrument Model:  CHI760E
Header: LSV ran at 50 mVs with Efin at -2100mV
Note: 

Init E (V) = -0.6
Final E (V) = -2.1
Scan Rate (V/s) = 0.05
Sample Interval (V) = 0.001
Quiet Time (sec) = 2
Sensitivity (A/V) = 1e-4
Comp R (ohm) = 13.9

Results:

Channel 1:
Ep = -1.914V
ip = 7.052e-4A
Ah = 9.079e-4C

Potential/V, Current/A

-0.600, 7.703e-6
-0.601, 7.839e-6
-0.602, 7.879e-6
-0.603, 7.901e-6
-0.604, 7.942e-6
-0.605, 7.972e-6
-0.606, 8.002e-6
-0.607, 8.031e-6
-0.608, 8.073e-6
-0.609, 8.093e-6
-0.610, 8.124e-6
-0.611, 8.137e-6
-0.612, 8.154e-6
-0.613, 8.191e-6
-0.614, 8.204e-6
-0.615, 8.223e-6
-0.616, 8.254e-6
-0.617, 8.287e-6
-0.618, 8.312e-6
-0.619, 8.320e-6
-0.620, 8.339e-6
-0.621, 8.339e-6
-0.622, 8.377e-6
-0.623, 8.413e-6
-0.624, 8.419e-6
-0.625, 8.448e-6
-0.626, 8.474e-6
-0.627, 8.500e-6
-0.628, 8.507e-6
-0.629, 8.515e-6
-0.630, 8.536e-6
-0.631, 8.556e-6
-0.632, 8.569e-6
-0.633, 8.596e-6
-0.634, 8.615e-6
-0.635, 8.643e-6
-0.636, 8.652e-6
-0.637, 8.669e-6
-0.638, 8.691e-6
-0.639, 8.712e-6
-0.640, 8.727e-6
-0.641, 8.724e-6
-0.642, 8.749e-6
-0.643, 8.758e-6
-0.644, 8.752e-6
-0.645, 8.777e-6
-0.646, 8.779e-6
-0.647, 8.796e-6
-0.648, 8.803e-6
-0.649, 8.805e-6
-0.650, 8.823e-6
-0.651, 8.825e-6
-0.652, 8.831e-6
-0.653, 8.843e-6
-0.654, 8.852e-6
-0.655, 8.853e-6
-0.656, 8.861e-6
-0.657, 8.884e-6
-0.658, 8.886e-6
-0.659, 8.899e-6
-0.660, 8.913e-6
-0.661, 8.921e-6
-0.662, 8.923e-6
-0.663, 8.934e-6
-0.664, 8.958e-6
-0.665, 8.980e-6
-0.666, 8.984e-6
-0.667, 8.992e-6
-0.668, 9.007e-6
-0.669, 9.024e-6
-0.670, 9.023e-6
-0.671, 9.029e-6
-0.672, 9.047e-6
-0.673, 9.061e-6
-0.674, 9.040e-6
-0.675, 9.050e-6
-0.676, 9.071e-6
-0.677, 9.071e-6
-0.678, 9.078e-6
-0.679, 9.073e-6
-0.680, 9.065e-6
-0.681, 9.062e-6
-0.682, 9.057e-6
-0.683, 9.056e-6
-0.684, 9.065e-6
-0.685, 9.053e-6
-0.686, 9.052e-6
-0.687, 9.044e-6
-0.688, 9.043e-6
-0.689, 9.036e-6
-0.690, 9.029e-6
-0.691, 9.039e-6
-0.692, 9.052e-6
-0.693, 9.047e-6
-0.694, 9.036e-6
-0.695, 9.025e-6
-0.696, 9.020e-6
-0.697, 9.010e-6
-0.698, 9.013e-6
-0.699, 9.006e-6
-0.700, 8.990e-6
-0.701, 8.979e-6
-0.702, 8.972e-6
-0.703, 8.961e-6
-0.704, 8.951e-6
-0.705, 8.946e-6
-0.706, 8.931e-6
-0.707, 8.933e-6
-0.708, 8.927e-6
-0.709, 8.926e-6
-0.710, 8.913e-6
-0.711, 8.908e-6
-0.712, 8.884e-6
-0.713, 8.873e-6
-0.714, 8.874e-6
-0.715, 8.860e-6
-0.716, 8.848e-6
-0.717, 8.831e-6
-0.718, 8.819e-6
-0.719, 8.802e-6
-0.720, 8.797e-6
-0.721, 8.787e-6
-0.722, 8.783e-6
-0.723, 8.791e-6
-0.724, 8.782e-6
-0.725, 8.769e-6
-0.726, 8.755e-6
-0.727, 8.751e-6
-0.728, 8.743e-6
-0.729, 8.734e-6
-0.730, 8.729e-6
-0.731, 8.728e-6
-0.732, 8.708e-6
-0.733, 8.682e-6
-0.734, 8.659e-6
-0.735, 8.641e-6
-0.736, 8.618e-6
-0.737, 8.616e-6
-0.738, 8.605e-6
-0.739, 8.609e-6
-0.740, 8.610e-6
-0.741, 8.598e-6
-0.742, 8.589e-6
-0.743, 8.575e-6
-0.744, 8.565e-6
-0.745, 8.564e-6
-0.746, 8.564e-6
-0.747, 8.559e-6
-0.748, 8.544e-6
-0.749, 8.517e-6
-0.750, 8.507e-6
-0.751, 8.504e-6
-0.752, 8.479e-6
-0.753, 8.452e-6
-0.754, 8.436e-6
-0.755, 8.427e-6
-0.756, 8.423e-6
-0.757, 8.394e-6
-0.758, 8.386e-6
-0.759, 8.366e-6
-0.760, 8.351e-6
-0.761, 8.344e-6
-0.762, 8.337e-6
-0.763, 8.304e-6
-0.764, 8.298e-6
-0.765, 8.291e-6
-0.766, 8.287e-6
-0.767, 8.267e-6
-0.768, 8.260e-6
-0.769, 8.245e-6
-0.770, 8.234e-6
-0.771, 8.229e-6
-0.772, 8.215e-6
-0.773, 8.203e-6
-0.774, 8.191e-6
-0.775, 8.196e-6
-0.776, 8.187e-6
-0.777, 8.168e-6
-0.778, 8.158e-6
-0.779, 8.179e-6
-0.780, 8.157e-6
-0.781, 8.124e-6
-0.782, 8.108e-6
-0.783, 8.098e-6
-0.784, 8.089e-6
-0.785, 8.081e-6
-0.786, 8.070e-6
-0.787, 8.062e-6
-0.788, 8.050e-6
-0.789, 8.036e-6
-0.790, 8.028e-6
-0.791, 8.019e-6
-0.792, 8.014e-6
-0.793, 8.005e-6
-0.794, 7.990e-6
-0.795, 7.977e-6
-0.796, 7.945e-6
-0.797, 7.917e-6
-0.798, 7.898e-6
-0.799, 7.875e-6
-0.800, 7.860e-6
-0.801, 7.862e-6
-0.802, 7.837e-6
-0.803, 7.819e-6
-0.804, 7.799e-6
-0.805, 7.803e-6
-0.806, 7.788e-6
-0.807, 7.785e-6
-0.808, 7.763e-6
-0.809, 7.770e-6
-0.810, 7.764e-6
-0.811, 7.762e-6
-0.812, 7.753e-6
-0.813, 7.741e-6
-0.814, 7.728e-6
-0.815, 7.724e-6
-0.816, 7.718e-6
-0.817, 7.714e-6
-0.818, 7.703e-6
-0.819, 7.694e-6
-0.820, 7.682e-6
-0.821, 7.661e-6
-0.822, 7.651e-6
-0.823, 7.644e-6
-0.824, 7.637e-6
-0.825, 7.632e-6
-0.826, 7.622e-6
-0.827, 7.602e-6
-0.828, 7.596e-6
-0.829, 7.586e-6
-0.830, 7.587e-6
-0.831, 7.582e-6
-0.832, 7.563e-6
-0.833, 7.563e-6
-0.834, 7.559e-6
-0.835, 7.556e-6
-0.836, 7.554e-6
-0.837, 7.540e-6
-0.838, 7.526e-6
-0.839, 7.513e-6
-0.840, 7.515e-6
-0.841, 7.510e-6
-0.842, 7.508e-6
-0.843, 7.503e-6
-0.844, 7.483e-6
-0.845, 7.464e-6
-0.846, 7.475e-6
-0.847, 7.480e-6
-0.848, 7.456e-6
-0.849, 7.433e-6
-0.850, 7.419e-6
-0.851, 7.426e-6
-0.852, 7.435e-6
-0.853, 7.426e-6
-0.854, 7.411e-6
-0.855, 7.410e-6
-0.856, 7.389e-6
-0.857, 7.386e-6
-0.858, 7.400e-6
-0.859, 7.386e-6
-0.860, 7.399e-6
-0.861, 7.365e-6
-0.862, 7.362e-6
-0.863, 7.372e-6
-0.864, 7.360e-6
-0.865, 7.352e-6
-0.866, 7.338e-6
-0.867, 7.326e-6
-0.868, 7.311e-6
-0.869, 7.245e-6
-0.870, 7.168e-6
-0.871, 7.164e-6
-0.872, 7.164e-6
-0.873, 7.166e-6
-0.874, 7.165e-6
-0.875, 7.165e-6
-0.876, 7.161e-6
-0.877, 7.152e-6
-0.878, 7.153e-6
-0.879, 7.142e-6
-0.880, 7.098e-6
-0.881, 7.092e-6
-0.882, 7.089e-6
-0.883, 7.086e-6
-0.884, 7.079e-6
-0.885, 7.079e-6
-0.886, 7.082e-6
-0.887, 7.065e-6
-0.888, 7.066e-6
-0.889, 7.069e-6
-0.890, 7.064e-6
-0.891, 7.053e-6
-0.892, 7.040e-6
-0.893, 7.036e-6
-0.894, 7.039e-6
-0.895, 7.041e-6
-0.896, 7.030e-6
-0.897, 7.031e-6
-0.898, 7.023e-6
-0.899, 7.024e-6
-0.900, 7.026e-6
-0.901, 7.022e-6
-0.902, 7.014e-6
-0.903, 7.012e-6
-0.904, 7.009e-6
-0.905, 6.999e-6
-0.906, 6.995e-6
-0.907, 7.000e-6
-0.908, 6.998e-6
-0.909, 7.000e-6
-0.910, 6.999e-6
-0.911, 7.000e-6
-0.912, 6.989e-6
-0.913, 6.984e-6
-0.914, 6.986e-6
-0.915, 6.989e-6
-0.916, 6.978e-6
-0.917, 6.981e-6
-0.918, 6.991e-6
-0.919, 6.983e-6
-0.920, 6.968e-6
-0.921, 6.955e-6
-0.922, 6.936e-6
-0.923, 6.934e-6
-0.924, 6.936e-6
-0.925, 6.931e-6
-0.926, 6.937e-6
-0.927, 6.936e-6
-0.928, 6.938e-6
-0.929, 6.933e-6
-0.930, 6.925e-6
-0.931, 6.925e-6
-0.932, 6.922e-6
-0.933, 6.931e-6
-0.934, 6.924e-6
-0.935, 6.917e-6
-0.936, 6.914e-6
-0.937, 6.905e-6
-0.938, 6.905e-6
-0.939, 6.908e-6
-0.940, 6.914e-6
-0.941, 6.922e-6
-0.942, 6.911e-6
-0.943, 6.907e-6
-0.944, 6.910e-6
-0.945, 6.902e-6
-0.946, 6.892e-6
-0.947, 6.886e-6
-0.948, 6.896e-6
-0.949, 6.898e-6
-0.950, 6.905e-6
-0.951, 6.910e-6
-0.952, 6.908e-6
-0.953, 6.908e-6
-0.954, 6.899e-6
-0.955, 6.895e-6
-0.956, 6.890e-6
-0.957, 6.886e-6
-0.958, 6.895e-6
-0.959, 6.901e-6
-0.960, 6.902e-6
-0.961, 6.913e-6
-0.962, 6.909e-6
-0.963, 6.899e-6
-0.964, 6.910e-6
-0.965, 6.909e-6
-0.966, 6.894e-6
-0.967, 6.894e-6
-0.968, 6.895e-6
-0.969, 6.890e-6
-0.970, 6.892e-6
-0.971, 6.896e-6
-0.972, 6.906e-6
-0.973, 6.890e-6
-0.974, 6.815e-6
-0.975, 6.807e-6
-0.976, 6.805e-6
-0.977, 6.815e-6
-0.978, 6.838e-6
-0.979, 6.850e-6
-0.980, 6.856e-6
-0.981, 6.845e-6
-0.982, 6.839e-6
-0.983, 6.836e-6
-0.984, 6.835e-6
-0.985, 6.828e-6
-0.986, 6.834e-6
-0.987, 6.839e-6
-0.988, 6.850e-6
-0.989, 6.856e-6
-0.990, 6.863e-6
-0.991, 6.866e-6
-0.992, 6.860e-6
-0.993, 6.860e-6
-0.994, 6.858e-6
-0.995, 6.859e-6
-0.996, 6.856e-6
-0.997, 6.859e-6
-0.998, 6.862e-6
-0.999, 6.871e-6
-1.000, 6.879e-6
-1.001, 6.884e-6
-1.002, 6.885e-6
-1.003, 6.886e-6
-1.004, 6.892e-6
-1.005, 6.891e-6
-1.006, 6.900e-6
-1.007, 6.905e-6
-1.008, 6.913e-6
-1.009, 6.920e-6
-1.010, 6.925e-6
-1.011, 6.930e-6
-1.012, 6.935e-6
-1.013, 6.943e-6
-1.014, 6.945e-6
-1.015, 6.949e-6
-1.016, 6.960e-6
-1.017, 6.971e-6
-1.018, 6.985e-6
-1.019, 7.029e-6
-1.020, 7.028e-6
-1.021, 7.024e-6
-1.022, 7.036e-6
-1.023, 7.051e-6
-1.024, 7.070e-6
-1.025, 7.055e-6
-1.026, 7.080e-6
-1.027, 7.086e-6
-1.028, 7.097e-6
-1.029, 7.106e-6
-1.030, 7.125e-6
-1.031, 7.124e-6
-1.032, 7.118e-6
-1.033, 7.138e-6
-1.034, 7.150e-6
-1.035, 7.171e-6
-1.036, 7.166e-6
-1.037, 7.171e-6
-1.038, 7.188e-6
-1.039, 7.187e-6
-1.040, 7.180e-6
-1.041, 7.173e-6
-1.042, 7.170e-6
-1.043, 7.186e-6
-1.044, 7.206e-6
-1.045, 7.216e-6
-1.046, 7.222e-6
-1.047, 7.235e-6
-1.048, 7.250e-6
-1.049, 7.264e-6
-1.050, 7.275e-6
-1.051, 7.295e-6
-1.052, 7.316e-6
-1.053, 7.340e-6
-1.054, 7.359e-6
-1.055, 7.369e-6
-1.056, 7.403e-6
-1.057, 7.419e-6
-1.058, 7.421e-6
-1.059, 7.446e-6
-1.060, 7.474e-6
-1.061, 7.483e-6
-1.062, 7.503e-6
-1.063, 7.524e-6
-1.064, 7.537e-6
-1.065, 7.559e-6
-1.066, 7.571e-6
-1.067, 7.601e-6
-1.068, 7.612e-6
-1.069, 7.632e-6
-1.070, 7.664e-6
-1.071, 7.693e-6
-1.072, 7.712e-6
-1.073, 7.739e-6
-1.074, 7.764e-6
-1.075, 7.791e-6
-1.076, 7.808e-6
-1.077, 7.829e-6
-1.078, 7.853e-6
-1.079, 7.882e-6
-1.080, 7.906e-6
-1.081, 7.942e-6
-1.082, 7.963e-6
-1.083, 7.998e-6
-1.084, 8.015e-6
-1.085, 8.045e-6
-1.086, 8.068e-6
-1.087, 8.103e-6
-1.088, 8.121e-6
-1.089, 8.161e-6
-1.090, 8.185e-6
-1.091, 8.235e-6
-1.092, 8.288e-6
-1.093, 8.333e-6
-1.094, 8.366e-6
-1.095, 8.384e-6
-1.096, 8.387e-6
-1.097, 8.441e-6
-1.098, 8.478e-6
-1.099, 8.487e-6
-1.100, 8.506e-6
-1.101, 8.541e-6
-1.102, 8.559e-6
-1.103, 8.591e-6
-1.104, 8.623e-6
-1.105, 8.663e-6
-1.106, 8.686e-6
-1.107, 8.712e-6
-1.108, 8.749e-6
-1.109, 8.790e-6
-1.110, 8.831e-6
-1.111, 8.857e-6
-1.112, 8.871e-6
-1.113, 8.894e-6
-1.114, 8.934e-6
-1.115, 8.959e-6
-1.116, 8.989e-6
-1.117, 9.028e-6
-1.118, 9.052e-6
-1.119, 9.098e-6
-1.120, 9.137e-6
-1.121, 9.176e-6
-1.122, 9.233e-6
-1.123, 9.269e-6
-1.124, 9.314e-6
-1.125, 9.304e-6
-1.126, 9.327e-6
-1.127, 9.347e-6
-1.128, 9.372e-6
-1.129, 9.418e-6
-1.130, 9.453e-6
-1.131, 9.470e-6
-1.132, 9.497e-6
-1.133, 9.544e-6
-1.134, 9.580e-6
-1.135, 9.665e-6
-1.136, 9.688e-6
-1.137, 9.654e-6
-1.138, 9.679e-6
-1.139, 9.710e-6
-1.140, 9.732e-6
-1.141, 9.753e-6
-1.142, 9.787e-6
-1.143, 9.849e-6
-1.144, 9.866e-6
-1.145, 9.887e-6
-1.146, 9.901e-6
-1.147, 9.928e-6
-1.148, 9.942e-6
-1.149, 9.962e-6
-1.150, 9.978e-6
-1.151, 9.979e-6
-1.152, 1.000e-5
-1.153, 1.003e-5
-1.154, 1.004e-5
-1.155, 1.007e-5
-1.156, 1.009e-5
-1.157, 1.008e-5
-1.158, 1.010e-5
-1.159, 1.012e-5
-1.160, 1.015e-5
-1.161, 1.016e-5
-1.162, 1.017e-5
-1.163, 1.018e-5
-1.164, 1.019e-5
-1.165, 1.019e-5
-1.166, 1.020e-5
-1.167, 1.022e-5
-1.168, 1.025e-5
-1.169, 1.027e-5
-1.170, 1.028e-5
-1.171, 1.028e-5
-1.172, 1.031e-5
-1.173, 1.030e-5
-1.174, 1.029e-5
-1.175, 1.031e-5
-1.176, 1.031e-5
-1.177, 1.031e-5
-1.178, 1.031e-5
-1.179, 1.031e-5
-1.180, 1.032e-5
-1.181, 1.033e-5
-1.182, 1.031e-5
-1.183, 1.032e-5
-1.184, 1.032e-5
-1.185, 1.033e-5
-1.186, 1.033e-5
-1.187, 1.033e-5
-1.188, 1.034e-5
-1.189, 1.035e-5
-1.190, 1.036e-5
-1.191, 1.039e-5
-1.192, 1.037e-5
-1.193, 1.036e-5
-1.194, 1.035e-5
-1.195, 1.035e-5
-1.196, 1.036e-5
-1.197, 1.038e-5
-1.198, 1.040e-5
-1.199, 1.038e-5
-1.200, 1.038e-5
-1.201, 1.038e-5
-1.202, 1.040e-5
-1.203, 1.039e-5
-1.204, 1.039e-5
-1.205, 1.047e-5
-1.206, 1.046e-5
-1.207, 1.047e-5
-1.208, 1.046e-5
-1.209, 1.047e-5
-1.210, 1.048e-5
-1.211, 1.047e-5
-1.212, 1.049e-5
-1.213, 1.049e-5
-1.214, 1.049e-5
-1.215, 1.049e-5
-1.216, 1.051e-5
-1.217, 1.052e-5
-1.218, 1.054e-5
-1.219, 1.054e-5
-1.220, 1.054e-5
-1.221, 1.053e-5
-1.222, 1.055e-5
-1.223, 1.057e-5
-1.224, 1.059e-5
-1.225, 1.060e-5
-1.226, 1.059e-5
-1.227, 1.059e-5
-1.228, 1.060e-5
-1.229, 1.062e-5
-1.230, 1.059e-5
-1.231, 1.060e-5
-1.232, 1.061e-5
-1.233, 1.060e-5
-1.234, 1.057e-5
-1.235, 1.050e-5
-1.236, 1.062e-5
-1.237, 1.070e-5
-1.238, 1.068e-5
-1.239, 1.068e-5
-1.240, 1.069e-5
-1.241, 1.072e-5
-1.242, 1.075e-5
-1.243, 1.074e-5
-1.244, 1.075e-5
-1.245, 1.076e-5
-1.246, 1.081e-5
-1.247, 1.083e-5
-1.248, 1.084e-5
-1.249, 1.084e-5
-1.250, 1.087e-5
-1.251, 1.088e-5
-1.252, 1.085e-5
-1.253, 1.088e-5
-1.254, 1.108e-5
-1.255, 1.108e-5
-1.256, 1.107e-5
-1.257, 1.107e-5
-1.258, 1.109e-5
-1.259, 1.100e-5
-1.260, 1.102e-5
-1.261, 1.099e-5
-1.262, 1.100e-5
-1.263, 1.117e-5
-1.264, 1.118e-5
-1.265, 1.106e-5
-1.266, 1.108e-5
-1.267, 1.110e-5
-1.268, 1.111e-5
-1.269, 1.118e-5
-1.270, 1.120e-5
-1.271, 1.121e-5
-1.272, 1.123e-5
-1.273, 1.125e-5
-1.274, 1.126e-5
-1.275, 1.132e-5
-1.276, 1.131e-5
-1.277, 1.131e-5
-1.278, 1.133e-5
-1.279, 1.135e-5
-1.280, 1.139e-5
-1.281, 1.140e-5
-1.282, 1.140e-5
-1.283, 1.141e-5
-1.284, 1.143e-5
-1.285, 1.145e-5
-1.286, 1.147e-5
-1.287, 1.149e-5
-1.288, 1.152e-5
-1.289, 1.154e-5
-1.290, 1.155e-5
-1.291, 1.156e-5
-1.292, 1.157e-5
-1.293, 1.159e-5
-1.294, 1.161e-5
-1.295, 1.164e-5
-1.296, 1.165e-5
-1.297, 1.166e-5
-1.298, 1.169e-5
-1.299, 1.172e-5
-1.300, 1.174e-5
-1.301, 1.175e-5
-1.302, 1.176e-5
-1.303, 1.178e-5
-1.304, 1.181e-5
-1.305, 1.184e-5
-1.306, 1.184e-5
-1.307, 1.185e-5
-1.308, 1.189e-5
-1.309, 1.191e-5
-1.310, 1.194e-5
-1.311, 1.195e-5
-1.312, 1.195e-5
-1.313, 1.196e-5
-1.314, 1.197e-5
-1.315, 1.200e-5
-1.316, 1.202e-5
-1.317, 1.202e-5
-1.318, 1.212e-5
-1.319, 1.213e-5
-1.320, 1.209e-5
-1.321, 1.211e-5
-1.322, 1.213e-5
-1.323, 1.214e-5
-1.324, 1.216e-5
-1.325, 1.217e-5
-1.326, 1.220e-5
-1.327, 1.222e-5
-1.328, 1.224e-5
-1.329, 1.226e-5
-1.330, 1.227e-5
-1.331, 1.228e-5
-1.332, 1.230e-5
-1.333, 1.231e-5
-1.334, 1.231e-5
-1.335, 1.233e-5
-1.336, 1.237e-5
-1.337, 1.239e-5
-1.338, 1.243e-5
-1.339, 1.244e-5
-1.340, 1.244e-5
-1.341, 1.245e-5
-1.342, 1.248e-5
-1.343, 1.251e-5
-1.344, 1.251e-5
-1.345, 1.254e-5
-1.346, 1.256e-5
-1.347, 1.257e-5
-1.348, 1.260e-5
-1.349, 1.263e-5
-1.350, 1.266e-5
-1.351, 1.268e-5
-1.352, 1.269e-5
-1.353, 1.269e-5
-1.354, 1.270e-5
-1.355, 1.273e-5
-1.356, 1.275e-5
-1.357, 1.276e-5
-1.358, 1.278e-5
-1.359, 1.281e-5
-1.360, 1.284e-5
-1.361, 1.286e-5
-1.362, 1.288e-5
-1.363, 1.290e-5
-1.364, 1.292e-5
-1.365, 1.292e-5
-1.366, 1.294e-5
-1.367, 1.296e-5
-1.368, 1.300e-5
-1.369, 1.303e-5
-1.370, 1.305e-5
-1.371, 1.306e-5
-1.372, 1.308e-5
-1.373, 1.310e-5
-1.374, 1.313e-5
-1.375, 1.316e-5
-1.376, 1.313e-5
-1.377, 1.313e-5
-1.378, 1.316e-5
-1.379, 1.319e-5
-1.380, 1.323e-5
-1.381, 1.324e-5
-1.382, 1.325e-5
-1.383, 1.327e-5
-1.384, 1.330e-5
-1.385, 1.333e-5
-1.386, 1.336e-5
-1.387, 1.337e-5
-1.388, 1.340e-5
-1.389, 1.341e-5
-1.390, 1.344e-5
-1.391, 1.348e-5
-1.392, 1.349e-5
-1.393, 1.349e-5
-1.394, 1.352e-5
-1.395, 1.354e-5
-1.396, 1.355e-5
-1.397, 1.358e-5
-1.398, 1.361e-5
-1.399, 1.362e-5
-1.400, 1.364e-5
-1.401, 1.365e-5
-1.402, 1.367e-5
-1.403, 1.370e-5
-1.404, 1.374e-5
-1.405, 1.376e-5
-1.406, 1.376e-5
-1.407, 1.377e-5
-1.408, 1.379e-5
-1.409, 1.381e-5
-1.410, 1.382e-5
-1.411, 1.385e-5
-1.412, 1.388e-5
-1.413, 1.391e-5
-1.414, 1.393e-5
-1.415, 1.397e-5
-1.416, 1.401e-5
-1.417, 1.405e-5
-1.418, 1.404e-5
-1.419, 1.406e-5
-1.420, 1.408e-5
-1.421, 1.409e-5
-1.422, 1.411e-5
-1.423, 1.414e-5
-1.424, 1.417e-5
-1.425, 1.421e-5
-1.426, 1.424e-5
-1.427, 1.426e-5
-1.428, 1.430e-5
-1.429, 1.433e-5
-1.430, 1.436e-5
-1.431, 1.439e-5
-1.432, 1.441e-5
-1.433, 1.444e-5
-1.434, 1.447e-5
-1.435, 1.449e-5
-1.436, 1.451e-5
-1.437, 1.452e-5
-1.438, 1.454e-5
-1.439, 1.457e-5
-1.440, 1.460e-5
-1.441, 1.462e-5
-1.442, 1.465e-5
-1.443, 1.467e-5
-1.444, 1.472e-5
-1.445, 1.475e-5
-1.446, 1.475e-5
-1.447, 1.478e-5
-1.448, 1.482e-5
-1.449, 1.485e-5
-1.450, 1.487e-5
-1.451, 1.491e-5
-1.452, 1.493e-5
-1.453, 1.496e-5
-1.454, 1.498e-5
-1.455, 1.501e-5
-1.456, 1.506e-5
-1.457, 1.509e-5
-1.458, 1.513e-5
-1.459, 1.517e-5
-1.460, 1.522e-5
-1.461, 1.525e-5
-1.462, 1.529e-5
-1.463, 1.532e-5
-1.464, 1.537e-5
-1.465, 1.540e-5
-1.466, 1.543e-5
-1.467, 1.547e-5
-1.468, 1.555e-5
-1.469, 1.559e-5
-1.470, 1.566e-5
-1.471, 1.571e-5
-1.472, 1.575e-5
-1.473, 1.580e-5
-1.474, 1.584e-5
-1.475, 1.591e-5
-1.476, 1.594e-5
-1.477, 1.598e-5
-1.478, 1.604e-5
-1.479, 1.608e-5
-1.480, 1.612e-5
-1.481, 1.617e-5
-1.482, 1.622e-5
-1.483, 1.626e-5
-1.484, 1.629e-5
-1.485, 1.635e-5
-1.486, 1.642e-5
-1.487, 1.647e-5
-1.488, 1.653e-5
-1.489, 1.658e-5
-1.490, 1.663e-5
-1.491, 1.670e-5
-1.492, 1.674e-5
-1.493, 1.680e-5
-1.494, 1.687e-5
-1.495, 1.694e-5
-1.496, 1.701e-5
-1.497, 1.707e-5
-1.498, 1.715e-5
-1.499, 1.721e-5
-1.500, 1.728e-5
-1.501, 1.734e-5
-1.502, 1.742e-5
-1.503, 1.749e-5
-1.504, 1.754e-5
-1.505, 1.762e-5
-1.506, 1.770e-5
-1.507, 1.776e-5
-1.508, 1.784e-5
-1.509, 1.791e-5
-1.510, 1.799e-5
-1.511, 1.808e-5
-1.512, 1.817e-5
-1.513, 1.824e-5
-1.514, 1.833e-5
-1.515, 1.842e-5
-1.516, 1.849e-5
-1.517, 1.859e-5
-1.518, 1.869e-5
-1.519, 1.878e-5
-1.520, 1.890e-5
-1.521, 1.899e-5
-1.522, 1.907e-5
-1.523, 1.917e-5
-1.524, 1.927e-5
-1.525, 1.939e-5
-1.526, 1.950e-5
-1.527, 1.959e-5
-1.528, 1.969e-5
-1.529, 1.982e-5
-1.530, 1.994e-5
-1.531, 2.006e-5
-1.532, 2.017e-5
-1.533, 2.030e-5
-1.534, 2.043e-5
-1.535, 2.054e-5
-1.536, 2.065e-5
-1.537, 2.077e-5
-1.538, 2.091e-5
-1.539, 2.102e-5
-1.540, 2.113e-5
-1.541, 2.126e-5
-1.542, 2.140e-5
-1.543, 2.153e-5
-1.544, 2.168e-5
-1.545, 2.183e-5
-1.546, 2.199e-5
-1.547, 2.215e-5
-1.548, 2.230e-5
-1.549, 2.244e-5
-1.550, 2.260e-5
-1.551, 2.278e-5
-1.552, 2.295e-5
-1.553, 2.308e-5
-1.554, 2.324e-5
-1.555, 2.344e-5
-1.556, 2.362e-5
-1.557, 2.379e-5
-1.558, 2.396e-5
-1.559, 2.414e-5
-1.560, 2.432e-5
-1.561, 2.451e-5
-1.562, 2.470e-5
-1.563, 2.491e-5
-1.564, 2.511e-5
-1.565, 2.531e-5
-1.566, 2.552e-5
-1.567, 2.575e-5
-1.568, 2.597e-5
-1.569, 2.617e-5
-1.570, 2.640e-5
-1.571, 2.667e-5
-1.572, 2.840e-5
-1.573, 2.841e-5
-1.574, 2.815e-5
-1.575, 2.808e-5
-1.576, 2.819e-5
-1.577, 2.838e-5
-1.578, 2.859e-5
-1.579, 2.881e-5
-1.580, 2.903e-5
-1.581, 2.928e-5
-1.582, 2.957e-5
-1.583, 2.985e-5
-1.584, 3.011e-5
-1.585, 3.041e-5
-1.586, 3.068e-5
-1.587, 3.094e-5
-1.588, 3.121e-5
-1.589, 3.151e-5
-1.590, 3.184e-5
-1.591, 3.211e-5
-1.592, 3.242e-5
-1.593, 3.275e-5
-1.594, 3.308e-5
-1.595, 3.342e-5
-1.596, 3.374e-5
-1.597, 3.408e-5
-1.598, 3.443e-5
-1.599, 3.484e-5
-1.600, 3.521e-5
-1.601, 3.562e-5
-1.602, 3.601e-5
-1.603, 3.640e-5
-1.604, 3.679e-5
-1.605, 3.718e-5
-1.606, 3.759e-5
-1.607, 3.798e-5
-1.608, 3.839e-5
-1.609, 3.881e-5
-1.610, 3.925e-5
-1.611, 3.967e-5
-1.612, 4.011e-5
-1.613, 4.056e-5
-1.614, 4.103e-5
-1.615, 4.146e-5
-1.616, 4.189e-5
-1.617, 4.231e-5
-1.618, 4.274e-5
-1.619, 4.322e-5
-1.620, 4.371e-5
-1.621, 4.420e-5
-1.622, 4.469e-5
-1.623, 4.520e-5
-1.624, 4.570e-5
-1.625, 4.627e-5
-1.626, 4.680e-5
-1.627, 4.732e-5
-1.628, 4.785e-5
-1.629, 4.840e-5
-1.630, 4.894e-5
-1.631, 4.949e-5
-1.632, 5.001e-5
-1.633, 5.055e-5
-1.634, 5.112e-5
-1.635, 5.169e-5
-1.636, 5.227e-5
-1.637, 5.287e-5
-1.638, 5.347e-5
-1.639, 5.411e-5
-1.640, 5.474e-5
-1.641, 5.535e-5
-1.642, 5.599e-5
-1.643, 5.665e-5
-1.644, 5.731e-5
-1.645, 5.797e-5
-1.646, 5.863e-5
-1.647, 5.930e-5
-1.648, 5.999e-5
-1.649, 6.069e-5
-1.650, 6.136e-5
-1.651, 6.204e-5
-1.652, 6.275e-5
-1.653, 6.349e-5
-1.654, 6.423e-5
-1.655, 6.497e-5
-1.656, 6.570e-5
-1.657, 6.643e-5
-1.658, 6.721e-5
-1.659, 6.796e-5
-1.660, 6.869e-5
-1.661, 6.945e-5
-1.662, 7.023e-5
-1.663, 7.102e-5
-1.664, 7.186e-5
-1.665, 7.266e-5
-1.666, 7.345e-5
-1.667, 7.428e-5
-1.668, 7.508e-5
-1.669, 7.593e-5
-1.670, 7.679e-5
-1.671, 7.764e-5
-1.672, 7.851e-5
-1.673, 7.940e-5
-1.674, 8.029e-5
-1.675, 8.116e-5
-1.676, 8.208e-5
-1.677, 8.298e-5
-1.678, 8.389e-5
-1.679, 8.480e-5
-1.680, 8.574e-5
-1.681, 8.672e-5
-1.682, 8.771e-5
-1.683, 8.869e-5
-1.684, 8.966e-5
-1.685, 9.060e-5
-1.686, 9.154e-5
-1.687, 9.250e-5
-1.688, 9.345e-5
-1.689, 9.443e-5
-1.690, 9.543e-5
-1.691, 9.635e-5
-1.692, 9.735e-5
-1.693, 9.834e-5
-1.694, 9.929e-5
-1.695, 1.003e-4
-1.696, 1.013e-4
-1.697, 1.023e-4
-1.698, 1.033e-4
-1.699, 1.042e-4
-1.700, 1.052e-4
-1.701, 1.063e-4
-1.702, 1.072e-4
-1.703, 1.083e-4
-1.704, 1.093e-4
-1.705, 1.104e-4
-1.706, 1.114e-4
-1.707, 1.124e-4
-1.708, 1.134e-4
-1.709, 1.145e-4
-1.710, 1.155e-4
-1.711, 1.166e-4
-1.712, 1.176e-4
-1.713, 1.186e-4
-1.714, 1.197e-4
-1.715, 1.207e-4
-1.716, 1.217e-4
-1.717, 1.227e-4
-1.718, 1.237e-4
-1.719, 1.247e-4
-1.720, 1.257e-4
-1.721, 1.268e-4
-1.722, 1.278e-4
-1.723, 1.288e-4
-1.724, 1.299e-4
-1.725, 1.308e-4
-1.726, 1.318e-4
-1.727, 1.328e-4
-1.728, 1.338e-4
-1.729, 1.349e-4
-1.730, 1.359e-4
-1.731, 1.368e-4
-1.732, 1.378e-4
-1.733, 1.389e-4
-1.734, 1.400e-4
-1.735, 1.410e-4
-1.736, 1.419e-4
-1.737, 1.429e-4
-1.738, 1.438e-4
-1.739, 1.448e-4
-1.740, 1.458e-4
-1.741, 1.469e-4
-1.742, 1.479e-4
-1.743, 1.490e-4
-1.744, 1.501e-4
-1.745, 1.512e-4
-1.746, 1.525e-4
-1.747, 1.538e-4
-1.748, 1.551e-4
-1.749, 1.566e-4
-1.750, 1.583e-4
-1.751, 1.598e-4
-1.752, 1.615e-4
-1.753, 1.632e-4
-1.754, 1.649e-4
-1.755, 1.668e-4
-1.756, 1.687e-4
-1.757, 1.707e-4
-1.758, 1.727e-4
-1.759, 1.748e-4
-1.760, 1.770e-4
-1.761, 1.792e-4
-1.762, 1.814e-4
-1.763, 1.838e-4
-1.764, 1.862e-4
-1.765, 1.887e-4
-1.766, 1.912e-4
-1.767, 1.938e-4
-1.768, 1.965e-4
-1.769, 1.992e-4
-1.770, 2.019e-4
-1.771, 2.046e-4
-1.772, 2.075e-4
-1.773, 2.104e-4
-1.774, 2.133e-4
-1.775, 2.164e-4
-1.776, 2.194e-4
-1.777, 2.225e-4
-1.778, 2.256e-4
-1.779, 2.288e-4
-1.780, 2.320e-4
-1.781, 2.352e-4
-1.782, 2.385e-4
-1.783, 2.419e-4
-1.784, 2.453e-4
-1.785, 2.487e-4
-1.786, 2.522e-4
-1.787, 2.557e-4
-1.788, 2.593e-4
-1.789, 2.630e-4
-1.790, 2.667e-4
-1.791, 2.704e-4
-1.792, 2.742e-4
-1.793, 2.781e-4
-1.794, 2.820e-4
-1.795, 2.859e-4
-1.796, 2.899e-4
-1.797, 2.939e-4
-1.798, 2.980e-4
-1.799, 3.021e-4
-1.800, 3.062e-4
-1.801, 3.104e-4
-1.802, 3.146e-4
-1.803, 3.190e-4
-1.804, 3.233e-4
-1.805, 3.276e-4
-1.806, 3.320e-4
-1.807, 3.364e-4
-1.808, 3.409e-4
-1.809, 3.454e-4
-1.810, 3.499e-4
-1.811, 3.545e-4
-1.812, 3.592e-4
-1.813, 3.639e-4
-1.814, 3.686e-4
-1.815, 3.733e-4
-1.816, 3.781e-4
-1.817, 3.829e-4
-1.818, 3.877e-4
-1.819, 3.927e-4
-1.820, 3.977e-4
-1.821, 4.027e-4
-1.822, 4.078e-4
-1.823, 4.129e-4
-1.824, 4.180e-4
-1.825, 4.232e-4
-1.826, 4.284e-4
-1.827, 4.335e-4
-1.828, 4.387e-4
-1.829, 4.441e-4
-1.830, 4.495e-4
-1.831, 4.549e-4
-1.832, 4.603e-4
-1.833, 4.657e-4
-1.834, 4.712e-4
-1.835, 4.767e-4
-1.836, 4.822e-4
-1.837, 4.878e-4
-1.838, 4.934e-4
-1.839, 4.991e-4
-1.840, 5.048e-4
-1.841, 5.105e-4
-1.842, 5.164e-4
-1.843, 5.222e-4
-1.844, 5.281e-4
-1.845, 5.341e-4
-1.846, 5.400e-4
-1.847, 5.459e-4
-1.848, 5.520e-4
-1.849, 5.581e-4
-1.850, 5.642e-4
-1.851, 5.704e-4
-1.852, 5.766e-4
-1.853, 5.828e-4
-1.854, 5.890e-4
-1.855, 5.952e-4
-1.856, 6.015e-4
-1.857, 6.078e-4
-1.858, 6.142e-4
-1.859, 6.207e-4
-1.860, 6.270e-4
-1.861, 6.334e-4
-1.862, 6.398e-4
-1.863, 6.463e-4
-1.864, 6.529e-4
-1.865, 6.595e-4
-1.866, 6.661e-4
-1.867, 6.726e-4
-1.868, 6.792e-4
-1.869, 6.858e-4
-1.870, 6.926e-4
-1.871, 6.992e-4
-1.872, 7.060e-4
-1.873, 7.128e-4
-1.874, 7.197e-4
-1.875, 7.266e-4
-1.876, 7.335e-4
-1.877, 7.404e-4
-1.878, 7.474e-4
-1.879, 7.544e-4
-1.880, 7.614e-4
-1.881, 7.684e-4
-1.882, 7.755e-4
-1.883, 7.828e-4
-1.884, 7.900e-4
-1.885, 7.972e-4
-1.886, 8.045e-4
-1.887, 8.117e-4
-1.888, 8.189e-4
-1.889, 8.260e-4
-1.890, 8.333e-4
-1.891, 8.407e-4
-1.892, 8.481e-4
-1.893, 8.555e-4
-1.894, 8.629e-4
-1.895, 8.704e-4
-1.896, 8.779e-4
-1.897, 8.854e-4
-1.898, 8.929e-4
-1.899, 9.006e-4
-1.900, 9.082e-4
-1.901, 9.158e-4
-1.902, 9.234e-4
-1.903, 9.312e-4
-1.904, 9.389e-4
-1.905, 9.466e-4
-1.906, 9.543e-4
-1.907, 9.620e-4
-1.908, 9.698e-4
-1.909, 9.776e-4
-1.910, 9.856e-4
-1.911, 9.936e-4
-1.912, 1.002e-3
-1.913, 1.009e-3
-1.914, 1.011e-3
-1.915, 1.011e-3
-1.916, 1.011e-3
-1.917, 1.011e-3
-1.918, 1.011e-3
-1.919, 1.011e-3
-1.920, 1.011e-3
-1.921, 1.011e-3
-1.922, 1.011e-3
-1.923, 1.011e-3
-1.924, 1.011e-3
-1.925, 1.011e-3
-1.926, 1.011e-3
-1.927, 1.011e-3
-1.928, 1.011e-3
-1.929, 1.011e-3
-1.930, 1.011e-3
-1.931, 1.011e-3
-1.932, 1.011e-3
-1.933, 1.011e-3
-1.934, 1.011e-3
-1.935, 1.011e-3
-1.936, 1.011e-3
-1.937, 1.011e-3
-1.938, 1.011e-3
-1.939, 1.011e-3
-1.940, 1.011e-3
-1.941, 1.011e-3
-1.942, 1.011e-3
-1.943, 1.011e-3
-1.944, 1.011e-3
-1.945, 1.011e-3
-1.946, 1.011e-3
-1.947, 1.011e-3
-1.948, 1.011e-3
-1.949, 1.011e-3
-1.950, 1.011e-3
-1.951, 1.011e-3
-1.952, 1.011e-3
-1.953, 1.011e-3
-1.954, 1.011e-3
-1.955, 1.011e-3
-1.956, 1.011e-3
-1.957, 1.011e-3
-1.958, 1.011e-3
-1.959, 1.011e-3
-1.960, 1.011e-3
-1.961, 1.011e-3
-1.962, 1.011e-3
-1.963, 1.011e-3
-1.964, 1.011e-3
-1.965, 1.011e-3
-1.966, 1.011e-3
-1.967, 1.011e-3
-1.968, 1.011e-3
-1.969, 1.011e-3
-1.970, 1.011e-3
-1.971, 1.011e-3
-1.972, 1.011e-3
-1.973, 1.011e-3
-1.974, 1.011e-3
-1.975, 1.011e-3
-1.976, 1.011e-3
-1.977, 1.011e-3
-1.978, 1.011e-3
-1.979, 1.011e-3
-1.980, 1.011e-3
-1.981, 1.011e-3
-1.982, 1.011e-3
-1.983, 1.011e-3
-1.984, 1.011e-3
-1.985, 1.011e-3
-1.986, 1.011e-3
-1.987, 1.011e-3
-1.988, 1.011e-3
-1.989, 1.011e-3
-1.990, 1.011e-3
-1.991, 1.011e-3
-1.992, 1.011e-3
-1.993, 1.011e-3
-1.994, 1.011e-3
-1.995, 1.011e-3
-1.996, 1.011e-3
-1.997, 1.011e-3
-1.998, 1.011e-3
-1.999, 1.011e-3
-2.000, 1.011e-3
-2.001, 1.011e-3
-2.002, 1.011e-3
-2.003, 1.011e-3
-2.004, 1.011e-3
-2.005, 1.011e-3
-2.006, 1.011e-3
-2.007, 1.011e-3
-2.008, 1.011e-3
-2.009, 1.011e-3
-2.010, 1.011e-3
-2.011, 1.011e-3
-2.012, 1.011e-3
-2.013, 1.011e-3
-2.014, 1.011e-3
-2.015, 1.011e-3
-2.016, 1.011e-3
-2.017, 1.011e-3
-2.018, 1.011e-3
-2.019, 1.011e-3
-2.020, 1.011e-3
-2.021, 1.011e-3
-2.022, 1.011e-3
-2.023, 1.011e-3
-2.024, 1.011e-3
-2.025, 1.011e-3
-2.026, 1.011e-3
-2.027, 1.011e-3
-2.028, 1.011e-3
-2.029, 1.011e-3
-2.030, 1.011e-3
-2.031, 1.011e-3
-2.032, 1.011e-3
-2.033, 1.011e-3
-2.034, 1.011e-3
-2.035, 1.011e-3
-2.036, 1.011e-3
-2.037, 1.011e-3
-2.038, 1.011e-3
-2.039, 1.011e-3
-2.040, 1.011e-3
-2.041, 1.011e-3
-2.042, 1.011e-3
-2.043, 1.011e-3
-2.044, 1.011e-3
-2.045, 1.011e-3
-2.046, 1.011e-3
-2.047, 1.011e-3
-2.048, 1.011e-3
-2.049, 1.011e-3
-2.050, 1.011e-3
-2.051, 1.011e-3
-2.052, 1.011e-3
-2.053, 1.011e-3
-2.054, 1.011e-3
-2.055, 1.011e-3
-2.056, 1.011e-3
-2.057, 1.011e-3
-2.058, 1.011e-3
-2.059, 1.011e-3
-2.060, 1.011e-3
-2.061, 1.011e-3
-2.062, 1.011e-3
-2.063, 1.011e-3
-2.064, 1.011e-3
-2.065, 1.011e-3
-2.066, 1.011e-3
-2.067, 1.011e-3
-2.068, 1.011e-3
-2.069, 1.011e-3
-2.070, 1.011e-3
-2.071, 1.011e-3
-2.072, 1.011e-3
-2.073, 1.011e-3
-2.074, 1.011e-3
-2.075, 1.011e-3
-2.076, 1.011e-3
-2.077, 1.011e-3
-2.078, 1.011e-3
-2.079, 1.011e-3
-2.080, 1.011e-3
-2.081, 1.011e-3
-2.082, 1.011e-3
-2.083, 1.011e-3
-2.084, 1.011e-3
-2.085, 1.011e-3
-2.086, 1.011e-3
-2.087, 1.011e-3
-2.088, 1.011e-3
-2.089, 1.011e-3
-2.090, 1.011e-3
-2.091, 1.011e-3
-2.092, 1.011e-3
-2.093, 1.011e-3
-2.094, 1.011e-3
-2.095, 1.011e-3
-2.096, 1.011e-3
-2.097, 1.011e-3
-2.098, 1.011e-3
-2.099, 1.011e-3
