Potential V vs RHE, Current mA cm-2
0.013299999999999867,2.864790382226699
0.012299999999999978,1.4868615761581534
0.011299999999999866,0.10903179988059837
0.010299999999999976,-1.3135594419246865
0.009299999999999864,-2.263538079784059
0.008299999999999974,-3.0982177467044303
0.007299999999999862,-4.174813045901724
0.006299999999999972,-4.968466085126009
0.00529999999999986,-5.483420998276882
0.0042999999999999705,-6.294050573099549
0.0032999999999998586,-7.049506407227478
0.0022999999999999687,-7.418746056492251
0.0012999999999998568,-7.970483463439617
0.00029999999999996696,-8.67076555687281
-0.000700000000000145,-9.004637423640958
-0.0017000000000000348,-9.339924001708972
-0.0027000000000001467,-9.983617643147563
-0.0037000000000000366,-10.399542765307885
-0.0047000000000001485,-10.563649276092228
-0.005700000000000038,-11.082848323142695
-0.00670000000000015,-11.57516785549573
-0.00770000000000004,-11.70673600638318
-0.008700000000000152,-12.044852007050922
-0.009700000000000042,-12.589515857498961
-0.010700000000000154,-12.784746016880337
-0.011700000000000044,-12.964414351963198
-0.012700000000000156,-13.470880997314879
-0.013700000000000045,-13.752408545988024
-0.014700000000000157,-13.828802956180734
-0.015700000000000047,-14.231995676642269
-0.01670000000000016,-14.642261953603128
-0.01770000000000005,-14.69885040559773
-0.01870000000000016,-14.953498439573437
-0.01970000000000005,-15.43450028152755
-0.020700000000000163,-15.575971411514052
-0.021700000000000053,-15.70329542850191
-0.022700000000000164,-16.170150157457368
-0.023700000000000054,-16.410651078434423
-0.024700000000000166,-16.453092417430376
-0.025700000000000056,-16.835064468393938
-0.026700000000000168,-17.188742293360193
-0.027700000000000058,-17.217036519357496
-0.02870000000000017,-17.4433903273359
-0.02970000000000006,-17.910245056291366
-0.03070000000000017,-18.02342196028057
-0.03170000000000006,-18.13659886426977
-0.03270000000000017,-18.603453593225233
-0.03370000000000006,-18.815660288204988
-0.034700000000000175,-18.858101627200938
-0.035700000000000065,-19.25422079116315
-0.03670000000000018,-19.622045729128057
-0.03770000000000007,-19.65033995512536
-0.03870000000000018,-19.890840876102416
-0.03970000000000007,-20.34354849205923
-0.04070000000000018,-20.44257828304978
-0.04170000000000007,-20.555755187038983
-0.04270000000000018,-21.008462802995794
-0.04370000000000007,-21.2631108369715
-0.044700000000000184,-21.277257949970153
-0.045700000000000074,-21.63093577493641
-0.046700000000000186,-21.99876071290132
-0.047700000000000076,-22.055349164895922
-0.04870000000000019,-22.295850085872978
-0.04970000000000008,-22.748557701829792
-0.05070000000000019,-22.861734605818995
-0.05170000000000008,-22.989058622806844
-0.05270000000000019,-23.45591335176231
-0.05370000000000008,-23.696414272739364
-0.05470000000000019,-23.724708498736668
-0.05570000000000008,-24.106680549700226
-0.056700000000000195,-24.502799713662437
-0.057700000000000085,-24.516946826661083
-0.058700000000000196,-24.771594860636792
-0.059700000000000086,-25.238449589592253
-0.0607000000000002,-25.309185154585506
-0.06170000000000009,-25.42236205857471
-0.0627000000000002,-25.875069674531517
-0.06370000000000009,-26.087276369511276
-0.0647000000000002,-26.11557059550858
-0.06570000000000009,-26.483395533473487
-0.0667000000000002,-26.822926245441096
-0.0677000000000001,-26.837073358439746
-0.0687000000000002,-27.049280053419505
-0.0697000000000001,-27.487840556377662
-0.07070000000000021,-27.62931168636417
-0.0717000000000001,-27.728341477354718
-0.07270000000000021,-28.15275486731423
-0.0737000000000001,-28.393255788291288
-0.07470000000000021,-28.393255788291288
-0.0757000000000001,-28.746933613257543
-0.07670000000000021,-29.128905664221104
-0.0777000000000001,-29.157199890218404
-0.07870000000000021,-29.369406585198163
-0.0797000000000001,-29.80796708815632
-0.08070000000000022,-29.892849766148224
-0.0817000000000001,-30.02017378313608
-0.08270000000000022,-30.45873428609424
-0.08370000000000011,-30.699235207071297
-0.08470000000000022,-30.699235207071297
-0.08570000000000011,-31.052913032037555
-0.08670000000000022,-31.420737970002463
-0.08770000000000011,-31.434885083001117
-0.08870000000000022,-31.661238890979522
-0.08970000000000011,-32.08565228093904
-0.09070000000000022,-32.170534958930936
-0.09170000000000011,-32.269564749921486
-0.09270000000000023,-32.70812525287965
-0.09370000000000012,-32.9486261738567
-0.09470000000000023,-32.9486261738567
-0.09570000000000012,-33.274009772825664
-0.09670000000000023,-33.627687597791926
-0.09770000000000012,-33.655981823789226
-0.09870000000000023,-33.88233563176763
-0.09970000000000012,-34.306749021727136
-0.10070000000000023,-34.377484586720385
-0.10170000000000012,-34.44822015171364
-0.10270000000000024,-34.8867806546718
-0.10370000000000013,-35.11313446265021
-0.10470000000000024,-35.11313446265021
-0.10570000000000013,-35.43851806161916
-0.10670000000000024,-35.763901660588125
-0.10770000000000013,-35.778048773586775
-0.10870000000000024,-36.00440258156518
-0.10970000000000013,-36.4288159715247
-0.11070000000000024,-36.52784576251525
-0.11170000000000013,-36.5985813275085
-0.11270000000000002,-37.02299471746801
-0.11370000000000013,-37.26349563844507
-0.11470000000000002,-37.26349563844507
-0.11570000000000014,-37.631320576409976
-0.11670000000000003,-37.99914551437489
-0.11770000000000014,-37.98499840137623
-0.11870000000000003,-38.211352209354644
-0.11970000000000014,-38.6499127123128
-0.12070000000000003,-38.74894250330336
-0.12170000000000014,-38.81967806829661
-0.12270000000000003,-39.229944345257465
-0.12370000000000014,-39.47044526623452
-0.12470000000000003,-39.49873949223183
-0.12570000000000014,-39.83827020419943
-0.12670000000000003,-40.191948029165694
-0.12770000000000015,-40.191948029165694
-0.12870000000000004,-40.4183018371441
-0.12970000000000015,-40.88515656609956
-0.13070000000000004,-40.97003924409146
-0.13170000000000015,-41.06906903508202
-0.13270000000000004,-41.50762953804018
-0.13370000000000015,-41.74813045901723
-0.13470000000000004,-41.77642468501453
-0.13570000000000015,-42.115955396982145
-0.13670000000000004,-42.497927447945706
-0.13770000000000016,-42.554515899940306
-0.13870000000000005,-42.78086970791871
-0.13970000000000016,-43.24772443687417
-0.14070000000000005,-43.34675422786472
-0.14170000000000016,-43.474078244852585
-0.14270000000000005,-43.92678586080939
-0.14370000000000016,-44.16728678178645
-0.14470000000000005,-44.223875233781044
-0.14570000000000016,-44.619994397743255
-0.14670000000000005,-45.00196644870681
-0.14770000000000016,-45.05855490070142
-0.14870000000000005,-45.31320293467712
-0.14970000000000017,-45.82249900262854
-0.15070000000000006,-45.963970132615046
-0.15170000000000017,-46.119588375600195
-0.15270000000000006,-46.60059021755431
-0.15370000000000017,-46.89767959052597
-0.15470000000000006,-46.94012092952192
-0.15570000000000017,-47.350387206482786
-0.15670000000000006,-47.77480059644228
-0.15770000000000017,-47.83138904843689
-0.15870000000000006,-48.114331308409895
-0.15970000000000018,-48.581186037365356
-0.16070000000000007,-48.75095139334916
-0.16170000000000018,-48.90656963633432
-0.16270000000000007,-49.40171859128708
-0.16370000000000018,-49.71295507725739
-0.16470000000000007,-49.81198486824794
-0.16570000000000018,-50.23639825820745
-0.16670000000000007,-50.66081164816696
-0.16770000000000018,-50.73154721316022
-0.16870000000000007,-51.014489473133224
-0.16970000000000018,-51.52378554108463
-0.17070000000000007,-51.69355089706845
-0.17170000000000019,-51.83502202705494
-0.17270000000000008,-52.37261232100366
-0.1737000000000002,-52.69799591997262
-0.17470000000000008,-52.75458437196722
-0.1757000000000002,-53.19314487492538
-0.17670000000000008,-53.64585249088219
-0.1777000000000002,-53.75902939487139
-0.17870000000000008,-54.070265880841696
-0.1797000000000002,-54.60785617479041
-0.18070000000000008,-54.77762153077422
-0.1817000000000002,-54.933239773759375
-0.18270000000000008,-55.470830067708086
-0.1837000000000002,-55.82450789267435
-0.1847000000000001,-55.93768479666355
-0.1857000000000002,-56.37624529962171
-0.1867000000000001,-56.857247141575826
-0.1877000000000002,-57.012865384560975
-0.1887000000000001,-57.32410187053129
-0.1897000000000002,-57.889986390477304
-0.1907000000000001,-58.10219308545706
-0.1917000000000001,-58.31439978043681
-0.19269999999999998,-58.83784296138688
-0.1937000000000001,-59.16322656035583
-0.19469999999999998,-59.24810923834774
-0.1957000000000001,-59.7432581933005
-0.19669999999999999,-60.23840714825326
-0.1977000000000001,-60.33743693924381
-0.1987,-60.63452631221547
-0.1997000000000001,-61.14382238016689
-0.2007,-61.384323301143944
-0.2017000000000001,-61.6814126741156
-0.2027,-62.233150081062966
-0.2037000000000001,-62.51609234103597
-0.2047,-62.58682790602922
-0.2057000000000001,-63.01124129598873
-0.2067,-63.57712581593475
-0.2077000000000001,-63.81762673691181
-0.2087,-64.10056899688482
-0.2097000000000001,-64.55327661284163
-0.2107,-64.70889485582677
-0.2117000000000001,-65.00598422879844
-0.2127,-65.61431008774039
-0.2137000000000001,-65.91139946071206
-0.2147,-65.95384079970802
-0.2157000000000001,-66.44898975466076
-0.2167,-66.94413870961354
-0.21770000000000012,-67.04316850060408
-0.2187,-67.2978165345798
-0.21970000000000012,-67.84955394152715
-0.2207,-68.06176063650692
-0.22170000000000012,-68.23152599249072
-0.2227,-68.71252783444483
-0.22370000000000012,-69.0096172074165
-0.2247,-69.151088337403
-0.22570000000000012,-69.58964884036115
-0.2267,-69.98576800432336
-0.22770000000000012,-70.07065068231528
-0.22870000000000001,-70.36774005528693
-0.22970000000000013,-70.93362457523294
-0.23070000000000002,-71.1458312702127
-0.23170000000000013,-71.32974373919515
-0.23270000000000002,-71.8531869201452
-0.23370000000000013,-72.17857051911416
-0.23470000000000002,-72.26345319710607
-0.23570000000000013,-72.65957236106827
-0.23670000000000002,-73.09813286402644
-0.2376999999999999,-73.2254568810143
-0.23870000000000002,-73.53669336698461
-0.2396999999999999,-74.07428366093333
-0.24070000000000003,-74.25819612991579
-0.24169999999999991,-74.41381437290093
-0.24270000000000003,-74.93725755385098
-0.24369999999999992,-75.2484940398213
-0.24470000000000003,-75.29093537881725
-0.24569999999999992,-75.7012016557781
-0.24670000000000003,-76.11146793273898
-0.24769999999999992,-76.18220349773222
-0.24870000000000003,-76.43685153170793
-0.24969999999999992,-76.94614759965934
-0.25070000000000003,-77.1583542946391
-0.2516999999999999,-77.2715311986283
-0.25270000000000004,-77.65350324959186
-0.2536999999999999,-77.90815128356756
-0.25470000000000004,-78.00718107455812
-0.2556999999999999,-78.40330023852034
-0.25670000000000004,-78.77112517648524
-0.25769999999999993,-78.71453672449066
-0.25870000000000004,-78.84186074147848
-0.25969999999999993,-79.33700969643127
-0.26070000000000004,-79.4643337134191
-0.26169999999999993,-79.4643337134191
-0.26270000000000004,-79.84630576438266
-0.26369999999999993,-80.04436534636378
-0.26470000000000005,-80.05851245936242
-0.26569999999999994,-80.39804317133003
-0.26670000000000005,-80.76586810929494
-0.26769999999999994,-80.90733923928146
-0.26870000000000005,-81.11954593426121
-0.26969999999999994,-81.48737087222611
-0.27070000000000005,-81.50151798522475
-0.27169999999999994,-81.55810643721937
-0.27270000000000005,-82.08154961816942
-0.27369999999999994,-82.32205053914649
-0.27470000000000006,-82.22302074815593
-0.27569999999999995,-82.54840434712489
-0.27670000000000006,-82.94452351108711
-0.27769999999999995,-83.0011119630817
-0.27870000000000006,-83.1708773190655
-0.27969999999999995,-83.51040803103311
-0.28070000000000006,-83.51040803103311
-0.28169999999999995,-83.55284937002907
-0.28270000000000006,-83.94896853399128
-0.28369999999999995,-84.17532234196969
-0.28470000000000006,-84.13288100297372
-0.28569999999999995,-84.35923481095215
-0.28670000000000007,-84.58558861893054
-0.28769999999999996,-84.5148530539373
-0.28870000000000007,-84.6563241839238
-0.28969999999999996,-84.95341355689546
-0.29070000000000007,-84.9109722178995
-0.29169999999999996,-84.86853087890354
-0.29270000000000007,-85.12317891287925
-0.29369999999999996,-85.2222087038698
-0.2947000000000001,-85.15147313887655
-0.29569999999999996,-85.33538560785901
-0.2967000000000001,-85.53344518984011
-0.29769999999999996,-85.34953272085767
-0.2987000000000001,-85.39197405985361
-0.29969999999999997,-85.67491631982661
-0.3007000000000001,-85.59003364183472
-0.30169999999999997,-85.49100385084417
-0.3027000000000001,-85.73150477182124
-0.30369999999999997,-85.73150477182124
-0.3047000000000001,-85.61832786783202
-0.30569999999999997,-85.83053456281178
-0.3067000000000001,-85.94371146680098
-0.3077,-85.71735765882258
-0.3087000000000001,-85.77394611081716
-0.3097,-86.04274125779153
-0.3107000000000001,-85.91541724080368
-0.3117,-85.74565188481988
-0.3127000000000001,-85.98615280579692
-0.3137,-85.94371146680098
-0.3147000000000001,-85.63247498083066
-0.3157,-85.73150477182124
-0.3167000000000001,-85.90127012780503
-0.3177,-85.64662209382932
-0.3187000000000001,-85.63247498083066
-0.3197,-86.02859414479288
-0.3207000000000001,-86.07103548378883
-0.3217,-85.56173941583742
-0.3227000000000001,-85.29294426886305
-0.3237,-85.36367983385631
-0.3247000000000001,-85.49100385084417
-0.3257,-85.56173941583742
-0.3267000000000001,-85.36367983385631
-0.3277,-84.96756066989411
-0.3287000000000001,-85.01000200889004
-0.3297,-85.09488468688197
-0.3307000000000001,-84.64217707092514
-0.3317,-84.20361656796698
-0.3327000000000001,-84.21776368096563
-0.3337,-84.18946945496833
-0.3347000000000001,-83.89238008199668
-0.3357,-83.73676183901152
-0.3367000000000001,-83.59529070902502
-0.3377,-83.28405422305471
-0.3387000000000001,-83.12843598006955
-0.3397,-83.1991715450628
-0.3407000000000001,-83.14258309306821
-0.3417,-82.87378794609386
-0.3427000000000001,-82.8596408330952
-0.3437,-82.60499279911949
-0.3447000000000001,-82.18057940915998
-0.3457,-82.23716786115457
-0.3467000000000001,-82.23716786115457
-0.3477,-81.88349003618832
-0.3487000000000001,-81.71372468020452
-0.3497,-81.74201890620182
-0.3507000000000001,-81.48737087222611
-0.3517,-81.16198727325715
-0.3527000000000001,-81.1761343862558
-0.3537,-81.03466325626928
-0.3547000000000001,-80.65269120530574
-0.3557,-80.66683831830439
-0.35670000000000013,-80.62439697930844
-0.3577,-80.24242492834487
-0.35870000000000013,-80.10095379835838
-0.3597,-80.18583647635029
-0.36070000000000013,-79.95948266837188
-0.3617,-79.70483463439616
-0.3626999999999999,-79.7755701993894
-0.3637,-79.64824618240156
-0.3646999999999999,-79.33700969643127
-0.3657,-79.37945103542721
-0.3666999999999999,-79.43603948742181
-0.3677,-79.1530972274488
-0.3686999999999999,-79.06821454945691
-0.36970000000000003,-79.20968567944341
-0.3706999999999999,-79.05406743645825
-0.37170000000000003,-78.8984491934731
-0.3726999999999999,-79.0399203234596
-0.37370000000000003,-78.983331871465
-0.3746999999999999,-78.77112517648524
-0.37570000000000003,-78.91259630647174
-0.3766999999999999,-79.02577321046095
-0.37770000000000004,-78.79941940248254
-0.3786999999999999,-78.7852722894839
-0.37970000000000004,-78.983331871465
-0.3806999999999999,-78.85600785447714
-0.38170000000000004,-78.7569780634866
-0.38269999999999993,-79.06821454945691
-0.38370000000000004,-79.1530972274488
-0.38469999999999993,-78.983331871465
-0.38570000000000004,-79.1248030014515
-0.38669999999999993,-77.73838592758376
-0.38570000000000004,-74.37137303390499
-0.38469999999999993,-71.5136562081776
-0.38370000000000004,-69.0096172074165
-0.38269999999999993,-66.34995996367022
-0.38170000000000004,-63.8459209629091
-0.3806999999999999,-61.87947225609671
-0.37970000000000004,-59.828140871292405
-0.3786999999999999,-57.57874990450699
-0.37770000000000004,-55.7254781016838
-0.3766999999999999,-53.971236089851146
-0.37570000000000003,-51.990640270040096
-0.3746999999999999,-50.2788395972034
-0.37370000000000003,-48.82168695834242
-0.3726999999999999,-47.095739172507066
-0.37170000000000003,-45.39808561266902
-0.3706999999999999,-44.138992555789144
-0.36970000000000003,-42.681839916928155
-0.3686999999999999,-41.02662769608606
-0.3677,-39.79582886520348
-0.3666999999999999,-38.63576559931415
-0.3657,-37.164465847454515
-0.3646999999999999,-35.87707856457733
-0.3637,-34.84433931567585
-0.3626999999999999,-33.55695203279867
-0.3617,-32.283711862920136
-0.36070000000000013,-31.350002405009217
-0.3597,-30.260674704113132
-0.35870000000000013,-28.959140308237306
-0.3577,-28.082019302320973
-0.35670000000000013,-27.204898296404657
-0.3557,-25.988246578520723
-0.3547000000000001,-25.026242894612498
-0.3537,-24.31888724467998
-0.3527000000000001,-23.286147995778503
-0.3517,-22.267555859875678
-0.3507000000000001,-21.58849443594046
-0.3497,-20.75381476902009
-0.3487000000000001,-19.69278129412131
-0.3477,-18.999572757187444
-0.3467000000000001,-18.334658446250877
-0.3457,-17.358507649344002
-0.3447000000000001,-16.59456354741688
-0.3437,-16.071120366466815
-0.3427000000000001,-15.208146473549144
-0.3417,-14.359319693630123
-0.3407000000000001,-13.868414872576954
-0.3397,-13.195012293841197
-0.3387000000000001,-12.31930599922474
-0.3377,-11.787374550475485
-0.3367000000000001,-11.271004926024748
-0.3357,-10.432081125204782
-0.3347000000000001,-9.818096421063354
-0.3337,-9.43753908139966
-0.3327000000000001,-8.71320689586876
-0.3317,-8.000192400736783
-0.3307000000000001,-7.649343998370253
-0.3297,-7.099021302722755
-0.3287000000000001,-6.322344799096849
-0.3277,-5.921981501235043
-0.3267000000000001,-5.538594738971618
-0.3257,-4.814262553440719
-0.3247000000000001,-4.290819372490656
-0.3237,-4.003632978618054
-0.3227000000000001,-3.3953071196760884
-0.3217,-2.794054817233447
-0.3207000000000001,-2.5196008250596305
-0.3197,-2.0782108995017388
-0.3187000000000001,-1.387548842907628
-0.3177,-1.0790003084070634
-0.3167000000000001,-0.7803547530055542
-0.3157,-0.12446630016212593
-0.3147000000000001,0.3108120725803486
-0.3137,0.5080228277815346
-0.3127000000000001,1.0511304957997225
-0.3117,1.5745736767497858
-0.3107000000000001,1.7655597022315657
-0.3097,2.151775887094721
-0.3087000000000001,2.7516134782374966
-0.3077,3.004846800913338
-0.3067000000000001,3.2340300314914736
-0.30569999999999997,3.819720509635599
-0.3047000000000001,4.194619004099834
-0.30369999999999997,4.321943021087687
-0.3027000000000001,4.801530151741935
-0.30169999999999997,5.281117282396182
-0.3007000000000001,5.41834427848309
-0.29969999999999997,5.756460279150835
-0.2987000000000001,6.2954652843994126
-0.29769999999999996,6.500598422879844
-0.2967000000000001,6.697243293561083
-0.29569999999999996,7.216442340611552
-0.2947000000000001,7.553143629979432
-0.29369999999999996,7.6337821740717375
-0.29270000000000007,8.07517209962963
-0.29169999999999996,8.532123849486036
-0.29070000000000007,8.624080083977264
-0.28969999999999996,8.92116945694892
-0.28870000000000007,9.429050813600469
-0.28769999999999996,9.590327901785084
-0.28670000000000007,9.753019701269562
-0.28569999999999995,10.249583367522192
-0.28470000000000006,10.550916874393444
-0.28369999999999995,10.61174946028764
-0.28270000000000006,11.014942180749173
-0.28169999999999995,11.430867302909498
-0.28070000000000006,11.495944022703288
-0.27969999999999995,11.766153880977509
-0.27870000000000006,12.268376392429598
-0.27769999999999995,12.397115120717316
-0.27670000000000006,12.517365581205844
-0.27569999999999995,12.992708577960498
-0.27470000000000006,13.269991992734044
-0.27369999999999994,13.318092176929456
-0.27270000000000005,13.708552495692206
-0.27169999999999994,14.09759810315509
-0.27070000000000005,14.161260111649016
-0.26969999999999994,14.401761032626075
-0.26870000000000005,14.854468648582884
-0.26769999999999994,14.995939778569388
-0.26670000000000005,15.137410908555893
-0.26569999999999994,15.590118524512702
-0.26470000000000005,15.858913671487063
-0.26369999999999993,15.87306078448571
