Mar. 6, 2025   06:28:45
Cyclic Voltammetry
File: c:/users/guazh/data/banditlqround7_x0exp169_r20_3/2025-03-03-exp885\exp885-2025-03-06t06_19_38-h2koh\exp885_cv_sr_50mvs_efin_-1500mv.bin
Data Source:  Experiment
Instrument Model:  CHI760E
Header: CV ran at 50 mVs
Note: 

Init E (V) = -1
High E (V) = -1
Low E (V) = -1.5
Final E (V) = -1
Init P/N = N
Scan Rate (V/s) = 0.05
Segment = 3
Sample Interval (V) = 0.001
Quiet Time (sec) = 2
Sensitivity (A/V) = 0.01
Comp R (ohm) = 1.3

Results:

Channel 1:
Segment 1:
Ep = -1.345V
ip = 4.926e-3A
Ah = 6.925e-3C

Segment 2:

Segment 3:

Potential/V, Current/A

-1.000, -1.687e-3
-1.001, -1.626e-3
-1.002, -1.568e-3
-1.003, -1.515e-3
-1.004, -1.467e-3
-1.005, -1.423e-3
-1.006, -1.383e-3
-1.007, -1.349e-3
-1.008, -1.303e-3
-1.009, -1.255e-3
-1.010, -1.223e-3
-1.011, -1.189e-3
-1.012, -1.150e-3
-1.013, -1.117e-3
-1.014, -1.084e-3
-1.015, -1.048e-3
-1.016, -1.010e-3
-1.017, -9.820e-4
-1.018, -9.545e-4
-1.019, -9.299e-4
-1.020, -8.995e-4
-1.021, -8.685e-4
-1.022, -8.436e-4
-1.023, -8.206e-4
-1.024, -7.943e-4
-1.025, -7.686e-4
-1.026, -7.410e-4
-1.027, -7.140e-4
-1.028, -6.918e-4
-1.029, -6.695e-4
-1.030, -6.493e-4
-1.031, -6.236e-4
-1.032, -6.006e-4
-1.033, -5.819e-4
-1.034, -5.600e-4
-1.035, -5.375e-4
-1.036, -5.171e-4
-1.037, -4.969e-4
-1.038, -4.800e-4
-1.039, -4.598e-4
-1.040, -4.370e-4
-1.041, -4.187e-4
-1.042, -4.012e-4
-1.043, -3.830e-4
-1.044, -3.664e-4
-1.045, -3.487e-4
-1.046, -3.305e-4
-1.047, -3.130e-4
-1.048, -2.964e-4
-1.049, -2.797e-4
-1.050, -2.616e-4
-1.051, -2.450e-4
-1.052, -2.287e-4
-1.053, -2.120e-4
-1.054, -1.963e-4
-1.055, -1.803e-4
-1.056, -1.639e-4
-1.057, -1.479e-4
-1.058, -1.331e-4
-1.059, -1.185e-4
-1.060, -1.037e-4
-1.061, -8.850e-5
-1.062, -7.330e-5
-1.063, -5.892e-5
-1.064, -4.487e-5
-1.065, -3.076e-5
-1.066, -1.631e-5
-1.067, -2.330e-6
-1.068, 1.152e-5
-1.069, 2.508e-5
-1.070, 3.898e-5
-1.071, 5.296e-5
-1.072, 6.646e-5
-1.073, 7.937e-5
-1.074, 9.249e-5
-1.075, 1.063e-4
-1.076, 1.191e-4
-1.077, 1.320e-4
-1.078, 1.445e-4
-1.079, 1.573e-4
-1.080, 1.690e-4
-1.081, 1.824e-4
-1.082, 1.948e-4
-1.083, 2.069e-4
-1.084, 2.184e-4
-1.085, 2.298e-4
-1.086, 2.427e-4
-1.087, 2.550e-4
-1.088, 2.661e-4
-1.089, 2.782e-4
-1.090, 2.894e-4
-1.091, 3.032e-4
-1.092, 3.119e-4
-1.093, 3.231e-4
-1.094, 3.361e-4
-1.095, 3.469e-4
-1.096, 3.565e-4
-1.097, 3.693e-4
-1.098, 3.797e-4
-1.099, 3.899e-4
-1.100, 4.006e-4
-1.101, 4.118e-4
-1.102, 4.228e-4
-1.103, 4.334e-4
-1.104, 4.436e-4
-1.105, 4.540e-4
-1.106, 4.657e-4
-1.107, 4.726e-4
-1.108, 4.846e-4
-1.109, 4.941e-4
-1.110, 5.063e-4
-1.111, 5.170e-4
-1.112, 5.228e-4
-1.113, 5.362e-4
-1.114, 5.470e-4
-1.115, 5.542e-4
-1.116, 5.669e-4
-1.117, 5.785e-4
-1.118, 5.880e-4
-1.119, 5.949e-4
-1.120, 6.035e-4
-1.121, 6.152e-4
-1.122, 6.252e-4
-1.123, 6.356e-4
-1.124, 6.474e-4
-1.125, 6.546e-4
-1.126, 6.669e-4
-1.127, 6.770e-4
-1.128, 6.856e-4
-1.129, 6.935e-4
-1.130, 7.033e-4
-1.131, 7.142e-4
-1.132, 7.252e-4
-1.133, 7.364e-4
-1.134, 7.382e-4
-1.135, 7.478e-4
-1.136, 7.601e-4
-1.137, 7.706e-4
-1.138, 7.793e-4
-1.139, 7.867e-4
-1.140, 7.982e-4
-1.141, 8.049e-4
-1.142, 8.186e-4
-1.143, 8.286e-4
-1.144, 8.298e-4
-1.145, 8.403e-4
-1.146, 8.538e-4
-1.147, 8.633e-4
-1.148, 8.729e-4
-1.149, 8.821e-4
-1.150, 8.898e-4
-1.151, 9.011e-4
-1.152, 9.120e-4
-1.153, 9.215e-4
-1.154, 9.315e-4
-1.155, 9.410e-4
-1.156, 9.511e-4
-1.157, 9.623e-4
-1.158, 9.705e-4
-1.159, 9.792e-4
-1.160, 9.910e-4
-1.161, 1.002e-3
-1.162, 1.014e-3
-1.163, 1.027e-3
-1.164, 1.035e-3
-1.165, 1.045e-3
-1.166, 1.059e-3
-1.167, 1.069e-3
-1.168, 1.081e-3
-1.169, 1.091e-3
-1.170, 1.104e-3
-1.171, 1.113e-3
-1.172, 1.126e-3
-1.173, 1.143e-3
-1.174, 1.156e-3
-1.175, 1.176e-3
-1.176, 1.176e-3
-1.177, 1.191e-3
-1.178, 1.208e-3
-1.179, 1.224e-3
-1.180, 1.235e-3
-1.181, 1.251e-3
-1.182, 1.260e-3
-1.183, 1.275e-3
-1.184, 1.297e-3
-1.185, 1.306e-3
-1.186, 1.315e-3
-1.187, 1.337e-3
-1.188, 1.356e-3
-1.189, 1.363e-3
-1.190, 1.383e-3
-1.191, 1.404e-3
-1.192, 1.424e-3
-1.193, 1.436e-3
-1.194, 1.456e-3
-1.195, 1.466e-3
-1.196, 1.486e-3
-1.197, 1.509e-3
-1.198, 1.526e-3
-1.199, 1.541e-3
-1.200, 1.563e-3
-1.201, 1.583e-3
-1.202, 1.605e-3
-1.203, 1.624e-3
-1.204, 1.641e-3
-1.205, 1.660e-3
-1.206, 1.683e-3
-1.207, 1.705e-3
-1.208, 1.724e-3
-1.209, 1.745e-3
-1.210, 1.771e-3
-1.211, 1.793e-3
-1.212, 1.816e-3
-1.213, 1.841e-3
-1.214, 1.862e-3
-1.215, 1.887e-3
-1.216, 1.914e-3
-1.217, 1.937e-3
-1.218, 1.963e-3
-1.219, 1.985e-3
-1.220, 2.017e-3
-1.221, 2.039e-3
-1.222, 2.069e-3
-1.223, 2.099e-3
-1.224, 2.123e-3
-1.225, 2.155e-3
-1.226, 2.181e-3
-1.227, 2.210e-3
-1.228, 2.243e-3
-1.229, 2.272e-3
-1.230, 2.302e-3
-1.231, 2.336e-3
-1.232, 2.365e-3
-1.233, 2.402e-3
-1.234, 2.431e-3
-1.235, 2.466e-3
-1.236, 2.504e-3
-1.237, 2.534e-3
-1.238, 2.570e-3
-1.239, 2.608e-3
-1.240, 2.640e-3
-1.241, 2.678e-3
-1.242, 2.719e-3
-1.243, 2.754e-3
-1.244, 2.791e-3
-1.245, 2.831e-3
-1.246, 2.869e-3
-1.247, 2.913e-3
-1.248, 2.954e-3
-1.249, 2.990e-3
-1.250, 3.036e-3
-1.251, 3.077e-3
-1.252, 3.135e-3
-1.253, 3.188e-3
-1.254, 3.238e-3
-1.255, 3.261e-3
-1.256, 3.304e-3
-1.257, 3.343e-3
-1.258, 3.379e-3
-1.259, 3.425e-3
-1.260, 3.480e-3
-1.261, 3.545e-3
-1.262, 3.592e-3
-1.263, 3.632e-3
-1.264, 3.677e-3
-1.265, 3.722e-3
-1.266, 3.810e-3
-1.267, 3.856e-3
-1.268, 3.875e-3
-1.269, 3.931e-3
-1.270, 4.005e-3
-1.271, 4.065e-3
-1.272, 4.134e-3
-1.273, 4.217e-3
-1.274, 4.234e-3
-1.275, 4.317e-3
-1.276, 4.365e-3
-1.277, 4.447e-3
-1.278, 4.517e-3
-1.279, 4.572e-3
-1.280, 4.570e-3
-1.281, 4.654e-3
-1.282, 4.736e-3
-1.283, 4.772e-3
-1.284, 4.830e-3
-1.285, 4.905e-3
-1.286, 4.964e-3
-1.287, 5.061e-3
-1.288, 5.109e-3
-1.289, 5.176e-3
-1.290, 5.216e-3
-1.291, 5.274e-3
-1.292, 5.359e-3
-1.293, 5.434e-3
-1.294, 5.496e-3
-1.295, 5.546e-3
-1.296, 5.600e-3
-1.297, 5.658e-3
-1.298, 5.732e-3
-1.299, 5.802e-3
-1.300, 5.848e-3
-1.301, 5.899e-3
-1.302, 5.967e-3
-1.303, 6.050e-3
-1.304, 6.125e-3
-1.305, 6.146e-3
-1.306, 6.217e-3
-1.307, 6.278e-3
-1.308, 6.343e-3
-1.309, 6.411e-3
-1.310, 6.445e-3
-1.311, 6.510e-3
-1.312, 6.560e-3
-1.313, 6.604e-3
-1.314, 6.664e-3
-1.315, 6.711e-3
-1.316, 6.750e-3
-1.317, 6.819e-3
-1.318, 6.868e-3
-1.319, 6.927e-3
-1.320, 6.896e-3
-1.321, 6.904e-3
-1.322, 6.949e-3
-1.323, 6.990e-3
-1.324, 7.026e-3
-1.325, 7.073e-3
-1.326, 7.103e-3
-1.327, 7.153e-3
-1.328, 7.197e-3
-1.329, 7.231e-3
-1.330, 7.275e-3
-1.331, 7.318e-3
-1.332, 7.399e-3
-1.333, 7.359e-3
-1.334, 7.371e-3
-1.335, 7.408e-3
-1.336, 7.478e-3
-1.337, 7.496e-3
-1.338, 7.488e-3
-1.339, 7.507e-3
-1.340, 7.515e-3
-1.341, 7.505e-3
-1.342, 7.505e-3
-1.343, 7.489e-3
-1.344, 7.507e-3
-1.345, 7.670e-3
-1.346, 7.436e-3
-1.347, 7.558e-3
-1.348, 7.592e-3
-1.349, 7.640e-3
-1.350, 7.526e-3
-1.351, 7.505e-3
-1.352, 7.478e-3
-1.353, 7.459e-3
-1.354, 7.433e-3
-1.355, 7.454e-3
-1.356, 7.478e-3
-1.357, 7.480e-3
-1.358, 7.397e-3
-1.359, 7.386e-3
-1.360, 7.319e-3
-1.361, 7.291e-3
-1.362, 7.268e-3
-1.363, 7.205e-3
-1.364, 7.183e-3
-1.365, 7.147e-3
-1.366, 7.125e-3
-1.367, 7.086e-3
-1.368, 7.021e-3
-1.369, 6.991e-3
-1.370, 6.933e-3
-1.371, 6.900e-3
-1.372, 6.847e-3
-1.373, 6.763e-3
-1.374, 6.740e-3
-1.375, 6.678e-3
-1.376, 6.611e-3
-1.377, 6.540e-3
-1.378, 6.467e-3
-1.379, 6.390e-3
-1.380, 6.341e-3
-1.381, 6.264e-3
-1.382, 6.228e-3
-1.383, 6.153e-3
-1.384, 6.086e-3
-1.385, 6.053e-3
-1.386, 6.004e-3
-1.387, 5.913e-3
-1.388, 5.887e-3
-1.389, 5.784e-3
-1.390, 5.763e-3
-1.391, 5.704e-3
-1.392, 5.638e-3
-1.393, 5.652e-3
-1.394, 5.583e-3
-1.395, 5.482e-3
-1.396, 5.438e-3
-1.397, 5.412e-3
-1.398, 5.366e-3
-1.399, 5.312e-3
-1.400, 5.279e-3
-1.401, 5.243e-3
-1.402, 5.136e-3
-1.403, 5.107e-3
-1.404, 5.112e-3
-1.405, 5.056e-3
-1.406, 5.027e-3
-1.407, 5.015e-3
-1.408, 4.986e-3
-1.409, 4.979e-3
-1.410, 4.971e-3
-1.411, 4.951e-3
-1.412, 4.927e-3
-1.413, 4.944e-3
-1.414, 4.930e-3
-1.415, 4.904e-3
-1.416, 4.904e-3
-1.417, 4.925e-3
-1.418, 4.939e-3
-1.419, 4.949e-3
-1.420, 4.937e-3
-1.421, 4.958e-3
-1.422, 4.969e-3
-1.423, 4.985e-3
-1.424, 4.998e-3
-1.425, 5.034e-3
-1.426, 5.051e-3
-1.427, 5.082e-3
-1.428, 5.099e-3
-1.429, 5.116e-3
-1.430, 5.149e-3
-1.431, 5.187e-3
-1.432, 5.207e-3
-1.433, 5.260e-3
-1.434, 5.289e-3
-1.435, 5.326e-3
-1.436, 5.376e-3
-1.437, 5.435e-3
-1.438, 5.482e-3
-1.439, 5.583e-3
-1.440, 5.561e-3
-1.441, 5.621e-3
-1.442, 5.675e-3
-1.443, 5.731e-3
-1.444, 5.761e-3
-1.445, 5.799e-3
-1.446, 5.848e-3
-1.447, 5.911e-3
-1.448, 5.931e-3
-1.449, 5.962e-3
-1.450, 6.022e-3
-1.451, 6.088e-3
-1.452, 6.161e-3
-1.453, 6.197e-3
-1.454, 6.320e-3
-1.455, 6.302e-3
-1.456, 6.401e-3
-1.457, 6.463e-3
-1.458, 6.500e-3
-1.459, 6.644e-3
-1.460, 6.698e-3
-1.461, 6.658e-3
-1.462, 6.770e-3
-1.463, 6.843e-3
-1.464, 6.895e-3
-1.465, 6.905e-3
-1.466, 6.976e-3
-1.467, 7.051e-3
-1.468, 7.051e-3
-1.469, 7.095e-3
-1.470, 7.183e-3
-1.471, 7.247e-3
-1.472, 7.297e-3
-1.473, 7.359e-3
-1.474, 7.428e-3
-1.475, 7.494e-3
-1.476, 7.565e-3
-1.477, 7.626e-3
-1.478, 7.685e-3
-1.479, 7.785e-3
-1.480, 7.848e-3
-1.481, 7.895e-3
-1.482, 7.998e-3
-1.483, 8.041e-3
-1.484, 8.102e-3
-1.485, 8.172e-3
-1.486, 8.261e-3
-1.487, 8.300e-3
-1.488, 8.348e-3
-1.489, 8.432e-3
-1.490, 8.487e-3
-1.491, 8.523e-3
-1.492, 8.571e-3
-1.493, 8.660e-3
-1.494, 8.684e-3
-1.495, 8.739e-3
-1.496, 8.810e-3
-1.497, 8.872e-3
-1.498, 8.934e-3
-1.499, 9.000e-3
-1.500, 9.017e-3
-1.499, 8.888e-3
-1.498, 8.741e-3
-1.497, 8.633e-3
-1.496, 8.550e-3
-1.495, 8.490e-3
-1.494, 8.414e-3
-1.493, 8.336e-3
-1.492, 8.314e-3
-1.491, 8.160e-3
-1.490, 8.078e-3
-1.489, 7.976e-3
-1.488, 7.879e-3
-1.487, 7.765e-3
-1.486, 7.682e-3
-1.485, 7.544e-3
-1.484, 7.479e-3
-1.483, 7.461e-3
-1.482, 7.337e-3
-1.481, 7.243e-3
-1.480, 7.153e-3
-1.479, 7.066e-3
-1.478, 7.012e-3
-1.477, 6.935e-3
-1.476, 6.861e-3
-1.475, 6.767e-3
-1.474, 6.719e-3
-1.473, 6.608e-3
-1.472, 6.542e-3
-1.471, 6.483e-3
-1.470, 6.414e-3
-1.469, 6.329e-3
-1.468, 6.231e-3
-1.467, 6.157e-3
-1.466, 6.099e-3
-1.465, 6.038e-3
-1.464, 5.968e-3
-1.463, 5.890e-3
-1.462, 5.839e-3
-1.461, 5.778e-3
-1.460, 5.727e-3
-1.459, 5.659e-3
-1.458, 5.674e-3
-1.457, 5.477e-3
-1.456, 5.461e-3
-1.455, 5.384e-3
-1.454, 5.310e-3
-1.453, 5.237e-3
-1.452, 5.167e-3
-1.451, 5.136e-3
-1.450, 5.058e-3
-1.449, 5.012e-3
-1.448, 4.925e-3
-1.447, 4.875e-3
-1.446, 4.829e-3
-1.445, 4.800e-3
-1.444, 4.691e-3
-1.443, 4.619e-3
-1.442, 4.570e-3
-1.441, 4.537e-3
-1.440, 4.436e-3
-1.439, 4.407e-3
-1.438, 4.343e-3
-1.437, 4.266e-3
-1.436, 4.207e-3
-1.435, 4.146e-3
-1.434, 4.090e-3
-1.433, 4.031e-3
-1.432, 3.965e-3
-1.431, 3.934e-3
-1.430, 3.901e-3
-1.429, 3.869e-3
-1.428, 3.862e-3
-1.427, 3.818e-3
-1.426, 3.718e-3
-1.425, 3.667e-3
-1.424, 3.612e-3
-1.423, 3.543e-3
-1.422, 3.516e-3
-1.421, 3.462e-3
-1.420, 3.410e-3
-1.419, 3.365e-3
-1.418, 3.331e-3
-1.417, 3.265e-3
-1.416, 3.205e-3
-1.415, 3.165e-3
-1.414, 3.106e-3
-1.413, 3.064e-3
-1.412, 3.021e-3
-1.411, 2.991e-3
-1.410, 2.947e-3
-1.409, 2.875e-3
-1.408, 2.818e-3
-1.407, 2.787e-3
-1.406, 2.740e-3
-1.405, 2.701e-3
-1.404, 2.669e-3
-1.403, 2.607e-3
-1.402, 2.580e-3
-1.401, 2.521e-3
-1.400, 2.483e-3
-1.399, 2.443e-3
-1.398, 2.415e-3
-1.397, 2.370e-3
-1.396, 2.334e-3
-1.395, 2.273e-3
-1.394, 2.226e-3
-1.393, 2.198e-3
-1.392, 2.176e-3
-1.391, 2.143e-3
-1.390, 2.087e-3
-1.389, 2.057e-3
-1.388, 2.017e-3
-1.387, 1.989e-3
-1.386, 1.947e-3
-1.385, 1.919e-3
-1.384, 1.889e-3
-1.383, 1.854e-3
-1.382, 1.806e-3
-1.381, 1.774e-3
-1.380, 1.860e-3
-1.379, 1.834e-3
-1.378, 1.754e-3
-1.377, 1.707e-3
-1.376, 1.667e-3
-1.375, 1.631e-3
-1.374, 1.598e-3
-1.373, 1.573e-3
-1.372, 1.533e-3
-1.371, 1.494e-3
-1.370, 1.465e-3
-1.369, 1.435e-3
-1.368, 1.404e-3
-1.367, 1.373e-3
-1.366, 1.345e-3
-1.365, 1.322e-3
-1.364, 1.286e-3
-1.363, 1.257e-3
-1.362, 1.230e-3
-1.361, 1.201e-3
-1.360, 1.172e-3
-1.359, 1.145e-3
-1.358, 1.119e-3
-1.357, 1.092e-3
-1.356, 1.066e-3
-1.355, 1.042e-3
-1.354, 1.017e-3
-1.353, 9.911e-4
-1.352, 9.657e-4
-1.351, 9.422e-4
-1.350, 9.200e-4
-1.349, 8.923e-4
-1.348, 8.675e-4
-1.347, 8.444e-4
-1.346, 8.253e-4
-1.345, 8.027e-4
-1.344, 7.804e-4
-1.343, 7.595e-4
-1.342, 7.366e-4
-1.341, 7.156e-4
-1.340, 6.957e-4
-1.339, 6.758e-4
-1.338, 6.545e-4
-1.337, 6.362e-4
-1.336, 6.179e-4
-1.335, 5.946e-4
-1.334, 5.756e-4
-1.333, 5.593e-4
-1.332, 5.419e-4
-1.331, 5.248e-4
-1.330, 5.081e-4
-1.329, 4.901e-4
-1.328, 4.727e-4
-1.327, 4.551e-4
-1.326, 4.379e-4
-1.325, 4.230e-4
-1.324, 4.087e-4
-1.323, 3.953e-4
-1.322, 3.808e-4
-1.321, 3.646e-4
-1.320, 3.492e-4
-1.319, 3.353e-4
-1.318, 3.216e-4
-1.317, 3.080e-4
-1.316, 2.937e-4
-1.315, 2.798e-4
-1.314, 2.673e-4
-1.313, 2.548e-4
-1.312, 2.424e-4
-1.311, 2.306e-4
-1.310, 2.173e-4
-1.309, 2.063e-4
-1.308, 1.950e-4
-1.307, 1.839e-4
-1.306, 1.727e-4
-1.305, 1.608e-4
-1.304, 1.504e-4
-1.303, 1.400e-4
-1.302, 1.308e-4
-1.301, 1.205e-4
-1.300, 1.087e-4
-1.299, 9.952e-5
-1.298, 9.028e-5
-1.297, 8.097e-5
-1.296, 7.162e-5
-1.295, 6.195e-5
-1.294, 5.356e-5
-1.293, 4.566e-5
-1.292, 3.677e-5
-1.291, 2.744e-5
-1.290, 1.928e-5
-1.289, 1.054e-5
-1.288, 4.023e-6
-1.287, -3.534e-6
-1.286, -1.173e-5
-1.285, -1.927e-5
-1.284, -2.627e-5
-1.283, -3.279e-5
-1.282, -3.946e-5
-1.281, -4.710e-5
-1.280, -5.493e-5
-1.279, -6.073e-5
-1.278, -6.636e-5
-1.277, -7.208e-5
-1.276, -7.880e-5
-1.275, -8.530e-5
-1.274, -9.114e-5
-1.273, -9.681e-5
-1.272, -1.013e-4
-1.271, -1.077e-4
-1.270, -1.131e-4
-1.269, -1.187e-4
-1.268, -1.235e-4
-1.267, -1.282e-4
-1.266, -1.340e-4
-1.265, -1.397e-4
-1.264, -1.434e-4
-1.263, -1.479e-4
-1.262, -1.520e-4
-1.261, -1.570e-4
-1.260, -1.619e-4
-1.259, -1.665e-4
-1.258, -1.700e-4
-1.257, -1.748e-4
-1.256, -1.784e-4
-1.255, -1.834e-4
-1.254, -1.873e-4
-1.253, -1.902e-4
-1.252, -1.934e-4
-1.251, -1.975e-4
-1.250, -2.016e-4
-1.249, -2.058e-4
-1.248, -2.084e-4
-1.247, -2.113e-4
-1.246, -2.157e-4
-1.245, -2.186e-4
-1.244, -2.212e-4
-1.243, -2.245e-4
-1.242, -2.272e-4
-1.241, -2.319e-4
-1.240, -2.351e-4
-1.239, -2.385e-4
-1.238, -2.406e-4
-1.237, -2.434e-4
-1.236, -2.475e-4
-1.235, -2.523e-4
-1.234, -2.525e-4
-1.233, -2.556e-4
-1.232, -2.583e-4
-1.231, -2.616e-4
-1.230, -2.670e-4
-1.229, -2.709e-4
-1.228, -2.698e-4
-1.227, -2.739e-4
-1.226, -2.752e-4
-1.225, -2.786e-4
-1.224, -2.813e-4
-1.223, -2.830e-4
-1.222, -2.835e-4
-1.221, -2.861e-4
-1.220, -2.905e-4
-1.219, -2.939e-4
-1.218, -2.961e-4
-1.217, -2.990e-4
-1.216, -3.028e-4
-1.215, -3.042e-4
-1.214, -3.066e-4
-1.213, -3.087e-4
-1.212, -3.117e-4
-1.211, -3.142e-4
-1.210, -3.177e-4
-1.209, -3.207e-4
-1.208, -3.223e-4
-1.207, -3.251e-4
-1.206, -3.289e-4
-1.205, -3.315e-4
-1.204, -3.341e-4
-1.203, -3.371e-4
-1.202, -3.396e-4
-1.201, -3.455e-4
-1.200, -3.503e-4
-1.199, -3.503e-4
-1.198, -3.540e-4
-1.197, -3.564e-4
-1.196, -3.613e-4
-1.195, -3.690e-4
-1.194, -3.699e-4
-1.193, -3.721e-4
-1.192, -3.732e-4
-1.191, -3.798e-4
-1.190, -3.875e-4
-1.189, -3.923e-4
-1.188, -3.954e-4
-1.187, -4.028e-4
-1.186, -4.109e-4
-1.185, -4.160e-4
-1.184, -4.196e-4
-1.183, -4.280e-4
-1.182, -4.327e-4
-1.181, -4.365e-4
-1.180, -4.462e-4
-1.179, -4.495e-4
-1.178, -4.547e-4
-1.177, -4.630e-4
-1.176, -4.667e-4
-1.175, -4.725e-4
-1.174, -4.800e-4
-1.173, -4.788e-4
-1.172, -4.836e-4
-1.171, -4.943e-4
-1.170, -5.015e-4
-1.169, -5.126e-4
-1.168, -5.197e-4
-1.167, -5.248e-4
-1.166, -5.349e-4
-1.165, -5.454e-4
-1.164, -5.599e-4
-1.163, -5.693e-4
-1.162, -5.785e-4
-1.161, -5.979e-4
-1.160, -6.152e-4
-1.159, -6.369e-4
-1.158, -6.562e-4
-1.157, -6.793e-4
-1.156, -7.061e-4
-1.155, -7.341e-4
-1.154, -7.650e-4
-1.153, -7.992e-4
-1.152, -8.332e-4
-1.151, -8.730e-4
-1.150, -9.241e-4
-1.149, -9.700e-4
-1.148, -1.020e-3
-1.147, -1.074e-3
-1.146, -1.125e-3
-1.145, -1.177e-3
-1.144, -1.237e-3
-1.143, -1.306e-3
-1.142, -1.364e-3
-1.141, -1.412e-3
-1.140, -1.470e-3
-1.139, -1.522e-3
-1.138, -1.580e-3
-1.137, -1.640e-3
-1.136, -1.693e-3
-1.135, -1.734e-3
-1.134, -1.782e-3
-1.133, -1.835e-3
-1.132, -1.885e-3
-1.131, -1.937e-3
-1.130, -1.971e-3
-1.129, -2.010e-3
-1.128, -2.048e-3
-1.127, -2.094e-3
-1.126, -2.140e-3
-1.125, -2.187e-3
-1.124, -2.243e-3
-1.123, -2.298e-3
-1.122, -2.331e-3
-1.121, -2.372e-3
-1.120, -2.429e-3
-1.119, -2.476e-3
-1.118, -2.514e-3
-1.117, -2.549e-3
-1.116, -2.597e-3
-1.115, -2.644e-3
-1.114, -2.692e-3
-1.113, -2.746e-3
-1.112, -2.803e-3
-1.111, -2.851e-3
-1.110, -2.907e-3
-1.109, -2.948e-3
-1.108, -2.988e-3
-1.107, -3.047e-3
-1.106, -3.094e-3
-1.105, -3.129e-3
-1.104, -3.191e-3
-1.103, -3.230e-3
-1.102, -3.280e-3
-1.101, -3.323e-3
-1.100, -3.367e-3
-1.099, -3.411e-3
-1.098, -3.457e-3
-1.097, -3.509e-3
-1.096, -3.556e-3
-1.095, -3.613e-3
-1.094, -3.655e-3
-1.093, -3.680e-3
-1.092, -3.731e-3
-1.091, -3.784e-3
-1.090, -3.837e-3
-1.089, -3.869e-3
-1.088, -3.912e-3
-1.087, -3.963e-3
-1.086, -4.024e-3
-1.085, -4.073e-3
-1.084, -4.114e-3
-1.083, -4.166e-3
-1.082, -4.212e-3
-1.081, -4.268e-3
-1.080, -4.313e-3
-1.079, -4.392e-3
-1.078, -4.398e-3
-1.077, -4.433e-3
-1.076, -4.487e-3
-1.075, -4.510e-3
-1.074, -4.556e-3
-1.073, -4.613e-3
-1.072, -4.656e-3
-1.071, -4.708e-3
-1.070, -4.765e-3
-1.069, -4.820e-3
-1.068, -4.874e-3
-1.067, -4.921e-3
-1.066, -4.959e-3
-1.065, -5.015e-3
-1.064, -5.071e-3
-1.063, -5.131e-3
-1.062, -5.180e-3
-1.061, -5.215e-3
-1.060, -5.270e-3
-1.059, -5.313e-3
-1.058, -5.351e-3
-1.057, -5.387e-3
-1.056, -5.428e-3
-1.055, -5.469e-3
-1.054, -5.519e-3
-1.053, -5.557e-3
-1.052, -5.595e-3
-1.051, -5.644e-3
-1.050, -5.701e-3
-1.049, -5.741e-3
-1.048, -5.777e-3
-1.047, -5.803e-3
-1.046, -5.858e-3
-1.045, -5.927e-3
-1.044, -5.958e-3
-1.043, -6.022e-3
-1.042, -6.054e-3
-1.041, -6.049e-3
-1.040, -6.094e-3
-1.039, -6.167e-3
-1.038, -6.201e-3
-1.037, -6.246e-3
-1.036, -6.322e-3
-1.035, -6.374e-3
-1.034, -6.404e-3
-1.033, -6.431e-3
-1.032, -6.484e-3
-1.031, -6.522e-3
-1.030, -6.563e-3
-1.029, -6.594e-3
-1.028, -6.632e-3
-1.027, -6.667e-3
-1.026, -6.695e-3
-1.025, -6.715e-3
-1.024, -6.743e-3
-1.023, -6.778e-3
-1.022, -6.798e-3
-1.021, -6.816e-3
-1.020, -6.837e-3
-1.019, -6.850e-3
-1.018, -6.890e-3
-1.017, -6.898e-3
-1.016, -6.902e-3
-1.015, -6.919e-3
-1.014, -6.934e-3
-1.013, -6.953e-3
-1.012, -6.972e-3
-1.011, -6.984e-3
-1.010, -6.993e-3
-1.009, -6.992e-3
-1.008, -7.024e-3
-1.007, -7.098e-3
-1.006, -7.066e-3
-1.005, -7.077e-3
-1.004, -7.027e-3
-1.003, -7.054e-3
-1.002, -7.057e-3
-1.001, -7.050e-3
