Potential V vs RHE, Current mA cm-2
0.013299999999999867,0.8021413070234757
0.012299999999999978,-0.22012907825899972
0.011299999999999866,-0.9335679867809377
0.010299999999999976,-1.546279450752485
0.009299999999999864,-2.1701671339929662
0.008299999999999974,-2.661071955046134
0.007299999999999862,-3.0670940981073995
0.006299999999999972,-3.5311194044631313
0.00529999999999986,-3.9470445266234524
0.0042999999999999705,-4.25545158999403
0.0032999999999998586,-4.607714703660425
0.0022999999999999687,-4.9826131981246595
0.0012999999999998568,-5.240090654700095
0.00029999999999996696,-5.491909266076072
-0.000700000000000145,-5.824366421544356
-0.0017000000000000348,-6.063452631221548
-0.0027000000000001467,-6.2360474098050815
-0.0037000000000000366,-6.511916113278764
-0.0047000000000001485,-6.74958761165609
-0.005700000000000038,-6.882570473843404
-0.00670000000000015,-7.084874189724104
-0.00770000000000004,-7.323960399401294
-0.008700000000000152,-7.445625571189688
-0.009700000000000042,-7.5743642994774065
-0.010700000000000154,-7.807791663955138
-0.011700000000000044,-7.949262793941642
-0.012700000000000156,-8.035560183233407
-0.013700000000000045,-8.203910827917348
-0.014700000000000157,-8.352455514403177
-0.015700000000000047,-8.397726275998858
-0.01670000000000016,-8.523635581686847
-0.01770000000000005,-8.677839113372134
-0.01870000000000016,-8.72452458626768
-0.01970000000000005,-8.788186594761608
-0.020700000000000163,-8.932487147347842
-0.021700000000000053,-9.000393289741364
-0.022700000000000164,-9.031516938338395
-0.023700000000000054,-9.143279131027732
-0.024700000000000166,-9.232405942919229
-0.025700000000000056,-9.25504132371707
-0.026700000000000168,-9.31162977571167
-0.027700000000000058,-9.40924485540236
-0.02870000000000017,-9.42056254580128
-0.02970000000000006,-9.444612637898985
-0.03070000000000017,-9.550715985388862
-0.03170000000000006,-9.581839633985894
-0.03270000000000017,-9.581839633985894
-0.03370000000000006,-9.65681933287874
-0.034700000000000175,-9.706334228374017
-0.035700000000000065,-9.683698847576176
-0.03670000000000018,-9.720481341372667
-0.03770000000000007,-9.779899215967
-0.03870000000000018,-9.786972772466322
-0.03970000000000007,-9.79404632896565
-0.04070000000000018,-9.871855450458227
-0.04170000000000007,-9.89024669735647
-0.04270000000000018,-9.871855450458227
-0.04370000000000007,-9.929858613752693
-0.044700000000000184,-9.959567551049858
-0.045700000000000074,-9.907223232954852
-0.046700000000000186,-9.924199768553231
-0.047700000000000076,-9.970885241448778
-0.04870000000000019,-9.938346881551883
-0.04970000000000008,-9.921370345953502
-0.05070000000000019,-9.968055818849047
-0.05170000000000008,-9.965226396249319
-0.05270000000000019,-9.928443902452829
-0.05370000000000008,-9.969470530148914
-0.05470000000000019,-9.989276488347024
-0.05570000000000008,-9.91571150075404
-0.056700000000000195,-9.901564387755393
-0.057700000000000085,-9.932688036352424
-0.058700000000000196,-9.886002563456877
-0.059700000000000086,-9.83365824536187
-0.0607000000000002,-9.869026027858496
-0.06170000000000009,-9.85063478096025
-0.0627000000000002,-9.812437575863894
-0.06370000000000009,-9.85629362615971
-0.0647000000000002,-9.888831986056605
-0.06570000000000009,-9.84497593576079
-0.0667000000000002,-9.84780535836052
-0.0677000000000001,-9.894490831256066
-0.0687000000000002,-9.866196605258766
-0.0697000000000001,-9.83365824536187
-0.07070000000000021,-9.87892900695755
-0.0717000000000001,-9.84497593576079
-0.07270000000000021,-9.791216906365918
-0.0737000000000001,-9.826584688862544
-0.07470000000000021,-9.830828822762141
-0.0757000000000001,-9.784143349866595
-0.07670000000000021,-9.771410948167809
-0.0777000000000001,-9.801119885464974
-0.07870000000000021,-9.762922680368618
-0.0797000000000001,-9.730384320471723
-0.08070000000000022,-9.784143349866595
-0.0817000000000001,-9.767166814268213
-0.08270000000000022,-9.702090094474421
-0.08370000000000011,-9.728969609171857
-0.08470000000000022,-9.743116722170507
-0.08570000000000011,-9.682284136276312
-0.08670000000000022,-9.690772404075501
-0.08770000000000011,-9.720481341372667
-0.08870000000000022,-9.676625291076851
-0.08970000000000011,-9.646916353779686
-0.09070000000000022,-9.66530760067793
-0.09170000000000011,-9.64550164247982
-0.09270000000000023,-9.59174261308495
-0.09370000000000012,-9.610133859983193
-0.09470000000000023,-9.621451550382114
-0.09570000000000012,-9.560618964487917
-0.09670000000000023,-9.562033675787783
-0.09770000000000012,-9.598816169584273
-0.09870000000000023,-9.542227717589672
-0.09970000000000012,-9.504030512493316
-0.10070000000000023,-9.552130696688728
-0.10170000000000012,-9.533739449790483
-0.10270000000000024,-9.48563926559507
-0.10370000000000013,-9.513933491592372
-0.10470000000000024,-9.523836470691428
-0.10570000000000013,-9.472906863896286
-0.10670000000000024,-9.47149215259642
-0.10770000000000013,-9.513933491592372
-0.10870000000000024,-9.47998042039561
-0.10970000000000013,-9.45451561699804
-0.11070000000000024,-9.502615801193452
-0.11170000000000013,-9.495542244694127
-0.11270000000000002,-9.44885677179858
-0.11370000000000013,-9.487053976894938
-0.11470000000000002,-9.515348202892236
-0.11570000000000014,-9.464418596097095
-0.11670000000000003,-9.477150997795881
-0.11770000000000014,-9.519592336791833
-0.11870000000000003,-9.484224554295206
-0.11970000000000014,-9.463003884797232
-0.12070000000000003,-9.513933491592372
-0.12170000000000014,-9.508274646392913
-0.12270000000000003,-9.45734503959777
-0.12370000000000014,-9.504030512493316
-0.12470000000000003,-9.521007048091697
-0.12570000000000014,-9.477150997795881
-0.12670000000000003,-9.487053976894938
-0.12770000000000015,-9.515348202892236
-0.12870000000000004,-9.494127533394261
-0.12970000000000015,-9.475736286496016
-0.13070000000000004,-9.530910027190751
-0.13170000000000015,-9.529495315890887
-0.13270000000000004,-9.489883399494666
-0.13370000000000015,-9.521007048091697
-0.13470000000000004,-9.530910027190751
-0.13570000000000015,-9.472906863896286
-0.13670000000000004,-9.49695695599399
-0.13770000000000016,-9.542227717589672
-0.13870000000000005,-9.509689357692777
-0.13970000000000016,-9.492712822094397
-0.14070000000000005,-9.560618964487917
-0.14170000000000016,-9.563448387087647
-0.14270000000000005,-9.545057140189403
-0.14370000000000016,-9.59740145828441
-0.14470000000000005,-9.641257508580225
-0.14570000000000016,-9.600230880884139
-0.14670000000000005,-9.61720741648252
-0.14770000000000016,-9.66813702327766
-0.14870000000000005,-9.635598663380765
-0.14970000000000017,-9.61720741648252
-0.15070000000000006,-9.70774893967388
-0.15170000000000017,-9.699260671874692
-0.15270000000000006,-9.659648755478472
-0.15370000000000017,-9.727554897871993
-0.15470000000000006,-9.755849123869291
-0.15570000000000017,-9.720481341372667
-0.15670000000000006,-9.760093257768888
-0.15770000000000017,-9.84214651316106
-0.15870000000000006,-9.815266998463624
-0.15970000000000018,-9.81668170976349
-0.16070000000000007,-9.897320253855797
-0.16170000000000018,-9.897320253855797
-0.16270000000000007,-9.854878914859846
-0.16370000000000018,-9.907223232954852
-0.16470000000000007,-9.958152839749992
-0.16570000000000018,-9.914296789454177
-0.16670000000000007,-9.949664571950803
-0.16770000000000018,-10.01615600304446
-0.16870000000000007,-9.994935333546485
-0.16970000000000018,-9.986447065747294
-0.17070000000000007,-10.064256187239872
-0.17170000000000019,-10.078403300238522
-0.17270000000000008,-10.0387913838423
-0.1737000000000002,-10.091135701937308
-0.17470000000000008,-10.127918195733796
-0.1757000000000002,-10.085476856737847
-0.17670000000000008,-10.143480020032312
-0.1777000000000002,-10.23543625452354
-0.17870000000000008,-10.22694798672435
-0.1797000000000002,-10.232606831923809
-0.18070000000000008,-10.325977777714902
-0.1817000000000002,-10.328807200314634
-0.18270000000000008,-10.287780572618546
-0.1837000000000002,-10.347198447212879
-0.1847000000000001,-10.400957476607749
-0.1857000000000002,-10.372663250610449
-0.1867000000000001,-10.422178146105725
-0.1877000000000002,-10.508475535397492
-0.1887000000000001,-10.463204773801811
-0.1897000000000002,-10.46886361900127
-0.1907000000000001,-10.56647869869196
-0.1917000000000001,-10.573552255191283
-0.19269999999999998,-10.538184472694656
-0.1937000000000001,-10.621652439386695
-0.19469999999999998,-10.666923200982376
-0.1957000000000001,-10.63155541848575
-0.19669999999999999,-10.672582046181837
-0.1977000000000001,-10.756050012873873
-0.1987,-10.734829343375898
-0.1997000000000001,-10.727755786876573
-0.2007,-10.823956155267396
-0.2017000000000001,-10.83668855696618
-0.2027,-10.805564908369151
-0.2037000000000001,-10.889032875061186
-0.2047,-10.95410959485498
-0.2057000000000001,-10.925815368857677
-0.2067,-10.97391555305309
-0.2077000000000001,-11.054554097145397
-0.2087,-11.037577561547016
-0.2097000000000001,-11.0503099632458
-0.2107,-11.142266197737028
-0.2117000000000001,-11.17904869153352
-0.2127,-11.145095620336757
-0.2137000000000001,-11.213001762730281
-0.2147,-11.272419637324612
-0.2157000000000001,-11.261101946925693
-0.2167,-11.306372708521375
-0.21770000000000012,-11.38418183001395
-0.2187,-11.362961160515976
-0.21970000000000012,-11.37569356221476
-0.2207,-11.467649796705988
-0.22170000000000012,-11.481796909704636
-0.2227,-11.464820374106257
-0.22370000000000012,-11.544044206898699
-0.2247,-11.60912092669249
-0.22570000000000012,-11.585070834594784
-0.2267,-11.626097462290872
-0.22770000000000012,-11.715224274182368
-0.22870000000000001,-11.703906583783448
-0.22970000000000013,-11.703906583783448
-0.23070000000000002,-11.802936374774
-0.23170000000000013,-11.810009931273326
-0.23270000000000002,-11.801521663474135
-0.23370000000000013,-11.883574918866309
-0.23470000000000002,-11.937333948261179
-0.23570000000000013,-11.914698567463338
-0.23670000000000002,-11.967042885558346
-0.2376999999999999,-12.058999120049574
-0.23870000000000002,-12.047681429650654
-0.2396999999999999,-12.053340274850113
-0.24070000000000003,-12.16510246753945
-0.24169999999999991,-12.193396693536751
-0.24270000000000003,-12.17642015793837
-0.24369999999999992,-12.265546969829868
-0.24470000000000003,-12.337697246122985
-0.24569999999999992,-12.316476576625009
-0.24670000000000003,-12.364576760820421
-0.24769999999999992,-12.466435974410702
-0.24870000000000003,-12.45653299531165
-0.24969999999999992,-12.465021263110838
-0.25070000000000003,-12.57536874450031
-0.2516999999999999,-12.602248259197747
-0.25270000000000004,-12.579612878399907
-0.2536999999999999,-12.681472091990189
-0.25470000000000004,-12.74654881178398
-0.2556999999999999,-12.730986987485464
-0.25670000000000004,-12.801722552478717
-0.25769999999999993,-12.921973012967245
-0.25870000000000004,-12.933290703366167
-0.25969999999999993,-12.965829063263062
-0.26070000000000004,-13.064858854253613
-0.26169999999999993,-13.103056059349969
-0.26270000000000004,-13.104470770649836
-0.26369999999999993,-13.203500561640388
-0.26470000000000005,-13.30253035263094
-0.26569999999999994,-13.29121266223202
-0.26670000000000005,-13.363362938525135
-0.26769999999999994,-13.472295708614745
-0.26870000000000005,-13.49351637811272
-0.26969999999999994,-13.514737047610696
-0.27070000000000005,-13.637816930698953
-0.27169999999999994,-13.660452311496796
-0.27270000000000005,-13.643475775898414
-0.27369999999999994,-13.738261432989372
-0.27470000000000006,-13.811826420582353
-0.27569999999999995,-13.820314688381544
-0.27670000000000006,-13.910856211572908
-0.27769999999999995,-14.059400898058735
-0.27870000000000006,-14.101842237054685
-0.27969999999999995,-14.161260111649016
-0.28070000000000006,-14.30273124163552
-0.28169999999999995,-14.373466806628771
-0.28270000000000006,-14.401761032626075
-0.28369999999999995,-14.543232162612577
-0.28470000000000006,-14.642261953603128
-0.28569999999999995,-14.67055617960043
-0.28670000000000007,-14.769585970590983
-0.28769999999999996,-14.911057100577487
-0.28870000000000007,-14.967645552572087
-0.28969999999999996,-15.06667534356264
-0.29070000000000007,-15.222293586547794
-0.29169999999999996,-15.335470490536997
-0.29270000000000007,-15.406206055530248
-0.29369999999999996,-15.575971411514052
-0.2947000000000001,-15.731589654499205
-0.29569999999999996,-15.816472332491113
-0.2967000000000001,-15.972090575476265
-0.29769999999999996,-16.127708818461418
-0.2987000000000001,-16.21259149645332
-0.29969999999999997,-16.311621287443874
-0.3007000000000001,-16.481386643427676
-0.30169999999999997,-16.59456354741688
-0.3027000000000001,-16.693593338407435
-0.30369999999999997,-16.863358694391238
-0.3047000000000001,-17.03312405037504
-0.30569999999999997,-17.132153841365596
-0.3067000000000001,-17.2453307453548
-0.3077,-17.429243214337255
-0.3087000000000001,-17.570714344323754
-0.3097,-17.75462681330621
-0.3107000000000001,-18.009274847281915
-0.3117,-18.19318731626437
-0.3127000000000001,-18.334658446250877
-0.3137,-18.546865141230633
-0.3147000000000001,-18.77321894920904
-0.3157,-18.94298430519284
-0.3167000000000001,-19.211779452167196
-0.3177,-19.49472171214021
-0.3187000000000001,-19.678634181122664
-0.3197,-19.862546650105116
-0.3207000000000001,-20.14548891007812
-0.3217,-20.371842718056527
-0.3227000000000001,-20.569902300037633
-0.3237,-20.881138786007945
-0.3247000000000001,-21.1782281589796
-0.3257,-21.404581966958006
-0.3267000000000001,-21.71581845292831
-0.3277,-22.04120205189727
-0.3287000000000001,-22.309997198871628
-0.3297,-22.621233684841933
-0.3307000000000001,-23.017352848804148
-0.3317,-23.328589334774456
-0.3327000000000001,-23.639825820744765
-0.3337,-24.035944984706973
-0.3347000000000001,-24.432064148669184
-0.3357,-24.771594860636792
-0.3367000000000001,-25.210155363594954
-0.3377,-25.677010092550415
-0.3387000000000001,-26.073129256512626
-0.3397,-26.511689759470787
-0.3407000000000001,-27.049280053419505
-0.3417,-27.544429008372262
-0.3427000000000001,-28.039577963325023
-0.3437,-28.619609596269694
-0.3447000000000001,-29.199641229214354
-0.3457,-29.73723152316307
-0.3467000000000001,-30.345557382105042
-0.3477,-31.024618806040255
-0.3487000000000001,-31.618797551983565
-0.3497,-32.297858975918786
-0.3507000000000001,-33.06180307784591
-0.3517,-33.81160006677438
-0.3527000000000001,-34.58969128170015
-0.3537,-35.46681228761647
-0.3547000000000001,-36.35808040653144
-0.3557,-37.235201412447765
-0.35670000000000013,-38.211352209354644
-0.3577,-39.272385684253415
-0.35870000000000013,-40.29097782015624
-0.3597,-41.36615840805367
-0.36070000000000013,-42.59695723893625
-0.3617,-43.84190318281749
-0.3626999999999999,-45.086849126698716
-0.3637,-46.4874133135651
-0.3646999999999999,-47.87383038743284
-0.3657,-49.28854168729788
-0.3666999999999999,-50.88716545614537
-0.3677,-52.528230563988814
-0.3686999999999999,-54.1268543328363
-0.36970000000000003,-55.881096344668954
-0.3706999999999999,-57.79095659948675
-0.37170000000000003,-59.68666974130589
-0.3726999999999999,-61.62482422212099
-0.37370000000000003,-63.66200849392664
-0.3746999999999999,-65.68504565273366
-0.37570000000000003,-67.5807587945528
-0.3766999999999999,-69.57550172736251
-0.37770000000000004,-71.6551273381641
-0.3786999999999999,-73.6781644969711
-0.37970000000000004,-75.7012016557781
-0.3806999999999999,-77.82326860557566
-0.38170000000000004,-79.87459999037998
-0.38269999999999993,-81.82690158419373
-0.38370000000000004,-83.84993874300073
-0.38469999999999993,-85.94371146680098
-0.38570000000000004,-87.99504285160528
-0.38669999999999993,-88.97119364851217
-0.38570000000000004,-89.04192921350541
-0.38469999999999993,-89.18340034349191
-0.38370000000000004,-89.36731281247435
-0.38269999999999993,-89.60781373345144
-0.38170000000000004,-89.67854929844468
-0.3806999999999999,-89.55122528145681
-0.37970000000000004,-89.49463682946222
-0.3786999999999999,-89.31072436047977
-0.37770000000000004,-89.16925323049325
-0.3766999999999999,-89.02778210050676
-0.37570000000000003,-88.82972251852566
-0.3746999999999999,-88.5609273715513
-0.37370000000000003,-88.32042645057423
-0.3726999999999999,-87.82527749562148
-0.37170000000000003,-87.47159967065522
-0.3706999999999999,-87.075480506693
-0.36970000000000003,-86.77839113372136
-0.3686999999999999,-86.38227196975915
-0.3677,-85.90127012780503
-0.3666999999999999,-85.53344518984011
-0.3657,-85.13732602587791
-0.3646999999999999,-84.75535397491434
-0.3637,-84.31679347195619
-0.3626999999999999,-83.86408585599938
-0.3617,-83.18502443206415
-0.36070000000000013,-82.746463929106
-0.3597,-82.16643229616133
-0.35870000000000013,-81.57225355021802
-0.3577,-81.02051614327065
-0.35670000000000013,-80.55366141431519
-0.3557,-80.05851245936242
-0.3547000000000001,-79.4643337134191
-0.3537,-78.8984491934731
-0.3527000000000001,-78.38915312552167
-0.3517,-77.78082726657972
-0.3507000000000001,-77.0168831646526
-0.3497,-76.45099864470659
-0.3487000000000001,-75.82852567276596
-0.3477,-75.12117002283344
-0.3467000000000001,-74.51284416389147
-0.3457,-73.86207696595356
-0.3447000000000001,-73.2537511070116
-0.3437,-72.58883679607503
-0.3427000000000001,-71.96636382413442
-0.3417,-71.30144951319785
-0.3407000000000001,-70.57994675026669
-0.3397,-69.88673821333282
-0.3387000000000001,-69.23597101539488
-0.3377,-68.54276247846103
-0.3367000000000001,-67.8071126025312
-0.3357,-67.1563454045933
-0.3347000000000001,-66.44898975466076
-0.3337,-65.84066389571882
-0.3327000000000001,-65.23233803677684
-0.3317,-64.52498238684433
-0.3307000000000001,-63.74689117191855
-0.3297,-63.03953552198603
-0.3287000000000001,-62.33217987205352
-0.3277,-61.46920597913584
-0.3267000000000001,-60.832585894196576
-0.3257,-60.16767158326001
-0.3247000000000001,-59.51690438532209
-0.3237,-58.75296028339497
-0.3227000000000001,-58.17292865045031
-0.3217,-57.423131661521836
-0.3207000000000001,-56.84310002857717
-0.3197,-56.12159726564601
-0.3187000000000001,-55.41424161571349
-0.3177,-54.63615040078772
-0.3167000000000001,-53.9287947508552
-0.3157,-53.23558621392132
-0.3147000000000001,-52.54237767698746
-0.3137,-51.86331625305225
-0.3127000000000001,-51.014489473133224
-0.3117,-50.34957516219666
-0.3107000000000001,-49.68466085126009
-0.3097,-49.03389365332217
-0.3087000000000001,-48.26994955139505
-0.3077,-47.534299675465235
-0.3067000000000001,-46.96841515551922
-0.30569999999999997,-46.3176479575813
-0.3047000000000001,-45.581998081651484
-0.30369999999999997,-44.93123088371356
-0.3027000000000001,-44.2946107987743
-0.30169999999999997,-43.629696487837734
-0.3007000000000001,-42.89404661190791
-0.29969999999999997,-42.200838074974044
-0.2987000000000001,-41.53592376403748
-0.29769999999999996,-40.729538323114404
-0.2967000000000001,-40.03632978618054
-0.29569999999999996,-39.41385681423992
-0.2947000000000001,-38.734795390304704
-0.29369999999999996,-38.06988107936814
-0.29270000000000007,-37.44740810742752
-0.29169999999999996,-36.768346683492304
-0.29070000000000007,-36.10343237255574
-0.28969999999999996,-35.46681228761647
-0.28870000000000007,-34.773603750682604
-0.28769999999999996,-34.09454232674739
-0.28670000000000007,-33.42962801581082
-0.28569999999999995,-32.807155043870196
-0.28470000000000006,-32.184682071929586
-0.28369999999999995,-31.533914873991666
-0.28270000000000006,-30.939736128048356
-0.28169999999999995,-30.260674704113132
-0.28070000000000006,-29.63820173217252
-0.27969999999999995,-29.058170099227848
-0.27870000000000006,-28.463991353284538
-0.27769999999999995,-27.799077042347974
-0.27670000000000006,-27.204898296404657
-0.27569999999999995,-26.723896454450543
-0.27470000000000006,-26.129717708507226
-0.27369999999999994,-25.49309762356796
-0.27270000000000005,-24.927213103621945
-0.27169999999999994,-24.40376992267188
-0.27070000000000005,-23.809591176728567
-0.26969999999999994,-23.272000882779853
-0.26870000000000005,-22.706116362833843
-0.26769999999999994,-22.097790503891872
-0.26670000000000005,-21.560200209943158
-0.26569999999999994,-21.050904141991744
-0.26470000000000005,-20.555755187038983
