Potential V vs RHE, Current mA cm-2
0.013299999999999867,-0.30755823659065895
0.012299999999999978,-1.0054353208140816
0.011299999999999866,-1.4415908145624723
0.010299999999999976,-1.7910245056291363
0.009299999999999864,-2.052746096104168
0.008299999999999974,-2.226755585987568
0.007299999999999862,-2.4007650758709675
0.006299999999999972,-2.576189277054232
0.00529999999999986,-2.7501987669376318
0.0042999999999999705,-2.8379108675292635
0.0032999999999998586,-2.968064307116847
0.0022999999999999687,-3.055776407708479
0.0012999999999998568,-3.1420737970002466
0.00029999999999996696,-3.1859298472960624
-0.000700000000000145,-3.2297858975918787
-0.0017000000000000348,-3.273641947887695
-0.0027000000000001467,-3.361354048479327
-0.0037000000000000366,-3.403795387475278
-0.0047000000000001485,-3.447651437771094
-0.005700000000000038,-3.4915074880669104
-0.00670000000000015,-3.5353635383627267
-0.00770000000000004,-3.579219588658543
-0.008700000000000152,-3.623075638954359
-0.009700000000000042,-3.623075638954359
-0.010700000000000154,-3.623075638954359
-0.011700000000000044,-3.6655169779503103
-0.012700000000000156,-3.6655169779503103
-0.013700000000000045,-3.6655169779503103
-0.014700000000000157,-3.7532290785419424
-0.015700000000000047,-3.7532290785419424
-0.01670000000000016,-3.7532290785419424
-0.01770000000000005,-3.7970851288377587
-0.01870000000000016,-3.840941179133574
-0.01970000000000005,-3.840941179133574
-0.020700000000000163,-3.840941179133574
-0.021700000000000053,-3.840941179133574
-0.022700000000000164,-3.840941179133574
-0.023700000000000054,-3.840941179133574
-0.024700000000000166,-3.884797229429391
-0.025700000000000056,-3.927238568425342
-0.026700000000000168,-3.927238568425342
-0.027700000000000058,-3.927238568425342
-0.02870000000000017,-3.971094618721158
-0.02970000000000006,-3.927238568425342
-0.03070000000000017,-3.927238568425342
-0.03170000000000006,-3.927238568425342
-0.03270000000000017,-3.927238568425342
-0.03370000000000006,-3.927238568425342
-0.034700000000000175,-3.971094618721158
-0.035700000000000065,-3.971094618721158
-0.03670000000000018,-3.971094618721158
-0.03770000000000007,-4.014950669016974
-0.03870000000000018,-4.014950669016974
-0.03970000000000007,-3.971094618721158
-0.04070000000000018,-3.971094618721158
-0.04170000000000007,-3.971094618721158
-0.04270000000000018,-3.971094618721158
-0.04370000000000007,-3.971094618721158
-0.044700000000000184,-4.014950669016974
-0.045700000000000074,-4.014950669016974
-0.046700000000000186,-4.0588067193127895
-0.047700000000000076,-4.014950669016974
-0.04870000000000019,-4.0588067193127895
-0.04970000000000008,-4.0588067193127895
-0.05070000000000019,-4.014950669016974
-0.05170000000000008,-4.014950669016974
-0.05270000000000019,-4.014950669016974
-0.05370000000000008,-4.014950669016974
-0.05470000000000019,-4.0588067193127895
-0.05570000000000008,-4.0588067193127895
-0.056700000000000195,-4.0588067193127895
-0.057700000000000085,-4.0588067193127895
-0.058700000000000196,-4.0588067193127895
-0.059700000000000086,-4.0588067193127895
-0.0607000000000002,-4.0588067193127895
-0.06170000000000009,-4.0588067193127895
-0.0627000000000002,-4.0588067193127895
-0.06370000000000009,-4.014950669016974
-0.0647000000000002,-4.0588067193127895
-0.06570000000000009,-4.0588067193127895
-0.0667000000000002,-4.0588067193127895
-0.0677000000000001,-4.0588067193127895
-0.0687000000000002,-4.0588067193127895
-0.0697000000000001,-4.0588067193127895
-0.07070000000000021,-4.0588067193127895
-0.0717000000000001,-4.0588067193127895
-0.07270000000000021,-4.0588067193127895
-0.0737000000000001,-4.0588067193127895
-0.07470000000000021,-4.102662769608606
-0.0757000000000001,-4.102662769608606
-0.07670000000000021,-4.102662769608606
-0.0777000000000001,-4.146518819904423
-0.07870000000000021,-4.102662769608606
-0.0797000000000001,-4.102662769608606
-0.08070000000000022,-4.102662769608606
-0.0817000000000001,-4.0588067193127895
-0.08270000000000022,-4.0588067193127895
-0.08370000000000011,-4.0588067193127895
-0.08470000000000022,-4.0588067193127895
-0.08570000000000011,-4.102662769608606
-0.08670000000000022,-4.102662769608606
-0.08770000000000011,-4.102662769608606
-0.08870000000000022,-4.102662769608606
-0.08970000000000011,-4.102662769608606
-0.09070000000000022,-4.0588067193127895
-0.09170000000000011,-4.0588067193127895
-0.09270000000000023,-4.0588067193127895
-0.09370000000000012,-4.0588067193127895
-0.09470000000000023,-4.102662769608606
-0.09570000000000012,-4.102662769608606
-0.09670000000000023,-4.146518819904423
-0.09770000000000012,-4.146518819904423
-0.09870000000000023,-4.146518819904423
-0.09970000000000012,-4.146518819904423
-0.10070000000000023,-4.146518819904423
-0.10170000000000012,-4.146518819904423
-0.10270000000000024,-4.146518819904423
-0.10370000000000013,-4.146518819904423
-0.10470000000000024,-4.1889601589003735
-0.10570000000000013,-4.1889601589003735
-0.10670000000000024,-4.23281620919619
-0.10770000000000013,-4.23281620919619
-0.10870000000000024,-4.23281620919619
-0.10970000000000013,-4.23281620919619
-0.11070000000000024,-4.23281620919619
-0.11170000000000013,-4.23281620919619
-0.11270000000000002,-4.23281620919619
-0.11370000000000013,-4.23281620919619
-0.11470000000000002,-4.23281620919619
-0.11570000000000014,-4.276672259492005
-0.11670000000000003,-4.3205283097878215
-0.11770000000000014,-4.276672259492005
-0.11870000000000003,-4.3205283097878215
-0.11970000000000014,-4.276672259492005
-0.12070000000000003,-4.276672259492005
-0.12170000000000014,-4.276672259492005
-0.12270000000000003,-4.276672259492005
-0.12370000000000014,-4.276672259492005
-0.12470000000000003,-4.276672259492005
-0.12570000000000014,-4.276672259492005
-0.12670000000000003,-4.3205283097878215
-0.12770000000000015,-4.3205283097878215
-0.12870000000000004,-4.364384360083638
-0.12970000000000015,-4.364384360083638
-0.13070000000000004,-4.3205283097878215
-0.13170000000000015,-4.3205283097878215
-0.13270000000000004,-4.364384360083638
-0.13370000000000015,-4.364384360083638
-0.13470000000000004,-4.364384360083638
-0.13570000000000015,-4.406825699079589
-0.13670000000000004,-4.406825699079589
-0.13770000000000016,-4.406825699079589
-0.13870000000000005,-4.450681749375406
-0.13970000000000016,-4.450681749375406
-0.14070000000000005,-4.406825699079589
-0.14170000000000016,-4.406825699079589
-0.14270000000000005,-4.406825699079589
-0.14370000000000016,-4.450681749375406
-0.14470000000000005,-4.450681749375406
-0.14570000000000016,-4.494537799671222
-0.14670000000000005,-4.494537799671222
-0.14770000000000016,-4.538393849967037
-0.14870000000000005,-4.538393849967037
-0.14970000000000017,-4.494537799671222
-0.15070000000000006,-4.494537799671222
-0.15170000000000017,-4.538393849967037
-0.15270000000000006,-4.494537799671222
-0.15370000000000017,-4.538393849967037
-0.15470000000000006,-4.538393849967037
-0.15570000000000017,-4.582249900262854
-0.15670000000000006,-4.626105950558669
-0.15770000000000017,-4.626105950558669
-0.15870000000000006,-4.668547289554621
-0.15970000000000018,-4.668547289554621
-0.16070000000000007,-4.626105950558669
-0.16170000000000018,-4.626105950558669
-0.16270000000000007,-4.626105950558669
-0.16370000000000018,-4.668547289554621
-0.16470000000000007,-4.668547289554621
-0.16570000000000018,-4.712403339850438
-0.16670000000000007,-4.756259390146253
-0.16770000000000018,-4.756259390146253
-0.16870000000000007,-4.800115440442069
-0.16970000000000018,-4.756259390146253
-0.17070000000000007,-4.756259390146253
-0.17170000000000019,-4.756259390146253
-0.17270000000000008,-4.800115440442069
-0.1737000000000002,-4.800115440442069
-0.17470000000000008,-4.843971490737885
-0.1757000000000002,-4.843971490737885
-0.17670000000000008,-4.887827541033701
-0.1777000000000002,-4.887827541033701
-0.17870000000000008,-4.9302688800296535
-0.1797000000000002,-4.9302688800296535
-0.18070000000000008,-4.9302688800296535
-0.1817000000000002,-4.974124930325469
-0.18270000000000008,-4.974124930325469
-0.1837000000000002,-5.017980980621284
-0.1847000000000001,-5.017980980621284
-0.1857000000000002,-5.0618370309171015
-0.1867000000000001,-5.105693081212917
-0.1877000000000002,-5.149549131508733
-0.1887000000000001,-5.149549131508733
-0.1897000000000002,-5.191990470504685
-0.1907000000000001,-5.149549131508733
-0.1917000000000001,-5.191990470504685
-0.19269999999999998,-5.191990470504685
-0.1937000000000001,-5.235846520800501
-0.19469999999999998,-5.279702571096316
-0.1957000000000001,-5.279702571096316
-0.19669999999999999,-5.323558621392133
-0.1977000000000001,-5.367414671687949
-0.1987,-5.411270721983764
-0.1997000000000001,-5.411270721983764
-0.2007,-5.411270721983764
-0.2017000000000001,-5.453712060979717
-0.2027,-5.453712060979717
-0.2037000000000001,-5.497568111275533
-0.2047,-5.5414241615713475
-0.2057000000000001,-5.585280211867165
-0.2067,-5.629136262162981
-0.2077000000000001,-5.672992312458796
-0.2087,-5.715433651454749
-0.2097000000000001,-5.715433651454749
-0.2107,-5.759289701750564
-0.2117000000000001,-5.759289701750564
-0.2127,-5.80314575204638
-0.2137000000000001,-5.847001802342197
-0.2147,-5.890857852638012
-0.2157000000000001,-5.9347139029338285
-0.2167,-6.021011292225596
-0.21770000000000012,-6.064867342521412
-0.2187,-6.108723392817228
-0.21970000000000012,-6.108723392817228
-0.2207,-6.152579443113044
-0.22170000000000012,-6.152579443113044
-0.2227,-6.196435493408861
-0.22370000000000012,-6.238876832404812
-0.2247,-6.326588932996443
-0.22570000000000012,-6.37044498329226
-0.2267,-6.414301033588076
-0.22770000000000012,-6.500598422879844
-0.22870000000000001,-6.54445447317566
-0.22970000000000013,-6.54445447317566
-0.23070000000000002,-6.588310523471475
-0.23170000000000013,-6.632166573767292
-0.23270000000000002,-6.6760226240631075
-0.23370000000000013,-6.719878674358924
-0.23470000000000002,-6.762320013354876
-0.23570000000000013,-6.850032113946507
-0.23670000000000002,-6.93774421453814
-0.2376999999999999,-6.981600264833956
-0.23870000000000002,-7.067897654125724
-0.2396999999999999,-7.067897654125724
-0.24070000000000003,-7.111753704421539
-0.24169999999999991,-7.155609754717355
-0.24270000000000003,-7.243321855308987
-0.24369999999999992,-7.28576319430494
-0.24470000000000003,-7.37347529489657
-0.24569999999999992,-7.4173313451923875
-0.24670000000000003,-7.50504344578402
-0.24769999999999992,-7.5474847847799715
-0.24870000000000003,-7.635196885371603
-0.24969999999999992,-7.679052935667419
-0.25070000000000003,-7.7653503249591855
-0.2516999999999999,-7.809206375255003
-0.25270000000000004,-7.853062425550818
-0.2536999999999999,-7.940774526142452
-0.25470000000000004,-8.027071915434218
-0.2556999999999999,-8.11478401602585
-0.25670000000000004,-8.202496116617484
-0.25769999999999993,-8.288793505909249
-0.25870000000000004,-8.376505606500881
-0.25969999999999993,-8.4203616567967
-0.26070000000000004,-8.508073757388331
-0.26169999999999993,-8.594371146680096
-0.26270000000000004,-8.68208324727173
-0.26369999999999993,-8.725939297567548
-0.26470000000000005,-8.812236686859313
-0.26569999999999994,-8.943804837746763
-0.26670000000000005,-9.031516938338395
-0.26769999999999994,-9.11781432763016
-0.26870000000000005,-9.205526428221793
-0.26969999999999994,-9.293238528813426
-0.27070000000000005,-9.379535918105192
-0.27169999999999994,-9.423391968401008
-0.27270000000000005,-9.55496011928846
-0.27369999999999994,-9.641257508580225
-0.27470000000000006,-9.728969609171857
-0.27569999999999995,-9.85912304875944
-0.27670000000000006,-9.99069119964689
-0.27769999999999995,-10.078403300238522
-0.27870000000000006,-10.208556739826104
-0.27969999999999995,-10.296268840417738
-0.28070000000000006,-10.382566229709504
-0.28169999999999995,-10.470278330301136
-0.28270000000000006,-10.557990430892769
-0.28369999999999995,-10.688143870480351
-0.28470000000000006,-10.819712021367803
-0.28569999999999995,-10.993721511251199
-0.28670000000000007,-11.123874950838783
-0.28769999999999996,-11.299299152022046
-0.28870000000000007,-11.42945259160963
-0.28969999999999996,-11.517164692201263
-0.29070000000000007,-11.647318131788847
-0.29169999999999996,-11.73503023238048
-0.29270000000000007,-11.86659838326793
-0.29369999999999996,-11.952895772559694
-0.2947000000000001,-12.084463923447142
-0.29569999999999996,-12.170761312738911
-0.2967000000000001,-12.346185513922174
-0.29769999999999996,-12.432482903213943
-0.2987000000000001,-12.56405105410139
-0.29969999999999997,-12.694204493688973
-0.3007000000000001,-12.781916594280606
-0.30169999999999997,-12.913484745168056
-0.3027000000000001,-13.043638184755638
-0.30369999999999997,-13.175206335643086
-0.3047000000000001,-13.349215825526485
-0.30569999999999997,-13.523225315409885
-0.3067000000000001,-13.698649516593148
-0.3077,-13.916515056772363
-0.3087000000000001,-14.090524546655764
-0.3097,-14.217848563643619
-0.3107000000000001,-14.401761032626075
-0.3117,-14.57152638860988
-0.3127000000000001,-14.741291744593681
-0.3137,-14.925204213576137
-0.3147000000000001,-15.137410908555893
-0.3157,-15.349617603535648
-0.3167000000000001,-15.533530072518102
-0.3177,-15.74573676749786
-0.3187000000000001,-15.91550212348166
-0.3197,-16.099414592464115
-0.3207000000000001,-16.269179948447924
-0.3217,-16.438945304431726
-0.3227000000000001,-16.665299112410132
-0.3237,-16.835064468393938
-0.3247000000000001,-17.103859615368293
-0.3257,-17.2736249713521
-0.3267000000000001,-17.48583166633185
-0.3277,-17.71218547431026
-0.3287000000000001,-17.924392169290012
-0.3297,-18.10830463827247
-0.3307000000000001,-18.320511333252224
-0.3317,-18.49027668923603
-0.3327000000000001,-18.716630497214435
-0.3337,-18.88639585319824
-0.3347000000000001,-19.112749661176647
-0.3357,-19.3249563561564
-0.3367000000000001,-19.537163051136158
-0.3377,-19.763516859114564
-0.3387000000000001,-19.97572355409432
-0.3397,-20.159636023076775
-0.3407000000000001,-20.371842718056527
-0.3417,-20.584049413036283
-0.3427000000000001,-20.85284456001064
-0.3437,-21.065051254990397
-0.3447000000000001,-21.333846401964752
-0.3457,-21.58849443594046
-0.3467000000000001,-21.857289582914817
-0.3477,-22.111937616890522
-0.3487000000000001,-22.38073276386488
-0.3497,-22.592939458844636
-0.3507000000000001,-22.861734605818995
-0.3517,-23.031499961802798
-0.3527000000000001,-23.342736447773106
-0.3537,-23.55494314275286
-0.3547000000000001,-23.823738289727217
-0.3557,-24.078386323702922
-0.35670000000000013,-24.34718147067728
-0.3577,-24.601829504652986
-0.35870000000000013,-24.870624651627345
-0.3597,-25.12527268560305
-0.36070000000000013,-25.39406783257741
-0.3617,-25.60627452755716
-0.3626999999999999,-25.86092256153287
-0.3637,-26.129717708507226
-0.3646999999999999,-26.38436574248293
-0.3657,-26.69560222845324
-0.3666999999999999,-27.00683871442355
-0.3677,-27.261486748399253
-0.3686999999999999,-27.572723234369565
-0.36970000000000003,-27.827371268345274
-0.3706999999999999,-28.09616641531963
-0.37170000000000003,-28.350814449295335
-0.3726999999999999,-28.577168257273744
-0.37370000000000003,-28.8742576302454
-0.3746999999999999,-29.18549411621571
-0.37570000000000003,-29.440142150191413
-0.3766999999999999,-29.66649595816982
-0.37770000000000004,-29.921143992145527
-0.3786999999999999,-30.147497800123933
-0.37970000000000004,-30.402145834099635
-0.3806999999999999,-30.670940981073993
-0.38170000000000004,-30.968030354045652
-0.38269999999999993,-31.27926684001596
-0.38370000000000004,-31.57635621298762
-0.38469999999999993,-31.887592698957924
-0.38570000000000004,-32.24127052392419
-0.38669999999999993,-32.53835989689585
-0.38770000000000004,-32.84959638286615
-0.38869999999999993,-33.14668575583781
-0.38970000000000005,-33.41548090281216
-0.39069999999999994,-33.712570275783825
-0.39170000000000005,-33.93892408376223
-0.39269999999999994,-34.193572117737936
-0.39370000000000005,-34.41992592571634
-0.39469999999999994,-34.717015298688004
-0.39570000000000005,-35.02825178465831
-0.39669999999999994,-35.32534115762997
-0.39770000000000005,-35.636577643600276
-0.39869999999999994,-35.94781412957058
-0.39970000000000006,-36.244903502542236
-0.40069999999999995,-36.55613998851254
-0.40170000000000006,-36.8532293614842
-0.40269999999999995,-37.164465847454515
-0.40370000000000006,-37.47570233342482
-0.40469999999999995,-37.81523304539243
-0.40570000000000006,-38.16891087035869
-0.40669999999999995,-38.5650300343209
-0.40770000000000006,-38.90456074628851
-0.40869999999999995,-39.258238571254765
-0.40970000000000006,-39.61191639622103
-0.41069999999999995,-39.95144710818864
-0.41170000000000007,-40.30512493315489
-0.41269999999999996,-40.65880275812115
-0.41370000000000007,-40.95589213109281
-0.41469999999999996,-41.352011295055014
-0.41570000000000007,-41.74813045901723
-0.41669999999999996,-42.087661170984845
-0.41770000000000007,-42.4413389959511
-0.41869999999999996,-42.837458159913304
-0.4197000000000001,-43.17698887188092
-0.42069999999999996,-43.53066669684718
-0.4217000000000001,-43.88434452181344
-0.42269999999999996,-44.223875233781044
-0.4237000000000001,-44.577553058747306
-0.42469999999999997,-44.97367222270952
-0.4257000000000001,-45.32735004767578
-0.42669999999999997,-45.666880759643384
-0.4277000000000001,-46.02055858460964
-0.42869999999999997,-46.41667774857186
-0.4297000000000001,-46.75620846053947
-0.43069999999999997,-47.15232762450167
-0.4317000000000001,-47.506005449467935
-0.4327,-47.93041883942744
-0.4337000000000001,-48.32653800338966
-0.4347,-48.76509850634781
-0.4357000000000001,-49.20365900930597
-0.4367,-49.642219512264134
-0.4377000000000001,-49.98175022423175
-0.4387,-50.42031072718991
-0.4397000000000001,-50.73154721316022
-0.4407,-51.071077925127824
-0.4417000000000001,-51.46719708909004
-0.4427,-51.86331625305225
-0.4437000000000001,-52.2169940780185
-0.4447,-52.59896612898206
-0.4457000000000001,-52.95264395394832
-0.4467,-53.348763117910536
-0.4477000000000001,-53.74488228187274
-0.4487,-54.1268543328363
-0.4497000000000001,-54.480532157802564
-0.4507,-54.876651321764776
-0.4517000000000001,-55.21618203373238
-0.4527,-55.612301197694585
-0.4537000000000001,-56.008420361656796
-0.4547,-56.404539525619015
-0.4557000000000001,-56.786511576582576
-0.4567,-57.22507207954074
-0.4577000000000001,-57.62119124350295
-0.4587,-58.017310407465146
-0.4597000000000001,-58.31439978043681
-0.4607,-58.62563626640712
-0.4617000000000001,-58.97931409137338
-0.4627,-59.31884480334099
-0.4637000000000001,-59.6300812893113
-0.4647,-59.9696120012789
-0.4657000000000001,-60.36573116524111
-0.4667,-60.71940899020737
-0.4677000000000001,-61.11552815416958
-0.4687,-61.49750020513315
-0.4697000000000001,-61.80873669110345
-0.4707,-62.24729719406162
-0.4717000000000001,-62.68585769701977
-0.4727,-63.15271242597524
-0.4737000000000001,-63.59127292893339
-0.4747,-64.0722747708875
-0.4757000000000001,-64.51083527384567
-0.4767,-64.99183711579978
-0.4777000000000001,-65.4728389577539
-0.4787,-65.95384079970802
-0.4797000000000001,-66.39240130266617
-0.4807,-66.87340314462028
-0.48170000000000013,-67.2978165345798
-0.4827,-67.73637703753796
-0.48370000000000013,-68.13249620150016
-0.4847,-68.61349804345427
-0.48570000000000013,-69.0096172074165
-0.4867,-68.74082206044213
-0.48570000000000013,-67.6090530205501
-0.4847,-66.68949067563783
-0.48370000000000013,-65.82651678272015
-0.4827,-64.99183711579978
-0.48170000000000013,-64.19959878787537
-0.4807,-63.421507572949594
-0.4797000000000001,-62.72829903601572
-0.4787,-62.02094338608321
-0.4777000000000001,-61.37017618814529
-0.4767,-60.71940899020737
-0.4757000000000001,-60.06864179226946
-0.4747,-59.403727481332886
-0.4737000000000001,-58.75296028339497
-0.4727,-58.14463442445301
-0.4717000000000001,-57.493867226515086
-0.4707,-56.88554136757313
-0.4697000000000001,-56.30550973462846
-0.4687,-55.73962521468245
-0.4677000000000001,-55.13129935574048
-0.4667,-54.56541483579447
-0.4657000000000001,-53.999530315848446
-0.4647,-53.433645795902436
-0.4637000000000001,-52.82531993696047
-0.4627,-52.2169940780185
