Potential V vs RHE, Current mA cm-2
0.4132999999999999,-0.009576180788786434
0.4122999999999999,-0.011290810884222858
0.4112999999999999,-0.011764739169677645
0.4102999999999999,-0.012006654801954566
0.4092999999999999,-0.012160858333639855
0.4082999999999999,-0.012296670618426897
0.4072999999999999,-0.012428238769314348
0.4062999999999999,-0.012552733363702469
0.4052999999999999,-0.012661666133792078
0.4042999999999999,-0.012764940058682225
0.4032999999999999,-0.012811625531577771
0.4022999999999999,-0.012910655322568325
0.4012999999999999,-0.013016758670058201
0.4002999999999999,-0.01310305605934997
0.3992999999999999,-0.013172376913043356
0.3982999999999999,-0.01326574785883445
0.3972999999999999,-0.013306774486530537
0.3962999999999999,-0.013385998319322977
0.3952999999999999,-0.01346239272951569
0.3942999999999999,-0.01352746944930948
0.39329999999999987,-0.013582643190004217
0.39229999999999987,-0.01364206106459855
0.39129999999999987,-0.013728358453890317
0.39029999999999987,-0.013806167575382894
0.38929999999999987,-0.013834461801380194
0.38829999999999987,-0.01390944150027304
0.38729999999999987,-0.013936321014970478
0.38629999999999987,-0.014021203692962378
0.38529999999999986,-0.014096183391855225
0.38429999999999986,-0.014134380596951582
0.38329999999999986,-0.014189554337646317
0.38229999999999986,-0.01424614278964092
0.38129999999999986,-0.01430273124163552
0.38029999999999986,-0.014387613919627423
0.37929999999999986,-0.014415908145624722
0.37829999999999986,-0.014472496597619325
0.37729999999999986,-0.014514937936615275
0.37629999999999986,-0.014571526388609878
0.37529999999999986,-0.01465640906660178
0.37429999999999986,-0.014684703292599082
0.37329999999999985,-0.014741291744593682
0.37229999999999985,-0.014797880196588285
0.37129999999999985,-0.014854468648582884
0.37029999999999985,-0.014911057100577486
0.36929999999999985,-0.014953498439573438
0.36829999999999985,-0.014981792665570736
0.36729999999999985,-0.015066675343562642
0.36629999999999985,-0.015123263795557243
0.36529999999999985,-0.015165705134553195
0.36429999999999985,-0.015222293586547794
0.36329999999999985,-0.015250587812545097
0.36229999999999984,-0.015278882038542396
0.36129999999999984,-0.015349617603535646
0.36029999999999984,-0.015392058942531598
0.35929999999999984,-0.01543450028152755
0.35829999999999984,-0.015476941620523503
0.35729999999999984,-0.015519382959519455
0.35629999999999984,-0.015575971411514053
0.35529999999999984,-0.015632559863508654
0.35429999999999984,-0.015675001202504608
0.35329999999999984,-0.015703295428501907
0.35229999999999984,-0.015745736767497857
0.35129999999999983,-0.01578817810649381
0.35029999999999983,-0.01584476655848841
0.34929999999999983,-0.015873060784485714
0.34829999999999983,-0.015929649236480315
0.34729999999999983,-0.01597209057547626
0.34629999999999983,-0.016014531914472215
0.34529999999999983,-0.016071120366466816
0.34429999999999983,-0.01608526747946547
0.3432999999999998,-0.01614185593146007
0.3422999999999998,-0.016170150157457368
0.3412999999999998,-0.016212591496453318
0.3402999999999998,-0.016283327061446574
0.3392999999999998,-0.01629747417444522
0.3382999999999998,-0.016339915513441175
0.3372999999999998,-0.016396503965435776
0.3362999999999998,-0.016424798191433075
0.3352999999999998,-0.01650968086942498
0.3342999999999998,-0.01652382798242363
0.3332999999999998,-0.016552122208420932
0.3322999999999998,-0.01659456354741688
0.3312999999999998,-0.016637004886412832
0.3302999999999998,-0.016693593338407434
0.3292999999999998,-0.016721887564404736
0.3282999999999998,-0.016750181790402035
0.3272999999999998,-0.016806770242396636
0.3262999999999998,-0.016863358694391237
0.3252999999999999,-0.01690580003338719
0.3242999999999999,-0.01693409425938449
0.3232999999999999,-0.01697653559838044
0.3222999999999999,-0.01703312405037504
0.3212999999999999,-0.017075565389370995
0.3202999999999999,-0.017132153841365592
0.3192999999999999,-0.017146300954364244
0.3182999999999999,-0.017174595180361543
0.3172999999999999,-0.0172453307453548
0.3162999999999999,-0.017273624971352097
0.3152999999999999,-0.01734436053634535
0.3142999999999999,-0.017372654762342652
0.3132999999999999,-0.017400948988339954
0.3122999999999999,-0.0174150961013386
0.3112999999999999,-0.017471684553333203
0.3102999999999999,-0.0175282730053278
0.3092999999999999,-0.017584861457322406
0.3082999999999999,-0.017613155683319705
0.3072999999999999,-0.017613155683319705
0.3062999999999999,-0.01768389124831296
0.3052999999999999,-0.01774047970030756
0.3042999999999999,-0.017754626813306213
0.3032999999999999,-0.01781121526530081
0.3022999999999999,-0.017839509491298113
0.3012999999999999,-0.017881950830294063
0.3002999999999999,-0.017952686395287316
0.2992999999999999,-0.017966833508285963
0.2982999999999999,-0.017995127734283266
0.2972999999999999,-0.018023421960280565
0.2962999999999999,-0.018094157525273817
0.2952999999999999,-0.01813659886426977
0.2942999999999999,-0.018150745977268422
0.2932999999999999,-0.018193187316264375
0.2922999999999999,-0.018235628655260322
0.2912999999999999,-0.018263922881257624
0.2902999999999999,-0.018334658446250877
0.2892999999999999,-0.018377099785246823
0.2882999999999999,-0.018377099785246823
0.2872999999999999,-0.018433688237241428
0.2862999999999999,-0.01850442380223468
0.2852999999999999,-0.01856101225422928
0.2842999999999999,-0.01858930648022658
0.2832999999999999,-0.018603453593225232
0.2822999999999999,-0.018660042045219833
0.2812999999999999,-0.018702483384215783
0.2802999999999999,-0.018730777610213082
0.2792999999999999,-0.018787366062207687
0.2782999999999999,-0.018801513175206338
0.2772999999999999,-0.018815660288204986
0.2762999999999999,-0.018886395853198238
0.2752999999999999,-0.01892883719219419
0.2742999999999999,-0.01897127853119014
0.2732999999999999,-0.018985425644188793
0.2722999999999999,-0.018999572757187444
0.2712999999999999,-0.019084455435179344
0.2702999999999999,-0.019126896774175294
0.2692999999999999,-0.0191551910001726
0.26829999999999987,-0.019197632339168547
0.26729999999999987,-0.019211779452167198
0.26629999999999987,-0.0192683679041618
0.26529999999999987,-0.019310809243157753
0.26429999999999987,-0.0193249563561564
0.26329999999999987,-0.019367397695152354
0.26229999999999987,-0.019381544808151
0.26129999999999987,-0.019438133260145606
0.26029999999999986,-0.019494721712140204
0.25929999999999986,-0.019523015938137503
0.25829999999999986,-0.019551310164134805
0.25729999999999986,-0.019565457277133456
0.25629999999999986,-0.019607898616129407
0.25529999999999986,-0.01967863418112266
0.25429999999999986,-0.01970692840711996
0.25329999999999986,-0.019721075520118612
0.25229999999999986,-0.019777663972113214
0.25129999999999986,-0.019805958198110513
0.25029999999999986,-0.019848399537106463
0.24929999999999986,-0.019876693763103765
0.24829999999999985,-0.019904987989101064
0.24729999999999985,-0.019933282215098366
0.24629999999999985,-0.019989870667092968
0.24529999999999985,-0.02006060623208622
0.24429999999999985,-0.02008890045808352
0.24329999999999985,-0.02008890045808352
0.24229999999999985,-0.02011719468408082
0.24129999999999985,-0.020173783136075422
0.24029999999999985,-0.020216224475071376
0.23929999999999985,-0.020258665814067326
0.23829999999999985,-0.020286960040064625
0.23729999999999984,-0.020315254266061927
0.23629999999999984,-0.020371842718056525
0.23529999999999984,-0.02041428405705248
0.23429999999999984,-0.020442578283049778
0.23329999999999984,-0.020470872509047083
0.23229999999999984,-0.020513313848043033
0.23129999999999984,-0.02055575518703898
0.23029999999999984,-0.020584049413036282
0.22929999999999984,-0.020626490752032236
0.22829999999999984,-0.020668932091028186
0.22729999999999984,-0.020683079204026837
0.22629999999999983,-0.02075381476902009
0.22529999999999983,-0.02079625610801604
0.22429999999999983,-0.020824550334013342
0.22329999999999983,-0.02086699167300929
0.22229999999999983,-0.02086699167300929
0.22129999999999983,-0.020923580125003893
0.22029999999999983,-0.020980168576998495
0.21929999999999983,-0.021008462802995797
0.21829999999999983,-0.021008462802995797
0.21729999999999983,-0.021065051254990398
0.21629999999999983,-0.021079198367989046
0.21529999999999982,-0.021149933932982302
0.21429999999999982,-0.0212065223849769
0.21329999999999982,-0.02122066949797555
0.21229999999999982,-0.0212631108369715
0.21129999999999982,-0.021277257949970152
0.21029999999999982,-0.021347993514963404
0.20929999999999982,-0.021362140627962056
0.20829999999999982,-0.021390434853959358
0.20729999999999982,-0.021447023305953956
0.20629999999999982,-0.021475317531951258
0.20529999999999982,-0.02153190598394586
0.20429999999999982,-0.02157434732294181
0.20329999999999981,-0.021602641548939108
0.2022999999999998,-0.021645082887935062
0.2012999999999998,-0.021687524226931015
0.20029999999999992,-0.021744112678925617
0.19929999999999992,-0.021758259791924264
0.19829999999999992,-0.021772406904922915
0.19729999999999992,-0.021828995356917517
0.19629999999999992,-0.021871436695913467
0.19529999999999992,-0.021928025147908068
0.19429999999999992,-0.022027054938898623
0.19329999999999992,-0.02205534916489592
0.19229999999999992,-0.02204120205189727
0.19129999999999991,-0.02208364339089322
0.1902999999999999,-0.022140231842887825
0.1892999999999999,-0.022154378955886473
0.1882999999999999,-0.02218267318188378
0.1872999999999999,-0.022210967407881078
0.1862999999999999,-0.02226755585987568
0.1852999999999999,-0.02230999719887163
0.1842999999999999,-0.022338291424868928
0.1832999999999999,-0.022366585650866227
0.1822999999999999,-0.02240902698986218
0.1812999999999999,-0.022465615441856785
0.1802999999999999,-0.022536351006850038
0.1792999999999999,-0.022550498119848682
0.1782999999999999,-0.022578792345845984
0.1772999999999999,-0.022621233684841938
0.1762999999999999,-0.022635380797840585
0.1752999999999999,-0.02270611636283384
0.1742999999999999,-0.02273441058883114
0.1732999999999999,-0.02276270481482844
0.1722999999999999,-0.02280514615382439
0.1712999999999999,-0.022847587492820343
0.1702999999999999,-0.022890028831816296
0.1692999999999999,-0.022932470170812246
0.1682999999999999,-0.022974911509808196
0.1672999999999999,-0.023017352848804146
0.1662999999999999,-0.023031499961802798
0.1652999999999999,-0.023073941300798748
0.1642999999999999,-0.023116382639794698
0.1632999999999999,-0.02313052975279335
0.1622999999999999,-0.023172971091789302
0.1612999999999999,-0.0232295595437839
0.1602999999999999,-0.023286147995778505
0.1592999999999999,-0.023314442221775804
0.15829999999999989,-0.023342736447773106
0.15729999999999988,-0.02338517778676906
0.15629999999999988,-0.023441766238763657
0.15529999999999988,-0.023484207577759608
0.15429999999999988,-0.02352664891675556
0.15329999999999988,-0.02355494314275286
0.15229999999999988,-0.023583237368750162
0.15129999999999988,-0.023639825820744764
0.15029999999999988,-0.023682267159740714
0.14929999999999988,-0.023724708498736664
0.14829999999999988,-0.023724708498736664
0.14729999999999988,-0.023767149837732617
0.14629999999999987,-0.023809591176728567
0.14529999999999987,-0.023866179628723165
0.14429999999999987,-0.02388032674172182
0.14329999999999987,-0.023965209419713723
0.14229999999999987,-0.02400765075870967
0.14129999999999987,-0.024021797871708325
0.14029999999999987,-0.024106680549700225
0.13929999999999987,-0.024134974775697527
0.13829999999999987,-0.024163269001694826
0.13729999999999987,-0.02423400456668808
0.13629999999999987,-0.02427644590568403
0.13529999999999986,-0.02433303435767863
0.13429999999999986,-0.02434718147067728
0.13329999999999986,-0.02438962280967323
0.13229999999999986,-0.024432064148669184
0.13129999999999986,-0.024460358374666487
0.13029999999999986,-0.024516946826661085
0.12929999999999986,-0.02457353527865569
0.12829999999999986,-0.02457353527865569
0.12729999999999986,-0.024630123730650287
0.12629999999999986,-0.02467256506964624
0.12529999999999986,-0.024729153521640842
0.12429999999999986,-0.024771594860636792
0.12329999999999985,-0.024785741973635443
0.12229999999999985,-0.02482818331263139
0.12129999999999985,-0.024870624651627343
0.12029999999999985,-0.024927213103621948
0.11929999999999985,-0.024969654442617898
0.11829999999999985,-0.024983801555616546
0.11729999999999985,-0.025040390007611147
0.11629999999999985,-0.0251111255726044
0.11529999999999985,-0.025167714024599004
0.11429999999999985,-0.025196008250596303
0.11329999999999985,-0.025210155363594954
0.11229999999999984,-0.025238449589592253
0.11129999999999984,-0.025295038041586858
0.11029999999999984,-0.02535162649358146
0.10929999999999984,-0.02537992071957876
0.10829999999999984,-0.02543650917157336
0.10729999999999984,-0.02546480339757066
0.10629999999999984,-0.025507244736566608
0.10529999999999984,-0.025563833188561213
0.10429999999999984,-0.025592127414558512
0.10329999999999984,-0.025634568753554465
0.10229999999999984,-0.025662862979551764
0.10129999999999983,-0.025719451431546365
0.10029999999999983,-0.025790186996539618
0.09929999999999983,-0.02580433410953827
0.09829999999999983,-0.025860922561532867
0.09729999999999983,-0.02591751101352747
0.09629999999999983,-0.025931658126526123
0.09529999999999983,-0.026030687917516674
0.09429999999999983,-0.026044835030515325
0.09329999999999983,-0.026073129256512624
0.09229999999999983,-0.026101423482509926
0.09129999999999983,-0.02614386482150588
0.09029999999999982,-0.02624289461249643
0.08929999999999982,-0.02629948306449103
0.08829999999999982,-0.02629948306449103
0.08729999999999982,-0.026356071516485634
0.08629999999999982,-0.026384365742482933
0.08529999999999982,-0.026469248420474833
0.08429999999999982,-0.026511689759470786
0.08329999999999982,-0.02652583687246944
0.08229999999999982,-0.02658242532446404
0.08129999999999982,-0.026639013776458643
0.08029999999999982,-0.026667308002455942
0.07929999999999982,-0.026723896454450544
0.07829999999999981,-0.026766337793446494
0.07729999999999981,-0.026794632019443793
0.07629999999999981,-0.026851220471438397
0.07529999999999992,-0.026893661810434347
0.07429999999999992,-0.0269643973754276
0.07329999999999992,-0.026978544488426247
0.07229999999999992,-0.0270209858274222
0.07129999999999992,-0.02709172139241545
0.07029999999999992,-0.027134162731411407
0.06929999999999992,-0.027190751183406005
0.06829999999999992,-0.027204898296404656
0.06729999999999992,-0.02723319252240196
0.06629999999999991,-0.02730392808739521
0.06529999999999991,-0.027374663652388463
0.06429999999999991,-0.02740295787838576
0.06329999999999991,-0.027473693443379014
0.06229999999999991,-0.02750198766937631
0.06129999999999991,-0.027530281895373616
0.06029999999999991,-0.027615164573365516
0.05929999999999991,-0.027657605912361466
0.05829999999999991,-0.02768590013835877
0.05729999999999991,-0.027714194364356067
0.056299999999999906,-0.027770782816350672
0.055299999999999905,-0.027813224155346622
0.054299999999999904,-0.027869812607341227
0.0532999999999999,-0.027912253946337173
0.0522999999999999,-0.02796884239833177
0.0512999999999999,-0.027997136624329073
0.0502999999999999,-0.028053725076323675
0.0492999999999999,-0.02811031352831828
0.0482999999999999,-0.02813860775431558
0.0472999999999999,-0.02820934331930883
0.0462999999999999,-0.028251784658304784
0.045299999999999896,-0.028322520223298033
0.044299999999999895,-0.028379108675292634
0.043299999999999894,-0.028393255788291286
0.04229999999999989,-0.028449844240285887
0.04129999999999989,-0.02849228557928184
0.04029999999999989,-0.02861960959626969
0.03929999999999989,-0.028647903822266993
0.03829999999999989,-0.028676198048264292
0.03729999999999989,-0.028704492274261594
0.03629999999999989,-0.028761080726256192
0.03529999999999989,-0.02880352206525215
0.034299999999999886,-0.02888840474324405
0.033299999999999885,-0.02893084608224
0.032299999999999884,-0.028973287421235953
0.031299999999999883,-0.02902987587323055
0.030299999999999883,-0.029100611438223806
0.02929999999999988,-0.029157199890218404
0.02829999999999988,-0.02921378834221301
0.02729999999999988,-0.029256229681208955
0.02629999999999988,-0.029298671020204912
0.025299999999999878,-0.029341112359200863
0.024299999999999877,-0.02939770081119546
0.023299999999999876,-0.029440142150191414
0.022299999999999875,-0.029482583489187364
0.021299999999999875,-0.02953917194118197
0.020299999999999874,-0.029624054619173872
0.019299999999999873,-0.02968064307116847
0.018299999999999872,-0.02970893729716577
0.01729999999999987,-0.029751378636161722
0.01629999999999987,-0.029807967088156324
0.01529999999999987,-0.029878702653149573
0.014299999999999868,-0.029949438218142825
0.013299999999999867,-0.029949438218142825
0.012299999999999978,-0.03002017378313608
0.011299999999999866,-0.03006261512213203
0.010299999999999976,-0.03014749780012393
0.009299999999999864,-0.030218233365117184
0.008299999999999974,-0.030246527591114486
0.007299999999999862,-0.030288968930110433
0.006299999999999972,-0.03033141026910639
0.00529999999999986,-0.030416292947098293
0.0042999999999999705,-0.03047288139909289
0.0032999999999998586,-0.030487028512091542
0.0022999999999999687,-0.03055776407708479
0.0012999999999998568,-0.030614352529079396
0.00029999999999996696,-0.030685088094072648
-0.000700000000000145,-0.030741676546067253
-0.0017000000000000348,-0.030784117885063196
-0.0027000000000001467,-0.03082655922405915
-0.0037000000000000366,-0.030883147676053754
-0.0047000000000001485,-0.030953883241047007
-0.005700000000000038,-0.031010471693041605
-0.00670000000000015,-0.03103876591903891
-0.00770000000000004,-0.031081207258034853
-0.008700000000000152,-0.031151942823028106
-0.009700000000000042,-0.031194384162024056
-0.010700000000000154,-0.03130756106601326
-0.011700000000000044,-0.031350002405009215
-0.012700000000000156,-0.03137829663100652
-0.013700000000000045,-0.031434885083001116
-0.014700000000000157,-0.03149147353499571
-0.015700000000000047,-0.03154806198699031
-0.01670000000000016,-0.03161879755198357
-0.01770000000000005,-0.03164709177798087
-0.01870000000000016,-0.03168953311697682
-0.01970000000000005,-0.03176026868197007
-0.020700000000000163,-0.03181685713396468
-0.021700000000000053,-0.03184515135996198
-0.022700000000000164,-0.031887592698957926
-0.023700000000000054,-0.031972475376949826
-0.024700000000000166,-0.03202906382894443
-0.025700000000000056,-0.032085652280939035
-0.026700000000000168,-0.03212809361993498
-0.027700000000000058,-0.032184682071929586
-0.02870000000000017,-0.03222712341092554
-0.02970000000000006,-0.03229785897591879
-0.03070000000000017,-0.03236859454091204
-0.03170000000000006,-0.03239688876690934
-0.03270000000000017,-0.032467624331902596
-0.03370000000000006,-0.03249591855789989
-0.034700000000000175,-0.03258080123589179
-0.035700000000000065,-0.032637389687886396
-0.03670000000000018,-0.032693978139880994
-0.03770000000000007,-0.0327505665918756
-0.03870000000000018,-0.032807155043870204
-0.03970000000000007,-0.03287789060886345
-0.04070000000000018,-0.0329203319478594
-0.04170000000000007,-0.03294862617385671
-0.04270000000000018,-0.03301936173884996
-0.04370000000000007,-0.033075950190844555
-0.044700000000000184,-0.03311839152984051
-0.045700000000000074,-0.03320327420783241
-0.046700000000000186,-0.03321742132083106
-0.047700000000000076,-0.033274009772825665
-0.04870000000000019,-0.033358892450817565
-0.04970000000000008,-0.03341548090281216
-0.05070000000000019,-0.03348621646780542
-0.05170000000000008,-0.03352865780680137
-0.05270000000000019,-0.03358524625879597
-0.05370000000000008,-0.03364183471079057
-0.05470000000000019,-0.03367012893678788
-0.05570000000000008,-0.03375501161477978
-0.056700000000000195,-0.03381160006677438
-0.057700000000000085,-0.03383989429277168
-0.058700000000000196,-0.03388233563176763
-0.059700000000000086,-0.033967218309759524
-0.0607000000000002,-0.034009659648755484
-0.06170000000000009,-0.03408039521374873
-0.0627000000000002,-0.03416527789174064
-0.06370000000000009,-0.034193572117737936
-0.0647000000000002,-0.034306749021727145
