Potential V vs RHE, Current mA cm-2
0.013299999999999867,0.21588494435940458
0.012299999999999978,-1.8334658446250875
0.011299999999999866,-3.403795387475278
0.010299999999999976,-4.756259390146253
0.009299999999999864,-6.064867342521412
0.008299999999999974,-7.199465805013171
0.007299999999999862,-8.11478401602585
0.006299999999999972,-8.812236686859313
0.00529999999999986,-9.467248018696827
0.0042999999999999705,-10.208556739826104
0.0032999999999998586,-10.863568071663616
0.0022999999999999687,-11.343155202317865
0.0012999999999998568,-11.73503023238048
0.00029999999999996696,-12.084463923447142
-0.000700000000000145,-12.56405105410139
-0.0017000000000000348,-13.043638184755638
-0.0027000000000001467,-13.349215825526485
-0.0037000000000000366,-13.523225315409885
-0.0047000000000001485,-13.741090855589102
-0.005700000000000038,-14.046668496359947
-0.00670000000000015,-14.345172580631472
-0.00770000000000004,-14.529085049613924
-0.008700000000000152,-14.61396772760583
-0.009700000000000042,-14.741291744593681
-0.010700000000000154,-15.01008689156804
-0.011700000000000044,-15.307176264539699
-0.012700000000000156,-15.448647394526201
-0.013700000000000045,-15.491088733522153
-0.014700000000000157,-15.575971411514052
-0.015700000000000047,-15.78817810649381
-0.01670000000000016,-16.056973253468165
-0.01770000000000005,-16.184297270456018
-0.01870000000000016,-16.184297270456018
-0.01970000000000005,-16.22673860945197
-0.020700000000000163,-16.396503965435777
-0.021700000000000053,-16.622857773414182
-0.022700000000000164,-16.750181790402035
-0.023700000000000054,-16.70774045140608
-0.024700000000000166,-16.750181790402035
-0.025700000000000056,-16.919947146385837
-0.026700000000000168,-17.103859615368293
-0.027700000000000058,-17.146300954364243
-0.02870000000000017,-17.146300954364243
-0.02970000000000006,-17.188742293360193
-0.03070000000000017,-17.316066310348052
-0.03170000000000006,-17.542420118326454
-0.03270000000000017,-17.584861457322408
-0.03370000000000006,-17.542420118326454
-0.034700000000000175,-17.584861457322408
-0.035700000000000065,-17.71218547431026
-0.03670000000000018,-17.881950830294063
-0.03770000000000007,-17.924392169290012
-0.03870000000000018,-17.924392169290012
-0.03970000000000007,-17.924392169290012
-0.04070000000000018,-18.06586329927652
-0.04170000000000007,-18.23562865526032
-0.04270000000000018,-18.27806999425627
-0.04370000000000007,-18.23562865526032
-0.044700000000000184,-18.19318731626437
-0.045700000000000074,-18.320511333252224
-0.046700000000000186,-18.49027668923603
-0.047700000000000076,-18.49027668923603
-0.04870000000000019,-18.44783535024008
-0.04970000000000008,-18.49027668923603
-0.05070000000000019,-18.589306480226583
-0.05170000000000008,-18.80151317520634
-0.05270000000000019,-18.843954514202288
-0.05370000000000008,-18.759071836210385
-0.05470000000000019,-18.80151317520634
-0.05570000000000008,-18.88639585319824
-0.056700000000000195,-19.01371987018609
-0.057700000000000085,-19.01371987018609
-0.058700000000000196,-18.92883719219419
-0.059700000000000086,-18.92883719219419
-0.0607000000000002,-19.056161209182044
-0.06170000000000009,-19.197632339168546
-0.0627000000000002,-19.2400736781645
-0.06370000000000009,-19.155191000172596
-0.0647000000000002,-19.112749661176647
-0.06570000000000009,-19.2400736781645
-0.0667000000000002,-19.367397695152352
-0.0677000000000001,-19.409839034148305
-0.0687000000000002,-19.3249563561564
-0.0697000000000001,-19.28251501716045
-0.07070000000000021,-19.409839034148305
-0.0717000000000001,-19.537163051136158
-0.07270000000000021,-19.579604390132108
-0.0737000000000001,-19.49472171214021
-0.07470000000000021,-19.452280373144255
-0.0757000000000001,-19.537163051136158
-0.07670000000000021,-19.678634181122664
-0.0777000000000001,-19.678634181122664
-0.07870000000000021,-19.579604390132108
-0.0797000000000001,-19.537163051136158
-0.08070000000000022,-19.678634181122664
-0.0817000000000001,-19.805958198110513
-0.08270000000000022,-19.805958198110513
-0.08370000000000011,-19.763516859114564
-0.08470000000000022,-19.678634181122664
-0.08570000000000011,-19.763516859114564
-0.08670000000000022,-19.890840876102416
-0.08770000000000011,-19.890840876102416
-0.08870000000000022,-19.805958198110513
-0.08970000000000011,-19.763516859114564
-0.09070000000000022,-19.848399537106463
-0.09170000000000011,-19.97572355409432
-0.09270000000000023,-19.93328221509837
-0.09370000000000012,-19.848399537106463
-0.09470000000000023,-19.805958198110513
-0.09570000000000012,-19.890840876102416
-0.09670000000000023,-20.01816489309027
-0.09770000000000012,-20.06060623208622
-0.09870000000000023,-19.97572355409432
-0.09970000000000012,-19.97572355409432
-0.10070000000000023,-20.10304757108217
-0.10170000000000012,-20.202077362072725
-0.10270000000000024,-20.202077362072725
-0.10370000000000013,-20.06060623208622
-0.10470000000000024,-19.97572355409432
-0.10570000000000013,-20.10304757108217
-0.10670000000000024,-20.202077362072725
-0.10770000000000013,-20.202077362072725
-0.10870000000000024,-20.10304757108217
-0.10970000000000013,-20.06060623208622
-0.11070000000000024,-20.159636023076775
-0.11170000000000013,-20.329401379060574
-0.11270000000000002,-20.329401379060574
-0.11370000000000013,-20.286960040064624
-0.11470000000000002,-20.244518701068674
-0.11570000000000014,-20.329401379060574
-0.11670000000000003,-20.456725396048434
-0.11770000000000014,-20.499166735044383
-0.11870000000000003,-20.414284057052477
-0.11970000000000014,-20.414284057052477
-0.12070000000000003,-20.499166735044383
-0.12170000000000014,-20.626490752032236
-0.12270000000000003,-20.626490752032236
-0.12370000000000014,-20.584049413036283
-0.12470000000000003,-20.584049413036283
-0.12570000000000014,-20.72552054302279
-0.12670000000000003,-20.85284456001064
-0.12770000000000015,-20.85284456001064
-0.12870000000000004,-20.810403221014692
-0.12970000000000015,-20.810403221014692
-0.13070000000000004,-20.93772723800254
-0.13170000000000015,-21.065051254990397
-0.13270000000000004,-21.107492593986347
-0.13370000000000015,-21.022609915994444
-0.13470000000000004,-21.022609915994444
-0.13570000000000015,-21.107492593986347
-0.13670000000000004,-21.248963723972853
-0.13770000000000016,-21.248963723972853
-0.13870000000000005,-21.2065223849769
-0.13970000000000016,-21.248963723972853
-0.14070000000000005,-21.376287740960702
-0.14170000000000016,-21.58849443594046
-0.14270000000000005,-21.63093577493641
-0.14370000000000016,-21.58849443594046
-0.14470000000000005,-21.58849443594046
-0.14570000000000016,-21.729965565926964
-0.14670000000000005,-21.857289582914817
-0.14770000000000016,-21.94217226090672
-0.14870000000000005,-21.899730921910766
-0.14970000000000017,-21.857289582914817
-0.15070000000000006,-21.98461359990267
-0.15170000000000017,-22.196820294882425
-0.15270000000000006,-22.253408746877028
-0.15370000000000017,-22.196820294882425
-0.15470000000000006,-22.196820294882425
-0.15570000000000017,-22.38073276386488
-0.15670000000000006,-22.508056780852733
-0.15770000000000017,-22.592939458844636
-0.15870000000000006,-22.592939458844636
-0.15970000000000018,-22.592939458844636
-0.16070000000000007,-22.72026347583249
-0.16170000000000018,-22.904175944814945
-0.16270000000000007,-22.946617283810895
-0.16370000000000018,-22.946617283810895
-0.16470000000000007,-23.031499961802798
-0.16570000000000018,-23.2012653177866
-0.16670000000000007,-23.385177786769056
-0.16770000000000018,-23.47006046476096
-0.16870000000000007,-23.47006046476096
-0.16970000000000018,-23.47006046476096
-0.17070000000000007,-23.55494314275286
-0.17170000000000019,-23.767149837732617
-0.17270000000000008,-23.767149837732617
-0.1737000000000002,-23.724708498736668
-0.17470000000000008,-23.767149837732617
-0.1757000000000002,-23.908620967719123
-0.17670000000000008,-24.078386323702922
-0.1777000000000002,-24.120827662698876
-0.17870000000000008,-24.078386323702922
-0.1797000000000002,-24.120827662698876
-0.18070000000000008,-24.290593018682678
-0.1817000000000002,-24.474505487665134
-0.18270000000000008,-24.601829504652986
-0.1837000000000002,-24.601829504652986
-0.1847000000000001,-24.64427084364894
-0.1857000000000002,-24.814036199632742
-0.1867000000000001,-25.04039000761115
-0.1877000000000002,-25.12527268560305
-0.1887000000000001,-25.12527268560305
-0.1897000000000002,-25.210155363594954
-0.1907000000000001,-25.39406783257741
-0.1917000000000001,-25.563833188561212
-0.19269999999999998,-25.648715866553115
-0.1937000000000001,-25.648715866553115
-0.19469999999999998,-25.648715866553115
-0.1957000000000001,-25.81848122253692
-0.19669999999999999,-25.959952352523427
-0.1977000000000001,-26.044835030515326
-0.1987,-26.087276369511276
-0.1997000000000001,-26.129717708507226
-0.2007,-26.29948306449103
-0.2017000000000001,-26.568278211465387
-0.2027,-26.69560222845324
-0.2037000000000001,-26.69560222845324
-0.2047,-26.780484906445146
-0.2057000000000001,-26.9643973754276
-0.2067,-27.176604070407354
-0.2077000000000001,-27.261486748399253
-0.2087,-27.261486748399253
-0.2097000000000001,-27.303928087395207
-0.2107,-27.487840556377662
-0.2117000000000001,-27.700047251357418
-0.2127,-27.78492992934932
-0.2137000000000001,-27.78492992934932
-0.2147,-27.827371268345274
-0.2157000000000001,-28.09616641531963
-0.2167,-28.265931771303435
-0.21770000000000012,-28.435697127287238
-0.2187,-28.478138466283188
-0.21970000000000012,-28.619609596269694
-0.2207,-28.831816291249446
-0.22170000000000012,-29.058170099227848
-0.2227,-29.18549411621571
-0.22370000000000012,-29.14305277721976
-0.2247,-29.18549411621571
-0.22570000000000012,-29.35525947219951
-0.2267,-29.62405461917387
-0.22770000000000012,-29.751378636161718
-0.22870000000000001,-29.751378636161718
-0.22970000000000013,-29.793819975157668
-0.23070000000000002,-30.04846800913338
-0.23170000000000013,-30.274821817111786
-0.23270000000000002,-30.359704495103685
-0.23370000000000013,-30.359704495103685
-0.23470000000000002,-30.444587173095588
-0.23570000000000013,-30.71338232006995
-0.23670000000000002,-30.968030354045652
-0.2376999999999999,-31.137795710029454
-0.23870000000000002,-31.19438416202406
-0.2396999999999999,-31.321708179011907
-0.24070000000000003,-31.57635621298762
-0.24169999999999991,-31.802710020966025
-0.24270000000000003,-31.930034037953877
-0.24369999999999992,-31.972475376949827
-0.24470000000000003,-32.01491671594578
-0.24569999999999992,-32.283711862920136
-0.24670000000000003,-32.49591855789989
-0.24769999999999992,-32.62324257488775
-0.24870000000000003,-32.66568391388369
-0.24969999999999992,-32.807155043870196
-0.25070000000000003,-33.01936173884996
-0.2516999999999999,-33.288156885824314
-0.25270000000000004,-33.41548090281216
-0.2536999999999999,-33.50036358080407
-0.25470000000000004,-33.627687597791926
-0.2556999999999999,-33.85404140577033
-0.25670000000000004,-34.15113077874198
-0.25769999999999993,-34.278454795729836
-0.25870000000000004,-34.377484586720385
-0.25969999999999993,-34.50480860370825
-0.26070000000000004,-34.717015298688004
-0.26169999999999993,-35.02825178465831
-0.26270000000000004,-35.198017140642115
-0.26369999999999993,-35.240458479638065
-0.26470000000000005,-35.32534115762997
-0.26569999999999994,-35.594136304604326
-0.26670000000000005,-35.90537279057463
-0.26769999999999994,-36.07513814655844
-0.26870000000000005,-36.11757948555439
-0.26969999999999994,-36.244903502542236
-0.27070000000000005,-36.5136986495166
-0.27169999999999994,-36.768346683492304
-0.27270000000000005,-36.89567070048016
-0.27369999999999994,-36.99470049147071
-0.27470000000000006,-37.07958316946261
-0.27569999999999995,-37.334231203438314
-0.27670000000000006,-37.60302635041268
-0.27769999999999995,-37.73035036740053
-0.27870000000000006,-37.81523304539243
-0.27969999999999995,-37.90011572338433
-0.28070000000000006,-38.08402819236679
-0.28169999999999995,-38.29623488734655
-0.28270000000000006,-38.42355890433439
-0.28369999999999995,-38.46600024333035
-0.28470000000000006,-38.522588695324956
-0.28569999999999995,-38.692354051308754
-0.28670000000000007,-38.94700208528445
-0.28769999999999996,-39.08847321527096
-0.28870000000000007,-39.130914554266916
-0.28969999999999996,-39.173355893262865
-0.29070000000000007,-39.38556258824262
-0.29169999999999996,-39.61191639622103
-0.29270000000000007,-39.696799074212926
-0.29369999999999996,-39.696799074212926
-0.2947000000000001,-39.78168175220483
-0.29569999999999996,-39.99388844718459
-0.2967000000000001,-40.26268359415894
-0.29769999999999996,-40.34756627215084
-0.2987000000000001,-40.34756627215084
-0.29969999999999997,-40.3900076111468
-0.3007000000000001,-40.51733162813464
-0.30169999999999997,-40.701244097117105
-0.3027000000000001,-40.828568114104954
-0.30369999999999997,-40.828568114104954
-0.3047000000000001,-40.87100945310091
-0.30569999999999997,-41.04077480908471
-0.3067000000000001,-41.22468727806717
-0.3077,-41.267128617063115
-0.3087000000000001,-41.182245939071215
-0.3097,-41.22468727806717
-0.3107000000000001,-41.352011295055014
-0.3117,-41.52177665103883
-0.3127000000000001,-41.56421799003478
-0.3137,-41.56421799003478
-0.3147000000000001,-41.606659329030734
-0.3157,-41.79057179801318
-0.3167000000000001,-42.00277849299294
-0.3177,-42.130102509980794
-0.3187000000000001,-42.130102509980794
-0.3197,-42.229132300971344
-0.3207000000000001,-42.39889765695515
-0.3217,-42.653545690930855
-0.3227000000000001,-42.79501682091736
-0.3237,-42.837458159913304
-0.3247000000000001,-42.92234083790521
-0.3257,-43.134547532884966
-0.3267000000000001,-43.40334267985933
-0.3277,-43.53066669684718
-0.3287000000000001,-43.57310803584313
-0.3297,-43.70043205283099
-0.3307000000000001,-43.92678586080939
-0.3317,-44.223875233781044
-0.3327000000000001,-44.4077877027635
-0.3337,-44.4926703807554
-0.3347000000000001,-44.66243573673921
-0.3357,-44.93123088371356
-0.3367000000000001,-45.27076159568118
-0.3377,-45.497115403659585
-0.3387000000000001,-45.624439420647434
-0.3397,-45.85079322862584
-0.3407000000000001,-46.19032394059345
-0.3417,-46.586443104555656
-0.3427000000000001,-46.94012092952192
-0.3437,-47.15232762450167
-0.3447000000000001,-47.46356411047198
-0.3457,-47.8879775004315
-0.3467000000000001,-48.36897934238561
-0.3477,-48.80753984534376
-0.3487000000000001,-49.118776331314066
-0.3497,-49.50074838227763
-0.3507000000000001,-50.024191563227696
-0.3517,-50.547634744177756
-0.3527000000000001,-51.071077925127824
-0.3537,-51.46719708909004
-0.3547000000000001,-51.90575759204819
-0.3557,-52.55652478998611
-0.35670000000000013,-53.22143910092268
-0.3577,-53.82976495986464
-0.35870000000000013,-54.39564947981066
-0.3597,-55.046416677748574
-0.36070000000000013,-55.881096344668954
-0.3617,-56.786511576582576
-0.3626999999999999,-57.57874990450699
-0.3637,-58.35684111943277
-0.3646999999999999,-59.23396212534908
-0.3657,-60.23840714825326
-0.3666999999999999,-61.37017618814529
-0.3677,-62.41706255004542
-0.3686999999999999,-63.421507572949594
-0.36970000000000003,-64.55327661284163
-0.3706999999999999,-65.82651678272015
-0.37170000000000003,-67.21293385658788
-0.3726999999999999,-68.57105670445833
-0.37370000000000003,-69.87259110033416
-0.3746999999999999,-71.35803796519245
-0.37570000000000003,-72.8859261690467
-0.3766999999999999,-74.49869705089283
-0.37770000000000004,-76.06902659374302
-0.3786999999999999,-77.55447345860131
-0.37970000000000004,-79.16724434044745
-0.3806999999999999,-80.9497805782774
-0.38170000000000004,-82.9162292850898
-0.38269999999999993,-84.84023665290624
-0.38370000000000004,-86.6227728907362
-0.38469999999999993,-88.54678025855264
-0.38570000000000004,-90.55567030436099
-0.38669999999999993,-91.07911348531105
-0.38570000000000004,-89.11266477849867
-0.38469999999999993,-87.62721791364037
-0.38370000000000004,-86.36812485676049
-0.38269999999999993,-85.32123849486035
-0.38170000000000004,-84.52900016693594
-0.3806999999999999,-83.70846761301424
-0.37970000000000004,-82.87378794609386
-0.3786999999999999,-82.03910827917348
-0.37770000000000004,-81.3458997422396
-0.3766999999999999,-80.65269120530574
-0.37570000000000003,-79.81801153838538
-0.3746999999999999,-78.85600785447714
-0.37370000000000003,-77.95059262256353
-0.3726999999999999,-77.1583542946391
-0.37170000000000003,-76.42270441870929
-0.3706999999999999,-75.54558341279296
-0.36970000000000003,-74.54113838988879
-0.3686999999999999,-73.53669336698461
-0.3677,-72.67371947406694
-0.3666999999999999,-71.7965984681506
-0.3657,-70.87703612323833
-0.3646999999999999,-69.78770842234226
-0.3637,-68.74082206044213
-0.3626999999999999,-67.86370105452582
-0.3617,-67.00072716160814
-0.36070000000000013,-65.99628213870396
-0.3597,-64.94939577680383
-0.35870000000000013,-63.902509414903705
-0.3577,-63.02538840898739
-0.35670000000000013,-62.11997317707376
-0.3557,-61.11552815416958
-0.3547000000000001,-60.02620045327351
-0.3537,-58.92272563937878
-0.3527000000000001,-57.974869068469204
-0.3517,-57.05530672355693
-0.3507000000000001,-56.05086170065276
-0.3497,-54.961533999756675
-0.3487000000000001,-53.872206298860604
-0.3477,-52.91020261495237
-0.3467000000000001,-52.033081609036046
-0.3457,-50.98619524713592
-0.3447000000000001,-49.89686754623985
-0.3437,-48.84998118433972
-0.3427000000000001,-47.93041883942744
-0.3417,-47.067444946509774
-0.3407000000000001,-46.062999923605595
-0.3397,-45.01611356170547
-0.3387000000000001,-44.011668538801295
-0.3377,-43.134547532884966
-0.3367000000000001,-42.31401497896325
-0.3357,-41.352011295055014
-0.3347000000000001,-40.34756627215084
-0.3337,-39.42800392723857
-0.3327000000000001,-38.5650300343209
-0.3317,-37.77279170639648
-0.3307000000000001,-36.89567070048016
-0.3297,-35.848784338580025
-0.3287000000000001,-34.94336910666641
-0.3277,-34.10868943974604
-0.3267000000000001,-33.288156885824314
-0.3257,-32.41103587990799
-0.3247000000000001,-31.40659085700382
-0.3237,-30.487028512091538
-0.3227000000000001,-29.708937297165768
-0.3217,-28.959140308237306
-0.3207000000000001,-28.13860775431558
-0.3197,-27.219045409403304
-0.3187000000000001,-26.34192440348698
-0.3177,-25.60627452755716
-0.3167000000000001,-24.95550732961925
-0.3157,-24.16326900169483
-0.3147000000000001,-23.342736447773106
-0.3137,-22.550498119848687
-0.3127000000000001,-21.899730921910766
-0.3117,-21.291405062968803
-0.3107000000000001,-20.499166735044383
-0.3097,-19.721075520118614
-0.3087000000000001,-18.92883719219419
-0.3077,-18.23562865526032
-0.3067000000000001,-17.669744135314307
-0.30569999999999997,-16.962388485381787
-0.3047000000000001,-16.22673860945197
-0.30369999999999997,-15.491088733522153
-0.3027000000000001,-14.925204213576137
-0.30169999999999997,-14.401761032626075
-0.3007000000000001,-13.741090855589102
-0.29969999999999997,-13.043638184755638
-0.2987000000000001,-12.390041564217992
-0.29769999999999996,-11.86659838326793
-0.2967000000000001,-11.385596541313816
-0.29569999999999996,-10.819712021367803
-0.2947000000000001,-10.164700689530287
-0.29369999999999996,-9.55496011928846
-0.29270000000000007,-9.073958277334345
-0.29169999999999996,-8.638227196975913
-0.29070000000000007,-8.158640066321666
-0.28969999999999996,-7.50504344578402
-0.28870000000000007,-6.93774421453814
-0.28769999999999996,-6.500598422879844
-0.28670000000000007,-6.108723392817228
-0.28569999999999995,-5.629136262162981
-0.28470000000000006,-5.0618370309171015
-0.28369999999999995,-4.538393849967037
-0.28270000000000006,-4.146518819904423
-0.28169999999999995,-3.7970851288377587
-0.28070000000000006,-3.361354048479327
-0.27969999999999995,-2.8379108675292635
-0.27870000000000006,-2.3569090255751513
-0.27769999999999995,-2.052746096104168
-0.27670000000000006,-1.7033124050375041
-0.27569999999999995,-1.3107300193249565
-0.27470000000000006,-0.8308599464107361
-0.27369999999999994,-0.3947044526623452
-0.27270000000000005,-0.08943804837746762
-0.27169999999999994,0.17231183632356148
-0.27070000000000005,0.5647527509061226
-0.26969999999999994,1.0010497157844997
-0.26870000000000005,1.3934906303670611
-0.26769999999999994,1.655212220842093
