Sept. 6, 2024   09:40:25
Cyclic Voltammetry
File: c:/users/guazh/data/20240903_batch_252_500/2024-09-03-exp278\exp278-2024-09-06t09_28_46-h2koh\exp278_cv_sr_600mvs_efin_-1500mv.bin
Data Source:  Experiment
Instrument Model:  CHI760E
Header: CV ran at 600 mVs
Note: 

Init E (V) = -1
High E (V) = -1
Low E (V) = -1.5
Final E (V) = -1
Init P/N = N
Scan Rate (V/s) = 0.6
Segment = 3
Sample Interval (V) = 0.001
Quiet Time (sec) = 2
Sensitivity (A/V) = 0.01
Comp R (ohm) = 2.9

Results:

Channel 1:
Segment 1:

Segment 2:

Segment 3:

Potential/V, Current/A

-1.000, 1.557e-5
-1.001, 1.235e-4
-1.002, 2.098e-4
-1.003, 2.807e-4
-1.004, 3.424e-4
-1.005, 3.979e-4
-1.006, 4.441e-4
-1.007, 4.873e-4
-1.008, 5.274e-4
-1.009, 5.644e-4
-1.010, 5.921e-4
-1.011, 6.229e-4
-1.012, 6.507e-4
-1.013, 6.754e-4
-1.014, 7.000e-4
-1.015, 7.185e-4
-1.016, 7.401e-4
-1.017, 7.586e-4
-1.018, 7.740e-4
-1.019, 7.894e-4
-1.020, 8.079e-4
-1.021, 8.203e-4
-1.022, 8.357e-4
-1.023, 8.480e-4
-1.024, 8.603e-4
-1.025, 8.727e-4
-1.026, 8.819e-4
-1.027, 8.912e-4
-1.028, 9.004e-4
-1.029, 9.066e-4
-1.030, 9.189e-4
-1.031, 9.251e-4
-1.032, 9.313e-4
-1.033, 9.405e-4
-1.034, 9.467e-4
-1.035, 9.528e-4
-1.036, 9.590e-4
-1.037, 9.652e-4
-1.038, 9.744e-4
-1.039, 9.806e-4
-1.040, 9.868e-4
-1.041, 9.929e-4
-1.042, 9.960e-4
-1.043, 1.002e-3
-1.044, 1.005e-3
-1.045, 1.008e-3
-1.046, 1.011e-3
-1.047, 1.018e-3
-1.048, 1.024e-3
-1.049, 1.030e-3
-1.050, 1.036e-3
-1.051, 1.036e-3
-1.052, 1.036e-3
-1.053, 1.039e-3
-1.054, 1.042e-3
-1.055, 1.039e-3
-1.056, 1.036e-3
-1.057, 1.036e-3
-1.058, 1.039e-3
-1.059, 1.042e-3
-1.060, 1.045e-3
-1.061, 1.048e-3
-1.062, 1.055e-3
-1.063, 1.058e-3
-1.064, 1.058e-3
-1.065, 1.058e-3
-1.066, 1.061e-3
-1.067, 1.061e-3
-1.068, 1.061e-3
-1.069, 1.061e-3
-1.070, 1.067e-3
-1.071, 1.070e-3
-1.072, 1.067e-3
-1.073, 1.067e-3
-1.074, 1.064e-3
-1.075, 1.067e-3
-1.076, 1.070e-3
-1.077, 1.073e-3
-1.078, 1.079e-3
-1.079, 1.085e-3
-1.080, 1.085e-3
-1.081, 1.095e-3
-1.082, 1.098e-3
-1.083, 1.098e-3
-1.084, 1.101e-3
-1.085, 1.104e-3
-1.086, 1.107e-3
-1.087, 1.110e-3
-1.088, 1.113e-3
-1.089, 1.116e-3
-1.090, 1.119e-3
-1.091, 1.122e-3
-1.092, 1.122e-3
-1.093, 1.125e-3
-1.094, 1.132e-3
-1.095, 1.141e-3
-1.096, 1.147e-3
-1.097, 1.150e-3
-1.098, 1.156e-3
-1.099, 1.156e-3
-1.100, 1.156e-3
-1.101, 1.153e-3
-1.102, 1.153e-3
-1.103, 1.156e-3
-1.104, 1.156e-3
-1.105, 1.159e-3
-1.106, 1.162e-3
-1.107, 1.166e-3
-1.108, 1.162e-3
-1.109, 1.162e-3
-1.110, 1.162e-3
-1.111, 1.162e-3
-1.112, 1.162e-3
-1.113, 1.162e-3
-1.114, 1.166e-3
-1.115, 1.166e-3
-1.116, 1.169e-3
-1.117, 1.169e-3
-1.118, 1.172e-3
-1.119, 1.169e-3
-1.120, 1.166e-3
-1.121, 1.162e-3
-1.122, 1.159e-3
-1.123, 1.153e-3
-1.124, 1.150e-3
-1.125, 1.147e-3
-1.126, 1.150e-3
-1.127, 1.153e-3
-1.128, 1.156e-3
-1.129, 1.162e-3
-1.130, 1.159e-3
-1.131, 1.162e-3
-1.132, 1.169e-3
-1.133, 1.169e-3
-1.134, 1.169e-3
-1.135, 1.162e-3
-1.136, 1.156e-3
-1.137, 1.156e-3
-1.138, 1.156e-3
-1.139, 1.156e-3
-1.140, 1.162e-3
-1.141, 1.166e-3
-1.142, 1.162e-3
-1.143, 1.156e-3
-1.144, 1.150e-3
-1.145, 1.147e-3
-1.146, 1.150e-3
-1.147, 1.156e-3
-1.148, 1.156e-3
-1.149, 1.156e-3
-1.150, 1.156e-3
-1.151, 1.153e-3
-1.152, 1.156e-3
-1.153, 1.153e-3
-1.154, 1.150e-3
-1.155, 1.147e-3
-1.156, 1.150e-3
-1.157, 1.150e-3
-1.158, 1.150e-3
-1.159, 1.150e-3
-1.160, 1.147e-3
-1.161, 1.144e-3
-1.162, 1.138e-3
-1.163, 1.135e-3
-1.164, 1.129e-3
-1.165, 1.122e-3
-1.166, 1.122e-3
-1.167, 1.116e-3
-1.168, 1.113e-3
-1.169, 1.110e-3
-1.170, 1.110e-3
-1.171, 1.104e-3
-1.172, 1.104e-3
-1.173, 1.098e-3
-1.174, 1.101e-3
-1.175, 1.101e-3
-1.176, 1.101e-3
-1.177, 1.104e-3
-1.178, 1.101e-3
-1.179, 1.095e-3
-1.180, 1.085e-3
-1.181, 1.079e-3
-1.182, 1.073e-3
-1.183, 1.067e-3
-1.184, 1.064e-3
-1.185, 1.061e-3
-1.186, 1.058e-3
-1.187, 1.055e-3
-1.188, 1.048e-3
-1.189, 1.045e-3
-1.190, 1.039e-3
-1.191, 1.036e-3
-1.192, 1.033e-3
-1.193, 1.030e-3
-1.194, 1.027e-3
-1.195, 1.024e-3
-1.196, 1.024e-3
-1.197, 1.018e-3
-1.198, 1.014e-3
-1.199, 1.008e-3
-1.200, 1.005e-3
-1.201, 1.005e-3
-1.202, 1.002e-3
-1.203, 9.991e-4
-1.204, 9.960e-4
-1.205, 9.929e-4
-1.206, 9.868e-4
-1.207, 9.837e-4
-1.208, 9.806e-4
-1.209, 9.775e-4
-1.210, 9.744e-4
-1.211, 9.713e-4
-1.212, 9.683e-4
-1.213, 9.652e-4
-1.214, 9.621e-4
-1.215, 9.590e-4
-1.216, 9.559e-4
-1.217, 9.528e-4
-1.218, 9.498e-4
-1.219, 9.498e-4
-1.220, 9.467e-4
-1.221, 9.436e-4
-1.222, 9.436e-4
-1.223, 9.374e-4
-1.224, 9.343e-4
-1.225, 9.343e-4
-1.226, 9.313e-4
-1.227, 9.282e-4
-1.228, 9.282e-4
-1.229, 9.282e-4
-1.230, 9.282e-4
-1.231, 9.251e-4
-1.232, 9.251e-4
-1.233, 9.158e-4
-1.234, 9.097e-4
-1.235, 9.097e-4
-1.236, 9.097e-4
-1.237, 9.097e-4
-1.238, 9.066e-4
-1.239, 9.220e-4
-1.240, 9.158e-4
-1.241, 9.128e-4
-1.242, 9.097e-4
-1.243, 9.066e-4
-1.244, 9.035e-4
-1.245, 9.004e-4
-1.246, 8.973e-4
-1.247, 8.943e-4
-1.248, 8.943e-4
-1.249, 8.943e-4
-1.250, 8.943e-4
-1.251, 8.943e-4
-1.252, 8.943e-4
-1.253, 8.943e-4
-1.254, 9.066e-4
-1.255, 9.035e-4
-1.256, 8.973e-4
-1.257, 8.943e-4
-1.258, 8.850e-4
-1.259, 8.912e-4
-1.260, 8.912e-4
-1.261, 8.881e-4
-1.262, 8.881e-4
-1.263, 9.066e-4
-1.264, 8.943e-4
-1.265, 8.943e-4
-1.266, 8.912e-4
-1.267, 8.881e-4
-1.268, 8.758e-4
-1.269, 8.758e-4
-1.270, 8.758e-4
-1.271, 8.788e-4
-1.272, 8.819e-4
-1.273, 8.881e-4
-1.274, 8.881e-4
-1.275, 8.912e-4
-1.276, 8.912e-4
-1.277, 8.881e-4
-1.278, 8.881e-4
-1.279, 8.881e-4
-1.280, 8.881e-4
-1.281, 8.912e-4
-1.282, 8.912e-4
-1.283, 9.004e-4
-1.284, 8.973e-4
-1.285, 8.943e-4
-1.286, 8.943e-4
-1.287, 8.973e-4
-1.288, 8.973e-4
-1.289, 8.973e-4
-1.290, 9.004e-4
-1.291, 9.035e-4
-1.292, 8.912e-4
-1.293, 8.943e-4
-1.294, 9.035e-4
-1.295, 9.066e-4
-1.296, 9.066e-4
-1.297, 9.097e-4
-1.298, 9.220e-4
-1.299, 9.220e-4
-1.300, 9.220e-4
-1.301, 9.251e-4
-1.302, 9.282e-4
-1.303, 9.282e-4
-1.304, 9.313e-4
-1.305, 9.313e-4
-1.306, 9.282e-4
-1.307, 9.343e-4
-1.308, 9.436e-4
-1.309, 9.498e-4
-1.310, 9.528e-4
-1.311, 9.621e-4
-1.312, 9.621e-4
-1.313, 9.652e-4
-1.314, 9.683e-4
-1.315, 9.806e-4
-1.316, 9.898e-4
-1.317, 9.960e-4
-1.318, 1.005e-3
-1.319, 1.014e-3
-1.320, 1.018e-3
-1.321, 1.021e-3
-1.322, 1.030e-3
-1.323, 1.036e-3
-1.324, 1.033e-3
-1.325, 1.045e-3
-1.326, 1.055e-3
-1.327, 1.064e-3
-1.328, 1.076e-3
-1.329, 1.085e-3
-1.330, 1.088e-3
-1.331, 1.098e-3
-1.332, 1.104e-3
-1.333, 1.110e-3
-1.334, 1.125e-3
-1.335, 1.138e-3
-1.336, 1.147e-3
-1.337, 1.153e-3
-1.338, 1.162e-3
-1.339, 1.172e-3
-1.340, 1.181e-3
-1.341, 1.190e-3
-1.342, 1.203e-3
-1.343, 1.209e-3
-1.344, 1.218e-3
-1.345, 1.230e-3
-1.346, 1.240e-3
-1.347, 1.252e-3
-1.348, 1.261e-3
-1.349, 1.273e-3
-1.350, 1.289e-3
-1.351, 1.298e-3
-1.352, 1.304e-3
-1.353, 1.314e-3
-1.354, 1.329e-3
-1.355, 1.338e-3
-1.356, 1.344e-3
-1.357, 1.354e-3
-1.358, 1.366e-3
-1.359, 1.381e-3
-1.360, 1.400e-3
-1.361, 1.421e-3
-1.362, 1.434e-3
-1.363, 1.462e-3
-1.364, 1.477e-3
-1.365, 1.489e-3
-1.366, 1.505e-3
-1.367, 1.514e-3
-1.368, 1.532e-3
-1.369, 1.548e-3
-1.370, 1.563e-3
-1.371, 1.585e-3
-1.372, 1.603e-3
-1.373, 1.616e-3
-1.374, 1.628e-3
-1.375, 1.643e-3
-1.376, 1.671e-3
-1.377, 1.696e-3
-1.378, 1.717e-3
-1.379, 1.739e-3
-1.380, 1.764e-3
-1.381, 1.779e-3
-1.382, 1.801e-3
-1.383, 1.822e-3
-1.384, 1.841e-3
-1.385, 1.859e-3
-1.386, 1.881e-3
-1.387, 1.909e-3
-1.388, 1.933e-3
-1.389, 1.958e-3
-1.390, 1.983e-3
-1.391, 2.007e-3
-1.392, 2.026e-3
-1.393, 2.050e-3
-1.394, 2.069e-3
-1.395, 2.087e-3
-1.396, 2.103e-3
-1.397, 2.131e-3
-1.398, 2.158e-3
-1.399, 2.183e-3
-1.400, 2.211e-3
-1.401, 2.254e-3
-1.402, 2.269e-3
-1.403, 2.285e-3
-1.404, 2.306e-3
-1.405, 2.328e-3
-1.406, 2.356e-3
-1.407, 2.383e-3
-1.408, 2.411e-3
-1.409, 2.442e-3
-1.410, 2.473e-3
-1.411, 2.507e-3
-1.412, 2.534e-3
-1.413, 2.556e-3
-1.414, 2.581e-3
-1.415, 2.612e-3
-1.416, 2.642e-3
-1.417, 2.673e-3
-1.418, 2.698e-3
-1.419, 2.729e-3
-1.420, 2.769e-3
-1.421, 2.797e-3
-1.422, 2.821e-3
-1.423, 2.849e-3
-1.424, 2.883e-3
-1.425, 2.923e-3
-1.426, 2.963e-3
-1.427, 2.997e-3
-1.428, 3.025e-3
-1.429, 3.049e-3
-1.430, 3.077e-3
-1.431, 3.105e-3
-1.432, 3.130e-3
-1.433, 3.163e-3
-1.434, 3.197e-3
-1.435, 3.234e-3
-1.436, 3.268e-3
-1.437, 3.296e-3
-1.438, 3.330e-3
-1.439, 3.370e-3
-1.440, 3.404e-3
-1.441, 3.441e-3
-1.442, 3.475e-3
-1.443, 3.506e-3
-1.444, 3.540e-3
-1.445, 3.573e-3
-1.446, 3.610e-3
-1.447, 3.647e-3
-1.448, 3.684e-3
-1.449, 3.725e-3
-1.450, 3.758e-3
-1.451, 3.792e-3
-1.452, 3.826e-3
-1.453, 3.866e-3
-1.454, 3.906e-3
-1.455, 3.947e-3
-1.456, 3.984e-3
-1.457, 4.021e-3
-1.458, 4.061e-3
-1.459, 4.101e-3
-1.460, 4.144e-3
-1.461, 4.178e-3
-1.462, 4.218e-3
-1.463, 4.258e-3
-1.464, 4.304e-3
-1.465, 4.347e-3
-1.466, 4.387e-3
-1.467, 4.434e-3
-1.468, 4.477e-3
-1.469, 4.523e-3
-1.470, 4.572e-3
-1.471, 4.619e-3
-1.472, 4.668e-3
-1.473, 4.720e-3
-1.474, 4.773e-3
-1.475, 4.822e-3
-1.476, 4.881e-3
-1.477, 4.936e-3
-1.478, 4.995e-3
-1.479, 5.053e-3
-1.480, 5.109e-3
-1.481, 5.161e-3
-1.482, 5.208e-3
-1.483, 5.254e-3
-1.484, 5.309e-3
-1.485, 5.365e-3
-1.486, 5.408e-3
-1.487, 5.454e-3
-1.488, 5.507e-3
-1.489, 5.559e-3
-1.490, 5.608e-3
-1.491, 5.658e-3
-1.492, 5.698e-3
-1.493, 5.744e-3
-1.494, 5.803e-3
-1.495, 5.864e-3
-1.496, 5.923e-3
-1.497, 5.972e-3
-1.498, 6.021e-3
-1.499, 6.074e-3
-1.500, 6.028e-3
-1.499, 5.877e-3
-1.498, 5.769e-3
-1.497, 5.673e-3
-1.496, 5.590e-3
-1.495, 5.513e-3
-1.494, 5.439e-3
-1.493, 5.359e-3
-1.492, 5.275e-3
-1.491, 5.198e-3
-1.490, 5.127e-3
-1.489, 5.060e-3
-1.488, 4.995e-3
-1.487, 4.930e-3
-1.486, 4.859e-3
-1.485, 4.788e-3
-1.484, 4.717e-3
-1.483, 4.646e-3
-1.482, 4.575e-3
-1.481, 4.498e-3
-1.480, 4.428e-3
-1.479, 4.363e-3
-1.478, 4.295e-3
-1.477, 4.224e-3
-1.476, 4.150e-3
-1.475, 4.085e-3
-1.474, 4.024e-3
-1.473, 3.962e-3
-1.472, 3.900e-3
-1.471, 3.836e-3
-1.470, 3.774e-3
-1.469, 3.712e-3
-1.468, 3.647e-3
-1.467, 3.577e-3
-1.466, 3.524e-3
-1.465, 3.475e-3
-1.464, 3.410e-3
-1.463, 3.336e-3
-1.462, 3.274e-3
-1.461, 3.216e-3
-1.460, 3.142e-3
-1.459, 3.077e-3
-1.458, 3.015e-3
-1.457, 2.957e-3
-1.456, 2.920e-3
-1.455, 2.889e-3
-1.454, 2.858e-3
-1.453, 2.830e-3
-1.452, 2.793e-3
-1.451, 2.747e-3
-1.450, 2.701e-3
-1.449, 2.661e-3
-1.448, 2.624e-3
-1.447, 2.581e-3
-1.446, 2.541e-3
-1.445, 2.513e-3
-1.444, 2.479e-3
-1.443, 2.439e-3
-1.442, 2.399e-3
-1.441, 2.368e-3
-1.440, 2.343e-3
-1.439, 2.316e-3
-1.438, 2.291e-3
-1.437, 2.257e-3
-1.436, 2.220e-3
-1.435, 2.198e-3
-1.434, 2.158e-3
-1.433, 2.112e-3
-1.432, 2.072e-3
-1.431, 2.038e-3
-1.430, 2.007e-3
-1.429, 1.980e-3
-1.428, 1.949e-3
-1.427, 1.918e-3
-1.426, 1.884e-3
-1.425, 1.847e-3
-1.424, 1.816e-3
-1.423, 1.788e-3
-1.422, 1.758e-3
-1.421, 1.730e-3
-1.420, 1.702e-3
-1.419, 1.674e-3
-1.418, 1.647e-3
-1.417, 1.616e-3
-1.416, 1.588e-3
-1.415, 1.557e-3
-1.414, 1.532e-3
-1.413, 1.508e-3
-1.412, 1.486e-3
-1.411, 1.458e-3
-1.410, 1.434e-3
-1.409, 1.409e-3
-1.408, 1.381e-3
-1.407, 1.351e-3
-1.406, 1.329e-3
-1.405, 1.304e-3
-1.404, 1.280e-3
-1.403, 1.261e-3
-1.402, 1.240e-3
-1.401, 1.215e-3
-1.400, 1.193e-3
-1.399, 1.172e-3
-1.398, 1.147e-3
-1.397, 1.125e-3
-1.396, 1.101e-3
-1.395, 1.082e-3
-1.394, 1.061e-3
-1.393, 1.039e-3
-1.392, 1.014e-3
-1.391, 9.929e-4
-1.390, 9.713e-4
-1.389, 9.498e-4
-1.388, 9.313e-4
-1.387, 9.158e-4
-1.386, 8.973e-4
-1.385, 8.819e-4
-1.384, 8.634e-4
-1.383, 8.449e-4
-1.382, 8.264e-4
-1.381, 8.079e-4
-1.380, 7.863e-4
-1.379, 7.709e-4
-1.378, 7.555e-4
-1.377, 7.370e-4
-1.376, 7.216e-4
-1.375, 7.031e-4
-1.374, 6.877e-4
-1.373, 6.723e-4
-1.372, 6.569e-4
-1.371, 6.353e-4
-1.370, 6.168e-4
-1.369, 6.044e-4
-1.368, 5.921e-4
-1.367, 5.767e-4
-1.366, 5.736e-4
-1.365, 5.551e-4
-1.364, 5.397e-4
-1.363, 5.243e-4
-1.362, 5.120e-4
-1.361, 4.965e-4
-1.360, 4.842e-4
-1.359, 4.719e-4
-1.358, 4.565e-4
-1.357, 4.441e-4
-1.356, 4.318e-4
-1.355, 4.102e-4
-1.354, 3.979e-4
-1.353, 3.855e-4
-1.352, 3.763e-4
-1.351, 3.640e-4
-1.350, 3.547e-4
-1.349, 3.578e-4
-1.348, 3.393e-4
-1.347, 3.239e-4
-1.346, 3.146e-4
-1.345, 3.023e-4
-1.344, 2.900e-4
-1.343, 2.776e-4
-1.342, 2.684e-4
-1.341, 2.561e-4
-1.340, 2.468e-4
-1.339, 2.376e-4
-1.338, 2.252e-4
-1.337, 2.160e-4
-1.336, 2.067e-4
-1.335, 1.975e-4
-1.334, 1.851e-4
-1.333, 1.759e-4
-1.332, 1.666e-4
-1.331, 1.574e-4
-1.330, 1.481e-4
-1.329, 1.420e-4
-1.328, 1.327e-4
-1.327, 1.204e-4
-1.326, 1.142e-4
-1.325, 1.050e-4
-1.324, 9.573e-5
-1.323, 8.957e-5
-1.322, 8.032e-5
-1.321, 7.107e-5
-1.320, 6.490e-5
-1.319, 5.873e-5
-1.318, 4.949e-5
-1.317, 4.024e-5
-1.316, 3.407e-5
-1.315, 2.482e-5
-1.314, 1.865e-5
-1.313, 1.249e-5
-1.312, 3.239e-6
-1.311, -2.927e-6
-1.310, -9.093e-6
-1.309, -1.526e-5
-1.308, -2.143e-5
-1.307, -2.759e-5
-1.306, -3.684e-5
-1.305, -4.917e-5
-1.304, -5.534e-5
-1.303, -5.842e-5
-1.302, -6.459e-5
-1.301, -6.767e-5
-1.300, -6.151e-5
-1.299, -7.076e-5
-1.298, -8.000e-5
-1.297, -8.617e-5
-1.296, -9.234e-5
-1.295, -9.850e-5
-1.294, -1.047e-4
-1.293, -1.108e-4
-1.292, -1.170e-4
-1.291, -1.201e-4
-1.290, -1.232e-4
-1.289, -1.293e-4
-1.288, -1.355e-4
-1.287, -1.386e-4
-1.286, -1.448e-4
-1.285, -1.478e-4
-1.284, -1.540e-4
-1.283, -1.602e-4
-1.282, -1.632e-4
-1.281, -1.663e-4
-1.280, -1.725e-4
-1.279, -1.756e-4
-1.278, -1.817e-4
-1.277, -1.848e-4
-1.276, -1.879e-4
-1.275, -1.941e-4
-1.274, -2.002e-4
-1.273, -2.002e-4
-1.272, -2.033e-4
-1.271, -2.064e-4
-1.270, -2.126e-4
-1.269, -2.126e-4
-1.268, -2.187e-4
-1.267, -2.218e-4
-1.266, -2.249e-4
-1.265, -2.280e-4
-1.264, -2.342e-4
-1.263, -2.372e-4
-1.262, -2.403e-4
-1.261, -2.434e-4
-1.260, -2.465e-4
-1.259, -2.496e-4
-1.258, -2.527e-4
-1.257, -2.557e-4
-1.256, -2.588e-4
-1.255, -2.619e-4
-1.254, -2.681e-4
-1.253, -2.712e-4
-1.252, -2.742e-4
-1.251, -2.773e-4
-1.250, -2.773e-4
-1.249, -2.804e-4
-1.248, -2.835e-4
-1.247, -2.897e-4
-1.246, -2.897e-4
-1.245, -2.927e-4
-1.244, -2.989e-4
-1.243, -2.989e-4
-1.242, -3.020e-4
-1.241, -3.051e-4
-1.240, -3.082e-4
-1.239, -3.112e-4
-1.238, -3.143e-4
-1.237, -3.174e-4
-1.236, -3.205e-4
-1.235, -3.236e-4
-1.234, -3.267e-4
-1.233, -3.297e-4
-1.232, -3.297e-4
-1.231, -3.328e-4
-1.230, -3.359e-4
-1.229, -3.390e-4
-1.228, -3.421e-4
-1.227, -3.452e-4
-1.226, -3.482e-4
-1.225, -3.482e-4
-1.224, -3.513e-4
-1.223, -3.544e-4
-1.222, -3.575e-4
-1.221, -3.575e-4
-1.220, -3.637e-4
-1.219, -3.637e-4
-1.218, -3.667e-4
-1.217, -3.698e-4
-1.216, -3.729e-4
-1.215, -3.760e-4
-1.214, -3.791e-4
-1.213, -3.791e-4
-1.212, -3.821e-4
-1.211, -3.852e-4
-1.210, -3.945e-4
-1.209, -3.976e-4
-1.208, -3.976e-4
-1.207, -4.006e-4
-1.206, -4.037e-4
-1.205, -4.037e-4
-1.204, -4.068e-4
-1.203, -4.099e-4
-1.202, -4.099e-4
-1.201, -4.130e-4
-1.200, -4.037e-4
-1.199, -4.099e-4
-1.198, -4.161e-4
-1.197, -4.222e-4
-1.196, -4.253e-4
-1.195, -4.284e-4
-1.194, -4.315e-4
-1.193, -4.346e-4
-1.192, -4.376e-4
-1.191, -4.438e-4
-1.190, -4.438e-4
-1.189, -4.469e-4
-1.188, -4.500e-4
-1.187, -4.531e-4
-1.186, -4.561e-4
-1.185, -4.623e-4
-1.184, -4.654e-4
-1.183, -4.654e-4
-1.182, -4.685e-4
-1.181, -4.716e-4
-1.180, -4.777e-4
-1.179, -4.777e-4
-1.178, -4.808e-4
-1.177, -4.870e-4
-1.176, -4.901e-4
-1.175, -4.931e-4
-1.174, -4.962e-4
-1.173, -4.993e-4
-1.172, -5.055e-4
-1.171, -5.086e-4
-1.170, -5.116e-4
-1.169, -5.147e-4
-1.168, -5.178e-4
-1.167, -5.240e-4
-1.166, -5.271e-4
-1.165, -5.301e-4
-1.164, -5.332e-4
-1.163, -5.363e-4
-1.162, -5.363e-4
-1.161, -5.394e-4
-1.160, -5.363e-4
-1.159, -5.363e-4
-1.158, -5.425e-4
-1.157, -5.486e-4
-1.156, -5.548e-4
-1.155, -5.610e-4
-1.154, -5.671e-4
-1.153, -5.733e-4
-1.152, -5.764e-4
-1.151, -5.856e-4
-1.150, -5.887e-4
-1.149, -5.949e-4
-1.148, -6.011e-4
-1.147, -6.041e-4
-1.146, -6.134e-4
-1.145, -6.165e-4
-1.144, -6.226e-4
-1.143, -6.288e-4
-1.142, -6.319e-4
-1.141, -6.380e-4
-1.140, -6.411e-4
-1.139, -6.473e-4
-1.138, -6.565e-4
-1.137, -6.627e-4
-1.136, -6.689e-4
-1.135, -6.720e-4
-1.134, -6.781e-4
-1.133, -6.874e-4
-1.132, -6.935e-4
-1.131, -6.997e-4
-1.130, -7.059e-4
-1.129, -7.151e-4
-1.128, -7.213e-4
-1.127, -7.275e-4
-1.126, -7.336e-4
-1.125, -7.367e-4
-1.124, -7.460e-4
-1.123, -7.521e-4
-1.122, -7.583e-4
-1.121, -7.645e-4
-1.120, -7.768e-4
-1.119, -7.830e-4
-1.118, -7.891e-4
-1.117, -7.922e-4
-1.116, -7.922e-4
-1.115, -8.015e-4
-1.114, -8.076e-4
-1.113, -8.200e-4
-1.112, -8.261e-4
-1.111, -8.292e-4
-1.110, -8.354e-4
-1.109, -8.354e-4
-1.108, -8.415e-4
-1.107, -8.477e-4
-1.106, -8.539e-4
-1.105, -8.631e-4
-1.104, -8.724e-4
-1.103, -8.878e-4
-1.102, -9.032e-4
-1.101, -9.124e-4
-1.100, -9.155e-4
-1.099, -9.217e-4
-1.098, -9.279e-4
-1.097, -9.371e-4
-1.096, -9.433e-4
-1.095, -9.494e-4
-1.094, -9.556e-4
-1.093, -9.679e-4
-1.092, -9.772e-4
-1.091, -9.864e-4
-1.090, -9.926e-4
-1.089, -1.002e-3
-1.088, -1.011e-3
-1.087, -1.023e-3
-1.086, -1.036e-3
-1.085, -1.045e-3
-1.084, -1.057e-3
-1.083, -1.067e-3
-1.082, -1.076e-3
-1.081, -1.085e-3
-1.080, -1.088e-3
-1.079, -1.097e-3
-1.078, -1.104e-3
-1.077, -1.119e-3
-1.076, -1.131e-3
-1.075, -1.144e-3
-1.074, -1.153e-3
-1.073, -1.165e-3
-1.072, -1.175e-3
-1.071, -1.184e-3
-1.070, -1.196e-3
-1.069, -1.208e-3
-1.068, -1.221e-3
-1.067, -1.233e-3
-1.066, -1.242e-3
-1.065, -1.255e-3
-1.064, -1.264e-3
-1.063, -1.276e-3
-1.062, -1.289e-3
-1.061, -1.301e-3
-1.060, -1.313e-3
-1.059, -1.322e-3
-1.058, -1.335e-3
-1.057, -1.344e-3
-1.056, -1.356e-3
-1.055, -1.366e-3
-1.054, -1.378e-3
-1.053, -1.390e-3
-1.052, -1.403e-3
-1.051, -1.415e-3
-1.050, -1.427e-3
-1.049, -1.437e-3
-1.048, -1.446e-3
-1.047, -1.458e-3
-1.046, -1.470e-3
-1.045, -1.480e-3
-1.044, -1.495e-3
-1.043, -1.507e-3
-1.042, -1.520e-3
-1.041, -1.532e-3
-1.040, -1.544e-3
-1.039, -1.554e-3
-1.038, -1.554e-3
-1.037, -1.569e-3
-1.036, -1.581e-3
-1.035, -1.597e-3
-1.034, -1.612e-3
-1.033, -1.625e-3
-1.032, -1.640e-3
-1.031, -1.652e-3
-1.030, -1.665e-3
-1.029, -1.677e-3
-1.028, -1.689e-3
-1.027, -1.711e-3
-1.026, -1.726e-3
-1.025, -1.742e-3
-1.024, -1.754e-3
-1.023, -1.766e-3
-1.022, -1.779e-3
-1.021, -1.791e-3
-1.020, -1.803e-3
-1.019, -1.816e-3
-1.018, -1.825e-3
-1.017, -1.840e-3
-1.016, -1.853e-3
-1.015, -1.865e-3
-1.014, -1.874e-3
-1.013, -1.887e-3
-1.012, -1.899e-3
-1.011, -1.911e-3
-1.010, -1.924e-3
-1.009, -1.936e-3
-1.008, -1.945e-3
-1.007, -1.958e-3
-1.006, -1.967e-3
-1.005, -1.976e-3
-1.004, -1.982e-3
-1.003, -1.992e-3
-1.002, -2.007e-3
-1.001, -2.022e-3
