Potential V vs RHE, Current mA cm-2
0.013299999999999867,-0.2202705493889862
0.012299999999999978,-1.7471684553333202
0.011299999999999866,-2.968064307116847
0.010299999999999976,-3.971094618721158
0.009299999999999864,-4.843971490737885
0.008299999999999974,-5.629136262162981
0.007299999999999862,-6.282732882700628
0.006299999999999972,-6.893888164242324
0.00529999999999986,-7.461187395488204
0.0042999999999999705,-7.984630576438266
0.0032999999999998586,-8.376505606500881
0.0022999999999999687,-8.812236686859313
0.0012999999999998568,-9.205526428221793
0.00029999999999996696,-9.55496011928846
-0.000700000000000145,-9.902979099055257
-0.0017000000000000348,-10.164700689530287
-0.0027000000000001467,-10.470278330301136
-0.0037000000000000366,-10.731999920776168
-0.0047000000000001485,-10.949865460955383
-0.005700000000000038,-11.1677310011346
-0.00670000000000015,-11.42945259160963
-0.00770000000000004,-11.604876792792895
-0.008700000000000152,-11.82274233297211
-0.009700000000000042,-11.996751822855511
-0.010700000000000154,-12.170761312738911
-0.011700000000000044,-12.346185513922174
-0.012700000000000156,-12.476338953509758
-0.013700000000000045,-12.607907104397206
-0.014700000000000157,-12.73806054398479
-0.015700000000000047,-12.825772644576423
-0.01670000000000016,-12.99978213445982
-0.01770000000000005,-13.087494235051453
-0.01870000000000016,-13.175206335643086
-0.01970000000000005,-13.30535977523067
-0.020700000000000163,-13.3930718758223
-0.021700000000000053,-13.47936926511407
-0.022700000000000164,-13.567081365705702
-0.023700000000000054,-13.654793466297335
-0.024700000000000166,-13.784946905884919
-0.025700000000000056,-13.872659006476551
-0.026700000000000168,-13.960371107068182
-0.027700000000000058,-14.046668496359947
-0.02870000000000017,-14.090524546655764
-0.02970000000000006,-14.175407224647667
-0.03070000000000017,-14.217848563643619
-0.03170000000000006,-14.26028990263957
-0.03270000000000017,-14.30273124163552
-0.03370000000000006,-14.401761032626075
-0.034700000000000175,-14.486643710617974
-0.035700000000000065,-14.57152638860988
-0.03670000000000018,-14.65640906660178
-0.03770000000000007,-14.65640906660178
-0.03870000000000018,-14.65640906660178
-0.03970000000000007,-14.69885040559773
-0.04070000000000018,-14.741291744593681
-0.04170000000000007,-14.69885040559773
-0.04270000000000018,-14.65640906660178
-0.04370000000000007,-14.65640906660178
-0.044700000000000184,-14.69885040559773
-0.045700000000000074,-14.741291744593681
-0.046700000000000186,-14.783733083589633
-0.047700000000000076,-14.826174422585586
-0.04870000000000019,-14.925204213576137
-0.04970000000000008,-14.967645552572087
-0.05070000000000019,-14.967645552572087
-0.05170000000000008,-14.967645552572087
-0.05270000000000019,-15.01008689156804
-0.05370000000000008,-15.01008689156804
-0.05470000000000019,-15.01008689156804
-0.05570000000000008,-15.01008689156804
-0.056700000000000195,-15.094969569559943
-0.057700000000000085,-15.137410908555893
-0.058700000000000196,-15.094969569559943
-0.059700000000000086,-15.094969569559943
-0.0607000000000002,-15.05252823056399
-0.06170000000000009,-15.094969569559943
-0.0627000000000002,-15.137410908555893
-0.06370000000000009,-15.179852247551842
-0.0647000000000002,-15.264734925543747
-0.06570000000000009,-15.349617603535648
-0.0667000000000002,-15.349617603535648
-0.0677000000000001,-15.491088733522153
-0.0687000000000002,-15.533530072518102
-0.0697000000000001,-15.533530072518102
-0.07070000000000021,-15.575971411514052
-0.0717000000000001,-15.618412750510005
-0.07270000000000021,-15.660854089505953
-0.0737000000000001,-15.70329542850191
-0.07470000000000021,-15.74573676749786
-0.0757000000000001,-15.78817810649381
-0.07670000000000021,-15.830619445489761
-0.0777000000000001,-15.87306078448571
-0.07870000000000021,-15.87306078448571
-0.0797000000000001,-15.91550212348166
-0.08070000000000022,-16.014531914472215
-0.0817000000000001,-16.141855931460068
-0.08270000000000022,-16.22673860945197
-0.08370000000000011,-16.269179948447924
-0.08470000000000022,-16.354062626439823
-0.08570000000000011,-16.354062626439823
-0.08670000000000022,-16.354062626439823
-0.08770000000000011,-16.311621287443874
-0.08870000000000022,-16.311621287443874
-0.08970000000000011,-16.354062626439823
-0.09070000000000022,-16.354062626439823
-0.09170000000000011,-16.396503965435777
-0.09270000000000023,-16.438945304431726
-0.09370000000000012,-16.495533756426326
-0.09470000000000023,-16.438945304431726
-0.09570000000000012,-16.438945304431726
-0.09670000000000023,-16.438945304431726
-0.09770000000000012,-16.438945304431726
-0.09870000000000023,-16.438945304431726
-0.09970000000000012,-16.438945304431726
-0.10070000000000023,-16.495533756426326
-0.10170000000000012,-16.495533756426326
-0.10270000000000024,-16.53797509542228
-0.10370000000000013,-16.53797509542228
-0.10470000000000024,-16.580416434418233
-0.10570000000000013,-16.53797509542228
-0.10670000000000024,-16.495533756426326
-0.10770000000000013,-16.438945304431726
-0.10870000000000024,-16.396503965435777
-0.10970000000000013,-16.311621287443874
-0.11070000000000024,-16.269179948447924
-0.11170000000000013,-16.22673860945197
-0.11270000000000002,-16.269179948447924
-0.11370000000000013,-16.311621287443874
-0.11470000000000002,-16.354062626439823
-0.11570000000000014,-16.438945304431726
-0.11670000000000003,-16.396503965435777
-0.11770000000000014,-16.438945304431726
-0.11870000000000003,-16.53797509542228
-0.11970000000000014,-16.53797509542228
-0.12070000000000003,-16.53797509542228
-0.12170000000000014,-16.438945304431726
-0.12270000000000003,-16.354062626439823
-0.12370000000000014,-16.354062626439823
-0.12470000000000003,-16.354062626439823
-0.12570000000000014,-16.354062626439823
-0.12670000000000003,-16.438945304431726
-0.12770000000000015,-16.495533756426326
-0.12870000000000004,-16.438945304431726
-0.12970000000000015,-16.354062626439823
-0.13070000000000004,-16.269179948447924
-0.13170000000000015,-16.22673860945197
-0.13270000000000004,-16.269179948447924
-0.13370000000000015,-16.354062626439823
-0.13470000000000004,-16.354062626439823
-0.13570000000000015,-16.354062626439823
-0.13670000000000004,-16.354062626439823
-0.13770000000000016,-16.311621287443874
-0.13870000000000005,-16.354062626439823
-0.13970000000000016,-16.311621287443874
-0.14070000000000005,-16.269179948447924
-0.14170000000000016,-16.22673860945197
-0.14270000000000005,-16.269179948447924
-0.14370000000000016,-16.269179948447924
-0.14470000000000005,-16.269179948447924
-0.14570000000000016,-16.269179948447924
-0.14670000000000005,-16.22673860945197
-0.14770000000000016,-16.184297270456018
-0.14870000000000005,-16.099414592464115
-0.14970000000000017,-16.056973253468165
-0.15070000000000006,-15.972090575476265
-0.15170000000000017,-15.87306078448571
-0.15270000000000006,-15.87306078448571
-0.15370000000000017,-15.78817810649381
-0.15470000000000006,-15.74573676749786
-0.15570000000000017,-15.70329542850191
-0.15670000000000006,-15.70329542850191
-0.15770000000000017,-15.618412750510005
-0.15870000000000006,-15.618412750510005
-0.15970000000000018,-15.533530072518102
-0.16070000000000007,-15.575971411514052
-0.16170000000000018,-15.575971411514052
-0.16270000000000007,-15.575971411514052
-0.16370000000000018,-15.618412750510005
-0.16470000000000007,-15.575971411514052
-0.16570000000000018,-15.491088733522153
-0.16670000000000007,-15.349617603535648
-0.16770000000000018,-15.264734925543747
-0.16870000000000007,-15.179852247551842
-0.16970000000000018,-15.094969569559943
-0.17070000000000007,-15.05252823056399
-0.17170000000000019,-15.01008689156804
-0.17270000000000008,-14.967645552572087
-0.1737000000000002,-14.925204213576137
-0.17470000000000008,-14.826174422585586
-0.1757000000000002,-14.783733083589633
-0.17670000000000008,-14.69885040559773
-0.1777000000000002,-14.65640906660178
-0.17870000000000008,-14.61396772760583
-0.1797000000000002,-14.57152638860988
-0.18070000000000008,-14.529085049613924
-0.1817000000000002,-14.486643710617974
-0.18270000000000008,-14.486643710617974
-0.1837000000000002,-14.401761032626075
-0.1847000000000001,-14.345172580631472
-0.1857000000000002,-14.26028990263957
-0.1867000000000001,-14.217848563643619
-0.1877000000000002,-14.217848563643619
-0.1887000000000001,-14.175407224647667
-0.1897000000000002,-14.13438059695158
-0.1907000000000001,-14.090524546655764
-0.1917000000000001,-14.046668496359947
-0.19269999999999998,-13.960371107068182
-0.1937000000000001,-13.916515056772363
-0.19469999999999998,-13.872659006476551
-0.1957000000000001,-13.828802956180734
-0.19669999999999999,-13.784946905884919
-0.1977000000000001,-13.741090855589102
-0.1987,-13.698649516593148
-0.1997000000000001,-13.654793466297335
-0.2007,-13.610937416001518
-0.2017000000000001,-13.567081365705702
-0.2027,-13.523225315409885
-0.2037000000000001,-13.47936926511407
-0.2047,-13.436927926118118
-0.2057000000000001,-13.436927926118118
-0.2067,-13.3930718758223
-0.2077000000000001,-13.349215825526485
-0.2087,-13.349215825526485
-0.2097000000000001,-13.261503724934855
-0.2107,-13.217647674639037
-0.2117000000000001,-13.217647674639037
-0.2127,-13.175206335643086
-0.2137000000000001,-13.13135028534727
-0.2147,-13.13135028534727
-0.2157000000000001,-13.13135028534727
-0.2167,-13.13135028534727
-0.21770000000000012,-13.087494235051453
-0.2187,-13.087494235051453
-0.21970000000000012,-12.955926084164007
-0.2207,-12.869628694872238
-0.22170000000000012,-12.869628694872238
-0.2227,-12.869628694872238
-0.22370000000000012,-12.869628694872238
-0.2247,-12.825772644576423
-0.22570000000000012,-13.043638184755638
-0.2267,-12.955926084164007
-0.22770000000000012,-12.913484745168056
-0.22870000000000001,-12.869628694872238
-0.22970000000000013,-12.825772644576423
-0.23070000000000002,-12.781916594280606
-0.23170000000000013,-12.73806054398479
-0.23270000000000002,-12.694204493688973
-0.23370000000000013,-12.651763154693022
-0.23470000000000002,-12.651763154693022
-0.23570000000000013,-12.651763154693022
-0.23670000000000002,-12.651763154693022
-0.2376999999999999,-12.651763154693022
-0.23870000000000002,-12.651763154693022
-0.2396999999999999,-12.651763154693022
-0.24070000000000003,-12.825772644576423
-0.24169999999999991,-12.781916594280606
-0.24270000000000003,-12.694204493688973
-0.24369999999999992,-12.651763154693022
-0.24470000000000003,-12.520195003805576
-0.24569999999999992,-12.607907104397206
-0.24670000000000003,-12.607907104397206
-0.24769999999999992,-12.56405105410139
-0.24870000000000003,-12.56405105410139
-0.24969999999999992,-12.825772644576423
-0.25070000000000003,-12.651763154693022
-0.2516999999999999,-12.651763154693022
-0.25270000000000004,-12.607907104397206
-0.2536999999999999,-12.56405105410139
-0.25470000000000004,-12.390041564217992
-0.2556999999999999,-12.390041564217992
-0.25670000000000004,-12.390041564217992
-0.25769999999999993,-12.432482903213943
-0.25870000000000004,-12.476338953509758
-0.25969999999999993,-12.56405105410139
-0.26070000000000004,-12.56405105410139
-0.26169999999999993,-12.607907104397206
-0.26270000000000004,-12.607907104397206
-0.26369999999999993,-12.56405105410139
-0.26470000000000005,-12.56405105410139
-0.26569999999999994,-12.56405105410139
-0.26670000000000005,-12.56405105410139
-0.26769999999999994,-12.607907104397206
-0.26870000000000005,-12.607907104397206
-0.26969999999999994,-12.73806054398479
-0.27070000000000005,-12.694204493688973
-0.27169999999999994,-12.651763154693022
-0.27270000000000005,-12.651763154693022
-0.27369999999999994,-12.694204493688973
-0.27470000000000006,-12.694204493688973
-0.27569999999999995,-12.694204493688973
-0.27670000000000006,-12.73806054398479
-0.27769999999999995,-12.781916594280606
-0.27870000000000006,-12.607907104397206
-0.27969999999999995,-12.651763154693022
-0.28070000000000006,-12.781916594280606
-0.28169999999999995,-12.825772644576423
-0.28270000000000006,-12.825772644576423
-0.28369999999999995,-12.869628694872238
-0.28470000000000006,-13.043638184755638
-0.28569999999999995,-13.043638184755638
-0.28670000000000007,-13.043638184755638
-0.28769999999999996,-13.087494235051453
-0.28870000000000007,-13.13135028534727
-0.28969999999999996,-13.13135028534727
-0.29070000000000007,-13.175206335643086
-0.29169999999999996,-13.175206335643086
-0.29270000000000007,-13.13135028534727
-0.29369999999999996,-13.217647674639037
-0.2947000000000001,-13.349215825526485
-0.29569999999999996,-13.436927926118118
-0.2967000000000001,-13.47936926511407
-0.29769999999999996,-13.610937416001518
-0.2987000000000001,-13.610937416001518
-0.29969999999999997,-13.654793466297335
-0.3007000000000001,-13.698649516593148
-0.30169999999999997,-13.872659006476551
-0.3027000000000001,-14.002812446064135
-0.30369999999999997,-14.090524546655764
-0.3047000000000001,-14.217848563643619
-0.30569999999999997,-14.345172580631472
-0.3067000000000001,-14.401761032626075
-0.3077,-14.444202371622024
-0.3087000000000001,-14.57152638860988
-0.3097,-14.65640906660178
-0.3107000000000001,-14.61396772760583
-0.3117,-14.783733083589633
-0.3127000000000001,-14.925204213576137
-0.3137,-15.05252823056399
-0.3147000000000001,-15.222293586547794
-0.3157,-15.349617603535648
-0.3167000000000001,-15.3920589425316
-0.3177,-15.533530072518102
-0.3187000000000001,-15.618412750510005
-0.3197,-15.70329542850191
-0.3207000000000001,-15.91550212348166
-0.3217,-16.099414592464115
-0.3227000000000001,-16.22673860945197
-0.3237,-16.311621287443874
-0.3247000000000001,-16.438945304431726
-0.3257,-16.580416434418233
-0.3267000000000001,-16.70774045140608
-0.3277,-16.835064468393938
-0.3287000000000001,-17.018976937376394
-0.3297,-17.103859615368293
-0.3307000000000001,-17.231183632356142
-0.3317,-17.40094898833995
-0.3327000000000001,-17.542420118326454
-0.3337,-17.71218547431026
-0.3347000000000001,-17.839509491298113
-0.3357,-18.009274847281915
-0.3367000000000001,-18.23562865526032
-0.3377,-18.362952672248177
-0.3387000000000001,-18.44783535024008
-0.3397,-18.589306480226583
-0.3407000000000001,-18.80151317520634
-0.3417,-18.92883719219419
-0.3427000000000001,-19.01371987018609
-0.3437,-19.155191000172596
-0.3447000000000001,-19.3249563561564
-0.3457,-19.537163051136158
-0.3467000000000001,-19.805958198110513
-0.3477,-20.10304757108217
-0.3487000000000001,-20.286960040064624
-0.3497,-20.683079204026836
-0.3507000000000001,-20.89528589900659
-0.3517,-21.065051254990397
-0.3527000000000001,-21.291405062968803
-0.3537,-21.418729079956652
-0.3547000000000001,-21.67337711393236
-0.3557,-21.899730921910766
-0.35670000000000013,-22.111937616890522
-0.3577,-22.42317410286083
-0.35870000000000013,-22.67782213683654
-0.3597,-22.861734605818995
-0.36070000000000013,-23.031499961802798
-0.3617,-23.24370665678255
-0.3626999999999999,-23.639825820744765
-0.3637,-23.993503645711023
-0.3646999999999999,-24.290593018682678
-0.3657,-24.601829504652986
-0.3666999999999999,-24.95550732961925
-0.3677,-25.167714024599
-0.3686999999999999,-25.478950510569312
-0.36970000000000003,-25.77603988354097
-0.3706999999999999,-26.044835030515326
-0.37170000000000003,-26.29948306449103
-0.3726999999999999,-26.61071955046134
-0.37370000000000003,-27.00683871442355
-0.3746999999999999,-27.34636942639116
-0.37570000000000003,-27.700047251357418
-0.3766999999999999,-28.05372507632368
-0.37770000000000004,-28.393255788291288
-0.3786999999999999,-28.662050935265643
-0.37970000000000004,-29.001581647233255
-0.3806999999999999,-29.27037679420761
-0.38170000000000004,-29.525024828183312
-0.38269999999999993,-29.751378636161718
-0.38370000000000004,-30.147497800123933
-0.38469999999999993,-30.529469851087494
-0.38570000000000004,-30.88314767605375
-0.38669999999999993,-31.27926684001596
-0.38770000000000004,-31.887592698957924
-0.38869999999999993,-32.09979939393769
-0.38970000000000005,-32.32615320191609
-0.39069999999999994,-32.62324257488775
-0.39170000000000005,-32.93447906085806
-0.39269999999999994,-33.330598224820264
-0.39370000000000005,-33.712570275783825
-0.39469999999999994,-34.10868943974604
-0.39570000000000005,-34.5472499427042
-0.39669999999999994,-34.98581044566235
-0.39770000000000005,-35.46681228761647
-0.39869999999999994,-35.848784338580025
-0.39970000000000006,-36.16002082455034
-0.40069999999999995,-36.5136986495166
-0.40170000000000006,-36.95225915247476
-0.40269999999999995,-37.376672542434264
-0.40370000000000006,-37.81523304539243
-0.40469999999999995,-38.16891087035869
-0.40570000000000006,-38.607471373316855
-0.40669999999999995,-39.173355893262865
-0.40770000000000006,-39.56947505722508
-0.40869999999999995,-39.90900576919269
-0.40970000000000006,-40.30512493315489
-0.41069999999999995,-40.78612677510901
-0.41170000000000007,-41.352011295055014
-0.41269999999999996,-41.91789581500104
-0.41370000000000007,-42.39889765695515
-0.41469999999999996,-42.79501682091736
-0.41570000000000007,-43.134547532884966
-0.41669999999999996,-43.53066669684718
-0.41770000000000007,-43.92678586080939
-0.41869999999999996,-44.28046368577565
-0.4197000000000001,-44.74731841473111
-0.42069999999999996,-45.22832025668522
-0.4217000000000001,-45.75176343763528
-0.42269999999999996,-46.2327652795894
-0.4237000000000001,-46.628884443551605
-0.42469999999999997,-47.10988628550572
-0.4257000000000001,-47.67577080545174
-0.42669999999999997,-48.156772647405845
-0.4277000000000001,-48.68021582835591
-0.42869999999999997,-49.16121767031002
-0.4297000000000001,-49.59977817326819
-0.43069999999999997,-50.0807800152223
-0.4317000000000001,-50.547634744177756
-0.4327,-51.071077925127824
-0.4337000000000001,-51.594521106077885
-0.4347,-52.11796428702795
-0.4357000000000001,-52.69799591997262
-0.4367,-53.16485064892808
-0.4377000000000001,-53.64585249088219
-0.4387,-54.1268543328363
-0.4397000000000001,-54.69273885278232
-0.4407,-55.25862337272834
-0.4417000000000001,-55.838655005673
-0.4427,-56.36209818662306
-0.4437000000000001,-56.88554136757313
-0.4447,-57.45142588751914
-0.4457000000000001,-58.017310407465146
-0.4467,-58.62563626640712
-0.4477000000000001,-59.10663810836124
-0.4487,-59.67252262830725
-0.4497000000000001,-60.23840714825326
-0.4507,-60.889174346191176
-0.4517000000000001,-61.49750020513315
-0.4527,-62.06338472507916
-0.4537000000000001,-62.72829903601572
-0.4547,-63.3366248949577
-0.4557000000000001,-63.98739209289561
-0.4567,-64.68060062982947
-0.4577000000000001,-65.34551494076604
-0.4587,-66.03872347769992
-0.4597000000000001,-66.77437335362974
-0.4607,-67.52417034255821
-0.4617000000000001,-68.21737887949207
-0.4627,-69.05205854641244
-0.4637000000000001,-69.8301497613382
-0.4647,-70.66482942825859
-0.4657000000000001,-71.48536198218031
-0.4667,-72.27760031010472
-0.4677000000000001,-73.01325018603454
-0.4687,-73.6781644969711
-0.4697000000000001,-74.32893169490903
-0.4707,-75.1070229098348
-0.4717000000000001,-75.8992612377592
-0.4727,-76.50758709670117
-0.4737000000000001,-77.1583542946391
-0.4747,-77.90815128356756
-0.4757000000000001,-78.64380115949739
-0.4767,-79.33700969643127
-0.4777000000000001,-80.04436534636378
-0.4787,-80.61024986630979
-0.4797000000000001,-81.26101706424771
-0.4807,-82.09569673116808
-0.48170000000000013,-82.95867062408576
-0.4827,-83.79335029100612
-0.48370000000000013,-84.48655882793999
-0.4847,-85.17976736487385
-0.48570000000000013,-85.92956435380233
-0.4867,-85.27879715586442
-0.48570000000000013,-83.14258309306821
-0.4847,-81.61469488921396
-0.48370000000000013,-80.25657204134353
-0.4827,-79.08236166245555
-0.48170000000000013,-77.99303396155948
-0.4807,-76.94614759965934
-0.4797000000000001,-75.81437855976732
-0.4787,-74.62602106788069
-0.4777000000000001,-73.53669336698461
-0.4767,-72.53224834408043
-0.4757000000000001,-71.58439177317086
-0.4747,-70.66482942825859
-0.4737000000000001,-69.74526708334632
-0.4727,-68.74082206044213
-0.4717000000000001,-67.73637703753796
-0.4707,-66.73193201463377
-0.4697000000000001,-65.7274869917296
-0.4687,-64.72304196882543
-0.4677000000000001,-63.633714267929356
-0.4667,-62.64341635802381
