Potential V vs RHE, Current mA cm-2
0.4132999999999999,0.009032931649638259
0.4122999999999999,0.00733103395590062
0.4112999999999999,0.006629337151167562
0.4102999999999999,0.006221900296806431
0.4092999999999999,0.005866807760540307
0.4082999999999999,0.0055484977180706736
0.4072999999999999,0.005217455273902255
0.4062999999999999,0.004974124930325469
0.4052999999999999,0.004763332946645578
0.4042999999999999,0.004546882117766228
0.4032999999999999,0.004341748979285798
0.4022999999999999,0.004104077480908471
0.4012999999999999,0.003915920878026421
0.4002999999999999,0.0037702056141403232
0.3992999999999999,0.0036004402581565186
0.3982999999999999,0.003413698366574334
0.3972999999999999,0.003235444742791339
0.3962999999999999,0.0030656793868075348
0.3952999999999999,0.002973723152316307
0.3942999999999999,0.002818104909331153
0.39329999999999987,0.002675219068044784
0.39229999999999987,0.0024828183312631397
0.39129999999999987,0.002352664891675556
0.39029999999999987,0.002263538079784059
0.38929999999999987,0.0021432876192955305
0.38829999999999987,0.0019947429328097017
0.38729999999999987,0.0018433688237241427
0.38629999999999987,0.0017061418276372343
0.38529999999999986,0.0016283327061446574
0.38429999999999986,0.0015165705134553193
0.38329999999999986,0.0013917929768072232
0.38229999999999986,0.0012508877313406653
0.38129999999999986,0.001136437587181584
0.38029999999999986,0.0010624481861986426
0.37929999999999986,0.0009646916353779686
0.37829999999999986,0.0008530709138186172
0.37729999999999986,0.0007233418876209933
0.37629999999999986,0.0006241706255004542
0.37529999999999986,0.000541834427848309
0.37429999999999986,0.00046643031556550254
0.37329999999999985,0.0003519801714064211
0.37229999999999985,0.00021248963723972855
0.37129999999999985,0.00012449459438812322
0.37029999999999985,6.308197686098199e-05
0.36929999999999985,-2.5125272685603054e-06
0.36829999999999985,-8.48543837659049e-05
0.36729999999999985,-0.00022437321215859485
0.36629999999999985,-0.0003178856290796737
0.36529999999999985,-0.0003514142868864751
0.36429999999999985,-0.0004337504845386202
0.36329999999999985,-0.0005148134420208867
0.36229999999999984,-0.0006292635861799683
0.36129999999999984,-0.0007018382758630446
0.36029999999999984,-0.0007729982542462561
0.35929999999999984,-0.0008301525907608035
0.35829999999999984,-0.0009209770562121388
0.35729999999999984,-0.0010325977777714903
0.35629999999999984,-0.001098240382085228
0.35529999999999984,-0.0011344569913617729
0.35429999999999984,-0.0012196226116136482
0.35329999999999984,-0.0013062029431653883
0.35229999999999984,-0.0014052327341559409
0.35129999999999983,-0.0014939351326574788
0.35029999999999983,-0.0015222293586547794
0.34929999999999983,-0.001580232521949246
0.34829999999999983,-0.0016622857773414181
0.34729999999999983,-0.0017896097943292716
0.34629999999999983,-0.0018405394011244127
0.34529999999999983,-0.0018660042045219834
0.34429999999999983,-0.0019141043887173949
0.3432999999999998,-0.0019862546650105117
0.3422999999999998,-0.002085284456001064
0.3412999999999998,-0.0021701671339929662
0.3402999999999998,-0.0021956319373905367
0.3392999999999998,-0.002225340874687703
0.3382999999999998,-0.0023102235526796053
0.3372999999999998,-0.002414912188869618
0.3362999999999998,-0.0024644270843648943
0.3352999999999998,-0.002501209578161385
0.3342999999999998,-0.002543650917157336
0.3332999999999998,-0.0026073129256512628
0.3322999999999998,-0.0027134162731411405
0.3312999999999998,-0.0027629311686364166
0.3302999999999998,-0.0027898106833338524
0.3292999999999998,-0.0028322520223298033
0.3282999999999998,-0.0028973287421235954
0.3272999999999998,-0.0030161644913122582
0.3262999999999998,-0.003050117562509019
0.3252999999999999,-0.003076997077206455
0.3242999999999999,-0.003115194282302811
0.3232999999999999,-0.0031717827342974125
0.3222999999999999,-0.0032821302156868853
0.3212999999999999,-0.0033429628015810816
0.3202999999999999,-0.003364183471079057
0.3192999999999999,-0.003410868943974604
0.3182999999999999,-0.0034504808603708246
0.3172999999999999,-0.003557998919160567
0.3162999999999999,-0.0036174167937548986
0.3152999999999999,-0.003627319772853954
0.3142999999999999,-0.0036725905344496355
0.3132999999999999,-0.0037122024508458563
0.3122999999999999,-0.003794255706238028
0.3112999999999999,-0.0038678206938310106
0.3102999999999999,-0.003872064827730606
0.3092999999999999,-0.003925823857125477
0.3082999999999999,-0.003973924041320888
0.3072999999999999,-0.00406446556451225
0.3062999999999999,-0.004115395171307392
0.3052999999999999,-0.004145104108604558
0.3042999999999999,-0.004160665932903073
0.3032999999999999,-0.004217254384897675
0.3022999999999999,-0.004303551774189441
0.3012999999999999,-0.004350237247084989
0.3002999999999999,-0.004377116761782424
0.2992999999999999,-0.004403996276479858
0.2982999999999999,-0.004457755305874731
0.2972999999999999,-0.004536979138667172
0.2962999999999999,-0.004592152879361909
0.2952999999999999,-0.004611958837560019
0.2942999999999999,-0.0046317647957581295
0.2932999999999999,-0.004685523825153002
0.2922999999999999,-0.004743526988447468
0.2912999999999999,-0.004801530151741934
0.2902999999999999,-0.004829824377739236
0.2892999999999999,-0.004848215624637481
0.2882999999999999,-0.004883583407134106
0.2872999999999999,-0.004995345599823445
0.2862999999999999,-0.005029298671020205
0.2852999999999999,-0.0050476899179184515
0.2842999999999999,-0.005083057700415077
0.2832999999999999,-0.0051113519264123775
0.2822999999999999,-0.005187746336605089
0.2812999999999999,-0.0052231141191017155
0.2802999999999999,-0.005228772964301175
0.2792999999999999,-0.005275458437196722
0.2782999999999999,-0.005309411508393483
0.2772999999999999,-0.0053815617846865995
0.2762999999999999,-0.005435320814081471
0.2752999999999999,-0.005431076680181875
0.2742999999999999,-0.005467859173978367
0.2732999999999999,-0.005517374069473643
0.2722999999999999,-0.005582450789267435
0.2712999999999999,-0.005653186354260687
0.2702999999999999,-0.005648942220361092
0.2692999999999999,-0.005672992312458797
0.26829999999999987,-0.0057281660531535335
0.26729999999999987,-0.005784754505148136
0.26629999999999987,-0.005825781132844221
0.26529999999999987,-0.0058441723797424665
0.26429999999999987,-0.005859734204040982
0.26329999999999987,-0.005905004965636664
0.26229999999999987,-0.005981399375829375
0.26129999999999987,-0.0060238407148253265
0.26029999999999986,-0.006026670137425056
0.25929999999999986,-0.006039402539123841
0.25829999999999986,-0.006081843878119792
0.25729999999999986,-0.0061695559787114254
0.25629999999999986,-0.006210582606407511
0.25529999999999986,-0.006224729719406161
0.25429999999999986,-0.006237462121104946
0.25329999999999986,-0.006275659326201302
0.25229999999999986,-0.006363371426792935
0.25129999999999986,-0.006393080364090101
0.25029999999999986,-0.006400153920589426
0.24929999999999986,-0.006427033435286861
0.24829999999999985,-0.006449668816084702
0.24729999999999985,-0.006531722071476874
0.24629999999999985,-0.006568504565273365
0.24529999999999985,-0.0066067017703697216
0.24429999999999985,-0.006616604749468777
0.24329999999999985,-0.006642069552866348
0.24229999999999985,-0.006721293385658789
0.24129999999999985,-0.006753831745555685
0.24029999999999985,-0.006746758189056361
0.23929999999999985,-0.0067693935698542
0.23829999999999985,-0.006817493754049612
0.23729999999999984,-0.006868423360844754
0.23629999999999984,-0.006934914791938409
0.23529999999999984,-0.006934914791938409
0.23429999999999984,-0.0069617943066358455
0.23329999999999984,-0.006997162089132472
0.23229999999999984,-0.0070608240976263986
0.23129999999999984,-0.00712307139482046
0.23029999999999984,-0.007115997838321134
0.22929999999999984,-0.007117412549620999
0.22829999999999984,-0.007159853888616951
0.22729999999999984,-0.007229174742310337
0.22629999999999983,-0.007280104349105479
0.22529999999999983,-0.007282933771705209
0.22429999999999983,-0.007290007328204534
0.22329999999999983,-0.007326789822001026
0.22229999999999983,-0.007401769520893872
0.22129999999999983,-0.007451284416389148
0.22029999999999983,-0.007448454993789417
0.21929999999999983,-0.007478163931086584
0.21829999999999983,-0.007513531713583209
0.21729999999999983,-0.007580023144676867
0.21629999999999983,-0.007615390927173492
0.21529999999999982,-0.007615390927173492
0.21429999999999982,-0.007640855730571064
0.21329999999999982,-0.007673394090467959
0.21229999999999982,-0.007752617923260401
0.21129999999999982,-0.007779497437957837
0.21029999999999982,-0.007800718107455813
0.20929999999999982,-0.007816279931754327
0.20829999999999982,-0.007834671178652573
0.20729999999999982,-0.007911065588845285
0.20629999999999982,-0.007966239329540022
0.20529999999999982,-0.007954921639141101
0.20429999999999982,-0.007984630576438266
0.20329999999999981,-0.008000192400736782
0.2022999999999998,-0.00806951325443017
0.2012999999999998,-0.008110539882126256
0.20029999999999992,-0.008134589974223961
0.19929999999999992,-0.008151566509822341
0.19829999999999992,-0.008168543045420721
0.19729999999999992,-0.008232205053914648
0.19629999999999992,-0.00828879350590925
0.19529999999999992,-0.008294452351108709
0.19429999999999992,-0.008346796669203717
0.19329999999999992,-0.008396311564698992
0.19229999999999992,-0.008418946945496834
0.19129999999999991,-0.008478364820091166
0.1902999999999999,-0.008475535397491435
0.1892999999999999,-0.00848543837659049
0.1882999999999999,-0.008523635581686846
0.1872999999999999,-0.008570321054582393
0.1862999999999999,-0.008625494795277128
0.1852999999999999,-0.008618421238777804
0.1842999999999999,-0.008641056619575645
0.1832999999999999,-0.008669350845572944
0.1822999999999999,-0.008731598142767007
0.1812999999999999,-0.008778283615662552
0.1802999999999999,-0.008783942460862013
0.1792999999999999,-0.008789601306061474
0.1782999999999999,-0.008816480820758909
0.1772999999999999,-0.008885801674452295
0.1762999999999999,-0.008935316569947572
0.1752999999999999,-0.008956537239445547
0.1742999999999999,-0.008955122528145681
0.1732999999999999,-0.008974928486343793
0.1722999999999999,-0.009059811164335695
0.1712999999999999,-0.009099423080731917
0.1702999999999999,-0.00910649663723124
0.1692999999999999,-0.009131961440628812
0.1682999999999999,-0.009144693842327595
0.1672999999999999,-0.009218258829920578
0.1662999999999999,-0.009259285457616666
0.1652999999999999,-0.00926918843671572
0.1642999999999999,-0.009281920838414505
0.1632999999999999,-0.009297482662713021
0.1622999999999999,-0.009369632939006138
0.1612999999999999,-0.009433294947500065
0.1602999999999999,-0.009423391968401008
0.1592999999999999,-0.009443197926599119
0.15829999999999989,-0.00946300388479723
0.15729999999999988,-0.009528080604591021
0.15629999999999988,-0.009583254345285758
0.15529999999999988,-0.00959174261308495
0.15429999999999988,-0.009593157324384814
0.15329999999999988,-0.009631354529481169
0.15229999999999988,-0.009683698847576177
0.15129999999999988,-0.009745946144770238
0.15029999999999988,-0.009736043165671183
0.14929999999999988,-0.009753019701269563
0.14829999999999988,-0.009786972772466325
0.14729999999999988,-0.009835072956661734
0.14629999999999987,-0.009908637944254716
0.14529999999999987,-0.009891661408656336
0.14429999999999987,-0.009910052655554582
0.14329999999999987,-0.009953908705850398
0.14229999999999987,-0.01003030311604311
0.14129999999999987,-0.0100670856098396
0.14029999999999987,-0.010061426764640141
0.13929999999999987,-0.010082647434138114
0.13829999999999987,-0.010108112237535688
0.13729999999999987,-0.010157627133030964
0.13629999999999987,-0.01022977740932408
0.13529999999999986,-0.01022977740932408
0.13429999999999986,-0.010241095099723001
0.13329999999999986,-0.010265145191820707
0.13229999999999986,-0.010324563066415037
0.13129999999999986,-0.010374077961910316
0.13029999999999986,-0.01039812805400802
0.12929999999999986,-0.010402372187907615
0.12829999999999986,-0.010432081125204782
0.12729999999999986,-0.010497157844998571
0.12629999999999986,-0.010536769761394792
0.12529999999999986,-0.010555161008293039
0.12429999999999986,-0.010574966966491151
0.12329999999999985,-0.01058345523429034
0.12229999999999985,-0.010658434933183185
0.12129999999999985,-0.010707949828678464
0.12029999999999985,-0.010709364539978328
0.11929999999999985,-0.010733414632076034
0.11829999999999985,-0.010763123569373199
0.11729999999999985,-0.010828200289166992
0.11629999999999985,-0.010891862297660917
0.11529999999999985,-0.010881959318561863
0.11429999999999985,-0.010913082967158894
0.11329999999999985,-0.010930059502757274
0.11229999999999984,-0.0109937215112512
0.11129999999999984,-0.011065871787544316
0.11029999999999984,-0.011063042364944587
0.10929999999999984,-0.011070115921443913
0.10829999999999984,-0.011115386683039593
0.10729999999999984,-0.011171975135034195
0.10629999999999984,-0.011235637143528121
0.10529999999999984,-0.011231393009628526
0.10429999999999984,-0.01125544310172623
0.10329999999999984,-0.011283737327723533
0.10229999999999984,-0.01135305818141692
0.10129999999999983,-0.011416720189910844
0.10029999999999983,-0.01143511143680909
0.09929999999999983,-0.011433696725509227
0.09829999999999983,-0.011470479219305718
0.09729999999999983,-0.011549703052098159
0.09629999999999983,-0.011596388524993706
0.09529999999999983,-0.01161760919449168
0.09429999999999983,-0.011616194483191816
0.09329999999999983,-0.011650147554388578
0.09229999999999983,-0.01173220080978075
0.09129999999999983,-0.011781715705276027
0.09029999999999982,-0.011811424642573193
0.08929999999999982,-0.011822742332972112
0.08829999999999982,-0.011832645312071167
0.08729999999999982,-0.011907625010964014
0.08629999999999982,-0.01197411644205767
0.08529999999999982,-0.011988263555056321
0.08429999999999982,-0.012013728358453891
0.08329999999999982,-0.012030704894052273
0.08229999999999982,-0.01210285517034539
0.08129999999999982,-0.012167931890139181
0.08029999999999982,-0.012163687756239584
0.07929999999999982,-0.012190567270937022
0.07829999999999981,-0.012217446785634457
0.07729999999999981,-0.012292426484527304
0.07629999999999981,-0.012357503204321095
0.07529999999999992,-0.01237023560601988
0.07429999999999992,-0.01238438271901853
0.07329999999999992,-0.012409847522416103
0.07229999999999992,-0.012477753664809623
0.07129999999999992,-0.012552733363702469
0.07029999999999992,-0.012552733363702469
0.06929999999999992,-0.012581027589699771
0.06829999999999992,-0.012626298351295452
0.06729999999999992,-0.012674398535490863
0.06629999999999991,-0.012763525347382362
0.06529999999999991,-0.012769184192581821
0.06429999999999991,-0.012787575439480068
0.06329999999999991,-0.012838505046275208
0.06229999999999991,-0.012888019941770485
0.06129999999999991,-0.01295451137286414
0.06029999999999991,-0.012982805598861443
0.05929999999999991,-0.012985635021461172
0.05829999999999991,-0.013028076360457124
0.05729999999999991,-0.01311154432714916
0.056299999999999906,-0.013161059222644435
0.055299999999999905,-0.013180865180842547
0.054299999999999904,-0.0131907681599416
0.0532999999999999,-0.013243112478036608
0.0522999999999999,-0.013323751022128915
0.0512999999999999,-0.013390242453222572
0.0502999999999999,-0.013407218988820954
0.0492999999999999,-0.013428439658318927
0.0482999999999999,-0.013458148595616094
0.0472999999999999,-0.01352746944930948
0.0462999999999999,-0.013602449148202328
0.045299999999999896,-0.01361376683860125
0.044299999999999895,-0.013646305198498144
0.043299999999999894,-0.01366752586799612
0.04229999999999989,-0.013725529031290587
0.04129999999999989,-0.013818899977081677
0.04029999999999989,-0.01387265900647655
0.03929999999999989,-0.01387548842907628
0.03829999999999989,-0.013902367943773714
0.03729999999999989,-0.013967444663567507
0.03629999999999989,-0.01405515676415914
0.03529999999999989,-0.014057986186758867
0.034299999999999886,-0.014084865701456305
0.033299999999999885,-0.014131551174351852
0.032299999999999884,-0.014203701450644968
0.031299999999999883,-0.01427443701563822
0.030299999999999883,-0.014288584128636872
0.02929999999999988,-0.01430273124163552
0.02829999999999988,-0.014359319693630123
0.02729999999999988,-0.014415908145624722
0.02629999999999988,-0.014500790823616624
0.025299999999999878,-0.014514937936615275
0.024299999999999877,-0.014529085049613928
0.023299999999999876,-0.014571526388609878
0.022299999999999875,-0.014628114840604478
0.021299999999999875,-0.014727144631595034
0.020299999999999874,-0.014755438857592333
0.019299999999999873,-0.014755438857592333
0.018299999999999872,-0.014797880196588285
0.01729999999999987,-0.014882762874580187
0.01629999999999987,-0.014939351326574786
0.01529999999999987,-0.014981792665570736
0.014299999999999868,-0.01501008689156804
0.013299999999999867,-0.01503838111756534
0.012299999999999978,-0.015123263795557243
0.011299999999999866,-0.015179852247551842
0.010299999999999976,-0.015193999360550494
0.009299999999999864,-0.015222293586547794
0.008299999999999974,-0.015250587812545097
0.007299999999999862,-0.015335470490536997
0.006299999999999972,-0.015392058942531598
0.00529999999999986,-0.01543450028152755
0.0042999999999999705,-0.015448647394526203
0.0032999999999998586,-0.01546279450752485
0.0022999999999999687,-0.015561824298515404
0.0012999999999998568,-0.015632559863508654
0.00029999999999996696,-0.015660854089505957
-0.000700000000000145,-0.015675001202504608
-0.0017000000000000348,-0.015703295428501907
-0.0027000000000001467,-0.01575988388049651
-0.0037000000000000366,-0.01584476655848841
-0.0047000000000001485,-0.015873060784485714
-0.005700000000000038,-0.01588720789748436
-0.00670000000000015,-0.015943796349478963
-0.00770000000000004,-0.016000384801473564
-0.008700000000000152,-0.01608526747946547
-0.009700000000000042,-0.016099414592464115
-0.010700000000000154,-0.016127708818461418
-0.011700000000000044,-0.016170150157457368
-0.012700000000000156,-0.016226738609451972
-0.013700000000000045,-0.016311621287443873
-0.014700000000000157,-0.016325768400442524
-0.015700000000000047,-0.016354062626439823
-0.01670000000000016,-0.01638235685243712
-0.01770000000000005,-0.01646723953042903
-0.01870000000000016,-0.016537975095422278
-0.01970000000000005,-0.01656626932141958
-0.020700000000000163,-0.01658041643441823
-0.021700000000000053,-0.01662285777341418
-0.022700000000000164,-0.016693593338407434
-0.023700000000000054,-0.016778476016399334
-0.024700000000000166,-0.016806770242396636
-0.025700000000000056,-0.016820917355395284
-0.026700000000000168,-0.016849211581392583
-0.027700000000000058,-0.01691994714638584
-0.02870000000000017,-0.017004829824377742
-0.02970000000000006,-0.017018976937376393
-0.03070000000000017,-0.017047271163373692
-0.03170000000000006,-0.017075565389370995
-0.03270000000000017,-0.017132153841365592
-0.03370000000000006,-0.017217036519357496
-0.034700000000000175,-0.0172453307453548
-0.035700000000000065,-0.017273624971352097
-0.03670000000000018,-0.0173019191973494
-0.03770000000000007,-0.0173868018753413
-0.03870000000000018,-0.017457537440334552
-0.03970000000000007,-0.017471684553333203
-0.04070000000000018,-0.017499978779330502
-0.04170000000000007,-0.0175282730053278
-0.04270000000000018,-0.017613155683319705
-0.04370000000000007,-0.01768389124831296
-0.044700000000000184,-0.01769803836131161
-0.045700000000000074,-0.01771218547431026
-0.046700000000000186,-0.017754626813306213
-0.047700000000000076,-0.017839509491298113
-0.04870000000000019,-0.017910245056291362
-0.04970000000000008,-0.017938539282288665
-0.05070000000000019,-0.017966833508285963
-0.05170000000000008,-0.018009274847281917
-0.05270000000000019,-0.01803756907327922
-0.05370000000000008,-0.018150745977268422
-0.05470000000000019,-0.01816489309026707
-0.05570000000000008,-0.01817904020326572
-0.056700000000000195,-0.018235628655260322
-0.057700000000000085,-0.018278069994256275
-0.058700000000000196,-0.018377099785246823
-0.059700000000000086,-0.018419541124242777
-0.0607000000000002,-0.018405394011244126
-0.06170000000000009,-0.01849027668923603
