Potential V vs RHE, Current mA cm-2
0.4132999999999999,0.004374287339182693
0.4122999999999999,0.0026073129256512628
0.4112999999999999,0.001885810162720094
0.4102999999999999,0.0015080822456561291
0.4092999999999999,0.0012746548811783983
0.4082999999999999,0.0010512719669297085
0.4072999999999999,0.0008028486626734083
0.4062999999999999,0.0005725336630553803
0.4052999999999999,0.0003743326099442887
0.4042999999999999,0.0002361153159474746
0.4032999999999999,0.0001161195034929222
0.4022999999999999,-4.856703892436671e-05
0.4012999999999999,-0.00023286147995778506
0.4002999999999999,-0.00037518143672420767
0.3992999999999999,-0.00048411420681381554
0.3982999999999999,-0.0005998375911427756
0.3972999999999999,-0.0007031115160329233
0.3962999999999999,-0.0008720280452368086
0.3952999999999999,-0.0009683698847576175
0.3942999999999999,-0.0010478766598100327
0.39329999999999987,-0.0011330422800619078
0.39229999999999987,-0.0012474924242209893
0.39129999999999987,-0.001399715360086467
0.39029999999999987,-0.0015080822456561291
0.38929999999999987,-0.0015491088733522152
0.38829999999999987,-0.0016424798191433075
0.38729999999999987,-0.0017287772084350749
0.38629999999999987,-0.0018688336271217134
0.38529999999999986,-0.0019523015938137506
0.38429999999999986,-0.0019933282215098365
0.38329999999999986,-0.0020668932091028186
0.38229999999999986,-0.0021489464644949908
0.38129999999999986,-0.0022621233684841937
0.38029999999999986,-0.0023611531594747463
0.37929999999999986,-0.002395106230671507
0.37829999999999986,-0.0024559388165657035
0.37729999999999986,-0.0025351626493581455
0.37629999999999986,-0.0026469248420474835
0.37529999999999986,-0.002727563386139791
0.37429999999999986,-0.0027671753025360116
0.37329999999999985,-0.0028138607754315576
0.37229999999999985,-0.00289591403082373
0.37129999999999985,-0.0030048468009133376
0.37029999999999985,-0.0030826559224059152
0.36929999999999985,-0.0031095354371033506
0.36829999999999985,-0.0031364149518007863
0.36729999999999985,-0.003214224073293363
0.36629999999999985,-0.0033245715546828362
0.36529999999999985,-0.003398136542275818
0.36429999999999985,-0.0034207719230736587
0.36329999999999985,-0.0034674573959692047
0.36229999999999984,-0.003531119404463132
0.36129999999999984,-0.003628734484153819
0.36029999999999984,-0.00369381120394761
0.35929999999999984,-0.0037291789864442367
0.35829999999999984,-0.0037702056141403232
0.35729999999999984,-0.00383103820003452
0.35629999999999984,-0.003944215104023722
0.35529999999999984,-0.003990900576919269
0.35429999999999984,-0.004002218267318189
0.35329999999999984,-0.004057392008012925
0.35229999999999984,-0.004102662769608606
0.35129999999999983,-0.00421018082839835
0.35029999999999983,-0.004261110435193491
0.34929999999999983,-0.004286575238591061
0.34829999999999983,-0.004320528309787823
0.34729999999999983,-0.004398337431280399
0.34629999999999983,-0.0044690729962736505
0.34529999999999983,-0.004538393849967038
0.34429999999999983,-0.004524246736968387
0.3432999999999998,-0.004570932209863933
0.3422999999999998,-0.004621861816659075
0.3412999999999998,-0.004716647473750032
0.3402999999999998,-0.004766162369245309
0.3392999999999998,-0.004767577080545174
0.3382999999999998,-0.0048029448630417994
0.3372999999999998,-0.0048595333150364016
0.3362999999999998,-0.0049401718591287076
0.3352999999999998,-0.005003833867622635
0.3342999999999998,-0.005020810403221014
0.3332999999999998,-0.005034957516219666
0.3322999999999998,-0.005083057700415077
0.3312999999999998,-0.005166525667107114
0.3302999999999998,-0.005220284696501985
0.3292999999999998,-0.005220284696501985
0.3282999999999998,-0.005238675943400231
0.3272999999999998,-0.005295264395394832
0.3262999999999998,-0.005371658805587544
0.3252999999999999,-0.005412685433283631
0.3242999999999999,-0.0054282472575821455
0.3232999999999999,-0.005422588412382685
0.3222999999999999,-0.005497568111275533
0.3212999999999999,-0.005585280211867165
0.3202999999999999,-0.005627721550863115
0.3192999999999999,-0.005653186354260687
0.3182999999999999,-0.005653186354260687
0.3172999999999999,-0.005695627693256638
0.3162999999999999,-0.005777680948648809
0.3152999999999999,-0.0058229517102444915
0.3142999999999999,-0.005845587091042332
0.3132999999999999,-0.005851245936241792
0.3122999999999999,-0.005878125450939227
0.3112999999999999,-0.005970081685430455
0.3102999999999999,-0.006012523024426406
0.3092999999999999,-0.006029499560024787
0.3082999999999999,-0.0060408172504237065
0.3072999999999999,-0.006083258589419657
0.3062999999999999,-0.006155408865712774
0.3052999999999999,-0.006206338472507916
0.3042999999999999,-0.006197850204708726
0.3032999999999999,-0.006221900296806431
0.3022999999999999,-0.006244535677604272
0.3012999999999999,-0.006313856531297659
0.3002999999999999,-0.006384592096290911
0.2992999999999999,-0.006397324497989695
0.2982999999999999,-0.006400153920589426
0.2972999999999999,-0.006431277569186457
0.2962999999999999,-0.006517574958478224
0.2952999999999999,-0.0065727486991729615
0.2942999999999999,-0.006560016297474175
0.2932999999999999,-0.006588310523471475
0.2922999999999999,-0.006602457636470126
0.2912999999999999,-0.006667534356263918
0.2902999999999999,-0.006742514055156764
0.2892999999999999,-0.006738269921257169
0.2882999999999999,-0.00672695223085825
0.2872999999999999,-0.0067778818376533915
0.2862999999999999,-0.0068500321139465074
0.2852999999999999,-0.006898132298141919
0.2842999999999999,-0.006896717586842053
0.2832999999999999,-0.006903791143341379
0.2822999999999999,-0.006930670658038814
0.2812999999999999,-0.007016968047330582
0.2802999999999999,-0.007049506407227478
0.2792999999999999,-0.0070608240976263986
0.2782999999999999,-0.007077800633224779
0.2772999999999999,-0.007094777168823159
0.2762999999999999,-0.007166927445116276
0.2752999999999999,-0.007207954072812361
0.2742999999999999,-0.007220686474511147
0.2732999999999999,-0.007217857051911417
0.2722999999999999,-0.007247565989208582
0.2712999999999999,-0.007339522223699811
0.2702999999999999,-0.007384792985295492
0.2692999999999999,-0.007379134140096032
0.26829999999999987,-0.007407428366093332
0.26729999999999987,-0.007411672499992927
0.26629999999999987,-0.007490896332785368
0.26529999999999987,-0.007524849403982131
0.26429999999999987,-0.007524849403982131
0.26329999999999987,-0.007537581805680916
0.26229999999999987,-0.007548899496079835
0.26129999999999987,-0.007635196885371604
0.26029999999999986,-0.00769885889386553
0.25929999999999986,-0.00767905293566742
0.25829999999999986,-0.007697444182565665
0.25729999999999986,-0.007735641387662021
0.25629999999999986,-0.007782326860557568
0.25529999999999986,-0.007841744735151899
0.25429999999999986,-0.007838915312552168
0.25329999999999986,-0.007847403580351358
0.25229999999999986,-0.00788135665154812
0.25129999999999986,-0.007928042124443665
0.25029999999999986,-0.007987459999037995
0.24929999999999986,-0.007987459999037995
0.24829999999999985,-0.007987459999037995
0.24729999999999985,-0.008018583647635028
0.24629999999999985,-0.008085075078728684
0.24529999999999985,-0.00814873708722261
0.24429999999999985,-0.008161469488921396
0.24329999999999985,-0.00814873708722261
0.24229999999999985,-0.008186934292318968
0.24129999999999985,-0.008250596300812893
0.24029999999999985,-0.008293037639808844
0.23929999999999985,-0.008312843598006955
0.23829999999999985,-0.008290208217209116
0.23729999999999984,-0.008319917154506282
0.23629999999999984,-0.008404799832498182
0.23529999999999984,-0.008448655882793999
0.23429999999999984,-0.008455729439293324
0.23329999999999984,-0.008452900016693595
0.23229999999999984,-0.00848826779919022
0.23129999999999984,-0.008546270962484686
0.23029999999999984,-0.00859720056927983
0.22929999999999984,-0.008592956435380232
0.22829999999999984,-0.008604274125779151
0.22729999999999984,-0.008619835950077669
0.22629999999999983,-0.008701889205469842
0.22529999999999983,-0.008749989389665251
0.22429999999999983,-0.008748574678365387
0.22329999999999983,-0.008759892368764309
0.22229999999999983,-0.008758477657464443
0.22129999999999983,-0.008846189758056074
0.22029999999999983,-0.008901363498750812
0.21929999999999983,-0.008895704653551351
0.21829999999999983,-0.008914095900449595
0.21729999999999983,-0.008928243013448247
0.21629999999999983,-0.008994734444541904
0.21529999999999982,-0.009047078762636909
0.21429999999999982,-0.00903859049483772
0.21329999999999982,-0.009054152319136236
0.21229999999999982,-0.009081031833833672
0.21129999999999982,-0.009117814327630161
0.21029999999999982,-0.009172988068324898
0.20929999999999982,-0.009204111716921927
0.20829999999999982,-0.009202697005622063
0.20729999999999982,-0.009218258829920578
0.20629999999999982,-0.009281920838414505
0.20529999999999982,-0.009335679867809378
0.20429999999999982,-0.009344168135608568
0.20329999999999981,-0.009342753424308702
0.2022999999999998,-0.009373877072905734
0.2012999999999998,-0.00942056254580128
0.20029999999999992,-0.00950261580119345
0.19929999999999992,-0.009499786378593722
0.19829999999999992,-0.009484224554295205
0.19729999999999992,-0.00951110406899264
0.19629999999999992,-0.009583254345285758
0.19529999999999992,-0.009644086931179954
0.19429999999999992,-0.00970774893967388
0.19329999999999992,-0.009727554897871993
0.19229999999999992,-0.009703504805774286
0.19129999999999991,-0.009764337391668482
0.1902999999999999,-0.009808193441964298
0.1892999999999999,-0.009811022864564029
0.1882999999999999,-0.00982234055496295
0.1872999999999999,-0.009835072956661734
0.1862999999999999,-0.009912882078154312
0.1852999999999999,-0.009955323417150264
0.1842999999999999,-0.009966641107549183
0.1832999999999999,-0.009982202931847697
0.1822999999999999,-0.00997654408664824
0.1812999999999999,-0.010072744455039062
0.1802999999999999,-0.010127918195733797
0.1792999999999999,-0.010123674061834204
0.1782999999999999,-0.010129332907033663
0.1772999999999999,-0.010139235886132717
0.1762999999999999,-0.01020714202852624
0.1752999999999999,-0.010275048170919761
0.1742999999999999,-0.010275048170919761
0.1732999999999999,-0.010270804037020168
0.1722999999999999,-0.01028919528391841
0.1712999999999999,-0.010334466045514093
0.1702999999999999,-0.010403786899207481
0.1692999999999999,-0.010430666413904915
0.1682999999999999,-0.01042076343480586
0.1672999999999999,-0.01045188708340289
0.1662999999999999,-0.010514134380596953
0.1652999999999999,-0.010548087451793715
0.1642999999999999,-0.010567893409991824
0.1632999999999999,-0.01057779638909088
0.1622999999999999,-0.010597602347288989
0.1612999999999999,-0.010659849644483051
0.1602999999999999,-0.01069946156087927
0.1592999999999999,-0.010719267519077383
0.15829999999999989,-0.010719267519077383
0.15729999999999988,-0.01074897645637455
0.15629999999999988,-0.010821126732667665
0.15529999999999988,-0.010873471050762671
0.15429999999999988,-0.010883374029861727
0.15329999999999988,-0.010886203452461458
0.15229999999999988,-0.010901765276759973
0.15129999999999988,-0.010969671419153495
0.15029999999999988,-0.011030504005047691
0.14929999999999988,-0.01104182169544661
0.14829999999999988,-0.011047480540646071
0.14729999999999988,-0.0110503099632458
0.14629999999999987,-0.011138022063837433
0.14529999999999987,-0.01120451349493109
0.14429999999999987,-0.011217245896629875
0.14329999999999987,-0.011228563587028796
0.14229999999999987,-0.011272419637324612
0.14129999999999987,-0.011314860976320562
0.14029999999999987,-0.011398328943012601
0.13929999999999987,-0.01138418183001395
0.13829999999999987,-0.011385596541313816
0.13729999999999987,-0.011405402499511925
0.13629999999999987,-0.011481796909704637
0.13529999999999986,-0.011545458918198566
0.13429999999999986,-0.011562435453796944
0.13329999999999986,-0.011565264876396674
0.13229999999999986,-0.011596388524993706
0.13129999999999986,-0.011640244575289522
0.13029999999999986,-0.011719468408081964
0.12929999999999986,-0.011725127253281424
0.12829999999999986,-0.011727956675881154
0.12729999999999986,-0.011764739169677645
0.12629999999999986,-0.01181425406517292
0.12529999999999986,-0.011877916073666847
0.12429999999999986,-0.011910454433563745
0.12329999999999985,-0.011914698567463338
0.12229999999999985,-0.01192601625786226
0.12129999999999985,-0.011998166534155376
0.12029999999999985,-0.012051925563550248
0.11929999999999985,-0.012060413831349438
0.11829999999999985,-0.012063243253949167
0.11729999999999985,-0.012107099304244983
0.11629999999999985,-0.01217359073533864
0.11529999999999985,-0.012237252743832566
0.11429999999999985,-0.012251399856831218
0.11329999999999985,-0.012262717547230139
0.11229999999999984,-0.012271205815029329
0.11129999999999984,-0.012330623689623661
0.11029999999999984,-0.012409847522416103
0.10929999999999984,-0.012405603388516507
0.10829999999999984,-0.012432482903213941
0.10729999999999984,-0.012435312325813672
0.10629999999999984,-0.012506047890806924
0.10529999999999984,-0.012581027589699771
0.10429999999999984,-0.012598004125298152
0.10329999999999984,-0.012623468928695722
0.10229999999999984,-0.012630542485195047
0.10129999999999983,-0.012671569112891133
0.10029999999999983,-0.012764940058682225
0.09929999999999983,-0.012773428326481416
0.09829999999999983,-0.012786160728180201
0.09729999999999983,-0.012820113799376963
0.09629999999999983,-0.01286679927227251
0.09529999999999983,-0.01294319368246522
0.09429999999999983,-0.0129601702180636
0.09329999999999983,-0.012972902619762385
0.09229999999999983,-0.013016758670058201
0.09129999999999983,-0.01307193241075294
0.09029999999999982,-0.01315115624354538
0.08929999999999982,-0.013186524026042009
0.08829999999999982,-0.013179450469542681
0.08729999999999982,-0.013192182871241466
0.08629999999999982,-0.013264333147534583
0.08529999999999982,-0.013343556980327026
0.08429999999999982,-0.013383168896723247
0.08329999999999982,-0.013367607072424731
0.08229999999999982,-0.013414292545320276
0.08129999999999982,-0.01346239272951569
0.08029999999999982,-0.013537372428408538
0.07929999999999982,-0.013569910788305434
0.07829999999999981,-0.013567081365705703
0.07729999999999981,-0.013598205014302733
0.07629999999999981,-0.01367035529059585
0.07529999999999992,-0.01373826143298937
0.07429999999999992,-0.013760896813787213
0.07329999999999992,-0.013765140947686808
0.07229999999999992,-0.013797679307583703
0.07129999999999992,-0.01386417073867736
0.07029999999999992,-0.013939150437570205
0.06929999999999992,-0.013960371107068182
0.06829999999999992,-0.013975932931366699
0.06729999999999992,-0.013984421199165886
0.06629999999999991,-0.014084865701456305
0.06529999999999991,-0.014147112998650365
0.06429999999999991,-0.014161260111649017
0.06329999999999991,-0.014175407224647668
0.06229999999999991,-0.014203701450644968
0.06129999999999991,-0.01427443701563822
0.06029999999999991,-0.014359319693630123
0.05929999999999991,-0.014387613919627423
0.05829999999999991,-0.014401761032626074
0.05729999999999991,-0.014401761032626074
0.056299999999999906,-0.014458349484620674
0.055299999999999905,-0.014557379275611227
0.054299999999999904,-0.014585673501608528
0.0532999999999999,-0.01461396772760583
0.0522999999999999,-0.014642261953603129
0.0512999999999999,-0.01469885040559773
0.0502999999999999,-0.014783733083589632
0.0492999999999999,-0.014812027309586936
0.0482999999999999,-0.014826174422585584
0.0472999999999999,-0.014840321535584235
0.0462999999999999,-0.014925204213576137
0.045299999999999896,-0.01501008689156804
0.044299999999999895,-0.01503838111756534
0.043299999999999894,-0.01505252823056399
0.04229999999999989,-0.015080822456561293
0.04129999999999989,-0.015123263795557243
0.04029999999999989,-0.015250587812545097
0.03929999999999989,-0.015278882038542396
0.03829999999999989,-0.015264734925543746
0.03729999999999989,-0.015321323377538347
0.03629999999999989,-0.015377911829532949
0.03529999999999989,-0.015448647394526203
0.034299999999999886,-0.015476941620523503
0.033299999999999885,-0.015491088733522153
0.032299999999999884,-0.015505235846520802
0.031299999999999883,-0.015590118524512706
0.030299999999999883,-0.015660854089505957
0.02929999999999988,-0.01568914831550326
0.02829999999999988,-0.015717442541500558
0.02729999999999988,-0.015745736767497857
0.02629999999999988,-0.01580232521949246
0.025299999999999878,-0.01588720789748436
0.024299999999999877,-0.015901355010483013
0.023299999999999876,-0.01591550212348166
0.022299999999999875,-0.015957943462477614
0.021299999999999875,-0.016028679027470863
0.020299999999999874,-0.016099414592464115
0.019299999999999873,-0.01611356170546277
0.018299999999999872,-0.01614185593146007
0.01729999999999987,-0.016170150157457368
0.01629999999999987,-0.01624088572245062
0.01529999999999987,-0.016325768400442524
0.014299999999999868,-0.016368209739438477
0.013299999999999867,-0.01638235685243712
0.012299999999999978,-0.016410651078434424
0.011299999999999866,-0.016453092417430374
0.010299999999999976,-0.016552122208420932
0.009299999999999864,-0.01659456354741688
0.008299999999999974,-0.01659456354741688
0.007299999999999862,-0.016637004886412832
0.006299999999999972,-0.016693593338407434
0.00529999999999986,-0.016792623129397985
0.0042999999999999705,-0.016820917355395284
0.0032999999999998586,-0.016820917355395284
0.0022999999999999687,-0.016863358694391237
0.0012999999999998568,-0.01693409425938449
0.00029999999999996696,-0.017018976937376393
-0.000700000000000145,-0.01706141827637234
-0.0017000000000000348,-0.01706141827637234
-0.0027000000000001467,-0.017089712502369642
-0.0037000000000000366,-0.017160448067362895
-0.0047000000000001485,-0.0172453307453548
-0.005700000000000038,-0.01728777208435075
-0.00670000000000015,-0.0173019191973494
-0.00770000000000004,-0.0173302134233467
-0.008700000000000152,-0.0173868018753413
-0.009700000000000042,-0.01748583166633185
-0.010700000000000154,-0.017542420118326456
-0.011700000000000044,-0.017556567231325104
-0.012700000000000156,-0.017570714344323755
-0.013700000000000045,-0.017627302796318356
-0.014700000000000157,-0.01771218547431026
-0.015700000000000047,-0.01774047970030756
-0.01670000000000016,-0.01776877392630486
-0.01770000000000005,-0.017782921039303512
-0.01870000000000016,-0.01785365660429676
-0.01970000000000005,-0.017938539282288665
-0.020700000000000163,-0.017966833508285963
-0.021700000000000053,-0.017980980621284618
-0.022700000000000164,-0.018023421960280565
-0.023700000000000054,-0.018094157525273817
-0.024700000000000166,-0.01817904020326572
-0.025700000000000056,-0.01820733442926302
-0.026700000000000168,-0.018235628655260322
-0.027700000000000058,-0.018263922881257624
-0.02870000000000017,-0.018320511333252226
-0.02970000000000006,-0.018419541124242777
-0.03070000000000017,-0.018461982463238727
-0.03170000000000006,-0.018461982463238727
-0.03270000000000017,-0.01849027668923603
-0.03370000000000006,-0.018546865141230634
-0.034700000000000175,-0.018645894932221182
-0.035700000000000065,-0.018688336271217135
-0.03670000000000018,-0.018702483384215783
-0.03770000000000007,-0.018744924723211737
-0.03870000000000018,-0.018801513175206338
-0.03970000000000007,-0.01887224874019959
-0.04070000000000018,-0.018957131418191494
-0.04170000000000007,-0.018957131418191494
-0.04270000000000018,-0.018985425644188793
-0.04370000000000007,-0.019042014096183394
-0.044700000000000184,-0.019112749661176646
-0.045700000000000074,-0.0191834852261699
-0.046700000000000186,-0.019197632339168547
-0.047700000000000076,-0.019197632339168547
-0.04870000000000019,-0.01928251501716045
-0.04970000000000008,-0.019367397695152354
-0.05070000000000019,-0.0194098390341483
-0.05170000000000008,-0.019423986147146955
-0.05270000000000019,-0.019438133260145606
-0.05370000000000008,-0.01950886882513886
-0.05470000000000019,-0.019607898616129407
-0.05570000000000008,-0.01963619284212671
-0.056700000000000195,-0.01967863418112266
-0.057700000000000085,-0.01967863418112266
-0.058700000000000196,-0.019749369746115915
-0.059700000000000086,-0.019834252424107815
-0.0607000000000002,-0.019876693763103765
-0.06170000000000009,-0.019919135102099715
