Sept. 25, 2024   04:09:55
Cyclic Voltammetry
File: c:/users/guazh/data/20240922_batch_417_500/2024-09-22-exp441\exp441-2024-09-25t04_02_13-h2koh\exp441_cv_sr_500mvs_efin_-1400mv.bin
Data Source:  Experiment
Instrument Model:  CHI760E
Header: CV ran at 500 mVs
Note: 

Init E (V) = -1
High E (V) = -1
Low E (V) = -1.4
Final E (V) = -1
Init P/N = N
Scan Rate (V/s) = 0.5
Segment = 3
Sample Interval (V) = 0.001
Quiet Time (sec) = 2
Sensitivity (A/V) = 0.01
Comp R (ohm) = 2.8

Results:

Channel 1:
Segment 1:

Segment 2:

Segment 3:

Potential/V, Current/A

-1.000, -2.927e-6
-1.001, 6.182e-5
-1.002, 1.142e-4
-1.003, 1.543e-4
-1.004, 1.913e-4
-1.005, 2.221e-4
-1.006, 2.530e-4
-1.007, 2.776e-4
-1.008, 2.992e-4
-1.009, 3.208e-4
-1.010, 3.393e-4
-1.011, 3.516e-4
-1.012, 3.670e-4
-1.013, 3.794e-4
-1.014, 3.917e-4
-1.015, 4.010e-4
-1.016, 4.102e-4
-1.017, 4.225e-4
-1.018, 4.287e-4
-1.019, 4.380e-4
-1.020, 4.410e-4
-1.021, 4.472e-4
-1.022, 4.534e-4
-1.023, 4.565e-4
-1.024, 4.626e-4
-1.025, 4.657e-4
-1.026, 4.719e-4
-1.027, 4.750e-4
-1.028, 4.780e-4
-1.029, 4.811e-4
-1.030, 4.842e-4
-1.031, 4.873e-4
-1.032, 4.873e-4
-1.033, 4.904e-4
-1.034, 4.935e-4
-1.035, 4.965e-4
-1.036, 4.996e-4
-1.037, 4.996e-4
-1.038, 4.996e-4
-1.039, 5.027e-4
-1.040, 5.027e-4
-1.041, 5.058e-4
-1.042, 5.058e-4
-1.043, 5.089e-4
-1.044, 5.120e-4
-1.045, 5.120e-4
-1.046, 5.120e-4
-1.047, 5.120e-4
-1.048, 5.120e-4
-1.049, 5.150e-4
-1.050, 5.150e-4
-1.051, 5.181e-4
-1.052, 5.181e-4
-1.053, 5.181e-4
-1.054, 5.181e-4
-1.055, 5.212e-4
-1.056, 5.212e-4
-1.057, 5.212e-4
-1.058, 5.212e-4
-1.059, 5.243e-4
-1.060, 5.274e-4
-1.061, 5.274e-4
-1.062, 5.274e-4
-1.063, 5.274e-4
-1.064, 5.305e-4
-1.065, 5.274e-4
-1.066, 5.305e-4
-1.067, 5.305e-4
-1.068, 5.335e-4
-1.069, 5.335e-4
-1.070, 5.335e-4
-1.071, 5.335e-4
-1.072, 5.335e-4
-1.073, 5.335e-4
-1.074, 5.335e-4
-1.075, 5.366e-4
-1.076, 5.366e-4
-1.077, 5.397e-4
-1.078, 5.397e-4
-1.079, 5.366e-4
-1.080, 5.366e-4
-1.081, 5.397e-4
-1.082, 5.397e-4
-1.083, 5.397e-4
-1.084, 5.428e-4
-1.085, 5.428e-4
-1.086, 5.428e-4
-1.087, 5.428e-4
-1.088, 5.428e-4
-1.089, 5.428e-4
-1.090, 5.428e-4
-1.091, 5.459e-4
-1.092, 5.459e-4
-1.093, 5.459e-4
-1.094, 5.459e-4
-1.095, 5.489e-4
-1.096, 5.459e-4
-1.097, 5.489e-4
-1.098, 5.459e-4
-1.099, 5.489e-4
-1.100, 5.489e-4
-1.101, 5.489e-4
-1.102, 5.520e-4
-1.103, 5.520e-4
-1.104, 5.520e-4
-1.105, 5.489e-4
-1.106, 5.520e-4
-1.107, 5.520e-4
-1.108, 5.520e-4
-1.109, 5.520e-4
-1.110, 5.551e-4
-1.111, 5.551e-4
-1.112, 5.551e-4
-1.113, 5.551e-4
-1.114, 5.551e-4
-1.115, 5.551e-4
-1.116, 5.551e-4
-1.117, 5.582e-4
-1.118, 5.582e-4
-1.119, 5.582e-4
-1.120, 5.551e-4
-1.121, 5.582e-4
-1.122, 5.582e-4
-1.123, 5.551e-4
-1.124, 5.582e-4
-1.125, 5.582e-4
-1.126, 5.613e-4
-1.127, 5.613e-4
-1.128, 5.613e-4
-1.129, 5.613e-4
-1.130, 5.613e-4
-1.131, 5.613e-4
-1.132, 5.613e-4
-1.133, 5.613e-4
-1.134, 5.644e-4
-1.135, 5.674e-4
-1.136, 5.644e-4
-1.137, 5.644e-4
-1.138, 5.644e-4
-1.139, 5.644e-4
-1.140, 5.644e-4
-1.141, 5.674e-4
-1.142, 5.674e-4
-1.143, 5.674e-4
-1.144, 5.705e-4
-1.145, 5.705e-4
-1.146, 5.705e-4
-1.147, 5.705e-4
-1.148, 5.705e-4
-1.149, 5.705e-4
-1.150, 5.736e-4
-1.151, 5.736e-4
-1.152, 5.736e-4
-1.153, 5.736e-4
-1.154, 5.736e-4
-1.155, 5.736e-4
-1.156, 5.767e-4
-1.157, 5.767e-4
-1.158, 5.767e-4
-1.159, 5.767e-4
-1.160, 5.798e-4
-1.161, 5.798e-4
-1.162, 5.798e-4
-1.163, 5.798e-4
-1.164, 5.798e-4
-1.165, 5.798e-4
-1.166, 5.829e-4
-1.167, 5.829e-4
-1.168, 5.859e-4
-1.169, 5.890e-4
-1.170, 5.890e-4
-1.171, 5.890e-4
-1.172, 5.890e-4
-1.173, 5.890e-4
-1.174, 5.921e-4
-1.175, 5.921e-4
-1.176, 5.921e-4
-1.177, 5.983e-4
-1.178, 5.952e-4
-1.179, 5.983e-4
-1.180, 5.983e-4
-1.181, 5.983e-4
-1.182, 6.014e-4
-1.183, 6.014e-4
-1.184, 6.044e-4
-1.185, 6.044e-4
-1.186, 6.075e-4
-1.187, 6.075e-4
-1.188, 6.106e-4
-1.189, 6.106e-4
-1.190, 6.137e-4
-1.191, 6.137e-4
-1.192, 6.168e-4
-1.193, 6.199e-4
-1.194, 6.199e-4
-1.195, 6.229e-4
-1.196, 6.260e-4
-1.197, 6.260e-4
-1.198, 6.260e-4
-1.199, 6.291e-4
-1.200, 6.322e-4
-1.201, 6.322e-4
-1.202, 6.353e-4
-1.203, 6.353e-4
-1.204, 6.384e-4
-1.205, 6.384e-4
-1.206, 6.445e-4
-1.207, 6.445e-4
-1.208, 6.476e-4
-1.209, 6.507e-4
-1.210, 6.569e-4
-1.211, 6.599e-4
-1.212, 6.599e-4
-1.213, 6.630e-4
-1.214, 6.630e-4
-1.215, 6.692e-4
-1.216, 6.692e-4
-1.217, 6.754e-4
-1.218, 6.784e-4
-1.219, 6.815e-4
-1.220, 6.846e-4
-1.221, 6.877e-4
-1.222, 6.908e-4
-1.223, 6.939e-4
-1.224, 7.000e-4
-1.225, 7.031e-4
-1.226, 7.062e-4
-1.227, 7.093e-4
-1.228, 7.124e-4
-1.229, 7.185e-4
-1.230, 7.216e-4
-1.231, 7.247e-4
-1.232, 7.278e-4
-1.233, 7.339e-4
-1.234, 7.370e-4
-1.235, 7.432e-4
-1.236, 7.463e-4
-1.237, 7.524e-4
-1.238, 7.555e-4
-1.239, 7.617e-4
-1.240, 7.679e-4
-1.241, 7.709e-4
-1.242, 7.771e-4
-1.243, 7.833e-4
-1.244, 7.894e-4
-1.245, 7.956e-4
-1.246, 7.987e-4
-1.247, 8.048e-4
-1.248, 8.110e-4
-1.249, 8.141e-4
-1.250, 8.203e-4
-1.251, 8.295e-4
-1.252, 8.357e-4
-1.253, 8.418e-4
-1.254, 8.480e-4
-1.255, 8.573e-4
-1.256, 8.634e-4
-1.257, 8.696e-4
-1.258, 8.788e-4
-1.259, 8.850e-4
-1.260, 8.912e-4
-1.261, 9.004e-4
-1.262, 9.066e-4
-1.263, 9.128e-4
-1.264, 9.220e-4
-1.265, 9.282e-4
-1.266, 9.374e-4
-1.267, 9.467e-4
-1.268, 9.559e-4
-1.269, 9.621e-4
-1.270, 9.744e-4
-1.271, 9.806e-4
-1.272, 9.898e-4
-1.273, 9.991e-4
-1.274, 1.008e-3
-1.275, 1.018e-3
-1.276, 1.027e-3
-1.277, 1.036e-3
-1.278, 1.045e-3
-1.279, 1.055e-3
-1.280, 1.067e-3
-1.281, 1.076e-3
-1.282, 1.088e-3
-1.283, 1.098e-3
-1.284, 1.110e-3
-1.285, 1.122e-3
-1.286, 1.132e-3
-1.287, 1.141e-3
-1.288, 1.156e-3
-1.289, 1.166e-3
-1.290, 1.178e-3
-1.291, 1.187e-3
-1.292, 1.199e-3
-1.293, 1.215e-3
-1.294, 1.227e-3
-1.295, 1.240e-3
-1.296, 1.252e-3
-1.297, 1.264e-3
-1.298, 1.277e-3
-1.299, 1.292e-3
-1.300, 1.307e-3
-1.301, 1.320e-3
-1.302, 1.335e-3
-1.303, 1.347e-3
-1.304, 1.360e-3
-1.305, 1.372e-3
-1.306, 1.388e-3
-1.307, 1.403e-3
-1.308, 1.418e-3
-1.309, 1.434e-3
-1.310, 1.449e-3
-1.311, 1.465e-3
-1.312, 1.480e-3
-1.313, 1.499e-3
-1.314, 1.514e-3
-1.315, 1.529e-3
-1.316, 1.545e-3
-1.317, 1.563e-3
-1.318, 1.579e-3
-1.319, 1.597e-3
-1.320, 1.613e-3
-1.321, 1.631e-3
-1.322, 1.650e-3
-1.323, 1.665e-3
-1.324, 1.684e-3
-1.325, 1.705e-3
-1.326, 1.724e-3
-1.327, 1.742e-3
-1.328, 1.761e-3
-1.329, 1.779e-3
-1.330, 1.798e-3
-1.331, 1.816e-3
-1.332, 1.835e-3
-1.333, 1.856e-3
-1.334, 1.878e-3
-1.335, 1.899e-3
-1.336, 1.915e-3
-1.337, 1.936e-3
-1.338, 1.955e-3
-1.339, 1.976e-3
-1.340, 1.998e-3
-1.341, 2.017e-3
-1.342, 2.038e-3
-1.343, 2.060e-3
-1.344, 2.084e-3
-1.345, 2.106e-3
-1.346, 2.128e-3
-1.347, 2.152e-3
-1.348, 2.177e-3
-1.349, 2.198e-3
-1.350, 2.223e-3
-1.351, 2.245e-3
-1.352, 2.269e-3
-1.353, 2.294e-3
-1.354, 2.316e-3
-1.355, 2.343e-3
-1.356, 2.362e-3
-1.357, 2.386e-3
-1.358, 2.411e-3
-1.359, 2.439e-3
-1.360, 2.464e-3
-1.361, 2.488e-3
-1.362, 2.516e-3
-1.363, 2.538e-3
-1.364, 2.562e-3
-1.365, 2.587e-3
-1.366, 2.615e-3
-1.367, 2.642e-3
-1.368, 2.667e-3
-1.369, 2.695e-3
-1.370, 2.719e-3
-1.371, 2.747e-3
-1.372, 2.772e-3
-1.373, 2.797e-3
-1.374, 2.824e-3
-1.375, 2.852e-3
-1.376, 2.880e-3
-1.377, 2.911e-3
-1.378, 2.938e-3
-1.379, 2.966e-3
-1.380, 2.997e-3
-1.381, 3.028e-3
-1.382, 3.052e-3
-1.383, 3.077e-3
-1.384, 3.108e-3
-1.385, 3.136e-3
-1.386, 3.167e-3
-1.387, 3.191e-3
-1.388, 3.222e-3
-1.389, 3.256e-3
-1.390, 3.287e-3
-1.391, 3.318e-3
-1.392, 3.345e-3
-1.393, 3.379e-3
-1.394, 3.407e-3
-1.395, 3.438e-3
-1.396, 3.469e-3
-1.397, 3.496e-3
-1.398, 3.530e-3
-1.399, 3.564e-3
-1.400, 3.549e-3
-1.399, 3.453e-3
-1.398, 3.376e-3
-1.397, 3.308e-3
-1.396, 3.253e-3
-1.395, 3.197e-3
-1.394, 3.148e-3
-1.393, 3.102e-3
-1.392, 3.059e-3
-1.391, 3.015e-3
-1.390, 2.975e-3
-1.389, 2.938e-3
-1.388, 2.901e-3
-1.387, 2.864e-3
-1.386, 2.827e-3
-1.385, 2.790e-3
-1.384, 2.753e-3
-1.383, 2.719e-3
-1.382, 2.686e-3
-1.381, 2.658e-3
-1.380, 2.627e-3
-1.379, 2.593e-3
-1.378, 2.559e-3
-1.377, 2.525e-3
-1.376, 2.494e-3
-1.375, 2.460e-3
-1.374, 2.430e-3
-1.373, 2.402e-3
-1.372, 2.371e-3
-1.371, 2.340e-3
-1.370, 2.303e-3
-1.369, 2.272e-3
-1.368, 2.238e-3
-1.367, 2.211e-3
-1.366, 2.183e-3
-1.365, 2.158e-3
-1.364, 2.128e-3
-1.363, 2.100e-3
-1.362, 2.066e-3
-1.361, 2.035e-3
-1.360, 2.007e-3
-1.359, 1.980e-3
-1.358, 1.955e-3
-1.357, 1.927e-3
-1.356, 1.899e-3
-1.355, 1.869e-3
-1.354, 1.841e-3
-1.353, 1.810e-3
-1.352, 1.782e-3
-1.351, 1.754e-3
-1.350, 1.730e-3
-1.349, 1.705e-3
-1.348, 1.677e-3
-1.347, 1.650e-3
-1.346, 1.622e-3
-1.345, 1.594e-3
-1.344, 1.569e-3
-1.343, 1.539e-3
-1.342, 1.514e-3
-1.341, 1.489e-3
-1.340, 1.462e-3
-1.339, 1.437e-3
-1.338, 1.412e-3
-1.337, 1.388e-3
-1.336, 1.363e-3
-1.335, 1.338e-3
-1.334, 1.314e-3
-1.333, 1.289e-3
-1.332, 1.264e-3
-1.331, 1.243e-3
-1.330, 1.218e-3
-1.329, 1.196e-3
-1.328, 1.169e-3
-1.327, 1.147e-3
-1.326, 1.122e-3
-1.325, 1.101e-3
-1.324, 1.076e-3
-1.323, 1.051e-3
-1.322, 1.030e-3
-1.321, 1.008e-3
-1.320, 9.868e-4
-1.319, 9.621e-4
-1.318, 9.405e-4
-1.317, 9.189e-4
-1.316, 8.973e-4
-1.315, 8.758e-4
-1.314, 8.542e-4
-1.313, 8.326e-4
-1.312, 8.110e-4
-1.311, 7.894e-4
-1.310, 7.679e-4
-1.309, 7.494e-4
-1.308, 7.247e-4
-1.307, 7.062e-4
-1.306, 6.877e-4
-1.305, 6.661e-4
-1.304, 6.476e-4
-1.303, 6.260e-4
-1.302, 6.075e-4
-1.301, 5.890e-4
-1.300, 5.705e-4
-1.299, 5.520e-4
-1.298, 5.335e-4
-1.297, 5.150e-4
-1.296, 4.935e-4
-1.295, 4.750e-4
-1.294, 4.565e-4
-1.293, 4.380e-4
-1.292, 4.225e-4
-1.291, 4.071e-4
-1.290, 3.855e-4
-1.289, 3.701e-4
-1.288, 3.547e-4
-1.287, 3.362e-4
-1.286, 3.177e-4
-1.285, 3.023e-4
-1.284, 2.869e-4
-1.283, 2.684e-4
-1.282, 2.530e-4
-1.281, 2.376e-4
-1.280, 2.221e-4
-1.279, 2.036e-4
-1.278, 1.882e-4
-1.277, 1.728e-4
-1.276, 1.574e-4
-1.275, 1.420e-4
-1.274, 1.296e-4
-1.273, 1.142e-4
-1.272, 9.882e-5
-1.271, 8.340e-5
-1.270, 6.798e-5
-1.269, 5.565e-5
-1.268, 4.024e-5
-1.267, 2.790e-5
-1.266, 1.249e-5
-1.265, 1.559e-7
-1.264, -1.218e-5
-1.263, -2.759e-5
-1.262, -3.992e-5
-1.261, -5.226e-5
-1.260, -6.767e-5
-1.259, -8.000e-5
-1.258, -8.925e-5
-1.257, -1.016e-4
-1.256, -1.139e-4
-1.255, -1.263e-4
-1.254, -1.386e-4
-1.253, -1.509e-4
-1.252, -1.632e-4
-1.251, -1.725e-4
-1.250, -1.848e-4
-1.249, -1.941e-4
-1.248, -2.033e-4
-1.247, -2.126e-4
-1.246, -2.249e-4
-1.245, -2.372e-4
-1.244, -2.465e-4
-1.243, -2.557e-4
-1.242, -2.681e-4
-1.241, -2.773e-4
-1.240, -2.835e-4
-1.239, -2.958e-4
-1.238, -3.051e-4
-1.237, -3.174e-4
-1.236, -3.267e-4
-1.235, -3.359e-4
-1.234, -3.452e-4
-1.233, -3.513e-4
-1.232, -3.606e-4
-1.231, -3.667e-4
-1.230, -3.760e-4
-1.229, -3.852e-4
-1.228, -3.945e-4
-1.227, -4.037e-4
-1.226, -4.099e-4
-1.225, -4.191e-4
-1.224, -4.253e-4
-1.223, -4.315e-4
-1.222, -4.376e-4
-1.221, -4.469e-4
-1.220, -4.531e-4
-1.219, -4.623e-4
-1.218, -4.685e-4
-1.217, -4.746e-4
-1.216, -4.808e-4
-1.215, -4.839e-4
-1.214, -4.931e-4
-1.213, -4.993e-4
-1.212, -5.055e-4
-1.211, -5.116e-4
-1.210, -5.178e-4
-1.209, -5.240e-4
-1.208, -5.301e-4
-1.207, -5.363e-4
-1.206, -5.394e-4
-1.205, -5.456e-4
-1.204, -5.517e-4
-1.203, -5.579e-4
-1.202, -5.610e-4
-1.201, -5.671e-4
-1.200, -5.702e-4
-1.199, -5.764e-4
-1.198, -5.795e-4
-1.197, -5.856e-4
-1.196, -5.918e-4
-1.195, -5.949e-4
-1.194, -6.011e-4
-1.193, -6.072e-4
-1.192, -6.103e-4
-1.191, -6.134e-4
-1.190, -6.165e-4
-1.189, -6.195e-4
-1.188, -6.257e-4
-1.187, -6.288e-4
-1.186, -6.350e-4
-1.185, -6.380e-4
-1.184, -6.411e-4
-1.183, -6.442e-4
-1.182, -6.473e-4
-1.181, -6.504e-4
-1.180, -6.565e-4
-1.179, -6.596e-4
-1.178, -6.627e-4
-1.177, -6.689e-4
-1.176, -6.689e-4
-1.175, -6.720e-4
-1.174, -6.720e-4
-1.173, -6.750e-4
-1.172, -6.812e-4
-1.171, -6.843e-4
-1.170, -6.874e-4
-1.169, -6.874e-4
-1.168, -6.905e-4
-1.167, -6.935e-4
-1.166, -6.966e-4
-1.165, -6.997e-4
-1.164, -7.028e-4
-1.163, -7.059e-4
-1.162, -7.090e-4
-1.161, -7.120e-4
-1.160, -7.120e-4
-1.159, -7.151e-4
-1.158, -7.151e-4
-1.157, -7.182e-4
-1.156, -7.213e-4
-1.155, -7.244e-4
-1.154, -7.275e-4
-1.153, -7.305e-4
-1.152, -7.336e-4
-1.151, -7.336e-4
-1.150, -7.336e-4
-1.149, -7.336e-4
-1.148, -7.398e-4
-1.147, -7.398e-4
-1.146, -7.429e-4
-1.145, -7.460e-4
-1.144, -7.460e-4
-1.143, -7.490e-4
-1.142, -7.490e-4
-1.141, -7.521e-4
-1.140, -7.521e-4
-1.139, -7.552e-4
-1.138, -7.583e-4
-1.137, -7.583e-4
-1.136, -7.614e-4
-1.135, -7.645e-4
-1.134, -7.675e-4
-1.133, -7.675e-4
-1.132, -7.706e-4
-1.131, -7.706e-4
-1.130, -7.737e-4
-1.129, -7.737e-4
-1.128, -7.768e-4
-1.127, -7.799e-4
-1.126, -7.830e-4
-1.125, -7.830e-4
-1.124, -7.830e-4
-1.123, -7.830e-4
-1.122, -7.830e-4
-1.121, -7.860e-4
-1.120, -7.891e-4
-1.119, -7.922e-4
-1.118, -7.922e-4
-1.117, -7.953e-4
-1.116, -7.953e-4
-1.115, -7.953e-4
-1.114, -7.953e-4
-1.113, -7.984e-4
-1.112, -8.015e-4
-1.111, -8.045e-4
-1.110, -8.076e-4
-1.109, -8.076e-4
-1.108, -8.076e-4
-1.107, -8.076e-4
-1.106, -8.107e-4
-1.105, -8.107e-4
-1.104, -8.138e-4
-1.103, -8.138e-4
-1.102, -8.169e-4
-1.101, -8.169e-4
-1.100, -8.200e-4
-1.099, -8.200e-4
-1.098, -8.230e-4
-1.097, -8.261e-4
-1.096, -8.261e-4
-1.095, -8.261e-4
-1.094, -8.292e-4
-1.093, -8.323e-4
-1.092, -8.354e-4
-1.091, -8.323e-4
-1.090, -8.354e-4
-1.089, -8.385e-4
-1.088, -8.385e-4
-1.087, -8.415e-4
-1.086, -8.446e-4
-1.085, -8.446e-4
-1.084, -8.477e-4
-1.083, -8.477e-4
-1.082, -8.477e-4
-1.081, -8.477e-4
-1.080, -8.477e-4
-1.079, -8.508e-4
-1.078, -8.539e-4
-1.077, -8.569e-4
-1.076, -8.569e-4
-1.075, -8.600e-4
-1.074, -8.600e-4
-1.073, -8.600e-4
-1.072, -8.631e-4
-1.071, -8.662e-4
-1.070, -8.662e-4
-1.069, -8.693e-4
-1.068, -8.724e-4
-1.067, -8.693e-4
-1.066, -8.693e-4
-1.065, -8.724e-4
-1.064, -8.724e-4
-1.063, -8.754e-4
-1.062, -8.785e-4
-1.061, -8.816e-4
-1.060, -8.816e-4
-1.059, -8.847e-4
-1.058, -8.847e-4
-1.057, -8.878e-4
-1.056, -8.909e-4
-1.055, -8.909e-4
-1.054, -8.939e-4
-1.053, -8.970e-4
-1.052, -9.001e-4
-1.051, -8.970e-4
-1.050, -9.001e-4
-1.049, -9.032e-4
-1.048, -9.032e-4
-1.047, -9.063e-4
-1.046, -9.094e-4
-1.045, -9.094e-4
-1.044, -9.124e-4
-1.043, -9.124e-4
-1.042, -9.155e-4
-1.041, -9.186e-4
-1.040, -9.155e-4
-1.039, -9.186e-4
-1.038, -9.186e-4
-1.037, -9.217e-4
-1.036, -9.248e-4
-1.035, -9.279e-4
-1.034, -9.279e-4
-1.033, -9.279e-4
-1.032, -9.279e-4
-1.031, -9.309e-4
-1.030, -9.340e-4
-1.029, -9.340e-4
-1.028, -9.402e-4
-1.027, -9.402e-4
-1.026, -9.402e-4
-1.025, -9.402e-4
-1.024, -9.433e-4
-1.023, -9.464e-4
-1.022, -9.494e-4
-1.021, -9.525e-4
-1.020, -9.525e-4
-1.019, -9.556e-4
-1.018, -9.556e-4
-1.017, -9.556e-4
-1.016, -9.587e-4
-1.015, -9.587e-4
-1.014, -9.618e-4
-1.013, -9.649e-4
-1.012, -9.679e-4
-1.011, -9.679e-4
-1.010, -9.679e-4
-1.009, -9.710e-4
-1.008, -9.741e-4
-1.007, -9.741e-4
-1.006, -9.741e-4
-1.005, -9.772e-4
-1.004, -9.803e-4
-1.003, -9.803e-4
-1.002, -9.834e-4
-1.001, -9.834e-4
