Potential V vs RHE, Current mA cm-2
0.013299999999999867,0.06841543846147317
0.012299999999999978,-0.5610745015264736
0.011299999999999866,-0.9478565709095745
0.010299999999999976,-1.1733615521080614
0.009299999999999864,-1.3370436495024463
0.008299999999999974,-1.4472496597619326
0.007299999999999862,-1.512326379555724
0.006299999999999972,-1.585891367148706
0.00529999999999986,-1.6226738609451972
0.0042999999999999705,-1.6707740451406083
0.0032999999999998586,-1.7075565389370995
0.0022999999999999687,-1.7217036519357498
0.0012999999999998568,-1.7641449909317006
0.00029999999999996696,-1.769803836131161
-0.000700000000000145,-1.7966833508285964
-0.0017000000000000348,-1.8207334429263025
-0.0027000000000001467,-1.8263922881257622
-0.0037000000000000366,-1.8561012254229279
-0.0047000000000001485,-1.857515936722793
-0.005700000000000038,-1.882980740120364
-0.00670000000000015,-1.897127853119014
-0.00770000000000004,-1.897127853119014
-0.008700000000000152,-1.9296662130159101
-0.009700000000000042,-1.93532505821537
-0.010700000000000154,-1.9537163051136157
-0.011700000000000044,-1.9650339955125358
-0.012700000000000156,-1.9650339955125358
-0.013700000000000045,-1.9904987989101068
-0.014700000000000157,-1.9890840876102414
-0.015700000000000047,-2.004645911908757
-0.01670000000000016,-2.020207736207272
-0.01770000000000005,-2.023037158807002
-0.01870000000000016,-2.040013694405383
-0.01970000000000005,-2.0414284057052483
-0.020700000000000163,-2.054160807404033
-0.021700000000000053,-2.0640637865030884
-0.022700000000000164,-2.0654784978029537
-0.023700000000000054,-2.081040322101469
-0.024700000000000166,-2.0782108995017388
-0.025700000000000056,-2.095187435100119
-0.026700000000000168,-2.095187435100119
-0.027700000000000058,-2.0937727238002544
-0.02870000000000017,-2.116408104598095
-0.02970000000000006,-2.110749259398635
-0.03070000000000017,-2.12914050629688
-0.03170000000000006,-2.133384640196476
-0.03270000000000017,-2.1390434853959355
-0.03370000000000006,-2.1645082887935065
-0.034700000000000175,-2.156020020994316
-0.035700000000000065,-2.171581845292831
-0.03670000000000018,-2.1828995356917518
-0.03770000000000007,-2.177240690492291
-0.03870000000000018,-2.1984613599902674
-0.03970000000000007,-2.1885583808912115
-0.04070000000000018,-2.1984613599902674
-0.04170000000000007,-2.206949627789457
-0.04270000000000018,-2.202705493889862
-0.04370000000000007,-2.226755585987568
-0.044700000000000184,-2.225340874687703
-0.045700000000000074,-2.235243853786758
-0.046700000000000186,-2.2465615441856785
-0.047700000000000076,-2.2324144311870278
-0.04870000000000019,-2.2522203893851382
-0.04970000000000008,-2.2465615441856785
-0.05070000000000019,-2.2522203893851382
-0.05170000000000008,-2.2621233684841937
-0.05270000000000019,-2.253635100685003
-0.05370000000000008,-2.2621233684841937
-0.05470000000000019,-2.2649527910839233
-0.05570000000000008,-2.273441058883114
-0.056700000000000195,-2.2819293266823037
-0.057700000000000085,-2.280514615382439
-0.058700000000000196,-2.296076439680954
-0.059700000000000086,-2.2904175944814944
-0.0607000000000002,-2.30314999618028
-0.06170000000000009,-2.3130529752793345
-0.0627000000000002,-2.307394130079875
-0.06370000000000009,-2.3257853769781205
-0.0647000000000002,-2.3144676865791998
-0.06570000000000009,-2.3272000882779853
-0.0667000000000002,-2.3257853769781205
-0.0677000000000001,-2.3257853769781205
-0.0687000000000002,-2.3371030673770408
-0.0697000000000001,-2.330029510877715
-0.07070000000000021,-2.3413472012766356
-0.0717000000000001,-2.339932489976771
-0.07270000000000021,-2.3371030673770408
-0.0737000000000001,-2.355494314275286
-0.07470000000000021,-2.3455913351762305
-0.0757000000000001,-2.359738448174881
-0.07670000000000021,-2.3653972933743415
-0.0777000000000001,-2.362567870774611
-0.07870000000000021,-2.3781296950731265
-0.0797000000000001,-2.3696414272739363
-0.08070000000000022,-2.3753002724733965
-0.0817000000000001,-2.383788540272587
-0.08270000000000022,-2.3767149837732613
-0.08370000000000011,-2.4021797871708324
-0.08470000000000022,-2.389447385472047
-0.08570000000000011,-2.3951062306715074
-0.08670000000000022,-2.4064239210704272
-0.08770000000000011,-2.4021797871708324
-0.08870000000000022,-2.420571034069078
-0.08970000000000011,-2.4163269001694827
-0.09070000000000022,-2.426229879268538
-0.09170000000000011,-2.4347181470677284
-0.09270000000000023,-2.426229879268538
-0.09370000000000012,-2.437547569667458
-0.09470000000000023,-2.4347181470677284
-0.09570000000000012,-2.4417917035670533
-0.09670000000000023,-2.4417917035670533
-0.09770000000000012,-2.4347181470677284
-0.09870000000000023,-2.4488652600663787
-0.09970000000000012,-2.457353527865569
-0.10070000000000023,-2.4771594860636794
-0.10170000000000012,-2.4814036199632743
-0.10270000000000024,-2.4814036199632743
-0.10370000000000013,-2.4870624651627344
-0.10470000000000024,-2.4842330425630044
-0.10570000000000013,-2.5012095781613843
-0.10670000000000024,-2.5012095781613843
-0.10770000000000013,-2.49979486686152
-0.10870000000000024,-2.5139419798601703
-0.10970000000000013,-2.50545371206098
-0.11070000000000024,-2.5295038041586855
-0.11170000000000013,-2.5379920719578757
-0.11270000000000002,-2.532333226758415
-0.11370000000000013,-2.5563833188561214
-0.11470000000000002,-2.552139184956526
-0.11570000000000014,-2.5705304318547717
-0.11670000000000003,-2.5719451431546365
-0.11770000000000014,-2.5747745657543666
-0.11870000000000003,-2.610142348250993
-0.11970000000000014,-2.600239369151937
-0.12070000000000003,-2.6044835030515325
-0.12170000000000014,-2.6087276369511274
-0.12270000000000003,-2.6016540804518025
-0.12370000000000014,-2.6285335951492383
-0.12470000000000003,-2.6228747499497778
-0.12570000000000014,-2.6384365742482934
-0.12670000000000003,-2.6469248420474836
-0.12770000000000015,-2.6525836872469437
-0.12870000000000004,-2.6921956036431647
-0.12970000000000015,-2.6837073358439745
-0.13070000000000004,-2.697854448842625
-0.13170000000000015,-2.712001561841275
-0.13270000000000004,-2.706342716641815
-0.13370000000000015,-2.7289780974396556
-0.13470000000000004,-2.734636942639116
-0.13570000000000015,-2.7558576121370915
-0.13670000000000004,-2.767175302536012
-0.13770000000000016,-2.767175302536012
-0.13870000000000005,-2.795469528533313
-0.13970000000000016,-2.8011283737327726
-0.14070000000000005,-2.818104909331153
-0.14170000000000016,-2.823763754530613
-0.14270000000000005,-2.8379108675292635
-0.14370000000000016,-2.8605462483271045
-0.14470000000000005,-2.8619609596269693
-0.14570000000000016,-2.8860110517246746
-0.14670000000000005,-2.9044022986229203
-0.14770000000000016,-2.9171347003217054
-0.14870000000000005,-2.949673060218602
-0.14970000000000017,-2.965234884517117
-0.15070000000000006,-2.997773244414013
-0.15170000000000017,-3.003432089613473
-0.15270000000000006,-3.009090934812933
-0.15370000000000017,-3.0487028512091543
-0.15470000000000006,-3.0487028512091543
-0.15570000000000017,-3.07841178850632
-0.15670000000000006,-3.1024618806040256
-0.15770000000000017,-3.1123648597030806
-0.15870000000000006,-3.1477326421997063
-0.15970000000000018,-3.164709177798087
-0.16070000000000007,-3.201491671594578
-0.16170000000000018,-3.225541763692284
-0.16270000000000007,-3.2453477218903943
-0.16370000000000018,-3.28354492698675
-0.16470000000000007,-3.2991067512852656
-0.16570000000000018,-3.3344745337818917
-0.16670000000000007,-3.358524625879597
-0.16770000000000018,-3.3755011614779775
-0.16870000000000007,-3.412283655274469
-0.16970000000000018,-3.434919036072309
-0.17070000000000007,-3.4745309524685304
-0.17170000000000019,-3.507069312365426
-0.17270000000000008,-3.5353635383627267
-0.1737000000000002,-3.5820490112582726
-0.17470000000000008,-3.6046843920561136
-0.1757000000000002,-3.6556139988512544
-0.17670000000000008,-3.696640626547341
-0.1777000000000002,-3.727764275144372
-0.17870000000000008,-3.7758644593397825
-0.1797000000000002,-3.799914551437489
-0.18070000000000008,-3.8480147356329
-0.1817000000000002,-3.8833825181295256
-0.18270000000000008,-3.915920878026421
-0.1837000000000002,-3.973924041320888
-0.1847000000000001,-4.01070653511738
-0.1857000000000002,-4.070124409711711
-0.1867000000000001,-4.116809882607257
-0.1877000000000002,-4.157836510303343
-0.1887000000000001,-4.217254384897673
-0.1897000000000002,-4.25545158999403
-0.1907000000000001,-4.326187154987283
-0.1917000000000001,-4.382775606981883
-0.19269999999999998,-4.43511992507689
-0.1937000000000001,-4.508684912669872
-0.19469999999999998,-4.545467406466363
-0.1957000000000001,-4.6162029714596144
-0.19669999999999999,-4.668547289554621
-0.1977000000000001,-4.718062185049897
-0.1987,-4.791627172642879
-0.1997000000000001,-4.83406851163883
-0.2007,-4.916121767031002
-0.2017000000000001,-4.986857332024254
-0.2027,-5.0547634744177765
-0.2037000000000001,-5.143890286309273
-0.2047,-5.204722872203471
-0.2057000000000001,-5.299508529294427
-0.2067,-5.365999960388084
-0.2077000000000001,-5.4353208140814715
-0.2087,-5.524447625972968
-0.2097000000000001,-5.58952434576676
-0.2107,-5.685724714157582
-0.2117000000000001,-5.769192680849619
-0.2127,-5.855490070141387
-0.2137000000000001,-5.94603159333275
-0.2147,-6.030914271324651
-0.2157000000000001,-6.146920597913584
-0.2167,-6.228973853305757
-0.21770000000000012,-6.318100665197254
-0.2187,-6.424204012687131
-0.21970000000000012,-6.516160247178359
-0.2207,-6.627922439867697
-0.22170000000000012,-6.731196364757845
-0.2227,-6.827396733148667
-0.22370000000000012,-6.95189132753679
-0.2247,-7.053750541127073
-0.22570000000000012,-7.175415712915465
-0.2267,-7.3183015542018355
-0.22770000000000012,-7.427234324291442
-0.22870000000000001,-7.558802475178892
-0.22970000000000013,-7.679052935667419
-0.23070000000000002,-7.792229839656622
-0.23170000000000013,-7.911065588845285
-0.23270000000000002,-8.042633739732734
-0.23370000000000013,-8.175616601920048
-0.23470000000000002,-8.3029406189079
-0.23570000000000013,-8.448655882793998
-0.23670000000000002,-8.597200569279828
-0.2376999999999999,-8.733012854066871
-0.23870000000000002,-8.874483984053375
-0.2396999999999999,-8.996149155841769
-0.24070000000000003,-9.160255666626112
-0.24169999999999991,-9.318703332210998
-0.24270000000000003,-9.463003884797232
-0.24369999999999992,-9.6341839520809
-0.24470000000000003,-9.77706979336727
-0.24569999999999992,-9.936932170252017
-0.24670000000000003,-10.106697526235822
-0.24769999999999992,-10.256656924021515
-0.24870000000000003,-10.437739970404241
-0.24969999999999992,-10.599017058588855
-0.25070000000000003,-10.78858837277077
-0.2516999999999999,-10.964012573954035
-0.25270000000000004,-11.13094850733811
-0.2536999999999999,-11.33891106841827
-0.25470000000000004,-11.534141227799646
-0.2556999999999999,-11.730786098480884
-0.25670000000000004,-11.92884568046199
-0.25769999999999993,-12.122661128543498
-0.25870000000000004,-12.33062368962366
-0.25969999999999993,-12.51878029250571
-0.26070000000000004,-12.735231121385059
-0.26169999999999993,-12.930461280766435
-0.26270000000000004,-13.162473933944302
-0.26369999999999993,-13.359118804625542
-0.26470000000000005,-13.54444598490786
-0.26569999999999994,-13.786361617184783
-0.26670000000000005,-14.016959559062784
-0.26769999999999994,-14.231995676642269
-0.26870000000000005,-14.472496597619326
-0.26969999999999994,-14.69885040559773
-0.27070000000000005,-14.925204213576137
-0.27169999999999994,-15.165705134553193
-0.27270000000000005,-15.406206055530248
-0.27369999999999994,-15.646706976507305
-0.27470000000000006,-15.88720789748436
-0.27569999999999995,-16.141855931460068
-0.27670000000000006,-16.368209739438473
-0.27769999999999995,-16.622857773414182
-0.27870000000000006,-16.891652920388537
-0.27969999999999995,-17.132153841365596
-0.28070000000000006,-17.4150961013386
-0.28169999999999995,-17.669744135314307
-0.28270000000000006,-17.924392169290012
-0.28369999999999995,-18.221481542261674
-0.28470000000000006,-18.49027668923603
-0.28569999999999995,-18.78736606220769
-0.28670000000000007,-19.070308322180697
-0.28769999999999996,-19.367397695152352
-0.28870000000000007,-19.721075520118614
-0.28969999999999996,-19.98987066709297
-0.29070000000000007,-20.244518701068674
-0.29169999999999996,-20.499166735044383
-0.29270000000000007,-20.78210899501739
-0.29369999999999996,-21.093345480987697
-0.2947000000000001,-21.404581966958006
-0.29569999999999996,-21.786554017921564
-0.2967000000000001,-22.097790503891872
-0.29769999999999996,-22.352438537867577
-0.2987000000000001,-22.706116362833843
-0.29969999999999997,-23.031499961802798
-0.3007000000000001,-23.314442221775803
-0.30169999999999997,-23.597384481748815
-0.3027000000000001,-23.951062306715073
-0.30369999999999997,-24.31888724467998
-0.3047000000000001,-24.587682391654337
-0.30569999999999997,-24.95550732961925
-0.3067000000000001,-25.252596702590903
-0.3077,-25.60627452755716
-0.3087000000000001,-25.94580523952477
-0.3097,-26.29948306449103
-0.3107000000000001,-26.69560222845324
-0.3117,-27.06342716641815
-0.3127000000000001,-27.37466365238846
-0.3137,-27.728341477354718
-0.3147000000000001,-28.11031352831828
-0.3157,-28.49228557928184
-0.3167000000000001,-28.831816291249446
-0.3177,-29.18549411621571
-0.3187000000000001,-29.539171941181966
-0.3197,-29.906996879146874
-0.3207000000000001,-30.303116043109085
-0.3217,-30.685088094072643
-0.3227000000000001,-31.095354371033505
-0.3237,-31.505620647994366
-0.3247000000000001,-31.85929847296063
-0.3257,-32.24127052392419
-0.3267000000000001,-32.65153680088505
-0.3277,-33.04765596484726
-0.3287000000000001,-33.42962801581082
-0.3297,-33.89648274476628
-0.3307000000000001,-34.278454795729836
-0.3317,-34.5755441687015
-0.3327000000000001,-34.95751621966506
-0.3337,-35.41022383562187
-0.3347000000000001,-35.862931451578675
-0.3357,-36.28734484153819
-0.3367000000000001,-36.669316892501755
-0.3377,-37.07958316946261
-0.3387000000000001,-37.56058501141672
-0.3397,-37.98499840137623
-0.3407000000000001,-38.40941179133574
-0.3417,-38.84797229429391
-0.3427000000000001,-39.28653279725207
-0.3437,-39.68265196121428
-0.3447000000000001,-40.163653803168394
-0.3457,-40.545625854131956
-0.3467000000000001,-40.98418635709011
-0.3477,-41.43689397304693
-0.3487000000000001,-41.87545447600508
-0.3497,-42.25742652696865
-0.3507000000000001,-42.667692803929505
-0.3517,-43.106253306887666
-0.3527000000000001,-43.48822535785123
-0.3537,-43.98337431280399
-0.3547000000000001,-44.478523267756756
-0.3557,-44.88878954471762
-0.35670000000000013,-45.36979138667173
-0.3577,-45.86494034162449
-0.35870000000000013,-46.3459421835786
-0.3597,-46.77035557353811
-0.36070000000000013,-47.33624009348412
-0.3617,-47.80309482243959
-0.3626999999999999,-48.2275082123991
-0.3637,-48.73680428035051
-0.3646999999999999,-49.33098302629383
-0.3657,-49.79783775524929
-0.3666999999999999,-50.22225114520881
-0.3677,-50.73154721316022
-0.3686999999999999,-51.25499039411028
-0.36970000000000003,-51.7642864620617
-0.3706999999999999,-52.24528830401581
-0.37170000000000003,-52.76873148496586
-0.3726999999999999,-53.23558621392132
-0.37370000000000003,-53.75902939487139
-0.3746999999999999,-54.28247257582146
-0.37570000000000003,-54.82006286977017
-0.3766999999999999,-55.34350605072023
-0.37770000000000004,-55.79621366667705
-0.3786999999999999,-56.333803960625765
-0.37970000000000004,-56.77236446358392
-0.3806999999999999,-57.352396096528594
-0.38170000000000004,-57.93242772947325
-0.38269999999999993,-58.498312249419264
-0.38370000000000004,-59.035902543367975
-0.38469999999999993,-59.44616882032884
-0.38570000000000004,-60.054494679270796
-0.38669999999999993,-59.67252262830725
-0.38570000000000004,-58.59734204040982
-0.38469999999999993,-57.819250825484055
-0.38370000000000004,-57.14018940154883
-0.38269999999999993,-56.50356931660957
-0.38170000000000004,-55.838655005673
-0.3806999999999999,-55.27277048572698
-0.37970000000000004,-54.74932730477692
-0.3786999999999999,-54.08441299384035
-0.37770000000000004,-53.50438136089569
-0.3766999999999999,-52.91020261495237
-0.37570000000000003,-52.25943541701445
-0.3746999999999999,-51.7642864620617
-0.37370000000000003,-51.19840194211567
-0.3726999999999999,-50.60422319617236
-0.37170000000000003,-50.024191563227696
-0.3706999999999999,-49.40171859128708
-0.36970000000000003,-48.83583407134107
-0.3686999999999999,-48.2275082123991
-0.3677,-47.689917918450384
-0.3666999999999999,-47.067444946509774
-0.3657,-46.529854652561056
-0.3646999999999999,-45.963970132615046
-0.3637,-45.38393849967037
-0.3626999999999999,-44.83220109272301
-0.3617,-44.2946107987743
-0.36070000000000013,-43.81360895682018
-0.3597,-43.34675422786472
-0.35870000000000013,-42.86575238591062
-0.3577,-42.34230920496055
-0.35670000000000013,-41.83301313700913
-0.3557,-41.22468727806717
-0.3547000000000001,-40.743685436113054
-0.3537,-40.234389368161644
-0.3527000000000001,-39.654357735216976
-0.3517,-39.229944345257465
-0.3507000000000001,-38.692354051308754
-0.3497,-38.18305798335734
-0.3487000000000001,-37.744497480399176
-0.3477,-37.221054299449115
-0.3467000000000001,-36.69761111849905
-0.3457,-36.18831505054764
-0.3447000000000001,-35.679018982596226
-0.3437,-35.198017140642115
-0.3427000000000001,-34.75945663768395
-0.3417,-34.278454795729836
-0.3407000000000001,-33.79745295377573
-0.3397,-33.316451111821614
-0.3387000000000001,-32.8354492698675
-0.3377,-32.39688876690934
-0.3367000000000001,-31.95832826395118
-0.3357,-31.49147353499572
-0.3347000000000001,-31.109501484032155
-0.3337,-30.600205416080744
-0.3327000000000001,-30.147497800123933
-0.3317,-29.73723152316307
-0.3307000000000001,-29.27037679420761
-0.3297,-28.9025518562427
-0.3287000000000001,-28.435697127287238
-0.3277,-28.06787218932233
-0.3267000000000001,-27.558576121370916
-0.3257,-27.0775742794168
-0.3247000000000001,-26.667308002455943
-0.3237,-26.22874749949778
-0.3227000000000001,-25.80433410953827
-0.3217,-25.43650917157336
-0.3207000000000001,-24.983801555616548
-0.3197,-24.601829504652986
-0.3187000000000001,-24.21985745368943
-0.3177,-23.809591176728567
-0.3167000000000001,-23.371030673770406
-0.3157,-22.946617283810895
-0.3147000000000001,-22.63538079784059
-0.3137,-22.225114520879725
-0.3127000000000001,-21.828995356917517
-0.3117,-21.43287619295531
-0.3107000000000001,-21.093345480987697
-0.3097,-20.76796188201874
-0.3087000000000001,-20.371842718056527
-0.3077,-19.98987066709297
-0.3067000000000001,-19.65033995512536
-0.30569999999999997,-19.2683679041618
-0.3047000000000001,-18.900542966196888
-0.30369999999999997,-18.53271802823198
-0.3027000000000001,-18.19318731626437
-0.30169999999999997,-17.881950830294063
-0.3007000000000001,-17.528273005327804
-0.29969999999999997,-17.20288940635885
-0.2987000000000001,-16.849211581392588
-0.29769999999999996,-16.53797509542228
-0.2967000000000001,-16.22673860945197
-0.29569999999999996,-15.901355010483012
-0.2947000000000001,-15.575971411514052
-0.29369999999999996,-15.222293586547794
-0.29270000000000007,-14.896909987578834
-0.29169999999999996,-14.557379275611227
-0.29070000000000007,-14.26028990263957
-0.28969999999999996,-13.991494755665215
-0.28870000000000007,-13.66186702279666
-0.28769999999999996,-13.353459959426083
-0.28670000000000007,-13.059200009054155
-0.28569999999999995,-12.747963523083845
-0.28470000000000006,-12.402773965916776
-0.28369999999999995,-12.10285517034539
-0.28270000000000006,-11.83406002337103
-0.28169999999999995,-11.55536189729762
-0.28070000000000006,-11.290810884222859
-0.27969999999999995,-10.993721511251199
-0.27870000000000006,-10.724926364276843
-0.27769999999999995,-10.45754592860235
-0.27670000000000006,-10.178847802528939
-0.27569999999999995,-9.89024669735647
-0.27470000000000006,-9.6624781780782
-0.27369999999999994,-9.399341876303303
-0.27270000000000005,-9.148937976227192
-0.27169999999999994,-8.891460519651757
-0.27070000000000005,-8.646715464775104
-0.26969999999999994,-8.411873388997508
-0.26870000000000005,-8.150151798522476
-0.26769999999999994,-7.88701549674758
-0.26670000000000005,-7.652173420969983
