Sept. 25, 2024   04:10:42
Cyclic Voltammetry
File: c:/users/guazh/data/20240922_batch_417_500/2024-09-22-exp441\exp441-2024-09-25t04_02_13-h2koh\exp441_cv_sr_700mvs_efin_-1400mv.bin
Data Source:  Experiment
Instrument Model:  CHI760E
Header: CV ran at 700 mVs
Note: 

Init E (V) = -1
High E (V) = -1
Low E (V) = -1.4
Final E (V) = -1
Init P/N = N
Scan Rate (V/s) = 0.7
Segment = 3
Sample Interval (V) = 0.001
Quiet Time (sec) = 2
Sensitivity (A/V) = 0.01
Comp R (ohm) = 2.8

Results:

Channel 1:
Segment 1:

Segment 2:

Segment 3:

Potential/V, Current/A

-1.000, 1.559e-7
-1.001, 6.490e-5
-1.002, 1.173e-4
-1.003, 1.697e-4
-1.004, 2.098e-4
-1.005, 2.499e-4
-1.006, 2.869e-4
-1.007, 3.177e-4
-1.008, 3.485e-4
-1.009, 3.732e-4
-1.010, 4.010e-4
-1.011, 4.225e-4
-1.012, 4.441e-4
-1.013, 4.595e-4
-1.014, 4.780e-4
-1.015, 4.935e-4
-1.016, 5.089e-4
-1.017, 5.243e-4
-1.018, 5.366e-4
-1.019, 5.459e-4
-1.020, 5.582e-4
-1.021, 5.705e-4
-1.022, 5.798e-4
-1.023, 5.890e-4
-1.024, 5.952e-4
-1.025, 6.044e-4
-1.026, 6.106e-4
-1.027, 6.199e-4
-1.028, 6.260e-4
-1.029, 6.291e-4
-1.030, 6.353e-4
-1.031, 6.414e-4
-1.032, 6.445e-4
-1.033, 6.507e-4
-1.034, 6.569e-4
-1.035, 6.599e-4
-1.036, 6.630e-4
-1.037, 6.661e-4
-1.038, 6.692e-4
-1.039, 6.723e-4
-1.040, 6.723e-4
-1.041, 6.754e-4
-1.042, 6.784e-4
-1.043, 6.815e-4
-1.044, 6.846e-4
-1.045, 6.877e-4
-1.046, 6.939e-4
-1.047, 6.939e-4
-1.048, 6.969e-4
-1.049, 7.000e-4
-1.050, 7.000e-4
-1.051, 7.000e-4
-1.052, 7.031e-4
-1.053, 7.031e-4
-1.054, 7.062e-4
-1.055, 7.062e-4
-1.056, 7.093e-4
-1.057, 7.124e-4
-1.058, 7.154e-4
-1.059, 7.154e-4
-1.060, 7.154e-4
-1.061, 7.154e-4
-1.062, 7.154e-4
-1.063, 7.154e-4
-1.064, 7.185e-4
-1.065, 7.185e-4
-1.066, 7.216e-4
-1.067, 7.216e-4
-1.068, 7.247e-4
-1.069, 7.278e-4
-1.070, 7.278e-4
-1.071, 7.278e-4
-1.072, 7.247e-4
-1.073, 7.278e-4
-1.074, 7.278e-4
-1.075, 7.278e-4
-1.076, 7.309e-4
-1.077, 7.309e-4
-1.078, 7.339e-4
-1.079, 7.370e-4
-1.080, 7.370e-4
-1.081, 7.370e-4
-1.082, 7.370e-4
-1.083, 7.370e-4
-1.084, 7.401e-4
-1.085, 7.401e-4
-1.086, 7.401e-4
-1.087, 7.401e-4
-1.088, 7.432e-4
-1.089, 7.432e-4
-1.090, 7.463e-4
-1.091, 7.463e-4
-1.092, 7.494e-4
-1.093, 7.463e-4
-1.094, 7.463e-4
-1.095, 7.463e-4
-1.096, 7.494e-4
-1.097, 7.494e-4
-1.098, 7.524e-4
-1.099, 7.494e-4
-1.100, 7.524e-4
-1.101, 7.524e-4
-1.102, 7.524e-4
-1.103, 7.524e-4
-1.104, 7.524e-4
-1.105, 7.555e-4
-1.106, 7.555e-4
-1.107, 7.555e-4
-1.108, 7.555e-4
-1.109, 7.555e-4
-1.110, 7.555e-4
-1.111, 7.555e-4
-1.112, 7.555e-4
-1.113, 7.586e-4
-1.114, 7.555e-4
-1.115, 7.586e-4
-1.116, 7.586e-4
-1.117, 7.586e-4
-1.118, 7.617e-4
-1.119, 7.617e-4
-1.120, 7.617e-4
-1.121, 7.617e-4
-1.122, 7.617e-4
-1.123, 7.617e-4
-1.124, 7.648e-4
-1.125, 7.648e-4
-1.126, 7.648e-4
-1.127, 7.679e-4
-1.128, 7.679e-4
-1.129, 7.679e-4
-1.130, 7.679e-4
-1.131, 7.709e-4
-1.132, 7.679e-4
-1.133, 7.679e-4
-1.134, 7.679e-4
-1.135, 7.709e-4
-1.136, 7.679e-4
-1.137, 7.709e-4
-1.138, 7.709e-4
-1.139, 7.709e-4
-1.140, 7.740e-4
-1.141, 7.709e-4
-1.142, 7.740e-4
-1.143, 7.740e-4
-1.144, 7.740e-4
-1.145, 7.740e-4
-1.146, 7.740e-4
-1.147, 7.771e-4
-1.148, 7.771e-4
-1.149, 7.771e-4
-1.150, 7.771e-4
-1.151, 7.802e-4
-1.152, 7.802e-4
-1.153, 7.802e-4
-1.154, 7.833e-4
-1.155, 7.802e-4
-1.156, 7.833e-4
-1.157, 7.802e-4
-1.158, 7.833e-4
-1.159, 7.833e-4
-1.160, 7.833e-4
-1.161, 7.863e-4
-1.162, 7.833e-4
-1.163, 7.863e-4
-1.164, 7.863e-4
-1.165, 7.863e-4
-1.166, 7.863e-4
-1.167, 7.863e-4
-1.168, 7.863e-4
-1.169, 7.863e-4
-1.170, 7.894e-4
-1.171, 7.894e-4
-1.172, 7.925e-4
-1.173, 7.925e-4
-1.174, 7.956e-4
-1.175, 7.956e-4
-1.176, 7.956e-4
-1.177, 7.987e-4
-1.178, 7.987e-4
-1.179, 7.987e-4
-1.180, 8.018e-4
-1.181, 8.018e-4
-1.182, 8.048e-4
-1.183, 8.048e-4
-1.184, 8.048e-4
-1.185, 8.079e-4
-1.186, 8.079e-4
-1.187, 8.110e-4
-1.188, 8.110e-4
-1.189, 8.110e-4
-1.190, 8.141e-4
-1.191, 8.141e-4
-1.192, 8.172e-4
-1.193, 8.172e-4
-1.194, 8.203e-4
-1.195, 8.203e-4
-1.196, 8.233e-4
-1.197, 8.233e-4
-1.198, 8.295e-4
-1.199, 8.295e-4
-1.200, 8.326e-4
-1.201, 8.326e-4
-1.202, 8.357e-4
-1.203, 8.357e-4
-1.204, 8.388e-4
-1.205, 8.418e-4
-1.206, 8.449e-4
-1.207, 8.449e-4
-1.208, 8.449e-4
-1.209, 8.480e-4
-1.210, 8.542e-4
-1.211, 8.542e-4
-1.212, 8.573e-4
-1.213, 8.573e-4
-1.214, 8.603e-4
-1.215, 8.603e-4
-1.216, 8.634e-4
-1.217, 8.665e-4
-1.218, 8.696e-4
-1.219, 8.727e-4
-1.220, 8.788e-4
-1.221, 8.819e-4
-1.222, 8.850e-4
-1.223, 8.881e-4
-1.224, 8.881e-4
-1.225, 8.912e-4
-1.226, 8.943e-4
-1.227, 8.973e-4
-1.228, 9.035e-4
-1.229, 9.097e-4
-1.230, 9.128e-4
-1.231, 9.189e-4
-1.232, 9.189e-4
-1.233, 9.251e-4
-1.234, 9.282e-4
-1.235, 9.313e-4
-1.236, 9.343e-4
-1.237, 9.374e-4
-1.238, 9.436e-4
-1.239, 9.467e-4
-1.240, 9.528e-4
-1.241, 9.559e-4
-1.242, 9.621e-4
-1.243, 9.683e-4
-1.244, 9.713e-4
-1.245, 9.775e-4
-1.246, 9.806e-4
-1.247, 9.868e-4
-1.248, 9.929e-4
-1.249, 9.991e-4
-1.250, 1.005e-3
-1.251, 1.008e-3
-1.252, 1.014e-3
-1.253, 1.021e-3
-1.254, 1.027e-3
-1.255, 1.033e-3
-1.256, 1.036e-3
-1.257, 1.042e-3
-1.258, 1.051e-3
-1.259, 1.058e-3
-1.260, 1.064e-3
-1.261, 1.070e-3
-1.262, 1.076e-3
-1.263, 1.082e-3
-1.264, 1.088e-3
-1.265, 1.098e-3
-1.266, 1.104e-3
-1.267, 1.110e-3
-1.268, 1.119e-3
-1.269, 1.125e-3
-1.270, 1.135e-3
-1.271, 1.144e-3
-1.272, 1.150e-3
-1.273, 1.159e-3
-1.274, 1.169e-3
-1.275, 1.175e-3
-1.276, 1.181e-3
-1.277, 1.193e-3
-1.278, 1.203e-3
-1.279, 1.212e-3
-1.280, 1.221e-3
-1.281, 1.227e-3
-1.282, 1.236e-3
-1.283, 1.246e-3
-1.284, 1.258e-3
-1.285, 1.267e-3
-1.286, 1.277e-3
-1.287, 1.286e-3
-1.288, 1.298e-3
-1.289, 1.310e-3
-1.290, 1.320e-3
-1.291, 1.332e-3
-1.292, 1.344e-3
-1.293, 1.357e-3
-1.294, 1.369e-3
-1.295, 1.381e-3
-1.296, 1.391e-3
-1.297, 1.403e-3
-1.298, 1.415e-3
-1.299, 1.425e-3
-1.300, 1.440e-3
-1.301, 1.452e-3
-1.302, 1.465e-3
-1.303, 1.477e-3
-1.304, 1.489e-3
-1.305, 1.505e-3
-1.306, 1.517e-3
-1.307, 1.529e-3
-1.308, 1.545e-3
-1.309, 1.557e-3
-1.310, 1.569e-3
-1.311, 1.585e-3
-1.312, 1.600e-3
-1.313, 1.616e-3
-1.314, 1.631e-3
-1.315, 1.647e-3
-1.316, 1.662e-3
-1.317, 1.680e-3
-1.318, 1.696e-3
-1.319, 1.711e-3
-1.320, 1.727e-3
-1.321, 1.742e-3
-1.322, 1.761e-3
-1.323, 1.779e-3
-1.324, 1.795e-3
-1.325, 1.813e-3
-1.326, 1.832e-3
-1.327, 1.850e-3
-1.328, 1.865e-3
-1.329, 1.884e-3
-1.330, 1.899e-3
-1.331, 1.918e-3
-1.332, 1.936e-3
-1.333, 1.955e-3
-1.334, 1.973e-3
-1.335, 1.995e-3
-1.336, 2.010e-3
-1.337, 2.029e-3
-1.338, 2.047e-3
-1.339, 2.069e-3
-1.340, 2.087e-3
-1.341, 2.106e-3
-1.342, 2.124e-3
-1.343, 2.146e-3
-1.344, 2.164e-3
-1.345, 2.189e-3
-1.346, 2.208e-3
-1.347, 2.229e-3
-1.348, 2.251e-3
-1.349, 2.269e-3
-1.350, 2.294e-3
-1.351, 2.312e-3
-1.352, 2.334e-3
-1.353, 2.356e-3
-1.354, 2.377e-3
-1.355, 2.402e-3
-1.356, 2.423e-3
-1.357, 2.448e-3
-1.358, 2.473e-3
-1.359, 2.497e-3
-1.360, 2.519e-3
-1.361, 2.544e-3
-1.362, 2.565e-3
-1.363, 2.587e-3
-1.364, 2.612e-3
-1.365, 2.636e-3
-1.366, 2.661e-3
-1.367, 2.686e-3
-1.368, 2.710e-3
-1.369, 2.738e-3
-1.370, 2.766e-3
-1.371, 2.790e-3
-1.372, 2.818e-3
-1.373, 2.840e-3
-1.374, 2.867e-3
-1.375, 2.895e-3
-1.376, 2.923e-3
-1.377, 2.951e-3
-1.378, 2.982e-3
-1.379, 3.009e-3
-1.380, 3.037e-3
-1.381, 3.062e-3
-1.382, 3.093e-3
-1.383, 3.120e-3
-1.384, 3.148e-3
-1.385, 3.179e-3
-1.386, 3.207e-3
-1.387, 3.234e-3
-1.388, 3.262e-3
-1.389, 3.290e-3
-1.390, 3.318e-3
-1.391, 3.348e-3
-1.392, 3.376e-3
-1.393, 3.401e-3
-1.394, 3.429e-3
-1.395, 3.459e-3
-1.396, 3.493e-3
-1.397, 3.521e-3
-1.398, 3.552e-3
-1.399, 3.583e-3
-1.400, 3.561e-3
-1.399, 3.462e-3
-1.398, 3.376e-3
-1.397, 3.302e-3
-1.396, 3.234e-3
-1.395, 3.176e-3
-1.394, 3.120e-3
-1.393, 3.071e-3
-1.392, 3.022e-3
-1.391, 2.972e-3
-1.390, 2.926e-3
-1.389, 2.883e-3
-1.388, 2.843e-3
-1.387, 2.800e-3
-1.386, 2.763e-3
-1.385, 2.723e-3
-1.384, 2.689e-3
-1.383, 2.652e-3
-1.382, 2.618e-3
-1.381, 2.581e-3
-1.380, 2.547e-3
-1.379, 2.513e-3
-1.378, 2.476e-3
-1.377, 2.442e-3
-1.376, 2.408e-3
-1.375, 2.374e-3
-1.374, 2.340e-3
-1.373, 2.306e-3
-1.372, 2.279e-3
-1.371, 2.248e-3
-1.370, 2.217e-3
-1.369, 2.186e-3
-1.368, 2.155e-3
-1.367, 2.124e-3
-1.366, 2.097e-3
-1.365, 2.063e-3
-1.364, 2.035e-3
-1.363, 2.004e-3
-1.362, 1.976e-3
-1.361, 1.946e-3
-1.360, 1.918e-3
-1.359, 1.890e-3
-1.358, 1.859e-3
-1.357, 1.832e-3
-1.356, 1.804e-3
-1.355, 1.776e-3
-1.354, 1.748e-3
-1.353, 1.721e-3
-1.352, 1.696e-3
-1.351, 1.665e-3
-1.350, 1.637e-3
-1.349, 1.610e-3
-1.348, 1.582e-3
-1.347, 1.557e-3
-1.346, 1.532e-3
-1.345, 1.505e-3
-1.344, 1.477e-3
-1.343, 1.452e-3
-1.342, 1.425e-3
-1.341, 1.400e-3
-1.340, 1.378e-3
-1.339, 1.351e-3
-1.338, 1.326e-3
-1.337, 1.301e-3
-1.336, 1.277e-3
-1.335, 1.252e-3
-1.334, 1.230e-3
-1.333, 1.206e-3
-1.332, 1.181e-3
-1.331, 1.156e-3
-1.330, 1.132e-3
-1.329, 1.107e-3
-1.328, 1.082e-3
-1.327, 1.058e-3
-1.326, 1.036e-3
-1.325, 1.014e-3
-1.324, 9.929e-4
-1.323, 9.683e-4
-1.322, 9.467e-4
-1.321, 9.220e-4
-1.320, 9.004e-4
-1.319, 8.758e-4
-1.318, 8.542e-4
-1.317, 8.326e-4
-1.316, 8.079e-4
-1.315, 7.863e-4
-1.314, 7.679e-4
-1.313, 7.463e-4
-1.312, 7.247e-4
-1.311, 7.031e-4
-1.310, 6.846e-4
-1.309, 6.630e-4
-1.308, 6.414e-4
-1.307, 6.199e-4
-1.306, 6.014e-4
-1.305, 5.798e-4
-1.304, 5.582e-4
-1.303, 5.397e-4
-1.302, 5.212e-4
-1.301, 5.027e-4
-1.300, 4.842e-4
-1.299, 4.657e-4
-1.298, 4.441e-4
-1.297, 4.256e-4
-1.296, 4.071e-4
-1.295, 3.886e-4
-1.294, 3.701e-4
-1.293, 3.516e-4
-1.292, 3.331e-4
-1.291, 3.146e-4
-1.290, 2.992e-4
-1.289, 2.807e-4
-1.288, 2.622e-4
-1.287, 2.437e-4
-1.286, 2.283e-4
-1.285, 2.098e-4
-1.284, 1.944e-4
-1.283, 1.790e-4
-1.282, 1.605e-4
-1.281, 1.451e-4
-1.280, 1.266e-4
-1.279, 1.111e-4
-1.278, 9.573e-5
-1.277, 8.032e-5
-1.276, 6.490e-5
-1.275, 4.949e-5
-1.274, 3.407e-5
-1.273, 1.865e-5
-1.272, 3.239e-6
-1.271, -1.218e-5
-1.270, -2.759e-5
-1.269, -4.301e-5
-1.268, -5.534e-5
-1.267, -6.767e-5
-1.266, -8.309e-5
-1.265, -9.542e-5
-1.264, -1.078e-4
-1.263, -1.232e-4
-1.262, -1.355e-4
-1.261, -1.509e-4
-1.260, -1.632e-4
-1.259, -1.787e-4
-1.258, -1.910e-4
-1.257, -2.033e-4
-1.256, -2.157e-4
-1.255, -2.280e-4
-1.254, -2.403e-4
-1.253, -2.527e-4
-1.252, -2.650e-4
-1.251, -2.773e-4
-1.250, -2.866e-4
-1.249, -2.989e-4
-1.248, -3.112e-4
-1.247, -3.236e-4
-1.246, -3.328e-4
-1.245, -3.452e-4
-1.244, -3.544e-4
-1.243, -3.637e-4
-1.242, -3.760e-4
-1.241, -3.852e-4
-1.240, -3.945e-4
-1.239, -4.068e-4
-1.238, -4.161e-4
-1.237, -4.253e-4
-1.236, -4.376e-4
-1.235, -4.438e-4
-1.234, -4.561e-4
-1.233, -4.654e-4
-1.232, -4.716e-4
-1.231, -4.808e-4
-1.230, -4.901e-4
-1.229, -4.993e-4
-1.228, -5.086e-4
-1.227, -5.178e-4
-1.226, -5.271e-4
-1.225, -5.363e-4
-1.224, -5.425e-4
-1.223, -5.517e-4
-1.222, -5.610e-4
-1.221, -5.671e-4
-1.220, -5.764e-4
-1.219, -5.795e-4
-1.218, -5.887e-4
-1.217, -5.980e-4
-1.216, -6.011e-4
-1.215, -6.103e-4
-1.214, -6.195e-4
-1.213, -6.257e-4
-1.212, -6.319e-4
-1.211, -6.380e-4
-1.210, -6.442e-4
-1.209, -6.504e-4
-1.208, -6.565e-4
-1.207, -6.627e-4
-1.206, -6.658e-4
-1.205, -6.720e-4
-1.204, -6.812e-4
-1.203, -6.874e-4
-1.202, -6.935e-4
-1.201, -6.997e-4
-1.200, -7.028e-4
-1.199, -7.090e-4
-1.198, -7.151e-4
-1.197, -7.182e-4
-1.196, -7.244e-4
-1.195, -7.305e-4
-1.194, -7.336e-4
-1.193, -7.398e-4
-1.192, -7.429e-4
-1.191, -7.490e-4
-1.190, -7.552e-4
-1.189, -7.583e-4
-1.188, -7.645e-4
-1.187, -7.675e-4
-1.186, -7.737e-4
-1.185, -7.768e-4
-1.184, -7.799e-4
-1.183, -7.830e-4
-1.182, -7.860e-4
-1.181, -7.922e-4
-1.180, -7.953e-4
-1.179, -7.984e-4
-1.178, -8.045e-4
-1.177, -8.076e-4
-1.176, -8.107e-4
-1.175, -8.169e-4
-1.174, -8.200e-4
-1.173, -8.230e-4
-1.172, -8.261e-4
-1.171, -8.292e-4
-1.170, -8.323e-4
-1.169, -8.354e-4
-1.168, -8.385e-4
-1.167, -8.415e-4
-1.166, -8.446e-4
-1.165, -8.477e-4
-1.164, -8.508e-4
-1.163, -8.539e-4
-1.162, -8.569e-4
-1.161, -8.600e-4
-1.160, -8.600e-4
-1.159, -8.631e-4
-1.158, -8.631e-4
-1.157, -8.662e-4
-1.156, -8.693e-4
-1.155, -8.724e-4
-1.154, -8.754e-4
-1.153, -8.785e-4
-1.152, -8.785e-4
-1.151, -8.816e-4
-1.150, -8.847e-4
-1.149, -8.878e-4
-1.148, -8.909e-4
-1.147, -8.909e-4
-1.146, -8.939e-4
-1.145, -8.970e-4
-1.144, -9.001e-4
-1.143, -9.001e-4
-1.142, -9.032e-4
-1.141, -9.063e-4
-1.140, -9.094e-4
-1.139, -9.094e-4
-1.138, -9.124e-4
-1.137, -9.124e-4
-1.136, -9.155e-4
-1.135, -9.155e-4
-1.134, -9.186e-4
-1.133, -9.217e-4
-1.132, -9.217e-4
-1.131, -9.248e-4
-1.130, -9.248e-4
-1.129, -9.309e-4
-1.128, -9.309e-4
-1.127, -9.340e-4
-1.126, -9.340e-4
-1.125, -9.340e-4
-1.124, -9.371e-4
-1.123, -9.371e-4
-1.122, -9.402e-4
-1.121, -9.433e-4
-1.120, -9.433e-4
-1.119, -9.464e-4
-1.118, -9.494e-4
-1.117, -9.525e-4
-1.116, -9.556e-4
-1.115, -9.556e-4
-1.114, -9.556e-4
-1.113, -9.587e-4
-1.112, -9.556e-4
-1.111, -9.618e-4
-1.110, -9.649e-4
-1.109, -9.649e-4
-1.108, -9.649e-4
-1.107, -9.649e-4
-1.106, -9.679e-4
-1.105, -9.741e-4
-1.104, -9.741e-4
-1.103, -9.741e-4
-1.102, -9.741e-4
-1.101, -9.741e-4
-1.100, -9.772e-4
-1.099, -9.803e-4
-1.098, -9.803e-4
-1.097, -9.834e-4
-1.096, -9.864e-4
-1.095, -9.864e-4
-1.094, -9.895e-4
-1.093, -9.895e-4
-1.092, -9.895e-4
-1.091, -9.895e-4
-1.090, -9.926e-4
-1.089, -9.926e-4
-1.088, -9.957e-4
-1.087, -9.957e-4
-1.086, -9.988e-4
-1.085, -1.002e-3
-1.084, -1.002e-3
-1.083, -1.005e-3
-1.082, -1.005e-3
-1.081, -1.008e-3
-1.080, -1.008e-3
-1.079, -1.011e-3
-1.078, -1.011e-3
-1.077, -1.014e-3
-1.076, -1.017e-3
-1.075, -1.020e-3
-1.074, -1.020e-3
-1.073, -1.023e-3
-1.072, -1.027e-3
-1.071, -1.027e-3
-1.070, -1.030e-3
-1.069, -1.030e-3
-1.068, -1.030e-3
-1.067, -1.033e-3
-1.066, -1.033e-3
-1.065, -1.036e-3
-1.064, -1.039e-3
-1.063, -1.039e-3
-1.062, -1.042e-3
-1.061, -1.045e-3
-1.060, -1.045e-3
-1.059, -1.048e-3
-1.058, -1.051e-3
-1.057, -1.051e-3
-1.056, -1.051e-3
-1.055, -1.054e-3
-1.054, -1.057e-3
-1.053, -1.057e-3
-1.052, -1.060e-3
-1.051, -1.064e-3
-1.050, -1.067e-3
-1.049, -1.070e-3
-1.048, -1.070e-3
-1.047, -1.073e-3
-1.046, -1.073e-3
-1.045, -1.076e-3
-1.044, -1.076e-3
-1.043, -1.079e-3
-1.042, -1.082e-3
-1.041, -1.082e-3
-1.040, -1.085e-3
-1.039, -1.088e-3
-1.038, -1.091e-3
-1.037, -1.091e-3
-1.036, -1.094e-3
-1.035, -1.094e-3
-1.034, -1.094e-3
-1.033, -1.097e-3
-1.032, -1.101e-3
-1.031, -1.104e-3
-1.030, -1.104e-3
-1.029, -1.107e-3
-1.028, -1.110e-3
-1.027, -1.110e-3
-1.026, -1.113e-3
-1.025, -1.116e-3
-1.024, -1.119e-3
-1.023, -1.119e-3
-1.022, -1.122e-3
-1.021, -1.125e-3
-1.020, -1.125e-3
-1.019, -1.128e-3
-1.018, -1.128e-3
-1.017, -1.131e-3
-1.016, -1.131e-3
-1.015, -1.134e-3
-1.014, -1.138e-3
-1.013, -1.141e-3
-1.012, -1.144e-3
-1.011, -1.147e-3
-1.010, -1.150e-3
-1.009, -1.150e-3
-1.008, -1.153e-3
-1.007, -1.153e-3
-1.006, -1.156e-3
-1.005, -1.159e-3
-1.004, -1.159e-3
-1.003, -1.165e-3
-1.002, -1.165e-3
-1.001, -1.168e-3
