Aug. 8, 2024   09:43:57
Cyclic Voltammetry
File: c:/users/guazh/data/20240802_batch_500/2024-08-02-exp53\exp53-2024-08-08t09_18_24-h2koh\exp53_cv_sr_900mvs_efin_-1800mv.bin
Data Source:  Experiment
Instrument Model:  CHI760E
Header: CV ran at 900 mVs
Note: 

Init E (V) = -1
High E (V) = -1
Low E (V) = -1.8
Final E (V) = -1
Init P/N = N
Scan Rate (V/s) = 0.9
Segment = 3
Sample Interval (V) = 0.001
Quiet Time (sec) = 2
Sensitivity (A/V) = 0.01
Comp R (ohm) = 2.3

Results:

Channel 1:
Segment 1:

Segment 2:

Segment 3:

Potential/V, Current/A

-1.000, 2.482e-5
-1.001, 3.407e-5
-1.002, 3.715e-5
-1.003, 3.715e-5
-1.004, 3.715e-5
-1.005, 3.715e-5
-1.006, 3.715e-5
-1.007, 4.024e-5
-1.008, 4.024e-5
-1.009, 4.024e-5
-1.010, 4.024e-5
-1.011, 4.024e-5
-1.012, 4.332e-5
-1.013, 4.332e-5
-1.014, 4.332e-5
-1.015, 4.332e-5
-1.016, 4.332e-5
-1.017, 4.332e-5
-1.018, 4.332e-5
-1.019, 4.332e-5
-1.020, 4.332e-5
-1.021, 4.332e-5
-1.022, 4.332e-5
-1.023, 4.640e-5
-1.024, 4.332e-5
-1.025, 4.332e-5
-1.026, 4.332e-5
-1.027, 4.640e-5
-1.028, 4.640e-5
-1.029, 4.640e-5
-1.030, 4.640e-5
-1.031, 4.640e-5
-1.032, 4.640e-5
-1.033, 4.332e-5
-1.034, 4.640e-5
-1.035, 4.640e-5
-1.036, 4.640e-5
-1.037, 4.640e-5
-1.038, 4.640e-5
-1.039, 4.640e-5
-1.040, 4.640e-5
-1.041, 4.949e-5
-1.042, 4.949e-5
-1.043, 4.640e-5
-1.044, 4.949e-5
-1.045, 4.949e-5
-1.046, 4.949e-5
-1.047, 4.640e-5
-1.048, 4.640e-5
-1.049, 4.640e-5
-1.050, 4.640e-5
-1.051, 4.640e-5
-1.052, 4.640e-5
-1.053, 4.640e-5
-1.054, 4.640e-5
-1.055, 4.640e-5
-1.056, 4.949e-5
-1.057, 4.949e-5
-1.058, 4.949e-5
-1.059, 4.949e-5
-1.060, 4.949e-5
-1.061, 4.949e-5
-1.062, 4.949e-5
-1.063, 4.949e-5
-1.064, 4.949e-5
-1.065, 4.949e-5
-1.066, 4.640e-5
-1.067, 4.949e-5
-1.068, 4.949e-5
-1.069, 4.949e-5
-1.070, 4.949e-5
-1.071, 4.949e-5
-1.072, 5.257e-5
-1.073, 5.257e-5
-1.074, 5.257e-5
-1.075, 5.257e-5
-1.076, 5.257e-5
-1.077, 4.949e-5
-1.078, 4.949e-5
-1.079, 4.949e-5
-1.080, 4.949e-5
-1.081, 4.949e-5
-1.082, 4.949e-5
-1.083, 5.257e-5
-1.084, 5.257e-5
-1.085, 4.949e-5
-1.086, 5.257e-5
-1.087, 5.257e-5
-1.088, 5.257e-5
-1.089, 5.257e-5
-1.090, 5.257e-5
-1.091, 5.257e-5
-1.092, 5.257e-5
-1.093, 4.949e-5
-1.094, 5.257e-5
-1.095, 5.257e-5
-1.096, 4.949e-5
-1.097, 5.257e-5
-1.098, 5.257e-5
-1.099, 5.257e-5
-1.100, 5.257e-5
-1.101, 5.257e-5
-1.102, 5.565e-5
-1.103, 5.565e-5
-1.104, 5.565e-5
-1.105, 5.565e-5
-1.106, 5.257e-5
-1.107, 5.257e-5
-1.108, 5.257e-5
-1.109, 5.257e-5
-1.110, 5.257e-5
-1.111, 5.257e-5
-1.112, 5.257e-5
-1.113, 5.257e-5
-1.114, 5.257e-5
-1.115, 5.257e-5
-1.116, 5.565e-5
-1.117, 5.565e-5
-1.118, 5.565e-5
-1.119, 5.565e-5
-1.120, 5.565e-5
-1.121, 5.565e-5
-1.122, 5.565e-5
-1.123, 5.257e-5
-1.124, 5.565e-5
-1.125, 5.257e-5
-1.126, 5.257e-5
-1.127, 5.565e-5
-1.128, 5.565e-5
-1.129, 5.565e-5
-1.130, 5.565e-5
-1.131, 5.565e-5
-1.132, 5.873e-5
-1.133, 5.565e-5
-1.134, 5.873e-5
-1.135, 5.873e-5
-1.136, 5.565e-5
-1.137, 5.565e-5
-1.138, 5.565e-5
-1.139, 5.565e-5
-1.140, 5.873e-5
-1.141, 5.565e-5
-1.142, 5.565e-5
-1.143, 5.565e-5
-1.144, 5.565e-5
-1.145, 5.565e-5
-1.146, 5.873e-5
-1.147, 5.873e-5
-1.148, 5.873e-5
-1.149, 5.873e-5
-1.150, 5.873e-5
-1.151, 5.873e-5
-1.152, 5.565e-5
-1.153, 5.565e-5
-1.154, 5.565e-5
-1.155, 5.873e-5
-1.156, 5.565e-5
-1.157, 5.565e-5
-1.158, 5.873e-5
-1.159, 5.565e-5
-1.160, 5.565e-5
-1.161, 5.873e-5
-1.162, 5.873e-5
-1.163, 5.873e-5
-1.164, 5.873e-5
-1.165, 6.182e-5
-1.166, 5.873e-5
-1.167, 5.873e-5
-1.168, 5.565e-5
-1.169, 5.873e-5
-1.170, 5.873e-5
-1.171, 5.565e-5
-1.172, 5.873e-5
-1.173, 5.873e-5
-1.174, 5.873e-5
-1.175, 5.873e-5
-1.176, 5.873e-5
-1.177, 5.873e-5
-1.178, 6.182e-5
-1.179, 6.182e-5
-1.180, 6.182e-5
-1.181, 6.182e-5
-1.182, 5.873e-5
-1.183, 5.873e-5
-1.184, 6.182e-5
-1.185, 5.873e-5
-1.186, 5.873e-5
-1.187, 5.873e-5
-1.188, 6.182e-5
-1.189, 5.873e-5
-1.190, 5.873e-5
-1.191, 6.182e-5
-1.192, 6.182e-5
-1.193, 6.182e-5
-1.194, 6.182e-5
-1.195, 6.182e-5
-1.196, 6.182e-5
-1.197, 6.182e-5
-1.198, 6.182e-5
-1.199, 6.182e-5
-1.200, 6.182e-5
-1.201, 5.873e-5
-1.202, 6.182e-5
-1.203, 6.182e-5
-1.204, 6.182e-5
-1.205, 6.182e-5
-1.206, 6.490e-5
-1.207, 6.490e-5
-1.208, 6.490e-5
-1.209, 6.490e-5
-1.210, 6.490e-5
-1.211, 6.182e-5
-1.212, 6.182e-5
-1.213, 6.182e-5
-1.214, 6.490e-5
-1.215, 6.490e-5
-1.216, 6.182e-5
-1.217, 6.182e-5
-1.218, 6.490e-5
-1.219, 6.182e-5
-1.220, 6.490e-5
-1.221, 6.490e-5
-1.222, 6.490e-5
-1.223, 6.490e-5
-1.224, 6.490e-5
-1.225, 6.798e-5
-1.226, 6.798e-5
-1.227, 6.490e-5
-1.228, 6.490e-5
-1.229, 6.798e-5
-1.230, 6.798e-5
-1.231, 6.490e-5
-1.232, 6.490e-5
-1.233, 6.490e-5
-1.234, 6.490e-5
-1.235, 6.798e-5
-1.236, 6.798e-5
-1.237, 6.798e-5
-1.238, 6.798e-5
-1.239, 7.107e-5
-1.240, 6.798e-5
-1.241, 7.107e-5
-1.242, 6.798e-5
-1.243, 6.798e-5
-1.244, 6.798e-5
-1.245, 6.798e-5
-1.246, 6.798e-5
-1.247, 6.798e-5
-1.248, 7.107e-5
-1.249, 7.107e-5
-1.250, 7.107e-5
-1.251, 7.107e-5
-1.252, 7.415e-5
-1.253, 7.415e-5
-1.254, 7.415e-5
-1.255, 7.415e-5
-1.256, 7.415e-5
-1.257, 7.107e-5
-1.258, 7.415e-5
-1.259, 7.415e-5
-1.260, 7.415e-5
-1.261, 7.107e-5
-1.262, 7.415e-5
-1.263, 7.415e-5
-1.264, 7.415e-5
-1.265, 7.415e-5
-1.266, 7.723e-5
-1.267, 7.723e-5
-1.268, 8.032e-5
-1.269, 8.032e-5
-1.270, 7.723e-5
-1.271, 8.032e-5
-1.272, 7.723e-5
-1.273, 7.723e-5
-1.274, 8.032e-5
-1.275, 8.032e-5
-1.276, 8.032e-5
-1.277, 8.032e-5
-1.278, 8.032e-5
-1.279, 8.032e-5
-1.280, 8.340e-5
-1.281, 8.340e-5
-1.282, 8.648e-5
-1.283, 8.340e-5
-1.284, 8.648e-5
-1.285, 8.648e-5
-1.286, 8.957e-5
-1.287, 8.648e-5
-1.288, 8.340e-5
-1.289, 8.648e-5
-1.290, 8.957e-5
-1.291, 8.648e-5
-1.292, 8.957e-5
-1.293, 8.957e-5
-1.294, 8.957e-5
-1.295, 9.265e-5
-1.296, 9.265e-5
-1.297, 9.573e-5
-1.298, 9.573e-5
-1.299, 9.573e-5
-1.300, 9.573e-5
-1.301, 9.573e-5
-1.302, 9.573e-5
-1.303, 9.882e-5
-1.304, 9.882e-5
-1.305, 9.882e-5
-1.306, 9.882e-5
-1.307, 1.019e-4
-1.308, 1.019e-4
-1.309, 1.019e-4
-1.310, 1.019e-4
-1.311, 1.050e-4
-1.312, 1.050e-4
-1.313, 1.081e-4
-1.314, 1.111e-4
-1.315, 1.111e-4
-1.316, 1.111e-4
-1.317, 1.081e-4
-1.318, 1.111e-4
-1.319, 1.142e-4
-1.320, 1.111e-4
-1.321, 1.142e-4
-1.322, 1.142e-4
-1.323, 1.173e-4
-1.324, 1.173e-4
-1.325, 1.204e-4
-1.326, 1.204e-4
-1.327, 1.235e-4
-1.328, 1.235e-4
-1.329, 1.266e-4
-1.330, 1.266e-4
-1.331, 1.266e-4
-1.332, 1.266e-4
-1.333, 1.296e-4
-1.334, 1.327e-4
-1.335, 1.327e-4
-1.336, 1.327e-4
-1.337, 1.358e-4
-1.338, 1.358e-4
-1.339, 1.358e-4
-1.340, 1.420e-4
-1.341, 1.420e-4
-1.342, 1.451e-4
-1.343, 1.481e-4
-1.344, 1.481e-4
-1.345, 1.512e-4
-1.346, 1.512e-4
-1.347, 1.512e-4
-1.348, 1.512e-4
-1.349, 1.543e-4
-1.350, 1.574e-4
-1.351, 1.574e-4
-1.352, 1.605e-4
-1.353, 1.605e-4
-1.354, 1.636e-4
-1.355, 1.666e-4
-1.356, 1.697e-4
-1.357, 1.697e-4
-1.358, 1.728e-4
-1.359, 1.759e-4
-1.360, 1.790e-4
-1.361, 1.790e-4
-1.362, 1.790e-4
-1.363, 1.821e-4
-1.364, 1.851e-4
-1.365, 1.882e-4
-1.366, 1.882e-4
-1.367, 1.944e-4
-1.368, 1.944e-4
-1.369, 1.944e-4
-1.370, 2.006e-4
-1.371, 2.036e-4
-1.372, 2.067e-4
-1.373, 2.098e-4
-1.374, 2.129e-4
-1.375, 2.129e-4
-1.376, 2.160e-4
-1.377, 2.191e-4
-1.378, 2.191e-4
-1.379, 2.221e-4
-1.380, 2.252e-4
-1.381, 2.283e-4
-1.382, 2.314e-4
-1.383, 2.345e-4
-1.384, 2.376e-4
-1.385, 2.406e-4
-1.386, 2.437e-4
-1.387, 2.468e-4
-1.388, 2.530e-4
-1.389, 2.530e-4
-1.390, 2.561e-4
-1.391, 2.622e-4
-1.392, 2.622e-4
-1.393, 2.653e-4
-1.394, 2.715e-4
-1.395, 2.715e-4
-1.396, 2.746e-4
-1.397, 2.807e-4
-1.398, 2.838e-4
-1.399, 2.869e-4
-1.400, 2.900e-4
-1.401, 2.961e-4
-1.402, 2.992e-4
-1.403, 3.023e-4
-1.404, 3.085e-4
-1.405, 3.085e-4
-1.406, 3.146e-4
-1.407, 3.177e-4
-1.408, 3.208e-4
-1.409, 3.239e-4
-1.410, 3.300e-4
-1.411, 3.300e-4
-1.412, 3.362e-4
-1.413, 3.393e-4
-1.414, 3.424e-4
-1.415, 3.485e-4
-1.416, 3.516e-4
-1.417, 3.578e-4
-1.418, 3.640e-4
-1.419, 3.670e-4
-1.420, 3.732e-4
-1.421, 3.763e-4
-1.422, 3.794e-4
-1.423, 3.825e-4
-1.424, 3.886e-4
-1.425, 3.917e-4
-1.426, 3.948e-4
-1.427, 4.010e-4
-1.428, 4.071e-4
-1.429, 4.071e-4
-1.430, 4.133e-4
-1.431, 4.195e-4
-1.432, 4.225e-4
-1.433, 4.287e-4
-1.434, 4.380e-4
-1.435, 4.380e-4
-1.436, 4.441e-4
-1.437, 4.472e-4
-1.438, 4.503e-4
-1.439, 4.565e-4
-1.440, 4.626e-4
-1.441, 4.657e-4
-1.442, 4.719e-4
-1.443, 4.750e-4
-1.444, 4.780e-4
-1.445, 4.842e-4
-1.446, 4.904e-4
-1.447, 4.965e-4
-1.448, 5.027e-4
-1.449, 5.089e-4
-1.450, 5.120e-4
-1.451, 5.181e-4
-1.452, 5.212e-4
-1.453, 5.274e-4
-1.454, 5.305e-4
-1.455, 5.397e-4
-1.456, 5.397e-4
-1.457, 5.489e-4
-1.458, 5.520e-4
-1.459, 5.551e-4
-1.460, 5.613e-4
-1.461, 5.674e-4
-1.462, 5.736e-4
-1.463, 5.798e-4
-1.464, 5.859e-4
-1.465, 5.890e-4
-1.466, 5.952e-4
-1.467, 5.983e-4
-1.468, 6.044e-4
-1.469, 6.075e-4
-1.470, 6.137e-4
-1.471, 6.168e-4
-1.472, 6.229e-4
-1.473, 6.291e-4
-1.474, 6.322e-4
-1.475, 6.384e-4
-1.476, 6.445e-4
-1.477, 6.507e-4
-1.478, 6.569e-4
-1.479, 6.661e-4
-1.480, 6.692e-4
-1.481, 6.723e-4
-1.482, 6.784e-4
-1.483, 6.815e-4
-1.484, 6.908e-4
-1.485, 6.939e-4
-1.486, 6.969e-4
-1.487, 7.062e-4
-1.488, 7.093e-4
-1.489, 7.154e-4
-1.490, 7.185e-4
-1.491, 7.278e-4
-1.492, 7.339e-4
-1.493, 7.370e-4
-1.494, 7.463e-4
-1.495, 7.494e-4
-1.496, 7.555e-4
-1.497, 7.586e-4
-1.498, 7.648e-4
-1.499, 7.709e-4
-1.500, 7.771e-4
-1.501, 7.802e-4
-1.502, 7.863e-4
-1.503, 7.925e-4
-1.504, 7.956e-4
-1.505, 8.018e-4
-1.506, 8.110e-4
-1.507, 8.172e-4
-1.508, 8.233e-4
-1.509, 8.295e-4
-1.510, 8.357e-4
-1.511, 8.418e-4
-1.512, 8.449e-4
-1.513, 8.511e-4
-1.514, 8.573e-4
-1.515, 8.634e-4
-1.516, 8.665e-4
-1.517, 8.727e-4
-1.518, 8.788e-4
-1.519, 8.850e-4
-1.520, 8.881e-4
-1.521, 8.973e-4
-1.522, 9.035e-4
-1.523, 9.097e-4
-1.524, 9.189e-4
-1.525, 9.251e-4
-1.526, 9.313e-4
-1.527, 9.343e-4
-1.528, 9.405e-4
-1.529, 9.467e-4
-1.530, 9.528e-4
-1.531, 9.559e-4
-1.532, 9.652e-4
-1.533, 9.713e-4
-1.534, 9.744e-4
-1.535, 9.837e-4
-1.536, 9.898e-4
-1.537, 9.991e-4
-1.538, 1.002e-3
-1.539, 1.011e-3
-1.540, 1.018e-3
-1.541, 1.024e-3
-1.542, 1.030e-3
-1.543, 1.036e-3
-1.544, 1.042e-3
-1.545, 1.048e-3
-1.546, 1.055e-3
-1.547, 1.061e-3
-1.548, 1.070e-3
-1.549, 1.076e-3
-1.550, 1.082e-3
-1.551, 1.092e-3
-1.552, 1.098e-3
-1.553, 1.107e-3
-1.554, 1.116e-3
-1.555, 1.122e-3
-1.556, 1.129e-3
-1.557, 1.135e-3
-1.558, 1.141e-3
-1.559, 1.150e-3
-1.560, 1.156e-3
-1.561, 1.162e-3
-1.562, 1.172e-3
-1.563, 1.178e-3
-1.564, 1.184e-3
-1.565, 1.193e-3
-1.566, 1.203e-3
-1.567, 1.209e-3
-1.568, 1.218e-3
-1.569, 1.227e-3
-1.570, 1.236e-3
-1.571, 1.243e-3
-1.572, 1.249e-3
-1.573, 1.258e-3
-1.574, 1.267e-3
-1.575, 1.273e-3
-1.576, 1.283e-3
-1.577, 1.292e-3
-1.578, 1.301e-3
-1.579, 1.304e-3
-1.580, 1.317e-3
-1.581, 1.326e-3
-1.582, 1.335e-3
-1.583, 1.347e-3
-1.584, 1.357e-3
-1.585, 1.366e-3
-1.586, 1.375e-3
-1.587, 1.384e-3
-1.588, 1.394e-3
-1.589, 1.403e-3
-1.590, 1.412e-3
-1.591, 1.421e-3
-1.592, 1.434e-3
-1.593, 1.440e-3
-1.594, 1.449e-3
-1.595, 1.462e-3
-1.596, 1.474e-3
-1.597, 1.483e-3
-1.598, 1.495e-3
-1.599, 1.508e-3
-1.600, 1.520e-3
-1.601, 1.532e-3
-1.602, 1.542e-3
-1.603, 1.554e-3
-1.604, 1.563e-3
-1.605, 1.576e-3
-1.606, 1.585e-3
-1.607, 1.600e-3
-1.608, 1.613e-3
-1.609, 1.622e-3
-1.610, 1.637e-3
-1.611, 1.650e-3
-1.612, 1.665e-3
-1.613, 1.677e-3
-1.614, 1.693e-3
-1.615, 1.705e-3
-1.616, 1.721e-3
-1.617, 1.733e-3
-1.618, 1.745e-3
-1.619, 1.761e-3
-1.620, 1.773e-3
-1.621, 1.788e-3
-1.622, 1.804e-3
-1.623, 1.816e-3
-1.624, 1.832e-3
-1.625, 1.847e-3
-1.626, 1.865e-3
-1.627, 1.881e-3
-1.628, 1.899e-3
-1.629, 1.915e-3
-1.630, 1.933e-3
-1.631, 1.952e-3
-1.632, 1.967e-3
-1.633, 1.986e-3
-1.634, 2.001e-3
-1.635, 2.020e-3
-1.636, 2.035e-3
-1.637, 2.054e-3
-1.638, 2.075e-3
-1.639, 2.094e-3
-1.640, 2.112e-3
-1.641, 2.134e-3
-1.642, 2.155e-3
-1.643, 2.177e-3
-1.644, 2.198e-3
-1.645, 2.223e-3
-1.646, 2.242e-3
-1.647, 2.263e-3
-1.648, 2.285e-3
-1.649, 2.309e-3
-1.650, 2.331e-3
-1.651, 2.353e-3
-1.652, 2.377e-3
-1.653, 2.402e-3
-1.654, 2.423e-3
-1.655, 2.448e-3
-1.656, 2.476e-3
-1.657, 2.504e-3
-1.658, 2.528e-3
-1.659, 2.559e-3
-1.660, 2.584e-3
-1.661, 2.612e-3
-1.662, 2.639e-3
-1.663, 2.667e-3
-1.664, 2.695e-3
-1.665, 2.723e-3
-1.666, 2.750e-3
-1.667, 2.781e-3
-1.668, 2.809e-3
-1.669, 2.837e-3
-1.670, 2.871e-3
-1.671, 2.904e-3
-1.672, 2.938e-3
-1.673, 2.972e-3
-1.674, 3.006e-3
-1.675, 3.043e-3
-1.676, 3.077e-3
-1.677, 3.114e-3
-1.678, 3.148e-3
-1.679, 3.185e-3
-1.680, 3.222e-3
-1.681, 3.256e-3
-1.682, 3.296e-3
-1.683, 3.333e-3
-1.684, 3.373e-3
-1.685, 3.413e-3
-1.686, 3.453e-3
-1.687, 3.499e-3
-1.688, 3.540e-3
-1.689, 3.586e-3
-1.690, 3.629e-3
-1.691, 3.675e-3
-1.692, 3.721e-3
-1.693, 3.765e-3
-1.694, 3.811e-3
-1.695, 3.857e-3
-1.696, 3.900e-3
-1.697, 3.950e-3
-1.698, 3.996e-3
-1.699, 4.045e-3
-1.700, 4.095e-3
-1.701, 4.150e-3
-1.702, 4.202e-3
-1.703, 4.255e-3
-1.704, 4.310e-3
-1.705, 4.366e-3
-1.706, 4.418e-3
-1.707, 4.474e-3
-1.708, 4.529e-3
-1.709, 4.588e-3
-1.710, 4.643e-3
-1.711, 4.699e-3
-1.712, 4.754e-3
-1.713, 4.816e-3
-1.714, 4.871e-3
-1.715, 4.933e-3
-1.716, 4.998e-3
-1.717, 5.063e-3
-1.718, 5.127e-3
-1.719, 5.192e-3
-1.720, 5.257e-3
-1.721, 5.328e-3
-1.722, 5.393e-3
-1.723, 5.460e-3
-1.724, 5.525e-3
-1.725, 5.593e-3
-1.726, 5.661e-3
-1.727, 5.729e-3
-1.728, 5.796e-3
-1.729, 5.864e-3
-1.730, 5.935e-3
-1.731, 6.009e-3
-1.732, 6.083e-3
-1.733, 6.157e-3
-1.734, 6.234e-3
-1.735, 6.311e-3
-1.736, 6.388e-3
-1.737, 6.465e-3
-1.738, 6.539e-3
-1.739, 6.617e-3
-1.740, 6.691e-3
-1.741, 6.768e-3
-1.742, 6.848e-3
-1.743, 6.925e-3
-1.744, 7.002e-3
-1.745, 7.085e-3
-1.746, 7.171e-3
-1.747, 7.258e-3
-1.748, 7.344e-3
-1.749, 7.430e-3
-1.750, 7.517e-3
-1.751, 7.600e-3
-1.752, 7.689e-3
-1.753, 7.776e-3
-1.754, 7.862e-3
-1.755, 7.955e-3
-1.756, 8.041e-3
-1.757, 8.130e-3
-1.758, 8.220e-3
-1.759, 8.309e-3
-1.760, 8.405e-3
-1.761, 8.500e-3
-1.762, 8.599e-3
-1.763, 8.698e-3
-1.764, 8.799e-3
-1.765, 8.898e-3
-1.766, 9.000e-3
-1.767, 9.098e-3
-1.768, 9.200e-3
-1.769, 9.302e-3
-1.770, 9.401e-3
-1.771, 9.499e-3
-1.772, 9.601e-3
-1.773, 9.703e-3
-1.774, 9.804e-3
-1.775, 9.909e-3
-1.776, 1.001e-2
-1.777, 1.012e-2
-1.778, 1.023e-2
-1.779, 1.034e-2
-1.780, 1.045e-2
-1.781, 1.056e-2
-1.782, 1.067e-2
-1.783, 1.078e-2
-1.784, 1.089e-2
-1.785, 1.100e-2
-1.786, 1.111e-2
-1.787, 1.122e-2
-1.788, 1.133e-2
-1.789, 1.144e-2
-1.790, 1.155e-2
-1.791, 1.167e-2
-1.792, 1.179e-2
-1.793, 1.191e-2
-1.794, 1.203e-2
-1.795, 1.215e-2
-1.796, 1.227e-2
-1.797, 1.239e-2
-1.798, 1.251e-2
-1.799, 1.263e-2
-1.800, 1.268e-2
-1.799, 1.261e-2
-1.798, 1.254e-2
-1.797, 1.247e-2
-1.796, 1.239e-2
-1.795, 1.231e-2
-1.794, 1.224e-2
-1.793, 1.216e-2
-1.792, 1.207e-2
-1.791, 1.199e-2
-1.790, 1.191e-2
-1.789, 1.183e-2
-1.788, 1.174e-2
-1.787, 1.165e-2
-1.786, 1.157e-2
-1.785, 1.148e-2
-1.784, 1.139e-2
-1.783, 1.129e-2
-1.782, 1.120e-2
-1.781, 1.111e-2
-1.780, 1.103e-2
-1.779, 1.094e-2
-1.778, 1.086e-2
-1.777, 1.077e-2
-1.776, 1.069e-2
-1.775, 1.060e-2
-1.774, 1.052e-2
-1.773, 1.043e-2
-1.772, 1.035e-2
-1.771, 1.026e-2
-1.770, 1.017e-2
-1.769, 1.008e-2
-1.768, 9.996e-3
-1.767, 9.906e-3
-1.766, 9.817e-3
-1.765, 9.730e-3
-1.764, 9.647e-3
-1.763, 9.564e-3
-1.762, 9.481e-3
-1.761, 9.401e-3
-1.760, 9.320e-3
-1.759, 9.237e-3
-1.758, 9.154e-3
-1.757, 9.074e-3
-1.756, 8.987e-3
-1.755, 8.904e-3
-1.754, 8.818e-3
-1.753, 8.735e-3
-1.752, 8.651e-3
-1.751, 8.568e-3
-1.750, 8.485e-3
-1.749, 8.408e-3
-1.748, 8.328e-3
-1.747, 8.251e-3
-1.746, 8.177e-3
-1.745, 8.096e-3
-1.744, 8.019e-3
-1.743, 7.942e-3
-1.742, 7.865e-3
-1.741, 7.785e-3
-1.740, 7.705e-3
-1.739, 7.628e-3
-1.738, 7.548e-3
-1.737, 7.474e-3
-1.736, 7.397e-3
-1.735, 7.323e-3
-1.734, 7.249e-3
-1.733, 7.175e-3
-1.732, 7.101e-3
-1.731, 7.030e-3
-1.730, 6.956e-3
-1.729, 6.885e-3
-1.728, 6.811e-3
-1.727, 6.737e-3
-1.726, 6.660e-3
-1.725, 6.586e-3
-1.724, 6.512e-3
-1.723, 6.438e-3
-1.722, 6.364e-3
-1.721, 6.287e-3
-1.720, 6.216e-3
-1.719, 6.145e-3
-1.718, 6.077e-3
-1.717, 6.006e-3
-1.716, 5.941e-3
-1.715, 5.870e-3
-1.714, 5.803e-3
-1.713, 5.735e-3
-1.712, 5.667e-3
-1.711, 5.599e-3
-1.710, 5.528e-3
-1.709, 5.463e-3
-1.708, 5.396e-3
-1.707, 5.331e-3
-1.706, 5.263e-3
-1.705, 5.201e-3
-1.704, 5.140e-3
-1.703, 5.078e-3
-1.702, 5.019e-3
-1.701, 4.961e-3
-1.700, 4.899e-3
-1.699, 4.841e-3
-1.698, 4.782e-3
-1.697, 4.720e-3
-1.696, 4.662e-3
-1.695, 4.600e-3
-1.694, 4.542e-3
-1.693, 4.483e-3
-1.692, 4.424e-3
-1.691, 4.366e-3
-1.690, 4.313e-3
-1.689, 4.258e-3
-1.688, 4.206e-3
-1.687, 4.153e-3
-1.686, 4.101e-3
-1.685, 4.048e-3
-1.684, 3.999e-3
-1.683, 3.947e-3
-1.682, 3.894e-3
-1.681, 3.842e-3
-1.680, 3.789e-3
-1.679, 3.740e-3
-1.678, 3.691e-3
-1.677, 3.641e-3
-1.676, 3.592e-3
-1.675, 3.543e-3
-1.674, 3.496e-3
-1.673, 3.450e-3
-1.672, 3.407e-3
-1.671, 3.361e-3
-1.670, 3.318e-3
-1.669, 3.271e-3
-1.668, 3.228e-3
-1.667, 3.185e-3
-1.666, 3.142e-3
-1.665, 3.096e-3
-1.664, 3.052e-3
-1.663, 3.009e-3
-1.662, 2.966e-3
-1.661, 2.926e-3
-1.660, 2.883e-3
-1.659, 2.846e-3
-1.658, 2.809e-3
-1.657, 2.772e-3
-1.656, 2.735e-3
-1.655, 2.698e-3
-1.654, 2.658e-3
-1.653, 2.621e-3
-1.652, 2.584e-3
-1.651, 2.547e-3
-1.650, 2.510e-3
-1.649, 2.473e-3
-1.648, 2.439e-3
-1.647, 2.402e-3
-1.646, 2.365e-3
-1.645, 2.334e-3
-1.644, 2.300e-3
-1.643, 2.269e-3
-1.642, 2.238e-3
-1.641, 2.205e-3
-1.640, 2.174e-3
-1.639, 2.143e-3
-1.638, 2.109e-3
-1.637, 2.081e-3
-1.636, 2.050e-3
-1.635, 2.020e-3
-1.634, 1.989e-3
-1.633, 1.961e-3
-1.632, 1.933e-3
-1.631, 1.902e-3
-1.630, 1.875e-3
-1.629, 1.850e-3
-1.628, 1.822e-3
-1.627, 1.798e-3
-1.626, 1.773e-3
-1.625, 1.745e-3
-1.624, 1.724e-3
-1.623, 1.696e-3
-1.622, 1.671e-3
-1.621, 1.647e-3
-1.620, 1.622e-3
-1.619, 1.597e-3
-1.618, 1.573e-3
-1.617, 1.548e-3
-1.616, 1.526e-3
-1.615, 1.505e-3
-1.614, 1.483e-3
-1.613, 1.465e-3
-1.612, 1.443e-3
-1.611, 1.425e-3
-1.610, 1.403e-3
-1.609, 1.381e-3
-1.608, 1.363e-3
-1.607, 1.341e-3
-1.606, 1.323e-3
-1.605, 1.304e-3
-1.604, 1.283e-3
-1.603, 1.264e-3
-1.602, 1.246e-3
-1.601, 1.227e-3
-1.600, 1.212e-3
-1.599, 1.196e-3
-1.598, 1.181e-3
-1.597, 1.166e-3
-1.596, 1.150e-3
-1.595, 1.132e-3
-1.594, 1.116e-3
-1.593, 1.101e-3
-1.592, 1.085e-3
-1.591, 1.070e-3
-1.590, 1.051e-3
-1.589, 1.036e-3
-1.588, 1.024e-3
-1.587, 1.008e-3
-1.586, 9.929e-4
-1.585, 9.806e-4
-1.584, 9.683e-4
-1.583, 9.559e-4
-1.582, 9.405e-4
-1.581, 9.313e-4
-1.580, 9.189e-4
-1.579, 9.035e-4
-1.578, 8.912e-4
-1.577, 8.788e-4
-1.576, 8.665e-4
-1.575, 8.542e-4
-1.574, 8.418e-4
-1.573, 8.295e-4
-1.572, 8.172e-4
-1.571, 8.048e-4
-1.570, 7.956e-4
-1.569, 7.894e-4
-1.568, 7.771e-4
-1.567, 7.679e-4
-1.566, 7.586e-4
-1.565, 7.463e-4
-1.564, 7.370e-4
-1.563, 7.247e-4
-1.562, 7.154e-4
-1.561, 7.062e-4
-1.560, 6.969e-4
-1.559, 6.877e-4
-1.558, 6.784e-4
-1.557, 6.692e-4
-1.556, 6.599e-4
-1.555, 6.507e-4
-1.554, 6.445e-4
-1.553, 6.353e-4
-1.552, 6.291e-4
-1.551, 6.199e-4
-1.550, 6.137e-4
-1.549, 6.044e-4
-1.548, 5.952e-4
-1.547, 5.890e-4
-1.546, 5.829e-4
-1.545, 5.736e-4
-1.544, 5.644e-4
-1.543, 5.613e-4
-1.542, 5.520e-4
-1.541, 5.428e-4
-1.540, 5.366e-4
-1.539, 5.335e-4
-1.538, 5.274e-4
-1.537, 5.212e-4
-1.536, 5.150e-4
-1.535, 5.089e-4
-1.534, 4.996e-4
-1.533, 4.935e-4
-1.532, 4.873e-4
-1.531, 4.811e-4
-1.530, 4.750e-4
-1.529, 4.688e-4
-1.528, 4.626e-4
-1.527, 4.565e-4
-1.526, 4.503e-4
-1.525, 4.472e-4
-1.524, 4.410e-4
-1.523, 4.380e-4
-1.522, 4.318e-4
-1.521, 4.287e-4
-1.520, 4.225e-4
-1.519, 4.164e-4
-1.518, 4.102e-4
-1.517, 4.071e-4
-1.516, 4.010e-4
-1.515, 3.948e-4
-1.514, 3.917e-4
-1.513, 3.886e-4
-1.512, 3.825e-4
-1.511, 3.763e-4
-1.510, 3.732e-4
-1.509, 3.701e-4
-1.508, 3.670e-4
-1.507, 3.609e-4
-1.506, 3.578e-4
-1.505, 3.547e-4
-1.504, 3.485e-4
-1.503, 3.424e-4
-1.502, 3.393e-4
-1.501, 3.362e-4
-1.500, 3.300e-4
-1.499, 3.239e-4
-1.498, 3.239e-4
-1.497, 3.177e-4
-1.496, 3.146e-4
-1.495, 3.115e-4
-1.494, 3.085e-4
-1.493, 3.054e-4
-1.492, 2.992e-4
-1.491, 2.992e-4
-1.490, 2.931e-4
-1.489, 2.900e-4
-1.488, 2.869e-4
-1.487, 2.838e-4
-1.486, 2.807e-4
-1.485, 2.746e-4
-1.484, 2.715e-4
-1.483, 2.684e-4
-1.482, 2.653e-4
-1.481, 2.622e-4
-1.480, 2.591e-4
-1.479, 2.591e-4
-1.478, 2.530e-4
-1.477, 2.530e-4
-1.476, 2.499e-4
-1.475, 2.468e-4
-1.474, 2.437e-4
-1.473, 2.376e-4
-1.472, 2.345e-4
-1.471, 2.314e-4
-1.470, 2.283e-4
-1.469, 2.252e-4
-1.468, 2.252e-4
-1.467, 2.191e-4
-1.466, 2.160e-4
-1.465, 2.129e-4
-1.464, 2.129e-4
-1.463, 2.098e-4
-1.462, 2.067e-4
-1.461, 2.067e-4
-1.460, 2.006e-4
-1.459, 2.006e-4
-1.458, 1.975e-4
-1.457, 1.944e-4
-1.456, 1.913e-4
-1.455, 1.882e-4
-1.454, 1.851e-4
-1.453, 1.821e-4
-1.452, 1.790e-4
-1.451, 1.759e-4
-1.450, 1.759e-4
-1.449, 1.728e-4
-1.448, 1.697e-4
-1.447, 1.697e-4
-1.446, 1.666e-4
-1.445, 1.636e-4
-1.444, 1.605e-4
-1.443, 1.574e-4
-1.442, 1.543e-4
-1.441, 1.512e-4
-1.440, 1.512e-4
-1.439, 1.451e-4
-1.438, 1.451e-4
-1.437, 1.420e-4
-1.436, 1.389e-4
-1.435, 1.358e-4
-1.434, 1.358e-4
-1.433, 1.327e-4
-1.432, 1.327e-4
-1.431, 1.296e-4
-1.430, 1.266e-4
-1.429, 1.266e-4
-1.428, 1.204e-4
-1.427, 1.204e-4
-1.426, 1.173e-4
-1.425, 1.142e-4
-1.424, 1.111e-4
-1.423, 1.111e-4
-1.422, 1.081e-4
-1.421, 1.050e-4
-1.420, 1.019e-4
-1.419, 1.019e-4
-1.418, 1.019e-4
-1.417, 9.882e-5
-1.416, 9.882e-5
-1.415, 9.573e-5
-1.414, 9.265e-5
-1.413, 8.957e-5
-1.412, 8.648e-5
-1.411, 8.648e-5
-1.410, 8.340e-5
-1.409, 8.032e-5
-1.408, 8.032e-5
-1.407, 7.723e-5
-1.406, 7.415e-5
-1.405, 7.415e-5
-1.404, 7.415e-5
-1.403, 7.107e-5
-1.402, 6.798e-5
-1.401, 6.798e-5
-1.400, 6.490e-5
-1.399, 6.182e-5
-1.398, 5.873e-5
-1.397, 5.873e-5
-1.396, 5.565e-5
-1.395, 5.257e-5
-1.394, 5.257e-5
-1.393, 4.949e-5
-1.392, 4.949e-5
-1.391, 4.332e-5
-1.390, 4.332e-5
-1.389, 4.640e-5
-1.388, 4.332e-5
-1.387, 4.332e-5
-1.386, 4.024e-5
-1.385, 3.715e-5
-1.384, 3.407e-5
-1.383, 3.407e-5
-1.382, 3.099e-5
-1.381, 2.790e-5
-1.380, 2.790e-5
-1.379, 2.482e-5
-1.378, 2.482e-5
-1.377, 2.174e-5
-1.376, 1.865e-5
-1.375, 2.174e-5
-1.374, 1.865e-5
-1.373, 1.865e-5
-1.372, 1.557e-5
-1.371, 1.557e-5
-1.370, 1.249e-5
-1.369, 1.249e-5
-1.368, 9.405e-6
-1.367, 6.322e-6
-1.366, 6.322e-6
-1.365, 6.322e-6
-1.364, 3.239e-6
-1.363, 1.559e-7
-1.362, 1.559e-7
-1.361, -2.927e-6
-1.360, -2.927e-6
-1.359, -2.927e-6
-1.358, -2.927e-6
-1.357, -2.927e-6
-1.356, -6.010e-6
-1.355, -9.093e-6
-1.354, -9.093e-6
-1.353, -1.218e-5
-1.352, -1.218e-5
-1.351, -1.218e-5
-1.350, -1.526e-5
-1.349, -1.834e-5
-1.348, -1.834e-5
-1.347, -1.834e-5
-1.346, -2.143e-5
-1.345, -2.143e-5
-1.344, -2.143e-5
-1.343, -2.143e-5
-1.342, -2.451e-5
-1.341, -2.143e-5
-1.340, -2.759e-5
-1.339, -2.451e-5
-1.338, -2.759e-5
-1.337, -3.068e-5
-1.336, -3.068e-5
-1.335, -3.068e-5
-1.334, -3.376e-5
-1.333, -3.376e-5
-1.332, -3.376e-5
-1.331, -3.684e-5
-1.330, -3.684e-5
-1.329, -3.684e-5
-1.328, -3.684e-5
-1.327, -3.684e-5
-1.326, -3.684e-5
-1.325, -3.992e-5
-1.324, -3.992e-5
-1.323, -4.301e-5
-1.322, -4.301e-5
-1.321, -4.301e-5
-1.320, -4.609e-5
-1.319, -4.609e-5
-1.318, -4.609e-5
-1.317, -4.917e-5
-1.316, -4.917e-5
-1.315, -4.917e-5
-1.314, -4.609e-5
-1.313, -4.917e-5
-1.312, -4.917e-5
-1.311, -4.917e-5
-1.310, -5.226e-5
-1.309, -5.226e-5
-1.308, -5.534e-5
-1.307, -5.226e-5
-1.306, -5.226e-5
-1.305, -5.534e-5
-1.304, -5.842e-5
-1.303, -5.534e-5
-1.302, -5.842e-5
-1.301, -5.842e-5
-1.300, -5.842e-5
-1.299, -5.842e-5
-1.298, -5.842e-5
-1.297, -5.842e-5
-1.296, -5.842e-5
-1.295, -5.842e-5
-1.294, -6.151e-5
-1.293, -6.151e-5
-1.292, -6.459e-5
-1.291, -6.151e-5
-1.290, -6.459e-5
-1.289, -6.459e-5
-1.288, -6.459e-5
-1.287, -6.459e-5
-1.286, -6.767e-5
-1.285, -6.459e-5
-1.284, -6.459e-5
-1.283, -6.459e-5
-1.282, -6.459e-5
-1.281, -6.459e-5
-1.280, -6.767e-5
-1.279, -6.767e-5
-1.278, -6.767e-5
-1.277, -6.767e-5
-1.276, -7.076e-5
-1.275, -7.076e-5
-1.274, -7.076e-5
-1.273, -7.076e-5
-1.272, -7.076e-5
-1.271, -7.076e-5
-1.270, -7.076e-5
-1.269, -7.076e-5
-1.268, -7.076e-5
-1.267, -7.076e-5
-1.266, -7.076e-5
-1.265, -7.076e-5
-1.264, -7.384e-5
-1.263, -7.384e-5
-1.262, -7.384e-5
-1.261, -7.384e-5
-1.260, -7.692e-5
-1.259, -7.692e-5
-1.258, -7.384e-5
-1.257, -7.384e-5
-1.256, -7.692e-5
-1.255, -7.384e-5
-1.254, -7.384e-5
-1.253, -7.384e-5
-1.252, -7.384e-5
-1.251, -7.384e-5
-1.250, -7.384e-5
-1.249, -7.384e-5
-1.248, -7.692e-5
-1.247, -7.692e-5
-1.246, -7.692e-5
-1.245, -7.692e-5
-1.244, -8.000e-5
-1.243, -7.692e-5
-1.242, -7.692e-5
-1.241, -8.000e-5
-1.240, -7.692e-5
-1.239, -7.692e-5
-1.238, -7.692e-5
-1.237, -7.692e-5
-1.236, -7.692e-5
-1.235, -7.692e-5
-1.234, -7.692e-5
-1.233, -8.000e-5
-1.232, -8.000e-5
-1.231, -8.000e-5
-1.230, -8.000e-5
-1.229, -8.000e-5
-1.228, -8.000e-5
-1.227, -8.000e-5
-1.226, -8.309e-5
-1.225, -8.000e-5
-1.224, -8.000e-5
-1.223, -8.000e-5
-1.222, -8.000e-5
-1.221, -7.692e-5
-1.220, -8.000e-5
-1.219, -8.000e-5
-1.218, -8.000e-5
-1.217, -8.000e-5
-1.216, -8.000e-5
-1.215, -8.000e-5
-1.214, -8.309e-5
-1.213, -8.000e-5
-1.212, -8.309e-5
-1.211, -8.309e-5
-1.210, -8.309e-5
-1.209, -8.309e-5
-1.208, -8.000e-5
-1.207, -8.000e-5
-1.206, -8.000e-5
-1.205, -8.000e-5
-1.204, -8.000e-5
-1.203, -8.309e-5
-1.202, -8.309e-5
-1.201, -8.309e-5
-1.200, -8.309e-5
-1.199, -8.309e-5
-1.198, -8.309e-5
-1.197, -8.309e-5
-1.196, -8.309e-5
-1.195, -8.309e-5
-1.194, -8.309e-5
-1.193, -8.309e-5
-1.192, -8.309e-5
-1.191, -8.000e-5
-1.190, -8.309e-5
-1.189, -8.000e-5
-1.188, -8.309e-5
-1.187, -8.309e-5
-1.186, -8.309e-5
-1.185, -8.309e-5
-1.184, -8.617e-5
-1.183, -8.309e-5
-1.182, -8.309e-5
-1.181, -8.617e-5
-1.180, -8.309e-5
-1.179, -8.309e-5
-1.178, -8.309e-5
-1.177, -8.309e-5
-1.176, -8.000e-5
-1.175, -8.309e-5
-1.174, -8.309e-5
-1.173, -8.617e-5
-1.172, -8.617e-5
-1.171, -8.309e-5
-1.170, -8.617e-5
-1.169, -8.617e-5
-1.168, -8.309e-5
-1.167, -8.309e-5
-1.166, -8.617e-5
-1.165, -8.309e-5
-1.164, -8.309e-5
-1.163, -8.309e-5
-1.162, -8.309e-5
-1.161, -8.309e-5
-1.160, -8.309e-5
-1.159, -8.309e-5
-1.158, -8.617e-5
-1.157, -8.617e-5
-1.156, -8.617e-5
-1.155, -8.617e-5
-1.154, -8.617e-5
-1.153, -8.617e-5
-1.152, -8.617e-5
-1.151, -8.617e-5
-1.150, -8.617e-5
-1.149, -8.617e-5
-1.148, -8.617e-5
-1.147, -8.617e-5
-1.146, -8.309e-5
-1.145, -8.617e-5
-1.144, -8.617e-5
-1.143, -8.617e-5
-1.142, -8.617e-5
-1.141, -8.617e-5
-1.140, -8.925e-5
-1.139, -8.925e-5
-1.138, -8.925e-5
-1.137, -8.925e-5
-1.136, -8.925e-5
-1.135, -8.617e-5
-1.134, -8.617e-5
-1.133, -8.617e-5
-1.132, -8.617e-5
-1.131, -8.617e-5
-1.130, -8.617e-5
-1.129, -8.617e-5
-1.128, -8.925e-5
-1.127, -8.925e-5
-1.126, -8.925e-5
-1.125, -8.925e-5
-1.124, -9.234e-5
-1.123, -8.925e-5
-1.122, -8.925e-5
-1.121, -8.925e-5
-1.120, -8.925e-5
-1.119, -8.617e-5
-1.118, -8.925e-5
-1.117, -8.925e-5
-1.116, -8.925e-5
-1.115, -8.925e-5
-1.114, -8.925e-5
-1.113, -9.234e-5
-1.112, -8.925e-5
-1.111, -9.234e-5
-1.110, -9.234e-5
-1.109, -9.234e-5
-1.108, -9.234e-5
-1.107, -9.234e-5
-1.106, -9.234e-5
-1.105, -9.234e-5
-1.104, -9.234e-5
-1.103, -9.234e-5
-1.102, -8.925e-5
-1.101, -8.925e-5
-1.100, -9.234e-5
-1.099, -9.234e-5
-1.098, -9.234e-5
-1.097, -9.542e-5
-1.096, -9.234e-5
-1.095, -9.542e-5
-1.094, -9.542e-5
-1.093, -9.542e-5
-1.092, -9.542e-5
-1.091, -9.542e-5
-1.090, -9.542e-5
-1.089, -9.234e-5
-1.088, -9.234e-5
-1.087, -9.542e-5
-1.086, -9.234e-5
-1.085, -9.542e-5
-1.084, -9.542e-5
-1.083, -9.542e-5
-1.082, -9.542e-5
-1.081, -9.542e-5
-1.080, -9.850e-5
-1.079, -9.850e-5
-1.078, -9.850e-5
-1.077, -9.850e-5
-1.076, -1.016e-4
-1.075, -9.850e-5
-1.074, -9.542e-5
-1.073, -9.542e-5
-1.072, -9.542e-5
-1.071, -9.542e-5
-1.070, -9.850e-5
-1.069, -9.850e-5
-1.068, -9.850e-5
-1.067, -9.850e-5
-1.066, -9.850e-5
-1.065, -1.016e-4
-1.064, -1.016e-4
-1.063, -1.016e-4
-1.062, -1.016e-4
-1.061, -1.016e-4
-1.060, -1.016e-4
-1.059, -1.016e-4
-1.058, -9.850e-5
-1.057, -1.016e-4
-1.056, -9.850e-5
-1.055, -1.016e-4
-1.054, -1.016e-4
-1.053, -1.047e-4
-1.052, -1.047e-4
-1.051, -1.047e-4
-1.050, -1.047e-4
-1.049, -1.047e-4
-1.048, -1.047e-4
-1.047, -1.047e-4
-1.046, -1.078e-4
-1.045, -1.047e-4
-1.044, -1.047e-4
-1.043, -1.047e-4
-1.042, -1.047e-4
-1.041, -1.047e-4
-1.040, -1.047e-4
-1.039, -1.047e-4
-1.038, -1.078e-4
-1.037, -1.078e-4
-1.036, -1.078e-4
-1.035, -1.078e-4
-1.034, -1.078e-4
-1.033, -1.078e-4
-1.032, -1.108e-4
-1.031, -1.108e-4
-1.030, -1.108e-4
-1.029, -1.078e-4
-1.028, -1.078e-4
-1.027, -1.078e-4
-1.026, -1.078e-4
-1.025, -1.108e-4
-1.024, -1.108e-4
-1.023, -1.139e-4
-1.022, -1.139e-4
-1.021, -1.139e-4
-1.020, -1.139e-4
-1.019, -1.170e-4
-1.018, -1.139e-4
-1.017, -1.170e-4
-1.016, -1.170e-4
-1.015, -1.139e-4
-1.014, -1.139e-4
-1.013, -1.139e-4
-1.012, -1.170e-4
-1.011, -1.139e-4
-1.010, -1.170e-4
-1.009, -1.170e-4
-1.008, -1.170e-4
-1.007, -1.170e-4
-1.006, -1.170e-4
-1.005, -1.201e-4
-1.004, -1.201e-4
-1.003, -1.201e-4
-1.002, -1.232e-4
-1.001, -1.232e-4
