Potential V vs RHE, Current mA cm-2
0.013299999999999867,1.219056727093702
0.012299999999999978,0.12863969849672777
0.011299999999999866,-0.7872868383748929
0.010299999999999976,-1.5717442541500557
0.009299999999999864,-2.2706116362833835
0.008299999999999974,-2.8379108675292635
0.007299999999999862,-3.361354048479327
0.006299999999999972,-3.7970851288377587
0.00529999999999986,-4.1889601589003735
0.0042999999999999705,-4.538393849967037
0.0032999999999998586,-4.887827541033701
0.0022999999999999687,-5.235846520800501
0.0012999999999998568,-5.5414241615713475
0.00029999999999996696,-5.890857852638012
-0.000700000000000145,-6.196435493408861
-0.0017000000000000348,-6.54445447317566
-0.0027000000000001467,-6.850032113946507
-0.0037000000000000366,-7.111753704421539
-0.0047000000000001485,-7.37347529489657
-0.005700000000000038,-7.591340835075788
-0.00670000000000015,-7.7653503249591855
-0.00770000000000004,-7.984630576438266
-0.008700000000000152,-8.158640066321666
-0.009700000000000042,-8.332649556205066
-0.010700000000000154,-8.55051509638428
-0.011700000000000044,-8.725939297567548
-0.012700000000000156,-8.943804837746763
-0.013700000000000045,-9.205526428221793
-0.014700000000000157,-9.423391968401008
-0.015700000000000047,-9.641257508580225
-0.01670000000000016,-9.902979099055257
-0.01770000000000005,-10.078403300238522
-0.01870000000000016,-10.25241279012192
-0.01970000000000005,-10.382566229709504
-0.020700000000000163,-10.557990430892769
-0.021700000000000053,-10.688143870480351
-0.022700000000000164,-10.775855971071984
-0.023700000000000054,-10.993721511251199
-0.024700000000000166,-11.123874950838783
-0.025700000000000056,-11.343155202317865
-0.026700000000000168,-11.56102074249708
-0.027700000000000058,-11.73503023238048
-0.02870000000000017,-11.952895772559694
-0.02970000000000006,-12.214617363034726
-0.03070000000000017,-12.390041564217992
-0.03170000000000006,-12.56405105410139
-0.03270000000000017,-12.73806054398479
-0.03370000000000006,-12.869628694872238
-0.034700000000000175,-13.043638184755638
-0.035700000000000065,-13.175206335643086
-0.03670000000000018,-13.349215825526485
-0.03770000000000007,-13.523225315409885
-0.03870000000000018,-13.698649516593148
-0.03970000000000007,-13.916515056772363
-0.04070000000000018,-14.13438059695158
-0.04170000000000007,-14.345172580631472
-0.04270000000000018,-14.61396772760583
-0.04370000000000007,-14.783733083589633
-0.044700000000000184,-15.01008689156804
-0.045700000000000074,-15.179852247551842
-0.046700000000000186,-15.349617603535648
-0.047700000000000076,-15.448647394526201
-0.04870000000000019,-15.660854089505953
-0.04970000000000008,-15.74573676749786
-0.05070000000000019,-15.972090575476265
-0.05170000000000008,-16.141855931460068
-0.05270000000000019,-16.354062626439823
-0.05370000000000008,-16.622857773414182
-0.05470000000000019,-16.877505807389888
-0.05570000000000008,-17.103859615368293
-0.056700000000000195,-17.316066310348052
-0.057700000000000085,-17.542420118326454
-0.058700000000000196,-17.75462681330621
-0.059700000000000086,-17.924392169290012
-0.0607000000000002,-18.10830463827247
-0.06170000000000009,-18.27806999425627
-0.0627000000000002,-18.40539401124413
-0.06370000000000009,-18.589306480226583
-0.0647000000000002,-18.759071836210385
-0.06570000000000009,-18.97127853119014
-0.0667000000000002,-19.197632339168546
-0.0677000000000001,-19.452280373144255
-0.0687000000000002,-19.678634181122664
-0.0697000000000001,-19.93328221509837
-0.07070000000000021,-20.202077362072725
-0.0717000000000001,-20.414284057052477
-0.07270000000000021,-20.584049413036283
-0.0737000000000001,-20.72552054302279
-0.07470000000000021,-20.89528589900659
-0.0757000000000001,-21.065051254990397
-0.07670000000000021,-21.2065223849769
-0.0777000000000001,-21.376287740960702
-0.07870000000000021,-21.58849443594046
-0.0797000000000001,-21.857289582914817
-0.08070000000000022,-22.111937616890522
-0.0817000000000001,-22.33829142486893
-0.08270000000000022,-22.592939458844636
-0.08370000000000011,-22.861734605818995
-0.08470000000000022,-23.073941300798747
-0.08570000000000011,-23.24370665678255
-0.08670000000000022,-23.427619125765005
-0.08770000000000011,-23.597384481748815
-0.08870000000000022,-23.724708498736668
-0.08970000000000011,-23.86617962872317
-0.09070000000000022,-24.035944984706973
-0.09170000000000011,-24.16326900169483
-0.09270000000000023,-24.432064148669184
-0.09370000000000012,-24.64427084364894
-0.09470000000000023,-24.9130659906233
-0.09570000000000012,-25.12527268560305
-0.09670000000000023,-25.39406783257741
-0.09770000000000012,-25.60627452755716
-0.09870000000000023,-25.77603988354097
-0.09970000000000012,-25.959952352523427
-0.10070000000000023,-26.129717708507226
-0.10170000000000012,-26.29948306449103
-0.10270000000000024,-26.440954194477534
-0.10370000000000013,-26.568278211465387
-0.10470000000000024,-26.738043567449193
-0.10570000000000013,-26.9643973754276
-0.10670000000000024,-27.176604070407354
-0.10770000000000013,-27.34636942639116
-0.10870000000000024,-27.615164573365515
-0.10970000000000013,-27.869812607341224
-0.11070000000000024,-28.05372507632368
-0.11170000000000013,-28.22349043230748
-0.11270000000000002,-28.435697127287238
-0.11370000000000013,-28.577168257273744
-0.11470000000000002,-28.746933613257543
-0.11570000000000014,-28.8742576302454
-0.11670000000000003,-29.001581647233255
-0.11770000000000014,-29.18549411621571
-0.11870000000000003,-29.35525947219951
-0.11970000000000014,-29.525024828183312
-0.12070000000000003,-29.708937297165768
-0.12170000000000014,-29.96358533114148
-0.12270000000000003,-30.189939139119886
-0.12370000000000014,-30.359704495103685
-0.12470000000000003,-30.529469851087494
-0.12570000000000014,-30.7558236590659
-0.12670000000000003,-30.88314767605375
-0.12770000000000015,-31.010471693041605
-0.12870000000000004,-31.19438416202406
-0.12970000000000015,-31.321708179011907
-0.13070000000000004,-31.449032195999767
-0.13170000000000015,-31.618797551983565
-0.13270000000000004,-31.802710020966025
-0.13370000000000015,-32.01491671594578
-0.13470000000000004,-32.24127052392419
-0.13570000000000015,-32.45347721890394
-0.13670000000000004,-32.66568391388369
-0.13770000000000016,-32.892037721862096
-0.13870000000000005,-33.06180307784591
-0.13970000000000016,-33.18912709483376
-0.14070000000000005,-33.330598224820264
-0.14170000000000016,-33.45792224180811
-0.14270000000000005,-33.54280491980002
-0.14370000000000016,-33.712570275783825
-0.14470000000000005,-33.85404140577033
-0.14570000000000016,-34.02380676175414
-0.14670000000000005,-34.236013456733886
-0.14770000000000016,-34.462367264712285
-0.14870000000000005,-34.632132620696105
-0.14970000000000017,-34.90092776767045
-0.15070000000000006,-35.07069312365426
-0.15170000000000017,-35.282899818634014
-0.15270000000000006,-35.42437094862052
-0.15370000000000017,-35.594136304604326
-0.15470000000000006,-35.763901660588125
-0.15570000000000017,-35.90537279057463
-0.15670000000000006,-35.99025546856653
-0.15770000000000017,-36.16002082455034
-0.15870000000000006,-36.329786180534136
-0.15970000000000018,-36.5136986495166
-0.16070000000000007,-36.725905344496354
-0.16170000000000018,-36.95225915247476
-0.16270000000000007,-37.164465847454515
-0.16370000000000018,-37.376672542434264
-0.16470000000000007,-37.56058501141672
-0.16570000000000018,-37.73035036740053
-0.16670000000000007,-37.85767438438838
-0.16770000000000018,-37.99914551437489
-0.16870000000000007,-38.16891087035869
-0.16970000000000018,-38.253793548350586
-0.17070000000000007,-38.42355890433439
-0.17170000000000019,-38.607471373316855
-0.17270000000000008,-38.81967806829661
-0.1737000000000002,-39.046031876275016
-0.17470000000000008,-39.258238571254765
-0.1757000000000002,-39.47044526623452
-0.17670000000000008,-39.696799074212926
-0.1777000000000002,-39.90900576919269
-0.17870000000000008,-40.092918238175145
-0.1797000000000002,-40.26268359415894
-0.18070000000000008,-40.43244895014274
-0.1817000000000002,-40.559772967130606
-0.18270000000000008,-40.701244097117105
-0.1837000000000002,-40.87100945310091
-0.1847000000000001,-41.04077480908471
-0.1857000000000002,-41.22468727806717
-0.1867000000000001,-41.39445263405098
-0.1877000000000002,-41.66324778102533
-0.1887000000000001,-41.83301313700913
-0.1897000000000002,-42.087661170984845
-0.1907000000000001,-42.2715736399673
-0.1917000000000001,-42.483780334947056
-0.19269999999999998,-42.653545690930855
-0.1937000000000001,-42.837458159913304
-0.19469999999999998,-43.007223515897124
-0.1957000000000001,-43.17698887188092
-0.19669999999999999,-43.36090134086337
-0.1977000000000001,-43.57310803584313
-0.1987,-43.79946184382153
-0.1997000000000001,-44.011668538801295
-0.2007,-44.28046368577565
-0.2017000000000001,-44.535111719751356
-0.2027,-44.84634820572166
-0.2037000000000001,-45.05855490070142
-0.2047,-45.27076159568118
-0.2057000000000001,-45.497115403659585
-0.2067,-45.666880759643384
-0.2077000000000001,-45.85079322862584
-0.2087,-46.02055858460964
-0.2097000000000001,-46.147882601597495
-0.2107,-46.37423640957591
-0.2117000000000001,-46.501560426563756
-0.2127,-46.713767121543505
-0.2137000000000001,-46.982562268517874
-0.2147,-47.23721030249357
-0.2157000000000001,-47.54844678846388
-0.2167,-47.80309482243959
-0.21770000000000012,-48.114331308409895
-0.2187,-48.36897934238561
-0.21970000000000012,-48.59533315036401
-0.2207,-48.80753984534376
-0.22170000000000012,-49.076334992318124
-0.2227,-49.28854168729788
-0.22370000000000012,-49.50074838227763
-0.2247,-49.72710219025603
-0.22570000000000012,-49.98175022423175
-0.2267,-50.2505453712061
-0.22770000000000012,-50.50519340518181
-0.22870000000000001,-50.77398855215617
-0.22970000000000013,-51.071077925127824
-0.23070000000000002,-51.29743173310623
-0.23170000000000013,-51.594521106077885
-0.23270000000000002,-51.77843357506035
-0.23370000000000013,-51.948198931044146
-0.23470000000000002,-52.17455273902255
-0.23570000000000013,-52.34431809500636
-0.23670000000000002,-52.55652478998611
-0.2376999999999999,-52.82531993696047
-0.23870000000000002,-53.079967970936174
-0.2396999999999999,-53.39120445690648
-0.24070000000000003,-53.68829382987814
-0.24169999999999991,-54.0419716548444
-0.24270000000000003,-54.39564947981066
-0.24369999999999992,-54.73518019177827
-0.24470000000000003,-55.046416677748574
-0.24569999999999992,-55.31521182472294
-0.24670000000000003,-55.612301197694585
-0.24769999999999992,-55.838655005673
-0.24870000000000003,-56.05086170065276
-0.24969999999999992,-56.26306839563251
-0.25070000000000003,-56.489422203610914
-0.2516999999999999,-56.74407023758662
-0.25270000000000004,-57.05530672355693
-0.2536999999999999,-57.352396096528594
-0.25470000000000004,-57.70607392149485
-0.2556999999999999,-58.017310407465146
-0.25670000000000004,-58.35684111943277
-0.25769999999999993,-58.71051894439902
-0.25870000000000004,-59.02175543036933
-0.25969999999999993,-59.31884480334099
-0.26070000000000004,-59.6300812893113
-0.26169999999999993,-59.884729323287
-0.26270000000000004,-60.11108313126541
-0.26369999999999993,-60.40817250423707
-0.26470000000000005,-60.71940899020737
-0.26569999999999994,-60.974057024183075
-0.26670000000000005,-61.327734849149344
-0.26769999999999994,-61.6814126741156
-0.26870000000000005,-61.97850204708726
-0.26969999999999994,-62.37462121104946
-0.27070000000000005,-62.68585769701977
-0.27169999999999994,-63.02538840898739
-0.27270000000000005,-63.3366248949577
-0.27369999999999994,-63.6761556069253
-0.27470000000000006,-63.98739209289561
-0.27569999999999995,-64.29862857886593
-0.27670000000000006,-64.55327661284163
-0.27769999999999995,-64.86451309881193
-0.27870000000000006,-65.11916113278764
-0.27969999999999995,-65.43039761875795
-0.28070000000000006,-65.76992833072556
-0.28169999999999995,-66.08116481669586
-0.28270000000000006,-66.43484264166212
-0.28369999999999995,-66.77437335362974
-0.28470000000000006,-67.08560983960004
-0.28569999999999995,-67.43928766456631
-0.28670000000000007,-67.73637703753796
-0.28769999999999996,-68.04761352350828
-0.28870000000000007,-68.34470289647993
-0.28969999999999996,-68.65593938245023
-0.29070000000000007,-69.0096172074165
-0.29169999999999996,-69.3491479193841
-0.29270000000000007,-69.70282574435035
-0.29369999999999996,-70.09894490831257
-0.2947000000000001,-70.43847562028017
-0.29569999999999996,-70.79215344524643
-0.2967000000000001,-71.18827260920865
-0.29769999999999996,-71.52780332117625
-0.2987000000000001,-71.8814811461425
-0.29969999999999997,-72.19271763211282
-0.3007000000000001,-72.48980700508447
-0.30169999999999997,-72.80104349105478
-0.3027000000000001,-73.15472131602105
-0.30369999999999997,-73.49425202798865
-0.3047000000000001,-73.8479298529549
-0.30569999999999997,-74.20160767792116
-0.3067000000000001,-74.58357972888473
-0.3077,-74.93725755385098
-0.3087000000000001,-75.33337671781321
-0.3097,-75.6729074297808
-0.3107000000000001,-75.98414391575112
-0.3117,-76.29538040172143
-0.3127000000000001,-76.55002843569714
-0.3137,-76.86126492166746
-0.3147000000000001,-77.11591295564315
-0.3157,-77.46959078060941
-0.3167000000000001,-77.76668015358106
-0.3177,-78.16279931754329
-0.3187000000000001,-78.60135982050144
-0.3197,-78.99747898446365
-0.3207000000000001,-79.42189237442317
-0.3217,-79.86045287738132
-0.3227000000000001,-80.25657204134353
-0.3237,-80.65269120530574
-0.3247000000000001,-80.99222191727335
-0.3257,-81.30345840324367
-0.3267000000000001,-81.57225355021802
-0.3277,-81.82690158419373
-0.3287000000000001,-82.09569673116808
-0.3297,-82.30790342614785
-0.3307000000000001,-82.56255146012353
-0.3317,-82.87378794609386
-0.3327000000000001,-83.18502443206415
-0.3337,-83.48211380503581
-0.3347000000000001,-83.83579163000208
-0.3357,-84.18946945496833
-0.3367000000000001,-84.52900016693594
-0.3377,-84.8826779919022
-0.3387000000000001,-85.23635581686847
-0.3397,-85.53344518984011
-0.3407000000000001,-85.80224033681448
-0.3417,-86.05688837079018
-0.3427000000000001,-86.28324217876859
-0.3437,-86.58033155174023
-0.3447000000000001,-86.84912669871461
-0.3457,-87.10377473269031
-0.3467000000000001,-87.41501121866061
-0.3477,-87.75454193062824
-0.3487000000000001,-88.06577841659853
-0.3497,-88.4194562415648
-0.3507000000000001,-88.63166293654454
-0.3517,-88.9004580835189
-0.3527000000000001,-89.15510611749461
-0.3537,-89.32487147347842
-0.3547000000000001,-89.50878394246087
-0.3557,-89.72099063744062
-0.35670000000000013,-89.94734444541903
-0.3577,-90.15955114039879
-0.35870000000000013,-90.37175783537855
-0.3597,-90.6405529823529
-0.36070000000000013,-90.89520101632861
-0.3617,-91.20643750229891
-0.3626999999999999,-91.46108553627462
-0.3637,-91.72988068324898
-0.3646999999999999,-91.98452871722468
-0.3657,-92.2108825252031
-0.3666999999999999,-92.33820654219093
-0.3677,-92.50797189817473
-0.3686999999999999,-92.64944302816124
-0.36970000000000003,-92.6918843671572
-0.3706999999999999,-92.81920838414506
-0.37170000000000003,-92.90409106213696
-0.3726999999999999,-93.03141507912481
-0.37370000000000003,-93.17288620911131
-0.3746999999999999,-93.30021022609918
-0.37570000000000003,-93.42753424308701
-0.3766999999999999,-93.65388805106544
-0.37770000000000004,-93.86609474604518
-0.3786999999999999,-94.03586010202899
-0.37970000000000004,-94.17733123201549
-0.3806999999999999,-94.30465524900335
-0.38170000000000004,-94.4319792659912
-0.38269999999999993,-94.55930328297906
-0.38370000000000004,-94.70077441296557
-0.38469999999999993,-94.7432157519615
-0.38570000000000004,-94.87053976894937
-0.38669999999999993,-94.95542244694126
-0.38770000000000004,-94.99786378593721
-0.38869999999999993,-95.08274646392913
-0.38970000000000005,-95.12518780292505
-0.39069999999999994,-95.08274646392913
-0.39170000000000005,-95.08274646392913
-0.39269999999999994,-94.99786378593721
-0.39370000000000005,-94.95542244694126
-0.39469999999999994,-94.91298110794531
-0.39570000000000005,-94.91298110794531
-0.39669999999999994,-94.91298110794531
-0.39770000000000005,-95.04030512493317
-0.39869999999999994,-95.12518780292505
-0.39970000000000006,-95.26665893291157
-0.40069999999999995,-95.35154161090348
-0.40170000000000006,-95.43642428889537
-0.40269999999999995,-95.56374830588322
-0.40370000000000006,-95.60618964487918
-0.40469999999999995,-95.60618964487918
-0.40570000000000006,-95.52130696688728
-0.40669999999999995,-95.47886562789132
-0.40770000000000006,-95.39398294989942
-0.40869999999999995,-95.26665893291157
-0.40970000000000006,-95.08274646392913
-0.41069999999999995,-94.99786378593721
-0.41170000000000007,-94.91298110794531
-0.41269999999999996,-94.8280984299534
-0.41370000000000007,-94.78565709095746
-0.41469999999999996,-94.7432157519615
-0.41570000000000007,-94.70077441296557
-0.41669999999999996,-94.6583330739696
-0.41770000000000007,-94.55930328297906
-0.41869999999999996,-94.47442060498715
-0.4197000000000001,-94.38953792699526
-0.42069999999999996,-94.21977257101145
-0.4217000000000001,-94.07830144102493
-0.42269999999999996,-93.95097742403709
-0.4237000000000001,-93.86609474604518
-0.42469999999999997,-93.78121206805329
-0.4257000000000001,-93.73877072905732
-0.42669999999999997,-93.73877072905732
-0.4277000000000001,-93.78121206805329
-0.42869999999999997,-93.78121206805329
-0.4297000000000001,-93.82365340704924
-0.43069999999999997,-93.82365340704924
-0.4317000000000001,-93.82365340704924
-0.4327,-93.78121206805329
-0.4337000000000001,-93.73877072905732
-0.4347,-93.65388805106544
-0.4357000000000001,-93.51241692107894
-0.4367,-93.38509290409107
-0.4377000000000001,-93.30021022609918
-0.4387,-93.13044487011537
-0.4397000000000001,-93.03141507912481
-0.4407,-92.98897374012887
-0.4417000000000001,-92.90409106213696
-0.4427,-92.90409106213696
-0.4437000000000001,-92.90409106213696
-0.4447,-92.94653240113291
-0.4457000000000001,-92.94653240113291
-0.4467,-92.98897374012887
-0.4477000000000001,-92.98897374012887
-0.4487,-93.08800353111941
-0.4497000000000001,-93.08800353111941
-0.4507,-93.13044487011537
-0.4517000000000001,-93.17288620911131
-0.4527,-93.25776888710321
-0.4537000000000001,-93.34265156509512
-0.4547,-93.42753424308701
-0.4557000000000001,-93.51241692107894
-0.4567,-93.65388805106544
-0.4577000000000001,-93.69632939006138
-0.4587,-93.73877072905732
-0.4597000000000001,-93.82365340704924
-0.4607,-93.82365340704924
-0.4617000000000001,-93.86609474604518
-0.4627,-93.90853608504113
-0.4637000000000001,-94.03586010202899
-0.4647,-94.17733123201549
-0.4657000000000001,-94.38953792699526
-0.4667,-94.601744621975
-0.4677000000000001,-94.8280984299534
-0.4687,-95.04030512493317
-0.4697000000000001,-95.30910027190752
-0.4707,-95.47886562789132
-0.4717000000000001,-95.74766077486568
-0.4727,-95.91742613084948
-0.4737000000000001,-96.04475014783733
-0.4747,-96.21451550382113
-0.4757000000000001,-96.3984279728036
-0.4767,-96.5681933287874
-0.4777000000000001,-96.79454713676581
-0.4787,-97.00675383174556
-0.4797000000000001,-97.21896052672531
-0.4807,-97.53019701269562
-0.48170000000000013,-97.84143349866595
-0.4827,-98.18096421063355
-0.48370000000000013,-98.49220069660386
-0.4847,-98.74684873057957
-0.48570000000000013,-98.97320253855796
-0.4867,-98.18096421063355
-0.48570000000000013,-95.87498479185354
-0.4847,-93.86609474604518
-0.48370000000000013,-91.98452871722468
-0.4827,-90.28687515738663
-0.48170000000000013,-88.6741042755405
-0.4807,-87.14621607168625
-0.4797000000000001,-85.75979899781852
-0.4787,-84.40167614994809
-0.4777000000000001,-83.14258309306821
-0.4767,-81.91178426218562
-0.4757000000000001,-80.65269120530574
-0.4747,-79.42189237442317
-0.4737000000000001,-78.16279931754329
-0.4727,-76.94614759965934
-0.4717000000000001,-75.6729074297808
-0.4707,-74.45625571189689
-0.4697000000000001,-73.32448667200485
-0.4687,-72.19271763211282
-0.4677000000000001,-71.06094859222078
-0.4667,-69.95747377832606
-0.4657000000000001,-68.91058741642594
-0.4647,-67.9202895065204
-0.4637000000000001,-66.91584448361623
-0.4627,-65.91139946071206
-0.4617000000000001,-64.94939577680383
-0.4607,-63.902509414903705
