July 11, 2024   19:23:55
Cyclic Voltammetry
File: c:/users/guazh/data/20240709_batch67/2024-07-10-exp14\exp14-2024-07-11t19_16_49-arkoh\exp14_cv_sr_400mvs_efin_-1400mv.bin
Data Source:  Experiment
Instrument Model:  CHI760E
Header: CV ran at 400 mVs
Note: 

Init E (V) = -1
High E (V) = -1
Low E (V) = -1.4
Final E (V) = -1
Init P/N = N
Scan Rate (V/s) = 0.4
Segment = 3
Sample Interval (V) = 0.001
Quiet Time (sec) = 2
Sensitivity (A/V) = 0.01
Comp R (ohm) = 1.4

Results:

Channel 1:
Segment 1:

Segment 2:

Segment 3:

Potential/V, Current/A

-1.000, -3.684e-5
-1.001, 9.882e-5
-1.002, 2.098e-4
-1.003, 2.869e-4
-1.004, 3.547e-4
-1.005, 4.195e-4
-1.006, 4.996e-4
-1.007, 5.798e-4
-1.008, 6.476e-4
-1.009, 6.969e-4
-1.010, 7.339e-4
-1.011, 7.617e-4
-1.012, 7.987e-4
-1.013, 8.511e-4
-1.014, 9.035e-4
-1.015, 9.436e-4
-1.016, 9.652e-4
-1.017, 9.775e-4
-1.018, 9.898e-4
-1.019, 1.018e-3
-1.020, 1.051e-3
-1.021, 1.088e-3
-1.022, 1.113e-3
-1.023, 1.116e-3
-1.024, 1.116e-3
-1.025, 1.122e-3
-1.026, 1.144e-3
-1.027, 1.175e-3
-1.028, 1.196e-3
-1.029, 1.206e-3
-1.030, 1.203e-3
-1.031, 1.196e-3
-1.032, 1.199e-3
-1.033, 1.221e-3
-1.034, 1.243e-3
-1.035, 1.258e-3
-1.036, 1.258e-3
-1.037, 1.246e-3
-1.038, 1.240e-3
-1.039, 1.249e-3
-1.040, 1.264e-3
-1.041, 1.286e-3
-1.042, 1.295e-3
-1.043, 1.283e-3
-1.044, 1.267e-3
-1.045, 1.261e-3
-1.046, 1.273e-3
-1.047, 1.292e-3
-1.048, 1.304e-3
-1.049, 1.304e-3
-1.050, 1.295e-3
-1.051, 1.277e-3
-1.052, 1.273e-3
-1.053, 1.289e-3
-1.054, 1.307e-3
-1.055, 1.317e-3
-1.056, 1.307e-3
-1.057, 1.292e-3
-1.058, 1.280e-3
-1.059, 1.283e-3
-1.060, 1.298e-3
-1.061, 1.314e-3
-1.062, 1.320e-3
-1.063, 1.304e-3
-1.064, 1.289e-3
-1.065, 1.280e-3
-1.066, 1.286e-3
-1.067, 1.304e-3
-1.068, 1.317e-3
-1.069, 1.314e-3
-1.070, 1.298e-3
-1.071, 1.280e-3
-1.072, 1.277e-3
-1.073, 1.292e-3
-1.074, 1.307e-3
-1.075, 1.317e-3
-1.076, 1.310e-3
-1.077, 1.292e-3
-1.078, 1.280e-3
-1.079, 1.283e-3
-1.080, 1.295e-3
-1.081, 1.310e-3
-1.082, 1.314e-3
-1.083, 1.301e-3
-1.084, 1.283e-3
-1.085, 1.273e-3
-1.086, 1.283e-3
-1.087, 1.301e-3
-1.088, 1.310e-3
-1.089, 1.307e-3
-1.090, 1.295e-3
-1.091, 1.277e-3
-1.092, 1.273e-3
-1.093, 1.289e-3
-1.094, 1.304e-3
-1.095, 1.314e-3
-1.096, 1.304e-3
-1.097, 1.289e-3
-1.098, 1.277e-3
-1.099, 1.280e-3
-1.100, 1.292e-3
-1.101, 1.310e-3
-1.102, 1.314e-3
-1.103, 1.301e-3
-1.104, 1.286e-3
-1.105, 1.277e-3
-1.106, 1.286e-3
-1.107, 1.304e-3
-1.108, 1.317e-3
-1.109, 1.314e-3
-1.110, 1.301e-3
-1.111, 1.283e-3
-1.112, 1.283e-3
-1.113, 1.298e-3
-1.114, 1.317e-3
-1.115, 1.326e-3
-1.116, 1.317e-3
-1.117, 1.301e-3
-1.118, 1.292e-3
-1.119, 1.295e-3
-1.120, 1.307e-3
-1.121, 1.329e-3
-1.122, 1.332e-3
-1.123, 1.320e-3
-1.124, 1.304e-3
-1.125, 1.295e-3
-1.126, 1.310e-3
-1.127, 1.326e-3
-1.128, 1.341e-3
-1.129, 1.338e-3
-1.130, 1.329e-3
-1.131, 1.310e-3
-1.132, 1.310e-3
-1.133, 1.326e-3
-1.134, 1.347e-3
-1.135, 1.357e-3
-1.136, 1.351e-3
-1.137, 1.335e-3
-1.138, 1.326e-3
-1.139, 1.332e-3
-1.140, 1.347e-3
-1.141, 1.366e-3
-1.142, 1.372e-3
-1.143, 1.363e-3
-1.144, 1.347e-3
-1.145, 1.341e-3
-1.146, 1.354e-3
-1.147, 1.372e-3
-1.148, 1.388e-3
-1.149, 1.384e-3
-1.150, 1.375e-3
-1.151, 1.363e-3
-1.152, 1.363e-3
-1.153, 1.378e-3
-1.154, 1.400e-3
-1.155, 1.409e-3
-1.156, 1.403e-3
-1.157, 1.391e-3
-1.158, 1.384e-3
-1.159, 1.391e-3
-1.160, 1.406e-3
-1.161, 1.428e-3
-1.162, 1.434e-3
-1.163, 1.425e-3
-1.164, 1.412e-3
-1.165, 1.406e-3
-1.166, 1.418e-3
-1.167, 1.440e-3
-1.168, 1.455e-3
-1.169, 1.455e-3
-1.170, 1.446e-3
-1.171, 1.434e-3
-1.172, 1.434e-3
-1.173, 1.452e-3
-1.174, 1.477e-3
-1.175, 1.486e-3
-1.176, 1.483e-3
-1.177, 1.471e-3
-1.178, 1.465e-3
-1.179, 1.474e-3
-1.180, 1.492e-3
-1.181, 1.514e-3
-1.182, 1.523e-3
-1.183, 1.514e-3
-1.184, 1.502e-3
-1.185, 1.499e-3
-1.186, 1.511e-3
-1.187, 1.532e-3
-1.188, 1.551e-3
-1.189, 1.551e-3
-1.190, 1.545e-3
-1.191, 1.536e-3
-1.192, 1.536e-3
-1.193, 1.557e-3
-1.194, 1.582e-3
-1.195, 1.594e-3
-1.196, 1.591e-3
-1.197, 1.582e-3
-1.198, 1.576e-3
-1.199, 1.585e-3
-1.200, 1.606e-3
-1.201, 1.631e-3
-1.202, 1.640e-3
-1.203, 1.634e-3
-1.204, 1.622e-3
-1.205, 1.622e-3
-1.206, 1.640e-3
-1.207, 1.665e-3
-1.208, 1.680e-3
-1.209, 1.687e-3
-1.210, 1.684e-3
-1.211, 1.671e-3
-1.212, 1.677e-3
-1.213, 1.699e-3
-1.214, 1.724e-3
-1.215, 1.739e-3
-1.216, 1.742e-3
-1.217, 1.733e-3
-1.218, 1.730e-3
-1.219, 1.742e-3
-1.220, 1.764e-3
-1.221, 1.791e-3
-1.222, 1.804e-3
-1.223, 1.801e-3
-1.224, 1.791e-3
-1.225, 1.795e-3
-1.226, 1.813e-3
-1.227, 1.841e-3
-1.228, 1.862e-3
-1.229, 1.875e-3
-1.230, 1.872e-3
-1.231, 1.865e-3
-1.232, 1.872e-3
-1.233, 1.896e-3
-1.234, 1.927e-3
-1.235, 1.946e-3
-1.236, 1.952e-3
-1.237, 1.946e-3
-1.238, 1.946e-3
-1.239, 1.961e-3
-1.240, 1.989e-3
-1.241, 2.020e-3
-1.242, 2.035e-3
-1.243, 2.038e-3
-1.244, 2.035e-3
-1.245, 2.038e-3
-1.246, 2.063e-3
-1.247, 2.094e-3
-1.248, 2.121e-3
-1.249, 2.134e-3
-1.250, 2.134e-3
-1.251, 2.134e-3
-1.252, 2.146e-3
-1.253, 2.177e-3
-1.254, 2.214e-3
-1.255, 2.238e-3
-1.256, 2.245e-3
-1.257, 2.248e-3
-1.258, 2.254e-3
-1.259, 2.275e-3
-1.260, 2.309e-3
-1.261, 2.343e-3
-1.262, 2.368e-3
-1.263, 2.374e-3
-1.264, 2.374e-3
-1.265, 2.390e-3
-1.266, 2.417e-3
-1.267, 2.457e-3
-1.268, 2.488e-3
-1.269, 2.510e-3
-1.270, 2.519e-3
-1.271, 2.525e-3
-1.272, 2.544e-3
-1.273, 2.584e-3
-1.274, 2.624e-3
-1.275, 2.655e-3
-1.276, 2.673e-3
-1.277, 2.682e-3
-1.278, 2.698e-3
-1.279, 2.726e-3
-1.280, 2.769e-3
-1.281, 2.812e-3
-1.282, 2.846e-3
-1.283, 2.858e-3
-1.284, 2.871e-3
-1.285, 2.892e-3
-1.286, 2.932e-3
-1.287, 2.978e-3
-1.288, 3.022e-3
-1.289, 3.052e-3
-1.290, 3.068e-3
-1.291, 3.086e-3
-1.292, 3.117e-3
-1.293, 3.167e-3
-1.294, 3.219e-3
-1.295, 3.262e-3
-1.296, 3.293e-3
-1.297, 3.314e-3
-1.298, 3.339e-3
-1.299, 3.382e-3
-1.300, 3.435e-3
-1.301, 3.493e-3
-1.302, 3.536e-3
-1.303, 3.567e-3
-1.304, 3.592e-3
-1.305, 3.629e-3
-1.306, 3.681e-3
-1.307, 3.746e-3
-1.308, 3.805e-3
-1.309, 3.851e-3
-1.310, 3.885e-3
-1.311, 3.919e-3
-1.312, 3.968e-3
-1.313, 4.036e-3
-1.314, 4.104e-3
-1.315, 4.169e-3
-1.316, 4.218e-3
-1.317, 4.261e-3
-1.318, 4.310e-3
-1.319, 4.372e-3
-1.320, 4.446e-3
-1.321, 4.526e-3
-1.322, 4.597e-3
-1.323, 4.649e-3
-1.324, 4.702e-3
-1.325, 4.764e-3
-1.326, 4.847e-3
-1.327, 4.939e-3
-1.328, 5.023e-3
-1.329, 5.100e-3
-1.330, 5.167e-3
-1.331, 5.232e-3
-1.332, 5.315e-3
-1.333, 5.414e-3
-1.334, 5.519e-3
-1.335, 5.621e-3
-1.336, 5.704e-3
-1.337, 5.784e-3
-1.338, 5.870e-3
-1.339, 5.969e-3
-1.340, 6.089e-3
-1.341, 6.206e-3
-1.342, 6.317e-3
-1.343, 6.416e-3
-1.344, 6.512e-3
-1.345, 6.617e-3
-1.346, 6.740e-3
-1.347, 6.872e-3
-1.348, 7.002e-3
-1.349, 7.122e-3
-1.350, 7.233e-3
-1.351, 7.341e-3
-1.352, 7.461e-3
-1.353, 7.603e-3
-1.354, 7.745e-3
-1.355, 7.884e-3
-1.356, 8.010e-3
-1.357, 8.124e-3
-1.358, 8.247e-3
-1.359, 8.383e-3
-1.360, 8.531e-3
-1.361, 8.682e-3
-1.362, 8.821e-3
-1.363, 8.944e-3
-1.364, 9.068e-3
-1.365, 9.194e-3
-1.366, 9.339e-3
-1.367, 9.490e-3
-1.368, 9.641e-3
-1.369, 9.780e-3
-1.370, 9.903e-3
-1.371, 1.003e-2
-1.372, 1.016e-2
-1.373, 1.031e-2
-1.374, 1.046e-2
-1.375, 1.061e-2
-1.376, 1.074e-2
-1.377, 1.087e-2
-1.378, 1.099e-2
-1.379, 1.113e-2
-1.380, 1.128e-2
-1.381, 1.143e-2
-1.382, 1.157e-2
-1.383, 1.170e-2
-1.384, 1.181e-2
-1.385, 1.194e-2
-1.386, 1.208e-2
-1.387, 1.223e-2
-1.388, 1.238e-2
-1.389, 1.251e-2
-1.390, 1.263e-2
-1.391, 1.275e-2
-1.392, 1.288e-2
-1.393, 1.302e-2
-1.394, 1.317e-2
-1.395, 1.331e-2
-1.396, 1.343e-2
-1.397, 1.355e-2
-1.398, 1.367e-2
-1.399, 1.380e-2
-1.400, 1.385e-2
-1.399, 1.375e-2
-1.398, 1.366e-2
-1.397, 1.356e-2
-1.396, 1.345e-2
-1.395, 1.335e-2
-1.394, 1.327e-2
-1.393, 1.320e-2
-1.392, 1.312e-2
-1.391, 1.304e-2
-1.390, 1.293e-2
-1.389, 1.283e-2
-1.388, 1.273e-2
-1.387, 1.266e-2
-1.386, 1.258e-2
-1.385, 1.250e-2
-1.384, 1.240e-2
-1.383, 1.229e-2
-1.382, 1.218e-2
-1.381, 1.209e-2
-1.380, 1.201e-2
-1.379, 1.193e-2
-1.378, 1.184e-2
-1.377, 1.173e-2
-1.376, 1.163e-2
-1.375, 1.152e-2
-1.374, 1.143e-2
-1.373, 1.136e-2
-1.372, 1.127e-2
-1.371, 1.117e-2
-1.370, 1.107e-2
-1.369, 1.095e-2
-1.368, 1.086e-2
-1.367, 1.077e-2
-1.366, 1.069e-2
-1.365, 1.062e-2
-1.364, 1.051e-2
-1.363, 1.040e-2
-1.362, 1.029e-2
-1.361, 1.020e-2
-1.360, 1.013e-2
-1.359, 1.005e-2
-1.358, 9.971e-3
-1.357, 9.860e-3
-1.356, 9.746e-3
-1.355, 9.641e-3
-1.354, 9.555e-3
-1.353, 9.475e-3
-1.352, 9.391e-3
-1.351, 9.296e-3
-1.350, 9.191e-3
-1.349, 9.086e-3
-1.348, 8.987e-3
-1.347, 8.910e-3
-1.346, 8.833e-3
-1.345, 8.747e-3
-1.344, 8.651e-3
-1.343, 8.543e-3
-1.342, 8.442e-3
-1.341, 8.355e-3
-1.340, 8.278e-3
-1.339, 8.210e-3
-1.338, 8.124e-3
-1.337, 8.025e-3
-1.336, 7.918e-3
-1.335, 7.819e-3
-1.334, 7.733e-3
-1.333, 7.656e-3
-1.332, 7.575e-3
-1.331, 7.486e-3
-1.330, 7.387e-3
-1.329, 7.286e-3
-1.328, 7.196e-3
-1.327, 7.122e-3
-1.326, 7.045e-3
-1.325, 6.962e-3
-1.324, 6.863e-3
-1.323, 6.764e-3
-1.322, 6.672e-3
-1.321, 6.589e-3
-1.320, 6.518e-3
-1.319, 6.450e-3
-1.318, 6.367e-3
-1.317, 6.274e-3
-1.316, 6.179e-3
-1.315, 6.089e-3
-1.314, 6.009e-3
-1.313, 5.944e-3
-1.312, 5.873e-3
-1.311, 5.787e-3
-1.310, 5.695e-3
-1.309, 5.596e-3
-1.308, 5.513e-3
-1.307, 5.445e-3
-1.306, 5.383e-3
-1.305, 5.312e-3
-1.304, 5.226e-3
-1.303, 5.130e-3
-1.302, 5.044e-3
-1.301, 4.967e-3
-1.300, 4.905e-3
-1.299, 4.847e-3
-1.298, 4.773e-3
-1.297, 4.683e-3
-1.296, 4.594e-3
-1.295, 4.514e-3
-1.294, 4.449e-3
-1.293, 4.391e-3
-1.292, 4.326e-3
-1.291, 4.252e-3
-1.290, 4.165e-3
-1.289, 4.076e-3
-1.288, 4.002e-3
-1.287, 3.943e-3
-1.286, 3.888e-3
-1.285, 3.826e-3
-1.284, 3.749e-3
-1.283, 3.666e-3
-1.282, 3.586e-3
-1.281, 3.518e-3
-1.280, 3.466e-3
-1.279, 3.413e-3
-1.278, 3.351e-3
-1.277, 3.274e-3
-1.276, 3.191e-3
-1.275, 3.120e-3
-1.274, 3.062e-3
-1.273, 3.015e-3
-1.272, 2.963e-3
-1.271, 2.901e-3
-1.270, 2.827e-3
-1.269, 2.747e-3
-1.268, 2.682e-3
-1.267, 2.639e-3
-1.266, 2.593e-3
-1.265, 2.538e-3
-1.264, 2.473e-3
-1.263, 2.396e-3
-1.262, 2.328e-3
-1.261, 2.269e-3
-1.260, 2.229e-3
-1.259, 2.189e-3
-1.258, 2.137e-3
-1.257, 2.069e-3
-1.256, 1.998e-3
-1.255, 1.936e-3
-1.254, 1.890e-3
-1.253, 1.853e-3
-1.252, 1.816e-3
-1.251, 1.764e-3
-1.250, 1.696e-3
-1.249, 1.628e-3
-1.248, 1.573e-3
-1.247, 1.536e-3
-1.246, 1.502e-3
-1.245, 1.462e-3
-1.244, 1.406e-3
-1.243, 1.344e-3
-1.242, 1.286e-3
-1.241, 1.243e-3
-1.240, 1.212e-3
-1.239, 1.181e-3
-1.238, 1.141e-3
-1.237, 1.085e-3
-1.236, 1.024e-3
-1.235, 9.744e-4
-1.234, 9.405e-4
-1.233, 9.158e-4
-1.232, 8.850e-4
-1.231, 8.418e-4
-1.230, 7.863e-4
-1.229, 7.278e-4
-1.228, 6.846e-4
-1.227, 6.599e-4
-1.226, 6.384e-4
-1.225, 6.106e-4
-1.224, 5.644e-4
-1.223, 5.150e-4
-1.222, 4.657e-4
-1.221, 4.318e-4
-1.220, 4.133e-4
-1.219, 3.948e-4
-1.218, 3.670e-4
-1.217, 3.177e-4
-1.216, 2.715e-4
-1.215, 2.283e-4
-1.214, 2.036e-4
-1.213, 1.913e-4
-1.212, 1.728e-4
-1.211, 1.389e-4
-1.210, 9.573e-5
-1.209, 5.257e-5
-1.208, 1.865e-5
-1.207, 3.239e-6
-1.206, -9.093e-6
-1.205, -2.759e-5
-1.204, -6.151e-5
-1.203, -1.047e-4
-1.202, -1.417e-4
-1.201, -1.663e-4
-1.200, -1.756e-4
-1.199, -1.848e-4
-1.198, -2.064e-4
-1.197, -2.434e-4
-1.196, -2.835e-4
-1.195, -3.143e-4
-1.194, -3.297e-4
-1.193, -3.359e-4
-1.192, -3.421e-4
-1.191, -3.667e-4
-1.190, -4.006e-4
-1.189, -4.376e-4
-1.188, -4.623e-4
-1.187, -4.685e-4
-1.186, -4.716e-4
-1.185, -4.808e-4
-1.184, -5.086e-4
-1.183, -5.425e-4
-1.182, -5.733e-4
-1.181, -5.856e-4
-1.180, -5.949e-4
-1.179, -5.918e-4
-1.178, -6.072e-4
-1.177, -6.350e-4
-1.176, -6.689e-4
-1.175, -6.935e-4
-1.174, -6.997e-4
-1.173, -6.997e-4
-1.172, -7.028e-4
-1.171, -7.182e-4
-1.170, -7.460e-4
-1.169, -7.768e-4
-1.168, -7.953e-4
-1.167, -7.953e-4
-1.166, -7.922e-4
-1.165, -7.953e-4
-1.164, -8.169e-4
-1.163, -8.446e-4
-1.162, -8.693e-4
-1.161, -8.785e-4
-1.160, -8.785e-4
-1.159, -8.724e-4
-1.158, -8.785e-4
-1.157, -9.032e-4
-1.156, -9.309e-4
-1.155, -9.494e-4
-1.154, -9.494e-4
-1.153, -9.464e-4
-1.152, -9.402e-4
-1.151, -9.556e-4
-1.150, -9.772e-4
-1.149, -1.002e-3
-1.148, -1.014e-3
-1.147, -1.011e-3
-1.146, -1.002e-3
-1.145, -1.005e-3
-1.144, -1.020e-3
-1.143, -1.045e-3
-1.142, -1.067e-3
-1.141, -1.070e-3
-1.140, -1.067e-3
-1.139, -1.054e-3
-1.138, -1.060e-3
-1.137, -1.082e-3
-1.136, -1.107e-3
-1.135, -1.119e-3
-1.134, -1.119e-3
-1.133, -1.110e-3
-1.132, -1.107e-3
-1.131, -1.116e-3
-1.130, -1.134e-3
-1.129, -1.159e-3
-1.128, -1.165e-3
-1.127, -1.162e-3
-1.126, -1.150e-3
-1.125, -1.150e-3
-1.124, -1.162e-3
-1.123, -1.184e-3
-1.122, -1.199e-3
-1.121, -1.205e-3
-1.120, -1.199e-3
-1.119, -1.184e-3
-1.118, -1.190e-3
-1.117, -1.205e-3
-1.116, -1.230e-3
-1.115, -1.242e-3
-1.114, -1.239e-3
-1.113, -1.230e-3
-1.112, -1.221e-3
-1.111, -1.230e-3
-1.110, -1.249e-3
-1.109, -1.270e-3
-1.108, -1.276e-3
-1.107, -1.267e-3
-1.106, -1.255e-3
-1.105, -1.252e-3
-1.104, -1.261e-3
-1.103, -1.286e-3
-1.102, -1.301e-3
-1.101, -1.304e-3
-1.100, -1.295e-3
-1.099, -1.282e-3
-1.098, -1.282e-3
-1.097, -1.301e-3
-1.096, -1.322e-3
-1.095, -1.332e-3
-1.094, -1.332e-3
-1.093, -1.319e-3
-1.092, -1.313e-3
-1.091, -1.316e-3
-1.090, -1.335e-3
-1.089, -1.356e-3
-1.088, -1.363e-3
-1.087, -1.356e-3
-1.086, -1.341e-3
-1.085, -1.341e-3
-1.084, -1.350e-3
-1.083, -1.372e-3
-1.082, -1.384e-3
-1.081, -1.390e-3
-1.080, -1.378e-3
-1.079, -1.366e-3
-1.078, -1.369e-3
-1.077, -1.384e-3
-1.076, -1.406e-3
-1.075, -1.418e-3
-1.074, -1.418e-3
-1.073, -1.403e-3
-1.072, -1.396e-3
-1.071, -1.400e-3
-1.070, -1.418e-3
-1.069, -1.440e-3
-1.068, -1.446e-3
-1.067, -1.437e-3
-1.066, -1.424e-3
-1.065, -1.421e-3
-1.064, -1.430e-3
-1.063, -1.452e-3
-1.062, -1.470e-3
-1.061, -1.474e-3
-1.060, -1.464e-3
-1.059, -1.452e-3
-1.058, -1.452e-3
-1.057, -1.470e-3
-1.056, -1.492e-3
-1.055, -1.504e-3
-1.054, -1.501e-3
-1.053, -1.489e-3
-1.052, -1.483e-3
-1.051, -1.486e-3
-1.050, -1.507e-3
-1.049, -1.529e-3
-1.048, -1.538e-3
-1.047, -1.529e-3
-1.046, -1.517e-3
-1.045, -1.514e-3
-1.044, -1.526e-3
-1.043, -1.548e-3
-1.042, -1.563e-3
-1.041, -1.569e-3
-1.040, -1.560e-3
-1.039, -1.548e-3
-1.038, -1.548e-3
-1.037, -1.569e-3
-1.036, -1.591e-3
-1.035, -1.603e-3
-1.034, -1.603e-3
-1.033, -1.594e-3
-1.032, -1.585e-3
-1.031, -1.594e-3
-1.030, -1.612e-3
-1.029, -1.637e-3
-1.028, -1.646e-3
-1.027, -1.640e-3
-1.026, -1.631e-3
-1.025, -1.628e-3
-1.024, -1.643e-3
-1.023, -1.668e-3
-1.022, -1.686e-3
-1.021, -1.689e-3
-1.020, -1.683e-3
-1.019, -1.674e-3
-1.018, -1.677e-3
-1.017, -1.699e-3
-1.016, -1.720e-3
-1.015, -1.739e-3
-1.014, -1.739e-3
-1.013, -1.729e-3
-1.012, -1.726e-3
-1.011, -1.736e-3
-1.010, -1.757e-3
-1.009, -1.782e-3
-1.008, -1.794e-3
-1.007, -1.788e-3
-1.006, -1.782e-3
-1.005, -1.782e-3
-1.004, -1.797e-3
-1.003, -1.822e-3
-1.002, -1.844e-3
-1.001, -1.853e-3
