Potential V vs RHE, Current mA cm-2
0.013299999999999867,4.839727356838291
0.012299999999999978,4.184716025000778
0.011299999999999866,3.661272844050715
0.010299999999999976,3.225541763692284
0.009299999999999864,2.8322520223298033
0.008299999999999974,2.4842330425630044
0.007299999999999862,2.0909433012005243
0.006299999999999972,1.7867803717295414
0.00529999999999986,1.4812027309586933
0.0042999999999999705,1.175483619057859
0.0032999999999998586,0.870188920546984
0.0022999999999999687,0.5647527509061226
0.0012999999999998568,0.2594580523952477
0.00029999999999996696,-0.002205534916489592
-0.000700000000000145,-0.30755823659065895
-0.0017000000000000348,-0.5692798270656908
-0.0027000000000001467,-0.8308599464107361
-0.0037000000000000366,-1.0490084288499246
-0.0047000000000001485,-1.2671569112891135
-0.005700000000000038,-1.5293029151541047
-0.00670000000000015,-1.7471684553333202
-0.00770000000000004,-1.9650339955125358
-0.008700000000000152,-2.1828995356917518
-0.009700000000000042,-2.4007650758709675
-0.010700000000000154,-2.662486666345999
-0.011700000000000044,-2.8803522065252145
-0.012700000000000156,-3.0996324580042955
-0.013700000000000045,-3.273641947887695
-0.014700000000000157,-3.4915074880669104
-0.015700000000000047,-3.6655169779503103
-0.01670000000000016,-3.884797229429391
-0.01770000000000005,-4.0588067193127895
-0.01870000000000016,-4.23281620919619
-0.01970000000000005,-4.450681749375406
-0.020700000000000163,-4.626105950558669
-0.021700000000000053,-4.843971490737885
-0.022700000000000164,-5.0618370309171015
-0.023700000000000054,-5.235846520800501
-0.024700000000000166,-5.411270721983764
-0.025700000000000056,-5.585280211867165
-0.026700000000000168,-5.759289701750564
-0.027700000000000058,-5.890857852638012
-0.02870000000000017,-6.064867342521412
-0.02970000000000006,-6.238876832404812
-0.03070000000000017,-6.414301033588076
-0.03170000000000006,-6.54445447317566
-0.03270000000000017,-6.719878674358924
-0.03370000000000006,-6.850032113946507
-0.034700000000000175,-7.024041603829907
-0.035700000000000065,-7.155609754717355
-0.03670000000000018,-7.329619244600755
-0.03770000000000007,-7.461187395488204
-0.03870000000000018,-7.591340835075788
-0.03970000000000007,-7.722908985963235
-0.04070000000000018,-7.853062425550818
-0.04170000000000007,-7.984630576438266
-0.04270000000000018,-8.070927965730034
-0.04370000000000007,-8.246352166913299
-0.044700000000000184,-8.376505606500881
-0.045700000000000074,-8.508073757388331
-0.046700000000000186,-8.638227196975913
-0.047700000000000076,-8.769795347863363
-0.04870000000000019,-8.943804837746763
-0.04970000000000008,-9.073958277334345
-0.05070000000000019,-9.205526428221793
-0.05170000000000008,-9.335679867809377
-0.05270000000000019,-9.467248018696827
-0.05370000000000008,-9.641257508580225
-0.05470000000000019,-9.772825659467674
-0.05570000000000008,-9.946835149351072
-0.056700000000000195,-10.078403300238522
-0.057700000000000085,-10.25241279012192
-0.058700000000000196,-10.382566229709504
-0.059700000000000086,-10.514134380596953
-0.0607000000000002,-10.688143870480351
-0.06170000000000009,-10.819712021367803
-0.0627000000000002,-11.037577561547016
-0.06370000000000009,-11.1677310011346
-0.0647000000000002,-11.343155202317865
-0.06570000000000009,-11.517164692201263
-0.0667000000000002,-11.73503023238048
-0.0677000000000001,-11.909039722263879
-0.0687000000000002,-12.12831997374296
-0.0697000000000001,-12.302329463626359
-0.07070000000000021,-12.476338953509758
-0.0717000000000001,-12.651763154693022
-0.07270000000000021,-12.781916594280606
-0.0737000000000001,-12.913484745168056
-0.07470000000000021,-13.043638184755638
-0.0757000000000001,-13.175206335643086
-0.07670000000000021,-13.30535977523067
-0.0777000000000001,-13.436927926118118
-0.07870000000000021,-13.523225315409885
-0.0797000000000001,-13.654793466297335
-0.08070000000000022,-13.784946905884919
-0.0817000000000001,-13.916515056772363
-0.08270000000000022,-14.046668496359947
-0.08370000000000011,-14.175407224647667
-0.08470000000000022,-14.345172580631472
-0.08570000000000011,-14.486643710617974
-0.08670000000000022,-14.65640906660178
-0.08770000000000011,-14.783733083589633
-0.08870000000000022,-14.967645552572087
-0.08970000000000011,-15.094969569559943
-0.09070000000000022,-15.264734925543747
-0.09170000000000011,-15.448647394526201
-0.09270000000000023,-15.575971411514052
-0.09370000000000012,-15.70329542850191
-0.09470000000000023,-15.830619445489761
-0.09570000000000012,-15.972090575476265
-0.09670000000000023,-16.099414592464115
-0.09770000000000012,-16.184297270456018
-0.09870000000000023,-16.311621287443874
-0.09970000000000012,-16.396503965435777
-0.10070000000000023,-16.53797509542228
-0.10170000000000012,-16.665299112410132
-0.10270000000000024,-16.750181790402035
-0.10370000000000013,-16.877505807389888
-0.10470000000000024,-17.018976937376394
-0.10570000000000013,-17.146300954364243
-0.10670000000000024,-17.2736249713521
-0.10770000000000013,-17.40094898833995
-0.10870000000000024,-17.542420118326454
-0.10970000000000013,-17.669744135314307
-0.11070000000000024,-17.797068152302163
-0.11170000000000013,-17.966833508285966
-0.11270000000000002,-18.15074597726842
-0.11370000000000013,-18.362952672248177
-0.11470000000000002,-18.589306480226583
-0.11570000000000014,-18.759071836210385
-0.11670000000000003,-18.97127853119014
-0.11770000000000014,-19.155191000172596
-0.11870000000000003,-19.367397695152352
-0.11970000000000014,-19.49472171214021
-0.12070000000000003,-19.678634181122664
-0.12170000000000014,-19.848399537106463
-0.12270000000000003,-19.97572355409432
-0.12370000000000014,-20.159636023076775
-0.12470000000000003,-20.286960040064624
-0.12570000000000014,-20.499166735044383
-0.12670000000000003,-20.683079204026836
-0.12770000000000015,-20.89528589900659
-0.12870000000000004,-21.065051254990397
-0.12970000000000015,-21.248963723972853
-0.13070000000000004,-21.418729079956652
-0.13170000000000015,-21.58849443594046
-0.13270000000000004,-21.772406904922917
-0.13370000000000015,-21.94217226090672
-0.13470000000000004,-22.111937616890522
-0.13570000000000015,-22.295850085872978
-0.13670000000000004,-22.508056780852733
-0.13770000000000016,-22.67782213683654
-0.13870000000000005,-22.904175944814945
-0.13970000000000016,-23.1163826397947
-0.14070000000000005,-23.300295108777156
-0.14170000000000016,-23.47006046476096
-0.14270000000000005,-23.639825820744765
-0.14370000000000016,-23.823738289727217
-0.14470000000000005,-24.035944984706973
-0.14570000000000016,-24.20571034069078
-0.14670000000000005,-24.432064148669184
-0.14770000000000016,-24.686712182644893
-0.14870000000000005,-24.9130659906233
-0.14970000000000017,-25.12527268560305
-0.15070000000000006,-25.337479380582806
-0.15170000000000017,-25.563833188561212
-0.15270000000000006,-25.77603988354097
-0.15370000000000017,-25.959952352523427
-0.15470000000000006,-26.17215904750318
-0.15570000000000017,-26.34192440348698
-0.15670000000000006,-26.525836872469437
-0.15770000000000017,-26.738043567449193
-0.15870000000000006,-26.907808923433
-0.15970000000000018,-27.176604070407354
-0.16070000000000007,-27.34636942639116
-0.16170000000000018,-27.615164573365515
-0.16270000000000007,-27.827371268345274
-0.16370000000000018,-28.011283737327723
-0.16470000000000007,-28.22349043230748
-0.16570000000000018,-28.435697127287238
-0.16670000000000007,-28.662050935265643
-0.16770000000000018,-28.831816291249446
-0.16870000000000007,-29.058170099227848
-0.16970000000000018,-29.27037679420761
-0.17070000000000007,-29.440142150191413
-0.17170000000000019,-29.66649595816982
-0.17270000000000008,-29.836261314153624
-0.1737000000000002,-30.00602667013743
-0.17470000000000008,-30.189939139119886
-0.1757000000000002,-30.317263156107735
-0.17670000000000008,-30.487028512091538
-0.1777000000000002,-30.670940981073993
-0.17870000000000008,-30.79826499806185
-0.1797000000000002,-30.968030354045652
-0.18070000000000008,-31.137795710029454
-0.1817000000000002,-31.36414951800786
-0.18270000000000008,-31.533914873991666
-0.1837000000000002,-31.76026868197007
-0.1847000000000001,-31.972475376949827
-0.1857000000000002,-32.24127052392419
-0.1867000000000001,-32.45347721890394
-0.1877000000000002,-32.66568391388369
-0.1887000000000001,-32.892037721862096
-0.1897000000000002,-33.10424441684186
-0.1907000000000001,-33.330598224820264
-0.1917000000000001,-33.58524625879597
-0.19269999999999998,-33.81160006677438
-0.1937000000000001,-34.10868943974604
-0.19469999999999998,-34.377484586720385
-0.1957000000000001,-34.67457395969205
-0.19669999999999999,-34.94336910666641
-0.1977000000000001,-35.198017140642115
-0.1987,-35.42437094862052
-0.1997000000000001,-35.636577643600276
-0.2007,-35.848784338580025
-0.2017000000000001,-36.07513814655844
-0.2027,-36.329786180534136
-0.2037000000000001,-36.64102266650445
-0.2047,-36.95225915247476
-0.2057000000000001,-37.206907186450465
-0.2067,-37.56058501141672
-0.2077000000000001,-37.85767438438838
-0.2087,-38.211352209354644
-0.2097000000000001,-38.522588695324956
-0.2107,-38.81967806829661
-0.2117000000000001,-39.08847321527096
-0.2127,-39.38556258824262
-0.2137000000000001,-39.654357735216976
-0.2147,-39.95144710818864
-0.2157000000000001,-40.30512493315489
-0.2167,-40.559772967130606
-0.21770000000000012,-40.87100945310091
-0.2187,-41.139804600075266
-0.21970000000000012,-41.43689397304693
-0.2207,-41.70568912002128
-0.22170000000000012,-42.00277849299294
-0.2227,-42.2715736399673
-0.22370000000000012,-42.526221673943
-0.2247,-42.837458159913304
-0.22570000000000012,-43.134547532884966
-0.2267,-43.44578401885527
-0.22770000000000012,-43.70043205283099
-0.22870000000000001,-44.011668538801295
-0.22970000000000013,-44.3229050247716
-0.23070000000000002,-44.619994397743255
-0.23170000000000013,-44.93123088371356
-0.23270000000000002,-45.27076159568118
-0.23370000000000013,-45.581998081651484
-0.23470000000000002,-45.85079322862584
-0.23570000000000013,-46.147882601597495
-0.23670000000000002,-46.45911908756781
-0.2376999999999999,-46.75620846053947
-0.23870000000000002,-47.067444946509774
-0.2396999999999999,-47.32209298048547
-0.24070000000000003,-47.633329466455784
-0.24169999999999991,-47.8879775004315
-0.24270000000000003,-48.156772647405845
-0.24369999999999992,-48.45386202037751
-0.24470000000000003,-48.76509850634781
-0.24569999999999992,-49.076334992318124
-0.24670000000000003,-49.28854168729788
-0.24769999999999992,-49.50074838227763
-0.24870000000000003,-49.72710219025603
-0.24969999999999992,-49.98175022423175
-0.25070000000000003,-50.37786938819396
-0.2516999999999999,-50.90131256914402
-0.25270000000000004,-51.38231441109813
-0.2536999999999999,-51.82087491405629
-0.25470000000000004,-52.17455273902255
-0.2556999999999999,-52.514083450990164
-0.25670000000000004,-52.86776127595642
-0.25769999999999993,-53.16485064892808
-0.25870000000000004,-53.476087134898386
-0.25969999999999993,-53.7873236208687
-0.26070000000000004,-54.16929567183226
-0.26169999999999993,-54.56541483579447
-0.26270000000000004,-55.003975338752625
-0.26369999999999993,-55.442535841710786
-0.26470000000000005,-55.881096344668954
-0.26569999999999994,-56.36209818662306
-0.26670000000000005,-56.927982706569075
-0.26769999999999994,-57.493867226515086
-0.26870000000000005,-58.017310407465146
-0.26969999999999994,-58.45587091042332
-0.27070000000000005,-58.83784296138688
-0.27169999999999994,-59.19152078635314
-0.27270000000000005,-59.587639950315335
-0.27369999999999994,-59.9696120012789
-0.27470000000000006,-60.40817250423707
-0.27569999999999995,-60.84673300719523
-0.27670000000000006,-61.28529351015339
-0.27769999999999995,-61.6814126741156
-0.27870000000000006,-62.02094338608321
-0.27969999999999995,-62.459503889041365
-0.28070000000000006,-62.855623053003576
-0.28169999999999995,-63.251742216965795
-0.28270000000000006,-63.6761556069253
-0.28369999999999995,-64.15715744887942
-0.28470000000000006,-64.63815929083353
-0.28569999999999995,-65.11916113278764
-0.28670000000000007,-65.60016297474175
-0.28769999999999996,-65.99628213870396
-0.28870000000000007,-66.43484264166212
-0.28969999999999996,-66.87340314462028
-0.29070000000000007,-67.34025787357575
-0.29169999999999996,-67.86370105452582
-0.29270000000000007,-68.38714423547587
-0.29369999999999996,-68.91058741642594
-0.2947000000000001,-69.39158925838004
-0.29569999999999996,-69.87259110033416
-0.2967000000000001,-70.35359294228827
-0.29769999999999996,-70.79215344524643
-0.2987000000000001,-71.2307139482046
-0.29969999999999997,-71.6268331121668
-0.3007000000000001,-72.00880516313036
-0.30169999999999997,-72.40492432709259
-0.3027000000000001,-72.80104349105478
-0.30369999999999997,-73.197162655017
-0.3047000000000001,-73.57913470598055
-0.30569999999999997,-73.93281253094682
-0.3067000000000001,-74.28649035591307
-0.3077,-74.58357972888473
-0.3087000000000001,-74.89481621485504
-0.3097,-75.1070229098348
-0.3107000000000001,-75.37581805680915
-0.3117,-75.5880247517889
-0.3127000000000001,-75.85681989876326
-0.3137,-76.11146793273898
-0.3147000000000001,-76.46514575770523
-0.3157,-76.81882358267148
-0.3167000000000001,-77.20079563363505
-0.3177,-77.63935613659322
-0.3187000000000001,-78.03547530055542
-0.3197,-78.38915312552167
-0.3207000000000001,-78.72868383748929
-0.3217,-79.1248030014515
-0.3227000000000001,-79.52092216541372
-0.3237,-79.94533555537322
-0.3247000000000001,-80.38389605833139
-0.3257,-80.90733923928146
-0.3267000000000001,-81.51566509822342
-0.3277,-82.09569673116808
-0.3287000000000001,-82.746463929106
-0.3297,-83.31234844905201
-0.3307000000000001,-83.83579163000208
-0.3317,-84.31679347195619
-0.3327000000000001,-84.7977953139103
-0.3337,-85.27879715586442
-0.3347000000000001,-85.75979899781852
-0.3357,-86.32568351776455
-0.3367000000000001,-86.89156803771054
-0.3377,-87.45745255765657
-0.3387000000000001,-88.06577841659853
-0.3397,-88.63166293654454
-0.3407000000000001,-89.23998879548651
-0.3417,-89.76343197643658
-0.3427000000000001,-90.24443381839069
-0.3437,-90.68299432134886
-0.3447000000000001,-91.12155482430701
-0.3457,-91.56011532726518
-0.3467000000000001,-91.98452871722468
-0.3477,-92.50797189817473
-0.3487000000000001,-92.98897374012887
-0.3497,-93.46997558208298
-0.3507000000000001,-93.99341876303303
-0.3517,-94.5168619439831
-0.3527000000000001,-95.04030512493317
-0.3537,-95.52130696688728
-0.3547000000000001,-96.00230880884139
-0.3557,-96.4833106507955
-0.35670000000000013,-96.96431249274961
-0.3577,-97.44531433470372
-0.35870000000000013,-98.01119885464975
-0.3597,-98.6195247135917
-0.36070000000000013,-99.18540923353773
-0.3617,-99.70885241448778
-0.3626999999999999,-100.18985425644189
-0.3637,-100.71329743739196
-0.3646999999999999,-101.23674061834203
-0.3657,-101.71774246029614
-0.3666999999999999,-102.24118564124619
-0.3677,-102.76462882219626
-0.3686999999999999,-103.37295468113824
-0.36970000000000003,-104.02372187907615
-0.3706999999999999,-104.81596020700057
-0.37170000000000003,-105.69308121291688
-0.3726999999999999,-106.55605510583456
-0.37370000000000003,-107.4331761117509
-0.3746999999999999,-108.3102971176672
-0.37570000000000003,-109.17327101058488
-0.3766999999999999,-109.9655093385093
-0.37770000000000004,-110.70115921443913
-0.3786999999999999,-111.394367751373
-0.37970000000000004,-112.05928206230955
-0.3806999999999999,-112.71004926024747
-0.38170000000000004,-113.19105110220158
-0.38269999999999993,-113.67205294415571
-0.38370000000000004,-114.0115836561233
-0.38469999999999993,-114.36526148108955
-0.38570000000000004,-114.76138064505177
-0.38669999999999993,-115.15749980901398
-0.38770000000000004,-115.5819131989735
-0.38869999999999993,-116.02047370193165
-0.38970000000000005,-116.45903420488982
-0.39069999999999994,-116.94003604684394
-0.39170000000000005,-117.50592056678994
-0.39269999999999994,-118.11424642573192
-0.39370000000000005,-118.76501362366983
-0.39469999999999994,-119.51481061259831
-0.39570000000000005,-120.16557781053622
-0.39669999999999994,-120.77390366947817
-0.39770000000000005,-121.33978818942418
-0.39869999999999994,-121.82079003137831
-0.39970000000000006,-122.17446785634456
-0.40069999999999995,-122.48570434231489
-0.40170000000000006,-122.69791103729463
-0.40269999999999995,-122.78279371528653
-0.40370000000000006,-122.82523505428249
-0.40469999999999995,-122.82523505428249
-0.40570000000000006,-122.82523505428249
-0.40669999999999995,-122.82523505428249
-0.40770000000000006,-122.86767639327843
-0.40869999999999995,-122.82523505428249
-0.40970000000000006,-122.82523505428249
-0.41069999999999995,-122.82523505428249
-0.41170000000000007,-122.78279371528653
-0.41269999999999996,-122.82523505428249
-0.41370000000000007,-122.95255907127036
-0.41469999999999996,-123.17891287924873
-0.41570000000000007,-123.532590704215
-0.41669999999999996,-123.99944543317046
-0.41770000000000007,-124.74924242209892
-0.41869999999999996,-125.6688047670112
-0.4197000000000001,-126.61666133792076
-0.42069999999999996,-127.62110636082497
-0.4217000000000001,-128.5831100447332
-0.42269999999999996,-129.50267238964545
-0.4237000000000001,-130.32320494356716
-0.42469999999999997,-130.98811925450374
-0.4257000000000001,-131.46912109645783
-0.42669999999999997,-131.76621046942952
-0.4277000000000001,-131.8510931474214
-0.42869999999999997,-131.8510931474214
-0.4297000000000001,-131.89353448641737
-0.43069999999999997,-131.95012293841197
-0.4317000000000001,-131.99256427740792
-0.4327,-132.03500561640385
-0.4337000000000001,-132.07744695539984
-0.4347,-132.20477097238768
-0.4357000000000001,-132.37453632837148
-0.4367,-132.47356611936203
-0.4377000000000001,-132.60089013634988
-0.4387,-132.7706554923337
-0.4397000000000001,-132.99700930031207
-0.4407,-133.20921599529186
-0.4417000000000001,-133.4214226902716
-0.4427,-133.60533515925405
-0.4437000000000001,-133.73265917624192
-0.4447,-133.77510051523788
-0.4457000000000001,-133.73265917624192
-0.4467,-133.60533515925405
-0.4477000000000001,-133.37898135127566
-0.4487,-133.12433331729994
-0.4497000000000001,-132.8555381703256
-0.4507,-132.60089013634988
-0.4517000000000001,-132.33209498937555
-0.4527,-132.11988829439576
-0.4537000000000001,-131.8510931474214
-0.4547,-131.5964451134457
-0.4557000000000001,-131.32764996647134
-0.4567,-131.07300193249566
-0.4577000000000001,-130.9456779155078
-0.4587,-130.84664812451723
-0.4597000000000001,-130.8042067855213
-0.4607,-130.8042067855213
-0.4617000000000001,-130.84664812451723
-0.4627,-130.90323657651186
-0.4637000000000001,-130.98811925450374
-0.4647,-131.1154432714916
-0.4657000000000001,-131.24276728847948
-0.4667,-131.37009130546733
-0.4677000000000001,-131.5115624354538
-0.4687,-131.68132779143764
-0.4697000000000001,-131.99256427740792
-0.4707,-132.37453632837148
-0.4717000000000001,-132.81309683132966
-0.4727,-133.1667746562959
-0.4737000000000001,-133.37898135127566
-0.4747,-133.46386402926754
-0.4757000000000001,-133.52045248126214
-0.4767,-133.52045248126214
-0.4777000000000001,-133.52045248126214
-0.4787,-133.52045248126214
-0.4797000000000001,-133.46386402926754
-0.4807,-133.4214226902716
-0.48170000000000013,-133.3365400122797
-0.4827,-133.1667746562959
-0.48370000000000013,-132.99700930031207
-0.4847,-132.7706554923337
-0.48570000000000013,-132.55844879735392
-0.4867,-132.37453632837148
-0.4876999999999999,-132.37453632837148
-0.4887,-132.72821415333775
-0.4896999999999999,-133.2516573342878
-0.4907,-133.77510051523788
-0.4916999999999999,-134.34098503518388
-0.4927,-134.86442821613394
-0.4936999999999999,-135.2181060411002
-0.49470000000000003,-135.3029887190921
-0.4956999999999999,-135.1332233631083
-0.49670000000000003,-134.73710419914607
-0.4976999999999999,-134.12877834020412
-0.49870000000000003,-133.4214226902716
-0.4996999999999999,-132.8555381703256
-0.5007,-132.41697766736743
-0.5016999999999999,-131.95012293841197
-0.5027,-131.63888645244168
-0.5036999999999999,-131.37009130546733
-0.5047,-131.24276728847948
-0.5056999999999999,-131.1154432714916
-0.5067,-130.98811925450374
-0.5076999999999999,-130.8042067855213
