Apr. 6, 2025   15:06:58
Cyclic Voltammetry
File: c:/users/guazh/data/banditlqround7_x0exp994_r5/2025-03-28-exp1000\exp1000-2025-04-06t14_54_36-arkoh\exp1000_cv_50mvs_efin_-1600mv.bin
Data Source:  Experiment
Instrument Model:  CHI760E
Header: CV ran at 50 mVs
Note: 

Init E (V) = -1
High E (V) = -1
Low E (V) = -1.6
Final E (V) = -1
Init P/N = N
Scan Rate (V/s) = 0.05
Segment = 7
Sample Interval (V) = 0.001
Quiet Time (sec) = 60
Sensitivity (A/V) = 0.001
Comp R (ohm) = 1.9

Results:

Channel 1:
Segment 1:
Ep = -1.334V
ip = 3.272e-3A
Ah = 4.151e-3C

Segment 2:
Ep = -1.044V
ip = -1.179e-3A
Ah = -1.616e-3C

Segment 3:
Ep = -1.286V
ip = 9.071e-4A
Ah = 8.009e-4C

Segment 4:
Ep = -1.042V
ip = -1.122e-3A
Ah = -1.575e-3C

Segment 5:
Ep = -1.284V
ip = 8.435e-4A
Ah = 7.611e-4C

Segment 6:
Ep = -1.045V
ip = -1.164e-3A
Ah = -1.424e-3C

Segment 7:

Potential/V, Current/A

-1.000, -1.106e-5
-1.001, -4.648e-6
-1.002, -1.832e-6
-1.003, -9.294e-8
-1.004, 1.607e-6
-1.005, 3.233e-6
-1.006, 4.934e-6
-1.007, 6.201e-6
-1.008, 7.043e-6
-1.009, 8.146e-6
-1.010, 9.521e-6
-1.011, 1.080e-5
-1.012, 1.177e-5
-1.013, 1.248e-5
-1.014, 1.334e-5
-1.015, 1.468e-5
-1.016, 1.566e-5
-1.017, 1.661e-5
-1.018, 1.719e-5
-1.019, 1.799e-5
-1.020, 1.920e-5
-1.021, 2.028e-5
-1.022, 2.114e-5
-1.023, 2.179e-5
-1.024, 2.253e-5
-1.025, 2.358e-5
-1.026, 2.472e-5
-1.027, 2.551e-5
-1.028, 2.603e-5
-1.029, 2.680e-5
-1.030, 2.784e-5
-1.031, 2.916e-5
-1.032, 2.973e-5
-1.033, 3.039e-5
-1.034, 3.119e-5
-1.035, 3.223e-5
-1.036, 3.345e-5
-1.037, 3.421e-5
-1.038, 3.476e-5
-1.039, 3.565e-5
-1.040, 3.672e-5
-1.041, 3.798e-5
-1.042, 3.866e-5
-1.043, 3.926e-5
-1.044, 4.026e-5
-1.045, 4.133e-5
-1.046, 4.244e-5
-1.047, 4.349e-5
-1.048, 4.402e-5
-1.049, 4.483e-5
-1.050, 4.626e-5
-1.051, 4.726e-5
-1.052, 4.820e-5
-1.053, 4.889e-5
-1.054, 4.985e-5
-1.055, 5.116e-5
-1.056, 5.245e-5
-1.057, 5.343e-5
-1.058, 5.411e-5
-1.059, 5.493e-5
-1.060, 5.642e-5
-1.061, 5.783e-5
-1.062, 5.864e-5
-1.063, 5.945e-5
-1.064, 6.057e-5
-1.065, 6.203e-5
-1.066, 6.308e-5
-1.067, 6.456e-5
-1.068, 6.526e-5
-1.069, 6.590e-5
-1.070, 6.802e-5
-1.071, 6.933e-5
-1.072, 7.001e-5
-1.073, 7.124e-5
-1.074, 7.271e-5
-1.075, 7.405e-5
-1.076, 7.576e-5
-1.077, 7.638e-5
-1.078, 7.772e-5
-1.079, 7.923e-5
-1.080, 8.031e-5
-1.081, 8.195e-5
-1.082, 8.353e-5
-1.083, 8.476e-5
-1.084, 8.603e-5
-1.085, 8.731e-5
-1.086, 8.942e-5
-1.087, 9.087e-5
-1.088, 9.159e-5
-1.089, 9.331e-5
-1.090, 9.522e-5
-1.091, 9.639e-5
-1.092, 9.828e-5
-1.093, 9.959e-5
-1.094, 1.012e-4
-1.095, 1.030e-4
-1.096, 1.047e-4
-1.097, 1.065e-4
-1.098, 1.076e-4
-1.099, 1.093e-4
-1.100, 1.117e-4
-1.101, 1.136e-4
-1.102, 1.148e-4
-1.103, 1.163e-4
-1.104, 1.179e-4
-1.105, 1.204e-4
-1.106, 1.228e-4
-1.107, 1.237e-4
-1.108, 1.257e-4
-1.109, 1.280e-4
-1.110, 1.295e-4
-1.111, 1.321e-4
-1.112, 1.330e-4
-1.113, 1.362e-4
-1.114, 1.376e-4
-1.115, 1.391e-4
-1.116, 1.427e-4
-1.117, 1.440e-4
-1.118, 1.459e-4
-1.119, 1.486e-4
-1.120, 1.505e-4
-1.121, 1.526e-4
-1.122, 1.552e-4
-1.123, 1.573e-4
-1.124, 1.590e-4
-1.125, 1.618e-4
-1.126, 1.648e-4
-1.127, 1.670e-4
-1.128, 1.689e-4
-1.129, 1.709e-4
-1.130, 1.741e-4
-1.131, 1.769e-4
-1.132, 1.787e-4
-1.133, 1.818e-4
-1.134, 1.837e-4
-1.135, 1.858e-4
-1.136, 1.906e-4
-1.137, 1.925e-4
-1.138, 1.934e-4
-1.139, 1.976e-4
-1.140, 2.008e-4
-1.141, 2.030e-4
-1.142, 2.062e-4
-1.143, 2.086e-4
-1.144, 2.112e-4
-1.145, 2.139e-4
-1.146, 2.179e-4
-1.147, 2.210e-4
-1.148, 2.232e-4
-1.149, 2.274e-4
-1.150, 2.292e-4
-1.151, 2.334e-4
-1.152, 2.370e-4
-1.153, 2.386e-4
-1.154, 2.424e-4
-1.155, 2.469e-4
-1.156, 2.500e-4
-1.157, 2.532e-4
-1.158, 2.572e-4
-1.159, 2.610e-4
-1.160, 2.637e-4
-1.161, 2.692e-4
-1.162, 2.718e-4
-1.163, 2.739e-4
-1.164, 2.806e-4
-1.165, 2.847e-4
-1.166, 2.865e-4
-1.167, 2.928e-4
-1.168, 2.969e-4
-1.169, 2.996e-4
-1.170, 3.051e-4
-1.171, 3.107e-4
-1.172, 3.144e-4
-1.173, 3.192e-4
-1.174, 3.238e-4
-1.175, 3.288e-4
-1.176, 3.357e-4
-1.177, 3.390e-4
-1.178, 3.439e-4
-1.179, 3.497e-4
-1.180, 3.558e-4
-1.181, 3.621e-4
-1.182, 3.688e-4
-1.183, 3.739e-4
-1.184, 3.783e-4
-1.185, 3.850e-4
-1.186, 3.929e-4
-1.187, 3.977e-4
-1.188, 4.055e-4
-1.189, 4.124e-4
-1.190, 4.199e-4
-1.191, 4.264e-4
-1.192, 4.334e-4
-1.193, 4.422e-4
-1.194, 4.483e-4
-1.195, 4.556e-4
-1.196, 4.669e-4
-1.197, 4.733e-4
-1.198, 4.812e-4
-1.199, 4.906e-4
-1.200, 4.987e-4
-1.201, 5.094e-4
-1.202, 5.187e-4
-1.203, 5.256e-4
-1.204, 5.364e-4
-1.205, 5.482e-4
-1.206, 5.594e-4
-1.207, 5.675e-4
-1.208, 5.771e-4
-1.209, 5.922e-4
-1.210, 5.982e-4
-1.211, 6.060e-4
-1.212, 6.213e-4
-1.213, 6.383e-4
-1.214, 6.458e-4
-1.215, 6.582e-4
-1.216, 6.712e-4
-1.217, 6.857e-4
-1.218, 6.957e-4
-1.219, 7.062e-4
-1.220, 7.232e-4
-1.221, 7.395e-4
-1.222, 7.478e-4
-1.223, 7.617e-4
-1.224, 7.799e-4
-1.225, 7.924e-4
-1.226, 8.042e-4
-1.227, 8.241e-4
-1.228, 8.395e-4
-1.229, 8.464e-4
-1.230, 8.670e-4
-1.231, 8.879e-4
-1.232, 8.936e-4
-1.233, 9.102e-4
-1.234, 9.314e-4
-1.235, 9.457e-4
-1.236, 9.616e-4
-1.237, 9.771e-4
-1.238, 1.000e-3
-1.239, 1.006e-3
-1.240, 1.021e-3
-1.241, 1.052e-3
-1.242, 1.073e-3
-1.243, 1.076e-3
-1.244, 1.087e-3
-1.245, 1.104e-3
-1.246, 1.122e-3
-1.247, 1.137e-3
-1.248, 1.164e-3
-1.249, 1.187e-3
-1.250, 1.197e-3
-1.251, 1.215e-3
-1.252, 1.240e-3
-1.253, 1.253e-3
-1.254, 1.267e-3
-1.255, 1.284e-3
-1.256, 1.312e-3
-1.257, 1.330e-3
-1.258, 1.342e-3
-1.259, 1.370e-3
-1.260, 1.397e-3
-1.261, 1.418e-3
-1.262, 1.429e-3
-1.263, 1.447e-3
-1.264, 1.475e-3
-1.265, 1.495e-3
-1.266, 1.519e-3
-1.267, 1.546e-3
-1.268, 1.569e-3
-1.269, 1.588e-3
-1.270, 1.622e-3
-1.271, 1.647e-3
-1.272, 1.669e-3
-1.273, 1.692e-3
-1.274, 1.727e-3
-1.275, 1.756e-3
-1.276, 1.779e-3
-1.277, 1.799e-3
-1.278, 1.852e-3
-1.279, 1.877e-3
-1.280, 1.890e-3
-1.281, 1.939e-3
-1.282, 1.981e-3
-1.283, 1.999e-3
-1.284, 2.026e-3
-1.285, 2.066e-3
-1.286, 2.099e-3
-1.287, 2.139e-3
-1.288, 2.182e-3
-1.289, 2.213e-3
-1.290, 2.254e-3
-1.291, 2.302e-3
-1.292, 2.336e-3
-1.293, 2.372e-3
-1.294, 2.404e-3
-1.295, 2.435e-3
-1.296, 2.498e-3
-1.297, 2.541e-3
-1.298, 2.579e-3
-1.299, 2.628e-3
-1.300, 2.667e-3
-1.301, 2.709e-3
-1.302, 2.759e-3
-1.303, 2.792e-3
-1.304, 2.845e-3
-1.305, 2.907e-3
-1.306, 2.941e-3
-1.307, 2.996e-3
-1.308, 3.030e-3
-1.309, 3.041e-3
-1.310, 3.114e-3
-1.311, 3.175e-3
-1.312, 3.191e-3
-1.313, 3.260e-3
-1.314, 3.306e-3
-1.315, 3.312e-3
-1.316, 3.371e-3
-1.317, 3.428e-3
-1.318, 3.432e-3
-1.319, 3.461e-3
-1.320, 3.516e-3
-1.321, 3.539e-3
-1.322, 3.577e-3
-1.323, 3.602e-3
-1.324, 3.608e-3
-1.325, 3.635e-3
-1.326, 3.647e-3
-1.327, 3.670e-3
-1.328, 3.692e-3
-1.329, 3.688e-3
-1.330, 3.685e-3
-1.331, 3.688e-3
-1.332, 3.686e-3
-1.333, 3.709e-3
-1.334, 3.710e-3
-1.335, 3.649e-3
-1.336, 3.621e-3
-1.337, 3.635e-3
-1.338, 3.646e-3
-1.339, 3.589e-3
-1.340, 3.523e-3
-1.341, 3.531e-3
-1.342, 3.510e-3
-1.343, 3.476e-3
-1.344, 3.468e-3
-1.345, 3.421e-3
-1.346, 3.389e-3
-1.347, 3.358e-3
-1.348, 3.341e-3
-1.349, 3.277e-3
-1.350, 3.232e-3
-1.351, 3.182e-3
-1.352, 3.153e-3
-1.353, 3.118e-3
-1.354, 3.057e-3
-1.355, 2.975e-3
-1.356, 2.918e-3
-1.357, 2.885e-3
-1.358, 2.834e-3
-1.359, 2.753e-3
-1.360, 2.710e-3
-1.361, 2.670e-3
-1.362, 2.595e-3
-1.363, 2.503e-3
-1.364, 2.441e-3
-1.365, 2.372e-3
-1.366, 2.323e-3
-1.367, 2.240e-3
-1.368, 2.155e-3
-1.369, 2.110e-3
-1.370, 2.027e-3
-1.371, 1.964e-3
-1.372, 1.921e-3
-1.373, 1.862e-3
-1.374, 1.771e-3
-1.375, 1.709e-3
-1.376, 1.677e-3
-1.377, 1.621e-3
-1.378, 1.587e-3
-1.379, 1.565e-3
-1.380, 1.523e-3
-1.381, 1.492e-3
-1.382, 1.485e-3
-1.383, 1.475e-3
-1.384, 1.447e-3
-1.385, 1.428e-3
-1.386, 1.434e-3
-1.387, 1.435e-3
-1.388, 1.440e-3
-1.389, 1.448e-3
-1.390, 1.440e-3
-1.391, 1.460e-3
-1.392, 1.462e-3
-1.393, 1.467e-3
-1.394, 1.478e-3
-1.395, 1.499e-3
-1.396, 1.518e-3
-1.397, 1.539e-3
-1.398, 1.528e-3
-1.399, 1.551e-3
-1.400, 1.565e-3
-1.401, 1.573e-3
-1.402, 1.605e-3
-1.403, 1.630e-3
-1.404, 1.637e-3
-1.405, 1.669e-3
-1.406, 1.692e-3
-1.407, 1.706e-3
-1.408, 1.707e-3
-1.409, 1.739e-3
-1.410, 1.770e-3
-1.411, 1.795e-3
-1.412, 1.831e-3
-1.413, 1.832e-3
-1.414, 1.846e-3
-1.415, 1.884e-3
-1.416, 1.911e-3
-1.417, 1.954e-3
-1.418, 1.968e-3
-1.419, 1.977e-3
-1.420, 2.014e-3
-1.421, 2.034e-3
-1.422, 2.047e-3
-1.423, 2.107e-3
-1.424, 2.129e-3
-1.425, 2.152e-3
-1.426, 2.179e-3
-1.427, 2.205e-3
-1.428, 2.222e-3
-1.429, 2.259e-3
-1.430, 2.300e-3
-1.431, 2.330e-3
-1.432, 2.334e-3
-1.433, 2.369e-3
-1.434, 2.432e-3
-1.435, 2.450e-3
-1.436, 2.470e-3
-1.437, 2.511e-3
-1.438, 2.533e-3
-1.439, 2.559e-3
-1.440, 2.614e-3
-1.441, 2.649e-3
-1.442, 2.652e-3
-1.443, 2.690e-3
-1.444, 2.740e-3
-1.445, 2.773e-3
-1.446, 2.808e-3
-1.447, 2.841e-3
-1.448, 2.864e-3
-1.449, 2.900e-3
-1.450, 2.928e-3
-1.451, 2.963e-3
-1.452, 3.004e-3
-1.453, 3.029e-3
-1.454, 3.081e-3
-1.455, 3.104e-3
-1.456, 3.146e-3
-1.457, 3.198e-3
-1.458, 3.243e-3
-1.459, 3.240e-3
-1.460, 3.285e-3
-1.461, 3.369e-3
-1.462, 3.355e-3
-1.463, 3.379e-3
-1.464, 3.411e-3
-1.465, 3.486e-3
-1.466, 3.532e-3
-1.467, 3.538e-3
-1.468, 3.582e-3
-1.469, 3.626e-3
-1.470, 3.689e-3
-1.471, 3.717e-3
-1.472, 3.722e-3
-1.473, 3.752e-3
-1.474, 3.832e-3
-1.475, 3.870e-3
-1.476, 3.904e-3
-1.477, 3.911e-3
-1.478, 3.990e-3
-1.479, 4.013e-3
-1.480, 4.021e-3
-1.481, 4.069e-3
-1.482, 4.114e-3
-1.483, 4.179e-3
-1.484, 4.194e-3
-1.485, 4.217e-3
-1.486, 4.327e-3
-1.487, 4.289e-3
-1.488, 4.301e-3
-1.489, 4.392e-3
-1.490, 4.559e-3
-1.491, 4.398e-3
-1.492, 4.505e-3
-1.493, 4.558e-3
-1.494, 4.619e-3
-1.495, 4.604e-3
-1.496, 4.645e-3
-1.497, 4.723e-3
-1.498, 4.749e-3
-1.499, 4.768e-3
-1.500, 4.808e-3
-1.501, 4.863e-3
-1.502, 4.891e-3
-1.503, 4.911e-3
-1.504, 4.978e-3
-1.505, 5.010e-3
-1.506, 5.003e-3
-1.507, 5.084e-3
-1.508, 5.154e-3
-1.509, 5.149e-3
-1.510, 5.175e-3
-1.511, 5.262e-3
-1.512, 5.294e-3
-1.513, 5.345e-3
-1.514, 5.386e-3
-1.515, 5.425e-3
-1.516, 5.484e-3
-1.517, 5.491e-3
-1.518, 5.496e-3
-1.519, 5.536e-3
-1.520, 5.582e-3
-1.521, 5.607e-3
-1.522, 5.674e-3
-1.523, 5.720e-3
-1.524, 5.716e-3
-1.525, 5.846e-3
-1.526, 5.834e-3
-1.527, 5.815e-3
-1.528, 5.890e-3
-1.529, 5.934e-3
-1.530, 5.919e-3
-1.531, 5.951e-3
-1.532, 5.988e-3
-1.533, 6.104e-3
-1.534, 6.089e-3
-1.535, 6.078e-3
-1.536, 6.103e-3
-1.537, 6.162e-3
-1.538, 6.174e-3
-1.539, 6.226e-3
-1.540, 6.298e-3
-1.541, 6.288e-3
-1.542, 6.283e-3
-1.543, 6.383e-3
-1.544, 6.471e-3
-1.545, 6.459e-3
-1.546, 6.496e-3
-1.547, 6.577e-3
-1.548, 6.576e-3
-1.549, 6.599e-3
-1.550, 6.644e-3
-1.551, 6.749e-3
-1.552, 6.759e-3
-1.553, 6.715e-3
-1.554, 6.899e-3
-1.555, 6.873e-3
-1.556, 6.854e-3
-1.557, 6.922e-3
-1.558, 6.894e-3
-1.559, 6.916e-3
-1.560, 7.013e-3
-1.561, 7.090e-3
-1.562, 7.152e-3
-1.563, 7.234e-3
-1.564, 7.269e-3
-1.565, 7.265e-3
-1.566, 7.208e-3
-1.567, 7.420e-3
-1.568, 7.380e-3
-1.569, 7.451e-3
-1.570, 7.524e-3
-1.571, 7.517e-3
-1.572, 7.501e-3
-1.573, 7.612e-3
-1.574, 7.730e-3
-1.575, 7.609e-3
-1.576, 7.678e-3
-1.577, 7.847e-3
-1.578, 7.793e-3
-1.579, 7.746e-3
-1.580, 7.873e-3
-1.581, 7.863e-3
-1.582, 8.377e-3
-1.583, 8.302e-3
-1.584, 8.327e-3
-1.585, 8.242e-3
-1.586, 8.247e-3
-1.587, 8.306e-3
-1.588, 8.363e-3
-1.589, 8.494e-3
-1.590, 8.447e-3
-1.591, 8.492e-3
-1.592, 8.469e-3
-1.593, 8.528e-3
-1.594, 8.631e-3
-1.595, 9.068e-3
-1.596, 9.098e-3
-1.597, 9.000e-3
-1.598, 9.010e-3
-1.599, 9.149e-3
-1.600, 9.000e-3
-1.599, 8.908e-3
-1.598, 8.870e-3
-1.597, 8.805e-3
-1.596, 8.749e-3
-1.595, 8.694e-3
-1.594, 8.691e-3
-1.593, 8.625e-3
-1.592, 8.371e-3
-1.591, 8.423e-3
-1.590, 8.392e-3
-1.589, 8.187e-3
-1.588, 8.180e-3
-1.587, 8.248e-3
-1.586, 8.288e-3
-1.585, 8.068e-3
-1.584, 7.982e-3
-1.583, 7.985e-3
-1.582, 8.008e-3
-1.581, 7.914e-3
-1.580, 7.906e-3
-1.579, 7.905e-3
-1.578, 7.926e-3
-1.577, 7.810e-3
-1.576, 7.777e-3
-1.575, 7.811e-3
-1.574, 7.781e-3
-1.573, 7.696e-3
-1.572, 7.643e-3
-1.571, 7.552e-3
-1.570, 7.565e-3
-1.569, 7.427e-3
-1.568, 7.373e-3
-1.567, 7.408e-3
-1.566, 7.238e-3
-1.565, 7.128e-3
-1.564, 7.069e-3
-1.563, 7.005e-3
-1.562, 6.898e-3
-1.561, 6.855e-3
-1.560, 6.843e-3
-1.559, 6.768e-3
-1.558, 6.632e-3
-1.557, 6.571e-3
-1.556, 6.543e-3
-1.555, 6.526e-3
-1.554, 6.510e-3
-1.553, 6.448e-3
-1.552, 6.371e-3
-1.551, 6.357e-3
-1.550, 6.216e-3
-1.549, 6.165e-3
-1.548, 6.162e-3
-1.547, 6.230e-3
-1.546, 6.122e-3
-1.545, 5.992e-3
-1.544, 5.966e-3
-1.543, 5.900e-3
-1.542, 5.822e-3
-1.541, 5.840e-3
-1.540, 5.793e-3
-1.539, 5.714e-3
-1.538, 5.704e-3
-1.537, 5.675e-3
-1.536, 5.628e-3
-1.535, 5.603e-3
-1.534, 5.472e-3
-1.533, 5.412e-3
-1.532, 5.457e-3
-1.531, 5.427e-3
-1.530, 5.304e-3
-1.529, 5.269e-3
-1.528, 5.243e-3
-1.527, 5.252e-3
-1.526, 5.270e-3
-1.525, 5.222e-3
-1.524, 5.094e-3
-1.523, 5.005e-3
-1.522, 5.014e-3
-1.521, 5.052e-3
-1.520, 5.048e-3
-1.519, 5.014e-3
-1.518, 4.959e-3
-1.517, 4.833e-3
-1.516, 4.855e-3
-1.515, 4.851e-3
-1.514, 4.779e-3
-1.513, 4.728e-3
-1.512, 4.689e-3
-1.511, 4.663e-3
-1.510, 4.594e-3
-1.509, 4.532e-3
-1.508, 4.533e-3
-1.507, 4.487e-3
-1.506, 4.406e-3
-1.505, 4.367e-3
-1.504, 4.338e-3
-1.503, 4.273e-3
-1.502, 4.227e-3
-1.501, 4.234e-3
-1.500, 4.142e-3
-1.499, 4.089e-3
-1.498, 4.121e-3
-1.497, 4.030e-3
-1.496, 3.954e-3
-1.495, 3.910e-3
-1.494, 3.892e-3
-1.493, 3.850e-3
-1.492, 3.802e-3
-1.491, 3.744e-3
-1.490, 3.715e-3
-1.489, 3.680e-3
-1.488, 3.640e-3
-1.487, 3.620e-3
-1.486, 3.537e-3
-1.485, 3.528e-3
-1.484, 3.495e-3
-1.483, 3.433e-3
-1.482, 3.460e-3
-1.481, 3.380e-3
-1.480, 3.351e-3
-1.479, 3.355e-3
-1.478, 3.248e-3
-1.477, 3.219e-3
-1.476, 3.200e-3
-1.475, 3.160e-3
-1.474, 3.123e-3
-1.473, 3.120e-3
-1.472, 3.071e-3
-1.471, 3.026e-3
-1.470, 2.983e-3
-1.469, 2.953e-3
-1.468, 2.903e-3
-1.467, 2.852e-3
-1.466, 2.836e-3
-1.465, 2.799e-3
-1.464, 2.766e-3
-1.463, 2.730e-3
-1.462, 2.704e-3
-1.461, 2.710e-3
-1.460, 2.643e-3
-1.459, 2.607e-3
-1.458, 2.571e-3
-1.457, 2.612e-3
-1.456, 2.598e-3
-1.455, 2.559e-3
-1.454, 2.486e-3
-1.453, 2.462e-3
-1.452, 2.470e-3
-1.451, 2.371e-3
-1.450, 2.330e-3
-1.449, 2.300e-3
-1.448, 2.312e-3
-1.447, 2.279e-3
-1.446, 2.216e-3
-1.445, 2.170e-3
-1.444, 2.170e-3
-1.443, 2.086e-3
-1.442, 2.065e-3
-1.441, 2.048e-3
-1.440, 2.045e-3
-1.439, 1.999e-3
-1.438, 1.965e-3
-1.437, 1.941e-3
-1.436, 1.916e-3
-1.435, 1.901e-3
-1.434, 1.864e-3
-1.433, 1.848e-3
-1.432, 1.847e-3
-1.431, 1.813e-3
-1.430, 1.787e-3
-1.429, 1.772e-3
-1.428, 1.723e-3
-1.427, 1.685e-3
-1.426, 1.663e-3
-1.425, 1.641e-3
-1.424, 1.622e-3
-1.423, 1.610e-3
-1.422, 1.583e-3
-1.421, 1.555e-3
-1.420, 1.528e-3
-1.419, 1.509e-3
-1.418, 1.475e-3
-1.417, 1.448e-3
-1.416, 1.434e-3
-1.415, 1.413e-3
-1.414, 1.385e-3
-1.413, 1.381e-3
-1.412, 1.341e-3
-1.411, 1.317e-3
-1.410, 1.303e-3
-1.409, 1.265e-3
-1.408, 1.254e-3
-1.407, 1.235e-3
-1.406, 1.219e-3
-1.405, 1.186e-3
-1.404, 1.176e-3
-1.403, 1.175e-3
-1.402, 1.132e-3
-1.401, 1.109e-3
-1.400, 1.103e-3
-1.399, 1.073e-3
-1.398, 1.030e-3
-1.397, 1.034e-3
-1.396, 1.027e-3
-1.395, 1.005e-3
-1.394, 9.940e-4
-1.393, 9.661e-4
-1.392, 9.367e-4
-1.391, 9.312e-4
-1.390, 9.081e-4
-1.389, 8.847e-4
-1.388, 8.771e-4
-1.387, 8.592e-4
-1.386, 8.361e-4
-1.385, 8.248e-4
-1.384, 8.105e-4
-1.383, 7.850e-4
-1.382, 8.101e-4
-1.381, 7.800e-4
-1.380, 7.573e-4
-1.379, 7.403e-4
-1.378, 7.213e-4
-1.377, 7.122e-4
-1.376, 6.964e-4
-1.375, 6.786e-4
-1.374, 6.644e-4
-1.373, 6.470e-4
-1.372, 6.348e-4
-1.371, 6.225e-4
-1.370, 6.101e-4
-1.369, 5.967e-4
-1.368, 5.863e-4
-1.367, 5.697e-4
-1.366, 5.569e-4
-1.365, 5.471e-4
-1.364, 5.231e-4
-1.363, 5.128e-4
-1.362, 5.025e-4
-1.361, 4.880e-4
-1.360, 4.780e-4
-1.359, 4.655e-4
-1.358, 4.494e-4
-1.357, 4.362e-4
-1.356, 4.294e-4
-1.355, 4.212e-4
-1.354, 4.111e-4
-1.353, 3.937e-4
-1.352, 3.830e-4
-1.351, 3.738e-4
-1.350, 3.602e-4
-1.349, 3.513e-4
-1.348, 3.420e-4
-1.347, 3.308e-4
-1.346, 3.189e-4
-1.345, 3.136e-4
-1.344, 3.068e-4
-1.343, 2.914e-4
-1.342, 2.809e-4
-1.341, 2.736e-4
-1.340, 2.634e-4
-1.339, 2.533e-4
-1.338, 2.466e-4
-1.337, 2.386e-4
-1.336, 2.301e-4
-1.335, 2.223e-4
-1.334, 2.161e-4
-1.333, 2.052e-4
-1.332, 1.969e-4
-1.331, 1.890e-4
-1.330, 1.801e-4
-1.329, 1.751e-4
-1.328, 1.683e-4
-1.327, 1.607e-4
-1.326, 1.576e-4
-1.325, 1.479e-4
-1.324, 1.390e-4
-1.323, 1.312e-4
-1.322, 1.259e-4
-1.321, 1.208e-4
-1.320, 1.149e-4
-1.319, 1.079e-4
-1.318, 1.031e-4
-1.317, 9.627e-5
-1.316, 8.859e-5
-1.315, 8.341e-5
-1.314, 7.816e-5
-1.313, 7.158e-5
-1.312, 6.584e-5
-1.311, 6.122e-5
-1.310, 5.660e-5
-1.309, 5.184e-5
-1.308, 4.513e-5
-1.307, 4.034e-5
-1.306, 3.578e-5
-1.305, 3.087e-5
-1.304, 2.664e-5
-1.303, 2.170e-5
-1.302, 1.676e-5
-1.301, 1.271e-5
-1.300, 8.974e-6
-1.299, 4.415e-6
-1.298, -1.462e-7
-1.297, -4.626e-6
-1.296, -7.817e-6
-1.295, -1.148e-5
-1.294, -1.567e-5
-1.293, -1.979e-5
-1.292, -2.386e-5
-1.291, -2.701e-5
-1.290, -2.979e-5
-1.289, -3.380e-5
-1.288, -3.747e-5
-1.287, -4.130e-5
-1.286, -4.423e-5
-1.285, -4.635e-5
-1.284, -4.954e-5
-1.283, -5.298e-5
-1.282, -5.668e-5
-1.281, -6.056e-5
-1.280, -6.284e-5
-1.279, -6.478e-5
-1.278, -6.754e-5
-1.277, -7.080e-5
-1.276, -7.444e-5
-1.275, -7.536e-5
-1.274, -7.849e-5
-1.273, -8.233e-5
-1.272, -8.377e-5
-1.271, -8.640e-5
-1.270, -8.841e-5
-1.269, -9.129e-5
-1.268, -9.636e-5
-1.267, -9.518e-5
-1.266, -9.583e-5
-1.265, -9.807e-5
-1.264, -1.023e-4
-1.263, -1.039e-4
-1.262, -1.072e-4
-1.261, -1.109e-4
-1.260, -1.104e-4
-1.259, -1.114e-4
-1.258, -1.139e-4
-1.257, -1.171e-4
-1.256, -1.166e-4
-1.255, -1.181e-4
-1.254, -1.225e-4
-1.253, -1.235e-4
-1.252, -1.241e-4
-1.251, -1.274e-4
-1.250, -1.300e-4
-1.249, -1.297e-4
-1.248, -1.312e-4
-1.247, -1.349e-4
-1.246, -1.365e-4
-1.245, -1.345e-4
-1.244, -1.352e-4
-1.243, -1.403e-4
-1.242, -1.437e-4
-1.241, -1.460e-4
-1.240, -1.481e-4
-1.239, -1.458e-4
-1.238, -1.454e-4
-1.237, -1.443e-4
-1.236, -1.491e-4
-1.235, -1.515e-4
-1.234, -1.525e-4
-1.233, -1.545e-4
-1.232, -1.542e-4
-1.231, -1.568e-4
-1.230, -1.574e-4
-1.229, -1.599e-4
-1.228, -1.606e-4
-1.227, -1.634e-4
-1.226, -1.631e-4
-1.225, -1.618e-4
-1.224, -1.643e-4
-1.223, -1.680e-4
-1.222, -1.694e-4
-1.221, -1.700e-4
-1.220, -1.710e-4
-1.219, -1.711e-4
-1.218, -1.728e-4
-1.217, -1.748e-4
-1.216, -1.737e-4
-1.215, -1.755e-4
-1.214, -1.784e-4
-1.213, -1.794e-4
-1.212, -1.814e-4
-1.211, -1.818e-4
-1.210, -1.799e-4
-1.209, -1.829e-4
-1.208, -1.973e-4
-1.207, -1.890e-4
-1.206, -1.866e-4
-1.205, -1.832e-4
-1.204, -1.914e-4
-1.203, -1.887e-4
-1.202, -1.901e-4
-1.201, -1.950e-4
-1.200, -1.940e-4
-1.199, -1.934e-4
-1.198, -1.966e-4
-1.197, -1.990e-4
-1.196, -1.988e-4
-1.195, -2.000e-4
-1.194, -2.017e-4
-1.193, -2.047e-4
-1.192, -2.041e-4
-1.191, -2.042e-4
-1.190, -2.081e-4
-1.189, -2.107e-4
-1.188, -2.084e-4
-1.187, -2.107e-4
-1.186, -2.135e-4
-1.185, -2.133e-4
-1.184, -2.168e-4
-1.183, -2.181e-4
-1.182, -2.186e-4
-1.181, -2.210e-4
-1.180, -2.219e-4
-1.179, -2.220e-4
-1.178, -2.244e-4
-1.177, -2.267e-4
-1.176, -2.305e-4
-1.175, -2.317e-4
-1.174, -2.316e-4
-1.173, -2.355e-4
-1.172, -2.357e-4
-1.171, -2.368e-4
-1.170, -2.402e-4
-1.169, -2.450e-4
-1.168, -2.460e-4
-1.167, -2.440e-4
-1.166, -2.475e-4
-1.165, -2.497e-4
-1.164, -2.503e-4
-1.163, -2.546e-4
-1.162, -2.616e-4
-1.161, -2.593e-4
-1.160, -2.599e-4
-1.159, -2.682e-4
-1.158, -2.712e-4
-1.157, -2.699e-4
-1.156, -2.736e-4
-1.155, -2.782e-4
-1.154, -2.832e-4
-1.153, -2.851e-4
-1.152, -2.905e-4
-1.151, -3.006e-4
-1.150, -3.045e-4
-1.149, -3.084e-4
-1.148, -3.168e-4
-1.147, -3.290e-4
-1.146, -3.454e-4
-1.145, -3.558e-4
-1.144, -3.604e-4
-1.143, -3.751e-4
-1.142, -3.946e-4
-1.141, -4.139e-4
-1.140, -4.281e-4
-1.139, -4.501e-4
-1.138, -4.733e-4
-1.137, -4.912e-4
-1.136, -5.141e-4
-1.135, -5.387e-4
-1.134, -5.584e-4
-1.133, -5.828e-4
-1.132, -6.063e-4
-1.131, -6.236e-4
-1.130, -6.390e-4
-1.129, -6.639e-4
-1.128, -6.844e-4
-1.127, -7.054e-4
-1.126, -7.298e-4
-1.125, -7.465e-4
-1.124, -7.588e-4
-1.123, -7.898e-4
-1.122, -8.082e-4
-1.121, -8.133e-4
-1.120, -8.312e-4
-1.119, -8.813e-4
-1.118, -8.759e-4
-1.117, -8.814e-4
-1.116, -8.891e-4
-1.115, -9.084e-4
-1.114, -9.094e-4
-1.113, -9.356e-4
-1.112, -9.586e-4
-1.111, -9.708e-4
-1.110, -9.789e-4
-1.109, -9.975e-4
-1.108, -1.015e-3
-1.107, -1.021e-3
-1.106, -1.030e-3
-1.105, -1.049e-3
-1.104, -1.069e-3
-1.103, -1.072e-3
-1.102, -1.094e-3
-1.101, -1.109e-3
-1.100, -1.107e-3
-1.099, -1.129e-3
-1.098, -1.149e-3
-1.097, -1.165e-3
-1.096, -1.171e-3
-1.095, -1.174e-3
-1.094, -1.190e-3
-1.093, -1.206e-3
-1.092, -1.216e-3
-1.091, -1.226e-3
-1.090, -1.234e-3
-1.089, -1.250e-3
-1.088, -1.263e-3
-1.087, -1.272e-3
-1.086, -1.293e-3
-1.085, -1.301e-3
-1.084, -1.295e-3
-1.083, -1.306e-3
-1.082, -1.328e-3
-1.081, -1.325e-3
-1.080, -1.339e-3
-1.079, -1.362e-3
-1.078, -1.360e-3
-1.077, -1.368e-3
-1.076, -1.376e-3
-1.075, -1.381e-3
-1.074, -1.390e-3
-1.073, -1.411e-3
-1.072, -1.410e-3
-1.071, -1.411e-3
-1.070, -1.425e-3
-1.069, -1.436e-3
-1.068, -1.429e-3
-1.067, -1.451e-3
-1.066, -1.452e-3
-1.065, -1.436e-3
-1.064, -1.446e-3
-1.063, -1.463e-3
-1.062, -1.485e-3
-1.061, -1.467e-3
-1.060, -1.475e-3
-1.059, -1.490e-3
-1.058, -1.482e-3
-1.057, -1.469e-3
-1.056, -1.476e-3
-1.055, -1.490e-3
-1.054, -1.489e-3
-1.053, -1.493e-3
-1.052, -1.495e-3
-1.051, -1.496e-3
-1.050, -1.482e-3
-1.049, -1.485e-3
-1.048, -1.494e-3
-1.047, -1.488e-3
-1.046, -1.480e-3
-1.045, -1.487e-3
-1.044, -1.557e-3
-1.043, -1.554e-3
-1.042, -1.519e-3
-1.041, -1.502e-3
-1.040, -1.501e-3
-1.039, -1.467e-3
-1.038, -1.442e-3
-1.037, -1.463e-3
-1.036, -1.488e-3
-1.035, -1.455e-3
-1.034, -1.445e-3
-1.033, -1.503e-3
-1.032, -1.477e-3
-1.031, -1.447e-3
-1.030, -1.409e-3
-1.029, -1.417e-3
-1.028, -1.412e-3
-1.027, -1.404e-3
-1.026, -1.399e-3
-1.025, -1.394e-3
-1.024, -1.386e-3
-1.023, -1.378e-3
-1.022, -1.368e-3
-1.021, -1.361e-3
-1.020, -1.372e-3
-1.019, -1.343e-3
-1.018, -1.319e-3
-1.017, -1.323e-3
-1.016, -1.321e-3
-1.015, -1.301e-3
-1.014, -1.285e-3
-1.013, -1.287e-3
-1.012, -1.284e-3
-1.011, -1.261e-3
-1.010, -1.249e-3
-1.009, -1.245e-3
-1.008, -1.239e-3
-1.007, -1.219e-3
-1.006, -1.207e-3
-1.005, -1.212e-3
-1.004, -1.205e-3
-1.003, -1.182e-3
-1.002, -1.166e-3
-1.001, -1.161e-3
-1.000, -1.108e-3
-1.001, -1.018e-3
-1.002, -9.603e-4
-1.003, -9.176e-4
-1.004, -8.786e-4
-1.005, -8.332e-4
-1.006, -7.931e-4
-1.007, -7.631e-4
-1.008, -7.361e-4
-1.009, -7.032e-4
-1.010, -6.808e-4
-1.011, -6.523e-4
-1.012, -6.274e-4
-1.013, -6.081e-4
-1.014, -5.861e-4
-1.015, -5.663e-4
-1.016, -5.480e-4
-1.017, -5.273e-4
-1.018, -5.133e-4
-1.019, -5.002e-4
-1.020, -4.799e-4
-1.021, -4.661e-4
-1.022, -4.538e-4
-1.023, -4.422e-4
-1.024, -4.247e-4
-1.025, -4.110e-4
-1.026, -3.990e-4
-1.027, -3.943e-4
-1.028, -3.835e-4
-1.029, -3.760e-4
-1.030, -3.572e-4
-1.031, -3.494e-4
-1.032, -3.329e-4
-1.033, -3.277e-4
-1.034, -3.154e-4
-1.035, -3.102e-4
-1.036, -3.071e-4
-1.037, -2.971e-4
-1.038, -2.859e-4
-1.039, -2.762e-4
-1.040, -2.675e-4
-1.041, -2.599e-4
-1.042, -2.523e-4
-1.043, -2.477e-4
-1.044, -2.405e-4
-1.045, -2.311e-4
-1.046, -2.257e-4
-1.047, -2.189e-4
-1.048, -2.116e-4
-1.049, -2.057e-4
-1.050, -1.997e-4
-1.051, -1.920e-4
-1.052, -1.855e-4
-1.053, -1.839e-4
-1.054, -1.746e-4
-1.055, -1.669e-4
-1.056, -1.618e-4
-1.057, -1.589e-4
-1.058, -1.506e-4
-1.059, -1.434e-4
-1.060, -1.380e-4
-1.061, -1.336e-4
-1.062, -1.271e-4
-1.063, -1.208e-4
-1.064, -1.165e-4
-1.065, -1.104e-4
-1.066, -1.038e-4
-1.067, -9.947e-5
-1.068, -9.636e-5
-1.069, -8.889e-5
-1.070, -8.206e-5
-1.071, -7.643e-5
-1.072, -7.129e-5
-1.073, -6.618e-5
-1.074, -6.128e-5
-1.075, -5.583e-5
-1.076, -4.958e-5
-1.077, -4.536e-5
-1.078, -4.026e-5
-1.079, -3.455e-5
-1.080, -2.915e-5
-1.081, -2.381e-5
-1.082, -1.893e-5
-1.083, -1.390e-5
-1.084, -8.449e-6
-1.085, -3.132e-6
-1.086, 2.044e-6
-1.087, 7.193e-6
-1.088, 1.207e-5
-1.089, 1.769e-5
-1.090, 2.301e-5
-1.091, 2.793e-5
-1.092, 3.307e-5
-1.093, 3.779e-5
-1.094, 4.333e-5
-1.095, 4.903e-5
-1.096, 5.377e-5
-1.097, 5.874e-5
-1.098, 6.383e-5
-1.099, 6.919e-5
-1.100, 7.445e-5
-1.101, 7.941e-5
-1.102, 8.461e-5
-1.103, 8.904e-5
-1.104, 9.389e-5
-1.105, 1.000e-4
-1.106, 1.052e-4
-1.107, 1.098e-4
-1.108, 1.148e-4
-1.109, 1.201e-4
-1.110, 1.258e-4
-1.111, 1.301e-4
-1.112, 1.341e-4
-1.113, 1.404e-4
-1.114, 1.447e-4
-1.115, 1.501e-4
-1.116, 1.554e-4
-1.117, 1.597e-4
-1.118, 1.664e-4
-1.119, 1.706e-4
-1.120, 1.746e-4
-1.121, 1.800e-4
-1.122, 1.850e-4
-1.123, 1.896e-4
-1.124, 1.953e-4
-1.125, 2.015e-4
-1.126, 2.052e-4
-1.127, 2.087e-4
-1.128, 2.156e-4
-1.129, 2.225e-4
-1.130, 2.246e-4
-1.131, 2.292e-4
-1.132, 2.369e-4
-1.133, 2.407e-4
-1.134, 2.444e-4
-1.135, 2.518e-4
-1.136, 2.565e-4
-1.137, 2.619e-4
-1.138, 2.703e-4
-1.139, 2.761e-4
-1.140, 2.779e-4
-1.141, 2.780e-4
-1.142, 2.837e-4
-1.143, 2.905e-4
-1.144, 2.953e-4
-1.145, 3.029e-4
-1.146, 3.081e-4
-1.147, 3.112e-4
-1.148, 3.167e-4
-1.149, 3.238e-4
-1.150, 3.303e-4
-1.151, 3.328e-4
-1.152, 3.355e-4
-1.153, 3.438e-4
-1.154, 3.504e-4
-1.155, 3.534e-4
-1.156, 3.620e-4
-1.157, 3.669e-4
-1.158, 3.701e-4
-1.159, 3.776e-4
-1.160, 3.837e-4
-1.161, 3.875e-4
-1.162, 3.933e-4
-1.163, 4.024e-4
-1.164, 4.080e-4
-1.165, 4.104e-4
-1.166, 4.175e-4
-1.167, 4.240e-4
-1.168, 4.301e-4
-1.169, 4.373e-4
-1.170, 4.421e-4
-1.171, 4.486e-4
-1.172, 4.569e-4
-1.173, 4.630e-4
-1.174, 4.647e-4
-1.175, 4.769e-4
-1.176, 4.843e-4
-1.177, 4.864e-4
-1.178, 4.934e-4
-1.179, 5.015e-4
-1.180, 5.079e-4
-1.181, 5.201e-4
-1.182, 5.356e-4
-1.183, 5.337e-4
-1.184, 5.345e-4
-1.185, 5.384e-4
-1.186, 5.505e-4
-1.187, 5.623e-4
-1.188, 5.728e-4
-1.189, 5.833e-4
-1.190, 5.826e-4
-1.191, 5.869e-4
-1.192, 6.024e-4
-1.193, 6.120e-4
-1.194, 6.097e-4
-1.195, 6.212e-4
-1.196, 6.405e-4
-1.197, 6.406e-4
-1.198, 6.493e-4
-1.199, 6.578e-4
-1.200, 6.760e-4
-1.201, 6.806e-4
-1.202, 6.817e-4
-1.203, 6.924e-4
-1.204, 7.068e-4
-1.205, 7.179e-4
-1.206, 7.247e-4
-1.207, 7.338e-4
-1.208, 7.436e-4
-1.209, 7.532e-4
-1.210, 7.662e-4
-1.211, 7.821e-4
-1.212, 7.861e-4
-1.213, 7.881e-4
-1.214, 8.062e-4
-1.215, 8.199e-4
-1.216, 8.265e-4
-1.217, 8.341e-4
-1.218, 8.533e-4
-1.219, 8.672e-4
-1.220, 8.825e-4
-1.221, 8.932e-4
-1.222, 9.028e-4
-1.223, 9.084e-4
-1.224, 9.182e-4
-1.225, 9.333e-4
-1.226, 9.448e-4
-1.227, 9.621e-4
-1.228, 9.756e-4
-1.229, 1.019e-3
-1.230, 1.034e-3
-1.231, 1.031e-3
-1.232, 1.026e-3
-1.233, 1.055e-3
-1.234, 1.068e-3
-1.235, 1.063e-3
-1.236, 1.082e-3
-1.237, 1.111e-3
-1.238, 1.128e-3
-1.239, 1.151e-3
-1.240, 1.153e-3
-1.241, 1.167e-3
-1.242, 1.180e-3
-1.243, 1.199e-3
-1.244, 1.207e-3
-1.245, 1.226e-3
-1.246, 1.254e-3
-1.247, 1.266e-3
-1.248, 1.291e-3
-1.249, 1.301e-3
-1.250, 1.302e-3
-1.251, 1.314e-3
-1.252, 1.351e-3
-1.253, 1.376e-3
-1.254, 1.383e-3
-1.255, 1.400e-3
-1.256, 1.422e-3
-1.257, 1.435e-3
-1.258, 1.458e-3
-1.259, 1.471e-3
-1.260, 1.507e-3
-1.261, 1.519e-3
-1.262, 1.503e-3
-1.263, 1.524e-3
-1.264, 1.573e-3
-1.265, 1.602e-3
-1.266, 1.618e-3
-1.267, 1.605e-3
-1.268, 1.632e-3
-1.269, 1.658e-3
-1.270, 1.660e-3
-1.271, 1.684e-3
-1.272, 1.712e-3
-1.273, 1.714e-3
-1.274, 1.732e-3
-1.275, 1.758e-3
-1.276, 1.789e-3
-1.277, 1.787e-3
-1.278, 1.794e-3
-1.279, 1.815e-3
-1.280, 1.848e-3
-1.281, 1.815e-3
-1.282, 1.828e-3
-1.283, 1.853e-3
-1.284, 1.880e-3
-1.285, 1.885e-3
-1.286, 1.919e-3
-1.287, 1.896e-3
-1.288, 1.876e-3
-1.289, 1.882e-3
-1.290, 1.916e-3
-1.291, 1.918e-3
-1.292, 1.898e-3
-1.293, 1.895e-3
-1.294, 1.899e-3
-1.295, 1.907e-3
-1.296, 1.883e-3
-1.297, 1.862e-3
-1.298, 1.842e-3
-1.299, 1.843e-3
-1.300, 1.847e-3
-1.301, 1.794e-3
-1.302, 1.768e-3
-1.303, 1.779e-3
-1.304, 1.761e-3
-1.305, 1.702e-3
-1.306, 1.669e-3
-1.307, 1.657e-3
-1.308, 1.628e-3
-1.309, 1.579e-3
-1.310, 1.554e-3
-1.311, 1.524e-3
-1.312, 1.481e-3
-1.313, 1.438e-3
-1.314, 1.387e-3
-1.315, 1.348e-3
-1.316, 1.323e-3
-1.317, 1.274e-3
-1.318, 1.211e-3
-1.319, 1.173e-3
-1.320, 1.151e-3
-1.321, 1.096e-3
-1.322, 1.044e-3
-1.323, 1.004e-3
-1.324, 9.763e-4
-1.325, 9.355e-4
-1.326, 8.780e-4
-1.327, 8.483e-4
-1.328, 8.323e-4
-1.329, 7.856e-4
-1.330, 7.461e-4
-1.331, 7.166e-4
-1.332, 7.029e-4
-1.333, 6.811e-4
-1.334, 6.536e-4
-1.335, 6.445e-4
-1.336, 6.343e-4
-1.337, 6.200e-4
-1.338, 6.025e-4
-1.339, 5.985e-4
-1.340, 5.923e-4
-1.341, 5.797e-4
-1.342, 5.784e-4
-1.343, 5.762e-4
-1.344, 5.727e-4
-1.345, 5.770e-4
-1.346, 5.799e-4
-1.347, 5.809e-4
-1.348, 5.728e-4
-1.349, 5.786e-4
-1.350, 5.813e-4
-1.351, 5.775e-4
-1.352, 5.850e-4
-1.353, 5.920e-4
-1.354, 5.920e-4
-1.355, 5.933e-4
-1.356, 6.044e-4
-1.357, 6.096e-4
-1.358, 6.077e-4
-1.359, 6.132e-4
-1.360, 6.266e-4
-1.361, 6.378e-4
-1.362, 6.414e-4
-1.363, 6.478e-4
-1.364, 6.531e-4
-1.365, 6.563e-4
-1.366, 6.662e-4
-1.367, 6.745e-4
-1.368, 6.877e-4
-1.369, 6.964e-4
-1.370, 7.071e-4
-1.371, 7.208e-4
-1.372, 7.292e-4
-1.373, 7.381e-4
-1.374, 7.498e-4
-1.375, 7.559e-4
-1.376, 7.715e-4
-1.377, 7.868e-4
-1.378, 7.958e-4
-1.379, 8.019e-4
-1.380, 8.221e-4
-1.381, 8.413e-4
-1.382, 8.529e-4
-1.383, 8.676e-4
-1.384, 8.837e-4
-1.385, 8.955e-4
-1.386, 9.088e-4
-1.387, 9.249e-4
-1.388, 9.499e-4
-1.389, 9.611e-4
-1.390, 9.676e-4
-1.391, 9.954e-4
-1.392, 1.023e-3
-1.393, 1.030e-3
-1.394, 1.052e-3
-1.395, 1.080e-3
-1.396, 1.099e-3
-1.397, 1.109e-3
-1.398, 1.125e-3
-1.399, 1.148e-3
-1.400, 1.172e-3
-1.401, 1.195e-3
-1.402, 1.215e-3
-1.403, 1.229e-3
-1.404, 1.256e-3
-1.405, 1.290e-3
-1.406, 1.313e-3
-1.407, 1.324e-3
-1.408, 1.349e-3
-1.409, 1.368e-3
-1.410, 1.391e-3
-1.411, 1.427e-3
-1.412, 1.458e-3
-1.413, 1.471e-3
-1.414, 1.493e-3
-1.415, 1.524e-3
-1.416, 1.547e-3
-1.417, 1.569e-3
-1.418, 1.607e-3
-1.419, 1.637e-3
-1.420, 1.639e-3
-1.421, 1.671e-3
-1.422, 1.723e-3
-1.423, 1.739e-3
-1.424, 1.752e-3
-1.425, 1.809e-3
-1.426, 1.828e-3
-1.427, 1.838e-3
-1.428, 1.884e-3
-1.429, 1.924e-3
-1.430, 1.936e-3
-1.431, 1.965e-3
-1.432, 1.995e-3
-1.433, 2.036e-3
-1.434, 2.070e-3
-1.435, 2.084e-3
-1.436, 2.123e-3
-1.437, 2.171e-3
-1.438, 2.175e-3
-1.439, 2.197e-3
-1.440, 2.266e-3
-1.441, 2.307e-3
-1.442, 2.333e-3
-1.443, 2.347e-3
-1.444, 2.401e-3
-1.445, 2.416e-3
-1.446, 2.418e-3
-1.447, 2.466e-3
-1.448, 2.527e-3
-1.449, 2.564e-3
-1.450, 2.617e-3
-1.451, 2.653e-3
-1.452, 2.645e-3
-1.453, 2.683e-3
-1.454, 2.749e-3
-1.455, 2.774e-3
-1.456, 2.783e-3
-1.457, 2.839e-3
-1.458, 2.896e-3
-1.459, 2.899e-3
-1.460, 2.922e-3
-1.461, 2.991e-3
-1.462, 3.009e-3
-1.463, 3.073e-3
-1.464, 3.088e-3
-1.465, 3.128e-3
-1.466, 3.173e-3
-1.467, 3.172e-3
-1.468, 3.233e-3
-1.469, 3.354e-3
-1.470, 3.431e-3
-1.471, 3.411e-3
-1.472, 3.435e-3
-1.473, 3.495e-3
-1.474, 3.528e-3
-1.475, 3.570e-3
-1.476, 3.577e-3
-1.477, 3.558e-3
-1.478, 3.617e-3
-1.479, 3.690e-3
-1.480, 3.722e-3
-1.481, 3.775e-3
-1.482, 3.805e-3
-1.483, 3.788e-3
-1.484, 3.784e-3
-1.485, 3.836e-3
-1.486, 3.911e-3
-1.487, 3.986e-3
-1.488, 4.015e-3
-1.489, 4.059e-3
-1.490, 4.122e-3
-1.491, 4.122e-3
-1.492, 4.153e-3
-1.493, 4.211e-3
-1.494, 4.235e-3
-1.495, 4.275e-3
-1.496, 4.313e-3
-1.497, 4.413e-3
-1.498, 4.422e-3
-1.499, 4.422e-3
-1.500, 4.479e-3
-1.501, 4.542e-3
-1.502, 4.606e-3
-1.503, 4.569e-3
-1.504, 4.575e-3
-1.505, 4.697e-3
-1.506, 4.764e-3
-1.507, 4.721e-3
-1.508, 4.791e-3
-1.509, 4.855e-3
-1.510, 4.858e-3
-1.511, 4.925e-3
-1.512, 4.979e-3
-1.513, 4.996e-3
-1.514, 5.042e-3
-1.515, 5.075e-3
-1.516, 5.123e-3
-1.517, 5.143e-3
-1.518, 5.145e-3
-1.519, 5.241e-3
-1.520, 5.269e-3
-1.521, 5.260e-3
-1.522, 5.313e-3
-1.523, 5.346e-3
-1.524, 5.362e-3
-1.525, 5.414e-3
-1.526, 5.478e-3
-1.527, 5.507e-3
-1.528, 5.564e-3
-1.529, 5.582e-3
-1.530, 5.582e-3
-1.531, 5.609e-3
-1.532, 5.736e-3
-1.533, 5.763e-3
-1.534, 5.790e-3
-1.535, 5.895e-3
-1.536, 6.047e-3
-1.537, 6.039e-3
-1.538, 6.027e-3
-1.539, 6.050e-3
-1.540, 6.058e-3
-1.541, 6.068e-3
-1.542, 6.122e-3
-1.543, 6.207e-3
-1.544, 6.278e-3
-1.545, 6.398e-3
-1.546, 6.477e-3
-1.547, 6.456e-3
-1.548, 6.505e-3
-1.549, 6.612e-3
-1.550, 6.603e-3
-1.551, 6.608e-3
-1.552, 6.819e-3
-1.553, 6.732e-3
-1.554, 6.754e-3
-1.555, 6.862e-3
-1.556, 6.844e-3
-1.557, 6.886e-3
-1.558, 6.923e-3
-1.559, 6.938e-3
-1.560, 6.950e-3
-1.561, 6.998e-3
-1.562, 7.060e-3
-1.563, 7.091e-3
-1.564, 7.122e-3
-1.565, 7.207e-3
-1.566, 7.221e-3
-1.567, 7.175e-3
-1.568, 7.295e-3
-1.569, 7.284e-3
-1.570, 7.264e-3
-1.571, 7.335e-3
-1.572, 7.362e-3
-1.573, 7.395e-3
-1.574, 7.429e-3
-1.575, 7.431e-3
-1.576, 7.551e-3
-1.577, 7.687e-3
-1.578, 7.570e-3
-1.579, 7.590e-3
-1.580, 7.718e-3
-1.581, 7.729e-3
-1.582, 7.641e-3
-1.583, 7.649e-3
-1.584, 7.681e-3
-1.585, 7.803e-3
-1.586, 7.799e-3
-1.587, 7.781e-3
-1.588, 8.041e-3
-1.589, 8.206e-3
-1.590, 8.136e-3
-1.591, 8.174e-3
-1.592, 8.202e-3
-1.593, 8.188e-3
-1.594, 8.369e-3
-1.595, 8.526e-3
-1.596, 8.542e-3
-1.597, 8.469e-3
-1.598, 8.418e-3
-1.599, 8.511e-3
-1.600, 8.523e-3
-1.599, 8.444e-3
-1.598, 8.363e-3
-1.597, 8.329e-3
-1.596, 8.326e-3
-1.595, 8.127e-3
-1.594, 8.067e-3
-1.593, 8.037e-3
-1.592, 7.885e-3
-1.591, 8.020e-3
-1.590, 8.200e-3
-1.589, 8.194e-3
-1.588, 8.141e-3
-1.587, 8.144e-3
-1.586, 8.055e-3
-1.585, 8.030e-3
-1.584, 8.084e-3
-1.583, 8.111e-3
-1.582, 7.940e-3
-1.581, 7.891e-3
-1.580, 7.886e-3
-1.579, 7.771e-3
-1.578, 7.680e-3
-1.577, 7.584e-3
-1.576, 7.601e-3
-1.575, 7.481e-3
-1.574, 7.392e-3
-1.573, 7.375e-3
-1.572, 7.288e-3
-1.571, 7.196e-3
-1.570, 7.158e-3
-1.569, 7.139e-3
-1.568, 7.116e-3
-1.567, 6.954e-3
-1.566, 6.992e-3
-1.565, 6.890e-3
-1.564, 6.819e-3
-1.563, 6.780e-3
-1.562, 6.754e-3
-1.561, 6.754e-3
-1.560, 6.561e-3
-1.559, 6.500e-3
-1.558, 6.509e-3
-1.557, 6.431e-3
-1.556, 6.311e-3
-1.555, 6.264e-3
-1.554, 6.280e-3
-1.553, 6.231e-3
-1.552, 6.165e-3
-1.551, 6.144e-3
-1.550, 6.035e-3
-1.549, 5.980e-3
-1.548, 5.929e-3
-1.547, 5.864e-3
-1.546, 5.776e-3
-1.545, 5.725e-3
-1.544, 5.733e-3
-1.543, 5.764e-3
-1.542, 5.620e-3
-1.541, 5.622e-3
-1.540, 5.590e-3
-1.539, 5.499e-3
-1.538, 5.556e-3
-1.537, 5.501e-3
-1.536, 5.541e-3
-1.535, 5.478e-3
-1.534, 5.395e-3
-1.533, 5.464e-3
-1.532, 5.359e-3
-1.531, 5.357e-3
-1.530, 5.266e-3
-1.529, 5.162e-3
-1.528, 5.103e-3
-1.527, 5.101e-3
-1.526, 5.113e-3
-1.525, 5.076e-3
-1.524, 5.051e-3
-1.523, 5.037e-3
-1.522, 4.998e-3
-1.521, 4.891e-3
-1.520, 4.862e-3
-1.519, 4.768e-3
-1.518, 4.733e-3
-1.517, 4.765e-3
-1.516, 4.770e-3
-1.515, 4.636e-3
-1.514, 4.611e-3
-1.513, 4.526e-3
-1.512, 4.477e-3
-1.511, 4.445e-3
-1.510, 4.396e-3
-1.509, 4.356e-3
-1.508, 4.281e-3
-1.507, 4.251e-3
-1.506, 4.184e-3
-1.505, 4.205e-3
-1.504, 4.161e-3
-1.503, 4.079e-3
-1.502, 4.020e-3
-1.501, 3.957e-3
-1.500, 3.924e-3
-1.499, 3.916e-3
-1.498, 3.875e-3
-1.497, 3.821e-3
-1.496, 3.841e-3
-1.495, 3.808e-3
-1.494, 3.713e-3
-1.493, 3.651e-3
-1.492, 3.637e-3
-1.491, 3.627e-3
-1.490, 3.548e-3
-1.489, 3.537e-3
-1.488, 3.517e-3
-1.487, 3.464e-3
-1.486, 3.390e-3
-1.485, 3.377e-3
-1.484, 3.355e-3
-1.483, 3.303e-3
-1.482, 3.267e-3
-1.481, 3.202e-3
-1.480, 3.227e-3
-1.479, 3.184e-3
-1.478, 3.168e-3
-1.477, 3.102e-3
-1.476, 3.076e-3
-1.475, 3.052e-3
-1.474, 3.016e-3
-1.473, 2.961e-3
-1.472, 2.916e-3
-1.471, 2.884e-3
-1.470, 2.842e-3
-1.469, 2.805e-3
-1.468, 2.776e-3
-1.467, 2.739e-3
-1.466, 2.720e-3
-1.465, 2.732e-3
-1.464, 2.647e-3
-1.463, 2.610e-3
-1.462, 2.578e-3
-1.461, 2.541e-3
-1.460, 2.518e-3
-1.459, 2.487e-3
-1.458, 2.440e-3
-1.457, 2.436e-3
-1.456, 2.424e-3
-1.455, 2.360e-3
-1.454, 2.326e-3
-1.453, 2.294e-3
-1.452, 2.282e-3
-1.451, 2.246e-3
-1.450, 2.209e-3
-1.449, 2.168e-3
-1.448, 2.166e-3
-1.447, 2.103e-3
-1.446, 2.097e-3
-1.445, 2.075e-3
-1.444, 2.030e-3
-1.443, 2.018e-3
-1.442, 1.994e-3
-1.441, 1.938e-3
-1.440, 1.925e-3
-1.439, 1.905e-3
-1.438, 1.866e-3
-1.437, 1.835e-3
-1.436, 1.819e-3
-1.435, 1.789e-3
-1.434, 1.751e-3
-1.433, 1.778e-3
-1.432, 1.728e-3
-1.431, 1.676e-3
-1.430, 1.651e-3
-1.429, 1.635e-3
-1.428, 1.603e-3
-1.427, 1.580e-3
-1.426, 1.561e-3
-1.425, 1.539e-3
-1.424, 1.507e-3
-1.423, 1.474e-3
-1.422, 1.463e-3
-1.421, 1.434e-3
-1.420, 1.406e-3
-1.419, 1.394e-3
-1.418, 1.366e-3
-1.417, 1.419e-3
-1.416, 1.362e-3
-1.415, 1.355e-3
-1.414, 1.325e-3
-1.413, 1.306e-3
-1.412, 1.286e-3
-1.411, 1.265e-3
-1.410, 1.236e-3
-1.409, 1.220e-3
-1.408, 1.209e-3
-1.407, 1.176e-3
-1.406, 1.142e-3
-1.405, 1.130e-3
-1.404, 1.119e-3
-1.403, 1.105e-3
-1.402, 1.089e-3
-1.401, 1.060e-3
-1.400, 1.048e-3
-1.399, 1.028e-3
-1.398, 9.984e-4
-1.397, 9.764e-4
-1.396, 9.589e-4
-1.395, 9.483e-4
-1.394, 9.347e-4
-1.393, 9.107e-4
-1.392, 8.870e-4
-1.391, 8.741e-4
-1.390, 8.485e-4
-1.389, 8.314e-4
-1.388, 8.128e-4
-1.387, 7.970e-4
-1.386, 7.812e-4
-1.385, 7.707e-4
-1.384, 7.528e-4
-1.383, 7.271e-4
-1.382, 7.162e-4
-1.381, 7.035e-4
-1.380, 6.936e-4
-1.379, 6.676e-4
-1.378, 6.515e-4
-1.377, 6.474e-4
-1.376, 6.255e-4
-1.375, 6.031e-4
-1.374, 5.957e-4
-1.373, 5.922e-4
-1.372, 5.683e-4
-1.371, 5.483e-4
-1.370, 5.403e-4
-1.369, 5.284e-4
-1.368, 5.125e-4
-1.367, 5.007e-4
-1.366, 4.957e-4
-1.365, 4.775e-4
-1.364, 4.600e-4
-1.363, 4.478e-4
-1.362, 4.368e-4
-1.361, 4.293e-4
-1.360, 4.159e-4
-1.359, 4.057e-4
-1.358, 3.938e-4
-1.357, 3.828e-4
-1.356, 3.699e-4
-1.355, 3.621e-4
-1.354, 3.514e-4
-1.353, 3.399e-4
-1.352, 3.291e-4
-1.351, 3.211e-4
-1.350, 3.085e-4
-1.349, 2.995e-4
-1.348, 2.927e-4
-1.347, 2.819e-4
-1.346, 2.738e-4
-1.345, 2.668e-4
-1.344, 2.553e-4
-1.343, 2.469e-4
-1.342, 2.397e-4
-1.341, 2.333e-4
-1.340, 2.207e-4
-1.339, 2.104e-4
-1.338, 2.014e-4
-1.337, 1.963e-4
-1.336, 1.938e-4
-1.335, 1.852e-4
-1.334, 1.770e-4
-1.333, 1.693e-4
-1.332, 1.597e-4
-1.331, 1.552e-4
-1.330, 1.474e-4
-1.329, 1.392e-4
-1.328, 1.321e-4
-1.327, 1.267e-4
-1.326, 1.214e-4
-1.325, 1.150e-4
-1.324, 1.091e-4
-1.323, 1.038e-4
-1.322, 9.719e-5
-1.321, 9.153e-5
-1.320, 8.702e-5
-1.319, 8.034e-5
-1.318, 7.370e-5
-1.317, 6.856e-5
-1.316, 6.365e-5
-1.315, 5.964e-5
-1.314, 5.519e-5
-1.313, 4.877e-5
-1.312, 4.413e-5
-1.311, 4.049e-5
-1.310, 3.569e-5
-1.309, 3.111e-5
-1.308, 2.597e-5
-1.307, 2.119e-5
-1.306, 1.757e-5
-1.305, 1.377e-5
-1.304, 9.614e-6
-1.303, 5.130e-6
-1.302, 8.029e-7
-1.301, -2.343e-6
-1.300, -5.952e-6
-1.299, -1.011e-5
-1.298, -1.388e-5
-1.297, -1.757e-5
-1.296, -2.035e-5
-1.295, -2.362e-5
-1.294, -2.750e-5
-1.293, -3.141e-5
-1.292, -3.500e-5
-1.291, -3.681e-5
-1.290, -3.928e-5
-1.289, -4.317e-5
-1.288, -4.609e-5
-1.287, -5.000e-5
-1.286, -5.196e-5
-1.285, -5.388e-5
-1.284, -5.690e-5
-1.283, -6.019e-5
-1.282, -6.296e-5
-1.281, -6.506e-5
-1.280, -6.793e-5
-1.279, -7.013e-5
-1.278, -7.266e-5
-1.277, -7.526e-5
-1.276, -7.747e-5
-1.275, -7.977e-5
-1.274, -8.256e-5
-1.273, -8.524e-5
-1.272, -8.626e-5
-1.271, -8.776e-5
-1.270, -8.955e-5
-1.269, -9.329e-5
-1.268, -9.635e-5
-1.267, -9.647e-5
-1.266, -9.758e-5
-1.265, -1.016e-4
-1.264, -1.024e-4
-1.263, -1.031e-4
-1.262, -1.058e-4
-1.261, -1.083e-4
-1.260, -1.095e-4
-1.259, -1.102e-4
-1.258, -1.123e-4
-1.257, -1.148e-4
-1.256, -1.157e-4
-1.255, -1.177e-4
-1.254, -1.194e-4
-1.253, -1.211e-4
-1.252, -1.228e-4
-1.251, -1.247e-4
-1.250, -1.238e-4
-1.249, -1.254e-4
-1.248, -1.301e-4
-1.247, -1.300e-4
-1.246, -1.296e-4
-1.245, -1.326e-4
-1.244, -1.339e-4
-1.243, -1.352e-4
-1.242, -1.360e-4
-1.241, -1.376e-4
-1.240, -1.382e-4
-1.239, -1.394e-4
-1.238, -1.416e-4
-1.237, -1.433e-4
-1.236, -1.449e-4
-1.235, -1.453e-4
-1.234, -1.453e-4
-1.233, -1.475e-4
-1.232, -1.548e-4
-1.231, -1.534e-4
-1.230, -1.498e-4
-1.229, -1.514e-4
-1.228, -1.532e-4
-1.227, -1.538e-4
-1.226, -1.552e-4
-1.225, -1.581e-4
-1.224, -1.588e-4
-1.223, -1.596e-4
-1.222, -1.607e-4
-1.221, -1.629e-4
-1.220, -1.630e-4
-1.219, -1.628e-4
-1.218, -1.638e-4
-1.217, -1.658e-4
-1.216, -1.680e-4
-1.215, -1.685e-4
-1.214, -1.689e-4
-1.213, -1.702e-4
-1.212, -1.742e-4
-1.211, -1.726e-4
-1.210, -1.725e-4
-1.209, -1.754e-4
-1.208, -1.774e-4
-1.207, -1.776e-4
-1.206, -1.778e-4
-1.205, -1.786e-4
-1.204, -1.799e-4
-1.203, -1.814e-4
-1.202, -1.834e-4
-1.201, -1.838e-4
-1.200, -1.843e-4
-1.199, -1.868e-4
-1.198, -1.877e-4
-1.197, -1.878e-4
-1.196, -1.903e-4
-1.195, -1.897e-4
-1.194, -1.914e-4
-1.193, -1.962e-4
-1.192, -1.954e-4
-1.191, -1.945e-4
-1.190, -1.954e-4
-1.189, -1.984e-4
-1.188, -2.016e-4
-1.187, -2.007e-4
-1.186, -2.052e-4
-1.185, -2.043e-4
-1.184, -2.056e-4
-1.183, -2.096e-4
-1.182, -2.065e-4
-1.181, -2.073e-4
-1.180, -2.094e-4
-1.179, -2.118e-4
-1.178, -2.133e-4
-1.177, -2.164e-4
-1.176, -2.196e-4
-1.175, -2.197e-4
-1.174, -2.232e-4
-1.173, -2.242e-4
-1.172, -2.240e-4
-1.171, -2.255e-4
-1.170, -2.262e-4
-1.169, -2.270e-4
-1.168, -2.327e-4
-1.167, -2.362e-4
-1.166, -2.349e-4
-1.165, -2.354e-4
-1.164, -2.390e-4
-1.163, -2.443e-4
-1.162, -2.454e-4
-1.161, -2.486e-4
-1.160, -2.500e-4
-1.159, -2.517e-4
-1.158, -2.549e-4
-1.157, -2.586e-4
-1.156, -2.611e-4
-1.155, -2.639e-4
-1.154, -2.702e-4
-1.153, -2.721e-4
-1.152, -2.793e-4
-1.151, -2.845e-4
-1.150, -2.870e-4
-1.149, -2.933e-4
-1.148, -3.020e-4
-1.147, -3.071e-4
-1.146, -3.157e-4
-1.145, -3.311e-4
-1.144, -3.423e-4
-1.143, -3.505e-4
-1.142, -3.627e-4
-1.141, -3.803e-4
-1.140, -4.006e-4
-1.139, -4.128e-4
-1.138, -4.311e-4
-1.137, -4.514e-4
-1.136, -4.699e-4
-1.135, -4.885e-4
-1.134, -5.085e-4
-1.133, -5.319e-4
-1.132, -5.518e-4
-1.131, -5.746e-4
-1.130, -5.965e-4
-1.129, -6.158e-4
-1.128, -6.344e-4
-1.127, -6.527e-4
-1.126, -6.691e-4
-1.125, -6.862e-4
-1.124, -7.081e-4
-1.123, -7.303e-4
-1.122, -7.492e-4
-1.121, -7.558e-4
-1.120, -7.677e-4
-1.119, -7.912e-4
-1.118, -8.109e-4
-1.117, -8.180e-4
-1.116, -8.338e-4
-1.115, -8.477e-4
-1.114, -8.655e-4
-1.113, -8.814e-4
-1.112, -8.922e-4
-1.111, -9.068e-4
-1.110, -9.183e-4
-1.109, -9.290e-4
-1.108, -9.573e-4
-1.107, -9.666e-4
-1.106, -9.595e-4
-1.105, -9.955e-4
-1.104, -1.012e-3
-1.103, -1.009e-3
-1.102, -1.024e-3
-1.101, -1.042e-3
-1.100, -1.040e-3
-1.099, -1.053e-3
-1.098, -1.072e-3
-1.097, -1.084e-3
-1.096, -1.101e-3
-1.095, -1.109e-3
-1.094, -1.120e-3
-1.093, -1.143e-3
-1.092, -1.143e-3
-1.091, -1.147e-3
-1.090, -1.156e-3
-1.089, -1.176e-3
-1.088, -1.198e-3
-1.087, -1.199e-3
-1.086, -1.207e-3
-1.085, -1.219e-3
-1.084, -1.232e-3
-1.083, -1.237e-3
-1.082, -1.255e-3
-1.081, -1.255e-3
-1.080, -1.270e-3
-1.079, -1.271e-3
-1.078, -1.289e-3
-1.077, -1.298e-3
-1.076, -1.299e-3
-1.075, -1.306e-3
-1.074, -1.320e-3
-1.073, -1.347e-3
-1.072, -1.345e-3
-1.071, -1.348e-3
-1.070, -1.352e-3
-1.069, -1.355e-3
-1.068, -1.363e-3
-1.067, -1.372e-3
-1.066, -1.381e-3
-1.065, -1.383e-3
-1.064, -1.388e-3
-1.063, -1.429e-3
-1.062, -1.416e-3
-1.061, -1.415e-3
-1.060, -1.412e-3
-1.059, -1.421e-3
-1.058, -1.413e-3
-1.057, -1.423e-3
-1.056, -1.445e-3
-1.055, -1.440e-3
-1.054, -1.437e-3
-1.053, -1.437e-3
-1.052, -1.455e-3
-1.051, -1.449e-3
-1.050, -1.444e-3
-1.049, -1.456e-3
-1.048, -1.459e-3
-1.047, -1.457e-3
-1.046, -1.449e-3
-1.045, -1.446e-3
-1.044, -1.463e-3
-1.043, -1.457e-3
-1.042, -1.479e-3
-1.041, -1.464e-3
-1.040, -1.452e-3
-1.039, -1.461e-3
-1.038, -1.450e-3
-1.037, -1.448e-3
-1.036, -1.459e-3
-1.035, -1.459e-3
-1.034, -1.453e-3
-1.033, -1.449e-3
-1.032, -1.429e-3
-1.031, -1.421e-3
-1.030, -1.422e-3
-1.029, -1.419e-3
-1.028, -1.430e-3
-1.027, -1.409e-3
-1.026, -1.397e-3
-1.025, -1.406e-3
-1.024, -1.426e-3
-1.023, -1.396e-3
-1.022, -1.376e-3
-1.021, -1.376e-3
-1.020, -1.374e-3
-1.019, -1.369e-3
-1.018, -1.353e-3
-1.017, -1.353e-3
-1.016, -1.349e-3
-1.015, -1.341e-3
-1.014, -1.316e-3
-1.013, -1.314e-3
-1.012, -1.315e-3
-1.011, -1.294e-3
-1.010, -1.287e-3
-1.009, -1.291e-3
-1.008, -1.284e-3
-1.007, -1.273e-3
-1.006, -1.251e-3
-1.005, -1.238e-3
-1.004, -1.240e-3
-1.003, -1.228e-3
-1.002, -1.223e-3
-1.001, -1.214e-3
-1.000, -1.149e-3
-1.001, -1.069e-3
-1.002, -1.014e-3
-1.003, -9.568e-4
-1.004, -9.107e-4
-1.005, -8.742e-4
-1.006, -8.378e-4
-1.007, -8.143e-4
-1.008, -7.721e-4
-1.009, -7.405e-4
-1.010, -7.154e-4
-1.011, -7.012e-4
-1.012, -6.686e-4
-1.013, -6.377e-4
-1.014, -6.193e-4
-1.015, -6.052e-4
-1.016, -5.820e-4
-1.017, -5.587e-4
-1.018, -5.412e-4
-1.019, -5.261e-4
-1.020, -5.159e-4
-1.021, -5.047e-4
-1.022, -4.839e-4
-1.023, -4.662e-4
-1.024, -4.485e-4
-1.025, -4.362e-4
-1.026, -4.218e-4
-1.027, -4.100e-4
-1.028, -4.032e-4
-1.029, -3.943e-4
-1.030, -3.865e-4
-1.031, -3.693e-4
-1.032, -3.552e-4
-1.033, -3.442e-4
-1.034, -3.362e-4
-1.035, -3.230e-4
-1.036, -3.149e-4
-1.037, -3.097e-4
-1.038, -2.993e-4
-1.039, -2.907e-4
-1.040, -2.800e-4
-1.041, -2.731e-4
-1.042, -2.644e-4
-1.043, -2.556e-4
-1.044, -2.476e-4
-1.045, -2.399e-4
-1.046, -2.336e-4
-1.047, -2.241e-4
-1.048, -2.163e-4
-1.049, -2.113e-4
-1.050, -2.024e-4
-1.051, -1.973e-4
-1.052, -1.882e-4
-1.053, -1.818e-4
-1.054, -1.751e-4
-1.055, -1.685e-4
-1.056, -1.651e-4
-1.057, -1.557e-4
-1.058, -1.484e-4
-1.059, -1.423e-4
-1.060, -1.364e-4
-1.061, -1.259e-4
-1.062, -1.183e-4
-1.063, -1.068e-4
-1.064, -9.603e-5
-1.065, -9.541e-5
-1.066, -9.353e-5
-1.067, -8.355e-5
-1.068, -7.591e-5
-1.069, -7.144e-5
-1.070, -6.923e-5
-1.071, -6.391e-5
-1.072, -5.520e-5
-1.073, -4.841e-5
-1.074, -4.424e-5
-1.075, -3.747e-5
-1.076, -3.287e-5
-1.077, -3.049e-5
-1.078, -2.366e-5
-1.079, -1.599e-5
-1.080, -9.369e-6
-1.081, -5.413e-6
-1.082, -3.322e-6
-1.083, 1.520e-6
-1.084, 9.871e-6
-1.085, 1.700e-5
-1.086, 2.171e-5
-1.087, 2.572e-5
-1.088, 2.972e-5
-1.089, 3.610e-5
-1.090, 4.232e-5
-1.091, 4.714e-5
-1.092, 5.205e-5
-1.093, 5.706e-5
-1.094, 6.277e-5
-1.095, 6.778e-5
-1.096, 7.310e-5
-1.097, 7.838e-5
-1.098, 8.307e-5
-1.099, 8.771e-5
-1.100, 9.395e-5
-1.101, 1.003e-4
-1.102, 1.058e-4
-1.103, 1.089e-4
-1.104, 1.127e-4
-1.105, 1.188e-4
-1.106, 1.240e-4
-1.107, 1.292e-4
-1.108, 1.364e-4
-1.109, 1.401e-4
-1.110, 1.445e-4
-1.111, 1.522e-4
-1.112, 1.552e-4
-1.113, 1.543e-4
-1.114, 1.577e-4
-1.115, 1.641e-4
-1.116, 1.757e-4
-1.117, 1.843e-4
-1.118, 1.867e-4
-1.119, 1.914e-4
-1.120, 1.937e-4
-1.121, 1.979e-4
-1.122, 2.006e-4
-1.123, 2.051e-4
-1.124, 2.132e-4
-1.125, 2.184e-4
-1.126, 2.257e-4
-1.127, 2.317e-4
-1.128, 2.351e-4
-1.129, 2.378e-4
-1.130, 2.395e-4
-1.131, 2.397e-4
-1.132, 2.464e-4
-1.133, 2.605e-4
-1.134, 2.690e-4
-1.135, 2.713e-4
-1.136, 2.738e-4
-1.137, 2.785e-4
-1.138, 2.826e-4
-1.139, 2.856e-4
-1.140, 2.839e-4
-1.141, 2.878e-4
-1.142, 2.998e-4
-1.143, 3.122e-4
-1.144, 3.113e-4
-1.145, 3.142e-4
-1.146, 3.273e-4
-1.147, 3.325e-4
-1.148, 3.287e-4
-1.149, 3.318e-4
-1.150, 3.428e-4
-1.151, 3.546e-4
-1.152, 3.513e-4
-1.153, 3.547e-4
-1.154, 3.660e-4
-1.155, 3.755e-4
-1.156, 3.838e-4
-1.157, 3.878e-4
-1.158, 3.818e-4
-1.159, 3.817e-4
-1.160, 3.848e-4
-1.161, 3.971e-4
-1.162, 4.138e-4
-1.163, 4.273e-4
-1.164, 4.272e-4
-1.165, 4.169e-4
-1.166, 4.182e-4
-1.167, 4.322e-4
-1.168, 4.562e-4
-1.169, 4.623e-4
-1.170, 4.672e-4
-1.171, 4.819e-4
-1.172, 4.643e-4
-1.173, 4.521e-4
-1.174, 4.694e-4
-1.175, 4.886e-4
-1.176, 4.864e-4
-1.177, 4.974e-4
-1.178, 5.163e-4
-1.179, 5.262e-4
-1.180, 5.283e-4
-1.181, 5.246e-4
-1.182, 5.345e-4
-1.183, 5.475e-4
-1.184, 5.606e-4
-1.185, 5.656e-4
-1.186, 5.563e-4
-1.187, 5.639e-4
-1.188, 5.838e-4
-1.189, 5.838e-4
-1.190, 5.926e-4
-1.191, 6.044e-4
-1.192, 6.143e-4
-1.193, 6.164e-4
-1.194, 6.270e-4
-1.195, 6.338e-4
-1.196, 6.474e-4
-1.197, 6.585e-4
-1.198, 6.719e-4
-1.199, 6.715e-4
-1.200, 6.735e-4
-1.201, 7.020e-4
-1.202, 7.069e-4
-1.203, 6.827e-4
-1.204, 6.900e-4
-1.205, 7.399e-4
-1.206, 7.741e-4
-1.207, 7.663e-4
-1.208, 7.577e-4
-1.209, 7.450e-4
-1.210, 7.468e-4
-1.211, 7.761e-4
-1.212, 8.244e-4
-1.213, 8.323e-4
-1.214, 8.132e-4
-1.215, 8.085e-4
-1.216, 8.390e-4
-1.217, 8.710e-4
-1.218, 8.707e-4
-1.219, 8.593e-4
-1.220, 8.769e-4
-1.221, 9.057e-4
-1.222, 9.047e-4
-1.223, 9.077e-4
-1.224, 9.357e-4
-1.225, 9.755e-4
-1.226, 9.687e-4
-1.227, 9.575e-4
-1.228, 9.734e-4
-1.229, 9.987e-4
-1.230, 9.959e-4
-1.231, 1.020e-3
-1.232, 1.061e-3
-1.233, 1.102e-3
-1.234, 1.092e-3
-1.235, 1.054e-3
-1.236, 1.045e-3
-1.237, 1.078e-3
-1.238, 1.110e-3
-1.239, 1.151e-3
-1.240, 1.184e-3
-1.241, 1.185e-3
-1.242, 1.190e-3
-1.243, 1.216e-3
-1.244, 1.231e-3
-1.245, 1.217e-3
-1.246, 1.205e-3
-1.247, 1.224e-3
-1.248, 1.279e-3
-1.249, 1.316e-3
-1.250, 1.325e-3
-1.251, 1.345e-3
-1.252, 1.357e-3
-1.253, 1.346e-3
-1.254, 1.353e-3
-1.255, 1.363e-3
-1.256, 1.394e-3
-1.257, 1.397e-3
-1.258, 1.457e-3
-1.259, 1.510e-3
-1.260, 1.479e-3
-1.261, 1.459e-3
-1.262, 1.481e-3
-1.263, 1.526e-3
-1.264, 1.562e-3
-1.265, 1.556e-3
-1.266, 1.551e-3
-1.267, 1.611e-3
-1.268, 1.620e-3
-1.269, 1.574e-3
-1.270, 1.613e-3
-1.271, 1.716e-3
-1.272, 1.673e-3
-1.273, 1.618e-3
-1.274, 1.653e-3
-1.275, 1.714e-3
-1.276, 1.731e-3
-1.277, 1.709e-3
-1.278, 1.717e-3
-1.279, 1.756e-3
-1.280, 1.791e-3
-1.281, 1.773e-3
-1.282, 1.723e-3
-1.283, 1.752e-3
-1.284, 1.834e-3
-1.285, 1.794e-3
-1.286, 1.744e-3
-1.287, 1.746e-3
-1.288, 1.759e-3
-1.289, 1.797e-3
-1.290, 1.774e-3
-1.291, 1.766e-3
-1.292, 1.793e-3
-1.293, 1.771e-3
-1.294, 1.716e-3
-1.295, 1.683e-3
-1.296, 1.652e-3
-1.297, 1.671e-3
-1.298, 1.700e-3
-1.299, 1.634e-3
-1.300, 1.586e-3
-1.301, 1.645e-3
-1.302, 1.618e-3
-1.303, 1.494e-3
-1.304, 1.497e-3
-1.305, 1.568e-3
-1.306, 1.451e-3
-1.307, 1.379e-3
-1.308, 1.276e-3
-1.309, 1.218e-3
-1.310, 1.198e-3
-1.311, 1.199e-3
-1.312, 1.158e-3
-1.313, 1.149e-3
-1.314, 1.160e-3
-1.315, 1.107e-3
-1.316, 9.806e-4
-1.317, 9.154e-4
-1.318, 8.910e-4
-1.319, 8.881e-4
-1.320, 8.663e-4
-1.321, 8.444e-4
-1.322, 7.266e-4
-1.323, 6.683e-4
-1.324, 6.834e-4
-1.325, 7.164e-4
-1.326, 6.802e-4
-1.327, 6.559e-4
-1.328, 5.914e-4
-1.329, 5.356e-4
-1.330, 5.259e-4
-1.331, 5.548e-4
-1.332, 5.775e-4
-1.333, 5.758e-4
-1.334, 5.776e-4
-1.335, 5.404e-4
-1.336, 4.944e-4
-1.337, 5.382e-4
-1.338, 5.272e-4
-1.339, 4.785e-4
-1.340, 4.639e-4
-1.341, 4.726e-4
-1.342, 4.874e-4
-1.343, 5.440e-4
-1.344, 5.788e-4
-1.345, 5.313e-4
-1.346, 4.960e-4
-1.347, 5.066e-4
-1.348, 5.267e-4
-1.349, 5.319e-4
-1.350, 5.368e-4
-1.351, 5.442e-4
-1.352, 5.371e-4
-1.353, 5.470e-4
-1.354, 5.234e-4
-1.355, 5.303e-4
-1.356, 5.536e-4
-1.357, 5.662e-4
-1.358, 5.862e-4
-1.359, 5.803e-4
-1.360, 5.837e-4
-1.361, 6.013e-4
-1.362, 5.944e-4
-1.363, 5.993e-4
-1.364, 6.067e-4
-1.365, 6.162e-4
-1.366, 6.312e-4
-1.367, 6.431e-4
-1.368, 6.240e-4
-1.369, 6.508e-4
-1.370, 7.109e-4
-1.371, 7.229e-4
-1.372, 6.888e-4
-1.373, 6.711e-4
-1.374, 6.860e-4
-1.375, 7.138e-4
-1.376, 7.230e-4
-1.377, 7.583e-4
-1.378, 7.916e-4
-1.379, 7.889e-4
-1.380, 7.814e-4
-1.381, 7.685e-4
-1.382, 8.356e-4
-1.383, 8.735e-4
-1.384, 8.151e-4
-1.385, 8.116e-4
-1.386, 8.757e-4
-1.387, 9.449e-4
-1.388, 9.239e-4
-1.389, 9.215e-4
-1.390, 9.604e-4
-1.391, 9.664e-4
-1.392, 9.355e-4
-1.393, 9.433e-4
-1.394, 1.003e-3
-1.395, 1.034e-3
-1.396, 1.026e-3
-1.397, 1.052e-3
-1.398, 1.102e-3
-1.399, 1.130e-3
-1.400, 1.118e-3
-1.401, 1.117e-3
-1.402, 1.157e-3
-1.403, 1.205e-3
-1.404, 1.190e-3
-1.405, 1.174e-3
-1.406, 1.251e-3
-1.407, 1.303e-3
-1.408, 1.277e-3
-1.409, 1.282e-3
-1.410, 1.321e-3
-1.411, 1.370e-3
-1.412, 1.371e-3
-1.413, 1.367e-3
-1.414, 1.407e-3
-1.415, 1.474e-3
-1.416, 1.492e-3
-1.417, 1.504e-3
-1.418, 1.536e-3
-1.419, 1.561e-3
-1.420, 1.555e-3
-1.421, 1.556e-3
-1.422, 1.618e-3
-1.423, 1.720e-3
-1.424, 1.729e-3
-1.425, 1.695e-3
-1.426, 1.684e-3
-1.427, 1.769e-3
-1.428, 1.835e-3
-1.429, 1.870e-3
-1.430, 1.869e-3
-1.431, 1.851e-3
-1.432, 1.881e-3
-1.433, 1.949e-3
-1.434, 2.014e-3
-1.435, 2.035e-3
-1.436, 2.065e-3
-1.437, 2.115e-3
-1.438, 2.096e-3
-1.439, 2.079e-3
-1.440, 2.151e-3
-1.441, 2.270e-3
-1.442, 2.250e-3
-1.443, 2.207e-3
-1.444, 2.387e-3
-1.445, 2.422e-3
-1.446, 2.350e-3
-1.447, 2.323e-3
-1.448, 2.396e-3
-1.449, 2.513e-3
-1.450, 2.601e-3
-1.451, 2.549e-3
-1.452, 2.492e-3
-1.453, 2.618e-3
-1.454, 2.701e-3
-1.455, 2.714e-3
-1.456, 2.730e-3
-1.457, 2.790e-3
-1.458, 2.830e-3
-1.459, 2.851e-3
-1.460, 2.811e-3
-1.461, 2.855e-3
-1.462, 2.959e-3
-1.463, 3.080e-3
-1.464, 3.057e-3
-1.465, 3.025e-3
-1.466, 3.133e-3
-1.467, 3.193e-3
-1.468, 3.209e-3
-1.469, 3.224e-3
-1.470, 3.258e-3
-1.471, 3.318e-3
-1.472, 3.287e-3
-1.473, 3.321e-3
-1.474, 3.335e-3
-1.475, 3.386e-3
-1.476, 3.587e-3
-1.477, 3.613e-3
-1.478, 3.555e-3
-1.479, 3.588e-3
-1.480, 3.678e-3
-1.481, 3.740e-3
-1.482, 3.744e-3
-1.483, 3.732e-3
-1.484, 3.724e-3
-1.485, 3.747e-3
-1.486, 3.821e-3
-1.487, 4.002e-3
-1.488, 4.094e-3
-1.489, 3.993e-3
-1.490, 3.984e-3
-1.491, 4.114e-3
-1.492, 4.131e-3
-1.493, 4.116e-3
-1.494, 4.161e-3
-1.495, 4.167e-3
-1.496, 4.326e-3
-1.497, 4.435e-3
-1.498, 4.399e-3
-1.499, 4.348e-3
-1.500, 4.497e-3
-1.501, 4.622e-3
-1.502, 4.549e-3
-1.503, 4.494e-3
-1.504, 4.549e-3
-1.505, 4.725e-3
-1.506, 4.802e-3
-1.507, 4.790e-3
-1.508, 4.828e-3
-1.509, 4.894e-3
-1.510, 4.932e-3
-1.511, 4.896e-3
-1.512, 5.000e-3
-1.513, 5.147e-3
-1.514, 5.119e-3
-1.515, 5.014e-3
-1.516, 4.971e-3
-1.517, 5.066e-3
-1.518, 5.270e-3
-1.519, 5.376e-3
-1.520, 5.323e-3
-1.521, 5.267e-3
-1.522, 5.338e-3
-1.523, 5.513e-3
-1.524, 5.615e-3
-1.525, 5.455e-3
-1.526, 5.324e-3
-1.527, 5.452e-3
-1.528, 5.606e-3
-1.529, 5.790e-3
-1.530, 5.773e-3
-1.531, 5.711e-3
-1.532, 5.732e-3
-1.533, 5.836e-3
-1.534, 5.843e-3
-1.535, 5.804e-3
-1.536, 5.829e-3
-1.537, 5.885e-3
-1.538, 6.045e-3
-1.539, 6.223e-3
-1.540, 6.184e-3
-1.541, 6.026e-3
-1.542, 6.116e-3
-1.543, 6.256e-3
-1.544, 6.321e-3
-1.545, 6.297e-3
-1.546, 6.259e-3
-1.547, 6.343e-3
-1.548, 6.443e-3
-1.549, 6.430e-3
-1.550, 6.464e-3
-1.551, 6.537e-3
-1.552, 6.538e-3
-1.553, 6.543e-3
-1.554, 6.637e-3
-1.555, 6.655e-3
-1.556, 6.799e-3
-1.557, 6.793e-3
-1.558, 6.763e-3
-1.559, 6.825e-3
-1.560, 6.877e-3
-1.561, 6.891e-3
-1.562, 7.033e-3
-1.563, 7.128e-3
-1.564, 7.223e-3
-1.565, 7.068e-3
-1.566, 7.055e-3
-1.567, 7.196e-3
-1.568, 7.189e-3
-1.569, 7.222e-3
-1.570, 7.375e-3
-1.571, 7.384e-3
-1.572, 7.335e-3
-1.573, 7.329e-3
-1.574, 7.382e-3
-1.575, 7.352e-3
-1.576, 7.517e-3
-1.577, 7.561e-3
-1.578, 7.600e-3
-1.579, 7.508e-3
-1.580, 7.605e-3
-1.581, 7.745e-3
-1.582, 7.907e-3
-1.583, 8.046e-3
-1.584, 8.012e-3
-1.585, 7.973e-3
-1.586, 8.159e-3
-1.587, 8.214e-3
-1.588, 8.032e-3
-1.589, 8.134e-3
-1.590, 8.408e-3
-1.591, 8.511e-3
-1.592, 8.586e-3
-1.593, 8.463e-3
-1.594, 8.464e-3
-1.595, 8.584e-3
-1.596, 8.800e-3
-1.597, 8.838e-3
-1.598, 8.762e-3
-1.599, 8.711e-3
-1.600, 8.593e-3
-1.599, 8.630e-3
-1.598, 8.530e-3
-1.597, 8.350e-3
-1.596, 8.422e-3
-1.595, 8.821e-3
-1.594, 8.705e-3
-1.593, 8.344e-3
-1.592, 8.215e-3
-1.591, 8.118e-3
-1.590, 7.893e-3
-1.589, 7.918e-3
-1.588, 7.944e-3
-1.587, 7.986e-3
-1.586, 7.905e-3
-1.585, 7.765e-3
-1.584, 7.672e-3
-1.583, 7.659e-3
-1.582, 7.520e-3
-1.581, 7.431e-3
-1.580, 7.408e-3
-1.579, 7.426e-3
-1.578, 7.242e-3
-1.577, 7.116e-3
-1.576, 7.143e-3
-1.575, 7.129e-3
-1.574, 7.190e-3
-1.573, 7.126e-3
-1.572, 6.982e-3
-1.571, 6.844e-3
-1.570, 6.786e-3
-1.569, 6.822e-3
-1.568, 6.890e-3
-1.567, 6.688e-3
-1.566, 6.563e-3
-1.565, 6.785e-3
-1.564, 6.612e-3
-1.563, 6.320e-3
-1.562, 6.354e-3
-1.561, 6.455e-3
-1.560, 6.364e-3
-1.559, 6.330e-3
-1.558, 6.352e-3
-1.557, 6.238e-3
-1.556, 6.071e-3
-1.555, 5.882e-3
-1.554, 6.010e-3
-1.553, 6.099e-3
-1.552, 5.970e-3
-1.551, 5.857e-3
-1.550, 5.826e-3
-1.549, 5.885e-3
-1.548, 5.729e-3
-1.547, 5.568e-3
-1.546, 5.568e-3
-1.545, 5.588e-3
-1.544, 5.527e-3
-1.543, 5.492e-3
-1.542, 5.404e-3
-1.541, 5.289e-3
-1.540, 5.526e-3
-1.539, 5.410e-3
-1.538, 5.334e-3
-1.537, 5.219e-3
-1.536, 5.153e-3
-1.535, 5.080e-3
-1.534, 5.078e-3
-1.533, 5.080e-3
-1.532, 5.045e-3
-1.531, 5.087e-3
-1.530, 4.987e-3
-1.529, 5.004e-3
-1.528, 4.880e-3
-1.527, 4.796e-3
-1.526, 4.797e-3
-1.525, 4.811e-3
-1.524, 4.819e-3
-1.523, 4.760e-3
-1.522, 4.653e-3
-1.521, 4.535e-3
-1.520, 4.504e-3
-1.519, 4.466e-3
-1.518, 4.523e-3
-1.517, 4.437e-3
-1.516, 4.457e-3
-1.515, 4.527e-3
-1.514, 4.386e-3
-1.513, 4.260e-3
-1.512, 4.278e-3
-1.511, 4.237e-3
-1.510, 4.196e-3
-1.509, 4.177e-3
-1.508, 4.105e-3
-1.507, 4.040e-3
-1.506, 3.986e-3
-1.505, 4.058e-3
-1.504, 4.007e-3
-1.503, 3.849e-3
-1.502, 3.782e-3
-1.501, 3.891e-3
-1.500, 3.878e-3
-1.499, 3.691e-3
-1.498, 3.677e-3
-1.497, 3.831e-3
-1.496, 3.719e-3
-1.495, 3.578e-3
-1.494, 3.456e-3
-1.493, 3.517e-3
-1.492, 3.491e-3
-1.491, 3.457e-3
-1.490, 3.450e-3
-1.489, 3.534e-3
-1.488, 3.415e-3
-1.487, 3.291e-3
-1.486, 3.392e-3
-1.485, 3.500e-3
-1.484, 3.200e-3
-1.483, 3.049e-3
-1.482, 3.105e-3
-1.481, 3.156e-3
-1.480, 3.049e-3
-1.479, 2.988e-3
-1.478, 3.025e-3
-1.477, 3.029e-3
-1.476, 3.024e-3
-1.475, 2.923e-3
-1.474, 2.826e-3
-1.473, 2.836e-3
-1.472, 2.808e-3
-1.471, 2.723e-3
-1.470, 2.691e-3
-1.469, 2.753e-3
-1.468, 2.719e-3
-1.467, 2.671e-3
-1.466, 2.522e-3
-1.465, 2.509e-3
-1.464, 2.559e-3
-1.463, 2.560e-3
-1.462, 2.490e-3
-1.461, 2.411e-3
-1.460, 2.346e-3
-1.459, 2.327e-3
-1.458, 2.271e-3
-1.457, 2.272e-3
-1.456, 2.327e-3
-1.455, 2.287e-3
-1.454, 2.265e-3
-1.453, 2.205e-3
-1.452, 2.103e-3
-1.451, 2.072e-3
-1.450, 2.049e-3
-1.449, 2.091e-3
-1.448, 2.076e-3
-1.447, 2.007e-3
-1.446, 1.956e-3
-1.445, 1.957e-3
-1.444, 1.918e-3
-1.443, 1.901e-3
-1.442, 1.884e-3
-1.441, 1.865e-3
-1.440, 1.862e-3
-1.439, 1.758e-3
-1.438, 1.700e-3
-1.437, 1.772e-3
-1.436, 1.768e-3
-1.435, 1.699e-3
-1.434, 1.649e-3
-1.433, 1.606e-3
-1.432, 1.596e-3
-1.431, 1.584e-3
-1.430, 1.551e-3
-1.429, 1.523e-3
-1.428, 1.530e-3
-1.427, 1.573e-3
-1.426, 1.479e-3
-1.425, 1.409e-3
-1.424, 1.395e-3
-1.423, 1.396e-3
-1.422, 1.366e-3
-1.421, 1.332e-3
-1.420, 1.332e-3
-1.419, 1.403e-3
-1.418, 1.316e-3
-1.417, 1.200e-3
-1.416, 1.204e-3
-1.415, 1.228e-3
-1.414, 1.206e-3
-1.413, 1.182e-3
-1.412, 1.177e-3
-1.411, 1.170e-3
-1.410, 1.078e-3
-1.409, 1.081e-3
-1.408, 1.137e-3
-1.407, 1.089e-3
-1.406, 1.002e-3
-1.405, 1.015e-3
-1.404, 1.020e-3
-1.403, 9.796e-4
-1.402, 9.509e-4
-1.401, 9.457e-4
-1.400, 9.318e-4
-1.399, 9.201e-4
-1.398, 8.885e-4
-1.397, 8.738e-4
-1.396, 9.218e-4
-1.395, 8.713e-4
-1.394, 7.960e-4
-1.393, 7.768e-4
-1.392, 7.684e-4
-1.391, 7.644e-4
-1.390, 7.376e-4
-1.389, 7.348e-4
-1.388, 7.435e-4
-1.387, 7.441e-4
-1.386, 7.255e-4
-1.385, 6.846e-4
-1.384, 6.479e-4
-1.383, 6.434e-4
-1.382, 6.344e-4
-1.381, 6.129e-4
-1.380, 6.049e-4
-1.379, 5.934e-4
-1.378, 5.915e-4
-1.377, 5.743e-4
-1.376, 5.519e-4
-1.375, 5.420e-4
-1.374, 5.282e-4
-1.373, 5.114e-4
-1.372, 4.972e-4
-1.371, 4.948e-4
-1.370, 4.904e-4
-1.369, 4.761e-4
-1.368, 4.480e-4
-1.367, 4.349e-4
-1.366, 4.369e-4
-1.365, 4.281e-4
-1.364, 4.047e-4
-1.363, 3.936e-4
-1.362, 3.924e-4
-1.361, 3.780e-4
-1.360, 3.688e-4
-1.359, 3.614e-4
-1.358, 3.521e-4
-1.357, 3.414e-4
-1.356, 3.225e-4
-1.355, 3.096e-4
-1.354, 3.020e-4
-1.353, 3.026e-4
-1.352, 3.026e-4
-1.351, 2.946e-4
-1.350, 2.729e-4
-1.349, 2.568e-4
-1.348, 2.554e-4
-1.347, 2.536e-4
-1.346, 2.468e-4
-1.345, 2.256e-4
-1.344, 2.128e-4
-1.343, 2.201e-4
-1.342, 2.255e-4
-1.341, 2.090e-4
-1.340, 1.926e-4
-1.339, 1.825e-4
-1.338, 1.824e-4
-1.337, 1.729e-4
-1.336, 1.586e-4
-1.335, 1.542e-4
-1.334, 1.537e-4
-1.333, 1.497e-4
-1.332, 1.453e-4
-1.331, 1.377e-4
-1.330, 1.401e-4
-1.329, 1.212e-4
-1.328, 1.066e-4
-1.327, 1.017e-4
-1.326, 1.001e-4
-1.325, 9.703e-5
-1.324, 9.255e-5
-1.323, 8.840e-5
-1.322, 8.718e-5
-1.321, 8.298e-5
-1.320, 7.513e-5
-1.319, 6.755e-5
-1.318, 5.992e-5
-1.317, 5.554e-5
-1.316, 5.369e-5
-1.315, 4.687e-5
-1.314, 4.176e-5
-1.313, 4.138e-5
-1.312, 3.878e-5
-1.311, 3.099e-5
-1.310, 2.587e-5
-1.309, 2.287e-5
-1.308, 1.743e-5
-1.307, 1.405e-5
-1.306, 1.205e-5
-1.305, 8.339e-6
-1.304, 3.113e-6
-1.303, -9.789e-7
-1.302, -4.519e-6
-1.301, -6.847e-6
-1.300, -1.006e-5
-1.299, -1.435e-5
-1.298, -1.753e-5
-1.297, -2.050e-5
-1.296, -2.331e-5
-1.295, -2.685e-5
-1.294, -3.002e-5
-1.293, -3.300e-5
-1.292, -3.636e-5
-1.291, -3.842e-5
-1.290, -4.015e-5
-1.289, -4.327e-5
-1.288, -4.757e-5
-1.287, -4.958e-5
-1.286, -5.163e-5
-1.285, -5.549e-5
-1.284, -5.826e-5
-1.283, -5.870e-5
-1.282, -5.983e-5
-1.281, -6.361e-5
-1.280, -6.626e-5
-1.279, -6.898e-5
-1.278, -7.445e-5
-1.277, -7.724e-5
-1.276, -7.978e-5
-1.275, -7.835e-5
-1.274, -7.840e-5
-1.273, -8.160e-5
-1.272, -8.026e-5
-1.271, -8.010e-5
-1.270, -8.638e-5
-1.269, -9.464e-5
-1.268, -9.517e-5
-1.267, -9.604e-5
-1.266, -1.002e-4
-1.265, -9.983e-5
-1.264, -9.709e-5
-1.263, -9.689e-5
-1.262, -1.008e-4
-1.261, -1.039e-4
-1.260, -1.045e-4
-1.259, -1.047e-4
-1.258, -1.090e-4
-1.257, -1.171e-4
-1.256, -1.136e-4
-1.255, -1.098e-4
-1.254, -1.171e-4
-1.253, -1.172e-4
-1.252, -1.144e-4
-1.251, -1.161e-4
-1.250, -1.205e-4
-1.249, -1.242e-4
-1.248, -1.247e-4
-1.247, -1.231e-4
-1.246, -1.262e-4
-1.245, -1.300e-4
-1.244, -1.302e-4
-1.243, -1.300e-4
-1.242, -1.321e-4
-1.241, -1.342e-4
-1.240, -1.312e-4
-1.239, -1.280e-4
-1.238, -1.353e-4
-1.237, -1.425e-4
-1.236, -1.427e-4
-1.235, -1.457e-4
-1.234, -1.435e-4
-1.233, -1.460e-4
-1.232, -1.488e-4
-1.231, -1.499e-4
-1.230, -1.369e-4
-1.229, -1.423e-4
-1.228, -1.458e-4
-1.227, -1.500e-4
-1.226, -1.490e-4
-1.225, -1.533e-4
-1.224, -1.513e-4
-1.223, -1.531e-4
-1.222, -1.573e-4
-1.221, -1.565e-4
-1.220, -1.514e-4
-1.219, -1.508e-4
-1.218, -1.528e-4
-1.217, -1.598e-4
-1.216, -1.631e-4
-1.215, -1.624e-4
-1.214, -1.639e-4
-1.213, -1.664e-4
-1.212, -1.678e-4
-1.211, -1.654e-4
-1.210, -1.606e-4
-1.209, -1.645e-4
-1.208, -1.664e-4
-1.207, -1.679e-4
-1.206, -1.660e-4
-1.205, -1.732e-4
-1.204, -1.791e-4
-1.203, -1.759e-4
-1.202, -1.742e-4
-1.201, -1.765e-4
-1.200, -1.753e-4
-1.199, -1.765e-4
-1.198, -1.779e-4
-1.197, -1.771e-4
-1.196, -1.859e-4
-1.195, -1.872e-4
-1.194, -1.833e-4
-1.193, -1.827e-4
-1.192, -1.800e-4
-1.191, -1.845e-4
-1.190, -1.934e-4
-1.189, -1.984e-4
-1.188, -2.014e-4
-1.187, -2.057e-4
-1.186, -2.040e-4
-1.185, -1.857e-4
-1.184, -1.868e-4
-1.183, -1.976e-4
-1.182, -2.015e-4
-1.181, -1.970e-4
-1.180, -1.998e-4
-1.179, -2.079e-4
-1.178, -2.150e-4
-1.177, -2.070e-4
-1.176, -2.047e-4
-1.175, -2.089e-4
-1.174, -2.120e-4
-1.173, -2.055e-4
-1.172, -2.107e-4
-1.171, -2.210e-4
-1.170, -2.252e-4
-1.169, -2.262e-4
-1.168, -2.326e-4
-1.167, -2.210e-4
-1.166, -2.171e-4
-1.165, -2.284e-4
-1.164, -2.359e-4
-1.163, -2.278e-4
-1.162, -2.292e-4
-1.161, -2.337e-4
-1.160, -2.345e-4
-1.159, -2.430e-4
-1.158, -2.546e-4
-1.157, -2.483e-4
-1.156, -2.482e-4
-1.155, -2.536e-4
-1.154, -2.537e-4
-1.153, -2.582e-4
-1.152, -2.604e-4
-1.151, -2.699e-4
-1.150, -2.765e-4
-1.149, -2.759e-4
-1.148, -2.892e-4
-1.147, -3.006e-4
-1.146, -3.026e-4
-1.145, -3.224e-4
-1.144, -3.338e-4
-1.143, -3.320e-4
-1.142, -3.341e-4
-1.141, -3.512e-4
-1.140, -3.649e-4
-1.139, -3.888e-4
-1.138, -4.167e-4
-1.137, -4.377e-4
-1.136, -4.480e-4
-1.135, -4.719e-4
-1.134, -4.835e-4
-1.133, -4.830e-4
-1.132, -4.954e-4
-1.131, -5.211e-4
-1.130, -5.489e-4
-1.129, -5.617e-4
-1.128, -5.849e-4
-1.127, -6.107e-4
-1.126, -6.239e-4
-1.125, -6.427e-4
-1.124, -6.619e-4
-1.123, -6.684e-4
-1.122, -6.756e-4
-1.121, -6.915e-4
-1.120, -7.093e-4
-1.119, -7.353e-4
-1.118, -7.521e-4
-1.117, -7.525e-4
-1.116, -7.690e-4
-1.115, -7.861e-4
-1.114, -7.956e-4
-1.113, -7.981e-4
-1.112, -8.162e-4
-1.111, -8.489e-4
-1.110, -8.793e-4
-1.109, -8.598e-4
-1.108, -8.514e-4
-1.107, -8.762e-4
-1.106, -9.128e-4
-1.105, -9.234e-4
-1.104, -9.232e-4
-1.103, -9.454e-4
-1.102, -9.414e-4
-1.101, -9.755e-4
-1.100, -9.830e-4
-1.099, -9.708e-4
-1.098, -9.773e-4
-1.097, -9.931e-4
-1.096, -9.882e-4
-1.095, -1.019e-3
-1.094, -1.045e-3
-1.093, -1.069e-3
-1.092, -1.078e-3
-1.091, -1.067e-3
-1.090, -1.076e-3
-1.089, -1.075e-3
-1.088, -1.081e-3
-1.087, -1.098e-3
-1.086, -1.129e-3
-1.085, -1.145e-3
-1.084, -1.123e-3
-1.083, -1.148e-3
-1.082, -1.156e-3
-1.081, -1.150e-3
-1.080, -1.179e-3
-1.079, -1.189e-3
-1.078, -1.185e-3
-1.077, -1.184e-3
-1.076, -1.190e-3
-1.075, -1.209e-3
-1.074, -1.209e-3
-1.073, -1.245e-3
-1.072, -1.284e-3
-1.071, -1.284e-3
-1.070, -1.269e-3
-1.069, -1.231e-3
-1.068, -1.252e-3
-1.067, -1.258e-3
-1.066, -1.267e-3
-1.065, -1.296e-3
-1.064, -1.292e-3
-1.063, -1.324e-3
-1.062, -1.333e-3
-1.061, -1.318e-3
-1.060, -1.312e-3
-1.059, -1.297e-3
-1.058, -1.317e-3
-1.057, -1.318e-3
-1.056, -1.346e-3
-1.055, -1.361e-3
-1.054, -1.325e-3
-1.053, -1.333e-3
-1.052, -1.375e-3
-1.051, -1.415e-3
-1.050, -1.381e-3
-1.049, -1.308e-3
-1.048, -1.303e-3
-1.047, -1.336e-3
-1.046, -1.419e-3
-1.045, -1.485e-3
-1.044, -1.478e-3
-1.043, -1.389e-3
-1.042, -1.310e-3
-1.041, -1.310e-3
-1.040, -1.359e-3
-1.039, -1.391e-3
-1.038, -1.378e-3
-1.037, -1.337e-3
-1.036, -1.366e-3
-1.035, -1.420e-3
-1.034, -1.361e-3
-1.033, -1.332e-3
-1.032, -1.349e-3
-1.031, -1.360e-3
-1.030, -1.331e-3
-1.029, -1.298e-3
-1.028, -1.352e-3
-1.027, -1.418e-3
-1.026, -1.363e-3
-1.025, -1.307e-3
-1.024, -1.304e-3
-1.023, -1.293e-3
-1.022, -1.291e-3
-1.021, -1.305e-3
-1.020, -1.349e-3
-1.019, -1.293e-3
-1.018, -1.276e-3
-1.017, -1.281e-3
-1.016, -1.264e-3
-1.015, -1.264e-3
-1.014, -1.299e-3
-1.013, -1.271e-3
-1.012, -1.231e-3
-1.011, -1.209e-3
-1.010, -1.205e-3
-1.009, -1.326e-3
-1.008, -1.360e-3
-1.007, -1.193e-3
-1.006, -1.135e-3
-1.005, -1.172e-3
-1.004, -1.214e-3
-1.003, -1.179e-3
-1.002, -1.181e-3
-1.001, -1.191e-3
