Dec. 11, 2024   10:22:52
Linear Sweep Voltammetry
File: c:/users/guazh/data/banditlqround7_x0exp59_r20/2024-12-09-exp626\1acid_3ac-2024-12-11t10_19_39-lsvinphos\1acid_3ac_lsv_50mvs_efin_-2300mv.bin
Data Source:  Experiment
Instrument Model:  CHI760E
Header: LSV ran at 50 mVs with Efin at -2300mV
Note: 

Init E (V) = -0.6
Final E (V) = -2.3
Scan Rate (V/s) = 0.05
Sample Interval (V) = 0.001
Quiet Time (sec) = 2
Sensitivity (A/V) = 1e-4
Comp R (ohm) = 8.6

Results:

Channel 1:
Ep = -1.968V
ip = 9.257e-4A
Ah = 1.138e-3C

Potential/V, Current/A

-0.600, 2.799e-6
-0.601, 2.901e-6
-0.602, 2.942e-6
-0.603, 2.977e-6
-0.604, 3.011e-6
-0.605, 3.045e-6
-0.606, 3.075e-6
-0.607, 3.104e-6
-0.608, 3.134e-6
-0.609, 3.167e-6
-0.610, 3.198e-6
-0.611, 3.227e-6
-0.612, 3.256e-6
-0.613, 3.283e-6
-0.614, 3.318e-6
-0.615, 3.352e-6
-0.616, 3.381e-6
-0.617, 3.410e-6
-0.618, 3.440e-6
-0.619, 3.474e-6
-0.620, 3.506e-6
-0.621, 3.535e-6
-0.622, 3.565e-6
-0.623, 3.596e-6
-0.624, 3.628e-6
-0.625, 3.662e-6
-0.626, 3.692e-6
-0.627, 3.723e-6
-0.628, 3.755e-6
-0.629, 3.788e-6
-0.630, 3.822e-6
-0.631, 3.853e-6
-0.632, 3.884e-6
-0.633, 3.915e-6
-0.634, 3.949e-6
-0.635, 3.984e-6
-0.636, 4.013e-6
-0.637, 4.045e-6
-0.638, 4.077e-6
-0.639, 4.111e-6
-0.640, 4.145e-6
-0.641, 4.177e-6
-0.642, 4.207e-6
-0.643, 4.238e-6
-0.644, 4.272e-6
-0.645, 4.306e-6
-0.646, 4.339e-6
-0.647, 4.371e-6
-0.648, 4.403e-6
-0.649, 4.439e-6
-0.650, 4.473e-6
-0.651, 4.506e-6
-0.652, 4.540e-6
-0.653, 4.573e-6
-0.654, 4.610e-6
-0.655, 4.644e-6
-0.656, 4.675e-6
-0.657, 4.708e-6
-0.658, 4.741e-6
-0.659, 4.778e-6
-0.660, 4.812e-6
-0.661, 4.845e-6
-0.662, 4.878e-6
-0.663, 4.910e-6
-0.664, 4.944e-6
-0.665, 4.982e-6
-0.666, 5.016e-6
-0.667, 5.049e-6
-0.668, 5.081e-6
-0.669, 5.117e-6
-0.670, 5.152e-6
-0.671, 5.183e-6
-0.672, 5.217e-6
-0.673, 5.250e-6
-0.674, 5.284e-6
-0.675, 5.320e-6
-0.676, 5.352e-6
-0.677, 5.383e-6
-0.678, 5.417e-6
-0.679, 5.450e-6
-0.680, 5.486e-6
-0.681, 5.519e-6
-0.682, 5.550e-6
-0.683, 5.582e-6
-0.684, 5.617e-6
-0.685, 5.651e-6
-0.686, 5.681e-6
-0.687, 5.712e-6
-0.688, 5.744e-6
-0.689, 5.780e-6
-0.690, 5.812e-6
-0.691, 5.845e-6
-0.692, 5.874e-6
-0.693, 5.903e-6
-0.694, 5.933e-6
-0.695, 5.965e-6
-0.696, 5.994e-6
-0.697, 6.024e-6
-0.698, 6.055e-6
-0.699, 6.087e-6
-0.700, 6.118e-6
-0.701, 6.146e-6
-0.702, 6.173e-6
-0.703, 6.201e-6
-0.704, 6.231e-6
-0.705, 6.260e-6
-0.706, 6.287e-6
-0.707, 6.314e-6
-0.708, 6.343e-6
-0.709, 6.372e-6
-0.710, 6.402e-6
-0.711, 6.427e-6
-0.712, 6.453e-6
-0.713, 6.479e-6
-0.714, 6.506e-6
-0.715, 6.534e-6
-0.716, 6.558e-6
-0.717, 6.583e-6
-0.718, 6.609e-6
-0.719, 6.636e-6
-0.720, 6.660e-6
-0.721, 6.683e-6
-0.722, 6.704e-6
-0.723, 6.728e-6
-0.724, 6.754e-6
-0.725, 6.777e-6
-0.726, 6.797e-6
-0.727, 6.820e-6
-0.728, 6.841e-6
-0.729, 6.864e-6
-0.730, 6.884e-6
-0.731, 6.904e-6
-0.732, 6.923e-6
-0.733, 6.941e-6
-0.734, 6.963e-6
-0.735, 6.983e-6
-0.736, 7.000e-6
-0.737, 7.016e-6
-0.738, 7.032e-6
-0.739, 7.053e-6
-0.740, 7.072e-6
-0.741, 7.087e-6
-0.742, 7.101e-6
-0.743, 7.118e-6
-0.744, 7.135e-6
-0.745, 7.151e-6
-0.746, 7.162e-6
-0.747, 7.177e-6
-0.748, 7.189e-6
-0.749, 7.204e-6
-0.750, 7.219e-6
-0.751, 7.229e-6
-0.752, 7.240e-6
-0.753, 7.251e-6
-0.754, 7.263e-6
-0.755, 7.276e-6
-0.756, 7.284e-6
-0.757, 7.292e-6
-0.758, 7.302e-6
-0.759, 7.312e-6
-0.760, 7.322e-6
-0.761, 7.329e-6
-0.762, 7.336e-6
-0.763, 7.343e-6
-0.764, 7.353e-6
-0.765, 7.360e-6
-0.766, 7.365e-6
-0.767, 7.369e-6
-0.768, 7.375e-6
-0.769, 7.383e-6
-0.770, 7.388e-6
-0.771, 7.391e-6
-0.772, 7.393e-6
-0.773, 7.396e-6
-0.774, 7.402e-6
-0.775, 7.406e-6
-0.776, 7.407e-6
-0.777, 7.408e-6
-0.778, 7.410e-6
-0.779, 7.413e-6
-0.780, 7.415e-6
-0.781, 7.414e-6
-0.782, 7.415e-6
-0.783, 7.414e-6
-0.784, 7.415e-6
-0.785, 7.417e-6
-0.786, 7.414e-6
-0.787, 7.412e-6
-0.788, 7.410e-6
-0.789, 7.410e-6
-0.790, 7.411e-6
-0.791, 7.406e-6
-0.792, 7.403e-6
-0.793, 7.400e-6
-0.794, 7.399e-6
-0.795, 7.397e-6
-0.796, 7.392e-6
-0.797, 7.385e-6
-0.798, 7.382e-6
-0.799, 7.380e-6
-0.800, 7.377e-6
-0.801, 7.371e-6
-0.802, 7.365e-6
-0.803, 7.359e-6
-0.804, 7.355e-6
-0.805, 7.350e-6
-0.806, 7.344e-6
-0.807, 7.336e-6
-0.808, 7.329e-6
-0.809, 7.326e-6
-0.810, 7.319e-6
-0.811, 7.310e-6
-0.812, 7.303e-6
-0.813, 7.294e-6
-0.814, 7.289e-6
-0.815, 7.283e-6
-0.816, 7.274e-6
-0.817, 7.265e-6
-0.818, 7.257e-6
-0.819, 7.254e-6
-0.820, 7.249e-6
-0.821, 7.238e-6
-0.822, 7.227e-6
-0.823, 7.218e-6
-0.824, 7.211e-6
-0.825, 7.204e-6
-0.826, 7.192e-6
-0.827, 7.182e-6
-0.828, 7.172e-6
-0.829, 7.164e-6
-0.830, 7.156e-6
-0.831, 7.144e-6
-0.832, 7.134e-6
-0.833, 7.125e-6
-0.834, 7.115e-6
-0.835, 7.107e-6
-0.836, 7.096e-6
-0.837, 7.084e-6
-0.838, 7.073e-6
-0.839, 7.065e-6
-0.840, 7.056e-6
-0.841, 7.044e-6
-0.842, 7.031e-6
-0.843, 7.021e-6
-0.844, 7.014e-6
-0.845, 7.005e-6
-0.846, 6.993e-6
-0.847, 6.981e-6
-0.848, 6.970e-6
-0.849, 6.961e-6
-0.850, 6.951e-6
-0.851, 6.940e-6
-0.852, 6.928e-6
-0.853, 6.915e-6
-0.854, 6.908e-6
-0.855, 6.897e-6
-0.856, 6.886e-6
-0.857, 6.876e-6
-0.858, 6.864e-6
-0.859, 6.855e-6
-0.860, 6.846e-6
-0.861, 6.833e-6
-0.862, 6.822e-6
-0.863, 6.809e-6
-0.864, 6.801e-6
-0.865, 6.792e-6
-0.866, 6.778e-6
-0.867, 6.767e-6
-0.868, 6.756e-6
-0.869, 6.746e-6
-0.870, 6.738e-6
-0.871, 6.727e-6
-0.872, 6.714e-6
-0.873, 6.704e-6
-0.874, 6.694e-6
-0.875, 6.685e-6
-0.876, 6.673e-6
-0.877, 6.661e-6
-0.878, 6.651e-6
-0.879, 6.642e-6
-0.880, 6.632e-6
-0.881, 6.621e-6
-0.882, 6.609e-6
-0.883, 6.598e-6
-0.884, 6.590e-6
-0.885, 6.581e-6
-0.886, 6.568e-6
-0.887, 6.557e-6
-0.888, 6.545e-6
-0.889, 6.539e-6
-0.890, 6.529e-6
-0.891, 6.517e-6
-0.892, 6.506e-6
-0.893, 6.495e-6
-0.894, 6.488e-6
-0.895, 6.479e-6
-0.896, 6.468e-6
-0.897, 6.458e-6
-0.898, 6.447e-6
-0.899, 6.440e-6
-0.900, 6.430e-6
-0.901, 6.420e-6
-0.902, 6.410e-6
-0.903, 6.399e-6
-0.904, 6.391e-6
-0.905, 6.384e-6
-0.906, 6.372e-6
-0.907, 6.363e-6
-0.908, 6.353e-6
-0.909, 6.345e-6
-0.910, 6.337e-6
-0.911, 6.327e-6
-0.912, 6.317e-6
-0.913, 6.307e-6
-0.914, 6.299e-6
-0.915, 6.292e-6
-0.916, 6.282e-6
-0.917, 6.270e-6
-0.918, 6.263e-6
-0.919, 6.256e-6
-0.920, 6.248e-6
-0.921, 6.238e-6
-0.922, 6.229e-6
-0.923, 6.222e-6
-0.924, 6.214e-6
-0.925, 6.208e-6
-0.926, 6.199e-6
-0.927, 6.190e-6
-0.928, 6.181e-6
-0.929, 6.175e-6
-0.930, 6.169e-6
-0.931, 6.160e-6
-0.932, 6.151e-6
-0.933, 6.143e-6
-0.934, 6.137e-6
-0.935, 6.130e-6
-0.936, 6.122e-6
-0.937, 6.113e-6
-0.938, 6.103e-6
-0.939, 6.098e-6
-0.940, 6.092e-6
-0.941, 6.083e-6
-0.942, 6.074e-6
-0.943, 6.063e-6
-0.944, 6.058e-6
-0.945, 6.054e-6
-0.946, 6.044e-6
-0.947, 6.036e-6
-0.948, 6.029e-6
-0.949, 6.023e-6
-0.950, 6.017e-6
-0.951, 6.009e-6
-0.952, 6.000e-6
-0.953, 5.991e-6
-0.954, 5.986e-6
-0.955, 5.981e-6
-0.956, 5.973e-6
-0.957, 5.964e-6
-0.958, 5.957e-6
-0.959, 5.952e-6
-0.960, 5.949e-6
-0.961, 5.940e-6
-0.962, 5.932e-6
-0.963, 5.926e-6
-0.964, 5.921e-6
-0.965, 5.916e-6
-0.966, 5.909e-6
-0.967, 5.902e-6
-0.968, 5.895e-6
-0.969, 5.891e-6
-0.970, 5.886e-6
-0.971, 5.879e-6
-0.972, 5.872e-6
-0.973, 5.867e-6
-0.974, 5.861e-6
-0.975, 5.857e-6
-0.976, 5.849e-6
-0.977, 5.842e-6
-0.978, 5.834e-6
-0.979, 5.831e-6
-0.980, 5.827e-6
-0.981, 5.819e-6
-0.982, 5.812e-6
-0.983, 5.806e-6
-0.984, 5.802e-6
-0.985, 5.799e-6
-0.986, 5.793e-6
-0.987, 5.787e-6
-0.988, 5.778e-6
-0.989, 5.773e-6
-0.990, 5.769e-6
-0.991, 5.762e-6
-0.992, 5.755e-6
-0.993, 5.748e-6
-0.994, 5.743e-6
-0.995, 5.740e-6
-0.996, 5.732e-6
-0.997, 5.725e-6
-0.998, 5.719e-6
-0.999, 5.716e-6
-1.000, 5.713e-6
-1.001, 5.705e-6
-1.002, 5.698e-6
-1.003, 5.692e-6
-1.004, 5.688e-6
-1.005, 5.684e-6
-1.006, 5.680e-6
-1.007, 5.673e-6
-1.008, 5.667e-6
-1.009, 5.664e-6
-1.010, 5.660e-6
-1.011, 5.656e-6
-1.012, 5.649e-6
-1.013, 5.641e-6
-1.014, 5.640e-6
-1.015, 5.636e-6
-1.016, 5.630e-6
-1.017, 5.624e-6
-1.018, 5.618e-6
-1.019, 5.615e-6
-1.020, 5.613e-6
-1.021, 5.606e-6
-1.022, 5.601e-6
-1.023, 5.594e-6
-1.024, 5.593e-6
-1.025, 5.590e-6
-1.026, 5.583e-6
-1.027, 5.578e-6
-1.028, 5.572e-6
-1.029, 5.568e-6
-1.030, 5.567e-6
-1.031, 5.560e-6
-1.032, 5.554e-6
-1.033, 5.550e-6
-1.034, 5.546e-6
-1.035, 5.543e-6
-1.036, 5.537e-6
-1.037, 5.532e-6
-1.038, 5.527e-6
-1.039, 5.523e-6
-1.040, 5.521e-6
-1.041, 5.516e-6
-1.042, 5.510e-6
-1.043, 5.505e-6
-1.044, 5.503e-6
-1.045, 5.500e-6
-1.046, 5.495e-6
-1.047, 5.489e-6
-1.048, 5.483e-6
-1.049, 5.481e-6
-1.050, 5.479e-6
-1.051, 5.473e-6
-1.052, 5.468e-6
-1.053, 5.463e-6
-1.054, 5.461e-6
-1.055, 5.459e-6
-1.056, 5.452e-6
-1.057, 5.449e-6
-1.058, 5.443e-6
-1.059, 5.441e-6
-1.060, 5.439e-6
-1.061, 5.434e-6
-1.062, 5.428e-6
-1.063, 5.424e-6
-1.064, 5.421e-6
-1.065, 5.420e-6
-1.066, 5.414e-6
-1.067, 5.410e-6
-1.068, 5.407e-6
-1.069, 5.405e-6
-1.070, 5.402e-6
-1.071, 5.396e-6
-1.072, 5.392e-6
-1.073, 5.388e-6
-1.074, 5.386e-6
-1.075, 5.385e-6
-1.076, 5.381e-6
-1.077, 5.376e-6
-1.078, 5.372e-6
-1.079, 5.370e-6
-1.080, 5.368e-6
-1.081, 5.363e-6
-1.082, 5.359e-6
-1.083, 5.354e-6
-1.084, 5.353e-6
-1.085, 5.351e-6
-1.086, 5.347e-6
-1.087, 5.342e-6
-1.088, 5.338e-6
-1.089, 5.337e-6
-1.090, 5.335e-6
-1.091, 5.331e-6
-1.092, 5.326e-6
-1.093, 5.321e-6
-1.094, 5.320e-6
-1.095, 5.318e-6
-1.096, 5.314e-6
-1.097, 5.310e-6
-1.098, 5.306e-6
-1.099, 5.306e-6
-1.100, 5.303e-6
-1.101, 5.300e-6
-1.102, 5.296e-6
-1.103, 5.292e-6
-1.104, 5.291e-6
-1.105, 5.290e-6
-1.106, 5.285e-6
-1.107, 5.282e-6
-1.108, 5.278e-6
-1.109, 5.275e-6
-1.110, 5.274e-6
-1.111, 5.270e-6
-1.112, 5.267e-6
-1.113, 5.263e-6
-1.114, 5.262e-6
-1.115, 5.262e-6
-1.116, 5.257e-6
-1.117, 5.253e-6
-1.118, 5.251e-6
-1.119, 5.248e-6
-1.120, 5.247e-6
-1.121, 5.244e-6
-1.122, 5.241e-6
-1.123, 5.238e-6
-1.124, 5.235e-6
-1.125, 5.234e-6
-1.126, 5.232e-6
-1.127, 5.227e-6
-1.128, 5.223e-6
-1.129, 5.222e-6
-1.130, 5.221e-6
-1.131, 5.218e-6
-1.132, 5.215e-6
-1.133, 5.211e-6
-1.134, 5.212e-6
-1.135, 5.210e-6
-1.136, 5.206e-6
-1.137, 5.203e-6
-1.138, 5.199e-6
-1.139, 5.198e-6
-1.140, 5.199e-6
-1.141, 5.195e-6
-1.142, 5.191e-6
-1.143, 5.188e-6
-1.144, 5.188e-6
-1.145, 5.188e-6
-1.146, 5.184e-6
-1.147, 5.181e-6
-1.148, 5.179e-6
-1.149, 5.177e-6
-1.150, 5.177e-6
-1.151, 5.174e-6
-1.152, 5.172e-6
-1.153, 5.168e-6
-1.154, 5.166e-6
-1.155, 5.168e-6
-1.156, 5.164e-6
-1.157, 5.160e-6
-1.158, 5.158e-6
-1.159, 5.158e-6
-1.160, 5.157e-6
-1.161, 5.154e-6
-1.162, 5.151e-6
-1.163, 5.150e-6
-1.164, 5.149e-6
-1.165, 5.149e-6
-1.166, 5.147e-6
-1.167, 5.142e-6
-1.168, 5.140e-6
-1.169, 5.138e-6
-1.170, 5.138e-6
-1.171, 5.136e-6
-1.172, 5.134e-6
-1.173, 5.130e-6
-1.174, 5.132e-6
-1.175, 5.131e-6
-1.176, 5.128e-6
-1.177, 5.126e-6
-1.178, 5.125e-6
-1.179, 5.124e-6
-1.180, 5.124e-6
-1.181, 5.120e-6
-1.182, 5.118e-6
-1.183, 5.116e-6
-1.184, 5.116e-6
-1.185, 5.117e-6
-1.186, 5.113e-6
-1.187, 5.111e-6
-1.188, 5.109e-6
-1.189, 5.109e-6
-1.190, 5.110e-6
-1.191, 5.107e-6
-1.192, 5.104e-6
-1.193, 5.101e-6
-1.194, 5.102e-6
-1.195, 5.102e-6
-1.196, 5.100e-6
-1.197, 5.097e-6
-1.198, 5.096e-6
-1.199, 5.096e-6
-1.200, 5.096e-6
-1.201, 5.095e-6
-1.202, 5.090e-6
-1.203, 5.090e-6
-1.204, 5.089e-6
-1.205, 5.091e-6
-1.206, 5.089e-6
-1.207, 5.086e-6
-1.208, 5.084e-6
-1.209, 5.085e-6
-1.210, 5.086e-6
-1.211, 5.082e-6
-1.212, 5.080e-6
-1.213, 5.079e-6
-1.214, 5.081e-6
-1.215, 5.080e-6
-1.216, 5.079e-6
-1.217, 5.078e-6
-1.218, 5.075e-6
-1.219, 5.075e-6
-1.220, 5.076e-6
-1.221, 5.073e-6
-1.222, 5.073e-6
-1.223, 5.070e-6
-1.224, 5.071e-6
-1.225, 5.073e-6
-1.226, 5.070e-6
-1.227, 5.068e-6
-1.228, 5.066e-6
-1.229, 5.071e-6
-1.230, 5.070e-6
-1.231, 5.067e-6
-1.232, 5.064e-6
-1.233, 5.062e-6
-1.234, 5.063e-6
-1.235, 5.066e-6
-1.236, 5.064e-6
-1.237, 5.061e-6
-1.238, 5.061e-6
-1.239, 5.060e-6
-1.240, 5.063e-6
-1.241, 5.060e-6
-1.242, 5.058e-6
-1.243, 5.057e-6
-1.244, 5.058e-6
-1.245, 5.059e-6
-1.246, 5.057e-6
-1.247, 5.056e-6
-1.248, 5.055e-6
-1.249, 5.055e-6
-1.250, 5.056e-6
-1.251, 5.056e-6
-1.252, 5.053e-6
-1.253, 5.052e-6
-1.254, 5.053e-6
-1.255, 5.054e-6
-1.256, 5.053e-6
-1.257, 5.052e-6
-1.258, 5.050e-6
-1.259, 5.051e-6
-1.260, 5.052e-6
-1.261, 5.052e-6
-1.262, 5.049e-6
-1.263, 5.048e-6
-1.264, 5.049e-6
-1.265, 5.052e-6
-1.266, 5.050e-6
-1.267, 5.049e-6
-1.268, 5.048e-6
-1.269, 5.048e-6
-1.270, 5.051e-6
-1.271, 5.050e-6
-1.272, 5.048e-6
-1.273, 5.047e-6
-1.274, 5.048e-6
-1.275, 5.050e-6
-1.276, 5.050e-6
-1.277, 5.048e-6
-1.278, 5.046e-6
-1.279, 5.046e-6
-1.280, 5.051e-6
-1.281, 5.050e-6
-1.282, 5.048e-6
-1.283, 5.048e-6
-1.284, 5.049e-6
-1.285, 5.050e-6
-1.286, 5.051e-6
-1.287, 5.049e-6
-1.288, 5.048e-6
-1.289, 5.049e-6
-1.290, 5.049e-6
-1.291, 5.050e-6
-1.292, 5.050e-6
-1.293, 5.050e-6
-1.294, 5.050e-6
-1.295, 5.053e-6
-1.296, 5.052e-6
-1.297, 5.051e-6
-1.298, 5.049e-6
-1.299, 5.051e-6
-1.300, 5.053e-6
-1.301, 5.053e-6
-1.302, 5.052e-6
-1.303, 5.053e-6
-1.304, 5.054e-6
-1.305, 5.056e-6
-1.306, 5.055e-6
-1.307, 5.055e-6
-1.308, 5.055e-6
-1.309, 5.055e-6
-1.310, 5.057e-6
-1.311, 5.057e-6
-1.312, 5.057e-6
-1.313, 5.058e-6
-1.314, 5.058e-6
-1.315, 5.062e-6
-1.316, 5.061e-6
-1.317, 5.059e-6
-1.318, 5.060e-6
-1.319, 5.060e-6
-1.320, 5.064e-6
-1.321, 5.064e-6
-1.322, 5.063e-6
-1.323, 5.063e-6
-1.324, 5.063e-6
-1.325, 5.067e-6
-1.326, 5.068e-6
-1.327, 5.067e-6
-1.328, 5.066e-6
-1.329, 5.068e-6
-1.330, 5.071e-6
-1.331, 5.073e-6
-1.332, 5.071e-6
-1.333, 5.071e-6
-1.334, 5.074e-6
-1.335, 5.076e-6
-1.336, 5.076e-6
-1.337, 5.077e-6
-1.338, 5.076e-6
-1.339, 5.077e-6
-1.340, 5.081e-6
-1.341, 5.082e-6
-1.342, 5.082e-6
-1.343, 5.081e-6
-1.344, 5.083e-6
-1.345, 5.088e-6
-1.346, 5.089e-6
-1.347, 5.089e-6
-1.348, 5.088e-6
-1.349, 5.090e-6
-1.350, 5.094e-6
-1.351, 5.094e-6
-1.352, 5.094e-6
-1.353, 5.096e-6
-1.354, 5.095e-6
-1.355, 5.100e-6
-1.356, 5.102e-6
-1.357, 5.102e-6
-1.358, 5.103e-6
-1.359, 5.103e-6
-1.360, 5.108e-6
-1.361, 5.109e-6
-1.362, 5.108e-6
-1.363, 5.111e-6
-1.364, 5.112e-6
-1.365, 5.115e-6
-1.366, 5.118e-6
-1.367, 5.118e-6
-1.368, 5.119e-6
-1.369, 5.121e-6
-1.370, 5.125e-6
-1.371, 5.127e-6
-1.372, 5.127e-6
-1.373, 5.127e-6
-1.374, 5.131e-6
-1.375, 5.135e-6
-1.376, 5.137e-6
-1.377, 5.137e-6
-1.378, 5.137e-6
-1.379, 5.141e-6
-1.380, 5.146e-6
-1.381, 5.146e-6
-1.382, 5.149e-6
-1.383, 5.151e-6
-1.384, 5.153e-6
-1.385, 5.157e-6
-1.386, 5.160e-6
-1.387, 5.160e-6
-1.388, 5.161e-6
-1.389, 5.164e-6
-1.390, 5.169e-6
-1.391, 5.172e-6
-1.392, 5.171e-6
-1.393, 5.174e-6
-1.394, 5.176e-6
-1.395, 5.181e-6
-1.396, 5.185e-6
-1.397, 5.187e-6
-1.398, 5.187e-6
-1.399, 5.189e-6
-1.400, 5.195e-6
-1.401, 5.198e-6
-1.402, 5.200e-6
-1.403, 5.201e-6
-1.404, 5.204e-6
-1.405, 5.210e-6
-1.406, 5.215e-6
-1.407, 5.215e-6
-1.408, 5.217e-6
-1.409, 5.221e-6
-1.410, 5.227e-6
-1.411, 5.231e-6
-1.412, 5.231e-6
-1.413, 5.234e-6
-1.414, 5.238e-6
-1.415, 5.243e-6
-1.416, 5.246e-6
-1.417, 5.250e-6
-1.418, 5.252e-6
-1.419, 5.256e-6
-1.420, 5.262e-6
-1.421, 5.267e-6
-1.422, 5.268e-6
-1.423, 5.270e-6
-1.424, 5.273e-6
-1.425, 5.280e-6
-1.426, 5.285e-6
-1.427, 5.288e-6
-1.428, 5.290e-6
-1.429, 5.294e-6
-1.430, 5.301e-6
-1.431, 5.305e-6
-1.432, 5.308e-6
-1.433, 5.311e-6
-1.434, 5.317e-6
-1.435, 5.323e-6
-1.436, 5.328e-6
-1.437, 5.329e-6
-1.438, 5.334e-6
-1.439, 5.338e-6
-1.440, 5.345e-6
-1.441, 5.351e-6
-1.442, 5.353e-6
-1.443, 5.357e-6
-1.444, 5.362e-6
-1.445, 5.370e-6
-1.446, 5.376e-6
-1.447, 5.378e-6
-1.448, 5.382e-6
-1.449, 5.387e-6
-1.450, 5.394e-6
-1.451, 5.402e-6
-1.452, 5.404e-6
-1.453, 5.408e-6
-1.454, 5.415e-6
-1.455, 5.422e-6
-1.456, 5.429e-6
-1.457, 5.432e-6
-1.458, 5.436e-6
-1.459, 5.442e-6
-1.460, 5.452e-6
-1.461, 5.456e-6
-1.462, 5.462e-6
-1.463, 5.466e-6
-1.464, 5.472e-6
-1.465, 5.482e-6
-1.466, 5.490e-6
-1.467, 5.495e-6
-1.468, 5.499e-6
-1.469, 5.505e-6
-1.470, 5.514e-6
-1.471, 5.522e-6
-1.472, 5.527e-6
-1.473, 5.534e-6
-1.474, 5.540e-6
-1.475, 5.551e-6
-1.476, 5.559e-6
-1.477, 5.563e-6
-1.478, 5.570e-6
-1.479, 5.577e-6
-1.480, 5.588e-6
-1.481, 5.597e-6
-1.482, 5.601e-6
-1.483, 5.608e-6
-1.484, 5.615e-6
-1.485, 5.628e-6
-1.486, 5.637e-6
-1.487, 5.642e-6
-1.488, 5.648e-6
-1.489, 5.656e-6
-1.490, 5.667e-6
-1.491, 5.677e-6
-1.492, 5.683e-6
-1.493, 5.689e-6
-1.494, 5.699e-6
-1.495, 5.709e-6
-1.496, 5.721e-6
-1.497, 5.730e-6
-1.498, 5.737e-6
-1.499, 5.747e-6
-1.500, 5.760e-6
-1.501, 5.771e-6
-1.502, 5.780e-6
-1.503, 5.789e-6
-1.504, 5.799e-6
-1.505, 5.814e-6
-1.506, 5.823e-6
-1.507, 5.830e-6
-1.508, 5.838e-6
-1.509, 5.847e-6
-1.510, 5.861e-6
-1.511, 5.872e-6
-1.512, 5.882e-6
-1.513, 5.890e-6
-1.514, 5.900e-6
-1.515, 5.913e-6
-1.516, 5.924e-6
-1.517, 5.933e-6
-1.518, 5.943e-6
-1.519, 5.953e-6
-1.520, 5.967e-6
-1.521, 5.982e-6
-1.522, 5.991e-6
-1.523, 6.002e-6
-1.524, 6.014e-6
-1.525, 6.030e-6
-1.526, 6.044e-6
-1.527, 6.054e-6
-1.528, 6.065e-6
-1.529, 6.077e-6
-1.530, 6.093e-6
-1.531, 6.109e-6
-1.532, 6.120e-6
-1.533, 6.132e-6
-1.534, 6.144e-6
-1.535, 6.160e-6
-1.536, 6.177e-6
-1.537, 6.188e-6
-1.538, 6.196e-6
-1.539, 6.210e-6
-1.540, 6.227e-6
-1.541, 6.241e-6
-1.542, 6.256e-6
-1.543, 6.267e-6
-1.544, 6.282e-6
-1.545, 6.299e-6
-1.546, 6.315e-6
-1.547, 6.328e-6
-1.548, 6.344e-6
-1.549, 6.359e-6
-1.550, 6.377e-6
-1.551, 6.395e-6
-1.552, 6.409e-6
-1.553, 6.425e-6
-1.554, 6.439e-6
-1.555, 6.458e-6
-1.556, 6.478e-6
-1.557, 6.492e-6
-1.558, 6.507e-6
-1.559, 6.523e-6
-1.560, 6.542e-6
-1.561, 6.563e-6
-1.562, 6.580e-6
-1.563, 6.595e-6
-1.564, 6.613e-6
-1.565, 6.632e-6
-1.566, 6.654e-6
-1.567, 6.672e-6
-1.568, 6.689e-6
-1.569, 6.707e-6
-1.570, 6.728e-6
-1.571, 6.749e-6
-1.572, 6.767e-6
-1.573, 6.785e-6
-1.574, 6.805e-6
-1.575, 6.828e-6
-1.576, 6.850e-6
-1.577, 6.869e-6
-1.578, 6.887e-6
-1.579, 6.908e-6
-1.580, 6.930e-6
-1.581, 6.956e-6
-1.582, 6.977e-6
-1.583, 6.995e-6
-1.584, 7.015e-6
-1.585, 7.042e-6
-1.586, 7.065e-6
-1.587, 7.090e-6
-1.588, 7.112e-6
-1.589, 7.129e-6
-1.590, 7.156e-6
-1.591, 7.181e-6
-1.592, 7.205e-6
-1.593, 7.226e-6
-1.594, 7.248e-6
-1.595, 7.276e-6
-1.596, 7.305e-6
-1.597, 7.327e-6
-1.598, 7.350e-6
-1.599, 7.373e-6
-1.600, 7.401e-6
-1.601, 7.432e-6
-1.602, 7.455e-6
-1.603, 7.481e-6
-1.604, 7.505e-6
-1.605, 7.535e-6
-1.606, 7.568e-6
-1.607, 7.595e-6
-1.608, 7.618e-6
-1.609, 7.649e-6
-1.610, 7.677e-6
-1.611, 7.713e-6
-1.612, 7.743e-6
-1.613, 7.769e-6
-1.614, 7.800e-6
-1.615, 7.835e-6
-1.616, 7.870e-6
-1.617, 7.902e-6
-1.618, 7.927e-6
-1.619, 7.960e-6
-1.620, 7.995e-6
-1.621, 8.034e-6
-1.622, 8.066e-6
-1.623, 8.096e-6
-1.624, 8.131e-6
-1.625, 8.176e-6
-1.626, 8.216e-6
-1.627, 8.246e-6
-1.628, 8.281e-6
-1.629, 8.314e-6
-1.630, 8.357e-6
-1.631, 8.395e-6
-1.632, 8.433e-6
-1.633, 8.472e-6
-1.634, 8.509e-6
-1.635, 8.545e-6
-1.636, 8.586e-6
-1.637, 8.624e-6
-1.638, 8.666e-6
-1.639, 8.716e-6
-1.640, 8.756e-6
-1.641, 8.802e-6
-1.642, 8.843e-6
-1.643, 8.884e-6
-1.644, 8.926e-6
-1.645, 8.979e-6
-1.646, 9.031e-6
-1.647, 9.074e-6
-1.648, 9.119e-6
-1.649, 9.167e-6
-1.650, 9.219e-6
-1.651, 9.273e-6
-1.652, 9.324e-6
-1.653, 9.371e-6
-1.654, 9.423e-6
-1.655, 9.478e-6
-1.656, 9.537e-6
-1.657, 9.593e-6
-1.658, 9.646e-6
-1.659, 9.700e-6
-1.660, 9.764e-6
-1.661, 9.828e-6
-1.662, 9.888e-6
-1.663, 9.947e-6
-1.664, 1.001e-5
-1.665, 1.007e-5
-1.666, 1.014e-5
-1.667, 1.020e-5
-1.668, 1.026e-5
-1.669, 1.033e-5
-1.670, 1.040e-5
-1.671, 1.047e-5
-1.672, 1.054e-5
-1.673, 1.061e-5
-1.674, 1.069e-5
-1.675, 1.076e-5
-1.676, 1.085e-5
-1.677, 1.092e-5
-1.678, 1.100e-5
-1.679, 1.108e-5
-1.680, 1.116e-5
-1.681, 1.126e-5
-1.682, 1.134e-5
-1.683, 1.143e-5
-1.684, 1.151e-5
-1.685, 1.160e-5
-1.686, 1.171e-5
-1.687, 1.180e-5
-1.688, 1.189e-5
-1.689, 1.199e-5
-1.690, 1.208e-5
-1.691, 1.218e-5
-1.692, 1.229e-5
-1.693, 1.239e-5
-1.694, 1.250e-5
-1.695, 1.261e-5
-1.696, 1.273e-5
-1.697, 1.284e-5
-1.698, 1.296e-5
-1.699, 1.308e-5
-1.700, 1.320e-5
-1.701, 1.333e-5
-1.702, 1.346e-5
-1.703, 1.359e-5
-1.704, 1.372e-5
-1.705, 1.386e-5
-1.706, 1.400e-5
-1.707, 1.414e-5
-1.708, 1.429e-5
-1.709, 1.443e-5
-1.710, 1.459e-5
-1.711, 1.474e-5
-1.712, 1.490e-5
-1.713, 1.506e-5
-1.714, 1.522e-5
-1.715, 1.539e-5
-1.716, 1.557e-5
-1.717, 1.575e-5
-1.718, 1.592e-5
-1.719, 1.611e-5
-1.720, 1.630e-5
-1.721, 1.650e-5
-1.722, 1.669e-5
-1.723, 1.689e-5
-1.724, 1.709e-5
-1.725, 1.730e-5
-1.726, 1.752e-5
-1.727, 1.774e-5
-1.728, 1.796e-5
-1.729, 1.818e-5
-1.730, 1.842e-5
-1.731, 1.866e-5
-1.732, 1.891e-5
-1.733, 1.915e-5
-1.734, 1.940e-5
-1.735, 1.967e-5
-1.736, 1.994e-5
-1.737, 2.020e-5
-1.738, 2.048e-5
-1.739, 2.076e-5
-1.740, 2.105e-5
-1.741, 2.136e-5
-1.742, 2.166e-5
-1.743, 2.196e-5
-1.744, 2.228e-5
-1.745, 2.260e-5
-1.746, 2.294e-5
-1.747, 2.328e-5
-1.748, 2.363e-5
-1.749, 2.399e-5
-1.750, 2.436e-5
-1.751, 2.474e-5
-1.752, 2.513e-5
-1.753, 2.552e-5
-1.754, 2.592e-5
-1.755, 2.633e-5
-1.756, 2.676e-5
-1.757, 2.719e-5
-1.758, 2.763e-5
-1.759, 2.807e-5
-1.760, 2.853e-5
-1.761, 2.901e-5
-1.762, 2.950e-5
-1.763, 2.999e-5
-1.764, 3.050e-5
-1.765, 3.103e-5
-1.766, 3.157e-5
-1.767, 3.213e-5
-1.768, 3.269e-5
-1.769, 3.326e-5
-1.770, 3.386e-5
-1.771, 3.447e-5
-1.772, 3.510e-5
-1.773, 3.573e-5
-1.774, 3.638e-5
-1.775, 3.704e-5
-1.776, 3.774e-5
-1.777, 3.844e-5
-1.778, 3.916e-5
-1.779, 3.990e-5
-1.780, 4.066e-5
-1.781, 4.145e-5
-1.782, 4.224e-5
-1.783, 4.305e-5
-1.784, 4.387e-5
-1.785, 4.472e-5
-1.786, 4.560e-5
-1.787, 4.651e-5
-1.788, 4.743e-5
-1.789, 4.837e-5
-1.790, 4.934e-5
-1.791, 5.033e-5
-1.792, 5.135e-5
-1.793, 5.239e-5
-1.794, 5.344e-5
-1.795, 5.454e-5
-1.796, 5.566e-5
-1.797, 5.680e-5
-1.798, 5.797e-5
-1.799, 5.916e-5
-1.800, 6.038e-5
-1.801, 6.165e-5
-1.802, 6.294e-5
-1.803, 6.426e-5
-1.804, 6.560e-5
-1.805, 6.697e-5
-1.806, 6.839e-5
-1.807, 6.983e-5
-1.808, 7.131e-5
-1.809, 7.282e-5
-1.810, 7.435e-5
-1.811, 7.591e-5
-1.812, 7.752e-5
-1.813, 7.917e-5
-1.814, 8.085e-5
-1.815, 8.257e-5
-1.816, 8.434e-5
-1.817, 8.613e-5
-1.818, 8.797e-5
-1.819, 8.983e-5
-1.820, 9.174e-5
-1.821, 9.370e-5
-1.822, 9.570e-5
-1.823, 9.773e-5
-1.824, 9.980e-5
-1.825, 1.019e-4
-1.826, 1.041e-4
-1.827, 1.063e-4
-1.828, 1.085e-4
-1.829, 1.107e-4
-1.830, 1.130e-4
-1.831, 1.154e-4
-1.832, 1.178e-4
-1.833, 1.203e-4
-1.834, 1.228e-4
-1.835, 1.253e-4
-1.836, 1.279e-4
-1.837, 1.305e-4
-1.838, 1.332e-4
-1.839, 1.359e-4
-1.840, 1.387e-4
-1.841, 1.415e-4
-1.842, 1.444e-4
-1.843, 1.473e-4
-1.844, 1.502e-4
-1.845, 1.532e-4
-1.846, 1.563e-4
-1.847, 1.594e-4
-1.848, 1.626e-4
-1.849, 1.658e-4
-1.850, 1.691e-4
-1.851, 1.724e-4
-1.852, 1.758e-4
-1.853, 1.792e-4
-1.854, 1.827e-4
-1.855, 1.862e-4
-1.856, 1.898e-4
-1.857, 1.935e-4
-1.858, 1.972e-4
-1.859, 2.010e-4
-1.860, 2.048e-4
-1.861, 2.087e-4
-1.862, 2.127e-4
-1.863, 2.167e-4
-1.864, 2.208e-4
-1.865, 2.250e-4
-1.866, 2.292e-4
-1.867, 2.335e-4
-1.868, 2.379e-4
-1.869, 2.423e-4
-1.870, 2.468e-4
-1.871, 2.514e-4
-1.872, 2.560e-4
-1.873, 2.607e-4
-1.874, 2.654e-4
-1.875, 2.703e-4
-1.876, 2.752e-4
-1.877, 2.802e-4
-1.878, 2.852e-4
-1.879, 2.903e-4
-1.880, 2.955e-4
-1.881, 3.008e-4
-1.882, 3.061e-4
-1.883, 3.115e-4
-1.884, 3.170e-4
-1.885, 3.226e-4
-1.886, 3.282e-4
-1.887, 3.339e-4
-1.888, 3.397e-4
-1.889, 3.456e-4
-1.890, 3.515e-4
-1.891, 3.575e-4
-1.892, 3.636e-4
-1.893, 3.697e-4
-1.894, 3.759e-4
-1.895, 3.822e-4
-1.896, 3.886e-4
-1.897, 3.950e-4
-1.898, 4.015e-4
-1.899, 4.081e-4
-1.900, 4.147e-4
-1.901, 4.214e-4
-1.902, 4.282e-4
-1.903, 4.351e-4
-1.904, 4.422e-4
-1.905, 4.492e-4
-1.906, 4.562e-4
-1.907, 4.633e-4
-1.908, 4.704e-4
-1.909, 4.776e-4
-1.910, 4.849e-4
-1.911, 4.924e-4
-1.912, 4.998e-4
-1.913, 5.074e-4
-1.914, 5.149e-4
-1.915, 5.226e-4
-1.916, 5.304e-4
-1.917, 5.382e-4
-1.918, 5.461e-4
-1.919, 5.541e-4
-1.920, 5.620e-4
-1.921, 5.701e-4
-1.922, 5.782e-4
-1.923, 5.864e-4
-1.924, 5.947e-4
-1.925, 6.031e-4
-1.926, 6.115e-4
-1.927, 6.201e-4
-1.928, 6.287e-4
-1.929, 6.374e-4
-1.930, 6.462e-4
-1.931, 6.550e-4
-1.932, 6.638e-4
-1.933, 6.727e-4
-1.934, 6.817e-4
-1.935, 6.907e-4
-1.936, 6.999e-4
-1.937, 7.090e-4
-1.938, 7.182e-4
-1.939, 7.275e-4
-1.940, 7.368e-4
-1.941, 7.462e-4
-1.942, 7.556e-4
-1.943, 7.652e-4
-1.944, 7.748e-4
-1.945, 7.844e-4
-1.946, 7.940e-4
-1.947, 8.037e-4
-1.948, 8.135e-4
-1.949, 8.233e-4
-1.950, 8.333e-4
-1.951, 8.434e-4
-1.952, 8.534e-4
-1.953, 8.635e-4
-1.954, 8.737e-4
-1.955, 8.839e-4
-1.956, 8.942e-4
-1.957, 9.045e-4
-1.958, 9.149e-4
-1.959, 9.252e-4
-1.960, 9.357e-4
-1.961, 9.462e-4
-1.962, 9.568e-4
-1.963, 9.673e-4
-1.964, 9.779e-4
-1.965, 9.886e-4
-1.966, 9.995e-4
-1.967, 1.009e-3
-1.968, 1.011e-3
-1.969, 1.011e-3
-1.970, 1.011e-3
-1.971, 1.011e-3
-1.972, 1.011e-3
-1.973, 1.011e-3
-1.974, 1.011e-3
-1.975, 1.011e-3
-1.976, 1.011e-3
-1.977, 1.011e-3
-1.978, 1.011e-3
-1.979, 1.011e-3
-1.980, 1.011e-3
-1.981, 1.011e-3
-1.982, 1.011e-3
-1.983, 1.011e-3
-1.984, 1.011e-3
-1.985, 1.011e-3
-1.986, 1.011e-3
-1.987, 1.011e-3
-1.988, 1.011e-3
-1.989, 1.011e-3
-1.990, 1.011e-3
-1.991, 1.011e-3
-1.992, 1.011e-3
-1.993, 1.011e-3
-1.994, 1.011e-3
-1.995, 1.011e-3
-1.996, 1.011e-3
-1.997, 1.011e-3
-1.998, 1.011e-3
-1.999, 1.011e-3
-2.000, 1.011e-3
-2.001, 1.011e-3
-2.002, 1.011e-3
-2.003, 1.011e-3
-2.004, 1.011e-3
-2.005, 1.011e-3
-2.006, 1.011e-3
-2.007, 1.011e-3
-2.008, 1.011e-3
-2.009, 1.011e-3
-2.010, 1.011e-3
-2.011, 1.011e-3
-2.012, 1.011e-3
-2.013, 1.011e-3
-2.014, 1.011e-3
-2.015, 1.011e-3
-2.016, 1.011e-3
-2.017, 1.011e-3
-2.018, 1.011e-3
-2.019, 1.011e-3
-2.020, 1.011e-3
-2.021, 1.011e-3
-2.022, 1.011e-3
-2.023, 1.011e-3
-2.024, 1.011e-3
-2.025, 1.011e-3
-2.026, 1.011e-3
-2.027, 1.011e-3
-2.028, 1.011e-3
-2.029, 1.011e-3
-2.030, 1.011e-3
-2.031, 1.011e-3
-2.032, 1.011e-3
-2.033, 1.011e-3
-2.034, 1.011e-3
-2.035, 1.011e-3
-2.036, 1.011e-3
-2.037, 1.011e-3
-2.038, 1.011e-3
-2.039, 1.011e-3
-2.040, 1.011e-3
-2.041, 1.011e-3
-2.042, 1.011e-3
-2.043, 1.011e-3
-2.044, 1.011e-3
-2.045, 1.011e-3
-2.046, 1.011e-3
-2.047, 1.011e-3
-2.048, 1.011e-3
-2.049, 1.011e-3
-2.050, 1.011e-3
-2.051, 1.011e-3
-2.052, 1.011e-3
-2.053, 1.011e-3
-2.054, 1.011e-3
-2.055, 1.011e-3
-2.056, 1.011e-3
-2.057, 1.011e-3
-2.058, 1.011e-3
-2.059, 1.011e-3
-2.060, 1.011e-3
-2.061, 1.011e-3
-2.062, 1.011e-3
-2.063, 1.011e-3
-2.064, 1.011e-3
-2.065, 1.011e-3
-2.066, 1.011e-3
-2.067, 1.011e-3
-2.068, 1.011e-3
-2.069, 1.011e-3
-2.070, 1.011e-3
-2.071, 1.011e-3
-2.072, 1.011e-3
-2.073, 1.011e-3
-2.074, 1.011e-3
-2.075, 1.011e-3
-2.076, 1.011e-3
-2.077, 1.011e-3
-2.078, 1.011e-3
-2.079, 1.011e-3
-2.080, 1.011e-3
-2.081, 1.011e-3
-2.082, 1.011e-3
-2.083, 1.011e-3
-2.084, 1.011e-3
-2.085, 1.011e-3
-2.086, 1.011e-3
-2.087, 1.011e-3
-2.088, 1.011e-3
-2.089, 1.011e-3
-2.090, 1.011e-3
-2.091, 1.011e-3
-2.092, 1.011e-3
-2.093, 1.011e-3
-2.094, 1.011e-3
-2.095, 1.011e-3
-2.096, 1.011e-3
-2.097, 1.011e-3
-2.098, 1.011e-3
-2.099, 1.011e-3
-2.100, 1.011e-3
-2.101, 1.011e-3
-2.102, 1.011e-3
-2.103, 1.011e-3
-2.104, 1.011e-3
-2.105, 1.011e-3
-2.106, 1.011e-3
-2.107, 1.011e-3
-2.108, 1.011e-3
-2.109, 1.011e-3
-2.110, 1.011e-3
-2.111, 1.011e-3
-2.112, 1.011e-3
-2.113, 1.011e-3
-2.114, 1.011e-3
-2.115, 1.011e-3
-2.116, 1.011e-3
-2.117, 1.011e-3
-2.118, 1.011e-3
-2.119, 1.011e-3
-2.120, 1.011e-3
-2.121, 1.011e-3
-2.122, 1.011e-3
-2.123, 1.011e-3
-2.124, 1.011e-3
-2.125, 1.011e-3
-2.126, 1.011e-3
-2.127, 1.011e-3
-2.128, 1.011e-3
-2.129, 1.011e-3
-2.130, 1.011e-3
-2.131, 1.011e-3
-2.132, 1.011e-3
-2.133, 1.011e-3
-2.134, 1.011e-3
-2.135, 1.011e-3
-2.136, 1.011e-3
-2.137, 1.011e-3
-2.138, 1.011e-3
-2.139, 1.011e-3
-2.140, 1.011e-3
-2.141, 1.011e-3
-2.142, 1.011e-3
-2.143, 1.011e-3
-2.144, 1.011e-3
-2.145, 1.011e-3
-2.146, 1.011e-3
-2.147, 1.011e-3
-2.148, 1.011e-3
-2.149, 1.011e-3
-2.150, 1.011e-3
-2.151, 1.011e-3
-2.152, 1.011e-3
-2.153, 1.011e-3
-2.154, 1.011e-3
-2.155, 1.011e-3
-2.156, 1.011e-3
-2.157, 1.011e-3
-2.158, 1.011e-3
-2.159, 1.011e-3
-2.160, 1.011e-3
-2.161, 1.011e-3
-2.162, 1.011e-3
-2.163, 1.011e-3
-2.164, 1.011e-3
-2.165, 1.011e-3
-2.166, 1.011e-3
-2.167, 1.011e-3
-2.168, 1.011e-3
-2.169, 1.011e-3
-2.170, 1.011e-3
-2.171, 1.011e-3
-2.172, 1.011e-3
-2.173, 1.011e-3
-2.174, 1.011e-3
-2.175, 1.011e-3
-2.176, 1.011e-3
-2.177, 1.011e-3
-2.178, 1.011e-3
-2.179, 1.011e-3
-2.180, 1.011e-3
-2.181, 1.011e-3
-2.182, 1.011e-3
-2.183, 1.011e-3
-2.184, 1.011e-3
-2.185, 1.011e-3
-2.186, 1.011e-3
-2.187, 1.011e-3
-2.188, 1.011e-3
-2.189, 1.011e-3
-2.190, 1.011e-3
-2.191, 1.011e-3
-2.192, 1.011e-3
-2.193, 1.011e-3
-2.194, 1.011e-3
-2.195, 1.011e-3
-2.196, 1.011e-3
-2.197, 1.011e-3
-2.198, 1.011e-3
-2.199, 1.011e-3
-2.200, 1.011e-3
-2.201, 1.011e-3
-2.202, 1.011e-3
-2.203, 1.011e-3
-2.204, 1.011e-3
-2.205, 1.011e-3
-2.206, 1.011e-3
-2.207, 1.011e-3
-2.208, 1.011e-3
-2.209, 1.011e-3
-2.210, 1.011e-3
-2.211, 1.011e-3
-2.212, 1.011e-3
-2.213, 1.011e-3
-2.214, 1.011e-3
-2.215, 1.011e-3
-2.216, 1.011e-3
-2.217, 1.011e-3
-2.218, 1.011e-3
-2.219, 1.011e-3
-2.220, 1.011e-3
-2.221, 1.011e-3
-2.222, 1.011e-3
-2.223, 1.011e-3
-2.224, 1.011e-3
-2.225, 1.011e-3
-2.226, 1.011e-3
-2.227, 1.011e-3
-2.228, 1.011e-3
-2.229, 1.011e-3
-2.230, 1.011e-3
-2.231, 1.011e-3
-2.232, 1.011e-3
-2.233, 1.011e-3
-2.234, 1.011e-3
-2.235, 1.011e-3
-2.236, 1.011e-3
-2.237, 1.011e-3
-2.238, 1.011e-3
-2.239, 1.011e-3
-2.240, 1.011e-3
-2.241, 1.011e-3
-2.242, 1.011e-3
-2.243, 1.011e-3
-2.244, 1.011e-3
-2.245, 1.011e-3
-2.246, 1.011e-3
-2.247, 1.011e-3
-2.248, 1.011e-3
-2.249, 1.011e-3
-2.250, 1.011e-3
-2.251, 1.011e-3
-2.252, 1.011e-3
-2.253, 1.011e-3
-2.254, 1.011e-3
-2.255, 1.011e-3
-2.256, 1.011e-3
-2.257, 1.011e-3
-2.258, 1.011e-3
-2.259, 1.011e-3
-2.260, 1.011e-3
-2.261, 1.011e-3
-2.262, 1.011e-3
-2.263, 1.011e-3
-2.264, 1.011e-3
-2.265, 1.011e-3
-2.266, 1.011e-3
-2.267, 1.011e-3
-2.268, 1.011e-3
-2.269, 1.011e-3
-2.270, 1.011e-3
-2.271, 1.011e-3
-2.272, 1.011e-3
-2.273, 1.011e-3
-2.274, 1.011e-3
-2.275, 1.011e-3
-2.276, 1.011e-3
-2.277, 1.011e-3
-2.278, 1.011e-3
-2.279, 1.011e-3
-2.280, 1.011e-3
-2.281, 1.011e-3
-2.282, 1.011e-3
-2.283, 1.011e-3
-2.284, 1.011e-3
-2.285, 1.011e-3
-2.286, 1.011e-3
-2.287, 1.011e-3
-2.288, 1.011e-3
-2.289, 1.011e-3
-2.290, 1.011e-3
-2.291, 1.011e-3
-2.292, 1.011e-3
-2.293, 1.011e-3
-2.294, 1.011e-3
-2.295, 1.011e-3
-2.296, 1.011e-3
-2.297, 1.011e-3
-2.298, 1.011e-3
-2.299, 1.011e-3
