Sept. 21, 2024   20:37:20
Cyclic Voltammetry
File: c:/users/guazh/data/20240903_batch_400_500/2024-09-20-exp411\exp411-2024-09-21t20_20_19-arkoh\exp411_cv_50mvs_efin_-1800mv.bin
Data Source:  Experiment
Instrument Model:  CHI760E
Header: CV ran at 50 mVs
Note: 

Init E (V) = -1
High E (V) = -1
Low E (V) = -1.8
Final E (V) = -1
Init P/N = N
Scan Rate (V/s) = 0.05
Segment = 7
Sample Interval (V) = 0.001
Quiet Time (sec) = 60
Sensitivity (A/V) = 0.001
Comp R (ohm) = 2.1

Results:

Channel 1:
Segment 1:

Segment 2:

Segment 3:

Segment 4:

Segment 5:

Segment 6:

Segment 7:

Potential/V, Current/A

-1.000, 4.004e-7
-1.001, 7.230e-7
-1.002, 8.404e-7
-1.003, 9.420e-7
-1.004, 1.018e-6
-1.005, 1.089e-6
-1.006, 1.163e-6
-1.007, 1.227e-6
-1.008, 1.276e-6
-1.009, 1.312e-6
-1.010, 1.366e-6
-1.011, 1.437e-6
-1.012, 1.468e-6
-1.013, 1.505e-6
-1.014, 1.548e-6
-1.015, 1.593e-6
-1.016, 1.641e-6
-1.017, 1.673e-6
-1.018, 1.672e-6
-1.019, 1.713e-6
-1.020, 1.758e-6
-1.021, 1.717e-6
-1.022, 1.809e-6
-1.023, 1.824e-6
-1.024, 1.878e-6
-1.025, 1.847e-6
-1.026, 1.929e-6
-1.027, 1.915e-6
-1.028, 1.983e-6
-1.029, 2.034e-6
-1.030, 2.001e-6
-1.031, 2.030e-6
-1.032, 1.991e-6
-1.033, 2.078e-6
-1.034, 2.099e-6
-1.035, 2.063e-6
-1.036, 2.134e-6
-1.037, 2.119e-6
-1.038, 2.190e-6
-1.039, 2.182e-6
-1.040, 2.227e-6
-1.041, 2.247e-6
-1.042, 2.282e-6
-1.043, 2.298e-6
-1.044, 2.284e-6
-1.045, 2.274e-6
-1.046, 2.329e-6
-1.047, 2.332e-6
-1.048, 2.386e-6
-1.049, 2.441e-6
-1.050, 2.416e-6
-1.051, 2.484e-6
-1.052, 2.474e-6
-1.053, 2.482e-6
-1.054, 2.539e-6
-1.055, 2.468e-6
-1.056, 2.491e-6
-1.057, 2.480e-6
-1.058, 2.524e-6
-1.059, 2.499e-6
-1.060, 2.567e-6
-1.061, 2.615e-6
-1.062, 2.629e-6
-1.063, 2.639e-6
-1.064, 2.655e-6
-1.065, 2.682e-6
-1.066, 2.714e-6
-1.067, 2.759e-6
-1.068, 2.782e-6
-1.069, 2.752e-6
-1.070, 2.791e-6
-1.071, 2.799e-6
-1.072, 2.818e-6
-1.073, 2.842e-6
-1.074, 2.835e-6
-1.075, 2.818e-6
-1.076, 2.876e-6
-1.077, 2.849e-6
-1.078, 2.909e-6
-1.079, 2.952e-6
-1.080, 2.964e-6
-1.081, 3.004e-6
-1.082, 2.985e-6
-1.083, 3.019e-6
-1.084, 3.010e-6
-1.085, 3.040e-6
-1.086, 3.048e-6
-1.087, 3.089e-6
-1.088, 3.038e-6
-1.089, 2.981e-6
-1.090, 2.997e-6
-1.091, 2.994e-6
-1.092, 3.071e-6
-1.093, 3.092e-6
-1.094, 3.137e-6
-1.095, 3.133e-6
-1.096, 3.167e-6
-1.097, 3.204e-6
-1.098, 3.264e-6
-1.099, 3.256e-6
-1.100, 3.227e-6
-1.101, 3.275e-6
-1.102, 3.295e-6
-1.103, 3.281e-6
-1.104, 3.309e-6
-1.105, 3.298e-6
-1.106, 3.335e-6
-1.107, 3.336e-6
-1.108, 3.377e-6
-1.109, 3.392e-6
-1.110, 3.387e-6
-1.111, 3.474e-6
-1.112, 3.579e-6
-1.113, 3.547e-6
-1.114, 3.525e-6
-1.115, 3.524e-6
-1.116, 3.531e-6
-1.117, 3.543e-6
-1.118, 3.574e-6
-1.119, 3.549e-6
-1.120, 3.588e-6
-1.121, 3.586e-6
-1.122, 3.593e-6
-1.123, 3.570e-6
-1.124, 3.613e-6
-1.125, 3.564e-6
-1.126, 3.599e-6
-1.127, 3.631e-6
-1.128, 3.674e-6
-1.129, 3.653e-6
-1.130, 3.654e-6
-1.131, 3.657e-6
-1.132, 3.641e-6
-1.133, 3.705e-6
-1.134, 3.758e-6
-1.135, 3.808e-6
-1.136, 3.779e-6
-1.137, 3.812e-6
-1.138, 3.842e-6
-1.139, 3.819e-6
-1.140, 3.869e-6
-1.141, 3.865e-6
-1.142, 3.903e-6
-1.143, 3.913e-6
-1.144, 3.840e-6
-1.145, 3.883e-6
-1.146, 3.869e-6
-1.147, 3.913e-6
-1.148, 3.885e-6
-1.149, 3.951e-6
-1.150, 3.940e-6
-1.151, 3.966e-6
-1.152, 3.955e-6
-1.153, 3.977e-6
-1.154, 3.997e-6
-1.155, 3.973e-6
-1.156, 4.002e-6
-1.157, 4.004e-6
-1.158, 4.028e-6
-1.159, 3.952e-6
-1.160, 4.009e-6
-1.161, 4.036e-6
-1.162, 4.071e-6
-1.163, 4.070e-6
-1.164, 4.102e-6
-1.165, 4.101e-6
-1.166, 4.065e-6
-1.167, 4.100e-6
-1.168, 4.112e-6
-1.169, 4.138e-6
-1.170, 4.150e-6
-1.171, 4.118e-6
-1.172, 4.205e-6
-1.173, 4.158e-6
-1.174, 4.196e-6
-1.175, 4.234e-6
-1.176, 4.203e-6
-1.177, 4.259e-6
-1.178, 4.246e-6
-1.179, 4.242e-6
-1.180, 4.270e-6
-1.181, 4.308e-6
-1.182, 4.333e-6
-1.183, 4.320e-6
-1.184, 4.371e-6
-1.185, 4.281e-6
-1.186, 4.318e-6
-1.187, 4.351e-6
-1.188, 4.387e-6
-1.189, 4.376e-6
-1.190, 4.398e-6
-1.191, 4.437e-6
-1.192, 4.434e-6
-1.193, 4.429e-6
-1.194, 4.465e-6
-1.195, 4.481e-6
-1.196, 4.481e-6
-1.197, 4.463e-6
-1.198, 4.497e-6
-1.199, 4.522e-6
-1.200, 4.520e-6
-1.201, 4.528e-6
-1.202, 4.574e-6
-1.203, 4.547e-6
-1.204, 4.568e-6
-1.205, 4.592e-6
-1.206, 4.644e-6
-1.207, 4.652e-6
-1.208, 4.600e-6
-1.209, 4.635e-6
-1.210, 4.629e-6
-1.211, 4.660e-6
-1.212, 4.724e-6
-1.213, 4.667e-6
-1.214, 4.687e-6
-1.215, 4.681e-6
-1.216, 4.760e-6
-1.217, 4.714e-6
-1.218, 4.780e-6
-1.219, 4.809e-6
-1.220, 4.744e-6
-1.221, 4.810e-6
-1.222, 4.791e-6
-1.223, 4.823e-6
-1.224, 4.824e-6
-1.225, 4.880e-6
-1.226, 4.857e-6
-1.227, 4.843e-6
-1.228, 4.921e-6
-1.229, 4.961e-6
-1.230, 4.922e-6
-1.231, 4.922e-6
-1.232, 4.895e-6
-1.233, 4.953e-6
-1.234, 4.947e-6
-1.235, 4.941e-6
-1.236, 5.004e-6
-1.237, 5.029e-6
-1.238, 4.986e-6
-1.239, 5.066e-6
-1.240, 5.073e-6
-1.241, 5.113e-6
-1.242, 5.151e-6
-1.243, 5.157e-6
-1.244, 5.175e-6
-1.245, 5.105e-6
-1.246, 5.180e-6
-1.247, 5.295e-6
-1.248, 5.301e-6
-1.249, 5.295e-6
-1.250, 5.285e-6
-1.251, 5.309e-6
-1.252, 5.258e-6
-1.253, 5.294e-6
-1.254, 5.305e-6
-1.255, 5.338e-6
-1.256, 5.343e-6
-1.257, 5.393e-6
-1.258, 5.420e-6
-1.259, 5.495e-6
-1.260, 5.594e-6
-1.261, 5.578e-6
-1.262, 5.615e-6
-1.263, 5.603e-6
-1.264, 5.658e-6
-1.265, 5.673e-6
-1.266, 5.650e-6
-1.267, 5.667e-6
-1.268, 5.728e-6
-1.269, 5.798e-6
-1.270, 5.797e-6
-1.271, 5.860e-6
-1.272, 5.873e-6
-1.273, 5.927e-6
-1.274, 5.938e-6
-1.275, 5.916e-6
-1.276, 6.032e-6
-1.277, 6.049e-6
-1.278, 6.094e-6
-1.279, 6.134e-6
-1.280, 6.208e-6
-1.281, 6.265e-6
-1.282, 6.344e-6
-1.283, 6.335e-6
-1.284, 6.431e-6
-1.285, 6.428e-6
-1.286, 6.476e-6
-1.287, 6.552e-6
-1.288, 6.582e-6
-1.289, 6.599e-6
-1.290, 6.619e-6
-1.291, 6.668e-6
-1.292, 6.779e-6
-1.293, 6.833e-6
-1.294, 6.924e-6
-1.295, 6.941e-6
-1.296, 7.015e-6
-1.297, 7.102e-6
-1.298, 7.152e-6
-1.299, 7.224e-6
-1.300, 7.319e-6
-1.301, 7.408e-6
-1.302, 7.461e-6
-1.303, 7.529e-6
-1.304, 7.659e-6
-1.305, 7.700e-6
-1.306, 7.800e-6
-1.307, 7.831e-6
-1.308, 7.954e-6
-1.309, 8.082e-6
-1.310, 8.083e-6
-1.311, 8.159e-6
-1.312, 8.276e-6
-1.313, 8.365e-6
-1.314, 8.440e-6
-1.315, 8.652e-6
-1.316, 8.747e-6
-1.317, 8.793e-6
-1.318, 8.852e-6
-1.319, 9.022e-6
-1.320, 9.123e-6
-1.321, 9.239e-6
-1.322, 9.409e-6
-1.323, 9.408e-6
-1.324, 9.600e-6
-1.325, 9.720e-6
-1.326, 9.864e-6
-1.327, 9.958e-6
-1.328, 1.007e-5
-1.329, 1.024e-5
-1.330, 1.035e-5
-1.331, 1.054e-5
-1.332, 1.066e-5
-1.333, 1.082e-5
-1.334, 1.090e-5
-1.335, 1.103e-5
-1.336, 1.120e-5
-1.337, 1.134e-5
-1.338, 1.152e-5
-1.339, 1.166e-5
-1.340, 1.182e-5
-1.341, 1.200e-5
-1.342, 1.214e-5
-1.343, 1.232e-5
-1.344, 1.250e-5
-1.345, 1.270e-5
-1.346, 1.289e-5
-1.347, 1.309e-5
-1.348, 1.329e-5
-1.349, 1.352e-5
-1.350, 1.361e-5
-1.351, 1.386e-5
-1.352, 1.402e-5
-1.353, 1.430e-5
-1.354, 1.452e-5
-1.355, 1.483e-5
-1.356, 1.502e-5
-1.357, 1.519e-5
-1.358, 1.542e-5
-1.359, 1.561e-5
-1.360, 1.584e-5
-1.361, 1.608e-5
-1.362, 1.635e-5
-1.363, 1.659e-5
-1.364, 1.681e-5
-1.365, 1.696e-5
-1.366, 1.725e-5
-1.367, 1.757e-5
-1.368, 1.789e-5
-1.369, 1.808e-5
-1.370, 1.832e-5
-1.371, 1.832e-5
-1.372, 1.857e-5
-1.373, 1.882e-5
-1.374, 1.917e-5
-1.375, 1.947e-5
-1.376, 1.981e-5
-1.377, 2.016e-5
-1.378, 2.049e-5
-1.379, 2.075e-5
-1.380, 2.106e-5
-1.381, 2.132e-5
-1.382, 2.165e-5
-1.383, 2.199e-5
-1.384, 2.228e-5
-1.385, 2.258e-5
-1.386, 2.277e-5
-1.387, 2.311e-5
-1.388, 2.337e-5
-1.389, 2.379e-5
-1.390, 2.424e-5
-1.391, 2.454e-5
-1.392, 2.490e-5
-1.393, 2.520e-5
-1.394, 2.563e-5
-1.395, 2.602e-5
-1.396, 2.641e-5
-1.397, 2.677e-5
-1.398, 2.715e-5
-1.399, 2.751e-5
-1.400, 2.788e-5
-1.401, 2.835e-5
-1.402, 2.874e-5
-1.403, 2.914e-5
-1.404, 2.949e-5
-1.405, 2.989e-5
-1.406, 3.021e-5
-1.407, 3.064e-5
-1.408, 3.099e-5
-1.409, 3.144e-5
-1.410, 3.184e-5
-1.411, 3.224e-5
-1.412, 3.263e-5
-1.413, 3.298e-5
-1.414, 3.356e-5
-1.415, 3.397e-5
-1.416, 3.429e-5
-1.417, 3.471e-5
-1.418, 3.508e-5
-1.419, 3.555e-5
-1.420, 3.597e-5
-1.421, 3.650e-5
-1.422, 3.707e-5
-1.423, 3.761e-5
-1.424, 3.805e-5
-1.425, 3.854e-5
-1.426, 3.903e-5
-1.427, 3.946e-5
-1.428, 3.997e-5
-1.429, 4.047e-5
-1.430, 4.098e-5
-1.431, 4.152e-5
-1.432, 4.202e-5
-1.433, 4.250e-5
-1.434, 4.303e-5
-1.435, 4.362e-5
-1.436, 4.414e-5
-1.437, 4.469e-5
-1.438, 4.524e-5
-1.439, 4.580e-5
-1.440, 4.626e-5
-1.441, 4.683e-5
-1.442, 4.735e-5
-1.443, 4.797e-5
-1.444, 4.847e-5
-1.445, 4.903e-5
-1.446, 4.964e-5
-1.447, 5.017e-5
-1.448, 5.080e-5
-1.449, 5.134e-5
-1.450, 5.196e-5
-1.451, 5.249e-5
-1.452, 5.311e-5
-1.453, 5.379e-5
-1.454, 5.442e-5
-1.455, 5.485e-5
-1.456, 5.543e-5
-1.457, 5.607e-5
-1.458, 5.666e-5
-1.459, 5.730e-5
-1.460, 5.784e-5
-1.461, 5.843e-5
-1.462, 5.907e-5
-1.463, 5.981e-5
-1.464, 6.051e-5
-1.465, 6.104e-5
-1.466, 6.170e-5
-1.467, 6.240e-5
-1.468, 6.318e-5
-1.469, 6.377e-5
-1.470, 6.436e-5
-1.471, 6.503e-5
-1.472, 6.571e-5
-1.473, 6.645e-5
-1.474, 6.700e-5
-1.475, 6.769e-5
-1.476, 6.837e-5
-1.477, 6.926e-5
-1.478, 6.988e-5
-1.479, 7.044e-5
-1.480, 7.099e-5
-1.481, 7.159e-5
-1.482, 7.203e-5
-1.483, 7.265e-5
-1.484, 7.332e-5
-1.485, 7.416e-5
-1.486, 7.488e-5
-1.487, 7.560e-5
-1.488, 7.638e-5
-1.489, 7.700e-5
-1.490, 7.772e-5
-1.491, 7.831e-5
-1.492, 7.924e-5
-1.493, 7.998e-5
-1.494, 8.080e-5
-1.495, 8.155e-5
-1.496, 8.230e-5
-1.497, 8.315e-5
-1.498, 8.382e-5
-1.499, 8.458e-5
-1.500, 8.577e-5
-1.501, 8.686e-5
-1.502, 8.777e-5
-1.503, 8.874e-5
-1.504, 8.914e-5
-1.505, 8.998e-5
-1.506, 9.089e-5
-1.507, 9.157e-5
-1.508, 9.260e-5
-1.509, 9.342e-5
-1.510, 9.407e-5
-1.511, 9.475e-5
-1.512, 9.556e-5
-1.513, 9.625e-5
-1.514, 9.719e-5
-1.515, 9.791e-5
-1.516, 9.883e-5
-1.517, 9.980e-5
-1.518, 1.004e-4
-1.519, 1.009e-4
-1.520, 1.021e-4
-1.521, 1.030e-4
-1.522, 1.039e-4
-1.523, 1.046e-4
-1.524, 1.054e-4
-1.525, 1.062e-4
-1.526, 1.074e-4
-1.527, 1.083e-4
-1.528, 1.093e-4
-1.529, 1.102e-4
-1.530, 1.110e-4
-1.531, 1.120e-4
-1.532, 1.130e-4
-1.533, 1.140e-4
-1.534, 1.147e-4
-1.535, 1.159e-4
-1.536, 1.169e-4
-1.537, 1.181e-4
-1.538, 1.189e-4
-1.539, 1.199e-4
-1.540, 1.210e-4
-1.541, 1.220e-4
-1.542, 1.230e-4
-1.543, 1.240e-4
-1.544, 1.251e-4
-1.545, 1.260e-4
-1.546, 1.271e-4
-1.547, 1.283e-4
-1.548, 1.295e-4
-1.549, 1.307e-4
-1.550, 1.318e-4
-1.551, 1.331e-4
-1.552, 1.341e-4
-1.553, 1.358e-4
-1.554, 1.373e-4
-1.555, 1.385e-4
-1.556, 1.396e-4
-1.557, 1.405e-4
-1.558, 1.422e-4
-1.559, 1.434e-4
-1.560, 1.448e-4
-1.561, 1.461e-4
-1.562, 1.475e-4
-1.563, 1.488e-4
-1.564, 1.499e-4
-1.565, 1.520e-4
-1.566, 1.536e-4
-1.567, 1.550e-4
-1.568, 1.565e-4
-1.569, 1.580e-4
-1.570, 1.594e-4
-1.571, 1.607e-4
-1.572, 1.617e-4
-1.573, 1.637e-4
-1.574, 1.651e-4
-1.575, 1.660e-4
-1.576, 1.676e-4
-1.577, 1.695e-4
-1.578, 1.713e-4
-1.579, 1.728e-4
-1.580, 1.745e-4
-1.581, 1.769e-4
-1.582, 1.787e-4
-1.583, 1.808e-4
-1.584, 1.818e-4
-1.585, 1.837e-4
-1.586, 1.860e-4
-1.587, 1.880e-4
-1.588, 1.900e-4
-1.589, 1.921e-4
-1.590, 1.941e-4
-1.591, 1.960e-4
-1.592, 1.980e-4
-1.593, 1.999e-4
-1.594, 2.017e-4
-1.595, 2.034e-4
-1.596, 2.057e-4
-1.597, 2.073e-4
-1.598, 2.100e-4
-1.599, 2.120e-4
-1.600, 2.140e-4
-1.601, 2.162e-4
-1.602, 2.185e-4
-1.603, 2.209e-4
-1.604, 2.234e-4
-1.605, 2.262e-4
-1.606, 2.288e-4
-1.607, 2.312e-4
-1.608, 2.339e-4
-1.609, 2.368e-4
-1.610, 2.394e-4
-1.611, 2.427e-4
-1.612, 2.459e-4
-1.613, 2.483e-4
-1.614, 2.514e-4
-1.615, 2.547e-4
-1.616, 2.566e-4
-1.617, 2.595e-4
-1.618, 2.628e-4
-1.619, 2.659e-4
-1.620, 2.693e-4
-1.621, 2.727e-4
-1.622, 2.759e-4
-1.623, 2.795e-4
-1.624, 2.831e-4
-1.625, 2.864e-4
-1.626, 2.894e-4
-1.627, 2.928e-4
-1.628, 2.968e-4
-1.629, 3.000e-4
-1.630, 3.032e-4
-1.631, 3.072e-4
-1.632, 3.120e-4
-1.633, 3.163e-4
-1.634, 3.204e-4
-1.635, 3.248e-4
-1.636, 3.296e-4
-1.637, 3.331e-4
-1.638, 3.367e-4
-1.639, 3.414e-4
-1.640, 3.466e-4
-1.641, 3.516e-4
-1.642, 3.557e-4
-1.643, 3.601e-4
-1.644, 3.656e-4
-1.645, 3.704e-4
-1.646, 3.753e-4
-1.647, 3.809e-4
-1.648, 3.870e-4
-1.649, 3.950e-4
-1.650, 4.014e-4
-1.651, 4.061e-4
-1.652, 4.119e-4
-1.653, 4.177e-4
-1.654, 4.231e-4
-1.655, 4.290e-4
-1.656, 4.347e-4
-1.657, 4.409e-4
-1.658, 4.469e-4
-1.659, 4.550e-4
-1.660, 4.623e-4
-1.661, 4.693e-4
-1.662, 4.754e-4
-1.663, 4.821e-4
-1.664, 4.905e-4
-1.665, 4.981e-4
-1.666, 5.063e-4
-1.667, 5.143e-4
-1.668, 5.222e-4
-1.669, 5.301e-4
-1.670, 5.381e-4
-1.671, 5.472e-4
-1.672, 5.571e-4
-1.673, 5.659e-4
-1.674, 5.735e-4
-1.675, 5.827e-4
-1.676, 5.933e-4
-1.677, 6.018e-4
-1.678, 6.113e-4
-1.679, 6.206e-4
-1.680, 6.307e-4
-1.681, 6.400e-4
-1.682, 6.513e-4
-1.683, 6.624e-4
-1.684, 6.753e-4
-1.685, 6.894e-4
-1.686, 7.007e-4
-1.687, 7.107e-4
-1.688, 7.204e-4
-1.689, 7.334e-4
-1.690, 7.463e-4
-1.691, 7.595e-4
-1.692, 7.762e-4
-1.693, 7.916e-4
-1.694, 8.045e-4
-1.695, 8.176e-4
-1.696, 8.287e-4
-1.697, 8.427e-4
-1.698, 8.579e-4
-1.699, 8.718e-4
-1.700, 8.856e-4
-1.701, 9.025e-4
-1.702, 9.203e-4
-1.703, 9.379e-4
-1.704, 9.549e-4
-1.705, 9.707e-4
-1.706, 9.873e-4
-1.707, 1.000e-3
-1.708, 1.018e-3
-1.709, 1.039e-3
-1.710, 1.060e-3
-1.711, 1.080e-3
-1.712, 1.098e-3
-1.713, 1.124e-3
-1.714, 1.139e-3
-1.715, 1.163e-3
-1.716, 1.184e-3
-1.717, 1.204e-3
-1.718, 1.224e-3
-1.719, 1.244e-3
-1.720, 1.268e-3
-1.721, 1.290e-3
-1.722, 1.310e-3
-1.723, 1.338e-3
-1.724, 1.364e-3
-1.725, 1.387e-3
-1.726, 1.412e-3
-1.727, 1.432e-3
-1.728, 1.455e-3
-1.729, 1.483e-3
-1.730, 1.506e-3
-1.731, 1.538e-3
-1.732, 1.567e-3
-1.733, 1.596e-3
-1.734, 1.624e-3
-1.735, 1.657e-3
-1.736, 1.689e-3
-1.737, 1.720e-3
-1.738, 1.752e-3
-1.739, 1.779e-3
-1.740, 1.799e-3
-1.741, 1.826e-3
-1.742, 1.861e-3
-1.743, 1.887e-3
-1.744, 1.925e-3
-1.745, 1.967e-3
-1.746, 2.001e-3
-1.747, 2.039e-3
-1.748, 2.071e-3
-1.749, 2.100e-3
-1.750, 2.141e-3
-1.751, 2.173e-3
-1.752, 2.214e-3
-1.753, 2.257e-3
-1.754, 2.303e-3
-1.755, 2.339e-3
-1.756, 2.386e-3
-1.757, 2.447e-3
-1.758, 2.490e-3
-1.759, 2.530e-3
-1.760, 2.563e-3
-1.761, 2.605e-3
-1.762, 2.648e-3
-1.763, 2.681e-3
-1.764, 2.727e-3
-1.765, 2.764e-3
-1.766, 2.795e-3
-1.767, 2.840e-3
-1.768, 2.881e-3
-1.769, 2.924e-3
-1.770, 2.972e-3
-1.771, 3.021e-3
-1.772, 3.071e-3
-1.773, 3.114e-3
-1.774, 3.164e-3
-1.775, 3.224e-3
-1.776, 3.275e-3
-1.777, 3.321e-3
-1.778, 3.368e-3
-1.779, 3.422e-3
-1.780, 3.482e-3
-1.781, 3.539e-3
-1.782, 3.589e-3
-1.783, 3.635e-3
-1.784, 3.673e-3
-1.785, 3.735e-3
-1.786, 3.799e-3
-1.787, 3.857e-3
-1.788, 3.898e-3
-1.789, 3.946e-3
-1.790, 4.011e-3
-1.791, 4.066e-3
-1.792, 4.116e-3
-1.793, 4.159e-3
-1.794, 4.209e-3
-1.795, 4.255e-3
-1.796, 4.312e-3
-1.797, 4.357e-3
-1.798, 4.412e-3
-1.799, 4.457e-3
-1.800, 4.490e-3
-1.799, 4.476e-3
-1.798, 4.457e-3
-1.797, 4.434e-3
-1.796, 4.411e-3
-1.795, 4.392e-3
-1.794, 4.365e-3
-1.793, 4.338e-3
-1.792, 4.305e-3
-1.791, 4.262e-3
-1.790, 4.214e-3
-1.789, 4.167e-3
-1.788, 4.130e-3
-1.787, 4.107e-3
-1.786, 4.072e-3
-1.785, 4.032e-3
-1.784, 4.010e-3
-1.783, 3.973e-3
-1.782, 3.943e-3
-1.781, 3.902e-3
-1.780, 3.857e-3
-1.779, 3.813e-3
-1.778, 3.771e-3
-1.777, 3.727e-3
-1.776, 3.688e-3
-1.775, 3.664e-3
-1.774, 3.629e-3
-1.773, 3.597e-3
-1.772, 3.563e-3
-1.771, 3.523e-3
-1.770, 3.499e-3
-1.769, 3.459e-3
-1.768, 3.432e-3
-1.767, 3.392e-3
-1.766, 3.353e-3
-1.765, 3.317e-3
-1.764, 3.285e-3
-1.763, 3.245e-3
-1.762, 3.207e-3
-1.761, 3.177e-3
-1.760, 3.131e-3
-1.759, 3.095e-3
-1.758, 3.060e-3
-1.757, 3.027e-3
-1.756, 2.987e-3
-1.755, 2.946e-3
-1.754, 2.914e-3
-1.753, 2.881e-3
-1.752, 2.851e-3
-1.751, 2.810e-3
-1.750, 2.784e-3
-1.749, 2.748e-3
-1.748, 2.718e-3
-1.747, 2.681e-3
-1.746, 2.651e-3
-1.745, 2.612e-3
-1.744, 2.575e-3
-1.743, 2.554e-3
-1.742, 2.529e-3
-1.741, 2.495e-3
-1.740, 2.471e-3
-1.739, 2.439e-3
-1.738, 2.425e-3
-1.737, 2.402e-3
-1.736, 2.376e-3
-1.735, 2.337e-3
-1.734, 2.314e-3
-1.733, 2.285e-3
-1.732, 2.268e-3
-1.731, 2.232e-3
-1.730, 2.237e-3
-1.729, 2.198e-3
-1.728, 2.170e-3
-1.727, 2.136e-3
-1.726, 2.106e-3
-1.725, 2.081e-3
-1.724, 2.056e-3
-1.723, 2.030e-3
-1.722, 2.003e-3
-1.721, 1.978e-3
-1.720, 1.945e-3
-1.719, 1.928e-3
-1.718, 1.888e-3
-1.717, 1.857e-3
-1.716, 1.836e-3
-1.715, 1.813e-3
-1.714, 1.792e-3
-1.713, 1.765e-3
-1.712, 1.737e-3
-1.711, 1.750e-3
-1.710, 1.682e-3
-1.709, 1.662e-3
-1.708, 1.642e-3
-1.707, 1.615e-3
-1.706, 1.594e-3
-1.705, 1.578e-3
-1.704, 1.569e-3
-1.703, 1.545e-3
-1.702, 1.521e-3
-1.701, 1.491e-3
-1.700, 1.471e-3
-1.699, 1.451e-3
-1.698, 1.428e-3
-1.697, 1.409e-3
-1.696, 1.395e-3
-1.695, 1.385e-3
-1.694, 1.381e-3
-1.693, 1.360e-3
-1.692, 1.321e-3
-1.691, 1.303e-3
-1.690, 1.279e-3
-1.689, 1.265e-3
-1.688, 1.246e-3
-1.687, 1.225e-3
-1.686, 1.219e-3
-1.685, 1.195e-3
-1.684, 1.178e-3
-1.683, 1.160e-3
-1.682, 1.143e-3
-1.681, 1.131e-3
-1.680, 1.119e-3
-1.679, 1.101e-3
-1.678, 1.081e-3
-1.677, 1.054e-3
-1.676, 1.038e-3
-1.675, 1.025e-3
-1.674, 1.013e-3
-1.673, 1.005e-3
-1.672, 9.975e-4
-1.671, 9.854e-4
-1.670, 9.668e-4
-1.669, 9.509e-4
-1.668, 9.257e-4
-1.667, 9.090e-4
-1.666, 9.033e-4
-1.665, 8.869e-4
-1.664, 8.864e-4
-1.663, 8.584e-4
-1.662, 8.539e-4
-1.661, 8.286e-4
-1.660, 8.177e-4
-1.659, 8.107e-4
-1.658, 7.921e-4
-1.657, 7.913e-4
-1.656, 7.663e-4
-1.655, 7.581e-4
-1.654, 7.469e-4
-1.653, 7.394e-4
-1.652, 7.275e-4
-1.651, 7.124e-4
-1.650, 7.063e-4
-1.649, 6.908e-4
-1.648, 6.744e-4
-1.647, 6.666e-4
-1.646, 6.537e-4
-1.645, 6.445e-4
-1.644, 6.389e-4
-1.643, 6.219e-4
-1.642, 6.129e-4
-1.641, 6.093e-4
-1.640, 5.993e-4
-1.639, 5.924e-4
-1.638, 5.781e-4
-1.637, 5.732e-4
-1.636, 5.660e-4
-1.635, 5.561e-4
-1.634, 5.424e-4
-1.633, 5.303e-4
-1.632, 5.290e-4
-1.631, 5.165e-4
-1.630, 5.099e-4
-1.629, 5.080e-4
-1.628, 5.007e-4
-1.627, 4.973e-4
-1.626, 4.744e-4
-1.625, 4.693e-4
-1.624, 4.610e-4
-1.623, 4.564e-4
-1.622, 4.520e-4
-1.621, 4.482e-4
-1.620, 4.371e-4
-1.619, 4.331e-4
-1.618, 4.237e-4
-1.617, 4.160e-4
-1.616, 4.107e-4
-1.615, 4.039e-4
-1.614, 4.007e-4
-1.613, 3.891e-4
-1.612, 3.830e-4
-1.611, 3.719e-4
-1.610, 3.717e-4
-1.609, 3.657e-4
-1.608, 3.599e-4
-1.607, 3.595e-4
-1.606, 3.408e-4
-1.605, 3.435e-4
-1.604, 3.281e-4
-1.603, 3.308e-4
-1.602, 3.218e-4
-1.601, 3.138e-4
-1.600, 3.093e-4
-1.599, 3.122e-4
-1.598, 3.032e-4
-1.597, 3.048e-4
-1.596, 2.898e-4
-1.595, 2.818e-4
-1.594, 2.804e-4
-1.593, 2.829e-4
-1.592, 2.697e-4
-1.591, 2.689e-4
-1.590, 2.722e-4
-1.589, 2.591e-4
-1.588, 2.570e-4
-1.587, 2.503e-4
-1.586, 2.466e-4
-1.585, 2.413e-4
-1.584, 2.412e-4
-1.583, 2.301e-4
-1.582, 2.282e-4
-1.581, 2.282e-4
-1.580, 2.219e-4
-1.579, 2.142e-4
-1.578, 2.102e-4
-1.577, 2.117e-4
-1.576, 2.033e-4
-1.575, 2.000e-4
-1.574, 1.964e-4
-1.573, 1.934e-4
-1.572, 1.943e-4
-1.571, 1.860e-4
-1.570, 1.851e-4
-1.569, 1.811e-4
-1.568, 1.813e-4
-1.567, 1.745e-4
-1.566, 1.704e-4
-1.565, 1.671e-4
-1.564, 1.659e-4
-1.563, 1.789e-4
-1.562, 1.627e-4
-1.561, 1.550e-4
-1.560, 1.546e-4
-1.559, 1.511e-4
-1.558, 1.510e-4
-1.557, 1.529e-4
-1.556, 1.426e-4
-1.555, 1.390e-4
-1.554, 1.455e-4
-1.553, 1.359e-4
-1.552, 1.322e-4
-1.551, 1.320e-4
-1.550, 1.309e-4
-1.549, 1.247e-4
-1.548, 1.221e-4
-1.547, 1.312e-4
-1.546, 1.192e-4
-1.545, 1.154e-4
-1.544, 1.166e-4
-1.543, 1.140e-4
-1.542, 1.092e-4
-1.541, 1.103e-4
-1.540, 1.116e-4
-1.539, 1.036e-4
-1.538, 1.051e-4
-1.537, 1.002e-4
-1.536, 9.978e-5
-1.535, 9.810e-5
-1.534, 9.293e-5
-1.533, 9.627e-5
-1.532, 9.135e-5
-1.531, 9.881e-5
-1.530, 8.779e-5
-1.529, 8.597e-5
-1.528, 8.589e-5
-1.527, 8.220e-5
-1.526, 8.389e-5
-1.525, 7.983e-5
-1.524, 8.042e-5
-1.523, 7.553e-5
-1.522, 8.072e-5
-1.521, 7.914e-5
-1.520, 7.438e-5
-1.519, 7.088e-5
-1.518, 7.145e-5
-1.517, 6.770e-5
-1.516, 6.981e-5
-1.515, 6.520e-5
-1.514, 6.684e-5
-1.513, 6.190e-5
-1.512, 6.375e-5
-1.511, 6.052e-5
-1.510, 6.584e-5
-1.509, 6.558e-5
-1.508, 5.588e-5
-1.507, 5.506e-5
-1.506, 5.777e-5
-1.505, 5.522e-5
-1.504, 5.376e-5
-1.503, 5.381e-5
-1.502, 5.050e-5
-1.501, 4.816e-5
-1.500, 5.041e-5
-1.499, 4.922e-5
-1.498, 4.754e-5
-1.497, 4.777e-5
-1.496, 5.763e-5
-1.495, 4.527e-5
-1.494, 4.513e-5
-1.493, 4.274e-5
-1.492, 4.311e-5
-1.491, 4.275e-5
-1.490, 4.057e-5
-1.489, 4.111e-5
-1.488, 4.067e-5
-1.487, 4.572e-5
-1.486, 3.880e-5
-1.485, 3.803e-5
-1.484, 3.626e-5
-1.483, 3.616e-5
-1.482, 3.606e-5
-1.481, 3.479e-5
-1.480, 3.433e-5
-1.479, 3.394e-5
-1.478, 3.488e-5
-1.477, 3.858e-5
-1.476, 3.225e-5
-1.475, 3.003e-5
-1.474, 3.100e-5
-1.473, 3.023e-5
-1.472, 2.840e-5
-1.471, 2.907e-5
-1.470, 2.851e-5
-1.469, 2.687e-5
-1.468, 2.592e-5
-1.467, 2.676e-5
-1.466, 4.262e-5
-1.465, 2.586e-5
-1.464, 2.542e-5
-1.463, 2.402e-5
-1.462, 2.420e-5
-1.461, 2.405e-5
-1.460, 2.305e-5
-1.459, 2.272e-5
-1.458, 2.242e-5
-1.457, 2.217e-5
-1.456, 2.027e-5
-1.455, 2.144e-5
-1.454, 2.075e-5
-1.453, 2.161e-5
-1.452, 2.026e-5
-1.451, 1.950e-5
-1.450, 1.755e-5
-1.449, 1.741e-5
-1.448, 1.722e-5
-1.447, 1.854e-5
-1.446, 1.801e-5
-1.445, 1.728e-5
-1.444, 1.719e-5
-1.443, 1.682e-5
-1.442, 1.971e-5
-1.441, 1.944e-5
-1.440, 1.410e-5
-1.439, 1.515e-5
-1.438, 1.586e-5
-1.437, 1.495e-5
-1.436, 1.446e-5
-1.435, 1.415e-5
-1.434, 1.408e-5
-1.433, 1.309e-5
-1.432, 1.221e-5
-1.431, 1.189e-5
-1.430, 1.265e-5
-1.429, 1.365e-5
-1.428, 1.250e-5
-1.427, 1.222e-5
-1.426, 1.212e-5
-1.425, 1.296e-5
-1.424, 1.620e-5
-1.423, 1.720e-5
-1.422, 1.014e-5
-1.421, 9.963e-6
-1.420, 1.094e-5
-1.419, 1.067e-5
-1.418, 1.021e-5
-1.417, 9.910e-6
-1.416, 9.729e-6
-1.415, 9.527e-6
-1.414, 9.319e-6
-1.413, 9.157e-6
-1.412, 8.257e-6
-1.411, 7.884e-6
-1.410, 7.902e-6
-1.409, 8.560e-6
-1.408, 8.742e-6
-1.407, 8.199e-6
-1.406, 7.887e-6
-1.405, 7.664e-6
-1.404, 7.563e-6
-1.403, 7.399e-6
-1.402, 7.298e-6
-1.401, 7.100e-6
-1.400, 8.806e-6
-1.399, 6.297e-6
-1.398, 6.144e-6
-1.397, 5.943e-6
-1.396, 6.386e-6
-1.395, 6.553e-6
-1.394, 6.262e-6
-1.393, 6.027e-6
-1.392, 5.892e-6
-1.391, 5.755e-6
-1.390, 5.599e-6
-1.389, 5.527e-6
-1.388, 5.363e-6
-1.387, 5.244e-6
-1.386, 5.216e-6
-1.385, 5.025e-6
-1.384, 4.815e-6
-1.383, 4.310e-6
-1.382, 4.211e-6
-1.381, 4.265e-6
-1.380, 3.994e-6
-1.379, 3.882e-6
-1.378, 3.770e-6
-1.377, 3.710e-6
-1.376, 3.618e-6
-1.375, 3.535e-6
-1.374, 3.453e-6
-1.373, 3.417e-6
-1.372, 3.357e-6
-1.371, 3.209e-6
-1.370, 3.132e-6
-1.369, 3.054e-6
-1.368, 3.001e-6
-1.367, 2.941e-6
-1.366, 2.851e-6
-1.365, 3.383e-6
-1.364, 4.144e-6
-1.363, 7.976e-6
-1.362, 7.928e-6
-1.361, 3.744e-6
-1.360, 2.449e-6
-1.359, 2.375e-6
-1.358, 2.335e-6
-1.357, 2.262e-6
-1.356, 2.220e-6
-1.355, 2.179e-6
-1.354, 2.063e-6
-1.353, 1.995e-6
-1.352, 1.929e-6
-1.351, 1.946e-6
-1.350, 1.851e-6
-1.349, 1.791e-6
-1.348, 1.789e-6
-1.347, 1.709e-6
-1.346, 1.691e-6
-1.345, 1.602e-6
-1.344, 1.531e-6
-1.343, 1.543e-6
-1.342, 1.465e-6
-1.341, 1.438e-6
-1.340, 1.358e-6
-1.339, 1.322e-6
-1.338, 1.305e-6
-1.337, 1.224e-6
-1.336, 1.234e-6
-1.335, 1.157e-6
-1.334, 1.108e-6
-1.333, 1.072e-6
-1.332, 1.031e-6
-1.331, 9.706e-7
-1.330, 9.420e-7
-1.329, 9.134e-7
-1.328, 8.453e-7
-1.327, 8.463e-7
-1.326, 8.009e-7
-1.325, 7.388e-7
-1.324, 7.072e-7
-1.323, 6.618e-7
-1.322, 6.549e-7
-1.321, 6.263e-7
-1.320, 5.681e-7
-1.319, 5.444e-7
-1.318, 5.040e-7
-1.317, 4.783e-7
-1.316, 4.596e-7
-1.315, 4.004e-7
-1.314, 3.944e-7
-1.313, 3.510e-7
-1.312, 3.195e-7
-1.311, 3.145e-7
-1.310, 2.553e-7
-1.309, 2.524e-7
-1.308, 1.951e-7
-1.307, 1.961e-7
-1.306, 1.675e-7
-1.305, 9.846e-8
-1.304, 9.254e-8
-1.303, 5.209e-8
-1.302, 3.335e-8
-1.301, 4.716e-8
-1.300, -2.980e-8
-1.299, -5.051e-8
-1.298, -6.630e-8
-1.297, -7.617e-8
-1.296, -1.206e-7
-1.295, -1.541e-7
-1.294, -1.472e-7
-1.293, -2.044e-7
-1.292, -1.827e-7
-1.291, -2.232e-7
-1.290, -2.508e-7
-1.289, -2.814e-7
-1.288, -2.952e-7
-1.287, -3.248e-7
-1.286, -3.465e-7
-1.285, -3.297e-7
-1.284, -3.948e-7
-1.283, -3.919e-7
-1.282, -3.889e-7
-1.281, -4.412e-7
-1.280, -4.501e-7
-1.279, -5.083e-7
-1.278, -5.162e-7
-1.277, -5.142e-7
-1.276, -5.280e-7
-1.275, -5.497e-7
-1.274, -6.089e-7
-1.273, -5.764e-7
-1.272, -6.139e-7
-1.271, -6.099e-7
-1.270, -6.484e-7
-1.269, -6.573e-7
-1.268, -6.652e-7
-1.267, -6.938e-7
-1.266, -6.770e-7
-1.265, -7.579e-7
-1.264, -7.628e-7
-1.263, -7.549e-7
-1.262, -8.013e-7
-1.261, -7.865e-7
-1.260, -8.201e-7
-1.259, -8.339e-7
-1.258, -8.132e-7
-1.257, -8.802e-7
-1.256, -8.743e-7
-1.255, -9.286e-7
-1.254, -8.960e-7
-1.253, -9.167e-7
-1.252, -9.582e-7
-1.251, -9.266e-7
-1.250, -1.001e-6
-1.249, -9.819e-7
-1.248, -1.010e-6
-1.247, -1.008e-6
-1.246, -1.048e-6
-1.245, -1.055e-6
-1.244, -1.042e-6
-1.243, -1.087e-6
-1.242, -1.052e-6
-1.241, -1.107e-6
-1.240, -1.146e-6
-1.239, -1.115e-6
-1.238, -1.170e-6
-1.237, -1.171e-6
-1.236, -1.195e-6
-1.235, -1.180e-6
-1.234, -1.201e-6
-1.233, -1.219e-6
-1.232, -1.207e-6
-1.231, -1.237e-6
-1.230, -1.230e-6
-1.229, -1.299e-6
-1.228, -1.295e-6
-1.227, -1.309e-6
-1.226, -1.320e-6
-1.225, -1.344e-6
-1.224, -1.350e-6
-1.223, -1.376e-6
-1.222, -1.362e-6
-1.221, -1.393e-6
-1.220, -1.407e-6
-1.219, -1.455e-6
-1.218, -1.425e-6
-1.217, -1.438e-6
-1.216, -1.474e-6
-1.215, -1.488e-6
-1.214, -1.519e-6
-1.213, -1.496e-6
-1.212, -1.500e-6
-1.211, -1.538e-6
-1.210, -1.523e-6
-1.209, -1.585e-6
-1.208, -1.555e-6
-1.207, -1.591e-6
-1.206, -1.590e-6
-1.205, -1.603e-6
-1.204, -1.651e-6
-1.203, -1.629e-6
-1.202, -1.684e-6
-1.201, -1.669e-6
-1.200, -1.707e-6
-1.199, -1.727e-6
-1.198, -1.718e-6
-1.197, -1.747e-6
-1.196, -1.753e-6
-1.195, -1.784e-6
-1.194, -1.788e-6
-1.193, -1.798e-6
-1.192, -1.829e-6
-1.191, -1.790e-6
-1.190, -1.863e-6
-1.189, -1.872e-6
-1.188, -1.842e-6
-1.187, -1.920e-6
-1.186, -1.888e-6
-1.185, -1.948e-6
-1.184, -1.974e-6
-1.183, -1.967e-6
-1.182, -1.999e-6
-1.181, -1.962e-6
-1.180, -2.039e-6
-1.179, -2.027e-6
-1.178, -2.070e-6
-1.177, -2.108e-6
-1.176, -2.097e-6
-1.175, -2.131e-6
-1.174, -2.129e-6
-1.173, -2.166e-6
-1.172, -2.151e-6
-1.171, -2.188e-6
-1.170, -2.223e-6
-1.169, -2.208e-6
-1.168, -2.244e-6
-1.167, -2.238e-6
-1.166, -2.248e-6
-1.165, -2.300e-6
-1.164, -2.302e-6
-1.163, -2.360e-6
-1.162, -2.332e-6
-1.161, -2.343e-6
-1.160, -2.389e-6
-1.159, -2.419e-6
-1.158, -2.452e-6
-1.157, -2.448e-6
-1.156, -2.477e-6
-1.155, -2.494e-6
-1.154, -2.538e-6
-1.153, -2.534e-6
-1.152, -2.563e-6
-1.151, -2.574e-6
-1.150, -2.581e-6
-1.149, -2.645e-6
-1.148, -2.620e-6
-1.147, -2.651e-6
-1.146, -2.698e-6
-1.145, -2.724e-6
-1.144, -2.761e-6
-1.143, -2.723e-6
-1.142, -2.817e-6
-1.141, -2.781e-6
-1.140, -2.836e-6
-1.139, -2.847e-6
-1.138, -2.854e-6
-1.137, -2.922e-6
-1.136, -2.926e-6
-1.135, -2.980e-6
-1.134, -2.984e-6
-1.133, -2.983e-6
-1.132, -3.016e-6
-1.131, -3.045e-6
-1.130, -3.095e-6
-1.129, -3.131e-6
-1.128, -3.128e-6
-1.127, -3.174e-6
-1.126, -3.180e-6
-1.125, -3.238e-6
-1.124, -3.250e-6
-1.123, -3.307e-6
-1.122, -3.311e-6
-1.121, -3.341e-6
-1.120, -3.370e-6
-1.119, -3.409e-6
-1.118, -3.466e-6
-1.117, -3.458e-6
-1.116, -3.516e-6
-1.115, -3.555e-6
-1.114, -3.584e-6
-1.113, -3.624e-6
-1.112, -3.632e-6
-1.111, -3.654e-6
-1.110, -3.707e-6
-1.109, -3.751e-6
-1.108, -3.786e-6
-1.107, -3.808e-6
-1.106, -3.844e-6
-1.105, -3.863e-6
-1.104, -3.916e-6
-1.103, -3.896e-6
-1.102, -3.938e-6
-1.101, -3.968e-6
-1.100, -4.047e-6
-1.099, -4.078e-6
-1.098, -4.101e-6
-1.097, -4.164e-6
-1.096, -4.143e-6
-1.095, -4.236e-6
-1.094, -4.270e-6
-1.093, -4.320e-6
-1.092, -4.327e-6
-1.091, -4.366e-6
-1.090, -4.411e-6
-1.089, -4.458e-6
-1.088, -4.517e-6
-1.087, -4.515e-6
-1.086, -4.537e-6
-1.085, -4.607e-6
-1.084, -4.687e-6
-1.083, -4.696e-6
-1.082, -4.731e-6
-1.081, -4.795e-6
-1.080, -4.809e-6
-1.079, -4.901e-6
-1.078, -4.900e-6
-1.077, -4.959e-6
-1.076, -5.004e-6
-1.075, -5.064e-6
-1.074, -5.110e-6
-1.073, -5.151e-6
-1.072, -5.183e-6
-1.071, -5.204e-6
-1.070, -5.285e-6
-1.069, -5.344e-6
-1.068, -5.388e-6
-1.067, -5.430e-6
-1.066, -5.468e-6
-1.065, -5.540e-6
-1.064, -5.588e-6
-1.063, -5.656e-6
-1.062, -5.677e-6
-1.061, -5.708e-6
-1.060, -5.758e-6
-1.059, -5.815e-6
-1.058, -5.880e-6
-1.057, -5.912e-6
-1.056, -5.957e-6
-1.055, -6.015e-6
-1.054, -6.122e-6
-1.053, -6.136e-6
-1.052, -6.186e-6
-1.051, -6.233e-6
-1.050, -6.299e-6
-1.049, -6.386e-6
-1.048, -6.369e-6
-1.047, -6.462e-6
-1.046, -6.528e-6
-1.045, -6.591e-6
-1.044, -6.682e-6
-1.043, -6.683e-6
-1.042, -6.766e-6
-1.041, -6.815e-6
-1.040, -6.871e-6
-1.039, -6.913e-6
-1.038, -7.011e-6
-1.037, -7.038e-6
-1.036, -7.103e-6
-1.035, -7.179e-6
-1.034, -7.241e-6
-1.033, -7.317e-6
-1.032, -7.330e-6
-1.031, -7.410e-6
-1.030, -7.479e-6
-1.029, -7.566e-6
-1.028, -7.638e-6
-1.027, -7.697e-6
-1.026, -7.748e-6
-1.025, -7.801e-6
-1.024, -7.917e-6
-1.023, -7.933e-6
-1.022, -8.069e-6
-1.021, -8.081e-6
-1.020, -8.200e-6
-1.019, -8.254e-6
-1.018, -8.331e-6
-1.017, -8.401e-6
-1.016, -8.455e-6
-1.015, -8.558e-6
-1.014, -8.626e-6
-1.013, -8.698e-6
-1.012, -8.751e-6
-1.011, -8.807e-6
-1.010, -8.891e-6
-1.009, -9.000e-6
-1.008, -9.086e-6
-1.007, -9.135e-6
-1.006, -9.217e-6
-1.005, -9.263e-6
-1.004, -9.403e-6
-1.003, -9.513e-6
-1.002, -9.562e-6
-1.001, -9.625e-6
-1.000, -8.225e-6
-1.001, -7.117e-6
-1.002, -6.384e-6
-1.003, -5.856e-6
-1.004, -5.336e-6
-1.005, -4.913e-6
-1.006, -4.556e-6
-1.007, -4.175e-6
-1.008, -3.860e-6
-1.009, -3.558e-6
-1.010, -3.322e-6
-1.011, -3.059e-6
-1.012, -2.827e-6
-1.013, -2.615e-6
-1.014, -2.371e-6
-1.015, -2.198e-6
-1.016, -2.012e-6
-1.017, -1.841e-6
-1.018, -1.632e-6
-1.019, -1.512e-6
-1.020, -1.351e-6
-1.021, -1.227e-6
-1.022, -1.107e-6
-1.023, -9.384e-7
-1.024, -8.575e-7
-1.025, -7.105e-7
-1.026, -6.287e-7
-1.027, -5.251e-7
-1.028, -4.195e-7
-1.029, -3.149e-7
-1.030, -2.301e-7
-1.031, -1.521e-7
-1.032, -6.827e-8
-1.033, 2.644e-8
-1.034, 1.162e-7
-1.035, 1.586e-7
-1.036, 2.405e-7
-1.037, 3.224e-7
-1.038, 3.984e-7
-1.039, 4.359e-7
-1.040, 4.793e-7
-1.041, 5.681e-7
-1.042, 6.204e-7
-1.043, 6.825e-7
-1.044, 7.407e-7
-1.045, 7.950e-7
-1.046, 8.226e-7
-1.047, 8.710e-7
-1.048, 9.302e-7
-1.049, 9.657e-7
-1.050, 1.055e-6
-1.051, 1.025e-6
-1.052, 1.123e-6
-1.053, 1.128e-6
-1.054, 1.217e-6
-1.055, 1.240e-6
-1.056, 1.274e-6
-1.057, 1.283e-6
-1.058, 1.369e-6
-1.059, 1.392e-6
-1.060, 1.398e-6
-1.061, 1.428e-6
-1.062, 1.465e-6
-1.063, 1.504e-6
-1.064, 1.537e-6
-1.065, 1.590e-6
-1.066, 1.558e-6
-1.067, 1.610e-6
-1.068, 1.637e-6
-1.069, 1.647e-6
-1.070, 1.699e-6
-1.071, 1.699e-6
-1.072, 1.734e-6
-1.073, 1.725e-6
-1.074, 1.788e-6
-1.075, 1.789e-6
-1.076, 1.799e-6
-1.077, 1.870e-6
-1.078, 1.855e-6
-1.079, 1.882e-6
-1.080, 1.912e-6
-1.081, 1.923e-6
-1.082, 1.940e-6
-1.083, 1.948e-6
-1.084, 1.998e-6
-1.085, 1.968e-6
-1.086, 2.018e-6
-1.087, 2.025e-6
-1.088, 2.062e-6
-1.089, 2.063e-6
-1.090, 2.094e-6
-1.091, 2.082e-6
-1.092, 2.122e-6
-1.093, 2.156e-6
-1.094, 2.139e-6
-1.095, 2.178e-6
-1.096, 2.149e-6
-1.097, 2.188e-6
-1.098, 2.192e-6
-1.099, 2.221e-6
-1.100, 2.243e-6
-1.101, 2.247e-6
-1.102, 2.268e-6
-1.103, 2.288e-6
-1.104, 2.292e-6
-1.105, 2.284e-6
-1.106, 2.293e-6
-1.107, 2.305e-6
-1.108, 2.355e-6
-1.109, 2.343e-6
-1.110, 2.345e-6
-1.111, 2.360e-6
-1.112, 2.328e-6
-1.113, 2.382e-6
-1.114, 2.413e-6
-1.115, 2.435e-6
-1.116, 2.425e-6
-1.117, 2.407e-6
-1.118, 2.450e-6
-1.119, 2.428e-6
-1.120, 2.465e-6
-1.121, 2.450e-6
-1.122, 2.468e-6
-1.123, 2.491e-6
-1.124, 2.484e-6
-1.125, 2.527e-6
-1.126, 2.480e-6
-1.127, 2.519e-6
-1.128, 2.528e-6
-1.129, 2.539e-6
-1.130, 2.534e-6
-1.131, 2.531e-6
-1.132, 2.566e-6
-1.133, 2.527e-6
-1.134, 2.582e-6
-1.135, 2.569e-6
-1.136, 2.566e-6
-1.137, 2.581e-6
-1.138, 2.608e-6
-1.139, 2.617e-6
-1.140, 2.628e-6
-1.141, 2.617e-6
-1.142, 2.591e-6
-1.143, 2.652e-6
-1.144, 2.653e-6
-1.145, 2.639e-6
-1.146, 2.655e-6
-1.147, 2.658e-6
-1.148, 2.662e-6
-1.149, 2.666e-6
-1.150, 2.672e-6
-1.151, 2.680e-6
-1.152, 2.657e-6
-1.153, 2.727e-6
-1.154, 2.702e-6
-1.155, 2.725e-6
-1.156, 2.702e-6
-1.157, 2.719e-6
-1.158, 2.729e-6
-1.159, 2.745e-6
-1.160, 2.764e-6
-1.161, 2.698e-6
-1.162, 2.761e-6
-1.163, 2.751e-6
-1.164, 2.768e-6
-1.165, 2.762e-6
-1.166, 2.774e-6
-1.167, 2.791e-6
-1.168, 2.774e-6
-1.169, 2.815e-6
-1.170, 2.790e-6
-1.171, 2.799e-6
-1.172, 2.801e-6
-1.173, 2.818e-6
-1.174, 2.814e-6
-1.175, 2.821e-6
-1.176, 2.823e-6
-1.177, 2.819e-6
-1.178, 2.882e-6
-1.179, 2.846e-6
-1.180, 2.866e-6
-1.181, 2.839e-6
-1.182, 2.849e-6
-1.183, 2.892e-6
-1.184, 2.872e-6
-1.185, 2.859e-6
-1.186, 2.846e-6
-1.187, 2.882e-6
-1.188, 2.872e-6
-1.189, 2.900e-6
-1.190, 2.893e-6
-1.191, 2.896e-6
-1.192, 2.914e-6
-1.193, 2.910e-6
-1.194, 2.933e-6
-1.195, 2.917e-6
-1.196, 2.935e-6
-1.197, 2.952e-6
-1.198, 2.950e-6
-1.199, 2.944e-6
-1.200, 2.950e-6
-1.201, 2.955e-6
-1.202, 2.916e-6
-1.203, 2.981e-6
-1.204, 2.985e-6
-1.205, 2.981e-6
-1.206, 2.971e-6
-1.207, 2.982e-6
-1.208, 2.987e-6
-1.209, 2.987e-6
-1.210, 3.036e-6
-1.211, 3.002e-6
-1.212, 3.022e-6
-1.213, 3.032e-6
-1.214, 3.034e-6
-1.215, 3.068e-6
-1.216, 3.026e-6
-1.217, 3.074e-6
-1.218, 3.063e-6
-1.219, 3.083e-6
-1.220, 3.097e-6
-1.221, 3.050e-6
-1.222, 3.099e-6
-1.223, 3.095e-6
-1.224, 3.134e-6
-1.225, 3.101e-6
-1.226, 3.131e-6
-1.227, 3.116e-6
-1.228, 3.155e-6
-1.229, 3.168e-6
-1.230, 3.174e-6
-1.231, 3.161e-6
-1.232, 3.171e-6
-1.233, 3.214e-6
-1.234, 3.223e-6
-1.235, 3.218e-6
-1.236, 3.188e-6
-1.237, 3.225e-6
-1.238, 3.232e-6
-1.239, 3.250e-6
-1.240, 3.259e-6
-1.241, 3.251e-6
-1.242, 3.326e-6
-1.243, 3.285e-6
-1.244, 3.310e-6
-1.245, 3.285e-6
-1.246, 3.285e-6
-1.247, 3.349e-6
-1.248, 3.342e-6
-1.249, 3.355e-6
-1.250, 3.350e-6
-1.251, 3.405e-6
-1.252, 3.401e-6
-1.253, 3.400e-6
-1.254, 3.454e-6
-1.255, 3.447e-6
-1.256, 3.450e-6
-1.257, 3.468e-6
-1.258, 3.501e-6
-1.259, 3.507e-6
-1.260, 3.523e-6
-1.261, 3.525e-6
-1.262, 3.563e-6
-1.263, 3.583e-6
-1.264, 3.564e-6
-1.265, 3.602e-6
-1.266, 3.561e-6
-1.267, 3.619e-6
-1.268, 3.624e-6
-1.269, 3.639e-6
-1.270, 3.685e-6
-1.271, 3.664e-6
-1.272, 3.709e-6
-1.273, 3.727e-6
-1.274, 3.755e-6
-1.275, 3.775e-6
-1.276, 3.797e-6
-1.277, 3.814e-6
-1.278, 3.819e-6
-1.279, 3.870e-6
-1.280, 3.867e-6
-1.281, 3.895e-6
-1.282, 3.939e-6
-1.283, 3.958e-6
-1.284, 3.983e-6
-1.285, 3.969e-6
-1.286, 4.023e-6
-1.287, 4.015e-6
-1.288, 4.075e-6
-1.289, 4.084e-6
-1.290, 4.098e-6
-1.291, 4.126e-6
-1.292, 4.142e-6
-1.293, 4.208e-6
-1.294, 4.200e-6
-1.295, 4.289e-6
-1.296, 4.250e-6
-1.297, 4.308e-6
-1.298, 4.320e-6
-1.299, 4.350e-6
-1.300, 4.364e-6
-1.301, 4.395e-6
-1.302, 4.432e-6
-1.303, 4.473e-6
-1.304, 4.494e-6
-1.305, 4.542e-6
-1.306, 4.558e-6
-1.307, 4.609e-6
-1.308, 4.659e-6
-1.309, 4.677e-6
-1.310, 4.742e-6
-1.311, 4.725e-6
-1.312, 4.804e-6
-1.313, 4.826e-6
-1.314, 4.869e-6
-1.315, 4.896e-6
-1.316, 4.949e-6
-1.317, 5.010e-6
-1.318, 5.030e-6
-1.319, 5.064e-6
-1.320, 5.109e-6
-1.321, 5.181e-6
-1.322, 5.212e-6
-1.323, 5.252e-6
-1.324, 5.311e-6
-1.325, 5.343e-6
-1.326, 5.406e-6
-1.327, 5.435e-6
-1.328, 5.535e-6
-1.329, 5.579e-6
-1.330, 5.617e-6
-1.331, 5.669e-6
-1.332, 5.696e-6
-1.333, 5.781e-6
-1.334, 5.822e-6
-1.335, 5.898e-6
-1.336, 5.956e-6
-1.337, 5.990e-6
-1.338, 6.092e-6
-1.339, 6.125e-6
-1.340, 6.189e-6
-1.341, 6.238e-6
-1.342, 6.325e-6
-1.343, 6.391e-6
-1.344, 6.447e-6
-1.345, 6.528e-6
-1.346, 6.619e-6
-1.347, 6.678e-6
-1.348, 6.777e-6
-1.349, 6.839e-6
-1.350, 6.870e-6
-1.351, 6.988e-6
-1.352, 7.071e-6
-1.353, 7.171e-6
-1.354, 7.228e-6
-1.355, 7.324e-6
-1.356, 7.421e-6
-1.357, 7.471e-6
-1.358, 7.609e-6
-1.359, 7.692e-6
-1.360, 7.820e-6
-1.361, 7.888e-6
-1.362, 7.993e-6
-1.363, 8.085e-6
-1.364, 8.205e-6
-1.365, 8.314e-6
-1.366, 8.380e-6
-1.367, 8.532e-6
-1.368, 8.633e-6
-1.369, 8.772e-6
-1.370, 8.892e-6
-1.371, 8.998e-6
-1.372, 9.105e-6
-1.373, 9.244e-6
-1.374, 9.383e-6
-1.375, 9.470e-6
-1.376, 9.613e-6
-1.377, 9.747e-6
-1.378, 9.917e-6
-1.379, 1.005e-5
-1.380, 1.018e-5
-1.381, 1.034e-5
-1.382, 1.044e-5
-1.383, 1.066e-5
-1.384, 1.080e-5
-1.385, 1.096e-5
-1.386, 1.108e-5
-1.387, 1.137e-5
-1.388, 1.148e-5
-1.389, 1.169e-5
-1.390, 1.185e-5
-1.391, 1.197e-5
-1.392, 1.218e-5
-1.393, 1.233e-5
-1.394, 1.244e-5
-1.395, 1.265e-5
-1.396, 1.292e-5
-1.397, 1.336e-5
-1.398, 1.347e-5
-1.399, 1.350e-5
-1.400, 1.375e-5
-1.401, 1.391e-5
-1.402, 1.415e-5
-1.403, 1.444e-5
-1.404, 1.480e-5
-1.405, 1.480e-5
-1.406, 1.490e-5
-1.407, 1.535e-5
-1.408, 1.574e-5
-1.409, 1.603e-5
-1.410, 1.621e-5
-1.411, 1.644e-5
-1.412, 1.674e-5
-1.413, 1.687e-5
-1.414, 1.697e-5
-1.415, 1.744e-5
-1.416, 1.784e-5
-1.417, 1.803e-5
-1.418, 1.843e-5
-1.419, 1.873e-5
-1.420, 1.861e-5
-1.421, 1.902e-5
-1.422, 1.981e-5
-1.423, 2.009e-5
-1.424, 2.031e-5
-1.425, 2.072e-5
-1.426, 2.065e-5
-1.427, 2.117e-5
-1.428, 2.179e-5
-1.429, 2.216e-5
-1.430, 2.214e-5
-1.431, 2.258e-5
-1.432, 2.326e-5
-1.433, 2.362e-5
-1.434, 2.427e-5
-1.435, 2.399e-5
-1.436, 2.471e-5
-1.437, 2.520e-5
-1.438, 2.603e-5
-1.439, 2.571e-5
-1.440, 2.628e-5
-1.441, 2.695e-5
-1.442, 2.745e-5
-1.443, 2.734e-5
-1.444, 2.828e-5
-1.445, 2.884e-5
-1.446, 2.871e-5
-1.447, 2.956e-5
-1.448, 3.067e-5
-1.449, 3.040e-5
-1.450, 3.099e-5
-1.451, 3.205e-5
-1.452, 3.249e-5
-1.453, 3.275e-5
-1.454, 3.378e-5
-1.455, 3.359e-5
-1.456, 3.443e-5
-1.457, 3.548e-5
-1.458, 3.535e-5
-1.459, 3.633e-5
-1.460, 3.738e-5
-1.461, 3.698e-5
-1.462, 3.883e-5
-1.463, 3.875e-5
-1.464, 3.933e-5
-1.465, 4.037e-5
-1.466, 4.051e-5
-1.467, 4.213e-5
-1.468, 4.164e-5
-1.469, 4.370e-5
-1.470, 4.304e-5
-1.471, 4.475e-5
-1.472, 4.476e-5
-1.473, 4.595e-5
-1.474, 4.639e-5
-1.475, 4.805e-5
-1.476, 4.765e-5
-1.477, 4.886e-5
-1.478, 4.946e-5
-1.479, 5.152e-5
-1.480, 5.154e-5
-1.481, 5.240e-5
-1.482, 5.340e-5
-1.483, 5.400e-5
-1.484, 5.550e-5
-1.485, 5.582e-5
-1.486, 5.777e-5
-1.487, 5.792e-5
-1.488, 5.915e-5
-1.489, 6.034e-5
-1.490, 6.076e-5
-1.491, 6.229e-5
-1.492, 6.366e-5
-1.493, 6.372e-5
-1.494, 6.477e-5
-1.495, 6.684e-5
-1.496, 6.710e-5
-1.497, 6.910e-5
-1.498, 6.992e-5
-1.499, 7.070e-5
-1.500, 7.211e-5
-1.501, 7.276e-5
-1.502, 7.412e-5
-1.503, 7.494e-5
-1.504, 7.713e-5
-1.505, 7.824e-5
-1.506, 7.902e-5
-1.507, 8.071e-5
-1.508, 8.251e-5
-1.509, 8.361e-5
-1.510, 8.426e-5
-1.511, 8.574e-5
-1.512, 8.772e-5
-1.513, 8.857e-5
-1.514, 9.009e-5
-1.515, 9.119e-5
-1.516, 9.233e-5
-1.517, 9.446e-5
-1.518, 9.590e-5
-1.519, 9.739e-5
-1.520, 9.885e-5
-1.521, 1.005e-4
-1.522, 1.022e-4
-1.523, 1.034e-4
-1.524, 1.049e-4
-1.525, 1.060e-4
-1.526, 1.084e-4
-1.527, 1.098e-4
-1.528, 1.112e-4
-1.529, 1.131e-4
-1.530, 1.145e-4
-1.531, 1.164e-4
-1.532, 1.186e-4
-1.533, 1.199e-4
-1.534, 1.210e-4
-1.535, 1.231e-4
-1.536, 1.243e-4
-1.537, 1.268e-4
-1.538, 1.288e-4
-1.539, 1.306e-4
-1.540, 1.316e-4
-1.541, 1.344e-4
-1.542, 1.356e-4
-1.543, 1.388e-4
-1.544, 1.401e-4
-1.545, 1.415e-4
-1.546, 1.433e-4
-1.547, 1.461e-4
-1.548, 1.481e-4
-1.549, 1.506e-4
-1.550, 1.519e-4
-1.551, 1.544e-4
-1.552, 1.563e-4
-1.553, 1.582e-4
-1.554, 1.598e-4
-1.555, 1.622e-4
-1.556, 1.647e-4
-1.557, 1.663e-4
-1.558, 1.689e-4
-1.559, 1.720e-4
-1.560, 1.716e-4
-1.561, 1.744e-4
-1.562, 1.782e-4
-1.563, 1.812e-4
-1.564, 1.842e-4
-1.565, 1.860e-4
-1.566, 1.890e-4
-1.567, 1.908e-4
-1.568, 1.935e-4
-1.569, 1.953e-4
-1.570, 1.981e-4
-1.571, 2.006e-4
-1.572, 2.032e-4
-1.573, 2.042e-4
-1.574, 2.074e-4
-1.575, 2.099e-4
-1.576, 2.127e-4
-1.577, 2.159e-4
-1.578, 2.173e-4
-1.579, 2.206e-4
-1.580, 2.261e-4
-1.581, 2.427e-4
-1.582, 2.299e-4
-1.583, 2.297e-4
-1.584, 2.321e-4
-1.585, 2.346e-4
-1.586, 2.392e-4
-1.587, 2.398e-4
-1.588, 2.434e-4
-1.589, 2.463e-4
-1.590, 2.498e-4
-1.591, 2.522e-4
-1.592, 2.537e-4
-1.593, 2.563e-4
-1.594, 2.596e-4
-1.595, 2.644e-4
-1.596, 2.668e-4
-1.597, 2.702e-4
-1.598, 2.725e-4
-1.599, 2.760e-4
-1.600, 2.766e-4
-1.601, 2.784e-4
-1.602, 2.826e-4
-1.603, 2.959e-4
-1.604, 2.914e-4
-1.605, 2.944e-4
-1.606, 2.996e-4
-1.607, 3.027e-4
-1.608, 3.057e-4
-1.609, 3.093e-4
-1.610, 3.129e-4
-1.611, 3.170e-4
-1.612, 3.196e-4
-1.613, 3.243e-4
-1.614, 3.285e-4
-1.615, 3.310e-4
-1.616, 3.358e-4
-1.617, 3.448e-4
-1.618, 3.495e-4
-1.619, 3.488e-4
-1.620, 3.528e-4
-1.621, 3.562e-4
-1.622, 3.628e-4
-1.623, 3.688e-4
-1.624, 3.707e-4
-1.625, 3.715e-4
-1.626, 3.764e-4
-1.627, 3.804e-4
-1.628, 3.887e-4
-1.629, 3.917e-4
-1.630, 3.960e-4
-1.631, 4.032e-4
-1.632, 4.065e-4
-1.633, 4.147e-4
-1.634, 4.142e-4
-1.635, 4.185e-4
-1.636, 4.272e-4
-1.637, 4.291e-4
-1.638, 4.323e-4
-1.639, 4.400e-4
-1.640, 4.471e-4
-1.641, 4.474e-4
-1.642, 4.570e-4
-1.643, 4.664e-4
-1.644, 4.696e-4
-1.645, 4.737e-4
-1.646, 4.834e-4
-1.647, 4.865e-4
-1.648, 4.981e-4
-1.649, 5.010e-4
-1.650, 5.073e-4
-1.651, 5.139e-4
-1.652, 5.223e-4
-1.653, 5.324e-4
-1.654, 5.351e-4
-1.655, 5.455e-4
-1.656, 5.507e-4
-1.657, 5.581e-4
-1.658, 5.658e-4
-1.659, 5.750e-4
-1.660, 5.824e-4
-1.661, 5.863e-4
-1.662, 5.947e-4
-1.663, 6.036e-4
-1.664, 6.102e-4
-1.665, 6.199e-4
-1.666, 6.294e-4
-1.667, 6.383e-4
-1.668, 6.462e-4
-1.669, 6.551e-4
-1.670, 6.651e-4
-1.671, 6.722e-4
-1.672, 6.797e-4
-1.673, 6.909e-4
-1.674, 6.958e-4
-1.675, 7.063e-4
-1.676, 7.170e-4
-1.677, 7.322e-4
-1.678, 7.441e-4
-1.679, 7.531e-4
-1.680, 7.634e-4
-1.681, 7.744e-4
-1.682, 7.855e-4
-1.683, 8.005e-4
-1.684, 8.113e-4
-1.685, 8.237e-4
-1.686, 8.358e-4
-1.687, 8.473e-4
-1.688, 8.571e-4
-1.689, 8.672e-4
-1.690, 8.817e-4
-1.691, 8.919e-4
-1.692, 9.087e-4
-1.693, 9.238e-4
-1.694, 9.413e-4
-1.695, 9.557e-4
-1.696, 9.663e-4
-1.697, 9.765e-4
-1.698, 9.880e-4
-1.699, 1.002e-3
-1.700, 1.019e-3
-1.701, 1.037e-3
-1.702, 1.051e-3
-1.703, 1.069e-3
-1.704, 1.093e-3
-1.705, 1.116e-3
-1.706, 1.133e-3
-1.707, 1.147e-3
-1.708, 1.169e-3
-1.709, 1.187e-3
-1.710, 1.204e-3
-1.711, 1.220e-3
-1.712, 1.242e-3
-1.713, 1.265e-3
-1.714, 1.288e-3
-1.715, 1.308e-3
-1.716, 1.325e-3
-1.717, 1.346e-3
-1.718, 1.362e-3
-1.719, 1.389e-3
-1.720, 1.410e-3
-1.721, 1.439e-3
-1.722, 1.464e-3
-1.723, 1.490e-3
-1.724, 1.511e-3
-1.725, 1.536e-3
-1.726, 1.559e-3
-1.727, 1.590e-3
-1.728, 1.619e-3
-1.729, 1.642e-3
-1.730, 1.670e-3
-1.731, 1.696e-3
-1.732, 1.724e-3
-1.733, 1.751e-3
-1.734, 1.784e-3
-1.735, 1.814e-3
-1.736, 1.838e-3
-1.737, 1.865e-3
-1.738, 1.891e-3
-1.739, 1.909e-3
-1.740, 1.941e-3
-1.741, 1.973e-3
-1.742, 2.006e-3
-1.743, 2.046e-3
-1.744, 2.084e-3
-1.745, 2.116e-3
-1.746, 2.148e-3
-1.747, 2.189e-3
-1.748, 2.227e-3
-1.749, 2.260e-3
-1.750, 2.297e-3
-1.751, 2.323e-3
-1.752, 2.346e-3
-1.753, 2.376e-3
-1.754, 2.412e-3
-1.755, 2.455e-3
-1.756, 2.495e-3
-1.757, 2.539e-3
-1.758, 2.581e-3
-1.759, 2.628e-3
-1.760, 2.684e-3
-1.761, 2.719e-3
-1.762, 2.758e-3
-1.763, 2.798e-3
-1.764, 2.836e-3
-1.765, 2.881e-3
-1.766, 2.923e-3
-1.767, 2.968e-3
-1.768, 3.013e-3
-1.769, 3.054e-3
-1.770, 3.091e-3
-1.771, 3.134e-3
-1.772, 3.181e-3
-1.773, 3.230e-3
-1.774, 3.283e-3
-1.775, 3.324e-3
-1.776, 3.365e-3
-1.777, 3.407e-3
-1.778, 3.449e-3
-1.779, 3.491e-3
-1.780, 3.534e-3
-1.781, 3.581e-3
-1.782, 3.624e-3
-1.783, 3.671e-3
-1.784, 3.713e-3
-1.785, 3.761e-3
-1.786, 3.820e-3
-1.787, 3.884e-3
-1.788, 3.945e-3
-1.789, 3.987e-3
-1.790, 4.031e-3
-1.791, 4.087e-3
-1.792, 4.142e-3
-1.793, 4.178e-3
-1.794, 4.225e-3
-1.795, 4.274e-3
-1.796, 4.333e-3
-1.797, 4.395e-3
-1.798, 4.448e-3
-1.799, 4.496e-3
-1.800, 4.502e-3
-1.799, 4.480e-3
-1.798, 4.438e-3
-1.797, 4.401e-3
-1.796, 4.368e-3
-1.795, 4.340e-3
-1.794, 4.311e-3
-1.793, 4.284e-3
-1.792, 4.250e-3
-1.791, 4.221e-3
-1.790, 4.187e-3
-1.789, 4.155e-3
-1.788, 4.131e-3
-1.787, 4.089e-3
-1.786, 4.045e-3
-1.785, 4.008e-3
-1.784, 3.978e-3
-1.783, 3.940e-3
-1.782, 3.908e-3
-1.781, 3.872e-3
-1.780, 3.837e-3
-1.779, 3.822e-3
-1.778, 3.784e-3
-1.777, 3.755e-3
-1.776, 3.717e-3
-1.775, 3.669e-3
-1.774, 3.619e-3
-1.773, 3.584e-3
-1.772, 3.551e-3
-1.771, 3.520e-3
-1.770, 3.507e-3
-1.769, 3.474e-3
-1.768, 3.440e-3
-1.767, 3.405e-3
-1.766, 3.367e-3
-1.765, 3.334e-3
-1.764, 3.304e-3
-1.763, 3.260e-3
-1.762, 3.227e-3
-1.761, 3.195e-3
-1.760, 3.156e-3
-1.759, 3.115e-3
-1.758, 3.076e-3
-1.757, 3.045e-3
-1.756, 3.012e-3
-1.755, 2.982e-3
-1.754, 2.947e-3
-1.753, 2.907e-3
-1.752, 2.881e-3
-1.751, 2.846e-3
-1.750, 2.812e-3
-1.749, 2.780e-3
-1.748, 2.753e-3
-1.747, 2.719e-3
-1.746, 2.687e-3
-1.745, 2.666e-3
-1.744, 2.632e-3
-1.743, 2.598e-3
-1.742, 2.566e-3
-1.741, 2.543e-3
-1.740, 2.514e-3
-1.739, 2.489e-3
-1.738, 2.467e-3
-1.737, 2.431e-3
-1.736, 2.388e-3
-1.735, 2.361e-3
-1.734, 2.332e-3
-1.733, 2.303e-3
-1.732, 2.280e-3
-1.731, 2.255e-3
-1.730, 2.237e-3
-1.729, 2.209e-3
-1.728, 2.175e-3
-1.727, 2.143e-3
-1.726, 2.119e-3
-1.725, 2.092e-3
-1.724, 2.067e-3
-1.723, 2.044e-3
-1.722, 2.016e-3
-1.721, 1.986e-3
-1.720, 1.959e-3
-1.719, 1.934e-3
-1.718, 1.909e-3
-1.717, 1.885e-3
-1.716, 1.868e-3
-1.715, 1.840e-3
-1.714, 1.819e-3
-1.713, 1.802e-3
-1.712, 1.780e-3
-1.711, 1.753e-3
-1.710, 1.733e-3
-1.709, 1.707e-3
-1.708, 1.686e-3
-1.707, 1.663e-3
-1.706, 1.641e-3
-1.705, 1.617e-3
-1.704, 1.597e-3
-1.703, 1.576e-3
-1.702, 1.552e-3
-1.701, 1.538e-3
-1.700, 1.516e-3
-1.699, 1.498e-3
-1.698, 1.483e-3
-1.697, 1.469e-3
-1.696, 1.450e-3
-1.695, 1.427e-3
-1.694, 1.406e-3
-1.693, 1.383e-3
-1.692, 1.363e-3
-1.691, 1.343e-3
-1.690, 1.322e-3
-1.689, 1.307e-3
-1.688, 1.291e-3
-1.687, 1.276e-3
-1.686, 1.260e-3
-1.685, 1.240e-3
-1.684, 1.220e-3
-1.683, 1.199e-3
-1.682, 1.178e-3
-1.681, 1.161e-3
-1.680, 1.145e-3
-1.679, 1.124e-3
-1.678, 1.111e-3
-1.677, 1.098e-3
-1.676, 1.083e-3
-1.675, 1.068e-3
-1.674, 1.050e-3
-1.673, 1.035e-3
-1.672, 1.018e-3
-1.671, 1.002e-3
-1.670, 9.847e-4
-1.669, 9.712e-4
-1.668, 9.537e-4
-1.667, 9.402e-4
-1.666, 9.320e-4
-1.665, 9.206e-4
-1.664, 9.062e-4
-1.663, 8.915e-4
-1.662, 8.757e-4
-1.661, 8.643e-4
-1.660, 8.474e-4
-1.659, 8.325e-4
-1.658, 8.205e-4
-1.657, 8.088e-4
-1.656, 7.985e-4
-1.655, 7.897e-4
-1.654, 7.777e-4
-1.653, 7.635e-4
-1.652, 7.541e-4
-1.651, 7.376e-4
-1.650, 7.259e-4
-1.649, 7.145e-4
-1.648, 7.060e-4
-1.647, 6.935e-4
-1.646, 6.831e-4
-1.645, 6.726e-4
-1.644, 6.643e-4
-1.643, 6.533e-4
-1.642, 6.436e-4
-1.641, 6.315e-4
-1.640, 6.218e-4
-1.639, 6.136e-4
-1.638, 6.018e-4
-1.637, 5.906e-4
-1.636, 5.824e-4
-1.635, 5.745e-4
-1.634, 5.675e-4
-1.633, 5.583e-4
-1.632, 5.529e-4
-1.631, 5.400e-4
-1.630, 5.274e-4
-1.629, 5.183e-4
-1.628, 5.100e-4
-1.627, 5.006e-4
-1.626, 4.929e-4
-1.625, 4.878e-4
-1.624, 4.797e-4
-1.623, 4.726e-4
-1.622, 4.649e-4
-1.621, 4.569e-4
-1.620, 4.503e-4
-1.619, 4.424e-4
-1.618, 4.360e-4
-1.617, 4.284e-4
-1.616, 4.206e-4
-1.615, 4.146e-4
-1.614, 4.082e-4
-1.613, 4.036e-4
-1.612, 3.962e-4
-1.611, 3.871e-4
-1.610, 3.822e-4
-1.609, 3.765e-4
-1.608, 3.707e-4
-1.607, 3.649e-4
-1.606, 3.572e-4
-1.605, 3.506e-4
-1.604, 3.445e-4
-1.603, 3.385e-4
-1.602, 3.344e-4
-1.601, 3.287e-4
-1.600, 3.224e-4
-1.599, 3.170e-4
-1.598, 3.132e-4
-1.597, 3.065e-4
-1.596, 3.019e-4
-1.595, 2.967e-4
-1.594, 2.915e-4
-1.593, 2.868e-4
-1.592, 2.816e-4
-1.591, 2.762e-4
-1.590, 2.719e-4
-1.589, 2.672e-4
-1.588, 2.639e-4
-1.587, 2.580e-4
-1.586, 2.538e-4
-1.585, 2.504e-4
-1.584, 2.449e-4
-1.583, 2.418e-4
-1.582, 2.379e-4
-1.581, 2.317e-4
-1.580, 2.296e-4
-1.579, 2.245e-4
-1.578, 2.203e-4
-1.577, 2.179e-4
-1.576, 2.124e-4
-1.575, 2.104e-4
-1.574, 2.060e-4
-1.573, 2.053e-4
-1.572, 2.120e-4
-1.571, 2.022e-4
-1.570, 1.910e-4
-1.569, 1.896e-4
-1.568, 1.846e-4
-1.567, 1.827e-4
-1.566, 1.784e-4
-1.565, 1.762e-4
-1.564, 1.725e-4
-1.563, 1.684e-4
-1.562, 1.660e-4
-1.561, 1.629e-4
-1.560, 1.613e-4
-1.559, 1.569e-4
-1.558, 1.547e-4
-1.557, 1.531e-4
-1.556, 1.489e-4
-1.555, 1.477e-4
-1.554, 1.444e-4
-1.553, 1.429e-4
-1.552, 1.402e-4
-1.551, 1.360e-4
-1.550, 1.335e-4
-1.549, 1.334e-4
-1.548, 1.293e-4
-1.547, 1.267e-4
-1.546, 1.256e-4
-1.545, 1.215e-4
-1.544, 1.197e-4
-1.543, 1.177e-4
-1.542, 1.162e-4
-1.541, 1.125e-4
-1.540, 1.105e-4
-1.539, 1.105e-4
-1.538, 1.073e-4
-1.537, 1.058e-4
-1.536, 1.039e-4
-1.535, 1.026e-4
-1.534, 9.903e-5
-1.533, 9.758e-5
-1.532, 9.556e-5
-1.531, 9.405e-5
-1.530, 9.116e-5
-1.529, 8.987e-5
-1.528, 8.799e-5
-1.527, 8.613e-5
-1.526, 8.654e-5
-1.525, 8.366e-5
-1.524, 8.120e-5
-1.523, 8.031e-5
-1.522, 7.822e-5
-1.521, 7.890e-5
-1.520, 7.505e-5
-1.519, 7.400e-5
-1.518, 7.229e-5
-1.517, 7.110e-5
-1.516, 7.013e-5
-1.515, 7.176e-5
-1.514, 6.707e-5
-1.513, 6.574e-5
-1.512, 6.446e-5
-1.511, 6.292e-5
-1.510, 6.275e-5
-1.509, 6.121e-5
-1.508, 6.119e-5
-1.507, 5.879e-5
-1.506, 5.781e-5
-1.505, 5.667e-5
-1.504, 5.589e-5
-1.503, 5.413e-5
-1.502, 5.404e-5
-1.501, 5.258e-5
-1.500, 5.132e-5
-1.499, 5.032e-5
-1.498, 4.944e-5
-1.497, 4.851e-5
-1.496, 4.712e-5
-1.495, 4.711e-5
-1.494, 4.578e-5
-1.493, 4.503e-5
-1.492, 4.402e-5
-1.491, 4.328e-5
-1.490, 4.214e-5
-1.489, 4.176e-5
-1.488, 4.067e-5
-1.487, 4.008e-5
-1.486, 3.865e-5
-1.485, 3.863e-5
-1.484, 3.766e-5
-1.483, 3.651e-5
-1.482, 3.622e-5
-1.481, 3.556e-5
-1.480, 3.474e-5
-1.479, 3.403e-5
-1.478, 3.335e-5
-1.477, 3.272e-5
-1.476, 3.215e-5
-1.475, 3.140e-5
-1.474, 3.056e-5
-1.473, 3.020e-5
-1.472, 2.971e-5
-1.471, 2.910e-5
-1.470, 2.855e-5
-1.469, 2.806e-5
-1.468, 2.699e-5
-1.467, 2.677e-5
-1.466, 2.656e-5
-1.465, 2.599e-5
-1.464, 2.475e-5
-1.463, 2.447e-5
-1.462, 2.400e-5
-1.461, 2.362e-5
-1.460, 2.323e-5
-1.459, 2.265e-5
-1.458, 2.239e-5
-1.457, 2.213e-5
-1.456, 2.182e-5
-1.455, 2.133e-5
-1.454, 2.074e-5
-1.453, 2.012e-5
-1.452, 1.979e-5
-1.451, 2.178e-5
-1.450, 2.209e-5
-1.449, 1.879e-5
-1.448, 1.817e-5
-1.447, 1.760e-5
-1.446, 1.737e-5
-1.445, 1.722e-5
-1.444, 1.691e-5
-1.443, 1.681e-5
-1.442, 1.638e-5
-1.441, 1.576e-5
-1.440, 1.571e-5
-1.439, 1.556e-5
-1.438, 1.552e-5
-1.437, 1.553e-5
-1.436, 1.544e-5
-1.435, 1.451e-5
-1.434, 1.427e-5
-1.433, 1.392e-5
-1.432, 1.370e-5
-1.431, 1.314e-5
-1.430, 1.264e-5
-1.429, 1.250e-5
-1.428, 1.208e-5
-1.427, 1.180e-5
-1.426, 1.162e-5
-1.425, 1.137e-5
-1.424, 1.118e-5
-1.423, 1.114e-5
-1.422, 1.080e-5
-1.421, 1.063e-5
-1.420, 1.025e-5
-1.419, 1.004e-5
-1.418, 9.873e-6
-1.417, 9.661e-6
-1.416, 9.551e-6
-1.415, 9.374e-6
-1.414, 9.160e-6
-1.413, 8.924e-6
-1.412, 8.795e-6
-1.411, 8.550e-6
-1.410, 8.389e-6
-1.409, 8.176e-6
-1.408, 7.987e-6
-1.407, 7.785e-6
-1.406, 7.676e-6
-1.405, 7.606e-6
-1.404, 7.397e-6
-1.403, 7.371e-6
-1.402, 7.393e-6
-1.401, 7.329e-6
-1.400, 7.366e-6
-1.399, 7.192e-6
-1.398, 6.988e-6
-1.397, 6.969e-6
-1.396, 7.011e-6
-1.395, 6.756e-6
-1.394, 6.404e-6
-1.393, 6.347e-6
-1.392, 6.073e-6
-1.391, 5.781e-6
-1.390, 5.570e-6
-1.389, 5.460e-6
-1.388, 6.558e-6
-1.387, 9.138e-6
-1.386, 5.133e-6
-1.385, 4.871e-6
-1.384, 4.761e-6
-1.383, 4.621e-6
-1.382, 4.557e-6
-1.381, 4.389e-6
-1.380, 4.294e-6
-1.379, 4.173e-6
-1.378, 4.199e-6
-1.377, 4.038e-6
-1.376, 3.977e-6
-1.375, 3.849e-6
-1.374, 3.752e-6
-1.373, 3.665e-6
-1.372, 3.606e-6
-1.371, 3.603e-6
-1.370, 3.457e-6
-1.369, 3.447e-6
-1.368, 3.407e-6
-1.367, 3.563e-6
-1.366, 3.691e-6
-1.365, 3.569e-6
-1.364, 3.446e-6
-1.363, 3.314e-6
-1.362, 3.202e-6
-1.361, 3.040e-6
-1.360, 2.907e-6
-1.359, 2.836e-6
-1.358, 2.747e-6
-1.357, 2.715e-6
-1.356, 2.632e-6
-1.355, 2.561e-6
-1.354, 2.499e-6
-1.353, 2.422e-6
-1.352, 2.376e-6
-1.351, 2.284e-6
-1.350, 2.183e-6
-1.349, 2.163e-6
-1.348, 2.114e-6
-1.347, 2.032e-6
-1.346, 2.020e-6
-1.345, 1.920e-6
-1.344, 1.850e-6
-1.343, 1.789e-6
-1.342, 1.759e-6
-1.341, 1.680e-6
-1.340, 1.658e-6
-1.339, 1.617e-6
-1.338, 1.552e-6
-1.337, 1.512e-6
-1.336, 1.436e-6
-1.335, 1.410e-6
-1.334, 1.354e-6
-1.333, 1.311e-6
-1.332, 1.230e-6
-1.331, 1.218e-6
-1.330, 1.134e-6
-1.329, 1.108e-6
-1.328, 1.068e-6
-1.327, 1.027e-6
-1.326, 9.864e-7
-1.325, 9.499e-7
-1.324, 8.946e-7
-1.323, 8.502e-7
-1.322, 8.483e-7
-1.321, 8.364e-7
-1.320, 7.901e-7
-1.319, 7.111e-7
-1.318, 6.796e-7
-1.317, 6.470e-7
-1.316, 6.026e-7
-1.315, 5.503e-7
-1.314, 5.158e-7
-1.313, 3.994e-7
-1.312, 3.796e-7
-1.311, 3.609e-7
-1.310, 3.135e-7
-1.309, 3.086e-7
-1.308, 2.603e-7
-1.307, 2.583e-7
-1.306, 2.228e-7
-1.305, 2.129e-7
-1.304, 1.833e-7
-1.303, 1.892e-7
-1.302, 1.320e-7
-1.301, 9.550e-8
-1.300, 4.025e-8
-1.299, -5.130e-9
-1.298, -7.103e-9
-1.297, -3.275e-8
-1.296, -4.657e-8
-1.295, -8.800e-8
-1.294, -1.255e-7
-1.293, -1.403e-7
-1.292, -1.423e-7
-1.291, -1.877e-7
-1.290, -1.936e-7
-1.289, -2.222e-7
-1.288, -2.508e-7
-1.287, -2.488e-7
-1.286, -2.774e-7
-1.285, -3.149e-7
-1.284, -3.396e-7
-1.283, -3.672e-7
-1.282, -3.573e-7
-1.281, -3.800e-7
-1.280, -4.175e-7
-1.279, -4.412e-7
-1.278, -4.688e-7
-1.277, -4.540e-7
-1.276, -5.063e-7
-1.275, -5.241e-7
-1.274, -5.310e-7
-1.273, -5.665e-7
-1.272, -5.764e-7
-1.271, -5.813e-7
-1.270, -5.872e-7
-1.269, -6.464e-7
-1.268, -6.277e-7
-1.267, -6.583e-7
-1.266, -6.573e-7
-1.265, -7.184e-7
-1.264, -7.115e-7
-1.263, -7.510e-7
-1.262, -7.421e-7
-1.261, -7.559e-7
-1.260, -7.806e-7
-1.259, -8.260e-7
-1.258, -8.230e-7
-1.257, -8.437e-7
-1.256, -8.497e-7
-1.255, -8.793e-7
-1.254, -9.197e-7
-1.253, -9.059e-7
-1.252, -9.276e-7
-1.251, -9.227e-7
-1.250, -9.562e-7
-1.249, -9.562e-7
-1.248, -1.007e-6
-1.247, -9.769e-7
-1.246, -1.016e-6
-1.245, -1.059e-6
-1.244, -1.045e-6
-1.243, -1.062e-6
-1.242, -1.054e-6
-1.241, -1.126e-6
-1.240, -1.109e-6
-1.239, -1.156e-6
-1.238, -1.130e-6
-1.237, -1.161e-6
-1.236, -1.143e-6
-1.235, -1.207e-6
-1.234, -1.213e-6
-1.233, -1.216e-6
-1.232, -1.220e-6
-1.231, -1.220e-6
-1.230, -1.272e-6
-1.229, -1.283e-6
-1.228, -1.327e-6
-1.227, -1.303e-6
-1.226, -1.325e-6
-1.225, -1.348e-6
-1.224, -1.356e-6
-1.223, -1.376e-6
-1.222, -1.405e-6
-1.221, -1.401e-6
-1.220, -1.405e-6
-1.219, -1.440e-6
-1.218, -1.428e-6
-1.217, -1.441e-6
-1.216, -1.473e-6
-1.215, -1.516e-6
-1.214, -1.518e-6
-1.213, -1.501e-6
-1.212, -1.543e-6
-1.211, -1.531e-6
-1.210, -1.544e-6
-1.209, -1.567e-6
-1.208, -1.554e-6
-1.207, -1.564e-6
-1.206, -1.617e-6
-1.205, -1.634e-6
-1.204, -1.642e-6
-1.203, -1.655e-6
-1.202, -1.685e-6
-1.201, -1.679e-6
-1.200, -1.703e-6
-1.199, -1.718e-6
-1.198, -1.712e-6
-1.197, -1.754e-6
-1.196, -1.757e-6
-1.195, -1.795e-6
-1.194, -1.806e-6
-1.193, -1.825e-6
-1.192, -1.816e-6
-1.191, -1.824e-6
-1.190, -1.843e-6
-1.189, -1.863e-6
-1.188, -1.898e-6
-1.187, -1.876e-6
-1.186, -1.908e-6
-1.185, -1.926e-6
-1.184, -1.965e-6
-1.183, -1.948e-6
-1.182, -1.980e-6
-1.181, -2.003e-6
-1.180, -2.019e-6
-1.179, -2.025e-6
-1.178, -2.027e-6
-1.177, -2.067e-6
-1.176, -2.060e-6
-1.175, -2.107e-6
-1.174, -2.104e-6
-1.173, -2.124e-6
-1.172, -2.111e-6
-1.171, -2.148e-6
-1.170, -2.172e-6
-1.169, -2.220e-6
-1.168, -2.194e-6
-1.167, -2.211e-6
-1.166, -2.244e-6
-1.165, -2.265e-6
-1.164, -2.312e-6
-1.163, -2.300e-6
-1.162, -2.322e-6
-1.161, -2.323e-6
-1.160, -2.380e-6
-1.159, -2.365e-6
-1.158, -2.401e-6
-1.157, -2.381e-6
-1.156, -2.410e-6
-1.155, -2.486e-6
-1.154, -2.464e-6
-1.153, -2.489e-6
-1.152, -2.487e-6
-1.151, -2.549e-6
-1.150, -2.554e-6
-1.149, -2.604e-6
-1.148, -2.565e-6
-1.147, -2.606e-6
-1.146, -2.632e-6
-1.145, -2.657e-6
-1.144, -2.683e-6
-1.143, -2.690e-6
-1.142, -2.728e-6
-1.141, -2.739e-6
-1.140, -2.788e-6
-1.139, -2.810e-6
-1.138, -2.853e-6
-1.137, -2.827e-6
-1.136, -2.880e-6
-1.135, -2.884e-6
-1.134, -2.952e-6
-1.133, -2.922e-6
-1.132, -2.965e-6
-1.131, -2.987e-6
-1.130, -3.017e-6
-1.129, -3.050e-6
-1.128, -3.037e-6
-1.127, -3.087e-6
-1.126, -3.118e-6
-1.125, -3.174e-6
-1.124, -3.185e-6
-1.123, -3.199e-6
-1.122, -3.223e-6
-1.121, -3.273e-6
-1.120, -3.319e-6
-1.119, -3.358e-6
-1.118, -3.364e-6
-1.117, -3.374e-6
-1.116, -3.422e-6
-1.115, -3.452e-6
-1.114, -3.471e-6
-1.113, -3.490e-6
-1.112, -3.533e-6
-1.111, -3.526e-6
-1.110, -3.628e-6
-1.109, -3.650e-6
-1.108, -3.683e-6
-1.107, -3.673e-6
-1.106, -3.734e-6
-1.105, -3.756e-6
-1.104, -3.804e-6
-1.103, -3.805e-6
-1.102, -3.842e-6
-1.101, -3.887e-6
-1.100, -3.928e-6
-1.099, -3.978e-6
-1.098, -3.944e-6
-1.097, -4.049e-6
-1.096, -4.082e-6
-1.095, -4.115e-6
-1.094, -4.147e-6
-1.093, -4.175e-6
-1.092, -4.202e-6
-1.091, -4.262e-6
-1.090, -4.278e-6
-1.089, -4.344e-6
-1.088, -4.365e-6
-1.087, -4.405e-6
-1.086, -4.434e-6
-1.085, -4.491e-6
-1.084, -4.543e-6
-1.083, -4.558e-6
-1.082, -4.598e-6
-1.081, -4.644e-6
-1.080, -4.688e-6
-1.079, -4.731e-6
-1.078, -4.773e-6
-1.077, -4.788e-6
-1.076, -4.849e-6
-1.075, -4.881e-6
-1.074, -4.954e-6
-1.073, -4.970e-6
-1.072, -5.057e-6
-1.071, -5.083e-6
-1.070, -5.168e-6
-1.069, -5.221e-6
-1.068, -5.231e-6
-1.067, -5.296e-6
-1.066, -5.350e-6
-1.065, -5.414e-6
-1.064, -5.449e-6
-1.063, -5.487e-6
-1.062, -5.535e-6
-1.061, -5.591e-6
-1.060, -5.608e-6
-1.059, -5.663e-6
-1.058, -5.719e-6
-1.057, -5.766e-6
-1.056, -5.803e-6
-1.055, -5.900e-6
-1.054, -5.959e-6
-1.053, -5.995e-6
-1.052, -6.045e-6
-1.051, -6.113e-6
-1.050, -6.181e-6
-1.049, -6.248e-6
-1.048, -6.249e-6
-1.047, -6.341e-6
-1.046, -6.395e-6
-1.045, -6.460e-6
-1.044, -6.540e-6
-1.043, -6.576e-6
-1.042, -6.654e-6
-1.041, -6.690e-6
-1.040, -6.797e-6
-1.039, -6.828e-6
-1.038, -6.905e-6
-1.037, -6.956e-6
-1.036, -7.055e-6
-1.035, -7.123e-6
-1.034, -7.216e-6
-1.033, -7.234e-6
-1.032, -7.284e-6
-1.031, -7.407e-6
-1.030, -7.461e-6
-1.029, -7.509e-6
-1.028, -7.567e-6
-1.027, -7.678e-6
-1.026, -7.742e-6
-1.025, -7.843e-6
-1.024, -7.903e-6
-1.023, -7.942e-6
-1.022, -8.018e-6
-1.021, -8.104e-6
-1.020, -8.177e-6
-1.019, -8.271e-6
-1.018, -8.310e-6
-1.017, -8.398e-6
-1.016, -8.472e-6
-1.015, -8.581e-6
-1.014, -8.661e-6
-1.013, -8.704e-6
-1.012, -8.808e-6
-1.011, -8.880e-6
-1.010, -9.007e-6
-1.009, -9.063e-6
-1.008, -9.158e-6
-1.007, -9.248e-6
-1.006, -9.342e-6
-1.005, -9.428e-6
-1.004, -9.473e-6
-1.003, -9.604e-6
-1.002, -9.660e-6
-1.001, -9.785e-6
-1.000, -8.353e-6
-1.001, -7.162e-6
-1.002, -6.401e-6
-1.003, -5.864e-6
-1.004, -5.325e-6
-1.005, -4.914e-6
-1.006, -4.502e-6
-1.007, -4.139e-6
-1.008, -3.821e-6
-1.009, -3.501e-6
-1.010, -3.270e-6
-1.011, -2.978e-6
-1.012, -2.743e-6
-1.013, -2.464e-6
-1.014, -2.297e-6
-1.015, -2.087e-6
-1.016, -1.912e-6
-1.017, -1.721e-6
-1.018, -1.528e-6
-1.019, -1.412e-6
-1.020, -1.237e-6
-1.021, -1.097e-6
-1.022, -9.759e-7
-1.023, -8.418e-7
-1.024, -7.007e-7
-1.025, -6.218e-7
-1.026, -4.688e-7
-1.027, -3.919e-7
-1.028, -2.784e-7
-1.029, -1.946e-7
-1.030, -6.926e-8
-1.031, 2.447e-8
-1.032, 1.152e-7
-1.033, 2.198e-7
-1.034, 2.435e-7
-1.035, 3.343e-7
-1.036, 3.925e-7
-1.037, 5.000e-7
-1.038, 5.513e-7
-1.039, 6.332e-7
-1.040, 6.677e-7
-1.041, 7.605e-7
-1.042, 7.901e-7
-1.043, 8.680e-7
-1.044, 8.996e-7
-1.045, 9.647e-7
-1.046, 9.923e-7
-1.047, 1.060e-6
-1.048, 1.108e-6
-1.049, 1.151e-6
-1.050, 1.215e-6
-1.051, 1.243e-6
-1.052, 1.314e-6
-1.053, 1.332e-6
-1.054, 1.385e-6
-1.055, 1.393e-6
-1.056, 1.439e-6
-1.057, 1.449e-6
-1.058, 1.523e-6
-1.059, 1.537e-6
-1.060, 1.565e-6
-1.061, 1.592e-6
-1.062, 1.648e-6
-1.063, 1.707e-6
-1.064, 1.699e-6
-1.065, 1.733e-6
-1.066, 1.715e-6
-1.067, 1.773e-6
-1.068, 1.792e-6
-1.069, 1.832e-6
-1.070, 1.849e-6
-1.071, 1.850e-6
-1.072, 1.874e-6
-1.073, 1.930e-6
-1.074, 1.958e-6
-1.075, 1.975e-6
-1.076, 1.987e-6
-1.077, 2.011e-6
-1.078, 2.060e-6
-1.079, 2.048e-6
-1.080, 2.065e-6
-1.081, 2.078e-6
-1.082, 2.126e-6
-1.083, 2.119e-6
-1.084, 2.157e-6
-1.085, 2.150e-6
-1.086, 2.170e-6
-1.087, 2.193e-6
-1.088, 2.227e-6
-1.089, 2.243e-6
-1.090, 2.229e-6
-1.091, 2.256e-6
-1.092, 2.264e-6
-1.093, 2.315e-6
-1.094, 2.307e-6
-1.095, 2.331e-6
-1.096, 2.307e-6
-1.097, 2.366e-6
-1.098, 2.366e-6
-1.099, 2.377e-6
-1.100, 2.382e-6
-1.101, 2.388e-6
-1.102, 2.433e-6
-1.103, 2.461e-6
-1.104, 2.451e-6
-1.105, 2.433e-6
-1.106, 2.458e-6
-1.107, 2.451e-6
-1.108, 2.502e-6
-1.109, 2.514e-6
-1.110, 2.498e-6
-1.111, 2.489e-6
-1.112, 2.541e-6
-1.113, 2.532e-6
-1.114, 2.562e-6
-1.115, 2.568e-6
-1.116, 2.539e-6
-1.117, 2.585e-6
-1.118, 2.573e-6
-1.119, 2.605e-6
-1.120, 2.571e-6
-1.121, 2.610e-6
-1.122, 2.602e-6
-1.123, 2.618e-6
-1.124, 2.623e-6
-1.125, 2.614e-6
-1.126, 2.653e-6
-1.127, 2.663e-6
-1.128, 2.662e-6
-1.129, 2.676e-6
-1.130, 2.652e-6
-1.131, 2.654e-6
-1.132, 2.679e-6
-1.133, 2.684e-6
-1.134, 2.718e-6
-1.135, 2.686e-6
-1.136, 2.699e-6
-1.137, 2.707e-6
-1.138, 2.735e-6
-1.139, 2.743e-6
-1.140, 2.749e-6
-1.141, 2.752e-6
-1.142, 2.734e-6
-1.143, 2.769e-6
-1.144, 2.761e-6
-1.145, 2.746e-6
-1.146, 2.759e-6
-1.147, 2.766e-6
-1.148, 2.772e-6
-1.149, 2.809e-6
-1.150, 2.763e-6
-1.151, 2.786e-6
-1.152, 2.801e-6
-1.153, 2.808e-6
-1.154, 2.841e-6
-1.155, 2.825e-6
-1.156, 2.853e-6
-1.157, 2.789e-6
-1.158, 2.857e-6
-1.159, 2.841e-6
-1.160, 2.836e-6
-1.161, 2.832e-6
-1.162, 2.864e-6
-1.163, 2.827e-6
-1.164, 2.846e-6
-1.165, 2.846e-6
-1.166, 2.867e-6
-1.167, 2.858e-6
-1.168, 2.902e-6
-1.169, 2.890e-6
-1.170, 2.884e-6
-1.171, 2.890e-6
-1.172, 2.890e-6
-1.173, 2.908e-6
-1.174, 2.911e-6
-1.175, 2.905e-6
-1.176, 2.901e-6
-1.177, 2.911e-6
-1.178, 2.945e-6
-1.179, 2.942e-6
-1.180, 2.940e-6
-1.181, 2.903e-6
-1.182, 2.934e-6
-1.183, 2.932e-6
-1.184, 2.959e-6
-1.185, 2.924e-6
-1.186, 2.934e-6
-1.187, 2.956e-6
-1.188, 2.972e-6
-1.189, 2.973e-6
-1.190, 2.974e-6
-1.191, 2.988e-6
-1.192, 2.982e-6
-1.193, 2.987e-6
-1.194, 2.982e-6
-1.195, 2.975e-6
-1.196, 2.980e-6
-1.197, 2.999e-6
-1.198, 3.033e-6
-1.199, 3.051e-6
-1.200, 3.018e-6
-1.201, 3.035e-6
-1.202, 3.067e-6
-1.203, 3.057e-6
-1.204, 3.074e-6
-1.205, 3.051e-6
-1.206, 3.074e-6
-1.207, 3.060e-6
-1.208, 3.098e-6
-1.209, 3.089e-6
-1.210, 3.090e-6
-1.211, 3.082e-6
-1.212, 3.093e-6
-1.213, 3.109e-6
-1.214, 3.092e-6
-1.215, 3.101e-6
-1.216, 3.115e-6
-1.217, 3.150e-6
-1.218, 3.134e-6
-1.219, 3.163e-6
-1.220, 3.139e-6
-1.221, 3.170e-6
-1.222, 3.172e-6
-1.223, 3.184e-6
-1.224, 3.198e-6
-1.225, 3.202e-6
-1.226, 3.197e-6
-1.227, 3.187e-6
-1.228, 3.241e-6
-1.229, 3.242e-6
-1.230, 3.255e-6
-1.231, 3.252e-6
-1.232, 3.273e-6
-1.233, 3.257e-6
-1.234, 3.294e-6
-1.235, 3.293e-6
-1.236, 3.305e-6
-1.237, 3.326e-6
-1.238, 3.299e-6
-1.239, 3.341e-6
-1.240, 3.329e-6
-1.241, 3.339e-6
-1.242, 3.346e-6
-1.243, 3.388e-6
-1.244, 3.400e-6
-1.245, 3.391e-6
-1.246, 3.422e-6
-1.247, 3.425e-6
-1.248, 3.447e-6
-1.249, 3.443e-6
-1.250, 3.461e-6
-1.251, 3.452e-6
-1.252, 3.496e-6
-1.253, 3.506e-6
-1.254, 3.507e-6
-1.255, 3.536e-6
-1.256, 3.555e-6
-1.257, 3.579e-6
-1.258, 3.581e-6
-1.259, 3.608e-6
-1.260, 3.589e-6
-1.261, 3.632e-6
-1.262, 3.629e-6
-1.263, 3.672e-6
-1.264, 3.674e-6
-1.265, 3.714e-6
-1.266, 3.711e-6
-1.267, 3.738e-6
-1.268, 3.755e-6
-1.269, 3.754e-6
-1.270, 3.780e-6
-1.271, 3.780e-6
-1.272, 3.833e-6
-1.273, 3.838e-6
-1.274, 3.897e-6
-1.275, 3.860e-6
-1.276, 3.912e-6
-1.277, 3.917e-6
-1.278, 3.968e-6
-1.279, 3.985e-6
-1.280, 3.981e-6
-1.281, 3.996e-6
-1.282, 4.034e-6
-1.283, 4.065e-6
-1.284, 4.076e-6
-1.285, 4.106e-6
-1.286, 4.105e-6
-1.287, 4.145e-6
-1.288, 4.185e-6
-1.289, 4.209e-6
-1.290, 4.189e-6
-1.291, 4.241e-6
-1.292, 4.290e-6
-1.293, 4.298e-6
-1.294, 4.354e-6
-1.295, 4.332e-6
-1.296, 4.389e-6
-1.297, 4.409e-6
-1.298, 4.451e-6
-1.299, 4.463e-6
-1.300, 4.481e-6
-1.301, 4.518e-6
-1.302, 4.533e-6
-1.303, 4.617e-6
-1.304, 4.596e-6
-1.305, 4.670e-6
-1.306, 4.721e-6
-1.307, 4.760e-6
-1.308, 4.771e-6
-1.309, 4.806e-6
-1.310, 4.822e-6
-1.311, 4.843e-6
-1.312, 4.929e-6
-1.313, 4.943e-6
-1.314, 5.023e-6
-1.315, 5.017e-6
-1.316, 5.068e-6
-1.317, 5.081e-6
-1.318, 5.152e-6
-1.319, 5.222e-6
-1.320, 5.248e-6
-1.321, 5.301e-6
-1.322, 5.332e-6
-1.323, 5.389e-6
-1.324, 5.397e-6
-1.325, 5.479e-6
-1.326, 5.489e-6
-1.327, 5.581e-6
-1.328, 5.582e-6
-1.329, 5.651e-6
-1.330, 5.687e-6
-1.331, 5.763e-6
-1.332, 5.830e-6
-1.333, 5.854e-6
-1.334, 5.904e-6
-1.335, 5.981e-6
-1.336, 6.034e-6
-1.337, 6.062e-6
-1.338, 6.197e-6
-1.339, 6.254e-6
-1.340, 6.315e-6
-1.341, 6.383e-6
-1.342, 6.437e-6
-1.343, 6.499e-6
-1.344, 6.587e-6
-1.345, 6.619e-6
-1.346, 6.680e-6
-1.347, 6.779e-6
-1.348, 6.863e-6
-1.349, 6.964e-6
-1.350, 6.996e-6
-1.351, 7.116e-6
-1.352, 7.152e-6
-1.353, 7.257e-6
-1.354, 7.343e-6
-1.355, 7.404e-6
-1.356, 7.509e-6
-1.357, 7.563e-6
-1.358, 7.663e-6
-1.359, 7.771e-6
-1.360, 7.843e-6
-1.361, 7.949e-6
-1.362, 8.072e-6
-1.363, 8.151e-6
-1.364, 8.269e-6
-1.365, 8.331e-6
-1.366, 8.470e-6
-1.367, 8.577e-6
-1.368, 8.721e-6
-1.369, 8.792e-6
-1.370, 8.923e-6
-1.371, 9.029e-6
-1.372, 9.140e-6
-1.373, 9.289e-6
-1.374, 9.419e-6
-1.375, 9.556e-6
-1.376, 9.644e-6
-1.377, 9.778e-6
-1.378, 9.893e-6
-1.379, 1.007e-5
-1.380, 1.017e-5
-1.381, 1.034e-5
-1.382, 1.046e-5
-1.383, 1.064e-5
-1.384, 1.082e-5
-1.385, 1.097e-5
-1.386, 1.112e-5
-1.387, 1.128e-5
-1.388, 1.147e-5
-1.389, 1.161e-5
-1.390, 1.177e-5
-1.391, 1.193e-5
-1.392, 1.209e-5
-1.393, 1.228e-5
-1.394, 1.252e-5
-1.395, 1.269e-5
-1.396, 1.294e-5
-1.397, 1.325e-5
-1.398, 1.318e-5
-1.399, 1.350e-5
-1.400, 1.382e-5
-1.401, 1.401e-5
-1.402, 1.423e-5
-1.403, 1.443e-5
-1.404, 1.465e-5
-1.405, 1.484e-5
-1.406, 1.508e-5
-1.407, 1.541e-5
-1.408, 1.584e-5
-1.409, 1.577e-5
-1.410, 1.587e-5
-1.411, 1.638e-5
-1.412, 1.666e-5
-1.413, 1.690e-5
-1.414, 1.718e-5
-1.415, 1.740e-5
-1.416, 1.806e-5
-1.417, 1.800e-5
-1.418, 1.805e-5
-1.419, 1.862e-5
-1.420, 1.906e-5
-1.421, 1.927e-5
-1.422, 1.971e-5
-1.423, 2.022e-5
-1.424, 1.973e-5
-1.425, 2.030e-5
-1.426, 2.093e-5
-1.427, 2.116e-5
-1.428, 2.193e-5
-1.429, 2.174e-5
-1.430, 2.204e-5
-1.431, 2.291e-5
-1.432, 2.317e-5
-1.433, 2.389e-5
-1.434, 2.348e-5
-1.435, 2.449e-5
-1.436, 2.512e-5
-1.437, 2.552e-5
-1.438, 2.543e-5
-1.439, 2.574e-5
-1.440, 2.675e-5
-1.441, 2.729e-5
-1.442, 2.719e-5
-1.443, 2.752e-5
-1.444, 2.852e-5
-1.445, 2.896e-5
-1.446, 2.886e-5
-1.447, 3.009e-5
-1.448, 3.082e-5
-1.449, 3.079e-5
-1.450, 3.115e-5
-1.451, 3.207e-5
-1.452, 3.264e-5
-1.453, 3.285e-5
-1.454, 3.372e-5
-1.455, 3.428e-5
-1.456, 3.437e-5
-1.457, 3.580e-5
-1.458, 3.571e-5
-1.459, 3.701e-5
-1.460, 3.716e-5
-1.461, 3.799e-5
-1.462, 3.866e-5
-1.463, 3.877e-5
-1.464, 3.991e-5
-1.465, 4.074e-5
-1.466, 4.051e-5
-1.467, 4.228e-5
-1.468, 4.231e-5
-1.469, 4.329e-5
-1.470, 4.434e-5
-1.471, 4.435e-5
-1.472, 4.597e-5
-1.473, 4.593e-5
-1.474, 4.782e-5
-1.475, 4.760e-5
-1.476, 4.910e-5
-1.477, 4.926e-5
-1.478, 5.087e-5
-1.479, 5.147e-5
-1.480, 5.212e-5
-1.481, 5.327e-5
-1.482, 5.409e-5
-1.483, 5.518e-5
-1.484, 5.612e-5
-1.485, 5.746e-5
-1.486, 5.868e-5
-1.487, 5.872e-5
-1.488, 6.054e-5
-1.489, 6.050e-5
-1.490, 6.246e-5
-1.491, 6.287e-5
-1.492, 6.383e-5
-1.493, 6.562e-5
-1.494, 6.589e-5
-1.495, 6.755e-5
-1.496, 6.844e-5
-1.497, 6.982e-5
-1.498, 7.109e-5
-1.499, 7.184e-5
-1.500, 7.364e-5
-1.501, 7.446e-5
-1.502, 7.615e-5
-1.503, 7.783e-5
-1.504, 7.813e-5
-1.505, 7.925e-5
-1.506, 8.149e-5
-1.507, 8.230e-5
-1.508, 8.362e-5
-1.509, 8.578e-5
-1.510, 8.665e-5
-1.511, 8.813e-5
-1.512, 8.957e-5
-1.513, 9.133e-5
-1.514, 9.216e-5
-1.515, 9.435e-5
-1.516, 9.615e-5
-1.517, 9.846e-5
-1.518, 9.877e-5
-1.519, 1.004e-4
-1.520, 1.021e-4
-1.521, 1.041e-4
-1.522, 1.054e-4
-1.523, 1.070e-4
-1.524, 1.094e-4
-1.525, 1.108e-4
-1.526, 1.126e-4
-1.527, 1.140e-4
-1.528, 1.158e-4
-1.529, 1.182e-4
-1.530, 1.200e-4
-1.531, 1.220e-4
-1.532, 1.237e-4
-1.533, 1.257e-4
-1.534, 1.273e-4
-1.535, 1.300e-4
-1.536, 1.310e-4
-1.537, 1.335e-4
-1.538, 1.356e-4
-1.539, 1.398e-4
-1.540, 1.396e-4
-1.541, 1.419e-4
-1.542, 1.512e-4
-1.543, 1.463e-4
-1.544, 1.484e-4
-1.545, 1.510e-4
-1.546, 1.526e-4
-1.547, 1.549e-4
-1.548, 1.580e-4
-1.549, 1.605e-4
-1.550, 1.623e-4
-1.551, 1.641e-4
-1.552, 1.666e-4
-1.553, 1.690e-4
-1.554, 1.711e-4
-1.555, 1.736e-4
-1.556, 1.754e-4
-1.557, 1.784e-4
-1.558, 1.809e-4
-1.559, 1.838e-4
-1.560, 1.865e-4
-1.561, 1.891e-4
-1.562, 1.913e-4
-1.563, 1.937e-4
-1.564, 1.971e-4
-1.565, 1.981e-4
-1.566, 2.006e-4
-1.567, 2.036e-4
-1.568, 2.053e-4
-1.569, 2.097e-4
-1.570, 2.109e-4
-1.571, 2.134e-4
-1.572, 2.162e-4
-1.573, 2.186e-4
-1.574, 2.226e-4
-1.575, 2.268e-4
-1.576, 2.325e-4
-1.577, 2.301e-4
-1.578, 2.326e-4
-1.579, 2.364e-4
-1.580, 2.391e-4
-1.581, 2.408e-4
-1.582, 2.442e-4
-1.583, 2.467e-4
-1.584, 2.508e-4
-1.585, 2.543e-4
-1.586, 2.552e-4
-1.587, 2.579e-4
-1.588, 2.613e-4
-1.589, 2.640e-4
-1.590, 2.690e-4
-1.591, 2.718e-4
-1.592, 2.743e-4
-1.593, 2.777e-4
-1.594, 2.811e-4
-1.595, 2.837e-4
-1.596, 2.909e-4
-1.597, 2.906e-4
-1.598, 2.949e-4
-1.599, 2.969e-4
-1.600, 3.007e-4
-1.601, 3.040e-4
-1.602, 3.068e-4
-1.603, 3.106e-4
-1.604, 3.147e-4
-1.605, 3.194e-4
-1.606, 3.225e-4
-1.607, 3.252e-4
-1.608, 3.289e-4
-1.609, 3.330e-4
-1.610, 3.389e-4
-1.611, 3.395e-4
-1.612, 3.454e-4
-1.613, 3.479e-4
-1.614, 3.523e-4
-1.615, 3.577e-4
-1.616, 3.610e-4
-1.617, 3.635e-4
-1.618, 3.673e-4
-1.619, 3.708e-4
-1.620, 3.774e-4
-1.621, 3.797e-4
-1.622, 3.833e-4
-1.623, 3.892e-4
-1.624, 3.936e-4
-1.625, 3.976e-4
-1.626, 4.000e-4
-1.627, 4.043e-4
-1.628, 4.138e-4
-1.629, 4.167e-4
-1.630, 4.229e-4
-1.631, 4.288e-4
-1.632, 4.318e-4
-1.633, 4.373e-4
-1.634, 4.407e-4
-1.635, 4.469e-4
-1.636, 4.509e-4
-1.637, 4.585e-4
-1.638, 4.615e-4
-1.639, 4.700e-4
-1.640, 4.738e-4
-1.641, 4.811e-4
-1.642, 4.863e-4
-1.643, 4.912e-4
-1.644, 4.989e-4
-1.645, 5.033e-4
-1.646, 5.102e-4
-1.647, 5.174e-4
-1.648, 5.240e-4
-1.649, 5.305e-4
-1.650, 5.360e-4
-1.651, 5.411e-4
-1.652, 5.503e-4
-1.653, 5.579e-4
-1.654, 5.659e-4
-1.655, 5.724e-4
-1.656, 5.781e-4
-1.657, 5.873e-4
-1.658, 5.959e-4
-1.659, 6.019e-4
-1.660, 6.095e-4
-1.661, 6.177e-4
-1.662, 6.239e-4
-1.663, 6.319e-4
-1.664, 6.402e-4
-1.665, 6.484e-4
-1.666, 6.577e-4
-1.667, 6.653e-4
-1.668, 6.698e-4
-1.669, 6.808e-4
-1.670, 6.959e-4
-1.671, 7.039e-4
-1.672, 7.107e-4
-1.673, 7.212e-4
-1.674, 7.313e-4
-1.675, 7.430e-4
-1.676, 7.537e-4
-1.677, 7.621e-4
-1.678, 7.718e-4
-1.679, 7.818e-4
-1.680, 7.957e-4
-1.681, 8.109e-4
-1.682, 8.239e-4
-1.683, 8.399e-4
-1.684, 8.507e-4
-1.685, 8.595e-4
-1.686, 8.686e-4
-1.687, 8.784e-4
-1.688, 8.917e-4
-1.689, 9.044e-4
-1.690, 9.189e-4
-1.691, 9.338e-4
-1.692, 9.501e-4
-1.693, 9.662e-4
-1.694, 9.774e-4
-1.695, 9.861e-4
-1.696, 1.005e-3
-1.697, 1.027e-3
-1.698, 1.044e-3
-1.699, 1.068e-3
-1.700, 1.088e-3
-1.701, 1.098e-3
-1.702, 1.111e-3
-1.703, 1.122e-3
-1.704, 1.140e-3
-1.705, 1.163e-3
-1.706, 1.179e-3
-1.707, 1.200e-3
-1.708, 1.221e-3
-1.709, 1.242e-3
-1.710, 1.264e-3
-1.711, 1.285e-3
-1.712, 1.301e-3
-1.713, 1.317e-3
-1.714, 1.331e-3
-1.715, 1.352e-3
-1.716, 1.377e-3
-1.717, 1.402e-3
-1.718, 1.424e-3
-1.719, 1.446e-3
-1.720, 1.474e-3
-1.721, 1.500e-3
-1.722, 1.522e-3
-1.723, 1.544e-3
-1.724, 1.570e-3
-1.725, 1.610e-3
-1.726, 1.631e-3
-1.727, 1.659e-3
-1.728, 1.689e-3
-1.729, 1.722e-3
-1.730, 1.749e-3
-1.731, 1.769e-3
-1.732, 1.794e-3
-1.733, 1.823e-3
-1.734, 1.846e-3
-1.735, 1.874e-3
-1.736, 1.902e-3
-1.737, 1.928e-3
-1.738, 1.959e-3
-1.739, 1.991e-3
-1.740, 2.029e-3
-1.741, 2.058e-3
-1.742, 2.088e-3
-1.743, 2.124e-3
-1.744, 2.165e-3
-1.745, 2.203e-3
-1.746, 2.242e-3
-1.747, 2.277e-3
-1.748, 2.310e-3
-1.749, 2.332e-3
-1.750, 2.363e-3
-1.751, 2.393e-3
-1.752, 2.436e-3
-1.753, 2.479e-3
-1.754, 2.521e-3
-1.755, 2.567e-3
-1.756, 2.605e-3
-1.757, 2.643e-3
-1.758, 2.681e-3
-1.759, 2.714e-3
-1.760, 2.747e-3
-1.761, 2.779e-3
-1.762, 2.819e-3
-1.763, 2.855e-3
-1.764, 2.898e-3
-1.765, 2.943e-3
-1.766, 2.984e-3
-1.767, 3.030e-3
-1.768, 3.070e-3
-1.769, 3.116e-3
-1.770, 3.159e-3
-1.771, 3.203e-3
-1.772, 3.238e-3
-1.773, 3.279e-3
-1.774, 3.330e-3
-1.775, 3.380e-3
-1.776, 3.428e-3
-1.777, 3.467e-3
-1.778, 3.505e-3
-1.779, 3.550e-3
-1.780, 3.589e-3
-1.781, 3.642e-3
-1.782, 3.693e-3
-1.783, 3.730e-3
-1.784, 3.789e-3
-1.785, 3.841e-3
-1.786, 3.893e-3
-1.787, 3.943e-3
-1.788, 3.984e-3
-1.789, 4.021e-3
-1.790, 4.065e-3
-1.791, 4.115e-3
-1.792, 4.167e-3
-1.793, 4.216e-3
-1.794, 4.274e-3
-1.795, 4.324e-3
-1.796, 4.380e-3
-1.797, 4.434e-3
-1.798, 4.490e-3
-1.799, 4.541e-3
-1.800, 4.562e-3
-1.799, 4.528e-3
-1.798, 4.501e-3
-1.797, 4.466e-3
-1.796, 4.446e-3
-1.795, 4.414e-3
-1.794, 4.376e-3
-1.793, 4.347e-3
-1.792, 4.324e-3
-1.791, 4.291e-3
-1.790, 4.254e-3
-1.789, 4.228e-3
-1.788, 4.184e-3
-1.787, 4.144e-3
-1.786, 4.112e-3
-1.785, 4.074e-3
-1.784, 4.043e-3
-1.783, 4.011e-3
-1.782, 3.983e-3
-1.781, 3.950e-3
-1.780, 3.916e-3
-1.779, 3.876e-3
-1.778, 3.836e-3
-1.777, 3.807e-3
-1.776, 3.766e-3
-1.775, 3.735e-3
-1.774, 3.695e-3
-1.773, 3.660e-3
-1.772, 3.625e-3
-1.771, 3.601e-3
-1.770, 3.572e-3
-1.769, 3.528e-3
-1.768, 3.481e-3
-1.767, 3.444e-3
-1.766, 3.414e-3
-1.765, 3.382e-3
-1.764, 3.355e-3
-1.763, 3.327e-3
-1.762, 3.280e-3
-1.761, 3.241e-3
-1.760, 3.203e-3
-1.759, 3.176e-3
-1.758, 3.144e-3
-1.757, 3.114e-3
-1.756, 3.083e-3
-1.755, 3.060e-3
-1.754, 3.033e-3
-1.753, 3.001e-3
-1.752, 2.961e-3
-1.751, 2.919e-3
-1.750, 2.888e-3
-1.749, 2.847e-3
-1.748, 2.810e-3
-1.747, 2.776e-3
-1.746, 2.751e-3
-1.745, 2.729e-3
-1.744, 2.700e-3
-1.743, 2.671e-3
-1.742, 2.642e-3
-1.741, 2.609e-3
-1.740, 2.579e-3
-1.739, 2.556e-3
-1.738, 2.526e-3
-1.737, 2.490e-3
-1.736, 2.454e-3
-1.735, 2.436e-3
-1.734, 2.419e-3
-1.733, 2.390e-3
-1.732, 2.360e-3
-1.731, 2.335e-3
-1.730, 2.303e-3
-1.729, 2.272e-3
-1.728, 2.245e-3
-1.727, 2.220e-3
-1.726, 2.194e-3
-1.725, 2.172e-3
-1.724, 2.143e-3
-1.723, 2.114e-3
-1.722, 2.082e-3
-1.721, 2.051e-3
-1.720, 2.023e-3
-1.719, 2.001e-3
-1.718, 1.977e-3
-1.717, 1.947e-3
-1.716, 1.923e-3
-1.715, 1.901e-3
-1.714, 1.884e-3
-1.713, 1.853e-3
-1.712, 1.827e-3
-1.711, 1.801e-3
-1.710, 1.777e-3
-1.709, 1.749e-3
-1.708, 1.725e-3
-1.707, 1.712e-3
-1.706, 1.687e-3
-1.705, 1.667e-3
-1.704, 1.650e-3
-1.703, 1.624e-3
-1.702, 1.598e-3
-1.701, 1.572e-3
-1.700, 1.550e-3
-1.699, 1.530e-3
-1.698, 1.501e-3
-1.697, 1.482e-3
-1.696, 1.467e-3
-1.695, 1.445e-3
-1.694, 1.423e-3
-1.693, 1.409e-3
-1.692, 1.395e-3
-1.691, 1.367e-3
-1.690, 1.348e-3
-1.689, 1.329e-3
-1.688, 1.311e-3
-1.687, 1.294e-3
-1.686, 1.278e-3
-1.685, 1.262e-3
-1.684, 1.247e-3
-1.683, 1.226e-3
-1.682, 1.205e-3
-1.681, 1.190e-3
-1.680, 1.177e-3
-1.679, 1.158e-3
-1.678, 1.145e-3
-1.677, 1.127e-3
-1.676, 1.110e-3
-1.675, 1.093e-3
-1.674, 1.078e-3
-1.673, 1.063e-3
-1.672, 1.048e-3
-1.671, 1.033e-3
-1.670, 1.018e-3
-1.669, 1.001e-3
-1.668, 9.863e-4
-1.667, 9.718e-4
-1.666, 9.566e-4
-1.665, 9.417e-4
-1.664, 9.295e-4
-1.663, 9.166e-4
-1.662, 9.031e-4
-1.661, 8.887e-4
-1.660, 8.731e-4
-1.659, 8.606e-4
-1.658, 8.490e-4
-1.657, 8.366e-4
-1.656, 8.240e-4
-1.655, 8.119e-4
-1.654, 8.003e-4
-1.653, 7.880e-4
-1.652, 7.741e-4
-1.651, 7.622e-4
-1.650, 7.529e-4
-1.649, 7.399e-4
-1.648, 7.283e-4
-1.647, 7.178e-4
-1.646, 7.066e-4
-1.645, 6.964e-4
-1.644, 6.863e-4
-1.643, 6.748e-4
-1.642, 6.630e-4
-1.641, 6.521e-4
-1.640, 6.415e-4
-1.639, 6.309e-4
-1.638, 6.207e-4
-1.637, 6.108e-4
-1.636, 6.014e-4
-1.635, 5.936e-4
-1.634, 5.837e-4
-1.633, 5.748e-4
-1.632, 5.657e-4
-1.631, 5.578e-4
-1.630, 5.496e-4
-1.629, 5.430e-4
-1.628, 5.336e-4
-1.627, 5.248e-4
-1.626, 5.160e-4
-1.625, 5.069e-4
-1.624, 4.984e-4
-1.623, 4.903e-4
-1.622, 4.846e-4
-1.621, 4.773e-4
-1.620, 4.694e-4
-1.619, 4.613e-4
-1.618, 4.544e-4
-1.617, 4.481e-4
-1.616, 4.387e-4
-1.615, 4.315e-4
-1.614, 4.238e-4
-1.613, 4.179e-4
-1.612, 4.114e-4
-1.611, 4.053e-4
-1.610, 3.981e-4
-1.609, 3.910e-4
-1.608, 3.841e-4
-1.607, 3.777e-4
-1.606, 3.712e-4
-1.605, 3.653e-4
-1.604, 3.588e-4
-1.603, 3.538e-4
-1.602, 3.482e-4
-1.601, 3.424e-4
-1.600, 3.364e-4
-1.599, 3.318e-4
-1.598, 3.275e-4
-1.597, 3.230e-4
-1.596, 3.173e-4
-1.595, 3.109e-4
-1.594, 3.046e-4
-1.593, 2.999e-4
-1.592, 2.943e-4
-1.591, 2.899e-4
-1.590, 2.860e-4
-1.589, 2.810e-4
-1.588, 2.766e-4
-1.587, 2.741e-4
-1.586, 2.669e-4
-1.585, 2.636e-4
-1.584, 2.587e-4
-1.583, 2.542e-4
-1.582, 2.506e-4
-1.581, 2.462e-4
-1.580, 2.414e-4
-1.579, 2.376e-4
-1.578, 2.334e-4
-1.577, 2.291e-4
-1.576, 2.251e-4
-1.575, 2.212e-4
-1.574, 2.182e-4
-1.573, 2.141e-4
-1.572, 2.105e-4
-1.571, 2.062e-4
-1.570, 2.028e-4
-1.569, 1.990e-4
-1.568, 1.953e-4
-1.567, 1.927e-4
-1.566, 1.886e-4
-1.565, 1.860e-4
-1.564, 1.820e-4
-1.563, 1.789e-4
-1.562, 1.762e-4
-1.561, 1.726e-4
-1.560, 1.700e-4
-1.559, 1.667e-4
-1.558, 1.642e-4
-1.557, 1.605e-4
-1.556, 1.575e-4
-1.555, 1.547e-4
-1.554, 1.518e-4
-1.553, 1.490e-4
-1.552, 1.467e-4
-1.551, 1.438e-4
-1.550, 1.411e-4
-1.549, 1.383e-4
-1.548, 1.361e-4
-1.547, 1.340e-4
-1.546, 1.310e-4
-1.545, 1.284e-4
-1.544, 1.261e-4
-1.543, 1.235e-4
-1.542, 1.212e-4
-1.541, 1.193e-4
-1.540, 1.170e-4
-1.539, 1.147e-4
-1.538, 1.127e-4
-1.537, 1.106e-4
-1.536, 1.084e-4
-1.535, 1.079e-4
-1.534, 1.047e-4
-1.533, 1.026e-4
-1.532, 1.008e-4
-1.531, 9.888e-5
-1.530, 9.706e-5
-1.529, 9.520e-5
-1.528, 9.355e-5
-1.527, 9.173e-5
-1.526, 8.992e-5
-1.525, 8.823e-5
-1.524, 8.674e-5
-1.523, 8.508e-5
-1.522, 8.395e-5
-1.521, 8.218e-5
-1.520, 8.034e-5
-1.519, 7.857e-5
-1.518, 7.727e-5
-1.517, 7.586e-5
-1.516, 7.455e-5
-1.515, 7.278e-5
-1.514, 7.144e-5
-1.513, 6.990e-5
-1.512, 6.870e-5
-1.511, 6.730e-5
-1.510, 6.599e-5
-1.509, 6.469e-5
-1.508, 6.359e-5
-1.507, 6.219e-5
-1.506, 6.110e-5
-1.505, 6.028e-5
-1.504, 5.931e-5
-1.503, 5.793e-5
-1.502, 5.664e-5
-1.501, 5.535e-5
-1.500, 5.431e-5
-1.499, 5.323e-5
-1.498, 5.220e-5
-1.497, 5.125e-5
-1.496, 5.026e-5
-1.495, 4.934e-5
-1.494, 4.838e-5
-1.493, 4.759e-5
-1.492, 4.680e-5
-1.491, 4.625e-5
-1.490, 4.535e-5
-1.489, 4.445e-5
-1.488, 4.362e-5
-1.487, 4.290e-5
-1.486, 4.199e-5
-1.485, 4.124e-5
-1.484, 4.031e-5
-1.483, 3.958e-5
-1.482, 3.879e-5
-1.481, 3.807e-5
-1.480, 3.732e-5
-1.479, 3.641e-5
-1.478, 3.582e-5
-1.477, 3.513e-5
-1.476, 3.442e-5
-1.475, 3.359e-5
-1.474, 3.295e-5
-1.473, 3.224e-5
-1.472, 3.172e-5
-1.471, 3.117e-5
-1.470, 3.052e-5
-1.469, 2.988e-5
-1.468, 2.957e-5
-1.467, 2.871e-5
-1.466, 2.811e-5
-1.465, 2.762e-5
-1.464, 2.706e-5
-1.463, 2.649e-5
-1.462, 2.601e-5
-1.461, 2.547e-5
-1.460, 2.503e-5
-1.459, 2.466e-5
-1.458, 2.410e-5
-1.457, 2.379e-5
-1.456, 2.337e-5
-1.455, 2.292e-5
-1.454, 2.245e-5
-1.453, 2.314e-5
-1.452, 2.189e-5
-1.451, 2.102e-5
-1.450, 2.039e-5
-1.449, 1.999e-5
-1.448, 1.954e-5
-1.447, 1.918e-5
-1.446, 1.882e-5
-1.445, 1.845e-5
-1.444, 1.806e-5
-1.443, 1.769e-5
-1.442, 1.736e-5
-1.441, 1.705e-5
-1.440, 1.676e-5
-1.439, 1.677e-5
-1.438, 1.630e-5
-1.437, 1.611e-5
-1.436, 1.568e-5
-1.435, 1.539e-5
-1.434, 1.510e-5
-1.433, 1.559e-5
-1.432, 1.438e-5
-1.431, 1.407e-5
-1.430, 1.382e-5
-1.429, 1.355e-5
-1.428, 1.327e-5
-1.427, 1.300e-5
-1.426, 1.277e-5
-1.425, 1.249e-5
-1.424, 1.225e-5
-1.423, 1.200e-5
-1.422, 1.174e-5
-1.421, 1.151e-5
-1.420, 1.115e-5
-1.419, 1.166e-5
-1.418, 1.079e-5
-1.417, 1.062e-5
-1.416, 1.039e-5
-1.415, 1.022e-5
-1.414, 9.992e-6
-1.413, 9.933e-6
-1.412, 9.774e-6
-1.411, 9.638e-6
-1.410, 9.358e-6
-1.409, 8.914e-6
-1.408, 1.004e-5
-1.407, 9.358e-6
-1.406, 8.378e-6
-1.405, 8.187e-6
-1.404, 8.021e-6
-1.403, 7.848e-6
-1.402, 7.703e-6
-1.401, 7.522e-6
-1.400, 7.369e-6
-1.399, 7.222e-6
-1.398, 7.059e-6
-1.397, 6.920e-6
-1.396, 6.775e-6
-1.395, 6.657e-6
-1.394, 6.492e-6
-1.393, 6.371e-6
-1.392, 6.240e-6
-1.391, 6.087e-6
-1.390, 5.978e-6
-1.389, 5.829e-6
-1.388, 5.676e-6
-1.387, 5.551e-6
-1.386, 5.470e-6
-1.385, 5.301e-6
-1.384, 5.208e-6
-1.383, 5.087e-6
-1.382, 5.003e-6
-1.381, 4.881e-6
-1.380, 4.783e-6
-1.379, 4.699e-6
-1.378, 4.554e-6
-1.377, 4.491e-6
-1.376, 4.395e-6
-1.375, 4.274e-6
-1.374, 4.188e-6
-1.373, 4.092e-6
-1.372, 4.017e-6
-1.371, 3.912e-6
-1.370, 3.833e-6
-1.369, 3.681e-6
-1.368, 3.605e-6
-1.367, 3.490e-6
-1.366, 3.391e-6
-1.365, 3.320e-6
-1.364, 3.231e-6
-1.363, 3.138e-6
-1.362, 3.067e-6
-1.361, 3.001e-6
-1.360, 2.928e-6
-1.359, 2.865e-6
-1.358, 2.761e-6
-1.357, 2.716e-6
-1.356, 2.676e-6
-1.355, 2.667e-6
-1.354, 2.487e-6
-1.353, 2.429e-6
-1.352, 2.428e-6
-1.351, 3.023e-6
-1.350, 3.674e-6
-1.349, 2.247e-6
-1.348, 2.204e-6
-1.347, 2.091e-6
-1.346, 2.052e-6
-1.345, 1.963e-6
-1.344, 1.902e-6
-1.343, 1.816e-6
-1.342, 1.801e-6
-1.341, 1.716e-6
-1.340, 1.654e-6
-1.339, 1.633e-6
-1.338, 1.599e-6
-1.337, 1.491e-6
-1.336, 1.587e-6
-1.335, 1.503e-6
-1.334, 1.447e-6
-1.333, 1.478e-6
-1.332, 1.421e-6
-1.331, 1.326e-6
-1.330, 1.296e-6
-1.329, 1.214e-6
-1.328, 1.195e-6
-1.327, 1.139e-6
-1.326, 1.092e-6
-1.325, 1.083e-6
-1.324, 1.029e-6
-1.323, 9.933e-7
-1.322, 9.134e-7
-1.321, 8.266e-7
-1.320, 7.891e-7
-1.319, 7.861e-7
-1.318, 6.924e-7
-1.317, 9.746e-7
-1.316, 1.028e-6
-1.315, 1.013e-6
-1.314, 9.006e-7
-1.313, 8.473e-7
-1.312, 8.216e-7
-1.311, 7.269e-7
-1.310, 7.664e-7
-1.309, 5.345e-7
-1.308, 5.562e-7
-1.307, 6.480e-7
-1.306, 5.868e-7
-1.305, 5.691e-7
-1.304, 5.464e-7
-1.303, 4.911e-7
-1.302, 4.359e-7
-1.301, 4.043e-7
-1.300, 3.510e-7
-1.299, 3.195e-7
-1.298, 3.214e-7
-1.297, 2.849e-7
-1.296, 2.277e-7
-1.295, 7.873e-8
-1.294, 2.447e-8
-1.293, -2.092e-8
-1.292, 1.340e-7
-1.291, 9.748e-8
-1.290, 5.505e-8
-1.289, -9.886e-8
-1.288, -9.886e-8
-1.287, -1.669e-7
-1.286, -1.837e-7
-1.285, -1.827e-7
-1.284, -2.399e-7
-1.283, -2.518e-7
-1.282, -2.774e-7
-1.281, -2.508e-7
-1.280, -3.159e-7
-1.279, -3.465e-7
-1.278, -3.702e-7
-1.277, -4.530e-7
-1.276, -4.126e-7
-1.275, -4.609e-7
-1.274, -4.777e-7
-1.273, -4.698e-7
-1.272, -5.221e-7
-1.271, -5.409e-7
-1.270, -5.349e-7
-1.269, -5.586e-7
-1.268, -5.665e-7
-1.267, -5.922e-7
-1.266, -6.385e-7
-1.265, -6.425e-7
-1.264, -7.096e-7
-1.263, -6.701e-7
-1.262, -6.780e-7
-1.261, -6.809e-7
-1.260, -6.957e-7
-1.259, -7.451e-7
-1.258, -7.688e-7
-1.257, -8.447e-7
-1.256, -7.885e-7
-1.255, -8.408e-7
-1.254, -8.812e-7
-1.253, -8.842e-7
-1.252, -8.990e-7
-1.251, -9.138e-7
-1.250, -8.733e-7
-1.249, -9.128e-7
-1.248, -9.365e-7
-1.247, -9.138e-7
-1.246, -9.700e-7
-1.245, -9.750e-7
-1.244, -1.018e-6
-1.243, -1.013e-6
-1.242, -1.034e-6
-1.241, -1.055e-6
-1.240, -1.034e-6
-1.239, -1.091e-6
-1.238, -1.081e-6
-1.237, -1.116e-6
-1.236, -1.116e-6
-1.235, -1.147e-6
-1.234, -1.149e-6
-1.233, -1.187e-6
-1.232, -1.188e-6
-1.231, -1.208e-6
-1.230, -1.250e-6
-1.229, -1.261e-6
-1.228, -1.283e-6
-1.227, -1.301e-6
-1.226, -1.298e-6
-1.225, -1.287e-6
-1.224, -1.333e-6
-1.223, -1.325e-6
-1.222, -1.355e-6
-1.221, -1.364e-6
-1.220, -1.383e-6
-1.219, -1.432e-6
-1.218, -1.426e-6
-1.217, -1.456e-6
-1.216, -1.436e-6
-1.215, -1.469e-6
-1.214, -1.497e-6
-1.213, -1.514e-6
-1.212, -1.502e-6
-1.211, -1.541e-6
-1.210, -1.543e-6
-1.209, -1.587e-6
-1.208, -1.597e-6
-1.207, -1.572e-6
-1.206, -1.645e-6
-1.205, -1.627e-6
-1.204, -1.683e-6
-1.203, -1.673e-6
-1.202, -1.705e-6
-1.201, -1.715e-6
-1.200, -1.718e-6
-1.199, -1.756e-6
-1.198, -1.773e-6
-1.197, -1.775e-6
-1.196, -1.783e-6
-1.195, -1.838e-6
-1.194, -1.792e-6
-1.193, -1.881e-6
-1.192, -1.852e-6
-1.191, -1.890e-6
-1.190, -1.900e-6
-1.189, -1.897e-6
-1.188, -1.917e-6
-1.187, -1.932e-6
-1.186, -1.960e-6
-1.185, -1.971e-6
-1.184, -2.010e-6
-1.183, -2.013e-6
-1.182, -2.036e-6
-1.181, -2.047e-6
-1.180, -2.096e-6
-1.179, -2.097e-6
-1.178, -2.128e-6
-1.177, -2.139e-6
-1.176, -2.158e-6
-1.175, -2.134e-6
-1.174, -2.214e-6
-1.173, -2.186e-6
-1.172, -2.196e-6
-1.171, -2.234e-6
-1.170, -2.233e-6
-1.169, -2.292e-6
-1.168, -2.288e-6
-1.167, -2.330e-6
-1.166, -2.328e-6
-1.165, -2.370e-6
-1.164, -2.364e-6
-1.163, -2.414e-6
-1.162, -2.399e-6
-1.161, -2.434e-6
-1.160, -2.443e-6
-1.159, -2.479e-6
-1.158, -2.520e-6
-1.157, -2.518e-6
-1.156, -2.541e-6
-1.155, -2.558e-6
-1.154, -2.629e-6
-1.153, -2.604e-6
-1.152, -2.652e-6
-1.151, -2.649e-6
-1.150, -2.679e-6
-1.149, -2.721e-6
-1.148, -2.758e-6
-1.147, -2.713e-6
-1.146, -2.766e-6
-1.145, -2.775e-6
-1.144, -2.831e-6
-1.143, -2.843e-6
-1.142, -2.851e-6
-1.141, -2.885e-6
-1.140, -2.900e-6
-1.139, -2.964e-6
-1.138, -2.964e-6
-1.137, -2.974e-6
-1.136, -3.016e-6
-1.135, -3.032e-6
-1.134, -3.044e-6
-1.133, -3.099e-6
-1.132, -3.110e-6
-1.131, -3.185e-6
-1.130, -3.208e-6
-1.129, -3.248e-6
-1.128, -3.273e-6
-1.127, -3.293e-6
-1.126, -3.313e-6
-1.125, -3.337e-6
-1.124, -3.369e-6
-1.123, -3.406e-6
-1.122, -3.454e-6
-1.121, -3.473e-6
-1.120, -3.459e-6
-1.119, -3.344e-6
-1.118, -3.567e-6
-1.117, -3.608e-6
-1.116, -3.627e-6
-1.115, -3.637e-6
-1.114, -3.681e-6
-1.113, -3.733e-6
-1.112, -3.729e-6
-1.111, -3.759e-6
-1.110, -3.773e-6
-1.109, -3.827e-6
-1.108, -3.868e-6
-1.107, -3.887e-6
-1.106, -3.854e-6
-1.105, -3.898e-6
-1.104, -3.998e-6
-1.103, -4.045e-6
-1.102, -4.100e-6
-1.101, -4.048e-6
-1.100, -4.116e-6
-1.099, -4.150e-6
-1.098, -4.186e-6
-1.097, -4.212e-6
-1.096, -4.240e-6
-1.095, -4.294e-6
-1.094, -4.346e-6
-1.093, -4.393e-6
-1.092, -4.401e-6
-1.091, -4.451e-6
-1.090, -4.493e-6
-1.089, -4.515e-6
-1.088, -4.561e-6
-1.087, -4.610e-6
-1.086, -4.665e-6
-1.085, -4.703e-6
-1.084, -4.739e-6
-1.083, -4.814e-6
-1.082, -4.853e-6
-1.081, -4.889e-6
-1.080, -4.886e-6
-1.079, -4.995e-6
-1.078, -5.008e-6
-1.077, -5.058e-6
-1.076, -5.076e-6
-1.075, -5.136e-6
-1.074, -5.164e-6
-1.073, -5.205e-6
-1.072, -5.207e-6
-1.071, -5.094e-6
-1.070, -5.165e-6
-1.069, -5.197e-6
-1.068, -5.252e-6
-1.067, -5.308e-6
-1.066, -5.349e-6
-1.065, -5.364e-6
-1.064, -5.451e-6
-1.063, -5.502e-6
-1.062, -5.749e-6
-1.061, -5.807e-6
-1.060, -5.888e-6
-1.059, -5.946e-6
-1.058, -5.993e-6
-1.057, -6.018e-6
-1.056, -6.074e-6
-1.055, -6.146e-6
-1.054, -6.220e-6
-1.053, -6.300e-6
-1.052, -6.281e-6
-1.051, -6.369e-6
-1.050, -6.424e-6
-1.049, -6.476e-6
-1.048, -6.563e-6
-1.047, -6.545e-6
-1.046, -6.639e-6
-1.045, -6.648e-6
-1.044, -6.554e-6
-1.043, -6.688e-6
-1.042, -6.697e-6
-1.041, -6.757e-6
-1.040, -6.819e-6
-1.039, -6.871e-6
-1.038, -6.968e-6
-1.037, -6.996e-6
-1.036, -7.055e-6
-1.035, -7.160e-6
-1.034, -7.234e-6
-1.033, -7.263e-6
-1.032, -7.364e-6
-1.031, -7.404e-6
-1.030, -7.497e-6
-1.029, -7.562e-6
-1.028, -7.637e-6
-1.027, -7.690e-6
-1.026, -7.762e-6
-1.025, -7.846e-6
-1.024, -7.910e-6
-1.023, -8.032e-6
-1.022, -8.033e-6
-1.021, -8.119e-6
-1.020, -8.216e-6
-1.019, -8.297e-6
-1.018, -8.370e-6
-1.017, -8.430e-6
-1.016, -8.513e-6
-1.015, -8.598e-6
-1.014, -8.681e-6
-1.013, -8.758e-6
-1.012, -8.879e-6
-1.011, -8.939e-6
-1.010, -9.025e-6
-1.009, -9.113e-6
-1.008, -9.212e-6
-1.007, -9.295e-6
-1.006, -9.381e-6
-1.005, -9.472e-6
-1.004, -9.569e-6
-1.003, -9.693e-6
-1.002, -9.749e-6
-1.001, -9.865e-6
