Sept. 22, 2024   01:49:25
Cyclic Voltammetry
File: c:/users/guazh/data/20240903_batch_400_500/2024-09-20-exp413\exp413-2024-09-22t01_32_01-arkoh\exp413_cv_50mvs_efin_-1900mv.bin
Data Source:  Experiment
Instrument Model:  CHI760E
Header: CV ran at 50 mVs
Note: 

Init E (V) = -1
High E (V) = -1
Low E (V) = -1.9
Final E (V) = -1
Init P/N = N
Scan Rate (V/s) = 0.05
Segment = 7
Sample Interval (V) = 0.001
Quiet Time (sec) = 60
Sensitivity (A/V) = 0.001
Comp R (ohm) = 2.2

Results:

Channel 1:
Segment 1:

Segment 2:

Segment 3:

Segment 4:

Segment 5:

Segment 6:

Segment 7:

Potential/V, Current/A

-1.000, 9.846e-8
-1.001, 1.300e-7
-1.002, 1.922e-7
-1.003, 2.129e-7
-1.004, 2.297e-7
-1.005, 2.642e-7
-1.006, 3.204e-7
-1.007, 2.839e-7
-1.008, 3.214e-7
-1.009, 3.352e-7
-1.010, 3.668e-7
-1.011, 3.885e-7
-1.012, 4.013e-7
-1.013, 4.201e-7
-1.014, 4.339e-7
-1.015, 4.448e-7
-1.016, 4.753e-7
-1.017, 4.615e-7
-1.018, 5.247e-7
-1.019, 5.079e-7
-1.020, 5.237e-7
-1.021, 5.750e-7
-1.022, 5.454e-7
-1.023, 5.651e-7
-1.024, 5.829e-7
-1.025, 5.888e-7
-1.026, 6.371e-7
-1.027, 6.332e-7
-1.028, 6.470e-7
-1.029, 6.460e-7
-1.030, 6.628e-7
-1.031, 6.855e-7
-1.032, 6.993e-7
-1.033, 7.052e-7
-1.034, 7.190e-7
-1.035, 7.220e-7
-1.036, 7.565e-7
-1.037, 7.240e-7
-1.038, 7.536e-7
-1.039, 7.693e-7
-1.040, 7.407e-7
-1.041, 7.950e-7
-1.042, 8.078e-7
-1.043, 8.177e-7
-1.044, 8.128e-7
-1.045, 8.108e-7
-1.046, 8.276e-7
-1.047, 8.453e-7
-1.048, 8.828e-7
-1.049, 8.384e-7
-1.050, 8.710e-7
-1.051, 8.868e-7
-1.052, 8.868e-7
-1.053, 8.877e-7
-1.054, 9.025e-7
-1.055, 8.897e-7
-1.056, 9.361e-7
-1.057, 9.331e-7
-1.058, 9.233e-7
-1.059, 9.154e-7
-1.060, 9.538e-7
-1.061, 9.292e-7
-1.062, 9.696e-7
-1.063, 9.686e-7
-1.064, 9.677e-7
-1.065, 9.805e-7
-1.066, 9.686e-7
-1.067, 1.010e-6
-1.068, 1.005e-6
-1.069, 1.013e-6
-1.070, 1.016e-6
-1.071, 1.029e-6
-1.072, 1.055e-6
-1.073, 1.039e-6
-1.074, 1.035e-6
-1.075, 1.057e-6
-1.076, 1.058e-6
-1.077, 1.090e-6
-1.078, 1.061e-6
-1.079, 1.060e-6
-1.080, 1.091e-6
-1.081, 1.082e-6
-1.082, 1.118e-6
-1.083, 1.116e-6
-1.084, 1.106e-6
-1.085, 1.117e-6
-1.086, 1.118e-6
-1.087, 1.135e-6
-1.088, 1.142e-6
-1.089, 1.131e-6
-1.090, 1.201e-6
-1.091, 1.144e-6
-1.092, 1.189e-6
-1.093, 1.186e-6
-1.094, 1.200e-6
-1.095, 1.200e-6
-1.096, 1.168e-6
-1.097, 1.195e-6
-1.098, 1.206e-6
-1.099, 1.217e-6
-1.100, 1.210e-6
-1.101, 1.215e-6
-1.102, 1.230e-6
-1.103, 1.239e-6
-1.104, 1.255e-6
-1.105, 1.264e-6
-1.106, 1.255e-6
-1.107, 1.265e-6
-1.108, 1.281e-6
-1.109, 1.270e-6
-1.110, 1.267e-6
-1.111, 1.268e-6
-1.112, 1.301e-6
-1.113, 1.307e-6
-1.114, 1.299e-6
-1.115, 1.274e-6
-1.116, 1.284e-6
-1.117, 1.324e-6
-1.118, 1.331e-6
-1.119, 1.313e-6
-1.120, 1.356e-6
-1.121, 1.318e-6
-1.122, 1.384e-6
-1.123, 1.358e-6
-1.124, 1.363e-6
-1.125, 1.356e-6
-1.126, 1.373e-6
-1.127, 1.388e-6
-1.128, 1.372e-6
-1.129, 1.404e-6
-1.130, 1.380e-6
-1.131, 1.399e-6
-1.132, 1.408e-6
-1.133, 1.403e-6
-1.134, 1.431e-6
-1.135, 1.433e-6
-1.136, 1.430e-6
-1.137, 1.425e-6
-1.138, 1.418e-6
-1.139, 1.448e-6
-1.140, 1.447e-6
-1.141, 1.457e-6
-1.142, 1.474e-6
-1.143, 1.450e-6
-1.144, 1.488e-6
-1.145, 1.479e-6
-1.146, 1.495e-6
-1.147, 1.488e-6
-1.148, 1.501e-6
-1.149, 1.502e-6
-1.150, 1.482e-6
-1.151, 1.516e-6
-1.152, 1.497e-6
-1.153, 1.538e-6
-1.154, 1.536e-6
-1.155, 1.541e-6
-1.156, 1.571e-6
-1.157, 1.519e-6
-1.158, 1.564e-6
-1.159, 1.600e-6
-1.160, 1.548e-6
-1.161, 1.591e-6
-1.162, 1.555e-6
-1.163, 1.604e-6
-1.164, 1.580e-6
-1.165, 1.603e-6
-1.166, 1.640e-6
-1.167, 1.607e-6
-1.168, 1.636e-6
-1.169, 1.623e-6
-1.170, 1.622e-6
-1.171, 1.654e-6
-1.172, 1.627e-6
-1.173, 1.622e-6
-1.174, 1.649e-6
-1.175, 1.642e-6
-1.176, 1.673e-6
-1.177, 1.654e-6
-1.178, 1.696e-6
-1.179, 1.684e-6
-1.180, 1.687e-6
-1.181, 1.710e-6
-1.182, 1.689e-6
-1.183, 1.731e-6
-1.184, 1.705e-6
-1.185, 1.704e-6
-1.186, 1.763e-6
-1.187, 1.726e-6
-1.188, 1.748e-6
-1.189, 1.735e-6
-1.190, 1.739e-6
-1.191, 1.775e-6
-1.192, 1.732e-6
-1.193, 1.786e-6
-1.194, 1.758e-6
-1.195, 1.782e-6
-1.196, 1.792e-6
-1.197, 1.781e-6
-1.198, 1.829e-6
-1.199, 1.806e-6
-1.200, 1.798e-6
-1.201, 1.834e-6
-1.202, 1.825e-6
-1.203, 1.856e-6
-1.204, 1.827e-6
-1.205, 1.833e-6
-1.206, 1.874e-6
-1.207, 1.873e-6
-1.208, 1.873e-6
-1.209, 1.862e-6
-1.210, 1.841e-6
-1.211, 1.891e-6
-1.212, 1.879e-6
-1.213, 1.895e-6
-1.214, 1.880e-6
-1.215, 1.903e-6
-1.216, 1.908e-6
-1.217, 1.908e-6
-1.218, 1.909e-6
-1.219, 1.937e-6
-1.220, 1.959e-6
-1.221, 1.951e-6
-1.222, 1.952e-6
-1.223, 1.918e-6
-1.224, 1.950e-6
-1.225, 1.993e-6
-1.226, 1.979e-6
-1.227, 1.990e-6
-1.228, 1.976e-6
-1.229, 2.003e-6
-1.230, 1.996e-6
-1.231, 2.016e-6
-1.232, 2.023e-6
-1.233, 2.030e-6
-1.234, 2.056e-6
-1.235, 2.025e-6
-1.236, 2.057e-6
-1.237, 2.051e-6
-1.238, 2.064e-6
-1.239, 2.089e-6
-1.240, 2.054e-6
-1.241, 2.075e-6
-1.242, 2.092e-6
-1.243, 2.100e-6
-1.244, 2.100e-6
-1.245, 2.085e-6
-1.246, 2.136e-6
-1.247, 2.139e-6
-1.248, 2.121e-6
-1.249, 2.142e-6
-1.250, 2.142e-6
-1.251, 2.167e-6
-1.252, 2.161e-6
-1.253, 2.175e-6
-1.254, 2.156e-6
-1.255, 2.182e-6
-1.256, 2.216e-6
-1.257, 2.178e-6
-1.258, 2.215e-6
-1.259, 2.229e-6
-1.260, 2.211e-6
-1.261, 2.230e-6
-1.262, 2.222e-6
-1.263, 2.244e-6
-1.264, 2.259e-6
-1.265, 2.259e-6
-1.266, 2.253e-6
-1.267, 2.236e-6
-1.268, 2.269e-6
-1.269, 2.244e-6
-1.270, 2.276e-6
-1.271, 2.295e-6
-1.272, 2.260e-6
-1.273, 2.306e-6
-1.274, 2.295e-6
-1.275, 2.296e-6
-1.276, 2.323e-6
-1.277, 2.300e-6
-1.278, 2.322e-6
-1.279, 2.324e-6
-1.280, 2.333e-6
-1.281, 2.321e-6
-1.282, 2.391e-6
-1.283, 2.385e-6
-1.284, 2.321e-6
-1.285, 2.394e-6
-1.286, 2.366e-6
-1.287, 2.385e-6
-1.288, 2.409e-6
-1.289, 2.384e-6
-1.290, 2.403e-6
-1.291, 2.422e-6
-1.292, 2.466e-6
-1.293, 2.449e-6
-1.294, 2.451e-6
-1.295, 2.419e-6
-1.296, 2.439e-6
-1.297, 2.459e-6
-1.298, 2.466e-6
-1.299, 2.482e-6
-1.300, 2.487e-6
-1.301, 2.466e-6
-1.302, 2.495e-6
-1.303, 2.545e-6
-1.304, 2.496e-6
-1.305, 2.513e-6
-1.306, 2.535e-6
-1.307, 2.540e-6
-1.308, 2.537e-6
-1.309, 2.529e-6
-1.310, 2.546e-6
-1.311, 2.540e-6
-1.312, 2.565e-6
-1.313, 2.591e-6
-1.314, 2.557e-6
-1.315, 2.578e-6
-1.316, 2.570e-6
-1.317, 2.584e-6
-1.318, 2.590e-6
-1.319, 2.584e-6
-1.320, 2.630e-6
-1.321, 2.603e-6
-1.322, 2.635e-6
-1.323, 2.631e-6
-1.324, 2.618e-6
-1.325, 2.648e-6
-1.326, 2.622e-6
-1.327, 2.656e-6
-1.328, 2.645e-6
-1.329, 2.659e-6
-1.330, 2.677e-6
-1.331, 2.662e-6
-1.332, 2.683e-6
-1.333, 2.662e-6
-1.334, 2.694e-6
-1.335, 2.692e-6
-1.336, 2.732e-6
-1.337, 2.748e-6
-1.338, 2.734e-6
-1.339, 2.746e-6
-1.340, 2.733e-6
-1.341, 2.762e-6
-1.342, 2.727e-6
-1.343, 2.787e-6
-1.344, 2.785e-6
-1.345, 2.731e-6
-1.346, 2.819e-6
-1.347, 2.776e-6
-1.348, 2.798e-6
-1.349, 2.817e-6
-1.350, 2.802e-6
-1.351, 2.819e-6
-1.352, 2.837e-6
-1.353, 2.861e-6
-1.354, 2.825e-6
-1.355, 2.840e-6
-1.356, 2.846e-6
-1.357, 2.837e-6
-1.358, 2.875e-6
-1.359, 2.821e-6
-1.360, 2.884e-6
-1.361, 2.851e-6
-1.362, 2.906e-6
-1.363, 2.912e-6
-1.364, 2.901e-6
-1.365, 2.942e-6
-1.366, 2.930e-6
-1.367, 2.958e-6
-1.368, 2.910e-6
-1.369, 2.925e-6
-1.370, 2.993e-6
-1.371, 2.962e-6
-1.372, 2.998e-6
-1.373, 2.994e-6
-1.374, 2.983e-6
-1.375, 2.985e-6
-1.376, 3.015e-6
-1.377, 3.032e-6
-1.378, 3.036e-6
-1.379, 3.043e-6
-1.380, 3.031e-6
-1.381, 3.035e-6
-1.382, 3.073e-6
-1.383, 3.046e-6
-1.384, 3.085e-6
-1.385, 3.037e-6
-1.386, 3.091e-6
-1.387, 3.068e-6
-1.388, 3.116e-6
-1.389, 3.107e-6
-1.390, 3.112e-6
-1.391, 3.146e-6
-1.392, 3.115e-6
-1.393, 3.152e-6
-1.394, 3.165e-6
-1.395, 3.167e-6
-1.396, 3.204e-6
-1.397, 3.202e-6
-1.398, 3.208e-6
-1.399, 3.190e-6
-1.400, 3.241e-6
-1.401, 3.224e-6
-1.402, 3.247e-6
-1.403, 3.258e-6
-1.404, 3.232e-6
-1.405, 3.305e-6
-1.406, 3.266e-6
-1.407, 3.296e-6
-1.408, 3.308e-6
-1.409, 3.343e-6
-1.410, 3.368e-6
-1.411, 3.347e-6
-1.412, 3.382e-6
-1.413, 3.379e-6
-1.414, 3.388e-6
-1.415, 3.408e-6
-1.416, 3.398e-6
-1.417, 3.413e-6
-1.418, 3.414e-6
-1.419, 3.476e-6
-1.420, 3.439e-6
-1.421, 3.479e-6
-1.422, 3.466e-6
-1.423, 3.491e-6
-1.424, 3.514e-6
-1.425, 3.488e-6
-1.426, 3.538e-6
-1.427, 3.554e-6
-1.428, 3.564e-6
-1.429, 3.575e-6
-1.430, 3.577e-6
-1.431, 3.613e-6
-1.432, 3.605e-6
-1.433, 3.623e-6
-1.434, 3.627e-6
-1.435, 3.667e-6
-1.436, 3.681e-6
-1.437, 3.706e-6
-1.438, 3.709e-6
-1.439, 3.703e-6
-1.440, 3.716e-6
-1.441, 3.771e-6
-1.442, 3.766e-6
-1.443, 3.792e-6
-1.444, 3.821e-6
-1.445, 3.830e-6
-1.446, 3.825e-6
-1.447, 3.866e-6
-1.448, 3.898e-6
-1.449, 3.861e-6
-1.450, 3.895e-6
-1.451, 3.903e-6
-1.452, 3.923e-6
-1.453, 3.915e-6
-1.454, 3.987e-6
-1.455, 3.996e-6
-1.456, 3.983e-6
-1.457, 4.045e-6
-1.458, 3.991e-6
-1.459, 4.058e-6
-1.460, 4.079e-6
-1.461, 4.073e-6
-1.462, 4.121e-6
-1.463, 4.088e-6
-1.464, 4.174e-6
-1.465, 4.149e-6
-1.466, 4.174e-6
-1.467, 4.218e-6
-1.468, 4.183e-6
-1.469, 4.264e-6
-1.470, 4.241e-6
-1.471, 4.269e-6
-1.472, 4.286e-6
-1.473, 4.293e-6
-1.474, 4.354e-6
-1.475, 4.306e-6
-1.476, 4.387e-6
-1.477, 4.408e-6
-1.478, 4.398e-6
-1.479, 4.435e-6
-1.480, 4.452e-6
-1.481, 4.526e-6
-1.482, 4.502e-6
-1.483, 4.499e-6
-1.484, 4.519e-6
-1.485, 4.576e-6
-1.486, 4.604e-6
-1.487, 4.620e-6
-1.488, 4.664e-6
-1.489, 4.634e-6
-1.490, 4.676e-6
-1.491, 4.689e-6
-1.492, 4.714e-6
-1.493, 4.760e-6
-1.494, 4.751e-6
-1.495, 4.818e-6
-1.496, 4.852e-6
-1.497, 4.877e-6
-1.498, 4.884e-6
-1.499, 4.908e-6
-1.500, 4.977e-6
-1.501, 4.940e-6
-1.502, 5.002e-6
-1.503, 5.032e-6
-1.504, 5.040e-6
-1.505, 5.093e-6
-1.506, 5.081e-6
-1.507, 5.119e-6
-1.508, 5.174e-6
-1.509, 5.211e-6
-1.510, 5.247e-6
-1.511, 5.258e-6
-1.512, 5.303e-6
-1.513, 5.269e-6
-1.514, 5.349e-6
-1.515, 5.315e-6
-1.516, 5.415e-6
-1.517, 5.436e-6
-1.518, 5.405e-6
-1.519, 5.484e-6
-1.520, 5.504e-6
-1.521, 5.599e-6
-1.522, 5.599e-6
-1.523, 5.621e-6
-1.524, 5.649e-6
-1.525, 5.650e-6
-1.526, 5.741e-6
-1.527, 5.742e-6
-1.528, 5.771e-6
-1.529, 5.823e-6
-1.530, 5.856e-6
-1.531, 5.935e-6
-1.532, 5.905e-6
-1.533, 5.980e-6
-1.534, 5.990e-6
-1.535, 6.048e-6
-1.536, 6.117e-6
-1.537, 6.173e-6
-1.538, 6.196e-6
-1.539, 6.239e-6
-1.540, 6.295e-6
-1.541, 6.316e-6
-1.542, 6.338e-6
-1.543, 6.405e-6
-1.544, 6.424e-6
-1.545, 6.489e-6
-1.546, 6.508e-6
-1.547, 6.588e-6
-1.548, 6.606e-6
-1.549, 6.677e-6
-1.550, 6.714e-6
-1.551, 6.749e-6
-1.552, 6.801e-6
-1.553, 6.839e-6
-1.554, 6.907e-6
-1.555, 6.998e-6
-1.556, 7.041e-6
-1.557, 7.149e-6
-1.558, 7.111e-6
-1.559, 7.206e-6
-1.560, 7.258e-6
-1.561, 7.319e-6
-1.562, 7.416e-6
-1.563, 7.471e-6
-1.564, 7.526e-6
-1.565, 7.605e-6
-1.566, 7.649e-6
-1.567, 7.742e-6
-1.568, 7.770e-6
-1.569, 7.867e-6
-1.570, 7.957e-6
-1.571, 8.021e-6
-1.572, 8.118e-6
-1.573, 8.142e-6
-1.574, 8.217e-6
-1.575, 8.295e-6
-1.576, 8.401e-6
-1.577, 8.440e-6
-1.578, 8.504e-6
-1.579, 8.616e-6
-1.580, 8.693e-6
-1.581, 8.827e-6
-1.582, 8.875e-6
-1.583, 8.994e-6
-1.584, 9.106e-6
-1.585, 9.158e-6
-1.586, 9.312e-6
-1.587, 9.387e-6
-1.588, 9.460e-6
-1.589, 9.620e-6
-1.590, 9.705e-6
-1.591, 9.828e-6
-1.592, 9.958e-6
-1.593, 1.001e-5
-1.594, 1.021e-5
-1.595, 1.031e-5
-1.596, 1.047e-5
-1.597, 1.051e-5
-1.598, 1.067e-5
-1.599, 1.081e-5
-1.600, 1.098e-5
-1.601, 1.112e-5
-1.602, 1.124e-5
-1.603, 1.140e-5
-1.604, 1.160e-5
-1.605, 1.175e-5
-1.606, 1.190e-5
-1.607, 1.207e-5
-1.608, 1.226e-5
-1.609, 1.240e-5
-1.610, 1.261e-5
-1.611, 1.278e-5
-1.612, 1.299e-5
-1.613, 1.321e-5
-1.614, 1.338e-5
-1.615, 1.357e-5
-1.616, 1.382e-5
-1.617, 1.405e-5
-1.618, 1.428e-5
-1.619, 1.452e-5
-1.620, 1.473e-5
-1.621, 1.498e-5
-1.622, 1.525e-5
-1.623, 1.550e-5
-1.624, 1.575e-5
-1.625, 1.605e-5
-1.626, 1.634e-5
-1.627, 1.665e-5
-1.628, 1.698e-5
-1.629, 1.722e-5
-1.630, 1.758e-5
-1.631, 1.788e-5
-1.632, 1.832e-5
-1.633, 1.859e-5
-1.634, 1.892e-5
-1.635, 1.932e-5
-1.636, 1.973e-5
-1.637, 2.013e-5
-1.638, 2.051e-5
-1.639, 2.095e-5
-1.640, 2.139e-5
-1.641, 2.183e-5
-1.642, 2.235e-5
-1.643, 2.279e-5
-1.644, 2.332e-5
-1.645, 2.380e-5
-1.646, 2.430e-5
-1.647, 2.486e-5
-1.648, 2.539e-5
-1.649, 2.596e-5
-1.650, 2.659e-5
-1.651, 2.719e-5
-1.652, 2.785e-5
-1.653, 2.844e-5
-1.654, 2.911e-5
-1.655, 2.979e-5
-1.656, 3.059e-5
-1.657, 3.129e-5
-1.658, 3.205e-5
-1.659, 3.285e-5
-1.660, 3.365e-5
-1.661, 3.452e-5
-1.662, 3.536e-5
-1.663, 3.624e-5
-1.664, 3.723e-5
-1.665, 3.818e-5
-1.666, 3.914e-5
-1.667, 4.016e-5
-1.668, 4.119e-5
-1.669, 4.231e-5
-1.670, 4.350e-5
-1.671, 4.465e-5
-1.672, 4.582e-5
-1.673, 4.714e-5
-1.674, 4.843e-5
-1.675, 4.979e-5
-1.676, 5.115e-5
-1.677, 5.262e-5
-1.678, 5.407e-5
-1.679, 5.567e-5
-1.680, 5.721e-5
-1.681, 5.891e-5
-1.682, 6.059e-5
-1.683, 6.228e-5
-1.684, 6.411e-5
-1.685, 6.599e-5
-1.686, 6.798e-5
-1.687, 7.000e-5
-1.688, 7.209e-5
-1.689, 7.425e-5
-1.690, 7.654e-5
-1.691, 7.888e-5
-1.692, 8.129e-5
-1.693, 8.378e-5
-1.694, 8.630e-5
-1.695, 8.899e-5
-1.696, 9.177e-5
-1.697, 9.465e-5
-1.698, 9.754e-5
-1.699, 1.006e-4
-1.700, 1.038e-4
-1.701, 1.071e-4
-1.702, 1.105e-4
-1.703, 1.140e-4
-1.704, 1.176e-4
-1.705, 1.214e-4
-1.706, 1.253e-4
-1.707, 1.294e-4
-1.708, 1.336e-4
-1.709, 1.379e-4
-1.710, 1.424e-4
-1.711, 1.470e-4
-1.712, 1.519e-4
-1.713, 1.568e-4
-1.714, 1.620e-4
-1.715, 1.674e-4
-1.716, 1.729e-4
-1.717, 1.787e-4
-1.718, 1.845e-4
-1.719, 1.907e-4
-1.720, 1.972e-4
-1.721, 2.037e-4
-1.722, 2.106e-4
-1.723, 2.175e-4
-1.724, 2.249e-4
-1.725, 2.324e-4
-1.726, 2.402e-4
-1.727, 2.483e-4
-1.728, 2.565e-4
-1.729, 2.652e-4
-1.730, 2.741e-4
-1.731, 2.834e-4
-1.732, 2.929e-4
-1.733, 3.027e-4
-1.734, 3.130e-4
-1.735, 3.235e-4
-1.736, 3.345e-4
-1.737, 3.458e-4
-1.738, 3.574e-4
-1.739, 3.693e-4
-1.740, 3.817e-4
-1.741, 3.945e-4
-1.742, 4.078e-4
-1.743, 4.216e-4
-1.744, 4.356e-4
-1.745, 4.501e-4
-1.746, 4.650e-4
-1.747, 4.803e-4
-1.748, 4.960e-4
-1.749, 5.122e-4
-1.750, 5.291e-4
-1.751, 5.465e-4
-1.752, 5.643e-4
-1.753, 5.827e-4
-1.754, 6.016e-4
-1.755, 6.213e-4
-1.756, 6.411e-4
-1.757, 6.616e-4
-1.758, 6.830e-4
-1.759, 7.048e-4
-1.760, 7.268e-4
-1.761, 7.495e-4
-1.762, 7.731e-4
-1.763, 7.971e-4
-1.764, 8.215e-4
-1.765, 8.470e-4
-1.766, 8.734e-4
-1.767, 9.000e-4
-1.768, 9.265e-4
-1.769, 9.541e-4
-1.770, 9.831e-4
-1.771, 1.012e-3
-1.772, 1.043e-3
-1.773, 1.074e-3
-1.774, 1.105e-3
-1.775, 1.136e-3
-1.776, 1.168e-3
-1.777, 1.201e-3
-1.778, 1.235e-3
-1.779, 1.268e-3
-1.780, 1.302e-3
-1.781, 1.339e-3
-1.782, 1.376e-3
-1.783, 1.414e-3
-1.784, 1.453e-3
-1.785, 1.491e-3
-1.786, 1.530e-3
-1.787, 1.568e-3
-1.788, 1.608e-3
-1.789, 1.646e-3
-1.790, 1.686e-3
-1.791, 1.729e-3
-1.792, 1.772e-3
-1.793, 1.817e-3
-1.794, 1.861e-3
-1.795, 1.907e-3
-1.796, 1.953e-3
-1.797, 1.997e-3
-1.798, 2.043e-3
-1.799, 2.089e-3
-1.800, 2.136e-3
-1.801, 2.184e-3
-1.802, 2.234e-3
-1.803, 2.283e-3
-1.804, 2.332e-3
-1.805, 2.383e-3
-1.806, 2.434e-3
-1.807, 2.485e-3
-1.808, 2.533e-3
-1.809, 2.585e-3
-1.810, 2.639e-3
-1.811, 2.695e-3
-1.812, 2.751e-3
-1.813, 2.806e-3
-1.814, 2.861e-3
-1.815, 2.914e-3
-1.816, 2.967e-3
-1.817, 3.023e-3
-1.818, 3.078e-3
-1.819, 3.132e-3
-1.820, 3.183e-3
-1.821, 3.244e-3
-1.822, 3.303e-3
-1.823, 3.364e-3
-1.824, 3.426e-3
-1.825, 3.481e-3
-1.826, 3.541e-3
-1.827, 3.600e-3
-1.828, 3.652e-3
-1.829, 3.711e-3
-1.830, 3.778e-3
-1.831, 3.842e-3
-1.832, 3.906e-3
-1.833, 3.968e-3
-1.834, 4.026e-3
-1.835, 4.086e-3
-1.836, 4.147e-3
-1.837, 4.205e-3
-1.838, 4.267e-3
-1.839, 4.331e-3
-1.840, 4.388e-3
-1.841, 4.454e-3
-1.842, 4.524e-3
-1.843, 4.591e-3
-1.844, 4.661e-3
-1.845, 4.723e-3
-1.846, 4.782e-3
-1.847, 4.837e-3
-1.848, 4.889e-3
-1.849, 4.956e-3
-1.850, 5.023e-3
-1.851, 5.089e-3
-1.852, 5.153e-3
-1.853, 5.213e-3
-1.854, 5.280e-3
-1.855, 5.345e-3
-1.856, 5.408e-3
-1.857, 5.466e-3
-1.858, 5.530e-3
-1.859, 5.592e-3
-1.860, 5.649e-3
-1.861, 5.721e-3
-1.862, 5.801e-3
-1.863, 5.866e-3
-1.864, 5.921e-3
-1.865, 5.981e-3
-1.866, 6.044e-3
-1.867, 6.106e-3
-1.868, 6.166e-3
-1.869, 6.238e-3
-1.870, 6.312e-3
-1.871, 6.380e-3
-1.872, 6.444e-3
-1.873, 6.498e-3
-1.874, 6.550e-3
-1.875, 6.612e-3
-1.876, 6.674e-3
-1.877, 6.739e-3
-1.878, 6.808e-3
-1.879, 6.873e-3
-1.880, 6.931e-3
-1.881, 6.998e-3
-1.882, 7.081e-3
-1.883, 7.147e-3
-1.884, 7.207e-3
-1.885, 7.260e-3
-1.886, 7.311e-3
-1.887, 7.382e-3
-1.888, 7.458e-3
-1.889, 7.538e-3
-1.890, 7.609e-3
-1.891, 7.687e-3
-1.892, 7.738e-3
-1.893, 7.794e-3
-1.894, 7.845e-3
-1.895, 7.920e-3
-1.896, 7.964e-3
-1.897, 8.020e-3
-1.898, 8.075e-3
-1.899, 8.149e-3
-1.900, 8.144e-3
-1.899, 8.088e-3
-1.898, 8.054e-3
-1.897, 8.014e-3
-1.896, 7.961e-3
-1.895, 7.901e-3
-1.894, 7.856e-3
-1.893, 7.799e-3
-1.892, 7.733e-3
-1.891, 7.656e-3
-1.890, 7.613e-3
-1.889, 7.564e-3
-1.888, 7.513e-3
-1.887, 7.465e-3
-1.886, 7.416e-3
-1.885, 7.361e-3
-1.884, 7.301e-3
-1.883, 7.244e-3
-1.882, 7.185e-3
-1.881, 7.129e-3
-1.880, 7.076e-3
-1.879, 7.024e-3
-1.878, 6.978e-3
-1.877, 6.934e-3
-1.876, 6.862e-3
-1.875, 6.792e-3
-1.874, 6.730e-3
-1.873, 6.675e-3
-1.872, 6.630e-3
-1.871, 6.591e-3
-1.870, 6.546e-3
-1.869, 6.496e-3
-1.868, 6.442e-3
-1.867, 6.384e-3
-1.866, 6.319e-3
-1.865, 6.239e-3
-1.864, 6.186e-3
-1.863, 6.145e-3
-1.862, 6.106e-3
-1.861, 6.077e-3
-1.860, 6.038e-3
-1.859, 5.986e-3
-1.858, 5.928e-3
-1.857, 5.868e-3
-1.856, 5.812e-3
-1.855, 5.742e-3
-1.854, 5.685e-3
-1.853, 5.624e-3
-1.852, 5.571e-3
-1.851, 5.537e-3
-1.850, 5.517e-3
-1.849, 5.472e-3
-1.848, 5.426e-3
-1.847, 5.373e-3
-1.846, 5.318e-3
-1.845, 5.268e-3
-1.844, 5.216e-3
-1.843, 5.157e-3
-1.842, 5.110e-3
-1.841, 5.070e-3
-1.840, 5.024e-3
-1.839, 4.976e-3
-1.838, 4.930e-3
-1.837, 4.882e-3
-1.836, 4.834e-3
-1.835, 4.783e-3
-1.834, 4.738e-3
-1.833, 4.695e-3
-1.832, 4.647e-3
-1.831, 4.600e-3
-1.830, 4.547e-3
-1.829, 4.498e-3
-1.828, 4.452e-3
-1.827, 4.408e-3
-1.826, 4.354e-3
-1.825, 4.306e-3
-1.824, 4.266e-3
-1.823, 4.224e-3
-1.822, 4.184e-3
-1.821, 4.152e-3
-1.820, 4.130e-3
-1.819, 4.092e-3
-1.818, 4.051e-3
-1.817, 4.012e-3
-1.816, 3.966e-3
-1.815, 3.916e-3
-1.814, 3.868e-3
-1.813, 3.834e-3
-1.812, 3.790e-3
-1.811, 3.749e-3
-1.810, 3.716e-3
-1.809, 3.667e-3
-1.808, 3.625e-3
-1.807, 3.591e-3
-1.806, 3.553e-3
-1.805, 3.508e-3
-1.804, 3.466e-3
-1.803, 3.422e-3
-1.802, 3.382e-3
-1.801, 3.348e-3
-1.800, 3.310e-3
-1.799, 3.269e-3
-1.798, 3.234e-3
-1.797, 3.195e-3
-1.796, 3.154e-3
-1.795, 3.115e-3
-1.794, 3.078e-3
-1.793, 3.041e-3
-1.792, 3.005e-3
-1.791, 2.973e-3
-1.790, 2.939e-3
-1.789, 2.898e-3
-1.788, 2.856e-3
-1.787, 2.818e-3
-1.786, 2.785e-3
-1.785, 2.751e-3
-1.784, 2.714e-3
-1.783, 2.679e-3
-1.782, 2.649e-3
-1.781, 2.616e-3
-1.780, 2.581e-3
-1.779, 2.542e-3
-1.778, 2.523e-3
-1.777, 2.498e-3
-1.776, 2.464e-3
-1.775, 2.436e-3
-1.774, 2.405e-3
-1.773, 2.374e-3
-1.772, 2.341e-3
-1.771, 2.308e-3
-1.770, 2.277e-3
-1.769, 2.248e-3
-1.768, 2.214e-3
-1.767, 2.185e-3
-1.766, 2.155e-3
-1.765, 2.129e-3
-1.764, 2.102e-3
-1.763, 2.072e-3
-1.762, 2.041e-3
-1.761, 2.010e-3
-1.760, 1.981e-3
-1.759, 1.953e-3
-1.758, 1.925e-3
-1.757, 1.897e-3
-1.756, 1.871e-3
-1.755, 1.846e-3
-1.754, 1.820e-3
-1.753, 1.792e-3
-1.752, 1.766e-3
-1.751, 1.739e-3
-1.750, 1.711e-3
-1.749, 1.684e-3
-1.748, 1.659e-3
-1.747, 1.635e-3
-1.746, 1.610e-3
-1.745, 1.584e-3
-1.744, 1.561e-3
-1.743, 1.537e-3
-1.742, 1.515e-3
-1.741, 1.491e-3
-1.740, 1.468e-3
-1.739, 1.444e-3
-1.738, 1.421e-3
-1.737, 1.398e-3
-1.736, 1.376e-3
-1.735, 1.356e-3
-1.734, 1.335e-3
-1.733, 1.314e-3
-1.732, 1.292e-3
-1.731, 1.270e-3
-1.730, 1.247e-3
-1.729, 1.224e-3
-1.728, 1.203e-3
-1.727, 1.184e-3
-1.726, 1.163e-3
-1.725, 1.144e-3
-1.724, 1.125e-3
-1.723, 1.106e-3
-1.722, 1.088e-3
-1.721, 1.069e-3
-1.720, 1.051e-3
-1.719, 1.033e-3
-1.718, 1.015e-3
-1.717, 9.977e-4
-1.716, 9.801e-4
-1.715, 9.626e-4
-1.714, 9.450e-4
-1.713, 9.273e-4
-1.712, 9.107e-4
-1.711, 8.942e-4
-1.710, 8.776e-4
-1.709, 8.619e-4
-1.708, 8.461e-4
-1.707, 8.310e-4
-1.706, 8.152e-4
-1.705, 7.999e-4
-1.704, 7.851e-4
-1.703, 7.701e-4
-1.702, 7.560e-4
-1.701, 7.420e-4
-1.700, 7.287e-4
-1.699, 7.149e-4
-1.698, 7.010e-4
-1.697, 6.874e-4
-1.696, 6.741e-4
-1.695, 6.611e-4
-1.694, 6.484e-4
-1.693, 6.359e-4
-1.692, 6.235e-4
-1.691, 6.115e-4
-1.690, 5.996e-4
-1.689, 5.876e-4
-1.688, 5.760e-4
-1.687, 5.644e-4
-1.686, 5.530e-4
-1.685, 5.417e-4
-1.684, 5.308e-4
-1.683, 5.202e-4
-1.682, 5.098e-4
-1.681, 4.995e-4
-1.680, 4.894e-4
-1.679, 4.794e-4
-1.678, 4.694e-4
-1.677, 4.594e-4
-1.676, 4.494e-4
-1.675, 4.398e-4
-1.674, 4.306e-4
-1.673, 4.215e-4
-1.672, 4.127e-4
-1.671, 4.038e-4
-1.670, 3.953e-4
-1.669, 3.873e-4
-1.668, 3.790e-4
-1.667, 3.710e-4
-1.666, 3.631e-4
-1.665, 3.551e-4
-1.664, 3.474e-4
-1.663, 3.398e-4
-1.662, 3.323e-4
-1.661, 3.250e-4
-1.660, 3.178e-4
-1.659, 3.108e-4
-1.658, 3.038e-4
-1.657, 2.972e-4
-1.656, 2.906e-4
-1.655, 2.841e-4
-1.654, 2.778e-4
-1.653, 2.716e-4
-1.652, 2.655e-4
-1.651, 2.596e-4
-1.650, 2.538e-4
-1.649, 2.480e-4
-1.648, 2.424e-4
-1.647, 2.369e-4
-1.646, 2.315e-4
-1.645, 2.262e-4
-1.644, 2.210e-4
-1.643, 2.159e-4
-1.642, 2.108e-4
-1.641, 2.061e-4
-1.640, 2.014e-4
-1.639, 1.966e-4
-1.638, 1.920e-4
-1.637, 1.876e-4
-1.636, 1.832e-4
-1.635, 1.789e-4
-1.634, 1.748e-4
-1.633, 1.707e-4
-1.632, 1.667e-4
-1.631, 1.627e-4
-1.630, 1.588e-4
-1.629, 1.550e-4
-1.628, 1.514e-4
-1.627, 1.478e-4
-1.626, 1.443e-4
-1.625, 1.409e-4
-1.624, 1.376e-4
-1.623, 1.343e-4
-1.622, 1.311e-4
-1.621, 1.279e-4
-1.620, 1.248e-4
-1.619, 1.218e-4
-1.618, 1.189e-4
-1.617, 1.160e-4
-1.616, 1.132e-4
-1.615, 1.105e-4
-1.614, 1.078e-4
-1.613, 1.052e-4
-1.612, 1.026e-4
-1.611, 1.001e-4
-1.610, 9.764e-5
-1.609, 9.526e-5
-1.608, 9.292e-5
-1.607, 9.067e-5
-1.606, 8.851e-5
-1.605, 8.637e-5
-1.604, 8.424e-5
-1.603, 8.224e-5
-1.602, 8.015e-5
-1.601, 7.819e-5
-1.600, 7.628e-5
-1.599, 7.435e-5
-1.598, 7.251e-5
-1.597, 7.076e-5
-1.596, 6.899e-5
-1.595, 6.732e-5
-1.594, 6.569e-5
-1.593, 6.403e-5
-1.592, 6.248e-5
-1.591, 6.090e-5
-1.590, 5.945e-5
-1.589, 5.798e-5
-1.588, 5.655e-5
-1.587, 5.514e-5
-1.586, 5.379e-5
-1.585, 5.249e-5
-1.584, 5.119e-5
-1.583, 4.994e-5
-1.582, 4.871e-5
-1.581, 4.750e-5
-1.580, 4.633e-5
-1.579, 4.521e-5
-1.578, 4.408e-5
-1.577, 4.298e-5
-1.576, 4.194e-5
-1.575, 4.093e-5
-1.574, 3.990e-5
-1.573, 3.893e-5
-1.572, 3.797e-5
-1.571, 3.706e-5
-1.570, 3.619e-5
-1.569, 3.527e-5
-1.568, 3.443e-5
-1.567, 3.358e-5
-1.566, 3.274e-5
-1.565, 3.196e-5
-1.564, 3.119e-5
-1.563, 3.041e-5
-1.562, 2.967e-5
-1.561, 2.896e-5
-1.560, 2.827e-5
-1.559, 2.760e-5
-1.558, 2.693e-5
-1.557, 2.626e-5
-1.556, 2.564e-5
-1.555, 2.500e-5
-1.554, 2.441e-5
-1.553, 2.386e-5
-1.552, 2.324e-5
-1.551, 2.269e-5
-1.550, 2.216e-5
-1.549, 2.165e-5
-1.548, 2.112e-5
-1.547, 2.060e-5
-1.546, 2.015e-5
-1.545, 1.964e-5
-1.544, 1.917e-5
-1.543, 1.871e-5
-1.542, 1.830e-5
-1.541, 1.790e-5
-1.540, 1.744e-5
-1.539, 1.705e-5
-1.538, 1.666e-5
-1.537, 1.623e-5
-1.536, 1.589e-5
-1.535, 1.549e-5
-1.534, 1.516e-5
-1.533, 1.477e-5
-1.532, 1.444e-5
-1.531, 1.413e-5
-1.530, 1.382e-5
-1.529, 1.350e-5
-1.528, 1.316e-5
-1.527, 1.287e-5
-1.526, 1.259e-5
-1.525, 1.229e-5
-1.524, 1.201e-5
-1.523, 1.171e-5
-1.522, 1.145e-5
-1.521, 1.122e-5
-1.520, 1.095e-5
-1.519, 1.073e-5
-1.518, 1.049e-5
-1.517, 1.022e-5
-1.516, 1.005e-5
-1.515, 9.784e-6
-1.514, 9.561e-6
-1.513, 9.362e-6
-1.512, 9.151e-6
-1.511, 8.960e-6
-1.510, 8.755e-6
-1.509, 8.599e-6
-1.508, 8.400e-6
-1.507, 8.229e-6
-1.506, 8.027e-6
-1.505, 7.844e-6
-1.504, 7.746e-6
-1.503, 7.540e-6
-1.502, 7.410e-6
-1.501, 7.240e-6
-1.500, 7.097e-6
-1.499, 6.947e-6
-1.498, 6.794e-6
-1.497, 6.649e-6
-1.496, 6.490e-6
-1.495, 6.405e-6
-1.494, 6.257e-6
-1.493, 6.121e-6
-1.492, 5.981e-6
-1.491, 5.852e-6
-1.490, 5.771e-6
-1.489, 5.625e-6
-1.488, 5.507e-6
-1.487, 5.417e-6
-1.486, 5.308e-6
-1.485, 5.184e-6
-1.484, 5.078e-6
-1.483, 4.961e-6
-1.482, 4.896e-6
-1.481, 4.763e-6
-1.480, 4.708e-6
-1.479, 4.590e-6
-1.478, 4.482e-6
-1.477, 4.387e-6
-1.476, 4.321e-6
-1.475, 4.233e-6
-1.474, 4.140e-6
-1.473, 4.078e-6
-1.472, 3.973e-6
-1.471, 3.897e-6
-1.470, 3.814e-6
-1.469, 3.728e-6
-1.468, 3.658e-6
-1.467, 3.592e-6
-1.466, 3.532e-6
-1.465, 3.477e-6
-1.464, 3.379e-6
-1.463, 3.318e-6
-1.462, 3.234e-6
-1.461, 3.171e-6
-1.460, 3.131e-6
-1.459, 3.077e-6
-1.458, 3.025e-6
-1.457, 2.940e-6
-1.456, 2.908e-6
-1.455, 2.844e-6
-1.454, 2.785e-6
-1.453, 2.757e-6
-1.452, 2.673e-6
-1.451, 2.636e-6
-1.450, 2.565e-6
-1.449, 2.533e-6
-1.448, 2.482e-6
-1.447, 2.412e-6
-1.446, 2.400e-6
-1.445, 2.324e-6
-1.444, 2.302e-6
-1.443, 2.242e-6
-1.442, 2.190e-6
-1.441, 2.190e-6
-1.440, 2.144e-6
-1.439, 2.089e-6
-1.438, 2.063e-6
-1.437, 2.020e-6
-1.436, 2.003e-6
-1.435, 1.977e-6
-1.434, 1.933e-6
-1.433, 1.867e-6
-1.432, 1.815e-6
-1.431, 1.825e-6
-1.430, 1.713e-6
-1.429, 1.759e-6
-1.428, 1.660e-6
-1.427, 1.638e-6
-1.426, 1.631e-6
-1.425, 1.580e-6
-1.424, 1.587e-6
-1.423, 1.533e-6
-1.422, 1.479e-6
-1.421, 1.474e-6
-1.420, 1.425e-6
-1.419, 1.432e-6
-1.418, 1.402e-6
-1.417, 1.347e-6
-1.416, 1.362e-6
-1.415, 1.311e-6
-1.414, 1.307e-6
-1.413, 1.255e-6
-1.412, 1.241e-6
-1.411, 1.204e-6
-1.410, 1.200e-6
-1.409, 1.180e-6
-1.408, 1.141e-6
-1.407, 1.123e-6
-1.406, 1.110e-6
-1.405, 1.093e-6
-1.404, 1.073e-6
-1.403, 1.026e-6
-1.402, 1.010e-6
-1.401, 9.913e-7
-1.400, 9.755e-7
-1.399, 9.598e-7
-1.398, 9.104e-7
-1.397, 9.568e-7
-1.396, 9.233e-7
-1.395, 9.104e-7
-1.394, 8.848e-7
-1.393, 8.305e-7
-1.392, 8.364e-7
-1.391, 8.305e-7
-1.390, 8.187e-7
-1.389, 7.871e-7
-1.388, 7.881e-7
-1.387, 7.713e-7
-1.386, 7.585e-7
-1.385, 7.397e-7
-1.384, 7.023e-7
-1.383, 6.894e-7
-1.382, 6.658e-7
-1.381, 6.598e-7
-1.380, 6.569e-7
-1.379, 6.381e-7
-1.378, 5.987e-7
-1.377, 6.450e-7
-1.376, 5.779e-7
-1.375, 5.888e-7
-1.374, 5.829e-7
-1.373, 5.622e-7
-1.372, 5.582e-7
-1.371, 5.375e-7
-1.370, 5.316e-7
-1.369, 5.266e-7
-1.368, 4.822e-7
-1.367, 5.069e-7
-1.366, 4.714e-7
-1.365, 4.625e-7
-1.364, 4.536e-7
-1.363, 4.092e-7
-1.362, 4.428e-7
-1.361, 4.053e-7
-1.360, 4.260e-7
-1.359, 3.629e-7
-1.358, 3.737e-7
-1.357, 3.796e-7
-1.356, 3.589e-7
-1.355, 3.254e-7
-1.354, 3.333e-7
-1.353, 3.471e-7
-1.352, 3.224e-7
-1.351, 3.047e-7
-1.350, 2.691e-7
-1.349, 2.810e-7
-1.348, 2.652e-7
-1.347, 2.899e-7
-1.346, 2.395e-7
-1.345, 2.780e-7
-1.344, 2.336e-7
-1.343, 2.070e-7
-1.342, 2.099e-7
-1.341, 1.873e-7
-1.340, 2.070e-7
-1.339, 1.803e-7
-1.338, 1.626e-7
-1.337, 1.586e-7
-1.336, 1.577e-7
-1.335, 1.438e-7
-1.334, 1.162e-7
-1.333, 1.300e-7
-1.332, 1.152e-7
-1.331, 7.873e-8
-1.330, 1.044e-7
-1.329, 9.945e-8
-1.328, 9.550e-8
-1.327, 6.985e-8
-1.326, 5.111e-8
-1.325, 6.985e-8
-1.324, 4.815e-8
-1.323, 4.519e-8
-1.322, 2.249e-8
-1.321, 1.362e-8
-1.320, 2.841e-8
-1.319, -5.130e-9
-1.318, -1.894e-8
-1.317, -2.881e-8
-1.316, -3.867e-8
-1.315, -4.657e-8
-1.314, -6.729e-8
-1.313, -6.137e-8
-1.312, -5.643e-8
-1.311, -6.729e-8
-1.310, -9.491e-8
-1.309, -8.307e-8
-1.308, -6.630e-8
-1.307, -1.137e-7
-1.306, -8.702e-8
-1.305, -1.304e-7
-1.304, -1.393e-7
-1.303, -1.206e-7
-1.302, -1.561e-7
-1.301, -1.472e-7
-1.300, -1.758e-7
-1.299, -1.659e-7
-1.298, -1.719e-7
-1.297, -1.679e-7
-1.296, -1.541e-7
-1.295, -1.877e-7
-1.294, -1.827e-7
-1.293, -2.064e-7
-1.292, -2.409e-7
-1.291, -2.232e-7
-1.290, -2.370e-7
-1.289, -2.222e-7
-1.288, -2.439e-7
-1.287, -2.676e-7
-1.286, -2.656e-7
-1.285, -2.824e-7
-1.284, -2.656e-7
-1.283, -3.070e-7
-1.282, -2.735e-7
-1.281, -3.120e-7
-1.280, -3.356e-7
-1.279, -2.745e-7
-1.278, -3.307e-7
-1.277, -3.238e-7
-1.276, -3.139e-7
-1.275, -3.554e-7
-1.274, -3.100e-7
-1.273, -3.860e-7
-1.272, -3.593e-7
-1.271, -3.702e-7
-1.270, -3.495e-7
-1.269, -3.850e-7
-1.268, -4.175e-7
-1.267, -3.741e-7
-1.266, -4.185e-7
-1.265, -4.452e-7
-1.264, -4.008e-7
-1.263, -4.471e-7
-1.262, -4.304e-7
-1.261, -4.550e-7
-1.260, -4.333e-7
-1.259, -4.284e-7
-1.258, -4.560e-7
-1.257, -4.461e-7
-1.256, -4.688e-7
-1.255, -4.333e-7
-1.254, -4.777e-7
-1.253, -5.073e-7
-1.252, -4.728e-7
-1.251, -5.053e-7
-1.250, -4.886e-7
-1.249, -5.093e-7
-1.248, -5.389e-7
-1.247, -4.955e-7
-1.246, -5.261e-7
-1.245, -5.004e-7
-1.244, -5.241e-7
-1.243, -5.320e-7
-1.242, -5.122e-7
-1.241, -5.576e-7
-1.240, -5.320e-7
-1.239, -5.675e-7
-1.238, -5.695e-7
-1.237, -5.606e-7
-1.236, -5.833e-7
-1.235, -5.527e-7
-1.234, -5.852e-7
-1.233, -5.912e-7
-1.232, -5.852e-7
-1.231, -5.941e-7
-1.230, -5.951e-7
-1.229, -6.218e-7
-1.228, -6.346e-7
-1.227, -6.198e-7
-1.226, -6.435e-7
-1.225, -6.188e-7
-1.224, -6.277e-7
-1.223, -6.474e-7
-1.222, -6.504e-7
-1.221, -6.731e-7
-1.220, -6.454e-7
-1.219, -6.632e-7
-1.218, -6.918e-7
-1.217, -6.780e-7
-1.216, -7.036e-7
-1.215, -7.056e-7
-1.214, -7.175e-7
-1.213, -7.135e-7
-1.212, -6.967e-7
-1.211, -7.510e-7
-1.210, -7.480e-7
-1.209, -7.589e-7
-1.208, -7.609e-7
-1.207, -7.273e-7
-1.206, -7.579e-7
-1.205, -7.569e-7
-1.204, -7.688e-7
-1.203, -7.984e-7
-1.202, -7.836e-7
-1.201, -7.954e-7
-1.200, -7.658e-7
-1.199, -8.161e-7
-1.198, -8.122e-7
-1.197, -8.013e-7
-1.196, -8.191e-7
-1.195, -7.796e-7
-1.194, -8.033e-7
-1.193, -8.141e-7
-1.192, -7.905e-7
-1.191, -8.605e-7
-1.190, -8.260e-7
-1.189, -8.299e-7
-1.188, -8.289e-7
-1.187, -8.210e-7
-1.186, -8.654e-7
-1.185, -8.349e-7
-1.184, -8.733e-7
-1.183, -8.802e-7
-1.182, -8.723e-7
-1.181, -8.802e-7
-1.180, -8.684e-7
-1.179, -8.941e-7
-1.178, -9.207e-7
-1.177, -9.177e-7
-1.176, -9.335e-7
-1.175, -9.138e-7
-1.174, -9.256e-7
-1.173, -9.592e-7
-1.172, -9.384e-7
-1.171, -9.621e-7
-1.170, -9.592e-7
-1.169, -9.759e-7
-1.168, -9.937e-7
-1.167, -9.868e-7
-1.166, -1.016e-6
-1.165, -9.809e-7
-1.164, -1.013e-6
-1.163, -1.032e-6
-1.162, -1.019e-6
-1.161, -1.045e-6
-1.160, -1.007e-6
-1.159, -1.054e-6
-1.158, -1.057e-6
-1.157, -1.037e-6
-1.156, -1.073e-6
-1.155, -1.076e-6
-1.154, -1.094e-6
-1.153, -1.110e-6
-1.152, -1.098e-6
-1.151, -1.112e-6
-1.150, -1.089e-6
-1.149, -1.118e-6
-1.148, -1.131e-6
-1.147, -1.125e-6
-1.146, -1.162e-6
-1.145, -1.137e-6
-1.144, -1.161e-6
-1.143, -1.178e-6
-1.142, -1.182e-6
-1.141, -1.180e-6
-1.140, -1.173e-6
-1.139, -1.211e-6
-1.138, -1.242e-6
-1.137, -1.172e-6
-1.136, -1.247e-6
-1.135, -1.212e-6
-1.134, -1.223e-6
-1.133, -1.254e-6
-1.132, -1.263e-6
-1.131, -1.282e-6
-1.130, -1.261e-6
-1.129, -1.284e-6
-1.128, -1.305e-6
-1.127, -1.308e-6
-1.126, -1.328e-6
-1.125, -1.328e-6
-1.124, -1.332e-6
-1.123, -1.352e-6
-1.122, -1.368e-6
-1.121, -1.388e-6
-1.120, -1.376e-6
-1.119, -1.420e-6
-1.118, -1.382e-6
-1.117, -1.405e-6
-1.116, -1.425e-6
-1.115, -1.433e-6
-1.114, -1.450e-6
-1.113, -1.460e-6
-1.112, -1.448e-6
-1.111, -1.465e-6
-1.110, -1.468e-6
-1.109, -1.487e-6
-1.108, -1.506e-6
-1.107, -1.511e-6
-1.106, -1.517e-6
-1.105, -1.532e-6
-1.104, -1.554e-6
-1.103, -1.542e-6
-1.102, -1.559e-6
-1.101, -1.583e-6
-1.100, -1.595e-6
-1.099, -1.570e-6
-1.098, -1.609e-6
-1.097, -1.627e-6
-1.096, -1.609e-6
-1.095, -1.647e-6
-1.094, -1.610e-6
-1.093, -1.664e-6
-1.092, -1.652e-6
-1.091, -1.671e-6
-1.090, -1.684e-6
-1.089, -1.724e-6
-1.088, -1.727e-6
-1.087, -1.712e-6
-1.086, -1.723e-6
-1.085, -1.724e-6
-1.084, -1.740e-6
-1.083, -1.762e-6
-1.082, -1.743e-6
-1.081, -1.784e-6
-1.080, -1.793e-6
-1.079, -1.802e-6
-1.078, -1.792e-6
-1.077, -1.808e-6
-1.076, -1.844e-6
-1.075, -1.830e-6
-1.074, -1.842e-6
-1.073, -1.871e-6
-1.072, -1.891e-6
-1.071, -1.897e-6
-1.070, -1.890e-6
-1.069, -1.922e-6
-1.068, -1.929e-6
-1.067, -1.970e-6
-1.066, -1.940e-6
-1.065, -1.964e-6
-1.064, -1.982e-6
-1.063, -1.984e-6
-1.062, -2.018e-6
-1.061, -2.010e-6
-1.060, -2.044e-6
-1.059, -2.047e-6
-1.058, -2.045e-6
-1.057, -2.059e-6
-1.056, -2.057e-6
-1.055, -2.092e-6
-1.054, -2.089e-6
-1.053, -2.125e-6
-1.052, -2.166e-6
-1.051, -2.135e-6
-1.050, -2.166e-6
-1.049, -2.186e-6
-1.048, -2.181e-6
-1.047, -2.194e-6
-1.046, -2.193e-6
-1.045, -2.239e-6
-1.044, -2.219e-6
-1.043, -2.241e-6
-1.042, -2.279e-6
-1.041, -2.276e-6
-1.040, -2.307e-6
-1.039, -2.353e-6
-1.038, -2.362e-6
-1.037, -2.346e-6
-1.036, -2.343e-6
-1.035, -2.382e-6
-1.034, -2.387e-6
-1.033, -2.434e-6
-1.032, -2.399e-6
-1.031, -2.416e-6
-1.030, -2.468e-6
-1.029, -2.459e-6
-1.028, -2.512e-6
-1.027, -2.475e-6
-1.026, -2.527e-6
-1.025, -2.540e-6
-1.024, -2.535e-6
-1.023, -2.574e-6
-1.022, -2.573e-6
-1.021, -2.571e-6
-1.020, -2.605e-6
-1.019, -2.596e-6
-1.018, -2.642e-6
-1.017, -2.627e-6
-1.016, -2.661e-6
-1.015, -2.666e-6
-1.014, -2.683e-6
-1.013, -2.715e-6
-1.012, -2.670e-6
-1.011, -2.743e-6
-1.010, -2.737e-6
-1.009, -2.763e-6
-1.008, -2.773e-6
-1.007, -2.799e-6
-1.006, -2.822e-6
-1.005, -2.797e-6
-1.004, -2.850e-6
-1.003, -2.848e-6
-1.002, -2.855e-6
-1.001, -2.897e-6
-1.000, -2.623e-6
-1.001, -2.422e-6
-1.002, -2.242e-6
-1.003, -2.102e-6
-1.004, -1.975e-6
-1.005, -1.852e-6
-1.006, -1.780e-6
-1.007, -1.644e-6
-1.008, -1.571e-6
-1.009, -1.444e-6
-1.010, -1.390e-6
-1.011, -1.313e-6
-1.012, -1.223e-6
-1.013, -1.175e-6
-1.014, -1.090e-6
-1.015, -9.996e-7
-1.016, -9.809e-7
-1.017, -9.197e-7
-1.018, -8.674e-7
-1.019, -7.993e-7
-1.020, -7.549e-7
-1.021, -7.135e-7
-1.022, -6.701e-7
-1.023, -6.425e-7
-1.024, -5.576e-7
-1.025, -5.231e-7
-1.026, -4.965e-7
-1.027, -4.905e-7
-1.028, -3.948e-7
-1.029, -3.643e-7
-1.030, -3.593e-7
-1.031, -2.784e-7
-1.032, -3.080e-7
-1.033, -2.182e-7
-1.034, -2.271e-7
-1.035, -2.123e-7
-1.036, -1.896e-7
-1.037, -1.630e-7
-1.038, -9.984e-8
-1.039, -8.110e-8
-1.040, -6.729e-8
-1.041, -5.939e-8
-1.042, -2.782e-8
-1.043, 1.362e-8
-1.044, 1.756e-8
-1.045, 7.873e-8
-1.046, 6.196e-8
-1.047, 9.452e-8
-1.048, 1.142e-7
-1.049, 1.054e-7
-1.050, 1.744e-7
-1.051, 1.527e-7
-1.052, 1.833e-7
-1.053, 2.099e-7
-1.054, 2.188e-7
-1.055, 2.326e-7
-1.056, 2.277e-7
-1.057, 2.711e-7
-1.058, 2.849e-7
-1.059, 3.056e-7
-1.060, 3.264e-7
-1.061, 3.175e-7
-1.062, 3.599e-7
-1.063, 3.451e-7
-1.064, 3.826e-7
-1.065, 3.905e-7
-1.066, 3.856e-7
-1.067, 4.240e-7
-1.068, 4.171e-7
-1.069, 4.566e-7
-1.070, 4.536e-7
-1.071, 4.665e-7
-1.072, 4.783e-7
-1.073, 4.684e-7
-1.074, 5.049e-7
-1.075, 5.365e-7
-1.076, 5.257e-7
-1.077, 5.306e-7
-1.078, 5.483e-7
-1.079, 5.799e-7
-1.080, 5.858e-7
-1.081, 5.720e-7
-1.082, 6.293e-7
-1.083, 5.918e-7
-1.084, 6.293e-7
-1.085, 6.500e-7
-1.086, 6.431e-7
-1.087, 6.667e-7
-1.088, 6.608e-7
-1.089, 6.736e-7
-1.090, 6.875e-7
-1.091, 6.786e-7
-1.092, 7.200e-7
-1.093, 7.042e-7
-1.094, 7.447e-7
-1.095, 7.407e-7
-1.096, 7.595e-7
-1.097, 7.289e-7
-1.098, 7.506e-7
-1.099, 7.545e-7
-1.100, 7.703e-7
-1.101, 8.019e-7
-1.102, 7.861e-7
-1.103, 8.295e-7
-1.104, 7.960e-7
-1.105, 8.177e-7
-1.106, 8.049e-7
-1.107, 8.305e-7
-1.108, 8.572e-7
-1.109, 8.512e-7
-1.110, 8.443e-7
-1.111, 8.670e-7
-1.112, 8.631e-7
-1.113, 9.094e-7
-1.114, 8.808e-7
-1.115, 9.213e-7
-1.116, 9.006e-7
-1.117, 9.193e-7
-1.118, 9.085e-7
-1.119, 9.173e-7
-1.120, 9.371e-7
-1.121, 9.538e-7
-1.122, 9.519e-7
-1.123, 9.509e-7
-1.124, 9.726e-7
-1.125, 9.677e-7
-1.126, 9.736e-7
-1.127, 9.805e-7
-1.128, 9.469e-7
-1.129, 9.992e-7
-1.130, 1.009e-6
-1.131, 1.008e-6
-1.132, 1.037e-6
-1.133, 1.032e-6
-1.134, 1.038e-6
-1.135, 1.043e-6
-1.136, 1.054e-6
-1.137, 1.026e-6
-1.138, 1.044e-6
-1.139, 1.079e-6
-1.140, 1.076e-6
-1.141, 1.074e-6
-1.142, 1.090e-6
-1.143, 1.101e-6
-1.144, 1.111e-6
-1.145, 1.097e-6
-1.146, 1.111e-6
-1.147, 1.105e-6
-1.148, 1.124e-6
-1.149, 1.101e-6
-1.150, 1.145e-6
-1.151, 1.125e-6
-1.152, 1.157e-6
-1.153, 1.178e-6
-1.154, 1.121e-6
-1.155, 1.156e-6
-1.156, 1.153e-6
-1.157, 1.159e-6
-1.158, 1.191e-6
-1.159, 1.187e-6
-1.160, 1.220e-6
-1.161, 1.184e-6
-1.162, 1.209e-6
-1.163, 1.209e-6
-1.164, 1.216e-6
-1.165, 1.213e-6
-1.166, 1.218e-6
-1.167, 1.227e-6
-1.168, 1.217e-6
-1.169, 1.279e-6
-1.170, 1.266e-6
-1.171, 1.264e-6
-1.172, 1.250e-6
-1.173, 1.267e-6
-1.174, 1.286e-6
-1.175, 1.288e-6
-1.176, 1.287e-6
-1.177, 1.300e-6
-1.178, 1.315e-6
-1.179, 1.334e-6
-1.180, 1.346e-6
-1.181, 1.373e-6
-1.182, 1.305e-6
-1.183, 1.363e-6
-1.184, 1.345e-6
-1.185, 1.420e-6
-1.186, 1.372e-6
-1.187, 1.360e-6
-1.188, 1.396e-6
-1.189, 1.356e-6
-1.190, 1.378e-6
-1.191, 1.376e-6
-1.192, 1.402e-6
-1.193, 1.429e-6
-1.194, 1.422e-6
-1.195, 1.430e-6
-1.196, 1.437e-6
-1.197, 1.450e-6
-1.198, 1.442e-6
-1.199, 1.470e-6
-1.200, 1.480e-6
-1.201, 1.456e-6
-1.202, 1.489e-6
-1.203, 1.484e-6
-1.204, 1.501e-6
-1.205, 1.494e-6
-1.206, 1.496e-6
-1.207, 1.520e-6
-1.208, 1.507e-6
-1.209, 1.532e-6
-1.210, 1.512e-6
-1.211, 1.528e-6
-1.212, 1.532e-6
-1.213, 1.531e-6
-1.214, 1.561e-6
-1.215, 1.543e-6
-1.216, 1.574e-6
-1.217, 1.576e-6
-1.218, 1.604e-6
-1.219, 1.606e-6
-1.220, 1.609e-6
-1.221, 1.591e-6
-1.222, 1.605e-6
-1.223, 1.610e-6
-1.224, 1.620e-6
-1.225, 1.637e-6
-1.226, 1.645e-6
-1.227, 1.649e-6
-1.228, 1.672e-6
-1.229, 1.674e-6
-1.230, 1.678e-6
-1.231, 1.689e-6
-1.232, 1.691e-6
-1.233, 1.701e-6
-1.234, 1.702e-6
-1.235, 1.755e-6
-1.236, 1.700e-6
-1.237, 1.744e-6
-1.238, 1.754e-6
-1.239, 1.732e-6
-1.240, 1.780e-6
-1.241, 1.756e-6
-1.242, 1.806e-6
-1.243, 1.762e-6
-1.244, 1.784e-6
-1.245, 1.822e-6
-1.246, 1.805e-6
-1.247, 1.812e-6
-1.248, 1.799e-6
-1.249, 1.818e-6
-1.250, 1.860e-6
-1.251, 1.848e-6
-1.252, 1.868e-6
-1.253, 1.884e-6
-1.254, 1.900e-6
-1.255, 1.875e-6
-1.256, 1.864e-6
-1.257, 1.883e-6
-1.258, 1.884e-6
-1.259, 1.924e-6
-1.260, 1.898e-6
-1.261, 1.956e-6
-1.262, 1.921e-6
-1.263, 1.973e-6
-1.264, 1.954e-6
-1.265, 1.959e-6
-1.266, 1.966e-6
-1.267, 1.970e-6
-1.268, 1.957e-6
-1.269, 2.008e-6
-1.270, 1.987e-6
-1.271, 2.017e-6
-1.272, 2.004e-6
-1.273, 2.048e-6
-1.274, 1.993e-6
-1.275, 2.027e-6
-1.276, 2.029e-6
-1.277, 2.041e-6
-1.278, 2.054e-6
-1.279, 2.045e-6
-1.280, 2.086e-6
-1.281, 2.062e-6
-1.282, 2.059e-6
-1.283, 2.095e-6
-1.284, 2.070e-6
-1.285, 2.112e-6
-1.286, 2.071e-6
-1.287, 2.144e-6
-1.288, 2.130e-6
-1.289, 2.123e-6
-1.290, 2.158e-6
-1.291, 2.140e-6
-1.292, 2.157e-6
-1.293, 2.143e-6
-1.294, 2.178e-6
-1.295, 2.151e-6
-1.296, 2.169e-6
-1.297, 2.177e-6
-1.298, 2.197e-6
-1.299, 2.225e-6
-1.300, 2.183e-6
-1.301, 2.204e-6
-1.302, 2.216e-6
-1.303, 2.211e-6
-1.304, 2.236e-6
-1.305, 2.262e-6
-1.306, 2.240e-6
-1.307, 2.265e-6
-1.308, 2.253e-6
-1.309, 2.278e-6
-1.310, 2.250e-6
-1.311, 2.292e-6
-1.312, 2.255e-6
-1.313, 2.304e-6
-1.314, 2.316e-6
-1.315, 2.295e-6
-1.316, 2.309e-6
-1.317, 2.308e-6
-1.318, 2.334e-6
-1.319, 2.343e-6
-1.320, 2.343e-6
-1.321, 2.343e-6
-1.322, 2.348e-6
-1.323, 2.344e-6
-1.324, 2.348e-6
-1.325, 2.404e-6
-1.326, 2.378e-6
-1.327, 2.351e-6
-1.328, 2.409e-6
-1.329, 2.388e-6
-1.330, 2.407e-6
-1.331, 2.422e-6
-1.332, 2.420e-6
-1.333, 2.430e-6
-1.334, 2.414e-6
-1.335, 2.466e-6
-1.336, 2.425e-6
-1.337, 2.443e-6
-1.338, 2.476e-6
-1.339, 2.467e-6
-1.340, 2.492e-6
-1.341, 2.475e-6
-1.342, 2.497e-6
-1.343, 2.486e-6
-1.344, 2.499e-6
-1.345, 2.520e-6
-1.346, 2.492e-6
-1.347, 2.503e-6
-1.348, 2.506e-6
-1.349, 2.514e-6
-1.350, 2.553e-6
-1.351, 2.524e-6
-1.352, 2.551e-6
-1.353, 2.567e-6
-1.354, 2.569e-6
-1.355, 2.566e-6
-1.356, 2.566e-6
-1.357, 2.595e-6
-1.358, 2.592e-6
-1.359, 2.617e-6
-1.360, 2.612e-6
-1.361, 2.612e-6
-1.362, 2.635e-6
-1.363, 2.608e-6
-1.364, 2.648e-6
-1.365, 2.616e-6
-1.366, 2.676e-6
-1.367, 2.639e-6
-1.368, 2.676e-6
-1.369, 2.671e-6
-1.370, 2.685e-6
-1.371, 2.696e-6
-1.372, 2.678e-6
-1.373, 2.723e-6
-1.374, 2.710e-6
-1.375, 2.705e-6
-1.376, 2.736e-6
-1.377, 2.735e-6
-1.378, 2.788e-6
-1.379, 2.768e-6
-1.380, 2.782e-6
-1.381, 2.766e-6
-1.382, 2.776e-6
-1.383, 2.816e-6
-1.384, 2.812e-6
-1.385, 2.821e-6
-1.386, 2.793e-6
-1.387, 2.843e-6
-1.388, 2.864e-6
-1.389, 2.837e-6
-1.390, 2.889e-6
-1.391, 2.866e-6
-1.392, 2.908e-6
-1.393, 2.891e-6
-1.394, 2.927e-6
-1.395, 2.897e-6
-1.396, 2.909e-6
-1.397, 2.920e-6
-1.398, 2.934e-6
-1.399, 2.990e-6
-1.400, 2.982e-6
-1.401, 2.988e-6
-1.402, 3.022e-6
-1.403, 3.021e-6
-1.404, 3.039e-6
-1.405, 3.020e-6
-1.406, 3.074e-6
-1.407, 3.069e-6
-1.408, 3.120e-6
-1.409, 3.077e-6
-1.410, 3.126e-6
-1.411, 3.124e-6
-1.412, 3.127e-6
-1.413, 3.168e-6
-1.414, 3.144e-6
-1.415, 3.198e-6
-1.416, 3.196e-6
-1.417, 3.190e-6
-1.418, 3.241e-6
-1.419, 3.259e-6
-1.420, 3.264e-6
-1.421, 3.259e-6
-1.422, 3.280e-6
-1.423, 3.292e-6
-1.424, 3.311e-6
-1.425, 3.354e-6
-1.426, 3.317e-6
-1.427, 3.363e-6
-1.428, 3.392e-6
-1.429, 3.422e-6
-1.430, 3.416e-6
-1.431, 3.447e-6
-1.432, 3.469e-6
-1.433, 3.471e-6
-1.434, 3.497e-6
-1.435, 3.500e-6
-1.436, 3.531e-6
-1.437, 3.535e-6
-1.438, 3.559e-6
-1.439, 3.564e-6
-1.440, 3.580e-6
-1.441, 3.623e-6
-1.442, 3.597e-6
-1.443, 3.654e-6
-1.444, 3.681e-6
-1.445, 3.683e-6
-1.446, 3.730e-6
-1.447, 3.722e-6
-1.448, 3.758e-6
-1.449, 3.767e-6
-1.450, 3.789e-6
-1.451, 3.835e-6
-1.452, 3.816e-6
-1.453, 3.848e-6
-1.454, 3.846e-6
-1.455, 3.917e-6
-1.456, 3.924e-6
-1.457, 3.938e-6
-1.458, 3.948e-6
-1.459, 3.949e-6
-1.460, 4.006e-6
-1.461, 4.025e-6
-1.462, 4.070e-6
-1.463, 4.065e-6
-1.464, 4.120e-6
-1.465, 4.116e-6
-1.466, 4.139e-6
-1.467, 4.179e-6
-1.468, 4.143e-6
-1.469, 4.239e-6
-1.470, 4.243e-6
-1.471, 4.263e-6
-1.472, 4.301e-6
-1.473, 4.365e-6
-1.474, 4.402e-6
-1.475, 4.373e-6
-1.476, 4.424e-6
-1.477, 4.451e-6
-1.478, 4.483e-6
-1.479, 4.521e-6
-1.480, 4.541e-6
-1.481, 4.566e-6
-1.482, 4.573e-6
-1.483, 4.607e-6
-1.484, 4.672e-6
-1.485, 4.735e-6
-1.486, 4.704e-6
-1.487, 4.754e-6
-1.488, 4.790e-6
-1.489, 4.836e-6
-1.490, 4.862e-6
-1.491, 4.868e-6
-1.492, 4.909e-6
-1.493, 4.962e-6
-1.494, 4.991e-6
-1.495, 5.038e-6
-1.496, 5.066e-6
-1.497, 5.120e-6
-1.498, 5.163e-6
-1.499, 5.178e-6
-1.500, 5.236e-6
-1.501, 5.248e-6
-1.502, 5.349e-6
-1.503, 5.354e-6
-1.504, 5.441e-6
-1.505, 5.426e-6
-1.506, 5.493e-6
-1.507, 5.544e-6
-1.508, 5.581e-6
-1.509, 5.635e-6
-1.510, 5.653e-6
-1.511, 5.722e-6
-1.512, 5.754e-6
-1.513, 5.815e-6
-1.514, 5.849e-6
-1.515, 5.919e-6
-1.516, 5.984e-6
-1.517, 5.975e-6
-1.518, 6.077e-6
-1.519, 6.103e-6
-1.520, 6.155e-6
-1.521, 6.225e-6
-1.522, 6.249e-6
-1.523, 6.342e-6
-1.524, 6.396e-6
-1.525, 6.498e-6
-1.526, 6.492e-6
-1.527, 6.605e-6
-1.528, 6.663e-6
-1.529, 6.688e-6
-1.530, 6.793e-6
-1.531, 6.822e-6
-1.532, 6.926e-6
-1.533, 6.951e-6
-1.534, 7.059e-6
-1.535, 7.088e-6
-1.536, 7.184e-6
-1.537, 7.247e-6
-1.538, 7.290e-6
-1.539, 7.411e-6
-1.540, 7.472e-6
-1.541, 7.550e-6
-1.542, 7.627e-6
-1.543, 7.701e-6
-1.544, 7.802e-6
-1.545, 7.848e-6
-1.546, 7.984e-6
-1.547, 8.044e-6
-1.548, 8.139e-6
-1.549, 8.245e-6
-1.550, 8.300e-6
-1.551, 8.428e-6
-1.552, 8.487e-6
-1.553, 8.623e-6
-1.554, 8.724e-6
-1.555, 8.815e-6
-1.556, 8.912e-6
-1.557, 9.057e-6
-1.558, 9.152e-6
-1.559, 9.252e-6
-1.560, 9.389e-6
-1.561, 9.493e-6
-1.562, 9.605e-6
-1.563, 9.751e-6
-1.564, 9.865e-6
-1.565, 1.000e-5
-1.566, 1.011e-5
-1.567, 1.030e-5
-1.568, 1.039e-5
-1.569, 1.056e-5
-1.570, 1.069e-5
-1.571, 1.081e-5
-1.572, 1.098e-5
-1.573, 1.115e-5
-1.574, 1.130e-5
-1.575, 1.146e-5
-1.576, 1.162e-5
-1.577, 1.181e-5
-1.578, 1.196e-5
-1.579, 1.218e-5
-1.580, 1.232e-5
-1.581, 1.251e-5
-1.582, 1.273e-5
-1.583, 1.291e-5
-1.584, 1.315e-5
-1.585, 1.330e-5
-1.586, 1.354e-5
-1.587, 1.372e-5
-1.588, 1.401e-5
-1.589, 1.421e-5
-1.590, 1.444e-5
-1.591, 1.471e-5
-1.592, 1.492e-5
-1.593, 1.522e-5
-1.594, 1.547e-5
-1.595, 1.574e-5
-1.596, 1.598e-5
-1.597, 1.629e-5
-1.598, 1.659e-5
-1.599, 1.691e-5
-1.600, 1.721e-5
-1.601, 1.753e-5
-1.602, 1.787e-5
-1.603, 1.819e-5
-1.604, 1.852e-5
-1.605, 1.885e-5
-1.606, 1.924e-5
-1.607, 1.967e-5
-1.608, 1.998e-5
-1.609, 2.042e-5
-1.610, 2.081e-5
-1.611, 2.120e-5
-1.612, 2.169e-5
-1.613, 2.208e-5
-1.614, 2.257e-5
-1.615, 2.303e-5
-1.616, 2.347e-5
-1.617, 2.399e-5
-1.618, 2.452e-5
-1.619, 2.504e-5
-1.620, 2.556e-5
-1.621, 2.615e-5
-1.622, 2.670e-5
-1.623, 2.725e-5
-1.624, 2.788e-5
-1.625, 2.850e-5
-1.626, 2.918e-5
-1.627, 2.979e-5
-1.628, 3.046e-5
-1.629, 3.117e-5
-1.630, 3.187e-5
-1.631, 3.264e-5
-1.632, 3.338e-5
-1.633, 3.419e-5
-1.634, 3.497e-5
-1.635, 3.578e-5
-1.636, 3.666e-5
-1.637, 3.756e-5
-1.638, 3.853e-5
-1.639, 3.943e-5
-1.640, 4.038e-5
-1.641, 4.134e-5
-1.642, 4.239e-5
-1.643, 4.341e-5
-1.644, 4.450e-5
-1.645, 4.560e-5
-1.646, 4.674e-5
-1.647, 4.797e-5
-1.648, 4.914e-5
-1.649, 5.042e-5
-1.650, 5.170e-5
-1.651, 5.299e-5
-1.652, 5.438e-5
-1.653, 5.581e-5
-1.654, 5.726e-5
-1.655, 5.875e-5
-1.656, 6.029e-5
-1.657, 6.187e-5
-1.658, 6.348e-5
-1.659, 6.519e-5
-1.660, 6.690e-5
-1.661, 6.868e-5
-1.662, 7.054e-5
-1.663, 7.241e-5
-1.664, 7.434e-5
-1.665, 7.634e-5
-1.666, 7.844e-5
-1.667, 8.054e-5
-1.668, 8.275e-5
-1.669, 8.498e-5
-1.670, 8.725e-5
-1.671, 8.962e-5
-1.672, 9.210e-5
-1.673, 9.464e-5
-1.674, 9.728e-5
-1.675, 9.991e-5
-1.676, 1.027e-4
-1.677, 1.055e-4
-1.678, 1.085e-4
-1.679, 1.114e-4
-1.680, 1.145e-4
-1.681, 1.177e-4
-1.682, 1.210e-4
-1.683, 1.244e-4
-1.684, 1.279e-4
-1.685, 1.315e-4
-1.686, 1.352e-4
-1.687, 1.390e-4
-1.688, 1.429e-4
-1.689, 1.469e-4
-1.690, 1.511e-4
-1.691, 1.553e-4
-1.692, 1.597e-4
-1.693, 1.642e-4
-1.694, 1.689e-4
-1.695, 1.736e-4
-1.696, 1.786e-4
-1.697, 1.838e-4
-1.698, 1.890e-4
-1.699, 1.944e-4
-1.700, 1.999e-4
-1.701, 2.056e-4
-1.702, 2.114e-4
-1.703, 2.173e-4
-1.704, 2.234e-4
-1.705, 2.298e-4
-1.706, 2.363e-4
-1.707, 2.430e-4
-1.708, 2.498e-4
-1.709, 2.569e-4
-1.710, 2.642e-4
-1.711, 2.716e-4
-1.712, 2.793e-4
-1.713, 2.872e-4
-1.714, 2.953e-4
-1.715, 3.036e-4
-1.716, 3.122e-4
-1.717, 3.208e-4
-1.718, 3.298e-4
-1.719, 3.390e-4
-1.720, 3.485e-4
-1.721, 3.583e-4
-1.722, 3.685e-4
-1.723, 3.788e-4
-1.724, 3.894e-4
-1.725, 4.000e-4
-1.726, 4.111e-4
-1.727, 4.225e-4
-1.728, 4.340e-4
-1.729, 4.461e-4
-1.730, 4.584e-4
-1.731, 4.709e-4
-1.732, 4.840e-4
-1.733, 4.972e-4
-1.734, 5.109e-4
-1.735, 5.247e-4
-1.736, 5.388e-4
-1.737, 5.532e-4
-1.738, 5.683e-4
-1.739, 5.837e-4
-1.740, 5.996e-4
-1.741, 6.158e-4
-1.742, 6.324e-4
-1.743, 6.492e-4
-1.744, 6.662e-4
-1.745, 6.837e-4
-1.746, 7.013e-4
-1.747, 7.196e-4
-1.748, 7.386e-4
-1.749, 7.575e-4
-1.750, 7.769e-4
-1.751, 7.974e-4
-1.752, 8.181e-4
-1.753, 8.392e-4
-1.754, 8.606e-4
-1.755, 8.826e-4
-1.756, 9.047e-4
-1.757, 9.268e-4
-1.758, 9.499e-4
-1.759, 9.742e-4
-1.760, 9.989e-4
-1.761, 1.024e-3
-1.762, 1.049e-3
-1.763, 1.074e-3
-1.764, 1.100e-3
-1.765, 1.126e-3
-1.766, 1.153e-3
-1.767, 1.181e-3
-1.768, 1.209e-3
-1.769, 1.239e-3
-1.770, 1.267e-3
-1.771, 1.297e-3
-1.772, 1.327e-3
-1.773, 1.356e-3
-1.774, 1.385e-3
-1.775, 1.416e-3
-1.776, 1.447e-3
-1.777, 1.479e-3
-1.778, 1.514e-3
-1.779, 1.550e-3
-1.780, 1.584e-3
-1.781, 1.618e-3
-1.782, 1.652e-3
-1.783, 1.687e-3
-1.784, 1.722e-3
-1.785, 1.757e-3
-1.786, 1.793e-3
-1.787, 1.831e-3
-1.788, 1.871e-3
-1.789, 1.911e-3
-1.790, 1.951e-3
-1.791, 1.991e-3
-1.792, 2.032e-3
-1.793, 2.071e-3
-1.794, 2.110e-3
-1.795, 2.148e-3
-1.796, 2.189e-3
-1.797, 2.232e-3
-1.798, 2.276e-3
-1.799, 2.318e-3
-1.800, 2.360e-3
-1.801, 2.404e-3
-1.802, 2.450e-3
-1.803, 2.492e-3
-1.804, 2.539e-3
-1.805, 2.585e-3
-1.806, 2.630e-3
-1.807, 2.674e-3
-1.808, 2.723e-3
-1.809, 2.773e-3
-1.810, 2.820e-3
-1.811, 2.866e-3
-1.812, 2.914e-3
-1.813, 2.963e-3
-1.814, 3.012e-3
-1.815, 3.064e-3
-1.816, 3.118e-3
-1.817, 3.170e-3
-1.818, 3.219e-3
-1.819, 3.263e-3
-1.820, 3.313e-3
-1.821, 3.362e-3
-1.822, 3.411e-3
-1.823, 3.465e-3
-1.824, 3.521e-3
-1.825, 3.565e-3
-1.826, 3.620e-3
-1.827, 3.677e-3
-1.828, 3.734e-3
-1.829, 3.792e-3
-1.830, 3.848e-3
-1.831, 3.902e-3
-1.832, 3.953e-3
-1.833, 4.000e-3
-1.834, 4.053e-3
-1.835, 4.113e-3
-1.836, 4.166e-3
-1.837, 4.222e-3
-1.838, 4.276e-3
-1.839, 4.323e-3
-1.840, 4.382e-3
-1.841, 4.438e-3
-1.842, 4.499e-3
-1.843, 4.555e-3
-1.844, 4.612e-3
-1.845, 4.670e-3
-1.846, 4.726e-3
-1.847, 4.784e-3
-1.848, 4.842e-3
-1.849, 4.903e-3
-1.850, 4.965e-3
-1.851, 5.017e-3
-1.852, 5.082e-3
-1.853, 5.151e-3
-1.854, 5.205e-3
-1.855, 5.267e-3
-1.856, 5.330e-3
-1.857, 5.395e-3
-1.858, 5.456e-3
-1.859, 5.518e-3
-1.860, 5.579e-3
-1.861, 5.640e-3
-1.862, 5.694e-3
-1.863, 5.741e-3
-1.864, 5.802e-3
-1.865, 5.869e-3
-1.866, 5.940e-3
-1.867, 6.006e-3
-1.868, 6.068e-3
-1.869, 6.123e-3
-1.870, 6.177e-3
-1.871, 6.245e-3
-1.872, 6.307e-3
-1.873, 6.360e-3
-1.874, 6.410e-3
-1.875, 6.465e-3
-1.876, 6.517e-3
-1.877, 6.574e-3
-1.878, 6.651e-3
-1.879, 6.724e-3
-1.880, 6.788e-3
-1.881, 6.837e-3
-1.882, 6.878e-3
-1.883, 6.931e-3
-1.884, 6.986e-3
-1.885, 7.048e-3
-1.886, 7.117e-3
-1.887, 7.189e-3
-1.888, 7.252e-3
-1.889, 7.315e-3
-1.890, 7.371e-3
-1.891, 7.427e-3
-1.892, 7.475e-3
-1.893, 7.516e-3
-1.894, 7.558e-3
-1.895, 7.613e-3
-1.896, 7.682e-3
-1.897, 7.741e-3
-1.898, 7.800e-3
-1.899, 7.857e-3
-1.900, 7.875e-3
-1.899, 7.832e-3
-1.898, 7.789e-3
-1.897, 7.748e-3
-1.896, 7.710e-3
-1.895, 7.651e-3
-1.894, 7.584e-3
-1.893, 7.519e-3
-1.892, 7.482e-3
-1.891, 7.445e-3
-1.890, 7.400e-3
-1.889, 7.342e-3
-1.888, 7.269e-3
-1.887, 7.235e-3
-1.886, 7.193e-3
-1.885, 7.143e-3
-1.884, 7.092e-3
-1.883, 7.042e-3
-1.882, 6.993e-3
-1.881, 6.943e-3
-1.880, 6.887e-3
-1.879, 6.843e-3
-1.878, 6.790e-3
-1.877, 6.727e-3
-1.876, 6.681e-3
-1.875, 6.632e-3
-1.874, 6.586e-3
-1.873, 6.527e-3
-1.872, 6.484e-3
-1.871, 6.429e-3
-1.870, 6.381e-3
-1.869, 6.328e-3
-1.868, 6.268e-3
-1.867, 6.212e-3
-1.866, 6.165e-3
-1.865, 6.113e-3
-1.864, 6.064e-3
-1.863, 6.015e-3
-1.862, 5.960e-3
-1.861, 5.919e-3
-1.860, 5.873e-3
-1.859, 5.808e-3
-1.858, 5.754e-3
-1.857, 5.707e-3
-1.856, 5.670e-3
-1.855, 5.619e-3
-1.854, 5.574e-3
-1.853, 5.521e-3
-1.852, 5.465e-3
-1.851, 5.421e-3
-1.850, 5.373e-3
-1.849, 5.318e-3
-1.848, 5.293e-3
-1.847, 5.247e-3
-1.846, 5.202e-3
-1.845, 5.158e-3
-1.844, 5.116e-3
-1.843, 5.078e-3
-1.842, 5.021e-3
-1.841, 4.957e-3
-1.840, 4.914e-3
-1.839, 4.876e-3
-1.838, 4.834e-3
-1.837, 4.790e-3
-1.836, 4.743e-3
-1.835, 4.709e-3
-1.834, 4.666e-3
-1.833, 4.620e-3
-1.832, 4.575e-3
-1.831, 4.534e-3
-1.830, 4.487e-3
-1.829, 4.447e-3
-1.828, 4.425e-3
-1.827, 4.437e-3
-1.826, 4.398e-3
-1.825, 4.355e-3
-1.824, 4.318e-3
-1.823, 4.277e-3
-1.822, 4.231e-3
-1.821, 4.185e-3
-1.820, 4.132e-3
-1.819, 4.089e-3
-1.818, 4.049e-3
-1.817, 4.001e-3
-1.816, 3.953e-3
-1.815, 3.915e-3
-1.814, 3.878e-3
-1.813, 3.837e-3
-1.812, 3.796e-3
-1.811, 3.754e-3
-1.810, 3.710e-3
-1.809, 3.671e-3
-1.808, 3.626e-3
-1.807, 3.582e-3
-1.806, 3.550e-3
-1.805, 3.505e-3
-1.804, 3.460e-3
-1.803, 3.432e-3
-1.802, 3.400e-3
-1.801, 3.363e-3
-1.800, 3.324e-3
-1.799, 3.287e-3
-1.798, 3.245e-3
-1.797, 3.203e-3
-1.796, 3.164e-3
-1.795, 3.121e-3
-1.794, 3.087e-3
-1.793, 3.051e-3
-1.792, 3.016e-3
-1.791, 2.978e-3
-1.790, 2.943e-3
-1.789, 2.912e-3
-1.788, 2.880e-3
-1.787, 2.853e-3
-1.786, 2.818e-3
-1.785, 2.783e-3
-1.784, 2.755e-3
-1.783, 2.719e-3
-1.782, 2.681e-3
-1.781, 2.645e-3
-1.780, 2.612e-3
-1.779, 2.580e-3
-1.778, 2.549e-3
-1.777, 2.518e-3
-1.776, 2.488e-3
-1.775, 2.455e-3
-1.774, 2.424e-3
-1.773, 2.393e-3
-1.772, 2.359e-3
-1.771, 2.331e-3
-1.770, 2.301e-3
-1.769, 2.269e-3
-1.768, 2.236e-3
-1.767, 2.206e-3
-1.766, 2.175e-3
-1.765, 2.147e-3
-1.764, 2.119e-3
-1.763, 2.091e-3
-1.762, 2.062e-3
-1.761, 2.033e-3
-1.760, 2.003e-3
-1.759, 1.972e-3
-1.758, 1.942e-3
-1.757, 1.913e-3
-1.756, 1.885e-3
-1.755, 1.860e-3
-1.754, 1.835e-3
-1.753, 1.809e-3
-1.752, 1.783e-3
-1.751, 1.757e-3
-1.750, 1.730e-3
-1.749, 1.704e-3
-1.748, 1.677e-3
-1.747, 1.651e-3
-1.746, 1.627e-3
-1.745, 1.604e-3
-1.744, 1.581e-3
-1.743, 1.559e-3
-1.742, 1.532e-3
-1.741, 1.506e-3
-1.740, 1.483e-3
-1.739, 1.460e-3
-1.738, 1.436e-3
-1.737, 1.413e-3
-1.736, 1.393e-3
-1.735, 1.371e-3
-1.734, 1.349e-3
-1.733, 1.328e-3
-1.732, 1.308e-3
-1.731, 1.286e-3
-1.730, 1.263e-3
-1.729, 1.242e-3
-1.728, 1.221e-3
-1.727, 1.201e-3
-1.726, 1.181e-3
-1.725, 1.161e-3
-1.724, 1.142e-3
-1.723, 1.124e-3
-1.722, 1.105e-3
-1.721, 1.085e-3
-1.720, 1.066e-3
-1.719, 1.047e-3
-1.718, 1.031e-3
-1.717, 1.013e-3
-1.716, 9.958e-4
-1.715, 9.791e-4
-1.714, 9.622e-4
-1.713, 9.450e-4
-1.712, 9.283e-4
-1.711, 9.120e-4
-1.710, 8.949e-4
-1.709, 8.780e-4
-1.708, 8.623e-4
-1.707, 8.474e-4
-1.706, 8.325e-4
-1.705, 8.181e-4
-1.704, 8.037e-4
-1.703, 7.888e-4
-1.702, 7.740e-4
-1.701, 7.591e-4
-1.700, 7.448e-4
-1.699, 7.308e-4
-1.698, 7.171e-4
-1.697, 7.038e-4
-1.696, 6.908e-4
-1.695, 6.777e-4
-1.694, 6.647e-4
-1.693, 6.514e-4
-1.692, 6.390e-4
-1.691, 6.272e-4
-1.690, 6.153e-4
-1.689, 6.036e-4
-1.688, 5.922e-4
-1.687, 5.806e-4
-1.686, 5.690e-4
-1.685, 5.575e-4
-1.684, 5.466e-4
-1.683, 5.357e-4
-1.682, 5.246e-4
-1.681, 5.139e-4
-1.680, 5.039e-4
-1.679, 4.940e-4
-1.678, 4.843e-4
-1.677, 4.748e-4
-1.676, 4.651e-4
-1.675, 4.554e-4
-1.674, 4.460e-4
-1.673, 4.369e-4
-1.672, 4.281e-4
-1.671, 4.192e-4
-1.670, 4.106e-4
-1.669, 4.022e-4
-1.668, 3.938e-4
-1.667, 3.856e-4
-1.666, 3.774e-4
-1.665, 3.695e-4
-1.664, 3.617e-4
-1.663, 3.540e-4
-1.662, 3.466e-4
-1.661, 3.393e-4
-1.660, 3.322e-4
-1.659, 3.250e-4
-1.658, 3.180e-4
-1.657, 3.110e-4
-1.656, 3.043e-4
-1.655, 2.976e-4
-1.654, 2.914e-4
-1.653, 2.850e-4
-1.652, 2.788e-4
-1.651, 2.726e-4
-1.650, 2.666e-4
-1.649, 2.607e-4
-1.648, 2.551e-4
-1.647, 2.494e-4
-1.646, 2.438e-4
-1.645, 2.383e-4
-1.644, 2.329e-4
-1.643, 2.279e-4
-1.642, 2.228e-4
-1.641, 2.178e-4
-1.640, 2.129e-4
-1.639, 2.080e-4
-1.638, 2.032e-4
-1.637, 1.986e-4
-1.636, 1.941e-4
-1.635, 1.897e-4
-1.634, 1.854e-4
-1.633, 1.812e-4
-1.632, 1.770e-4
-1.631, 1.729e-4
-1.630, 1.689e-4
-1.629, 1.651e-4
-1.628, 1.612e-4
-1.627, 1.574e-4
-1.626, 1.537e-4
-1.625, 1.501e-4
-1.624, 1.467e-4
-1.623, 1.432e-4
-1.622, 1.399e-4
-1.621, 1.366e-4
-1.620, 1.334e-4
-1.619, 1.303e-4
-1.618, 1.272e-4
-1.617, 1.243e-4
-1.616, 1.213e-4
-1.615, 1.184e-4
-1.614, 1.156e-4
-1.613, 1.129e-4
-1.612, 1.102e-4
-1.611, 1.075e-4
-1.610, 1.050e-4
-1.609, 1.025e-4
-1.608, 1.000e-4
-1.607, 9.768e-5
-1.606, 9.536e-5
-1.605, 9.311e-5
-1.604, 9.085e-5
-1.603, 8.868e-5
-1.602, 8.658e-5
-1.601, 8.443e-5
-1.600, 8.249e-5
-1.599, 8.051e-5
-1.598, 7.856e-5
-1.597, 7.668e-5
-1.596, 7.478e-5
-1.595, 7.300e-5
-1.594, 7.121e-5
-1.593, 6.947e-5
-1.592, 6.779e-5
-1.591, 6.615e-5
-1.590, 6.458e-5
-1.589, 6.298e-5
-1.588, 6.148e-5
-1.587, 5.995e-5
-1.586, 5.850e-5
-1.585, 5.710e-5
-1.584, 5.573e-5
-1.583, 5.440e-5
-1.582, 5.308e-5
-1.581, 5.179e-5
-1.580, 5.057e-5
-1.579, 4.937e-5
-1.578, 4.815e-5
-1.577, 4.697e-5
-1.576, 4.587e-5
-1.575, 4.472e-5
-1.574, 4.370e-5
-1.573, 4.266e-5
-1.572, 4.164e-5
-1.571, 4.061e-5
-1.570, 3.963e-5
-1.569, 3.870e-5
-1.568, 3.780e-5
-1.567, 3.690e-5
-1.566, 3.602e-5
-1.565, 3.516e-5
-1.564, 3.436e-5
-1.563, 3.352e-5
-1.562, 3.273e-5
-1.561, 3.193e-5
-1.560, 3.115e-5
-1.559, 3.043e-5
-1.558, 2.972e-5
-1.557, 2.902e-5
-1.556, 2.831e-5
-1.555, 2.767e-5
-1.554, 2.702e-5
-1.553, 2.635e-5
-1.552, 2.575e-5
-1.551, 2.515e-5
-1.550, 2.455e-5
-1.549, 2.395e-5
-1.548, 2.339e-5
-1.547, 2.284e-5
-1.546, 2.231e-5
-1.545, 2.179e-5
-1.544, 2.129e-5
-1.543, 2.084e-5
-1.542, 2.032e-5
-1.541, 1.984e-5
-1.540, 1.941e-5
-1.539, 1.894e-5
-1.538, 1.852e-5
-1.537, 1.810e-5
-1.536, 1.765e-5
-1.535, 1.726e-5
-1.534, 1.685e-5
-1.533, 1.650e-5
-1.532, 1.611e-5
-1.531, 1.575e-5
-1.530, 1.537e-5
-1.529, 1.501e-5
-1.528, 1.470e-5
-1.527, 1.436e-5
-1.526, 1.403e-5
-1.525, 1.374e-5
-1.524, 1.340e-5
-1.523, 1.310e-5
-1.522, 1.281e-5
-1.521, 1.253e-5
-1.520, 1.224e-5
-1.519, 1.200e-5
-1.518, 1.173e-5
-1.517, 1.145e-5
-1.516, 1.123e-5
-1.515, 1.097e-5
-1.514, 1.074e-5
-1.513, 1.049e-5
-1.512, 1.030e-5
-1.511, 1.005e-5
-1.510, 9.813e-6
-1.509, 9.640e-6
-1.508, 9.423e-6
-1.507, 9.224e-6
-1.506, 9.019e-6
-1.505, 8.833e-6
-1.504, 8.663e-6
-1.503, 8.484e-6
-1.502, 8.300e-6
-1.501, 8.134e-6
-1.500, 7.948e-6
-1.499, 7.814e-6
-1.498, 7.616e-6
-1.497, 7.462e-6
-1.496, 7.311e-6
-1.495, 7.158e-6
-1.494, 7.009e-6
-1.493, 6.873e-6
-1.492, 6.752e-6
-1.491, 6.595e-6
-1.490, 6.485e-6
-1.489, 6.362e-6
-1.488, 6.239e-6
-1.487, 6.127e-6
-1.486, 5.972e-6
-1.485, 5.885e-6
-1.484, 5.712e-6
-1.483, 5.612e-6
-1.482, 5.504e-6
-1.481, 5.395e-6
-1.480, 5.292e-6
-1.479, 5.159e-6
-1.478, 5.091e-6
-1.477, 4.980e-6
-1.476, 4.889e-6
-1.475, 4.830e-6
-1.474, 4.698e-6
-1.473, 4.646e-6
-1.472, 4.545e-6
-1.471, 4.466e-6
-1.470, 4.391e-6
-1.469, 4.295e-6
-1.468, 4.263e-6
-1.467, 4.132e-6
-1.466, 4.074e-6
-1.465, 3.979e-6
-1.464, 3.918e-6
-1.463, 3.881e-6
-1.462, 3.792e-6
-1.461, 3.733e-6
-1.460, 3.641e-6
-1.459, 3.567e-6
-1.458, 3.511e-6
-1.457, 3.456e-6
-1.456, 3.361e-6
-1.455, 3.316e-6
-1.454, 3.257e-6
-1.453, 3.193e-6
-1.452, 3.115e-6
-1.451, 3.091e-6
-1.450, 3.006e-6
-1.449, 2.981e-6
-1.448, 2.905e-6
-1.447, 2.866e-6
-1.446, 2.797e-6
-1.445, 2.736e-6
-1.444, 2.706e-6
-1.443, 2.662e-6
-1.442, 2.638e-6
-1.441, 2.533e-6
-1.440, 2.507e-6
-1.439, 2.480e-6
-1.438, 2.413e-6
-1.437, 2.387e-6
-1.436, 2.338e-6
-1.435, 2.293e-6
-1.434, 2.268e-6
-1.433, 2.177e-6
-1.432, 2.186e-6
-1.431, 2.110e-6
-1.430, 2.092e-6
-1.429, 2.035e-6
-1.428, 2.016e-6
-1.427, 1.972e-6
-1.426, 1.915e-6
-1.425, 1.905e-6
-1.424, 1.859e-6
-1.423, 1.844e-6
-1.422, 1.769e-6
-1.421, 1.749e-6
-1.420, 1.754e-6
-1.419, 1.697e-6
-1.418, 1.692e-6
-1.417, 1.631e-6
-1.416, 1.591e-6
-1.415, 1.610e-6
-1.414, 1.559e-6
-1.413, 1.526e-6
-1.412, 1.472e-6
-1.411, 1.480e-6
-1.410, 1.431e-6
-1.409, 1.410e-6
-1.408, 1.398e-6
-1.407, 1.342e-6
-1.406, 1.358e-6
-1.405, 1.314e-6
-1.404, 1.269e-6
-1.403, 1.254e-6
-1.402, 1.233e-6
-1.401, 1.196e-6
-1.400, 1.167e-6
-1.399, 1.169e-6
-1.398, 1.161e-6
-1.397, 1.126e-6
-1.396, 1.090e-6
-1.395, 1.062e-6
-1.394, 1.064e-6
-1.393, 1.012e-6
-1.392, 1.011e-6
-1.391, 9.765e-7
-1.390, 9.706e-7
-1.389, 9.558e-7
-1.388, 9.361e-7
-1.387, 9.262e-7
-1.386, 8.858e-7
-1.385, 8.729e-7
-1.384, 8.670e-7
-1.383, 8.325e-7
-1.382, 8.404e-7
-1.381, 8.029e-7
-1.380, 8.118e-7
-1.379, 7.763e-7
-1.378, 7.812e-7
-1.377, 7.624e-7
-1.376, 7.062e-7
-1.375, 7.319e-7
-1.374, 7.121e-7
-1.373, 7.200e-7
-1.372, 6.776e-7
-1.371, 6.904e-7
-1.370, 6.766e-7
-1.369, 6.460e-7
-1.368, 6.529e-7
-1.367, 6.036e-7
-1.366, 6.006e-7
-1.365, 6.421e-7
-1.364, 5.918e-7
-1.363, 5.858e-7
-1.362, 5.523e-7
-1.361, 5.493e-7
-1.360, 5.533e-7
-1.359, 5.414e-7
-1.358, 5.158e-7
-1.357, 4.901e-7
-1.356, 5.257e-7
-1.355, 4.793e-7
-1.354, 4.832e-7
-1.353, 4.931e-7
-1.352, 4.526e-7
-1.351, 4.655e-7
-1.350, 4.339e-7
-1.349, 4.092e-7
-1.348, 4.309e-7
-1.347, 4.142e-7
-1.346, 4.112e-7
-1.345, 3.688e-7
-1.344, 3.905e-7
-1.343, 3.629e-7
-1.342, 3.619e-7
-1.341, 3.767e-7
-1.340, 3.352e-7
-1.339, 3.510e-7
-1.338, 3.333e-7
-1.337, 2.938e-7
-1.336, 3.126e-7
-1.335, 2.810e-7
-1.334, 2.908e-7
-1.333, 2.849e-7
-1.332, 2.800e-7
-1.331, 2.701e-7
-1.330, 2.474e-7
-1.329, 2.267e-7
-1.328, 2.247e-7
-1.327, 2.435e-7
-1.326, 1.951e-7
-1.325, 2.109e-7
-1.324, 1.971e-7
-1.323, 2.188e-7
-1.322, 1.784e-7
-1.321, 1.656e-7
-1.320, 1.813e-7
-1.319, 1.646e-7
-1.318, 1.616e-7
-1.317, 1.369e-7
-1.316, 1.399e-7
-1.315, 1.212e-7
-1.314, 9.945e-8
-1.313, 1.064e-7
-1.312, 8.662e-8
-1.311, 1.093e-7
-1.310, 9.353e-8
-1.309, 8.860e-8
-1.308, 6.393e-8
-1.307, 7.380e-8
-1.306, 3.729e-8
-1.305, 4.913e-8
-1.304, 5.998e-8
-1.303, 2.052e-8
-1.302, 3.039e-8
-1.301, 8.682e-9
-1.300, 1.460e-8
-1.299, 2.447e-8
-1.298, -3.157e-9
-1.297, 1.460e-8
-1.296, -3.769e-8
-1.295, -1.894e-8
-1.294, -6.038e-8
-1.293, -4.459e-8
-1.292, -3.769e-8
-1.291, -7.518e-8
-1.290, -4.953e-8
-1.289, -4.755e-8
-1.288, -4.854e-8
-1.287, -5.742e-8
-1.286, -8.208e-8
-1.285, -6.827e-8
-1.284, -8.504e-8
-1.283, -8.998e-8
-1.282, -8.110e-8
-1.281, -9.688e-8
-1.280, -1.176e-7
-1.279, -1.215e-7
-1.278, -1.058e-7
-1.277, -1.314e-7
-1.276, -1.433e-7
-1.275, -1.452e-7
-1.274, -1.511e-7
-1.273, -1.531e-7
-1.272, -1.610e-7
-1.271, -1.719e-7
-1.270, -1.886e-7
-1.269, -1.886e-7
-1.268, -2.005e-7
-1.267, -2.172e-7
-1.266, -1.916e-7
-1.265, -2.271e-7
-1.264, -1.936e-7
-1.263, -1.995e-7
-1.262, -2.291e-7
-1.261, -2.301e-7
-1.260, -2.439e-7
-1.259, -2.439e-7
-1.258, -2.705e-7
-1.257, -2.242e-7
-1.256, -2.429e-7
-1.255, -2.666e-7
-1.254, -2.478e-7
-1.253, -2.616e-7
-1.252, -2.616e-7
-1.251, -2.893e-7
-1.250, -2.468e-7
-1.249, -2.557e-7
-1.248, -2.676e-7
-1.247, -2.804e-7
-1.246, -2.853e-7
-1.245, -2.498e-7
-1.244, -2.843e-7
-1.243, -2.853e-7
-1.242, -2.824e-7
-1.241, -3.228e-7
-1.240, -2.715e-7
-1.239, -3.218e-7
-1.238, -2.981e-7
-1.237, -3.228e-7
-1.236, -3.179e-7
-1.235, -3.228e-7
-1.234, -3.455e-7
-1.233, -3.248e-7
-1.232, -3.790e-7
-1.231, -3.564e-7
-1.230, -3.633e-7
-1.229, -4.027e-7
-1.228, -3.781e-7
-1.227, -4.057e-7
-1.226, -3.958e-7
-1.225, -4.156e-7
-1.224, -4.274e-7
-1.223, -4.047e-7
-1.222, -4.560e-7
-1.221, -4.402e-7
-1.220, -4.629e-7
-1.219, -4.323e-7
-1.218, -4.600e-7
-1.217, -4.609e-7
-1.216, -4.382e-7
-1.215, -5.024e-7
-1.214, -4.560e-7
-1.213, -5.034e-7
-1.212, -5.043e-7
-1.211, -4.826e-7
-1.210, -5.113e-7
-1.209, -4.846e-7
-1.208, -5.172e-7
-1.207, -5.261e-7
-1.206, -5.162e-7
-1.205, -5.261e-7
-1.204, -5.024e-7
-1.203, -5.655e-7
-1.202, -5.517e-7
-1.201, -5.507e-7
-1.200, -5.685e-7
-1.199, -5.655e-7
-1.198, -5.931e-7
-1.197, -5.478e-7
-1.196, -5.566e-7
-1.195, -5.468e-7
-1.194, -5.586e-7
-1.193, -6.020e-7
-1.192, -5.547e-7
-1.191, -5.852e-7
-1.190, -5.981e-7
-1.189, -6.188e-7
-1.188, -5.991e-7
-1.187, -6.030e-7
-1.186, -6.208e-7
-1.185, -5.931e-7
-1.184, -6.227e-7
-1.183, -6.277e-7
-1.182, -6.395e-7
-1.181, -6.504e-7
-1.180, -6.287e-7
-1.179, -6.731e-7
-1.178, -6.938e-7
-1.177, -6.829e-7
-1.176, -7.165e-7
-1.175, -6.583e-7
-1.174, -7.125e-7
-1.173, -7.145e-7
-1.172, -7.017e-7
-1.171, -7.530e-7
-1.170, -7.342e-7
-1.169, -7.441e-7
-1.168, -7.549e-7
-1.167, -7.668e-7
-1.166, -7.599e-7
-1.165, -7.451e-7
-1.164, -7.905e-7
-1.163, -7.757e-7
-1.162, -7.954e-7
-1.161, -8.141e-7
-1.160, -7.865e-7
-1.159, -8.339e-7
-1.158, -8.161e-7
-1.157, -8.536e-7
-1.156, -8.388e-7
-1.155, -8.506e-7
-1.154, -8.615e-7
-1.153, -8.595e-7
-1.152, -9.029e-7
-1.151, -9.019e-7
-1.150, -9.089e-7
-1.149, -9.256e-7
-1.148, -9.029e-7
-1.147, -9.276e-7
-1.146, -9.503e-7
-1.145, -9.532e-7
-1.144, -9.700e-7
-1.143, -9.759e-7
-1.142, -1.001e-6
-1.141, -9.967e-7
-1.140, -1.024e-6
-1.139, -1.034e-6
-1.138, -1.012e-6
-1.137, -1.045e-6
-1.136, -1.021e-6
-1.135, -1.073e-6
-1.134, -1.100e-6
-1.133, -1.049e-6
-1.132, -1.086e-6
-1.131, -1.087e-6
-1.130, -1.123e-6
-1.129, -1.105e-6
-1.128, -1.120e-6
-1.127, -1.126e-6
-1.126, -1.132e-6
-1.125, -1.162e-6
-1.124, -1.176e-6
-1.123, -1.181e-6
-1.122, -1.185e-6
-1.121, -1.183e-6
-1.120, -1.220e-6
-1.119, -1.223e-6
-1.118, -1.226e-6
-1.117, -1.225e-6
-1.116, -1.241e-6
-1.115, -1.243e-6
-1.114, -1.243e-6
-1.113, -1.286e-6
-1.112, -1.267e-6
-1.111, -1.311e-6
-1.110, -1.318e-6
-1.109, -1.313e-6
-1.108, -1.338e-6
-1.107, -1.361e-6
-1.106, -1.373e-6
-1.105, -1.382e-6
-1.104, -1.387e-6
-1.103, -1.408e-6
-1.102, -1.386e-6
-1.101, -1.436e-6
-1.100, -1.436e-6
-1.099, -1.448e-6
-1.098, -1.475e-6
-1.097, -1.446e-6
-1.096, -1.507e-6
-1.095, -1.480e-6
-1.094, -1.507e-6
-1.093, -1.513e-6
-1.092, -1.533e-6
-1.091, -1.545e-6
-1.090, -1.547e-6
-1.089, -1.580e-6
-1.088, -1.570e-6
-1.087, -1.586e-6
-1.086, -1.604e-6
-1.085, -1.640e-6
-1.084, -1.619e-6
-1.083, -1.653e-6
-1.082, -1.644e-6
-1.081, -1.644e-6
-1.080, -1.653e-6
-1.079, -1.685e-6
-1.078, -1.680e-6
-1.077, -1.727e-6
-1.076, -1.720e-6
-1.075, -1.754e-6
-1.074, -1.770e-6
-1.073, -1.753e-6
-1.072, -1.801e-6
-1.071, -1.804e-6
-1.070, -1.812e-6
-1.069, -1.816e-6
-1.068, -1.840e-6
-1.067, -1.878e-6
-1.066, -1.861e-6
-1.065, -1.894e-6
-1.064, -1.901e-6
-1.063, -1.900e-6
-1.062, -1.977e-6
-1.061, -1.937e-6
-1.060, -1.979e-6
-1.059, -1.992e-6
-1.058, -2.004e-6
-1.057, -2.024e-6
-1.056, -2.027e-6
-1.055, -2.062e-6
-1.054, -2.067e-6
-1.053, -2.097e-6
-1.052, -2.130e-6
-1.051, -2.109e-6
-1.050, -2.168e-6
-1.049, -2.153e-6
-1.048, -2.177e-6
-1.047, -2.213e-6
-1.046, -2.199e-6
-1.045, -2.229e-6
-1.044, -2.235e-6
-1.043, -2.272e-6
-1.042, -2.266e-6
-1.041, -2.285e-6
-1.040, -2.302e-6
-1.039, -2.318e-6
-1.038, -2.333e-6
-1.037, -2.356e-6
-1.036, -2.394e-6
-1.035, -2.410e-6
-1.034, -2.409e-6
-1.033, -2.403e-6
-1.032, -2.471e-6
-1.031, -2.471e-6
-1.030, -2.506e-6
-1.029, -2.508e-6
-1.028, -2.542e-6
-1.027, -2.539e-6
-1.026, -2.554e-6
-1.025, -2.606e-6
-1.024, -2.576e-6
-1.023, -2.653e-6
-1.022, -2.651e-6
-1.021, -2.641e-6
-1.020, -2.685e-6
-1.019, -2.690e-6
-1.018, -2.718e-6
-1.017, -2.719e-6
-1.016, -2.767e-6
-1.015, -2.760e-6
-1.014, -2.767e-6
-1.013, -2.801e-6
-1.012, -2.808e-6
-1.011, -2.881e-6
-1.010, -2.842e-6
-1.009, -2.858e-6
-1.008, -2.902e-6
-1.007, -2.881e-6
-1.006, -2.951e-6
-1.005, -2.935e-6
-1.004, -2.950e-6
-1.003, -2.963e-6
-1.002, -2.978e-6
-1.001, -3.006e-6
-1.000, -2.760e-6
-1.001, -2.475e-6
-1.002, -2.328e-6
-1.003, -2.136e-6
-1.004, -1.998e-6
-1.005, -1.830e-6
-1.006, -1.738e-6
-1.007, -1.619e-6
-1.008, -1.509e-6
-1.009, -1.404e-6
-1.010, -1.307e-6
-1.011, -1.240e-6
-1.012, -1.142e-6
-1.013, -1.084e-6
-1.014, -1.002e-6
-1.015, -9.217e-7
-1.016, -8.664e-7
-1.017, -7.875e-7
-1.018, -7.392e-7
-1.019, -6.948e-7
-1.020, -6.227e-7
-1.021, -5.852e-7
-1.022, -5.182e-7
-1.023, -5.221e-7
-1.024, -4.185e-7
-1.025, -3.938e-7
-1.026, -3.564e-7
-1.027, -3.051e-7
-1.028, -2.873e-7
-1.029, -2.271e-7
-1.030, -2.182e-7
-1.031, -1.798e-7
-1.032, -1.344e-7
-1.033, -1.275e-7
-1.034, -5.742e-8
-1.035, -6.334e-8
-1.036, -8.090e-9
-1.037, 2.052e-8
-1.038, 1.362e-8
-1.039, 9.156e-8
-1.040, 7.774e-8
-1.041, 1.182e-7
-1.042, 1.419e-7
-1.043, 1.695e-7
-1.044, 1.981e-7
-1.045, 2.001e-7
-1.046, 2.208e-7
-1.047, 2.474e-7
-1.048, 2.622e-7
-1.049, 3.007e-7
-1.050, 3.155e-7
-1.051, 3.491e-7
-1.052, 3.333e-7
-1.053, 3.708e-7
-1.054, 4.092e-7
-1.055, 3.905e-7
-1.056, 4.359e-7
-1.057, 4.369e-7
-1.058, 4.388e-7
-1.059, 4.793e-7
-1.060, 4.753e-7
-1.061, 5.118e-7
-1.062, 4.793e-7
-1.063, 5.306e-7
-1.064, 5.464e-7
-1.065, 5.316e-7
-1.066, 5.918e-7
-1.067, 5.513e-7
-1.068, 5.888e-7
-1.069, 6.026e-7
-1.070, 6.322e-7
-1.071, 6.460e-7
-1.072, 6.115e-7
-1.073, 6.677e-7
-1.074, 6.579e-7
-1.075, 6.855e-7
-1.076, 6.963e-7
-1.077, 6.884e-7
-1.078, 7.309e-7
-1.079, 7.003e-7
-1.080, 7.437e-7
-1.081, 7.328e-7
-1.082, 7.309e-7
-1.083, 7.565e-7
-1.084, 7.496e-7
-1.085, 7.881e-7
-1.086, 7.703e-7
-1.087, 7.802e-7
-1.088, 8.187e-7
-1.089, 8.118e-7
-1.090, 8.098e-7
-1.091, 8.177e-7
-1.092, 8.364e-7
-1.093, 8.591e-7
-1.094, 8.572e-7
-1.095, 8.828e-7
-1.096, 8.838e-7
-1.097, 8.937e-7
-1.098, 9.006e-7
-1.099, 9.045e-7
-1.100, 9.045e-7
-1.101, 9.262e-7
-1.102, 9.400e-7
-1.103, 9.450e-7
-1.104, 9.509e-7
-1.105, 9.548e-7
-1.106, 9.617e-7
-1.107, 9.627e-7
-1.108, 9.716e-7
-1.109, 1.016e-6
-1.110, 1.003e-6
-1.111, 1.021e-6
-1.112, 1.023e-6
-1.113, 1.009e-6
-1.114, 1.070e-6
-1.115, 1.036e-6
-1.116, 1.066e-6
-1.117, 1.074e-6
-1.118, 1.077e-6
-1.119, 1.072e-6
-1.120, 1.079e-6
-1.121, 1.102e-6
-1.122, 1.094e-6
-1.123, 1.084e-6
-1.124, 1.118e-6
-1.125, 1.094e-6
-1.126, 1.148e-6
-1.127, 1.145e-6
-1.128, 1.155e-6
-1.129, 1.180e-6
-1.130, 1.158e-6
-1.131, 1.181e-6
-1.132, 1.178e-6
-1.133, 1.187e-6
-1.134, 1.208e-6
-1.135, 1.187e-6
-1.136, 1.229e-6
-1.137, 1.233e-6
-1.138, 1.247e-6
-1.139, 1.275e-6
-1.140, 1.233e-6
-1.141, 1.286e-6
-1.142, 1.289e-6
-1.143, 1.300e-6
-1.144, 1.310e-6
-1.145, 1.324e-6
-1.146, 1.325e-6
-1.147, 1.323e-6
-1.148, 1.335e-6
-1.149, 1.344e-6
-1.150, 1.344e-6
-1.151, 1.367e-6
-1.152, 1.387e-6
-1.153, 1.385e-6
-1.154, 1.397e-6
-1.155, 1.379e-6
-1.156, 1.421e-6
-1.157, 1.410e-6
-1.158, 1.421e-6
-1.159, 1.437e-6
-1.160, 1.425e-6
-1.161, 1.452e-6
-1.162, 1.440e-6
-1.163, 1.442e-6
-1.164, 1.462e-6
-1.165, 1.477e-6
-1.166, 1.495e-6
-1.167, 1.488e-6
-1.168, 1.485e-6
-1.169, 1.488e-6
-1.170, 1.500e-6
-1.171, 1.527e-6
-1.172, 1.504e-6
-1.173, 1.528e-6
-1.174, 1.526e-6
-1.175, 1.535e-6
-1.176, 1.552e-6
-1.177, 1.546e-6
-1.178, 1.590e-6
-1.179, 1.592e-6
-1.180, 1.568e-6
-1.181, 1.602e-6
-1.182, 1.591e-6
-1.183, 1.616e-6
-1.184, 1.605e-6
-1.185, 1.606e-6
-1.186, 1.632e-6
-1.187, 1.611e-6
-1.188, 1.624e-6
-1.189, 1.622e-6
-1.190, 1.645e-6
-1.191, 1.650e-6
-1.192, 1.641e-6
-1.193, 1.684e-6
-1.194, 1.648e-6
-1.195, 1.694e-6
-1.196, 1.656e-6
-1.197, 1.676e-6
-1.198, 1.708e-6
-1.199, 1.675e-6
-1.200, 1.697e-6
-1.201, 1.711e-6
-1.202, 1.713e-6
-1.203, 1.737e-6
-1.204, 1.725e-6
-1.205, 1.751e-6
-1.206, 1.725e-6
-1.207, 1.760e-6
-1.208, 1.775e-6
-1.209, 1.750e-6
-1.210, 1.809e-6
-1.211, 1.780e-6
-1.212, 1.745e-6
-1.213, 1.795e-6
-1.214, 1.799e-6
-1.215, 1.818e-6
-1.216, 1.815e-6
-1.217, 1.832e-6
-1.218, 1.837e-6
-1.219, 1.849e-6
-1.220, 1.877e-6
-1.221, 1.833e-6
-1.222, 1.833e-6
-1.223, 1.837e-6
-1.224, 1.857e-6
-1.225, 1.879e-6
-1.226, 1.845e-6
-1.227, 1.893e-6
-1.228, 1.876e-6
-1.229, 1.914e-6
-1.230, 1.919e-6
-1.231, 1.914e-6
-1.232, 1.955e-6
-1.233, 1.898e-6
-1.234, 1.948e-6
-1.235, 1.948e-6
-1.236, 1.925e-6
-1.237, 1.968e-6
-1.238, 1.974e-6
-1.239, 1.980e-6
-1.240, 1.974e-6
-1.241, 2.008e-6
-1.242, 1.994e-6
-1.243, 1.987e-6
-1.244, 2.023e-6
-1.245, 2.012e-6
-1.246, 2.036e-6
-1.247, 2.040e-6
-1.248, 2.044e-6
-1.249, 2.066e-6
-1.250, 2.059e-6
-1.251, 2.061e-6
-1.252, 2.064e-6
-1.253, 2.082e-6
-1.254, 2.117e-6
-1.255, 2.107e-6
-1.256, 2.133e-6
-1.257, 2.119e-6
-1.258, 2.120e-6
-1.259, 2.164e-6
-1.260, 2.140e-6
-1.261, 2.177e-6
-1.262, 2.185e-6
-1.263, 2.176e-6
-1.264, 2.184e-6
-1.265, 2.183e-6
-1.266, 2.231e-6
-1.267, 2.209e-6
-1.268, 2.220e-6
-1.269, 2.237e-6
-1.270, 2.240e-6
-1.271, 2.273e-6
-1.272, 2.241e-6
-1.273, 2.235e-6
-1.274, 2.287e-6
-1.275, 2.273e-6
-1.276, 2.293e-6
-1.277, 2.287e-6
-1.278, 2.282e-6
-1.279, 2.310e-6
-1.280, 2.324e-6
-1.281, 2.332e-6
-1.282, 2.319e-6
-1.283, 2.305e-6
-1.284, 2.327e-6
-1.285, 2.304e-6
-1.286, 2.348e-6
-1.287, 2.315e-6
-1.288, 2.353e-6
-1.289, 2.351e-6
-1.290, 2.351e-6
-1.291, 2.367e-6
-1.292, 2.374e-6
-1.293, 2.382e-6
-1.294, 2.395e-6
-1.295, 2.396e-6
-1.296, 2.389e-6
-1.297, 2.384e-6
-1.298, 2.415e-6
-1.299, 2.404e-6
-1.300, 2.411e-6
-1.301, 2.413e-6
-1.302, 2.426e-6
-1.303, 2.445e-6
-1.304, 2.454e-6
-1.305, 2.441e-6
-1.306, 2.461e-6
-1.307, 2.438e-6
-1.308, 2.483e-6
-1.309, 2.486e-6
-1.310, 2.490e-6
-1.311, 2.480e-6
-1.312, 2.505e-6
-1.313, 2.515e-6
-1.314, 2.474e-6
-1.315, 2.524e-6
-1.316, 2.517e-6
-1.317, 2.532e-6
-1.318, 2.540e-6
-1.319, 2.530e-6
-1.320, 2.552e-6
-1.321, 2.523e-6
-1.322, 2.581e-6
-1.323, 2.555e-6
-1.324, 2.537e-6
-1.325, 2.597e-6
-1.326, 2.577e-6
-1.327, 2.559e-6
-1.328, 2.571e-6
-1.329, 2.585e-6
-1.330, 2.613e-6
-1.331, 2.590e-6
-1.332, 2.606e-6
-1.333, 2.604e-6
-1.334, 2.627e-6
-1.335, 2.630e-6
-1.336, 2.621e-6
-1.337, 2.631e-6
-1.338, 2.653e-6
-1.339, 2.661e-6
-1.340, 2.657e-6
-1.341, 2.702e-6
-1.342, 2.696e-6
-1.343, 2.660e-6
-1.344, 2.709e-6
-1.345, 2.694e-6
-1.346, 2.709e-6
-1.347, 2.742e-6
-1.348, 2.719e-6
-1.349, 2.738e-6
-1.350, 2.728e-6
-1.351, 2.751e-6
-1.352, 2.782e-6
-1.353, 2.772e-6
-1.354, 2.811e-6
-1.355, 2.801e-6
-1.356, 2.791e-6
-1.357, 2.834e-6
-1.358, 2.807e-6
-1.359, 2.831e-6
-1.360, 2.859e-6
-1.361, 2.857e-6
-1.362, 2.856e-6
-1.363, 2.862e-6
-1.364, 2.903e-6
-1.365, 2.873e-6
-1.366, 2.897e-6
-1.367, 2.925e-6
-1.368, 2.888e-6
-1.369, 2.931e-6
-1.370, 2.932e-6
-1.371, 2.945e-6
-1.372, 2.955e-6
-1.373, 2.982e-6
-1.374, 2.964e-6
-1.375, 2.968e-6
-1.376, 3.025e-6
-1.377, 2.988e-6
-1.378, 3.003e-6
-1.379, 3.007e-6
-1.380, 3.028e-6
-1.381, 3.029e-6
-1.382, 3.039e-6
-1.383, 3.052e-6
-1.384, 3.065e-6
-1.385, 3.073e-6
-1.386, 3.089e-6
-1.387, 3.087e-6
-1.388, 3.090e-6
-1.389, 3.131e-6
-1.390, 3.129e-6
-1.391, 3.142e-6
-1.392, 3.152e-6
-1.393, 3.145e-6
-1.394, 3.167e-6
-1.395, 3.185e-6
-1.396, 3.203e-6
-1.397, 3.196e-6
-1.398, 3.229e-6
-1.399, 3.239e-6
-1.400, 3.252e-6
-1.401, 3.279e-6
-1.402, 3.271e-6
-1.403, 3.269e-6
-1.404, 3.305e-6
-1.405, 3.282e-6
-1.406, 3.340e-6
-1.407, 3.329e-6
-1.408, 3.347e-6
-1.409, 3.368e-6
-1.410, 3.400e-6
-1.411, 3.395e-6
-1.412, 3.392e-6
-1.413, 3.421e-6
-1.414, 3.442e-6
-1.415, 3.432e-6
-1.416, 3.483e-6
-1.417, 3.433e-6
-1.418, 3.493e-6
-1.419, 3.507e-6
-1.420, 3.533e-6
-1.421, 3.562e-6
-1.422, 3.557e-6
-1.423, 3.594e-6
-1.424, 3.592e-6
-1.425, 3.652e-6
-1.426, 3.666e-6
-1.427, 3.663e-6
-1.428, 3.730e-6
-1.429, 3.710e-6
-1.430, 3.719e-6
-1.431, 3.773e-6
-1.432, 3.763e-6
-1.433, 3.796e-6
-1.434, 3.841e-6
-1.435, 3.825e-6
-1.436, 3.850e-6
-1.437, 3.907e-6
-1.438, 3.906e-6
-1.439, 3.916e-6
-1.440, 3.968e-6
-1.441, 3.965e-6
-1.442, 3.973e-6
-1.443, 4.031e-6
-1.444, 4.025e-6
-1.445, 4.064e-6
-1.446, 4.064e-6
-1.447, 4.094e-6
-1.448, 4.132e-6
-1.449, 4.151e-6
-1.450, 4.210e-6
-1.451, 4.194e-6
-1.452, 4.217e-6
-1.453, 4.240e-6
-1.454, 4.249e-6
-1.455, 4.302e-6
-1.456, 4.282e-6
-1.457, 4.351e-6
-1.458, 4.368e-6
-1.459, 4.410e-6
-1.460, 4.458e-6
-1.461, 4.445e-6
-1.462, 4.504e-6
-1.463, 4.499e-6
-1.464, 4.542e-6
-1.465, 4.557e-6
-1.466, 4.574e-6
-1.467, 4.620e-6
-1.468, 4.632e-6
-1.469, 4.678e-6
-1.470, 4.698e-6
-1.471, 4.727e-6
-1.472, 4.758e-6
-1.473, 4.783e-6
-1.474, 4.843e-6
-1.475, 4.860e-6
-1.476, 4.899e-6
-1.477, 4.931e-6
-1.478, 4.950e-6
-1.479, 5.009e-6
-1.480, 5.056e-6
-1.481, 5.068e-6
-1.482, 5.079e-6
-1.483, 5.135e-6
-1.484, 5.137e-6
-1.485, 5.202e-6
-1.486, 5.238e-6
-1.487, 5.248e-6
-1.488, 5.324e-6
-1.489, 5.354e-6
-1.490, 5.411e-6
-1.491, 5.433e-6
-1.492, 5.470e-6
-1.493, 5.584e-6
-1.494, 5.568e-6
-1.495, 5.644e-6
-1.496, 5.640e-6
-1.497, 5.689e-6
-1.498, 5.737e-6
-1.499, 5.806e-6
-1.500, 5.880e-6
-1.501, 5.888e-6
-1.502, 5.943e-6
-1.503, 5.998e-6
-1.504, 6.047e-6
-1.505, 6.122e-6
-1.506, 6.138e-6
-1.507, 6.197e-6
-1.508, 6.264e-6
-1.509, 6.313e-6
-1.510, 6.380e-6
-1.511, 6.396e-6
-1.512, 6.487e-6
-1.513, 6.513e-6
-1.514, 6.582e-6
-1.515, 6.664e-6
-1.516, 6.681e-6
-1.517, 6.765e-6
-1.518, 6.845e-6
-1.519, 6.924e-6
-1.520, 6.982e-6
-1.521, 7.043e-6
-1.522, 7.107e-6
-1.523, 7.161e-6
-1.524, 7.246e-6
-1.525, 7.294e-6
-1.526, 7.361e-6
-1.527, 7.435e-6
-1.528, 7.510e-6
-1.529, 7.590e-6
-1.530, 7.701e-6
-1.531, 7.722e-6
-1.532, 7.825e-6
-1.533, 7.922e-6
-1.534, 7.987e-6
-1.535, 8.083e-6
-1.536, 8.179e-6
-1.537, 8.243e-6
-1.538, 8.351e-6
-1.539, 8.417e-6
-1.540, 8.525e-6
-1.541, 8.595e-6
-1.542, 8.716e-6
-1.543, 8.801e-6
-1.544, 8.883e-6
-1.545, 9.011e-6
-1.546, 9.075e-6
-1.547, 9.213e-6
-1.548, 9.355e-6
-1.549, 9.400e-6
-1.550, 9.531e-6
-1.551, 9.649e-6
-1.552, 9.755e-6
-1.553, 9.907e-6
-1.554, 1.000e-5
-1.555, 1.017e-5
-1.556, 1.026e-5
-1.557, 1.034e-5
-1.558, 1.052e-5
-1.559, 1.066e-5
-1.560, 1.082e-5
-1.561, 1.091e-5
-1.562, 1.108e-5
-1.563, 1.125e-5
-1.564, 1.137e-5
-1.565, 1.153e-5
-1.566, 1.169e-5
-1.567, 1.185e-5
-1.568, 1.199e-5
-1.569, 1.216e-5
-1.570, 1.231e-5
-1.571, 1.250e-5
-1.572, 1.271e-5
-1.573, 1.289e-5
-1.574, 1.305e-5
-1.575, 1.326e-5
-1.576, 1.346e-5
-1.577, 1.367e-5
-1.578, 1.391e-5
-1.579, 1.411e-5
-1.580, 1.432e-5
-1.581, 1.457e-5
-1.582, 1.481e-5
-1.583, 1.504e-5
-1.584, 1.530e-5
-1.585, 1.554e-5
-1.586, 1.581e-5
-1.587, 1.605e-5
-1.588, 1.632e-5
-1.589, 1.659e-5
-1.590, 1.690e-5
-1.591, 1.719e-5
-1.592, 1.748e-5
-1.593, 1.778e-5
-1.594, 1.807e-5
-1.595, 1.841e-5
-1.596, 1.877e-5
-1.597, 1.910e-5
-1.598, 1.947e-5
-1.599, 1.981e-5
-1.600, 2.017e-5
-1.601, 2.055e-5
-1.602, 2.095e-5
-1.603, 2.138e-5
-1.604, 2.177e-5
-1.605, 2.221e-5
-1.606, 2.263e-5
-1.607, 2.309e-5
-1.608, 2.353e-5
-1.609, 2.400e-5
-1.610, 2.449e-5
-1.611, 2.498e-5
-1.612, 2.549e-5
-1.613, 2.605e-5
-1.614, 2.657e-5
-1.615, 2.714e-5
-1.616, 2.769e-5
-1.617, 2.830e-5
-1.618, 2.889e-5
-1.619, 2.955e-5
-1.620, 3.019e-5
-1.621, 3.080e-5
-1.622, 3.149e-5
-1.623, 3.219e-5
-1.624, 3.293e-5
-1.625, 3.364e-5
-1.626, 3.439e-5
-1.627, 3.517e-5
-1.628, 3.598e-5
-1.629, 3.681e-5
-1.630, 3.766e-5
-1.631, 3.853e-5
-1.632, 3.939e-5
-1.633, 4.036e-5
-1.634, 4.130e-5
-1.635, 4.222e-5
-1.636, 4.331e-5
-1.637, 4.430e-5
-1.638, 4.543e-5
-1.639, 4.654e-5
-1.640, 4.766e-5
-1.641, 4.886e-5
-1.642, 5.000e-5
-1.643, 5.124e-5
-1.644, 5.252e-5
-1.645, 5.384e-5
-1.646, 5.518e-5
-1.647, 5.655e-5
-1.648, 5.799e-5
-1.649, 5.940e-5
-1.650, 6.093e-5
-1.651, 6.246e-5
-1.652, 6.407e-5
-1.653, 6.573e-5
-1.654, 6.740e-5
-1.655, 6.917e-5
-1.656, 7.096e-5
-1.657, 7.281e-5
-1.658, 7.469e-5
-1.659, 7.664e-5
-1.660, 7.863e-5
-1.661, 8.064e-5
-1.662, 8.275e-5
-1.663, 8.494e-5
-1.664, 8.722e-5
-1.665, 8.958e-5
-1.666, 9.195e-5
-1.667, 9.440e-5
-1.668, 9.690e-5
-1.669, 9.949e-5
-1.670, 1.021e-4
-1.671, 1.049e-4
-1.672, 1.077e-4
-1.673, 1.106e-4
-1.674, 1.136e-4
-1.675, 1.167e-4
-1.676, 1.198e-4
-1.677, 1.230e-4
-1.678, 1.263e-4
-1.679, 1.297e-4
-1.680, 1.332e-4
-1.681, 1.369e-4
-1.682, 1.406e-4
-1.683, 1.445e-4
-1.684, 1.485e-4
-1.685, 1.525e-4
-1.686, 1.566e-4
-1.687, 1.609e-4
-1.688, 1.652e-4
-1.689, 1.698e-4
-1.690, 1.744e-4
-1.691, 1.793e-4
-1.692, 1.842e-4
-1.693, 1.893e-4
-1.694, 1.945e-4
-1.695, 1.997e-4
-1.696, 2.053e-4
-1.697, 2.108e-4
-1.698, 2.166e-4
-1.699, 2.226e-4
-1.700, 2.286e-4
-1.701, 2.348e-4
-1.702, 2.412e-4
-1.703, 2.478e-4
-1.704, 2.546e-4
-1.705, 2.616e-4
-1.706, 2.687e-4
-1.707, 2.759e-4
-1.708, 2.834e-4
-1.709, 2.910e-4
-1.710, 2.990e-4
-1.711, 3.070e-4
-1.712, 3.152e-4
-1.713, 3.237e-4
-1.714, 3.326e-4
-1.715, 3.416e-4
-1.716, 3.508e-4
-1.717, 3.602e-4
-1.718, 3.697e-4
-1.719, 3.793e-4
-1.720, 3.892e-4
-1.721, 3.995e-4
-1.722, 4.102e-4
-1.723, 4.212e-4
-1.724, 4.324e-4
-1.725, 4.441e-4
-1.726, 4.557e-4
-1.727, 4.674e-4
-1.728, 4.791e-4
-1.729, 4.916e-4
-1.730, 5.043e-4
-1.731, 5.174e-4
-1.732, 5.312e-4
-1.733, 5.451e-4
-1.734, 5.594e-4
-1.735, 5.737e-4
-1.736, 5.883e-4
-1.737, 6.031e-4
-1.738, 6.182e-4
-1.739, 6.340e-4
-1.740, 6.500e-4
-1.741, 6.663e-4
-1.742, 6.830e-4
-1.743, 6.999e-4
-1.744, 7.175e-4
-1.745, 7.353e-4
-1.746, 7.533e-4
-1.747, 7.714e-4
-1.748, 7.902e-4
-1.749, 8.093e-4
-1.750, 8.293e-4
-1.751, 8.501e-4
-1.752, 8.709e-4
-1.753, 8.917e-4
-1.754, 9.123e-4
-1.755, 9.336e-4
-1.756, 9.555e-4
-1.757, 9.778e-4
-1.758, 1.001e-3
-1.759, 1.024e-3
-1.760, 1.048e-3
-1.761, 1.072e-3
-1.762, 1.097e-3
-1.763, 1.121e-3
-1.764, 1.145e-3
-1.765, 1.169e-3
-1.766, 1.195e-3
-1.767, 1.223e-3
-1.768, 1.250e-3
-1.769, 1.279e-3
-1.770, 1.307e-3
-1.771, 1.336e-3
-1.772, 1.364e-3
-1.773, 1.392e-3
-1.774, 1.421e-3
-1.775, 1.450e-3
-1.776, 1.481e-3
-1.777, 1.513e-3
-1.778, 1.546e-3
-1.779, 1.580e-3
-1.780, 1.611e-3
-1.781, 1.643e-3
-1.782, 1.676e-3
-1.783, 1.710e-3
-1.784, 1.744e-3
-1.785, 1.776e-3
-1.786, 1.810e-3
-1.787, 1.845e-3
-1.788, 1.880e-3
-1.789, 1.915e-3
-1.790, 1.954e-3
-1.791, 1.990e-3
-1.792, 2.027e-3
-1.793, 2.067e-3
-1.794, 2.108e-3
-1.795, 2.145e-3
-1.796, 2.183e-3
-1.797, 2.216e-3
-1.798, 2.256e-3
-1.799, 2.298e-3
-1.800, 2.339e-3
-1.801, 2.379e-3
-1.802, 2.423e-3
-1.803, 2.465e-3
-1.804, 2.503e-3
-1.805, 2.547e-3
-1.806, 2.594e-3
-1.807, 2.637e-3
-1.808, 2.677e-3
-1.809, 2.720e-3
-1.810, 2.767e-3
-1.811, 2.812e-3
-1.812, 2.860e-3
-1.813, 2.908e-3
-1.814, 2.954e-3
-1.815, 2.998e-3
-1.816, 3.043e-3
-1.817, 3.084e-3
-1.818, 3.133e-3
-1.819, 3.180e-3
-1.820, 3.227e-3
-1.821, 3.277e-3
-1.822, 3.326e-3
-1.823, 3.376e-3
-1.824, 3.426e-3
-1.825, 3.476e-3
-1.826, 3.525e-3
-1.827, 3.576e-3
-1.828, 3.621e-3
-1.829, 3.663e-3
-1.830, 3.710e-3
-1.831, 3.760e-3
-1.832, 3.814e-3
-1.833, 3.870e-3
-1.834, 3.922e-3
-1.835, 3.976e-3
-1.836, 4.025e-3
-1.837, 4.075e-3
-1.838, 4.122e-3
-1.839, 4.180e-3
-1.840, 4.231e-3
-1.841, 4.286e-3
-1.842, 4.339e-3
-1.843, 4.391e-3
-1.844, 4.448e-3
-1.845, 4.503e-3
-1.846, 4.558e-3
-1.847, 4.612e-3
-1.848, 4.670e-3
-1.849, 4.728e-3
-1.850, 4.786e-3
-1.851, 4.844e-3
-1.852, 4.900e-3
-1.853, 4.955e-3
-1.854, 5.009e-3
-1.855, 5.061e-3
-1.856, 5.108e-3
-1.857, 5.158e-3
-1.858, 5.211e-3
-1.859, 5.260e-3
-1.860, 5.321e-3
-1.861, 5.378e-3
-1.862, 5.433e-3
-1.863, 5.496e-3
-1.864, 5.550e-3
-1.865, 5.612e-3
-1.866, 5.658e-3
-1.867, 5.720e-3
-1.868, 5.782e-3
-1.869, 5.819e-3
-1.870, 5.856e-3
-1.871, 5.901e-3
-1.872, 5.977e-3
-1.873, 6.052e-3
-1.874, 6.111e-3
-1.875, 6.162e-3
-1.876, 6.212e-3
-1.877, 6.265e-3
-1.878, 6.318e-3
-1.879, 6.375e-3
-1.880, 6.435e-3
-1.881, 6.496e-3
-1.882, 6.549e-3
-1.883, 6.609e-3
-1.884, 6.678e-3
-1.885, 6.738e-3
-1.886, 6.787e-3
-1.887, 6.840e-3
-1.888, 6.894e-3
-1.889, 6.938e-3
-1.890, 6.993e-3
-1.891, 7.056e-3
-1.892, 7.116e-3
-1.893, 7.181e-3
-1.894, 7.241e-3
-1.895, 7.291e-3
-1.896, 7.323e-3
-1.897, 7.380e-3
-1.898, 7.436e-3
-1.899, 7.492e-3
-1.900, 7.515e-3
-1.899, 7.482e-3
-1.898, 7.437e-3
-1.897, 7.391e-3
-1.896, 7.344e-3
-1.895, 7.300e-3
-1.894, 7.218e-3
-1.893, 7.148e-3
-1.892, 7.106e-3
-1.891, 7.081e-3
-1.890, 7.041e-3
-1.889, 6.993e-3
-1.888, 6.937e-3
-1.887, 6.884e-3
-1.886, 6.816e-3
-1.885, 6.731e-3
-1.884, 6.663e-3
-1.883, 6.612e-3
-1.882, 6.588e-3
-1.881, 6.560e-3
-1.880, 6.511e-3
-1.879, 6.458e-3
-1.878, 6.413e-3
-1.877, 6.362e-3
-1.876, 6.306e-3
-1.875, 6.283e-3
-1.874, 6.221e-3
-1.873, 6.159e-3
-1.872, 6.122e-3
-1.871, 6.073e-3
-1.870, 6.023e-3
-1.869, 5.979e-3
-1.868, 5.922e-3
-1.867, 5.869e-3
-1.866, 5.823e-3
-1.865, 5.769e-3
-1.864, 5.734e-3
-1.863, 5.698e-3
-1.862, 5.645e-3
-1.861, 5.600e-3
-1.860, 5.567e-3
-1.859, 5.528e-3
-1.858, 5.486e-3
-1.857, 5.434e-3
-1.856, 5.385e-3
-1.855, 5.330e-3
-1.854, 5.284e-3
-1.853, 5.257e-3
-1.852, 5.203e-3
-1.851, 5.142e-3
-1.850, 5.106e-3
-1.849, 5.062e-3
-1.848, 5.009e-3
-1.847, 4.988e-3
-1.846, 4.956e-3
-1.845, 4.907e-3
-1.844, 4.855e-3
-1.843, 4.800e-3
-1.842, 4.753e-3
-1.841, 4.718e-3
-1.840, 4.675e-3
-1.839, 4.625e-3
-1.838, 4.591e-3
-1.837, 4.558e-3
-1.836, 4.517e-3
-1.835, 4.470e-3
-1.834, 4.422e-3
-1.833, 4.382e-3
-1.832, 4.336e-3
-1.831, 4.283e-3
-1.830, 4.242e-3
-1.829, 4.203e-3
-1.828, 4.167e-3
-1.827, 4.127e-3
-1.826, 4.085e-3
-1.825, 4.052e-3
-1.824, 4.003e-3
-1.823, 3.955e-3
-1.822, 3.912e-3
-1.821, 3.872e-3
-1.820, 3.834e-3
-1.819, 3.794e-3
-1.818, 3.752e-3
-1.817, 3.714e-3
-1.816, 3.678e-3
-1.815, 3.636e-3
-1.814, 3.604e-3
-1.813, 3.573e-3
-1.812, 3.540e-3
-1.811, 3.507e-3
-1.810, 3.464e-3
-1.809, 3.426e-3
-1.808, 3.406e-3
-1.807, 3.366e-3
-1.806, 3.326e-3
-1.805, 3.290e-3
-1.804, 3.256e-3
-1.803, 3.222e-3
-1.802, 3.188e-3
-1.801, 3.154e-3
-1.800, 3.120e-3
-1.799, 3.080e-3
-1.798, 3.046e-3
-1.797, 3.013e-3
-1.796, 2.975e-3
-1.795, 2.943e-3
-1.794, 2.907e-3
-1.793, 2.872e-3
-1.792, 2.843e-3
-1.791, 2.810e-3
-1.790, 2.776e-3
-1.789, 2.742e-3
-1.788, 2.713e-3
-1.787, 2.680e-3
-1.786, 2.641e-3
-1.785, 2.607e-3
-1.784, 2.580e-3
-1.783, 2.548e-3
-1.782, 2.519e-3
-1.781, 2.491e-3
-1.780, 2.459e-3
-1.779, 2.426e-3
-1.778, 2.395e-3
-1.777, 2.364e-3
-1.776, 2.335e-3
-1.775, 2.302e-3
-1.774, 2.272e-3
-1.773, 2.245e-3
-1.772, 2.216e-3
-1.771, 2.187e-3
-1.770, 2.161e-3
-1.769, 2.133e-3
-1.768, 2.105e-3
-1.767, 2.075e-3
-1.766, 2.047e-3
-1.765, 2.020e-3
-1.764, 1.993e-3
-1.763, 1.968e-3
-1.762, 1.943e-3
-1.761, 1.917e-3
-1.760, 1.891e-3
-1.759, 1.865e-3
-1.758, 1.837e-3
-1.757, 1.811e-3
-1.756, 1.784e-3
-1.755, 1.758e-3
-1.754, 1.731e-3
-1.753, 1.708e-3
-1.752, 1.685e-3
-1.751, 1.662e-3
-1.750, 1.642e-3
-1.749, 1.620e-3
-1.748, 1.595e-3
-1.747, 1.572e-3
-1.746, 1.545e-3
-1.745, 1.522e-3
-1.744, 1.500e-3
-1.743, 1.476e-3
-1.742, 1.454e-3
-1.741, 1.434e-3
-1.740, 1.415e-3
-1.739, 1.393e-3
-1.738, 1.374e-3
-1.737, 1.355e-3
-1.736, 1.332e-3
-1.735, 1.308e-3
-1.734, 1.285e-3
-1.733, 1.267e-3
-1.732, 1.256e-3
-1.731, 1.241e-3
-1.730, 1.224e-3
-1.729, 1.205e-3
-1.728, 1.181e-3
-1.727, 1.161e-3
-1.726, 1.141e-3
-1.725, 1.120e-3
-1.724, 1.101e-3
-1.723, 1.082e-3
-1.722, 1.064e-3
-1.721, 1.048e-3
-1.720, 1.030e-3
-1.719, 1.013e-3
-1.718, 9.963e-4
-1.717, 9.791e-4
-1.716, 9.622e-4
-1.715, 9.460e-4
-1.714, 9.296e-4
-1.713, 9.132e-4
-1.712, 8.969e-4
-1.711, 8.808e-4
-1.710, 8.661e-4
-1.709, 8.511e-4
-1.708, 8.360e-4
-1.707, 8.210e-4
-1.706, 8.066e-4
-1.705, 7.924e-4
-1.704, 7.783e-4
-1.703, 7.644e-4
-1.702, 7.507e-4
-1.701, 7.374e-4
-1.700, 7.240e-4
-1.699, 7.102e-4
-1.698, 6.973e-4
-1.697, 6.843e-4
-1.696, 6.716e-4
-1.695, 6.600e-4
-1.694, 6.489e-4
-1.693, 6.377e-4
-1.692, 6.245e-4
-1.691, 6.168e-4
-1.690, 6.055e-4
-1.689, 5.949e-4
-1.688, 5.830e-4
-1.687, 5.715e-4
-1.686, 5.608e-4
-1.685, 5.502e-4
-1.684, 5.395e-4
-1.683, 5.290e-4
-1.682, 5.189e-4
-1.681, 5.088e-4
-1.680, 4.986e-4
-1.679, 4.885e-4
-1.678, 4.786e-4
-1.677, 4.690e-4
-1.676, 4.597e-4
-1.675, 4.503e-4
-1.674, 4.414e-4
-1.673, 4.327e-4
-1.672, 4.240e-4
-1.671, 4.157e-4
-1.670, 4.068e-4
-1.669, 3.983e-4
-1.668, 3.900e-4
-1.667, 3.821e-4
-1.666, 3.744e-4
-1.665, 3.667e-4
-1.664, 3.590e-4
-1.663, 3.516e-4
-1.662, 3.440e-4
-1.661, 3.368e-4
-1.660, 3.297e-4
-1.659, 3.227e-4
-1.658, 3.159e-4
-1.657, 3.092e-4
-1.656, 3.027e-4
-1.655, 2.964e-4
-1.654, 2.900e-4
-1.653, 2.838e-4
-1.652, 2.777e-4
-1.651, 2.716e-4
-1.650, 2.657e-4
-1.649, 2.599e-4
-1.648, 2.542e-4
-1.647, 2.487e-4
-1.646, 2.433e-4
-1.645, 2.379e-4
-1.644, 2.327e-4
-1.643, 2.276e-4
-1.642, 2.225e-4
-1.641, 2.176e-4
-1.640, 2.128e-4
-1.639, 2.079e-4
-1.638, 2.031e-4
-1.637, 1.986e-4
-1.636, 1.943e-4
-1.635, 1.898e-4
-1.634, 1.856e-4
-1.633, 1.815e-4
-1.632, 1.774e-4
-1.631, 1.733e-4
-1.630, 1.694e-4
-1.629, 1.655e-4
-1.628, 1.617e-4
-1.627, 1.580e-4
-1.626, 1.544e-4
-1.625, 1.508e-4
-1.624, 1.473e-4
-1.623, 1.440e-4
-1.622, 1.407e-4
-1.621, 1.374e-4
-1.620, 1.342e-4
-1.619, 1.311e-4
-1.618, 1.282e-4
-1.617, 1.251e-4
-1.616, 1.222e-4
-1.615, 1.194e-4
-1.614, 1.167e-4
-1.613, 1.140e-4
-1.612, 1.113e-4
-1.611, 1.087e-4
-1.610, 1.062e-4
-1.609, 1.036e-4
-1.608, 1.012e-4
-1.607, 9.885e-5
-1.606, 9.652e-5
-1.605, 9.426e-5
-1.604, 9.201e-5
-1.603, 8.986e-5
-1.602, 8.775e-5
-1.601, 8.566e-5
-1.600, 8.365e-5
-1.599, 8.165e-5
-1.598, 7.971e-5
-1.597, 7.786e-5
-1.596, 7.601e-5
-1.595, 7.420e-5
-1.594, 7.244e-5
-1.593, 7.074e-5
-1.592, 6.905e-5
-1.591, 6.745e-5
-1.590, 6.581e-5
-1.589, 6.423e-5
-1.588, 6.273e-5
-1.587, 6.122e-5
-1.586, 5.981e-5
-1.585, 5.828e-5
-1.584, 5.693e-5
-1.583, 5.558e-5
-1.582, 5.426e-5
-1.581, 5.299e-5
-1.580, 5.172e-5
-1.579, 5.048e-5
-1.578, 4.931e-5
-1.577, 4.815e-5
-1.576, 4.700e-5
-1.575, 4.584e-5
-1.574, 4.476e-5
-1.573, 4.373e-5
-1.572, 4.269e-5
-1.571, 4.165e-5
-1.570, 4.072e-5
-1.569, 3.972e-5
-1.568, 3.880e-5
-1.567, 3.789e-5
-1.566, 3.697e-5
-1.565, 3.611e-5
-1.564, 3.524e-5
-1.563, 3.443e-5
-1.562, 3.362e-5
-1.561, 3.280e-5
-1.560, 3.204e-5
-1.559, 3.124e-5
-1.558, 3.057e-5
-1.557, 2.981e-5
-1.556, 2.916e-5
-1.555, 2.847e-5
-1.554, 2.782e-5
-1.553, 2.714e-5
-1.552, 2.651e-5
-1.551, 2.591e-5
-1.550, 2.530e-5
-1.549, 2.470e-5
-1.548, 2.414e-5
-1.547, 2.358e-5
-1.546, 2.307e-5
-1.545, 2.251e-5
-1.544, 2.202e-5
-1.543, 2.148e-5
-1.542, 2.101e-5
-1.541, 2.054e-5
-1.540, 2.004e-5
-1.539, 1.960e-5
-1.538, 1.914e-5
-1.537, 1.874e-5
-1.536, 1.825e-5
-1.535, 1.786e-5
-1.534, 1.746e-5
-1.533, 1.709e-5
-1.532, 1.671e-5
-1.531, 1.633e-5
-1.530, 1.599e-5
-1.529, 1.557e-5
-1.528, 1.524e-5
-1.527, 1.490e-5
-1.526, 1.457e-5
-1.525, 1.428e-5
-1.524, 1.392e-5
-1.523, 1.362e-5
-1.522, 1.333e-5
-1.521, 1.302e-5
-1.520, 1.274e-5
-1.519, 1.244e-5
-1.518, 1.220e-5
-1.517, 1.195e-5
-1.516, 1.168e-5
-1.515, 1.140e-5
-1.514, 1.118e-5
-1.513, 1.094e-5
-1.512, 1.074e-5
-1.511, 1.048e-5
-1.510, 1.022e-5
-1.509, 1.007e-5
-1.508, 9.817e-6
-1.507, 9.606e-6
-1.506, 9.451e-6
-1.505, 9.217e-6
-1.504, 9.046e-6
-1.503, 8.843e-6
-1.502, 8.658e-6
-1.501, 8.461e-6
-1.500, 8.293e-6
-1.499, 8.157e-6
-1.498, 7.972e-6
-1.497, 7.824e-6
-1.496, 7.625e-6
-1.495, 7.480e-6
-1.494, 7.314e-6
-1.493, 7.182e-6
-1.492, 7.062e-6
-1.491, 6.895e-6
-1.490, 6.749e-6
-1.489, 6.594e-6
-1.488, 6.497e-6
-1.487, 6.353e-6
-1.486, 6.225e-6
-1.485, 6.125e-6
-1.484, 5.996e-6
-1.483, 5.838e-6
-1.482, 5.751e-6
-1.481, 5.621e-6
-1.480, 5.552e-6
-1.479, 5.443e-6
-1.478, 5.365e-6
-1.477, 5.227e-6
-1.476, 5.162e-6
-1.475, 5.019e-6
-1.474, 4.951e-6
-1.473, 4.871e-6
-1.472, 4.734e-6
-1.471, 4.663e-6
-1.470, 4.563e-6
-1.469, 4.483e-6
-1.468, 4.416e-6
-1.467, 4.345e-6
-1.466, 4.266e-6
-1.465, 4.166e-6
-1.464, 4.127e-6
-1.463, 4.063e-6
-1.462, 3.976e-6
-1.461, 3.904e-6
-1.460, 3.816e-6
-1.459, 3.776e-6
-1.458, 3.679e-6
-1.457, 3.635e-6
-1.456, 3.603e-6
-1.455, 3.506e-6
-1.454, 3.425e-6
-1.453, 3.406e-6
-1.452, 3.357e-6
-1.451, 3.281e-6
-1.450, 3.212e-6
-1.449, 3.185e-6
-1.448, 3.127e-6
-1.447, 3.097e-6
-1.446, 3.012e-6
-1.445, 2.975e-6
-1.444, 2.920e-6
-1.443, 2.880e-6
-1.442, 2.844e-6
-1.441, 2.784e-6
-1.440, 2.788e-6
-1.439, 2.740e-6
-1.438, 2.716e-6
-1.437, 2.668e-6
-1.436, 2.638e-6
-1.435, 2.610e-6
-1.434, 2.513e-6
-1.433, 2.490e-6
-1.432, 2.470e-6
-1.431, 2.434e-6
-1.430, 2.405e-6
-1.429, 2.355e-6
-1.428, 2.320e-6
-1.427, 2.267e-6
-1.426, 2.260e-6
-1.425, 2.205e-6
-1.424, 2.216e-6
-1.423, 2.149e-6
-1.422, 2.116e-6
-1.421, 2.065e-6
-1.420, 2.029e-6
-1.419, 2.016e-6
-1.418, 1.978e-6
-1.417, 1.945e-6
-1.416, 1.940e-6
-1.415, 1.871e-6
-1.414, 1.843e-6
-1.413, 1.811e-6
-1.412, 1.780e-6
-1.411, 1.763e-6
-1.410, 1.699e-6
-1.409, 1.715e-6
-1.408, 1.663e-6
-1.407, 1.628e-6
-1.406, 1.614e-6
-1.405, 1.573e-6
-1.404, 1.566e-6
-1.403, 1.528e-6
-1.402, 1.495e-6
-1.401, 1.487e-6
-1.400, 1.448e-6
-1.399, 1.441e-6
-1.398, 1.406e-6
-1.397, 1.402e-6
-1.396, 1.353e-6
-1.395, 1.315e-6
-1.394, 1.356e-6
-1.393, 1.302e-6
-1.392, 1.287e-6
-1.391, 1.233e-6
-1.390, 1.234e-6
-1.389, 1.225e-6
-1.388, 1.195e-6
-1.387, 1.192e-6
-1.386, 1.133e-6
-1.385, 1.151e-6
-1.384, 1.145e-6
-1.383, 1.121e-6
-1.382, 1.109e-6
-1.381, 1.056e-6
-1.380, 1.066e-6
-1.379, 1.002e-6
-1.378, 1.012e-6
-1.377, 1.029e-6
-1.376, 9.519e-7
-1.375, 9.627e-7
-1.374, 9.331e-7
-1.373, 9.272e-7
-1.372, 9.252e-7
-1.371, 8.946e-7
-1.370, 9.144e-7
-1.369, 8.887e-7
-1.368, 8.660e-7
-1.367, 8.414e-7
-1.366, 8.285e-7
-1.365, 8.305e-7
-1.364, 8.177e-7
-1.363, 8.167e-7
-1.362, 8.098e-7
-1.361, 7.615e-7
-1.360, 7.644e-7
-1.359, 7.486e-7
-1.358, 7.526e-7
-1.357, 7.328e-7
-1.356, 7.250e-7
-1.355, 7.072e-7
-1.354, 7.171e-7
-1.353, 7.151e-7
-1.352, 6.687e-7
-1.351, 6.963e-7
-1.350, 6.352e-7
-1.349, 6.302e-7
-1.348, 6.549e-7
-1.347, 6.184e-7
-1.346, 6.223e-7
-1.345, 6.223e-7
-1.344, 6.056e-7
-1.343, 6.135e-7
-1.342, 5.878e-7
-1.341, 5.720e-7
-1.340, 5.750e-7
-1.339, 5.553e-7
-1.338, 5.582e-7
-1.337, 5.385e-7
-1.336, 5.375e-7
-1.335, 5.217e-7
-1.334, 5.247e-7
-1.333, 5.089e-7
-1.332, 5.444e-7
-1.331, 4.842e-7
-1.330, 4.694e-7
-1.329, 4.724e-7
-1.328, 4.388e-7
-1.327, 4.674e-7
-1.326, 4.309e-7
-1.325, 4.467e-7
-1.324, 4.339e-7
-1.323, 4.073e-7
-1.322, 4.280e-7
-1.321, 3.678e-7
-1.320, 3.954e-7
-1.319, 3.737e-7
-1.318, 3.422e-7
-1.317, 3.491e-7
-1.316, 3.303e-7
-1.315, 3.204e-7
-1.314, 2.918e-7
-1.313, 3.224e-7
-1.312, 2.997e-7
-1.311, 2.908e-7
-1.310, 2.899e-7
-1.309, 2.425e-7
-1.308, 2.613e-7
-1.307, 2.721e-7
-1.306, 2.099e-7
-1.305, 2.336e-7
-1.304, 2.178e-7
-1.303, 2.366e-7
-1.302, 2.109e-7
-1.301, 2.050e-7
-1.300, 1.853e-7
-1.299, 1.971e-7
-1.298, 1.705e-7
-1.297, 1.379e-7
-1.296, 1.557e-7
-1.295, 1.241e-7
-1.294, 1.429e-7
-1.293, 1.537e-7
-1.292, 1.330e-7
-1.291, 1.162e-7
-1.290, 1.073e-7
-1.289, 1.152e-7
-1.288, 6.886e-8
-1.287, 8.268e-8
-1.286, 9.156e-8
-1.285, 5.308e-8
-1.284, 7.577e-8
-1.283, 3.236e-8
-1.282, 5.407e-8
-1.281, 1.855e-8
-1.280, 1.756e-8
-1.279, 1.756e-8
-1.278, -1.796e-8
-1.277, 7.893e-10
-1.276, 4.736e-9
-1.275, -1.500e-8
-1.274, -2.190e-8
-1.273, -5.446e-8
-1.272, -1.796e-8
-1.271, -3.177e-8
-1.270, -3.670e-8
-1.269, -6.729e-8
-1.268, -8.307e-8
-1.267, -5.051e-8
-1.266, -9.688e-8
-1.265, -8.406e-8
-1.264, -1.156e-7
-1.263, -9.688e-8
-1.262, -9.590e-8
-1.261, -1.462e-7
-1.260, -1.334e-7
-1.259, -1.650e-7
-1.258, -1.363e-7
-1.257, -1.482e-7
-1.256, -1.738e-7
-1.255, -1.600e-7
-1.254, -2.202e-7
-1.253, -1.442e-7
-1.252, -2.005e-7
-1.251, -2.015e-7
-1.250, -2.113e-7
-1.249, -2.054e-7
-1.248, -2.044e-7
-1.247, -2.340e-7
-1.246, -2.222e-7
-1.245, -2.350e-7
-1.244, -2.439e-7
-1.243, -2.399e-7
-1.242, -2.616e-7
-1.241, -2.320e-7
-1.240, -2.824e-7
-1.239, -2.784e-7
-1.238, -2.794e-7
-1.237, -2.972e-7
-1.236, -2.784e-7
-1.235, -3.307e-7
-1.234, -3.228e-7
-1.233, -3.258e-7
-1.232, -3.268e-7
-1.231, -3.307e-7
-1.230, -3.583e-7
-1.229, -3.277e-7
-1.228, -3.662e-7
-1.227, -3.416e-7
-1.226, -3.534e-7
-1.225, -4.027e-7
-1.224, -3.938e-7
-1.223, -3.840e-7
-1.222, -3.790e-7
-1.221, -4.156e-7
-1.220, -4.195e-7
-1.219, -4.234e-7
-1.218, -4.146e-7
-1.217, -4.373e-7
-1.216, -4.313e-7
-1.215, -4.343e-7
-1.214, -4.639e-7
-1.213, -4.530e-7
-1.212, -4.491e-7
-1.211, -4.629e-7
-1.210, -4.698e-7
-1.209, -4.688e-7
-1.208, -4.540e-7
-1.207, -4.895e-7
-1.206, -4.876e-7
-1.205, -4.925e-7
-1.204, -5.113e-7
-1.203, -5.162e-7
-1.202, -5.349e-7
-1.201, -5.379e-7
-1.200, -5.320e-7
-1.199, -5.261e-7
-1.198, -5.744e-7
-1.197, -5.507e-7
-1.196, -5.626e-7
-1.195, -5.823e-7
-1.194, -5.468e-7
-1.193, -5.704e-7
-1.192, -5.527e-7
-1.191, -5.951e-7
-1.190, -6.208e-7
-1.189, -5.951e-7
-1.188, -6.188e-7
-1.187, -5.774e-7
-1.186, -6.346e-7
-1.185, -6.129e-7
-1.184, -6.395e-7
-1.183, -6.306e-7
-1.182, -6.198e-7
-1.181, -6.711e-7
-1.180, -6.435e-7
-1.179, -6.780e-7
-1.178, -6.425e-7
-1.177, -6.750e-7
-1.176, -6.967e-7
-1.175, -6.494e-7
-1.174, -7.036e-7
-1.173, -6.711e-7
-1.172, -6.957e-7
-1.171, -7.125e-7
-1.170, -7.244e-7
-1.169, -7.263e-7
-1.168, -7.451e-7
-1.167, -7.411e-7
-1.166, -7.451e-7
-1.165, -7.766e-7
-1.164, -7.392e-7
-1.163, -7.668e-7
-1.162, -7.707e-7
-1.161, -7.727e-7
-1.160, -7.776e-7
-1.159, -7.678e-7
-1.158, -7.737e-7
-1.157, -7.530e-7
-1.156, -7.747e-7
-1.155, -7.993e-7
-1.154, -7.826e-7
-1.153, -7.757e-7
-1.152, -7.757e-7
-1.151, -7.737e-7
-1.150, -7.855e-7
-1.149, -7.924e-7
-1.148, -7.638e-7
-1.147, -7.707e-7
-1.146, -8.053e-7
-1.145, -7.727e-7
-1.144, -7.707e-7
-1.143, -7.668e-7
-1.142, -7.895e-7
-1.141, -8.092e-7
-1.140, -7.924e-7
-1.139, -8.319e-7
-1.138, -8.210e-7
-1.137, -8.270e-7
-1.136, -8.240e-7
-1.135, -8.437e-7
-1.134, -8.635e-7
-1.133, -8.418e-7
-1.132, -8.773e-7
-1.131, -8.802e-7
-1.130, -9.049e-7
-1.129, -9.128e-7
-1.128, -9.039e-7
-1.127, -9.069e-7
-1.126, -9.148e-7
-1.125, -9.286e-7
-1.124, -9.375e-7
-1.123, -9.750e-7
-1.122, -9.582e-7
-1.121, -9.611e-7
-1.120, -1.002e-6
-1.119, -9.986e-7
-1.118, -1.008e-6
-1.117, -1.008e-6
-1.116, -1.024e-6
-1.115, -1.023e-6
-1.114, -1.071e-6
-1.113, -1.078e-6
-1.112, -1.068e-6
-1.111, -1.091e-6
-1.110, -1.091e-6
-1.109, -1.134e-6
-1.108, -1.121e-6
-1.107, -1.146e-6
-1.106, -1.171e-6
-1.105, -1.164e-6
-1.104, -1.201e-6
-1.103, -1.187e-6
-1.102, -1.222e-6
-1.101, -1.208e-6
-1.100, -1.234e-6
-1.099, -1.263e-6
-1.098, -1.236e-6
-1.097, -1.280e-6
-1.096, -1.299e-6
-1.095, -1.309e-6
-1.094, -1.317e-6
-1.093, -1.314e-6
-1.092, -1.342e-6
-1.091, -1.354e-6
-1.090, -1.390e-6
-1.089, -1.396e-6
-1.088, -1.406e-6
-1.087, -1.428e-6
-1.086, -1.439e-6
-1.085, -1.458e-6
-1.084, -1.456e-6
-1.083, -1.490e-6
-1.082, -1.468e-6
-1.081, -1.522e-6
-1.080, -1.565e-6
-1.079, -1.512e-6
-1.078, -1.567e-6
-1.077, -1.568e-6
-1.076, -1.619e-6
-1.075, -1.620e-6
-1.074, -1.641e-6
-1.073, -1.653e-6
-1.072, -1.648e-6
-1.071, -1.701e-6
-1.070, -1.688e-6
-1.069, -1.707e-6
-1.068, -1.721e-6
-1.067, -1.745e-6
-1.066, -1.759e-6
-1.065, -1.779e-6
-1.064, -1.795e-6
-1.063, -1.801e-6
-1.062, -1.851e-6
-1.061, -1.848e-6
-1.060, -1.882e-6
-1.059, -1.891e-6
-1.058, -1.912e-6
-1.057, -1.936e-6
-1.056, -1.962e-6
-1.055, -1.954e-6
-1.054, -1.979e-6
-1.053, -2.002e-6
-1.052, -2.014e-6
-1.051, -2.057e-6
-1.050, -2.066e-6
-1.049, -2.071e-6
-1.048, -2.094e-6
-1.047, -2.124e-6
-1.046, -2.159e-6
-1.045, -2.183e-6
-1.044, -2.184e-6
-1.043, -2.214e-6
-1.042, -2.205e-6
-1.041, -2.252e-6
-1.040, -2.256e-6
-1.039, -2.268e-6
-1.038, -2.314e-6
-1.037, -2.308e-6
-1.036, -2.353e-6
-1.035, -2.378e-6
-1.034, -2.409e-6
-1.033, -2.413e-6
-1.032, -2.440e-6
-1.031, -2.463e-6
-1.030, -2.479e-6
-1.029, -2.508e-6
-1.028, -2.514e-6
-1.027, -2.543e-6
-1.026, -2.566e-6
-1.025, -2.573e-6
-1.024, -2.611e-6
-1.023, -2.624e-6
-1.022, -2.656e-6
-1.021, -2.657e-6
-1.020, -2.701e-6
-1.019, -2.723e-6
-1.018, -2.722e-6
-1.017, -2.744e-6
-1.016, -2.767e-6
-1.015, -2.799e-6
-1.014, -2.808e-6
-1.013, -2.855e-6
-1.012, -2.833e-6
-1.011, -2.875e-6
-1.010, -2.915e-6
-1.009, -2.902e-6
-1.008, -2.949e-6
-1.007, -2.945e-6
-1.006, -2.989e-6
-1.005, -2.996e-6
-1.004, -2.993e-6
-1.003, -3.055e-6
-1.002, -3.036e-6
-1.001, -3.097e-6
