Jan. 12, 2025   10:08:11
Cyclic Voltammetry
File: c:/users/guazh/data/banditlqround7_x0exp772_r5/2025-01-10-exp822\exp822-2025-01-12t09_58_03-arkoh\exp822_cv_sr_200mvs_efin_-1500mv.bin
Data Source:  Experiment
Instrument Model:  CHI760E
Header: CV ran at 200 mVs
Note: 

Init E (V) = -1
High E (V) = -1
Low E (V) = -1.5
Final E (V) = -1
Init P/N = N
Scan Rate (V/s) = 0.2
Segment = 3
Sample Interval (V) = 0.001
Quiet Time (sec) = 2
Sensitivity (A/V) = 0.01
Comp R (ohm) = 1.6

Results:

Channel 1:
Segment 1:

Segment 2:

Segment 3:

Potential/V, Current/A

-1.000, -1.279e-4
-1.001, -1.057e-4
-1.002, -8.025e-5
-1.003, -6.351e-5
-1.004, -6.099e-5
-1.005, -4.783e-5
-1.006, -3.091e-5
-1.007, -2.880e-5
-1.008, -2.424e-5
-1.009, -6.711e-6
-1.010, -2.044e-6
-1.011, -2.695e-6
-1.012, 1.238e-5
-1.013, 2.214e-5
-1.014, 1.938e-5
-1.015, 2.862e-5
-1.016, 4.322e-5
-1.017, 4.198e-5
-1.018, 4.525e-5
-1.019, 6.039e-5
-1.020, 6.441e-5
-1.021, 6.189e-5
-1.022, 7.546e-5
-1.023, 8.450e-5
-1.024, 8.148e-5
-1.025, 8.991e-5
-1.026, 1.035e-4
-1.027, 1.019e-4
-1.028, 1.040e-4
-1.029, 1.194e-4
-1.030, 1.228e-4
-1.031, 1.210e-4
-1.032, 1.333e-4
-1.033, 1.435e-4
-1.034, 1.398e-4
-1.035, 1.477e-4
-1.036, 1.618e-4
-1.037, 1.609e-4
-1.038, 1.626e-4
-1.039, 1.789e-4
-1.040, 1.823e-4
-1.041, 1.801e-4
-1.042, 1.934e-4
-1.043, 2.040e-4
-1.044, 2.001e-4
-1.045, 2.083e-4
-1.046, 2.227e-4
-1.047, 2.222e-4
-1.048, 2.241e-4
-1.049, 2.406e-4
-1.050, 2.452e-4
-1.051, 2.430e-4
-1.052, 2.570e-4
-1.053, 2.675e-4
-1.054, 2.643e-4
-1.055, 2.728e-4
-1.056, 2.887e-4
-1.057, 2.884e-4
-1.058, 2.906e-4
-1.059, 3.075e-4
-1.060, 3.130e-4
-1.061, 3.103e-4
-1.062, 3.251e-4
-1.063, 3.368e-4
-1.064, 3.341e-4
-1.065, 3.429e-4
-1.066, 3.598e-4
-1.067, 3.597e-4
-1.068, 3.621e-4
-1.069, 3.797e-4
-1.070, 3.859e-4
-1.071, 3.841e-4
-1.072, 3.988e-4
-1.073, 4.109e-4
-1.074, 4.082e-4
-1.075, 4.177e-4
-1.076, 4.350e-4
-1.077, 4.359e-4
-1.078, 4.384e-4
-1.079, 4.566e-4
-1.080, 4.628e-4
-1.081, 4.615e-4
-1.082, 4.770e-4
-1.083, 4.909e-4
-1.084, 4.885e-4
-1.085, 4.971e-4
-1.086, 5.137e-4
-1.087, 5.163e-4
-1.088, 5.196e-4
-1.089, 5.387e-4
-1.090, 5.448e-4
-1.091, 5.433e-4
-1.092, 5.595e-4
-1.093, 5.733e-4
-1.094, 5.712e-4
-1.095, 5.805e-4
-1.096, 5.989e-4
-1.097, 6.006e-4
-1.098, 6.029e-4
-1.099, 6.224e-4
-1.100, 6.307e-4
-1.101, 6.288e-4
-1.102, 6.450e-4
-1.103, 6.593e-4
-1.104, 6.580e-4
-1.105, 6.672e-4
-1.106, 6.865e-4
-1.107, 6.878e-4
-1.108, 6.911e-4
-1.109, 7.109e-4
-1.110, 7.190e-4
-1.111, 7.164e-4
-1.112, 7.323e-4
-1.113, 7.477e-4
-1.114, 7.462e-4
-1.115, 7.558e-4
-1.116, 7.751e-4
-1.117, 7.773e-4
-1.118, 7.800e-4
-1.119, 8.007e-4
-1.120, 8.085e-4
-1.121, 8.071e-4
-1.122, 8.233e-4
-1.123, 8.392e-4
-1.124, 8.378e-4
-1.125, 8.472e-4
-1.126, 8.664e-4
-1.127, 8.693e-4
-1.128, 8.718e-4
-1.129, 8.920e-4
-1.130, 9.000e-4
-1.131, 8.980e-4
-1.132, 9.145e-4
-1.133, 9.304e-4
-1.134, 9.285e-4
-1.135, 9.376e-4
-1.136, 9.571e-4
-1.137, 9.591e-4
-1.138, 9.621e-4
-1.139, 9.822e-4
-1.140, 9.917e-4
-1.141, 9.894e-4
-1.142, 1.005e-3
-1.143, 1.020e-3
-1.144, 1.018e-3
-1.145, 1.027e-3
-1.146, 1.048e-3
-1.147, 1.049e-3
-1.148, 1.051e-3
-1.149, 1.071e-3
-1.150, 1.081e-3
-1.151, 1.078e-3
-1.152, 1.093e-3
-1.153, 1.108e-3
-1.154, 1.106e-3
-1.155, 1.115e-3
-1.156, 1.136e-3
-1.157, 1.137e-3
-1.158, 1.138e-3
-1.159, 1.159e-3
-1.160, 1.168e-3
-1.161, 1.165e-3
-1.162, 1.180e-3
-1.163, 1.195e-3
-1.164, 1.192e-3
-1.165, 1.199e-3
-1.166, 1.218e-3
-1.167, 1.221e-3
-1.168, 1.221e-3
-1.169, 1.242e-3
-1.170, 1.250e-3
-1.171, 1.247e-3
-1.172, 1.262e-3
-1.173, 1.278e-3
-1.174, 1.275e-3
-1.175, 1.283e-3
-1.176, 1.302e-3
-1.177, 1.304e-3
-1.178, 1.304e-3
-1.179, 1.321e-3
-1.180, 1.330e-3
-1.181, 1.327e-3
-1.182, 1.342e-3
-1.183, 1.357e-3
-1.184, 1.353e-3
-1.185, 1.361e-3
-1.186, 1.381e-3
-1.187, 1.382e-3
-1.188, 1.381e-3
-1.189, 1.398e-3
-1.190, 1.406e-3
-1.191, 1.401e-3
-1.192, 1.414e-3
-1.193, 1.428e-3
-1.194, 1.424e-3
-1.195, 1.430e-3
-1.196, 1.450e-3
-1.197, 1.451e-3
-1.198, 1.448e-3
-1.199, 1.466e-3
-1.200, 1.472e-3
-1.201, 1.466e-3
-1.202, 1.477e-3
-1.203, 1.493e-3
-1.204, 1.489e-3
-1.205, 1.493e-3
-1.206, 1.511e-3
-1.207, 1.512e-3
-1.208, 1.510e-3
-1.209, 1.527e-3
-1.210, 1.532e-3
-1.211, 1.526e-3
-1.212, 1.541e-3
-1.213, 1.555e-3
-1.214, 1.546e-3
-1.215, 1.548e-3
-1.216, 1.562e-3
-1.217, 1.561e-3
-1.218, 1.557e-3
-1.219, 1.572e-3
-1.220, 1.575e-3
-1.221, 1.566e-3
-1.222, 1.579e-3
-1.223, 1.591e-3
-1.224, 1.581e-3
-1.225, 1.582e-3
-1.226, 1.597e-3
-1.227, 1.592e-3
-1.228, 1.586e-3
-1.229, 1.603e-3
-1.230, 1.606e-3
-1.231, 1.594e-3
-1.232, 1.600e-3
-1.233, 1.610e-3
-1.234, 1.600e-3
-1.235, 1.601e-3
-1.236, 1.616e-3
-1.237, 1.606e-3
-1.238, 1.595e-3
-1.239, 1.610e-3
-1.240, 1.611e-3
-1.241, 1.598e-3
-1.242, 1.604e-3
-1.243, 1.614e-3
-1.244, 1.600e-3
-1.245, 1.596e-3
-1.246, 1.606e-3
-1.247, 1.599e-3
-1.248, 1.587e-3
-1.249, 1.598e-3
-1.250, 1.597e-3
-1.251, 1.580e-3
-1.252, 1.585e-3
-1.253, 1.592e-3
-1.254, 1.576e-3
-1.255, 1.571e-3
-1.256, 1.580e-3
-1.257, 1.570e-3
-1.258, 1.557e-3
-1.259, 1.567e-3
-1.260, 1.564e-3
-1.261, 1.547e-3
-1.262, 1.548e-3
-1.263, 1.552e-3
-1.264, 1.536e-3
-1.265, 1.532e-3
-1.266, 1.541e-3
-1.267, 1.528e-3
-1.268, 1.514e-3
-1.269, 1.521e-3
-1.270, 1.519e-3
-1.271, 1.501e-3
-1.272, 1.504e-3
-1.273, 1.506e-3
-1.274, 1.489e-3
-1.275, 1.483e-3
-1.276, 1.491e-3
-1.277, 1.479e-3
-1.278, 1.466e-3
-1.279, 1.475e-3
-1.280, 1.472e-3
-1.281, 1.454e-3
-1.282, 1.456e-3
-1.283, 1.458e-3
-1.284, 1.441e-3
-1.285, 1.437e-3
-1.286, 1.444e-3
-1.287, 1.432e-3
-1.288, 1.418e-3
-1.289, 1.426e-3
-1.290, 1.424e-3
-1.291, 1.408e-3
-1.292, 1.411e-3
-1.293, 1.416e-3
-1.294, 1.398e-3
-1.295, 1.393e-3
-1.296, 1.402e-3
-1.297, 1.392e-3
-1.298, 1.380e-3
-1.299, 1.389e-3
-1.300, 1.387e-3
-1.301, 1.371e-3
-1.302, 1.376e-3
-1.303, 1.382e-3
-1.304, 1.365e-3
-1.305, 1.361e-3
-1.306, 1.373e-3
-1.307, 1.363e-3
-1.308, 1.352e-3
-1.309, 1.362e-3
-1.310, 1.361e-3
-1.311, 1.346e-3
-1.312, 1.352e-3
-1.313, 1.361e-3
-1.314, 1.346e-3
-1.315, 1.343e-3
-1.316, 1.356e-3
-1.317, 1.348e-3
-1.318, 1.340e-3
-1.319, 1.350e-3
-1.320, 1.349e-3
-1.321, 1.336e-3
-1.322, 1.344e-3
-1.323, 1.352e-3
-1.324, 1.340e-3
-1.325, 1.339e-3
-1.326, 1.353e-3
-1.327, 1.345e-3
-1.328, 1.336e-3
-1.329, 1.349e-3
-1.330, 1.352e-3
-1.331, 1.339e-3
-1.332, 1.347e-3
-1.333, 1.358e-3
-1.334, 1.347e-3
-1.335, 1.347e-3
-1.336, 1.361e-3
-1.337, 1.356e-3
-1.338, 1.350e-3
-1.339, 1.365e-3
-1.340, 1.368e-3
-1.341, 1.355e-3
-1.342, 1.365e-3
-1.343, 1.377e-3
-1.344, 1.367e-3
-1.345, 1.367e-3
-1.346, 1.382e-3
-1.347, 1.378e-3
-1.348, 1.373e-3
-1.349, 1.388e-3
-1.350, 1.391e-3
-1.351, 1.381e-3
-1.352, 1.392e-3
-1.353, 1.403e-3
-1.354, 1.394e-3
-1.355, 1.396e-3
-1.356, 1.413e-3
-1.357, 1.409e-3
-1.358, 1.403e-3
-1.359, 1.418e-3
-1.360, 1.423e-3
-1.361, 1.414e-3
-1.362, 1.424e-3
-1.363, 1.434e-3
-1.364, 1.427e-3
-1.365, 1.430e-3
-1.366, 1.448e-3
-1.367, 1.444e-3
-1.368, 1.438e-3
-1.369, 1.456e-3
-1.370, 1.464e-3
-1.371, 1.454e-3
-1.372, 1.464e-3
-1.373, 1.476e-3
-1.374, 1.467e-3
-1.375, 1.471e-3
-1.376, 1.488e-3
-1.377, 1.484e-3
-1.378, 1.478e-3
-1.379, 1.495e-3
-1.380, 1.501e-3
-1.381, 1.493e-3
-1.382, 1.504e-3
-1.383, 1.517e-3
-1.384, 1.508e-3
-1.385, 1.512e-3
-1.386, 1.528e-3
-1.387, 1.526e-3
-1.388, 1.522e-3
-1.389, 1.539e-3
-1.390, 1.542e-3
-1.391, 1.532e-3
-1.392, 1.544e-3
-1.393, 1.557e-3
-1.394, 1.547e-3
-1.395, 1.549e-3
-1.396, 1.567e-3
-1.397, 1.564e-3
-1.398, 1.559e-3
-1.399, 1.573e-3
-1.400, 1.577e-3
-1.401, 1.567e-3
-1.402, 1.579e-3
-1.403, 1.590e-3
-1.404, 1.582e-3
-1.405, 1.583e-3
-1.406, 1.600e-3
-1.407, 1.597e-3
-1.408, 1.592e-3
-1.409, 1.606e-3
-1.410, 1.607e-3
-1.411, 1.597e-3
-1.412, 1.610e-3
-1.413, 1.622e-3
-1.414, 1.610e-3
-1.415, 1.609e-3
-1.416, 1.625e-3
-1.417, 1.623e-3
-1.418, 1.616e-3
-1.419, 1.629e-3
-1.420, 1.631e-3
-1.421, 1.621e-3
-1.422, 1.632e-3
-1.423, 1.642e-3
-1.424, 1.630e-3
-1.425, 1.631e-3
-1.426, 1.647e-3
-1.427, 1.643e-3
-1.428, 1.636e-3
-1.429, 1.649e-3
-1.430, 1.653e-3
-1.431, 1.643e-3
-1.432, 1.650e-3
-1.433, 1.659e-3
-1.434, 1.649e-3
-1.435, 1.650e-3
-1.436, 1.665e-3
-1.437, 1.660e-3
-1.438, 1.655e-3
-1.439, 1.670e-3
-1.440, 1.672e-3
-1.441, 1.662e-3
-1.442, 1.671e-3
-1.443, 1.680e-3
-1.444, 1.672e-3
-1.445, 1.674e-3
-1.446, 1.688e-3
-1.447, 1.683e-3
-1.448, 1.677e-3
-1.449, 1.692e-3
-1.450, 1.696e-3
-1.451, 1.686e-3
-1.452, 1.698e-3
-1.453, 1.710e-3
-1.454, 1.702e-3
-1.455, 1.704e-3
-1.456, 1.721e-3
-1.457, 1.719e-3
-1.458, 1.716e-3
-1.459, 1.733e-3
-1.460, 1.740e-3
-1.461, 1.736e-3
-1.462, 1.750e-3
-1.463, 1.764e-3
-1.464, 1.759e-3
-1.465, 1.770e-3
-1.466, 1.795e-3
-1.467, 1.798e-3
-1.468, 1.801e-3
-1.469, 1.828e-3
-1.470, 1.845e-3
-1.471, 1.850e-3
-1.472, 1.875e-3
-1.473, 1.906e-3
-1.474, 1.921e-3
-1.475, 1.949e-3
-1.476, 1.992e-3
-1.477, 2.023e-3
-1.478, 2.061e-3
-1.479, 2.120e-3
-1.480, 2.175e-3
-1.481, 2.222e-3
-1.482, 2.299e-3
-1.483, 2.386e-3
-1.484, 2.466e-3
-1.485, 2.566e-3
-1.486, 2.689e-3
-1.487, 2.800e-3
-1.488, 2.915e-3
-1.489, 3.056e-3
-1.490, 3.195e-3
-1.491, 3.318e-3
-1.492, 3.459e-3
-1.493, 3.605e-3
-1.494, 3.731e-3
-1.495, 3.865e-3
-1.496, 4.016e-3
-1.497, 4.147e-3
-1.498, 4.273e-3
-1.499, 4.416e-3
-1.500, 4.482e-3
-1.499, 4.469e-3
-1.498, 4.480e-3
-1.497, 4.497e-3
-1.496, 4.496e-3
-1.495, 4.500e-3
-1.494, 4.517e-3
-1.493, 4.517e-3
-1.492, 4.502e-3
-1.491, 4.509e-3
-1.490, 4.507e-3
-1.489, 4.495e-3
-1.488, 4.496e-3
-1.487, 4.502e-3
-1.486, 4.487e-3
-1.485, 4.473e-3
-1.484, 4.473e-3
-1.483, 4.454e-3
-1.482, 4.428e-3
-1.481, 4.409e-3
-1.480, 4.394e-3
-1.479, 4.367e-3
-1.478, 4.348e-3
-1.477, 4.338e-3
-1.476, 4.305e-3
-1.475, 4.280e-3
-1.474, 4.271e-3
-1.473, 4.248e-3
-1.472, 4.215e-3
-1.471, 4.197e-3
-1.470, 4.168e-3
-1.469, 4.130e-3
-1.468, 4.107e-3
-1.467, 4.079e-3
-1.466, 4.039e-3
-1.465, 4.003e-3
-1.464, 3.982e-3
-1.463, 3.945e-3
-1.462, 3.900e-3
-1.461, 3.875e-3
-1.460, 3.846e-3
-1.459, 3.796e-3
-1.458, 3.762e-3
-1.457, 3.736e-3
-1.456, 3.692e-3
-1.455, 3.655e-3
-1.454, 3.628e-3
-1.453, 3.586e-3
-1.452, 3.540e-3
-1.451, 3.513e-3
-1.450, 3.477e-3
-1.449, 3.422e-3
-1.448, 3.378e-3
-1.447, 3.351e-3
-1.446, 3.299e-3
-1.445, 3.254e-3
-1.444, 3.232e-3
-1.443, 3.187e-3
-1.442, 3.138e-3
-1.441, 3.110e-3
-1.440, 3.073e-3
-1.439, 3.022e-3
-1.438, 2.989e-3
-1.437, 2.959e-3
-1.436, 2.908e-3
-1.435, 2.864e-3
-1.434, 2.833e-3
-1.433, 2.787e-3
-1.432, 2.738e-3
-1.431, 2.712e-3
-1.430, 2.672e-3
-1.429, 2.620e-3
-1.428, 2.586e-3
-1.427, 2.551e-3
-1.426, 2.501e-3
-1.425, 2.458e-3
-1.424, 2.432e-3
-1.423, 2.384e-3
-1.422, 2.338e-3
-1.421, 2.313e-3
-1.420, 2.278e-3
-1.419, 2.226e-3
-1.418, 2.194e-3
-1.417, 2.163e-3
-1.416, 2.117e-3
-1.415, 2.077e-3
-1.414, 2.054e-3
-1.413, 2.011e-3
-1.412, 1.967e-3
-1.411, 1.943e-3
-1.410, 1.909e-3
-1.409, 1.861e-3
-1.408, 1.831e-3
-1.407, 1.804e-3
-1.406, 1.758e-3
-1.405, 1.724e-3
-1.404, 1.702e-3
-1.403, 1.662e-3
-1.402, 1.620e-3
-1.401, 1.599e-3
-1.400, 1.568e-3
-1.399, 1.523e-3
-1.398, 1.496e-3
-1.397, 1.473e-3
-1.396, 1.430e-3
-1.395, 1.398e-3
-1.394, 1.379e-3
-1.393, 1.341e-3
-1.392, 1.302e-3
-1.391, 1.285e-3
-1.390, 1.258e-3
-1.389, 1.218e-3
-1.388, 1.196e-3
-1.387, 1.175e-3
-1.386, 1.136e-3
-1.385, 1.106e-3
-1.384, 1.090e-3
-1.383, 1.056e-3
-1.382, 1.022e-3
-1.381, 1.007e-3
-1.380, 9.811e-4
-1.379, 9.425e-4
-1.378, 9.244e-4
-1.377, 9.058e-4
-1.376, 8.700e-4
-1.375, 8.441e-4
-1.374, 8.328e-4
-1.373, 8.027e-4
-1.372, 7.716e-4
-1.371, 7.592e-4
-1.370, 7.376e-4
-1.369, 7.036e-4
-1.368, 6.887e-4
-1.367, 6.749e-4
-1.366, 6.429e-4
-1.365, 6.213e-4
-1.364, 6.121e-4
-1.363, 5.858e-4
-1.362, 5.576e-4
-1.361, 5.492e-4
-1.360, 5.307e-4
-1.359, 4.998e-4
-1.358, 4.876e-4
-1.357, 4.763e-4
-1.356, 4.469e-4
-1.355, 4.289e-4
-1.354, 4.236e-4
-1.353, 4.001e-4
-1.352, 3.745e-4
-1.351, 3.699e-4
-1.350, 3.552e-4
-1.349, 3.272e-4
-1.348, 3.179e-4
-1.347, 3.115e-4
-1.346, 2.852e-4
-1.345, 2.685e-4
-1.344, 2.665e-4
-1.343, 2.453e-4
-1.342, 2.237e-4
-1.341, 2.209e-4
-1.340, 2.093e-4
-1.339, 1.832e-4
-1.338, 1.773e-4
-1.337, 1.722e-4
-1.336, 1.490e-4
-1.335, 1.348e-4
-1.334, 1.348e-4
-1.333, 1.166e-4
-1.332, 9.723e-5
-1.331, 9.719e-5
-1.330, 8.773e-5
-1.329, 6.421e-5
-1.328, 6.061e-5
-1.327, 5.799e-5
-1.326, 3.645e-5
-1.325, 2.466e-5
-1.324, 2.729e-5
-1.323, 1.072e-5
-1.322, -7.036e-6
-1.321, -5.261e-6
-1.320, -1.250e-5
-1.319, -3.437e-5
-1.318, -3.698e-5
-1.317, -3.647e-5
-1.316, -5.689e-5
-1.315, -6.644e-5
-1.314, -6.205e-5
-1.313, -7.653e-5
-1.312, -9.291e-5
-1.311, -8.879e-5
-1.310, -9.538e-5
-1.309, -1.150e-4
-1.308, -1.166e-4
-1.307, -1.148e-4
-1.306, -1.337e-4
-1.305, -1.427e-4
-1.304, -1.368e-4
-1.303, -1.497e-4
-1.302, -1.653e-4
-1.301, -1.602e-4
-1.300, -1.650e-4
-1.299, -1.838e-4
-1.298, -1.837e-4
-1.297, -1.817e-4
-1.296, -1.989e-4
-1.295, -2.067e-4
-1.294, -2.000e-4
-1.293, -2.125e-4
-1.292, -2.266e-4
-1.291, -2.211e-4
-1.290, -2.248e-4
-1.289, -2.434e-4
-1.288, -2.421e-4
-1.287, -2.394e-4
-1.286, -2.561e-4
-1.285, -2.629e-4
-1.284, -2.552e-4
-1.283, -2.669e-4
-1.282, -2.803e-4
-1.281, -2.740e-4
-1.280, -2.779e-4
-1.279, -2.960e-4
-1.278, -2.946e-4
-1.277, -2.909e-4
-1.276, -3.066e-4
-1.275, -3.138e-4
-1.274, -3.055e-4
-1.273, -3.160e-4
-1.272, -3.294e-4
-1.271, -3.226e-4
-1.270, -3.258e-4
-1.269, -3.423e-4
-1.268, -3.417e-4
-1.267, -3.371e-4
-1.266, -3.525e-4
-1.265, -3.592e-4
-1.264, -3.508e-4
-1.263, -3.610e-4
-1.262, -3.743e-4
-1.261, -3.668e-4
-1.260, -3.695e-4
-1.259, -3.860e-4
-1.258, -3.844e-4
-1.257, -3.796e-4
-1.256, -3.948e-4
-1.255, -4.014e-4
-1.254, -3.933e-4
-1.253, -4.029e-4
-1.252, -4.156e-4
-1.251, -4.082e-4
-1.250, -4.100e-4
-1.249, -4.279e-4
-1.248, -4.252e-4
-1.247, -4.213e-4
-1.246, -4.368e-4
-1.245, -4.435e-4
-1.244, -4.344e-4
-1.243, -4.457e-4
-1.242, -4.589e-4
-1.241, -4.520e-4
-1.240, -4.525e-4
-1.239, -4.696e-4
-1.238, -4.681e-4
-1.237, -4.635e-4
-1.236, -4.791e-4
-1.235, -4.845e-4
-1.234, -4.756e-4
-1.233, -4.866e-4
-1.232, -4.997e-4
-1.231, -4.924e-4
-1.230, -4.945e-4
-1.229, -5.127e-4
-1.228, -5.112e-4
-1.227, -5.055e-4
-1.226, -5.201e-4
-1.225, -5.270e-4
-1.224, -5.183e-4
-1.223, -5.279e-4
-1.222, -5.411e-4
-1.221, -5.328e-4
-1.220, -5.353e-4
-1.219, -5.531e-4
-1.218, -5.521e-4
-1.217, -5.459e-4
-1.216, -5.606e-4
-1.215, -5.673e-4
-1.214, -5.593e-4
-1.213, -5.692e-4
-1.212, -5.825e-4
-1.211, -5.742e-4
-1.210, -5.754e-4
-1.209, -5.935e-4
-1.208, -5.922e-4
-1.207, -5.874e-4
-1.206, -6.026e-4
-1.205, -6.092e-4
-1.204, -6.004e-4
-1.203, -6.106e-4
-1.202, -6.238e-4
-1.201, -6.171e-4
-1.200, -6.181e-4
-1.199, -6.366e-4
-1.198, -6.353e-4
-1.197, -6.298e-4
-1.196, -6.450e-4
-1.195, -6.529e-4
-1.194, -6.445e-4
-1.193, -6.548e-4
-1.192, -6.678e-4
-1.191, -6.618e-4
-1.190, -6.638e-4
-1.189, -6.812e-4
-1.188, -6.810e-4
-1.187, -6.775e-4
-1.186, -6.934e-4
-1.185, -7.000e-4
-1.184, -6.919e-4
-1.183, -7.015e-4
-1.182, -7.160e-4
-1.181, -7.091e-4
-1.180, -7.119e-4
-1.179, -7.302e-4
-1.178, -7.298e-4
-1.177, -7.251e-4
-1.176, -7.417e-4
-1.175, -7.502e-4
-1.174, -7.419e-4
-1.173, -7.512e-4
-1.172, -7.664e-4
-1.171, -7.609e-4
-1.170, -7.637e-4
-1.169, -7.821e-4
-1.168, -7.808e-4
-1.167, -7.775e-4
-1.166, -7.959e-4
-1.165, -8.033e-4
-1.164, -7.949e-4
-1.163, -8.056e-4
-1.162, -8.202e-4
-1.161, -8.147e-4
-1.160, -8.167e-4
-1.159, -8.359e-4
-1.158, -8.359e-4
-1.157, -8.323e-4
-1.156, -8.490e-4
-1.155, -8.574e-4
-1.154, -8.498e-4
-1.153, -8.611e-4
-1.152, -8.754e-4
-1.151, -8.707e-4
-1.150, -8.736e-4
-1.149, -8.927e-4
-1.148, -8.932e-4
-1.147, -8.893e-4
-1.146, -9.057e-4
-1.145, -9.146e-4
-1.144, -9.066e-4
-1.143, -9.175e-4
-1.142, -9.329e-4
-1.141, -9.276e-4
-1.140, -9.300e-4
-1.139, -9.482e-4
-1.138, -9.496e-4
-1.137, -9.465e-4
-1.136, -9.628e-4
-1.135, -9.719e-4
-1.134, -9.659e-4
-1.133, -9.775e-4
-1.132, -9.952e-4
-1.131, -9.883e-4
-1.130, -9.898e-4
-1.129, -1.008e-3
-1.128, -1.009e-3
-1.127, -1.005e-3
-1.126, -1.021e-3
-1.125, -1.028e-3
-1.124, -1.021e-3
-1.123, -1.032e-3
-1.122, -1.050e-3
-1.121, -1.044e-3
-1.120, -1.045e-3
-1.119, -1.063e-3
-1.118, -1.065e-3
-1.117, -1.060e-3
-1.116, -1.075e-3
-1.115, -1.083e-3
-1.114, -1.076e-3
-1.113, -1.087e-3
-1.112, -1.100e-3
-1.111, -1.093e-3
-1.110, -1.095e-3
-1.109, -1.115e-3
-1.108, -1.114e-3
-1.107, -1.108e-3
-1.106, -1.122e-3
-1.105, -1.132e-3
-1.104, -1.124e-3
-1.103, -1.132e-3
-1.102, -1.146e-3
-1.101, -1.141e-3
-1.100, -1.143e-3
-1.099, -1.158e-3
-1.098, -1.157e-3
-1.097, -1.152e-3
-1.096, -1.167e-3
-1.095, -1.174e-3
-1.094, -1.165e-3
-1.093, -1.173e-3
-1.092, -1.187e-3
-1.091, -1.182e-3
-1.090, -1.182e-3
-1.089, -1.198e-3
-1.088, -1.198e-3
-1.087, -1.192e-3
-1.086, -1.206e-3
-1.085, -1.212e-3
-1.084, -1.204e-3
-1.083, -1.212e-3
-1.082, -1.225e-3
-1.081, -1.217e-3
-1.080, -1.216e-3
-1.079, -1.232e-3
-1.078, -1.231e-3
-1.077, -1.225e-3
-1.076, -1.238e-3
-1.075, -1.245e-3
-1.074, -1.235e-3
-1.073, -1.243e-3
-1.072, -1.254e-3
-1.071, -1.247e-3
-1.070, -1.248e-3
-1.069, -1.263e-3
-1.068, -1.261e-3
-1.067, -1.254e-3
-1.066, -1.265e-3
-1.065, -1.271e-3
-1.064, -1.261e-3
-1.063, -1.268e-3
-1.062, -1.278e-3
-1.061, -1.270e-3
-1.060, -1.269e-3
-1.059, -1.283e-3
-1.058, -1.280e-3
-1.057, -1.274e-3
-1.056, -1.286e-3
-1.055, -1.291e-3
-1.054, -1.280e-3
-1.053, -1.287e-3
-1.052, -1.300e-3
-1.051, -1.292e-3
-1.050, -1.289e-3
-1.049, -1.303e-3
-1.048, -1.300e-3
-1.047, -1.293e-3
-1.046, -1.305e-3
-1.045, -1.308e-3
-1.044, -1.297e-3
-1.043, -1.303e-3
-1.042, -1.313e-3
-1.041, -1.305e-3
-1.040, -1.301e-3
-1.039, -1.313e-3
-1.038, -1.310e-3
-1.037, -1.303e-3
-1.036, -1.315e-3
-1.035, -1.319e-3
-1.034, -1.310e-3
-1.033, -1.317e-3
-1.032, -1.325e-3
-1.031, -1.315e-3
-1.030, -1.314e-3
-1.029, -1.325e-3
-1.028, -1.321e-3
-1.027, -1.312e-3
-1.026, -1.322e-3
-1.025, -1.326e-3
-1.024, -1.316e-3
-1.023, -1.319e-3
-1.022, -1.326e-3
-1.021, -1.317e-3
-1.020, -1.316e-3
-1.019, -1.329e-3
-1.018, -1.324e-3
-1.017, -1.316e-3
-1.016, -1.325e-3
-1.015, -1.328e-3
-1.014, -1.317e-3
-1.013, -1.319e-3
-1.012, -1.327e-3
-1.011, -1.318e-3
-1.010, -1.315e-3
-1.009, -1.327e-3
-1.008, -1.324e-3
-1.007, -1.315e-3
-1.006, -1.324e-3
-1.005, -1.325e-3
-1.004, -1.314e-3
-1.003, -1.318e-3
-1.002, -1.326e-3
-1.001, -1.317e-3
