Potential V vs RHE, Current mA cm-2
0.05339999999999995,2.9029875873230555
0.05239999999999995,2.833666733629668
0.051399999999999946,2.7615164573365516
0.050399999999999945,2.697854448842625
0.049399999999999944,2.6384365742482934
0.04839999999999994,2.5804334109538267
0.04739999999999994,2.5224302476593605
0.04639999999999994,2.465841795664759
0.04539999999999994,2.4092533436701573
0.04439999999999994,2.352664891675556
0.04339999999999994,2.2974911509808194
0.04239999999999994,2.2437321215859485
0.04139999999999994,2.1899730921910767
0.040399999999999936,2.13762877409607
0.039399999999999935,2.085284456001064
0.038399999999999934,2.0343548492059225
0.03739999999999993,1.9834252424107812
0.03639999999999993,1.933910346915505
0.03539999999999993,1.884395451420229
0.03439999999999993,1.8362952672248178
0.03339999999999993,1.7881950830294064
0.03239999999999993,1.7400948988339953
0.03139999999999993,1.693409425938449
0.030399999999999927,1.6481386643427678
0.029399999999999926,1.6028679027470865
0.028399999999999925,1.5590118524512704
0.027399999999999924,1.5151558021554543
0.026399999999999924,1.472714463159503
0.025399999999999923,1.4302731241635522
0.024399999999999922,1.3885391408175334
0.02339999999999992,1.3477954553814204
0.02239999999999992,1.3079005967252264
0.02139999999999992,1.268430151458992
0.020399999999999918,1.229950004102663
0.019399999999999917,1.192318683526253
0.018399999999999916,1.154970305209816
0.017399999999999916,1.1188951670632574
0.016399999999999915,1.0825370866567263
0.015399999999999914,1.0474522464200733
0.014399999999999913,1.013357704093326
0.013399999999999912,0.9792631617665783
0.012399999999999911,0.9461589173497365
0.01139999999999991,0.9140449708428002
0.01039999999999991,0.8820724954658503
0.009399999999999908,0.8509488468688196
0.008399999999999908,0.8203910827917348
0.007399999999999907,0.7903992032345959
0.006399999999999906,0.7609732081974032
0.005399999999999905,0.732254568810143
0.004399999999999904,0.7043847562028018
0.003399999999999903,0.6772222992453931
0.002399999999999902,0.6499183711579978
0.0013999999999999013,0.6234632698505217
0.00039999999999990044,0.5977155241929779
-0.0006000000000001005,0.5725336630553803
-0.0016000000000001013,0.5477762153077422
-0.0026000000000001022,0.5234431809500636
-0.003600000000000103,0.4999589733723039
-0.004600000000000104,0.4770406503144904
-0.005600000000000105,0.4544052695166497
-0.006600000000000106,0.4321943021087687
-0.007600000000000107,0.41054921922083365
-0.008600000000000108,0.3893285497228581
-0.009600000000000108,0.3688152358748151
-0.01060000000000011,0.34844339315675854
-0.01160000000000011,0.328637434958648
-0.012600000000000111,0.308407063370578
-0.013600000000000112,0.2894499319523865
-0.014600000000000113,0.27162456957408704
-0.015600000000000114,0.25365773606580105
-0.016600000000000115,0.23611531594747462
-0.017600000000000116,0.2189973092191077
-0.018600000000000116,0.20202077362072723
-0.019600000000000117,0.18532718028231981
-0.020600000000000118,0.1693409425938449
-0.02160000000000012,0.15363764716534298
-0.02260000000000012,0.13862756027377496
-0.02360000000000012,0.1233345311222339
-0.024600000000000122,0.10828200289166989
-0.025600000000000123,0.09409244855402359
-0.026600000000000124,0.07980386442538671
-0.027600000000000124,0.06633581285067157
-0.028600000000000125,0.05288190838895507
-0.029600000000000126,0.03964021062221833
-0.030600000000000127,0.026978544488426247
-0.03160000000000013,0.014359319693630123
-0.03260000000000013,0.001936739769515235
-0.03360000000000013,-0.01002181484824392
-0.03460000000000002,-0.022069496277894573
-0.03560000000000002,-0.03338718667681487
-0.03660000000000002,-0.04460584728474461
-0.03760000000000002,-0.05610745015264735
-0.03860000000000002,-0.06691584448361623
-0.039600000000000024,-0.0773564138766202
-0.040600000000000025,-0.08783942460862013
-0.041600000000000026,-0.09768581525568078
-0.04260000000000003,-0.10794247217970229
-0.04360000000000003,-0.11768983303577239
-0.04460000000000003,-0.12733816410085197
-0.04560000000000003,-0.13680258269694906
-0.04660000000000003,-0.14557379275611226
-0.04760000000000003,-0.15491088733522151
-0.04860000000000003,-0.16396503965435774
-0.04960000000000003,-0.17217036519357498
-0.050600000000000034,-0.1808001041227517
-0.051600000000000035,-0.18942984305192842
-0.052600000000000036,-0.1976351685911456
-0.053600000000000037,-0.20584049413036284
-0.05460000000000004,-0.21347993514963404
-0.05560000000000004,-0.22140231842887825
-0.05660000000000004,-0.22946617283810894
-0.05760000000000004,-0.23668120046742064
-0.05860000000000004,-0.2443206414866918
-0.05960000000000004,-0.25167714024599
-0.06060000000000004,-0.2587506967453152
-0.061600000000000044,-0.2661071955046134
-0.06260000000000004,-0.2733222231339251
-0.06360000000000005,-0.2803957796332503
-0.06460000000000005,-0.28732786500258894
-0.06560000000000005,-0.29355259472199513
-0.06660000000000005,-0.3004846800913338
-0.06760000000000005,-0.30727529433068596
-0.06860000000000005,-0.31350002405009214
-0.06960000000000005,-0.32014916715945774
-0.07060000000000005,-0.326373896878864
-0.07160000000000005,-0.33274009772825663
-0.07260000000000005,-0.3391062985776493
-0.07360000000000005,-0.34518955716706895
-0.07460000000000006,-0.35155575801646166
-0.07560000000000006,-0.35763901660588127
-0.07660000000000006,-0.36358080406531446
-0.07760000000000006,-0.36966406265473406
-0.07860000000000006,-0.3754643789841807
-0.07960000000000006,-0.38140616644361386
-0.08060000000000006,-0.387347953903047
-0.08160000000000006,-0.39286532797252066
-0.08260000000000006,-0.3986656443019673
-0.08360000000000006,-0.40432448950142746
-0.08460000000000006,-0.40998333470088766
-0.08560000000000006,-0.4162080644202938
-0.08660000000000007,-0.42144249622979446
-0.08760000000000007,-0.4271013414292546
-0.08860000000000007,-0.43304312888868773
-0.08960000000000007,-0.4385605029581614
-0.09060000000000007,-0.44407787702763507
-0.09160000000000007,-0.44959525109710863
-0.09260000000000007,-0.45539556742655535
-0.09360000000000007,-0.46091294149602896
-0.09460000000000007,-0.4662888444355161
-0.09560000000000007,-0.47180621850498966
-0.09660000000000007,-0.4776065348344364
-0.09760000000000008,-0.4826994955139505
-0.09860000000000008,-0.4884998118433972
-0.09960000000000008,-0.49387571478288433
-0.10060000000000008,-0.4993930888523579
-0.10160000000000008,-0.505051934051818
-0.10260000000000008,-0.5104278369913052
-0.10360000000000008,-0.5159452110607788
-0.10460000000000008,-0.521321114000266
-0.10560000000000008,-0.5268384880697398
-0.10660000000000008,-0.5326388043991863
-0.10760000000000008,-0.53815617846866
-0.10860000000000009,-0.5435320814081471
-0.10960000000000009,-0.5491909266076073
-0.11060000000000009,-0.5547083006770809
-0.11160000000000009,-0.5600842036165681
-0.11260000000000009,-0.5658845199460147
-0.11360000000000009,-0.5715433651454748
-0.11460000000000009,-0.577485152604908
-0.11560000000000009,-0.5835684111943277
-0.11660000000000009,-0.5886613718738418
-0.1176000000000001,-0.5943202170733018
-0.1186000000000001,-0.5998375911427756
-0.1196000000000001,-0.6054964363422356
-0.1206000000000001,-0.6112967526716824
-0.1216000000000001,-0.6165311844811829
-0.1226000000000001,-0.6220485585506567
-0.1236000000000001,-0.6277074037501167
-0.1246000000000001,-0.6333662489495769
-0.1256000000000001,-0.63930803640901
-0.1266000000000001,-0.6446839393484972
-0.1276000000000001,-0.6504842556779438
-0.1286000000000001,-0.6564260431373771
-0.1296000000000001,-0.6619434172068507
-0.1306000000000001,-0.6677437335362972
-0.1316000000000001,-0.673261107605771
-0.1326000000000001,-0.6793443661951906
-0.1336000000000001,-0.6851446825246373
-0.1346000000000001,-0.6908035277240974
-0.1356000000000001,-0.6967453151835306
-0.1366000000000001,-0.7025456315129773
-0.1376000000000001,-0.7079215344524644
-0.1386000000000001,-0.7141462641718705
-0.1396000000000001,-0.7198051093713307
-0.1406000000000001,-0.7256054257007774
-0.14160000000000011,-0.7312642709002375
-0.14260000000000012,-0.7367816449697111
-0.14360000000000012,-0.7428649035591307
-0.14460000000000012,-0.7486652198885775
-0.14560000000000012,-0.7540411228280646
-0.14660000000000012,-0.7599829102874976
-0.14760000000000012,-0.7657832266169443
-0.14860000000000012,-0.7713006006864179
-0.14960000000000012,-0.7771009170158646
-0.15060000000000012,-0.7827597622153247
-0.15160000000000012,-0.7884186074147849
-0.15260000000000012,-0.794077452614245
-0.15360000000000013,-0.8000192400736782
-0.15460000000000013,-0.8058195564031249
-0.15560000000000013,-0.8110539882126255
-0.15660000000000013,-0.8161469488921397
-0.15760000000000013,-0.8220887363515729
-0.15860000000000013,-0.8276061104210465
-0.15960000000000002,-0.8329820133605336
-0.16060000000000002,-0.8386408585599938
-0.16160000000000002,-0.8437338192395079
-0.16260000000000002,-0.8492511933089816
-0.16360000000000002,-0.8549100385084417
-0.16460000000000002,-0.8601444703179423
-0.16560000000000002,-0.8662277289073619
-0.16660000000000003,-0.8727354008867412
-0.16760000000000003,-0.8774039481762959
-0.16860000000000003,-0.8823554377258234
-0.16960000000000003,-0.8868825138853914
-0.17060000000000003,-0.8921169456948921
-0.17160000000000003,-0.8972099063744062
-0.17260000000000003,-0.9024443381839068
-0.17360000000000003,-0.9073958277334346
-0.17460000000000003,-0.9122058461529757
-0.17560000000000003,-0.9172988068324897
-0.17660000000000003,-0.9223917675120039
-0.17760000000000004,-0.9267773725415855
-0.17860000000000004,-0.9318703332210997
-0.17960000000000004,-0.9365388805106541
-0.18060000000000004,-0.9413488989301954
-0.18160000000000004,-0.9461589173497365
-0.18260000000000004,-0.9506859935093046
-0.18360000000000004,-0.9552130696688728
-0.18460000000000004,-0.9598816169584273
-0.18560000000000004,-0.9642672219880091
-0.18660000000000004,-0.9687942981475771
-0.18760000000000004,-0.9733213743071454
-0.18860000000000005,-0.9778484504667133
-0.18960000000000005,-0.9825169977562679
-0.19060000000000005,-0.9866196605258766
-0.19160000000000005,-0.9911467366854447
-0.19260000000000005,-0.9955323417150265
-0.19360000000000005,-0.9997764756146215
-0.19460000000000005,-1.0038791383842298
-0.19560000000000005,-1.0082647434138117
-0.19660000000000005,-1.0126503484433933
-0.19760000000000005,-1.0168944823429882
-0.19860000000000005,-1.0211386162425835
-0.19960000000000006,-1.0253827501421786
-0.20060000000000006,-1.0297683551717602
-0.20160000000000006,-1.0338710179413688
-0.20260000000000006,-1.0382566229709504
-0.20360000000000006,-1.0425007568705453
-0.20460000000000006,-1.0467448907701407
-0.20560000000000006,-1.0512719669297088
-0.20660000000000006,-1.0553746296993174
-0.20760000000000006,-1.059477292468926
-0.20860000000000006,-1.0638628974985076
-0.20960000000000006,-1.0679655602681162
-0.21060000000000006,-1.0726341075576709
-0.21160000000000007,-1.0770197125872525
-0.21260000000000007,-1.0815467887468206
-0.21360000000000007,-1.0863568071663616
-0.21460000000000007,-1.0906009410659567
-0.21560000000000007,-1.0955524306154845
-0.21660000000000007,-1.100220977905039
-0.21760000000000007,-1.1057383519745128
-0.21860000000000007,-1.110972783784013
-0.21960000000000007,-1.1154998599435815
-0.22060000000000007,-1.1204513494931092
-0.22160000000000007,-1.1256857813026095
-0.22260000000000008,-1.1306372708521373
-0.22360000000000008,-1.1360131737916246
-0.22460000000000008,-1.1416720189910845
-0.22560000000000008,-1.146906450800585
-0.22660000000000008,-1.1525652960000454
-0.22760000000000008,-1.1582241411995053
-0.22860000000000008,-1.164307399788925
-0.22960000000000008,-1.1703906583783448
-0.23060000000000008,-1.176332445837778
-0.23160000000000008,-1.1825571755571842
-0.23260000000000008,-1.1890648475365633
-0.23360000000000009,-1.1955725195159426
-0.2346000000000001,-1.2026460760152677
-0.2356000000000001,-1.2092952191246333
-0.2366000000000001,-1.2160858333639855
-0.2376000000000001,-1.2234423321232837
-0.2386000000000001,-1.2306573597525956
-0.2396000000000001,-1.2381553296418801
-0.2406000000000001,-1.245936241791138
-0.2416000000000001,-1.2534342116804225
-0.2426000000000001,-1.2617810083496264
-0.2436000000000001,-1.2701278050188298
-0.2446000000000001,-1.2781916594280607
-0.2456000000000001,-1.2868213983572372
-0.2466000000000001,-1.2954511372864141
-0.2476000000000001,-1.3045052896055502
-0.2486000000000001,-1.3138423841846596
-0.2496000000000001,-1.3230380076337822
-0.2506000000000001,-1.3326580444728646
-0.2516000000000001,-1.3419951390519738
-0.2526000000000001,-1.3517566470210427
-0.2536000000000001,-1.3622255106400438
-0.2546000000000001,-1.3725529031290586
-0.2556000000000001,-1.383304709008033
-0.2566000000000001,-1.3941979860169935
-0.2576000000000001,-1.404949791895968
-0.2586000000000001,-1.4161260111649017
-0.2596000000000001,-1.427443701563822
-0.2606000000000001,-1.4387613919627424
-0.2616000000000001,-1.4514937936615278
-0.2626000000000001,-1.462811484060448
-0.2636000000000001,-1.4755438857592333
-0.2646000000000001,-1.4882762874580184
-0.2656000000000001,-1.501008689156804
-0.2666000000000001,-1.5137410908555893
-0.2676000000000001,-1.5278882038542394
-0.2686000000000001,-1.540620605553025
-0.2696000000000001,-1.5547677185516753
-0.2706000000000001,-1.5689148315503256
-0.2716000000000001,-1.583061944548976
-0.2726000000000001,-1.5972090575476263
-0.2736000000000001,-1.612770881846142
-0.2746000000000001,-1.6283327061446573
-0.2756000000000001,-1.6424798191433077
-0.2766000000000001,-1.658041643441823
-0.2776000000000001,-1.6736034677403384
-0.2786000000000001,-1.690580003338719
-0.2796000000000001,-1.7061418276372344
-0.2806000000000001,-1.7231183632356148
-0.28160000000000013,-1.7400948988339953
-0.28260000000000013,-1.7570714344323757
-0.28360000000000013,-1.774047970030756
-0.2846,-1.7924392169290013
-0.2856,-1.8094157525273817
-0.2866,-1.8278069994256272
-0.2876,-1.8461982463238729
-0.2886,-1.8645894932221183
-0.2896,-1.882980740120364
-0.2906,-1.9013719870186092
-0.2916,-1.92117794521672
-0.2926,-1.9409839034148304
-0.2936,-1.9607898616129409
-0.29460000000000003,-1.980595819811051
-0.29560000000000003,-2.0004017780091616
-0.29660000000000003,-2.0216224475071374
-0.29760000000000003,-2.0414284057052483
-0.29860000000000003,-2.0626490752032236
-0.29960000000000003,-2.083869744701199
-0.30060000000000003,-2.105090414199175
-0.30160000000000003,-2.127725794997015
-0.30260000000000004,-2.148946464494991
-0.30360000000000004,-2.171581845292831
-0.30460000000000004,-2.192802514790807
-0.30560000000000004,-2.215437895588648
-0.30660000000000004,-2.238073276386488
-0.30760000000000004,-2.260708657184329
-0.30860000000000004,-2.284758749282034
-0.30960000000000004,-2.307394130079875
-0.31060000000000004,-2.330029510877715
-0.31160000000000004,-2.354079602975421
-0.31260000000000004,-2.3781296950731265
-0.31360000000000005,-2.4021797871708324
-0.31460000000000005,-2.426229879268538
-0.31560000000000005,-2.4502799713662435
-0.31660000000000005,-2.4743300634639493
-0.31760000000000005,-2.4983801555616547
-0.31860000000000005,-2.5224302476593605
-0.31960000000000005,-2.5478950510569307
-0.32060000000000005,-2.5733598544545018
-0.32160000000000005,-2.597409946552207
-0.32260000000000005,-2.621460038649913
-0.32360000000000005,-2.6469248420474836
-0.32460000000000006,-2.670974934145189
-0.32560000000000006,-2.69643973754276
-0.32660000000000006,-2.7219045409403306
-0.32760000000000006,-2.745954633038036
-0.32860000000000006,-2.7714194364356066
-0.32960000000000006,-2.7968842398331777
-0.33060000000000006,-2.820934331930883
-0.33160000000000006,-2.846399135328454
-0.33260000000000006,-2.870449227426159
-0.33360000000000006,-2.8959140308237297
-0.33460000000000006,-2.919964122921436
-0.33560000000000006,-2.945428926319006
-0.33660000000000007,-2.9694790184167124
-0.33760000000000007,-2.9935291105144173
-0.33860000000000007,-3.0189939139119883
-0.33960000000000007,-3.043044006009694
-0.34060000000000007,-3.0670940981073995
-0.34160000000000007,-3.0911441902051053
-0.34260000000000007,-3.1151942823028107
-0.34360000000000007,-3.1392443744005165
-0.3446000000000001,-3.161879755198357
-0.3456000000000001,-3.1859298472960624
-0.3466000000000001,-3.208565228093903
-0.34759999999999996,-3.2312006088917435
-0.3486000000000001,-3.253835989689584
-0.34959999999999997,-3.276471370487425
-0.3506000000000001,-3.2991067512852656
-0.35159999999999997,-3.321742132083106
-0.3526000000000001,-3.3429628015810815
-0.35359999999999997,-3.3641834710790572
-0.3546000000000001,-3.3854041405770325
-0.35559999999999997,-3.4066248100750083
-0.3566000000000001,-3.427845479572984
-0.3576,-3.447651437771094
-0.3586000000000001,-3.4674573959692045
-0.3596,-3.4872633541673155
-0.3606000000000001,-3.507069312365426
-0.3616,-3.525460559263671
-0.3626000000000001,-3.543851806161917
-0.3636,-3.562243053060162
-0.3646000000000001,-3.580634299958408
-0.3656,-3.5976108355567886
-0.3666000000000001,-3.6145873711551686
-0.3676,-3.6315639067535495
-0.3686000000000001,-3.6485404423519294
-0.3696,-3.664102266650445
-0.3706000000000001,-3.67966409094896
-0.3716,-3.695225915247476
-0.3726000000000001,-3.7093730282461257
-0.3736,-3.7235201412447765
-0.3746000000000001,-3.7362525429435625
-0.3756,-3.748984944642347
-0.3766000000000001,-3.7617173463411326
-0.3776,-3.7730350367400525
-0.3786000000000001,-3.784352727138973
-0.3796,-3.795670417537894
-0.3806000000000001,-3.8055733966369485
-0.3816,-3.815476375736004
-0.3826000000000001,-3.825379354835059
-0.3836,-3.833867622634249
-0.3846000000000001,-3.84235589043344
-0.3856,-3.849429446932765
-0.3866000000000001,-3.8565030034320897
-0.3876,-3.8621618486315503
-0.3886000000000001,-3.869235405130875
-0.3896,-3.8734795390304706
-0.3906000000000001,-3.8791383842299307
-0.3916,-3.8833825181295256
-0.3926000000000001,-3.8862119407292557
-0.3936,-3.889041363328986
-0.3946000000000001,-3.8918707859287163
-0.3956,-3.8932854972285815
-0.3966000000000001,-3.8947002085284463
-0.3976,-3.896114919828311
-0.3986000000000001,-3.896114919828311
-0.3996,-3.8947002085284463
-0.4006000000000001,-3.8947002085284463
-0.4016,-3.8932854972285815
-0.4026000000000001,-3.8904560746288515
-0.4036,-3.889041363328986
-0.4046000000000001,-3.8862119407292557
-0.4056,-3.881967806829661
-0.40660000000000013,-3.8777236729300655
-0.4076,-3.8734795390304706
-0.40860000000000013,-3.869235405130875
-0.4096,-3.8635765599314156
-0.41060000000000013,-3.8579177147319554
-0.4116,-3.852258869532495
-0.41260000000000013,-3.84518531303317
-0.4136,-3.8395264678337093
-0.41460000000000014,-3.8310382000345196
-0.4156,-3.823964643535194
-0.41660000000000014,-3.8168910870358688
-0.4176,-3.8084028192366786
-0.41860000000000014,-3.799914551437489
-0.41960000000000003,-3.791426283638298
-0.42060000000000014,-3.781523304539243
-0.42160000000000003,-3.7730350367400525
-0.42260000000000014,-3.764546768940863
-0.42360000000000003,-3.7546437898418072
-0.42460000000000014,-3.744740810742752
-0.42560000000000003,-3.734837831643697
-0.42660000000000015,-3.7235201412447765
-0.42760000000000004,-3.713617162145721
-0.42860000000000015,-3.702299471746801
-0.42960000000000004,-3.6923964926477457
-0.43060000000000015,-3.681078802248825
-0.43160000000000004,-3.6711758231497704
-0.43260000000000015,-3.65985813275085
-0.43360000000000004,-3.6485404423519294
-0.43460000000000015,-3.6372227519530096
-0.43560000000000004,-3.6259050615540893
-0.43660000000000015,-3.6145873711551686
-0.43760000000000004,-3.6032696807562488
-0.43860000000000016,-3.591951990357328
-0.43960000000000005,-3.580634299958408
-0.44060000000000016,-3.569316609559488
-0.44160000000000005,-3.556584207860702
-0.44260000000000016,-3.545266517461782
-0.44360000000000005,-3.533948827062862
-0.44460000000000016,-3.522631136663941
-0.44560000000000005,-3.5113134462650213
-0.44660000000000016,-3.4985810445662353
-0.44760000000000005,-3.4872633541673155
-0.44860000000000017,-3.475945663768395
-0.44960000000000006,-3.4632132620696097
-0.45060000000000017,-3.4518955716706894
