Potential V vs RHE, Current mA cm-2
0.05339999999999995,-0.029609907506175218
0.05239999999999995,-0.03495751621966506
0.051399999999999946,-0.03748984944642347
0.050399999999999945,-0.039159208780264215
0.049399999999999944,-0.04058806719312791
0.04839999999999994,-0.04194619004099834
0.04739999999999994,-0.04317698887188092
0.04639999999999994,-0.04423802234677969
0.04539999999999994,-0.04528490870867982
0.04439999999999994,-0.04628935373158401
0.04339999999999994,-0.04732209298048548
0.04239999999999994,-0.04832653800338965
0.04139999999999994,-0.04923195323530328
0.040399999999999936,-0.0501090742412196
0.039399999999999935,-0.051028636586131874
0.038399999999999934,-0.0520472287220347
0.03739999999999993,-0.052938496840949666
0.03639999999999993,-0.05375902939487139
0.03539999999999993,-0.05457956194879311
0.03439999999999993,-0.055428388728712134
0.03339999999999993,-0.0563196568476271
0.03239999999999993,-0.057196777853543435
0.03139999999999993,-0.058045604633462464
0.030399999999999927,-0.058767107396393625
0.029399999999999926,-0.0596300812893113
0.028399999999999925,-0.060521349408226274
0.027399999999999924,-0.06134188196214799
0.026399999999999924,-0.06217656162906836
0.025399999999999923,-0.06298294706999143
0.024399999999999922,-0.06384592096290911
0.02339999999999992,-0.06479377753381868
0.02239999999999992,-0.06562845720073905
0.02139999999999992,-0.06647728398065808
0.020399999999999918,-0.06728366942158114
0.019399999999999917,-0.06811834908850152
0.018399999999999916,-0.0690662056594111
0.017399999999999916,-0.06995747377832606
0.016399999999999915,-0.07079215344524643
0.015399999999999914,-0.0716551273381641
0.014399999999999913,-0.07248980700508448
0.013399999999999912,-0.0734518106889927
0.012399999999999911,-0.07441381437290093
0.01139999999999991,-0.07522019981382401
0.01039999999999991,-0.07609732081974033
0.009399999999999908,-0.07701688316465259
0.008399999999999908,-0.07796473973556219
0.007399999999999907,-0.07894089053246904
0.006399999999999906,-0.07981801153838537
0.005399999999999905,-0.08073757388329764
0.004399999999999904,-0.08169957756720586
0.003399999999999903,-0.08268987547711139
0.002399999999999902,-0.08365187916101963
0.0013999999999999013,-0.08452900016693596
0.00039999999999990044,-0.08549100385084417
-0.0006000000000001005,-0.08645300753475238
-0.0016000000000001013,-0.0874433054446579
-0.0026000000000001022,-0.08844775046756209
-0.003600000000000103,-0.08942390126446896
-0.004600000000000104,-0.09034346360938124
-0.005600000000000105,-0.09137620285828273
-0.006600000000000106,-0.0924938247851761
-0.007600000000000107,-0.09354071114707624
-0.008600000000000108,-0.09451686194398311
-0.009600000000000108,-0.09549301274088996
-0.01060000000000011,-0.09656819332878741
-0.01160000000000011,-0.09769996236867944
-0.012600000000000111,-0.09887417274756742
-0.013600000000000112,-0.09989276488347024
-0.014600000000000113,-0.10091135701937308
-0.015600000000000114,-0.10197239049427186
-0.016600000000000115,-0.10314660087315983
-0.017600000000000116,-0.1042076343480586
-0.018600000000000116,-0.10531110916195333
-0.019600000000000117,-0.10638628974985076
-0.020600000000000118,-0.10746147033774818
-0.02160000000000012,-0.10873471050762673
-0.02260000000000012,-0.10986647954751874
-0.02360000000000012,-0.11098410147441214
-0.024600000000000122,-0.11217245896629877
-0.025600000000000123,-0.11334666934518675
-0.026600000000000124,-0.11463405662806392
-0.027600000000000124,-0.1158365612329492
-0.028600000000000125,-0.11702491872483582
-0.029600000000000126,-0.11821327621672245
-0.030600000000000127,-0.11945822216060371
-0.03160000000000013,-0.12068902099148628
-0.03260000000000013,-0.12204714383935672
-0.03360000000000013,-0.12320720710524605
-0.03460000000000002,-0.12443800593612864
-0.03560000000000002,-0.12571124610600715
-0.03660000000000002,-0.12702692761488163
-0.03760000000000002,-0.12845578602774532
-0.03860000000000002,-0.1296865848586279
-0.039600000000000024,-0.13095982502850645
-0.040600000000000025,-0.13230380076337822
-0.041600000000000026,-0.13364777649825
-0.04260000000000003,-0.1349917522331218
-0.04360000000000003,-0.13634987508099222
-0.04460000000000003,-0.13767970370286536
-0.04560000000000003,-0.13913685634172637
-0.04660000000000003,-0.1405515676415914
-0.04760000000000003,-0.14189554337646318
-0.04860000000000003,-0.1433102546763282
-0.04960000000000003,-0.14458349484620675
-0.050600000000000034,-0.14613967727605828
-0.051600000000000035,-0.14755438857592332
-0.052600000000000036,-0.14911057100577488
-0.053600000000000037,-0.15052528230563988
-0.05460000000000004,-0.15193999360550495
-0.05560000000000004,-0.15335470490536995
-0.05660000000000004,-0.155052358465208
-0.05760000000000004,-0.15646706976507307
-0.05860000000000004,-0.15802325219492458
-0.05960000000000004,-0.15943796349478964
-0.06060000000000004,-0.16085267479465465
-0.061600000000000044,-0.1626917994844792
-0.06260000000000004,-0.16424798191433077
-0.06360000000000005,-0.1658041643441823
-0.06460000000000005,-0.16736034677403386
-0.06560000000000005,-0.16905800033387192
-0.06660000000000005,-0.17047271163373692
-0.06760000000000005,-0.17202889406358848
-0.06860000000000005,-0.1734436053634535
-0.06960000000000005,-0.17514125892329155
-0.07060000000000005,-0.1766974413531431
-0.07160000000000005,-0.1783950949129811
-0.07260000000000005,-0.18023421960280567
-0.07360000000000005,-0.18179040203265723
-0.07460000000000006,-0.18348805559249526
-0.07560000000000006,-0.1851857091523333
-0.07660000000000006,-0.18702483384215784
-0.07760000000000006,-0.18872248740199588
-0.07860000000000006,-0.19027866983184744
-0.07960000000000006,-0.192117794521672
-0.08060000000000006,-0.19381544808151
-0.08160000000000006,-0.19565457277133455
-0.08260000000000006,-0.1973522263311726
-0.08360000000000006,-0.19904987989101067
-0.08460000000000006,-0.2007475334508487
-0.08560000000000006,-0.20258665814067325
-0.08660000000000007,-0.2044257828304978
-0.08760000000000007,-0.20626490752032234
-0.08860000000000007,-0.2081040322101469
-0.08960000000000007,-0.20980168576998495
-0.09060000000000007,-0.2116408104598095
-0.09160000000000007,-0.21347993514963404
-0.09260000000000007,-0.2153190598394586
-0.09360000000000007,-0.21715818452928315
-0.09460000000000007,-0.2189973092191077
-0.09560000000000007,-0.22097790503891873
-0.09660000000000007,-0.22309997198871628
-0.09760000000000008,-0.22493909667854084
-0.09860000000000008,-0.2267782213683654
-0.09960000000000008,-0.22861734605818995
-0.10060000000000008,-0.23059794187800098
-0.10160000000000008,-0.232578537697812
-0.10260000000000008,-0.2345591335176231
-0.10360000000000008,-0.23639825820744764
-0.10460000000000008,-0.23837885402725867
-0.10560000000000008,-0.24021797871708325
-0.10660000000000008,-0.24219857453689428
-0.10760000000000008,-0.2443206414866918
-0.10860000000000009,-0.24615976617651636
-0.10960000000000009,-0.24799889086634092
-0.11060000000000009,-0.25012095781613847
-0.11160000000000009,-0.2521015536359495
-0.11260000000000009,-0.25422362058574705
-0.11360000000000009,-0.2560627452755716
-0.11460000000000009,-0.2580433410953827
-0.11560000000000009,-0.26002393691519377
-0.11660000000000009,-0.2621460038649913
-0.1176000000000001,-0.26412659968480234
-0.1186000000000001,-0.2661071955046134
-0.1196000000000001,-0.267946320194438
-0.1206000000000001,-0.269926916014249
-0.1216000000000001,-0.27204898296404656
-0.1226000000000001,-0.2740295787838576
-0.1236000000000001,-0.27601017460366867
-0.1246000000000001,-0.2779907704234797
-0.1256000000000001,-0.2801128373732773
-0.1266000000000001,-0.28223490432307485
-0.1276000000000001,-0.2843569712728724
-0.1286000000000001,-0.28633756709268343
-0.1296000000000001,-0.2883181629124945
-0.1306000000000001,-0.29044022986229207
-0.1316000000000001,-0.2927037679420761
-0.1326000000000001,-0.29482583489187364
-0.1336000000000001,-0.29680643071168467
-0.1346000000000001,-0.2989284976614822
-0.1356000000000001,-0.30105056461127977
-0.1366000000000001,-0.3031726315610774
-0.1376000000000001,-0.30529469851087493
-0.1386000000000001,-0.30727529433068596
-0.1396000000000001,-0.3093973612804835
-0.1406000000000001,-0.31151942823028106
-0.14160000000000011,-0.31378296631006514
-0.14260000000000012,-0.31576356212987616
-0.14360000000000012,-0.3178856290796737
-0.14460000000000012,-0.32014916715945774
-0.14560000000000012,-0.3222712341092553
-0.14660000000000012,-0.3245347721890394
-0.14760000000000012,-0.326656839138837
-0.14860000000000012,-0.3287789060886345
-0.14960000000000012,-0.3309009730384321
-0.15060000000000012,-0.33316451111821616
-0.15160000000000012,-0.3351451069380272
-0.15260000000000012,-0.33740864501781126
-0.15360000000000013,-0.3396721830975953
-0.15460000000000013,-0.3419357211773794
-0.15560000000000013,-0.34419925925716344
-0.15660000000000013,-0.346321326206961
-0.15760000000000013,-0.34872633541673154
-0.15860000000000013,-0.3508484023665291
-0.15960000000000002,-0.3528289981863401
-0.16060000000000002,-0.3552340073961107
-0.16160000000000002,-0.3577804877358678
-0.16260000000000002,-0.36018549694563834
-0.16360000000000002,-0.36244903502542236
-0.16460000000000002,-0.3647125731052065
-0.16560000000000002,-0.3672590534449635
-0.16660000000000003,-0.3698055337847206
-0.16760000000000003,-0.3720690718645046
-0.16860000000000003,-0.37433260994428874
-0.16960000000000003,-0.3767376191540593
-0.17060000000000003,-0.37914262836382984
-0.17160000000000003,-0.3815476375736004
-0.17260000000000003,-0.383952646783371
-0.17360000000000003,-0.385933242603182
-0.17460000000000003,-0.38833825181295256
-0.17560000000000003,-0.3907432610227231
-0.17660000000000003,-0.3937141547524397
-0.17760000000000004,-0.39611916396221025
-0.17860000000000004,-0.39838270204199433
-0.17960000000000004,-0.40008035560183236
-0.18060000000000004,-0.4024853648116029
-0.18160000000000004,-0.4054562585413195
-0.18260000000000004,-0.4078612677510901
-0.18360000000000004,-0.4104077480908471
-0.18460000000000004,-0.4130956995605908
-0.18560000000000004,-0.4153592376403748
-0.18660000000000004,-0.41818866024010487
-0.18760000000000004,-0.42101808283983494
-0.18860000000000005,-0.423564563179592
-0.18960000000000005,-0.42625251464933556
-0.19060000000000005,-0.4290819372490656
-0.19160000000000005,-0.4316284175888227
-0.19260000000000005,-0.4344578401885528
-0.19360000000000005,-0.43686284939832337
-0.19460000000000005,-0.43955080086806686
-0.19560000000000005,-0.44238022346779693
-0.19660000000000005,-0.44520964606752705
-0.19760000000000005,-0.4480390686672571
-0.19860000000000005,-0.45086849126698714
-0.19960000000000006,-0.4536979138667173
-0.20060000000000006,-0.45652733646644733
-0.20160000000000006,-0.45963970132615045
-0.20260000000000006,-0.46246912392588047
-0.20360000000000006,-0.4650156042656376
-0.20460000000000006,-0.46812796912534066
-0.20560000000000006,-0.4713818051150302
-0.20660000000000006,-0.47421122771476026
-0.20760000000000006,-0.47718212144447686
-0.20860000000000006,-0.4804359574341665
-0.20960000000000006,-0.48340685116388304
-0.21060000000000006,-0.48637774489359964
-0.21160000000000007,-0.48977305201327564
-0.21260000000000007,-0.4928854168729787
-0.21360000000000007,-0.49599778173268183
-0.21460000000000007,-0.4991101465923849
-0.21560000000000007,-0.502505453712061
-0.21660000000000007,-0.5060422319617235
-0.21760000000000007,-0.5097204813413726
-0.21860000000000007,-0.5128328462010757
-0.21960000000000007,-0.5160866821907654
-0.22060000000000007,-0.519340518180455
-0.22160000000000007,-0.5230187675601041
-0.22260000000000008,-0.5264140746797802
-0.22360000000000008,-0.5298093817994564
-0.22460000000000008,-0.5332046889191324
-0.22560000000000008,-0.5365999960388084
-0.22660000000000008,-0.5402782454184575
-0.22760000000000008,-0.5439564947981066
-0.22860000000000008,-0.5476347441777557
-0.22960000000000008,-0.5510300512974318
-0.23060000000000008,-0.5549912429370539
-0.23160000000000008,-0.558952434576676
-0.23260000000000008,-0.5630550973462846
-0.23360000000000009,-0.5667333467259337
-0.2346000000000001,-0.5705530672355693
-0.2356000000000001,-0.5746557300051779
-0.2366000000000001,-0.5786169216447999
-0.2376000000000001,-0.5827195844144085
-0.2386000000000001,-0.5866807760540307
-0.2396000000000001,-0.5910663810836124
-0.2406000000000001,-0.5953105149832074
-0.2416000000000001,-0.599696120012789
-0.2426000000000001,-0.6040817250423707
-0.2436000000000001,-0.6084673300719523
-0.2446000000000001,-0.6125699928415609
-0.2456000000000001,-0.6170970690011289
-0.2466000000000001,-0.6214826740307106
-0.2476000000000001,-0.6258682790602923
-0.2486000000000001,-0.6303953552198603
-0.2496000000000001,-0.6349224313794284
-0.2506000000000001,-0.639873920928956
-0.2516000000000001,-0.6445424682185106
-0.2526000000000001,-0.6492110155080654
-0.2536000000000001,-0.6541625050575929
-0.2546000000000001,-0.6589725234771341
-0.2556000000000001,-0.6640654841566482
-0.2566000000000001,-0.6691584448361624
-0.2576000000000001,-0.6739684632557035
-0.2586000000000001,-0.6790614239352176
-0.2596000000000001,-0.6841543846147318
-0.2606000000000001,-0.6893888164242324
-0.2616000000000001,-0.694906190493706
-0.2626000000000001,-0.7001406223032067
-0.2636000000000001,-0.7053750541127073
-0.2646000000000001,-0.710609485922208
-0.2656000000000001,-0.7154195043417491
-0.2666000000000001,-0.7209368784112227
-0.2676000000000001,-0.7264542524806964
-0.2686000000000001,-0.73197162655017
-0.2696000000000001,-0.7377719428796167
-0.2706000000000001,-0.7434307880790767
-0.2716000000000001,-0.7486652198885775
-0.2726000000000001,-0.7546070073480106
-0.2736000000000001,-0.7599829102874976
-0.2746000000000001,-0.7652173420969983
-0.2756000000000001,-0.7707347161664719
-0.2766000000000001,-0.7765350324959186
-0.2776000000000001,-0.7824768199553517
-0.2786000000000001,-0.7879941940248254
-0.2796000000000001,-0.793511568094299
-0.2806000000000001,-0.7993118844237457
-0.28160000000000013,-0.8046877873632328
-0.28260000000000013,-0.81006369030272
-0.28360000000000013,-0.8157225355021802
-0.2846,-0.8212399095716538
-0.2856,-0.826898754771114
-0.2866,-0.8326990711005606
-0.2876,-0.8379335029100613
-0.2886,-0.8428849924595889
-0.2896,-0.8478364820091164
-0.2906,-0.8533538560785902
-0.2916,-0.8585882878880908
-0.2926,-0.8635397774376183
-0.2936,-0.868774209247119
-0.29460000000000003,-0.8734427565366737
-0.29560000000000003,-0.8781113038262282
-0.29660000000000003,-0.8829213222457692
-0.29760000000000003,-0.8878728117952971
-0.29860000000000003,-0.8925413590848515
-0.29960000000000003,-0.8970684352444198
-0.30060000000000003,-0.9018784536639609
-0.30160000000000003,-0.9062640586935425
-0.30260000000000004,-0.9106496637231241
-0.30360000000000004,-0.9148937976227193
-0.30460000000000004,-0.9191379315223143
-0.30560000000000004,-0.9232405942919228
-0.30660000000000004,-0.9274847281915181
-0.30760000000000004,-0.9313044487011536
-0.30860000000000004,-0.9349826980808027
-0.30960000000000004,-0.9388024185904382
-0.31060000000000004,-0.942622139100074
-0.31160000000000004,-0.9461589173497365
-0.31260000000000004,-0.9499786378593722
-0.31360000000000005,-0.9529495315890888
-0.31460000000000005,-0.9559204253188053
-0.31560000000000005,-0.9591742613084948
-0.31660000000000005,-0.961437799388279
-0.31760000000000005,-0.963701337468063
-0.31860000000000005,-0.9668137023277661
-0.31960000000000005,-0.9702090094474421
-0.32060000000000005,-0.9733213743071454
-0.32160000000000005,-0.9758678546469023
-0.32260000000000005,-0.9781313927266864
-0.32360000000000005,-0.9806778730664433
-0.32460000000000006,-0.983931709056133
-0.32560000000000006,-0.9869026027858494
-0.32660000000000006,-0.9894490831256065
-0.32760000000000006,-0.9922785057253367
-0.32860000000000006,-0.9946835149351072
-0.32960000000000006,-0.9970885241448778
-0.33060000000000006,-0.9996350044846349
-0.33160000000000006,-1.0023229559543785
-0.33260000000000006,-1.004445022904176
-0.33360000000000006,-1.0069915032439332
-0.33460000000000006,-1.00953798358369
-0.33560000000000006,-1.0118015216634741
-0.33660000000000007,-1.0142065308732449
-0.33760000000000007,-1.015904184433083
-0.33860000000000007,-1.018167722512867
-0.33960000000000007,-1.0205727317226374
-0.34060000000000007,-1.0229777409324081
-0.34160000000000007,-1.0255242212721651
-0.34260000000000007,-1.0277877593519493
-0.34360000000000007,-1.0297683551717602
-0.3446000000000001,-1.0316074798615846
-0.3456000000000001,-1.0338710179413688
-0.3466000000000001,-1.0362760271511395
-0.34759999999999996,-1.0388225074908966
-0.3486000000000001,-1.0405201610507344
-0.34959999999999997,-1.0425007568705453
-0.3506000000000001,-1.0440569393003971
-0.35159999999999997,-1.0456131217302487
-0.3526000000000001,-1.0477351886800463
-0.35359999999999997,-1.0498572556298436
-0.3546000000000001,-1.0524037359696008
-0.35559999999999997,-1.054384331789412
-0.3566000000000001,-1.0572137543891418
-0.3576,-1.0591943502089531
-0.3586000000000001,-1.061174946028764
-0.3596,-1.0635799552385345
-0.3606000000000001,-1.0662679067082783
-0.3616,-1.0689558581780219
-0.3626000000000001,-1.0709364539978328
-0.3636,-1.0727755786876572
-0.3646000000000001,-1.0750391167674413
-0.3656,-1.0778685393671714
-0.3666000000000001,-1.080273548576942
-0.3676,-1.0832444423066585
-0.3686000000000001,-1.0863568071663616
-0.3696,-1.0889032875061186
-0.3706000000000001,-1.0921571234958085
-0.3716,-1.0945621327055788
-0.3726000000000001,-1.0966841996553764
-0.3736,-1.09937215112512
-0.3746000000000001,-1.1020601025948635
-0.3756,-1.1051724674545669
-0.3766000000000001,-1.1078604189243102
-0.3776,-1.1112557260439861
-0.3786000000000001,-1.114226619773703
-0.3796,-1.1166316289834735
-0.3806000000000001,-1.1188951670632574
-0.3816,-1.1218660607929742
-0.3826000000000001,-1.1245540122627176
-0.3836,-1.1276663771224207
-0.3846000000000001,-1.1307787419821238
-0.3856,-1.1333252223218808
-0.3866000000000001,-1.1374278850914896
-0.3876,-1.1411061344711386
-0.3886000000000001,-1.1436526148108959
-0.3896,-1.146906450800585
-0.3906000000000001,-1.150584700180234
-0.3916,-1.15440442068987
-0.3926000000000001,-1.1573753144195864
-0.3936,-1.1607706215392626
-0.3946000000000001,-1.1644488709189116
-0.3956,-1.1677027069086015
-0.3966000000000001,-1.1720883119381829
-0.3976,-1.1770398014877106
-0.3986000000000001,-1.179161868437508
-0.3996,-1.1824157044271977
-0.4006000000000001,-1.1896307320565096
-0.4016,-1.1909039722263879
-0.4026000000000001,-1.19486516386601
-0.4036,-1.200241066805497
-0.4046000000000001,-1.2040607873151328
-0.4056,-1.2078805078247683
-0.40660000000000013,-1.2146711220641204
-0.4076,-1.2225935053433648
-0.40860000000000013,-1.2293841195827169
-0.4096,-1.2340526668722716
-0.41060000000000013,-1.2384382719018532
-0.4116,-1.2418335790215291
-0.41260000000000013,-1.247350953091003
-0.4136,-1.2523024426405305
-0.41460000000000014,-1.2571124610600715
-0.4156,-1.2627713062595316
-0.41660000000000014,-1.2651763154693023
-0.4176,-1.273240169878533
-0.41860000000000014,-1.276069592478263
-0.41960000000000003,-1.280879610897804
-0.42060000000000014,-1.2842749180174802
-0.42160000000000003,-1.296299964066333
-0.42260000000000014,-1.3036564628256313
-0.42360000000000003,-1.3086079523751588
-0.42460000000000014,-1.3149741532245516
-0.42560000000000003,-1.3207744695539982
-0.42660000000000015,-1.3260089013634988
-0.42760000000000004,-1.332233631082905
-0.42860000000000015,-1.3385998319322978
-0.42960000000000004,-1.345956330691596
-0.43060000000000015,-1.3538787139708401
-0.43160000000000004,-1.3603863859502194
-0.43260000000000015,-1.3683087692294635
-0.43360000000000004,-1.3753823257287887
-0.43460000000000015,-1.3820314688381543
-0.43560000000000004,-1.389812380987412
-0.43660000000000015,-1.3973103508766969
-0.43760000000000004,-1.4048083207659814
-0.43860000000000016,-1.4115989350053335
-0.43960000000000005,-1.4189554337646317
-0.44060000000000016,-1.426028990263957
-0.44160000000000005,-1.433102546763282
-0.44260000000000016,-1.4415908145624723
-0.44360000000000005,-1.4486643710617975
