Potential V vs RHE, Current mA cm-2
0.013299999999999867,0.12863969849672777
0.012299999999999978,-0.3511313446265021
0.011299999999999866,-0.7437137303390498
0.010299999999999976,-1.0490084288499246
0.009299999999999864,-1.3107300193249565
0.008299999999999974,-1.5293029151541047
0.007299999999999862,-1.7471684553333202
0.006299999999999972,-1.8773218949209036
0.00529999999999986,-2.052746096104168
0.0042999999999999705,-2.1828995356917518
0.0032999999999998586,-2.3144676865791998
0.0022999999999999687,-2.4446211261667834
0.0012999999999998568,-2.532333226758415
0.00029999999999996696,-2.662486666345999
-0.000700000000000145,-2.7501987669376318
-0.0017000000000000348,-2.8379108675292635
-0.0027000000000001467,-2.924208256821031
-0.0037000000000000366,-3.0119203574126634
-0.0047000000000001485,-3.0996324580042955
-0.005700000000000038,-3.1420737970002466
-0.00670000000000015,-3.2297858975918787
-0.00770000000000004,-3.317497998183511
-0.008700000000000152,-3.403795387475278
-0.009700000000000042,-3.447651437771094
-0.010700000000000154,-3.5353635383627267
-0.011700000000000044,-3.623075638954359
-0.012700000000000156,-3.6655169779503103
-0.013700000000000045,-3.7093730282461257
-0.014700000000000157,-3.7970851288377587
-0.015700000000000047,-3.840941179133574
-0.01670000000000016,-3.884797229429391
-0.01770000000000005,-3.927238568425342
-0.01870000000000016,-4.014950669016974
-0.01970000000000005,-4.102662769608606
-0.020700000000000163,-4.1889601589003735
-0.021700000000000053,-4.23281620919619
-0.022700000000000164,-4.3205283097878215
-0.023700000000000054,-4.406825699079589
-0.024700000000000166,-4.494537799671222
-0.025700000000000056,-4.538393849967037
-0.026700000000000168,-4.626105950558669
-0.027700000000000058,-4.668547289554621
-0.02870000000000017,-4.756259390146253
-0.02970000000000006,-4.800115440442069
-0.03070000000000017,-4.887827541033701
-0.03170000000000006,-4.974124930325469
-0.03270000000000017,-5.0618370309171015
-0.03370000000000006,-5.105693081212917
-0.034700000000000175,-5.191990470504685
-0.035700000000000065,-5.279702571096316
-0.03670000000000018,-5.367414671687949
-0.03770000000000007,-5.453712060979717
-0.03870000000000018,-5.5414241615713475
-0.03970000000000007,-5.629136262162981
-0.04070000000000018,-5.715433651454749
-0.04170000000000007,-5.80314575204638
-0.04270000000000018,-5.890857852638012
-0.04370000000000007,-5.9347139029338285
-0.044700000000000184,-6.021011292225596
-0.045700000000000074,-6.108723392817228
-0.046700000000000186,-6.196435493408861
-0.047700000000000076,-6.326588932996443
-0.04870000000000019,-6.458157083883892
-0.04970000000000008,-6.588310523471475
-0.05070000000000019,-6.6760226240631075
-0.05170000000000008,-6.806176063650692
-0.05270000000000019,-6.893888164242324
-0.05370000000000008,-6.981600264833956
-0.05470000000000019,-7.067897654125724
-0.05570000000000008,-7.111753704421539
-0.056700000000000195,-7.155609754717355
-0.057700000000000085,-7.243321855308987
-0.058700000000000196,-7.329619244600755
-0.059700000000000086,-7.461187395488204
-0.0607000000000002,-7.591340835075788
-0.06170000000000009,-7.722908985963235
-0.0627000000000002,-7.809206375255003
-0.06370000000000009,-7.940774526142452
-0.0647000000000002,-8.027071915434218
-0.06570000000000009,-8.11478401602585
-0.0667000000000002,-8.202496116617484
-0.0677000000000001,-8.332649556205066
-0.0687000000000002,-8.464217707092514
-0.0697000000000001,-8.594371146680096
-0.07070000000000021,-8.68208324727173
-0.0717000000000001,-8.812236686859313
-0.07270000000000021,-8.943804837746763
-0.0737000000000001,-9.031516938338395
-0.07470000000000021,-9.161670377925978
-0.0757000000000001,-9.24938247851761
-0.07670000000000021,-9.335679867809377
-0.0777000000000001,-9.467248018696827
-0.07870000000000021,-9.59740145828441
-0.0797000000000001,-9.728969609171857
-0.08070000000000022,-9.81668170976349
-0.0817000000000001,-9.902979099055257
-0.08270000000000022,-9.99069119964689
-0.08370000000000011,-10.078403300238522
-0.08470000000000022,-10.208556739826104
-0.08570000000000011,-10.296268840417738
-0.08670000000000022,-10.382566229709504
-0.08770000000000011,-10.470278330301136
-0.08870000000000022,-10.601846481188586
-0.08970000000000011,-10.731999920776168
-0.09070000000000022,-10.863568071663616
-0.09170000000000011,-10.993721511251199
-0.09270000000000023,-11.081433611842833
-0.09370000000000012,-11.1677310011346
-0.09470000000000023,-11.255443101726232
-0.09570000000000012,-11.343155202317865
-0.09670000000000023,-11.42945259160963
-0.09770000000000012,-11.604876792792895
-0.09870000000000023,-11.73503023238048
-0.09970000000000012,-11.909039722263879
-0.10070000000000023,-12.040607873151327
-0.10170000000000012,-12.170761312738911
-0.10270000000000024,-12.346185513922174
-0.10370000000000013,-12.432482903213943
-0.10470000000000024,-12.520195003805576
-0.10570000000000013,-12.651763154693022
-0.10670000000000024,-12.73806054398479
-0.10770000000000013,-12.825772644576423
-0.10870000000000024,-12.955926084164007
-0.10970000000000013,-13.087494235051453
-0.11070000000000024,-13.217647674639037
-0.11170000000000013,-13.30535977523067
-0.11270000000000002,-13.3930718758223
-0.11370000000000013,-13.436927926118118
-0.11470000000000002,-13.523225315409885
-0.11570000000000014,-13.567081365705702
-0.11670000000000003,-13.654793466297335
-0.11770000000000014,-13.784946905884919
-0.11870000000000003,-13.872659006476551
-0.11970000000000014,-14.002812446064135
-0.12070000000000003,-14.175407224647667
-0.12170000000000014,-14.345172580631472
-0.12270000000000003,-14.486643710617974
-0.12370000000000014,-14.65640906660178
-0.12470000000000003,-14.826174422585586
-0.12570000000000014,-15.01008689156804
-0.12670000000000003,-15.137410908555893
-0.12770000000000015,-15.264734925543747
-0.12870000000000004,-15.3920589425316
-0.12970000000000015,-15.533530072518102
-0.13070000000000004,-15.618412750510005
-0.13170000000000015,-15.74573676749786
-0.13270000000000004,-15.830619445489761
-0.13370000000000015,-15.91550212348166
-0.13470000000000004,-16.014531914472215
-0.13570000000000015,-16.099414592464115
-0.13670000000000004,-16.184297270456018
-0.13770000000000016,-16.269179948447924
-0.13870000000000005,-16.354062626439823
-0.13970000000000016,-16.438945304431726
-0.14070000000000005,-16.622857773414182
-0.14170000000000016,-16.750181790402035
-0.14270000000000005,-16.835064468393938
-0.14370000000000016,-16.877505807389888
-0.14470000000000005,-16.962388485381787
-0.14570000000000016,-17.018976937376394
-0.14670000000000005,-17.103859615368293
-0.14770000000000016,-17.231183632356142
-0.14870000000000005,-17.4433903273359
-0.14970000000000017,-17.627302796318357
-0.15070000000000006,-17.797068152302163
-0.15170000000000017,-17.966833508285966
-0.15270000000000006,-18.10830463827247
-0.15370000000000017,-18.19318731626437
-0.15470000000000006,-18.27806999425627
-0.15570000000000017,-18.362952672248177
-0.15670000000000006,-18.49027668923603
-0.15770000000000017,-18.631747819222536
-0.15870000000000006,-18.759071836210385
-0.15970000000000018,-18.92883719219419
-0.16070000000000007,-19.112749661176647
-0.16170000000000018,-19.2400736781645
-0.16270000000000007,-19.3249563561564
-0.16370000000000018,-19.409839034148305
-0.16470000000000007,-19.452280373144255
-0.16570000000000018,-19.537163051136158
-0.16670000000000007,-19.636192842126707
-0.16770000000000018,-19.721075520118614
-0.16870000000000007,-19.805958198110513
-0.16970000000000018,-19.93328221509837
-0.17070000000000007,-20.01816489309027
-0.17170000000000019,-20.159636023076775
-0.17270000000000008,-20.286960040064624
-0.1737000000000002,-20.414284057052477
-0.17470000000000008,-20.499166735044383
-0.1757000000000002,-20.584049413036283
-0.17670000000000008,-20.72552054302279
-0.1777000000000002,-20.89528589900659
-0.17870000000000008,-21.065051254990397
-0.1797000000000002,-21.248963723972853
-0.18070000000000008,-21.418729079956652
-0.1817000000000002,-21.58849443594046
-0.18270000000000008,-21.772406904922917
-0.1837000000000002,-21.94217226090672
-0.1847000000000001,-22.111937616890522
-0.1857000000000002,-22.253408746877028
-0.1867000000000001,-22.38073276386488
-0.1877000000000002,-22.508056780852733
-0.1887000000000001,-22.67782213683654
-0.1897000000000002,-22.819293266823045
-0.1907000000000001,-22.904175944814945
-0.1917000000000001,-23.031499961802798
-0.19269999999999998,-23.1163826397947
-0.1937000000000001,-23.2012653177866
-0.19469999999999998,-23.300295108777156
-0.1957000000000001,-23.385177786769056
-0.19669999999999999,-23.51250180375691
-0.1977000000000001,-23.639825820744765
-0.1987,-23.823738289727217
-0.1997000000000001,-23.951062306715073
-0.2007,-24.120827662698876
-0.2017000000000001,-24.24815167968673
-0.2027,-24.389622809673234
-0.2037000000000001,-24.516946826661083
-0.2047,-24.64427084364894
-0.2057000000000001,-24.771594860636792
-0.2067,-24.9130659906233
-0.2077000000000001,-25.0828313466071
-0.2087,-25.295038041586857
-0.2097000000000001,-25.478950510569312
-0.2107,-25.648715866553115
-0.2117000000000001,-25.81848122253692
-0.2127,-25.959952352523427
-0.2137000000000001,-26.087276369511276
-0.2147,-26.21460038649913
-0.2157000000000001,-26.29948306449103
-0.2167,-26.440954194477534
-0.21770000000000012,-26.61071955046134
-0.2187,-26.738043567449193
-0.21970000000000012,-26.907808923433
-0.2207,-27.00683871442355
-0.22170000000000012,-27.049280053419505
-0.2227,-27.134162731411404
-0.22370000000000012,-27.176604070407354
-0.2247,-27.261486748399253
-0.22570000000000012,-27.43125210438306
-0.2267,-27.615164573365515
-0.22770000000000012,-27.869812607341224
-0.22870000000000001,-28.13860775431558
-0.22970000000000013,-28.350814449295335
-0.23070000000000002,-28.577168257273744
-0.23170000000000013,-28.789374952253496
-0.23270000000000002,-28.959140308237306
-0.23370000000000013,-29.100611438223805
-0.23470000000000002,-29.18549411621571
-0.23570000000000013,-29.31281813320356
-0.23670000000000002,-29.482583489187363
-0.2376999999999999,-29.62405461917387
-0.23870000000000002,-29.751378636161718
-0.2396999999999999,-29.836261314153624
-0.24070000000000003,-29.878702653149578
-0.24169999999999991,-29.921143992145527
-0.24270000000000003,-30.04846800913338
-0.24369999999999992,-30.274821817111786
-0.24470000000000003,-30.487028512091538
-0.24569999999999992,-30.571911190083444
-0.24670000000000003,-30.670940981073993
-0.24769999999999992,-30.7558236590659
-0.24870000000000003,-30.8407063370578
-0.24969999999999992,-30.968030354045652
-0.25070000000000003,-31.095354371033505
-0.2516999999999999,-31.19438416202406
-0.25270000000000004,-31.36414951800786
-0.2536999999999999,-31.49147353499572
-0.25470000000000004,-31.661238890979522
-0.2556999999999999,-31.84515135996197
-0.25670000000000004,-31.972475376949827
-0.25769999999999993,-32.05735805494172
-0.25870000000000004,-32.14224073293363
-0.25969999999999993,-32.184682071929586
-0.26070000000000004,-32.14224073293363
-0.26169999999999993,-32.14224073293363
-0.26270000000000004,-32.14224073293363
-0.26369999999999993,-32.14224073293363
-0.26470000000000005,-32.24127052392419
-0.26569999999999994,-32.32615320191609
-0.26670000000000005,-32.49591855789989
-0.26769999999999994,-32.66568391388369
-0.26870000000000005,-32.84959638286615
-0.26969999999999994,-32.93447906085806
-0.27070000000000005,-32.93447906085806
-0.27169999999999994,-32.892037721862096
-0.27270000000000005,-32.892037721862096
-0.27369999999999994,-32.84959638286615
-0.27470000000000006,-32.84959638286615
-0.27569999999999995,-32.892037721862096
-0.27670000000000006,-32.93447906085806
-0.27769999999999995,-33.01936173884996
-0.27870000000000006,-33.18912709483376
-0.27969999999999995,-33.41548090281216
-0.28070000000000006,-33.58524625879597
-0.28169999999999995,-33.712570275783825
-0.28270000000000006,-33.755011614779775
-0.28369999999999995,-33.755011614779775
-0.28470000000000006,-33.755011614779775
-0.28569999999999995,-33.670128936787876
-0.28670000000000007,-33.627687597791926
-0.28769999999999996,-33.54280491980002
-0.28870000000000007,-33.50036358080407
-0.28969999999999996,-33.45792224180811
-0.29070000000000007,-33.373039563816214
-0.29169999999999996,-33.330598224820264
-0.29270000000000007,-33.231568433829715
-0.29369999999999996,-33.18912709483376
-0.2947000000000001,-33.10424441684186
-0.29569999999999996,-33.01936173884996
-0.2967000000000001,-32.93447906085806
-0.29769999999999996,-32.892037721862096
-0.2987000000000001,-32.84959638286615
-0.29969999999999997,-32.807155043870196
-0.3007000000000001,-32.807155043870196
-0.30169999999999997,-32.807155043870196
-0.3027000000000001,-32.807155043870196
-0.30369999999999997,-32.807155043870196
-0.3047000000000001,-32.764713704874254
-0.30569999999999997,-32.70812525287965
-0.3067000000000001,-32.62324257488775
-0.3077,-32.62324257488775
-0.3087000000000001,-32.58080123589179
-0.3097,-32.53835989689585
-0.3107000000000001,-32.49591855789989
-0.3117,-32.41103587990799
-0.3127000000000001,-32.283711862920136
-0.3137,-32.09979939393769
-0.3147000000000001,-31.887592698957924
-0.3157,-31.661238890979522
-0.3167000000000001,-31.40659085700382
-0.3177,-31.19438416202406
-0.3187000000000001,-30.968030354045652
-0.3197,-30.79826499806185
-0.3207000000000001,-30.571911190083444
-0.3217,-30.444587173095588
-0.3227000000000001,-30.274821817111786
-0.3237,-30.10505646112798
-0.3247000000000001,-29.921143992145527
-0.3257,-29.793819975157668
-0.3267000000000001,-29.62405461917387
-0.3277,-29.440142150191413
-0.3287000000000001,-29.27037679420761
-0.3297,-29.100611438223805
-0.3307000000000001,-28.91669896924135
-0.3317,-28.746933613257543
-0.3327000000000001,-28.53472691827779
-0.3337,-28.308373110299385
-0.3347000000000001,-28.09616641531963
-0.3357,-27.869812607341224
-0.3367000000000001,-27.65760591236147
-0.3377,-27.43125210438306
-0.3387000000000001,-27.219045409403304
-0.3397,-27.049280053419505
-0.3407000000000001,-26.822926245441096
-0.3417,-26.61071955046134
-0.3427000000000001,-26.38436574248293
-0.3437,-26.129717708507226
-0.3447000000000001,-25.86092256153287
-0.3457,-25.60627452755716
-0.3467000000000001,-25.337479380582806
-0.3477,-25.0828313466071
-0.3487000000000001,-24.814036199632742
-0.3497,-24.601829504652986
-0.3507000000000001,-24.389622809673234
-0.3517,-24.16326900169483
-0.3527000000000001,-23.993503645711023
-0.3537,-23.86617962872317
-0.3547000000000001,-23.682267159740714
-0.3557,-23.51250180375691
-0.35670000000000013,-23.385177786769056
-0.3577,-23.2012653177866
-0.35870000000000013,-23.073941300798747
-0.3597,-22.904175944814945
-0.36070000000000013,-22.67782213683654
-0.3617,-22.508056780852733
-0.3626999999999999,-22.38073276386488
-0.3637,-22.196820294882425
-0.3646999999999999,-22.027054938898623
-0.3657,-21.857289582914817
-0.3666999999999999,-21.729965565926964
-0.3677,-21.58849443594046
-0.3686999999999999,-21.418729079956652
-0.36970000000000003,-21.248963723972853
-0.3706999999999999,-21.065051254990397
-0.37170000000000003,-20.85284456001064
-0.3726999999999999,-20.72552054302279
-0.37370000000000003,-20.541608074040333
-0.3746999999999999,-20.414284057052477
-0.37570000000000003,-20.329401379060574
-0.3766999999999999,-20.286960040064624
-0.37770000000000004,-20.286960040064624
-0.3786999999999999,-20.244518701068674
-0.37970000000000004,-20.244518701068674
-0.3806999999999999,-20.202077362072725
-0.38170000000000004,-20.159636023076775
-0.38269999999999993,-20.10304757108217
-0.38370000000000004,-20.06060623208622
-0.38469999999999993,-20.01816489309027
-0.38570000000000004,-19.93328221509837
-0.38669999999999993,-19.890840876102416
-0.38770000000000004,-19.848399537106463
-0.38869999999999993,-19.805958198110513
-0.38970000000000005,-19.805958198110513
-0.39069999999999994,-19.805958198110513
-0.39170000000000005,-19.805958198110513
-0.39269999999999994,-19.805958198110513
-0.39370000000000005,-19.805958198110513
-0.39469999999999994,-19.763516859114564
-0.39570000000000005,-19.763516859114564
-0.39669999999999994,-19.763516859114564
-0.39770000000000005,-19.805958198110513
-0.39869999999999994,-19.890840876102416
-0.39970000000000006,-19.890840876102416
-0.40069999999999995,-19.93328221509837
-0.40170000000000006,-19.93328221509837
-0.40269999999999995,-19.97572355409432
-0.40370000000000006,-19.97572355409432
-0.40469999999999995,-19.97572355409432
-0.40570000000000006,-19.97572355409432
-0.40669999999999995,-20.01816489309027
-0.40770000000000006,-20.06060623208622
-0.40869999999999995,-20.159636023076775
-0.40970000000000006,-20.244518701068674
-0.41069999999999995,-20.286960040064624
-0.41170000000000007,-20.371842718056527
-0.41269999999999996,-20.414284057052477
-0.41370000000000007,-20.456725396048434
-0.41469999999999996,-20.499166735044383
-0.41570000000000007,-20.541608074040333
-0.41669999999999996,-20.584049413036283
-0.41770000000000007,-20.683079204026836
-0.41869999999999996,-20.76796188201874
-0.4197000000000001,-20.85284456001064
-0.42069999999999996,-20.93772723800254
-0.4217000000000001,-21.022609915994444
-0.42269999999999996,-21.107492593986347
-0.4237000000000001,-21.2065223849769
-0.42469999999999997,-21.248963723972853
-0.4257000000000001,-21.291405062968803
-0.42669999999999997,-21.376287740960702
-0.4277000000000001,-21.418729079956652
-0.42869999999999997,-21.503611757948562
-0.4297000000000001,-21.58849443594046
-0.43069999999999997,-21.729965565926964
-0.4317000000000001,-21.814848243918867
-0.4327,-21.94217226090672
-0.4337000000000001,-22.027054938898623
-0.4347,-22.111937616890522
-0.4357000000000001,-22.196820294882425
-0.4367,-22.253408746877028
-0.4377000000000001,-22.295850085872978
-0.4387,-22.38073276386488
-0.4397000000000001,-22.42317410286083
-0.4407,-22.46561544185678
-0.4417000000000001,-22.508056780852733
-0.4427,-22.592939458844636
-0.4437000000000001,-22.67782213683654
-0.4447,-22.776851927827092
-0.4457000000000001,-22.904175944814945
-0.4467,-23.031499961802798
-0.4477000000000001,-23.1163826397947
-0.4487,-23.300295108777156
-0.4497000000000001,-23.427619125765005
-0.4507,-23.55494314275286
-0.4517000000000001,-23.639825820744765
-0.4527,-23.767149837732617
-0.4537000000000001,-23.86617962872317
-0.4547,-23.951062306715073
-0.4557000000000001,-23.993503645711023
-0.4567,-24.035944984706973
-0.4577000000000001,-24.120827662698876
-0.4587,-24.20571034069078
-0.4597000000000001,-24.290593018682678
-0.4607,-24.389622809673234
-0.4617000000000001,-24.432064148669184
-0.4627,-24.516946826661083
-0.4637000000000001,-24.516946826661083
-0.4647,-24.559388165657033
-0.4657000000000001,-24.559388165657033
-0.4667,-24.601829504652986
-0.4677000000000001,-24.64427084364894
-0.4687,-24.686712182644893
-0.4697000000000001,-24.729153521640843
-0.4707,-24.771594860636792
-0.4717000000000001,-24.870624651627345
-0.4727,-24.9130659906233
-0.4737000000000001,-24.95550732961925
-0.4747,-25.04039000761115
-0.4757000000000001,-25.0828313466071
-0.4767,-25.167714024599
-0.4777000000000001,-25.252596702590903
-0.4787,-25.337479380582806
-0.4797000000000001,-25.43650917157336
-0.4807,-25.478950510569312
-0.48170000000000013,-25.521391849565262
-0.4827,-25.563833188561212
-0.48370000000000013,-25.563833188561212
-0.4847,-25.563833188561212
-0.48570000000000013,-25.563833188561212
-0.4867,-25.563833188561212
-0.4876999999999999,-25.60627452755716
-0.4887,-25.648715866553115
-0.4896999999999999,-25.691157205549064
-0.4907,-25.77603988354097
-0.4916999999999999,-25.81848122253692
-0.4927,-25.81848122253692
-0.4936999999999999,-25.86092256153287
-0.49470000000000003,-25.91751101352747
-0.4956999999999999,-25.91751101352747
-0.49670000000000003,-25.91751101352747
-0.4976999999999999,-25.959952352523427
-0.49870000000000003,-26.002393691519377
-0.4996999999999999,-26.087276369511276
-0.5007,-26.129717708507226
-0.5016999999999999,-26.17215904750318
-0.5027,-26.257041725495082
-0.5036999999999999,-26.257041725495082
-0.5047,-26.257041725495082
-0.5056999999999999,-26.257041725495082
