Potential V vs RHE, Current mA cm-2
0.013299999999999867,0.07945018660042047
0.012299999999999978,-0.23158823978790652
0.011299999999999866,-0.46473266200566454
0.010299999999999976,-0.597998466452951
0.009299999999999864,-0.6858520381745697
0.008299999999999974,-0.7894089053246904
0.007299999999999862,-0.8663692000373485
0.006299999999999972,-0.9076787699934075
0.00529999999999986,-0.9670966445877391
0.0042999999999999705,-1.0338710179413688
0.0032999999999998586,-1.065984964448305
0.0022999999999999687,-1.0969671419153495
0.0012999999999998568,-1.1651562265688442
0.00029999999999996696,-1.1986848843756457
-0.000700000000000145,-1.212831997374296
-0.0017000000000000348,-1.2647519020793427
-0.0027000000000001467,-1.3039394050856041
-0.0037000000000000366,-1.3175206335643086
-0.0047000000000001485,-1.3548690118807456
-0.005700000000000038,-1.4028277249461705
-0.00670000000000015,-1.4189554337646317
-0.00770000000000004,-1.4430055258623373
-0.008700000000000152,-1.4939351326574788
-0.009700000000000042,-1.5151558021554543
-0.010700000000000154,-1.53920589425316
-0.011700000000000044,-1.5915502123481662
-0.012700000000000156,-1.6311621287443874
-0.013700000000000045,-1.6396503965435776
-0.014700000000000157,-1.6721887564404734
-0.015700000000000047,-1.7118006728366943
-0.01670000000000016,-1.72736249713521
-0.01770000000000005,-1.7528273005327806
-0.01870000000000016,-1.7980980621284617
-0.01970000000000005,-1.8292217107254924
-0.020700000000000163,-1.8419541124242775
-0.021700000000000053,-1.897127853119014
-0.022700000000000164,-1.9452280373144257
-0.023700000000000054,-1.9523015938137507
-0.024700000000000166,-1.9862546650105113
-0.025700000000000056,-2.0301107153063276
-0.026700000000000168,-2.051331384804303
-0.027700000000000058,-2.082455033401334
-0.02870000000000017,-2.13762877409607
-0.02970000000000006,-2.1673377113932366
-0.03070000000000017,-2.1913878034909415
-0.03170000000000006,-2.2437321215859485
-0.03270000000000017,-2.283344037982169
-0.03370000000000006,-2.3003205735805494
-0.034700000000000175,-2.339932489976771
-0.035700000000000065,-2.3951062306715074
-0.03670000000000018,-2.420571034069078
-0.03770000000000007,-2.4446211261667834
-0.03870000000000018,-2.49979486686152
-0.03970000000000007,-2.5238449589592253
-0.04070000000000018,-2.539406783257741
-0.04170000000000007,-2.5931658126526123
-0.04270000000000018,-2.648339553347349
-0.04370000000000007,-2.6794632019443796
-0.044700000000000184,-2.7275633861397908
-0.045700000000000074,-2.770004725135742
-0.046700000000000186,-2.795469528533313
-0.047700000000000076,-2.818104909331153
-0.04870000000000019,-2.8732786500258896
-0.04970000000000008,-2.9086464325225156
-0.05070000000000019,-2.935525947219951
-0.05170000000000008,-2.9935291105144173
-0.05270000000000019,-3.0303116043109086
-0.05370000000000008,-3.0458734286094242
-0.05470000000000019,-3.0953883241047
-0.05570000000000008,-3.1434885083001114
-0.056700000000000195,-3.164709177798087
-0.057700000000000085,-3.198662248994848
-0.058700000000000196,-3.2637389687886396
-0.059700000000000086,-3.3061803077845906
-0.0607000000000002,-3.3203274207832414
-0.06170000000000009,-3.3698423162785174
-0.0627000000000002,-3.415113077874199
-0.06370000000000009,-3.436333747372174
-0.0647000000000002,-3.492922199366775
-0.06570000000000009,-3.5636577643600273
-0.0667000000000002,-3.5820490112582726
-0.0677000000000001,-3.6117579485554394
-0.0687000000000002,-3.6683464005500404
-0.0697000000000001,-3.699470049147071
-0.07070000000000021,-3.7206907186450464
-0.0717000000000001,-3.7702056141403233
-0.07270000000000021,-3.8168910870358688
-0.0737000000000001,-3.832452911334385
-0.07470000000000021,-3.881967806829661
-0.0757000000000001,-3.9413856814239923
-0.07670000000000021,-3.969679907421293
-0.0777000000000001,-4.003632978618054
-0.07870000000000021,-4.063050853212385
-0.0797000000000001,-4.085686234010226
-0.08070000000000022,-4.099833347008876
-0.0817000000000001,-4.179057179801319
-0.08270000000000022,-4.23281620919619
-0.08370000000000011,-4.251207456094435
-0.08470000000000022,-4.285160527291196
-0.08570000000000011,-4.338919556686067
-0.08670000000000022,-4.378531473082289
-0.08770000000000011,-4.419558100778375
-0.08870000000000022,-4.487464243171897
-0.08970000000000011,-4.528490870867983
-0.09070000000000022,-4.539808561266903
-0.09170000000000011,-4.585079322862584
-0.09270000000000023,-4.626105950558669
-0.09370000000000012,-4.678450268653676
-0.09470000000000023,-4.749185833646928
-0.09570000000000012,-4.80577428564153
-0.09670000000000023,-4.83406851163883
-0.09770000000000012,-4.855289181136806
-0.09870000000000023,-4.882168695834241
-0.09970000000000012,-4.910462921831542
-0.10070000000000023,-4.9444159930283025
-0.10170000000000012,-5.046275206618586
-0.10270000000000024,-5.128328462010757
-0.10370000000000013,-5.159452110607789
-0.10470000000000024,-5.221699407801851
-0.10570000000000013,-5.288190838895507
-0.10670000000000024,-5.303752663194023
-0.10770000000000013,-5.341949868290378
-0.10870000000000024,-5.4296619688820105
-0.10970000000000013,-5.472103307877963
-0.11070000000000024,-5.523032914673103
-0.11170000000000013,-5.62064799436379
-0.11270000000000002,-5.6984571158563675
-0.11370000000000013,-5.715433651454749
-0.11470000000000002,-5.745142588751914
-0.11570000000000014,-5.830025266743816
-0.11670000000000003,-5.896516697837473
-0.11770000000000014,-5.950275727232344
-0.11870000000000003,-6.005449467927082
-0.11970000000000014,-6.037987827823977
-0.12070000000000003,-6.0917468572188485
-0.12170000000000014,-6.195020782108996
-0.12270000000000003,-6.278488748801033
-0.12370000000000014,-6.329418355596174
-0.12470000000000003,-6.40156863188929
-0.12570000000000014,-6.456742372584028
-0.12670000000000003,-6.509086690679034
-0.12770000000000015,-6.53596620537647
-0.12870000000000004,-6.591139946071206
-0.12970000000000015,-6.704316850060409
-0.13070000000000004,-6.840129134847452
-0.13170000000000015,-6.95189132753679
-0.13270000000000004,-7.066482942825859
-0.13370000000000015,-7.125900817420191
-0.13470000000000004,-7.110338993121674
-0.13570000000000015,-7.1089242818218095
-0.13670000000000004,-7.183903980714656
-0.13770000000000016,-7.2928367508042635
-0.13870000000000005,-7.384792985295491
-0.13970000000000016,-7.458357972888473
-0.14070000000000005,-7.567290742978082
-0.14170000000000016,-7.677638224367555
-0.14270000000000005,-7.725738408562965
-0.14370000000000016,-7.7653503249591855
-0.14470000000000005,-7.855891848150549
-0.14570000000000016,-7.956336350440965
-0.14670000000000005,-8.03273076063368
-0.14770000000000016,-8.127516417724635
-0.14870000000000005,-8.240693321713838
-0.14970000000000017,-8.287378794609385
-0.15070000000000006,-8.358114359602638
-0.15170000000000017,-8.48543837659049
-0.15270000000000006,-8.554759230283878
-0.15370000000000017,-8.619835950077668
-0.15470000000000006,-8.783942460862013
-0.15570000000000017,-8.952293105545952
-0.15670000000000006,-9.04424934003718
-0.15770000000000017,-9.119229038930026
-0.15870000000000006,-9.221088252520309
-0.15970000000000018,-9.243723633318151
-0.16070000000000007,-9.283335549714371
-0.16170000000000018,-9.407830144102494
-0.16270000000000007,-9.501201089893586
-0.16370000000000018,-9.560618964487917
-0.16470000000000007,-9.605889726083598
-0.16570000000000018,-9.70774893967388
-0.16670000000000007,-9.801119885464974
-0.16770000000000018,-9.891661408656336
-0.16870000000000007,-9.989276488347024
-0.16970000000000018,-10.02464427084365
-0.17070000000000007,-10.095379835836901
-0.17170000000000019,-10.208556739826104
-0.17270000000000008,-10.335880756813957
-0.1737000000000002,-10.494328422398842
-0.17470000000000008,-10.664093778382647
-0.1757000000000002,-10.756050012873873
-0.17670000000000008,-10.767367703272795
-0.1777000000000002,-10.914497678458758
-0.17870000000000008,-11.027674582447961
-0.1797000000000002,-11.037577561547016
-0.18070000000000008,-11.067286498844181
-0.1817000000000002,-11.194610515832036
-0.18270000000000008,-11.273834348624478
-0.1837000000000002,-11.360131737916245
-0.1847000000000001,-11.531311805199914
-0.1857000000000002,-11.623268039691142
-0.1867000000000001,-11.644488709189117
-0.1877000000000002,-11.756250901878454
-0.1887000000000001,-11.92884568046199
-0.1897000000000002,-11.99392240025578
-0.1907000000000001,-12.029290182752407
-0.1917000000000001,-12.131149396342689
-0.19269999999999998,-12.245741011631758
-0.1937000000000001,-12.31930599922474
-0.19469999999999998,-12.405603388516507
-0.1957000000000001,-12.484827221308949
-0.19669999999999999,-12.559806920201796
-0.1977000000000001,-12.619224794796127
-0.1987,-12.699863338888433
-0.1997000000000001,-12.752207656983442
-0.2007,-12.817284376777232
-0.2017000000000001,-12.902167054769135
-0.2027,-12.896508209569674
-0.2037000000000001,-12.913484745168056
-0.2047,-12.987049732761037
-0.2057000000000001,-13.1058854819497
-0.2067,-13.13135028534727
-0.2077000000000001,-13.134179707947
-0.2087,-13.268577281434178
-0.2097000000000001,-13.397316009721898
-0.2107,-13.438342637417984
-0.2117000000000001,-13.535957717108671
-0.2127,-13.599619725602597
-0.2137000000000001,-13.613766838601249
-0.2147,-13.620840395100572
-0.2157000000000001,-13.72128489739099
-0.2167,-13.794849884983973
-0.21770000000000012,-13.841535357879518
-0.2187,-13.936321014970476
-0.21970000000000012,-14.009886002563457
-0.2207,-14.004227157363998
-0.22170000000000012,-14.0325213833613
-0.2227,-14.074962722357249
-0.22370000000000012,-14.104671659654418
-0.2247,-14.175407224647667
-0.22570000000000012,-14.203701450644967
-0.2267,-14.161260111649016
-0.22770000000000012,-14.144283576050634
-0.22870000000000001,-14.217848563643619
-0.22970000000000013,-14.24614278964092
-0.23070000000000002,-14.203701450644967
-0.23170000000000013,-14.203701450644967
-0.23270000000000002,-14.10325694835455
-0.23370000000000013,-13.964615240967778
-0.23470000000000002,-14.028277249461704
-0.23570000000000013,-14.24614278964092
-0.23670000000000002,-14.30273124163552
-0.2376999999999999,-14.231995676642269
-0.23870000000000002,-14.203701450644967
-0.2396999999999999,-14.175407224647667
-0.24070000000000003,-14.022618404262245
-0.24169999999999991,-13.949053416669262
-0.24270000000000003,-13.925003324571557
-0.24369999999999992,-13.869829583876818
-0.24470000000000003,-13.865585449977225
-0.24569999999999992,-13.91227092287277
-0.24670000000000003,-13.845779491779115
-0.24769999999999992,-13.743920278188831
-0.24870000000000003,-13.66186702279666
-0.24969999999999992,-13.540201851008266
-0.25070000000000003,-13.397316009721898
-0.2516999999999999,-13.352045248126215
-0.25270000000000004,-13.354874670725946
-0.2536999999999999,-13.289797950932153
-0.25470000000000004,-13.189353448641736
-0.2556999999999999,-13.124276728847946
-0.25670000000000004,-13.043638184755638
-0.25769999999999993,-12.91489945646792
-0.25870000000000004,-12.820113799376964
-0.25969999999999993,-12.675813246790728
-0.26070000000000004,-12.472094819610163
-0.26169999999999993,-12.388626852918126
-0.26270000000000004,-12.37306502861961
-0.26369999999999993,-12.291011773227439
-0.26470000000000005,-12.158028911040125
-0.26569999999999994,-12.029290182752407
-0.26670000000000005,-11.872257228467388
-0.26769999999999994,-11.76049503577805
-0.26870000000000005,-11.681271202985608
-0.26969999999999994,-11.573753144195864
-0.27070000000000005,-11.456332106307068
-0.27169999999999994,-11.372864139615029
-0.27270000000000005,-11.234222432228256
-0.27369999999999994,-11.040406984146745
-0.27470000000000006,-10.886203452461459
-0.27569999999999995,-10.744732322474952
-0.27670000000000006,-10.613164171587506
-0.27769999999999995,-10.519793225796413
-0.27870000000000006,-10.441984104303836
-0.27969999999999995,-10.327392489014768
-0.28070000000000006,-10.222703852824754
-0.28169999999999995,-10.132162329633392
-0.28270000000000006,-9.938346881551883
-0.28369999999999995,-9.728969609171857
-0.28470000000000006,-9.576180788786434
-0.28569999999999995,-9.455930328297907
-0.28670000000000007,-9.356900537307352
-0.28769999999999996,-9.269188436715721
-0.28870000000000007,-9.160255666626112
-0.28969999999999996,-8.997563867141633
-0.29070000000000007,-8.83911620155675
-0.29169999999999996,-8.764136502663902
-0.29270000000000007,-8.68208324727173
-0.29369999999999996,-8.55334451898401
-0.2947000000000001,-8.47129126359184
-0.29569999999999996,-8.4203616567967
-0.2967000000000001,-8.31991715450628
-0.29769999999999996,-8.186934292318968
-0.2987000000000001,-8.092148635228009
-0.29969999999999997,-7.976142308639078
-0.3007000000000001,-7.862965404649874
-0.30169999999999997,-7.8431594464517636
-0.3027000000000001,-7.8431594464517636
-0.30369999999999997,-7.782326860557566
-0.3047000000000001,-7.68471178086688
-0.30569999999999997,-7.57294958817754
-0.3067000000000001,-7.495140466684964
-0.3077,-7.468260951987529
-0.3087000000000001,-7.438552014690363
-0.3097,-7.366401738397246
-0.3107000000000001,-7.32820453330089
-0.3117,-7.35649875929819
-0.3127000000000001,-7.376304717496302
-0.3137,-7.308398575102779
-0.3147000000000001,-7.223515897110879
-0.3157,-7.199465805013171
-0.3167000000000001,-7.15136562081776
-0.3177,-7.107509570521944
-0.3187000000000001,-7.120241972220731
-0.3197,-7.1145831270212705
-0.3207000000000001,-7.077800633224777
-0.3217,-7.069312365425588
-0.3227000000000001,-7.077800633224777
-0.3237,-7.031115160329232
-0.3247000000000001,-7.0297004490293675
-0.3257,-7.0763859219249134
-0.3267000000000001,-7.083459478424238
-0.3277,-7.060824097626399
-0.3287000000000001,-7.12307139482046
-0.3297,-7.158439177317086
-0.3307000000000001,-7.158439177317086
-0.3317,-7.169756867716005
-0.3327000000000001,-7.144292064318436
-0.3337,-7.12307139482046
-0.3347000000000001,-7.171171579015871
-0.3357,-7.200880516313037
-0.3367000000000001,-7.203709938912767
-0.3377,-7.248980700508447
-0.3387000000000001,-7.311227997702509
-0.3397,-7.302739729903319
-0.3407000000000001,-7.232004164910067
-0.3417,-7.263127813507099
-0.3427000000000001,-7.33386337850035
-0.3437,-7.3649870270973805
-0.3447000000000001,-7.403184232193737
-0.3457,-7.452699127689013
-0.3467000000000001,-7.468260951987529
-0.3477,-7.489481621485504
-0.3487000000000001,-7.544655362180241
-0.3497,-7.57294958817754
-0.3507000000000001,-7.592755546375652
-0.3517,-7.6408557305710625
-0.3527000000000001,-7.727153119862831
-0.3537,-7.752617923260401
-0.3547000000000001,-7.7512032119605365
-0.3557,-7.831841756052842
-0.35670000000000013,-7.952092216541371
-0.3577,-8.017168936335162
-0.35870000000000013,-8.049707296232057
-0.3597,-8.048292584932193
-0.36070000000000013,-8.059610275331114
-0.3617,-8.093563346527874
-0.3626999999999999,-8.12044286122531
-0.3637,-8.152981221122205
-0.3646999999999999,-8.209569673116807
-0.3657,-8.321331865806146
-0.3666999999999999,-8.387823296899802
-0.3677,-8.404799832498183
-0.3686999999999999,-8.444411748894403
-0.36970000000000003,-8.413288100297372
-0.3706999999999999,-8.4203616567967
-0.37170000000000003,-8.544856251184823
-0.3726999999999999,-8.656618443874159
-0.37370000000000003,-8.69623036027038
-0.3746999999999999,-8.734427565366737
-0.37570000000000003,-8.846189758056074
-0.3766999999999999,-8.991905021942173
-0.37770000000000004,-8.990490310642308
-0.3786999999999999,-8.827798511157829
-0.37970000000000004,-8.826383799857965
-0.3806999999999999,-8.820724954658504
-0.38170000000000004,-8.860336871054725
-0.38269999999999993,-9.031516938338395
-0.38370000000000004,-9.236650076818824
-0.38469999999999993,-9.31162977571167
-0.38570000000000004,-9.164499800525707
-0.38669999999999993,-9.076787699934075
-0.38770000000000004,-9.136205574528407
-0.38869999999999993,-9.185720470023682
-0.38970000000000005,-9.192794026523009
-0.39069999999999994,-9.294653240113291
-0.39170000000000005,-9.45451561699804
-0.39269999999999994,-9.528080604591022
-0.39370000000000005,-9.484224554295206
-0.39469999999999994,-9.42622139100074
-0.39570000000000005,-9.475736286496016
-0.39669999999999994,-9.48563926559507
-0.39770000000000005,-9.515348202892236
-0.39869999999999994,-9.627110395581575
-0.39970000000000006,-9.744531433470373
-0.40069999999999995,-9.839317090561332
-0.40170000000000006,-9.912882078154311
-0.40269999999999995,-9.919955634653638
-0.40370000000000006,-9.938346881551883
-0.40469999999999995,-9.945420438051208
-0.40570000000000006,-9.966641107549185
-0.40669999999999995,-9.992105910946753
-0.40770000000000006,-10.07274445503906
-0.40869999999999995,-10.150553576531639
-0.40970000000000006,-10.043035517741895
-0.41069999999999995,-10.054353208140816
-0.41170000000000007,-10.137821174832853
-0.41269999999999996,-10.093965124537037
-0.41370000000000007,-10.07557387763879
-0.41469999999999996,-10.232606831923809
-0.41570000000000007,-10.316074798615848
-0.41669999999999996,-10.255242212721651
-0.41770000000000007,-10.219874430225024
-0.41869999999999996,-10.292024706518141
-0.4197000000000001,-10.267974614420435
-0.42069999999999996,-10.19299491552759
-0.4217000000000001,-10.205727317226374
-0.42269999999999996,-10.22411856412462
-0.4237000000000001,-10.21563029632543
-0.42469999999999997,-10.28919528391841
-0.4257000000000001,-10.388225074908965
-0.42669999999999997,-10.350027869812608
-0.4277000000000001,-10.279292304819355
-0.42869999999999997,-10.290609995218277
-0.4297000000000001,-10.311830664716252
-0.43069999999999997,-10.327392489014768
-0.4317000000000001,-10.376907384510044
-0.4327,-10.399542765307885
-0.4337000000000001,-10.367004405410988
-0.4347,-10.323148355115173
-0.4357000000000001,-10.354272003712204
-0.4367,-10.400957476607749
-0.4377000000000001,-10.348613158512745
-0.4387,-10.304757108216927
-0.4397000000000001,-10.324563066415037
-0.4407,-10.386810363609099
-0.4417000000000001,-10.46886361900127
-0.4427,-10.474522464200732
-0.4437000000000001,-10.372663250610449
-0.4447,-10.279292304819355
-0.4457000000000001,-10.249583367522192
-0.4467,-10.23543625452354
-0.4477000000000001,-10.265145191820706
-0.4487,-10.371248539310583
-0.4497000000000001,-10.432081125204782
-0.4507,-10.412275167006669
-0.4517000000000001,-10.347198447212879
-0.4527,-10.23543625452354
-0.4537000000000001,-10.208556739826104
-0.4547,-10.260901057921112
-0.4557000000000001,-10.276462882219626
-0.4567,-10.292024706518141
-0.4577000000000001,-10.37549267321018
-0.4587,-10.483010731999922
-0.4597000000000001,-10.491498999799111
-0.4607,-10.436325259104375
-0.4617000000000001,-10.430666413904916
-0.4627,-10.46886361900127
-0.4637000000000001,-10.532525627495199
-0.4647,-10.630140707185886
-0.4657000000000001,-10.730585209476303
-0.4667,-10.80839433096888
-0.4677000000000001,-10.911668255859027
-0.4687,-11.053139385845531
-0.4697000000000001,-11.13094850733811
-0.4707,-11.256857813026096
-0.4717000000000001,-11.473308641905447
-0.4727,-11.657221110887901
-0.4737000000000001,-11.783130416575892
-0.4747,-11.979775287257132
-0.4757000000000001,-12.266961681129732
-0.4767,-12.565465765401257
-0.4777000000000001,-12.899337632169406
-0.4787,-13.306774486530536
-0.4797000000000001,-13.741090855589102
-0.4807,-14.231995676642269
-0.48170000000000013,-14.854468648582884
-0.4827,-15.604265637511356
-0.48370000000000013,-16.424798191433077
-0.4847,-17.386801875341302
-0.48570000000000013,-18.561012254229283
-0.4867,-19.862546650105116
-0.4876999999999999,-21.362140627962056
-0.4887,-23.017352848804148
-0.4896999999999999,-24.71500640864219
-0.4907,-26.63901377645864
-0.4916999999999999,-28.676198048264297
-0.4927,-30.54361696408614
-0.4936999999999999,-32.297858975918786
-0.49470000000000003,-34.26430768273119
-0.4956999999999999,-36.3439332935328
-0.49670000000000003,-38.23964643535194
-0.4976999999999999,-40.03632978618054
-0.49870000000000003,-41.719836233019926
-0.4996999999999999,-43.41748979285798
-0.5007,-45.05855490070142
-0.5016999999999999,-46.713767121543505
-0.5027,-48.35483222938696
-0.5036999999999999,-49.84027909424525
-0.5047,-51.36816729809948
-0.5056999999999999,-52.62726035497937
-0.5067,-53.70244094287679
-0.5076999999999999,-54.67859173978366
