Potential V vs RHE, Current mA cm-2
0.013299999999999867,0.12863969849672777
0.012299999999999978,-0.3511313446265021
0.011299999999999866,-0.7872868383748929
0.010299999999999976,-1.1362961160515976
0.009299999999999864,-1.4415908145624723
0.008299999999999974,-1.7033124050375041
0.007299999999999862,-1.9650339955125358
0.006299999999999972,-2.1828995356917518
0.00529999999999986,-2.4007650758709675
0.0042999999999999705,-2.576189277054232
0.0032999999999998586,-2.7501987669376318
0.0022999999999999687,-2.968064307116847
0.0012999999999998568,-3.0996324580042955
0.00029999999999996696,-3.273641947887695
-0.000700000000000145,-3.403795387475278
-0.0017000000000000348,-3.5353635383627267
-0.0027000000000001467,-3.6655169779503103
-0.0037000000000000366,-3.7532290785419424
-0.0047000000000001485,-3.884797229429391
-0.005700000000000038,-3.971094618721158
-0.00670000000000015,-4.0588067193127895
-0.00770000000000004,-4.146518819904423
-0.008700000000000152,-4.23281620919619
-0.009700000000000042,-4.3205283097878215
-0.010700000000000154,-4.450681749375406
-0.011700000000000044,-4.538393849967037
-0.012700000000000156,-4.626105950558669
-0.013700000000000045,-4.712403339850438
-0.014700000000000157,-4.800115440442069
-0.015700000000000047,-4.9302688800296535
-0.01670000000000016,-5.017980980621284
-0.01770000000000005,-5.105693081212917
-0.01870000000000016,-5.191990470504685
-0.01970000000000005,-5.279702571096316
-0.020700000000000163,-5.367414671687949
-0.021700000000000053,-5.411270721983764
-0.022700000000000164,-5.5414241615713475
-0.023700000000000054,-5.585280211867165
-0.024700000000000166,-5.629136262162981
-0.025700000000000056,-5.715433651454749
-0.026700000000000168,-5.80314575204638
-0.027700000000000058,-5.890857852638012
-0.02870000000000017,-5.977155241929781
-0.02970000000000006,-6.064867342521412
-0.03070000000000017,-6.196435493408861
-0.03170000000000006,-6.282732882700628
-0.03270000000000017,-6.414301033588076
-0.03370000000000006,-6.500598422879844
-0.034700000000000175,-6.632166573767292
-0.035700000000000065,-6.719878674358924
-0.03670000000000018,-6.806176063650692
-0.03770000000000007,-6.893888164242324
-0.03870000000000018,-6.981600264833956
-0.03970000000000007,-7.067897654125724
-0.04070000000000018,-7.155609754717355
-0.04170000000000007,-7.243321855308987
-0.04270000000000018,-7.37347529489657
-0.04370000000000007,-7.461187395488204
-0.044700000000000184,-7.591340835075788
-0.045700000000000074,-7.722908985963235
-0.046700000000000186,-7.853062425550818
-0.047700000000000076,-7.940774526142452
-0.04870000000000019,-8.070927965730034
-0.04970000000000008,-8.158640066321666
-0.05070000000000019,-8.288793505909249
-0.05170000000000008,-8.376505606500881
-0.05270000000000019,-8.508073757388331
-0.05370000000000008,-8.594371146680096
-0.05470000000000019,-8.725939297567548
-0.05570000000000008,-8.812236686859313
-0.056700000000000195,-8.943804837746763
-0.057700000000000085,-9.031516938338395
-0.058700000000000196,-9.161670377925978
-0.059700000000000086,-9.293238528813426
-0.0607000000000002,-9.423391968401008
-0.06170000000000009,-9.55496011928846
-0.0627000000000002,-9.685113558876042
-0.06370000000000009,-9.81668170976349
-0.0647000000000002,-9.946835149351072
-0.06570000000000009,-10.078403300238522
-0.0667000000000002,-10.208556739826104
-0.0677000000000001,-10.340124890713554
-0.0687000000000002,-10.470278330301136
-0.0697000000000001,-10.644287820184536
-0.07070000000000021,-10.775855971071984
-0.0717000000000001,-10.906009410659568
-0.07270000000000021,-11.037577561547016
-0.0737000000000001,-11.1677310011346
-0.07470000000000021,-11.343155202317865
-0.0757000000000001,-11.473308641905447
-0.07670000000000021,-11.604876792792895
-0.0777000000000001,-11.73503023238048
-0.07870000000000021,-11.909039722263879
-0.0797000000000001,-12.040607873151327
-0.08070000000000022,-12.170761312738911
-0.0817000000000001,-12.302329463626359
-0.08270000000000022,-12.432482903213943
-0.08370000000000011,-12.56405105410139
-0.08470000000000022,-12.651763154693022
-0.08570000000000011,-12.781916594280606
-0.08670000000000022,-12.913484745168056
-0.08770000000000011,-13.087494235051453
-0.08870000000000022,-13.217647674639037
-0.08970000000000011,-13.349215825526485
-0.09070000000000022,-13.47936926511407
-0.09170000000000011,-13.654793466297335
-0.09270000000000023,-13.784946905884919
-0.09370000000000012,-13.916515056772363
-0.09470000000000023,-14.046668496359947
-0.09570000000000012,-14.217848563643619
-0.09670000000000023,-14.345172580631472
-0.09770000000000012,-14.486643710617974
-0.09870000000000023,-14.61396772760583
-0.09970000000000012,-14.741291744593681
-0.10070000000000023,-14.868615761581536
-0.10170000000000012,-15.01008689156804
-0.10270000000000024,-15.179852247551842
-0.10370000000000013,-15.307176264539699
-0.10470000000000024,-15.491088733522153
-0.10570000000000013,-15.660854089505953
-0.10670000000000024,-15.830619445489761
-0.10770000000000013,-16.014531914472215
-0.10870000000000024,-16.184297270456018
-0.10970000000000013,-16.311621287443874
-0.11070000000000024,-16.53797509542228
-0.11170000000000013,-16.665299112410132
-0.11270000000000002,-16.835064468393938
-0.11370000000000013,-17.018976937376394
-0.11470000000000002,-17.103859615368293
-0.11570000000000014,-17.2736249713521
-0.11670000000000003,-17.40094898833995
-0.11770000000000014,-17.584861457322408
-0.11870000000000003,-17.71218547431026
-0.11970000000000014,-17.839509491298113
-0.12070000000000003,-17.966833508285966
-0.12170000000000014,-18.15074597726842
-0.12270000000000003,-18.27806999425627
-0.12370000000000014,-18.44783535024008
-0.12470000000000003,-18.631747819222536
-0.12570000000000014,-18.759071836210385
-0.12670000000000003,-18.92883719219419
-0.12770000000000015,-19.01371987018609
-0.12870000000000004,-19.197632339168546
-0.12970000000000015,-19.28251501716045
-0.13070000000000004,-19.409839034148305
-0.13170000000000015,-19.537163051136158
-0.13270000000000004,-19.636192842126707
-0.13370000000000015,-19.763516859114564
-0.13470000000000004,-19.848399537106463
-0.13570000000000015,-19.97572355409432
-0.13670000000000004,-20.10304757108217
-0.13770000000000016,-20.244518701068674
-0.13870000000000005,-20.456725396048434
-0.13970000000000016,-20.626490752032236
-0.14070000000000005,-20.85284456001064
-0.14170000000000016,-21.022609915994444
-0.14270000000000005,-21.248963723972853
-0.14370000000000016,-21.418729079956652
-0.14470000000000005,-21.67337711393236
-0.14570000000000016,-21.94217226090672
-0.14670000000000005,-22.15437895588647
-0.14770000000000016,-22.38073276386488
-0.14870000000000005,-22.592939458844636
-0.14970000000000017,-22.776851927827092
-0.15070000000000006,-22.946617283810895
-0.15170000000000017,-23.073941300798747
-0.15270000000000006,-23.2012653177866
-0.15370000000000017,-23.300295108777156
-0.15470000000000006,-23.427619125765005
-0.15570000000000017,-23.51250180375691
-0.15670000000000006,-23.639825820744765
-0.15770000000000017,-23.724708498736668
-0.15870000000000006,-23.823738289727217
-0.15970000000000018,-23.951062306715073
-0.16070000000000007,-24.078386323702922
-0.16170000000000018,-24.20571034069078
-0.16270000000000007,-24.389622809673234
-0.16370000000000018,-24.601829504652986
-0.16470000000000007,-24.771594860636792
-0.16570000000000018,-24.95550732961925
-0.16670000000000007,-25.12527268560305
-0.16770000000000018,-25.252596702590903
-0.16870000000000007,-25.337479380582806
-0.16970000000000018,-25.478950510569312
-0.17070000000000007,-25.563833188561212
-0.17170000000000019,-25.648715866553115
-0.17270000000000008,-25.73359854454502
-0.1737000000000002,-25.81848122253692
-0.17470000000000008,-25.959952352523427
-0.1757000000000002,-26.087276369511276
-0.17670000000000008,-26.29948306449103
-0.1777000000000002,-26.568278211465387
-0.17870000000000008,-26.780484906445146
-0.1797000000000002,-27.091721392415455
-0.18070000000000008,-27.34636942639116
-0.1817000000000002,-27.615164573365515
-0.18270000000000008,-27.827371268345274
-0.1837000000000002,-28.05372507632368
-0.1847000000000001,-28.22349043230748
-0.1857000000000002,-28.350814449295335
-0.1867000000000001,-28.478138466283188
-0.1877000000000002,-28.577168257273744
-0.1887000000000001,-28.704492274261593
-0.1897000000000002,-28.789374952253496
-0.1907000000000001,-28.8742576302454
-0.1917000000000001,-29.001581647233255
-0.19269999999999998,-29.100611438223805
-0.1937000000000001,-29.22793545521166
-0.19469999999999998,-29.31281813320356
-0.1957000000000001,-29.482583489187363
-0.19669999999999999,-29.66649595816982
-0.1977000000000001,-29.836261314153624
-0.1987,-30.00602667013743
-0.1997000000000001,-30.189939139119886
-0.2007,-30.317263156107735
-0.2017000000000001,-30.444587173095588
-0.2027,-30.571911190083444
-0.2037000000000001,-30.670940981073993
-0.2047,-30.7558236590659
-0.2057000000000001,-30.925589015049702
-0.2067,-31.010471693041605
-0.2077000000000001,-31.19438416202406
-0.2087,-31.27926684001596
-0.2097000000000001,-31.40659085700382
-0.2107,-31.57635621298762
-0.2117000000000001,-31.76026868197007
-0.2127,-31.930034037953877
-0.2137000000000001,-32.09979939393769
-0.2147,-32.283711862920136
-0.2157000000000001,-32.45347721890394
-0.2167,-32.62324257488775
-0.21770000000000012,-32.807155043870196
-0.2187,-32.93447906085806
-0.21970000000000012,-33.10424441684186
-0.2207,-33.231568433829715
-0.22170000000000012,-33.41548090281216
-0.2227,-33.58524625879597
-0.22370000000000012,-33.81160006677438
-0.2247,-34.02380676175414
-0.22570000000000012,-34.278454795729836
-0.2267,-34.58969128170015
-0.22770000000000012,-34.94336910666641
-0.22870000000000001,-35.32534115762997
-0.22970000000000013,-35.636577643600276
-0.23070000000000002,-35.94781412957058
-0.23170000000000013,-36.16002082455034
-0.23270000000000002,-36.244903502542236
-0.23370000000000013,-36.329786180534136
-0.23470000000000002,-36.329786180534136
-0.23570000000000013,-36.329786180534136
-0.23670000000000002,-36.37222751953009
-0.2376999999999999,-36.37222751953009
-0.23870000000000002,-36.47125731052064
-0.2396999999999999,-36.64102266650445
-0.24070000000000003,-36.8532293614842
-0.24169999999999991,-37.206907186450465
-0.24270000000000003,-37.51814367242077
-0.24369999999999992,-37.687909028404576
-0.24470000000000003,-37.81523304539243
-0.24569999999999992,-37.81523304539243
-0.24670000000000003,-37.77279170639648
-0.24769999999999992,-37.687909028404576
-0.24870000000000003,-37.645467689408626
-0.24969999999999992,-37.60302635041268
-0.25070000000000003,-37.56058501141672
-0.2516999999999999,-37.56058501141672
-0.25270000000000004,-37.60302635041268
-0.2536999999999999,-37.687909028404576
-0.25470000000000004,-37.77279170639648
-0.2556999999999999,-37.90011572338433
-0.25670000000000004,-38.16891087035869
-0.25769999999999993,-38.522588695324956
-0.25870000000000004,-38.90456074628851
-0.25969999999999993,-39.30067991025072
-0.26070000000000004,-39.56947505722508
-0.26169999999999993,-39.78168175220483
-0.26270000000000004,-39.90900576919269
-0.26369999999999993,-39.99388844718459
-0.26470000000000005,-39.99388844718459
-0.26569999999999994,-40.092918238175145
-0.26670000000000005,-40.177800916167044
-0.26769999999999994,-40.34756627215084
-0.26870000000000005,-40.51733162813464
-0.26969999999999994,-40.65880275812115
-0.27070000000000005,-40.78612677510901
-0.27169999999999994,-40.95589213109281
-0.27270000000000005,-41.139804600075266
-0.27369999999999994,-41.352011295055014
-0.27470000000000006,-41.56421799003478
-0.27569999999999995,-41.83301313700913
-0.27670000000000006,-42.04521983198889
-0.27769999999999995,-42.229132300971344
-0.27870000000000006,-42.31401497896325
-0.27969999999999995,-42.3564563179592
-0.28070000000000006,-42.3564563179592
-0.28169999999999995,-42.3564563179592
-0.28270000000000006,-42.3564563179592
-0.28369999999999995,-42.39889765695515
-0.28470000000000006,-42.39889765695515
-0.28569999999999995,-42.39889765695515
-0.28670000000000007,-42.4413389959511
-0.28769999999999996,-42.483780334947056
-0.28870000000000007,-42.568663012938956
-0.28969999999999996,-42.71013414292546
-0.29070000000000007,-42.837458159913304
-0.29169999999999996,-42.96478217690117
-0.29270000000000007,-43.134547532884966
-0.29369999999999996,-43.27601866287147
-0.2947000000000001,-43.40334267985933
-0.29569999999999996,-43.48822535785123
-0.2967000000000001,-43.57310803584313
-0.29769999999999996,-43.657990713835034
-0.2987000000000001,-43.70043205283099
-0.29969999999999997,-43.79946184382153
-0.3007000000000001,-43.92678586080939
-0.30169999999999997,-44.011668538801295
-0.3027000000000001,-44.138992555789144
-0.30369999999999997,-44.3229050247716
-0.3047000000000001,-44.45022904175945
-0.30569999999999997,-44.577553058747306
-0.3067000000000001,-44.66243573673921
-0.3077,-44.74731841473111
-0.3087000000000001,-44.88878954471762
-0.3097,-44.97367222270952
-0.3107000000000001,-45.01611356170547
-0.3117,-45.01611356170547
-0.3127000000000001,-45.01611356170547
-0.3137,-45.05855490070142
-0.3147000000000001,-45.01611356170547
-0.3157,-44.97367222270952
-0.3167000000000001,-44.84634820572166
-0.3177,-44.704877075735155
-0.3187000000000001,-44.66243573673921
-0.3197,-44.535111719751356
-0.3207000000000001,-44.4926703807554
-0.3217,-44.45022904175945
-0.3227000000000001,-44.45022904175945
-0.3237,-44.4077877027635
-0.3247000000000001,-44.36534636376755
-0.3257,-44.3229050247716
-0.3267000000000001,-44.28046368577565
-0.3277,-44.223875233781044
-0.3287000000000001,-44.138992555789144
-0.3297,-44.096551216793195
-0.3307000000000001,-44.011668538801295
-0.3317,-43.92678586080939
-0.3327000000000001,-43.88434452181344
-0.3337,-43.79946184382153
-0.3347000000000001,-43.75702050482558
-0.3357,-43.70043205283099
-0.3367000000000001,-43.657990713835034
-0.3377,-43.57310803584313
-0.3387000000000001,-43.53066669684718
-0.3397,-43.48822535785123
-0.3407000000000001,-43.48822535785123
-0.3417,-43.44578401885527
-0.3427000000000001,-43.44578401885527
-0.3437,-43.40334267985933
-0.3447000000000001,-43.31846000186743
-0.3457,-43.27601866287147
-0.3467000000000001,-43.17698887188092
-0.3477,-43.04966485489307
-0.3487000000000001,-42.92234083790521
-0.3497,-42.752575481921404
-0.3507000000000001,-42.568663012938956
-0.3517,-42.39889765695515
-0.3527000000000001,-42.229132300971344
-0.3537,-42.087661170984845
-0.3547000000000001,-41.96033715399699
-0.3557,-41.83301313700913
-0.35670000000000013,-41.74813045901723
-0.3577,-41.606659329030734
-0.35870000000000013,-41.43689397304693
-0.3597,-41.22468727806717
-0.36070000000000013,-40.99833347008877
-0.3617,-40.743685436113054
-0.3626999999999999,-40.4748902891387
-0.3637,-40.177800916167044
-0.3646999999999999,-39.82412309120078
-0.3657,-39.56947505722508
-0.3666999999999999,-39.258238571254765
-0.3677,-38.94700208528445
-0.3686999999999999,-38.692354051308754
-0.36970000000000003,-38.46600024333035
-0.3706999999999999,-38.211352209354644
-0.37170000000000003,-38.04158685337084
-0.3726999999999999,-37.81523304539243
-0.37370000000000003,-37.645467689408626
-0.3746999999999999,-37.47570233342482
-0.37570000000000003,-37.291789864442364
-0.3766999999999999,-37.122024508458566
-0.37770000000000004,-36.89567070048016
-0.3786999999999999,-36.6834640055004
-0.37970000000000004,-36.4288159715247
-0.3806999999999999,-36.16002082455034
-0.38170000000000004,-35.90537279057463
-0.38269999999999993,-35.636577643600276
-0.38370000000000004,-35.32534115762997
-0.38469999999999993,-35.07069312365426
-0.38570000000000004,-34.8018979766799
-0.38669999999999993,-34.5472499427042
-0.38770000000000004,-34.33504324772444
-0.38869999999999993,-34.193572117737936
-0.38970000000000005,-34.02380676175414
-0.39069999999999994,-33.89648274476628
-0.39170000000000005,-33.755011614779775
-0.39269999999999994,-33.627687597791926
-0.39370000000000005,-33.50036358080407
-0.39469999999999994,-33.373039563816214
-0.39570000000000005,-33.18912709483376
-0.39669999999999994,-33.06180307784591
-0.39770000000000005,-32.93447906085806
-0.39869999999999994,-32.807155043870196
-0.39970000000000006,-32.62324257488775
-0.40069999999999995,-32.49591855789989
-0.40170000000000006,-32.283711862920136
-0.40269999999999995,-32.09979939393769
-0.40370000000000006,-31.930034037953877
-0.40469999999999995,-31.76026868197007
-0.40570000000000006,-31.618797551983565
-0.40669999999999995,-31.449032195999767
-0.40770000000000006,-31.321708179011907
-0.40869999999999995,-31.137795710029454
-0.40970000000000006,-30.968030354045652
-0.41069999999999995,-30.8407063370578
-0.41170000000000007,-30.670940981073993
-0.41269999999999996,-30.529469851087494
-0.41370000000000007,-30.359704495103685
-0.41469999999999996,-30.274821817111786
-0.41570000000000007,-30.189939139119886
-0.41669999999999996,-30.10505646112798
-0.41770000000000007,-30.04846800913338
-0.41869999999999996,-29.96358533114148
-0.4197000000000001,-29.878702653149578
-0.42069999999999996,-29.836261314153624
-0.4217000000000001,-29.793819975157668
-0.42269999999999996,-29.751378636161718
-0.4237000000000001,-29.708937297165768
-0.42469999999999997,-29.66649595816982
-0.4257000000000001,-29.62405461917387
-0.42669999999999997,-29.581613280177915
-0.4277000000000001,-29.525024828183312
-0.42869999999999997,-29.482583489187363
-0.4297000000000001,-29.440142150191413
-0.43069999999999997,-29.440142150191413
-0.4317000000000001,-29.482583489187363
-0.4327,-29.482583489187363
-0.4337000000000001,-29.525024828183312
-0.4347,-29.581613280177915
-0.4357000000000001,-29.66649595816982
-0.4367,-29.708937297165768
-0.4377000000000001,-29.708937297165768
-0.4387,-29.751378636161718
-0.4397000000000001,-29.793819975157668
-0.4407,-29.793819975157668
-0.4417000000000001,-29.793819975157668
-0.4427,-29.793819975157668
-0.4437000000000001,-29.793819975157668
-0.4447,-29.793819975157668
-0.4457000000000001,-29.793819975157668
-0.4467,-29.793819975157668
-0.4477000000000001,-29.836261314153624
-0.4487,-29.878702653149578
-0.4497000000000001,-29.96358533114148
-0.4507,-30.04846800913338
-0.4517000000000001,-30.147497800123933
-0.4527,-30.189939139119886
-0.4537000000000001,-30.232380478115836
-0.4547,-30.317263156107735
-0.4557000000000001,-30.359704495103685
-0.4567,-30.444587173095588
-0.4577000000000001,-30.487028512091538
-0.4587,-30.571911190083444
-0.4597000000000001,-30.614352529079397
-0.4607,-30.71338232006995
-0.4617000000000001,-30.79826499806185
-0.4627,-30.88314767605375
-0.4637000000000001,-30.968030354045652
-0.4647,-31.010471693041605
-0.4657000000000001,-31.137795710029454
-0.4667,-31.19438416202406
-0.4677000000000001,-31.27926684001596
-0.4687,-31.321708179011907
-0.4697000000000001,-31.40659085700382
-0.4707,-31.533914873991666
-0.4717000000000001,-31.57635621298762
-0.4727,-31.717827342974125
-0.4737000000000001,-31.802710020966025
-0.4747,-31.930034037953877
-0.4757000000000001,-32.01491671594578
-0.4767,-32.14224073293363
-0.4777000000000001,-32.24127052392419
-0.4787,-32.32615320191609
-0.4797000000000001,-32.45347721890394
-0.4807,-32.53835989689585
-0.48170000000000013,-32.62324257488775
-0.4827,-32.70812525287965
-0.48370000000000013,-32.84959638286615
-0.4847,-32.93447906085806
-0.48570000000000013,-33.01936173884996
-0.4867,-33.10424441684186
-0.4876999999999999,-33.14668575583781
-0.4887,-33.231568433829715
-0.4896999999999999,-33.288156885824314
-0.4907,-33.288156885824314
-0.4916999999999999,-33.373039563816214
-0.4927,-33.41548090281216
-0.4936999999999999,-33.50036358080407
-0.49470000000000003,-33.58524625879597
-0.4956999999999999,-33.670128936787876
-0.49670000000000003,-33.755011614779775
-0.4976999999999999,-33.89648274476628
-0.49870000000000003,-33.98136542275818
-0.4996999999999999,-34.06624810075008
-0.5007,-34.193572117737936
-0.5016999999999999,-34.278454795729836
-0.5027,-34.41992592571634
-0.5036999999999999,-34.50480860370825
-0.5047,-34.58969128170015
-0.5056999999999999,-34.67457395969205
-0.5067,-34.717015298688004
-0.5076999999999999,-34.85848642867451
