Potential V vs RHE, Current mA cm-2
0.05339999999999995,-0.03136414951800787
0.05239999999999995,-0.032552507009894496
0.051399999999999946,-0.03318912709483376
0.050399999999999945,-0.03368427604978652
0.049399999999999944,-0.034094542326747385
0.04839999999999994,-0.03451895571670689
0.04739999999999994,-0.03488678065467181
0.04639999999999994,-0.03525460559263671
0.04539999999999994,-0.035650724756598924
0.04439999999999994,-0.036018549694563834
0.04339999999999994,-0.036400521745527395
0.04239999999999994,-0.036768346683492305
0.04139999999999994,-0.03713617162145721
0.040399999999999936,-0.037503996559422124
0.039399999999999935,-0.037885968610385685
0.038399999999999934,-0.03825379354835059
0.03739999999999993,-0.03860747137331685
0.03639999999999993,-0.03897529631128176
0.03539999999999993,-0.039343121249246674
0.03439999999999993,-0.039696799074212925
0.03339999999999993,-0.040078771125176486
0.03239999999999993,-0.040418301837144094
0.03139999999999993,-0.04082856811410496
0.030399999999999927,-0.04119639305206987
0.029399999999999926,-0.041550070877036126
0.028399999999999925,-0.04193204292799969
0.027399999999999924,-0.042299867865964604
0.026399999999999924,-0.04268183991692816
0.025399999999999923,-0.04307795908089037
0.024399999999999922,-0.04343163690585663
0.02339999999999992,-0.043856050295816136
0.02239999999999992,-0.044223875233781046
0.02139999999999992,-0.04461999439774326
0.020399999999999918,-0.04501611356170547
0.019399999999999917,-0.04538393849967037
0.018399999999999916,-0.045794204776631244
0.017399999999999916,-0.04619032394059345
0.016399999999999915,-0.046586443104555654
0.015399999999999914,-0.046996709381516524
0.014399999999999913,-0.04739282854547873
0.013399999999999912,-0.04783138904843689
0.012399999999999911,-0.04824165532539775
0.01139999999999991,-0.048637774489359964
0.01039999999999991,-0.04906218787931948
0.009399999999999908,-0.049458307043281684
0.008399999999999908,-0.04986857332024254
0.007399999999999907,-0.05027883959720341
0.006399999999999906,-0.05070325298716292
0.005399999999999905,-0.051141813490121084
0.004399999999999904,-0.051566226880080585
0.003399999999999903,-0.05200478738303874
0.002399999999999902,-0.05242920077299826
0.0013999999999999013,-0.05288190838895507
0.00039999999999990044,-0.05332046889191323
-0.0006000000000001005,-0.05374488228187274
-0.0016000000000001013,-0.0541834427848309
-0.0026000000000001022,-0.05465029751378637
-0.003600000000000103,-0.05511715224274182
-0.004600000000000104,-0.05551327140670404
-0.005600000000000105,-0.05595183190966221
-0.006600000000000106,-0.05643283375161631
-0.007600000000000107,-0.056871394254574464
-0.008600000000000108,-0.057324101870531295
-0.009600000000000108,-0.05776266237348945
-0.01060000000000011,-0.058215369989446264
-0.01160000000000011,-0.058682224718401725
-0.012600000000000111,-0.059149079447357186
-0.013600000000000112,-0.059573492837316694
-0.014600000000000113,-0.06004034756627216
-0.015600000000000114,-0.06049305518222897
-0.016600000000000115,-0.060959909911184426
-0.017600000000000116,-0.061426764640139894
-0.018600000000000116,-0.061907766482094014
-0.019600000000000117,-0.06238876832404811
-0.020600000000000118,-0.06284147594000493
-0.02160000000000012,-0.06333662489495769
-0.02260000000000012,-0.06383177384991046
-0.02360000000000012,-0.06432692280486321
-0.024600000000000122,-0.06482207175981598
-0.025600000000000123,-0.06528892648877145
-0.026600000000000124,-0.06578407544372422
-0.027600000000000124,-0.06627922439867698
-0.028600000000000125,-0.06676022624063108
-0.029600000000000126,-0.0672412280825852
-0.030600000000000127,-0.0677222299245393
-0.03160000000000013,-0.06823152599249073
-0.03260000000000013,-0.06871252783444483
-0.03360000000000013,-0.06919352967639894
-0.03460000000000002,-0.0696886786313517
-0.03560000000000002,-0.07018382758630445
-0.03660000000000002,-0.07067897654125724
-0.03760000000000002,-0.07118827260920865
-0.03860000000000002,-0.0717117157901587
-0.039600000000000024,-0.07219271763211282
-0.040600000000000025,-0.07268786658706558
-0.041600000000000026,-0.07318301554201835
-0.04260000000000003,-0.07369231160996977
-0.04360000000000003,-0.07420160767792117
-0.04460000000000003,-0.07468260951987529
-0.04560000000000003,-0.0751919055878267
-0.04660000000000003,-0.07570120165577811
-0.04760000000000003,-0.07618220349773222
-0.04860000000000003,-0.07669149956568365
-0.04960000000000003,-0.0771583542946391
-0.050600000000000034,-0.07768179747558916
-0.051600000000000035,-0.07819109354354058
-0.052600000000000036,-0.07868624249849335
-0.053600000000000037,-0.07919553856644475
-0.05460000000000004,-0.07967654040839886
-0.05560000000000004,-0.08014339513735433
-0.05660000000000004,-0.08065269120530574
-0.05760000000000004,-0.08113369304725986
-0.05860000000000004,-0.08164298911521127
-0.05960000000000004,-0.08215228518316267
-0.06060000000000004,-0.08264743413811544
-0.061600000000000044,-0.0831425830930682
-0.06260000000000004,-0.08358114359602638
-0.06360000000000005,-0.08403385121198319
-0.06460000000000005,-0.08450070594093864
-0.06560000000000005,-0.08498170778289275
-0.06660000000000005,-0.08547685673784551
-0.06760000000000005,-0.08594371146680099
-0.06860000000000005,-0.08642471330875509
-0.06960000000000005,-0.0869057151507092
-0.07060000000000005,-0.08733012854066871
-0.07160000000000005,-0.08778283615662552
-0.07260000000000005,-0.08822139665958369
-0.07360000000000005,-0.0886741042755405
-0.07460000000000006,-0.0891268118914973
-0.07560000000000006,-0.08959366662045277
-0.07660000000000006,-0.09004637423640958
-0.07760000000000006,-0.09051322896536505
-0.07860000000000006,-0.0909517894683232
-0.07960000000000006,-0.09139034997128137
-0.08060000000000006,-0.09181476336124088
-0.08160000000000006,-0.0922391767512004
-0.08260000000000006,-0.09267773725415854
-0.08360000000000006,-0.09313044487011536
-0.08460000000000006,-0.09352656403407757
-0.08560000000000006,-0.09393683031103843
-0.08660000000000007,-0.09436124370099794
-0.08760000000000007,-0.09475736286496016
-0.08860000000000007,-0.09516762914192102
-0.08960000000000007,-0.09554960119288458
-0.09060000000000007,-0.09594572035684679
-0.09160000000000007,-0.09635598663380765
-0.09260000000000007,-0.09673795868477121
-0.09360000000000007,-0.09711993073573477
-0.09460000000000007,-0.09745946144770237
-0.09560000000000007,-0.09782728638566728
-0.09660000000000007,-0.0981951113236322
-0.09760000000000008,-0.09856293626159711
-0.09860000000000008,-0.09895905542555931
-0.09960000000000008,-0.09927029191152963
-0.10060000000000008,-0.09959567551049858
-0.10160000000000008,-0.09994935333546484
-0.10260000000000008,-0.1002747369344338
-0.10360000000000008,-0.10060012053340277
-0.10460000000000008,-0.10091135701937308
-0.10560000000000008,-0.10120844639234472
-0.10660000000000008,-0.10151968287831505
-0.10760000000000008,-0.10181677225128669
-0.10860000000000009,-0.10211386162425835
-0.10960000000000009,-0.10239680388423136
-0.11060000000000009,-0.10265145191820706
-0.11160000000000009,-0.10290609995218276
-0.11260000000000009,-0.10317489509915713
-0.11360000000000009,-0.10344369024613147
-0.11460000000000009,-0.10372663250610449
-0.11560000000000009,-0.10399542765307884
-0.11660000000000009,-0.1042076343480586
-0.1176000000000001,-0.104433988156037
-0.1186000000000001,-0.10463204773801811
-0.1196000000000001,-0.10483010731999923
-0.1206000000000001,-0.10505646112797762
-0.1216000000000001,-0.10525452070995873
-0.1226000000000001,-0.10545258029193984
-0.1236000000000001,-0.10566478698691958
-0.1246000000000001,-0.10582040522990475
-0.1256000000000001,-0.1060043176988872
-0.1266000000000001,-0.10618823016786964
-0.1276000000000001,-0.10634384841085481
-0.1286000000000001,-0.10649946665383996
-0.1296000000000001,-0.10661264355782916
-0.1306000000000001,-0.10676826180081432
-0.1316000000000001,-0.10689558581780217
-0.1326000000000001,-0.10703705694778867
-0.1336000000000001,-0.10716438096477654
-0.1346000000000001,-0.10727755786876574
-0.1356000000000001,-0.10737658765975629
-0.1366000000000001,-0.10748976456374548
-0.1376000000000001,-0.10757464724173739
-0.1386000000000001,-0.1076595299197293
-0.1396000000000001,-0.10774441259772119
-0.1406000000000001,-0.10781514816271445
-0.14160000000000011,-0.1078858837277077
-0.14260000000000012,-0.10794247217970229
-0.14360000000000012,-0.10798491351869824
-0.14460000000000012,-0.10804150197069286
-0.14560000000000012,-0.1080839433096888
-0.14660000000000012,-0.1081405317616834
-0.14760000000000012,-0.1081405317616834
-0.14860000000000012,-0.10816882598768068
-0.14960000000000012,-0.10818297310067936
-0.15060000000000012,-0.10819712021367801
-0.15160000000000012,-0.10819712021367801
-0.15260000000000012,-0.10821126732667666
-0.15360000000000013,-0.1082254144396753
-0.15460000000000013,-0.10821126732667666
-0.15560000000000013,-0.10819712021367801
-0.15660000000000013,-0.1081405317616834
-0.15760000000000013,-0.10811223753568612
-0.15860000000000013,-0.1080839433096888
-0.15960000000000002,-0.10802735485769419
-0.16060000000000002,-0.10798491351869824
-0.16160000000000002,-0.10791417795370499
-0.16260000000000002,-0.1078575895017104
-0.16360000000000002,-0.10781514816271445
-0.16460000000000002,-0.10771611837172389
-0.16560000000000002,-0.1076878241457266
-0.16660000000000003,-0.1076595299197293
-0.16760000000000003,-0.1075463530157401
-0.16860000000000003,-0.10747561745074685
-0.16960000000000003,-0.10736244054675763
-0.17060000000000003,-0.10726341075576709
-0.17160000000000003,-0.10717852807777517
-0.17260000000000003,-0.10705120406078733
-0.17360000000000003,-0.10693802715679812
-0.17460000000000003,-0.10681070313981027
-0.17560000000000003,-0.10669752623582107
-0.17660000000000003,-0.10658434933183186
-0.17760000000000004,-0.10645702531484401
-0.17860000000000004,-0.10635799552385346
-0.17960000000000004,-0.10621652439386696
-0.18060000000000004,-0.10608920037687909
-0.18160000000000004,-0.10596187635989125
-0.18260000000000004,-0.10582040522990475
-0.18360000000000004,-0.10567893409991824
-0.18460000000000004,-0.10552331585693309
-0.18560000000000004,-0.10535355050094929
-0.18660000000000004,-0.10519793225796412
-0.18760000000000004,-0.10505646112797762
-0.18860000000000005,-0.1048866957719938
-0.18960000000000005,-0.1047452246420073
-0.19060000000000005,-0.10458960639902216
-0.19160000000000005,-0.104433988156037
-0.19260000000000005,-0.10426422280005321
-0.19360000000000005,-0.10410860455706805
-0.19460000000000005,-0.1039246920880856
-0.19560000000000005,-0.10376907384510045
-0.19660000000000005,-0.10358516137611798
-0.19760000000000005,-0.10342954313313284
-0.19860000000000005,-0.10325977777714902
-0.19960000000000006,-0.10307586530816658
-0.20060000000000006,-0.10290609995218276
-0.20160000000000006,-0.1027221874832003
-0.20260000000000006,-0.10253827501421786
-0.20360000000000006,-0.10236850965823405
-0.20460000000000006,-0.1021845971892516
-0.20560000000000006,-0.10200068472026914
-0.20660000000000006,-0.10181677225128669
-0.20760000000000006,-0.10163285978230424
-0.20860000000000006,-0.10143480020032314
-0.20960000000000006,-0.10123674061834202
-0.21060000000000006,-0.10103868103636092
-0.21160000000000007,-0.10085476856737846
-0.21260000000000007,-0.10069915032439332
-0.21360000000000007,-0.1005010907424122
-0.21460000000000007,-0.10030303116043109
-0.21560000000000007,-0.10010497157845
-0.21660000000000007,-0.09992105910946754
-0.21760000000000007,-0.09973714664048508
-0.21860000000000007,-0.09955323417150262
-0.21960000000000007,-0.09935517458952153
-0.22060000000000007,-0.09915711500754042
-0.22160000000000007,-0.09895905542555931
-0.22260000000000008,-0.09878929006957551
-0.22360000000000008,-0.09857708337459577
-0.22460000000000008,-0.09837902379261465
-0.22560000000000008,-0.09818096421063353
-0.22660000000000008,-0.09799705174165109
-0.22760000000000008,-0.09779899215966999
-0.22860000000000008,-0.09761507969068753
-0.22960000000000008,-0.09743116722170508
-0.23060000000000008,-0.09724725475272263
-0.23160000000000008,-0.09703504805774286
-0.23260000000000008,-0.09685113558876042
-0.23360000000000009,-0.0966813702327766
-0.2346000000000001,-0.09645501642479819
-0.2356000000000001,-0.09627110395581574
-0.2366000000000001,-0.09607304437383464
-0.2376000000000001,-0.09587498479185352
-0.2386000000000001,-0.09567692520987243
-0.2396000000000001,-0.09547886562789133
-0.2406000000000001,-0.09529495315890889
-0.2416000000000001,-0.0951110406899264
-0.2426000000000001,-0.09494127533394262
-0.2436000000000001,-0.0947432157519615
-0.2446000000000001,-0.09451686194398311
-0.2456000000000001,-0.0943470965879993
-0.2466000000000001,-0.09416318411901684
-0.2476000000000001,-0.09399341876303305
-0.2486000000000001,-0.09380950629405059
-0.2496000000000001,-0.09359729959907082
-0.2506000000000001,-0.09342753424308703
-0.2516000000000001,-0.09325776888710322
-0.2526000000000001,-0.09305970930512211
-0.2536000000000001,-0.09287579683613965
-0.2546000000000001,-0.09270603148015585
-0.2556000000000001,-0.0925221190111734
-0.2566000000000001,-0.09232405942919229
-0.2576000000000001,-0.09216844118620715
-0.2586000000000001,-0.09198452871722468
-0.2596000000000001,-0.09180061624824223
-0.2606000000000001,-0.09163085089225843
-0.2616000000000001,-0.09147523264927326
-0.2626000000000001,-0.09130546729328948
-0.2636000000000001,-0.091121554824307
-0.2646000000000001,-0.0909517894683232
-0.2656000000000001,-0.09075372988634212
-0.2666000000000001,-0.09059811164335696
-0.2676000000000001,-0.09045664051337043
-0.2686000000000001,-0.09030102227038528
-0.2696000000000001,-0.09011710980140283
-0.2706000000000001,-0.08996149155841768
-0.2716000000000001,-0.08977757908943522
-0.2726000000000001,-0.08962196084645008
-0.2736000000000001,-0.08943804837746762
-0.2746000000000001,-0.08928243013448246
-0.2756000000000001,-0.0891268118914973
-0.2766000000000001,-0.0889570465355135
-0.2776000000000001,-0.08878728117952969
-0.2786000000000001,-0.08865995716254185
-0.2796000000000001,-0.08847604469355938
-0.2806000000000001,-0.08833457356357288
-0.28160000000000013,-0.08817895532058774
-0.28260000000000013,-0.08805163130359987
-0.28360000000000013,-0.08791016017361337
-0.2846,-0.08774039481762959
-0.2856,-0.08761307080064172
-0.2866,-0.08747159967065522
-0.2876,-0.08731598142767007
-0.2886,-0.08720280452368086
-0.2896,-0.08703303916769706
-0.2906,-0.0869057151507092
-0.2916,-0.0867642440207227
-0.2926,-0.08663692000373484
-0.2936,-0.08649544887374834
-0.29460000000000003,-0.08632568351776454
-0.29560000000000003,-0.08619835950077669
-0.29660000000000003,-0.08605688837079019
-0.29760000000000003,-0.08590127012780503
-0.29860000000000003,-0.08577394611081718
-0.29960000000000003,-0.08563247498083068
-0.30060000000000003,-0.08549100385084417
-0.30160000000000003,-0.08536367983385632
-0.30260000000000004,-0.08523635581686846
-0.30360000000000004,-0.0850807375738833
-0.30460000000000004,-0.0849392664438968
-0.30560000000000004,-0.0847977953139103
-0.30660000000000004,-0.0846846184099211
-0.30760000000000004,-0.0845714415059319
-0.30860000000000004,-0.08442997037594539
-0.30960000000000004,-0.08430264635895754
-0.31060000000000004,-0.08417532234196969
-0.31160000000000004,-0.08406214543798048
-0.31260000000000004,-0.08397726275998857
-0.31360000000000005,-0.08383579163000207
-0.31460000000000005,-0.08373676183901152
-0.31560000000000005,-0.08365187916101963
-0.31660000000000005,-0.08352455514403176
-0.31760000000000005,-0.08342552535304121
-0.31860000000000005,-0.08331234844905201
-0.31960000000000005,-0.08321331865806145
-0.32060000000000005,-0.08311428886707091
-0.32160000000000005,-0.08298696485008306
-0.32260000000000005,-0.08287378794609385
-0.32360000000000005,-0.08277475815510331
-0.32460000000000006,-0.08263328702511678
-0.32560000000000006,-0.08256255146012353
-0.32660000000000006,-0.08244937455613434
-0.32760000000000006,-0.08235034476514379
-0.32860000000000006,-0.08223716786115459
-0.32960000000000006,-0.08212399095716538
-0.33060000000000006,-0.08202496116617483
-0.33160000000000006,-0.08194007848818292
-0.33260000000000006,-0.08182690158419371
-0.33360000000000006,-0.08171372468020452
-0.33460000000000006,-0.08160054777621531
-0.33560000000000006,-0.08150151798522477
-0.33660000000000007,-0.08141663530723285
-0.33760000000000007,-0.08130345840324366
-0.33860000000000007,-0.08119028149925445
-0.33960000000000007,-0.08109125170826391
-0.34060000000000007,-0.08099222191727334
-0.34160000000000007,-0.0808931921262828
-0.34260000000000007,-0.0807800152222936
-0.34360000000000007,-0.08069513254430169
-0.3446000000000001,-0.08059610275331114
-0.3456000000000001,-0.08049707296232057
-0.3466000000000001,-0.0804121902843287
-0.34759999999999996,-0.08032730760633679
-0.3486000000000001,-0.08025657204134354
-0.34959999999999997,-0.08019998358934893
-0.3506000000000001,-0.08011510091135703
-0.35159999999999997,-0.08003021823336513
-0.3526000000000001,-0.07987459999037998
-0.35359999999999997,-0.07977557019938941
-0.3546000000000001,-0.07969068752139752
-0.35559999999999997,-0.07961995195640426
-0.3566000000000001,-0.07952092216541372
-0.3576,-0.07945018660042047
-0.3586000000000001,-0.0793511568094299
-0.3596,-0.07926627413143801
-0.3606000000000001,-0.07922383279244205
-0.3616,-0.07913895011445016
-0.3626000000000001,-0.07906821454945691
-0.3636,-0.07899747898446366
-0.3646000000000001,-0.07894089053246904
-0.3656,-0.07888430208047445
-0.3666000000000001,-0.0787852722894839
-0.3676,-0.07871453672449064
-0.3686000000000001,-0.07865794827249603
-0.3696,-0.07855891848150548
-0.3706000000000001,-0.07853062425550819
-0.3716,-0.07847403580351359
-0.3726000000000001,-0.07840330023852032
-0.3736,-0.07831841756052843
-0.3746000000000001,-0.07831841756052843
-0.3756,-0.07843159446451763
-0.3766000000000001,-0.07819109354354058
-0.3776,-0.07804962241355407
-0.3786000000000001,-0.07796473973556219
-0.3796,-0.07787985705757026
-0.3806000000000001,-0.07785156283157296
-0.3816,-0.07779497437957837
-0.3826000000000001,-0.07773838592758377
-0.3836,-0.0776676503625905
-0.3846000000000001,-0.07761106191059591
-0.3856,-0.07755447345860131
-0.3866000000000001,-0.07751203211960536
-0.3876,-0.07748373789360806
-0.3886000000000001,-0.07741300232861481
-0.3896,-0.07737056098961885
-0.3906000000000001,-0.0773281196506229
-0.3916,-0.07728567831162694
-0.3926000000000001,-0.07725738408562965
-0.3936,-0.07720079563363505
-0.3946000000000001,-0.0771583542946391
-0.3956,-0.0771300600686418
-0.3966000000000001,-0.07708761872964585
-0.3976,-0.07705932450364854
-0.3986000000000001,-0.07701688316465259
-0.3996,-0.07696029471265799
-0.4006000000000001,-0.0769320004866607
-0.4016,-0.0768754120346661
-0.4026000000000001,-0.0768754120346661
-0.4036,-0.07684711780866879
-0.4046000000000001,-0.07679052935667419
-0.4056,-0.07679052935667419
-0.40660000000000013,-0.0767622351306769
-0.4076,-0.07674808801767824
-0.40860000000000013,-0.0767339409046796
-0.4096,-0.0767056466786823
-0.41060000000000013,-0.0767056466786823
-0.4116,-0.07669149956568365
-0.41260000000000013,-0.07669149956568365
-0.4136,-0.07666320533968635
-0.41460000000000014,-0.07664905822668767
-0.4156,-0.07666320533968635
-0.41660000000000014,-0.07664905822668767
-0.4176,-0.07663491111368903
-0.41860000000000014,-0.07663491111368903
-0.41960000000000003,-0.07664905822668767
-0.42060000000000014,-0.07666320533968635
-0.42160000000000003,-0.07667735245268498
-0.42260000000000014,-0.0767056466786823
-0.42360000000000003,-0.0767056466786823
-0.42460000000000014,-0.0767056466786823
-0.42560000000000003,-0.07671979379168092
-0.42660000000000015,-0.0767339409046796
-0.42760000000000004,-0.07677638224367554
-0.42860000000000015,-0.0767622351306769
-0.42960000000000004,-0.07679052935667419
-0.43060000000000015,-0.07683297069567015
-0.43160000000000004,-0.07683297069567015
-0.43260000000000015,-0.0768754120346661
-0.43360000000000004,-0.0769037062606634
-0.43460000000000015,-0.07696029471265799
-0.43560000000000004,-0.07698858893865529
-0.43660000000000015,-0.07701688316465259
