Sept. 9, 2024   01:51:11
Linear Sweep Voltammetry
File: c:/users/guazh/data/20240903_batch_252_500/2024-09-03-exp302\1acid_1ac-2024-09-09t01_48_02-lsvinphos\1acid_1ac_lsv_50mvs_efin_-2100mv.bin
Data Source:  Experiment
Instrument Model:  CHI760E
Header: LSV ran at 50 mVs with Efin at -2100mV
Note: 

Init E (V) = -0.6
Final E (V) = -2.1
Scan Rate (V/s) = 0.05
Sample Interval (V) = 0.001
Quiet Time (sec) = 2
Sensitivity (A/V) = 1e-4
Comp R (ohm) = 8.5

Results:

Channel 1:
Ep = -1.888V
ip = 7.394e-4A
Ah = 9.683e-4C

Potential/V, Current/A

-0.600, 4.191e-6
-0.601, 4.322e-6
-0.602, 4.389e-6
-0.603, 4.438e-6
-0.604, 4.480e-6
-0.605, 4.519e-6
-0.606, 4.559e-6
-0.607, 4.593e-6
-0.608, 4.629e-6
-0.609, 4.665e-6
-0.610, 4.698e-6
-0.611, 4.733e-6
-0.612, 4.765e-6
-0.613, 4.801e-6
-0.614, 4.837e-6
-0.615, 4.874e-6
-0.616, 4.907e-6
-0.617, 4.941e-6
-0.618, 4.974e-6
-0.619, 5.008e-6
-0.620, 5.043e-6
-0.621, 5.078e-6
-0.622, 5.111e-6
-0.623, 5.143e-6
-0.624, 5.178e-6
-0.625, 5.214e-6
-0.626, 5.248e-6
-0.627, 5.280e-6
-0.628, 5.316e-6
-0.629, 5.351e-6
-0.630, 5.387e-6
-0.631, 5.418e-6
-0.632, 5.454e-6
-0.633, 5.488e-6
-0.634, 5.522e-6
-0.635, 5.560e-6
-0.636, 5.595e-6
-0.637, 5.628e-6
-0.638, 5.663e-6
-0.639, 5.697e-6
-0.640, 5.733e-6
-0.641, 5.772e-6
-0.642, 5.806e-6
-0.643, 5.843e-6
-0.644, 5.877e-6
-0.645, 5.908e-6
-0.646, 5.943e-6
-0.647, 5.975e-6
-0.648, 6.012e-6
-0.649, 6.049e-6
-0.650, 6.083e-6
-0.651, 6.119e-6
-0.652, 6.153e-6
-0.653, 6.188e-6
-0.654, 6.223e-6
-0.655, 6.256e-6
-0.656, 6.291e-6
-0.657, 6.327e-6
-0.658, 6.362e-6
-0.659, 6.398e-6
-0.660, 6.433e-6
-0.661, 6.467e-6
-0.662, 6.502e-6
-0.663, 6.535e-6
-0.664, 6.571e-6
-0.665, 6.606e-6
-0.666, 6.642e-6
-0.667, 6.676e-6
-0.668, 6.710e-6
-0.669, 6.743e-6
-0.670, 6.779e-6
-0.671, 6.813e-6
-0.672, 6.846e-6
-0.673, 6.878e-6
-0.674, 6.910e-6
-0.675, 6.944e-6
-0.676, 6.978e-6
-0.677, 7.008e-6
-0.678, 7.039e-6
-0.679, 7.071e-6
-0.680, 7.104e-6
-0.681, 7.136e-6
-0.682, 7.167e-6
-0.683, 7.199e-6
-0.684, 7.230e-6
-0.685, 7.261e-6
-0.686, 7.292e-6
-0.687, 7.320e-6
-0.688, 7.348e-6
-0.689, 7.377e-6
-0.690, 7.405e-6
-0.691, 7.437e-6
-0.692, 7.466e-6
-0.693, 7.493e-6
-0.694, 7.521e-6
-0.695, 7.548e-6
-0.696, 7.576e-6
-0.697, 7.603e-6
-0.698, 7.630e-6
-0.699, 7.655e-6
-0.700, 7.681e-6
-0.701, 7.707e-6
-0.702, 7.731e-6
-0.703, 7.755e-6
-0.704, 7.782e-6
-0.705, 7.805e-6
-0.706, 7.827e-6
-0.707, 7.850e-6
-0.708, 7.871e-6
-0.709, 7.895e-6
-0.710, 7.915e-6
-0.711, 7.939e-6
-0.712, 7.960e-6
-0.713, 7.978e-6
-0.714, 7.998e-6
-0.715, 8.019e-6
-0.716, 8.038e-6
-0.717, 8.054e-6
-0.718, 8.074e-6
-0.719, 8.091e-6
-0.720, 8.107e-6
-0.721, 8.124e-6
-0.722, 8.139e-6
-0.723, 8.155e-6
-0.724, 8.173e-6
-0.725, 8.186e-6
-0.726, 8.203e-6
-0.727, 8.216e-6
-0.728, 8.229e-6
-0.729, 8.244e-6
-0.730, 8.256e-6
-0.731, 8.270e-6
-0.732, 8.278e-6
-0.733, 8.290e-6
-0.734, 8.301e-6
-0.735, 8.310e-6
-0.736, 8.322e-6
-0.737, 8.328e-6
-0.738, 8.335e-6
-0.739, 8.344e-6
-0.740, 8.351e-6
-0.741, 8.359e-6
-0.742, 8.366e-6
-0.743, 8.369e-6
-0.744, 8.376e-6
-0.745, 8.381e-6
-0.746, 8.385e-6
-0.747, 8.391e-6
-0.748, 8.435e-6
-0.749, 8.434e-6
-0.750, 8.420e-6
-0.751, 8.414e-6
-0.752, 8.412e-6
-0.753, 8.414e-6
-0.754, 8.412e-6
-0.755, 8.415e-6
-0.756, 8.418e-6
-0.757, 8.414e-6
-0.758, 8.411e-6
-0.759, 8.411e-6
-0.760, 8.412e-6
-0.761, 8.412e-6
-0.762, 8.410e-6
-0.763, 8.409e-6
-0.764, 8.407e-6
-0.765, 8.413e-6
-0.766, 8.432e-6
-0.767, 8.406e-6
-0.768, 8.399e-6
-0.769, 8.394e-6
-0.770, 8.386e-6
-0.771, 8.383e-6
-0.772, 8.381e-6
-0.773, 8.373e-6
-0.774, 8.367e-6
-0.775, 8.362e-6
-0.776, 8.356e-6
-0.777, 8.349e-6
-0.778, 8.342e-6
-0.779, 8.335e-6
-0.780, 8.330e-6
-0.781, 8.327e-6
-0.782, 8.325e-6
-0.783, 8.317e-6
-0.784, 8.310e-6
-0.785, 8.303e-6
-0.786, 8.299e-6
-0.787, 8.287e-6
-0.788, 8.268e-6
-0.789, 8.259e-6
-0.790, 8.251e-6
-0.791, 8.243e-6
-0.792, 8.234e-6
-0.793, 8.226e-6
-0.794, 8.222e-6
-0.795, 8.213e-6
-0.796, 8.201e-6
-0.797, 8.188e-6
-0.798, 8.173e-6
-0.799, 8.163e-6
-0.800, 8.155e-6
-0.801, 8.145e-6
-0.802, 8.134e-6
-0.803, 8.127e-6
-0.804, 8.119e-6
-0.805, 8.109e-6
-0.806, 8.098e-6
-0.807, 8.082e-6
-0.808, 8.073e-6
-0.809, 8.063e-6
-0.810, 8.050e-6
-0.811, 8.046e-6
-0.812, 8.033e-6
-0.813, 8.021e-6
-0.814, 8.013e-6
-0.815, 8.003e-6
-0.816, 7.999e-6
-0.817, 7.986e-6
-0.818, 7.973e-6
-0.819, 7.968e-6
-0.820, 7.959e-6
-0.821, 7.943e-6
-0.822, 7.930e-6
-0.823, 7.920e-6
-0.824, 7.910e-6
-0.825, 7.901e-6
-0.826, 7.888e-6
-0.827, 7.872e-6
-0.828, 7.857e-6
-0.829, 7.849e-6
-0.830, 7.840e-6
-0.831, 7.828e-6
-0.832, 7.823e-6
-0.833, 7.813e-6
-0.834, 7.797e-6
-0.835, 7.789e-6
-0.836, 7.788e-6
-0.837, 7.776e-6
-0.838, 7.765e-6
-0.839, 7.759e-6
-0.840, 7.748e-6
-0.841, 7.740e-6
-0.842, 7.724e-6
-0.843, 7.714e-6
-0.844, 7.704e-6
-0.845, 7.699e-6
-0.846, 7.685e-6
-0.847, 7.671e-6
-0.848, 7.662e-6
-0.849, 7.652e-6
-0.850, 7.643e-6
-0.851, 7.634e-6
-0.852, 7.625e-6
-0.853, 7.614e-6
-0.854, 7.607e-6
-0.855, 7.598e-6
-0.856, 7.592e-6
-0.857, 7.585e-6
-0.858, 7.576e-6
-0.859, 7.574e-6
-0.860, 7.558e-6
-0.861, 7.545e-6
-0.862, 7.539e-6
-0.863, 7.528e-6
-0.864, 7.520e-6
-0.865, 7.512e-6
-0.866, 7.506e-6
-0.867, 7.498e-6
-0.868, 7.492e-6
-0.869, 7.486e-6
-0.870, 7.478e-6
-0.871, 7.473e-6
-0.872, 7.465e-6
-0.873, 7.468e-6
-0.874, 7.463e-6
-0.875, 7.464e-6
-0.876, 7.452e-6
-0.877, 7.442e-6
-0.878, 7.437e-6
-0.879, 7.436e-6
-0.880, 7.429e-6
-0.881, 7.415e-6
-0.882, 7.399e-6
-0.883, 7.404e-6
-0.884, 7.392e-6
-0.885, 7.378e-6
-0.886, 7.368e-6
-0.887, 7.365e-6
-0.888, 7.369e-6
-0.889, 7.364e-6
-0.890, 7.352e-6
-0.891, 7.338e-6
-0.892, 7.332e-6
-0.893, 7.324e-6
-0.894, 7.320e-6
-0.895, 7.315e-6
-0.896, 7.309e-6
-0.897, 7.306e-6
-0.898, 7.299e-6
-0.899, 7.295e-6
-0.900, 7.290e-6
-0.901, 7.284e-6
-0.902, 7.277e-6
-0.903, 7.273e-6
-0.904, 7.270e-6
-0.905, 7.265e-6
-0.906, 7.260e-6
-0.907, 7.255e-6
-0.908, 7.251e-6
-0.909, 7.247e-6
-0.910, 7.242e-6
-0.911, 7.235e-6
-0.912, 7.230e-6
-0.913, 7.226e-6
-0.914, 7.223e-6
-0.915, 7.221e-6
-0.916, 7.216e-6
-0.917, 7.212e-6
-0.918, 7.209e-6
-0.919, 7.204e-6
-0.920, 7.200e-6
-0.921, 7.196e-6
-0.922, 7.194e-6
-0.923, 7.192e-6
-0.924, 7.191e-6
-0.925, 7.185e-6
-0.926, 7.183e-6
-0.927, 7.177e-6
-0.928, 7.177e-6
-0.929, 7.174e-6
-0.930, 7.170e-6
-0.931, 7.167e-6
-0.932, 7.163e-6
-0.933, 7.160e-6
-0.934, 7.158e-6
-0.935, 7.154e-6
-0.936, 7.156e-6
-0.937, 7.150e-6
-0.938, 7.148e-6
-0.939, 7.145e-6
-0.940, 7.142e-6
-0.941, 7.142e-6
-0.942, 7.137e-6
-0.943, 7.134e-6
-0.944, 7.134e-6
-0.945, 7.131e-6
-0.946, 7.128e-6
-0.947, 7.128e-6
-0.948, 7.125e-6
-0.949, 7.123e-6
-0.950, 7.124e-6
-0.951, 7.122e-6
-0.952, 7.120e-6
-0.953, 7.120e-6
-0.954, 7.119e-6
-0.955, 7.118e-6
-0.956, 7.118e-6
-0.957, 7.116e-6
-0.958, 7.114e-6
-0.959, 7.114e-6
-0.960, 7.114e-6
-0.961, 7.115e-6
-0.962, 7.115e-6
-0.963, 7.113e-6
-0.964, 7.113e-6
-0.965, 7.111e-6
-0.966, 7.112e-6
-0.967, 7.112e-6
-0.968, 7.110e-6
-0.969, 7.113e-6
-0.970, 7.111e-6
-0.971, 7.111e-6
-0.972, 7.112e-6
-0.973, 7.115e-6
-0.974, 7.117e-6
-0.975, 7.114e-6
-0.976, 7.115e-6
-0.977, 7.117e-6
-0.978, 7.115e-6
-0.979, 7.118e-6
-0.980, 7.117e-6
-0.981, 7.119e-6
-0.982, 7.122e-6
-0.983, 7.122e-6
-0.984, 7.125e-6
-0.985, 7.127e-6
-0.986, 7.130e-6
-0.987, 7.132e-6
-0.988, 7.135e-6
-0.989, 7.138e-6
-0.990, 7.139e-6
-0.991, 7.141e-6
-0.992, 7.144e-6
-0.993, 7.143e-6
-0.994, 7.147e-6
-0.995, 7.150e-6
-0.996, 7.151e-6
-0.997, 7.156e-6
-0.998, 7.160e-6
-0.999, 7.164e-6
-1.000, 7.168e-6
-1.001, 7.172e-6
-1.002, 7.174e-6
-1.003, 7.178e-6
-1.004, 7.182e-6
-1.005, 7.186e-6
-1.006, 7.190e-6
-1.007, 7.194e-6
-1.008, 7.199e-6
-1.009, 7.205e-6
-1.010, 7.210e-6
-1.011, 7.217e-6
-1.012, 7.219e-6
-1.013, 7.222e-6
-1.014, 7.228e-6
-1.015, 7.234e-6
-1.016, 7.240e-6
-1.017, 7.249e-6
-1.018, 7.255e-6
-1.019, 7.259e-6
-1.020, 7.265e-6
-1.021, 7.271e-6
-1.022, 7.279e-6
-1.023, 7.284e-6
-1.024, 7.294e-6
-1.025, 7.303e-6
-1.026, 7.313e-6
-1.027, 7.323e-6
-1.028, 7.328e-6
-1.029, 7.336e-6
-1.030, 7.344e-6
-1.031, 7.354e-6
-1.032, 7.363e-6
-1.033, 7.373e-6
-1.034, 7.383e-6
-1.035, 7.391e-6
-1.036, 7.401e-6
-1.037, 7.414e-6
-1.038, 7.426e-6
-1.039, 7.437e-6
-1.040, 7.451e-6
-1.041, 7.464e-6
-1.042, 7.477e-6
-1.043, 7.488e-6
-1.044, 7.502e-6
-1.045, 7.515e-6
-1.046, 7.527e-6
-1.047, 7.541e-6
-1.048, 7.557e-6
-1.049, 7.571e-6
-1.050, 7.585e-6
-1.051, 7.601e-6
-1.052, 7.619e-6
-1.053, 7.636e-6
-1.054, 7.653e-6
-1.055, 7.671e-6
-1.056, 7.690e-6
-1.057, 7.706e-6
-1.058, 7.718e-6
-1.059, 7.734e-6
-1.060, 7.750e-6
-1.061, 7.769e-6
-1.062, 7.788e-6
-1.063, 7.805e-6
-1.064, 7.825e-6
-1.065, 7.846e-6
-1.066, 7.867e-6
-1.067, 7.886e-6
-1.068, 7.902e-6
-1.069, 7.918e-6
-1.070, 7.938e-6
-1.071, 7.960e-6
-1.072, 7.981e-6
-1.073, 8.000e-6
-1.074, 8.019e-6
-1.075, 8.041e-6
-1.076, 8.065e-6
-1.077, 8.085e-6
-1.078, 8.109e-6
-1.079, 8.134e-6
-1.080, 8.156e-6
-1.081, 8.181e-6
-1.082, 8.202e-6
-1.083, 8.226e-6
-1.084, 8.248e-6
-1.085, 8.273e-6
-1.086, 8.295e-6
-1.087, 8.321e-6
-1.088, 8.345e-6
-1.089, 8.367e-6
-1.090, 8.388e-6
-1.091, 8.412e-6
-1.092, 8.437e-6
-1.093, 8.462e-6
-1.094, 8.486e-6
-1.095, 8.510e-6
-1.096, 8.534e-6
-1.097, 8.557e-6
-1.098, 8.579e-6
-1.099, 8.601e-6
-1.100, 8.627e-6
-1.101, 8.650e-6
-1.102, 8.679e-6
-1.103, 8.704e-6
-1.104, 8.731e-6
-1.105, 8.755e-6
-1.106, 8.779e-6
-1.107, 8.807e-6
-1.108, 8.830e-6
-1.109, 8.855e-6
-1.110, 8.881e-6
-1.111, 8.905e-6
-1.112, 8.933e-6
-1.113, 8.961e-6
-1.114, 8.988e-6
-1.115, 9.015e-6
-1.116, 9.043e-6
-1.117, 9.070e-6
-1.118, 9.097e-6
-1.119, 9.130e-6
-1.120, 9.161e-6
-1.121, 9.183e-6
-1.122, 9.210e-6
-1.123, 9.238e-6
-1.124, 9.265e-6
-1.125, 9.292e-6
-1.126, 9.321e-6
-1.127, 9.350e-6
-1.128, 9.376e-6
-1.129, 9.403e-6
-1.130, 9.429e-6
-1.131, 9.457e-6
-1.132, 9.485e-6
-1.133, 9.514e-6
-1.134, 9.542e-6
-1.135, 9.572e-6
-1.136, 9.599e-6
-1.137, 9.628e-6
-1.138, 9.657e-6
-1.139, 9.703e-6
-1.140, 9.718e-6
-1.141, 9.739e-6
-1.142, 9.768e-6
-1.143, 9.797e-6
-1.144, 9.828e-6
-1.145, 9.857e-6
-1.146, 9.886e-6
-1.147, 9.913e-6
-1.148, 9.940e-6
-1.149, 9.967e-6
-1.150, 9.995e-6
-1.151, 1.002e-5
-1.152, 1.005e-5
-1.153, 1.008e-5
-1.154, 1.011e-5
-1.155, 1.014e-5
-1.156, 1.017e-5
-1.157, 1.019e-5
-1.158, 1.022e-5
-1.159, 1.025e-5
-1.160, 1.028e-5
-1.161, 1.031e-5
-1.162, 1.034e-5
-1.163, 1.036e-5
-1.164, 1.039e-5
-1.165, 1.042e-5
-1.166, 1.045e-5
-1.167, 1.048e-5
-1.168, 1.050e-5
-1.169, 1.053e-5
-1.170, 1.056e-5
-1.171, 1.059e-5
-1.172, 1.062e-5
-1.173, 1.064e-5
-1.174, 1.067e-5
-1.175, 1.070e-5
-1.176, 1.074e-5
-1.177, 1.077e-5
-1.178, 1.079e-5
-1.179, 1.082e-5
-1.180, 1.084e-5
-1.181, 1.087e-5
-1.182, 1.090e-5
-1.183, 1.093e-5
-1.184, 1.096e-5
-1.185, 1.098e-5
-1.186, 1.101e-5
-1.187, 1.104e-5
-1.188, 1.107e-5
-1.189, 1.110e-5
-1.190, 1.113e-5
-1.191, 1.115e-5
-1.192, 1.119e-5
-1.193, 1.121e-5
-1.194, 1.124e-5
-1.195, 1.127e-5
-1.196, 1.129e-5
-1.197, 1.132e-5
-1.198, 1.135e-5
-1.199, 1.138e-5
-1.200, 1.141e-5
-1.201, 1.144e-5
-1.202, 1.147e-5
-1.203, 1.149e-5
-1.204, 1.152e-5
-1.205, 1.155e-5
-1.206, 1.158e-5
-1.207, 1.161e-5
-1.208, 1.164e-5
-1.209, 1.166e-5
-1.210, 1.169e-5
-1.211, 1.172e-5
-1.212, 1.175e-5
-1.213, 1.178e-5
-1.214, 1.181e-5
-1.215, 1.183e-5
-1.216, 1.186e-5
-1.217, 1.189e-5
-1.218, 1.192e-5
-1.219, 1.195e-5
-1.220, 1.198e-5
-1.221, 1.200e-5
-1.222, 1.203e-5
-1.223, 1.205e-5
-1.224, 1.208e-5
-1.225, 1.210e-5
-1.226, 1.212e-5
-1.227, 1.215e-5
-1.228, 1.218e-5
-1.229, 1.221e-5
-1.230, 1.224e-5
-1.231, 1.227e-5
-1.232, 1.230e-5
-1.233, 1.232e-5
-1.234, 1.235e-5
-1.235, 1.238e-5
-1.236, 1.241e-5
-1.237, 1.243e-5
-1.238, 1.246e-5
-1.239, 1.249e-5
-1.240, 1.252e-5
-1.241, 1.255e-5
-1.242, 1.258e-5
-1.243, 1.261e-5
-1.244, 1.264e-5
-1.245, 1.266e-5
-1.246, 1.269e-5
-1.247, 1.272e-5
-1.248, 1.275e-5
-1.249, 1.278e-5
-1.250, 1.281e-5
-1.251, 1.284e-5
-1.252, 1.286e-5
-1.253, 1.289e-5
-1.254, 1.291e-5
-1.255, 1.294e-5
-1.256, 1.297e-5
-1.257, 1.300e-5
-1.258, 1.303e-5
-1.259, 1.306e-5
-1.260, 1.309e-5
-1.261, 1.312e-5
-1.262, 1.315e-5
-1.263, 1.317e-5
-1.264, 1.320e-5
-1.265, 1.323e-5
-1.266, 1.326e-5
-1.267, 1.329e-5
-1.268, 1.333e-5
-1.269, 1.335e-5
-1.270, 1.338e-5
-1.271, 1.341e-5
-1.272, 1.344e-5
-1.273, 1.347e-5
-1.274, 1.349e-5
-1.275, 1.352e-5
-1.276, 1.355e-5
-1.277, 1.358e-5
-1.278, 1.361e-5
-1.279, 1.364e-5
-1.280, 1.367e-5
-1.281, 1.373e-5
-1.282, 1.377e-5
-1.283, 1.378e-5
-1.284, 1.381e-5
-1.285, 1.383e-5
-1.286, 1.386e-5
-1.287, 1.391e-5
-1.288, 1.394e-5
-1.289, 1.397e-5
-1.290, 1.399e-5
-1.291, 1.402e-5
-1.292, 1.405e-5
-1.293, 1.408e-5
-1.294, 1.412e-5
-1.295, 1.415e-5
-1.296, 1.418e-5
-1.297, 1.421e-5
-1.298, 1.423e-5
-1.299, 1.426e-5
-1.300, 1.430e-5
-1.301, 1.433e-5
-1.302, 1.436e-5
-1.303, 1.439e-5
-1.304, 1.442e-5
-1.305, 1.445e-5
-1.306, 1.449e-5
-1.307, 1.452e-5
-1.308, 1.455e-5
-1.309, 1.459e-5
-1.310, 1.464e-5
-1.311, 1.471e-5
-1.312, 1.471e-5
-1.313, 1.474e-5
-1.314, 1.477e-5
-1.315, 1.480e-5
-1.316, 1.483e-5
-1.317, 1.486e-5
-1.318, 1.490e-5
-1.319, 1.493e-5
-1.320, 1.496e-5
-1.321, 1.500e-5
-1.322, 1.504e-5
-1.323, 1.507e-5
-1.324, 1.511e-5
-1.325, 1.515e-5
-1.326, 1.518e-5
-1.327, 1.522e-5
-1.328, 1.526e-5
-1.329, 1.529e-5
-1.330, 1.533e-5
-1.331, 1.537e-5
-1.332, 1.541e-5
-1.333, 1.544e-5
-1.334, 1.548e-5
-1.335, 1.552e-5
-1.336, 1.556e-5
-1.337, 1.559e-5
-1.338, 1.563e-5
-1.339, 1.568e-5
-1.340, 1.576e-5
-1.341, 1.577e-5
-1.342, 1.580e-5
-1.343, 1.584e-5
-1.344, 1.588e-5
-1.345, 1.592e-5
-1.346, 1.596e-5
-1.347, 1.601e-5
-1.348, 1.604e-5
-1.349, 1.609e-5
-1.350, 1.615e-5
-1.351, 1.620e-5
-1.352, 1.625e-5
-1.353, 1.629e-5
-1.354, 1.633e-5
-1.355, 1.638e-5
-1.356, 1.648e-5
-1.357, 1.649e-5
-1.358, 1.652e-5
-1.359, 1.656e-5
-1.360, 1.660e-5
-1.361, 1.665e-5
-1.362, 1.669e-5
-1.363, 1.674e-5
-1.364, 1.677e-5
-1.365, 1.681e-5
-1.366, 1.687e-5
-1.367, 1.693e-5
-1.368, 1.699e-5
-1.369, 1.703e-5
-1.370, 1.707e-5
-1.371, 1.713e-5
-1.372, 1.719e-5
-1.373, 1.725e-5
-1.374, 1.729e-5
-1.375, 1.734e-5
-1.376, 1.739e-5
-1.377, 1.745e-5
-1.378, 1.750e-5
-1.379, 1.756e-5
-1.380, 1.762e-5
-1.381, 1.768e-5
-1.382, 1.773e-5
-1.383, 1.779e-5
-1.384, 1.784e-5
-1.385, 1.789e-5
-1.386, 1.795e-5
-1.387, 1.801e-5
-1.388, 1.806e-5
-1.389, 1.812e-5
-1.390, 1.818e-5
-1.391, 1.824e-5
-1.392, 1.829e-5
-1.393, 1.835e-5
-1.394, 1.841e-5
-1.395, 1.847e-5
-1.396, 1.852e-5
-1.397, 1.858e-5
-1.398, 1.864e-5
-1.399, 1.871e-5
-1.400, 1.877e-5
-1.401, 1.883e-5
-1.402, 1.890e-5
-1.403, 1.896e-5
-1.404, 1.903e-5
-1.405, 1.909e-5
-1.406, 1.916e-5
-1.407, 1.922e-5
-1.408, 1.928e-5
-1.409, 1.935e-5
-1.410, 1.944e-5
-1.411, 1.948e-5
-1.412, 1.955e-5
-1.413, 1.964e-5
-1.414, 1.970e-5
-1.415, 1.976e-5
-1.416, 1.983e-5
-1.417, 1.990e-5
-1.418, 1.997e-5
-1.419, 2.005e-5
-1.420, 2.013e-5
-1.421, 2.020e-5
-1.422, 2.028e-5
-1.423, 2.036e-5
-1.424, 2.043e-5
-1.425, 2.050e-5
-1.426, 2.058e-5
-1.427, 2.069e-5
-1.428, 2.074e-5
-1.429, 2.081e-5
-1.430, 2.088e-5
-1.431, 2.095e-5
-1.432, 2.104e-5
-1.433, 2.111e-5
-1.434, 2.118e-5
-1.435, 2.126e-5
-1.436, 2.134e-5
-1.437, 2.142e-5
-1.438, 2.150e-5
-1.439, 2.158e-5
-1.440, 2.166e-5
-1.441, 2.175e-5
-1.442, 2.184e-5
-1.443, 2.194e-5
-1.444, 2.203e-5
-1.445, 2.211e-5
-1.446, 2.221e-5
-1.447, 2.231e-5
-1.448, 2.241e-5
-1.449, 2.248e-5
-1.450, 2.255e-5
-1.451, 2.263e-5
-1.452, 2.272e-5
-1.453, 2.281e-5
-1.454, 2.288e-5
-1.455, 2.297e-5
-1.456, 2.305e-5
-1.457, 2.315e-5
-1.458, 2.324e-5
-1.459, 2.332e-5
-1.460, 2.341e-5
-1.461, 2.350e-5
-1.462, 2.360e-5
-1.463, 2.370e-5
-1.464, 2.379e-5
-1.465, 2.389e-5
-1.466, 2.399e-5
-1.467, 2.409e-5
-1.468, 2.419e-5
-1.469, 2.429e-5
-1.470, 2.439e-5
-1.471, 2.447e-5
-1.472, 2.457e-5
-1.473, 2.467e-5
-1.474, 2.476e-5
-1.475, 2.485e-5
-1.476, 2.495e-5
-1.477, 2.505e-5
-1.478, 2.516e-5
-1.479, 2.526e-5
-1.480, 2.537e-5
-1.481, 2.548e-5
-1.482, 2.557e-5
-1.483, 2.597e-5
-1.484, 2.655e-5
-1.485, 2.651e-5
-1.486, 2.645e-5
-1.487, 2.651e-5
-1.488, 2.661e-5
-1.489, 2.665e-5
-1.490, 2.671e-5
-1.491, 2.675e-5
-1.492, 2.682e-5
-1.493, 2.690e-5
-1.494, 2.699e-5
-1.495, 2.710e-5
-1.496, 2.720e-5
-1.497, 2.731e-5
-1.498, 2.747e-5
-1.499, 2.759e-5
-1.500, 2.769e-5
-1.501, 2.780e-5
-1.502, 2.792e-5
-1.503, 2.804e-5
-1.504, 2.814e-5
-1.505, 2.825e-5
-1.506, 2.838e-5
-1.507, 2.850e-5
-1.508, 2.861e-5
-1.509, 2.873e-5
-1.510, 2.885e-5
-1.511, 2.897e-5
-1.512, 2.909e-5
-1.513, 2.922e-5
-1.514, 2.935e-5
-1.515, 2.950e-5
-1.516, 2.966e-5
-1.517, 2.982e-5
-1.518, 2.995e-5
-1.519, 3.005e-5
-1.520, 3.017e-5
-1.521, 3.030e-5
-1.522, 3.045e-5
-1.523, 3.059e-5
-1.524, 3.075e-5
-1.525, 3.092e-5
-1.526, 3.107e-5
-1.527, 3.121e-5
-1.528, 3.135e-5
-1.529, 3.149e-5
-1.530, 3.166e-5
-1.531, 3.182e-5
-1.532, 3.196e-5
-1.533, 3.212e-5
-1.534, 3.229e-5
-1.535, 3.243e-5
-1.536, 3.258e-5
-1.537, 3.272e-5
-1.538, 3.288e-5
-1.539, 3.304e-5
-1.540, 3.322e-5
-1.541, 3.341e-5
-1.542, 3.359e-5
-1.543, 3.378e-5
-1.544, 3.399e-5
-1.545, 3.420e-5
-1.546, 3.436e-5
-1.547, 3.455e-5
-1.548, 3.474e-5
-1.549, 3.489e-5
-1.550, 3.503e-5
-1.551, 3.520e-5
-1.552, 3.535e-5
-1.553, 3.557e-5
-1.554, 3.581e-5
-1.555, 3.620e-5
-1.556, 3.648e-5
-1.557, 3.653e-5
-1.558, 3.671e-5
-1.559, 3.698e-5
-1.560, 3.720e-5
-1.561, 3.761e-5
-1.562, 3.790e-5
-1.563, 3.809e-5
-1.564, 3.821e-5
-1.565, 3.833e-5
-1.566, 3.852e-5
-1.567, 3.884e-5
-1.568, 3.911e-5
-1.569, 3.929e-5
-1.570, 3.949e-5
-1.571, 3.975e-5
-1.572, 4.003e-5
-1.573, 4.027e-5
-1.574, 4.048e-5
-1.575, 4.080e-5
-1.576, 4.119e-5
-1.577, 4.149e-5
-1.578, 4.182e-5
-1.579, 4.213e-5
-1.580, 4.234e-5
-1.581, 4.267e-5
-1.582, 4.301e-5
-1.583, 4.333e-5
-1.584, 4.363e-5
-1.585, 4.396e-5
-1.586, 4.437e-5
-1.587, 4.478e-5
-1.588, 4.509e-5
-1.589, 4.533e-5
-1.590, 4.562e-5
-1.591, 4.597e-5
-1.592, 4.627e-5
-1.593, 4.663e-5
-1.594, 4.698e-5
-1.595, 4.729e-5
-1.596, 4.777e-5
-1.597, 4.825e-5
-1.598, 4.865e-5
-1.599, 4.895e-5
-1.600, 4.922e-5
-1.601, 4.955e-5
-1.602, 4.998e-5
-1.603, 5.041e-5
-1.604, 5.085e-5
-1.605, 5.133e-5
-1.606, 5.167e-5
-1.607, 5.189e-5
-1.608, 5.214e-5
-1.609, 5.243e-5
-1.610, 5.285e-5
-1.611, 5.342e-5
-1.612, 5.401e-5
-1.613, 5.471e-5
-1.614, 5.543e-5
-1.615, 5.605e-5
-1.616, 5.634e-5
-1.617, 5.652e-5
-1.618, 5.699e-5
-1.619, 5.782e-5
-1.620, 5.825e-5
-1.621, 5.864e-5
-1.622, 5.910e-5
-1.623, 5.960e-5
-1.624, 5.995e-5
-1.625, 6.041e-5
-1.626, 6.078e-5
-1.627, 6.132e-5
-1.628, 6.190e-5
-1.629, 6.236e-5
-1.630, 6.301e-5
-1.631, 6.368e-5
-1.632, 6.416e-5
-1.633, 6.464e-5
-1.634, 6.533e-5
-1.635, 6.598e-5
-1.636, 6.671e-5
-1.637, 6.741e-5
-1.638, 6.797e-5
-1.639, 6.861e-5
-1.640, 6.912e-5
-1.641, 6.977e-5
-1.642, 7.050e-5
-1.643, 7.127e-5
-1.644, 7.184e-5
-1.645, 7.254e-5
-1.646, 7.338e-5
-1.647, 7.423e-5
-1.648, 7.511e-5
-1.649, 7.590e-5
-1.650, 7.702e-5
-1.651, 7.786e-5
-1.652, 7.819e-5
-1.653, 7.920e-5
-1.654, 8.023e-5
-1.655, 8.106e-5
-1.656, 8.169e-5
-1.657, 8.233e-5
-1.658, 8.328e-5
-1.659, 8.441e-5
-1.660, 8.525e-5
-1.661, 8.581e-5
-1.662, 8.669e-5
-1.663, 8.738e-5
-1.664, 8.805e-5
-1.665, 8.916e-5
-1.666, 8.995e-5
-1.667, 9.070e-5
-1.668, 9.143e-5
-1.669, 9.223e-5
-1.670, 9.319e-5
-1.671, 9.412e-5
-1.672, 9.500e-5
-1.673, 9.589e-5
-1.674, 9.691e-5
-1.675, 9.804e-5
-1.676, 9.922e-5
-1.677, 1.003e-4
-1.678, 1.009e-4
-1.679, 1.019e-4
-1.680, 1.031e-4
-1.681, 1.042e-4
-1.682, 1.052e-4
-1.683, 1.064e-4
-1.684, 1.075e-4
-1.685, 1.084e-4
-1.686, 1.093e-4
-1.687, 1.102e-4
-1.688, 1.113e-4
-1.689, 1.125e-4
-1.690, 1.136e-4
-1.691, 1.152e-4
-1.692, 1.163e-4
-1.693, 1.177e-4
-1.694, 1.194e-4
-1.695, 1.210e-4
-1.696, 1.218e-4
-1.697, 1.229e-4
-1.698, 1.233e-4
-1.699, 1.244e-4
-1.700, 1.261e-4
-1.701, 1.279e-4
-1.702, 1.288e-4
-1.703, 1.302e-4
-1.704, 1.317e-4
-1.705, 1.329e-4
-1.706, 1.339e-4
-1.707, 1.351e-4
-1.708, 1.372e-4
-1.709, 1.386e-4
-1.710, 1.393e-4
-1.711, 1.406e-4
-1.712, 1.422e-4
-1.713, 1.439e-4
-1.714, 1.455e-4
-1.715, 1.465e-4
-1.716, 1.478e-4
-1.717, 1.493e-4
-1.718, 1.514e-4
-1.719, 1.529e-4
-1.720, 1.545e-4
-1.721, 1.557e-4
-1.722, 1.572e-4
-1.723, 1.587e-4
-1.724, 1.601e-4
-1.725, 1.618e-4
-1.726, 1.638e-4
-1.727, 1.652e-4
-1.728, 1.671e-4
-1.729, 1.693e-4
-1.730, 1.711e-4
-1.731, 1.732e-4
-1.732, 1.749e-4
-1.733, 1.764e-4
-1.734, 1.784e-4
-1.735, 1.800e-4
-1.736, 1.816e-4
-1.737, 1.831e-4
-1.738, 1.849e-4
-1.739, 1.869e-4
-1.740, 1.889e-4
-1.741, 1.909e-4
-1.742, 1.930e-4
-1.743, 1.952e-4
-1.744, 1.975e-4
-1.745, 1.997e-4
-1.746, 2.016e-4
-1.747, 2.040e-4
-1.748, 2.063e-4
-1.749, 2.085e-4
-1.750, 2.110e-4
-1.751, 2.135e-4
-1.752, 2.163e-4
-1.753, 2.189e-4
-1.754, 2.219e-4
-1.755, 2.248e-4
-1.756, 2.279e-4
-1.757, 2.306e-4
-1.758, 2.334e-4
-1.759, 2.358e-4
-1.760, 2.387e-4
-1.761, 2.422e-4
-1.762, 2.456e-4
-1.763, 2.494e-4
-1.764, 2.526e-4
-1.765, 2.556e-4
-1.766, 2.586e-4
-1.767, 2.622e-4
-1.768, 2.662e-4
-1.769, 2.698e-4
-1.770, 2.737e-4
-1.771, 2.784e-4
-1.772, 2.817e-4
-1.773, 2.855e-4
-1.774, 2.892e-4
-1.775, 2.929e-4
-1.776, 2.970e-4
-1.777, 3.010e-4
-1.778, 3.053e-4
-1.779, 3.099e-4
-1.780, 3.142e-4
-1.781, 3.186e-4
-1.782, 3.228e-4
-1.783, 3.270e-4
-1.784, 3.320e-4
-1.785, 3.373e-4
-1.786, 3.427e-4
-1.787, 3.467e-4
-1.788, 3.505e-4
-1.789, 3.547e-4
-1.790, 3.593e-4
-1.791, 3.648e-4
-1.792, 3.696e-4
-1.793, 3.747e-4
-1.794, 3.799e-4
-1.795, 3.854e-4
-1.796, 3.909e-4
-1.797, 3.960e-4
-1.798, 4.012e-4
-1.799, 4.069e-4
-1.800, 4.121e-4
-1.801, 4.173e-4
-1.802, 4.229e-4
-1.803, 4.286e-4
-1.804, 4.344e-4
-1.805, 4.408e-4
-1.806, 4.468e-4
-1.807, 4.526e-4
-1.808, 4.583e-4
-1.809, 4.641e-4
-1.810, 4.700e-4
-1.811, 4.757e-4
-1.812, 4.813e-4
-1.813, 4.876e-4
-1.814, 4.938e-4
-1.815, 4.998e-4
-1.816, 5.061e-4
-1.817, 5.123e-4
-1.818, 5.189e-4
-1.819, 5.252e-4
-1.820, 5.313e-4
-1.821, 5.365e-4
-1.822, 5.424e-4
-1.823, 5.485e-4
-1.824, 5.551e-4
-1.825, 5.618e-4
-1.826, 5.684e-4
-1.827, 5.749e-4
-1.828, 5.811e-4
-1.829, 5.875e-4
-1.830, 5.942e-4
-1.831, 6.009e-4
-1.832, 6.080e-4
-1.833, 6.148e-4
-1.834, 6.217e-4
-1.835, 6.288e-4
-1.836, 6.358e-4
-1.837, 6.427e-4
-1.838, 6.500e-4
-1.839, 6.569e-4
-1.840, 6.636e-4
-1.841, 6.699e-4
-1.842, 6.761e-4
-1.843, 6.824e-4
-1.844, 6.888e-4
-1.845, 6.956e-4
-1.846, 7.026e-4
-1.847, 7.097e-4
-1.848, 7.166e-4
-1.849, 7.234e-4
-1.850, 7.303e-4
-1.851, 7.371e-4
-1.852, 7.441e-4
-1.853, 7.512e-4
-1.854, 7.583e-4
-1.855, 7.655e-4
-1.856, 7.727e-4
-1.857, 7.800e-4
-1.858, 7.872e-4
-1.859, 7.945e-4
-1.860, 8.020e-4
-1.861, 8.092e-4
-1.862, 8.162e-4
-1.863, 8.236e-4
-1.864, 8.308e-4
-1.865, 8.379e-4
-1.866, 8.448e-4
-1.867, 8.526e-4
-1.868, 8.603e-4
-1.869, 8.679e-4
-1.870, 8.753e-4
-1.871, 8.829e-4
-1.872, 8.904e-4
-1.873, 8.981e-4
-1.874, 9.057e-4
-1.875, 9.134e-4
-1.876, 9.212e-4
-1.877, 9.289e-4
-1.878, 9.365e-4
-1.879, 9.443e-4
-1.880, 9.521e-4
-1.881, 9.602e-4
-1.882, 9.682e-4
-1.883, 9.762e-4
-1.884, 9.842e-4
-1.885, 9.924e-4
-1.886, 1.000e-3
-1.887, 1.008e-3
-1.888, 1.011e-3
-1.889, 1.011e-3
-1.890, 1.011e-3
-1.891, 1.011e-3
-1.892, 1.011e-3
-1.893, 1.011e-3
-1.894, 1.011e-3
-1.895, 1.011e-3
-1.896, 1.011e-3
-1.897, 1.011e-3
-1.898, 1.011e-3
-1.899, 1.011e-3
-1.900, 1.011e-3
-1.901, 1.011e-3
-1.902, 1.011e-3
-1.903, 1.011e-3
-1.904, 1.011e-3
-1.905, 1.011e-3
-1.906, 1.011e-3
-1.907, 1.011e-3
-1.908, 1.011e-3
-1.909, 1.011e-3
-1.910, 1.011e-3
-1.911, 1.011e-3
-1.912, 1.011e-3
-1.913, 1.011e-3
-1.914, 1.011e-3
-1.915, 1.011e-3
-1.916, 1.011e-3
-1.917, 1.011e-3
-1.918, 1.011e-3
-1.919, 1.011e-3
-1.920, 1.011e-3
-1.921, 1.011e-3
-1.922, 1.011e-3
-1.923, 1.011e-3
-1.924, 1.011e-3
-1.925, 1.011e-3
-1.926, 1.011e-3
-1.927, 1.011e-3
-1.928, 1.011e-3
-1.929, 1.011e-3
-1.930, 1.011e-3
-1.931, 1.011e-3
-1.932, 1.011e-3
-1.933, 1.011e-3
-1.934, 1.011e-3
-1.935, 1.011e-3
-1.936, 1.011e-3
-1.937, 1.011e-3
-1.938, 1.011e-3
-1.939, 1.011e-3
-1.940, 1.011e-3
-1.941, 1.011e-3
-1.942, 1.011e-3
-1.943, 1.011e-3
-1.944, 1.011e-3
-1.945, 1.011e-3
-1.946, 1.011e-3
-1.947, 1.011e-3
-1.948, 1.011e-3
-1.949, 1.011e-3
-1.950, 1.011e-3
-1.951, 1.011e-3
-1.952, 1.011e-3
-1.953, 1.011e-3
-1.954, 1.011e-3
-1.955, 1.011e-3
-1.956, 1.011e-3
-1.957, 1.011e-3
-1.958, 1.011e-3
-1.959, 1.011e-3
-1.960, 1.011e-3
-1.961, 1.011e-3
-1.962, 1.011e-3
-1.963, 1.011e-3
-1.964, 1.011e-3
-1.965, 1.011e-3
-1.966, 1.011e-3
-1.967, 1.011e-3
-1.968, 1.011e-3
-1.969, 1.011e-3
-1.970, 1.011e-3
-1.971, 1.011e-3
-1.972, 1.011e-3
-1.973, 1.011e-3
-1.974, 1.011e-3
-1.975, 1.011e-3
-1.976, 1.011e-3
-1.977, 1.011e-3
-1.978, 1.011e-3
-1.979, 1.011e-3
-1.980, 1.011e-3
-1.981, 1.011e-3
-1.982, 1.011e-3
-1.983, 1.011e-3
-1.984, 1.011e-3
-1.985, 1.011e-3
-1.986, 1.011e-3
-1.987, 1.011e-3
-1.988, 1.011e-3
-1.989, 1.011e-3
-1.990, 1.011e-3
-1.991, 1.011e-3
-1.992, 1.011e-3
-1.993, 1.011e-3
-1.994, 1.011e-3
-1.995, 1.011e-3
-1.996, 1.011e-3
-1.997, 1.011e-3
-1.998, 1.011e-3
-1.999, 1.011e-3
-2.000, 1.011e-3
-2.001, 1.011e-3
-2.002, 1.011e-3
-2.003, 1.011e-3
-2.004, 1.011e-3
-2.005, 1.011e-3
-2.006, 1.011e-3
-2.007, 1.011e-3
-2.008, 1.011e-3
-2.009, 1.011e-3
-2.010, 1.011e-3
-2.011, 1.011e-3
-2.012, 1.011e-3
-2.013, 1.011e-3
-2.014, 1.011e-3
-2.015, 1.011e-3
-2.016, 1.011e-3
-2.017, 1.011e-3
-2.018, 1.011e-3
-2.019, 1.011e-3
-2.020, 1.011e-3
-2.021, 1.011e-3
-2.022, 1.011e-3
-2.023, 1.011e-3
-2.024, 1.011e-3
-2.025, 1.011e-3
-2.026, 1.011e-3
-2.027, 1.011e-3
-2.028, 1.011e-3
-2.029, 1.011e-3
-2.030, 1.011e-3
-2.031, 1.011e-3
-2.032, 1.011e-3
-2.033, 1.011e-3
-2.034, 1.011e-3
-2.035, 1.011e-3
-2.036, 1.011e-3
-2.037, 1.011e-3
-2.038, 1.011e-3
-2.039, 1.011e-3
-2.040, 1.011e-3
-2.041, 1.011e-3
-2.042, 1.011e-3
-2.043, 1.011e-3
-2.044, 1.011e-3
-2.045, 1.011e-3
-2.046, 1.011e-3
-2.047, 1.011e-3
-2.048, 1.011e-3
-2.049, 1.011e-3
-2.050, 1.011e-3
-2.051, 1.011e-3
-2.052, 1.011e-3
-2.053, 1.011e-3
-2.054, 1.011e-3
-2.055, 1.011e-3
-2.056, 1.011e-3
-2.057, 1.011e-3
-2.058, 1.011e-3
-2.059, 1.011e-3
-2.060, 1.011e-3
-2.061, 1.011e-3
-2.062, 1.011e-3
-2.063, 1.011e-3
-2.064, 1.011e-3
-2.065, 1.011e-3
-2.066, 1.011e-3
-2.067, 1.011e-3
-2.068, 1.011e-3
-2.069, 1.011e-3
-2.070, 1.011e-3
-2.071, 1.011e-3
-2.072, 1.011e-3
-2.073, 1.011e-3
-2.074, 1.011e-3
-2.075, 1.011e-3
-2.076, 1.011e-3
-2.077, 1.011e-3
-2.078, 1.011e-3
-2.079, 1.011e-3
-2.080, 1.011e-3
-2.081, 1.011e-3
-2.082, 1.011e-3
-2.083, 1.011e-3
-2.084, 1.011e-3
-2.085, 1.011e-3
-2.086, 1.011e-3
-2.087, 1.011e-3
-2.088, 1.011e-3
-2.089, 1.011e-3
-2.090, 1.011e-3
-2.091, 1.011e-3
-2.092, 1.011e-3
-2.093, 1.011e-3
-2.094, 1.011e-3
-2.095, 1.011e-3
-2.096, 1.011e-3
-2.097, 1.011e-3
-2.098, 1.011e-3
-2.099, 1.011e-3
