Aug. 11, 2024   16:23:06
Cyclic Voltammetry
File: c:/users/guazh/data/20240802_batch_500/2024-08-02-exp84\exp84-2024-08-11t15_59_15-h2koh\exp84_cv_sr_600mvs_efin_-1800mv.bin
Data Source:  Experiment
Instrument Model:  CHI760E
Header: CV ran at 600 mVs
Note: 

Init E (V) = -1
High E (V) = -1
Low E (V) = -1.8
Final E (V) = -1
Init P/N = N
Scan Rate (V/s) = 0.6
Segment = 3
Sample Interval (V) = 0.001
Quiet Time (sec) = 2
Sensitivity (A/V) = 0.01
Comp R (ohm) = 1.9

Results:

Channel 1:
Segment 1:

Segment 2:

Segment 3:

Potential/V, Current/A

-1.000, 1.865e-5
-1.001, 4.949e-5
-1.002, 5.873e-5
-1.003, 6.182e-5
-1.004, 6.182e-5
-1.005, 6.182e-5
-1.006, 6.182e-5
-1.007, 6.182e-5
-1.008, 6.182e-5
-1.009, 6.182e-5
-1.010, 6.490e-5
-1.011, 6.490e-5
-1.012, 6.798e-5
-1.013, 7.107e-5
-1.014, 6.798e-5
-1.015, 6.798e-5
-1.016, 6.798e-5
-1.017, 6.490e-5
-1.018, 6.490e-5
-1.019, 6.798e-5
-1.020, 6.798e-5
-1.021, 7.107e-5
-1.022, 7.107e-5
-1.023, 7.415e-5
-1.024, 7.107e-5
-1.025, 7.107e-5
-1.026, 7.107e-5
-1.027, 7.107e-5
-1.028, 6.798e-5
-1.029, 6.798e-5
-1.030, 7.107e-5
-1.031, 7.415e-5
-1.032, 7.415e-5
-1.033, 7.723e-5
-1.034, 7.415e-5
-1.035, 7.415e-5
-1.036, 7.415e-5
-1.037, 7.107e-5
-1.038, 7.107e-5
-1.039, 7.107e-5
-1.040, 7.107e-5
-1.041, 7.415e-5
-1.042, 7.415e-5
-1.043, 7.723e-5
-1.044, 7.723e-5
-1.045, 7.415e-5
-1.046, 7.415e-5
-1.047, 7.415e-5
-1.048, 7.107e-5
-1.049, 7.415e-5
-1.050, 7.415e-5
-1.051, 7.415e-5
-1.052, 7.723e-5
-1.053, 8.032e-5
-1.054, 7.723e-5
-1.055, 7.723e-5
-1.056, 7.415e-5
-1.057, 7.415e-5
-1.058, 7.107e-5
-1.059, 7.415e-5
-1.060, 7.415e-5
-1.061, 7.723e-5
-1.062, 7.723e-5
-1.063, 8.032e-5
-1.064, 7.723e-5
-1.065, 7.723e-5
-1.066, 7.723e-5
-1.067, 7.415e-5
-1.068, 7.415e-5
-1.069, 7.415e-5
-1.070, 7.415e-5
-1.071, 7.723e-5
-1.072, 7.723e-5
-1.073, 8.032e-5
-1.074, 8.032e-5
-1.075, 8.032e-5
-1.076, 7.723e-5
-1.077, 7.723e-5
-1.078, 7.415e-5
-1.079, 7.723e-5
-1.080, 7.723e-5
-1.081, 7.723e-5
-1.082, 8.032e-5
-1.083, 8.032e-5
-1.084, 8.032e-5
-1.085, 8.032e-5
-1.086, 7.723e-5
-1.087, 7.723e-5
-1.088, 7.723e-5
-1.089, 7.723e-5
-1.090, 7.723e-5
-1.091, 7.723e-5
-1.092, 8.032e-5
-1.093, 8.340e-5
-1.094, 8.032e-5
-1.095, 8.032e-5
-1.096, 7.723e-5
-1.097, 7.723e-5
-1.098, 7.723e-5
-1.099, 7.723e-5
-1.100, 7.723e-5
-1.101, 8.032e-5
-1.102, 8.032e-5
-1.103, 8.340e-5
-1.104, 8.032e-5
-1.105, 8.032e-5
-1.106, 8.032e-5
-1.107, 7.723e-5
-1.108, 7.723e-5
-1.109, 7.723e-5
-1.110, 8.032e-5
-1.111, 8.032e-5
-1.112, 8.032e-5
-1.113, 8.340e-5
-1.114, 8.032e-5
-1.115, 8.032e-5
-1.116, 8.032e-5
-1.117, 7.723e-5
-1.118, 7.723e-5
-1.119, 8.032e-5
-1.120, 8.032e-5
-1.121, 8.032e-5
-1.122, 8.032e-5
-1.123, 8.340e-5
-1.124, 8.340e-5
-1.125, 8.032e-5
-1.126, 8.032e-5
-1.127, 8.032e-5
-1.128, 7.723e-5
-1.129, 8.032e-5
-1.130, 8.032e-5
-1.131, 8.032e-5
-1.132, 8.032e-5
-1.133, 8.340e-5
-1.134, 8.340e-5
-1.135, 8.340e-5
-1.136, 8.032e-5
-1.137, 8.032e-5
-1.138, 7.723e-5
-1.139, 7.723e-5
-1.140, 8.032e-5
-1.141, 8.032e-5
-1.142, 8.340e-5
-1.143, 8.648e-5
-1.144, 8.340e-5
-1.145, 8.340e-5
-1.146, 8.032e-5
-1.147, 8.032e-5
-1.148, 8.032e-5
-1.149, 8.032e-5
-1.150, 8.032e-5
-1.151, 8.340e-5
-1.152, 8.340e-5
-1.153, 8.648e-5
-1.154, 8.340e-5
-1.155, 8.340e-5
-1.156, 8.340e-5
-1.157, 8.032e-5
-1.158, 8.032e-5
-1.159, 8.032e-5
-1.160, 8.032e-5
-1.161, 8.340e-5
-1.162, 8.340e-5
-1.163, 8.648e-5
-1.164, 8.340e-5
-1.165, 8.340e-5
-1.166, 8.340e-5
-1.167, 8.340e-5
-1.168, 8.032e-5
-1.169, 8.340e-5
-1.170, 8.340e-5
-1.171, 8.340e-5
-1.172, 8.648e-5
-1.173, 8.648e-5
-1.174, 8.340e-5
-1.175, 8.648e-5
-1.176, 8.340e-5
-1.177, 8.340e-5
-1.178, 8.032e-5
-1.179, 8.340e-5
-1.180, 8.340e-5
-1.181, 8.340e-5
-1.182, 8.648e-5
-1.183, 8.648e-5
-1.184, 8.648e-5
-1.185, 8.648e-5
-1.186, 8.340e-5
-1.187, 8.340e-5
-1.188, 8.340e-5
-1.189, 8.340e-5
-1.190, 8.340e-5
-1.191, 8.648e-5
-1.192, 8.648e-5
-1.193, 8.957e-5
-1.194, 8.648e-5
-1.195, 8.648e-5
-1.196, 8.648e-5
-1.197, 8.648e-5
-1.198, 8.340e-5
-1.199, 8.648e-5
-1.200, 8.340e-5
-1.201, 8.648e-5
-1.202, 8.957e-5
-1.203, 8.957e-5
-1.204, 8.957e-5
-1.205, 8.957e-5
-1.206, 8.648e-5
-1.207, 8.648e-5
-1.208, 8.340e-5
-1.209, 8.648e-5
-1.210, 8.648e-5
-1.211, 8.648e-5
-1.212, 8.957e-5
-1.213, 9.265e-5
-1.214, 8.957e-5
-1.215, 8.957e-5
-1.216, 8.957e-5
-1.217, 8.648e-5
-1.218, 8.648e-5
-1.219, 8.648e-5
-1.220, 8.957e-5
-1.221, 8.957e-5
-1.222, 9.265e-5
-1.223, 9.265e-5
-1.224, 9.265e-5
-1.225, 9.265e-5
-1.226, 8.957e-5
-1.227, 8.957e-5
-1.228, 8.957e-5
-1.229, 8.957e-5
-1.230, 8.957e-5
-1.231, 9.265e-5
-1.232, 9.265e-5
-1.233, 9.573e-5
-1.234, 9.573e-5
-1.235, 9.573e-5
-1.236, 9.265e-5
-1.237, 9.265e-5
-1.238, 9.265e-5
-1.239, 9.265e-5
-1.240, 9.265e-5
-1.241, 9.573e-5
-1.242, 9.573e-5
-1.243, 9.882e-5
-1.244, 9.882e-5
-1.245, 9.882e-5
-1.246, 9.573e-5
-1.247, 9.573e-5
-1.248, 9.573e-5
-1.249, 9.573e-5
-1.250, 9.573e-5
-1.251, 9.882e-5
-1.252, 1.019e-4
-1.253, 1.019e-4
-1.254, 1.019e-4
-1.255, 1.019e-4
-1.256, 9.882e-5
-1.257, 9.882e-5
-1.258, 9.882e-5
-1.259, 1.019e-4
-1.260, 1.019e-4
-1.261, 1.050e-4
-1.262, 1.050e-4
-1.263, 1.081e-4
-1.264, 1.050e-4
-1.265, 1.081e-4
-1.266, 1.050e-4
-1.267, 1.050e-4
-1.268, 1.050e-4
-1.269, 1.050e-4
-1.270, 1.050e-4
-1.271, 1.081e-4
-1.272, 1.111e-4
-1.273, 1.142e-4
-1.274, 1.111e-4
-1.275, 1.111e-4
-1.276, 1.142e-4
-1.277, 1.111e-4
-1.278, 1.111e-4
-1.279, 1.111e-4
-1.280, 1.142e-4
-1.281, 1.173e-4
-1.282, 1.173e-4
-1.283, 1.204e-4
-1.284, 1.204e-4
-1.285, 1.173e-4
-1.286, 1.204e-4
-1.287, 1.204e-4
-1.288, 1.173e-4
-1.289, 1.204e-4
-1.290, 1.204e-4
-1.291, 1.235e-4
-1.292, 1.266e-4
-1.293, 1.296e-4
-1.294, 1.296e-4
-1.295, 1.296e-4
-1.296, 1.296e-4
-1.297, 1.266e-4
-1.298, 1.266e-4
-1.299, 1.296e-4
-1.300, 1.327e-4
-1.301, 1.358e-4
-1.302, 1.358e-4
-1.303, 1.389e-4
-1.304, 1.389e-4
-1.305, 1.389e-4
-1.306, 1.389e-4
-1.307, 1.389e-4
-1.308, 1.389e-4
-1.309, 1.420e-4
-1.310, 1.451e-4
-1.311, 1.481e-4
-1.312, 1.481e-4
-1.313, 1.512e-4
-1.314, 1.512e-4
-1.315, 1.543e-4
-1.316, 1.512e-4
-1.317, 1.543e-4
-1.318, 1.543e-4
-1.319, 1.574e-4
-1.320, 1.574e-4
-1.321, 1.605e-4
-1.322, 1.636e-4
-1.323, 1.697e-4
-1.324, 1.697e-4
-1.325, 1.697e-4
-1.326, 1.697e-4
-1.327, 1.728e-4
-1.328, 1.697e-4
-1.329, 1.759e-4
-1.330, 1.759e-4
-1.331, 1.790e-4
-1.332, 1.851e-4
-1.333, 1.882e-4
-1.334, 1.882e-4
-1.335, 1.882e-4
-1.336, 1.882e-4
-1.337, 1.913e-4
-1.338, 1.913e-4
-1.339, 1.944e-4
-1.340, 1.975e-4
-1.341, 2.006e-4
-1.342, 2.036e-4
-1.343, 2.098e-4
-1.344, 2.098e-4
-1.345, 2.129e-4
-1.346, 2.129e-4
-1.347, 2.160e-4
-1.348, 2.160e-4
-1.349, 2.221e-4
-1.350, 2.221e-4
-1.351, 2.283e-4
-1.352, 2.314e-4
-1.353, 2.376e-4
-1.354, 2.376e-4
-1.355, 2.406e-4
-1.356, 2.437e-4
-1.357, 2.437e-4
-1.358, 2.468e-4
-1.359, 2.499e-4
-1.360, 2.530e-4
-1.361, 2.591e-4
-1.362, 2.622e-4
-1.363, 2.684e-4
-1.364, 2.715e-4
-1.365, 2.746e-4
-1.366, 2.746e-4
-1.367, 2.807e-4
-1.368, 2.807e-4
-1.369, 2.869e-4
-1.370, 2.900e-4
-1.371, 2.961e-4
-1.372, 3.023e-4
-1.373, 3.054e-4
-1.374, 3.085e-4
-1.375, 3.115e-4
-1.376, 3.146e-4
-1.377, 3.177e-4
-1.378, 3.208e-4
-1.379, 3.239e-4
-1.380, 3.300e-4
-1.381, 3.362e-4
-1.382, 3.424e-4
-1.383, 3.485e-4
-1.384, 3.516e-4
-1.385, 3.578e-4
-1.386, 3.609e-4
-1.387, 3.640e-4
-1.388, 3.670e-4
-1.389, 3.732e-4
-1.390, 3.794e-4
-1.391, 3.855e-4
-1.392, 3.917e-4
-1.393, 3.979e-4
-1.394, 4.010e-4
-1.395, 4.071e-4
-1.396, 4.102e-4
-1.397, 4.164e-4
-1.398, 4.195e-4
-1.399, 4.256e-4
-1.400, 4.318e-4
-1.401, 4.380e-4
-1.402, 4.472e-4
-1.403, 4.534e-4
-1.404, 4.595e-4
-1.405, 4.657e-4
-1.406, 4.688e-4
-1.407, 4.750e-4
-1.408, 4.780e-4
-1.409, 4.873e-4
-1.410, 4.904e-4
-1.411, 4.996e-4
-1.412, 5.089e-4
-1.413, 5.150e-4
-1.414, 5.212e-4
-1.415, 5.305e-4
-1.416, 5.335e-4
-1.417, 5.397e-4
-1.418, 5.459e-4
-1.419, 5.520e-4
-1.420, 5.613e-4
-1.421, 5.705e-4
-1.422, 5.767e-4
-1.423, 5.859e-4
-1.424, 5.921e-4
-1.425, 5.983e-4
-1.426, 6.075e-4
-1.427, 6.137e-4
-1.428, 6.168e-4
-1.429, 6.260e-4
-1.430, 6.322e-4
-1.431, 6.414e-4
-1.432, 6.538e-4
-1.433, 6.630e-4
-1.434, 6.692e-4
-1.435, 6.784e-4
-1.436, 6.846e-4
-1.437, 6.908e-4
-1.438, 6.969e-4
-1.439, 7.062e-4
-1.440, 7.124e-4
-1.441, 7.247e-4
-1.442, 7.339e-4
-1.443, 7.432e-4
-1.444, 7.494e-4
-1.445, 7.586e-4
-1.446, 7.648e-4
-1.447, 7.740e-4
-1.448, 7.802e-4
-1.449, 7.894e-4
-1.450, 7.956e-4
-1.451, 8.079e-4
-1.452, 8.172e-4
-1.453, 8.264e-4
-1.454, 8.357e-4
-1.455, 8.449e-4
-1.456, 8.511e-4
-1.457, 8.603e-4
-1.458, 8.665e-4
-1.459, 8.758e-4
-1.460, 8.850e-4
-1.461, 8.973e-4
-1.462, 9.066e-4
-1.463, 9.189e-4
-1.464, 9.251e-4
-1.465, 9.343e-4
-1.466, 9.405e-4
-1.467, 9.498e-4
-1.468, 9.559e-4
-1.469, 9.683e-4
-1.470, 9.744e-4
-1.471, 9.868e-4
-1.472, 9.960e-4
-1.473, 1.008e-3
-1.474, 1.018e-3
-1.475, 1.027e-3
-1.476, 1.033e-3
-1.477, 1.042e-3
-1.478, 1.048e-3
-1.479, 1.058e-3
-1.480, 1.067e-3
-1.481, 1.079e-3
-1.482, 1.088e-3
-1.483, 1.101e-3
-1.484, 1.110e-3
-1.485, 1.119e-3
-1.486, 1.129e-3
-1.487, 1.135e-3
-1.488, 1.144e-3
-1.489, 1.153e-3
-1.490, 1.162e-3
-1.491, 1.175e-3
-1.492, 1.184e-3
-1.493, 1.193e-3
-1.494, 1.203e-3
-1.495, 1.215e-3
-1.496, 1.221e-3
-1.497, 1.230e-3
-1.498, 1.236e-3
-1.499, 1.246e-3
-1.500, 1.255e-3
-1.501, 1.267e-3
-1.502, 1.277e-3
-1.503, 1.289e-3
-1.504, 1.298e-3
-1.505, 1.307e-3
-1.506, 1.317e-3
-1.507, 1.323e-3
-1.508, 1.332e-3
-1.509, 1.341e-3
-1.510, 1.354e-3
-1.511, 1.363e-3
-1.512, 1.375e-3
-1.513, 1.388e-3
-1.514, 1.397e-3
-1.515, 1.406e-3
-1.516, 1.415e-3
-1.517, 1.425e-3
-1.518, 1.431e-3
-1.519, 1.443e-3
-1.520, 1.452e-3
-1.521, 1.465e-3
-1.522, 1.477e-3
-1.523, 1.489e-3
-1.524, 1.499e-3
-1.525, 1.511e-3
-1.526, 1.517e-3
-1.527, 1.526e-3
-1.528, 1.536e-3
-1.529, 1.548e-3
-1.530, 1.557e-3
-1.531, 1.569e-3
-1.532, 1.582e-3
-1.533, 1.594e-3
-1.534, 1.603e-3
-1.535, 1.619e-3
-1.536, 1.625e-3
-1.537, 1.637e-3
-1.538, 1.643e-3
-1.539, 1.656e-3
-1.540, 1.668e-3
-1.541, 1.680e-3
-1.542, 1.693e-3
-1.543, 1.705e-3
-1.544, 1.714e-3
-1.545, 1.727e-3
-1.546, 1.739e-3
-1.547, 1.748e-3
-1.548, 1.758e-3
-1.549, 1.770e-3
-1.550, 1.779e-3
-1.551, 1.795e-3
-1.552, 1.807e-3
-1.553, 1.819e-3
-1.554, 1.832e-3
-1.555, 1.844e-3
-1.556, 1.856e-3
-1.557, 1.865e-3
-1.558, 1.875e-3
-1.559, 1.887e-3
-1.560, 1.899e-3
-1.561, 1.915e-3
-1.562, 1.927e-3
-1.563, 1.946e-3
-1.564, 1.958e-3
-1.565, 1.970e-3
-1.566, 1.983e-3
-1.567, 1.992e-3
-1.568, 2.004e-3
-1.569, 2.020e-3
-1.570, 2.032e-3
-1.571, 2.047e-3
-1.572, 2.063e-3
-1.573, 2.078e-3
-1.574, 2.091e-3
-1.575, 2.106e-3
-1.576, 2.121e-3
-1.577, 2.134e-3
-1.578, 2.146e-3
-1.579, 2.161e-3
-1.580, 2.174e-3
-1.581, 2.192e-3
-1.582, 2.208e-3
-1.583, 2.226e-3
-1.584, 2.238e-3
-1.585, 2.257e-3
-1.586, 2.269e-3
-1.587, 2.285e-3
-1.588, 2.297e-3
-1.589, 2.316e-3
-1.590, 2.328e-3
-1.591, 2.346e-3
-1.592, 2.362e-3
-1.593, 2.380e-3
-1.594, 2.399e-3
-1.595, 2.414e-3
-1.596, 2.430e-3
-1.597, 2.445e-3
-1.598, 2.457e-3
-1.599, 2.476e-3
-1.600, 2.491e-3
-1.601, 2.510e-3
-1.602, 2.528e-3
-1.603, 2.547e-3
-1.604, 2.565e-3
-1.605, 2.581e-3
-1.606, 2.599e-3
-1.607, 2.615e-3
-1.608, 2.630e-3
-1.609, 2.649e-3
-1.610, 2.664e-3
-1.611, 2.686e-3
-1.612, 2.704e-3
-1.613, 2.726e-3
-1.614, 2.747e-3
-1.615, 2.766e-3
-1.616, 2.784e-3
-1.617, 2.803e-3
-1.618, 2.818e-3
-1.619, 2.840e-3
-1.620, 2.858e-3
-1.621, 2.883e-3
-1.622, 2.904e-3
-1.623, 2.929e-3
-1.624, 2.951e-3
-1.625, 2.972e-3
-1.626, 2.994e-3
-1.627, 3.012e-3
-1.628, 3.031e-3
-1.629, 3.056e-3
-1.630, 3.077e-3
-1.631, 3.102e-3
-1.632, 3.126e-3
-1.633, 3.151e-3
-1.634, 3.176e-3
-1.635, 3.200e-3
-1.636, 3.222e-3
-1.637, 3.244e-3
-1.638, 3.265e-3
-1.639, 3.290e-3
-1.640, 3.314e-3
-1.641, 3.339e-3
-1.642, 3.364e-3
-1.643, 3.392e-3
-1.644, 3.416e-3
-1.645, 3.441e-3
-1.646, 3.466e-3
-1.647, 3.490e-3
-1.648, 3.512e-3
-1.649, 3.536e-3
-1.650, 3.561e-3
-1.651, 3.589e-3
-1.652, 3.617e-3
-1.653, 3.644e-3
-1.654, 3.669e-3
-1.655, 3.700e-3
-1.656, 3.725e-3
-1.657, 3.749e-3
-1.658, 3.777e-3
-1.659, 3.802e-3
-1.660, 3.829e-3
-1.661, 3.860e-3
-1.662, 3.891e-3
-1.663, 3.922e-3
-1.664, 3.953e-3
-1.665, 3.984e-3
-1.666, 4.014e-3
-1.667, 4.042e-3
-1.668, 4.070e-3
-1.669, 4.101e-3
-1.670, 4.132e-3
-1.671, 4.165e-3
-1.672, 4.199e-3
-1.673, 4.236e-3
-1.674, 4.270e-3
-1.675, 4.304e-3
-1.676, 4.338e-3
-1.677, 4.369e-3
-1.678, 4.403e-3
-1.679, 4.437e-3
-1.680, 4.471e-3
-1.681, 4.508e-3
-1.682, 4.548e-3
-1.683, 4.585e-3
-1.684, 4.622e-3
-1.685, 4.662e-3
-1.686, 4.699e-3
-1.687, 4.733e-3
-1.688, 4.767e-3
-1.689, 4.804e-3
-1.690, 4.841e-3
-1.691, 4.881e-3
-1.692, 4.921e-3
-1.693, 4.961e-3
-1.694, 4.998e-3
-1.695, 5.041e-3
-1.696, 5.078e-3
-1.697, 5.115e-3
-1.698, 5.146e-3
-1.699, 5.186e-3
-1.700, 5.223e-3
-1.701, 5.263e-3
-1.702, 5.303e-3
-1.703, 5.346e-3
-1.704, 5.386e-3
-1.705, 5.426e-3
-1.706, 5.463e-3
-1.707, 5.504e-3
-1.708, 5.541e-3
-1.709, 5.584e-3
-1.710, 5.624e-3
-1.711, 5.667e-3
-1.712, 5.710e-3
-1.713, 5.759e-3
-1.714, 5.803e-3
-1.715, 5.849e-3
-1.716, 5.892e-3
-1.717, 5.935e-3
-1.718, 5.975e-3
-1.719, 6.021e-3
-1.720, 6.065e-3
-1.721, 6.114e-3
-1.722, 6.163e-3
-1.723, 6.216e-3
-1.724, 6.265e-3
-1.725, 6.317e-3
-1.726, 6.367e-3
-1.727, 6.413e-3
-1.728, 6.462e-3
-1.729, 6.512e-3
-1.730, 6.564e-3
-1.731, 6.620e-3
-1.732, 6.675e-3
-1.733, 6.731e-3
-1.734, 6.786e-3
-1.735, 6.842e-3
-1.736, 6.897e-3
-1.737, 6.949e-3
-1.738, 7.002e-3
-1.739, 7.057e-3
-1.740, 7.110e-3
-1.741, 7.168e-3
-1.742, 7.227e-3
-1.743, 7.286e-3
-1.744, 7.341e-3
-1.745, 7.400e-3
-1.746, 7.458e-3
-1.747, 7.508e-3
-1.748, 7.560e-3
-1.749, 7.615e-3
-1.750, 7.668e-3
-1.751, 7.726e-3
-1.752, 7.785e-3
-1.753, 7.847e-3
-1.754, 7.905e-3
-1.755, 7.964e-3
-1.756, 8.019e-3
-1.757, 8.075e-3
-1.758, 8.127e-3
-1.759, 8.186e-3
-1.760, 8.241e-3
-1.761, 8.300e-3
-1.762, 8.362e-3
-1.763, 8.426e-3
-1.764, 8.488e-3
-1.765, 8.547e-3
-1.766, 8.608e-3
-1.767, 8.667e-3
-1.768, 8.728e-3
-1.769, 8.790e-3
-1.770, 8.849e-3
-1.771, 8.913e-3
-1.772, 8.984e-3
-1.773, 9.052e-3
-1.774, 9.120e-3
-1.775, 9.191e-3
-1.776, 9.256e-3
-1.777, 9.323e-3
-1.778, 9.388e-3
-1.779, 9.456e-3
-1.780, 9.524e-3
-1.781, 9.598e-3
-1.782, 9.672e-3
-1.783, 9.749e-3
-1.784, 9.826e-3
-1.785, 9.900e-3
-1.786, 9.974e-3
-1.787, 1.004e-2
-1.788, 1.012e-2
-1.789, 1.019e-2
-1.790, 1.026e-2
-1.791, 1.034e-2
-1.792, 1.041e-2
-1.793, 1.050e-2
-1.794, 1.057e-2
-1.795, 1.065e-2
-1.796, 1.072e-2
-1.797, 1.079e-2
-1.798, 1.086e-2
-1.799, 1.093e-2
-1.800, 1.094e-2
-1.799, 1.086e-2
-1.798, 1.079e-2
-1.797, 1.071e-2
-1.796, 1.064e-2
-1.795, 1.056e-2
-1.794, 1.048e-2
-1.793, 1.039e-2
-1.792, 1.031e-2
-1.791, 1.022e-2
-1.790, 1.014e-2
-1.789, 1.006e-2
-1.788, 9.983e-3
-1.787, 9.909e-3
-1.786, 9.832e-3
-1.785, 9.758e-3
-1.784, 9.678e-3
-1.783, 9.601e-3
-1.782, 9.521e-3
-1.781, 9.444e-3
-1.780, 9.364e-3
-1.779, 9.293e-3
-1.778, 9.222e-3
-1.777, 9.157e-3
-1.776, 9.089e-3
-1.775, 9.018e-3
-1.774, 8.947e-3
-1.773, 8.876e-3
-1.772, 8.802e-3
-1.771, 8.732e-3
-1.770, 8.658e-3
-1.769, 8.593e-3
-1.768, 8.528e-3
-1.767, 8.466e-3
-1.766, 8.402e-3
-1.765, 8.337e-3
-1.764, 8.272e-3
-1.763, 8.204e-3
-1.762, 8.133e-3
-1.761, 8.066e-3
-1.760, 8.001e-3
-1.759, 7.936e-3
-1.758, 7.874e-3
-1.757, 7.813e-3
-1.756, 7.751e-3
-1.755, 7.686e-3
-1.754, 7.622e-3
-1.753, 7.554e-3
-1.752, 7.486e-3
-1.751, 7.418e-3
-1.750, 7.350e-3
-1.749, 7.289e-3
-1.748, 7.227e-3
-1.747, 7.165e-3
-1.746, 7.101e-3
-1.745, 7.039e-3
-1.744, 6.971e-3
-1.743, 6.903e-3
-1.742, 6.835e-3
-1.741, 6.771e-3
-1.740, 6.706e-3
-1.739, 6.644e-3
-1.738, 6.586e-3
-1.737, 6.527e-3
-1.736, 6.465e-3
-1.735, 6.407e-3
-1.734, 6.342e-3
-1.733, 6.280e-3
-1.732, 6.216e-3
-1.731, 6.154e-3
-1.730, 6.095e-3
-1.729, 6.040e-3
-1.728, 5.984e-3
-1.727, 5.932e-3
-1.726, 5.877e-3
-1.725, 5.821e-3
-1.724, 5.766e-3
-1.723, 5.707e-3
-1.722, 5.651e-3
-1.721, 5.593e-3
-1.720, 5.537e-3
-1.719, 5.488e-3
-1.718, 5.436e-3
-1.717, 5.386e-3
-1.716, 5.334e-3
-1.715, 5.285e-3
-1.714, 5.232e-3
-1.713, 5.177e-3
-1.712, 5.124e-3
-1.711, 5.069e-3
-1.710, 5.016e-3
-1.709, 4.970e-3
-1.708, 4.921e-3
-1.707, 4.875e-3
-1.706, 4.828e-3
-1.705, 4.779e-3
-1.704, 4.730e-3
-1.703, 4.677e-3
-1.702, 4.628e-3
-1.701, 4.579e-3
-1.700, 4.529e-3
-1.699, 4.483e-3
-1.698, 4.440e-3
-1.697, 4.394e-3
-1.696, 4.350e-3
-1.695, 4.304e-3
-1.694, 4.258e-3
-1.693, 4.209e-3
-1.692, 4.159e-3
-1.691, 4.116e-3
-1.690, 4.067e-3
-1.689, 4.024e-3
-1.688, 3.980e-3
-1.687, 3.937e-3
-1.686, 3.894e-3
-1.685, 3.851e-3
-1.684, 3.805e-3
-1.683, 3.762e-3
-1.682, 3.715e-3
-1.681, 3.672e-3
-1.680, 3.629e-3
-1.679, 3.589e-3
-1.678, 3.552e-3
-1.677, 3.515e-3
-1.676, 3.475e-3
-1.675, 3.438e-3
-1.674, 3.398e-3
-1.673, 3.358e-3
-1.672, 3.321e-3
-1.671, 3.284e-3
-1.670, 3.247e-3
-1.669, 3.210e-3
-1.668, 3.176e-3
-1.667, 3.142e-3
-1.666, 3.105e-3
-1.665, 3.071e-3
-1.664, 3.034e-3
-1.663, 3.000e-3
-1.662, 2.963e-3
-1.661, 2.929e-3
-1.660, 2.892e-3
-1.659, 2.861e-3
-1.658, 2.830e-3
-1.657, 2.800e-3
-1.656, 2.769e-3
-1.655, 2.738e-3
-1.654, 2.704e-3
-1.653, 2.670e-3
-1.652, 2.636e-3
-1.651, 2.605e-3
-1.650, 2.575e-3
-1.649, 2.547e-3
-1.648, 2.519e-3
-1.647, 2.491e-3
-1.646, 2.460e-3
-1.645, 2.433e-3
-1.644, 2.399e-3
-1.643, 2.368e-3
-1.642, 2.337e-3
-1.641, 2.309e-3
-1.640, 2.282e-3
-1.639, 2.254e-3
-1.638, 2.226e-3
-1.637, 2.201e-3
-1.636, 2.174e-3
-1.635, 2.149e-3
-1.634, 2.118e-3
-1.633, 2.094e-3
-1.632, 2.066e-3
-1.631, 2.038e-3
-1.630, 2.013e-3
-1.629, 1.989e-3
-1.628, 1.967e-3
-1.627, 1.946e-3
-1.626, 1.921e-3
-1.625, 1.899e-3
-1.624, 1.872e-3
-1.623, 1.847e-3
-1.622, 1.822e-3
-1.621, 1.801e-3
-1.620, 1.776e-3
-1.619, 1.758e-3
-1.618, 1.736e-3
-1.617, 1.717e-3
-1.616, 1.696e-3
-1.615, 1.677e-3
-1.614, 1.653e-3
-1.613, 1.631e-3
-1.612, 1.610e-3
-1.611, 1.588e-3
-1.610, 1.569e-3
-1.609, 1.551e-3
-1.608, 1.532e-3
-1.607, 1.517e-3
-1.606, 1.495e-3
-1.605, 1.477e-3
-1.604, 1.455e-3
-1.603, 1.437e-3
-1.602, 1.418e-3
-1.601, 1.400e-3
-1.600, 1.381e-3
-1.599, 1.366e-3
-1.598, 1.351e-3
-1.597, 1.332e-3
-1.596, 1.317e-3
-1.595, 1.301e-3
-1.594, 1.283e-3
-1.593, 1.261e-3
-1.592, 1.246e-3
-1.591, 1.230e-3
-1.590, 1.212e-3
-1.589, 1.203e-3
-1.588, 1.187e-3
-1.587, 1.175e-3
-1.586, 1.156e-3
-1.585, 1.144e-3
-1.584, 1.125e-3
-1.583, 1.110e-3
-1.582, 1.095e-3
-1.581, 1.079e-3
-1.580, 1.067e-3
-1.579, 1.055e-3
-1.578, 1.042e-3
-1.577, 1.030e-3
-1.576, 1.018e-3
-1.575, 1.002e-3
-1.574, 9.868e-4
-1.573, 9.744e-4
-1.572, 9.621e-4
-1.571, 9.498e-4
-1.570, 9.374e-4
-1.569, 9.251e-4
-1.568, 9.158e-4
-1.567, 9.066e-4
-1.566, 8.912e-4
-1.565, 8.819e-4
-1.564, 8.696e-4
-1.563, 8.573e-4
-1.562, 8.449e-4
-1.561, 8.326e-4
-1.560, 8.233e-4
-1.559, 8.141e-4
-1.558, 8.048e-4
-1.557, 7.956e-4
-1.556, 7.863e-4
-1.555, 7.740e-4
-1.554, 7.617e-4
-1.553, 7.524e-4
-1.552, 7.401e-4
-1.551, 7.309e-4
-1.550, 7.216e-4
-1.549, 7.154e-4
-1.548, 7.062e-4
-1.547, 7.000e-4
-1.546, 6.908e-4
-1.545, 6.815e-4
-1.544, 6.692e-4
-1.543, 6.599e-4
-1.542, 6.507e-4
-1.541, 6.414e-4
-1.540, 6.322e-4
-1.539, 6.291e-4
-1.538, 6.229e-4
-1.537, 6.137e-4
-1.536, 6.044e-4
-1.535, 5.983e-4
-1.534, 5.890e-4
-1.533, 5.829e-4
-1.532, 5.705e-4
-1.531, 5.644e-4
-1.530, 5.582e-4
-1.529, 5.520e-4
-1.528, 5.459e-4
-1.527, 5.397e-4
-1.526, 5.335e-4
-1.525, 5.243e-4
-1.524, 5.181e-4
-1.523, 5.089e-4
-1.522, 5.027e-4
-1.521, 4.965e-4
-1.520, 4.904e-4
-1.519, 4.842e-4
-1.518, 4.780e-4
-1.517, 4.750e-4
-1.516, 4.688e-4
-1.515, 4.626e-4
-1.514, 4.565e-4
-1.513, 4.472e-4
-1.512, 4.410e-4
-1.511, 4.349e-4
-1.510, 4.287e-4
-1.509, 4.256e-4
-1.508, 4.225e-4
-1.507, 4.195e-4
-1.506, 4.102e-4
-1.505, 4.071e-4
-1.504, 3.979e-4
-1.503, 3.917e-4
-1.502, 3.855e-4
-1.501, 3.825e-4
-1.500, 3.763e-4
-1.499, 3.732e-4
-1.498, 3.701e-4
-1.497, 3.670e-4
-1.496, 3.609e-4
-1.495, 3.547e-4
-1.494, 3.516e-4
-1.493, 3.455e-4
-1.492, 3.362e-4
-1.491, 3.362e-4
-1.490, 3.300e-4
-1.489, 3.270e-4
-1.488, 3.239e-4
-1.487, 3.208e-4
-1.486, 3.146e-4
-1.485, 3.115e-4
-1.484, 3.054e-4
-1.483, 2.992e-4
-1.482, 2.961e-4
-1.481, 2.900e-4
-1.480, 2.869e-4
-1.479, 2.838e-4
-1.478, 2.838e-4
-1.477, 2.807e-4
-1.476, 2.746e-4
-1.475, 2.715e-4
-1.474, 2.653e-4
-1.473, 2.622e-4
-1.472, 2.561e-4
-1.471, 2.530e-4
-1.470, 2.499e-4
-1.469, 2.468e-4
-1.468, 2.468e-4
-1.467, 2.437e-4
-1.466, 2.376e-4
-1.465, 2.376e-4
-1.464, 2.314e-4
-1.463, 2.252e-4
-1.462, 2.221e-4
-1.461, 2.191e-4
-1.460, 2.160e-4
-1.459, 2.129e-4
-1.458, 2.129e-4
-1.457, 2.098e-4
-1.456, 2.067e-4
-1.455, 2.036e-4
-1.454, 1.975e-4
-1.453, 1.944e-4
-1.452, 1.913e-4
-1.451, 1.882e-4
-1.450, 1.851e-4
-1.449, 1.851e-4
-1.448, 1.821e-4
-1.447, 1.821e-4
-1.446, 1.759e-4
-1.445, 1.728e-4
-1.444, 1.697e-4
-1.443, 1.666e-4
-1.442, 1.605e-4
-1.441, 1.605e-4
-1.440, 1.543e-4
-1.439, 1.543e-4
-1.438, 1.543e-4
-1.437, 1.512e-4
-1.436, 1.481e-4
-1.435, 1.451e-4
-1.434, 1.420e-4
-1.433, 1.389e-4
-1.432, 1.327e-4
-1.431, 1.327e-4
-1.430, 1.296e-4
-1.429, 1.296e-4
-1.428, 1.266e-4
-1.427, 1.266e-4
-1.426, 1.235e-4
-1.425, 1.204e-4
-1.424, 1.173e-4
-1.423, 1.142e-4
-1.422, 1.081e-4
-1.421, 1.081e-4
-1.420, 1.050e-4
-1.419, 1.050e-4
-1.418, 1.050e-4
-1.417, 1.050e-4
-1.416, 9.882e-5
-1.415, 9.882e-5
-1.414, 9.573e-5
-1.413, 8.957e-5
-1.412, 8.648e-5
-1.411, 8.648e-5
-1.410, 8.340e-5
-1.409, 8.340e-5
-1.408, 8.340e-5
-1.407, 8.340e-5
-1.406, 7.723e-5
-1.405, 7.723e-5
-1.404, 7.415e-5
-1.403, 6.798e-5
-1.402, 6.490e-5
-1.401, 6.490e-5
-1.400, 6.182e-5
-1.399, 6.182e-5
-1.398, 6.182e-5
-1.397, 6.182e-5
-1.396, 5.873e-5
-1.395, 5.565e-5
-1.394, 5.257e-5
-1.393, 4.949e-5
-1.392, 4.640e-5
-1.391, 4.640e-5
-1.390, 4.332e-5
-1.389, 4.332e-5
-1.388, 4.332e-5
-1.387, 4.332e-5
-1.386, 4.024e-5
-1.385, 3.715e-5
-1.384, 3.407e-5
-1.383, 3.099e-5
-1.382, 2.790e-5
-1.381, 2.790e-5
-1.380, 2.482e-5
-1.379, 2.790e-5
-1.378, 2.482e-5
-1.377, 2.482e-5
-1.376, 2.482e-5
-1.375, 2.174e-5
-1.374, 1.557e-5
-1.373, 1.557e-5
-1.372, 1.249e-5
-1.371, 1.249e-5
-1.370, 9.405e-6
-1.369, 9.405e-6
-1.368, 9.405e-6
-1.367, 9.405e-6
-1.366, 6.322e-6
-1.365, 6.322e-6
-1.364, 1.559e-7
-1.363, 1.559e-7
-1.362, -2.927e-6
-1.361, -2.927e-6
-1.360, -6.010e-6
-1.359, -6.010e-6
-1.358, -6.010e-6
-1.357, -6.010e-6
-1.356, -6.010e-6
-1.355, -9.093e-6
-1.354, -1.218e-5
-1.353, -1.526e-5
-1.352, -1.834e-5
-1.351, -1.834e-5
-1.350, -1.834e-5
-1.349, -1.834e-5
-1.348, -1.834e-5
-1.347, -1.834e-5
-1.346, -2.143e-5
-1.345, -2.451e-5
-1.344, -2.451e-5
-1.343, -2.759e-5
-1.342, -3.068e-5
-1.341, -3.068e-5
-1.340, -3.068e-5
-1.339, -3.068e-5
-1.338, -3.068e-5
-1.337, -3.068e-5
-1.336, -3.376e-5
-1.335, -3.376e-5
-1.334, -3.684e-5
-1.333, -3.992e-5
-1.332, -4.301e-5
-1.331, -3.992e-5
-1.330, -4.301e-5
-1.329, -3.992e-5
-1.328, -3.992e-5
-1.327, -3.992e-5
-1.326, -4.301e-5
-1.325, -4.301e-5
-1.324, -4.609e-5
-1.323, -4.917e-5
-1.322, -4.917e-5
-1.321, -5.226e-5
-1.320, -5.226e-5
-1.319, -5.226e-5
-1.318, -5.226e-5
-1.317, -4.917e-5
-1.316, -5.226e-5
-1.315, -5.226e-5
-1.314, -5.534e-5
-1.313, -5.842e-5
-1.312, -6.151e-5
-1.311, -5.842e-5
-1.310, -6.151e-5
-1.309, -5.842e-5
-1.308, -5.842e-5
-1.307, -5.842e-5
-1.306, -6.151e-5
-1.305, -6.151e-5
-1.304, -6.459e-5
-1.303, -6.459e-5
-1.302, -6.767e-5
-1.301, -6.767e-5
-1.300, -7.076e-5
-1.299, -6.767e-5
-1.298, -6.767e-5
-1.297, -6.767e-5
-1.296, -6.767e-5
-1.295, -7.076e-5
-1.294, -7.076e-5
-1.293, -7.384e-5
-1.292, -7.692e-5
-1.291, -7.384e-5
-1.290, -7.384e-5
-1.289, -7.384e-5
-1.288, -7.384e-5
-1.287, -7.384e-5
-1.286, -7.692e-5
-1.285, -7.384e-5
-1.284, -7.692e-5
-1.283, -8.000e-5
-1.282, -8.000e-5
-1.281, -8.000e-5
-1.280, -8.309e-5
-1.279, -8.000e-5
-1.278, -8.000e-5
-1.277, -7.692e-5
-1.276, -8.000e-5
-1.275, -8.000e-5
-1.274, -8.309e-5
-1.273, -8.617e-5
-1.272, -8.617e-5
-1.271, -8.617e-5
-1.270, -8.617e-5
-1.269, -8.309e-5
-1.268, -8.309e-5
-1.267, -8.309e-5
-1.266, -8.617e-5
-1.265, -8.617e-5
-1.264, -8.925e-5
-1.263, -8.925e-5
-1.262, -8.925e-5
-1.261, -8.925e-5
-1.260, -9.234e-5
-1.259, -8.925e-5
-1.258, -8.925e-5
-1.257, -8.925e-5
-1.256, -8.925e-5
-1.255, -8.925e-5
-1.254, -9.234e-5
-1.253, -9.234e-5
-1.252, -9.542e-5
-1.251, -9.234e-5
-1.250, -9.542e-5
-1.249, -9.234e-5
-1.248, -9.234e-5
-1.247, -9.234e-5
-1.246, -9.234e-5
-1.245, -9.234e-5
-1.244, -9.542e-5
-1.243, -9.542e-5
-1.242, -9.850e-5
-1.241, -9.850e-5
-1.240, -9.850e-5
-1.239, -9.542e-5
-1.238, -9.542e-5
-1.237, -9.542e-5
-1.236, -9.542e-5
-1.235, -9.542e-5
-1.234, -9.850e-5
-1.233, -9.850e-5
-1.232, -1.016e-4
-1.231, -9.850e-5
-1.230, -1.016e-4
-1.229, -1.016e-4
-1.228, -9.850e-5
-1.227, -9.542e-5
-1.226, -9.850e-5
-1.225, -9.850e-5
-1.224, -1.016e-4
-1.223, -1.016e-4
-1.222, -1.047e-4
-1.221, -1.016e-4
-1.220, -1.047e-4
-1.219, -1.016e-4
-1.218, -1.016e-4
-1.217, -9.850e-5
-1.216, -1.016e-4
-1.215, -1.016e-4
-1.214, -1.047e-4
-1.213, -1.047e-4
-1.212, -1.047e-4
-1.211, -1.047e-4
-1.210, -1.047e-4
-1.209, -1.047e-4
-1.208, -1.016e-4
-1.207, -1.016e-4
-1.206, -1.016e-4
-1.205, -1.016e-4
-1.204, -1.047e-4
-1.203, -1.078e-4
-1.202, -1.078e-4
-1.201, -1.078e-4
-1.200, -1.078e-4
-1.199, -1.047e-4
-1.198, -1.047e-4
-1.197, -1.047e-4
-1.196, -1.047e-4
-1.195, -1.047e-4
-1.194, -1.078e-4
-1.193, -1.078e-4
-1.192, -1.108e-4
-1.191, -1.078e-4
-1.190, -1.078e-4
-1.189, -1.078e-4
-1.188, -1.047e-4
-1.187, -1.047e-4
-1.186, -1.078e-4
-1.185, -1.078e-4
-1.184, -1.108e-4
-1.183, -1.108e-4
-1.182, -1.108e-4
-1.181, -1.108e-4
-1.180, -1.108e-4
-1.179, -1.078e-4
-1.178, -1.078e-4
-1.177, -1.078e-4
-1.176, -1.078e-4
-1.175, -1.108e-4
-1.174, -1.108e-4
-1.173, -1.108e-4
-1.172, -1.139e-4
-1.171, -1.108e-4
-1.170, -1.139e-4
-1.169, -1.108e-4
-1.168, -1.108e-4
-1.167, -1.078e-4
-1.166, -1.108e-4
-1.165, -1.108e-4
-1.164, -1.139e-4
-1.163, -1.139e-4
-1.162, -1.139e-4
-1.161, -1.139e-4
-1.160, -1.170e-4
-1.159, -1.139e-4
-1.158, -1.139e-4
-1.157, -1.108e-4
-1.156, -1.139e-4
-1.155, -1.139e-4
-1.154, -1.170e-4
-1.153, -1.170e-4
-1.152, -1.201e-4
-1.151, -1.170e-4
-1.150, -1.170e-4
-1.149, -1.170e-4
-1.148, -1.139e-4
-1.147, -1.139e-4
-1.146, -1.139e-4
-1.145, -1.170e-4
-1.144, -1.170e-4
-1.143, -1.201e-4
-1.142, -1.201e-4
-1.141, -1.201e-4
-1.140, -1.201e-4
-1.139, -1.170e-4
-1.138, -1.170e-4
-1.137, -1.170e-4
-1.136, -1.170e-4
-1.135, -1.201e-4
-1.134, -1.232e-4
-1.133, -1.232e-4
-1.132, -1.232e-4
-1.131, -1.232e-4
-1.130, -1.232e-4
-1.129, -1.232e-4
-1.128, -1.201e-4
-1.127, -1.201e-4
-1.126, -1.232e-4
-1.125, -1.232e-4
-1.124, -1.263e-4
-1.123, -1.263e-4
-1.122, -1.263e-4
-1.121, -1.263e-4
-1.120, -1.263e-4
-1.119, -1.263e-4
-1.118, -1.263e-4
-1.117, -1.232e-4
-1.116, -1.263e-4
-1.115, -1.263e-4
-1.114, -1.293e-4
-1.113, -1.293e-4
-1.112, -1.324e-4
-1.111, -1.293e-4
-1.110, -1.324e-4
-1.109, -1.293e-4
-1.108, -1.293e-4
-1.107, -1.263e-4
-1.106, -1.293e-4
-1.105, -1.293e-4
-1.104, -1.324e-4
-1.103, -1.355e-4
-1.102, -1.355e-4
-1.101, -1.355e-4
-1.100, -1.355e-4
-1.099, -1.355e-4
-1.098, -1.355e-4
-1.097, -1.324e-4
-1.096, -1.324e-4
-1.095, -1.355e-4
-1.094, -1.386e-4
-1.093, -1.386e-4
-1.092, -1.417e-4
-1.091, -1.417e-4
-1.090, -1.386e-4
-1.089, -1.386e-4
-1.088, -1.386e-4
-1.087, -1.355e-4
-1.086, -1.386e-4
-1.085, -1.386e-4
-1.084, -1.417e-4
-1.083, -1.417e-4
-1.082, -1.448e-4
-1.081, -1.448e-4
-1.080, -1.448e-4
-1.079, -1.448e-4
-1.078, -1.417e-4
-1.077, -1.417e-4
-1.076, -1.417e-4
-1.075, -1.448e-4
-1.074, -1.478e-4
-1.073, -1.478e-4
-1.072, -1.509e-4
-1.071, -1.509e-4
-1.070, -1.509e-4
-1.069, -1.478e-4
-1.068, -1.478e-4
-1.067, -1.478e-4
-1.066, -1.478e-4
-1.065, -1.509e-4
-1.064, -1.540e-4
-1.063, -1.540e-4
-1.062, -1.571e-4
-1.061, -1.540e-4
-1.060, -1.571e-4
-1.059, -1.540e-4
-1.058, -1.540e-4
-1.057, -1.509e-4
-1.056, -1.540e-4
-1.055, -1.540e-4
-1.054, -1.571e-4
-1.053, -1.571e-4
-1.052, -1.602e-4
-1.051, -1.602e-4
-1.050, -1.602e-4
-1.049, -1.602e-4
-1.048, -1.571e-4
-1.047, -1.571e-4
-1.046, -1.602e-4
-1.045, -1.602e-4
-1.044, -1.632e-4
-1.043, -1.632e-4
-1.042, -1.663e-4
-1.041, -1.663e-4
-1.040, -1.663e-4
-1.039, -1.663e-4
-1.038, -1.632e-4
-1.037, -1.632e-4
-1.036, -1.632e-4
-1.035, -1.663e-4
-1.034, -1.663e-4
-1.033, -1.694e-4
-1.032, -1.725e-4
-1.031, -1.694e-4
-1.030, -1.725e-4
-1.029, -1.694e-4
-1.028, -1.694e-4
-1.027, -1.663e-4
-1.026, -1.694e-4
-1.025, -1.694e-4
-1.024, -1.725e-4
-1.023, -1.756e-4
-1.022, -1.756e-4
-1.021, -1.756e-4
-1.020, -1.756e-4
-1.019, -1.756e-4
-1.018, -1.725e-4
-1.017, -1.725e-4
-1.016, -1.756e-4
-1.015, -1.756e-4
-1.014, -1.787e-4
-1.013, -1.787e-4
-1.012, -1.817e-4
-1.011, -1.817e-4
-1.010, -1.817e-4
-1.009, -1.817e-4
-1.008, -1.787e-4
-1.007, -1.787e-4
-1.006, -1.787e-4
-1.005, -1.817e-4
-1.004, -1.817e-4
-1.003, -1.848e-4
-1.002, -1.879e-4
-1.001, -1.879e-4
