Potential V vs RHE, Current mA cm-2
0.013299999999999867,11.556776608597485
0.012299999999999978,9.986447065747294
0.011299999999999866,8.459973573192919
0.010299999999999976,6.889644030342729
0.009299999999999864,5.405611876784305
0.008299999999999974,3.8366970452339793
0.007299999999999862,2.2663675023837886
0.006299999999999972,0.6520404381077953
0.00529999999999986,-0.9181476336124089
0.0042999999999999705,-2.4884771764625997
0.0032999999999998586,-4.014950669016974
0.0022999999999999687,-5.5414241615713475
0.0012999999999998568,-7.024041603829907
0.00029999999999996696,-8.464217707092514
-0.000700000000000145,-9.85912304875944
-0.0017000000000000348,-11.211587051430415
-0.0027000000000001467,-12.56405105410139
-0.0037000000000000366,-13.916515056772363
-0.0047000000000001485,-15.264734925543747
-0.005700000000000038,-16.622857773414182
-0.00670000000000015,-17.966833508285966
-0.00770000000000004,-19.367397695152352
-0.008700000000000152,-20.76796188201874
-0.009700000000000042,-22.15437895588647
-0.010700000000000154,-23.597384481748815
-0.011700000000000044,-24.95550732961925
-0.012700000000000156,-26.29948306449103
-0.013700000000000045,-27.615164573365515
-0.014700000000000157,-28.91669896924135
-0.015700000000000047,-30.189939139119886
-0.01670000000000016,-31.49147353499572
-0.01770000000000005,-32.70812525287965
-0.01870000000000016,-34.02380676175414
-0.01970000000000005,-35.282899818634014
-0.020700000000000163,-36.5985813275085
-0.021700000000000053,-37.90011572338433
-0.022700000000000164,-39.258238571254765
-0.023700000000000054,-40.616361419125205
-0.024700000000000166,-42.00277849299294
-0.025700000000000056,-43.40334267985933
-0.026700000000000168,-44.80390686672572
-0.027700000000000058,-46.2327652795894
-0.02870000000000017,-47.54844678846388
-0.02970000000000006,-48.89242252333566
-0.03070000000000017,-50.1656626932142
-0.03170000000000006,-51.38231441109813
-0.03270000000000017,-52.514083450990164
-0.03370000000000006,-53.64585249088219
-0.034700000000000175,-54.73518019177827
-0.035700000000000065,-55.881096344668954
-0.03670000000000018,-56.97042404556503
-0.03770000000000007,-58.10219308545706
-0.03870000000000018,-59.27640346434504
-0.03970000000000007,-60.45061384323302
-0.04070000000000018,-61.6814126741156
-0.04170000000000007,-62.855623053003576
-0.04270000000000018,-64.02983343189156
-0.04370000000000007,-65.11916113278764
-0.044700000000000184,-66.16604749468777
-0.045700000000000074,-67.17049251759194
-0.046700000000000186,-68.17493754049613
-0.047700000000000076,-69.05205854641244
-0.04870000000000019,-70.05650356931662
-0.04970000000000008,-71.06094859222078
-0.05070000000000019,-72.05124650212633
-0.05170000000000008,-73.197162655017
-0.05270000000000019,-74.37137303390499
-0.05370000000000008,-75.5880247517889
-0.05470000000000019,-76.81882358267148
-0.05570000000000008,-78.07791663955136
-0.056700000000000195,-79.2945683574353
-0.057700000000000085,-80.52536718831789
-0.058700000000000196,-81.61469488921396
-0.059700000000000086,-82.746463929106
-0.0607000000000002,-83.83579163000208
-0.06170000000000009,-84.92511933089816
-0.0627000000000002,-86.05688837079018
-0.06370000000000009,-87.23109874967815
-0.0647000000000002,-88.5043389195567
-0.06570000000000009,-89.76343197643658
-0.0667000000000002,-91.07911348531105
-0.0677000000000001,-92.4655305591788
-0.0687000000000002,-93.82365340704924
-0.0697000000000001,-95.08274646392913
-0.07070000000000021,-96.35598663380765
-0.0717000000000001,-97.44531433470372
-0.07270000000000021,-98.49220069660386
-0.0737000000000001,-99.41176304151614
-0.07470000000000021,-100.31717827342976
-0.0757000000000001,-101.23674061834203
-0.07670000000000021,-102.07142028526239
-0.0777000000000001,-102.93439417818009
-0.07870000000000021,-103.81151518409638
-0.0797000000000001,-104.73107752900866
-0.08070000000000022,-105.5516100829304
-0.0817000000000001,-106.47117242784265
-0.08270000000000022,-107.39073477275493
-0.08370000000000011,-108.2537086656726
-0.08470000000000022,-109.17327101058488
-0.08570000000000011,-110.1352746944931
-0.08670000000000022,-111.01239570040943
-0.08770000000000011,-111.91781093232305
-0.08870000000000022,-112.87981461623129
-0.08970000000000011,-113.79937696114357
-0.09070000000000022,-114.71893930605583
-0.09170000000000011,-115.5819131989735
-0.09270000000000023,-116.45903420488982
-0.09370000000000012,-117.29371387181018
-0.09470000000000023,-118.07180508673595
-0.09570000000000012,-118.90648475365633
-0.09670000000000023,-119.72701730757805
-0.09770000000000012,-120.64657965249035
-0.09870000000000023,-121.52370065840667
-0.09970000000000012,-122.48570434231489
-0.10070000000000023,-123.532590704215
-0.10170000000000012,-124.57947706611512
-0.10270000000000024,-125.71124610600715
-0.10370000000000013,-126.75813246790726
-0.10470000000000024,-127.84746016880335
-0.10570000000000013,-128.85190519170752
-0.10670000000000024,-129.75732042362114
-0.10770000000000013,-130.59200009054155
-0.10870000000000024,-131.4266797574619
-0.10970000000000013,-132.24721231138363
-0.11070000000000024,-133.1667746562959
-0.11170000000000013,-134.12877834020412
-0.11270000000000002,-135.17566470210423
-0.11370000000000013,-136.26499240300032
-0.11470000000000002,-137.3543201038964
-0.11570000000000014,-138.52853048278442
-0.11670000000000003,-139.61785818368048
-0.11770000000000014,-140.62230320658463
-0.11870000000000003,-141.61260111649017
-0.11970000000000014,-142.4614278964092
-0.12070000000000003,-143.3102546763282
-0.12170000000000014,-144.01761032626072
-0.12270000000000003,-144.72496597619326
-0.12370000000000014,-145.57379275611228
-0.12470000000000003,-146.28114840604482
-0.12570000000000014,-147.1299751859638
-0.12670000000000003,-147.97880196588284
-0.12770000000000015,-148.96909987578834
-0.12870000000000004,-149.8179266557074
-0.12970000000000015,-150.66675343562642
-0.13070000000000004,-151.5155802155454
-0.13170000000000015,-152.22293586547795
-0.13270000000000004,-152.93029151541046
-0.13370000000000015,-153.63764716534297
-0.13470000000000004,-154.203531685289
-0.13570000000000015,-154.9108873352215
-0.13670000000000004,-155.47677185516753
-0.13770000000000016,-156.18412750510007
-0.13870000000000005,-157.03295428501906
-0.13970000000000016,-157.88178106493808
-0.14070000000000005,-158.87207897484362
-0.14170000000000016,-159.72090575476264
-0.14270000000000005,-160.71120366466818
-0.14370000000000016,-161.70150157457368
-0.14470000000000005,-162.5503283544927
-0.14570000000000016,-163.54062626439824
-0.14670000000000005,-164.38945304431726
-0.14770000000000016,-165.2382798242363
-0.14870000000000005,-165.94563547416882
-0.14970000000000017,-166.79446225408785
-0.15070000000000006,-167.50181790402033
-0.15170000000000017,-168.20917355395284
-0.15270000000000006,-168.77505807389886
-0.15370000000000017,-169.48241372383137
-0.15470000000000006,-170.18976937376394
-0.15570000000000017,-170.75565389370993
-0.15670000000000006,-171.32153841365593
-0.15770000000000017,-172.0288940635885
-0.15870000000000006,-172.73624971352098
-0.15970000000000018,-173.44360536345349
-0.16070000000000007,-174.2924321433725
-0.16170000000000018,-175.14125892329156
-0.16270000000000007,-176.13155683319707
-0.16370000000000018,-177.1218547431026
-0.16470000000000007,-178.1121526530081
-0.16570000000000018,-179.24392169290016
-0.16670000000000007,-180.37569073279218
-0.16770000000000018,-181.36598864269772
-0.16870000000000007,-182.49775768258974
-0.16970000000000018,-183.34658446250873
-0.17070000000000007,-184.19541124242778
-0.17170000000000019,-185.0442380223468
-0.17270000000000008,-186.03453593225234
-0.1737000000000002,-186.74189158218485
-0.17470000000000008,-187.44924723211736
-0.1757000000000002,-188.15660288204987
-0.17670000000000008,-188.72248740199586
-0.1777000000000002,-189.2883719219419
-0.17870000000000008,-189.8542564418879
-0.1797000000000002,-190.27866983184742
-0.18070000000000008,-190.70308322180696
-0.1817000000000002,-190.98602548177996
-0.18270000000000008,-191.41043887173947
-0.1837000000000002,-191.83485226169896
-0.1847000000000001,-192.2592656516585
-0.1857000000000002,-192.683679041618
-0.1867000000000001,-193.249563561564
-0.1877000000000002,-193.81544808151003
-0.1887000000000001,-194.52280373144254
-0.1897000000000002,-195.23015938137505
-0.1907000000000001,-195.93751503130758
-0.1917000000000001,-196.6448706812401
-0.19269999999999998,-197.49369746115914
-0.1937000000000001,-198.05958198110514
-0.19469999999999998,-198.76693763103765
-0.1957000000000001,-199.47429328097016
-0.19669999999999999,-200.18164893090267
-0.1977000000000001,-200.88900458083523
-0.1987,-201.59636023076774
-0.1997000000000001,-202.30371588070025
-0.2007,-203.01107153063276
-0.2017000000000001,-203.71842718056527
-0.2027,-204.42578283049778
-0.2037000000000001,-205.27460961041683
-0.2047,-205.98196526034934
-0.2057000000000001,-206.68932091028185
-0.2067,-207.5381476902009
-0.2077000000000001,-208.3869744701199
-0.2087,-209.0943301200524
-0.2097000000000001,-209.8016857699849
-0.2107,-210.36757028993094
-0.2117000000000001,-210.93345480987696
-0.2127,-211.35786819983647
-0.2137000000000001,-211.9237527197825
-0.2147,-212.631108369715
-0.2157000000000001,-213.47993514963403
-0.2167,-214.18729079956654
-0.21770000000000012,-215.17758870947208
-0.2187,-216.0264154893911
-0.21970000000000012,-217.01671339929663
-0.2207,-217.86554017921566
-0.22170000000000012,-218.71436695913465
-0.2227,-219.5631937390537
-0.22370000000000012,-220.2705493889862
-0.2247,-220.97790503891872
-0.22570000000000012,-221.68526068885126
-0.2267,-222.25114520879725
-0.22770000000000012,-222.9585008587298
-0.22870000000000001,-223.52438537867582
-0.22970000000000013,-224.2317410286083
-0.23070000000000002,-224.93909667854084
-0.23170000000000013,-225.50498119848683
-0.23270000000000002,-226.07086571843288
-0.23370000000000013,-226.49527910839237
-0.23470000000000002,-226.91969249835188
-0.23570000000000013,-227.4855770182979
-0.23670000000000002,-227.7685192782709
-0.2376999999999999,-228.33440379821695
-0.23870000000000002,-228.90028831816295
-0.2396999999999999,-229.32470170812243
-0.24070000000000003,-229.89058622806846
-0.24169999999999991,-230.45647074801445
-0.24270000000000003,-231.0223552679605
-0.24369999999999992,-231.5882397879065
-0.24470000000000003,-232.15412430785253
-0.24569999999999992,-232.72000882779852
-0.24670000000000003,-233.28589334774458
-0.24769999999999992,-233.99324899767706
-0.24870000000000003,-234.7006046476096
-0.24969999999999992,-235.40796029754208
-0.25070000000000003,-236.25678707746113
-0.2516999999999999,-236.96414272739366
-0.25270000000000004,-237.81296950731266
-0.2536999999999999,-238.5203251572452
-0.25470000000000004,-239.2276808071777
-0.2556999999999999,-240.0765075870967
-0.25670000000000004,-240.64239210704275
-0.25769999999999993,-241.34974775697523
-0.25870000000000004,-241.9156322769213
-0.25969999999999993,-242.62298792685377
-0.26070000000000004,-243.18887244679982
-0.26169999999999993,-243.8962280967323
-0.26270000000000004,-244.74505487665132
-0.26369999999999993,-245.45241052658386
-0.26470000000000005,-246.30123730650286
-0.26569999999999994,-247.0085929564354
-0.26670000000000005,-247.71594860636796
-0.26769999999999994,-248.28183312631393
-0.26870000000000005,-248.84771764625998
-0.26969999999999994,-249.41360216620598
-0.27070000000000005,-249.69654442617897
-0.27169999999999994,-250.1209578161385
-0.27270000000000005,-250.4039000761115
-0.27369999999999994,-250.828313466071
-0.27470000000000006,-251.25272685603056
-0.27569999999999995,-251.67714024599002
-0.27670000000000006,-252.10155363594956
-0.27769999999999995,-252.66743815589555
-0.27870000000000006,-253.23332267584152
-0.27969999999999995,-253.65773606580112
-0.28070000000000006,-254.2236205857471
-0.28169999999999995,-254.50656284572008
-0.28270000000000006,-254.93097623567962
-0.28369999999999995,-255.35538962563913
-0.28470000000000006,-255.63833188561213
-0.28569999999999995,-255.92127414558513
-0.28670000000000007,-256.34568753554464
-0.28769999999999996,-256.62862979551767
-0.28870000000000007,-257.0530431854772
-0.28969999999999996,-257.4774565754367
-0.29070000000000007,-257.90186996539614
-0.29169999999999996,-258.32628335535566
-0.29270000000000007,-258.7506967453152
-0.29369999999999996,-259.0336390052882
-0.2947000000000001,-259.4580523952477
-0.29569999999999996,-260.02393691519376
-0.2967000000000001,-260.4483503051532
-0.29769999999999996,-261.01423482509927
-0.2987000000000001,-261.4386482150588
-0.29969999999999997,-261.8630616050183
-0.3007000000000001,-262.42894612496434
-0.30169999999999997,-262.8533595149238
-0.3027000000000001,-263.27777290488336
-0.30369999999999997,-263.7021862948428
-0.3047000000000001,-264.2680708147888
-0.30569999999999997,-264.83395533473487
-0.3067000000000001,-265.39983985468086
-0.3077,-266.1071955046134
-0.3087000000000001,-266.8145511545459
-0.3097,-267.38043567449193
-0.3107000000000001,-268.0877913244245
-0.3117,-268.65367584437047
-0.3127000000000001,-269.361031494303
-0.3137,-269.926916014249
-0.3147000000000001,-270.49280053419506
-0.3157,-271.05868505414105
-0.3167000000000001,-271.4830984441005
-0.3177,-271.9075118340601
-0.3187000000000001,-272.47339635400607
-0.3197,-273.03928087395207
-0.3207000000000001,-273.4636942639116
-0.3217,-274.0295787838576
-0.3227000000000001,-274.5954633038036
-0.3237,-275.1613478237496
-0.3247000000000001,-275.7272323436957
-0.3257,-276.43458799362816
-0.3267000000000001,-277.0004725135742
-0.3277,-277.56635703352015
-0.3287000000000001,-278.1322415534662
-0.3297,-278.6981260734122
-0.3307000000000001,-279.1225394633717
-0.3317,-279.5469528533313
-0.3327000000000001,-279.82989511330425
-0.3337,-280.11283737327733
-0.3347000000000001,-280.3957796332503
-0.3357,-280.5372507632368
-0.3367000000000001,-280.67872189322327
-0.3377,-280.82019302320975
-0.3387000000000001,-280.82019302320975
-0.3397,-280.9616641531963
-0.3407000000000001,-281.1031352831828
-0.3417,-281.52754867314235
-0.3427000000000001,-282.09343319308834
-0.3437,-282.65931771303434
-0.3447000000000001,-283.22520223298034
-0.3457,-283.9325578829129
-0.3467000000000001,-284.49844240285887
-0.3477,-285.0643269228049
-0.3487000000000001,-285.3472691827779
-0.3497,-285.6302114427509
-0.3507000000000001,-285.7716825727374
-0.3517,-285.9131537027239
-0.3527000000000001,-286.196095962697
-0.3537,-286.47903822266994
-0.3547000000000001,-286.9034516126294
-0.3557,-287.46933613257545
-0.35670000000000013,-288.176691782508
-0.3577,-288.742576302454
-0.35870000000000013,-289.4499319523865
-0.3597,-290.0158164723325
-0.36070000000000013,-290.29875873230554
-0.3617,-290.5817009922785
-0.3626999999999999,-290.86464325225154
-0.3637,-291.14758551222457
-0.3646999999999999,-291.571998902184
-0.3657,-292.1378834221301
-0.3666999999999999,-292.70376794207607
-0.3677,-293.4111235920086
-0.3686999999999999,-294.2599503719276
-0.36970000000000003,-294.96730602186017
-0.3706999999999999,-295.67466167179265
-0.37170000000000003,-296.2405461917387
-0.3726999999999999,-296.6649595816982
-0.37370000000000003,-296.94790184167124
-0.3746999999999999,-297.23084410164427
-0.37570000000000003,-297.3723152316307
-0.3766999999999999,-297.6552574916037
-0.37770000000000004,-297.9381997515767
-0.3786999999999999,-298.3626131415362
-0.37970000000000004,-298.78702653149577
-0.3806999999999999,-299.2114399214552
-0.38170000000000004,-299.7773244414013
-0.38269999999999993,-300.48468009133376
-0.38370000000000004,-300.9090934812933
-0.38469999999999993,-301.47497800123926
-0.38570000000000004,-301.7579202612123
-0.38669999999999993,-300.76762235130684
-0.38570000000000004,-297.6552574916037
-0.38469999999999993,-294.4014215019141
-0.38370000000000004,-291.28905664221105
-0.38269999999999993,-288.176691782508
-0.38170000000000004,-285.2057980527914
-0.3806999999999999,-282.2349043230748
-0.37970000000000004,-279.26401059335825
-0.3786999999999999,-276.43458799362816
-0.37770000000000004,-273.60516539389806
-0.3766999999999999,-270.775742794168
-0.37570000000000003,-268.0877913244245
-0.3746999999999999,-265.39983985468086
-0.37370000000000003,-262.7118883849373
-0.3726999999999999,-260.3068791751668
-0.37170000000000003,-257.90186996539614
-0.3706999999999999,-255.49686075562562
-0.36970000000000003,-253.23332267584152
-0.3686999999999999,-250.9697845960575
-0.3677,-248.84771764625998
-0.3666999999999999,-246.7256506964624
-0.3657,-244.60358374666484
-0.3646999999999999,-242.48151679686728
-0.3637,-240.35944984706975
-0.3626999999999999,-238.37885402725868
-0.3617,-236.25678707746113
-0.36070000000000013,-234.27619125765005
-0.3597,-232.15412430785253
-0.35870000000000013,-230.17352848804146
-0.3577,-228.0514615382439
-0.35670000000000013,-225.92939458844637
-0.3557,-223.6658565086623
-0.3547000000000001,-221.26084729889175
-0.3537,-218.85583808912116
-0.3527000000000001,-216.4508288793506
-0.3517,-213.90434853959354
-0.3507000000000001,-211.35786819983647
-0.3497,-209.0943301200524
-0.3487000000000001,-206.68932091028185
-0.3477,-204.5672539604843
-0.3467000000000001,-202.44518701068677
-0.3457,-200.3231200608892
-0.3447000000000001,-198.20105311109162
-0.3437,-196.0789861612941
-0.3427000000000001,-193.9569192114965
-0.3417,-191.83485226169896
-0.3407000000000001,-189.57131418191491
-0.3397,-187.30777610213087
-0.3387000000000001,-185.0442380223468
-0.3377,-182.63922881257625
-0.3367000000000001,-180.37569073279218
-0.3357,-178.1121526530081
-0.3347000000000001,-175.84861457322407
-0.3337,-173.72654762342648
-0.3327000000000001,-171.60448067362896
-0.3317,-169.48241372383137
-0.3307000000000001,-167.50181790402033
-0.3297,-165.3797509542228
-0.3287000000000001,-163.39915513441173
-0.3277,-161.5600304445872
-0.3267000000000001,-159.72090575476264
-0.3257,-157.88178106493808
-0.3247000000000001,-156.04265637511355
-0.3237,-154.203531685289
-0.3227000000000001,-152.36440699546444
-0.3217,-150.5252823056399
-0.3207000000000001,-148.68615761581535
-0.3197,-146.8470329259908
-0.3187000000000001,-145.00790823616626
-0.3177,-143.16878354634173
-0.3167000000000001,-141.456982873505
-0.3157,-139.74518220066832
-0.3147000000000001,-138.08996997982624
-0.3137,-136.47719909798008
-0.3127000000000001,-134.9068695551299
-0.3117,-133.20921599529186
-0.3107000000000001,-131.55400377444977
-0.3097,-129.89879155360765
-0.3087000000000001,-128.2294322197669
-0.3077,-126.5317786599289
-0.3067000000000001,-124.83412510009084
-0.30569999999999997,-123.09403020125686
-0.3047000000000001,-121.33978818942418
-0.30369999999999997,-119.64213462958614
-0.3027000000000001,-117.94448106974811
-0.30169999999999997,-116.24682750991008
-0.3007000000000001,-114.63405662806393
-0.29969999999999997,-113.00713863321914
-0.2987000000000001,-111.35192641237703
-0.29769999999999996,-109.78159686952685
-0.2967000000000001,-108.12638464868475
-0.29569999999999996,-106.51361376683862
-0.2947000000000001,-104.81596020700057
-0.29369999999999996,-103.16074798615847
-0.29270000000000007,-101.40650597432582
-0.29169999999999996,-99.66641107549184
-0.29070000000000007,-97.96875751565379
-0.28969999999999996,-96.21451550382113
-0.28870000000000007,-94.47442060498715
-0.28769999999999996,-92.81920838414506
-0.28670000000000007,-91.16399616330297
-0.28569999999999995,-89.63610795944872
-0.28470000000000006,-88.10821975559449
-0.28369999999999995,-86.6227728907362
-0.28270000000000006,-85.23635581686847
-0.28169999999999995,-83.79335029100612
-0.28070000000000006,-82.39278610413973
-0.27969999999999995,-80.90733923928146
-0.27870000000000006,-79.42189237442317
-0.27769999999999995,-77.95059262256353
-0.27670000000000006,-76.38026307971333
-0.27569999999999995,-74.80993353686314
-0.27470000000000006,-73.2820453330089
-0.27369999999999994,-71.7117157901587
-0.27270000000000005,-70.18382758630447
-0.27169999999999994,-68.69838072144618
-0.27070000000000005,-67.25537519558385
-0.26969999999999994,-65.86895812171612
-0.26870000000000005,-64.46839393484973
-0.26769999999999994,-63.15271242597524
