Potential V vs RHE, Current mA cm-2
0.013299999999999867,13.14266797574619
0.012299999999999978,11.456332106307068
0.011299999999999866,9.796875751565379
0.010299999999999976,8.44299703759454
0.009299999999999864,6.835885000947857
0.008299999999999974,5.640453952561901
0.007299999999999862,4.303551774189442
0.006299999999999972,2.9510877715184667
0.00529999999999986,1.8759071836210386
0.0042999999999999705,0.5083057700415077
0.0032999999999998586,-0.5092960679514131
0.0022999999999999687,-1.6820917355395286
0.0012999999999998568,-2.8506432692280486
0.00029999999999996696,-3.7631320576409975
-0.000700000000000145,-4.968466085126009
-0.0017000000000000348,-5.807389885945976
-0.0027000000000001467,-6.852861536546238
-0.0037000000000000366,-7.919553856644475
-0.0047000000000001485,-8.68774209247119
-0.005700000000000038,-9.741702010870643
-0.00670000000000015,-10.463204773801811
-0.00770000000000004,-11.360131737916245
-0.008700000000000152,-12.295255907127034
-0.009700000000000042,-13.008270402259011
-0.010700000000000154,-13.947638705369396
-0.011700000000000044,-14.401761032626075
-0.012700000000000156,-15.179852247551842
-0.013700000000000045,-16.269179948447924
-0.014700000000000157,-16.93409425938449
-0.015700000000000047,-17.76877392630486
-0.01670000000000016,-18.263922881257624
-0.01770000000000005,-19.027866983184744
-0.01870000000000016,-19.763516859114564
-0.01970000000000005,-20.21622447507137
-0.020700000000000163,-21.036757028993097
-0.021700000000000053,-21.61678866193776
-0.022700000000000164,-22.210967407881075
-0.023700000000000054,-22.706116362833843
-0.024700000000000166,-23.088088413797397
-0.025700000000000056,-23.951062306715073
-0.026700000000000168,-24.559388165657033
-0.027700000000000058,-25.054537120609798
-0.02870000000000017,-25.478950510569312
-0.02970000000000006,-25.846775448534224
-0.03070000000000017,-26.723896454450543
-0.03170000000000006,-26.97854448842625
-0.03270000000000017,-27.572723234369565
-0.03370000000000006,-28.166901980312883
-0.034700000000000175,-28.32252022329803
-0.035700000000000065,-28.91669896924135
-0.03670000000000018,-29.482583489187363
-0.03770000000000007,-29.935291105144174
-0.03870000000000018,-30.274821817111786
-0.03970000000000007,-30.487028512091538
-0.04070000000000018,-31.151942823028104
-0.04170000000000007,-31.519767760993016
-0.04270000000000018,-31.873445585959274
-0.04370000000000007,-32.368594540912035
-0.044700000000000184,-32.67983102688235
-0.045700000000000074,-33.245715546828364
-0.046700000000000186,-33.38718667681487
-0.047700000000000076,-33.712570275783825
-0.04870000000000019,-34.292601908728486
-0.04970000000000008,-34.462367264712285
-0.05070000000000019,-34.773603750682604
-0.05170000000000008,-35.08484023665291
-0.05270000000000019,-35.46681228761647
-0.05370000000000008,-35.735607434590825
-0.05470000000000019,-35.89122567757598
-0.05570000000000008,-36.230756389543586
-0.056700000000000195,-36.21660927654494
-0.057700000000000085,-36.5985813275085
-0.058700000000000196,-37.122024508458566
-0.059700000000000086,-37.36252542943562
-0.0607000000000002,-37.85767438438838
-0.06170000000000009,-37.94255706238028
-0.0627000000000002,-38.35282333934114
-0.06370000000000009,-38.593324260318205
-0.0647000000000002,-38.5367358083236
-0.06570000000000009,-39.159208780264215
-0.0667000000000002,-39.54118083122778
-0.0677000000000001,-39.739240413208876
-0.0687000000000002,-39.56947505722508
-0.0697000000000001,-39.58362217022373
-0.07070000000000021,-40.05047689917919
-0.0717000000000001,-40.07877112517649
-0.07270000000000021,-40.36171338514949
-0.0737000000000001,-40.729538323114404
-0.07470000000000021,-40.814421001106304
-0.0757000000000001,-41.139804600075266
-0.07670000000000021,-41.097363261079316
-0.0777000000000001,-41.38030552105233
-0.07870000000000021,-41.81886602401048
-0.0797000000000001,-42.073514057986195
-0.08070000000000022,-42.37060343095784
-0.0817000000000001,-42.229132300971344
-0.08270000000000022,-42.37060343095784
-0.08370000000000011,-42.6111043519349
-0.08470000000000022,-42.752575481921404
-0.08570000000000011,-43.02137062889577
-0.08670000000000022,-42.99307640289846
-0.08770000000000011,-43.43163690585662
-0.08870000000000022,-43.629696487837734
-0.08970000000000011,-43.544813809845834
-0.09070000000000022,-43.71457916582963
-0.09170000000000011,-43.643843600836384
-0.09270000000000023,-44.153139668787794
-0.09370000000000012,-44.36534636376755
-0.09470000000000023,-43.94093297380804
-0.09570000000000012,-44.16728678178645
-0.09670000000000023,-44.506817493754056
-0.09770000000000012,-44.78975975372706
-0.09870000000000023,-44.81805397972436
-0.09970000000000012,-44.98781933570817
-0.10070000000000023,-45.39808561266902
-0.10170000000000012,-45.34149716067443
-0.10270000000000024,-45.157584691691966
-0.10370000000000013,-45.34149716067443
-0.10470000000000024,-45.83664611562718
-0.10570000000000013,-46.43082486157051
-0.10670000000000024,-46.119588375600195
-0.10770000000000013,-45.90738168062044
-0.10870000000000024,-46.077147036604245
-0.10970000000000013,-46.119588375600195
-0.11070000000000024,-46.289353731584
-0.11170000000000013,-46.119588375600195
-0.11270000000000002,-46.44497197456916
-0.11370000000000013,-46.86938536452866
-0.11470000000000002,-46.982562268517874
-0.11570000000000014,-47.067444946509774
-0.11670000000000003,-46.47326620056646
-0.11770000000000014,-46.529854652561056
-0.11870000000000003,-47.19476896349763
-0.11970000000000014,-47.36453431948143
-0.12070000000000003,-47.421122771476035
-0.12170000000000014,-47.27965164148953
-0.12270000000000003,-47.435269884474685
-0.12370000000000014,-47.73235925744634
-0.12470000000000003,-47.93041883942744
-0.12570000000000014,-47.83138904843689
-0.12670000000000003,-47.506005449467935
-0.12770000000000015,-47.80309482243959
-0.12870000000000004,-48.1709197604045
-0.12970000000000015,-48.63777448935996
-0.13070000000000004,-48.86412829733837
-0.13170000000000015,-48.312390890391
-0.13270000000000004,-48.38312645538425
-0.13370000000000015,-48.83583407134107
-0.13470000000000004,-48.94901097533027
-0.13570000000000015,-49.104629218315424
-0.13670000000000004,-48.75095139334916
-0.13770000000000016,-48.97730520132757
-0.13870000000000005,-49.18951189630732
-0.13970000000000016,-49.24610034830193
-0.14070000000000005,-49.571483947270885
-0.14170000000000016,-49.50074838227763
-0.14270000000000005,-49.84027909424525
-0.14370000000000016,-50.010044450229046
-0.14470000000000005,-49.68466085126009
-0.14570000000000016,-49.939308885235796
-0.14670000000000005,-50.094927128220945
-0.14770000000000016,-50.179809806212845
-0.14870000000000005,-50.024191563227696
-0.14970000000000017,-50.038338676226346
-0.15070000000000006,-50.71740010016157
-0.15170000000000017,-50.71740010016157
-0.15270000000000006,-50.57592897017506
-0.15370000000000017,-50.943753908139975
-0.15470000000000006,-50.957901021138625
-0.15570000000000017,-51.09937215112513
-0.15670000000000006,-51.014489473133224
-0.15770000000000017,-50.87301834314672
-0.15870000000000006,-51.325725959103536
-0.15970000000000018,-51.8491691400536
-0.16070000000000007,-52.061375835033346
-0.16170000000000018,-51.77843357506035
-0.16270000000000007,-51.8774633660509
-0.16370000000000018,-51.665256671071134
-0.16470000000000007,-51.52378554108463
-0.16570000000000018,-52.33017098200771
-0.16670000000000007,-52.57067190298476
-0.16770000000000018,-52.528230563988814
-0.16870000000000007,-52.514083450990164
-0.16970000000000018,-53.37705734390783
-0.17070000000000007,-53.70244094287679
-0.17170000000000019,-52.980938179945625
-0.17270000000000008,-53.03752663194023
-0.1737000000000002,-53.603411151886235
-0.17470000000000008,-53.75902939487139
-0.1757000000000002,-53.872206298860604
-0.17670000000000008,-53.75902939487139
-0.1777000000000002,-54.070265880841696
-0.17870000000000008,-54.2966196888201
-0.1797000000000002,-54.24003123682551
-0.18070000000000008,-54.52297349679851
-0.1817000000000002,-54.80591575677152
-0.18270000000000008,-54.961533999756675
-0.1837000000000002,-54.890798434763425
-0.1847000000000001,-55.20203492073373
-0.1857000000000002,-55.82450789267435
-0.1867000000000001,-55.371800276717536
-0.1877000000000002,-55.34350605072023
-0.1887000000000001,-55.56985985869864
-0.1897000000000002,-55.980126135659496
-0.1907000000000001,-56.46112797761361
-0.1917000000000001,-56.24892128263386
-0.19269999999999998,-56.29136262162981
-0.1937000000000001,-56.67333467259337
-0.19469999999999998,-56.57430488160282
-0.1957000000000001,-56.998718271562325
-0.19669999999999999,-56.857247141575826
-0.1977000000000001,-57.22507207954074
-0.1987,-57.564602791508335
-0.1997000000000001,-57.423131661521836
-0.2007,-57.87583927747865
-0.2017000000000001,-58.34269400643411
-0.2027,-58.61148915340847
-0.2037000000000001,-58.73881317039633
-0.2047,-58.90857852638013
-0.2057000000000001,-59.36128614233694
-0.2067,-59.26225635134639
-0.2077000000000001,-59.4886101593248
-0.2087,-59.68666974130589
-0.2097000000000001,-59.92717066228296
-0.2107,-60.26670137425056
-0.2117000000000001,-59.94131777528161
-0.2127,-59.85643509728971
-0.2137000000000001,-60.56379074722222
-0.2147,-61.412617527141244
-0.2157000000000001,-61.695559787114256
-0.2167,-61.228705058158795
-0.21770000000000012,-61.07308681517363
-0.2187,-61.20041083216149
-0.21970000000000012,-61.865325143098055
-0.2207,-62.51609234103597
-0.22170000000000012,-62.26144430706027
-0.2227,-62.26144430706027
-0.22370000000000012,-62.81318171400764
-0.2247,-63.23759510396713
-0.22570000000000012,-63.56297870293609
-0.2267,-63.40736045995095
-0.22770000000000012,-63.6761556069253
-0.22870000000000001,-63.973244979896954
-0.22970000000000013,-64.0722747708875
-0.23070000000000002,-64.39765836985646
-0.23170000000000013,-64.24204012687132
-0.23270000000000002,-64.38351125685783
-0.23370000000000013,-64.70889485582677
-0.23470000000000002,-65.09086690679034
-0.23570000000000013,-65.45869184475525
-0.23670000000000002,-65.84066389571882
-0.2376999999999999,-66.61875511064459
-0.23870000000000002,-66.85925603162164
-0.2396999999999999,-67.14219829159464
-0.24070000000000003,-67.84955394152715
-0.24169999999999991,-68.58520381745697
-0.24270000000000003,-68.82570473843404
-0.24369999999999992,-68.69838072144618
-0.24470000000000003,-68.71252783444483
-0.24569999999999992,-68.07590774950557
-0.24670000000000003,-68.13249620150016
-0.24769999999999992,-69.6603844053544
-0.24870000000000003,-70.26871026429637
-0.24969999999999992,-70.12723913430986
-0.25070000000000003,-70.25456315129772
-0.2516999999999999,-70.91947746223428
-0.25270000000000004,-72.06539361512496
-0.2536999999999999,-72.10783495412092
-0.25470000000000004,-71.8814811461425
-0.2556999999999999,-72.50395411808313
-0.25670000000000004,-72.39077721409393
-0.25769999999999993,-72.6878665870656
-0.25870000000000004,-73.21130976801565
-0.25969999999999993,-73.32448667200485
-0.26070000000000004,-74.03184232193736
-0.26169999999999993,-74.52699127689014
-0.26270000000000004,-75.20605270082535
-0.26369999999999993,-75.30508249181591
-0.26470000000000005,-75.46070073480107
-0.26569999999999994,-76.30952751472009
-0.26670000000000005,-76.57832266169444
-0.26769999999999994,-76.52173420969983
-0.26870000000000005,-76.80467646967284
-0.26969999999999994,-77.54032634560265
-0.27070000000000005,-78.58721270750279
-0.27169999999999994,-78.44574157751629
-0.27270000000000005,-78.8135665154812
-0.27369999999999994,-79.40774526142451
-0.27470000000000006,-80.05851245936242
-0.27569999999999995,-80.36974894533273
-0.27670000000000006,-80.27071915434219
-0.27769999999999995,-81.13369304725985
-0.27870000000000006,-82.15228518316268
-0.27969999999999995,-82.70402259011003
-0.28070000000000006,-83.11428886707091
-0.28169999999999995,-83.36893690104661
-0.28270000000000006,-84.38752903694943
-0.28369999999999995,-85.06659046088465
-0.28470000000000006,-85.06659046088465
-0.28569999999999995,-85.57588652883607
-0.28670000000000007,-86.15591816178073
-0.28769999999999996,-86.59447866473889
-0.28870000000000007,-87.03303916769705
-0.28969999999999996,-87.49989389665252
-0.29070000000000007,-88.06577841659853
-0.29169999999999996,-88.95704653551351
-0.29270000000000007,-89.12681189149731
-0.29369999999999996,-89.23998879548651
-0.2947000000000001,-90.71128854734616
-0.29569999999999996,-91.27717306729218
-0.2967000000000001,-91.20643750229891
-0.29769999999999996,-92.14014696020983
-0.2987000000000001,-93.04556219212347
-0.29969999999999997,-93.97927165003438
-0.3007000000000001,-93.71047650306002
-0.30169999999999997,-94.55930328297906
-0.3027000000000001,-95.33739449790482
-0.30369999999999997,-96.73795868477121
-0.3047000000000001,-96.86528270175907
-0.30569999999999997,-96.38428085980493
-0.3067000000000001,-97.62922680368618
-0.3077,-98.86002563456876
-0.3087000000000001,-99.46835149351072
-0.3097,-99.38346881551882
-0.3107000000000001,-99.72299952748644
-0.3117,-99.99179467446079
-0.3127000000000001,-101.15185794035013
-0.3137,-102.82121727419087
-0.3147000000000001,-103.54272003712204
-0.3157,-102.73633459619896
-0.3167000000000001,-102.25533275424485
-0.3177,-103.91054497508695
-0.3187000000000001,-105.69308121291688
-0.3197,-106.30140707185885
-0.3207000000000001,-106.24481861986426
-0.3217,-106.21652439386696
-0.3227000000000001,-107.6029414677347
-0.3237,-108.52250381264696
-0.3247000000000001,-108.52250381264696
-0.3257,-109.35718347956733
-0.3267000000000001,-109.99380356450659
-0.3277,-110.80018900542967
-0.3287000000000001,-111.11142549139997
-0.3297,-111.54998599435814
-0.3307000000000001,-112.63931369525422
-0.3317,-113.07787419821238
-0.3327000000000001,-113.72864139615028
-0.3337,-114.33696725509228
-0.3347000000000001,-115.3555593909951
-0.3357,-116.40244575289522
-0.3367000000000001,-116.78441780385879
-0.3377,-117.53421479278724
-0.3387000000000001,-117.71812726176971
-0.3397,-118.58110115468739
-0.3407000000000001,-119.5431048385956
-0.3417,-120.00995956755105
-0.3427000000000001,-120.78805078247684
-0.3437,-121.29734685042824
-0.3447000000000001,-121.58028911040124
-0.3457,-122.86767639327843
-0.3467000000000001,-123.70235606019881
-0.3477,-124.38141748413402
-0.3487000000000001,-124.15506367615562
-0.3497,-124.63606551810975
-0.3507000000000001,-126.20639506095993
-0.3517,-126.20639506095993
-0.3527000000000001,-126.88545648489513
-0.3537,-128.72458117471967
-0.3547000000000001,-129.47437816364814
-0.3557,-129.7148790846252
-0.35670000000000013,-130.63444142953747
-0.3577,-132.1481825203931
-0.35870000000000013,-132.67162570134315
-0.3597,-133.29409867328377
-0.36070000000000013,-134.24195524419332
-0.3617,-134.29854369618792
-0.3626999999999999,-134.83613399013663
-0.3637,-135.82643190004217
-0.3646999999999999,-136.7884355839504
-0.3657,-137.19870186091126
-0.3666999999999999,-137.15626052191533
-0.3677,-138.45779491779115
-0.3686999999999999,-140.04227157363997
-0.36970000000000003,-140.93353969255494
-0.3706999999999999,-141.27307040452254
-0.37170000000000003,-141.75407224647665
-0.3726999999999999,-143.5931969363012
-0.37370000000000003,-144.44202371622026
-0.3746999999999999,-144.72496597619326
-0.37570000000000003,-146.28114840604482
-0.3766999999999999,-147.6958597059098
-0.37770000000000004,-148.82762874580186
-0.3786999999999999,-149.39351326574788
-0.37970000000000004,-150.5252823056399
-0.3806999999999999,-152.22293586547795
-0.38170000000000004,-151.65705134553193
-0.38269999999999993,-151.65705134553193
-0.38370000000000004,-152.36440699546444
-0.38469999999999993,-154.486473945262
-0.38570000000000004,-155.75971411514055
-0.38669999999999993,-155.19382959519453
-0.38570000000000004,-153.77911829532948
-0.38469999999999993,-149.6764555257209
-0.38370000000000004,-147.27144631595033
-0.38269999999999993,-146.28114840604482
-0.38170000000000004,-145.29085049613926
-0.3806999999999999,-144.15908145624724
-0.37970000000000004,-142.17848563643616
-0.3786999999999999,-140.36765517260895
-0.37770000000000004,-139.27832747171286
-0.3766999999999999,-138.33047090080328
-0.37570000000000003,-137.14211340891666
-0.3746999999999999,-135.37372428408534
-0.37370000000000003,-133.81754185423384
-0.3726999999999999,-132.33209498937555
-0.37170000000000003,-130.69102988153207
-0.3706999999999999,-129.3753483726576
-0.36970000000000003,-127.6918419258182
-0.3686999999999999,-126.70154401591269
-0.3677,-125.24439137705171
-0.3666999999999999,-122.79694082828519
-0.3657,-121.86323137037427
-0.3646999999999999,-121.0851401554485
-0.3637,-119.30260391761853
-0.3626999999999999,-118.14254065172923
-0.3617,-116.19023905791546
-0.36070000000000013,-114.71893930605583
-0.3597,-113.64375871815841
-0.35870000000000013,-112.37051854827988
-0.3577,-110.80018900542967
-0.35670000000000013,-108.79129895962132
-0.3557,-108.2537086656726
-0.3547000000000001,-107.19267519077383
-0.3537,-105.5799043089277
-0.3527000000000001,-104.26422280005319
-0.3517,-102.73633459619896
-0.3507000000000001,-101.29332907033663
-0.3497,-100.11911869144865
-0.3487000000000001,-98.94490831256067
-0.3477,-97.55849123869294
-0.3467000000000001,-95.775955000863
-0.3457,-94.64418596097094
-0.3447000000000001,-93.85194763304654
-0.3437,-92.83335549714371
-0.3427000000000001,-91.92794026523009
-0.3417,-90.73958277334346
-0.3407000000000001,-89.94734444541903
-0.3397,-88.47604469355939
-0.3387000000000001,-87.08962761969167
-0.3377,-85.78809322381582
-0.3367000000000001,-84.30264635895755
-0.3357,-83.35478978804795
-0.3347000000000001,-82.53425723412623
-0.3337,-81.30345840324367
-0.3327000000000001,-80.34145471933543
-0.3317,-78.8135665154812
-0.3307000000000001,-78.03547530055542
-0.3297,-76.960294712658
-0.3287000000000001,-75.220199813824
-0.3277,-74.65431529387797
-0.3267000000000001,-73.5649875929819
-0.3257,-72.16442340611552
-0.3247000000000001,-71.42877353018571
-0.3237,-70.99021302722754
-0.3227000000000001,-69.44817771037465
-0.3217,-67.8071126025312
-0.3207000000000001,-66.88755025761894
-0.3197,-65.79822255672285
-0.3187000000000001,-64.66645351683083
-0.3177,-63.973244979896954
-0.3167000000000001,-63.02538840898739
-0.3157,-62.03509049908186
-0.3147000000000001,-61.455058866137186
-0.3137,-60.28084848724921
-0.3127000000000001,-59.46031593332749
-0.3117,-58.15878153745166
-0.3107000000000001,-56.89968848057178
-0.3097,-55.8952434576676
-0.3087000000000001,-55.59815408469595
-0.3077,-54.84835709576747
-0.3067000000000001,-53.447792908901086
-0.30569999999999997,-52.33017098200771
-0.3047000000000001,-51.24084328111163
-0.30369999999999997,-50.491046292183164
-0.3027000000000001,-49.995897337230396
-0.30169999999999997,-49.21780612230463
-0.3007000000000001,-47.85968327443419
-0.29969999999999997,-46.68547289554621
-0.2987000000000001,-46.133735488598845
-0.29769999999999996,-45.63858653364609
-0.2967000000000001,-44.619994397743255
-0.29569999999999996,-43.81360895682018
-0.2947000000000001,-42.72428125592411
-0.29369999999999996,-41.719836233019926
-0.29270000000000007,-41.15395171307392
-0.29169999999999996,-40.24853648116029
-0.29070000000000007,-39.68265196121428
-0.28969999999999996,-38.06988107936814
-0.28870000000000007,-37.00884760446935
-0.28769999999999996,-37.235201412447765
-0.28670000000000007,-36.5136986495166
-0.28569999999999995,-35.48095940061512
-0.28470000000000006,-34.179425004739294
-0.28369999999999995,-33.50036358080407
-0.28270000000000006,-33.10424441684186
-0.28169999999999995,-32.00076960294713
-0.28070000000000006,-31.095354371033505
-0.27969999999999995,-30.571911190083444
-0.27870000000000006,-30.274821817111786
-0.27769999999999995,-29.567466167179266
-0.27670000000000006,-28.13860775431558
-0.27569999999999995,-27.417104991384413
-0.27470000000000006,-26.89366181043435
-0.27369999999999994,-26.27118883849373
-0.27270000000000005,-25.648715866553115
-0.27169999999999994,-24.559388165657033
-0.27070000000000005,-23.993503645711023
-0.26969999999999994,-23.342736447773106
-0.26870000000000005,-22.578792345845983
-0.26769999999999994,-21.843142469916167
-0.26670000000000005,-20.966021463999844
