Potential V vs RHE, Current mA cm-2
0.013299999999999867,-1.4415908145624723
0.012299999999999978,-5.672992312458796
0.011299999999999866,-8.376505606500881
0.010299999999999976,-10.164700689530287
0.009299999999999864,-11.385596541313816
0.008299999999999974,-12.432482903213943
0.007299999999999862,-13.436927926118118
0.006299999999999972,-14.345172580631472
0.00529999999999986,-15.094969569559943
0.0042999999999999705,-15.660854089505953
0.0032999999999998586,-15.972090575476265
0.0022999999999999687,-16.141855931460068
0.0012999999999998568,-16.495533756426326
0.00029999999999996696,-16.835064468393938
-0.000700000000000145,-17.316066310348052
-0.0017000000000000348,-17.627302796318357
-0.0027000000000001467,-17.71218547431026
-0.0037000000000000366,-17.797068152302163
-0.0047000000000001485,-17.797068152302163
-0.005700000000000038,-17.924392169290012
-0.00670000000000015,-18.19318731626437
-0.00770000000000004,-18.44783535024008
-0.008700000000000152,-18.674189158218486
-0.009700000000000042,-18.589306480226583
-0.010700000000000154,-18.49027668923603
-0.011700000000000044,-18.53271802823198
-0.012700000000000156,-18.631747819222536
-0.013700000000000045,-18.843954514202288
-0.014700000000000157,-19.112749661176647
-0.015700000000000047,-19.112749661176647
-0.01670000000000016,-19.01371987018609
-0.01770000000000005,-18.88639585319824
-0.01870000000000016,-18.88639585319824
-0.01970000000000005,-19.112749661176647
-0.020700000000000163,-19.2400736781645
-0.021700000000000053,-19.409839034148305
-0.022700000000000164,-19.367397695152352
-0.023700000000000054,-19.2400736781645
-0.024700000000000166,-19.155191000172596
-0.025700000000000056,-19.155191000172596
-0.026700000000000168,-19.3249563561564
-0.027700000000000058,-19.579604390132108
-0.02870000000000017,-19.579604390132108
-0.02970000000000006,-19.49472171214021
-0.03070000000000017,-19.409839034148305
-0.03170000000000006,-19.3249563561564
-0.03270000000000017,-19.409839034148305
-0.03370000000000006,-19.537163051136158
-0.034700000000000175,-19.721075520118614
-0.035700000000000065,-19.763516859114564
-0.03670000000000018,-19.579604390132108
-0.03770000000000007,-19.452280373144255
-0.03870000000000018,-19.49472171214021
-0.03970000000000007,-19.579604390132108
-0.04070000000000018,-19.805958198110513
-0.04170000000000007,-19.93328221509837
-0.04270000000000018,-19.805958198110513
-0.04370000000000007,-19.721075520118614
-0.044700000000000184,-19.636192842126707
-0.045700000000000074,-19.579604390132108
-0.046700000000000186,-19.763516859114564
-0.047700000000000076,-19.93328221509837
-0.04870000000000019,-20.01816489309027
-0.04970000000000008,-19.890840876102416
-0.05070000000000019,-19.678634181122664
-0.05170000000000008,-19.678634181122664
-0.05270000000000019,-19.763516859114564
-0.05370000000000008,-19.890840876102416
-0.05470000000000019,-20.06060623208622
-0.05570000000000008,-20.06060623208622
-0.056700000000000195,-19.97572355409432
-0.057700000000000085,-19.848399537106463
-0.058700000000000196,-19.805958198110513
-0.059700000000000086,-19.97572355409432
-0.0607000000000002,-20.10304757108217
-0.06170000000000009,-20.286960040064624
-0.0627000000000002,-20.202077362072725
-0.06370000000000009,-20.01816489309027
-0.0647000000000002,-19.93328221509837
-0.06570000000000009,-19.93328221509837
-0.0667000000000002,-20.10304757108217
-0.0677000000000001,-20.329401379060574
-0.0687000000000002,-20.371842718056527
-0.0697000000000001,-20.244518701068674
-0.07070000000000021,-20.10304757108217
-0.0717000000000001,-20.01816489309027
-0.07270000000000021,-20.10304757108217
-0.0737000000000001,-20.286960040064624
-0.07470000000000021,-20.414284057052477
-0.0757000000000001,-20.499166735044383
-0.07670000000000021,-20.371842718056527
-0.0777000000000001,-20.202077362072725
-0.07870000000000021,-20.244518701068674
-0.0797000000000001,-20.329401379060574
-0.08070000000000022,-20.541608074040333
-0.0817000000000001,-20.626490752032236
-0.08270000000000022,-20.541608074040333
-0.08370000000000011,-20.456725396048434
-0.08470000000000022,-20.371842718056527
-0.08570000000000011,-20.371842718056527
-0.08670000000000022,-20.541608074040333
-0.08770000000000011,-20.76796188201874
-0.08870000000000022,-20.85284456001064
-0.08970000000000011,-20.76796188201874
-0.09070000000000022,-20.584049413036283
-0.09170000000000011,-20.584049413036283
-0.09270000000000023,-20.683079204026836
-0.09370000000000012,-20.85284456001064
-0.09470000000000023,-21.022609915994444
-0.09570000000000012,-21.022609915994444
-0.09670000000000023,-20.89528589900659
-0.09770000000000012,-20.76796188201874
-0.09870000000000023,-20.72552054302279
-0.09970000000000012,-20.93772723800254
-0.10070000000000023,-21.149933932982297
-0.10170000000000012,-21.291405062968803
-0.10270000000000024,-21.248963723972853
-0.10370000000000013,-21.107492593986347
-0.10470000000000024,-21.065051254990397
-0.10570000000000013,-21.107492593986347
-0.10670000000000024,-21.291405062968803
-0.10770000000000013,-21.54605309694451
-0.10870000000000024,-21.58849443594046
-0.10970000000000013,-21.503611757948562
-0.11070000000000024,-21.376287740960702
-0.11170000000000013,-21.333846401964752
-0.11270000000000002,-21.503611757948562
-0.11370000000000013,-21.67337711393236
-0.11470000000000002,-21.814848243918867
-0.11570000000000014,-21.899730921910766
-0.11670000000000003,-21.814848243918867
-0.11770000000000014,-21.67337711393236
-0.11870000000000003,-21.729965565926964
-0.11970000000000014,-21.899730921910766
-0.12070000000000003,-22.111937616890522
-0.12170000000000014,-22.295850085872978
-0.12270000000000003,-22.253408746877028
-0.12370000000000014,-22.196820294882425
-0.12470000000000003,-22.111937616890522
-0.12570000000000014,-22.111937616890522
-0.12670000000000003,-22.42317410286083
-0.12770000000000015,-22.63538079784059
-0.12870000000000004,-22.819293266823045
-0.12970000000000015,-22.72026347583249
-0.13070000000000004,-22.592939458844636
-0.13170000000000015,-22.592939458844636
-0.13270000000000004,-22.72026347583249
-0.13370000000000015,-22.946617283810895
-0.13470000000000004,-23.15882397879065
-0.13570000000000015,-23.2012653177866
-0.13670000000000004,-23.1163826397947
-0.13770000000000016,-23.031499961802798
-0.13870000000000005,-23.031499961802798
-0.13970000000000016,-23.2012653177866
-0.14070000000000005,-23.47006046476096
-0.14170000000000016,-23.639825820744765
-0.14270000000000005,-23.682267159740714
-0.14370000000000016,-23.55494314275286
-0.14470000000000005,-23.51250180375691
-0.14570000000000016,-23.597384481748815
-0.14670000000000005,-23.823738289727217
-0.14770000000000016,-24.078386323702922
-0.14870000000000005,-24.20571034069078
-0.14970000000000017,-24.120827662698876
-0.15070000000000006,-24.078386323702922
-0.15170000000000017,-24.078386323702922
-0.15270000000000006,-24.24815167968673
-0.15370000000000017,-24.516946826661083
-0.15470000000000006,-24.729153521640843
-0.15570000000000017,-24.870624651627345
-0.15670000000000006,-24.771594860636792
-0.15770000000000017,-24.686712182644893
-0.15870000000000006,-24.814036199632742
-0.15970000000000018,-24.997948668615198
-0.16070000000000007,-25.295038041586857
-0.16170000000000018,-25.478950510569312
-0.16270000000000007,-25.521391849565262
-0.16370000000000018,-25.478950510569312
-0.16470000000000007,-25.478950510569312
-0.16570000000000018,-25.563833188561212
-0.16670000000000007,-25.81848122253692
-0.16770000000000018,-26.044835030515326
-0.16870000000000007,-26.21460038649913
-0.16970000000000018,-26.21460038649913
-0.17070000000000007,-26.129717708507226
-0.17170000000000019,-26.17215904750318
-0.17270000000000008,-26.38436574248293
-0.1737000000000002,-26.65316088945729
-0.17470000000000008,-26.9643973754276
-0.1757000000000002,-27.049280053419505
-0.17670000000000008,-27.00683871442355
-0.1777000000000002,-26.9643973754276
-0.17870000000000008,-27.049280053419505
-0.1797000000000002,-27.303928087395207
-0.18070000000000008,-27.615164573365515
-0.1817000000000002,-27.827371268345274
-0.18270000000000008,-27.912253946337174
-0.1837000000000002,-27.869812607341224
-0.1847000000000001,-27.912253946337174
-0.1857000000000002,-28.05372507632368
-0.1867000000000001,-28.308373110299385
-0.1877000000000002,-28.662050935265643
-0.1887000000000001,-28.789374952253496
-0.1897000000000002,-28.831816291249446
-0.1907000000000001,-28.831816291249446
-0.1917000000000001,-28.831816291249446
-0.19269999999999998,-29.18549411621571
-0.1937000000000001,-29.39770081119546
-0.19469999999999998,-29.751378636161718
-0.1957000000000001,-29.878702653149578
-0.19669999999999999,-29.878702653149578
-0.1977000000000001,-29.793819975157668
-0.1987,-29.96358533114148
-0.1997000000000001,-30.232380478115836
-0.2007,-30.529469851087494
-0.2017000000000001,-30.79826499806185
-0.2027,-30.8407063370578
-0.2037000000000001,-30.925589015049702
-0.2047,-30.968030354045652
-0.2057000000000001,-31.137795710029454
-0.2067,-31.449032195999767
-0.2077000000000001,-31.802710020966025
-0.2087,-32.05735805494172
-0.2097000000000001,-32.09979939393769
-0.2107,-32.01491671594578
-0.2117000000000001,-32.14224073293363
-0.2127,-32.41103587990799
-0.2137000000000001,-32.70812525287965
-0.2147,-33.10424441684186
-0.2157000000000001,-33.373039563816214
-0.2167,-33.373039563816214
-0.21770000000000012,-33.373039563816214
-0.2187,-33.50036358080407
-0.21970000000000012,-33.89648274476628
-0.2207,-34.236013456733886
-0.22170000000000012,-34.58969128170015
-0.2227,-34.67457395969205
-0.22370000000000012,-34.67457395969205
-0.2247,-34.85848642867451
-0.22570000000000012,-35.07069312365426
-0.2267,-35.46681228761647
-0.22770000000000012,-35.90537279057463
-0.22870000000000001,-36.07513814655844
-0.22970000000000013,-36.20246216354629
-0.23070000000000002,-36.244903502542236
-0.23170000000000013,-36.28734484153819
-0.23270000000000002,-36.6834640055004
-0.23370000000000013,-37.037141830466666
-0.23470000000000002,-37.376672542434264
-0.23570000000000013,-37.645467689408626
-0.23670000000000002,-37.687909028404576
-0.2376999999999999,-37.77279170639648
-0.23870000000000002,-37.99914551437489
-0.2396999999999999,-38.42355890433439
-0.24070000000000003,-38.86211940729255
-0.24169999999999991,-39.21579723225882
-0.24270000000000003,-39.34312124924667
-0.24369999999999992,-39.47044526623452
-0.24470000000000003,-39.61191639622103
-0.24569999999999992,-39.86656443019674
-0.24670000000000003,-40.30512493315489
-0.24769999999999992,-40.701244097117105
-0.24870000000000003,-41.04077480908471
-0.24969999999999992,-41.182245939071215
-0.25070000000000003,-41.30956995605907
-0.2516999999999999,-41.56421799003478
-0.25270000000000004,-41.91789581500104
-0.2536999999999999,-42.31401497896325
-0.25470000000000004,-42.752575481921404
-0.2556999999999999,-43.04966485489307
-0.25670000000000004,-43.17698887188092
-0.25769999999999993,-43.36090134086337
-0.25870000000000004,-43.61554937483908
-0.25969999999999993,-44.138992555789144
-0.26070000000000004,-44.619994397743255
-0.26169999999999993,-45.10099623969737
-0.26270000000000004,-45.32735004767578
-0.26369999999999993,-45.45467406466363
-0.26470000000000005,-45.70932209863933
-0.26569999999999994,-46.10544126260155
-0.26670000000000005,-46.586443104555656
-0.26769999999999994,-47.19476896349763
-0.26870000000000005,-47.54844678846388
-0.26969999999999994,-47.76065348344364
-0.27070000000000005,-47.987007291422046
-0.27169999999999994,-48.24165532539775
-0.27270000000000005,-48.72265716735186
-0.27369999999999994,-49.24610034830193
-0.27470000000000006,-49.81198486824794
-0.27569999999999995,-50.2505453712061
-0.27670000000000006,-50.46275206618586
-0.27769999999999995,-50.68910587416426
-0.27870000000000006,-51.127666377122424
-0.27969999999999995,-51.65110955807249
-0.28070000000000006,-52.30187675601041
-0.28169999999999995,-52.86776127595642
-0.28270000000000006,-53.12240930993213
-0.28369999999999995,-53.39120445690648
-0.28470000000000006,-53.74488228187274
-0.28569999999999995,-54.2117370108282
-0.28670000000000007,-54.791768643772876
-0.28769999999999996,-55.442535841710786
-0.28870000000000007,-55.96597902266086
-0.28969999999999996,-56.30550973462846
-0.29070000000000007,-56.65918755959472
-0.29169999999999996,-57.097748062552874
-0.29270000000000007,-57.70607392149485
-0.29369999999999996,-58.39928245842871
-0.2947000000000001,-59.06419676936528
-0.29569999999999996,-59.54519861131939
-0.2967000000000001,-59.92717066228296
-0.29769999999999996,-60.32328982624517
-0.2987000000000001,-60.80429166819927
-0.29969999999999997,-61.53994154412909
-0.3007000000000001,-62.24729719406162
-0.30169999999999997,-62.855623053003576
-0.3027000000000001,-63.37906623395363
-0.30369999999999997,-63.77518539791585
-0.3047000000000001,-64.25618723986996
-0.30569999999999997,-64.90695443780788
-0.3067000000000001,-65.60016297474175
-0.3077,-66.43484264166212
-0.3087000000000001,-67.08560983960004
-0.3097,-67.6090530205501
-0.3107000000000001,-68.13249620150016
-0.3117,-68.69838072144618
-0.3127000000000001,-69.4906190493706
-0.3137,-70.39603428128423
-0.3147000000000001,-71.1458312702127
-0.3157,-71.8814811461425
-0.3167000000000001,-72.36248298809663
-0.3177,-72.92836750804264
-0.3187000000000001,-73.62157604497652
-0.3197,-74.45625571189689
-0.3207000000000001,-75.37581805680915
-0.3217,-76.23879194972683
-0.3227000000000001,-76.9037062606634
-0.3237,-77.46959078060941
-0.3247000000000001,-78.16279931754329
-0.3257,-78.99747898446365
-0.3267000000000001,-79.94533555537322
-0.3277,-80.90733923928146
-0.3287000000000001,-81.78446024519776
-0.3297,-82.52011012112759
-0.3307000000000001,-83.22746577106011
-0.3317,-84.00555698598588
-0.3327000000000001,-85.01000200889004
-0.3337,-86.09932970978613
-0.3347000000000001,-87.18865741068221
-0.3357,-88.06577841659853
-0.3367000000000001,-88.9004580835189
-0.3377,-89.63610795944872
-0.3387000000000001,-90.51322896536506
-0.3397,-91.56011532726518
-0.3407000000000001,-92.6918843671572
-0.3417,-93.73877072905732
-0.3427000000000001,-94.70077441296557
-0.3437,-95.52130696688728
-0.3447000000000001,-96.4833106507955
-0.3457,-97.53019701269562
-0.3467000000000001,-98.66196605258766
-0.3477,-99.93520622246619
-0.3487000000000001,-101.02453392336226
-0.3497,-101.97239049427183
-0.3507000000000001,-102.89195283918411
-0.3517,-103.89639786208829
-0.3527000000000001,-105.11304957997223
-0.3537,-106.38628974985076
-0.3547000000000001,-107.56050012873874
-0.3557,-108.73471050762672
-0.35670000000000013,-109.73915553053091
-0.3577,-110.78604189243102
-0.35870000000000013,-112.01684072331359
-0.3597,-113.36081645818538
-0.36070000000000013,-114.80382198404773
-0.3617,-116.10535637992358
-0.3626999999999999,-117.33615521080614
-0.3637,-118.42548291170223
-0.3646999999999999,-119.68457596858211
-0.3657,-121.00025747745659
-0.3666999999999999,-122.52814568131083
-0.3677,-124.05603388516508
-0.3686999999999999,-125.48489229802875
-0.36970000000000003,-126.75813246790726
-0.3706999999999999,-127.84746016880335
-0.37170000000000003,-129.0641118866873
-0.3726999999999999,-130.32320494356716
-0.37370000000000003,-131.72376913043357
-0.3746999999999999,-133.12433331729994
-0.37570000000000003,-134.46830905217172
-0.3766999999999999,-135.86887323903812
-0.37770000000000004,-137.22699608690854
-0.3786999999999999,-138.7548842907628
-0.37970000000000004,-140.4949791895968
-0.3806999999999999,-142.17848563643616
-0.38170000000000004,-143.87613919627424
-0.38269999999999993,-145.43232162612577
-0.38370000000000004,-146.7055617960043
-0.38469999999999993,-148.26174422585584
-0.38570000000000004,-149.8179266557074
-0.38669999999999993,-147.6958597059098
-0.38570000000000004,-140.62230320658463
-0.38469999999999993,-135.51519541407185
-0.38370000000000004,-131.24276728847948
-0.38269999999999993,-127.4937823438371
-0.38170000000000004,-124.26824058014482
-0.3806999999999999,-121.33978818942418
-0.37970000000000004,-118.68013094567793
-0.3786999999999999,-116.20438617091412
-0.37770000000000004,-113.62961160515974
-0.3766999999999999,-111.05483703940537
-0.37570000000000003,-108.56494515164292
-0.3746999999999999,-106.30140707185885
-0.37370000000000003,-104.2925170260505
-0.3726999999999999,-102.28362698024215
-0.37170000000000003,-100.2747369344338
-0.3706999999999999,-98.13852287163759
-0.36970000000000003,-95.95986746984543
-0.3686999999999999,-93.78121206805329
-0.3677,-91.94208737822873
-0.3666999999999999,-90.11710980140283
-0.3657,-88.46189758056073
-0.3646999999999999,-86.6227728907362
-0.3637,-84.61388284492786
-0.3626999999999999,-82.746463929106
-0.3617,-80.86489790028548
-0.36070000000000013,-79.20968567944341
-0.3597,-77.68179747558916
-0.35870000000000013,-76.02658525474708
-0.3577,-74.37137303390499
-0.35670000000000013,-72.53224834408043
-0.3557,-70.70727076725453
-0.3547000000000001,-69.0944998854084
-0.3537,-67.65149435954605
-0.3527000000000001,-66.25093017267966
-0.3517,-64.77963042082003
-0.3507000000000001,-63.11027108697928
-0.3497,-61.49750020513315
-0.3487000000000001,-59.9696120012789
-0.3477,-58.54075358841522
-0.3467000000000001,-57.26751341853669
-0.3457,-56.008420361656796
-0.3447000000000001,-54.65029751378637
-0.3437,-53.12240930993213
-0.3427000000000001,-51.594521106077885
-0.3417,-50.20810403221015
-0.3407000000000001,-49.03389365332217
-0.3397,-47.93041883942744
-0.3387000000000001,-46.79864979953541
-0.3377,-45.581998081651484
-0.3367000000000001,-44.181433894785094
-0.3357,-42.79501682091736
-0.3347000000000001,-41.52177665103883
-0.3337,-40.51733162813464
-0.3327000000000001,-39.51288660523048
-0.3317,-38.46600024333035
-0.3307000000000001,-37.291789864442364
-0.3297,-35.94781412957058
-0.3287000000000001,-34.75945663768395
-0.3277,-33.755011614779775
-0.3267000000000001,-32.807155043870196
-0.3257,-31.887592698957924
-0.3247000000000001,-30.925589015049702
-0.3237,-29.708937297165768
-0.3227000000000001,-28.53472691827779
-0.3217,-27.487840556377662
-0.3207000000000001,-26.568278211465387
-0.3197,-25.77603988354097
-0.3187000000000001,-24.9130659906233
-0.3177,-23.993503645711023
-0.3167000000000001,-22.904175944814945
-0.3157,-21.814848243918867
-0.3147000000000001,-20.980168576998494
-0.3137,-20.202077362072725
-0.3127000000000001,-19.49472171214021
-0.3117,-18.759071836210385
-0.3107000000000001,-17.839509491298113
-0.3097,-16.835064468393938
-0.3087000000000001,-15.87306078448571
-0.3077,-15.137410908555893
-0.3067000000000001,-14.486643710617974
-0.30569999999999997,-13.916515056772363
-0.3047000000000001,-13.13135028534727
-0.30369999999999997,-12.214617363034726
-0.3027000000000001,-11.299299152022046
-0.30169999999999997,-10.514134380596953
-0.3007000000000001,-9.85912304875944
-0.29969999999999997,-9.293238528813426
-0.2987000000000001,-8.769795347863363
-0.29769999999999996,-8.027071915434218
-0.2967000000000001,-7.155609754717355
-0.29569999999999996,-6.326588932996443
-0.2947000000000001,-5.672992312458796
-0.29369999999999996,-5.235846520800501
-0.29270000000000007,-4.668547289554621
-0.29169999999999996,-4.146518819904423
-0.29070000000000007,-3.447651437771094
-0.28969999999999996,-2.662486666345999
-0.28870000000000007,-1.9650339955125358
-0.28769999999999996,-1.3980177065266295
-0.28670000000000007,-0.9617207416482519
-0.28569999999999995,-0.6128529351015338
-0.28470000000000006,-0.08943804837746762
-0.28369999999999995,0.6520404381077953
-0.28270000000000006,1.349917522331218
-0.28169999999999995,1.9607898616129409
-0.28070000000000006,2.396520941971372
-0.27969999999999995,2.745954633038036
-0.27870000000000006,3.1378296631006513
-0.27769999999999995,3.661272844050715
-0.27670000000000006,4.272428125592412
-0.27569999999999995,4.926024746130058
-0.27470000000000006,5.405611876784305
-0.27369999999999994,5.75504556785097
-0.27270000000000005,6.060623208621817
-0.27169999999999994,6.410056899688482
-0.27070000000000005,7.019797469930312
-0.26969999999999994,7.587096701176192
-0.26870000000000005,8.110539882126256
-0.26769999999999994,8.503829623488736
-0.26670000000000005,8.80799255295972
