Potential V vs RHE, Current mA cm-2
0.013299999999999867,-1.8773218949209036
0.012299999999999978,-5.629136262162981
0.011299999999999866,-8.4203616567967
0.010299999999999976,-10.601846481188586
0.009299999999999864,-12.302329463626359
0.008299999999999974,-13.610937416001518
0.007299999999999862,-14.69885040559773
0.006299999999999972,-15.533530072518102
0.00529999999999986,-16.311621287443874
0.0042999999999999705,-17.018976937376394
0.0032999999999998586,-17.71218547431026
0.0022999999999999687,-18.40539401124413
0.0012999999999998568,-19.01371987018609
0.00029999999999996696,-19.49472171214021
-0.000700000000000145,-19.93328221509837
-0.0017000000000000348,-20.202077362072725
-0.0027000000000001467,-20.456725396048434
-0.0037000000000000366,-20.683079204026836
-0.0047000000000001485,-20.85284456001064
-0.005700000000000038,-21.107492593986347
-0.00670000000000015,-21.418729079956652
-0.00770000000000004,-21.67337711393236
-0.008700000000000152,-21.98461359990267
-0.009700000000000042,-22.196820294882425
-0.010700000000000154,-22.42317410286083
-0.011700000000000044,-22.508056780852733
-0.012700000000000156,-22.550498119848687
-0.013700000000000045,-22.550498119848687
-0.014700000000000157,-22.63538079784059
-0.015700000000000047,-22.72026347583249
-0.01670000000000016,-22.904175944814945
-0.01770000000000005,-23.073941300798747
-0.01870000000000016,-23.24370665678255
-0.01970000000000005,-23.427619125765005
-0.020700000000000163,-23.51250180375691
-0.021700000000000053,-23.55494314275286
-0.022700000000000164,-23.55494314275286
-0.023700000000000054,-23.47006046476096
-0.024700000000000166,-23.51250180375691
-0.025700000000000056,-23.55494314275286
-0.026700000000000168,-23.682267159740714
-0.027700000000000058,-23.86617962872317
-0.02870000000000017,-23.993503645711023
-0.02970000000000006,-24.120827662698876
-0.03070000000000017,-24.20571034069078
-0.03170000000000006,-24.16326900169483
-0.03270000000000017,-24.120827662698876
-0.03370000000000006,-24.078386323702922
-0.034700000000000175,-24.078386323702922
-0.035700000000000065,-24.120827662698876
-0.03670000000000018,-24.24815167968673
-0.03770000000000007,-24.389622809673234
-0.03870000000000018,-24.559388165657033
-0.03970000000000007,-24.601829504652986
-0.04070000000000018,-24.729153521640843
-0.04170000000000007,-24.686712182644893
-0.04270000000000018,-24.64427084364894
-0.04370000000000007,-24.601829504652986
-0.044700000000000184,-24.601829504652986
-0.045700000000000074,-24.559388165657033
-0.046700000000000186,-24.729153521640843
-0.047700000000000076,-24.870624651627345
-0.04870000000000019,-25.04039000761115
-0.04970000000000008,-25.12527268560305
-0.05070000000000019,-25.167714024599
-0.05170000000000008,-25.167714024599
-0.05270000000000019,-25.167714024599
-0.05370000000000008,-25.0828313466071
-0.05470000000000019,-25.0828313466071
-0.05570000000000008,-25.0828313466071
-0.056700000000000195,-25.210155363594954
-0.057700000000000085,-25.39406783257741
-0.058700000000000196,-25.521391849565262
-0.059700000000000086,-25.648715866553115
-0.0607000000000002,-25.691157205549064
-0.06170000000000009,-25.691157205549064
-0.0627000000000002,-25.691157205549064
-0.06370000000000009,-25.60627452755716
-0.0647000000000002,-25.60627452755716
-0.06570000000000009,-25.648715866553115
-0.0667000000000002,-25.73359854454502
-0.0677000000000001,-25.91751101352747
-0.0687000000000002,-26.044835030515326
-0.0697000000000001,-26.129717708507226
-0.07070000000000021,-26.257041725495082
-0.0717000000000001,-26.21460038649913
-0.07270000000000021,-26.17215904750318
-0.0737000000000001,-26.129717708507226
-0.07470000000000021,-26.129717708507226
-0.0757000000000001,-26.17215904750318
-0.07670000000000021,-26.34192440348698
-0.0777000000000001,-26.483395533473487
-0.07870000000000021,-26.65316088945729
-0.0797000000000001,-26.69560222845324
-0.08070000000000022,-26.822926245441096
-0.0817000000000001,-26.822926245441096
-0.08270000000000022,-26.780484906445146
-0.08370000000000011,-26.780484906445146
-0.08470000000000022,-26.780484906445146
-0.08570000000000011,-26.822926245441096
-0.08670000000000022,-26.9643973754276
-0.08770000000000011,-27.134162731411404
-0.08870000000000022,-27.303928087395207
-0.08970000000000011,-27.38881076538711
-0.09070000000000022,-27.487840556377662
-0.09170000000000011,-27.487840556377662
-0.09270000000000023,-27.43125210438306
-0.09370000000000012,-27.43125210438306
-0.09470000000000023,-27.487840556377662
-0.09570000000000012,-27.487840556377662
-0.09670000000000023,-27.65760591236147
-0.09770000000000012,-27.78492992934932
-0.09870000000000023,-27.912253946337174
-0.09970000000000012,-28.09616641531963
-0.10070000000000023,-28.18104909331153
-0.10170000000000012,-28.18104909331153
-0.10270000000000024,-28.18104909331153
-0.10370000000000013,-28.09616641531963
-0.10470000000000024,-28.18104909331153
-0.10570000000000013,-28.22349043230748
-0.10670000000000024,-28.350814449295335
-0.10770000000000013,-28.53472691827779
-0.10870000000000024,-28.704492274261593
-0.10970000000000013,-28.831816291249446
-0.11070000000000024,-28.959140308237306
-0.11170000000000013,-28.91669896924135
-0.11270000000000002,-28.959140308237306
-0.11370000000000013,-28.959140308237306
-0.11470000000000002,-28.959140308237306
-0.11570000000000014,-29.001581647233255
-0.11670000000000003,-29.18549411621571
-0.11770000000000014,-29.39770081119546
-0.11870000000000003,-29.581613280177915
-0.11970000000000014,-29.708937297165768
-0.12070000000000003,-29.793819975157668
-0.12170000000000014,-29.836261314153624
-0.12270000000000003,-29.836261314153624
-0.12370000000000014,-29.793819975157668
-0.12470000000000003,-29.836261314153624
-0.12570000000000014,-29.921143992145527
-0.12670000000000003,-30.10505646112798
-0.12770000000000015,-30.274821817111786
-0.12870000000000004,-30.444587173095588
-0.12970000000000015,-30.614352529079397
-0.13070000000000004,-30.71338232006995
-0.13170000000000015,-30.71338232006995
-0.13270000000000004,-30.71338232006995
-0.13370000000000015,-30.71338232006995
-0.13470000000000004,-30.7558236590659
-0.13570000000000015,-30.79826499806185
-0.13670000000000004,-31.010471693041605
-0.13770000000000016,-31.19438416202406
-0.13870000000000005,-31.36414951800786
-0.13970000000000016,-31.533914873991666
-0.14070000000000005,-31.618797551983565
-0.14170000000000016,-31.661238890979522
-0.14270000000000005,-31.661238890979522
-0.14370000000000016,-31.661238890979522
-0.14470000000000005,-31.717827342974125
-0.14570000000000016,-31.802710020966025
-0.14670000000000005,-31.972475376949827
-0.14770000000000016,-32.184682071929586
-0.14870000000000005,-32.41103587990799
-0.14970000000000017,-32.53835989689585
-0.15070000000000006,-32.70812525287965
-0.15170000000000017,-32.70812525287965
-0.15270000000000006,-32.764713704874254
-0.15370000000000017,-32.764713704874254
-0.15470000000000006,-32.764713704874254
-0.15570000000000017,-32.892037721862096
-0.15670000000000006,-33.06180307784591
-0.15770000000000017,-33.288156885824314
-0.15870000000000006,-33.50036358080407
-0.15970000000000018,-33.627687597791926
-0.16070000000000007,-33.81160006677438
-0.16170000000000018,-33.85404140577033
-0.16270000000000007,-33.85404140577033
-0.16370000000000018,-33.89648274476628
-0.16470000000000007,-34.02380676175414
-0.16570000000000018,-34.10868943974604
-0.16670000000000007,-34.33504324772444
-0.16770000000000018,-34.462367264712285
-0.16870000000000007,-34.717015298688004
-0.16970000000000018,-34.90092776767045
-0.17070000000000007,-35.02825178465831
-0.17170000000000019,-35.07069312365426
-0.17270000000000008,-35.15557580164616
-0.1737000000000002,-35.11313446265021
-0.17470000000000008,-35.240458479638065
-0.1757000000000002,-35.32534115762997
-0.17670000000000008,-35.50925362661242
-0.1777000000000002,-35.763901660588125
-0.17870000000000008,-35.99025546856653
-0.1797000000000002,-36.16002082455034
-0.18070000000000008,-36.28734484153819
-0.1817000000000002,-36.37222751953009
-0.18270000000000008,-36.4288159715247
-0.1837000000000002,-36.47125731052064
-0.1847000000000001,-36.55613998851254
-0.1857000000000002,-36.64102266650445
-0.1867000000000001,-36.89567070048016
-0.1877000000000002,-37.122024508458566
-0.1887000000000001,-37.291789864442364
-0.1897000000000002,-37.56058501141672
-0.1907000000000001,-37.687909028404576
-0.1917000000000001,-37.77279170639648
-0.19269999999999998,-37.81523304539243
-0.1937000000000001,-37.85767438438838
-0.19469999999999998,-37.90011572338433
-0.1957000000000001,-38.08402819236679
-0.19669999999999999,-38.253793548350586
-0.1977000000000001,-38.46600024333035
-0.1987,-38.734795390304704
-0.1997000000000001,-38.94700208528445
-0.2007,-39.130914554266916
-0.2017000000000001,-39.21579723225882
-0.2027,-39.21579723225882
-0.2037000000000001,-39.258238571254765
-0.2047,-39.38556258824262
-0.2057000000000001,-39.51288660523048
-0.2067,-39.78168175220483
-0.2077000000000001,-39.95144710818864
-0.2087,-40.26268359415894
-0.2097000000000001,-40.4748902891387
-0.2107,-40.65880275812115
-0.2117000000000001,-40.743685436113054
-0.2127,-40.828568114104954
-0.2137000000000001,-40.87100945310091
-0.2147,-40.99833347008877
-0.2157000000000001,-41.267128617063115
-0.2167,-41.47933531204288
-0.21770000000000012,-41.74813045901723
-0.2187,-42.00277849299294
-0.21970000000000012,-42.2715736399673
-0.2207,-42.4413389959511
-0.22170000000000012,-42.526221673943
-0.2227,-42.6111043519349
-0.22370000000000012,-42.71013414292546
-0.2247,-42.79501682091736
-0.22570000000000012,-42.96478217690117
-0.2267,-43.23357732387552
-0.22770000000000012,-43.48822535785123
-0.22870000000000001,-43.79946184382153
-0.22970000000000013,-44.011668538801295
-0.23070000000000002,-44.28046368577565
-0.23170000000000013,-44.36534636376755
-0.23270000000000002,-44.4926703807554
-0.23370000000000013,-44.577553058747306
-0.23470000000000002,-44.704877075735155
-0.23570000000000013,-44.93123088371356
-0.23670000000000002,-45.18587891768927
-0.2376999999999999,-45.497115403659585
-0.23870000000000002,-45.79420477663124
-0.2396999999999999,-46.062999923605595
-0.24070000000000003,-46.3176479575813
-0.24169999999999991,-46.45911908756781
-0.24270000000000003,-46.628884443551605
-0.24369999999999992,-46.713767121543505
-0.24470000000000003,-46.88353247752732
-0.24569999999999992,-47.067444946509774
-0.24670000000000003,-47.36453431948143
-0.24769999999999992,-47.633329466455784
-0.24870000000000003,-48.029448630417996
-0.24969999999999992,-48.32653800338966
-0.25070000000000003,-48.55289181136806
-0.2516999999999999,-48.76509850634781
-0.25270000000000004,-48.89242252333566
-0.2536999999999999,-49.03389365332217
-0.25470000000000004,-49.28854168729788
-0.2556999999999999,-49.50074838227763
-0.25670000000000004,-49.81198486824794
-0.25769999999999993,-50.1656626932142
-0.25870000000000004,-50.547634744177756
-0.25969999999999993,-50.85887123014807
-0.26070000000000004,-51.17010771611838
-0.26169999999999993,-51.33987307210218
-0.26270000000000004,-51.55207976708194
-0.26369999999999993,-51.69355089706845
-0.26470000000000005,-51.948198931044146
-0.26569999999999994,-52.25943541701445
-0.26670000000000005,-52.64140746797801
-0.26769999999999994,-52.995085292944275
-0.26870000000000005,-53.39120445690648
-0.26969999999999994,-53.74488228187274
-0.27070000000000005,-54.08441299384035
-0.27169999999999994,-54.31076680181876
-0.27270000000000005,-54.56541483579447
-0.27369999999999994,-54.73518019177827
-0.27470000000000006,-55.046416677748574
-0.27569999999999995,-55.31521182472294
-0.27670000000000006,-55.73962521468245
-0.27769999999999995,-56.13574437864466
-0.27870000000000006,-56.61674622059877
-0.27969999999999995,-57.012865384560975
-0.28070000000000006,-57.352396096528594
-0.28169999999999995,-57.66363258249889
-0.28270000000000006,-57.93242772947325
-0.28369999999999995,-58.22951710244491
-0.28470000000000006,-58.54075358841522
-0.28569999999999995,-58.880284300382826
-0.28670000000000007,-59.36128614233694
-0.28769999999999996,-59.7998466452951
-0.28870000000000007,-60.32328982624517
-0.28969999999999996,-60.80429166819927
-0.29070000000000007,-61.20041083216149
-0.29169999999999996,-61.5965299961237
-0.29270000000000007,-61.89361936909536
-0.29369999999999996,-62.16241451606972
-0.2947000000000001,-62.58682790602922
-0.29569999999999996,-62.89806439199953
-0.2967000000000001,-63.5063902509415
-0.29769999999999996,-64.0722747708875
-0.2987000000000001,-64.55327661284163
-0.29969999999999997,-65.11916113278764
-0.3007000000000001,-65.60016297474175
-0.30169999999999997,-65.99628213870396
-0.3027000000000001,-66.39240130266617
-0.30369999999999997,-66.68949067563783
-0.3047000000000001,-67.17049251759194
-0.30569999999999997,-67.65149435954605
-0.3067000000000001,-68.21737887949207
-0.3077,-68.82570473843404
-0.3087000000000001,-69.43403059737601
-0.3097,-70.01406223032066
-0.3107000000000001,-70.57994675026669
-0.3117,-71.06094859222078
-0.3127000000000001,-71.52780332117625
-0.3137,-71.96636382413442
-0.3147000000000001,-72.48980700508447
-0.3157,-72.97080884703858
-0.3167000000000001,-73.62157604497652
-0.3177,-74.32893169490903
-0.3187000000000001,-75.02214023184291
-0.3197,-75.6729074297808
-0.3207000000000001,-76.33782174071737
-0.3217,-76.9037062606634
-0.3227000000000001,-77.46959078060941
-0.3237,-77.99303396155948
-0.3247000000000001,-78.55891848150549
-0.3257,-79.20968567944341
-0.3267000000000001,-79.94533555537322
-0.3277,-80.69513254430169
-0.3287000000000001,-81.47322375922747
-0.3297,-82.22302074815593
-0.3307000000000001,-82.95867062408576
-0.3317,-83.60943782202366
-0.3327000000000001,-84.23191079396429
-0.3337,-84.7977953139103
-0.3347000000000001,-85.49100385084417
-0.3357,-86.18421238777805
-0.3367000000000001,-87.06133339369435
-0.3377,-87.85357172161878
-0.3387000000000001,-88.71654561453644
-0.3397,-89.59366662045278
-0.3407000000000001,-90.37175783537855
-0.3417,-91.16399616330297
-0.3427000000000001,-91.94208737822873
-0.3437,-92.6070016891653
-0.3447000000000001,-93.38509290409107
-0.3457,-94.21977257101145
-0.3467000000000001,-95.12518780292505
-0.3477,-96.04475014783733
-0.3487000000000001,-97.00675383174556
-0.3497,-97.92631617665783
-0.3507000000000001,-98.88831986056607
-0.3517,-99.62396973649588
-0.3527000000000001,-100.5010907424122
-0.3537,-101.32162329633393
-0.3547000000000001,-102.19874430225026
-0.3557,-103.16074798615847
-0.35670000000000013,-104.16519300906265
-0.3577,-105.21207937096277
-0.35870000000000013,-106.30140707185885
-0.3597,-107.30585209476303
-0.36070000000000013,-108.3102971176672
-0.3617,-109.25815368857677
-0.3626999999999999,-110.17771603348905
-0.3637,-111.13971971739728
-0.3646999999999999,-112.14416474030146
-0.3657,-113.19105110220158
-0.3666999999999999,-114.3228201420936
-0.3677,-115.45458918198564
-0.3686999999999999,-116.67124089986959
-0.36970000000000003,-117.81715705276027
-0.3706999999999999,-118.90648475365633
-0.37170000000000003,-119.99581245455242
-0.3726999999999999,-121.04269881645253
-0.37370000000000003,-122.0471438393567
-0.3746999999999999,-123.17891287924873
-0.37570000000000003,-124.31068191914078
-0.3766999999999999,-125.56977497602065
-0.37770000000000004,-126.80057380690324
-0.3786999999999999,-128.144549541775
-0.37970000000000004,-129.3753483726576
-0.3806999999999999,-130.59200009054155
-0.38170000000000004,-131.76621046942952
-0.38269999999999993,-132.89797950932152
-0.38370000000000004,-134.04389566221224
-0.38469999999999993,-135.34543005808808
-0.38570000000000004,-136.51964043697603
-0.38669999999999993,-134.69466286015015
-0.38570000000000004,-128.32846201075745
-0.38469999999999993,-123.39111957422851
-0.38370000000000004,-119.3450452566145
-0.38269999999999993,-115.72338432896
-0.38170000000000004,-112.44125411327312
-0.3806999999999999,-109.39962481856328
-0.37970000000000004,-106.51361376683862
-0.3786999999999999,-103.93883920108425
-0.37770000000000004,-101.44894731332178
-0.3766999999999999,-99.22785057253368
-0.37570000000000003,-97.04919517074151
-0.3746999999999999,-94.99786378593721
-0.37370000000000003,-92.98897374012887
-0.3726999999999999,-90.99423080731917
-0.37170000000000003,-88.9004580835189
-0.3706999999999999,-86.89156803771054
-0.36970000000000003,-84.8826779919022
-0.3686999999999999,-83.0011119630817
-0.3677,-81.1761343862558
-0.3666999999999999,-79.47848082641775
-0.3657,-77.86570994457162
-0.3646999999999999,-76.23879194972683
-0.3637,-74.62602106788069
-0.3626999999999999,-73.09813286402644
-0.3617,-71.35803796519245
-0.36070000000000013,-69.70282574435035
-0.3597,-68.0051721845123
-0.35870000000000013,-66.43484264166212
-0.3577,-64.86451309881193
-0.35670000000000013,-63.46394891194555
-0.3557,-62.06338472507916
-0.3547000000000001,-60.80429166819927
-0.3537,-59.36128614233694
-0.3527000000000001,-58.05975174646111
-0.3517,-56.61674622059877
-0.3507000000000001,-55.13129935574048
-0.3497,-53.68829382987814
-0.3487000000000001,-52.34431809500636
-0.3477,-50.943753908139975
-0.3467000000000001,-49.76954352925199
-0.3457,-48.59533315036401
-0.3447000000000001,-47.46356411047198
-0.3437,-46.27520661858535
-0.3427000000000001,-45.10099623969737
-0.3417,-43.84190318281749
-0.3407000000000001,-42.526221673943
-0.3397,-41.267128617063115
-0.3387000000000001,-40.092918238175145
-0.3377,-38.90456074628851
-0.3367000000000001,-37.85767438438838
-0.3357,-36.8532293614842
-0.3347000000000001,-35.90537279057463
-0.3337,-34.90092776767045
-0.3327000000000001,-33.85404140577033
-0.3317,-32.66568391388369
-0.3307000000000001,-31.57635621298762
-0.3297,-30.444587173095588
-0.3287000000000001,-29.39770081119546
-0.3277,-28.393255788291288
-0.3267000000000001,-27.487840556377662
-0.3257,-26.568278211465387
-0.3247000000000001,-25.73359854454502
-0.3237,-24.870624651627345
-0.3227000000000001,-23.951062306715073
-0.3217,-22.946617283810895
-0.3207000000000001,-21.94217226090672
-0.3197,-20.980168576998494
-0.3187000000000001,-20.06060623208622
-0.3177,-19.155191000172596
-0.3167000000000001,-18.40539401124413
-0.3157,-17.627302796318357
-0.3147000000000001,-16.919947146385837
-0.3137,-16.184297270456018
-0.3127000000000001,-15.448647394526201
-0.3117,-14.57152638860988
-0.3107000000000001,-13.654793466297335
-0.3097,-12.781916594280606
-0.3087000000000001,-11.952895772559694
-0.3077,-11.211587051430415
-0.3067000000000001,-10.557990430892769
-0.30569999999999997,-9.85912304875944
-0.3047000000000001,-9.293238528813426
-0.30369999999999997,-8.638227196975913
-0.3027000000000001,-7.940774526142452
-0.30169999999999997,-7.155609754717355
-0.3007000000000001,-6.414301033588076
-0.29969999999999997,-5.629136262162981
-0.2987000000000001,-4.9302688800296535
-0.29769999999999996,-4.23281620919619
-0.2967000000000001,-3.6655169779503103
-0.29569999999999996,-3.1859298472960624
-0.2947000000000001,-2.618630616050183
-0.29369999999999996,-2.095187435100119
-0.29270000000000007,-1.5293029151541047
-0.29169999999999996,-0.8308599464107361
-0.29070000000000007,-0.1766974413531431
-0.28969999999999996,0.5647527509061226
-0.28870000000000007,1.175483619057859
-0.28769999999999996,1.6990682711379093
-0.28670000000000007,2.2225114520879723
-0.28569999999999995,2.658242532446404
-0.28470000000000006,3.0939736128048354
-0.28369999999999995,3.5749754547589476
-0.28270000000000006,4.054562585413195
-0.28169999999999995,4.664303155655026
-0.28070000000000006,5.231602386900906
-0.27969999999999995,5.8427576684426015
-0.27870000000000006,6.366200849392665
-0.27769999999999995,6.889644030342729
-0.27670000000000006,7.237663010109527
-0.27569999999999995,7.674808801767824
-0.27470000000000006,7.980386442538672
-0.27369999999999994,8.416117522897103
-0.27270000000000005,8.80799255295972
-0.27169999999999994,9.287579683613965
-0.27070000000000005,9.854878914859846
-0.26969999999999994,10.37832209580991
-0.26870000000000005,10.857909226464155
-0.26769999999999994,11.295055018122452
-0.26670000000000005,11.686930048185067
-0.26569999999999994,11.992507688955916
