Potential V vs RHE, Current mA cm-2
0.013299999999999867,-2.008890045808352
0.012299999999999978,-5.847001802342197
0.011299999999999866,-8.85609273715513
0.010299999999999976,-11.299299152022046
0.009299999999999864,-13.436927926118118
0.008299999999999974,-15.264734925543747
0.007299999999999862,-16.792623129397985
0.006299999999999972,-18.15074597726842
0.00529999999999986,-19.367397695152352
0.0042999999999999705,-20.414284057052477
0.0032999999999998586,-21.333846401964752
0.0022999999999999687,-22.069496277894572
0.0012999999999998568,-22.776851927827092
0.00029999999999996696,-23.300295108777156
-0.000700000000000145,-23.823738289727217
-0.0017000000000000348,-24.34718147067728
-0.0027000000000001467,-24.814036199632742
-0.0037000000000000366,-25.295038041586857
-0.0047000000000001485,-25.73359854454502
-0.005700000000000038,-26.17215904750318
-0.00670000000000015,-26.61071955046134
-0.00770000000000004,-27.049280053419505
-0.008700000000000152,-27.38881076538711
-0.009700000000000042,-27.700047251357418
-0.010700000000000154,-27.912253946337174
-0.011700000000000044,-28.13860775431558
-0.012700000000000156,-28.308373110299385
-0.013700000000000045,-28.393255788291288
-0.014700000000000157,-28.577168257273744
-0.015700000000000047,-28.746933613257543
-0.01670000000000016,-28.8742576302454
-0.01770000000000005,-29.058170099227848
-0.01870000000000016,-29.31281813320356
-0.01970000000000005,-29.525024828183312
-0.020700000000000163,-29.751378636161718
-0.021700000000000053,-29.921143992145527
-0.022700000000000164,-30.10505646112798
-0.023700000000000054,-30.189939139119886
-0.024700000000000166,-30.274821817111786
-0.025700000000000056,-30.317263156107735
-0.026700000000000168,-30.359704495103685
-0.027700000000000058,-30.402145834099635
-0.02870000000000017,-30.444587173095588
-0.02970000000000006,-30.571911190083444
-0.03070000000000017,-30.71338232006995
-0.03170000000000006,-30.79826499806185
-0.03270000000000017,-30.968030354045652
-0.03370000000000006,-31.095354371033505
-0.034700000000000175,-31.27926684001596
-0.035700000000000065,-31.36414951800786
-0.03670000000000018,-31.40659085700382
-0.03770000000000007,-31.449032195999767
-0.03870000000000018,-31.49147353499572
-0.03970000000000007,-31.449032195999767
-0.04070000000000018,-31.449032195999767
-0.04170000000000007,-31.49147353499572
-0.04270000000000018,-31.533914873991666
-0.04370000000000007,-31.618797551983565
-0.044700000000000184,-31.76026868197007
-0.045700000000000074,-31.887592698957924
-0.046700000000000186,-32.01491671594578
-0.047700000000000076,-32.184682071929586
-0.04870000000000019,-32.24127052392419
-0.04970000000000008,-32.368594540912035
-0.05070000000000019,-32.368594540912035
-0.05170000000000008,-32.368594540912035
-0.05270000000000019,-32.32615320191609
-0.05370000000000008,-32.368594540912035
-0.05470000000000019,-32.32615320191609
-0.05570000000000008,-32.41103587990799
-0.056700000000000195,-32.45347721890394
-0.057700000000000085,-32.58080123589179
-0.058700000000000196,-32.62324257488775
-0.059700000000000086,-32.84959638286615
-0.0607000000000002,-32.97692039985401
-0.06170000000000009,-33.10424441684186
-0.0627000000000002,-33.18912709483376
-0.06370000000000009,-33.18912709483376
-0.0647000000000002,-33.231568433829715
-0.06570000000000009,-33.18912709483376
-0.0667000000000002,-33.14668575583781
-0.0677000000000001,-33.14668575583781
-0.0687000000000002,-33.18912709483376
-0.0697000000000001,-33.288156885824314
-0.07070000000000021,-33.373039563816214
-0.0717000000000001,-33.50036358080407
-0.07270000000000021,-33.627687597791926
-0.0737000000000001,-33.755011614779775
-0.07470000000000021,-33.93892408376223
-0.0757000000000001,-33.98136542275818
-0.07670000000000021,-34.10868943974604
-0.0777000000000001,-34.10868943974604
-0.07870000000000021,-34.10868943974604
-0.0797000000000001,-34.10868943974604
-0.08070000000000022,-34.06624810075008
-0.0817000000000001,-34.10868943974604
-0.08270000000000022,-34.15113077874198
-0.08370000000000011,-34.236013456733886
-0.08470000000000022,-34.377484586720385
-0.08570000000000011,-34.50480860370825
-0.08670000000000022,-34.67457395969205
-0.08770000000000011,-34.85848642867451
-0.08870000000000022,-34.98581044566235
-0.08970000000000011,-35.07069312365426
-0.09070000000000022,-35.07069312365426
-0.09170000000000011,-35.07069312365426
-0.09270000000000023,-35.11313446265021
-0.09370000000000012,-35.11313446265021
-0.09470000000000023,-35.15557580164616
-0.09570000000000012,-35.240458479638065
-0.09670000000000023,-35.240458479638065
-0.09770000000000012,-35.42437094862052
-0.09870000000000023,-35.50925362661242
-0.09970000000000012,-35.679018982596226
-0.10070000000000023,-35.90537279057463
-0.10170000000000012,-36.03269680756248
-0.10270000000000024,-36.11757948555439
-0.10370000000000013,-36.20246216354629
-0.10470000000000024,-36.20246216354629
-0.10570000000000013,-36.244903502542236
-0.10670000000000024,-36.28734484153819
-0.10770000000000013,-36.28734484153819
-0.10870000000000024,-36.329786180534136
-0.10970000000000013,-36.4288159715247
-0.11070000000000024,-36.55613998851254
-0.11170000000000013,-36.725905344496354
-0.11270000000000002,-36.8532293614842
-0.11370000000000013,-37.037141830466666
-0.11470000000000002,-37.164465847454515
-0.11570000000000014,-37.334231203438314
-0.11670000000000003,-37.41911388143023
-0.11770000000000014,-37.51814367242077
-0.11870000000000003,-37.51814367242077
-0.11970000000000014,-37.56058501141672
-0.12070000000000003,-37.60302635041268
-0.12170000000000014,-37.645467689408626
-0.12270000000000003,-37.73035036740053
-0.12370000000000014,-37.85767438438838
-0.12470000000000003,-37.99914551437489
-0.12570000000000014,-38.16891087035869
-0.12670000000000003,-38.33867622634249
-0.12770000000000015,-38.522588695324956
-0.12870000000000004,-38.6499127123128
-0.12970000000000015,-38.81967806829661
-0.13070000000000004,-38.86211940729255
-0.13170000000000015,-38.90456074628851
-0.13270000000000004,-38.94700208528445
-0.13370000000000015,-38.98944342428042
-0.13470000000000004,-39.08847321527096
-0.13570000000000015,-39.173355893262865
-0.13670000000000004,-39.21579723225882
-0.13770000000000016,-39.42800392723857
-0.13870000000000005,-39.56947505722508
-0.13970000000000016,-39.78168175220483
-0.14070000000000005,-39.95144710818864
-0.14170000000000016,-40.092918238175145
-0.14270000000000005,-40.26268359415894
-0.14370000000000016,-40.30512493315489
-0.14470000000000005,-40.43244895014274
-0.14570000000000016,-40.4748902891387
-0.14670000000000005,-40.51733162813464
-0.14770000000000016,-40.559772967130606
-0.14870000000000005,-40.701244097117105
-0.14970000000000017,-40.743685436113054
-0.15070000000000006,-40.95589213109281
-0.15170000000000017,-41.139804600075266
-0.15270000000000006,-41.352011295055014
-0.15370000000000017,-41.56421799003478
-0.15470000000000006,-41.74813045901723
-0.15570000000000017,-41.91789581500104
-0.15670000000000006,-42.04521983198889
-0.15770000000000017,-42.130102509980794
-0.15870000000000006,-42.229132300971344
-0.15970000000000018,-42.2715736399673
-0.16070000000000007,-42.3564563179592
-0.16170000000000018,-42.4413389959511
-0.16270000000000007,-42.568663012938956
-0.16370000000000018,-42.752575481921404
-0.16470000000000007,-42.96478217690117
-0.16570000000000018,-43.134547532884966
-0.16670000000000007,-43.36090134086337
-0.16770000000000018,-43.657990713835034
-0.16870000000000007,-43.79946184382153
-0.16970000000000018,-43.96922719980534
-0.17070000000000007,-44.011668538801295
-0.17170000000000019,-44.138992555789144
-0.17270000000000008,-44.223875233781044
-0.1737000000000002,-44.3229050247716
-0.17470000000000008,-44.36534636376755
-0.1757000000000002,-44.535111719751356
-0.17670000000000008,-44.66243573673921
-0.1777000000000002,-44.88878954471762
-0.17870000000000008,-45.05855490070142
-0.1797000000000002,-45.36979138667173
-0.18070000000000008,-45.581998081651484
-0.1817000000000002,-45.85079322862584
-0.18270000000000008,-45.97811724561369
-0.1837000000000002,-46.10544126260155
-0.1847000000000001,-46.27520661858535
-0.1857000000000002,-46.3176479575813
-0.1867000000000001,-46.41667774857186
-0.1877000000000002,-46.501560426563756
-0.1887000000000001,-46.628884443551605
-0.1897000000000002,-46.79864979953541
-0.1907000000000001,-47.02500360751382
-0.1917000000000001,-47.23721030249357
-0.19269999999999998,-47.46356411047198
-0.1937000000000001,-47.71821214444768
-0.19469999999999998,-47.987007291422046
-0.1957000000000001,-48.156772647405845
-0.19669999999999999,-48.36897934238561
-0.1977000000000001,-48.45386202037751
-0.1987,-48.59533315036401
-0.1997000000000001,-48.68021582835591
-0.2007,-48.80753984534376
-0.2017000000000001,-48.93486386233162
-0.2027,-49.076334992318124
-0.2037000000000001,-49.33098302629383
-0.2047,-49.557336834272235
-0.2057000000000001,-49.81198486824794
-0.2067,-50.0807800152223
-0.2077000000000001,-50.335428049198
-0.2087,-50.547634744177756
-0.2097000000000001,-50.77398855215617
-0.2107,-50.943753908139975
-0.2117000000000001,-51.071077925127824
-0.2127,-51.17010771611838
-0.2137000000000001,-51.29743173310623
-0.2147,-51.46719708909004
-0.2157000000000001,-51.73599223606439
-0.2167,-51.90575759204819
-0.21770000000000012,-52.17455273902255
-0.2187,-52.42920077299826
-0.21970000000000012,-52.69799591997262
-0.2207,-52.95264395394832
-0.22170000000000012,-53.22143910092268
-0.2227,-53.433645795902436
-0.22370000000000012,-53.603411151886235
-0.2247,-53.7873236208687
-0.22570000000000012,-53.91464763785655
-0.2267,-54.0419716548444
-0.22770000000000012,-54.16929567183226
-0.22870000000000001,-54.39564947981066
-0.22970000000000013,-54.56541483579447
-0.23070000000000002,-54.876651321764776
-0.23170000000000013,-55.13129935574048
-0.23270000000000002,-55.400094502714836
-0.23370000000000013,-55.6971838756865
-0.23470000000000002,-56.008420361656796
-0.23570000000000013,-56.30550973462846
-0.23670000000000002,-56.489422203610914
-0.2376999999999999,-56.70162889859067
-0.23870000000000002,-56.88554136757313
-0.2396999999999999,-57.05530672355693
-0.24070000000000003,-57.182630740544774
-0.24169999999999991,-57.45142588751914
-0.24270000000000003,-57.62119124350295
-0.24369999999999992,-57.974869068469204
-0.24470000000000003,-58.22951710244491
-0.24569999999999992,-58.54075358841522
-0.24670000000000003,-58.83784296138688
-0.24769999999999992,-59.23396212534908
-0.24870000000000003,-59.44616882032884
-0.24969999999999992,-59.7998466452951
-0.25070000000000003,-59.9696120012789
-0.2516999999999999,-60.23840714825326
-0.25270000000000004,-60.40817250423707
-0.2536999999999999,-60.63452631221547
-0.25470000000000004,-60.889174346191176
-0.2556999999999999,-61.11552815416958
-0.25670000000000004,-61.412617527141244
-0.25769999999999993,-61.72385401311155
-0.25870000000000004,-62.06338472507916
-0.25969999999999993,-62.41706255004542
-0.26070000000000004,-62.77074037501168
-0.26169999999999993,-63.11027108697928
-0.26270000000000004,-63.46394891194555
-0.26369999999999993,-63.77518539791585
-0.26470000000000005,-63.98739209289561
-0.26569999999999994,-64.25618723986996
-0.26670000000000005,-64.55327661284163
-0.26769999999999994,-64.72304196882543
-0.26870000000000005,-65.0767197937917
-0.26969999999999994,-65.34551494076604
-0.27070000000000005,-65.7274869917296
-0.27169999999999994,-66.12360615569182
-0.27270000000000005,-66.56216665864997
-0.27369999999999994,-66.91584448361623
-0.27470000000000006,-67.34025787357575
-0.27569999999999995,-67.693935698542
-0.27670000000000006,-68.13249620150016
-0.27769999999999995,-68.34470289647993
-0.27870000000000006,-68.69838072144618
-0.27969999999999995,-68.91058741642594
-0.28070000000000006,-69.22182390239624
-0.28169999999999995,-69.57550172736251
-0.28270000000000006,-69.91503243933012
-0.28369999999999995,-70.31115160329232
-0.28470000000000006,-70.79215344524643
-0.28569999999999995,-71.18827260920865
-0.28670000000000007,-71.7117157901587
-0.28769999999999996,-72.19271763211282
-0.28870000000000007,-72.63127813507097
-0.28969999999999996,-73.09813286402644
-0.29070000000000007,-73.40936934999675
-0.29169999999999996,-73.80548851395896
-0.29270000000000007,-74.14501922592657
-0.29369999999999996,-74.49869705089283
-0.2947000000000001,-74.89481621485504
-0.29569999999999996,-75.29093537881725
-0.2967000000000001,-75.6729074297808
-0.29769999999999996,-76.19635061073087
-0.2987000000000001,-76.67735245268499
-0.29969999999999997,-77.28567831162695
-0.3007000000000001,-77.80912149257702
-0.30169999999999997,-78.33256467352709
-0.3027000000000001,-78.91259630647174
-0.30369999999999997,-79.33700969643127
-0.3047000000000001,-79.7755701993894
-0.30569999999999997,-80.25657204134353
-0.3067000000000001,-80.65269120530574
-0.3077,-81.13369304725985
-0.3087000000000001,-81.61469488921396
-0.3097,-82.09569673116808
-0.3107000000000001,-82.70402259011003
-0.3117,-83.26990711005605
-0.3127000000000001,-83.87823296899803
-0.3137,-84.52900016693594
-0.3147000000000001,-85.13732602587791
-0.3157,-85.75979899781852
-0.3167000000000001,-86.36812485676049
-0.3177,-86.89156803771054
-0.3187000000000001,-87.41501121866061
-0.3197,-87.89601306061473
-0.3207000000000001,-88.4194562415648
-0.3217,-89.02778210050676
-0.3227000000000001,-89.59366662045278
-0.3237,-90.24443381839069
-0.3247000000000001,-90.93764235532454
-0.3257,-91.64499800525708
-0.3267000000000001,-92.3806478811869
-0.3277,-93.13044487011537
-0.3287000000000001,-93.82365340704924
-0.3297,-94.5168619439831
-0.3307000000000001,-95.18177625491967
-0.3317,-95.83254345285758
-0.3327000000000001,-96.44086931179956
-0.3337,-97.09163650973747
-0.3347000000000001,-97.78484504667132
-0.3357,-98.4497593576079
-0.3367000000000001,-99.18540923353773
-0.3377,-99.97764756146215
-0.3387000000000001,-100.71329743739196
-0.3397,-101.59041844330828
-0.3407000000000001,-102.45339233622596
-0.3417,-103.28807200314633
-0.3427000000000001,-104.16519300906265
-0.3437,-104.90084288499246
-0.3447000000000001,-105.63649276092228
-0.3457,-106.47117242784265
-0.3467000000000001,-107.20682230377247
-0.3477,-107.95661929270095
-0.3487000000000001,-108.83374029861727
-0.3497,-109.61183151354304
-0.3507000000000001,-110.6162765364472
-0.3517,-111.5358388813595
-0.3527000000000001,-112.44125411327312
-0.3537,-113.44569913617728
-0.3547000000000001,-114.40770282008553
-0.3557,-115.4121478429897
-0.35670000000000013,-116.33171018790196
-0.3577,-117.25127253281424
-0.35870000000000013,-118.15668776472786
-0.3597,-119.07625010964013
-0.36070000000000013,-119.9109297765605
-0.3617,-120.9153747994647
-0.3626999999999999,-121.86323137037427
-0.3637,-122.91011773227437
-0.3646999999999999,-123.95700409417452
-0.3657,-125.10292024706521
-0.3666999999999999,-126.14980660896532
-0.3677,-127.32401698785328
-0.3686999999999999,-128.41334468874936
-0.36970000000000003,-129.5451137286414
-0.3706999999999999,-130.5495587515456
-0.37170000000000003,-131.63888645244168
-0.3726999999999999,-132.64333147534586
-0.37370000000000003,-133.73265917624192
-0.3746999999999999,-134.86442821613394
-0.37570000000000003,-135.91131457803408
-0.3766999999999999,-137.08552495692206
-0.37770000000000004,-138.3163237878046
-0.3786999999999999,-139.53297550568857
-0.37970000000000004,-140.79206856256846
-0.3806999999999999,-142.03701450644968
-0.38170000000000004,-143.3102546763282
-0.38269999999999993,-144.58349484620675
-0.38370000000000004,-145.85673501608528
-0.38469999999999993,-146.9885040559773
-0.38570000000000004,-148.12027309586935
-0.38669999999999993,-146.1396772760583
-0.38570000000000004,-139.05197366373446
-0.38469999999999993,-133.52045248126214
-0.38370000000000004,-128.66799272272507
-0.38269999999999993,-124.57947706611512
-0.38170000000000004,-120.9153747994647
-0.3806999999999999,-117.50592056678994
-0.37970000000000004,-114.40770282008553
-0.3786999999999999,-111.5358388813595
-0.37770000000000004,-108.64982782963483
-0.3766999999999999,-106.0326119248845
-0.37570000000000003,-103.45783735913014
-0.3746999999999999,-100.88306279337576
-0.37370000000000003,-98.40731801861195
-0.3726999999999999,-96.0871914868333
-0.37170000000000003,-93.78121206805329
-0.3706999999999999,-91.60255666626112
-0.36970000000000003,-89.50878394246087
-0.3686999999999999,-87.41501121866061
-0.3677,-85.44856251184822
-0.3666999999999999,-83.56699648302772
-0.3657,-81.78446024519776
-0.3646999999999999,-79.90289421637728
-0.3637,-78.07791663955136
-0.3626999999999999,-76.23879194972683
-0.3617,-74.32893169490903
-0.36070000000000013,-72.48980700508447
-0.3597,-70.66482942825859
-0.35870000000000013,-68.96717586842054
-0.3577,-67.25537519558385
-0.35670000000000013,-65.60016297474175
-0.3557,-64.02983343189156
-0.3547000000000001,-62.501945228037314
-0.3537,-61.01649836317903
-0.3527000000000001,-59.587639950315335
-0.3517,-58.14463442445301
-0.3507000000000001,-56.65918755959472
-0.3497,-55.17374069473642
-0.3487000000000001,-53.64585249088219
-0.3477,-52.2169940780185
-0.3467000000000001,-50.68910587416426
-0.3457,-49.16121767031002
-0.3447000000000001,-47.80309482243959
-0.3437,-46.41667774857186
-0.3427000000000001,-45.10099623969737
-0.3417,-43.88434452181344
-0.3407000000000001,-42.6111043519349
-0.3397,-41.43689397304693
-0.3387000000000001,-40.220242255162994
-0.3377,-38.98944342428042
-0.3367000000000001,-37.85767438438838
-0.3357,-36.64102266650445
-0.3347000000000001,-35.32534115762997
-0.3337,-34.06624810075008
-0.3327000000000001,-32.807155043870196
-0.3317,-31.618797551983565
-0.3307000000000001,-30.487028512091538
-0.3297,-29.39770081119546
-0.3287000000000001,-28.308373110299385
-0.3277,-27.303928087395207
-0.3267000000000001,-26.257041725495082
-0.3257,-25.337479380582806
-0.3247000000000001,-24.290593018682678
-0.3237,-23.300295108777156
-0.3227000000000001,-22.295850085872978
-0.3217,-21.149933932982297
-0.3207000000000001,-20.10304757108217
-0.3197,-19.056161209182044
-0.3187000000000001,-18.06586329927652
-0.3177,-17.103859615368293
-0.3167000000000001,-16.141855931460068
-0.3157,-15.222293586547794
-0.3147000000000001,-14.444202371622024
-0.3137,-13.610937416001518
-0.3127000000000001,-12.825772644576423
-0.3117,-11.996751822855511
-0.3107000000000001,-11.123874950838783
-0.3097,-10.25241279012192
-0.3087000000000001,-9.379535918105192
-0.3077,-8.464217707092514
-0.3067000000000001,-7.591340835075788
-0.30569999999999997,-6.6760226240631075
-0.3047000000000001,-5.890857852638012
-0.30369999999999997,-5.017980980621284
-0.3027000000000001,-4.3205283097878215
-0.30169999999999997,-3.6655169779503103
-0.3007000000000001,-2.968064307116847
-0.29969999999999997,-2.226755585987568
-0.2987000000000001,-1.6156003044458718
-0.29769999999999996,-0.9181476336124089
-0.2967000000000001,-0.26384365742482935
-0.29569999999999996,0.5211796428702795
-0.2947000000000001,1.3063444142953748
-0.29369999999999996,2.004645911908757
-0.29270000000000007,2.7898106833338523
-0.29169999999999996,3.5311194044631313
-0.29070000000000007,4.140859974704963
-0.28969999999999996,4.795871306542475
-0.28870000000000007,5.319314487492538
-0.28769999999999996,5.886613718738418
-0.28670000000000007,6.452498238684432
-0.28569999999999995,6.933500080638546
-0.28470000000000006,7.49938460058456
-0.28369999999999995,8.066683831830439
-0.28270000000000006,8.72169516366795
-0.28169999999999995,9.331435733909782
-0.28070000000000006,9.986447065747294
-0.27969999999999995,10.596187635989125
-0.27870000000000006,11.251198967826637
-0.27769999999999995,11.774642148776701
-0.27670000000000006,12.341941380022579
-0.27569999999999995,12.77767246038101
-0.27470000000000006,13.213403540739444
-0.27369999999999994,13.69299067139369
-0.27270000000000005,14.08628041275617
-0.27169999999999994,14.529085049613924
-0.27070000000000005,14.995939778569388
-0.26969999999999994,15.4769416205235
-0.26870000000000005,16.04282614046952
-0.26769999999999994,16.56626932141958
-0.26670000000000005,17.146300954364243
-0.26569999999999994,17.71218547431026
-0.26470000000000005,18.19318731626437
