Potential V vs RHE, Current mA cm-2
0.013299999999999867,-1.7910245056291363
0.012299999999999978,-4.974124930325469
0.011299999999999866,-7.155609754717355
0.010299999999999976,-8.85609273715513
0.009299999999999864,-10.164700689530287
0.008299999999999974,-11.123874950838783
0.007299999999999862,-11.73503023238048
0.006299999999999972,-12.170761312738911
0.00529999999999986,-12.651763154693022
0.0042999999999999705,-13.175206335643086
0.0032999999999998586,-13.698649516593148
0.0022999999999999687,-14.090524546655764
0.0012999999999998568,-14.345172580631472
0.00029999999999996696,-14.444202371622024
-0.000700000000000145,-14.529085049613924
-0.0017000000000000348,-14.65640906660178
-0.0027000000000001467,-14.967645552572087
-0.0037000000000000366,-15.264734925543747
-0.0047000000000001485,-15.491088733522153
-0.005700000000000038,-15.491088733522153
-0.00670000000000015,-15.448647394526201
-0.00770000000000004,-15.448647394526201
-0.008700000000000152,-15.618412750510005
-0.009700000000000042,-15.78817810649381
-0.010700000000000154,-16.014531914472215
-0.011700000000000044,-16.141855931460068
-0.012700000000000156,-16.056973253468165
-0.013700000000000045,-15.91550212348166
-0.014700000000000157,-15.972090575476265
-0.015700000000000047,-16.099414592464115
-0.01670000000000016,-16.311621287443874
-0.01770000000000005,-16.438945304431726
-0.01870000000000016,-16.396503965435777
-0.01970000000000005,-16.354062626439823
-0.020700000000000163,-16.269179948447924
-0.021700000000000053,-16.311621287443874
-0.022700000000000164,-16.438945304431726
-0.023700000000000054,-16.665299112410132
-0.024700000000000166,-16.750181790402035
-0.025700000000000056,-16.665299112410132
-0.026700000000000168,-16.53797509542228
-0.027700000000000058,-16.53797509542228
-0.02870000000000017,-16.622857773414182
-0.02970000000000006,-16.750181790402035
-0.03070000000000017,-16.919947146385837
-0.03170000000000006,-16.919947146385837
-0.03270000000000017,-16.877505807389888
-0.03370000000000006,-16.750181790402035
-0.034700000000000175,-16.750181790402035
-0.035700000000000065,-16.919947146385837
-0.03670000000000018,-17.061418276372343
-0.03770000000000007,-17.188742293360193
-0.03870000000000018,-17.146300954364243
-0.03970000000000007,-17.061418276372343
-0.04070000000000018,-17.018976937376394
-0.04170000000000007,-17.018976937376394
-0.04270000000000018,-17.188742293360193
-0.04370000000000007,-17.358507649344002
-0.044700000000000184,-17.40094898833995
-0.045700000000000074,-17.40094898833995
-0.046700000000000186,-17.316066310348052
-0.047700000000000076,-17.231183632356142
-0.04870000000000019,-17.316066310348052
-0.04970000000000008,-17.48583166633185
-0.05070000000000019,-17.669744135314307
-0.05170000000000008,-17.71218547431026
-0.05270000000000019,-17.584861457322408
-0.05370000000000008,-17.48583166633185
-0.05470000000000019,-17.48583166633185
-0.05570000000000008,-17.627302796318357
-0.056700000000000195,-17.797068152302163
-0.057700000000000085,-17.966833508285966
-0.058700000000000196,-17.924392169290012
-0.059700000000000086,-17.881950830294063
-0.0607000000000002,-17.75462681330621
-0.06170000000000009,-17.797068152302163
-0.0627000000000002,-18.009274847281915
-0.06370000000000009,-18.15074597726842
-0.0647000000000002,-18.23562865526032
-0.06570000000000009,-18.19318731626437
-0.0667000000000002,-18.06586329927652
-0.0677000000000001,-18.06586329927652
-0.0687000000000002,-18.15074597726842
-0.0697000000000001,-18.320511333252224
-0.07070000000000021,-18.49027668923603
-0.0717000000000001,-18.49027668923603
-0.07270000000000021,-18.44783535024008
-0.0737000000000001,-18.362952672248177
-0.07470000000000021,-18.320511333252224
-0.0757000000000001,-18.49027668923603
-0.07670000000000021,-18.631747819222536
-0.0777000000000001,-18.80151317520634
-0.07870000000000021,-18.843954514202288
-0.0797000000000001,-18.759071836210385
-0.08070000000000022,-18.674189158218486
-0.0817000000000001,-18.716630497214435
-0.08270000000000022,-18.92883719219419
-0.08370000000000011,-19.155191000172596
-0.08470000000000022,-19.197632339168546
-0.08570000000000011,-19.197632339168546
-0.08670000000000022,-19.056161209182044
-0.08770000000000011,-19.056161209182044
-0.08870000000000022,-19.197632339168546
-0.08970000000000011,-19.3249563561564
-0.09070000000000022,-19.49472171214021
-0.09170000000000011,-19.579604390132108
-0.09270000000000023,-19.452280373144255
-0.09370000000000012,-19.367397695152352
-0.09470000000000023,-19.3249563561564
-0.09570000000000012,-19.537163051136158
-0.09670000000000023,-19.678634181122664
-0.09770000000000012,-19.848399537106463
-0.09870000000000023,-19.805958198110513
-0.09970000000000012,-19.805958198110513
-0.10070000000000023,-19.721075520118614
-0.10170000000000012,-19.721075520118614
-0.10270000000000024,-19.93328221509837
-0.10370000000000013,-20.10304757108217
-0.10470000000000024,-20.244518701068674
-0.10570000000000013,-20.202077362072725
-0.10670000000000024,-20.10304757108217
-0.10770000000000013,-20.10304757108217
-0.10870000000000024,-20.202077362072725
-0.10970000000000013,-20.414284057052477
-0.11070000000000024,-20.584049413036283
-0.11170000000000013,-20.683079204026836
-0.11270000000000002,-20.584049413036283
-0.11370000000000013,-20.541608074040333
-0.11470000000000002,-20.541608074040333
-0.11570000000000014,-20.72552054302279
-0.11670000000000003,-20.93772723800254
-0.11770000000000014,-21.065051254990397
-0.11870000000000003,-21.107492593986347
-0.11970000000000014,-21.022609915994444
-0.12070000000000003,-20.980168576998494
-0.12170000000000014,-21.065051254990397
-0.12270000000000003,-21.248963723972853
-0.12370000000000014,-21.461170418952605
-0.12470000000000003,-21.58849443594046
-0.12570000000000014,-21.54605309694451
-0.12670000000000003,-21.461170418952605
-0.12770000000000015,-21.418729079956652
-0.12870000000000004,-21.54605309694451
-0.12970000000000015,-21.729965565926964
-0.13070000000000004,-21.94217226090672
-0.13170000000000015,-22.027054938898623
-0.13270000000000004,-21.94217226090672
-0.13370000000000015,-21.857289582914817
-0.13470000000000004,-21.899730921910766
-0.13570000000000015,-22.027054938898623
-0.13670000000000004,-22.295850085872978
-0.13770000000000016,-22.46561544185678
-0.13870000000000005,-22.508056780852733
-0.13970000000000016,-22.42317410286083
-0.14070000000000005,-22.38073276386488
-0.14170000000000016,-22.46561544185678
-0.14270000000000005,-22.67782213683654
-0.14370000000000016,-22.904175944814945
-0.14470000000000005,-23.031499961802798
-0.14570000000000016,-23.073941300798747
-0.14670000000000005,-22.989058622806844
-0.14770000000000016,-22.946617283810895
-0.14870000000000005,-23.073941300798747
-0.14970000000000017,-23.342736447773106
-0.15070000000000006,-23.51250180375691
-0.15170000000000017,-23.597384481748815
-0.15270000000000006,-23.597384481748815
-0.15370000000000017,-23.51250180375691
-0.15470000000000006,-23.597384481748815
-0.15570000000000017,-23.767149837732617
-0.15670000000000006,-23.951062306715073
-0.15770000000000017,-24.078386323702922
-0.15870000000000006,-24.16326900169483
-0.15970000000000018,-24.120827662698876
-0.16070000000000007,-24.078386323702922
-0.16170000000000018,-24.16326900169483
-0.16270000000000007,-24.34718147067728
-0.16370000000000018,-24.601829504652986
-0.16470000000000007,-24.771594860636792
-0.16570000000000018,-24.729153521640843
-0.16670000000000007,-24.729153521640843
-0.16770000000000018,-24.686712182644893
-0.16870000000000007,-24.870624651627345
-0.16970000000000018,-25.0828313466071
-0.17070000000000007,-25.252596702590903
-0.17170000000000019,-25.39406783257741
-0.17270000000000008,-25.337479380582806
-0.1737000000000002,-25.252596702590903
-0.17470000000000008,-25.337479380582806
-0.1757000000000002,-25.521391849565262
-0.17670000000000008,-25.73359854454502
-0.1777000000000002,-25.959952352523427
-0.17870000000000008,-25.959952352523427
-0.1797000000000002,-25.959952352523427
-0.18070000000000008,-25.959952352523427
-0.1817000000000002,-26.002393691519377
-0.18270000000000008,-26.21460038649913
-0.1837000000000002,-26.483395533473487
-0.1847000000000001,-26.65316088945729
-0.1857000000000002,-26.69560222845324
-0.1867000000000001,-26.568278211465387
-0.1877000000000002,-26.65316088945729
-0.1887000000000001,-26.822926245441096
-0.1897000000000002,-27.049280053419505
-0.1907000000000001,-27.303928087395207
-0.1917000000000001,-27.38881076538711
-0.19269999999999998,-27.38881076538711
-0.1937000000000001,-27.303928087395207
-0.19469999999999998,-27.38881076538711
-0.1957000000000001,-27.615164573365515
-0.19669999999999999,-27.827371268345274
-0.1977000000000001,-28.09616641531963
-0.1987,-28.13860775431558
-0.1997000000000001,-28.13860775431558
-0.2007,-28.13860775431558
-0.2017000000000001,-28.18104909331153
-0.2027,-28.435697127287238
-0.2037000000000001,-28.704492274261593
-0.2047,-28.8742576302454
-0.2057000000000001,-28.8742576302454
-0.2067,-28.8742576302454
-0.2077000000000001,-28.91669896924135
-0.2087,-29.100611438223805
-0.2097000000000001,-29.35525947219951
-0.2107,-29.62405461917387
-0.2117000000000001,-29.751378636161718
-0.2127,-29.751378636161718
-0.2137000000000001,-29.708937297165768
-0.2147,-29.836261314153624
-0.2157000000000001,-30.147497800123933
-0.2167,-30.359704495103685
-0.21770000000000012,-30.571911190083444
-0.2187,-30.670940981073993
-0.21970000000000012,-30.71338232006995
-0.2207,-30.71338232006995
-0.22170000000000012,-30.8407063370578
-0.2227,-31.095354371033505
-0.22370000000000012,-31.36414951800786
-0.2247,-31.57635621298762
-0.22570000000000012,-31.661238890979522
-0.2267,-31.618797551983565
-0.22770000000000012,-31.717827342974125
-0.22870000000000001,-31.930034037953877
-0.22970000000000013,-32.24127052392419
-0.23070000000000002,-32.58080123589179
-0.23170000000000013,-32.70812525287965
-0.23270000000000002,-32.764713704874254
-0.23370000000000013,-32.807155043870196
-0.23470000000000002,-32.93447906085806
-0.23570000000000013,-33.18912709483376
-0.23670000000000002,-33.50036358080407
-0.2376999999999999,-33.712570275783825
-0.23870000000000002,-33.93892408376223
-0.2396999999999999,-33.98136542275818
-0.24070000000000003,-34.02380676175414
-0.24169999999999991,-34.236013456733886
-0.24270000000000003,-34.5472499427042
-0.24369999999999992,-34.90092776767045
-0.24470000000000003,-35.07069312365426
-0.24569999999999992,-35.240458479638065
-0.24670000000000003,-35.282899818634014
-0.24769999999999992,-35.42437094862052
-0.24870000000000003,-35.679018982596226
-0.24969999999999992,-35.99025546856653
-0.25070000000000003,-36.329786180534136
-0.2516999999999999,-36.5985813275085
-0.25270000000000004,-36.725905344496354
-0.2536999999999999,-36.768346683492304
-0.25470000000000004,-36.99470049147071
-0.2556999999999999,-37.291789864442364
-0.25670000000000004,-37.73035036740053
-0.25769999999999993,-38.04158685337084
-0.25870000000000004,-38.211352209354644
-0.25969999999999993,-38.33867622634249
-0.26070000000000004,-38.42355890433439
-0.26169999999999993,-38.692354051308754
-0.26270000000000004,-39.08847321527096
-0.26369999999999993,-39.51288660523048
-0.26470000000000005,-39.82412309120078
-0.26569999999999994,-39.99388844718459
-0.26670000000000005,-40.177800916167044
-0.26769999999999994,-40.34756627215084
-0.26870000000000005,-40.701244097117105
-0.26969999999999994,-41.083216148080666
-0.27070000000000005,-41.52177665103883
-0.27169999999999994,-41.83301313700913
-0.27270000000000005,-41.96033715399699
-0.27369999999999994,-42.186690961975394
-0.27470000000000006,-42.39889765695515
-0.27569999999999995,-42.837458159913304
-0.27670000000000006,-43.31846000186743
-0.27769999999999995,-43.70043205283099
-0.27870000000000006,-44.011668538801295
-0.27969999999999995,-44.181433894785094
-0.28070000000000006,-44.4077877027635
-0.28169999999999995,-44.704877075735155
-0.28270000000000006,-45.22832025668522
-0.28369999999999995,-45.75176343763528
-0.28470000000000006,-46.147882601597495
-0.28569999999999995,-46.45911908756781
-0.28670000000000007,-46.67132578254756
-0.28769999999999996,-46.982562268517874
-0.28870000000000007,-47.36453431948143
-0.28969999999999996,-47.93041883942744
-0.29070000000000007,-48.45386202037751
-0.29169999999999996,-48.89242252333566
-0.29270000000000007,-49.20365900930597
-0.29369999999999996,-49.458307043281685
-0.2947000000000001,-49.89686754623985
-0.29569999999999996,-50.37786938819396
-0.2967000000000001,-50.943753908139975
-0.29769999999999996,-51.509638428085985
-0.2987000000000001,-51.948198931044146
-0.29969999999999997,-52.25943541701445
-0.3007000000000001,-52.59896612898206
-0.30169999999999997,-53.079967970936174
-0.3027000000000001,-53.64585249088219
-0.30369999999999997,-54.26832546282281
-0.3047000000000001,-54.834209982768826
-0.30569999999999997,-55.21618203373238
-0.3067000000000001,-55.56985985869864
-0.3077,-56.008420361656796
-0.3087000000000001,-56.57430488160282
-0.3097,-57.22507207954074
-0.3107000000000001,-57.8333979384827
-0.3117,-58.39928245842871
-0.3127000000000001,-58.880284300382826
-0.3137,-59.27640346434504
-0.3147000000000001,-59.7998466452951
-0.3157,-60.54964363422357
-0.3167000000000001,-61.242852171157445
-0.3177,-61.89361936909536
-0.3187000000000001,-62.459503889041365
-0.3197,-62.94050573099548
-0.3207000000000001,-63.46394891194555
-0.3217,-64.0722747708875
-0.3227000000000001,-64.86451309881193
-0.3237,-65.64260431373769
-0.3247000000000001,-66.29337151167562
-0.3257,-66.91584448361623
-0.3267000000000001,-67.48172900356225
-0.3277,-68.04761352350828
-0.3287000000000001,-68.78326339943808
-0.3297,-69.61794306635846
-0.3307000000000001,-70.48091695927613
-0.3317,-71.2307139482046
-0.3327000000000001,-71.7965984681506
-0.3337,-72.36248298809663
-0.3347000000000001,-73.0556915250305
-0.3357,-73.89037119195086
-0.3367000000000001,-74.8523748758591
-0.3377,-75.71534876877676
-0.3387000000000001,-76.46514575770523
-0.3397,-77.11591295564315
-0.3407000000000001,-77.80912149257702
-0.3417,-78.60135982050144
-0.3427000000000001,-79.60580484340561
-0.3437,-80.56780852731384
-0.3447000000000001,-81.47322375922747
-0.3457,-82.26546208715187
-0.3467000000000001,-82.9162292850898
-0.3477,-83.70846761301424
-0.3487000000000001,-84.6563241839238
-0.3497,-85.61832786783202
-0.3507000000000001,-86.66521422973216
-0.3517,-87.58477657464444
-0.3527000000000001,-88.4194562415648
-0.3537,-89.15510611749461
-0.3547000000000001,-90.11710980140283
-0.3557,-91.16399616330297
-0.35670000000000013,-92.25332386419905
-0.3577,-93.34265156509512
-0.35870000000000013,-94.30465524900335
-0.3597,-95.12518780292505
-0.36070000000000013,-96.04475014783733
-0.3617,-97.00675383174556
-0.3626999999999999,-98.13852287163759
-0.3637,-99.35517458952152
-0.3646999999999999,-100.5010907424122
-0.3657,-101.50553576531638
-0.3666999999999999,-102.45339233622596
-0.3677,-103.45783735913014
-0.3686999999999999,-104.68863619001272
-0.36970000000000003,-105.94772924689259
-0.3706999999999999,-107.16438096477653
-0.37170000000000003,-108.35273845666316
-0.3726999999999999,-109.35718347956733
-0.37370000000000003,-110.34748138947285
-0.3746999999999999,-111.49339754236355
-0.37570000000000003,-112.71004926024747
-0.3766999999999999,-114.11061344711386
-0.37770000000000004,-115.36970650399375
-0.3786999999999999,-116.54391688288172
-0.37970000000000004,-117.67568592277377
-0.3806999999999999,-118.76501362366983
-0.38170000000000004,-120.03825379354835
-0.38269999999999993,-121.43881798041474
-0.38370000000000004,-122.78279371528653
-0.38469999999999993,-124.14091656315696
-0.38570000000000004,-125.35756828104091
-0.38669999999999993,-123.43356091322445
-0.38570000000000004,-117.54836190578591
-0.38469999999999993,-113.40325779718134
-0.38370000000000004,-110.1352746944931
-0.38269999999999993,-107.34829343375898
-0.38170000000000004,-104.73107752900866
-0.3806999999999999,-102.19874430225026
-0.37970000000000004,-99.75129375348374
-0.3786999999999999,-97.57263835169158
-0.37770000000000004,-95.60618964487918
-0.3766999999999999,-93.73877072905732
-0.37570000000000003,-91.94208737822873
-0.3746999999999999,-89.98978578441499
-0.37370000000000003,-88.06577841659853
-0.3726999999999999,-86.14177104878208
-0.37170000000000003,-84.40167614994809
-0.3706999999999999,-82.9162292850898
-0.36970000000000003,-81.3458997422396
-0.3686999999999999,-79.81801153838538
-0.3677,-78.12035797854733
-0.3666999999999999,-76.38026307971333
-0.3657,-74.80993353686314
-0.3646999999999999,-73.2820453330089
-0.3637,-71.92392248513846
-0.3626999999999999,-70.57994675026669
-0.3617,-69.0944998854084
-0.36070000000000013,-67.56661168155415
-0.3597,-65.99628213870396
-0.35870000000000013,-64.55327661284163
-0.3577,-63.29418355596174
-0.35670000000000013,-62.06338472507916
-0.3557,-60.84673300719523
-0.3547000000000001,-59.502757272323436
-0.3537,-58.10219308545706
-0.3527000000000001,-56.70162889859067
-0.3517,-55.484977180706736
-0.3507000000000001,-54.31076680181876
-0.3497,-53.26388043991864
-0.3487000000000001,-52.11796428702795
-0.3477,-50.85887123014807
-0.3467000000000001,-49.59977817326819
-0.3457,-48.36897934238561
-0.3447000000000001,-47.27965164148953
-0.3437,-46.27520661858535
-0.3427000000000001,-45.32735004767578
-0.3417,-44.181433894785094
-0.3407000000000001,-43.007223515897124
-0.3397,-41.79057179801318
-0.3387000000000001,-40.743685436113054
-0.3377,-39.78168175220483
-0.3367000000000001,-38.90456074628851
-0.3357,-38.04158685337084
-0.3347000000000001,-36.99470049147071
-0.3337,-35.94781412957058
-0.3327000000000001,-34.8018979766799
-0.3317,-33.85404140577033
-0.3307000000000001,-33.06180307784591
-0.3297,-32.24127052392419
-0.3287000000000001,-31.36414951800786
-0.3277,-30.444587173095588
-0.3267000000000001,-29.35525947219951
-0.3257,-28.393255788291288
-0.3247000000000001,-27.615164573365515
-0.3237,-26.86536758443705
-0.3227000000000001,-26.257041725495082
-0.3217,-25.39406783257741
-0.3207000000000001,-24.474505487665134
-0.3197,-23.55494314275286
-0.3187000000000001,-22.63538079784059
-0.3177,-21.98461359990267
-0.3167000000000001,-21.376287740960702
-0.3157,-20.72552054302279
-0.3147000000000001,-19.93328221509837
-0.3137,-19.056161209182044
-0.3127000000000001,-18.23562865526032
-0.3117,-17.542420118326454
-0.3107000000000001,-16.919947146385837
-0.3097,-16.438945304431726
-0.3087000000000001,-15.78817810649381
-0.3077,-15.01008689156804
-0.3067000000000001,-14.217848563643619
-0.30569999999999997,-13.436927926118118
-0.3047000000000001,-12.825772644576423
-0.30369999999999997,-12.302329463626359
-0.3027000000000001,-11.82274233297211
-0.30169999999999997,-11.211587051430415
-0.3007000000000001,-10.470278330301136
-0.29969999999999997,-9.728969609171857
-0.2987000000000001,-9.073958277334345
-0.29769999999999996,-8.594371146680096
-0.2967000000000001,-8.158640066321666
-0.29569999999999996,-7.679052935667419
-0.2947000000000001,-7.111753704421539
-0.29369999999999996,-6.414301033588076
-0.29270000000000007,-5.759289701750564
-0.29169999999999996,-5.191990470504685
-0.29070000000000007,-4.843971490737885
-0.28969999999999996,-4.450681749375406
-0.28870000000000007,-4.014950669016974
-0.28769999999999996,-3.403795387475278
-0.28670000000000007,-2.794054817233447
-0.28569999999999995,-2.2706116362833835
-0.28470000000000006,-1.7910245056291363
-0.28369999999999995,-1.4415908145624723
-0.28270000000000006,-1.1362961160515976
-0.28169999999999995,-0.7001406223032067
-0.28070000000000006,-0.1330535977523067
-0.27969999999999995,0.4776065348344364
-0.27870000000000006,0.9137620285828272
-0.27769999999999995,1.2626298351295453
-0.27670000000000006,1.5250587812545096
-0.27569999999999995,1.8730777610213083
-0.27470000000000006,2.30880884137974
-0.27369999999999994,2.7898106833338523
-0.27270000000000005,3.3995512535756833
-0.27169999999999994,3.7051288943465317
-0.27070000000000005,4.01070653511738
-0.26969999999999994,4.2285720752965945
-0.26870000000000005,4.534149716067443
-0.26769999999999994,5.01373684672169
