Potential V vs RHE, Current mA cm-2
0.013299999999999867,1.8292217107254924
0.012299999999999978,-0.1766974413531431
0.011299999999999866,-2.008890045808352
0.010299999999999976,-3.7093730282461257
0.009299999999999864,-5.279702571096316
0.008299999999999974,-6.762320013354876
0.007299999999999862,-8.11478401602585
0.006299999999999972,-9.293238528813426
0.00529999999999986,-10.470278330301136
0.0042999999999999705,-11.56102074249708
0.0032999999999998586,-12.607907104397206
0.0022999999999999687,-13.698649516593148
0.0012999999999998568,-14.69885040559773
0.00029999999999996696,-15.74573676749786
-0.000700000000000145,-16.750181790402035
-0.0017000000000000348,-17.71218547431026
-0.0027000000000001467,-18.631747819222536
-0.0037000000000000366,-19.452280373144255
-0.0047000000000001485,-20.286960040064624
-0.005700000000000038,-21.022609915994444
-0.00670000000000015,-21.772406904922917
-0.00770000000000004,-22.508056780852733
-0.008700000000000152,-23.24370665678255
-0.009700000000000042,-23.951062306715073
-0.010700000000000154,-24.64427084364894
-0.011700000000000044,-25.337479380582806
-0.012700000000000156,-26.044835030515326
-0.013700000000000045,-26.65316088945729
-0.014700000000000157,-27.303928087395207
-0.015700000000000047,-27.869812607341224
-0.01670000000000016,-28.478138466283188
-0.01770000000000005,-29.14305277721976
-0.01870000000000016,-29.793819975157668
-0.01970000000000005,-30.487028512091538
-0.020700000000000163,-31.19438416202406
-0.021700000000000053,-31.84515135996197
-0.022700000000000164,-32.49591855789989
-0.023700000000000054,-33.10424441684186
-0.024700000000000166,-33.670128936787876
-0.025700000000000056,-34.278454795729836
-0.026700000000000168,-34.85848642867451
-0.027700000000000058,-35.50925362661242
-0.02870000000000017,-36.16002082455034
-0.02970000000000006,-36.768346683492304
-0.03070000000000017,-37.47570233342482
-0.03170000000000006,-38.12646953136274
-0.03270000000000017,-38.734795390304704
-0.03370000000000006,-39.34312124924667
-0.034700000000000175,-39.90900576919269
-0.035700000000000065,-40.51733162813464
-0.03670000000000018,-41.139804600075266
-0.03770000000000007,-41.74813045901723
-0.03870000000000018,-42.4413389959511
-0.03970000000000007,-43.09210619388902
-0.04070000000000018,-43.75702050482558
-0.04170000000000007,-44.4077877027635
-0.04270000000000018,-45.01611356170547
-0.04370000000000007,-45.581998081651484
-0.044700000000000184,-46.147882601597495
-0.045700000000000074,-46.713767121543505
-0.046700000000000186,-47.27965164148953
-0.047700000000000076,-47.84553616143554
-0.04870000000000019,-48.51045047237211
-0.04970000000000008,-49.20365900930597
-0.05070000000000019,-49.939308885235796
-0.05170000000000008,-50.64666453516831
-0.05270000000000019,-51.29743173310623
-0.05370000000000008,-51.990640270040096
-0.05470000000000019,-52.69799591997262
-0.05570000000000008,-53.30632177891458
-0.056700000000000195,-54.0419716548444
-0.057700000000000085,-54.69273885278232
-0.058700000000000196,-55.400094502714836
-0.059700000000000086,-56.05086170065276
-0.0607000000000002,-56.74407023758662
-0.06170000000000009,-57.352396096528594
-0.0627000000000002,-57.93242772947325
-0.06370000000000009,-58.498312249419264
-0.0647000000000002,-59.02175543036933
-0.06570000000000009,-59.587639950315335
-0.0667000000000002,-60.15352447026136
-0.0677000000000001,-60.761850329203334
-0.0687000000000002,-61.327734849149344
-0.0697000000000001,-61.97850204708726
-0.07070000000000021,-62.68585769701977
-0.0717000000000001,-63.37906623395363
-0.07270000000000021,-64.0722747708875
-0.0737000000000001,-64.68060062982947
-0.07470000000000021,-65.2464851497755
-0.0757000000000001,-65.76992833072556
-0.07670000000000021,-66.29337151167562
-0.0777000000000001,-66.77437335362974
-0.07870000000000021,-67.2978165345798
-0.0797000000000001,-67.86370105452582
-0.08070000000000022,-68.44373268747047
-0.0817000000000001,-69.05205854641244
-0.08270000000000022,-69.6603844053544
-0.08370000000000011,-70.26871026429637
-0.08470000000000022,-70.8345947842424
-0.08570000000000011,-71.4004793041884
-0.08670000000000022,-71.96636382413442
-0.08770000000000011,-72.53224834408043
-0.08870000000000022,-73.01325018603454
-0.08970000000000011,-73.49425202798865
-0.09070000000000022,-73.97525386994278
-0.09170000000000011,-74.45625571189689
-0.09270000000000023,-74.80993353686314
-0.09370000000000012,-75.14946424883075
-0.09470000000000023,-75.54558341279296
-0.09570000000000012,-75.77193722077136
-0.09670000000000023,-75.98414391575112
-0.09770000000000012,-76.23879194972683
-0.09870000000000023,-76.55002843569714
-0.09970000000000012,-76.94614759965934
-0.10070000000000023,-77.42714944161345
-0.10170000000000012,-77.99303396155948
-0.10270000000000024,-78.60135982050144
-0.10370000000000013,-79.25212701843935
-0.10470000000000024,-79.90289421637728
-0.10570000000000013,-80.46877873632329
-0.10670000000000024,-80.99222191727335
-0.10770000000000013,-81.43078242023151
-0.10870000000000024,-81.69957756720586
-0.10970000000000013,-81.91178426218562
-0.11070000000000024,-82.03910827917348
-0.11170000000000013,-81.99666694017753
-0.11270000000000002,-81.91178426218562
-0.11370000000000013,-81.91178426218562
-0.11470000000000002,-81.91178426218562
-0.11570000000000014,-82.09569673116808
-0.11670000000000003,-82.26546208715187
-0.11770000000000014,-82.47766878213164
-0.11870000000000003,-82.6615812511141
-0.11970000000000014,-82.6615812511141
-0.12070000000000003,-82.70402259011003
-0.12170000000000014,-82.70402259011003
-0.12270000000000003,-82.70402259011003
-0.12370000000000014,-82.746463929106
-0.12470000000000003,-82.8313466070979
-0.12570000000000014,-82.95867062408576
-0.12670000000000003,-83.22746577106011
-0.12770000000000015,-83.39723112704392
-0.12870000000000004,-83.52455514403178
-0.12970000000000015,-83.60943782202366
-0.13070000000000004,-83.60943782202366
-0.13170000000000015,-83.56699648302772
-0.13270000000000004,-83.35478978804795
-0.13370000000000015,-83.0011119630817
-0.13470000000000004,-82.6615812511141
-0.13570000000000015,-82.26546208715187
-0.13670000000000004,-81.91178426218562
-0.13770000000000016,-81.51566509822342
-0.13870000000000005,-81.21857572525175
-0.13970000000000016,-80.9497805782774
-0.14070000000000005,-80.69513254430169
-0.14170000000000016,-80.38389605833139
-0.14270000000000005,-80.12924802435568
-0.14370000000000016,-79.73312886039348
-0.14470000000000005,-79.33700969643127
-0.14570000000000016,-78.85600785447714
-0.14670000000000005,-78.43159446451764
-0.14770000000000016,-77.99303396155948
-0.14870000000000005,-77.51203211960537
-0.14970000000000017,-77.03103027765125
-0.15070000000000006,-76.50758709670117
-0.15170000000000017,-75.94170257675518
-0.15270000000000006,-75.37581805680915
-0.15370000000000017,-74.80993353686314
-0.15470000000000006,-74.20160767792116
-0.15570000000000017,-73.62157604497652
-0.15670000000000006,-73.01325018603454
-0.15770000000000017,-72.44736566608852
-0.15870000000000006,-71.8814811461425
-0.15970000000000018,-71.27315528720055
-0.16070000000000007,-70.70727076725453
-0.16170000000000018,-70.14138624730852
-0.16270000000000007,-69.4906190493706
-0.16370000000000018,-68.82570473843404
-0.16470000000000007,-68.13249620150016
-0.16570000000000018,-67.34025787357575
-0.16670000000000007,-66.60460799764593
-0.16770000000000018,-65.95384079970802
-0.16870000000000007,-65.34551494076604
-0.16970000000000018,-64.72304196882543
-0.17070000000000007,-64.0722747708875
-0.17170000000000019,-63.37906623395363
-0.17270000000000008,-62.64341635802381
-0.1737000000000002,-61.851178030099405
-0.17470000000000008,-61.07308681517363
-0.1757000000000002,-60.23840714825326
-0.17670000000000008,-59.403727481332886
-0.1777000000000002,-58.62563626640712
-0.17870000000000008,-57.8333979384827
-0.1797000000000002,-57.05530672355693
-0.18070000000000008,-56.22062705663656
-0.1817000000000002,-55.442535841710786
-0.18270000000000008,-54.60785617479041
-0.1837000000000002,-53.872206298860604
-0.1847000000000001,-53.079967970936174
-0.1857000000000002,-52.34431809500636
-0.1867000000000001,-51.65110955807249
-0.1877000000000002,-50.943753908139975
-0.1887000000000001,-50.2505453712061
-0.1897000000000002,-49.68466085126009
-0.1907000000000001,-49.076334992318124
-0.1917000000000001,-48.41142068138156
-0.19269999999999998,-47.80309482243959
-0.1937000000000001,-47.10988628550572
-0.19469999999999998,-46.45911908756781
-0.1957000000000001,-45.75176343763528
-0.19669999999999999,-45.10099623969737
-0.1977000000000001,-44.4926703807554
-0.1987,-43.92678586080939
-0.1997000000000001,-43.40334267985933
-0.2007,-42.92234083790521
-0.2017000000000001,-42.39889765695515
-0.2027,-41.87545447600508
-0.2037000000000001,-41.39445263405098
-0.2047,-40.828568114104954
-0.2057000000000001,-40.30512493315489
-0.2067,-39.78168175220483
-0.2077000000000001,-39.30067991025072
-0.2087,-38.81967806829661
-0.2097000000000001,-38.33867622634249
-0.2107,-37.85767438438838
-0.2117000000000001,-37.376672542434264
-0.2127,-36.89567070048016
-0.2137000000000001,-36.4288159715247
-0.2147,-35.99025546856653
-0.2157000000000001,-35.55169496560837
-0.2167,-35.15557580164616
-0.21770000000000012,-34.717015298688004
-0.2187,-34.41992592571634
-0.21970000000000012,-34.10868943974604
-0.2207,-33.81160006677438
-0.22170000000000012,-33.50036358080407
-0.2227,-33.18912709483376
-0.22370000000000012,-32.892037721862096
-0.2247,-32.53835989689585
-0.22570000000000012,-32.184682071929586
-0.2267,-31.887592698957924
-0.22770000000000012,-31.533914873991666
-0.22870000000000001,-31.23682550102001
-0.22970000000000013,-31.010471693041605
-0.23070000000000002,-30.7558236590659
-0.23170000000000013,-30.529469851087494
-0.23270000000000002,-30.274821817111786
-0.23370000000000013,-30.00602667013743
-0.23470000000000002,-29.751378636161718
-0.23570000000000013,-29.525024828183312
-0.23670000000000002,-29.31281813320356
-0.2376999999999999,-29.100611438223805
-0.23870000000000002,-28.91669896924135
-0.2396999999999999,-28.704492274261593
-0.24070000000000003,-28.53472691827779
-0.24169999999999991,-28.308373110299385
-0.24270000000000003,-28.05372507632368
-0.24369999999999992,-27.78492992934932
-0.24470000000000003,-27.487840556377662
-0.24569999999999992,-27.176604070407354
-0.24670000000000003,-26.9643973754276
-0.24769999999999992,-26.738043567449193
-0.24870000000000003,-26.525836872469437
-0.24969999999999992,-26.38436574248293
-0.25070000000000003,-26.257041725495082
-0.2516999999999999,-26.17215904750318
-0.25270000000000004,-26.002393691519377
-0.2536999999999999,-25.86092256153287
-0.25470000000000004,-25.73359854454502
-0.2556999999999999,-25.60627452755716
-0.25670000000000004,-25.521391849565262
-0.25769999999999993,-25.43650917157336
-0.25870000000000004,-25.39406783257741
-0.25969999999999993,-25.337479380582806
-0.26070000000000004,-25.210155363594954
-0.26169999999999993,-25.12527268560305
-0.26270000000000004,-24.997948668615198
-0.26369999999999993,-24.814036199632742
-0.26470000000000005,-24.64427084364894
-0.26569999999999994,-24.432064148669184
-0.26670000000000005,-24.290593018682678
-0.26769999999999994,-24.16326900169483
-0.26870000000000005,-24.035944984706973
-0.26969999999999994,-23.951062306715073
-0.27070000000000005,-23.86617962872317
-0.27169999999999994,-23.724708498736668
-0.27270000000000005,-23.597384481748815
-0.27369999999999994,-23.427619125765005
-0.27470000000000006,-23.300295108777156
-0.27569999999999995,-23.1163826397947
-0.27670000000000006,-22.989058622806844
-0.27769999999999995,-22.904175944814945
-0.27870000000000006,-22.861734605818995
-0.27969999999999995,-22.819293266823045
-0.28070000000000006,-22.776851927827092
-0.28169999999999995,-22.67782213683654
-0.28270000000000006,-22.63538079784059
-0.28369999999999995,-22.550498119848687
-0.28470000000000006,-22.42317410286083
-0.28569999999999995,-22.33829142486893
-0.28670000000000007,-22.253408746877028
-0.28769999999999996,-22.15437895588647
-0.28870000000000007,-22.111937616890522
-0.28969999999999996,-22.069496277894572
-0.29070000000000007,-22.069496277894572
-0.29169999999999996,-22.027054938898623
-0.29270000000000007,-21.98461359990267
-0.29369999999999996,-21.899730921910766
-0.2947000000000001,-21.814848243918867
-0.29569999999999996,-21.729965565926964
-0.2967000000000001,-21.67337711393236
-0.29769999999999996,-21.63093577493641
-0.2987000000000001,-21.63093577493641
-0.29969999999999997,-21.63093577493641
-0.3007000000000001,-21.63093577493641
-0.30169999999999997,-21.54605309694451
-0.3027000000000001,-21.503611757948562
-0.30369999999999997,-21.418729079956652
-0.3047000000000001,-21.333846401964752
-0.30569999999999997,-21.248963723972853
-0.3067000000000001,-21.149933932982297
-0.3077,-21.107492593986347
-0.3087000000000001,-21.065051254990397
-0.3097,-21.065051254990397
-0.3107000000000001,-21.065051254990397
-0.3117,-21.065051254990397
-0.3127000000000001,-21.107492593986347
-0.3137,-21.149933932982297
-0.3147000000000001,-21.149933932982297
-0.3157,-21.149933932982297
-0.3167000000000001,-21.2065223849769
-0.3177,-21.2065223849769
-0.3187000000000001,-21.248963723972853
-0.3197,-21.248963723972853
-0.3207000000000001,-21.2065223849769
-0.3217,-21.149933932982297
-0.3227000000000001,-21.065051254990397
-0.3237,-21.022609915994444
-0.3247000000000001,-20.93772723800254
-0.3257,-20.89528589900659
-0.3267000000000001,-20.89528589900659
-0.3277,-20.93772723800254
-0.3287000000000001,-21.022609915994444
-0.3297,-21.149933932982297
-0.3307000000000001,-21.291405062968803
-0.3317,-21.376287740960702
-0.3327000000000001,-21.418729079956652
-0.3337,-21.418729079956652
-0.3347000000000001,-21.376287740960702
-0.3357,-21.333846401964752
-0.3367000000000001,-21.333846401964752
-0.3377,-21.333846401964752
-0.3387000000000001,-21.333846401964752
-0.3397,-21.376287740960702
-0.3407000000000001,-21.418729079956652
-0.3417,-21.461170418952605
-0.3427000000000001,-21.503611757948562
-0.3437,-21.503611757948562
-0.3447000000000001,-21.54605309694451
-0.3457,-21.54605309694451
-0.3467000000000001,-21.63093577493641
-0.3477,-21.67337711393236
-0.3487000000000001,-21.814848243918867
-0.3497,-21.899730921910766
-0.3507000000000001,-21.98461359990267
-0.3517,-22.069496277894572
-0.3527000000000001,-22.111937616890522
-0.3537,-22.196820294882425
-0.3547000000000001,-22.253408746877028
-0.3557,-22.295850085872978
-0.35670000000000013,-22.33829142486893
-0.3577,-22.38073276386488
-0.35870000000000013,-22.508056780852733
-0.3597,-22.63538079784059
-0.36070000000000013,-22.776851927827092
-0.3617,-22.904175944814945
-0.3626999999999999,-22.989058622806844
-0.3637,-23.073941300798747
-0.3646999999999999,-23.15882397879065
-0.3657,-23.2012653177866
-0.3666999999999999,-23.300295108777156
-0.3677,-23.342736447773106
-0.3686999999999999,-23.51250180375691
-0.36970000000000003,-23.639825820744765
-0.3706999999999999,-23.767149837732617
-0.37170000000000003,-23.908620967719123
-0.3726999999999999,-24.035944984706973
-0.37370000000000003,-24.16326900169483
-0.3746999999999999,-24.24815167968673
-0.37570000000000003,-24.34718147067728
-0.3766999999999999,-24.516946826661083
-0.37770000000000004,-24.601829504652986
-0.3786999999999999,-24.771594860636792
-0.37970000000000004,-24.95550732961925
-0.3806999999999999,-25.167714024599
-0.38170000000000004,-25.295038041586857
-0.38269999999999993,-25.478950510569312
-0.38370000000000004,-25.60627452755716
-0.38469999999999993,-25.73359854454502
-0.38570000000000004,-25.86092256153287
-0.38669999999999993,-26.002393691519377
-0.38770000000000004,-26.17215904750318
-0.38869999999999993,-26.34192440348698
-0.38970000000000005,-26.525836872469437
-0.39069999999999994,-26.780484906445146
-0.39170000000000005,-26.907808923433
-0.39269999999999994,-27.134162731411404
-0.39370000000000005,-27.261486748399253
-0.39469999999999994,-27.43125210438306
-0.39570000000000005,-27.615164573365515
-0.39669999999999994,-27.827371268345274
-0.39770000000000005,-28.09616641531963
-0.39869999999999994,-28.350814449295335
-0.39970000000000006,-28.662050935265643
-0.40069999999999995,-28.959140308237306
-0.40170000000000006,-29.22793545521166
-0.40269999999999995,-29.440142150191413
-0.40370000000000006,-29.66649595816982
-0.40469999999999995,-29.878702653149578
-0.40570000000000006,-30.04846800913338
-0.40669999999999995,-30.317263156107735
-0.40770000000000006,-30.529469851087494
-0.40869999999999995,-30.8407063370578
-0.40970000000000006,-31.095354371033505
-0.41069999999999995,-31.36414951800786
-0.41170000000000007,-31.661238890979522
-0.41269999999999996,-31.887592698957924
-0.41370000000000007,-32.14224073293363
-0.41469999999999996,-32.41103587990799
-0.41570000000000007,-32.66568391388369
-0.41669999999999996,-32.97692039985401
-0.41770000000000007,-33.288156885824314
-0.41869999999999996,-33.58524625879597
-0.4197000000000001,-33.93892408376223
-0.42069999999999996,-34.33504324772444
-0.4217000000000001,-34.632132620696105
-0.42269999999999996,-34.90092776767045
-0.4237000000000001,-35.198017140642115
-0.42469999999999997,-35.55169496560837
-0.4257000000000001,-35.806342999584075
-0.42669999999999997,-36.11757948555439
-0.4277000000000001,-36.47125731052064
-0.42869999999999997,-36.81078802248826
-0.4297000000000001,-37.206907186450465
-0.43069999999999997,-37.60302635041268
-0.4317000000000001,-37.94255706238028
-0.4327,-38.253793548350586
-0.4337000000000001,-38.607471373316855
-0.4347,-38.94700208528445
-0.4357000000000001,-39.258238571254765
-0.4367,-39.61191639622103
-0.4377000000000001,-39.99388844718459
-0.4387,-40.43244895014274
-0.4397000000000001,-40.87100945310091
-0.4407,-41.352011295055014
-0.4417000000000001,-41.74813045901723
-0.4427,-42.130102509980794
-0.4437000000000001,-42.526221673943
-0.4447,-42.92234083790521
-0.4457000000000001,-43.31846000186743
-0.4467,-43.70043205283099
-0.4477000000000001,-44.138992555789144
-0.4487,-44.619994397743255
-0.4497000000000001,-45.10099623969737
-0.4507,-45.581998081651484
-0.4517000000000001,-46.062999923605595
-0.4527,-46.586443104555656
-0.4537000000000001,-47.02500360751382
-0.4547,-47.506005449467935
-0.4557000000000001,-47.8879775004315
-0.4567,-48.36897934238561
-0.4577000000000001,-48.89242252333566
-0.4587,-49.41586570428573
-0.4597000000000001,-49.939308885235796
-0.4607,-50.50519340518181
-0.4617000000000001,-51.028636586131874
-0.4627,-51.509638428085985
-0.4637000000000001,-51.990640270040096
-0.4647,-52.471642111994214
-0.4657000000000001,-52.95264395394832
-0.4667,-53.433645795902436
-0.4677000000000001,-53.9570889768525
-0.4687,-54.52297349679851
-0.4697000000000001,-55.088858016744524
-0.4707,-55.65474253669055
-0.4717000000000001,-56.22062705663656
-0.4727,-56.786511576582576
-0.4737000000000001,-57.352396096528594
-0.4747,-57.87583927747865
-0.4757000000000001,-58.45587091042332
-0.4767,-58.97931409137338
-0.4777000000000001,-59.587639950315335
-0.4787,-60.23840714825326
-0.4797000000000001,-60.84673300719523
-0.4807,-61.53994154412909
-0.48170000000000013,-62.16241451606972
-0.4827,-62.72829903601572
-0.48370000000000013,-63.29418355596174
-0.4847,-63.81762673691181
-0.48570000000000013,-64.34106991786187
-0.4867,-63.421507572949594
-0.48570000000000013,-60.23840714825326
-0.4847,-57.70607392149485
-0.48370000000000013,-55.527418519702685
-0.4827,-53.68829382987814
-0.48170000000000013,-52.033081609036046
-0.4807,-50.46275206618586
-0.4797000000000001,-49.076334992318124
-0.4787,-47.71821214444768
-0.4777000000000001,-46.41667774857186
-0.4767,-45.22832025668522
-0.4757000000000001,-44.096551216793195
-0.4747,-43.04966485489307
-0.4737000000000001,-42.087661170984845
-0.4727,-41.139804600075266
-0.4717000000000001,-40.177800916167044
-0.4707,-39.21579723225882
-0.4697000000000001,-38.253793548350586
-0.4687,-37.291789864442364
-0.4677000000000001,-36.329786180534136
-0.4667,-35.42437094862052
-0.4657000000000001,-34.50480860370825
-0.4647,-33.670128936787876
-0.4637000000000001,-32.84959638286615
-0.4627,-32.05735805494172
