Potential V vs RHE, Current mA cm-2
0.013299999999999867,1.9169338113171246
0.012299999999999978,-0.002205534916489592
0.011299999999999866,-1.7033124050375041
0.010299999999999976,-3.317497998183511
0.009299999999999864,-4.800115440442069
0.008299999999999974,-6.064867342521412
0.007299999999999862,-7.329619244600755
0.006299999999999972,-8.464217707092514
0.00529999999999986,-9.55496011928846
0.0042999999999999705,-10.644287820184536
0.0032999999999998586,-11.691174182084664
0.0022999999999999687,-12.694204493688973
0.0012999999999998568,-13.698649516593148
0.00029999999999996696,-14.57152638860988
-0.000700000000000145,-15.3920589425316
-0.0017000000000000348,-16.184297270456018
-0.0027000000000001467,-16.919947146385837
-0.0037000000000000366,-17.71218547431026
-0.0047000000000001485,-18.53271802823198
-0.005700000000000038,-19.367397695152352
-0.00670000000000015,-20.202077362072725
-0.00770000000000004,-20.93772723800254
-0.008700000000000152,-21.58849443594046
-0.009700000000000042,-22.253408746877028
-0.010700000000000154,-22.819293266823045
-0.011700000000000044,-23.47006046476096
-0.012700000000000156,-24.078386323702922
-0.013700000000000045,-24.729153521640843
-0.014700000000000157,-25.43650917157336
-0.015700000000000047,-26.044835030515326
-0.01670000000000016,-26.65316088945729
-0.01770000000000005,-27.303928087395207
-0.01870000000000016,-27.869812607341224
-0.01970000000000005,-28.435697127287238
-0.020700000000000163,-29.001581647233255
-0.021700000000000053,-29.62405461917387
-0.022700000000000164,-30.189939139119886
-0.023700000000000054,-30.670940981073993
-0.024700000000000166,-31.19438416202406
-0.025700000000000056,-31.661238890979522
-0.026700000000000168,-32.14224073293363
-0.027700000000000058,-32.58080123589179
-0.02870000000000017,-33.14668575583781
-0.02970000000000006,-33.755011614779775
-0.03070000000000017,-34.41992592571634
-0.03170000000000006,-35.02825178465831
-0.03270000000000017,-35.636577643600276
-0.03370000000000006,-36.16002082455034
-0.034700000000000175,-36.6834640055004
-0.035700000000000065,-37.249348525446415
-0.03670000000000018,-37.77279170639648
-0.03770000000000007,-38.33867622634249
-0.03870000000000018,-38.94700208528445
-0.03970000000000007,-39.61191639622103
-0.04070000000000018,-40.220242255162994
-0.04170000000000007,-40.78612677510901
-0.04270000000000018,-41.30956995605907
-0.04370000000000007,-41.83301313700913
-0.044700000000000184,-42.31401497896325
-0.045700000000000074,-42.837458159913304
-0.046700000000000186,-43.36090134086337
-0.047700000000000076,-43.96922719980534
-0.04870000000000019,-44.577553058747306
-0.04970000000000008,-45.18587891768927
-0.05070000000000019,-45.75176343763528
-0.05170000000000008,-46.37423640957591
-0.05270000000000019,-46.94012092952192
-0.05370000000000008,-47.54844678846388
-0.05470000000000019,-48.156772647405845
-0.05570000000000008,-48.84998118433972
-0.056700000000000195,-49.557336834272235
-0.057700000000000085,-50.2505453712061
-0.058700000000000196,-50.81642989115212
-0.059700000000000086,-51.29743173310623
-0.0607000000000002,-51.86331625305225
-0.06170000000000009,-52.471642111994214
-0.0627000000000002,-53.079967970936174
-0.06370000000000009,-53.68829382987814
-0.0647000000000002,-54.31076680181876
-0.06570000000000009,-54.834209982768826
-0.0667000000000002,-55.357653163718886
-0.0677000000000001,-55.881096344668954
-0.0687000000000002,-56.36209818662306
-0.0697000000000001,-56.97042404556503
-0.07070000000000021,-57.53630856551105
-0.0717000000000001,-58.14463442445301
-0.07270000000000021,-58.71051894439902
-0.0737000000000001,-59.31884480334099
-0.07470000000000021,-59.884729323287
-0.0757000000000001,-60.45061384323302
-0.07670000000000021,-60.93161568518713
-0.0777000000000001,-61.37017618814529
-0.07870000000000021,-61.80873669110345
-0.0797000000000001,-62.24729719406162
-0.08070000000000022,-62.72829903601572
-0.0817000000000001,-63.251742216965795
-0.08270000000000022,-63.6761556069253
-0.08370000000000011,-64.11471610988345
-0.08470000000000022,-64.51083527384567
-0.08570000000000011,-64.86451309881193
-0.08670000000000022,-65.3030736017701
-0.08770000000000011,-65.7274869917296
-0.08870000000000022,-66.16604749468777
-0.08970000000000011,-66.56216665864997
-0.09070000000000022,-66.87340314462028
-0.09170000000000011,-67.128051178596
-0.09270000000000023,-67.43928766456631
-0.09370000000000012,-67.7788183765339
-0.09470000000000023,-68.0900548625042
-0.09570000000000012,-68.34470289647993
-0.09670000000000023,-68.69838072144618
-0.09770000000000012,-68.96717586842054
-0.09870000000000023,-69.26426524139221
-0.09970000000000012,-69.57550172736251
-0.10070000000000023,-69.87259110033416
-0.10170000000000012,-70.09894490831257
-0.10270000000000024,-70.18382758630447
-0.10370000000000013,-70.35359294228827
-0.10470000000000024,-70.53750541127073
-0.10570000000000013,-70.79215344524643
-0.10670000000000024,-71.10338993121674
-0.10770000000000013,-71.35803796519245
-0.10870000000000024,-71.52780332117625
-0.10970000000000013,-71.66927445116276
-0.11070000000000024,-71.83903980714656
-0.11170000000000013,-71.96636382413442
-0.11270000000000002,-72.19271763211282
-0.11370000000000013,-72.36248298809663
-0.11470000000000002,-72.40492432709259
-0.11570000000000014,-72.44736566608852
-0.11670000000000003,-72.44736566608852
-0.11770000000000014,-72.40492432709259
-0.11870000000000003,-72.44736566608852
-0.11970000000000014,-72.44736566608852
-0.12070000000000003,-72.40492432709259
-0.12170000000000014,-72.36248298809663
-0.12270000000000003,-72.32004164910067
-0.12370000000000014,-72.27760031010472
-0.12470000000000003,-72.19271763211282
-0.12570000000000014,-72.05124650212633
-0.12670000000000003,-71.83903980714656
-0.12770000000000015,-71.44292064318435
-0.12870000000000004,-71.06094859222078
-0.12970000000000015,-70.74971210625048
-0.13070000000000004,-70.48091695927613
-0.13170000000000015,-70.39603428128423
-0.13270000000000004,-70.22626892530042
-0.13370000000000015,-70.05650356931662
-0.13470000000000004,-69.91503243933012
-0.13570000000000015,-69.78770842234226
-0.13670000000000004,-69.6603844053544
-0.13770000000000016,-69.61794306635846
-0.13870000000000005,-69.57550172736251
-0.13970000000000016,-69.4906190493706
-0.14070000000000005,-69.1793825634003
-0.14170000000000016,-68.78326339943808
-0.14270000000000005,-68.25982021848802
-0.14370000000000016,-67.82125971552985
-0.14470000000000005,-67.56661168155415
-0.14570000000000016,-67.34025787357575
-0.14670000000000005,-66.87340314462028
-0.14770000000000016,-66.08116481669586
-0.14870000000000005,-64.94939577680383
-0.14970000000000017,-63.54883158993744
-0.15070000000000006,-62.24729719406162
-0.15170000000000017,-61.15796949316553
-0.15270000000000006,-60.23840714825326
-0.15370000000000017,-59.44616882032884
-0.15470000000000006,-58.92272563937878
-0.15570000000000017,-58.583194927411164
-0.15670000000000006,-58.22951710244491
-0.15770000000000017,-57.79095659948675
-0.15870000000000006,-57.30995475753264
-0.15970000000000018,-56.82895291557852
-0.16070000000000007,-56.36209818662306
-0.16170000000000018,-55.7820665536784
-0.16270000000000007,-55.21618203373238
-0.16370000000000018,-54.60785617479041
-0.16470000000000007,-53.9570889768525
-0.16570000000000018,-53.12240930993213
-0.16670000000000007,-52.25943541701445
-0.16770000000000018,-51.29743173310623
-0.16870000000000007,-50.335428049198
-0.16970000000000018,-49.458307043281685
-0.17070000000000007,-48.76509850634781
-0.17170000000000019,-48.1992139864018
-0.17270000000000008,-47.67577080545174
-0.1737000000000002,-47.15232762450167
-0.17470000000000008,-46.586443104555656
-0.1757000000000002,-45.93567590661774
-0.17670000000000008,-45.22832025668522
-0.1777000000000002,-44.535111719751356
-0.17870000000000008,-43.79946184382153
-0.1797000000000002,-43.17698887188092
-0.18070000000000008,-42.568663012938956
-0.1817000000000002,-42.00277849299294
-0.18270000000000008,-41.43689397304693
-0.1837000000000002,-40.87100945310091
-0.1847000000000001,-40.30512493315489
-0.1857000000000002,-39.696799074212926
-0.1867000000000001,-39.173355893262865
-0.1877000000000002,-38.6499127123128
-0.1887000000000001,-38.16891087035869
-0.1897000000000002,-37.73035036740053
-0.1907000000000001,-37.249348525446415
-0.1917000000000001,-36.725905344496354
-0.19269999999999998,-36.16002082455034
-0.1937000000000001,-35.55169496560837
-0.19469999999999998,-35.02825178465831
-0.1957000000000001,-34.5472499427042
-0.19669999999999999,-34.10868943974604
-0.1977000000000001,-33.670128936787876
-0.1987,-33.288156885824314
-0.1997000000000001,-32.84959638286615
-0.2007,-32.53835989689585
-0.2017000000000001,-32.184682071929586
-0.2027,-31.802710020966025
-0.2037000000000001,-31.449032195999767
-0.2047,-31.137795710029454
-0.2057000000000001,-30.8407063370578
-0.2067,-30.487028512091538
-0.2077000000000001,-30.147497800123933
-0.2087,-29.751378636161718
-0.2097000000000001,-29.35525947219951
-0.2107,-28.959140308237306
-0.2117000000000001,-28.662050935265643
-0.2127,-28.350814449295335
-0.2137000000000001,-28.13860775431558
-0.2147,-27.912253946337174
-0.2157000000000001,-27.78492992934932
-0.2167,-27.530281895373616
-0.21770000000000012,-27.219045409403304
-0.2187,-26.907808923433
-0.21970000000000012,-26.65316088945729
-0.2207,-26.440954194477534
-0.22170000000000012,-26.257041725495082
-0.2227,-26.087276369511276
-0.22370000000000012,-25.91751101352747
-0.2247,-25.73359854454502
-0.22570000000000012,-25.521391849565262
-0.2267,-25.337479380582806
-0.22770000000000012,-25.167714024599
-0.22870000000000001,-24.997948668615198
-0.22970000000000013,-24.814036199632742
-0.23070000000000002,-24.686712182644893
-0.23170000000000013,-24.516946826661083
-0.23270000000000002,-24.290593018682678
-0.23370000000000013,-24.035944984706973
-0.23470000000000002,-23.682267159740714
-0.23570000000000013,-23.47006046476096
-0.23670000000000002,-23.24370665678255
-0.2376999999999999,-23.15882397879065
-0.23870000000000002,-23.073941300798747
-0.2396999999999999,-23.031499961802798
-0.24070000000000003,-22.946617283810895
-0.24169999999999991,-22.861734605818995
-0.24270000000000003,-22.72026347583249
-0.24369999999999992,-22.550498119848687
-0.24470000000000003,-22.38073276386488
-0.24569999999999992,-22.196820294882425
-0.24670000000000003,-22.069496277894572
-0.24769999999999992,-21.94217226090672
-0.24870000000000003,-21.857289582914817
-0.24969999999999992,-21.63093577493641
-0.25070000000000003,-21.461170418952605
-0.2516999999999999,-21.248963723972853
-0.25270000000000004,-21.107492593986347
-0.2536999999999999,-20.980168576998494
-0.25470000000000004,-20.93772723800254
-0.2556999999999999,-20.85284456001064
-0.25670000000000004,-20.810403221014692
-0.25769999999999993,-20.72552054302279
-0.25870000000000004,-20.584049413036283
-0.25969999999999993,-20.499166735044383
-0.26070000000000004,-20.371842718056527
-0.26169999999999993,-20.286960040064624
-0.26270000000000004,-20.244518701068674
-0.26369999999999993,-20.202077362072725
-0.26470000000000005,-20.202077362072725
-0.26569999999999994,-20.10304757108217
-0.26670000000000005,-20.06060623208622
-0.26769999999999994,-19.97572355409432
-0.26870000000000005,-19.805958198110513
-0.26969999999999994,-19.721075520118614
-0.27070000000000005,-19.579604390132108
-0.27169999999999994,-19.49472171214021
-0.27270000000000005,-19.49472171214021
-0.27369999999999994,-19.409839034148305
-0.27470000000000006,-19.28251501716045
-0.27569999999999995,-19.197632339168546
-0.27670000000000006,-19.056161209182044
-0.27769999999999995,-18.97127853119014
-0.27870000000000006,-18.92883719219419
-0.27969999999999995,-18.88639585319824
-0.28070000000000006,-18.92883719219419
-0.28169999999999995,-18.88639585319824
-0.28270000000000006,-18.843954514202288
-0.28369999999999995,-18.759071836210385
-0.28470000000000006,-18.716630497214435
-0.28569999999999995,-18.631747819222536
-0.28670000000000007,-18.53271802823198
-0.28769999999999996,-18.49027668923603
-0.28870000000000007,-18.53271802823198
-0.28969999999999996,-18.589306480226583
-0.29070000000000007,-18.53271802823198
-0.29169999999999996,-18.49027668923603
-0.29270000000000007,-18.362952672248177
-0.29369999999999996,-18.27806999425627
-0.2947000000000001,-18.19318731626437
-0.29569999999999996,-18.15074597726842
-0.2967000000000001,-18.15074597726842
-0.29769999999999996,-18.15074597726842
-0.2987000000000001,-18.15074597726842
-0.29969999999999997,-18.06586329927652
-0.3007000000000001,-18.009274847281915
-0.30169999999999997,-17.966833508285966
-0.3027000000000001,-17.966833508285966
-0.30369999999999997,-17.966833508285966
-0.3047000000000001,-18.009274847281915
-0.30569999999999997,-18.06586329927652
-0.3067000000000001,-18.06586329927652
-0.3077,-18.06586329927652
-0.3087000000000001,-17.966833508285966
-0.3097,-17.924392169290012
-0.3107000000000001,-17.881950830294063
-0.3117,-17.839509491298113
-0.3127000000000001,-17.881950830294063
-0.3137,-17.924392169290012
-0.3147000000000001,-18.009274847281915
-0.3157,-18.009274847281915
-0.3167000000000001,-18.06586329927652
-0.3177,-18.06586329927652
-0.3187000000000001,-18.009274847281915
-0.3197,-18.009274847281915
-0.3207000000000001,-18.06586329927652
-0.3217,-18.15074597726842
-0.3227000000000001,-18.19318731626437
-0.3237,-18.23562865526032
-0.3247000000000001,-18.23562865526032
-0.3257,-18.23562865526032
-0.3267000000000001,-18.19318731626437
-0.3277,-18.15074597726842
-0.3287000000000001,-18.19318731626437
-0.3297,-18.19318731626437
-0.3307000000000001,-18.23562865526032
-0.3317,-18.27806999425627
-0.3327000000000001,-18.27806999425627
-0.3337,-18.320511333252224
-0.3347000000000001,-18.362952672248177
-0.3357,-18.40539401124413
-0.3367000000000001,-18.49027668923603
-0.3377,-18.589306480226583
-0.3387000000000001,-18.674189158218486
-0.3397,-18.80151317520634
-0.3407000000000001,-18.843954514202288
-0.3417,-18.843954514202288
-0.3427000000000001,-18.843954514202288
-0.3437,-18.843954514202288
-0.3447000000000001,-18.843954514202288
-0.3457,-18.88639585319824
-0.3467000000000001,-18.97127853119014
-0.3477,-19.056161209182044
-0.3487000000000001,-19.155191000172596
-0.3497,-19.2400736781645
-0.3507000000000001,-19.28251501716045
-0.3517,-19.3249563561564
-0.3527000000000001,-19.409839034148305
-0.3537,-19.49472171214021
-0.3547000000000001,-19.636192842126707
-0.3557,-19.763516859114564
-0.35670000000000013,-19.848399537106463
-0.3577,-19.93328221509837
-0.35870000000000013,-19.97572355409432
-0.3597,-19.97572355409432
-0.36070000000000013,-19.97572355409432
-0.3617,-20.06060623208622
-0.3626999999999999,-20.10304757108217
-0.3637,-20.244518701068674
-0.3646999999999999,-20.414284057052477
-0.3657,-20.541608074040333
-0.3666999999999999,-20.683079204026836
-0.3677,-20.810403221014692
-0.3686999999999999,-20.93772723800254
-0.36970000000000003,-21.065051254990397
-0.3706999999999999,-21.248963723972853
-0.37170000000000003,-21.376287740960702
-0.3726999999999999,-21.503611757948562
-0.37370000000000003,-21.63093577493641
-0.3746999999999999,-21.772406904922917
-0.37570000000000003,-21.857289582914817
-0.3766999999999999,-21.899730921910766
-0.37770000000000004,-22.027054938898623
-0.3786999999999999,-22.15437895588647
-0.37970000000000004,-22.38073276386488
-0.3806999999999999,-22.592939458844636
-0.38170000000000004,-22.776851927827092
-0.38269999999999993,-22.946617283810895
-0.38370000000000004,-23.073941300798747
-0.38469999999999993,-23.2012653177866
-0.38570000000000004,-23.342736447773106
-0.38669999999999993,-23.51250180375691
-0.38770000000000004,-23.724708498736668
-0.38869999999999993,-23.908620967719123
-0.38970000000000005,-24.16326900169483
-0.39069999999999994,-24.34718147067728
-0.39170000000000005,-24.516946826661083
-0.39269999999999994,-24.686712182644893
-0.39370000000000005,-24.814036199632742
-0.39469999999999994,-24.997948668615198
-0.39570000000000005,-25.210155363594954
-0.39669999999999994,-25.39406783257741
-0.39770000000000005,-25.648715866553115
-0.39869999999999994,-25.86092256153287
-0.39970000000000006,-26.087276369511276
-0.40069999999999995,-26.257041725495082
-0.40170000000000006,-26.440954194477534
-0.40269999999999995,-26.65316088945729
-0.40370000000000006,-26.907808923433
-0.40469999999999995,-27.176604070407354
-0.40570000000000006,-27.487840556377662
-0.40669999999999995,-27.78492992934932
-0.40770000000000006,-28.05372507632368
-0.40869999999999995,-28.308373110299385
-0.40970000000000006,-28.53472691827779
-0.41069999999999995,-28.746933613257543
-0.41170000000000007,-29.001581647233255
-0.41269999999999996,-29.27037679420761
-0.41370000000000007,-29.581613280177915
-0.41469999999999996,-29.878702653149578
-0.41570000000000007,-30.147497800123933
-0.41669999999999996,-30.359704495103685
-0.41770000000000007,-30.614352529079397
-0.41869999999999996,-30.8407063370578
-0.4197000000000001,-31.095354371033505
-0.42069999999999996,-31.36414951800786
-0.4217000000000001,-31.717827342974125
-0.42269999999999996,-32.09979939393769
-0.4237000000000001,-32.45347721890394
-0.42469999999999997,-32.84959638286615
-0.4257000000000001,-33.14668575583781
-0.42669999999999997,-33.45792224180811
-0.4277000000000001,-33.81160006677438
-0.42869999999999997,-34.15113077874198
-0.4297000000000001,-34.50480860370825
-0.43069999999999997,-34.85848642867451
-0.4317000000000001,-35.15557580164616
-0.4327,-35.50925362661242
-0.4337000000000001,-35.721460321592176
-0.4347,-36.03269680756248
-0.4357000000000001,-36.329786180534136
-0.4367,-36.6834640055004
-0.4377000000000001,-37.122024508458566
-0.4387,-37.60302635041268
-0.4397000000000001,-38.04158685337084
-0.4407,-38.46600024333035
-0.4417000000000001,-38.81967806829661
-0.4427,-39.21579723225882
-0.4437000000000001,-39.51288660523048
-0.4447,-39.90900576919269
-0.4457000000000001,-40.34756627215084
-0.4467,-40.743685436113054
-0.4477000000000001,-41.182245939071215
-0.4487,-41.56421799003478
-0.4497000000000001,-41.96033715399699
-0.4507,-42.3564563179592
-0.4517000000000001,-42.752575481921404
-0.4527,-43.134547532884966
-0.4537000000000001,-43.657990713835034
-0.4547,-44.181433894785094
-0.4557000000000001,-44.74731841473111
-0.4567,-45.32735004767578
-0.4577000000000001,-45.85079322862584
-0.4587,-46.3176479575813
-0.4597000000000001,-46.79864979953541
-0.4607,-47.23721030249357
-0.4617000000000001,-47.71821214444768
-0.4627,-48.24165532539775
-0.4637000000000001,-48.80753984534376
-0.4647,-49.373424365289786
-0.4657000000000001,-49.89686754623985
-0.4667,-50.37786938819396
-0.4677000000000001,-50.81642989115212
-0.4687,-51.25499039411028
-0.4697000000000001,-51.69355089706845
-0.4707,-52.2169940780185
-0.4717000000000001,-52.74043725896857
-0.4727,-53.26388043991864
-0.4737000000000001,-53.7873236208687
-0.4747,-54.31076680181876
-0.4757000000000001,-54.791768643772876
-0.4767,-55.25862337272834
-0.4777000000000001,-55.73962521468245
-0.4787,-56.26306839563251
-0.4797000000000001,-56.786511576582576
-0.4807,-57.30995475753264
-0.48170000000000013,-57.87583927747865
-0.4827,-58.39928245842871
-0.48370000000000013,-58.92272563937878
-0.4847,-59.44616882032884
-0.48570000000000013,-60.02620045327351
-0.4867,-59.14907944735718
-0.48570000000000013,-56.22062705663656
-0.4847,-53.91464763785655
-0.48370000000000013,-51.990640270040096
-0.4827,-50.335428049198
-0.48170000000000013,-48.72265716735186
-0.4807,-47.23721030249357
-0.4797000000000001,-45.89323456762179
-0.4787,-44.535111719751356
-0.4777000000000001,-43.40334267985933
-0.4767,-42.31401497896325
-0.4757000000000001,-41.267128617063115
-0.4747,-40.26268359415894
-0.4737000000000001,-39.258238571254765
-0.4727,-38.29623488734655
-0.4717000000000001,-37.376672542434264
-0.4707,-36.47125731052064
-0.4697000000000001,-35.636577643600276
-0.4687,-34.90092776767045
-0.4677000000000001,-34.10868943974604
-0.4667,-33.373039563816214
-0.4657000000000001,-32.53835989689585
-0.4647,-31.717827342974125
-0.4637000000000001,-30.88314767605375
-0.4627,-30.10505646112798
