Potential V vs RHE, Current mA cm-2
0.05339999999999995,-0.03606099103355979
0.05239999999999995,-0.037221054299449115
0.051399999999999946,-0.037885968610385685
0.050399999999999945,-0.038409411791335744
0.049399999999999944,-0.03889041363328985
0.04839999999999994,-0.03938556258824262
0.04739999999999994,-0.03986656443019673
0.04639999999999994,-0.040276830707157596
0.04539999999999994,-0.040729538323114406
0.04439999999999994,-0.04115395171307392
0.04339999999999994,-0.04159251221603208
0.04239999999999994,-0.042016925605991594
0.04139999999999994,-0.04242719188295245
0.040399999999999936,-0.042823311046914656
0.039399999999999935,-0.04326187154987282
0.038399999999999934,-0.04370043205283098
0.03739999999999993,-0.04409655121679319
0.03639999999999993,-0.044506817493754056
0.03539999999999993,-0.04490293665771626
0.03439999999999993,-0.04534149716067442
0.03339999999999993,-0.04573761632463663
0.03239999999999993,-0.046147882601597495
0.03139999999999993,-0.046529854652561056
0.030399999999999927,-0.046954268042520564
0.029399999999999926,-0.047350387206482776
0.028399999999999925,-0.04777480059644229
0.027399999999999924,-0.048185066873403154
0.026399999999999924,-0.04858118603736536
0.025399999999999923,-0.04901974654032352
0.024399999999999922,-0.049401718591287086
0.02339999999999992,-0.049826131981246594
0.02239999999999992,-0.05023639825820745
0.02139999999999992,-0.05061837030917101
0.020399999999999918,-0.051028636586131874
0.019399999999999917,-0.05143890286309273
0.018399999999999916,-0.051863316253052245
0.017399999999999916,-0.05228772964301176
0.016399999999999915,-0.05266970169397532
0.015399999999999914,-0.05309411508393482
0.014399999999999913,-0.05349023424789704
0.013399999999999912,-0.0539287947508552
0.012399999999999911,-0.054367355253813365
0.01139999999999991,-0.05476347441777557
0.01039999999999991,-0.05517374069473643
0.009399999999999908,-0.05558400697169729
0.008399999999999908,-0.0560084203616568
0.007399999999999907,-0.05643283375161631
0.006399999999999906,-0.056843100028577176
0.005399999999999905,-0.05723921919253938
0.004399999999999904,-0.05766363258249889
0.003399999999999903,-0.058073898859459745
0.002399999999999902,-0.05849831224941927
0.0013999999999999013,-0.05889443141338147
0.00039999999999990044,-0.059304697690342335
-0.0006000000000001005,-0.05970081685430455
-0.0016000000000001013,-0.06011108313126542
-0.0026000000000001022,-0.06054964363422357
-0.003600000000000103,-0.060959909911184426
-0.004600000000000104,-0.06135602907514664
-0.005600000000000105,-0.061780442465106146
-0.006600000000000106,-0.06223315008106296
-0.007600000000000107,-0.06265756347102248
-0.008600000000000108,-0.06308197686098199
-0.009600000000000108,-0.06350639025094149
-0.01060000000000011,-0.06393080364090101
-0.01160000000000011,-0.06438351125685782
-0.012600000000000111,-0.06483621887281464
-0.013600000000000112,-0.06523233803677685
-0.014600000000000113,-0.06565675142673635
-0.015600000000000114,-0.06608116481669586
-0.016600000000000115,-0.06653387243265267
-0.017600000000000116,-0.06695828582261219
-0.018600000000000116,-0.06736855209957304
-0.019600000000000117,-0.06780711260253121
-0.020600000000000118,-0.06823152599249073
-0.02160000000000012,-0.06867008649544887
-0.02260000000000012,-0.06909449988540839
-0.02360000000000012,-0.06949061904937061
-0.024600000000000122,-0.0699433266653274
-0.025600000000000123,-0.07036774005528693
-0.026600000000000124,-0.07083459478424238
-0.027600000000000124,-0.07127315528720055
-0.028600000000000125,-0.07168342156416141
-0.029600000000000126,-0.07210783495412092
-0.030600000000000127,-0.07251810123108177
-0.03160000000000013,-0.07298495596003725
-0.03260000000000013,-0.07342351646299541
-0.03360000000000013,-0.07383378273995628
-0.03460000000000002,-0.07427234324291442
-0.03560000000000002,-0.07469675663287394
-0.03660000000000002,-0.07514946424883075
-0.03760000000000002,-0.07560217186478757
-0.03860000000000002,-0.07599829102874978
-0.039600000000000024,-0.07642270441870928
-0.040600000000000025,-0.07686126492166745
-0.041600000000000026,-0.0772998254246256
-0.04260000000000003,-0.07775253304058242
-0.04360000000000003,-0.07817694643054193
-0.04460000000000003,-0.07860135982050144
-0.04560000000000003,-0.07903992032345959
-0.04660000000000003,-0.07949262793941642
-0.04760000000000003,-0.07990289421637728
-0.04860000000000003,-0.08034145471933543
-0.04960000000000003,-0.08076586810929494
-0.050600000000000034,-0.0812044286122531
-0.051600000000000035,-0.08165713622820991
-0.052600000000000036,-0.08208154961816942
-0.053600000000000037,-0.08253425723412625
-0.05460000000000004,-0.08295867062408575
-0.05560000000000004,-0.08335478978804794
-0.05660000000000004,-0.08377920317800747
-0.05760000000000004,-0.08418946945496834
-0.05860000000000004,-0.08462802995792648
-0.05960000000000004,-0.085052443347886
-0.06060000000000004,-0.08546270962484687
-0.061600000000000044,-0.08592956435380232
-0.06260000000000004,-0.0863681248567605
-0.06360000000000005,-0.08679253824672
-0.06460000000000005,-0.08720280452368086
-0.06560000000000005,-0.08761307080064172
-0.06660000000000005,-0.08805163130359987
-0.06760000000000005,-0.08846189758056075
-0.06860000000000005,-0.08887216385752161
-0.06960000000000005,-0.08931072436047977
-0.07060000000000005,-0.08972099063744063
-0.07160000000000005,-0.09018784536639608
-0.07260000000000005,-0.09062640586935425
-0.07360000000000005,-0.09103667214631511
-0.07460000000000006,-0.09146108553627462
-0.07560000000000006,-0.09189964603923279
-0.07660000000000006,-0.09233820654219095
-0.07760000000000006,-0.0927767670451491
-0.07860000000000006,-0.09318703332210997
-0.07960000000000006,-0.09362559382506812
-0.08060000000000006,-0.09405000721502763
-0.08160000000000006,-0.0944885677179858
-0.08260000000000006,-0.09492712822094396
-0.08360000000000006,-0.09535154161090346
-0.08460000000000006,-0.09577595500086299
-0.08560000000000006,-0.0962003683908225
-0.08660000000000007,-0.0966530760067793
-0.08760000000000007,-0.09707748939673881
-0.08860000000000007,-0.09748775567369967
-0.08960000000000007,-0.0979121690636592
-0.09060000000000007,-0.0983365824536187
-0.09160000000000007,-0.09878929006957551
-0.09260000000000007,-0.09919955634653636
-0.09360000000000007,-0.09962396973649587
-0.09460000000000007,-0.10006253023945405
-0.09560000000000007,-0.1004727965164149
-0.09660000000000007,-0.10095379835836901
-0.09760000000000008,-0.10134991752233123
-0.09860000000000008,-0.1017601837992921
-0.09960000000000008,-0.1022128914152489
-0.10060000000000008,-0.10259486346621245
-0.10160000000000008,-0.10304757108216928
-0.10260000000000008,-0.10348613158512744
-0.10360000000000008,-0.10389639786208829
-0.10460000000000008,-0.1043208112520478
-0.10560000000000008,-0.10471693041601002
-0.10660000000000008,-0.10515549091896817
-0.10760000000000008,-0.105608198534925
-0.10860000000000009,-0.1060326119248845
-0.10960000000000009,-0.10647117242784265
-0.11060000000000009,-0.10686729159180487
-0.11160000000000009,-0.10730585209476304
-0.11260000000000009,-0.10775855971071985
-0.11360000000000009,-0.10818297310067936
-0.11460000000000009,-0.10862153360363752
-0.11560000000000009,-0.10907424121959435
-0.11660000000000009,-0.10949865460955385
-0.1176000000000001,-0.10995136222551065
-0.1186000000000001,-0.11036162850247151
-0.1196000000000001,-0.11080018900542968
-0.1206000000000001,-0.11122460239538919
-0.1216000000000001,-0.111677310011346
-0.1226000000000001,-0.11210172340130552
-0.1236000000000001,-0.11254028390426365
-0.1246000000000001,-0.11296469729422319
-0.1256000000000001,-0.1133891106841827
-0.1266000000000001,-0.11382767118714086
-0.1276000000000001,-0.11428037880309765
-0.1286000000000001,-0.11470479219305717
-0.1296000000000001,-0.11511505847001803
-0.1306000000000001,-0.11553947185997754
-0.1316000000000001,-0.11600632658893299
-0.1326000000000001,-0.11647318131788847
-0.1336000000000001,-0.11691174182084664
-0.1346000000000001,-0.11736444943680345
-0.1356000000000001,-0.11778886282676294
-0.1366000000000001,-0.11822742332972111
-0.1376000000000001,-0.11865183671968062
-0.1386000000000001,-0.11904795588364282
-0.1396000000000001,-0.11950066349959966
-0.1406000000000001,-0.1199675182285551
-0.14160000000000011,-0.12042022584451192
-0.14260000000000012,-0.12084463923447143
-0.14360000000000012,-0.12124075839843364
-0.14460000000000012,-0.1216510246753945
-0.14560000000000012,-0.12206129095235536
-0.14660000000000012,-0.12251399856831217
-0.14760000000000012,-0.12295255907127035
-0.14860000000000012,-0.12334867823523256
-0.14960000000000012,-0.12378723873819068
-0.15060000000000012,-0.12422579924114888
-0.15160000000000012,-0.12466435974410703
-0.15260000000000012,-0.12508877313406655
-0.15360000000000013,-0.12548489229802873
-0.15460000000000013,-0.12589515857498962
-0.15560000000000013,-0.1263195719649491
-0.15660000000000013,-0.12674398535490863
-0.15760000000000013,-0.12718254585786679
-0.15860000000000013,-0.12759281213482765
-0.15960000000000002,-0.1280030784117885
-0.16060000000000002,-0.12841334468874938
-0.16160000000000002,-0.1288377580787089
-0.16260000000000002,-0.12926217146866842
-0.16360000000000002,-0.12964414351963197
-0.16460000000000002,-0.13005440979659283
-0.16560000000000002,-0.13050711741254964
-0.16660000000000003,-0.13098811925450374
-0.16760000000000003,-0.13138423841846594
-0.16860000000000003,-0.13175206335643086
-0.16960000000000003,-0.13213403540739443
-0.17060000000000003,-0.13251600745835798
-0.17160000000000003,-0.13292627373531885
-0.17260000000000003,-0.1333082457862824
-0.17360000000000003,-0.1336760707242473
-0.17460000000000003,-0.13407218988820951
-0.17560000000000003,-0.13446830905217175
-0.17660000000000003,-0.1348502811031353
-0.17760000000000004,-0.13523225315409887
-0.17860000000000004,-0.13561422520506242
-0.17960000000000004,-0.13598205014302733
-0.18060000000000004,-0.13633572796799356
-0.18160000000000004,-0.13671770001895714
-0.18260000000000004,-0.13708552495692206
-0.18360000000000004,-0.137410908555891
-0.18460000000000004,-0.13780702771985323
-0.18560000000000004,-0.13817485265781812
-0.18660000000000004,-0.1385568247087817
-0.18760000000000004,-0.13891050253374798
-0.18860000000000005,-0.13925003324571555
-0.18960000000000005,-0.13958956395768318
-0.19060000000000005,-0.1399432417826494
-0.19160000000000005,-0.14029691960761567
-0.19260000000000005,-0.14065059743258196
-0.19360000000000005,-0.14096183391855227
-0.19460000000000005,-0.14130136463051984
-0.19560000000000005,-0.14161260111649018
-0.19660000000000005,-0.14189554337646318
-0.19760000000000005,-0.1423199567664227
-0.19860000000000005,-0.1426028990263957
-0.19960000000000006,-0.1428858412863687
-0.20060000000000006,-0.14316878354634172
-0.20160000000000006,-0.1434517258063147
-0.20260000000000006,-0.14387613919627423
-0.20360000000000006,-0.14415908145624726
-0.20460000000000006,-0.14444202371622025
-0.20560000000000006,-0.14472496597619325
-0.20660000000000006,-0.14500790823616627
-0.20760000000000006,-0.14529085049613927
-0.20860000000000006,-0.14557379275611226
-0.20960000000000006,-0.1458567350160853
-0.21060000000000006,-0.14613967727605828
-0.21160000000000007,-0.1465640906660178
-0.21260000000000007,-0.14684703292599083
-0.21360000000000007,-0.14712997518596382
-0.21460000000000007,-0.14741291744593682
-0.21560000000000007,-0.14769585970590982
-0.21660000000000007,-0.14797880196588284
-0.21760000000000007,-0.14826174422585583
-0.21860000000000007,-0.14854468648582883
-0.21960000000000007,-0.14882762874580185
-0.22060000000000007,-0.14911057100577488
-0.22160000000000007,-0.14939351326574787
-0.22260000000000008,-0.1496764555257209
-0.22360000000000008,-0.1499593977856939
-0.22460000000000008,-0.1502423400456669
-0.22560000000000008,-0.1503838111756534
-0.22660000000000008,-0.1508082245656129
-0.22760000000000008,-0.1509496956955994
-0.22860000000000008,-0.1512326379555724
-0.22960000000000008,-0.15151558021554543
-0.23060000000000008,-0.15179852247551845
-0.23160000000000008,-0.15208146473549145
-0.23260000000000008,-0.15236440699546444
-0.23360000000000009,-0.15264734925543746
-0.2346000000000001,-0.15293029151541046
-0.2356000000000001,-0.15321323377538346
-0.2366000000000001,-0.15349617603535648
-0.2376000000000001,-0.15377911829532948
-0.2386000000000001,-0.1540620605553025
-0.2396000000000001,-0.1543450028152755
-0.2406000000000001,-0.15462794507524852
-0.2416000000000001,-0.15491088733522151
-0.2426000000000001,-0.1551938295951945
-0.2436000000000001,-0.15547677185516753
-0.2446000000000001,-0.15575971411514053
-0.2456000000000001,-0.15604265637511353
-0.2466000000000001,-0.15632559863508652
-0.2476000000000001,-0.15660854089505957
-0.2486000000000001,-0.15689148315503257
-0.2496000000000001,-0.15717442541500556
-0.2506000000000001,-0.1574573676749786
-0.2516000000000001,-0.15774030993495158
-0.2526000000000001,-0.15802325219492458
-0.2536000000000001,-0.1584476655848841
-0.2546000000000001,-0.1587306078448571
-0.2556000000000001,-0.15901355010483012
-0.2566000000000001,-0.15929649236480314
-0.2576000000000001,-0.15957943462477614
-0.2586000000000001,-0.16000384801473563
-0.2596000000000001,-0.16028679027470866
-0.2606000000000001,-0.16056973253468165
-0.2616000000000001,-0.16099414592464115
-0.2626000000000001,-0.16127708818461417
-0.2636000000000001,-0.1617015015745737
-0.2646000000000001,-0.1619844438345467
-0.2656000000000001,-0.1622673860945197
-0.2666000000000001,-0.1626917994844792
-0.2676000000000001,-0.1629747417444522
-0.2686000000000001,-0.16339915513441172
-0.2696000000000001,-0.16368209739438472
-0.2706000000000001,-0.16410651078434427
-0.2716000000000001,-0.16453092417430376
-0.2726000000000001,-0.16481386643427676
-0.2736000000000001,-0.16523827982423628
-0.2746000000000001,-0.1656626932141958
-0.2756000000000001,-0.16608710660415532
-0.2766000000000001,-0.16651151999411481
-0.2776000000000001,-0.1669359333840743
-0.2786000000000001,-0.16721887564404736
-0.2796000000000001,-0.16764328903400685
-0.2806000000000001,-0.16806770242396638
-0.28160000000000013,-0.16863358694391237
-0.28260000000000013,-0.16905800033387192
-0.28360000000000013,-0.1694824137238314
-0.2846,-0.16990682711379093
-0.2856,-0.17033124050375043
-0.2866,-0.17075565389370992
-0.2876,-0.17103859615368294
-0.2886,-0.17160448067362896
-0.2896,-0.17202889406358848
-0.2906,-0.17259477858353447
-0.2916,-0.173019191973494
-0.2926,-0.17358507649344
-0.2936,-0.17415096101338604
-0.29460000000000003,-0.17471684553333205
-0.29560000000000003,-0.17514125892329155
-0.29660000000000003,-0.17570714344323757
-0.29760000000000003,-0.17641449909317006
-0.29860000000000003,-0.1768389124831296
-0.29960000000000003,-0.17754626813306212
-0.30060000000000003,-0.17811215265300812
-0.30160000000000003,-0.17867803717295414
-0.30260000000000004,-0.17924392169290015
-0.30360000000000004,-0.17995127734283267
-0.30460000000000004,-0.1805171618627787
-0.30560000000000004,-0.18122451751271118
-0.30660000000000004,-0.18193187316264373
-0.30760000000000004,-0.18263922881257624
-0.30860000000000004,-0.18320511333252223
-0.30960000000000004,-0.18391246898245475
-0.31060000000000004,-0.1846198246323873
-0.31160000000000004,-0.18532718028231981
-0.31260000000000004,-0.1860345359322523
-0.31360000000000005,-0.18674189158218485
-0.31460000000000005,-0.18744924723211737
-0.31560000000000005,-0.18829807401203638
-0.31660000000000005,-0.1890054296619689
-0.31760000000000005,-0.18985425644188791
-0.31860000000000005,-0.19056161209182043
-0.31960000000000005,-0.19141043887173945
-0.32060000000000005,-0.1922592656516585
-0.32160000000000005,-0.1931080924315775
-0.32260000000000005,-0.19395691921149652
-0.32360000000000005,-0.19480574599141554
-0.32460000000000006,-0.19565457277133455
-0.32560000000000006,-0.1965033995512536
-0.32660000000000006,-0.1973522263311726
-0.32760000000000006,-0.19834252424107812
-0.32860000000000006,-0.19919135102099716
-0.32960000000000006,-0.20004017780091618
-0.33060000000000006,-0.2008890045808352
-0.33160000000000006,-0.20187930249074074
-0.33260000000000006,-0.20286960040064628
-0.33360000000000006,-0.2038598983105518
-0.33460000000000006,-0.20485019622045733
-0.33560000000000006,-0.20569902300037635
-0.33660000000000007,-0.20683079204026839
-0.33760000000000007,-0.2078210899501739
-0.33860000000000007,-0.2088113878600794
-0.33960000000000007,-0.20980168576998495
-0.34060000000000007,-0.21093345480987696
-0.34160000000000007,-0.2119237527197825
-0.34260000000000007,-0.21291405062968802
-0.34360000000000007,-0.21404581966958006
-0.3446000000000001,-0.2151775887094721
-0.3456000000000001,-0.2161678866193776
-0.3466000000000001,-0.21729965565926962
-0.34759999999999996,-0.21843142469916169
-0.3486000000000001,-0.2195631937390537
-0.34959999999999997,-0.2206949627789457
-0.3506000000000001,-0.22182673181883775
-0.35159999999999997,-0.22309997198871628
-0.3526000000000001,-0.2242317410286083
-0.35359999999999997,-0.22536351006850036
-0.3546000000000001,-0.22663675023837887
-0.35559999999999997,-0.2279099904082574
-0.3566000000000001,-0.22904175944814942
-0.3576,-0.23031499961802795
-0.3586000000000001,-0.23158823978790652
-0.3596,-0.23286147995778506
-0.3606000000000001,-0.23413472012766354
-0.3616,-0.2354079602975421
-0.3626000000000001,-0.23668120046742064
-0.3636,-0.23795444063729917
-0.3646000000000001,-0.2392276808071777
-0.3656,-0.24050092097705625
-0.3666000000000001,-0.24191563227692126
-0.3676,-0.24333034357678635
-0.3686000000000001,-0.2446035837466648
-0.3696,-0.2460182950465299
-0.3706000000000001,-0.24729153521640837
-0.3716,-0.24884771764625993
-0.3726000000000001,-0.25026242894612494
-0.3736,-0.25167714024599
-0.3746000000000001,-0.25309185154585506
-0.3756,-0.25450656284572004
-0.3766000000000001,-0.25592127414558513
-0.3776,-0.2574774565754367
-0.3786000000000001,-0.2588921678753017
-0.3796,-0.26044835030515323
-0.3806000000000001,-0.2618630616050183
-0.3816,-0.2634192440348699
-0.3826000000000001,-0.2651168975947079
-0.3836,-0.2666730800245595
-0.3846000000000001,-0.268229262454411
-0.3856,-0.2697854448842625
-0.3866000000000001,-0.27148309844410057
-0.3876,-0.27303928087395213
-0.3886000000000001,-0.27473693443379016
-0.3896,-0.2764345879936282
-0.3906000000000001,-0.2781322415534663
-0.3916,-0.2799713662432907
-0.3926000000000001,-0.2815275486731423
-0.3936,-0.28322520223298037
-0.3946000000000001,-0.2849228557928184
-0.3956,-0.28676198048264295
-0.3966000000000001,-0.2886011051724675
-0.3976,-0.29044022986229207
-0.3986000000000001,-0.2924208256821031
-0.3996,-0.29425995037192765
-0.4006000000000001,-0.2962405461917387
-0.4016,-0.29807967088156323
-0.4026000000000001,-0.30006026670137426
-0.4036,-0.30204086252118534
-0.4046000000000001,-0.30402145834099636
-0.4056,-0.30600205416080745
-0.40660000000000013,-0.3079826499806185
-0.4076,-0.310104716930416
-0.40860000000000013,-0.31208531275022705
-0.4096,-0.3142073797000246
-0.41060000000000013,-0.31632944664982215
-0.4116,-0.3184515135996197
-0.41260000000000013,-0.3205735805494173
-0.4136,-0.32283711862920134
-0.41460000000000014,-0.3249591855789989
-0.4156,-0.32722272365878297
-0.41660000000000014,-0.32948626173856704
-0.4176,-0.33174979981835107
-0.41860000000000014,-0.3340133378981352
-0.41960000000000003,-0.33641834710790575
-0.42060000000000014,-0.3386818851876898
-0.42160000000000003,-0.34122836552744684
-0.42260000000000014,-0.34377484586720397
-0.42360000000000003,-0.3461798550769745
-0.42460000000000014,-0.34858486428674507
-0.42560000000000003,-0.3509898734965156
-0.42660000000000015,-0.3535363538362727
-0.42760000000000004,-0.35608283417602976
-0.42860000000000015,-0.3586293145157868
-0.42960000000000004,-0.3610343237255574
-0.43060000000000015,-0.3637222751953009
-0.43160000000000004,-0.366268755535058
-0.43260000000000015,-0.3688152358748151
-0.43360000000000004,-0.3715031873445586
-0.43460000000000015,-0.37419113881430216
-0.43560000000000004,-0.37687909028404576
-0.43660000000000015,-0.3795670417537893
-0.43760000000000004,-0.3822549932235329
