Potential V vs RHE, Current mA cm-2
0.013299999999999867,20.187930249074075
0.012299999999999978,18.88639585319824
0.011299999999999866,17.71218547431026
0.010299999999999976,16.622857773414182
0.009299999999999864,15.618412750510005
0.008299999999999974,14.65640906660178
0.007299999999999862,13.780702771985322
0.006299999999999972,12.907825899968595
0.00529999999999986,12.080219789547549
0.0042999999999999705,11.251198967826637
0.0032999999999998586,10.46603419640154
0.0022999999999999687,9.680869424976446
0.0012999999999998568,8.939560703847167
0.00029999999999996696,8.198251982717888
-0.000700000000000145,7.543240650880375
-0.0017000000000000348,6.801931929751096
-0.0027000000000001467,6.14833530921345
-0.0037000000000000366,5.449467927080121
-0.0047000000000001485,4.795871306542475
-0.005700000000000038,4.140859974704963
-0.00670000000000015,3.4434073038714996
-0.00770000000000004,2.7898106833338523
-0.008700000000000152,2.1347993514963406
-0.009700000000000042,1.4812027309586933
-0.010700000000000154,0.870188920546984
-0.011700000000000044,0.3031726315610774
-0.012700000000000156,-0.26384365742482935
-0.013700000000000045,-0.8745745255765657
-0.014700000000000157,-1.3980177065266295
-0.015700000000000047,-1.9650339955125358
-0.01670000000000016,-2.532333226758415
-0.01770000000000005,-3.0996324580042955
-0.01870000000000016,-3.6655169779503103
-0.01970000000000005,-4.23281620919619
-0.020700000000000163,-4.756259390146253
-0.021700000000000053,-5.323558621392133
-0.022700000000000164,-5.847001802342197
-0.023700000000000054,-6.326588932996443
-0.024700000000000166,-6.850032113946507
-0.025700000000000056,-7.329619244600755
-0.026700000000000168,-7.853062425550818
-0.027700000000000058,-8.332649556205066
-0.02870000000000017,-8.812236686859313
-0.02970000000000006,-9.335679867809377
-0.03070000000000017,-9.85912304875944
-0.03170000000000006,-10.340124890713554
-0.03270000000000017,-10.819712021367803
-0.03370000000000006,-11.299299152022046
-0.034700000000000175,-11.73503023238048
-0.035700000000000065,-12.214617363034726
-0.03670000000000018,-12.651763154693022
-0.03770000000000007,-13.087494235051453
-0.03870000000000018,-13.523225315409885
-0.03970000000000007,-13.960371107068182
-0.04070000000000018,-14.401761032626075
-0.04170000000000007,-14.868615761581536
-0.04270000000000018,-15.307176264539699
-0.04370000000000007,-15.78817810649381
-0.044700000000000184,-16.22673860945197
-0.045700000000000074,-16.665299112410132
-0.046700000000000186,-17.061418276372343
-0.047700000000000076,-17.4433903273359
-0.04870000000000019,-17.839509491298113
-0.04970000000000008,-18.23562865526032
-0.05070000000000019,-18.631747819222536
-0.05170000000000008,-19.01371987018609
-0.05270000000000019,-19.409839034148305
-0.05370000000000008,-19.848399537106463
-0.05470000000000019,-20.286960040064624
-0.05570000000000008,-20.683079204026836
-0.056700000000000195,-21.107492593986347
-0.057700000000000085,-21.54605309694451
-0.058700000000000196,-21.94217226090672
-0.059700000000000086,-22.42317410286083
-0.0607000000000002,-22.819293266823045
-0.06170000000000009,-23.24370665678255
-0.0627000000000002,-23.639825820744765
-0.06370000000000009,-23.993503645711023
-0.0647000000000002,-24.389622809673234
-0.06570000000000009,-24.729153521640843
-0.0667000000000002,-25.0828313466071
-0.0677000000000001,-25.43650917157336
-0.0687000000000002,-25.81848122253692
-0.0697000000000001,-26.17215904750318
-0.07070000000000021,-26.568278211465387
-0.0717000000000001,-26.9643973754276
-0.07270000000000021,-27.34636942639116
-0.0737000000000001,-27.78492992934932
-0.07470000000000021,-28.22349043230748
-0.0757000000000001,-28.704492274261593
-0.07670000000000021,-29.14305277721976
-0.0777000000000001,-29.62405461917387
-0.07870000000000021,-30.04846800913338
-0.0797000000000001,-30.444587173095588
-0.08070000000000022,-30.8407063370578
-0.0817000000000001,-31.19438416202406
-0.08270000000000022,-31.533914873991666
-0.08370000000000011,-31.84515135996197
-0.08470000000000022,-32.14224073293363
-0.08570000000000011,-32.49591855789989
-0.08670000000000022,-32.807155043870196
-0.08770000000000011,-33.10424441684186
-0.08870000000000022,-33.45792224180811
-0.08970000000000011,-33.81160006677438
-0.09070000000000022,-34.236013456733886
-0.09170000000000011,-34.632132620696105
-0.09270000000000023,-35.07069312365426
-0.09370000000000012,-35.55169496560837
-0.09470000000000023,-35.99025546856653
-0.09570000000000012,-36.4288159715247
-0.09670000000000023,-36.8532293614842
-0.09770000000000012,-37.249348525446415
-0.09870000000000023,-37.645467689408626
-0.09970000000000012,-37.99914551437489
-0.10070000000000023,-38.38111756533845
-0.10170000000000012,-38.692354051308754
-0.10270000000000024,-39.08847321527096
-0.10370000000000013,-39.42800392723857
-0.10470000000000024,-39.82412309120078
-0.10570000000000013,-40.177800916167044
-0.10670000000000024,-40.51733162813464
-0.10770000000000013,-40.87100945310091
-0.10870000000000024,-41.22468727806717
-0.10970000000000013,-41.56421799003478
-0.11070000000000024,-41.91789581500104
-0.11170000000000013,-42.31401497896325
-0.11270000000000002,-42.71013414292546
-0.11370000000000013,-43.09210619388902
-0.11470000000000002,-43.48822535785123
-0.11570000000000014,-43.92678586080939
-0.11670000000000003,-44.3229050247716
-0.11770000000000014,-44.74731841473111
-0.11870000000000003,-45.18587891768927
-0.11970000000000014,-45.581998081651484
-0.12070000000000003,-45.97811724561369
-0.12170000000000014,-46.37423640957591
-0.12270000000000003,-46.75620846053947
-0.12370000000000014,-47.15232762450167
-0.12470000000000003,-47.54844678846388
-0.12570000000000014,-47.8879775004315
-0.12670000000000003,-48.2840966643937
-0.12770000000000015,-48.63777448935996
-0.12870000000000004,-48.97730520132757
-0.12970000000000015,-49.373424365289786
-0.13070000000000004,-49.72710219025603
-0.13170000000000015,-50.12322135421825
-0.13270000000000004,-50.42031072718991
-0.13370000000000015,-50.77398855215617
-0.13470000000000004,-51.21254905511432
-0.13570000000000015,-51.69355089706845
-0.13670000000000004,-52.17455273902255
-0.13770000000000016,-52.74043725896857
-0.13870000000000005,-53.30632177891458
-0.13970000000000016,-53.7873236208687
-0.14070000000000005,-54.26832546282281
-0.14170000000000016,-54.69273885278232
-0.14270000000000005,-55.046416677748574
-0.14370000000000016,-55.400094502714836
-0.14470000000000005,-55.6971838756865
-0.14570000000000016,-56.05086170065276
-0.14670000000000005,-56.36209818662306
-0.14770000000000016,-56.70162889859067
-0.14870000000000005,-57.05530672355693
-0.14970000000000017,-57.45142588751914
-0.15070000000000006,-57.974869068469204
-0.15170000000000017,-58.45587091042332
-0.15270000000000006,-59.02175543036933
-0.15370000000000017,-59.587639950315335
-0.15470000000000006,-60.19596580925731
-0.15570000000000017,-60.80429166819927
-0.15670000000000006,-61.28529351015339
-0.15770000000000017,-61.7662953521075
-0.15870000000000006,-62.16241451606972
-0.15970000000000018,-62.501945228037314
-0.16070000000000007,-62.855623053003576
-0.16170000000000018,-63.15271242597524
-0.16270000000000007,-63.5063902509415
-0.16370000000000018,-63.81762673691181
-0.16470000000000007,-64.11471610988345
-0.16570000000000018,-64.42595259585376
-0.16670000000000007,-64.82207175981598
-0.16770000000000018,-65.34551494076604
-0.16870000000000007,-65.86895812171612
-0.16970000000000018,-66.51972531965401
-0.17070000000000007,-67.17049251759194
-0.17170000000000019,-67.82125971552985
-0.17270000000000008,-68.38714423547587
-0.1737000000000002,-68.86814607742998
-0.17470000000000008,-69.26426524139221
-0.1757000000000002,-69.53306038836655
-0.17670000000000008,-69.78770842234226
-0.1777000000000002,-70.05650356931662
-0.17870000000000008,-70.26871026429637
-0.1797000000000002,-70.57994675026669
-0.18070000000000008,-70.96191880123024
-0.1817000000000002,-71.4004793041884
-0.18270000000000008,-71.92392248513846
-0.1837000000000002,-72.48980700508447
-0.1847000000000001,-73.0556915250305
-0.1857000000000002,-73.72060583596706
-0.1867000000000001,-74.32893169490903
-0.1877000000000002,-74.93725755385098
-0.1887000000000001,-75.50314207379701
-0.1897000000000002,-75.98414391575112
-0.1907000000000001,-76.42270441870929
-0.1917000000000001,-76.81882358267148
-0.19269999999999998,-77.243236972631
-0.1937000000000001,-77.7242388145851
-0.19469999999999998,-78.20524065653922
-0.1957000000000001,-78.77112517648524
-0.19669999999999999,-79.2945683574353
-0.1977000000000001,-79.7755701993894
-0.1987,-80.29901338033947
-0.1997000000000001,-80.69513254430169
-0.2007,-81.1761343862558
-0.2017000000000001,-81.61469488921396
-0.2027,-82.03910827917348
-0.2037000000000001,-82.52011012112759
-0.2047,-83.0011119630817
-0.2057000000000001,-83.43967246603985
-0.2067,-83.96311564698992
-0.2077000000000001,-84.44411748894404
-0.2087,-85.01000200889004
-0.2097000000000001,-85.57588652883607
-0.2107,-86.14177104878208
-0.2117000000000001,-86.75009690772404
-0.2127,-87.27354008867411
-0.2137000000000001,-87.85357172161878
-0.2147,-88.37701490256885
-0.2157000000000001,-88.9004580835189
-0.2167,-89.46634260346492
-0.21770000000000012,-89.98978578441499
-0.2187,-90.47078762636909
-0.21970000000000012,-90.89520101632861
-0.2207,-91.24887884129487
-0.22170000000000012,-91.64499800525708
-0.2227,-92.12599984721119
-0.22370000000000012,-92.6918843671572
-0.2247,-93.34265156509512
-0.22570000000000012,-94.03586010202899
-0.2267,-94.70077441296557
-0.22770000000000012,-95.43642428889537
-0.22870000000000001,-96.04475014783733
-0.22970000000000013,-96.5681933287874
-0.23070000000000002,-97.13407784873341
-0.23170000000000013,-97.61507969068752
-0.23270000000000002,-98.09608153264163
-0.23370000000000013,-98.49220069660386
-0.23470000000000002,-98.93076119956201
-0.23570000000000013,-99.31273325052557
-0.23670000000000002,-99.75129375348374
-0.2376999999999999,-100.2747369344338
-0.23870000000000002,-100.92550413237171
-0.2396999999999999,-101.59041844330828
-0.24070000000000003,-102.3260683192381
-0.24169999999999991,-103.07586530816658
-0.24270000000000003,-103.76907384510045
-0.24369999999999992,-104.50472372103027
-0.24470000000000003,-105.25452070995874
-0.24569999999999992,-106.0326119248845
-0.24670000000000003,-106.78240891381296
-0.24769999999999992,-107.47561745074682
-0.24870000000000003,-108.12638464868475
-0.24969999999999992,-108.64982782963483
-0.25070000000000003,-109.13082967158894
-0.2516999999999999,-109.52694883555114
-0.25270000000000004,-109.92306799951335
-0.2536999999999999,-110.3050400504769
-0.25470000000000004,-110.74360055343507
-0.2556999999999999,-111.18216105639323
-0.25670000000000004,-111.7056042373433
-0.25769999999999993,-112.3563714352812
-0.25870000000000004,-113.06372708521374
-0.25969999999999993,-113.92670097813141
-0.26070000000000004,-114.84626332304367
-0.26169999999999993,-115.72338432896
-0.26270000000000004,-116.67124089986959
-0.26369999999999993,-117.54836190578591
-0.26470000000000005,-118.3406002337103
-0.26569999999999994,-119.1186914486361
-0.26670000000000005,-119.769458646574
-0.26769999999999994,-120.43437295751058
-0.26870000000000005,-121.04269881645253
-0.26969999999999994,-121.60858333639854
-0.27070000000000005,-122.17446785634456
-0.27169999999999994,-122.69791103729463
-0.27270000000000005,-123.26379555724066
-0.27369999999999994,-123.82968007718667
-0.27470000000000006,-124.39556459713268
-0.27569999999999995,-125.00389045607463
-0.27670000000000006,-125.6688047670112
-0.27769999999999995,-126.40445464294103
-0.27870000000000006,-127.23913430986138
-0.27969999999999995,-128.18699088077096
-0.28070000000000006,-129.19143590367514
-0.28169999999999995,-130.23832226557528
-0.28270000000000006,-131.24276728847948
-0.28369999999999995,-132.11988829439576
-0.28470000000000006,-132.9404208483175
-0.28569999999999995,-133.64777649825
-0.28670000000000007,-134.29854369618792
-0.28769999999999996,-134.82198687713802
-0.28870000000000007,-135.3029887190921
-0.28969999999999996,-135.74154922205025
-0.29070000000000007,-136.13766838601245
-0.29169999999999996,-136.562081775972
-0.29270000000000007,-137.08552495692206
-0.29369999999999996,-137.65140947686808
-0.2947000000000001,-138.40120646579655
-0.29569999999999996,-139.3207688107088
-0.2967000000000001,-140.36765517260895
-0.29769999999999996,-141.47112998650366
-0.2987000000000001,-142.6028990263957
-0.29969999999999997,-143.73466806628772
-0.3007000000000001,-144.72496597619326
-0.30169999999999997,-145.57379275611228
-0.3027000000000001,-146.4226195360313
-0.30369999999999997,-147.1299751859638
-0.3047000000000001,-147.83733083589632
-0.30569999999999997,-148.54468648582886
-0.3067000000000001,-149.25204213576137
-0.3077,-149.8179266557074
-0.3087000000000001,-150.38381117565342
-0.3097,-150.8082245656129
-0.3107000000000001,-151.5155802155454
-0.3117,-152.36440699546444
-0.3127000000000001,-153.49617603535648
-0.3137,-154.76941620523502
-0.3147000000000001,-156.18412750510007
-0.3157,-157.59883880496508
-0.3167000000000001,-159.01355010483013
-0.3177,-160.00384801473567
-0.3187000000000001,-160.99414592464117
-0.3197,-161.84297270456022
-0.3207000000000001,-162.5503283544927
-0.3217,-163.25768400442522
-0.3227000000000001,-163.96503965435775
-0.3237,-164.53092417430375
-0.3247000000000001,-165.2382798242363
-0.3257,-165.8041643441823
-0.3267000000000001,-166.65299112410133
-0.3277,-167.6432890340068
-0.3287000000000001,-169.0580003338719
-0.3297,-170.75565389370993
-0.3307000000000001,-172.73624971352098
-0.3317,-174.57537440334553
-0.3327000000000001,-176.13155683319707
-0.3337,-177.2633258730891
-0.3347000000000001,-177.9706815230216
-0.3357,-178.53656604296762
-0.3367000000000001,-178.96097943292713
-0.3377,-179.24392169290016
-0.3387000000000001,-179.24392169290016
-0.3397,-179.38539282288664
-0.3407000000000001,-179.38539282288664
-0.3417,-179.52686395287316
-0.3427000000000001,-179.95127734283267
-0.3437,-180.8001041227517
-0.3447000000000001,-182.07334429263022
-0.3457,-183.34658446250873
-0.3467000000000001,-184.6198246323873
-0.3477,-185.46865141230631
-0.3487000000000001,-186.17600706223882
-0.3497,-186.74189158218485
-0.3507000000000001,-187.30777610213087
-0.3517,-188.01513175206335
-0.3527000000000001,-188.8639585319824
-0.3537,-189.8542564418879
-0.3547000000000001,-191.12749661176645
-0.3557,-192.683679041618
-0.35670000000000013,-194.09839034148303
-0.3577,-195.65457277133459
-0.35870000000000013,-197.0692840711996
-0.3597,-198.48399537106465
-0.36070000000000013,-199.75723554094319
-0.3617,-200.88900458083523
-0.3626999999999999,-202.02077362072723
-0.3637,-203.15254266061928
-0.3646999999999999,-204.2843117005113
-0.3657,-205.27460961041683
-0.3666999999999999,-205.98196526034934
-0.3677,-206.54784978029537
-0.3686999999999999,-206.97226317025488
-0.36970000000000003,-207.5381476902009
-0.3706999999999999,-208.3869744701199
-0.37170000000000003,-209.51874351001192
-0.3726999999999999,-210.65051254990397
-0.37370000000000003,-212.065223849769
-0.3746999999999999,-213.47993514963403
-0.37570000000000003,-214.75317531951256
-0.3766999999999999,-215.6020020994316
-0.37770000000000004,-216.3093577493641
-0.3786999999999999,-217.01671339929663
-0.37970000000000004,-217.72406904922914
-0.3806999999999999,-218.43142469916165
-0.38170000000000004,-219.28025147908068
-0.38269999999999993,-220.1290782589997
-0.38370000000000004,-221.11937616890526
-0.38469999999999993,-222.10967407881074
-0.38570000000000004,-223.09997198871628
-0.38669999999999993,-224.37321215859478
-0.38770000000000004,-225.64645232847332
-0.38869999999999993,-226.91969249835188
-0.38970000000000005,-228.0514615382439
-0.39069999999999994,-229.32470170812243
-0.39170000000000005,-230.45647074801445
-0.39269999999999994,-231.5882397879065
-0.39370000000000005,-232.43706656782552
-0.39469999999999994,-233.28589334774458
-0.39570000000000005,-233.99324899767706
-0.39669999999999994,-234.84207577759608
-0.39770000000000005,-235.97384481748813
-0.39869999999999994,-237.24708498736666
-0.39970000000000006,-238.37885402725868
-0.40069999999999995,-239.65209419713722
-0.40170000000000006,-240.92533436701575
-0.40269999999999995,-242.19857453689428
-0.40370000000000006,-243.3303435767863
-0.40469999999999995,-244.46211261667833
-0.40570000000000006,-245.59388165657037
-0.40669999999999995,-246.7256506964624
-0.40770000000000006,-247.57447747638145
-0.40869999999999995,-248.42330425630044
-0.40970000000000006,-249.2721310362195
-0.41069999999999995,-250.1209578161385
-0.41170000000000007,-250.9697845960575
-0.41269999999999996,-251.96008250596302
-0.41370000000000007,-253.23332267584152
-0.41469999999999996,-254.50656284572008
-0.41570000000000007,-255.92127414558513
-0.41669999999999996,-257.4774565754367
-0.41770000000000007,-258.8921678753017
-0.41869999999999996,-260.4483503051532
-0.4197000000000001,-261.8630616050183
-0.42069999999999996,-263.27777290488336
-0.4217000000000001,-264.40954194477536
-0.42269999999999996,-265.2583687246944
-0.4237000000000001,-266.2486666345999
-0.42469999999999997,-267.09749341451896
-0.4257000000000001,-268.0877913244245
-0.42669999999999997,-269.361031494303
-0.4277000000000001,-270.775742794168
-0.42869999999999997,-272.1904540940331
-0.4297000000000001,-273.60516539389806
-0.43069999999999997,-275.0198766937631
-0.4317000000000001,-275.86870347368216
-0.4327,-276.5760591236147
-0.4337000000000001,-277.0004725135742
-0.4347,-277.4248859035337
-0.4357000000000001,-277.9907704234797
-0.4367,-278.2737126834527
-0.4377000000000001,-278.8395972033987
-0.4387,-279.40548172334474
-0.4397000000000001,-280.11283737327733
-0.4407,-280.9616641531963
-0.4417000000000001,-281.66901980312883
-0.4427,-282.65931771303434
-0.4437000000000001,-283.79108675292633
-0.4447,-284.9228557928184
-0.4457000000000001,-286.0546248327104
-0.4467,-287.327865002589
-0.4477000000000001,-288.6011051724675
-0.4487,-289.87434534234603
-0.4497000000000001,-291.14758551222457
-0.4507,-292.2793545521166
-0.4517000000000001,-293.26965246202207
-0.4527,-294.11847924194115
-0.4537000000000001,-295.10877715184665
-0.4547,-295.9576039317657
-0.4557000000000001,-296.6649595816982
-0.4567,-297.6552574916037
-0.4577000000000001,-298.50408427152274
-0.4587,-299.49438218142825
-0.4597000000000001,-300.76762235130684
-0.4607,-302.32380478115834
-0.4617000000000001,-303.87998721100985
-0.4627,-305.43616964086146
-0.4637000000000001,-306.70940981073994
-0.4647,-307.841178850632
-0.4657000000000001,-308.8314767605375
-0.4667,-309.3973612804835
-0.4677000000000001,-309.9632458004295
-0.4687,-310.38765919038906
-0.4697000000000001,-310.6706014503621
-0.4707,-311.2364859703081
-0.4717000000000001,-311.6608993602676
-0.4727,-312.50972614018656
-0.4737000000000001,-313.5000240500921
-0.4747,-314.6317930899841
-0.4757000000000001,-316.3294466498222
-0.4767,-318.16857133964675
-0.4777000000000001,-319.72475376949825
-0.4787,-321.42240732933635
-0.4797000000000001,-322.97858975918786
-0.4807,-324.67624331902596
-0.48170000000000013,-326.373896878864
-0.4827,-327.9300793087155
-0.48370000000000013,-329.48626173856707
-0.4847,-330.7595019084456
-0.48570000000000013,-331.74979981835105
-0.4867,-331.4668575583781
-0.48570000000000013,-328.92037721862107
-0.4847,-326.373896878864
-0.48370000000000013,-323.8274165391069
-0.4827,-321.1394650693634
-0.48170000000000013,-318.73445585959274
-0.4807,-316.47091777980876
-0.4797000000000001,-314.34885083001114
-0.4787,-312.65119727017316
-0.4777000000000001,-311.2364859703081
-0.4767,-310.10471693041603
-0.4757000000000001,-308.972947890524
-0.4747,-307.98264998061853
-0.4737000000000001,-306.8508809407265
-0.4727,-305.43616964086146
-0.4717000000000001,-303.73851608102336
-0.4707,-301.8993913911989
-0.4697000000000001,-300.06026670137425
-0.4687,-297.9381997515767
-0.4677000000000001,-295.67466167179265
-0.4667,-293.55259472199515
-0.4657000000000001,-291.71347003217056
-0.4647,-290.157287602319
-0.4637000000000001,-288.742576302454
-0.4627,-287.327865002589
