Potential V vs RHE, Current mA cm-2
0.013299999999999867,-2.662486666345999
0.012299999999999978,-4.843971490737885
0.011299999999999866,-6.719878674358924
0.010299999999999976,-8.288793505909249
0.009299999999999864,-9.59740145828441
0.008299999999999974,-10.601846481188586
0.007299999999999862,-11.473308641905447
0.006299999999999972,-12.12831997374296
0.00529999999999986,-12.73806054398479
0.0042999999999999705,-13.3930718758223
0.0032999999999998586,-13.960371107068182
0.0022999999999999687,-14.486643710617974
0.0012999999999998568,-14.826174422585586
0.00029999999999996696,-15.137410908555893
-0.000700000000000145,-15.3920589425316
-0.0017000000000000348,-15.70329542850191
-0.0027000000000001467,-16.056973253468165
-0.0037000000000000366,-16.396503965435777
-0.0047000000000001485,-16.665299112410132
-0.005700000000000038,-16.877505807389888
-0.00670000000000015,-17.018976937376394
-0.00770000000000004,-17.146300954364243
-0.008700000000000152,-17.358507649344002
-0.009700000000000042,-17.669744135314307
-0.010700000000000154,-17.924392169290012
-0.011700000000000044,-18.15074597726842
-0.012700000000000156,-18.23562865526032
-0.013700000000000045,-18.320511333252224
-0.014700000000000157,-18.44783535024008
-0.015700000000000047,-18.631747819222536
-0.01670000000000016,-18.88639585319824
-0.01770000000000005,-19.112749661176647
-0.01870000000000016,-19.197632339168546
-0.01970000000000005,-19.2400736781645
-0.020700000000000163,-19.3249563561564
-0.021700000000000053,-19.409839034148305
-0.022700000000000164,-19.636192842126707
-0.023700000000000054,-19.848399537106463
-0.024700000000000166,-20.01816489309027
-0.025700000000000056,-20.06060623208622
-0.026700000000000168,-20.06060623208622
-0.027700000000000058,-20.159636023076775
-0.02870000000000017,-20.329401379060574
-0.02970000000000006,-20.499166735044383
-0.03070000000000017,-20.72552054302279
-0.03170000000000006,-20.810403221014692
-0.03270000000000017,-20.89528589900659
-0.03370000000000006,-20.89528589900659
-0.034700000000000175,-20.93772723800254
-0.035700000000000065,-21.149933932982297
-0.03670000000000018,-21.333846401964752
-0.03770000000000007,-21.503611757948562
-0.03870000000000018,-21.58849443594046
-0.03970000000000007,-21.58849443594046
-0.04070000000000018,-21.63093577493641
-0.04170000000000007,-21.729965565926964
-0.04270000000000018,-21.899730921910766
-0.04370000000000007,-22.069496277894572
-0.044700000000000184,-22.196820294882425
-0.045700000000000074,-22.295850085872978
-0.046700000000000186,-22.295850085872978
-0.047700000000000076,-22.295850085872978
-0.04870000000000019,-22.46561544185678
-0.04970000000000008,-22.67782213683654
-0.05070000000000019,-22.861734605818995
-0.05170000000000008,-22.989058622806844
-0.05270000000000019,-22.989058622806844
-0.05370000000000008,-22.989058622806844
-0.05470000000000019,-23.073941300798747
-0.05570000000000008,-23.2012653177866
-0.056700000000000195,-23.427619125765005
-0.057700000000000085,-23.597384481748815
-0.058700000000000196,-23.639825820744765
-0.059700000000000086,-23.639825820744765
-0.0607000000000002,-23.682267159740714
-0.06170000000000009,-23.767149837732617
-0.0627000000000002,-23.951062306715073
-0.06370000000000009,-24.16326900169483
-0.0647000000000002,-24.290593018682678
-0.06570000000000009,-24.34718147067728
-0.0667000000000002,-24.290593018682678
-0.0677000000000001,-24.389622809673234
-0.0687000000000002,-24.516946826661083
-0.0697000000000001,-24.686712182644893
-0.07070000000000021,-24.9130659906233
-0.0717000000000001,-24.997948668615198
-0.07270000000000021,-25.04039000761115
-0.0737000000000001,-25.04039000761115
-0.07470000000000021,-25.0828313466071
-0.0757000000000001,-25.252596702590903
-0.07670000000000021,-25.43650917157336
-0.0777000000000001,-25.563833188561212
-0.07870000000000021,-25.60627452755716
-0.0797000000000001,-25.60627452755716
-0.08070000000000022,-25.60627452755716
-0.0817000000000001,-25.691157205549064
-0.08270000000000022,-25.81848122253692
-0.08370000000000011,-26.044835030515326
-0.08470000000000022,-26.129717708507226
-0.08570000000000011,-26.17215904750318
-0.08670000000000022,-26.17215904750318
-0.08770000000000011,-26.21460038649913
-0.08870000000000022,-26.29948306449103
-0.08970000000000011,-26.483395533473487
-0.09070000000000022,-26.65316088945729
-0.09170000000000011,-26.780484906445146
-0.09270000000000023,-26.780484906445146
-0.09370000000000012,-26.780484906445146
-0.09470000000000023,-26.822926245441096
-0.09570000000000012,-26.9643973754276
-0.09670000000000023,-27.176604070407354
-0.09770000000000012,-27.303928087395207
-0.09870000000000023,-27.34636942639116
-0.09970000000000012,-27.38881076538711
-0.10070000000000023,-27.38881076538711
-0.10170000000000012,-27.487840556377662
-0.10270000000000024,-27.65760591236147
-0.10370000000000013,-27.827371268345274
-0.10470000000000024,-27.912253946337174
-0.10570000000000013,-27.954695285333123
-0.10670000000000024,-27.912253946337174
-0.10770000000000013,-27.954695285333123
-0.10870000000000024,-28.05372507632368
-0.10970000000000013,-28.22349043230748
-0.11070000000000024,-28.350814449295335
-0.11170000000000013,-28.435697127287238
-0.11270000000000002,-28.435697127287238
-0.11370000000000013,-28.435697127287238
-0.11470000000000002,-28.478138466283188
-0.11570000000000014,-28.662050935265643
-0.11670000000000003,-28.789374952253496
-0.11770000000000014,-28.959140308237306
-0.11870000000000003,-28.959140308237306
-0.11970000000000014,-28.959140308237306
-0.12070000000000003,-28.959140308237306
-0.12170000000000014,-29.058170099227848
-0.12270000000000003,-29.18549411621571
-0.12370000000000014,-29.39770081119546
-0.12470000000000003,-29.482583489187363
-0.12570000000000014,-29.482583489187363
-0.12670000000000003,-29.482583489187363
-0.12770000000000015,-29.482583489187363
-0.12870000000000004,-29.62405461917387
-0.12970000000000015,-29.793819975157668
-0.13070000000000004,-29.921143992145527
-0.13170000000000015,-30.00602667013743
-0.13270000000000004,-30.04846800913338
-0.13370000000000015,-30.00602667013743
-0.13470000000000004,-30.04846800913338
-0.13570000000000015,-30.189939139119886
-0.13670000000000004,-30.359704495103685
-0.13770000000000016,-30.487028512091538
-0.13870000000000005,-30.529469851087494
-0.13970000000000016,-30.529469851087494
-0.14070000000000005,-30.487028512091538
-0.14170000000000016,-30.529469851087494
-0.14270000000000005,-30.71338232006995
-0.14370000000000016,-30.88314767605375
-0.14470000000000005,-30.968030354045652
-0.14570000000000016,-30.968030354045652
-0.14670000000000005,-30.925589015049702
-0.14770000000000016,-30.968030354045652
-0.14870000000000005,-31.052913032037555
-0.14970000000000017,-31.19438416202406
-0.15070000000000006,-31.36414951800786
-0.15170000000000017,-31.40659085700382
-0.15270000000000006,-31.40659085700382
-0.15370000000000017,-31.36414951800786
-0.15470000000000006,-31.40659085700382
-0.15570000000000017,-31.533914873991666
-0.15670000000000006,-31.717827342974125
-0.15770000000000017,-31.84515135996197
-0.15870000000000006,-31.887592698957924
-0.15970000000000018,-31.887592698957924
-0.16070000000000007,-31.84515135996197
-0.16170000000000018,-31.930034037953877
-0.16270000000000007,-32.05735805494172
-0.16370000000000018,-32.24127052392419
-0.16470000000000007,-32.368594540912035
-0.16570000000000018,-32.368594540912035
-0.16670000000000007,-32.368594540912035
-0.16770000000000018,-32.32615320191609
-0.16870000000000007,-32.45347721890394
-0.16970000000000018,-32.62324257488775
-0.17070000000000007,-32.764713704874254
-0.17170000000000019,-32.807155043870196
-0.17270000000000008,-32.807155043870196
-0.1737000000000002,-32.764713704874254
-0.17470000000000008,-32.807155043870196
-0.1757000000000002,-32.93447906085806
-0.17670000000000008,-33.10424441684186
-0.1777000000000002,-33.231568433829715
-0.17870000000000008,-33.288156885824314
-0.1797000000000002,-33.288156885824314
-0.18070000000000008,-33.231568433829715
-0.1817000000000002,-33.330598224820264
-0.18270000000000008,-33.45792224180811
-0.1837000000000002,-33.627687597791926
-0.1847000000000001,-33.755011614779775
-0.1857000000000002,-33.755011614779775
-0.1867000000000001,-33.712570275783825
-0.1877000000000002,-33.755011614779775
-0.1887000000000001,-33.89648274476628
-0.1897000000000002,-34.06624810075008
-0.1907000000000001,-34.193572117737936
-0.1917000000000001,-34.278454795729836
-0.19269999999999998,-34.278454795729836
-0.1937000000000001,-34.236013456733886
-0.19469999999999998,-34.278454795729836
-0.1957000000000001,-34.462367264712285
-0.19669999999999999,-34.632132620696105
-0.1977000000000001,-34.75945663768395
-0.1987,-34.8018979766799
-0.1997000000000001,-34.8018979766799
-0.2007,-34.85848642867451
-0.2017000000000001,-34.94336910666641
-0.2027,-35.07069312365426
-0.2037000000000001,-35.240458479638065
-0.2047,-35.38192960962457
-0.2057000000000001,-35.42437094862052
-0.2067,-35.42437094862052
-0.2077000000000001,-35.46681228761647
-0.2087,-35.594136304604326
-0.2097000000000001,-35.763901660588125
-0.2107,-35.94781412957058
-0.2117000000000001,-36.03269680756248
-0.2127,-36.07513814655844
-0.2137000000000001,-36.07513814655844
-0.2147,-36.16002082455034
-0.2157000000000001,-36.37222751953009
-0.2167,-36.55613998851254
-0.21770000000000012,-36.725905344496354
-0.2187,-36.768346683492304
-0.21970000000000012,-36.81078802248826
-0.2207,-36.8532293614842
-0.22170000000000012,-36.95225915247476
-0.2227,-37.122024508458566
-0.22370000000000012,-37.334231203438314
-0.2247,-37.51814367242077
-0.22570000000000012,-37.56058501141672
-0.2267,-37.56058501141672
-0.22770000000000012,-37.687909028404576
-0.22870000000000001,-37.81523304539243
-0.22970000000000013,-38.04158685337084
-0.23070000000000002,-38.253793548350586
-0.23170000000000013,-38.38111756533845
-0.23270000000000002,-38.42355890433439
-0.23370000000000013,-38.46600024333035
-0.23470000000000002,-38.607471373316855
-0.23570000000000013,-38.81967806829661
-0.23670000000000002,-39.046031876275016
-0.2376999999999999,-39.258238571254765
-0.23870000000000002,-39.38556258824262
-0.2396999999999999,-39.42800392723857
-0.24070000000000003,-39.51288660523048
-0.24169999999999991,-39.696799074212926
-0.24270000000000003,-39.90900576919269
-0.24369999999999992,-40.177800916167044
-0.24470000000000003,-40.34756627215084
-0.24569999999999992,-40.4748902891387
-0.24670000000000003,-40.559772967130606
-0.24769999999999992,-40.701244097117105
-0.24870000000000003,-40.91345079209687
-0.24969999999999992,-41.182245939071215
-0.25070000000000003,-41.43689397304693
-0.2516999999999999,-41.606659329030734
-0.25270000000000004,-41.74813045901723
-0.2536999999999999,-41.83301313700913
-0.25470000000000004,-42.00277849299294
-0.2556999999999999,-42.229132300971344
-0.25670000000000004,-42.526221673943
-0.25769999999999993,-42.79501682091736
-0.25870000000000004,-42.96478217690117
-0.25969999999999993,-43.09210619388902
-0.26070000000000004,-43.23357732387552
-0.26169999999999993,-43.48822535785123
-0.26270000000000004,-43.79946184382153
-0.26369999999999993,-44.096551216793195
-0.26470000000000005,-44.36534636376755
-0.26569999999999994,-44.535111719751356
-0.26670000000000005,-44.704877075735155
-0.26769999999999994,-44.93123088371356
-0.26870000000000005,-45.18587891768927
-0.26969999999999994,-45.581998081651484
-0.27070000000000005,-45.89323456762179
-0.27169999999999994,-46.147882601597495
-0.27270000000000005,-46.37423640957591
-0.27369999999999994,-46.586443104555656
-0.27470000000000006,-46.84109113853137
-0.27569999999999995,-47.19476896349763
-0.27670000000000006,-47.54844678846388
-0.27769999999999995,-47.93041883942744
-0.27870000000000006,-48.1992139864018
-0.27969999999999995,-48.36897934238561
-0.28070000000000006,-48.63777448935996
-0.28169999999999995,-48.97730520132757
-0.28270000000000006,-49.373424365289786
-0.28369999999999995,-49.85442620724389
-0.28470000000000006,-50.1656626932142
-0.28569999999999995,-50.46275206618586
-0.28670000000000007,-50.73154721316022
-0.28769999999999996,-50.98619524713592
-0.28870000000000007,-51.38231441109813
-0.28969999999999996,-51.86331625305225
-0.29070000000000007,-52.30187675601041
-0.29169999999999996,-52.69799591997262
-0.29270000000000007,-52.995085292944275
-0.29369999999999996,-53.30632177891458
-0.2947000000000001,-53.64585249088219
-0.29569999999999996,-54.1268543328363
-0.2967000000000001,-54.60785617479041
-0.29769999999999996,-55.088858016744524
-0.2987000000000001,-55.442535841710786
-0.29969999999999997,-55.838655005673
-0.3007000000000001,-56.1781857176406
-0.30169999999999997,-56.65918755959472
-0.3027000000000001,-57.182630740544774
-0.30369999999999997,-57.7485152604908
-0.3047000000000001,-58.27195844144086
-0.30569999999999997,-58.66807760540307
-0.3067000000000001,-59.10663810836124
-0.3077,-59.54519861131939
-0.3087000000000001,-60.11108313126541
-0.3097,-60.71940899020737
-0.3107000000000001,-61.327734849149344
-0.3117,-61.851178030099405
-0.3127000000000001,-62.33217987205352
-0.3137,-62.77074037501168
-0.3147000000000001,-63.29418355596174
-0.3157,-63.98739209289561
-0.3167000000000001,-64.63815929083353
-0.3177,-65.2464851497755
-0.3187000000000001,-65.82651678272015
-0.3197,-66.34995996367022
-0.3207000000000001,-66.87340314462028
-0.3217,-67.48172900356225
-0.3227000000000001,-68.17493754049613
-0.3237,-68.96717586842054
-0.3247000000000001,-69.61794306635846
-0.3257,-70.18382758630447
-0.3267000000000001,-70.74971210625048
-0.3277,-71.35803796519245
-0.3287000000000001,-72.05124650212633
-0.3297,-72.84348483005074
-0.3307000000000001,-73.57913470598055
-0.3317,-74.37137303390499
-0.3327000000000001,-74.97969889284694
-0.3337,-75.5880247517889
-0.3347000000000001,-76.33782174071737
-0.3357,-77.11591295564315
-0.3367000000000001,-77.99303396155948
-0.3377,-78.8135665154812
-0.3387000000000001,-79.56336350440966
-0.3397,-80.25657204134353
-0.3407000000000001,-80.9497805782774
-0.3417,-81.82690158419373
-0.3427000000000001,-82.70402259011003
-0.3437,-83.60943782202366
-0.3447000000000001,-84.48655882793999
-0.3457,-85.27879715586442
-0.3467000000000001,-86.01444703179425
-0.3477,-86.84912669871461
-0.3487000000000001,-87.71210059163228
-0.3497,-88.6741042755405
-0.3507000000000001,-89.67854929844468
-0.3517,-90.55567030436099
-0.3527000000000001,-91.41864419727867
-0.3537,-92.25332386419905
-0.3547000000000001,-93.13044487011537
-0.3557,-94.13488989301955
-0.35670000000000013,-95.18177625491967
-0.3577,-96.12963282582925
-0.35870000000000013,-97.09163650973747
-0.3597,-97.96875751565379
-0.36070000000000013,-98.88831986056607
-0.3617,-99.83617643147564
-0.3626999999999999,-100.88306279337576
-0.3637,-102.02897894626645
-0.3646999999999999,-103.01927685617197
-0.3657,-103.93883920108425
-0.3666999999999999,-104.90084288499246
-0.3677,-105.86284656890071
-0.3686999999999999,-106.95217426979677
-0.36970000000000003,-108.0839433096888
-0.3706999999999999,-109.25815368857677
-0.37170000000000003,-110.34748138947285
-0.3726999999999999,-111.394367751373
-0.37370000000000003,-112.44125411327312
-0.3746999999999999,-113.53058181416918
-0.37570000000000003,-114.71893930605583
-0.3766999999999999,-115.97803236293572
-0.37770000000000004,-117.15224274182368
-0.3786999999999999,-118.29815889471436
-0.37970000000000004,-119.3450452566145
-0.3806999999999999,-120.47681429650652
-0.38170000000000004,-121.60858333639854
-0.38269999999999993,-122.86767639327843
-0.38370000000000004,-124.14091656315696
-0.38469999999999993,-125.35756828104091
-0.38570000000000004,-126.48933732093293
-0.38669999999999993,-125.7536874450031
-0.38570000000000004,-122.1320265173486
-0.38469999999999993,-119.2884568046199
-0.38370000000000004,-116.85515336885203
-0.38269999999999993,-114.67649796705987
-0.38170000000000004,-112.58272524325962
-0.3806999999999999,-110.57383519745127
-0.37970000000000004,-108.64982782963483
-0.3786999999999999,-106.86729159180487
-0.37770000000000004,-105.25452070995874
-0.3766999999999999,-103.7266325061045
-0.37570000000000003,-102.1563029632543
-0.3746999999999999,-100.5010907424122
-0.37370000000000003,-98.88831986056607
-0.3726999999999999,-97.31799031771587
-0.37170000000000003,-95.79010211386164
-0.3706999999999999,-94.4319792659912
-0.36970000000000003,-93.08800353111941
-0.3686999999999999,-91.68743934425302
-0.3677,-90.20199247939475
-0.3666999999999999,-88.71654561453644
-0.3657,-87.27354008867411
-0.3646999999999999,-85.97200569279828
-0.3637,-84.6563241839238
-0.3626999999999999,-83.43967246603985
-0.3617,-82.13813807016405
-0.36070000000000013,-80.73757388329766
-0.3597,-79.33700969643127
-0.35870000000000013,-77.99303396155948
-0.3577,-76.7622351306769
-0.35670000000000013,-75.5880247517889
-0.3557,-74.37137303390499
-0.3547000000000001,-73.09813286402644
-0.3537,-71.7965984681506
-0.3527000000000001,-70.48091695927613
-0.3517,-69.26426524139221
-0.3507000000000001,-68.0900548625042
-0.3497,-67.00072716160814
-0.3487000000000001,-65.86895812171612
-0.3477,-64.63815929083353
-0.3467000000000001,-63.37906623395363
-0.3457,-62.16241451606972
-0.3447000000000001,-61.11552815416958
-0.3437,-60.06864179226946
-0.3427000000000001,-58.97931409137338
-0.3417,-57.87583927747865
-0.3407000000000001,-56.70162889859067
-0.3397,-55.527418519702685
-0.3387000000000001,-54.43809081880661
-0.3377,-53.433645795902436
-0.3367000000000001,-52.471642111994214
-0.3357,-51.46719708909004
-0.3347000000000001,-50.37786938819396
-0.3337,-49.24610034830193
-0.3327000000000001,-48.156772647405845
-0.3317,-47.15232762450167
-0.3307000000000001,-46.2327652795894
-0.3297,-45.32735004767578
-0.3287000000000001,-44.36534636376755
-0.3277,-43.36090134086337
-0.3267000000000001,-42.31401497896325
-0.3257,-41.30956995605907
-0.3247000000000001,-40.3900076111468
-0.3237,-39.56947505722508
-0.3227000000000001,-38.734795390304704
-0.3217,-37.77279170639648
-0.3207000000000001,-36.81078802248826
-0.3197,-35.806342999584075
-0.3187000000000001,-34.90092776767045
-0.3177,-34.10868943974604
-0.3167000000000001,-33.288156885824314
-0.3157,-32.45347721890394
-0.3147000000000001,-31.57635621298762
-0.3137,-30.71338232006995
-0.3127000000000001,-29.793819975157668
-0.3117,-28.959140308237306
-0.3107000000000001,-28.22349043230748
-0.3097,-27.487840556377662
-0.3087000000000001,-26.738043567449193
-0.3077,-25.81848122253692
-0.3067000000000001,-24.997948668615198
-0.30569999999999997,-24.16326900169483
-0.3047000000000001,-23.427619125765005
-0.30369999999999997,-22.776851927827092
-0.3027000000000001,-22.069496277894572
-0.30169999999999997,-21.333846401964752
-0.3007000000000001,-20.499166735044383
-0.29969999999999997,-19.721075520118614
-0.2987000000000001,-18.97127853119014
-0.29769999999999996,-18.320511333252224
-0.2967000000000001,-17.71218547431026
-0.29569999999999996,-17.103859615368293
-0.2947000000000001,-16.396503965435777
-0.29369999999999996,-15.660854089505953
-0.29270000000000007,-14.925204213576137
-0.29169999999999996,-14.26028990263957
-0.29070000000000007,-13.741090855589102
-0.28969999999999996,-13.217647674639037
-0.28870000000000007,-12.607907104397206
-0.28769999999999996,-11.909039722263879
-0.28670000000000007,-11.1677310011346
-0.28569999999999995,-10.557990430892769
-0.28470000000000006,-9.99069119964689
-0.28369999999999995,-9.511104068992642
-0.28270000000000006,-8.987660888042578
-0.28169999999999995,-8.4203616567967
-0.28070000000000006,-7.7653503249591855
-0.27969999999999995,-7.111753704421539
-0.27870000000000006,-6.500598422879844
-0.27769999999999995,-6.064867342521412
-0.27670000000000006,-5.629136262162981
-0.27569999999999995,-5.149549131508733
-0.27470000000000006,-4.626105950558669
-0.27369999999999994,-3.971094618721158
-0.27270000000000005,-3.403795387475278
-0.27169999999999994,-2.8803522065252145
-0.27070000000000005,-2.4884771764625997
-0.26969999999999994,-2.095187435100119
-0.26870000000000005,-1.6594563547416883
-0.26769999999999994,-1.0925815368857679
-0.26670000000000005,-0.5255652478998613
