Potential V vs RHE, Current mA cm-2
0.013299999999999867,-0.5692798270656908
0.012299999999999978,-1.8773218949209036
0.011299999999999866,-2.706342716641815
0.010299999999999976,-3.273641947887695
0.009299999999999864,-3.7532290785419424
0.008299999999999974,-4.014950669016974
0.007299999999999862,-4.276672259492005
0.006299999999999972,-4.494537799671222
0.00529999999999986,-4.582249900262854
0.0042999999999999705,-4.712403339850438
0.0032999999999998586,-4.800115440442069
0.0022999999999999687,-4.843971490737885
0.0012999999999998568,-4.9302688800296535
0.00029999999999996696,-4.974124930325469
-0.000700000000000145,-5.0618370309171015
-0.0017000000000000348,-5.0618370309171015
-0.0027000000000001467,-5.105693081212917
-0.0037000000000000366,-5.149549131508733
-0.0047000000000001485,-5.149549131508733
-0.005700000000000038,-5.191990470504685
-0.00670000000000015,-5.149549131508733
-0.00770000000000004,-5.149549131508733
-0.008700000000000152,-5.149549131508733
-0.009700000000000042,-5.191990470504685
-0.010700000000000154,-5.191990470504685
-0.011700000000000044,-5.235846520800501
-0.012700000000000156,-5.235846520800501
-0.013700000000000045,-5.235846520800501
-0.014700000000000157,-5.279702571096316
-0.015700000000000047,-5.279702571096316
-0.01670000000000016,-5.279702571096316
-0.01770000000000005,-5.279702571096316
-0.01870000000000016,-5.279702571096316
-0.01970000000000005,-5.279702571096316
-0.020700000000000163,-5.279702571096316
-0.021700000000000053,-5.279702571096316
-0.022700000000000164,-5.235846520800501
-0.023700000000000054,-5.279702571096316
-0.024700000000000166,-5.279702571096316
-0.025700000000000056,-5.279702571096316
-0.026700000000000168,-5.323558621392133
-0.027700000000000058,-5.323558621392133
-0.02870000000000017,-5.367414671687949
-0.02970000000000006,-5.367414671687949
-0.03070000000000017,-5.367414671687949
-0.03170000000000006,-5.367414671687949
-0.03270000000000017,-5.367414671687949
-0.03370000000000006,-5.367414671687949
-0.034700000000000175,-5.367414671687949
-0.035700000000000065,-5.367414671687949
-0.03670000000000018,-5.323558621392133
-0.03770000000000007,-5.367414671687949
-0.03870000000000018,-5.411270721983764
-0.03970000000000007,-5.367414671687949
-0.04070000000000018,-5.411270721983764
-0.04170000000000007,-5.453712060979717
-0.04270000000000018,-5.453712060979717
-0.04370000000000007,-5.453712060979717
-0.044700000000000184,-5.497568111275533
-0.045700000000000074,-5.453712060979717
-0.046700000000000186,-5.497568111275533
-0.047700000000000076,-5.453712060979717
-0.04870000000000019,-5.453712060979717
-0.04970000000000008,-5.497568111275533
-0.05070000000000019,-5.497568111275533
-0.05170000000000008,-5.497568111275533
-0.05270000000000019,-5.5414241615713475
-0.05370000000000008,-5.585280211867165
-0.05470000000000019,-5.585280211867165
-0.05570000000000008,-5.585280211867165
-0.056700000000000195,-5.629136262162981
-0.057700000000000085,-5.629136262162981
-0.058700000000000196,-5.629136262162981
-0.059700000000000086,-5.629136262162981
-0.0607000000000002,-5.629136262162981
-0.06170000000000009,-5.672992312458796
-0.0627000000000002,-5.672992312458796
-0.06370000000000009,-5.672992312458796
-0.0647000000000002,-5.672992312458796
-0.06570000000000009,-5.715433651454749
-0.0667000000000002,-5.759289701750564
-0.0677000000000001,-5.80314575204638
-0.0687000000000002,-5.80314575204638
-0.0697000000000001,-5.80314575204638
-0.07070000000000021,-5.847001802342197
-0.0717000000000001,-5.847001802342197
-0.07270000000000021,-5.847001802342197
-0.0737000000000001,-5.890857852638012
-0.07470000000000021,-5.847001802342197
-0.0757000000000001,-5.890857852638012
-0.07670000000000021,-5.890857852638012
-0.0777000000000001,-5.890857852638012
-0.07870000000000021,-5.9347139029338285
-0.0797000000000001,-5.977155241929781
-0.08070000000000022,-5.977155241929781
-0.0817000000000001,-6.021011292225596
-0.08270000000000022,-6.064867342521412
-0.08370000000000011,-6.064867342521412
-0.08470000000000022,-6.108723392817228
-0.08570000000000011,-6.108723392817228
-0.08670000000000022,-6.108723392817228
-0.08770000000000011,-6.108723392817228
-0.08870000000000022,-6.152579443113044
-0.08970000000000011,-6.152579443113044
-0.09070000000000022,-6.152579443113044
-0.09170000000000011,-6.196435493408861
-0.09270000000000023,-6.238876832404812
-0.09370000000000012,-6.282732882700628
-0.09470000000000023,-6.282732882700628
-0.09570000000000012,-6.326588932996443
-0.09670000000000023,-6.37044498329226
-0.09770000000000012,-6.414301033588076
-0.09870000000000023,-6.414301033588076
-0.09970000000000012,-6.414301033588076
-0.10070000000000023,-6.414301033588076
-0.10170000000000012,-6.458157083883892
-0.10270000000000024,-6.458157083883892
-0.10370000000000013,-6.458157083883892
-0.10470000000000024,-6.500598422879844
-0.10570000000000013,-6.54445447317566
-0.10670000000000024,-6.54445447317566
-0.10770000000000013,-6.588310523471475
-0.10870000000000024,-6.632166573767292
-0.10970000000000013,-6.6760226240631075
-0.11070000000000024,-6.719878674358924
-0.11170000000000013,-6.719878674358924
-0.11270000000000002,-6.719878674358924
-0.11370000000000013,-6.762320013354876
-0.11470000000000002,-6.719878674358924
-0.11570000000000014,-6.762320013354876
-0.11670000000000003,-6.806176063650692
-0.11770000000000014,-6.806176063650692
-0.11870000000000003,-6.850032113946507
-0.11970000000000014,-6.850032113946507
-0.12070000000000003,-6.93774421453814
-0.12170000000000014,-6.981600264833956
-0.12270000000000003,-6.981600264833956
-0.12370000000000014,-7.024041603829907
-0.12470000000000003,-7.024041603829907
-0.12570000000000014,-7.067897654125724
-0.12670000000000003,-7.067897654125724
-0.12770000000000015,-7.067897654125724
-0.12870000000000004,-7.067897654125724
-0.12970000000000015,-7.111753704421539
-0.13070000000000004,-7.111753704421539
-0.13170000000000015,-7.155609754717355
-0.13270000000000004,-7.199465805013171
-0.13370000000000015,-7.243321855308987
-0.13470000000000004,-7.28576319430494
-0.13570000000000015,-7.329619244600755
-0.13670000000000004,-7.37347529489657
-0.13770000000000016,-7.37347529489657
-0.13870000000000005,-7.37347529489657
-0.13970000000000016,-7.4173313451923875
-0.14070000000000005,-7.4173313451923875
-0.14170000000000016,-7.4173313451923875
-0.14270000000000005,-7.461187395488204
-0.14370000000000016,-7.461187395488204
-0.14470000000000005,-7.50504344578402
-0.14570000000000016,-7.5474847847799715
-0.14670000000000005,-7.5474847847799715
-0.14770000000000016,-7.635196885371603
-0.14870000000000005,-7.635196885371603
-0.14970000000000017,-7.679052935667419
-0.15070000000000006,-7.722908985963235
-0.15170000000000017,-7.722908985963235
-0.15270000000000006,-7.722908985963235
-0.15370000000000017,-7.7653503249591855
-0.15470000000000006,-7.7653503249591855
-0.15570000000000017,-7.809206375255003
-0.15670000000000006,-7.809206375255003
-0.15770000000000017,-7.853062425550818
-0.15870000000000006,-7.896918475846635
-0.15970000000000018,-7.896918475846635
-0.16070000000000007,-7.940774526142452
-0.16170000000000018,-7.984630576438266
-0.16270000000000007,-7.984630576438266
-0.16370000000000018,-8.027071915434218
-0.16470000000000007,-8.070927965730034
-0.16570000000000018,-8.070927965730034
-0.16670000000000007,-8.070927965730034
-0.16770000000000018,-8.070927965730034
-0.16870000000000007,-8.11478401602585
-0.16970000000000018,-8.11478401602585
-0.17070000000000007,-8.158640066321666
-0.17170000000000019,-8.202496116617484
-0.17270000000000008,-8.202496116617484
-0.1737000000000002,-8.246352166913299
-0.17470000000000008,-8.288793505909249
-0.1757000000000002,-8.332649556205066
-0.17670000000000008,-8.376505606500881
-0.1777000000000002,-8.376505606500881
-0.17870000000000008,-8.376505606500881
-0.1797000000000002,-8.4203616567967
-0.18070000000000008,-8.4203616567967
-0.1817000000000002,-8.464217707092514
-0.18270000000000008,-8.464217707092514
-0.1837000000000002,-8.464217707092514
-0.1847000000000001,-8.508073757388331
-0.1857000000000002,-8.55051509638428
-0.1867000000000001,-8.55051509638428
-0.1877000000000002,-8.638227196975913
-0.1887000000000001,-8.68208324727173
-0.1897000000000002,-8.68208324727173
-0.1907000000000001,-8.725939297567548
-0.1917000000000001,-8.725939297567548
-0.19269999999999998,-8.769795347863363
-0.1937000000000001,-8.769795347863363
-0.19469999999999998,-8.769795347863363
-0.1957000000000001,-8.812236686859313
-0.19669999999999999,-8.812236686859313
-0.1977000000000001,-8.85609273715513
-0.1987,-8.899948787450944
-0.1997000000000001,-8.899948787450944
-0.2007,-8.943804837746763
-0.2017000000000001,-8.987660888042578
-0.2027,-8.987660888042578
-0.2037000000000001,-9.031516938338395
-0.2047,-9.073958277334345
-0.2057000000000001,-9.073958277334345
-0.2067,-9.11781432763016
-0.2077000000000001,-9.073958277334345
-0.2087,-9.11781432763016
-0.2097000000000001,-9.161670377925978
-0.2107,-9.161670377925978
-0.2117000000000001,-9.205526428221793
-0.2127,-9.205526428221793
-0.2137000000000001,-9.24938247851761
-0.2147,-9.335679867809377
-0.2157000000000001,-9.379535918105192
-0.2167,-9.423391968401008
-0.21770000000000012,-9.423391968401008
-0.2187,-9.423391968401008
-0.21970000000000012,-9.467248018696827
-0.2207,-9.467248018696827
-0.22170000000000012,-9.467248018696827
-0.2227,-9.467248018696827
-0.22370000000000012,-9.511104068992642
-0.2247,-9.55496011928846
-0.22570000000000012,-9.59740145828441
-0.2267,-9.59740145828441
-0.22770000000000012,-9.641257508580225
-0.22870000000000001,-9.685113558876042
-0.22970000000000013,-9.728969609171857
-0.23070000000000002,-9.772825659467674
-0.23170000000000013,-9.772825659467674
-0.23270000000000002,-9.772825659467674
-0.23370000000000013,-9.81668170976349
-0.23470000000000002,-9.81668170976349
-0.23570000000000013,-9.85912304875944
-0.23670000000000002,-9.85912304875944
-0.2376999999999999,-9.902979099055257
-0.23870000000000002,-9.946835149351072
-0.2396999999999999,-9.99069119964689
-0.24070000000000003,-10.034547249942705
-0.24169999999999991,-10.034547249942705
-0.24270000000000003,-10.120844639234473
-0.24369999999999992,-10.164700689530287
-0.24470000000000003,-10.164700689530287
-0.24569999999999992,-10.164700689530287
-0.24670000000000003,-10.208556739826104
-0.24769999999999992,-10.208556739826104
-0.24870000000000003,-10.208556739826104
-0.24969999999999992,-10.25241279012192
-0.25070000000000003,-10.25241279012192
-0.2516999999999999,-10.340124890713554
-0.25270000000000004,-10.382566229709504
-0.2536999999999999,-10.382566229709504
-0.25470000000000004,-10.470278330301136
-0.2556999999999999,-10.514134380596953
-0.25670000000000004,-10.557990430892769
-0.25769999999999993,-10.557990430892769
-0.25870000000000004,-10.601846481188586
-0.25969999999999993,-10.601846481188586
-0.26070000000000004,-10.644287820184536
-0.26169999999999993,-10.644287820184536
-0.26270000000000004,-10.688143870480351
-0.26369999999999993,-10.731999920776168
-0.26470000000000005,-10.775855971071984
-0.26569999999999994,-10.819712021367803
-0.26670000000000005,-10.863568071663616
-0.26769999999999994,-10.906009410659568
-0.26870000000000005,-10.949865460955383
-0.26969999999999994,-10.993721511251199
-0.27070000000000005,-11.037577561547016
-0.27169999999999994,-11.081433611842833
-0.27270000000000005,-11.123874950838783
-0.27369999999999994,-11.123874950838783
-0.27470000000000006,-11.123874950838783
-0.27569999999999995,-11.1677310011346
-0.27670000000000006,-11.1677310011346
-0.27769999999999995,-11.255443101726232
-0.27870000000000006,-11.299299152022046
-0.27969999999999995,-11.343155202317865
-0.28070000000000006,-11.385596541313816
-0.28169999999999995,-11.473308641905447
-0.28270000000000006,-11.517164692201263
-0.28369999999999995,-11.56102074249708
-0.28470000000000006,-11.56102074249708
-0.28569999999999995,-11.647318131788847
-0.28670000000000007,-11.691174182084664
-0.28769999999999996,-11.691174182084664
-0.28870000000000007,-11.73503023238048
-0.28969999999999996,-11.73503023238048
-0.29070000000000007,-11.778886282676295
-0.29169999999999996,-11.86659838326793
-0.29270000000000007,-11.909039722263879
-0.29369999999999996,-11.952895772559694
-0.2947000000000001,-12.040607873151327
-0.29569999999999996,-12.084463923447142
-0.2967000000000001,-12.12831997374296
-0.29769999999999996,-12.170761312738911
-0.2987000000000001,-12.214617363034726
-0.29969999999999997,-12.258473413330542
-0.3007000000000001,-12.302329463626359
-0.30169999999999997,-12.346185513922174
-0.3027000000000001,-12.390041564217992
-0.30369999999999997,-12.432482903213943
-0.3047000000000001,-12.520195003805576
-0.30569999999999997,-12.607907104397206
-0.3067000000000001,-12.651763154693022
-0.3077,-12.694204493688973
-0.3087000000000001,-12.781916594280606
-0.3097,-12.869628694872238
-0.3107000000000001,-12.913484745168056
-0.3117,-12.955926084164007
-0.3127000000000001,-13.043638184755638
-0.3137,-13.087494235051453
-0.3147000000000001,-13.13135028534727
-0.3157,-13.217647674639037
-0.3167000000000001,-13.30535977523067
-0.3177,-13.349215825526485
-0.3187000000000001,-13.436927926118118
-0.3197,-13.523225315409885
-0.3207000000000001,-13.610937416001518
-0.3217,-13.698649516593148
-0.3227000000000001,-13.784946905884919
-0.3237,-13.872659006476551
-0.3247000000000001,-13.960371107068182
-0.3257,-14.046668496359947
-0.3267000000000001,-14.13438059695158
-0.3277,-14.217848563643619
-0.3287000000000001,-14.30273124163552
-0.3297,-14.401761032626075
-0.3307000000000001,-14.486643710617974
-0.3317,-14.57152638860988
-0.3327000000000001,-14.69885040559773
-0.3337,-14.826174422585586
-0.3347000000000001,-14.925204213576137
-0.3357,-15.094969569559943
-0.3367000000000001,-15.179852247551842
-0.3377,-15.307176264539699
-0.3387000000000001,-15.448647394526201
-0.3397,-15.575971411514052
-0.3407000000000001,-15.70329542850191
-0.3417,-15.78817810649381
-0.3427000000000001,-15.91550212348166
-0.3437,-16.099414592464115
-0.3447000000000001,-16.22673860945197
-0.3457,-16.396503965435777
-0.3467000000000001,-16.580416434418233
-0.3477,-16.750181790402035
-0.3487000000000001,-16.962388485381787
-0.3497,-17.146300954364243
-0.3507000000000001,-17.316066310348052
-0.3517,-17.48583166633185
-0.3527000000000001,-17.71218547431026
-0.3537,-17.924392169290012
-0.3547000000000001,-18.15074597726842
-0.3557,-18.362952672248177
-0.35670000000000013,-18.631747819222536
-0.3577,-18.843954514202288
-0.35870000000000013,-19.155191000172596
-0.3597,-19.409839034148305
-0.36070000000000013,-19.721075520118614
-0.3617,-20.06060623208622
-0.3626999999999999,-20.371842718056527
-0.3637,-20.72552054302279
-0.3646999999999999,-21.065051254990397
-0.3657,-21.461170418952605
-0.3666999999999999,-21.814848243918867
-0.3677,-22.253408746877028
-0.3686999999999999,-22.67782213683654
-0.36970000000000003,-23.15882397879065
-0.3706999999999999,-23.682267159740714
-0.37170000000000003,-24.20571034069078
-0.3726999999999999,-24.771594860636792
-0.37370000000000003,-25.39406783257741
-0.3746999999999999,-26.002393691519377
-0.37570000000000003,-26.69560222845324
-0.3766999999999999,-27.487840556377662
-0.37770000000000004,-28.22349043230748
-0.3786999999999999,-29.058170099227848
-0.37970000000000004,-29.96358533114148
-0.3806999999999999,-30.925589015049702
-0.38170000000000004,-31.972475376949827
-0.38269999999999993,-33.14668575583781
-0.38370000000000004,-34.377484586720385
-0.38469999999999993,-35.721460321592176
-0.38570000000000004,-37.164465847454515
-0.38669999999999993,-37.60302635041268
-0.38570000000000004,-36.8532293614842
-0.38469999999999993,-36.8532293614842
-0.38370000000000004,-37.122024508458566
-0.38269999999999993,-37.56058501141672
-0.38170000000000004,-38.08402819236679
-0.3806999999999999,-38.734795390304704
-0.37970000000000004,-39.34312124924667
-0.3786999999999999,-39.95144710818864
-0.37770000000000004,-40.616361419125205
-0.3766999999999999,-41.30956995605907
-0.37570000000000003,-41.91789581500104
-0.3746999999999999,-42.483780334947056
-0.37370000000000003,-43.007223515897124
-0.3726999999999999,-43.48822535785123
-0.37170000000000003,-43.88434452181344
-0.3706999999999999,-44.223875233781044
-0.36970000000000003,-44.4926703807554
-0.3686999999999999,-44.66243573673921
-0.3677,-44.80390686672572
-0.3666999999999999,-44.80390686672572
-0.3657,-44.84634820572166
-0.3646999999999999,-44.704877075735155
-0.3637,-44.577553058747306
-0.3626999999999999,-44.4077877027635
-0.3617,-44.181433894785094
-0.36070000000000013,-43.88434452181344
-0.3597,-43.57310803584313
-0.35870000000000013,-43.27601866287147
-0.3577,-42.87989949890926
-0.35670000000000013,-42.483780334947056
-0.3557,-42.04521983198889
-0.3547000000000001,-41.56421799003478
-0.3537,-41.04077480908471
-0.3527000000000001,-40.559772967130606
-0.3517,-40.03632978618054
-0.3507000000000001,-39.42800392723857
-0.3497,-38.90456074628851
-0.3487000000000001,-38.33867622634249
-0.3477,-37.77279170639648
-0.3467000000000001,-37.164465847454515
-0.3457,-36.64102266650445
-0.3447000000000001,-36.03269680756248
-0.3437,-35.42437094862052
-0.3427000000000001,-34.8018979766799
-0.3417,-34.236013456733886
-0.3407000000000001,-33.58524625879597
-0.3397,-32.97692039985401
-0.3387000000000001,-32.368594540912035
-0.3377,-31.76026868197007
-0.3367000000000001,-31.137795710029454
-0.3357,-30.529469851087494
-0.3347000000000001,-29.96358533114148
-0.3337,-29.35525947219951
-0.3327000000000001,-28.789374952253496
-0.3317,-28.22349043230748
-0.3307000000000001,-27.65760591236147
-0.3297,-27.049280053419505
-0.3287000000000001,-26.483395533473487
-0.3277,-25.91751101352747
-0.3267000000000001,-25.295038041586857
-0.3257,-24.686712182644893
-0.3247000000000001,-24.120827662698876
-0.3237,-23.55494314275286
-0.3227000000000001,-22.989058622806844
-0.3217,-22.46561544185678
-0.3207000000000001,-21.899730921910766
-0.3197,-21.376287740960702
-0.3187000000000001,-20.85284456001064
-0.3177,-20.329401379060574
-0.3167000000000001,-19.848399537106463
-0.3157,-19.3249563561564
-0.3147000000000001,-18.80151317520634
-0.3137,-18.27806999425627
-0.3127000000000001,-17.797068152302163
-0.3117,-17.316066310348052
-0.3107000000000001,-16.835064468393938
-0.3097,-16.311621287443874
-0.3087000000000001,-15.87306078448571
-0.3077,-15.3920589425316
-0.3067000000000001,-14.967645552572087
-0.30569999999999997,-14.486643710617974
-0.3047000000000001,-14.090524546655764
-0.30369999999999997,-13.610937416001518
-0.3027000000000001,-13.175206335643086
-0.30169999999999997,-12.781916594280606
-0.3007000000000001,-12.346185513922174
-0.29969999999999997,-11.909039722263879
-0.2987000000000001,-11.517164692201263
-0.29769999999999996,-11.081433611842833
-0.2967000000000001,-10.688143870480351
-0.29569999999999996,-10.296268840417738
-0.2947000000000001,-9.902979099055257
-0.29369999999999996,-9.55496011928846
-0.29270000000000007,-9.205526428221793
-0.29169999999999996,-8.85609273715513
-0.29070000000000007,-8.508073757388331
-0.28969999999999996,-8.158640066321666
-0.28870000000000007,-7.809206375255003
-0.28769999999999996,-7.50504344578402
-0.28670000000000007,-7.155609754717355
-0.28569999999999995,-6.806176063650692
-0.28470000000000006,-6.458157083883892
-0.28369999999999995,-6.152579443113044
-0.28270000000000006,-5.890857852638012
-0.28169999999999995,-5.585280211867165
-0.28070000000000006,-5.279702571096316
-0.27969999999999995,-5.017980980621284
-0.27870000000000006,-4.756259390146253
-0.27769999999999995,-4.494537799671222
-0.27670000000000006,-4.1889601589003735
-0.27569999999999995,-3.927238568425342
-0.27470000000000006,-3.7093730282461257
-0.27369999999999994,-3.403795387475278
-0.27270000000000005,-3.1859298472960624
-0.27169999999999994,-2.924208256821031
-0.27070000000000005,-2.662486666345999
-0.26969999999999994,-2.4446211261667834
-0.26870000000000005,-2.226755585987568
-0.26769999999999994,-2.008890045808352
-0.26670000000000005,-1.7910245056291363
-0.26569999999999994,-1.5717442541500557
