Potential V vs RHE, Current mA cm-2
0.013299999999999867,-0.5692798270656908
0.012299999999999978,-1.7033124050375041
0.011299999999999866,-2.4007650758709675
0.010299999999999976,-2.794054817233447
0.009299999999999864,-3.0996324580042955
0.008299999999999974,-3.317497998183511
0.007299999999999862,-3.4915074880669104
0.006299999999999972,-3.579219588658543
0.00529999999999986,-3.6655169779503103
0.0042999999999999705,-3.7532290785419424
0.0032999999999998586,-3.840941179133574
0.0022999999999999687,-3.884797229429391
0.0012999999999998568,-3.884797229429391
0.00029999999999996696,-3.927238568425342
-0.000700000000000145,-3.927238568425342
-0.0017000000000000348,-3.927238568425342
-0.0027000000000001467,-3.927238568425342
-0.0037000000000000366,-3.971094618721158
-0.0047000000000001485,-3.971094618721158
-0.005700000000000038,-4.014950669016974
-0.00670000000000015,-4.0588067193127895
-0.00770000000000004,-4.0588067193127895
-0.008700000000000152,-4.0588067193127895
-0.009700000000000042,-4.0588067193127895
-0.010700000000000154,-4.0588067193127895
-0.011700000000000044,-4.0588067193127895
-0.012700000000000156,-4.0588067193127895
-0.013700000000000045,-4.0588067193127895
-0.014700000000000157,-4.102662769608606
-0.015700000000000047,-4.102662769608606
-0.01670000000000016,-4.102662769608606
-0.01770000000000005,-4.102662769608606
-0.01870000000000016,-4.102662769608606
-0.01970000000000005,-4.102662769608606
-0.020700000000000163,-4.102662769608606
-0.021700000000000053,-4.102662769608606
-0.022700000000000164,-4.102662769608606
-0.023700000000000054,-4.102662769608606
-0.024700000000000166,-4.146518819904423
-0.025700000000000056,-4.146518819904423
-0.026700000000000168,-4.146518819904423
-0.027700000000000058,-4.1889601589003735
-0.02870000000000017,-4.1889601589003735
-0.02970000000000006,-4.146518819904423
-0.03070000000000017,-4.146518819904423
-0.03170000000000006,-4.146518819904423
-0.03270000000000017,-4.146518819904423
-0.03370000000000006,-4.146518819904423
-0.034700000000000175,-4.1889601589003735
-0.035700000000000065,-4.1889601589003735
-0.03670000000000018,-4.23281620919619
-0.03770000000000007,-4.23281620919619
-0.03870000000000018,-4.23281620919619
-0.03970000000000007,-4.23281620919619
-0.04070000000000018,-4.23281620919619
-0.04170000000000007,-4.23281620919619
-0.04270000000000018,-4.1889601589003735
-0.04370000000000007,-4.23281620919619
-0.044700000000000184,-4.276672259492005
-0.045700000000000074,-4.276672259492005
-0.046700000000000186,-4.3205283097878215
-0.047700000000000076,-4.3205283097878215
-0.04870000000000019,-4.3205283097878215
-0.04970000000000008,-4.3205283097878215
-0.05070000000000019,-4.3205283097878215
-0.05170000000000008,-4.3205283097878215
-0.05270000000000019,-4.3205283097878215
-0.05370000000000008,-4.3205283097878215
-0.05470000000000019,-4.364384360083638
-0.05570000000000008,-4.364384360083638
-0.056700000000000195,-4.406825699079589
-0.057700000000000085,-4.406825699079589
-0.058700000000000196,-4.406825699079589
-0.059700000000000086,-4.406825699079589
-0.0607000000000002,-4.406825699079589
-0.06170000000000009,-4.406825699079589
-0.0627000000000002,-4.450681749375406
-0.06370000000000009,-4.450681749375406
-0.0647000000000002,-4.494537799671222
-0.06570000000000009,-4.494537799671222
-0.0667000000000002,-4.538393849967037
-0.0677000000000001,-4.538393849967037
-0.0687000000000002,-4.538393849967037
-0.0697000000000001,-4.538393849967037
-0.07070000000000021,-4.538393849967037
-0.0717000000000001,-4.538393849967037
-0.07270000000000021,-4.538393849967037
-0.0737000000000001,-4.582249900262854
-0.07470000000000021,-4.626105950558669
-0.0757000000000001,-4.668547289554621
-0.07670000000000021,-4.668547289554621
-0.0777000000000001,-4.668547289554621
-0.07870000000000021,-4.668547289554621
-0.0797000000000001,-4.668547289554621
-0.08070000000000022,-4.668547289554621
-0.0817000000000001,-4.668547289554621
-0.08270000000000022,-4.712403339850438
-0.08370000000000011,-4.712403339850438
-0.08470000000000022,-4.756259390146253
-0.08570000000000011,-4.800115440442069
-0.08670000000000022,-4.800115440442069
-0.08770000000000011,-4.843971490737885
-0.08870000000000022,-4.843971490737885
-0.08970000000000011,-4.843971490737885
-0.09070000000000022,-4.843971490737885
-0.09170000000000011,-4.843971490737885
-0.09270000000000023,-4.843971490737885
-0.09370000000000012,-4.887827541033701
-0.09470000000000023,-4.9302688800296535
-0.09570000000000012,-4.9302688800296535
-0.09670000000000023,-4.974124930325469
-0.09770000000000012,-5.017980980621284
-0.09870000000000023,-5.017980980621284
-0.09970000000000012,-5.017980980621284
-0.10070000000000023,-5.017980980621284
-0.10170000000000012,-5.017980980621284
-0.10270000000000024,-5.0618370309171015
-0.10370000000000013,-5.0618370309171015
-0.10470000000000024,-5.105693081212917
-0.10570000000000013,-5.149549131508733
-0.10670000000000024,-5.191990470504685
-0.10770000000000013,-5.191990470504685
-0.10870000000000024,-5.191990470504685
-0.10970000000000013,-5.235846520800501
-0.11070000000000024,-5.235846520800501
-0.11170000000000013,-5.235846520800501
-0.11270000000000002,-5.235846520800501
-0.11370000000000013,-5.279702571096316
-0.11470000000000002,-5.323558621392133
-0.11570000000000014,-5.367414671687949
-0.11670000000000003,-5.367414671687949
-0.11770000000000014,-5.411270721983764
-0.11870000000000003,-5.411270721983764
-0.11970000000000014,-5.411270721983764
-0.12070000000000003,-5.411270721983764
-0.12170000000000014,-5.411270721983764
-0.12270000000000003,-5.453712060979717
-0.12370000000000014,-5.453712060979717
-0.12470000000000003,-5.497568111275533
-0.12570000000000014,-5.5414241615713475
-0.12670000000000003,-5.585280211867165
-0.12770000000000015,-5.585280211867165
-0.12870000000000004,-5.585280211867165
-0.12970000000000015,-5.585280211867165
-0.13070000000000004,-5.629136262162981
-0.13170000000000015,-5.629136262162981
-0.13270000000000004,-5.629136262162981
-0.13370000000000015,-5.672992312458796
-0.13470000000000004,-5.715433651454749
-0.13570000000000015,-5.759289701750564
-0.13670000000000004,-5.759289701750564
-0.13770000000000016,-5.80314575204638
-0.13870000000000005,-5.80314575204638
-0.13970000000000016,-5.80314575204638
-0.14070000000000005,-5.80314575204638
-0.14170000000000016,-5.80314575204638
-0.14270000000000005,-5.847001802342197
-0.14370000000000016,-5.847001802342197
-0.14470000000000005,-5.9347139029338285
-0.14570000000000016,-5.9347139029338285
-0.14670000000000005,-5.977155241929781
-0.14770000000000016,-5.977155241929781
-0.14870000000000005,-6.021011292225596
-0.14970000000000017,-6.021011292225596
-0.15070000000000006,-6.021011292225596
-0.15170000000000017,-6.021011292225596
-0.15270000000000006,-6.021011292225596
-0.15370000000000017,-6.064867342521412
-0.15470000000000006,-6.108723392817228
-0.15570000000000017,-6.152579443113044
-0.15670000000000006,-6.152579443113044
-0.15770000000000017,-6.196435493408861
-0.15870000000000006,-6.196435493408861
-0.15970000000000018,-6.196435493408861
-0.16070000000000007,-6.238876832404812
-0.16170000000000018,-6.238876832404812
-0.16270000000000007,-6.238876832404812
-0.16370000000000018,-6.282732882700628
-0.16470000000000007,-6.326588932996443
-0.16570000000000018,-6.37044498329226
-0.16670000000000007,-6.37044498329226
-0.16770000000000018,-6.37044498329226
-0.16870000000000007,-6.414301033588076
-0.16970000000000018,-6.414301033588076
-0.17070000000000007,-6.414301033588076
-0.17170000000000019,-6.414301033588076
-0.17270000000000008,-6.458157083883892
-0.1737000000000002,-6.458157083883892
-0.17470000000000008,-6.500598422879844
-0.1757000000000002,-6.54445447317566
-0.17670000000000008,-6.588310523471475
-0.1777000000000002,-6.588310523471475
-0.17870000000000008,-6.632166573767292
-0.1797000000000002,-6.632166573767292
-0.18070000000000008,-6.632166573767292
-0.1817000000000002,-6.632166573767292
-0.18270000000000008,-6.632166573767292
-0.1837000000000002,-6.6760226240631075
-0.1847000000000001,-6.719878674358924
-0.1857000000000002,-6.762320013354876
-0.1867000000000001,-6.762320013354876
-0.1877000000000002,-6.806176063650692
-0.1887000000000001,-6.806176063650692
-0.1897000000000002,-6.806176063650692
-0.1907000000000001,-6.806176063650692
-0.1917000000000001,-6.806176063650692
-0.19269999999999998,-6.850032113946507
-0.1937000000000001,-6.850032113946507
-0.19469999999999998,-6.893888164242324
-0.1957000000000001,-6.93774421453814
-0.19669999999999999,-6.981600264833956
-0.1977000000000001,-6.981600264833956
-0.1987,-6.981600264833956
-0.1997000000000001,-6.981600264833956
-0.2007,-7.024041603829907
-0.2017000000000001,-7.024041603829907
-0.2027,-7.024041603829907
-0.2037000000000001,-7.067897654125724
-0.2047,-7.111753704421539
-0.2057000000000001,-7.111753704421539
-0.2067,-7.155609754717355
-0.2077000000000001,-7.199465805013171
-0.2087,-7.199465805013171
-0.2097000000000001,-7.199465805013171
-0.2107,-7.199465805013171
-0.2117000000000001,-7.199465805013171
-0.2127,-7.243321855308987
-0.2137000000000001,-7.243321855308987
-0.2147,-7.28576319430494
-0.2157000000000001,-7.4173313451923875
-0.2167,-7.4173313451923875
-0.21770000000000012,-7.4173313451923875
-0.2187,-7.4173313451923875
-0.21970000000000012,-7.4173313451923875
-0.2207,-7.4173313451923875
-0.22170000000000012,-7.4173313451923875
-0.2227,-7.461187395488204
-0.22370000000000012,-7.50504344578402
-0.2247,-7.50504344578402
-0.22570000000000012,-7.5474847847799715
-0.2267,-7.591340835075788
-0.22770000000000012,-7.635196885371603
-0.22870000000000001,-7.635196885371603
-0.22970000000000013,-7.635196885371603
-0.23070000000000002,-7.679052935667419
-0.23170000000000013,-7.679052935667419
-0.23270000000000002,-7.679052935667419
-0.23370000000000013,-7.722908985963235
-0.23470000000000002,-7.722908985963235
-0.23570000000000013,-7.809206375255003
-0.23670000000000002,-7.809206375255003
-0.2376999999999999,-7.853062425550818
-0.23870000000000002,-7.896918475846635
-0.2396999999999999,-7.896918475846635
-0.24070000000000003,-7.896918475846635
-0.24169999999999991,-7.896918475846635
-0.24270000000000003,-7.940774526142452
-0.24369999999999992,-7.984630576438266
-0.24470000000000003,-7.984630576438266
-0.24569999999999992,-8.027071915434218
-0.24670000000000003,-8.11478401602585
-0.24769999999999992,-8.11478401602585
-0.24870000000000003,-8.158640066321666
-0.24969999999999992,-8.158640066321666
-0.25070000000000003,-8.158640066321666
-0.2516999999999999,-8.202496116617484
-0.25270000000000004,-8.246352166913299
-0.2536999999999999,-8.246352166913299
-0.25470000000000004,-8.332649556205066
-0.2556999999999999,-8.376505606500881
-0.25670000000000004,-8.4203616567967
-0.25769999999999993,-8.4203616567967
-0.25870000000000004,-8.464217707092514
-0.25969999999999993,-8.464217707092514
-0.26070000000000004,-8.464217707092514
-0.26169999999999993,-8.508073757388331
-0.26270000000000004,-8.55051509638428
-0.26369999999999993,-8.55051509638428
-0.26470000000000005,-8.638227196975913
-0.26569999999999994,-8.68208324727173
-0.26670000000000005,-8.725939297567548
-0.26769999999999994,-8.769795347863363
-0.26870000000000005,-8.769795347863363
-0.26969999999999994,-8.812236686859313
-0.27070000000000005,-8.812236686859313
-0.27169999999999994,-8.85609273715513
-0.27270000000000005,-8.899948787450944
-0.27369999999999994,-8.943804837746763
-0.27470000000000006,-8.987660888042578
-0.27569999999999995,-9.031516938338395
-0.27670000000000006,-9.073958277334345
-0.27769999999999995,-9.11781432763016
-0.27870000000000006,-9.161670377925978
-0.27969999999999995,-9.161670377925978
-0.28070000000000006,-9.205526428221793
-0.28169999999999995,-9.24938247851761
-0.28270000000000006,-9.24938247851761
-0.28369999999999995,-9.335679867809377
-0.28470000000000006,-9.379535918105192
-0.28569999999999995,-9.423391968401008
-0.28670000000000007,-9.511104068992642
-0.28769999999999996,-9.55496011928846
-0.28870000000000007,-9.59740145828441
-0.28969999999999996,-9.59740145828441
-0.29070000000000007,-9.641257508580225
-0.29169999999999996,-9.685113558876042
-0.29270000000000007,-9.728969609171857
-0.29369999999999996,-9.772825659467674
-0.2947000000000001,-9.85912304875944
-0.29569999999999996,-9.902979099055257
-0.2967000000000001,-9.99069119964689
-0.29769999999999996,-10.034547249942705
-0.2987000000000001,-10.078403300238522
-0.29969999999999997,-10.120844639234473
-0.3007000000000001,-10.164700689530287
-0.30169999999999997,-10.208556739826104
-0.3027000000000001,-10.25241279012192
-0.30369999999999997,-10.296268840417738
-0.3047000000000001,-10.382566229709504
-0.30569999999999997,-10.470278330301136
-0.3067000000000001,-10.557990430892769
-0.3077,-10.601846481188586
-0.3087000000000001,-10.644287820184536
-0.3097,-10.688143870480351
-0.3107000000000001,-10.775855971071984
-0.3117,-10.819712021367803
-0.3127000000000001,-10.906009410659568
-0.3137,-10.949865460955383
-0.3147000000000001,-11.081433611842833
-0.3157,-11.1677310011346
-0.3167000000000001,-11.255443101726232
-0.3177,-11.299299152022046
-0.3187000000000001,-11.385596541313816
-0.3197,-11.473308641905447
-0.3207000000000001,-11.56102074249708
-0.3217,-11.604876792792895
-0.3227000000000001,-11.73503023238048
-0.3237,-11.82274233297211
-0.3247000000000001,-11.909039722263879
-0.3257,-12.040607873151327
-0.3267000000000001,-12.170761312738911
-0.3277,-12.258473413330542
-0.3287000000000001,-12.346185513922174
-0.3297,-12.476338953509758
-0.3307000000000001,-12.56405105410139
-0.3317,-12.694204493688973
-0.3327000000000001,-12.781916594280606
-0.3337,-12.913484745168056
-0.3347000000000001,-13.087494235051453
-0.3357,-13.217647674639037
-0.3367000000000001,-13.3930718758223
-0.3377,-13.523225315409885
-0.3387000000000001,-13.654793466297335
-0.3397,-13.828802956180734
-0.3407000000000001,-14.002812446064135
-0.3417,-14.175407224647667
-0.3427000000000001,-14.345172580631472
-0.3437,-14.529085049613924
-0.3447000000000001,-14.741291744593681
-0.3457,-14.967645552572087
-0.3467000000000001,-15.222293586547794
-0.3477,-15.491088733522153
-0.3487000000000001,-15.70329542850191
-0.3497,-15.972090575476265
-0.3507000000000001,-16.22673860945197
-0.3517,-16.495533756426326
-0.3527000000000001,-16.792623129397985
-0.3537,-17.103859615368293
-0.3547000000000001,-17.48583166633185
-0.3557,-17.881950830294063
-0.35670000000000013,-18.27806999425627
-0.3577,-18.674189158218486
-0.35870000000000013,-19.112749661176647
-0.3597,-19.579604390132108
-0.36070000000000013,-20.06060623208622
-0.3617,-20.584049413036283
-0.3626999999999999,-21.2065223849769
-0.3637,-21.814848243918867
-0.3646999999999999,-22.508056780852733
-0.3657,-23.24370665678255
-0.3666999999999999,-24.120827662698876
-0.3677,-24.997948668615198
-0.3686999999999999,-25.959952352523427
-0.36970000000000003,-26.9643973754276
-0.3706999999999999,-28.09616641531963
-0.37170000000000003,-29.31281813320356
-0.3726999999999999,-30.670940981073993
-0.37370000000000003,-32.184682071929586
-0.3746999999999999,-33.89648274476628
-0.37570000000000003,-35.679018982596226
-0.3766999999999999,-37.687909028404576
-0.37770000000000004,-39.82412309120078
-0.3786999999999999,-42.087661170984845
-0.37970000000000004,-44.619994397743255
-0.3806999999999999,-47.23721030249357
-0.38170000000000004,-49.98175022423175
-0.38269999999999993,-52.86776127595642
-0.38370000000000004,-55.73962521468245
-0.38469999999999993,-58.66807760540307
-0.38570000000000004,-61.63897133511965
-0.38669999999999993,-63.3366248949577
-0.38570000000000004,-63.732744058919906
-0.38469999999999993,-64.38351125685783
-0.38370000000000004,-64.86451309881193
-0.38269999999999993,-65.20404381077954
-0.38170000000000004,-65.43039761875795
-0.3806999999999999,-65.4728389577539
-0.37970000000000004,-65.38795627976201
-0.3786999999999999,-65.2464851497755
-0.37770000000000004,-64.99183711579978
-0.3766999999999999,-64.63815929083353
-0.37570000000000003,-64.25618723986996
-0.3746999999999999,-63.77518539791585
-0.37370000000000003,-63.251742216965795
-0.3726999999999999,-62.72829903601572
-0.37170000000000003,-62.11997317707376
-0.3706999999999999,-61.49750020513315
-0.36970000000000003,-60.889174346191176
-0.3686999999999999,-60.19596580925731
-0.3677,-59.54519861131939
-0.3666999999999999,-58.83784296138688
-0.3657,-58.10219308545706
-0.3646999999999999,-57.352396096528594
-0.3637,-56.61674622059877
-0.3626999999999999,-55.838655005673
-0.3617,-55.046416677748574
-0.36070000000000013,-54.26832546282281
-0.3597,-53.518528473894335
-0.35870000000000013,-52.74043725896857
-0.3577,-52.033081609036046
-0.35670000000000013,-51.25499039411028
-0.3557,-50.50519340518181
-0.3547000000000001,-49.76954352925199
-0.3537,-49.03389365332217
-0.3527000000000001,-48.24165532539775
-0.3517,-47.506005449467935
-0.3507000000000001,-46.713767121543505
-0.3497,-45.97811724561369
-0.3487000000000001,-45.22832025668522
-0.3477,-44.45022904175945
-0.3467000000000001,-43.75702050482558
-0.3457,-43.007223515897124
-0.3447000000000001,-42.2715736399673
-0.3437,-41.56421799003478
-0.3427000000000001,-40.828568114104954
-0.3417,-40.092918238175145
-0.3407000000000001,-39.38556258824262
-0.3397,-38.6499127123128
-0.3387000000000001,-37.94255706238028
-0.3377,-37.249348525446415
-0.3367000000000001,-36.55613998851254
-0.3357,-35.90537279057463
-0.3347000000000001,-35.198017140642115
-0.3337,-34.462367264712285
-0.3327000000000001,-33.755011614779775
-0.3317,-33.06180307784591
-0.3307000000000001,-32.41103587990799
-0.3297,-31.76026868197007
-0.3287000000000001,-31.095354371033505
-0.3277,-30.487028512091538
-0.3267000000000001,-29.836261314153624
-0.3257,-29.22793545521166
-0.3247000000000001,-28.577168257273744
-0.3237,-27.912253946337174
-0.3227000000000001,-27.303928087395207
-0.3217,-26.65316088945729
-0.3207000000000001,-26.044835030515326
-0.3197,-25.478950510569312
-0.3187000000000001,-24.9130659906233
-0.3177,-24.34718147067728
-0.3167000000000001,-23.767149837732617
-0.3157,-23.15882397879065
-0.3147000000000001,-22.592939458844636
-0.3137,-22.027054938898623
-0.3127000000000001,-21.503611757948562
-0.3117,-20.93772723800254
-0.3107000000000001,-20.414284057052477
-0.3097,-19.890840876102416
-0.3087000000000001,-19.367397695152352
-0.3077,-18.88639585319824
-0.3067000000000001,-18.40539401124413
-0.30569999999999997,-17.881950830294063
-0.3047000000000001,-17.358507649344002
-0.30369999999999997,-16.877505807389888
-0.3027000000000001,-16.396503965435777
-0.30169999999999997,-15.972090575476265
-0.3007000000000001,-15.491088733522153
-0.29969999999999997,-15.05252823056399
-0.2987000000000001,-14.61396772760583
-0.29769999999999996,-14.175407224647667
-0.2967000000000001,-13.741090855589102
-0.29569999999999996,-13.349215825526485
-0.2947000000000001,-12.869628694872238
-0.29369999999999996,-12.476338953509758
-0.29270000000000007,-12.040607873151327
-0.29169999999999996,-11.647318131788847
-0.29070000000000007,-11.255443101726232
-0.28969999999999996,-10.863568071663616
-0.28870000000000007,-10.470278330301136
-0.28769999999999996,-10.164700689530287
-0.28670000000000007,-9.772825659467674
-0.28569999999999995,-9.423391968401008
-0.28470000000000006,-9.073958277334345
-0.28369999999999995,-8.725939297567548
-0.28270000000000006,-8.376505606500881
-0.28169999999999995,-8.027071915434218
-0.28070000000000006,-7.722908985963235
-0.27969999999999995,-7.4173313451923875
-0.27870000000000006,-7.111753704421539
-0.27769999999999995,-6.806176063650692
-0.27670000000000006,-6.54445447317566
-0.27569999999999995,-6.238876832404812
-0.27470000000000006,-5.977155241929781
-0.27369999999999994,-5.672992312458796
-0.27270000000000005,-5.411270721983764
-0.27169999999999994,-5.105693081212917
-0.27070000000000005,-4.887827541033701
-0.26969999999999994,-4.626105950558669
-0.26870000000000005,-4.364384360083638
-0.26769999999999994,-4.146518819904423
-0.26670000000000005,-3.927238568425342
-0.26569999999999994,-3.6655169779503103
-0.26470000000000005,-3.447651437771094
