Potential V vs RHE, Current mA cm-2
0.05339999999999995,-0.04333260711486608
0.05239999999999995,-0.044492670380755404
0.051399999999999946,-0.04505855490070142
0.050399999999999945,-0.045511262516658234
0.049399999999999944,-0.04593567590661774
0.04839999999999994,-0.046345942183578605
0.04739999999999994,-0.04677035557353812
0.04639999999999994,-0.04719476896349762
0.04539999999999994,-0.047619182353457135
0.04439999999999994,-0.048029448630418
0.04339999999999994,-0.0484538620203775
0.04239999999999994,-0.04886412829733837
0.04139999999999994,-0.049260247461300574
0.040399999999999936,-0.04965636662526278
0.039399999999999935,-0.050080780015222294
0.038399999999999934,-0.05050519340518181
0.03739999999999993,-0.05091545968214267
0.03639999999999993,-0.05135402018510083
0.03539999999999993,-0.051735992236064385
0.03439999999999993,-0.05214625851302525
0.03339999999999993,-0.05255652478998611
0.03239999999999993,-0.052952643953948324
0.03139999999999993,-0.05337705734390783
0.030399999999999927,-0.05377317650787005
0.029399999999999926,-0.05419758989782956
0.028399999999999925,-0.054622003287789066
0.027399999999999924,-0.05501812245175128
0.026399999999999924,-0.055442535841710786
0.025399999999999923,-0.055838655005673
0.024399999999999922,-0.05623477416963521
0.02339999999999992,-0.05665918755959472
0.02239999999999992,-0.05704115961055828
0.02139999999999992,-0.057451425887519135
0.020399999999999918,-0.05786169216448
0.019399999999999917,-0.05825781132844222
0.018399999999999916,-0.058682224718401725
0.017399999999999916,-0.05907834388236394
0.016399999999999915,-0.0594603159333275
0.015399999999999914,-0.05984228798429105
0.014399999999999913,-0.06023840714825326
0.013399999999999912,-0.06066282053821278
0.012399999999999911,-0.061058939702174984
0.01139999999999991,-0.06149750020513314
0.01039999999999991,-0.06189361936909534
0.009399999999999908,-0.062289738533057575
0.008399999999999908,-0.06268585769701977
0.007399999999999907,-0.06308197686098199
0.006399999999999906,-0.06352053736394014
0.005399999999999905,-0.06391665652790236
0.004399999999999904,-0.06434106991786188
0.003399999999999903,-0.06473718908182408
0.002399999999999902,-0.0651333082457863
0.0013999999999999013,-0.06554357452274716
0.00039999999999990044,-0.06593969368670936
-0.0006000000000001005,-0.06634995996367023
-0.0016000000000001013,-0.06676022624063108
-0.0026000000000001022,-0.06714219829159464
-0.003600000000000103,-0.06753831745555686
-0.004600000000000104,-0.06793443661951905
-0.005600000000000105,-0.06833055578348128
-0.006600000000000106,-0.06872667494744349
-0.007600000000000107,-0.06909449988540839
-0.008600000000000108,-0.06950476616236925
-0.009600000000000108,-0.06987259110033416
-0.01060000000000011,-0.07025456315129773
-0.01160000000000011,-0.07067897654125724
-0.012600000000000111,-0.0710892428182181
-0.013600000000000112,-0.07147121486918166
-0.014600000000000113,-0.07185318692014521
-0.015600000000000114,-0.07222101185811013
-0.016600000000000115,-0.07263127813507098
-0.017600000000000116,-0.07298495596003725
-0.018600000000000116,-0.07338107512399945
-0.019600000000000117,-0.07374890006196436
-0.020600000000000118,-0.07410257788693062
-0.02160000000000012,-0.07449869705089282
-0.02260000000000012,-0.07486652198885775
-0.02360000000000012,-0.07523434692682264
-0.024600000000000122,-0.07558802475178891
-0.025600000000000123,-0.07596999680275247
-0.026600000000000124,-0.07632367462771873
-0.027600000000000124,-0.07667735245268498
-0.028600000000000125,-0.07703103027765125
-0.029600000000000126,-0.07739885521561615
-0.030600000000000127,-0.07775253304058242
-0.03160000000000013,-0.07812035797854733
-0.03260000000000013,-0.07847403580351359
-0.03360000000000013,-0.07882771362847985
-0.03460000000000002,-0.07916724434044746
-0.03560000000000002,-0.07952092216541372
-0.03660000000000002,-0.07984630576438266
-0.03760000000000002,-0.08017168936335163
-0.03860000000000002,-0.08051122007531925
-0.039600000000000024,-0.08082245656128956
-0.040600000000000025,-0.08117613438625582
-0.041600000000000026,-0.08151566509822342
-0.04260000000000003,-0.08182690158419371
-0.04360000000000003,-0.08216643229616134
-0.04460000000000003,-0.08247766878213163
-0.04560000000000003,-0.08278890526810194
-0.04660000000000003,-0.08310014175407225
-0.04760000000000003,-0.08338308401404526
-0.04860000000000003,-0.08368017338701693
-0.04960000000000003,-0.08393482142099262
-0.050600000000000034,-0.08423191079396428
-0.051600000000000035,-0.08454314727993459
-0.052600000000000036,-0.0847977953139103
-0.053600000000000037,-0.08510903179988061
-0.05460000000000004,-0.08537782694685496
-0.05560000000000004,-0.08567491631982663
-0.05660000000000004,-0.08594371146680099
-0.05760000000000004,-0.08619835950077669
-0.05860000000000004,-0.0864813017607497
-0.05960000000000004,-0.0867076555687281
-0.06060000000000004,-0.08696230360270381
-0.061600000000000044,-0.08724524586267682
-0.06260000000000004,-0.08747159967065522
-0.06360000000000005,-0.08771210059163227
-0.06460000000000005,-0.08793845439961068
-0.06560000000000005,-0.08815066109459044
-0.06660000000000005,-0.08837701490256884
-0.06760000000000005,-0.08860336871054725
-0.06860000000000005,-0.088815575405527
-0.06960000000000005,-0.08902778210050676
-0.07060000000000005,-0.08925413590848516
-0.07160000000000005,-0.08946634260346491
-0.07260000000000005,-0.08967854929844467
-0.07360000000000005,-0.08987660888042578
-0.07460000000000006,-0.09006052134940823
-0.07560000000000006,-0.09025858093138935
-0.07660000000000006,-0.09044249340037179
-0.07760000000000006,-0.0906405529823529
-0.07860000000000006,-0.09082446545133536
-0.07960000000000006,-0.09098008369432051
-0.08060000000000006,-0.09114984905030431
-0.08160000000000006,-0.09129132018029082
-0.08260000000000006,-0.09147523264927326
-0.08360000000000006,-0.09161670377925978
-0.08460000000000006,-0.09174402779624763
-0.08560000000000006,-0.09189964603923279
-0.08660000000000007,-0.09205526428221794
-0.08760000000000007,-0.09216844118620715
-0.08860000000000007,-0.09232405942919229
-0.08960000000000007,-0.09245138344618015
-0.09060000000000007,-0.09255041323717071
-0.09160000000000007,-0.09266359014115991
-0.09260000000000007,-0.09276261993215046
-0.09360000000000007,-0.09290409106213696
-0.09460000000000007,-0.09300312085312752
-0.09560000000000007,-0.0930880035311194
-0.09660000000000007,-0.09318703332210997
-0.09760000000000008,-0.09327191600010187
-0.09860000000000008,-0.09338509290409107
-0.09960000000000008,-0.09345582846908432
-0.10060000000000008,-0.09352656403407757
-0.10160000000000008,-0.09361144671206949
-0.10260000000000008,-0.09366803516406408
-0.10360000000000008,-0.09372462361605868
-0.10460000000000008,-0.09378121206805329
-0.10560000000000008,-0.09383780052004788
-0.10660000000000008,-0.09389438897204248
-0.10760000000000008,-0.0939226831980398
-0.10860000000000009,-0.09396512453703573
-0.10960000000000009,-0.09400756587603168
-0.11060000000000009,-0.09405000721502763
-0.11160000000000009,-0.0940641543280263
-0.11260000000000009,-0.09410659566702224
-0.11360000000000009,-0.09413488989301955
-0.11460000000000009,-0.09414903700601819
-0.11560000000000009,-0.0941773312320155
-0.11660000000000009,-0.09416318411901684
-0.1176000000000001,-0.0941773312320155
-0.1186000000000001,-0.0941773312320155
-0.1196000000000001,-0.09416318411901684
-0.1206000000000001,-0.09416318411901684
-0.1216000000000001,-0.09414903700601819
-0.1226000000000001,-0.09413488989301955
-0.1236000000000001,-0.09413488989301955
-0.1246000000000001,-0.09410659566702224
-0.1256000000000001,-0.0940641543280263
-0.1266000000000001,-0.094035860102029
-0.1276000000000001,-0.09402171298903034
-0.1286000000000001,-0.09399341876303305
-0.1296000000000001,-0.09395097742403709
-0.1306000000000001,-0.09390853608504113
-0.1316000000000001,-0.09388024185904384
-0.1326000000000001,-0.09380950629405059
-0.1336000000000001,-0.09379535918105193
-0.1346000000000001,-0.09372462361605868
-0.1356000000000001,-0.09365388805106543
-0.1366000000000001,-0.09362559382506812
-0.1376000000000001,-0.09355485826007487
-0.1386000000000001,-0.09351241692107892
-0.1396000000000001,-0.09344168135608567
-0.1406000000000001,-0.09335679867809377
-0.14160000000000011,-0.09330021022609918
-0.14260000000000012,-0.09322947466110591
-0.14360000000000012,-0.09315873909611266
-0.14460000000000012,-0.09307385641812077
-0.14560000000000012,-0.09300312085312752
-0.14660000000000012,-0.0929182381751356
-0.14760000000000012,-0.09284750261014235
-0.14860000000000012,-0.0927484728191518
-0.14960000000000012,-0.09266359014115991
-0.15060000000000012,-0.09257870746316801
-0.15160000000000012,-0.09247967767217745
-0.15260000000000012,-0.0924089421071842
-0.15360000000000013,-0.09232405942919229
-0.15460000000000013,-0.09221088252520308
-0.15560000000000013,-0.09214014696020983
-0.15660000000000013,-0.09202697005622064
-0.15760000000000013,-0.09192794026523009
-0.15860000000000013,-0.09185720470023684
-0.15960000000000002,-0.09172988068324898
-0.16060000000000002,-0.09163085089225843
-0.16160000000000002,-0.09154596821426653
-0.16260000000000002,-0.09144693842327598
-0.16360000000000002,-0.09134790863228542
-0.16460000000000002,-0.09122058461529756
-0.16560000000000002,-0.09114984905030431
-0.16660000000000003,-0.09107911348531106
-0.16760000000000003,-0.0909517894683232
-0.16860000000000003,-0.09085275967733265
-0.16960000000000003,-0.09073958277334346
-0.17060000000000003,-0.09061225875635559
-0.17160000000000003,-0.0904990818523664
-0.17260000000000003,-0.09040005206137584
-0.17360000000000003,-0.09030102227038528
-0.17460000000000003,-0.09017369825339744
-0.17560000000000003,-0.09004637423640958
-0.17660000000000003,-0.08996149155841768
-0.17760000000000004,-0.08983416754142984
-0.17860000000000004,-0.08972099063744063
-0.17960000000000004,-0.08959366662045277
-0.18060000000000004,-0.08948048971646357
-0.18160000000000004,-0.08936731281247437
-0.18260000000000004,-0.08925413590848516
-0.18360000000000004,-0.08914095900449596
-0.18460000000000004,-0.08901363498750811
-0.18560000000000004,-0.0889004580835189
-0.18660000000000004,-0.08878728117952969
-0.18760000000000004,-0.08868825138853914
-0.18860000000000005,-0.08857507448454995
-0.18960000000000005,-0.08844775046756209
-0.19060000000000005,-0.08832042645057424
-0.19160000000000005,-0.08823554377258234
-0.19260000000000005,-0.08812236686859314
-0.19360000000000005,-0.08800918996460394
-0.19460000000000005,-0.08789601306061473
-0.19560000000000005,-0.08779698326962418
-0.19660000000000005,-0.08768380636563497
-0.19760000000000005,-0.08757062946164577
-0.19860000000000005,-0.08747159967065522
-0.19960000000000006,-0.08733012854066871
-0.20060000000000006,-0.08725939297567546
-0.20160000000000006,-0.08713206895868761
-0.20260000000000006,-0.08703303916769706
-0.20360000000000006,-0.0869340093767065
-0.20460000000000006,-0.08682083247271731
-0.20560000000000006,-0.0867076555687281
-0.20660000000000006,-0.0865944786647389
-0.20760000000000006,-0.0864813017607497
-0.20860000000000006,-0.08638227196975913
-0.20960000000000006,-0.08625494795277128
-0.21060000000000006,-0.08614177104878207
-0.21160000000000007,-0.08604274125779153
-0.21260000000000007,-0.08592956435380232
-0.21360000000000007,-0.08583053456281178
-0.21460000000000007,-0.08570321054582393
-0.21560000000000007,-0.08557588652883606
-0.21660000000000007,-0.08549100385084417
-0.21760000000000007,-0.08540612117285226
-0.21860000000000007,-0.08526465004286575
-0.21960000000000007,-0.08517976736487386
-0.22060000000000007,-0.08506659046088466
-0.22160000000000007,-0.08495341355689547
-0.22260000000000008,-0.0848543837659049
-0.22360000000000008,-0.08475535397491435
-0.22460000000000008,-0.08465632418392378
-0.22560000000000008,-0.08455729439293323
-0.22660000000000008,-0.08444411748894404
-0.22760000000000008,-0.08434508769795349
-0.22860000000000008,-0.08423191079396428
-0.22960000000000008,-0.08414702811597238
-0.23060000000000008,-0.08404799832498183
-0.23160000000000008,-0.08394896853399128
-0.23260000000000008,-0.08386408585599937
-0.23360000000000009,-0.08376505606500882
-0.2346000000000001,-0.08366602627401826
-0.2356000000000001,-0.08359529070902501
-0.2366000000000001,-0.08349626091803447
-0.2376000000000001,-0.0833972311270439
-0.2386000000000001,-0.08332649556205066
-0.2396000000000001,-0.08321331865806145
-0.2406000000000001,-0.0831425830930682
-0.2416000000000001,-0.08304355330207766
-0.2426000000000001,-0.0829728177370844
-0.2436000000000001,-0.0828879350590925
-0.2446000000000001,-0.0828030523811006
-0.2456000000000001,-0.08270402259011005
-0.2466000000000001,-0.08261913991211814
-0.2476000000000001,-0.08250596300812894
-0.2486000000000001,-0.08246352166913298
-0.2496000000000001,-0.08233619765214513
-0.2506000000000001,-0.08223716786115459
-0.2516000000000001,-0.08216643229616134
-0.2526000000000001,-0.08208154961816942
-0.2536000000000001,-0.08199666694017753
-0.2546000000000001,-0.08191178426218561
-0.2556000000000001,-0.08182690158419371
-0.2566000000000001,-0.08174201890620184
-0.2576000000000001,-0.08164298911521127
-0.2586000000000001,-0.08157225355021802
-0.2596000000000001,-0.0814873708722261
-0.2606000000000001,-0.08138834108123556
-0.2616000000000001,-0.08130345840324366
-0.2626000000000001,-0.0812327228382504
-0.2636000000000001,-0.0811478401602585
-0.2646000000000001,-0.08106295748226659
-0.2656000000000001,-0.0809780748042747
-0.2666000000000001,-0.0808931921262828
-0.2676000000000001,-0.08083660367428819
-0.2686000000000001,-0.08075172099629631
-0.2696000000000001,-0.08068098543130305
-0.2706000000000001,-0.0806102498663098
-0.2716000000000001,-0.08052536718831789
-0.2726000000000001,-0.08045463162332463
-0.2736000000000001,-0.08036974894533275
-0.2746000000000001,-0.08029901338033948
-0.2756000000000001,-0.08022827781534624
-0.2766000000000001,-0.08015754225035297
-0.2776000000000001,-0.08010095379835838
-0.2786000000000001,-0.08003021823336513
-0.2796000000000001,-0.07995948266837187
-0.2806000000000001,-0.07987459999037998
-0.28160000000000013,-0.07981801153838537
-0.28260000000000013,-0.07973312886039347
-0.28360000000000013,-0.07970483463439616
-0.2846,-0.07961995195640426
-0.2856,-0.079549216391411
-0.2866,-0.07949262793941642
-0.2876,-0.07942189237442315
-0.2886,-0.07936530392242855
-0.2896,-0.07926627413143801
-0.2906,-0.07923797990544071
-0.2916,-0.07916724434044746
-0.2926,-0.07909650877545421
-0.2936,-0.07903992032345959
-0.29460000000000003,-0.07896918475846634
-0.29560000000000003,-0.07891259630647175
-0.29660000000000003,-0.07885600785447715
-0.29760000000000003,-0.0787852722894839
-0.29860000000000003,-0.07874283095048794
-0.29960000000000003,-0.07867209538549469
-0.30060000000000003,-0.07860135982050144
-0.30160000000000003,-0.07854477136850684
-0.30260000000000004,-0.07847403580351359
-0.30360000000000004,-0.07841744735151898
-0.30460000000000004,-0.07836085889952438
-0.30560000000000004,-0.07830427044752979
-0.30660000000000004,-0.07826182910853383
-0.30760000000000004,-0.07821938776953788
-0.30860000000000004,-0.07813450509154597
-0.30960000000000004,-0.07809206375255001
-0.31060000000000004,-0.07803547530055543
-0.31160000000000004,-0.07797888684856082
-0.31260000000000004,-0.07792229839656621
-0.31360000000000005,-0.07786570994457162
-0.31460000000000005,-0.07779497437957837
-0.31560000000000005,-0.07776668015358107
-0.31660000000000005,-0.07769594458858782
-0.31760000000000005,-0.07765350324959187
-0.31860000000000005,-0.07759691479759726
-0.31960000000000005,-0.07755447345860131
-0.32060000000000005,-0.07751203211960536
-0.32160000000000005,-0.0774412965546121
-0.32260000000000005,-0.07739885521561615
-0.32360000000000005,-0.07734226676362156
-0.32460000000000006,-0.07727153119862831
-0.32560000000000006,-0.07724323697263101
-0.32660000000000006,-0.07720079563363505
-0.32760000000000006,-0.07714420718164045
-0.32860000000000006,-0.07711591295564316
-0.32960000000000006,-0.07703103027765125
-0.33060000000000006,-0.07698858893865529
-0.33160000000000006,-0.07694614759965934
-0.33260000000000006,-0.0769037062606634
-0.33360000000000006,-0.07684711780866879
-0.33460000000000006,-0.07680467646967284
-0.33560000000000006,-0.0767622351306769
-0.33660000000000007,-0.0767339409046796
-0.33760000000000007,-0.07667735245268498
-0.33860000000000007,-0.07660661688769173
-0.33960000000000007,-0.07657832266169443
-0.34060000000000007,-0.07653588132269848
-0.34160000000000007,-0.07650758709670118
-0.34260000000000007,-0.07646514575770523
-0.34360000000000007,-0.07639441019271198
-0.3446000000000001,-0.07636611596671468
-0.3456000000000001,-0.07635196885371603
-0.3466000000000001,-0.07629538040172142
-0.34759999999999996,-0.07625293906272547
-0.3486000000000001,-0.07621049772372954
-0.34959999999999997,-0.07615390927173492
-0.3506000000000001,-0.07612561504573763
-0.35159999999999997,-0.07608317370674167
-0.3526000000000001,-0.07605487948074438
-0.35359999999999997,-0.07598414391575113
-0.3546000000000001,-0.07594170257675517
-0.35559999999999997,-0.07591340835075787
-0.3566000000000001,-0.07588511412476057
-0.3576,-0.07585681989876326
-0.3586000000000001,-0.07581437855976732
-0.3596,-0.07577193722077137
-0.3606000000000001,-0.07574364299477407
-0.3616,-0.07568705454277945
-0.3626000000000001,-0.07565876031678216
-0.3636,-0.0756163189777862
-0.3646000000000001,-0.07557387763879025
-0.3656,-0.07554558341279295
-0.3666000000000001,-0.075503142073797
-0.3676,-0.07546070073480106
-0.3686000000000001,-0.0754182593958051
-0.3696,-0.07537581805680914
-0.3706000000000001,-0.07537581805680914
-0.3716,-0.0753333767178132
-0.3726000000000001,-0.0752767882658186
-0.3736,-0.07526264115281994
-0.3746000000000001,-0.07520605270082535
-0.3756,-0.0751919055878267
-0.3766000000000001,-0.07514946424883075
-0.3776,-0.07512117002283344
-0.3786000000000001,-0.0750787286838375
-0.3796,-0.0750504344578402
-0.3806000000000001,-0.07499384600584559
-0.3816,-0.07496555177984829
-0.3826000000000001,-0.074937257553851
-0.3836,-0.0749089633278537
-0.3846000000000001,-0.07486652198885775
-0.3856,-0.07483822776286045
-0.3866000000000001,-0.07480993353686313
-0.3876,-0.07478163931086583
-0.3886000000000001,-0.07473919797186988
-0.3896,-0.07471090374587258
-0.3906000000000001,-0.07469675663287394
-0.3916,-0.07464016818087933
-0.3926000000000001,-0.07462602106788069
-0.3936,-0.07459772684188339
-0.3946000000000001,-0.07455528550288744
-0.3956,-0.07452699127689014
-0.3966000000000001,-0.07448454993789419
-0.3976,-0.07448454993789419
-0.3986000000000001,-0.07445625571189689
-0.3996,-0.07439966725990228
-0.4006000000000001,-0.07439966725990228
-0.4016,-0.07435722592090632
-0.4026000000000001,-0.07434307880790768
-0.4036,-0.07431478458191038
-0.4046000000000001,-0.07425819612991578
-0.4056,-0.07424404901691713
-0.40660000000000013,-0.07421575479091982
-0.4076,-0.07417331345192386
-0.40860000000000013,-0.07417331345192386
-0.4096,-0.07411672499992927
-0.41060000000000013,-0.07410257788693062
-0.4116,-0.07408843077393197
-0.41260000000000013,-0.07403184232193737
-0.4136,-0.07401769520893872
-0.41460000000000014,-0.07398940098294142
-0.4156,-0.07396110675694412
-0.41660000000000014,-0.0739328125309468
-0.4176,-0.07390451830494953
-0.41860000000000014,-0.07389037119195085
-0.41960000000000003,-0.07386207696595355
-0.42060000000000014,-0.07383378273995628
-0.42160000000000003,-0.0738196356269576
-0.42260000000000014,-0.0738196356269576
-0.42360000000000003,-0.07376304717496303
-0.42460000000000014,-0.07373475294896571
-0.42560000000000003,-0.07372060583596705
-0.42660000000000015,-0.07367816449697111
-0.42760000000000004,-0.07367816449697111
-0.42860000000000015,-0.0736498702709738
-0.42960000000000004,-0.0736215760449765
-0.43060000000000015,-0.07360742893197786
-0.43160000000000004,-0.07356498759298191
-0.43260000000000015,-0.07355084047998325
-0.43360000000000004,-0.07353669336698461
-0.43460000000000015,-0.0735083991409873
-0.43560000000000004,-0.0735083991409873
-0.43660000000000015,-0.07346595780199136
