Jan. 9, 2025   21:31:38
Cyclic Voltammetry
File: c:/users/guazh/data/banditlqround7_x0exp772_r5/2025-01-08-exp812\exp812-2025-01-09t21_11_02-h2koh\exp812_cv_50mvs_efin_-1800mv.bin
Data Source:  Experiment
Instrument Model:  CHI760E
Header: CV ran at 50 mVs
Note: 

Init E (V) = -1
High E (V) = -1
Low E (V) = -1.8
Final E (V) = -1
Init P/N = N
Scan Rate (V/s) = 0.05
Segment = 7
Sample Interval (V) = 0.001
Quiet Time (sec) = 60
Sensitivity (A/V) = 0.001
Comp R (ohm) = 1.6

Results:

Channel 1:
Segment 1:

Segment 2:

Segment 3:

Segment 4:

Segment 5:

Segment 6:

Segment 7:

Potential/V, Current/A

-1.000, 6.620e-6
-1.001, 1.003e-5
-1.002, 1.249e-5
-1.003, 1.324e-5
-1.004, 1.192e-5
-1.005, 1.058e-5
-1.006, 1.125e-5
-1.007, 1.357e-5
-1.008, 1.414e-5
-1.009, 1.253e-5
-1.010, 1.136e-5
-1.011, 1.188e-5
-1.012, 1.400e-5
-1.013, 1.477e-5
-1.014, 1.319e-5
-1.015, 1.183e-5
-1.016, 1.239e-5
-1.017, 1.442e-5
-1.018, 1.525e-5
-1.019, 1.347e-5
-1.020, 1.225e-5
-1.021, 1.276e-5
-1.022, 1.480e-5
-1.023, 1.564e-5
-1.024, 1.404e-5
-1.025, 1.246e-5
-1.026, 1.324e-5
-1.027, 1.514e-5
-1.028, 1.593e-5
-1.029, 1.427e-5
-1.030, 1.282e-5
-1.031, 1.351e-5
-1.032, 1.538e-5
-1.033, 1.609e-5
-1.034, 1.475e-5
-1.035, 1.309e-5
-1.036, 1.379e-5
-1.037, 1.583e-5
-1.038, 1.643e-5
-1.039, 1.492e-5
-1.040, 1.339e-5
-1.041, 1.400e-5
-1.042, 1.601e-5
-1.043, 1.671e-5
-1.044, 1.519e-5
-1.045, 1.367e-5
-1.046, 1.433e-5
-1.047, 1.637e-5
-1.048, 1.701e-5
-1.049, 1.542e-5
-1.050, 1.401e-5
-1.051, 1.445e-5
-1.052, 1.655e-5
-1.053, 1.739e-5
-1.054, 1.576e-5
-1.055, 1.442e-5
-1.056, 1.477e-5
-1.057, 1.675e-5
-1.058, 1.771e-5
-1.059, 1.590e-5
-1.060, 1.460e-5
-1.061, 1.515e-5
-1.062, 1.710e-5
-1.063, 1.798e-5
-1.064, 1.635e-5
-1.065, 1.485e-5
-1.066, 1.551e-5
-1.067, 1.734e-5
-1.068, 1.822e-5
-1.069, 1.658e-5
-1.070, 1.516e-5
-1.071, 1.580e-5
-1.072, 1.765e-5
-1.073, 1.843e-5
-1.074, 1.704e-5
-1.075, 1.558e-5
-1.076, 1.599e-5
-1.077, 1.805e-5
-1.078, 1.880e-5
-1.079, 1.739e-5
-1.080, 1.577e-5
-1.081, 1.633e-5
-1.082, 1.841e-5
-1.083, 1.917e-5
-1.084, 1.764e-5
-1.085, 1.624e-5
-1.086, 1.660e-5
-1.087, 1.879e-5
-1.088, 1.949e-5
-1.089, 1.797e-5
-1.090, 1.656e-5
-1.091, 1.694e-5
-1.092, 1.903e-5
-1.093, 1.984e-5
-1.094, 1.824e-5
-1.095, 1.696e-5
-1.096, 1.742e-5
-1.097, 1.934e-5
-1.098, 2.037e-5
-1.099, 1.866e-5
-1.100, 1.732e-5
-1.101, 1.781e-5
-1.102, 1.966e-5
-1.103, 2.083e-5
-1.104, 1.906e-5
-1.105, 1.754e-5
-1.106, 1.835e-5
-1.107, 2.004e-5
-1.108, 2.112e-5
-1.109, 1.955e-5
-1.110, 1.799e-5
-1.111, 1.869e-5
-1.112, 2.059e-5
-1.113, 2.146e-5
-1.114, 2.002e-5
-1.115, 1.852e-5
-1.116, 1.909e-5
-1.117, 2.104e-5
-1.118, 2.193e-5
-1.119, 2.058e-5
-1.120, 1.891e-5
-1.121, 1.948e-5
-1.122, 2.155e-5
-1.123, 2.240e-5
-1.124, 2.087e-5
-1.125, 1.946e-5
-1.126, 1.991e-5
-1.127, 2.201e-5
-1.128, 2.283e-5
-1.129, 2.144e-5
-1.130, 1.994e-5
-1.131, 2.051e-5
-1.132, 2.245e-5
-1.133, 2.347e-5
-1.134, 2.187e-5
-1.135, 2.053e-5
-1.136, 2.091e-5
-1.137, 2.292e-5
-1.138, 2.413e-5
-1.139, 2.237e-5
-1.140, 2.109e-5
-1.141, 2.145e-5
-1.142, 2.348e-5
-1.143, 2.466e-5
-1.144, 2.298e-5
-1.145, 2.148e-5
-1.146, 2.213e-5
-1.147, 2.398e-5
-1.148, 2.516e-5
-1.149, 2.370e-5
-1.150, 2.215e-5
-1.151, 2.279e-5
-1.152, 2.474e-5
-1.153, 2.573e-5
-1.154, 2.441e-5
-1.155, 2.276e-5
-1.156, 2.340e-5
-1.157, 2.536e-5
-1.158, 2.642e-5
-1.159, 2.511e-5
-1.160, 2.349e-5
-1.161, 2.394e-5
-1.162, 2.607e-5
-1.163, 2.718e-5
-1.164, 2.576e-5
-1.165, 2.417e-5
-1.166, 2.473e-5
-1.167, 2.691e-5
-1.168, 2.783e-5
-1.169, 2.641e-5
-1.170, 2.514e-5
-1.171, 2.542e-5
-1.172, 2.755e-5
-1.173, 2.872e-5
-1.174, 2.725e-5
-1.175, 2.587e-5
-1.176, 2.627e-5
-1.177, 2.837e-5
-1.178, 2.966e-5
-1.179, 2.810e-5
-1.180, 2.669e-5
-1.181, 2.715e-5
-1.182, 2.910e-5
-1.183, 3.057e-5
-1.184, 2.897e-5
-1.185, 2.752e-5
-1.186, 2.820e-5
-1.187, 3.008e-5
-1.188, 3.139e-5
-1.189, 2.996e-5
-1.190, 2.845e-5
-1.191, 2.903e-5
-1.192, 3.099e-5
-1.193, 3.237e-5
-1.194, 3.099e-5
-1.195, 2.942e-5
-1.196, 2.999e-5
-1.197, 3.210e-5
-1.198, 3.337e-5
-1.199, 3.212e-5
-1.200, 3.048e-5
-1.201, 3.096e-5
-1.202, 3.327e-5
-1.203, 3.448e-5
-1.204, 3.296e-5
-1.205, 3.165e-5
-1.206, 3.213e-5
-1.207, 3.422e-5
-1.208, 3.546e-5
-1.209, 3.414e-5
-1.210, 3.271e-5
-1.211, 3.317e-5
-1.212, 3.535e-5
-1.213, 3.664e-5
-1.214, 3.524e-5
-1.215, 3.393e-5
-1.216, 3.425e-5
-1.217, 3.640e-5
-1.218, 3.782e-5
-1.219, 3.641e-5
-1.220, 3.495e-5
-1.221, 3.551e-5
-1.222, 3.749e-5
-1.223, 3.910e-5
-1.224, 3.753e-5
-1.225, 3.605e-5
-1.226, 3.663e-5
-1.227, 3.867e-5
-1.228, 4.034e-5
-1.229, 3.895e-5
-1.230, 3.731e-5
-1.231, 3.785e-5
-1.232, 3.978e-5
-1.233, 4.117e-5
-1.234, 4.005e-5
-1.235, 3.844e-5
-1.236, 3.894e-5
-1.237, 4.102e-5
-1.238, 4.237e-5
-1.239, 4.120e-5
-1.240, 3.956e-5
-1.241, 4.001e-5
-1.242, 4.222e-5
-1.243, 4.343e-5
-1.244, 4.230e-5
-1.245, 4.070e-5
-1.246, 4.112e-5
-1.247, 4.336e-5
-1.248, 4.463e-5
-1.249, 4.330e-5
-1.250, 4.189e-5
-1.251, 4.224e-5
-1.252, 4.450e-5
-1.253, 4.579e-5
-1.254, 4.450e-5
-1.255, 4.320e-5
-1.256, 4.348e-5
-1.257, 4.549e-5
-1.258, 4.719e-5
-1.259, 4.585e-5
-1.260, 4.432e-5
-1.261, 4.475e-5
-1.262, 4.691e-5
-1.263, 4.848e-5
-1.264, 4.719e-5
-1.265, 4.565e-5
-1.266, 4.618e-5
-1.267, 4.820e-5
-1.268, 4.987e-5
-1.269, 4.874e-5
-1.270, 4.712e-5
-1.271, 4.782e-5
-1.272, 4.972e-5
-1.273, 5.145e-5
-1.274, 5.042e-5
-1.275, 4.892e-5
-1.276, 4.944e-5
-1.277, 5.169e-5
-1.278, 5.326e-5
-1.279, 5.230e-5
-1.280, 5.099e-5
-1.281, 5.145e-5
-1.282, 5.382e-5
-1.283, 5.536e-5
-1.284, 5.455e-5
-1.285, 5.315e-5
-1.286, 5.383e-5
-1.287, 5.610e-5
-1.288, 5.775e-5
-1.289, 5.684e-5
-1.290, 5.575e-5
-1.291, 5.629e-5
-1.292, 5.870e-5
-1.293, 6.057e-5
-1.294, 5.966e-5
-1.295, 5.857e-5
-1.296, 5.914e-5
-1.297, 6.158e-5
-1.298, 6.358e-5
-1.299, 6.274e-5
-1.300, 6.164e-5
-1.301, 6.242e-5
-1.302, 6.485e-5
-1.303, 6.690e-5
-1.304, 6.627e-5
-1.305, 6.517e-5
-1.306, 6.603e-5
-1.307, 6.850e-5
-1.308, 7.064e-5
-1.309, 7.012e-5
-1.310, 6.890e-5
-1.311, 7.012e-5
-1.312, 7.260e-5
-1.313, 7.466e-5
-1.314, 7.437e-5
-1.315, 7.296e-5
-1.316, 7.439e-5
-1.317, 7.715e-5
-1.318, 7.946e-5
-1.319, 7.909e-5
-1.320, 7.792e-5
-1.321, 7.911e-5
-1.322, 8.209e-5
-1.323, 8.440e-5
-1.324, 8.405e-5
-1.325, 8.334e-5
-1.326, 8.443e-5
-1.327, 8.745e-5
-1.328, 8.974e-5
-1.329, 8.967e-5
-1.330, 8.903e-5
-1.331, 9.023e-5
-1.332, 9.342e-5
-1.333, 9.590e-5
-1.334, 9.581e-5
-1.335, 9.535e-5
-1.336, 9.662e-5
-1.337, 9.986e-5
-1.338, 1.027e-4
-1.339, 1.026e-4
-1.340, 1.022e-4
-1.341, 1.037e-4
-1.342, 1.069e-4
-1.343, 1.099e-4
-1.344, 1.100e-4
-1.345, 1.096e-4
-1.346, 1.115e-4
-1.347, 1.147e-4
-1.348, 1.178e-4
-1.349, 1.181e-4
-1.350, 1.180e-4
-1.351, 1.197e-4
-1.352, 1.234e-4
-1.353, 1.264e-4
-1.354, 1.273e-4
-1.355, 1.268e-4
-1.356, 1.288e-4
-1.357, 1.328e-4
-1.358, 1.359e-4
-1.359, 1.367e-4
-1.360, 1.365e-4
-1.361, 1.388e-4
-1.362, 1.427e-4
-1.363, 1.460e-4
-1.364, 1.472e-4
-1.365, 1.473e-4
-1.366, 1.495e-4
-1.367, 1.538e-4
-1.368, 1.572e-4
-1.369, 1.584e-4
-1.370, 1.590e-4
-1.371, 1.613e-4
-1.372, 1.656e-4
-1.373, 1.694e-4
-1.374, 1.707e-4
-1.375, 1.715e-4
-1.376, 1.740e-4
-1.377, 1.784e-4
-1.378, 1.826e-4
-1.379, 1.840e-4
-1.380, 1.850e-4
-1.381, 1.879e-4
-1.382, 1.926e-4
-1.383, 1.970e-4
-1.384, 1.986e-4
-1.385, 1.998e-4
-1.386, 2.027e-4
-1.387, 2.075e-4
-1.388, 2.121e-4
-1.389, 2.142e-4
-1.390, 2.156e-4
-1.391, 2.187e-4
-1.392, 2.237e-4
-1.393, 2.288e-4
-1.394, 2.308e-4
-1.395, 2.326e-4
-1.396, 2.359e-4
-1.397, 2.413e-4
-1.398, 2.460e-4
-1.399, 2.491e-4
-1.400, 2.507e-4
-1.401, 2.536e-4
-1.402, 2.604e-4
-1.403, 2.651e-4
-1.404, 2.684e-4
-1.405, 2.703e-4
-1.406, 2.737e-4
-1.407, 2.800e-4
-1.408, 2.853e-4
-1.409, 2.883e-4
-1.410, 2.909e-4
-1.411, 2.947e-4
-1.412, 3.008e-4
-1.413, 3.067e-4
-1.414, 3.101e-4
-1.415, 3.127e-4
-1.416, 3.170e-4
-1.417, 3.233e-4
-1.418, 3.295e-4
-1.419, 3.332e-4
-1.420, 3.360e-4
-1.421, 3.404e-4
-1.422, 3.470e-4
-1.423, 3.537e-4
-1.424, 3.567e-4
-1.425, 3.609e-4
-1.426, 3.659e-4
-1.427, 3.725e-4
-1.428, 3.785e-4
-1.429, 3.832e-4
-1.430, 3.865e-4
-1.431, 3.916e-4
-1.432, 3.984e-4
-1.433, 4.055e-4
-1.434, 4.100e-4
-1.435, 4.136e-4
-1.436, 4.192e-4
-1.437, 4.262e-4
-1.438, 4.335e-4
-1.439, 4.384e-4
-1.440, 4.418e-4
-1.441, 4.477e-4
-1.442, 4.552e-4
-1.443, 4.627e-4
-1.444, 4.675e-4
-1.445, 4.718e-4
-1.446, 4.775e-4
-1.447, 4.853e-4
-1.448, 4.922e-4
-1.449, 4.994e-4
-1.450, 5.026e-4
-1.451, 5.089e-4
-1.452, 5.172e-4
-1.453, 5.248e-4
-1.454, 5.304e-4
-1.455, 5.351e-4
-1.456, 5.412e-4
-1.457, 5.494e-4
-1.458, 5.578e-4
-1.459, 5.638e-4
-1.460, 5.687e-4
-1.461, 5.753e-4
-1.462, 5.836e-4
-1.463, 5.920e-4
-1.464, 5.979e-4
-1.465, 6.035e-4
-1.466, 6.103e-4
-1.467, 6.191e-4
-1.468, 6.278e-4
-1.469, 6.346e-4
-1.470, 6.399e-4
-1.471, 6.468e-4
-1.472, 6.556e-4
-1.473, 6.646e-4
-1.474, 6.719e-4
-1.475, 6.770e-4
-1.476, 6.847e-4
-1.477, 6.941e-4
-1.478, 7.039e-4
-1.479, 7.110e-4
-1.480, 7.166e-4
-1.481, 7.240e-4
-1.482, 7.336e-4
-1.483, 7.435e-4
-1.484, 7.511e-4
-1.485, 7.571e-4
-1.486, 7.650e-4
-1.487, 7.751e-4
-1.488, 7.846e-4
-1.489, 7.926e-4
-1.490, 7.988e-4
-1.491, 8.072e-4
-1.492, 8.176e-4
-1.493, 8.277e-4
-1.494, 8.356e-4
-1.495, 8.429e-4
-1.496, 8.511e-4
-1.497, 8.610e-4
-1.498, 8.726e-4
-1.499, 8.799e-4
-1.500, 8.872e-4
-1.501, 8.962e-4
-1.502, 9.067e-4
-1.503, 9.176e-4
-1.504, 9.262e-4
-1.505, 9.321e-4
-1.506, 9.426e-4
-1.507, 9.537e-4
-1.508, 9.637e-4
-1.509, 9.739e-4
-1.510, 9.808e-4
-1.511, 9.909e-4
-1.512, 1.003e-3
-1.513, 1.013e-3
-1.514, 1.021e-3
-1.515, 1.030e-3
-1.516, 1.040e-3
-1.517, 1.051e-3
-1.518, 1.063e-3
-1.519, 1.073e-3
-1.520, 1.081e-3
-1.521, 1.091e-3
-1.522, 1.101e-3
-1.523, 1.114e-3
-1.524, 1.123e-3
-1.525, 1.134e-3
-1.526, 1.143e-3
-1.527, 1.156e-3
-1.528, 1.168e-3
-1.529, 1.179e-3
-1.530, 1.188e-3
-1.531, 1.198e-3
-1.532, 1.210e-3
-1.533, 1.223e-3
-1.534, 1.232e-3
-1.535, 1.242e-3
-1.536, 1.253e-3
-1.537, 1.266e-3
-1.538, 1.279e-3
-1.539, 1.292e-3
-1.540, 1.301e-3
-1.541, 1.313e-3
-1.542, 1.326e-3
-1.543, 1.339e-3
-1.544, 1.351e-3
-1.545, 1.360e-3
-1.546, 1.371e-3
-1.547, 1.384e-3
-1.548, 1.399e-3
-1.549, 1.411e-3
-1.550, 1.423e-3
-1.551, 1.434e-3
-1.552, 1.448e-3
-1.553, 1.462e-3
-1.554, 1.474e-3
-1.555, 1.484e-3
-1.556, 1.497e-3
-1.557, 1.510e-3
-1.558, 1.525e-3
-1.559, 1.538e-3
-1.560, 1.549e-3
-1.561, 1.561e-3
-1.562, 1.576e-3
-1.563, 1.591e-3
-1.564, 1.605e-3
-1.565, 1.615e-3
-1.566, 1.628e-3
-1.567, 1.642e-3
-1.568, 1.658e-3
-1.569, 1.671e-3
-1.570, 1.685e-3
-1.571, 1.697e-3
-1.572, 1.713e-3
-1.573, 1.728e-3
-1.574, 1.743e-3
-1.575, 1.754e-3
-1.576, 1.768e-3
-1.577, 1.784e-3
-1.578, 1.801e-3
-1.579, 1.813e-3
-1.580, 1.828e-3
-1.581, 1.842e-3
-1.582, 1.858e-3
-1.583, 1.877e-3
-1.584, 1.876e-3
-1.585, 1.855e-3
-1.586, 1.870e-3
-1.587, 1.884e-3
-1.588, 1.900e-3
-1.589, 1.917e-3
-1.590, 1.930e-3
-1.591, 1.950e-3
-1.592, 1.960e-3
-1.593, 1.977e-3
-1.594, 1.995e-3
-1.595, 2.010e-3
-1.596, 2.092e-3
-1.597, 2.082e-3
-1.598, 2.102e-3
-1.599, 2.113e-3
-1.600, 2.127e-3
-1.601, 2.143e-3
-1.602, 2.160e-3
-1.603, 2.178e-3
-1.604, 2.195e-3
-1.605, 2.209e-3
-1.606, 2.227e-3
-1.607, 2.248e-3
-1.608, 2.265e-3
-1.609, 2.278e-3
-1.610, 2.291e-3
-1.611, 2.307e-3
-1.612, 2.320e-3
-1.613, 2.345e-3
-1.614, 2.363e-3
-1.615, 2.372e-3
-1.616, 2.381e-3
-1.617, 2.418e-3
-1.618, 2.434e-3
-1.619, 2.446e-3
-1.620, 2.472e-3
-1.621, 2.489e-3
-1.622, 2.508e-3
-1.623, 2.528e-3
-1.624, 2.544e-3
-1.625, 2.555e-3
-1.626, 2.572e-3
-1.627, 2.599e-3
-1.628, 2.619e-3
-1.629, 2.634e-3
-1.630, 2.653e-3
-1.631, 2.671e-3
-1.632, 2.691e-3
-1.633, 2.714e-3
-1.634, 2.735e-3
-1.635, 2.749e-3
-1.636, 2.771e-3
-1.637, 2.786e-3
-1.638, 2.819e-3
-1.639, 2.845e-3
-1.640, 2.858e-3
-1.641, 2.881e-3
-1.642, 2.906e-3
-1.643, 2.927e-3
-1.644, 2.955e-3
-1.645, 2.971e-3
-1.646, 2.997e-3
-1.647, 3.017e-3
-1.648, 3.042e-3
-1.649, 3.052e-3
-1.650, 3.072e-3
-1.651, 3.094e-3
-1.652, 3.123e-3
-1.653, 3.144e-3
-1.654, 3.161e-3
-1.655, 3.183e-3
-1.656, 3.199e-3
-1.657, 3.230e-3
-1.658, 3.256e-3
-1.659, 3.280e-3
-1.660, 3.302e-3
-1.661, 3.325e-3
-1.662, 3.354e-3
-1.663, 3.366e-3
-1.664, 3.394e-3
-1.665, 3.416e-3
-1.666, 3.439e-3
-1.667, 3.457e-3
-1.668, 3.466e-3
-1.669, 3.489e-3
-1.670, 3.544e-3
-1.671, 3.565e-3
-1.672, 3.555e-3
-1.673, 3.588e-3
-1.674, 3.619e-3
-1.675, 3.681e-3
-1.676, 3.705e-3
-1.677, 3.724e-3
-1.678, 3.761e-3
-1.679, 3.794e-3
-1.680, 3.824e-3
-1.681, 3.854e-3
-1.682, 3.890e-3
-1.683, 3.921e-3
-1.684, 3.946e-3
-1.685, 3.973e-3
-1.686, 4.008e-3
-1.687, 4.037e-3
-1.688, 4.058e-3
-1.689, 4.098e-3
-1.690, 4.134e-3
-1.691, 4.156e-3
-1.692, 4.196e-3
-1.693, 4.198e-3
-1.694, 4.220e-3
-1.695, 4.250e-3
-1.696, 4.275e-3
-1.697, 4.310e-3
-1.698, 4.363e-3
-1.699, 4.395e-3
-1.700, 4.441e-3
-1.701, 4.525e-3
-1.702, 4.513e-3
-1.703, 4.532e-3
-1.704, 4.618e-3
-1.705, 4.635e-3
-1.706, 4.653e-3
-1.707, 4.687e-3
-1.708, 4.750e-3
-1.709, 4.767e-3
-1.710, 4.792e-3
-1.711, 4.824e-3
-1.712, 4.803e-3
-1.713, 4.684e-3
-1.714, 4.718e-3
-1.715, 4.753e-3
-1.716, 4.791e-3
-1.717, 4.840e-3
-1.718, 4.932e-3
-1.719, 4.972e-3
-1.720, 5.011e-3
-1.721, 5.046e-3
-1.722, 5.104e-3
-1.723, 5.127e-3
-1.724, 5.198e-3
-1.725, 5.215e-3
-1.726, 5.245e-3
-1.727, 5.301e-3
-1.728, 5.356e-3
-1.729, 5.407e-3
-1.730, 5.416e-3
-1.731, 5.465e-3
-1.732, 5.527e-3
-1.733, 5.632e-3
-1.734, 5.681e-3
-1.735, 5.710e-3
-1.736, 5.753e-3
-1.737, 5.775e-3
-1.738, 5.802e-3
-1.739, 5.903e-3
-1.740, 5.928e-3
-1.741, 5.974e-3
-1.742, 5.990e-3
-1.743, 6.091e-3
-1.744, 6.128e-3
-1.745, 6.171e-3
-1.746, 6.203e-3
-1.747, 6.236e-3
-1.748, 6.283e-3
-1.749, 6.358e-3
-1.750, 6.395e-3
-1.751, 6.414e-3
-1.752, 6.413e-3
-1.753, 6.465e-3
-1.754, 6.572e-3
-1.755, 6.646e-3
-1.756, 6.634e-3
-1.757, 6.680e-3
-1.758, 6.725e-3
-1.759, 6.809e-3
-1.760, 6.855e-3
-1.761, 6.887e-3
-1.762, 7.005e-3
-1.763, 7.081e-3
-1.764, 7.196e-3
-1.765, 7.285e-3
-1.766, 7.337e-3
-1.767, 7.356e-3
-1.768, 7.406e-3
-1.769, 7.430e-3
-1.770, 7.496e-3
-1.771, 7.565e-3
-1.772, 7.595e-3
-1.773, 7.666e-3
-1.774, 7.760e-3
-1.775, 7.743e-3
-1.776, 7.805e-3
-1.777, 7.867e-3
-1.778, 7.887e-3
-1.779, 7.984e-3
-1.780, 8.006e-3
-1.781, 8.020e-3
-1.782, 8.194e-3
-1.783, 8.293e-3
-1.784, 8.407e-3
-1.785, 8.485e-3
-1.786, 8.607e-3
-1.787, 8.686e-3
-1.788, 8.734e-3
-1.789, 8.773e-3
-1.790, 8.872e-3
-1.791, 8.859e-3
-1.792, 8.931e-3
-1.793, 8.897e-3
-1.794, 8.895e-3
-1.795, 8.981e-3
-1.796, 9.099e-3
-1.797, 9.206e-3
-1.798, 9.200e-3
-1.799, 9.278e-3
-1.800, 9.209e-3
-1.799, 9.043e-3
-1.798, 8.947e-3
-1.797, 8.925e-3
-1.796, 8.920e-3
-1.795, 8.858e-3
-1.794, 8.754e-3
-1.793, 8.689e-3
-1.792, 8.591e-3
-1.791, 8.503e-3
-1.790, 8.427e-3
-1.789, 8.404e-3
-1.788, 8.325e-3
-1.787, 8.308e-3
-1.786, 8.208e-3
-1.785, 8.145e-3
-1.784, 8.053e-3
-1.783, 7.953e-3
-1.782, 7.875e-3
-1.781, 7.745e-3
-1.780, 7.741e-3
-1.779, 7.682e-3
-1.778, 7.697e-3
-1.777, 7.592e-3
-1.776, 7.543e-3
-1.775, 7.437e-3
-1.774, 7.364e-3
-1.773, 7.382e-3
-1.772, 7.285e-3
-1.771, 7.244e-3
-1.770, 7.168e-3
-1.769, 7.146e-3
-1.768, 7.137e-3
-1.767, 7.070e-3
-1.766, 6.985e-3
-1.765, 6.897e-3
-1.764, 6.870e-3
-1.763, 6.738e-3
-1.762, 6.640e-3
-1.761, 6.575e-3
-1.760, 6.515e-3
-1.759, 6.452e-3
-1.758, 6.377e-3
-1.757, 6.279e-3
-1.756, 6.222e-3
-1.755, 6.213e-3
-1.754, 6.138e-3
-1.753, 6.078e-3
-1.752, 6.014e-3
-1.751, 5.948e-3
-1.750, 5.892e-3
-1.749, 5.883e-3
-1.748, 5.826e-3
-1.747, 5.821e-3
-1.746, 5.749e-3
-1.745, 5.706e-3
-1.744, 5.667e-3
-1.743, 5.619e-3
-1.742, 5.564e-3
-1.741, 5.522e-3
-1.740, 5.444e-3
-1.739, 5.357e-3
-1.738, 5.308e-3
-1.737, 5.254e-3
-1.736, 5.199e-3
-1.735, 5.096e-3
-1.734, 5.029e-3
-1.733, 4.977e-3
-1.732, 4.937e-3
-1.731, 4.902e-3
-1.730, 4.850e-3
-1.729, 4.820e-3
-1.728, 4.775e-3
-1.727, 4.693e-3
-1.726, 4.648e-3
-1.725, 4.596e-3
-1.724, 4.539e-3
-1.723, 4.495e-3
-1.722, 4.442e-3
-1.721, 4.383e-3
-1.720, 4.331e-3
-1.719, 4.283e-3
-1.718, 4.252e-3
-1.717, 4.236e-3
-1.716, 4.189e-3
-1.715, 4.136e-3
-1.714, 4.092e-3
-1.713, 4.042e-3
-1.712, 3.996e-3
-1.711, 3.960e-3
-1.710, 3.920e-3
-1.709, 3.880e-3
-1.708, 3.839e-3
-1.707, 3.783e-3
-1.706, 3.733e-3
-1.705, 3.690e-3
-1.704, 3.644e-3
-1.703, 3.614e-3
-1.702, 3.578e-3
-1.701, 3.534e-3
-1.700, 3.491e-3
-1.699, 3.446e-3
-1.698, 3.405e-3
-1.697, 3.358e-3
-1.696, 3.323e-3
-1.695, 3.304e-3
-1.694, 3.264e-3
-1.693, 3.234e-3
-1.692, 3.181e-3
-1.691, 3.125e-3
-1.690, 3.091e-3
-1.689, 3.067e-3
-1.688, 3.033e-3
-1.687, 3.008e-3
-1.686, 2.977e-3
-1.685, 2.955e-3
-1.684, 2.908e-3
-1.683, 2.867e-3
-1.682, 2.842e-3
-1.681, 2.805e-3
-1.680, 2.771e-3
-1.679, 2.743e-3
-1.678, 2.715e-3
-1.677, 2.689e-3
-1.676, 2.676e-3
-1.675, 2.645e-3
-1.674, 2.602e-3
-1.673, 2.570e-3
-1.672, 2.541e-3
-1.671, 2.518e-3
-1.670, 2.490e-3
-1.669, 2.462e-3
-1.668, 2.439e-3
-1.667, 2.408e-3
-1.666, 2.383e-3
-1.665, 2.355e-3
-1.664, 2.322e-3
-1.663, 2.269e-3
-1.662, 2.261e-3
-1.661, 2.256e-3
-1.660, 2.203e-3
-1.659, 2.178e-3
-1.658, 2.147e-3
-1.657, 2.139e-3
-1.656, 2.121e-3
-1.655, 2.088e-3
-1.654, 2.068e-3
-1.653, 2.040e-3
-1.652, 1.998e-3
-1.651, 1.964e-3
-1.650, 1.946e-3
-1.649, 1.923e-3
-1.648, 1.960e-3
-1.647, 1.927e-3
-1.646, 1.862e-3
-1.645, 1.839e-3
-1.644, 1.859e-3
-1.643, 1.871e-3
-1.642, 1.842e-3
-1.641, 1.786e-3
-1.640, 1.753e-3
-1.639, 1.780e-3
-1.638, 1.755e-3
-1.637, 1.717e-3
-1.636, 1.728e-3
-1.635, 1.712e-3
-1.634, 1.700e-3
-1.633, 1.684e-3
-1.632, 1.668e-3
-1.631, 1.635e-3
-1.630, 1.623e-3
-1.629, 1.613e-3
-1.628, 1.589e-3
-1.627, 1.542e-3
-1.626, 1.568e-3
-1.625, 1.537e-3
-1.624, 1.527e-3
-1.623, 1.504e-3
-1.622, 1.464e-3
-1.621, 1.439e-3
-1.620, 1.470e-3
-1.619, 1.416e-3
-1.618, 1.398e-3
-1.617, 1.381e-3
-1.616, 1.416e-3
-1.615, 1.401e-3
-1.614, 1.369e-3
-1.613, 1.354e-3
-1.612, 1.331e-3
-1.611, 1.339e-3
-1.610, 1.326e-3
-1.609, 1.312e-3
-1.608, 1.303e-3
-1.607, 1.264e-3
-1.606, 1.276e-3
-1.605, 1.249e-3
-1.604, 1.241e-3
-1.603, 1.239e-3
-1.602, 1.229e-3
-1.601, 1.218e-3
-1.600, 1.205e-3
-1.599, 1.184e-3
-1.598, 1.173e-3
-1.597, 1.150e-3
-1.596, 1.147e-3
-1.595, 1.121e-3
-1.594, 1.097e-3
-1.593, 1.085e-3
-1.592, 1.078e-3
-1.591, 1.132e-3
-1.590, 1.083e-3
-1.589, 1.071e-3
-1.588, 1.075e-3
-1.587, 1.037e-3
-1.586, 1.017e-3
-1.585, 1.006e-3
-1.584, 9.946e-4
-1.583, 1.003e-3
-1.582, 1.006e-3
-1.581, 1.010e-3
-1.580, 9.536e-4
-1.579, 9.497e-4
-1.578, 9.722e-4
-1.577, 9.348e-4
-1.576, 9.357e-4
-1.575, 9.265e-4
-1.574, 9.467e-4
-1.573, 9.218e-4
-1.572, 9.085e-4
-1.571, 9.012e-4
-1.570, 8.924e-4
-1.569, 8.860e-4
-1.568, 8.762e-4
-1.567, 8.697e-4
-1.566, 8.654e-4
-1.565, 8.464e-4
-1.564, 8.409e-4
-1.563, 8.358e-4
-1.562, 8.434e-4
-1.561, 8.255e-4
-1.560, 8.164e-4
-1.559, 8.087e-4
-1.558, 8.015e-4
-1.557, 7.817e-4
-1.556, 7.923e-4
-1.555, 7.781e-4
-1.554, 7.718e-4
-1.553, 7.634e-4
-1.552, 7.567e-4
-1.551, 7.493e-4
-1.550, 7.403e-4
-1.549, 7.285e-4
-1.548, 7.262e-4
-1.547, 7.213e-4
-1.546, 7.152e-4
-1.545, 7.046e-4
-1.544, 6.972e-4
-1.543, 6.922e-4
-1.542, 6.831e-4
-1.541, 6.769e-4
-1.540, 6.710e-4
-1.539, 6.632e-4
-1.538, 6.584e-4
-1.537, 6.519e-4
-1.536, 6.426e-4
-1.535, 6.357e-4
-1.534, 6.267e-4
-1.533, 6.224e-4
-1.532, 6.189e-4
-1.531, 6.098e-4
-1.530, 6.048e-4
-1.529, 5.965e-4
-1.528, 5.920e-4
-1.527, 5.873e-4
-1.526, 5.803e-4
-1.525, 5.732e-4
-1.524, 5.669e-4
-1.523, 5.618e-4
-1.522, 5.566e-4
-1.521, 5.522e-4
-1.520, 5.450e-4
-1.519, 5.381e-4
-1.518, 5.339e-4
-1.517, 5.256e-4
-1.516, 5.246e-4
-1.515, 5.158e-4
-1.514, 5.095e-4
-1.513, 5.042e-4
-1.512, 4.962e-4
-1.511, 4.933e-4
-1.510, 4.849e-4
-1.509, 4.682e-4
-1.508, 4.625e-4
-1.507, 4.648e-4
-1.506, 4.546e-4
-1.505, 4.478e-4
-1.504, 4.418e-4
-1.503, 4.502e-4
-1.502, 4.707e-4
-1.501, 4.505e-4
-1.500, 4.399e-4
-1.499, 4.349e-4
-1.498, 4.304e-4
-1.497, 4.263e-4
-1.496, 4.222e-4
-1.495, 4.161e-4
-1.494, 4.114e-4
-1.493, 3.987e-4
-1.492, 3.953e-4
-1.491, 3.828e-4
-1.490, 3.787e-4
-1.489, 4.024e-4
-1.488, 3.891e-4
-1.487, 3.826e-4
-1.486, 3.762e-4
-1.485, 3.681e-4
-1.484, 3.591e-4
-1.483, 3.577e-4
-1.482, 3.541e-4
-1.481, 3.497e-4
-1.480, 3.445e-4
-1.479, 3.390e-4
-1.478, 3.359e-4
-1.477, 3.338e-4
-1.476, 3.297e-4
-1.475, 3.391e-4
-1.474, 3.176e-4
-1.473, 3.109e-4
-1.472, 3.136e-4
-1.471, 3.190e-4
-1.470, 3.060e-4
-1.469, 3.121e-4
-1.468, 2.986e-4
-1.467, 3.015e-4
-1.466, 2.965e-4
-1.465, 2.918e-4
-1.464, 2.837e-4
-1.463, 2.730e-4
-1.462, 2.699e-4
-1.461, 2.719e-4
-1.460, 2.641e-4
-1.459, 2.598e-4
-1.458, 2.619e-4
-1.457, 2.638e-4
-1.456, 2.553e-4
-1.455, 2.481e-4
-1.454, 2.437e-4
-1.453, 2.681e-4
-1.452, 2.454e-4
-1.451, 2.329e-4
-1.450, 2.430e-4
-1.449, 2.399e-4
-1.448, 2.264e-4
-1.447, 2.244e-4
-1.446, 2.215e-4
-1.445, 2.172e-4
-1.444, 2.133e-4
-1.443, 2.275e-4
-1.442, 2.100e-4
-1.441, 2.068e-4
-1.440, 2.024e-4
-1.439, 1.988e-4
-1.438, 1.969e-4
-1.437, 1.961e-4
-1.436, 1.930e-4
-1.435, 1.887e-4
-1.434, 1.849e-4
-1.433, 1.836e-4
-1.432, 1.824e-4
-1.431, 2.054e-4
-1.430, 1.908e-4
-1.429, 1.722e-4
-1.428, 1.718e-4
-1.427, 1.671e-4
-1.426, 1.683e-4
-1.425, 1.824e-4
-1.424, 1.650e-4
-1.423, 1.638e-4
-1.422, 1.575e-4
-1.421, 1.553e-4
-1.420, 1.513e-4
-1.419, 1.481e-4
-1.418, 1.470e-4
-1.417, 1.457e-4
-1.416, 1.646e-4
-1.415, 1.481e-4
-1.414, 1.427e-4
-1.413, 1.423e-4
-1.412, 1.377e-4
-1.411, 1.380e-4
-1.410, 1.338e-4
-1.409, 1.308e-4
-1.408, 1.326e-4
-1.407, 1.300e-4
-1.406, 1.226e-4
-1.405, 1.235e-4
-1.404, 1.159e-4
-1.403, 1.205e-4
-1.402, 1.148e-4
-1.401, 1.174e-4
-1.400, 1.134e-4
-1.399, 1.163e-4
-1.398, 1.104e-4
-1.397, 1.090e-4
-1.396, 1.070e-4
-1.395, 1.040e-4
-1.394, 1.019e-4
-1.393, 1.000e-4
-1.392, 9.661e-5
-1.391, 1.022e-4
-1.390, 9.581e-5
-1.389, 9.272e-5
-1.388, 9.211e-5
-1.387, 9.162e-5
-1.386, 9.009e-5
-1.385, 8.681e-5
-1.384, 8.431e-5
-1.383, 8.375e-5
-1.382, 8.365e-5
-1.381, 8.192e-5
-1.380, 7.899e-5
-1.379, 7.648e-5
-1.378, 7.601e-5
-1.377, 7.580e-5
-1.376, 7.444e-5
-1.375, 7.146e-5
-1.374, 6.900e-5
-1.373, 6.845e-5
-1.372, 6.908e-5
-1.371, 6.721e-5
-1.370, 6.432e-5
-1.369, 6.209e-5
-1.368, 6.200e-5
-1.367, 6.197e-5
-1.366, 6.049e-5
-1.365, 5.783e-5
-1.364, 5.571e-5
-1.363, 5.542e-5
-1.362, 5.569e-5
-1.361, 5.437e-5
-1.360, 5.173e-5
-1.359, 4.970e-5
-1.358, 4.947e-5
-1.357, 4.975e-5
-1.356, 4.818e-5
-1.355, 4.535e-5
-1.354, 4.415e-5
-1.353, 4.424e-5
-1.352, 4.304e-5
-1.351, 4.129e-5
-1.350, 3.891e-5
-1.349, 4.030e-5
-1.348, 4.021e-5
-1.347, 3.986e-5
-1.346, 3.824e-5
-1.345, 3.582e-5
-1.344, 3.400e-5
-1.343, 3.384e-5
-1.342, 3.399e-5
-1.341, 3.337e-5
-1.340, 3.126e-5
-1.339, 2.963e-5
-1.338, 2.868e-5
-1.337, 2.982e-5
-1.336, 2.873e-5
-1.335, 2.556e-5
-1.334, 2.556e-5
-1.333, 2.534e-5
-1.332, 2.564e-5
-1.331, 2.485e-5
-1.330, 2.261e-5
-1.329, 2.203e-5
-1.328, 2.303e-5
-1.327, 2.219e-5
-1.326, 2.110e-5
-1.325, 1.902e-5
-1.324, 1.757e-5
-1.323, 1.804e-5
-1.322, 1.854e-5
-1.321, 1.885e-5
-1.320, 1.604e-5
-1.319, 1.422e-5
-1.318, 1.491e-5
-1.317, 1.566e-5
-1.316, 1.454e-5
-1.315, 1.250e-5
-1.314, 1.059e-5
-1.313, 1.216e-5
-1.312, 1.284e-5
-1.311, 1.173e-5
-1.310, 1.079e-5
-1.309, 8.408e-6
-1.308, 8.706e-6
-1.307, 9.454e-6
-1.306, 8.960e-6
-1.305, 6.939e-6
-1.304, 5.594e-6
-1.303, 6.297e-6
-1.302, 9.891e-6
-1.301, 7.102e-6
-1.300, 4.892e-6
-1.299, 3.671e-6
-1.298, 4.133e-6
-1.297, 5.142e-6
-1.296, 4.467e-6
-1.295, 3.656e-6
-1.294, 1.346e-6
-1.293, 2.118e-6
-1.292, 3.943e-6
-1.291, 2.741e-6
-1.290, 1.054e-6
-1.289, -3.672e-7
-1.288, 4.290e-7
-1.287, 1.569e-6
-1.286, 9.657e-7
-1.285, -8.635e-7
-1.284, -2.116e-6
-1.283, -1.447e-6
-1.282, -3.623e-7
-1.281, -7.796e-7
-1.280, -2.522e-6
-1.279, -3.664e-6
-1.278, -2.953e-6
-1.277, -1.767e-6
-1.276, -2.135e-6
-1.275, -3.983e-6
-1.274, -5.033e-6
-1.273, -4.295e-6
-1.272, -3.096e-6
-1.271, -3.493e-6
-1.270, -5.269e-6
-1.269, -6.295e-6
-1.268, -5.356e-6
-1.267, -4.378e-6
-1.266, -4.597e-6
-1.265, -6.396e-6
-1.264, -7.339e-6
-1.263, -6.538e-6
-1.262, -5.457e-6
-1.261, -5.690e-6
-1.260, -7.290e-6
-1.259, -8.442e-6
-1.258, -7.472e-6
-1.257, -6.412e-6
-1.256, -6.676e-6
-1.255, -8.267e-6
-1.254, -9.421e-6
-1.253, -8.295e-6
-1.252, -7.176e-6
-1.251, -7.632e-6
-1.250, -9.148e-6
-1.249, -1.016e-5
-1.248, -9.130e-6
-1.247, -8.033e-6
-1.246, -8.367e-6
-1.245, -9.859e-6
-1.244, -1.307e-5
-1.243, -1.010e-5
-1.242, -8.794e-6
-1.241, -1.044e-5
-1.240, -1.064e-5
-1.239, -1.148e-5
-1.238, -1.073e-5
-1.237, -9.771e-6
-1.236, -9.589e-6
-1.235, -1.186e-5
-1.234, -1.221e-5
-1.233, -1.132e-5
-1.232, -1.150e-5
-1.231, -1.055e-5
-1.230, -1.216e-5
-1.229, -1.336e-5
-1.228, -1.196e-5
-1.227, -1.098e-5
-1.226, -1.092e-5
-1.225, -1.269e-5
-1.224, -1.330e-5
-1.223, -1.222e-5
-1.222, -1.143e-5
-1.221, -1.202e-5
-1.220, -1.313e-5
-1.219, -1.386e-5
-1.218, -1.269e-5
-1.217, -1.157e-5
-1.216, -1.161e-5
-1.215, -1.309e-5
-1.214, -1.398e-5
-1.213, -1.565e-5
-1.212, -1.250e-5
-1.211, -1.252e-5
-1.210, -1.393e-5
-1.209, -1.459e-5
-1.208, -1.380e-5
-1.207, -1.301e-5
-1.206, -1.246e-5
-1.205, -1.394e-5
-1.204, -1.560e-5
-1.203, -1.461e-5
-1.202, -1.269e-5
-1.201, -1.281e-5
-1.200, -1.523e-5
-1.199, -1.516e-5
-1.198, -1.487e-5
-1.197, -1.336e-5
-1.196, -1.308e-5
-1.195, -1.459e-5
-1.194, -1.543e-5
-1.193, -1.448e-5
-1.192, -1.310e-5
-1.191, -1.329e-5
-1.190, -1.494e-5
-1.189, -1.570e-5
-1.188, -1.468e-5
-1.187, -1.679e-5
-1.186, -1.389e-5
-1.185, -1.555e-5
-1.184, -1.619e-5
-1.183, -1.628e-5
-1.182, -1.412e-5
-1.181, -1.393e-5
-1.180, -1.541e-5
-1.179, -1.639e-5
-1.178, -1.533e-5
-1.177, -1.406e-5
-1.176, -1.624e-5
-1.175, -1.684e-5
-1.174, -1.664e-5
-1.173, -1.554e-5
-1.172, -1.425e-5
-1.171, -1.450e-5
-1.170, -1.601e-5
-1.169, -1.686e-5
-1.168, -1.581e-5
-1.167, -1.453e-5
-1.166, -1.477e-5
-1.165, -1.620e-5
-1.164, -1.710e-5
-1.163, -1.605e-5
-1.162, -1.480e-5
-1.161, -1.501e-5
-1.160, -1.656e-5
-1.159, -1.747e-5
-1.158, -1.645e-5
-1.157, -2.132e-5
-1.156, -1.577e-5
-1.155, -1.687e-5
-1.154, -1.770e-5
-1.153, -1.674e-5
-1.152, -1.542e-5
-1.151, -1.558e-5
-1.150, -1.723e-5
-1.149, -1.798e-5
-1.148, -1.694e-5
-1.147, -1.581e-5
-1.146, -1.589e-5
-1.145, -1.741e-5
-1.144, -1.836e-5
-1.143, -1.726e-5
-1.142, -1.617e-5
-1.141, -1.622e-5
-1.140, -1.770e-5
-1.139, -1.870e-5
-1.138, -1.760e-5
-1.137, -1.647e-5
-1.136, -1.656e-5
-1.135, -1.799e-5
-1.134, -1.915e-5
-1.133, -1.802e-5
-1.132, -1.763e-5
-1.131, -1.714e-5
-1.130, -1.851e-5
-1.129, -2.925e-5
-1.128, -1.891e-5
-1.127, -1.723e-5
-1.126, -1.737e-5
-1.125, -1.898e-5
-1.124, -1.989e-5
-1.123, -1.905e-5
-1.122, -1.763e-5
-1.121, -1.791e-5
-1.120, -1.952e-5
-1.119, -2.128e-5
-1.118, -2.328e-5
-1.117, -1.913e-5
-1.116, -1.846e-5
-1.115, -2.316e-5
-1.114, -2.181e-5
-1.113, -2.030e-5
-1.112, -1.946e-5
-1.111, -1.960e-5
-1.110, -2.109e-5
-1.109, -2.201e-5
-1.108, -2.121e-5
-1.107, -1.998e-5
-1.106, -2.000e-5
-1.105, -2.160e-5
-1.104, -2.254e-5
-1.103, -2.159e-5
-1.102, -2.043e-5
-1.101, -2.053e-5
-1.100, -2.217e-5
-1.099, -2.322e-5
-1.098, -2.211e-5
-1.097, -2.107e-5
-1.096, -2.113e-5
-1.095, -2.269e-5
-1.094, -2.387e-5
-1.093, -2.280e-5
-1.092, -2.167e-5
-1.091, -2.173e-5
-1.090, -2.334e-5
-1.089, -2.472e-5
-1.088, -2.345e-5
-1.087, -2.231e-5
-1.086, -2.240e-5
-1.085, -2.391e-5
-1.084, -2.556e-5
-1.083, -2.433e-5
-1.082, -2.311e-5
-1.081, -2.280e-5
-1.080, -2.438e-5
-1.079, -2.688e-5
-1.078, -2.441e-5
-1.077, -2.326e-5
-1.076, -2.442e-5
-1.075, -2.642e-5
-1.074, -2.628e-5
-1.073, -2.537e-5
-1.072, -2.486e-5
-1.071, -2.689e-5
-1.070, -2.624e-5
-1.069, -2.709e-5
-1.068, -2.615e-5
-1.067, -2.508e-5
-1.066, -2.537e-5
-1.065, -2.704e-5
-1.064, -2.807e-5
-1.063, -2.724e-5
-1.062, -2.733e-5
-1.061, -3.179e-5
-1.060, -2.784e-5
-1.059, -2.964e-5
-1.058, -2.794e-5
-1.057, -2.696e-5
-1.056, -2.714e-5
-1.055, -2.885e-5
-1.054, -3.023e-5
-1.053, -2.916e-5
-1.052, -2.804e-5
-1.051, -2.936e-5
-1.050, -3.214e-5
-1.049, -3.201e-5
-1.048, -3.113e-5
-1.047, -2.993e-5
-1.046, -3.041e-5
-1.045, -3.200e-5
-1.044, -3.338e-5
-1.043, -3.283e-5
-1.042, -3.154e-5
-1.041, -3.231e-5
-1.040, -3.394e-5
-1.039, -3.542e-5
-1.038, -3.485e-5
-1.037, -3.370e-5
-1.036, -3.430e-5
-1.035, -3.630e-5
-1.034, -3.752e-5
-1.033, -3.726e-5
-1.032, -3.622e-5
-1.031, -3.681e-5
-1.030, -3.895e-5
-1.029, -4.029e-5
-1.028, -3.988e-5
-1.027, -3.903e-5
-1.026, -3.940e-5
-1.025, -4.120e-5
-1.024, -4.278e-5
-1.023, -4.232e-5
-1.022, -4.258e-5
-1.021, -4.361e-5
-1.020, -4.490e-5
-1.019, -4.641e-5
-1.018, -4.581e-5
-1.017, -4.522e-5
-1.016, -4.589e-5
-1.015, -4.738e-5
-1.014, -6.133e-5
-1.013, -5.041e-5
-1.012, -4.829e-5
-1.011, -4.884e-5
-1.010, -5.105e-5
-1.009, -5.265e-5
-1.008, -5.205e-5
-1.007, -5.116e-5
-1.006, -6.471e-5
-1.005, -5.849e-5
-1.004, -5.702e-5
-1.003, -5.516e-5
-1.002, -5.445e-5
-1.001, -5.488e-5
-1.000, -3.835e-5
-1.001, -3.139e-5
-1.002, -2.707e-5
-1.003, -2.310e-5
-1.004, -2.077e-5
-1.005, -2.026e-5
-1.006, -1.939e-5
-1.007, -1.661e-5
-1.008, -1.379e-5
-1.009, -1.237e-5
-1.010, -1.240e-5
-1.011, -1.224e-5
-1.012, -1.001e-5
-1.013, -7.594e-6
-1.014, -6.651e-6
-1.015, -7.074e-6
-1.016, -7.252e-6
-1.017, -5.398e-6
-1.018, -3.035e-6
-1.019, -2.555e-6
-1.020, -3.136e-6
-1.021, -3.546e-6
-1.022, -1.847e-6
-1.023, 2.652e-7
-1.024, 7.457e-7
-1.025, -2.518e-7
-1.026, -5.566e-7
-1.027, 8.354e-7
-1.028, 2.776e-6
-1.029, 3.124e-6
-1.030, 2.104e-6
-1.031, 1.638e-6
-1.032, 2.957e-6
-1.033, 4.760e-6
-1.034, 5.098e-6
-1.035, 2.764e-6
-1.036, 1.559e-8
-1.037, 4.406e-6
-1.038, 6.171e-6
-1.039, 6.399e-6
-1.040, 5.054e-6
-1.041, 4.491e-6
-1.042, 5.938e-6
-1.043, 7.414e-6
-1.044, 7.599e-6
-1.045, 6.394e-6
-1.046, 5.674e-6
-1.047, 7.068e-6
-1.048, 8.543e-6
-1.049, 8.673e-6
-1.050, 7.461e-6
-1.051, 6.680e-6
-1.052, 7.992e-6
-1.053, 9.485e-6
-1.054, 9.557e-6
-1.055, 8.363e-6
-1.056, 7.482e-6
-1.057, 8.709e-6
-1.058, 1.036e-5
-1.059, 1.030e-5
-1.060, 8.977e-6
-1.061, 8.232e-6
-1.062, 9.392e-6
-1.063, 1.290e-5
-1.064, 1.123e-5
-1.065, 9.865e-6
-1.066, 8.864e-6
-1.067, 1.005e-5
-1.068, 1.149e-5
-1.069, 1.210e-5
-1.070, 1.050e-5
-1.071, 9.452e-6
-1.072, 1.047e-5
-1.073, 1.203e-5
-1.074, 1.200e-5
-1.075, 1.120e-5
-1.076, 1.017e-5
-1.077, 1.109e-5
-1.078, 1.263e-5
-1.079, 1.263e-5
-1.080, 1.119e-5
-1.081, 1.041e-5
-1.082, 1.162e-5
-1.083, 1.292e-5
-1.084, 1.298e-5
-1.085, 1.163e-5
-1.086, 1.076e-5
-1.087, 1.188e-5
-1.088, 1.323e-5
-1.089, 1.340e-5
-1.090, 1.181e-5
-1.091, 1.131e-5
-1.092, 1.233e-5
-1.093, 1.367e-5
-1.094, 1.363e-5
-1.095, 1.235e-5
-1.096, 1.147e-5
-1.097, 1.252e-5
-1.098, 1.408e-5
-1.099, 1.393e-5
-1.100, 1.245e-5
-1.101, 1.157e-5
-1.102, 1.328e-5
-1.103, 1.436e-5
-1.104, 1.421e-5
-1.105, 1.288e-5
-1.106, 1.211e-5
-1.107, 1.318e-5
-1.108, 1.468e-5
-1.109, 1.458e-5
-1.110, 1.305e-5
-1.111, 1.245e-5
-1.112, 1.345e-5
-1.113, 1.485e-5
-1.114, 1.494e-5
-1.115, 1.344e-5
-1.116, 1.258e-5
-1.117, 1.357e-5
-1.118, 1.536e-5
-1.119, 1.525e-5
-1.120, 1.371e-5
-1.121, 1.274e-5
-1.122, 1.392e-5
-1.123, 1.577e-5
-1.124, 1.543e-5
-1.125, 1.405e-5
-1.126, 1.315e-5
-1.127, 1.438e-5
-1.128, 1.570e-5
-1.129, 1.564e-5
-1.130, 1.428e-5
-1.131, 1.338e-5
-1.132, 1.456e-5
-1.133, 1.601e-5
-1.134, 1.592e-5
-1.135, 1.460e-5
-1.136, 1.370e-5
-1.137, 1.483e-5
-1.138, 1.624e-5
-1.139, 1.620e-5
-1.140, 1.486e-5
-1.141, 1.402e-5
-1.142, 1.505e-5
-1.143, 1.658e-5
-1.144, 1.648e-5
-1.145, 1.496e-5
-1.146, 1.437e-5
-1.147, 1.526e-5
-1.148, 1.678e-5
-1.149, 1.665e-5
-1.150, 1.532e-5
-1.151, 1.452e-5
-1.152, 1.561e-5
-1.153, 1.697e-5
-1.154, 1.699e-5
-1.155, 1.550e-5
-1.156, 1.474e-5
-1.157, 1.581e-5
-1.158, 1.726e-5
-1.159, 1.722e-5
-1.160, 1.570e-5
-1.161, 1.497e-5
-1.162, 1.607e-5
-1.163, 1.742e-5
-1.164, 1.748e-5
-1.165, 1.604e-5
-1.166, 1.518e-5
-1.167, 1.631e-5
-1.168, 1.767e-5
-1.169, 1.764e-5
-1.170, 1.632e-5
-1.171, 1.541e-5
-1.172, 1.653e-5
-1.173, 1.776e-5
-1.174, 1.761e-5
-1.175, 1.637e-5
-1.176, 1.542e-5
-1.177, 1.655e-5
-1.178, 1.797e-5
-1.179, 1.863e-5
-1.180, 1.652e-5
-1.181, 1.662e-5
-1.182, 1.693e-5
-1.183, 1.834e-5
-1.184, 1.798e-5
-1.185, 1.715e-5
-1.186, 1.610e-5
-1.187, 1.696e-5
-1.188, 1.865e-5
-1.189, 1.852e-5
-1.190, 1.700e-5
-1.191, 1.629e-5
-1.192, 1.724e-5
-1.193, 1.870e-5
-1.194, 1.872e-5
-1.195, 1.719e-5
-1.196, 1.639e-5
-1.197, 1.739e-5
-1.198, 1.890e-5
-1.199, 1.888e-5
-1.200, 1.733e-5
-1.201, 1.652e-5
-1.202, 1.766e-5
-1.203, 1.884e-5
-1.204, 1.914e-5
-1.205, 1.754e-5
-1.206, 1.675e-5
-1.207, 1.776e-5
-1.208, 1.912e-5
-1.209, 1.926e-5
-1.210, 1.785e-5
-1.211, 1.684e-5
-1.212, 1.799e-5
-1.213, 1.941e-5
-1.214, 1.937e-5
-1.215, 1.794e-5
-1.216, 1.714e-5
-1.217, 1.808e-5
-1.218, 1.965e-5
-1.219, 1.957e-5
-1.220, 1.824e-5
-1.221, 1.728e-5
-1.222, 1.841e-5
-1.223, 1.997e-5
-1.224, 1.978e-5
-1.225, 1.834e-5
-1.226, 1.767e-5
-1.227, 1.862e-5
-1.228, 2.026e-5
-1.229, 2.008e-5
-1.230, 1.859e-5
-1.231, 1.856e-5
-1.232, 1.906e-5
-1.233, 2.043e-5
-1.234, 2.055e-5
-1.235, 1.917e-5
-1.236, 1.827e-5
-1.237, 1.941e-5
-1.238, 2.093e-5
-1.239, 2.109e-5
-1.240, 1.956e-5
-1.241, 1.878e-5
-1.242, 1.996e-5
-1.243, 2.137e-5
-1.244, 2.147e-5
-1.245, 2.005e-5
-1.246, 1.927e-5
-1.247, 2.043e-5
-1.248, 2.186e-5
-1.249, 2.197e-5
-1.250, 2.072e-5
-1.251, 1.982e-5
-1.252, 2.100e-5
-1.253, 2.253e-5
-1.254, 2.259e-5
-1.255, 2.145e-5
-1.256, 2.047e-5
-1.257, 2.157e-5
-1.258, 2.329e-5
-1.259, 2.327e-5
-1.260, 2.201e-5
-1.261, 2.131e-5
-1.262, 2.238e-5
-1.263, 2.410e-5
-1.264, 2.411e-5
-1.265, 2.285e-5
-1.266, 2.220e-5
-1.267, 2.331e-5
-1.268, 2.496e-5
-1.269, 2.505e-5
-1.270, 2.384e-5
-1.271, 2.320e-5
-1.272, 2.423e-5
-1.273, 2.589e-5
-1.274, 2.617e-5
-1.275, 2.488e-5
-1.276, 2.421e-5
-1.277, 2.540e-5
-1.278, 2.702e-5
-1.279, 2.731e-5
-1.280, 2.617e-5
-1.281, 2.544e-5
-1.282, 2.670e-5
-1.283, 2.830e-5
-1.284, 2.862e-5
-1.285, 2.743e-5
-1.286, 2.674e-5
-1.287, 2.805e-5
-1.288, 2.967e-5
-1.289, 2.999e-5
-1.290, 2.912e-5
-1.291, 2.818e-5
-1.292, 2.961e-5
-1.293, 3.140e-5
-1.294, 3.165e-5
-1.295, 3.057e-5
-1.296, 2.991e-5
-1.297, 3.123e-5
-1.298, 3.310e-5
-1.299, 3.343e-5
-1.300, 3.234e-5
-1.301, 3.190e-5
-1.302, 3.313e-5
-1.303, 3.512e-5
-1.304, 3.541e-5
-1.305, 3.441e-5
-1.306, 3.397e-5
-1.307, 3.525e-5
-1.308, 3.718e-5
-1.309, 3.767e-5
-1.310, 3.668e-5
-1.311, 3.631e-5
-1.312, 3.759e-5
-1.313, 3.948e-5
-1.314, 4.012e-5
-1.315, 3.939e-5
-1.316, 3.881e-5
-1.317, 4.013e-5
-1.318, 4.201e-5
-1.319, 4.299e-5
-1.320, 4.200e-5
-1.321, 4.153e-5
-1.322, 4.307e-5
-1.323, 4.508e-5
-1.324, 4.579e-5
-1.325, 4.509e-5
-1.326, 4.471e-5
-1.327, 4.612e-5
-1.328, 4.853e-5
-1.329, 4.901e-5
-1.330, 4.836e-5
-1.331, 4.796e-5
-1.332, 4.977e-5
-1.333, 5.190e-5
-1.334, 5.257e-5
-1.335, 5.223e-5
-1.336, 5.171e-5
-1.337, 5.371e-5
-1.338, 5.570e-5
-1.339, 5.666e-5
-1.340, 5.603e-5
-1.341, 5.599e-5
-1.342, 5.757e-5
-1.343, 6.014e-5
-1.344, 6.097e-5
-1.345, 6.048e-5
-1.346, 6.049e-5
-1.347, 6.214e-5
-1.348, 6.483e-5
-1.349, 6.574e-5
-1.350, 6.537e-5
-1.351, 6.550e-5
-1.352, 6.731e-5
-1.353, 6.973e-5
-1.354, 7.115e-5
-1.355, 7.059e-5
-1.356, 7.084e-5
-1.357, 7.287e-5
-1.358, 7.537e-5
-1.359, 7.681e-5
-1.360, 7.639e-5
-1.361, 7.669e-5
-1.362, 7.873e-5
-1.363, 8.172e-5
-1.364, 8.289e-5
-1.365, 8.291e-5
-1.366, 8.303e-5
-1.367, 8.550e-5
-1.368, 8.782e-5
-1.369, 9.003e-5
-1.370, 8.965e-5
-1.371, 9.015e-5
-1.372, 9.254e-5
-1.373, 9.537e-5
-1.374, 9.719e-5
-1.375, 9.731e-5
-1.376, 9.777e-5
-1.377, 1.002e-4
-1.378, 1.033e-4
-1.379, 1.045e-4
-1.380, 1.054e-4
-1.381, 1.066e-4
-1.382, 1.083e-4
-1.383, 1.116e-4
-1.384, 1.142e-4
-1.385, 1.142e-4
-1.386, 1.140e-4
-1.387, 1.158e-4
-1.388, 1.234e-4
-1.389, 1.231e-4
-1.390, 1.238e-4
-1.391, 1.249e-4
-1.392, 1.275e-4
-1.393, 1.299e-4
-1.394, 1.331e-4
-1.395, 1.318e-4
-1.396, 1.330e-4
-1.397, 1.420e-4
-1.398, 1.418e-4
-1.399, 1.440e-4
-1.400, 1.427e-4
-1.401, 1.483e-4
-1.402, 1.506e-4
-1.403, 1.537e-4
-1.404, 1.563e-4
-1.405, 1.570e-4
-1.406, 1.587e-4
-1.407, 1.619e-4
-1.408, 1.659e-4
-1.409, 1.685e-4
-1.410, 1.699e-4
-1.411, 1.717e-4
-1.412, 1.752e-4
-1.413, 1.795e-4
-1.414, 1.821e-4
-1.415, 1.838e-4
-1.416, 1.855e-4
-1.417, 1.889e-4
-1.418, 1.935e-4
-1.419, 1.965e-4
-1.420, 1.983e-4
-1.421, 2.001e-4
-1.422, 2.040e-4
-1.423, 2.086e-4
-1.424, 2.115e-4
-1.425, 2.139e-4
-1.426, 2.158e-4
-1.427, 2.194e-4
-1.428, 2.234e-4
-1.429, 2.246e-4
-1.430, 2.286e-4
-1.431, 2.339e-4
-1.432, 2.357e-4
-1.433, 2.423e-4
-1.434, 2.448e-4
-1.435, 2.469e-4
-1.436, 2.495e-4
-1.437, 2.538e-4
-1.438, 2.590e-4
-1.439, 2.627e-4
-1.440, 2.650e-4
-1.441, 2.677e-4
-1.442, 2.724e-4
-1.443, 2.759e-4
-1.444, 2.799e-4
-1.445, 2.844e-4
-1.446, 2.868e-4
-1.447, 2.917e-4
-1.448, 2.967e-4
-1.449, 3.007e-4
-1.450, 3.037e-4
-1.451, 3.068e-4
-1.452, 3.121e-4
-1.453, 3.172e-4
-1.454, 3.218e-4
-1.455, 3.247e-4
-1.456, 3.277e-4
-1.457, 3.327e-4
-1.458, 3.383e-4
-1.459, 3.429e-4
-1.460, 3.462e-4
-1.461, 3.499e-4
-1.462, 3.545e-4
-1.463, 3.608e-4
-1.464, 3.656e-4
-1.465, 3.683e-4
-1.466, 3.717e-4
-1.467, 3.730e-4
-1.468, 3.852e-4
-1.469, 3.899e-4
-1.470, 3.921e-4
-1.471, 3.941e-4
-1.472, 4.016e-4
-1.473, 4.072e-4
-1.474, 4.126e-4
-1.475, 4.158e-4
-1.476, 4.197e-4
-1.477, 4.256e-4
-1.478, 4.320e-4
-1.479, 4.375e-4
-1.480, 4.420e-4
-1.481, 4.458e-4
-1.482, 4.515e-4
-1.483, 4.582e-4
-1.484, 4.640e-4
-1.485, 4.677e-4
-1.486, 4.724e-4
-1.487, 4.780e-4
-1.488, 4.852e-4
-1.489, 4.907e-4
-1.490, 4.958e-4
-1.491, 5.002e-4
-1.492, 5.064e-4
-1.493, 5.143e-4
-1.494, 5.197e-4
-1.495, 5.240e-4
-1.496, 5.284e-4
-1.497, 5.348e-4
-1.498, 5.424e-4
-1.499, 5.481e-4
-1.500, 5.532e-4
-1.501, 5.579e-4
-1.502, 5.666e-4
-1.503, 5.629e-4
-1.504, 5.779e-4
-1.505, 5.849e-4
-1.506, 5.872e-4
-1.507, 5.948e-4
-1.508, 6.032e-4
-1.509, 6.099e-4
-1.510, 6.145e-4
-1.511, 6.200e-4
-1.512, 6.272e-4
-1.513, 6.354e-4
-1.514, 6.423e-4
-1.515, 6.472e-4
-1.516, 6.536e-4
-1.517, 6.606e-4
-1.518, 6.688e-4
-1.519, 6.760e-4
-1.520, 6.817e-4
-1.521, 6.870e-4
-1.522, 6.951e-4
-1.523, 7.033e-4
-1.524, 7.109e-4
-1.525, 7.171e-4
-1.526, 7.224e-4
-1.527, 7.311e-4
-1.528, 7.400e-4
-1.529, 7.474e-4
-1.530, 7.535e-4
-1.531, 7.593e-4
-1.532, 7.679e-4
-1.533, 7.767e-4
-1.534, 7.847e-4
-1.535, 7.915e-4
-1.536, 7.968e-4
-1.537, 8.053e-4
-1.538, 8.139e-4
-1.539, 8.228e-4
-1.540, 8.286e-4
-1.541, 8.361e-4
-1.542, 8.462e-4
-1.543, 8.543e-4
-1.544, 8.615e-4
-1.545, 8.708e-4
-1.546, 8.770e-4
-1.547, 8.841e-4
-1.548, 8.965e-4
-1.549, 9.043e-4
-1.550, 9.074e-4
-1.551, 9.177e-4
-1.552, 9.256e-4
-1.553, 9.373e-4
-1.554, 9.450e-4
-1.555, 9.535e-4
-1.556, 9.599e-4
-1.557, 9.706e-4
-1.558, 9.785e-4
-1.559, 9.906e-4
-1.560, 9.969e-4
-1.561, 1.005e-3
-1.562, 1.014e-3
-1.563, 1.025e-3
-1.564, 1.036e-3
-1.565, 1.041e-3
-1.566, 1.052e-3
-1.567, 1.060e-3
-1.568, 1.073e-3
-1.569, 1.081e-3
-1.570, 1.090e-3
-1.571, 1.099e-3
-1.572, 1.110e-3
-1.573, 1.120e-3
-1.574, 1.131e-3
-1.575, 1.139e-3
-1.576, 1.148e-3
-1.577, 1.159e-3
-1.578, 1.170e-3
-1.579, 1.181e-3
-1.580, 1.190e-3
-1.581, 1.200e-3
-1.582, 1.209e-3
-1.583, 1.229e-3
-1.584, 1.235e-3
-1.585, 1.247e-3
-1.586, 1.254e-3
-1.587, 1.263e-3
-1.588, 1.273e-3
-1.589, 1.286e-3
-1.590, 1.290e-3
-1.591, 1.290e-3
-1.592, 1.299e-3
-1.593, 1.317e-3
-1.594, 1.336e-3
-1.595, 1.346e-3
-1.596, 1.352e-3
-1.597, 1.366e-3
-1.598, 1.379e-3
-1.599, 1.393e-3
-1.600, 1.404e-3
-1.601, 1.416e-3
-1.602, 1.431e-3
-1.603, 1.434e-3
-1.604, 1.455e-3
-1.605, 1.468e-3
-1.606, 1.480e-3
-1.607, 1.491e-3
-1.608, 1.508e-3
-1.609, 1.520e-3
-1.610, 1.527e-3
-1.611, 1.541e-3
-1.612, 1.550e-3
-1.613, 1.565e-3
-1.614, 1.576e-3
-1.615, 1.588e-3
-1.616, 1.594e-3
-1.617, 1.618e-3
-1.618, 1.630e-3
-1.619, 1.646e-3
-1.620, 1.653e-3
-1.621, 1.658e-3
-1.622, 1.681e-3
-1.623, 1.697e-3
-1.624, 1.716e-3
-1.625, 1.720e-3
-1.626, 1.737e-3
-1.627, 1.753e-3
-1.628, 1.774e-3
-1.629, 1.783e-3
-1.630, 1.797e-3
-1.631, 1.812e-3
-1.632, 1.821e-3
-1.633, 1.845e-3
-1.634, 1.856e-3
-1.635, 1.872e-3
-1.636, 1.883e-3
-1.637, 1.883e-3
-1.638, 1.906e-3
-1.639, 1.934e-3
-1.640, 1.932e-3
-1.641, 1.943e-3
-1.642, 1.964e-3
-1.643, 2.006e-3
-1.644, 2.008e-3
-1.645, 2.027e-3
-1.646, 2.041e-3
-1.647, 2.059e-3
-1.648, 2.076e-3
-1.649, 2.099e-3
-1.650, 2.114e-3
-1.651, 2.127e-3
-1.652, 2.144e-3
-1.653, 2.160e-3
-1.654, 2.184e-3
-1.655, 2.203e-3
-1.656, 2.218e-3
-1.657, 2.230e-3
-1.658, 2.255e-3
-1.659, 2.256e-3
-1.660, 2.293e-3
-1.661, 2.303e-3
-1.662, 2.312e-3
-1.663, 2.346e-3
-1.664, 2.363e-3
-1.665, 2.390e-3
-1.666, 2.388e-3
-1.667, 2.430e-3
-1.668, 2.442e-3
-1.669, 2.453e-3
-1.670, 2.481e-3
-1.671, 2.511e-3
-1.672, 2.523e-3
-1.673, 2.550e-3
-1.674, 2.568e-3
-1.675, 2.599e-3
-1.676, 2.628e-3
-1.677, 2.644e-3
-1.678, 2.644e-3
-1.679, 2.660e-3
-1.680, 2.680e-3
-1.681, 2.725e-3
-1.682, 2.747e-3
-1.683, 2.769e-3
-1.684, 2.794e-3
-1.685, 2.826e-3
-1.686, 2.845e-3
-1.687, 2.864e-3
-1.688, 2.889e-3
-1.689, 2.906e-3
-1.690, 2.921e-3
-1.691, 2.954e-3
-1.692, 2.983e-3
-1.693, 3.010e-3
-1.694, 3.045e-3
-1.695, 3.067e-3
-1.696, 3.101e-3
-1.697, 3.139e-3
-1.698, 3.173e-3
-1.699, 3.209e-3
-1.700, 3.233e-3
-1.701, 3.262e-3
-1.702, 3.289e-3
-1.703, 3.313e-3
-1.704, 3.334e-3
-1.705, 3.366e-3
-1.706, 3.393e-3
-1.707, 3.422e-3
-1.708, 3.456e-3
-1.709, 3.499e-3
-1.710, 3.527e-3
-1.711, 3.561e-3
-1.712, 3.594e-3
-1.713, 3.625e-3
-1.714, 3.661e-3
-1.715, 3.692e-3
-1.716, 3.720e-3
-1.717, 3.757e-3
-1.718, 3.800e-3
-1.719, 3.846e-3
-1.720, 3.875e-3
-1.721, 3.920e-3
-1.722, 3.957e-3
-1.723, 3.999e-3
-1.724, 4.029e-3
-1.725, 4.058e-3
-1.726, 4.090e-3
-1.727, 4.137e-3
-1.728, 4.186e-3
-1.729, 4.218e-3
-1.730, 4.275e-3
-1.731, 4.316e-3
-1.732, 4.365e-3
-1.733, 4.393e-3
-1.734, 4.441e-3
-1.735, 4.484e-3
-1.736, 4.543e-3
-1.737, 4.553e-3
-1.738, 4.578e-3
-1.739, 4.654e-3
-1.740, 4.691e-3
-1.741, 4.752e-3
-1.742, 4.808e-3
-1.743, 4.865e-3
-1.744, 4.889e-3
-1.745, 4.960e-3
-1.746, 4.983e-3
-1.747, 5.049e-3
-1.748, 5.133e-3
-1.749, 5.146e-3
-1.750, 5.169e-3
-1.751, 5.207e-3
-1.752, 5.262e-3
-1.753, 5.312e-3
-1.754, 5.373e-3
-1.755, 5.414e-3
-1.756, 5.477e-3
-1.757, 5.525e-3
-1.758, 5.564e-3
-1.759, 5.579e-3
-1.760, 5.610e-3
-1.761, 5.679e-3
-1.762, 5.704e-3
-1.763, 5.783e-3
-1.764, 5.827e-3
-1.765, 5.881e-3
-1.766, 5.954e-3
-1.767, 5.989e-3
-1.768, 6.004e-3
-1.769, 6.136e-3
-1.770, 6.205e-3
-1.771, 6.333e-3
-1.772, 6.449e-3
-1.773, 6.537e-3
-1.774, 6.582e-3
-1.775, 6.606e-3
-1.776, 6.657e-3
-1.777, 6.688e-3
-1.778, 6.681e-3
-1.779, 6.727e-3
-1.780, 6.810e-3
-1.781, 6.845e-3
-1.782, 6.902e-3
-1.783, 6.958e-3
-1.784, 6.996e-3
-1.785, 7.122e-3
-1.786, 7.105e-3
-1.787, 7.137e-3
-1.788, 7.202e-3
-1.789, 7.235e-3
-1.790, 7.277e-3
-1.791, 7.327e-3
-1.792, 7.345e-3
-1.793, 7.435e-3
-1.794, 7.464e-3
-1.795, 7.505e-3
-1.796, 7.547e-3
-1.797, 7.595e-3
-1.798, 7.649e-3
-1.799, 7.710e-3
-1.800, 7.687e-3
-1.799, 7.657e-3
-1.798, 7.544e-3
-1.797, 7.469e-3
-1.796, 7.405e-3
-1.795, 7.365e-3
-1.794, 7.276e-3
-1.793, 7.222e-3
-1.792, 7.174e-3
-1.791, 7.086e-3
-1.790, 7.013e-3
-1.789, 6.903e-3
-1.788, 6.858e-3
-1.787, 6.827e-3
-1.786, 6.774e-3
-1.785, 6.676e-3
-1.784, 6.598e-3
-1.783, 6.577e-3
-1.782, 6.551e-3
-1.781, 6.505e-3
-1.780, 6.417e-3
-1.779, 6.346e-3
-1.778, 6.342e-3
-1.777, 6.282e-3
-1.776, 6.226e-3
-1.775, 6.205e-3
-1.774, 6.307e-3
-1.773, 6.269e-3
-1.772, 6.235e-3
-1.771, 6.177e-3
-1.770, 6.136e-3
-1.769, 6.035e-3
-1.768, 5.982e-3
-1.767, 5.950e-3
-1.766, 5.913e-3
-1.765, 5.863e-3
-1.764, 5.813e-3
-1.763, 5.770e-3
-1.762, 5.733e-3
-1.761, 5.675e-3
-1.760, 5.674e-3
-1.759, 5.634e-3
-1.758, 5.561e-3
-1.757, 5.498e-3
-1.756, 5.431e-3
-1.755, 5.388e-3
-1.754, 5.333e-3
-1.753, 5.297e-3
-1.752, 5.246e-3
-1.751, 5.181e-3
-1.750, 5.124e-3
-1.749, 5.092e-3
-1.748, 5.021e-3
-1.747, 4.960e-3
-1.746, 4.901e-3
-1.745, 4.842e-3
-1.744, 4.782e-3
-1.743, 4.718e-3
-1.742, 4.655e-3
-1.741, 4.605e-3
-1.740, 4.557e-3
-1.739, 4.496e-3
-1.738, 4.440e-3
-1.737, 4.389e-3
-1.736, 4.326e-3
-1.735, 4.281e-3
-1.734, 4.247e-3
-1.733, 4.187e-3
-1.732, 4.138e-3
-1.731, 4.105e-3
-1.730, 4.065e-3
-1.729, 4.008e-3
-1.728, 3.957e-3
-1.727, 3.922e-3
-1.726, 3.878e-3
-1.725, 3.839e-3
-1.724, 3.785e-3
-1.723, 3.795e-3
-1.722, 3.777e-3
-1.721, 3.722e-3
-1.720, 3.681e-3
-1.719, 3.630e-3
-1.718, 3.583e-3
-1.717, 3.542e-3
-1.716, 3.493e-3
-1.715, 3.438e-3
-1.714, 3.414e-3
-1.713, 3.347e-3
-1.712, 3.304e-3
-1.711, 3.274e-3
-1.710, 3.239e-3
-1.709, 3.194e-3
-1.708, 3.163e-3
-1.707, 3.123e-3
-1.706, 3.092e-3
-1.705, 3.055e-3
-1.704, 3.009e-3
-1.703, 2.970e-3
-1.702, 2.936e-3
-1.701, 2.895e-3
-1.700, 2.868e-3
-1.699, 2.826e-3
-1.698, 2.824e-3
-1.697, 2.795e-3
-1.696, 2.761e-3
-1.695, 2.719e-3
-1.694, 2.684e-3
-1.693, 2.655e-3
-1.692, 2.621e-3
-1.691, 2.587e-3
-1.690, 2.554e-3
-1.689, 2.522e-3
-1.688, 2.497e-3
-1.687, 2.467e-3
-1.686, 2.432e-3
-1.685, 2.412e-3
-1.684, 2.380e-3
-1.683, 2.348e-3
-1.682, 2.322e-3
-1.681, 2.295e-3
-1.680, 2.268e-3
-1.679, 2.241e-3
-1.678, 2.240e-3
-1.677, 2.209e-3
-1.676, 2.183e-3
-1.675, 2.159e-3
-1.674, 2.132e-3
-1.673, 2.107e-3
-1.672, 2.084e-3
-1.671, 2.061e-3
-1.670, 2.019e-3
-1.669, 2.026e-3
-1.668, 2.001e-3
-1.667, 1.973e-3
-1.666, 1.953e-3
-1.665, 1.931e-3
-1.664, 1.906e-3
-1.663, 1.883e-3
-1.662, 1.862e-3
-1.661, 1.839e-3
-1.660, 1.817e-3
-1.659, 1.800e-3
-1.658, 1.780e-3
-1.657, 1.760e-3
-1.656, 1.743e-3
-1.655, 1.720e-3
-1.654, 1.698e-3
-1.653, 1.681e-3
-1.652, 1.664e-3
-1.651, 1.650e-3
-1.650, 1.623e-3
-1.649, 1.590e-3
-1.648, 1.568e-3
-1.647, 1.556e-3
-1.646, 1.535e-3
-1.645, 1.519e-3
-1.644, 1.499e-3
-1.643, 1.484e-3
-1.642, 1.470e-3
-1.641, 1.455e-3
-1.640, 1.441e-3
-1.639, 1.425e-3
-1.638, 1.408e-3
-1.637, 1.394e-3
-1.636, 1.379e-3
-1.635, 1.364e-3
-1.634, 1.348e-3
-1.633, 1.335e-3
-1.632, 1.321e-3
-1.631, 1.308e-3
-1.630, 1.293e-3
-1.629, 1.279e-3
-1.628, 1.265e-3
-1.627, 1.254e-3
-1.626, 1.241e-3
-1.625, 1.225e-3
-1.624, 1.212e-3
-1.623, 1.198e-3
-1.622, 1.194e-3
-1.621, 1.180e-3
-1.620, 1.166e-3
-1.619, 1.150e-3
-1.618, 1.140e-3
-1.617, 1.128e-3
-1.616, 1.116e-3
-1.615, 1.107e-3
-1.614, 1.095e-3
-1.613, 1.081e-3
-1.612, 1.100e-3
-1.611, 1.078e-3
-1.610, 1.074e-3
-1.609, 1.059e-3
-1.608, 1.047e-3
-1.607, 1.040e-3
-1.606, 1.030e-3
-1.605, 1.020e-3
-1.604, 1.008e-3
-1.603, 9.990e-4
-1.602, 9.892e-4
-1.601, 9.795e-4
-1.600, 9.683e-4
-1.599, 9.589e-4
-1.598, 9.490e-4
-1.597, 9.402e-4
-1.596, 9.327e-4
-1.595, 9.219e-4
-1.594, 9.108e-4
-1.593, 9.014e-4
-1.592, 8.944e-4
-1.591, 8.853e-4
-1.590, 8.758e-4
-1.589, 8.665e-4
-1.588, 8.567e-4
-1.587, 8.494e-4
-1.586, 8.425e-4
-1.585, 8.314e-4
-1.584, 8.257e-4
-1.583, 8.152e-4
-1.582, 8.088e-4
-1.581, 8.018e-4
-1.580, 7.964e-4
-1.579, 7.863e-4
-1.578, 7.758e-4
-1.577, 7.714e-4
-1.576, 7.635e-4
-1.575, 7.571e-4
-1.574, 7.462e-4
-1.573, 7.396e-4
-1.572, 7.330e-4
-1.571, 7.257e-4
-1.570, 7.185e-4
-1.569, 7.096e-4
-1.568, 7.034e-4
-1.567, 6.970e-4
-1.566, 6.909e-4
-1.565, 6.838e-4
-1.564, 6.754e-4
-1.563, 6.686e-4
-1.562, 6.631e-4
-1.561, 6.573e-4
-1.560, 6.499e-4
-1.559, 6.420e-4
-1.558, 6.357e-4
-1.557, 6.301e-4
-1.556, 6.252e-4
-1.555, 6.172e-4
-1.554, 6.099e-4
-1.553, 6.037e-4
-1.552, 5.992e-4
-1.551, 5.937e-4
-1.550, 5.869e-4
-1.549, 5.798e-4
-1.548, 5.742e-4
-1.547, 5.693e-4
-1.546, 5.647e-4
-1.545, 5.578e-4
-1.544, 5.498e-4
-1.543, 5.475e-4
-1.542, 5.398e-4
-1.541, 5.357e-4
-1.540, 5.304e-4
-1.539, 5.240e-4
-1.538, 5.173e-4
-1.537, 5.136e-4
-1.536, 5.087e-4
-1.535, 5.025e-4
-1.534, 4.963e-4
-1.533, 4.909e-4
-1.532, 4.867e-4
-1.531, 4.832e-4
-1.530, 4.769e-4
-1.529, 4.709e-4
-1.528, 4.654e-4
-1.527, 4.621e-4
-1.526, 4.585e-4
-1.525, 4.530e-4
-1.524, 4.466e-4
-1.523, 4.414e-4
-1.522, 4.383e-4
-1.521, 4.344e-4
-1.520, 4.287e-4
-1.519, 4.228e-4
-1.518, 4.184e-4
-1.517, 4.151e-4
-1.516, 4.126e-4
-1.515, 4.074e-4
-1.514, 3.998e-4
-1.513, 3.990e-4
-1.512, 3.908e-4
-1.511, 3.912e-4
-1.510, 3.844e-4
-1.509, 3.786e-4
-1.508, 3.746e-4
-1.507, 3.721e-4
-1.506, 3.685e-4
-1.505, 3.642e-4
-1.504, 3.582e-4
-1.503, 3.541e-4
-1.502, 3.509e-4
-1.501, 3.483e-4
-1.500, 3.439e-4
-1.499, 3.381e-4
-1.498, 3.351e-4
-1.497, 3.319e-4
-1.496, 3.291e-4
-1.495, 3.242e-4
-1.494, 3.191e-4
-1.493, 3.154e-4
-1.492, 3.129e-4
-1.491, 3.100e-4
-1.490, 3.058e-4
-1.489, 3.002e-4
-1.488, 2.976e-4
-1.487, 2.926e-4
-1.486, 2.895e-4
-1.485, 2.824e-4
-1.484, 2.779e-4
-1.483, 2.743e-4
-1.482, 2.835e-4
-1.481, 2.768e-4
-1.480, 2.704e-4
-1.479, 2.654e-4
-1.478, 2.633e-4
-1.477, 2.595e-4
-1.476, 2.586e-4
-1.475, 2.539e-4
-1.474, 2.498e-4
-1.473, 2.458e-4
-1.472, 2.448e-4
-1.471, 2.421e-4
-1.470, 2.389e-4
-1.469, 2.347e-4
-1.468, 2.308e-4
-1.467, 2.293e-4
-1.466, 2.273e-4
-1.465, 2.231e-4
-1.464, 2.195e-4
-1.463, 2.162e-4
-1.462, 2.146e-4
-1.461, 2.125e-4
-1.460, 2.096e-4
-1.459, 2.047e-4
-1.458, 2.024e-4
-1.457, 2.004e-4
-1.456, 1.993e-4
-1.455, 1.953e-4
-1.454, 1.915e-4
-1.453, 1.885e-4
-1.452, 1.871e-4
-1.451, 1.858e-4
-1.450, 1.825e-4
-1.449, 1.784e-4
-1.448, 1.758e-4
-1.447, 1.743e-4
-1.446, 1.732e-4
-1.445, 1.696e-4
-1.444, 1.665e-4
-1.443, 1.639e-4
-1.442, 1.626e-4
-1.441, 1.606e-4
-1.440, 1.579e-4
-1.439, 1.546e-4
-1.438, 1.518e-4
-1.437, 1.515e-4
-1.436, 1.497e-4
-1.435, 1.463e-4
-1.434, 1.430e-4
-1.433, 1.408e-4
-1.432, 1.398e-4
-1.431, 1.387e-4
-1.430, 1.359e-4
-1.429, 1.325e-4
-1.428, 1.302e-4
-1.427, 1.295e-4
-1.426, 1.285e-4
-1.425, 1.258e-4
-1.424, 1.225e-4
-1.423, 1.200e-4
-1.422, 1.200e-4
-1.421, 1.190e-4
-1.420, 1.162e-4
-1.419, 1.125e-4
-1.418, 1.110e-4
-1.417, 1.101e-4
-1.416, 1.095e-4
-1.415, 1.070e-4
-1.414, 1.039e-4
-1.413, 1.020e-4
-1.412, 1.011e-4
-1.411, 1.008e-4
-1.410, 9.814e-5
-1.409, 9.511e-5
-1.408, 9.358e-5
-1.407, 9.251e-5
-1.406, 9.270e-5
-1.405, 9.063e-5
-1.404, 8.729e-5
-1.403, 8.492e-5
-1.402, 8.540e-5
-1.401, 8.454e-5
-1.400, 8.253e-5
-1.399, 7.937e-5
-1.398, 7.769e-5
-1.397, 7.758e-5
-1.396, 7.715e-5
-1.395, 7.500e-5
-1.394, 7.226e-5
-1.393, 7.061e-5
-1.392, 7.061e-5
-1.391, 7.024e-5
-1.390, 6.822e-5
-1.389, 6.533e-5
-1.388, 6.404e-5
-1.387, 6.434e-5
-1.386, 6.402e-5
-1.385, 6.165e-5
-1.384, 5.895e-5
-1.383, 5.786e-5
-1.382, 5.773e-5
-1.381, 5.753e-5
-1.380, 5.571e-5
-1.379, 5.322e-5
-1.378, 5.187e-5
-1.377, 5.195e-5
-1.376, 5.189e-5
-1.375, 5.019e-5
-1.374, 4.747e-5
-1.373, 4.644e-5
-1.372, 4.654e-5
-1.371, 4.646e-5
-1.370, 4.484e-5
-1.369, 4.234e-5
-1.368, 4.124e-5
-1.367, 4.145e-5
-1.366, 4.148e-5
-1.365, 3.993e-5
-1.364, 3.761e-5
-1.363, 3.634e-5
-1.362, 3.684e-5
-1.361, 3.679e-5
-1.360, 3.533e-5
-1.359, 3.313e-5
-1.358, 3.192e-5
-1.357, 3.242e-5
-1.356, 3.257e-5
-1.355, 3.102e-5
-1.354, 2.892e-5
-1.353, 2.787e-5
-1.352, 2.836e-5
-1.351, 2.857e-5
-1.350, 2.702e-5
-1.349, 2.513e-5
-1.348, 2.407e-5
-1.347, 2.459e-5
-1.346, 2.533e-5
-1.345, 2.345e-5
-1.344, 2.144e-5
-1.343, 2.059e-5
-1.342, 2.106e-5
-1.341, 2.156e-5
-1.340, 2.018e-5
-1.339, 1.814e-5
-1.338, 1.730e-5
-1.337, 1.785e-5
-1.336, 1.831e-5
-1.335, 1.714e-5
-1.334, 1.500e-5
-1.333, 1.428e-5
-1.332, 1.498e-5
-1.331, 1.535e-5
-1.330, 1.426e-5
-1.329, 1.223e-5
-1.328, 1.157e-5
-1.327, 1.221e-5
-1.326, 1.265e-5
-1.325, 1.161e-5
-1.324, 9.694e-6
-1.323, 8.974e-6
-1.322, 9.723e-6
-1.321, 1.022e-5
-1.320, 9.195e-6
-1.319, 7.302e-6
-1.318, 6.598e-6
-1.317, 7.412e-6
-1.316, 8.084e-6
-1.315, 6.838e-6
-1.314, 5.174e-6
-1.313, 4.462e-6
-1.312, 5.387e-6
-1.311, 5.944e-6
-1.310, 4.866e-6
-1.309, 3.187e-6
-1.308, 2.646e-6
-1.307, 3.365e-6
-1.306, 4.128e-6
-1.305, 3.039e-6
-1.304, 1.339e-6
-1.303, 8.749e-7
-1.302, 1.654e-6
-1.301, 2.379e-6
-1.300, 1.528e-6
-1.299, -3.277e-7
-1.298, -7.224e-7
-1.297, 6.886e-8
-1.296, 8.700e-7
-1.295, 1.164e-8
-1.294, -1.796e-6
-1.293, -2.238e-6
-1.292, -1.196e-6
-1.291, -5.971e-7
-1.290, -1.473e-6
-1.289, -3.102e-6
-1.288, -3.490e-6
-1.287, -2.595e-6
-1.286, -1.910e-6
-1.285, -2.642e-6
-1.284, -4.340e-6
-1.283, -4.818e-6
-1.282, -3.767e-6
-1.281, -3.023e-6
-1.280, -3.882e-6
-1.279, -5.418e-6
-1.278, -5.962e-6
-1.277, -4.855e-6
-1.276, -4.033e-6
-1.275, -4.856e-6
-1.274, -6.415e-6
-1.273, -6.894e-6
-1.272, -5.760e-6
-1.271, -4.897e-6
-1.270, -5.813e-6
-1.269, -7.324e-6
-1.268, -7.676e-6
-1.267, -6.803e-6
-1.266, -5.829e-6
-1.265, -6.667e-6
-1.264, -8.157e-6
-1.263, -8.498e-6
-1.262, -7.607e-6
-1.261, -6.560e-6
-1.260, -7.321e-6
-1.259, -9.020e-6
-1.258, -9.269e-6
-1.257, -8.252e-6
-1.256, -7.260e-6
-1.255, -8.026e-6
-1.254, -9.682e-6
-1.253, -9.952e-6
-1.252, -8.876e-6
-1.251, -7.926e-6
-1.250, -8.588e-6
-1.249, -1.031e-5
-1.248, -1.044e-5
-1.247, -9.405e-6
-1.246, -8.563e-6
-1.245, -9.125e-6
-1.244, -1.074e-5
-1.243, -1.116e-5
-1.242, -9.919e-6
-1.241, -9.075e-6
-1.240, -9.668e-6
-1.239, -1.127e-5
-1.238, -1.155e-5
-1.237, -1.038e-5
-1.236, -9.389e-6
-1.235, -1.028e-5
-1.234, -1.171e-5
-1.233, -1.199e-5
-1.232, -1.084e-5
-1.231, -9.842e-6
-1.230, -1.067e-5
-1.229, -1.233e-5
-1.228, -1.242e-5
-1.227, -1.130e-5
-1.226, -1.029e-5
-1.225, -1.101e-5
-1.224, -1.247e-5
-1.223, -1.266e-5
-1.222, -1.176e-5
-1.221, -1.077e-5
-1.220, -1.138e-5
-1.219, -1.297e-5
-1.218, -1.307e-5
-1.217, -1.206e-5
-1.216, -1.102e-5
-1.215, -1.162e-5
-1.214, -1.331e-5
-1.213, -1.339e-5
-1.212, -1.222e-5
-1.211, -1.142e-5
-1.210, -1.189e-5
-1.209, -1.352e-5
-1.208, -1.373e-5
-1.207, -1.255e-5
-1.206, -1.171e-5
-1.205, -1.217e-5
-1.204, -1.382e-5
-1.203, -1.406e-5
-1.202, -1.287e-5
-1.201, -1.192e-5
-1.200, -1.245e-5
-1.199, -1.397e-5
-1.198, -1.432e-5
-1.197, -1.310e-5
-1.196, -1.212e-5
-1.195, -1.282e-5
-1.194, -1.432e-5
-1.193, -1.451e-5
-1.192, -1.336e-5
-1.191, -1.240e-5
-1.190, -1.302e-5
-1.189, -1.452e-5
-1.188, -1.470e-5
-1.187, -1.367e-5
-1.186, -1.257e-5
-1.185, -1.331e-5
-1.184, -1.479e-5
-1.183, -1.489e-5
-1.182, -1.399e-5
-1.181, -1.280e-5
-1.180, -1.344e-5
-1.179, -1.499e-5
-1.178, -1.539e-5
-1.177, -1.416e-5
-1.176, -1.310e-5
-1.175, -1.373e-5
-1.174, -1.534e-5
-1.173, -1.592e-5
-1.172, -1.438e-5
-1.171, -1.340e-5
-1.170, -1.399e-5
-1.169, -1.562e-5
-1.168, -1.569e-5
-1.167, -1.462e-5
-1.166, -1.368e-5
-1.165, -1.419e-5
-1.164, -1.584e-5
-1.163, -1.632e-5
-1.162, -1.500e-5
-1.161, -1.395e-5
-1.160, -1.447e-5
-1.159, -1.593e-5
-1.158, -1.685e-5
-1.157, -1.543e-5
-1.156, -1.415e-5
-1.155, -1.501e-5
-1.154, -1.651e-5
-1.153, -1.666e-5
-1.152, -1.527e-5
-1.151, -1.431e-5
-1.150, -1.517e-5
-1.149, -1.673e-5
-1.148, -1.687e-5
-1.147, -1.561e-5
-1.146, -1.457e-5
-1.145, -1.542e-5
-1.144, -1.711e-5
-1.143, -1.712e-5
-1.142, -1.590e-5
-1.141, -1.481e-5
-1.140, -1.568e-5
-1.139, -1.751e-5
-1.138, -1.744e-5
-1.137, -1.627e-5
-1.136, -1.522e-5
-1.135, -1.603e-5
-1.134, -1.787e-5
-1.133, -1.783e-5
-1.132, -1.660e-5
-1.131, -1.567e-5
-1.130, -1.645e-5
-1.129, -1.821e-5
-1.128, -1.822e-5
-1.127, -1.699e-5
-1.126, -1.605e-5
-1.125, -1.685e-5
-1.124, -1.860e-5
-1.123, -1.872e-5
-1.122, -1.747e-5
-1.121, -1.651e-5
-1.120, -1.727e-5
-1.119, -1.897e-5
-1.118, -1.921e-5
-1.117, -1.776e-5
-1.116, -1.694e-5
-1.115, -1.787e-5
-1.114, -1.958e-5
-1.113, -1.967e-5
-1.112, -1.835e-5
-1.111, -1.730e-5
-1.110, -1.837e-5
-1.109, -1.999e-5
-1.108, -2.012e-5
-1.107, -1.900e-5
-1.106, -1.790e-5
-1.105, -1.895e-5
-1.104, -2.053e-5
-1.103, -2.075e-5
-1.102, -1.953e-5
-1.101, -1.849e-5
-1.100, -1.949e-5
-1.099, -2.128e-5
-1.098, -2.135e-5
-1.097, -2.012e-5
-1.096, -1.913e-5
-1.095, -2.007e-5
-1.094, -2.196e-5
-1.093, -2.199e-5
-1.092, -2.080e-5
-1.091, -1.988e-5
-1.090, -2.078e-5
-1.089, -2.262e-5
-1.088, -2.266e-5
-1.087, -2.145e-5
-1.086, -2.068e-5
-1.085, -2.147e-5
-1.084, -2.329e-5
-1.083, -2.347e-5
-1.082, -2.242e-5
-1.081, -2.125e-5
-1.080, -2.230e-5
-1.079, -2.406e-5
-1.078, -2.433e-5
-1.077, -2.313e-5
-1.076, -2.222e-5
-1.075, -2.324e-5
-1.074, -2.504e-5
-1.073, -2.524e-5
-1.072, -2.397e-5
-1.071, -2.304e-5
-1.070, -2.411e-5
-1.069, -2.587e-5
-1.068, -2.614e-5
-1.067, -2.495e-5
-1.066, -2.406e-5
-1.065, -2.511e-5
-1.064, -2.683e-5
-1.063, -2.707e-5
-1.062, -2.603e-5
-1.061, -2.506e-5
-1.060, -2.620e-5
-1.059, -2.809e-5
-1.058, -2.827e-5
-1.057, -2.706e-5
-1.056, -2.619e-5
-1.055, -2.722e-5
-1.054, -2.922e-5
-1.053, -2.952e-5
-1.052, -2.828e-5
-1.051, -2.754e-5
-1.050, -2.849e-5
-1.049, -3.054e-5
-1.048, -3.089e-5
-1.047, -2.979e-5
-1.046, -2.901e-5
-1.045, -3.003e-5
-1.044, -3.203e-5
-1.043, -3.260e-5
-1.042, -3.134e-5
-1.041, -3.103e-5
-1.040, -3.194e-5
-1.039, -3.390e-5
-1.038, -3.470e-5
-1.037, -3.347e-5
-1.036, -3.288e-5
-1.035, -3.412e-5
-1.034, -3.625e-5
-1.033, -3.693e-5
-1.032, -3.588e-5
-1.031, -3.536e-5
-1.030, -3.674e-5
-1.029, -3.882e-5
-1.028, -3.962e-5
-1.027, -3.876e-5
-1.026, -3.822e-5
-1.025, -3.964e-5
-1.024, -4.199e-5
-1.023, -4.269e-5
-1.022, -4.201e-5
-1.021, -4.137e-5
-1.020, -4.284e-5
-1.019, -4.518e-5
-1.018, -4.585e-5
-1.017, -4.526e-5
-1.016, -4.457e-5
-1.015, -4.616e-5
-1.014, -4.836e-5
-1.013, -4.937e-5
-1.012, -4.824e-5
-1.011, -4.815e-5
-1.010, -4.915e-5
-1.009, -5.180e-5
-1.008, -5.241e-5
-1.007, -5.178e-5
-1.006, -5.116e-5
-1.005, -5.260e-5
-1.004, -5.491e-5
-1.003, -5.583e-5
-1.002, -5.491e-5
-1.001, -5.445e-5
-1.000, -3.697e-5
-1.001, -3.084e-5
-1.002, -2.765e-5
-1.003, -2.369e-5
-1.004, -2.009e-5
-1.005, -1.883e-5
-1.006, -1.878e-5
-1.007, -1.709e-5
-1.008, -1.429e-5
-1.009, -1.162e-5
-1.010, -1.098e-5
-1.011, -1.157e-5
-1.012, -1.049e-5
-1.013, -7.997e-6
-1.014, -5.799e-6
-1.015, -6.052e-6
-1.016, -6.583e-6
-1.017, -5.873e-6
-1.018, -3.590e-6
-1.019, -1.707e-6
-1.020, -1.807e-6
-1.021, -2.798e-6
-1.022, -2.305e-6
-1.023, -1.610e-7
-1.024, 1.565e-6
-1.025, 1.052e-6
-1.026, 8.564e-8
-1.027, 3.737e-7
-1.028, 2.304e-6
-1.029, 3.814e-6
-1.030, 3.431e-6
-1.031, 2.298e-6
-1.032, 2.430e-6
-1.033, 4.276e-6
-1.034, 5.837e-6
-1.035, 5.144e-6
-1.036, 3.955e-6
-1.037, 4.217e-6
-1.038, 5.853e-6
-1.039, 7.426e-6
-1.040, 6.620e-6
-1.041, 5.297e-6
-1.042, 5.589e-6
-1.043, 7.179e-6
-1.044, 8.596e-6
-1.045, 7.847e-6
-1.046, 6.501e-6
-1.047, 6.688e-6
-1.048, 8.215e-6
-1.049, 9.526e-6
-1.050, 8.855e-6
-1.051, 7.392e-6
-1.052, 7.544e-6
-1.053, 9.246e-6
-1.054, 1.032e-5
-1.055, 9.670e-6
-1.056, 8.149e-6
-1.057, 8.321e-6
-1.058, 9.966e-6
-1.059, 1.103e-5
-1.060, 1.030e-5
-1.061, 8.867e-6
-1.062, 8.931e-6
-1.063, 1.060e-5
-1.064, 1.165e-5
-1.065, 1.080e-5
-1.066, 9.463e-6
-1.067, 9.470e-6
-1.068, 1.107e-5
-1.069, 1.228e-5
-1.070, 1.135e-5
-1.071, 9.914e-6
-1.072, 1.000e-5
-1.073, 1.148e-5
-1.074, 1.274e-5
-1.075, 1.189e-5
-1.076, 1.033e-5
-1.077, 1.042e-5
-1.078, 1.192e-5
-1.079, 1.316e-5
-1.080, 1.208e-5
-1.081, 1.075e-5
-1.082, 1.083e-5
-1.083, 1.234e-5
-1.084, 1.342e-5
-1.085, 1.251e-5
-1.086, 1.102e-5
-1.087, 1.117e-5
-1.088, 1.264e-5
-1.089, 1.376e-5
-1.090, 1.292e-5
-1.091, 1.134e-5
-1.092, 1.152e-5
-1.093, 1.299e-5
-1.094, 1.401e-5
-1.095, 1.323e-5
-1.096, 1.171e-5
-1.097, 1.173e-5
-1.098, 1.332e-5
-1.099, 1.434e-5
-1.100, 1.345e-5
-1.101, 1.203e-5
-1.102, 1.206e-5
-1.103, 1.364e-5
-1.104, 1.461e-5
-1.105, 1.364e-5
-1.106, 1.235e-5
-1.107, 1.229e-5
-1.108, 1.391e-5
-1.109, 1.486e-5
-1.110, 1.392e-5
-1.111, 1.254e-5
-1.112, 1.263e-5
-1.113, 1.406e-5
-1.114, 1.515e-5
-1.115, 1.417e-5
-1.116, 1.277e-5
-1.117, 1.289e-5
-1.118, 1.425e-5
-1.119, 1.548e-5
-1.120, 1.439e-5
-1.121, 1.299e-5
-1.122, 1.320e-5
-1.123, 1.454e-5
-1.124, 1.561e-5
-1.125, 1.468e-5
-1.126, 1.327e-5
-1.127, 1.343e-5
-1.128, 1.479e-5
-1.129, 1.586e-5
-1.130, 1.500e-5
-1.131, 1.348e-5
-1.132, 1.360e-5
-1.133, 1.512e-5
-1.134, 1.601e-5
-1.135, 1.522e-5
-1.136, 1.370e-5
-1.137, 1.378e-5
-1.138, 1.541e-5
-1.139, 1.633e-5
-1.140, 1.534e-5
-1.141, 1.401e-5
-1.142, 1.405e-5
-1.143, 1.562e-5
-1.144, 1.649e-5
-1.145, 1.556e-5
-1.146, 1.423e-5
-1.147, 1.426e-5
-1.148, 1.584e-5
-1.149, 1.675e-5
-1.150, 1.572e-5
-1.151, 1.446e-5
-1.152, 1.450e-5
-1.153, 1.600e-5
-1.154, 1.707e-5
-1.155, 1.598e-5
-1.156, 1.455e-5
-1.157, 1.476e-5
-1.158, 1.614e-5
-1.159, 1.731e-5
-1.160, 1.614e-5
-1.161, 1.472e-5
-1.162, 1.495e-5
-1.163, 1.640e-5
-1.164, 1.750e-5
-1.165, 1.633e-5
-1.166, 1.493e-5
-1.167, 1.521e-5
-1.168, 1.660e-5
-1.169, 1.747e-5
-1.170, 1.652e-5
-1.171, 1.505e-5
-1.172, 1.540e-5
-1.173, 1.684e-5
-1.174, 1.773e-5
-1.175, 1.684e-5
-1.176, 1.526e-5
-1.177, 1.554e-5
-1.178, 1.698e-5
-1.179, 1.784e-5
-1.180, 1.688e-5
-1.181, 1.547e-5
-1.182, 1.557e-5
-1.183, 1.715e-5
-1.184, 1.798e-5
-1.185, 1.690e-5
-1.186, 1.566e-5
-1.187, 1.570e-5
-1.188, 1.725e-5
-1.189, 1.813e-5
-1.190, 1.707e-5
-1.191, 1.572e-5
-1.192, 1.588e-5
-1.193, 1.733e-5
-1.194, 1.835e-5
-1.195, 1.713e-5
-1.196, 1.573e-5
-1.197, 1.602e-5
-1.198, 1.743e-5
-1.199, 1.839e-5
-1.200, 1.731e-5
-1.201, 1.577e-5
-1.202, 1.616e-5
-1.203, 1.756e-5
-1.204, 1.847e-5
-1.205, 1.734e-5
-1.206, 1.595e-5
-1.207, 1.624e-5
-1.208, 1.772e-5
-1.209, 1.854e-5
-1.210, 1.752e-5
-1.211, 1.606e-5
-1.212, 1.631e-5
-1.213, 1.779e-5
-1.214, 1.875e-5
-1.215, 1.755e-5
-1.216, 1.620e-5
-1.217, 1.642e-5
-1.218, 1.801e-5
-1.219, 1.882e-5
-1.220, 1.770e-5
-1.221, 1.636e-5
-1.222, 1.657e-5
-1.223, 1.815e-5
-1.224, 1.901e-5
-1.225, 1.785e-5
-1.226, 1.666e-5
-1.227, 1.685e-5
-1.228, 1.853e-5
-1.229, 1.937e-5
-1.230, 1.800e-5
-1.231, 1.681e-5
-1.232, 1.698e-5
-1.233, 1.854e-5
-1.234, 1.952e-5
-1.235, 1.820e-5
-1.236, 1.697e-5
-1.237, 1.729e-5
-1.238, 1.878e-5
-1.239, 1.971e-5
-1.240, 1.857e-5
-1.241, 1.720e-5
-1.242, 1.759e-5
-1.243, 1.902e-5
-1.244, 2.006e-5
-1.245, 1.883e-5
-1.246, 1.765e-5
-1.247, 1.791e-5
-1.248, 1.950e-5
-1.249, 2.034e-5
-1.250, 1.926e-5
-1.251, 1.789e-5
-1.252, 1.838e-5
-1.253, 1.989e-5
-1.254, 2.081e-5
-1.255, 1.975e-5
-1.256, 1.839e-5
-1.257, 1.873e-5
-1.258, 2.041e-5
-1.259, 2.128e-5
-1.260, 2.014e-5
-1.261, 1.894e-5
-1.262, 1.932e-5
-1.263, 2.100e-5
-1.264, 2.189e-5
-1.265, 2.075e-5
-1.266, 1.957e-5
-1.267, 1.997e-5
-1.268, 2.154e-5
-1.269, 2.249e-5
-1.270, 2.135e-5
-1.271, 2.024e-5
-1.272, 2.056e-5
-1.273, 2.219e-5
-1.274, 2.325e-5
-1.275, 2.217e-5
-1.276, 2.099e-5
-1.277, 2.143e-5
-1.278, 2.301e-5
-1.279, 2.399e-5
-1.280, 2.301e-5
-1.281, 2.172e-5
-1.282, 2.234e-5
-1.283, 2.391e-5
-1.284, 2.494e-5
-1.285, 2.384e-5
-1.286, 2.265e-5
-1.287, 2.330e-5
-1.288, 2.491e-5
-1.289, 2.576e-5
-1.290, 2.488e-5
-1.291, 2.370e-5
-1.292, 2.422e-5
-1.293, 2.604e-5
-1.294, 2.712e-5
-1.295, 2.610e-5
-1.296, 2.490e-5
-1.297, 2.547e-5
-1.298, 2.722e-5
-1.299, 2.836e-5
-1.300, 2.731e-5
-1.301, 2.621e-5
-1.302, 2.687e-5
-1.303, 2.869e-5
-1.304, 2.965e-5
-1.305, 2.862e-5
-1.306, 2.782e-5
-1.307, 2.833e-5
-1.308, 3.013e-5
-1.309, 3.139e-5
-1.310, 3.029e-5
-1.311, 2.942e-5
-1.312, 3.003e-5
-1.313, 3.188e-5
-1.314, 3.309e-5
-1.315, 3.196e-5
-1.316, 3.116e-5
-1.317, 3.196e-5
-1.318, 3.373e-5
-1.319, 3.510e-5
-1.320, 3.394e-5
-1.321, 3.317e-5
-1.322, 3.404e-5
-1.323, 3.584e-5
-1.324, 3.717e-5
-1.325, 3.616e-5
-1.326, 3.554e-5
-1.327, 3.632e-5
-1.328, 3.829e-5
-1.329, 3.945e-5
-1.330, 3.878e-5
-1.331, 3.795e-5
-1.332, 3.885e-5
-1.333, 4.088e-5
-1.334, 4.228e-5
-1.335, 4.149e-5
-1.336, 4.090e-5
-1.337, 4.193e-5
-1.338, 4.448e-5
-1.339, 4.512e-5
-1.340, 4.459e-5
-1.341, 4.386e-5
-1.342, 4.482e-5
-1.343, 4.716e-5
-1.344, 4.824e-5
-1.345, 4.786e-5
-1.346, 4.722e-5
-1.347, 4.836e-5
-1.348, 5.070e-5
-1.349, 5.208e-5
-1.350, 5.148e-5
-1.351, 5.099e-5
-1.352, 5.223e-5
-1.353, 5.443e-5
-1.354, 5.591e-5
-1.355, 5.573e-5
-1.356, 5.518e-5
-1.357, 5.636e-5
-1.358, 5.869e-5
-1.359, 6.056e-5
-1.360, 5.999e-5
-1.361, 5.968e-5
-1.362, 6.119e-5
-1.363, 6.348e-5
-1.364, 6.535e-5
-1.365, 6.497e-5
-1.366, 6.478e-5
-1.367, 6.627e-5
-1.368, 6.875e-5
-1.369, 7.060e-5
-1.370, 7.041e-5
-1.371, 7.037e-5
-1.372, 7.196e-5
-1.373, 7.461e-5
-1.374, 7.661e-5
-1.375, 7.642e-5
-1.376, 7.640e-5
-1.377, 7.822e-5
-1.378, 8.103e-5
-1.379, 8.297e-5
-1.380, 8.304e-5
-1.381, 8.327e-5
-1.382, 8.511e-5
-1.383, 8.807e-5
-1.384, 9.019e-5
-1.385, 9.020e-5
-1.386, 9.072e-5
-1.387, 9.258e-5
-1.388, 9.573e-5
-1.389, 9.804e-5
-1.390, 9.830e-5
-1.391, 9.885e-5
-1.392, 1.008e-4
-1.393, 1.041e-4
-1.394, 1.066e-4
-1.395, 1.069e-4
-1.396, 1.077e-4
-1.397, 1.099e-4
-1.398, 1.133e-4
-1.399, 1.160e-4
-1.400, 1.165e-4
-1.401, 1.173e-4
-1.402, 1.200e-4
-1.403, 1.234e-4
-1.404, 1.263e-4
-1.405, 1.271e-4
-1.406, 1.280e-4
-1.407, 1.308e-4
-1.408, 1.343e-4
-1.409, 1.373e-4
-1.410, 1.385e-4
-1.411, 1.396e-4
-1.412, 1.426e-4
-1.413, 1.464e-4
-1.414, 1.494e-4
-1.415, 1.510e-4
-1.416, 1.517e-4
-1.417, 1.550e-4
-1.418, 1.592e-4
-1.419, 1.627e-4
-1.420, 1.640e-4
-1.421, 1.657e-4
-1.422, 1.692e-4
-1.423, 1.732e-4
-1.424, 1.768e-4
-1.425, 1.781e-4
-1.426, 1.805e-4
-1.427, 1.836e-4
-1.428, 1.883e-4
-1.429, 1.919e-4
-1.430, 1.937e-4
-1.431, 1.961e-4
-1.432, 1.994e-4
-1.433, 2.044e-4
-1.434, 2.082e-4
-1.435, 2.102e-4
-1.436, 2.124e-4
-1.437, 2.163e-4
-1.438, 2.214e-4
-1.439, 2.256e-4
-1.440, 2.276e-4
-1.441, 2.301e-4
-1.442, 2.341e-4
-1.443, 2.393e-4
-1.444, 2.438e-4
-1.445, 2.462e-4
-1.446, 2.491e-4
-1.447, 2.529e-4
-1.448, 2.584e-4
-1.449, 2.627e-4
-1.450, 2.658e-4
-1.451, 2.683e-4
-1.452, 2.736e-4
-1.453, 2.783e-4
-1.454, 2.828e-4
-1.455, 2.852e-4
-1.456, 2.896e-4
-1.457, 2.937e-4
-1.458, 2.996e-4
-1.459, 3.043e-4
-1.460, 3.075e-4
-1.461, 3.107e-4
-1.462, 3.153e-4
-1.463, 3.215e-4
-1.464, 3.262e-4
-1.465, 3.294e-4
-1.466, 3.329e-4
-1.467, 3.381e-4
-1.468, 3.440e-4
-1.469, 3.500e-4
-1.470, 3.529e-4
-1.471, 3.568e-4
-1.472, 3.619e-4
-1.473, 3.685e-4
-1.474, 3.739e-4
-1.475, 3.775e-4
-1.476, 3.812e-4
-1.477, 3.867e-4
-1.478, 3.935e-4
-1.479, 3.971e-4
-1.480, 4.054e-4
-1.481, 4.067e-4
-1.482, 4.122e-4
-1.483, 4.185e-4
-1.484, 4.251e-4
-1.485, 4.295e-4
-1.486, 4.331e-4
-1.487, 4.393e-4
-1.488, 4.455e-4
-1.489, 4.519e-4
-1.490, 4.563e-4
-1.491, 4.597e-4
-1.492, 4.666e-4
-1.493, 4.735e-4
-1.494, 4.797e-4
-1.495, 4.834e-4
-1.496, 4.904e-4
-1.497, 4.976e-4
-1.498, 5.041e-4
-1.499, 5.079e-4
-1.500, 5.150e-4
-1.501, 5.182e-4
-1.502, 5.250e-4
-1.503, 5.347e-4
-1.504, 5.397e-4
-1.505, 5.430e-4
-1.506, 5.482e-4
-1.507, 5.555e-4
-1.508, 5.625e-4
-1.509, 5.705e-4
-1.510, 5.744e-4
-1.511, 5.810e-4
-1.512, 5.866e-4
-1.513, 5.953e-4
-1.514, 6.025e-4
-1.515, 6.073e-4
-1.516, 6.131e-4
-1.517, 6.195e-4
-1.518, 6.287e-4
-1.519, 6.349e-4
-1.520, 6.412e-4
-1.521, 6.455e-4
-1.522, 6.549e-4
-1.523, 6.620e-4
-1.524, 6.706e-4
-1.525, 6.781e-4
-1.526, 6.812e-4
-1.527, 6.902e-4
-1.528, 6.974e-4
-1.529, 7.066e-4
-1.530, 7.116e-4
-1.531, 7.187e-4
-1.532, 7.257e-4
-1.533, 7.351e-4
-1.534, 7.428e-4
-1.535, 7.488e-4
-1.536, 7.560e-4
-1.537, 7.638e-4
-1.538, 7.723e-4
-1.539, 7.814e-4
-1.540, 7.878e-4
-1.541, 7.954e-4
-1.542, 8.026e-4
-1.543, 8.130e-4
-1.544, 8.204e-4
-1.545, 8.280e-4
-1.546, 8.342e-4
-1.547, 8.423e-4
-1.548, 8.536e-4
-1.549, 8.622e-4
-1.550, 8.697e-4
-1.551, 8.758e-4
-1.552, 8.869e-4
-1.553, 8.970e-4
-1.554, 9.026e-4
-1.555, 9.078e-4
-1.556, 9.179e-4
-1.557, 9.270e-4
-1.558, 9.396e-4
-1.559, 9.480e-4
-1.560, 9.551e-4
-1.561, 9.628e-4
-1.562, 9.726e-4
-1.563, 9.824e-4
-1.564, 9.965e-4
-1.565, 9.998e-4
-1.566, 1.009e-3
-1.567, 1.019e-3
-1.568, 1.029e-3
-1.569, 1.040e-3
-1.570, 1.051e-3
-1.571, 1.059e-3
-1.572, 1.067e-3
-1.573, 1.077e-3
-1.574, 1.087e-3
-1.575, 1.096e-3
-1.576, 1.105e-3
-1.577, 1.119e-3
-1.578, 1.125e-3
-1.579, 1.139e-3
-1.580, 1.148e-3
-1.581, 1.158e-3
-1.582, 1.168e-3
-1.583, 1.180e-3
-1.584, 1.192e-3
-1.585, 1.201e-3
-1.586, 1.209e-3
-1.587, 1.221e-3
-1.588, 1.236e-3
-1.589, 1.246e-3
-1.590, 1.258e-3
-1.591, 1.266e-3
-1.592, 1.279e-3
-1.593, 1.288e-3
-1.594, 1.299e-3
-1.595, 1.310e-3
-1.596, 1.320e-3
-1.597, 1.331e-3
-1.598, 1.344e-3
-1.599, 1.361e-3
-1.600, 1.370e-3
-1.601, 1.381e-3
-1.602, 1.391e-3
-1.603, 1.403e-3
-1.604, 1.421e-3
-1.605, 1.430e-3
-1.606, 1.441e-3
-1.607, 1.455e-3
-1.608, 1.470e-3
-1.609, 1.481e-3
-1.610, 1.492e-3
-1.611, 1.504e-3
-1.612, 1.519e-3
-1.613, 1.535e-3
-1.614, 1.547e-3
-1.615, 1.561e-3
-1.616, 1.571e-3
-1.617, 1.584e-3
-1.618, 1.600e-3
-1.619, 1.614e-3
-1.620, 1.627e-3
-1.621, 1.644e-3
-1.622, 1.651e-3
-1.623, 1.669e-3
-1.624, 1.684e-3
-1.625, 1.698e-3
-1.626, 1.722e-3
-1.627, 1.727e-3
-1.628, 1.738e-3
-1.629, 1.760e-3
-1.630, 1.771e-3
-1.631, 1.786e-3
-1.632, 1.804e-3
-1.633, 1.824e-3
-1.634, 1.838e-3
-1.635, 1.853e-3
-1.636, 1.863e-3
-1.637, 1.875e-3
-1.638, 1.897e-3
-1.639, 1.915e-3
-1.640, 1.931e-3
-1.641, 1.949e-3
-1.642, 1.964e-3
-1.643, 1.983e-3
-1.644, 1.996e-3
-1.645, 2.010e-3
-1.646, 2.029e-3
-1.647, 2.042e-3
-1.648, 2.061e-3
-1.649, 2.081e-3
-1.650, 2.104e-3
-1.651, 2.115e-3
-1.652, 2.135e-3
-1.653, 2.147e-3
-1.654, 2.170e-3
-1.655, 2.185e-3
-1.656, 2.203e-3
-1.657, 2.216e-3
-1.658, 2.242e-3
-1.659, 2.252e-3
-1.660, 2.274e-3
-1.661, 2.293e-3
-1.662, 2.316e-3
-1.663, 2.316e-3
-1.664, 2.356e-3
-1.665, 2.382e-3
-1.666, 2.408e-3
-1.667, 2.414e-3
-1.668, 2.454e-3
-1.669, 2.456e-3
-1.670, 2.480e-3
-1.671, 2.481e-3
-1.672, 2.514e-3
-1.673, 2.543e-3
-1.674, 2.568e-3
-1.675, 2.596e-3
-1.676, 2.609e-3
-1.677, 2.631e-3
-1.678, 2.655e-3
-1.679, 2.676e-3
-1.680, 2.708e-3
-1.681, 2.730e-3
-1.682, 2.749e-3
-1.683, 2.784e-3
-1.684, 2.802e-3
-1.685, 2.826e-3
-1.686, 2.848e-3
-1.687, 2.883e-3
-1.688, 2.906e-3
-1.689, 2.937e-3
-1.690, 2.959e-3
-1.691, 2.983e-3
-1.692, 3.005e-3
-1.693, 3.035e-3
-1.694, 3.067e-3
-1.695, 3.093e-3
-1.696, 3.143e-3
-1.697, 3.166e-3
-1.698, 3.198e-3
-1.699, 3.229e-3
-1.700, 3.257e-3
-1.701, 3.283e-3
-1.702, 3.328e-3
-1.703, 3.352e-3
-1.704, 3.376e-3
-1.705, 3.413e-3
-1.706, 3.439e-3
-1.707, 3.480e-3
-1.708, 3.519e-3
-1.709, 3.556e-3
-1.710, 3.628e-3
-1.711, 3.623e-3
-1.712, 3.648e-3
-1.713, 3.691e-3
-1.714, 3.746e-3
-1.715, 3.782e-3
-1.716, 3.832e-3
-1.717, 3.864e-3
-1.718, 3.937e-3
-1.719, 3.966e-3
-1.720, 3.990e-3
-1.721, 4.020e-3
-1.722, 4.065e-3
-1.723, 4.100e-3
-1.724, 4.147e-3
-1.725, 4.180e-3
-1.726, 4.211e-3
-1.727, 4.271e-3
-1.728, 4.315e-3
-1.729, 4.353e-3
-1.730, 4.397e-3
-1.731, 4.428e-3
-1.732, 4.529e-3
-1.733, 4.556e-3
-1.734, 4.589e-3
-1.735, 4.642e-3
-1.736, 4.697e-3
-1.737, 4.730e-3
-1.738, 4.789e-3
-1.739, 4.824e-3
-1.740, 4.852e-3
-1.741, 4.906e-3
-1.742, 4.937e-3
-1.743, 5.030e-3
-1.744, 5.093e-3
-1.745, 5.151e-3
-1.746, 5.193e-3
-1.747, 5.239e-3
-1.748, 5.278e-3
-1.749, 5.329e-3
-1.750, 5.446e-3
-1.751, 5.513e-3
-1.752, 5.562e-3
-1.753, 5.650e-3
-1.754, 5.697e-3
-1.755, 5.754e-3
-1.756, 5.780e-3
-1.757, 5.811e-3
-1.758, 5.853e-3
-1.759, 5.893e-3
-1.760, 5.957e-3
-1.761, 6.052e-3
-1.762, 6.119e-3
-1.763, 6.196e-3
-1.764, 6.234e-3
-1.765, 6.297e-3
-1.766, 6.350e-3
-1.767, 6.424e-3
-1.768, 6.480e-3
-1.769, 6.546e-3
-1.770, 6.560e-3
-1.771, 6.673e-3
-1.772, 6.841e-3
-1.773, 6.902e-3
-1.774, 6.886e-3
-1.775, 6.972e-3
-1.776, 7.088e-3
-1.777, 7.158e-3
-1.778, 7.208e-3
-1.779, 7.247e-3
-1.780, 7.270e-3
-1.781, 7.370e-3
-1.782, 7.474e-3
-1.783, 7.507e-3
-1.784, 7.566e-3
-1.785, 7.627e-3
-1.786, 7.687e-3
-1.787, 7.735e-3
-1.788, 7.748e-3
-1.789, 7.789e-3
-1.790, 7.862e-3
-1.791, 7.974e-3
-1.792, 8.155e-3
-1.793, 8.252e-3
-1.794, 8.279e-3
-1.795, 8.371e-3
-1.796, 8.431e-3
-1.797, 8.441e-3
-1.798, 8.479e-3
-1.799, 8.535e-3
-1.800, 8.525e-3
-1.799, 8.407e-3
-1.798, 8.319e-3
-1.797, 8.235e-3
-1.796, 8.148e-3
-1.795, 8.078e-3
-1.794, 8.047e-3
-1.793, 7.988e-3
-1.792, 7.907e-3
-1.791, 7.793e-3
-1.790, 7.776e-3
-1.789, 7.706e-3
-1.788, 7.631e-3
-1.787, 7.540e-3
-1.786, 7.409e-3
-1.785, 7.345e-3
-1.784, 7.273e-3
-1.783, 7.190e-3
-1.782, 7.087e-3
-1.781, 7.040e-3
-1.780, 6.981e-3
-1.779, 6.930e-3
-1.778, 6.874e-3
-1.777, 6.827e-3
-1.776, 6.797e-3
-1.775, 6.785e-3
-1.774, 6.726e-3
-1.773, 6.676e-3
-1.772, 6.610e-3
-1.771, 6.579e-3
-1.770, 6.495e-3
-1.769, 6.403e-3
-1.768, 6.347e-3
-1.767, 6.311e-3
-1.766, 6.244e-3
-1.765, 6.138e-3
-1.764, 6.047e-3
-1.763, 6.011e-3
-1.762, 5.969e-3
-1.761, 5.916e-3
-1.760, 5.843e-3
-1.759, 5.760e-3
-1.758, 5.734e-3
-1.757, 5.684e-3
-1.756, 5.551e-3
-1.755, 5.494e-3
-1.754, 5.449e-3
-1.753, 5.380e-3
-1.752, 5.338e-3
-1.751, 5.284e-3
-1.750, 5.179e-3
-1.749, 5.118e-3
-1.748, 5.054e-3
-1.747, 4.987e-3
-1.746, 4.899e-3
-1.745, 4.852e-3
-1.744, 4.789e-3
-1.743, 4.747e-3
-1.742, 4.699e-3
-1.741, 4.653e-3
-1.740, 4.608e-3
-1.739, 4.555e-3
-1.738, 4.531e-3
-1.737, 4.482e-3
-1.736, 4.419e-3
-1.735, 4.368e-3
-1.734, 4.333e-3
-1.733, 4.283e-3
-1.732, 4.221e-3
-1.731, 4.180e-3
-1.730, 4.127e-3
-1.729, 4.070e-3
-1.728, 4.016e-3
-1.727, 4.019e-3
-1.726, 3.998e-3
-1.725, 3.936e-3
-1.724, 3.867e-3
-1.723, 3.809e-3
-1.722, 3.774e-3
-1.721, 3.726e-3
-1.720, 3.681e-3
-1.719, 3.627e-3
-1.718, 3.587e-3
-1.717, 3.525e-3
-1.716, 3.505e-3
-1.715, 3.460e-3
-1.714, 3.406e-3
-1.713, 3.351e-3
-1.712, 3.305e-3
-1.711, 3.262e-3
-1.710, 3.214e-3
-1.709, 3.179e-3
-1.708, 3.180e-3
-1.707, 3.115e-3
-1.706, 3.067e-3
-1.705, 3.020e-3
-1.704, 2.984e-3
-1.703, 2.938e-3
-1.702, 2.900e-3
-1.701, 2.863e-3
-1.700, 2.818e-3
-1.699, 2.781e-3
-1.698, 2.743e-3
-1.697, 2.702e-3
-1.696, 2.670e-3
-1.695, 2.637e-3
-1.694, 2.599e-3
-1.693, 2.564e-3
-1.692, 2.531e-3
-1.691, 2.492e-3
-1.690, 2.460e-3
-1.689, 2.424e-3
-1.688, 2.399e-3
-1.687, 2.368e-3
-1.686, 2.337e-3
-1.685, 2.307e-3
-1.684, 2.271e-3
-1.683, 2.250e-3
-1.682, 2.222e-3
-1.681, 2.185e-3
-1.680, 2.156e-3
-1.679, 2.108e-3
-1.678, 2.089e-3
-1.677, 2.069e-3
-1.676, 2.033e-3
-1.675, 2.007e-3
-1.674, 1.976e-3
-1.673, 1.957e-3
-1.672, 1.935e-3
-1.671, 1.908e-3
-1.670, 1.882e-3
-1.669, 1.855e-3
-1.668, 1.828e-3
-1.667, 1.808e-3
-1.666, 1.787e-3
-1.665, 1.758e-3
-1.664, 1.737e-3
-1.663, 1.716e-3
-1.662, 1.697e-3
-1.661, 1.678e-3
-1.660, 1.653e-3
-1.659, 1.632e-3
-1.658, 1.611e-3
-1.657, 1.589e-3
-1.656, 1.571e-3
-1.655, 1.554e-3
-1.654, 1.533e-3
-1.653, 1.509e-3
-1.652, 1.496e-3
-1.651, 1.484e-3
-1.650, 1.464e-3
-1.649, 1.446e-3
-1.648, 1.428e-3
-1.647, 1.407e-3
-1.646, 1.390e-3
-1.645, 1.369e-3
-1.644, 1.352e-3
-1.643, 1.338e-3
-1.642, 1.324e-3
-1.641, 1.309e-3
-1.640, 1.292e-3
-1.639, 1.275e-3
-1.638, 1.262e-3
-1.637, 1.251e-3
-1.636, 1.235e-3
-1.635, 1.220e-3
-1.634, 1.204e-3
-1.633, 1.191e-3
-1.632, 1.183e-3
-1.631, 1.171e-3
-1.630, 1.159e-3
-1.629, 1.145e-3
-1.628, 1.133e-3
-1.627, 1.120e-3
-1.626, 1.107e-3
-1.625, 1.092e-3
-1.624, 1.083e-3
-1.623, 1.069e-3
-1.622, 1.058e-3
-1.621, 1.047e-3
-1.620, 1.035e-3
-1.619, 1.021e-3
-1.618, 1.014e-3
-1.617, 1.000e-3
-1.616, 9.927e-4
-1.615, 9.757e-4
-1.614, 9.700e-4
-1.613, 9.579e-4
-1.612, 9.489e-4
-1.611, 9.378e-4
-1.610, 9.287e-4
-1.609, 9.165e-4
-1.608, 9.071e-4
-1.607, 8.963e-4
-1.606, 8.915e-4
-1.605, 8.774e-4
-1.604, 8.709e-4
-1.603, 8.585e-4
-1.602, 8.526e-4
-1.601, 8.441e-4
-1.600, 8.343e-4
-1.599, 8.286e-4
-1.598, 8.180e-4
-1.597, 8.100e-4
-1.596, 8.012e-4
-1.595, 7.911e-4
-1.594, 7.822e-4
-1.593, 7.743e-4
-1.592, 7.673e-4
-1.591, 7.584e-4
-1.590, 7.579e-4
-1.589, 7.408e-4
-1.588, 7.366e-4
-1.587, 7.277e-4
-1.586, 7.223e-4
-1.585, 7.126e-4
-1.584, 7.047e-4
-1.583, 6.980e-4
-1.582, 6.926e-4
-1.581, 6.852e-4
-1.580, 6.772e-4
-1.579, 6.693e-4
-1.578, 6.632e-4
-1.577, 6.568e-4
-1.576, 6.515e-4
-1.575, 6.424e-4
-1.574, 6.346e-4
-1.573, 6.297e-4
-1.572, 6.237e-4
-1.571, 6.182e-4
-1.570, 6.102e-4
-1.569, 6.029e-4
-1.568, 5.972e-4
-1.567, 5.938e-4
-1.566, 5.864e-4
-1.565, 5.800e-4
-1.564, 5.725e-4
-1.563, 5.676e-4
-1.562, 5.627e-4
-1.561, 5.574e-4
-1.560, 5.508e-4
-1.559, 5.436e-4
-1.558, 5.384e-4
-1.557, 5.347e-4
-1.556, 5.287e-4
-1.555, 5.226e-4
-1.554, 5.159e-4
-1.553, 5.113e-4
-1.552, 5.076e-4
-1.551, 5.017e-4
-1.550, 4.954e-4
-1.549, 4.889e-4
-1.548, 4.854e-4
-1.547, 4.813e-4
-1.546, 4.765e-4
-1.545, 4.696e-4
-1.544, 4.642e-4
-1.543, 4.599e-4
-1.542, 4.566e-4
-1.541, 4.530e-4
-1.540, 4.457e-4
-1.539, 4.403e-4
-1.538, 4.362e-4
-1.537, 4.343e-4
-1.536, 4.289e-4
-1.535, 4.223e-4
-1.534, 4.179e-4
-1.533, 4.132e-4
-1.532, 4.109e-4
-1.531, 4.063e-4
-1.530, 4.006e-4
-1.529, 3.962e-4
-1.528, 3.906e-4
-1.527, 3.888e-4
-1.526, 3.837e-4
-1.525, 3.798e-4
-1.524, 3.731e-4
-1.523, 3.717e-4
-1.522, 3.687e-4
-1.521, 3.635e-4
-1.520, 3.584e-4
-1.519, 3.535e-4
-1.518, 3.506e-4
-1.517, 3.475e-4
-1.516, 3.443e-4
-1.515, 3.390e-4
-1.514, 3.346e-4
-1.513, 3.315e-4
-1.512, 3.289e-4
-1.511, 3.249e-4
-1.510, 3.200e-4
-1.509, 3.148e-4
-1.508, 3.133e-4
-1.507, 3.102e-4
-1.506, 3.064e-4
-1.505, 3.019e-4
-1.504, 2.977e-4
-1.503, 2.945e-4
-1.502, 2.924e-4
-1.501, 2.890e-4
-1.500, 2.855e-4
-1.499, 2.803e-4
-1.498, 2.773e-4
-1.497, 2.757e-4
-1.496, 2.728e-4
-1.495, 2.678e-4
-1.494, 2.638e-4
-1.493, 2.615e-4
-1.492, 2.596e-4
-1.491, 2.559e-4
-1.490, 2.525e-4
-1.489, 2.474e-4
-1.488, 2.458e-4
-1.487, 2.441e-4
-1.486, 2.402e-4
-1.485, 2.367e-4
-1.484, 2.324e-4
-1.483, 2.317e-4
-1.482, 2.295e-4
-1.481, 2.261e-4
-1.480, 2.219e-4
-1.479, 2.186e-4
-1.478, 2.163e-4
-1.477, 2.151e-4
-1.476, 2.124e-4
-1.475, 2.079e-4
-1.474, 2.046e-4
-1.473, 2.027e-4
-1.472, 2.016e-4
-1.471, 1.988e-4
-1.470, 1.945e-4
-1.469, 1.914e-4
-1.468, 1.896e-4
-1.467, 1.886e-4
-1.466, 1.858e-4
-1.465, 1.821e-4
-1.464, 1.787e-4
-1.463, 1.775e-4
-1.462, 1.759e-4
-1.461, 1.733e-4
-1.460, 1.700e-4
-1.459, 1.671e-4
-1.458, 1.653e-4
-1.457, 1.642e-4
-1.456, 1.616e-4
-1.455, 1.584e-4
-1.454, 1.552e-4
-1.453, 1.540e-4
-1.452, 1.532e-4
-1.451, 1.506e-4
-1.450, 1.471e-4
-1.449, 1.441e-4
-1.448, 1.433e-4
-1.447, 1.418e-4
-1.446, 1.407e-4
-1.445, 1.365e-4
-1.444, 1.341e-4
-1.443, 1.326e-4
-1.442, 1.324e-4
-1.441, 1.299e-4
-1.440, 1.270e-4
-1.439, 1.242e-4
-1.438, 1.230e-4
-1.437, 1.225e-4
-1.436, 1.205e-4
-1.435, 1.173e-4
-1.434, 1.147e-4
-1.433, 1.141e-4
-1.432, 1.134e-4
-1.431, 1.114e-4
-1.430, 1.084e-4
-1.429, 1.058e-4
-1.428, 1.053e-4
-1.427, 1.045e-4
-1.426, 1.029e-4
-1.425, 9.978e-5
-1.424, 9.740e-5
-1.423, 9.702e-5
-1.422, 9.636e-5
-1.421, 9.478e-5
-1.420, 9.168e-5
-1.419, 8.934e-5
-1.418, 8.907e-5
-1.417, 8.885e-5
-1.416, 8.716e-5
-1.415, 8.408e-5
-1.414, 8.138e-5
-1.413, 8.040e-5
-1.412, 8.000e-5
-1.411, 8.215e-5
-1.410, 7.697e-5
-1.409, 7.493e-5
-1.408, 7.461e-5
-1.407, 7.453e-5
-1.406, 7.277e-5
-1.405, 7.020e-5
-1.404, 6.816e-5
-1.403, 6.825e-5
-1.402, 6.787e-5
-1.401, 6.635e-5
-1.400, 6.390e-5
-1.399, 6.156e-5
-1.398, 6.182e-5
-1.397, 6.187e-5
-1.396, 6.060e-5
-1.395, 5.775e-5
-1.394, 5.602e-5
-1.393, 5.592e-5
-1.392, 5.613e-5
-1.391, 5.490e-5
-1.390, 5.230e-5
-1.389, 5.068e-5
-1.388, 5.056e-5
-1.387, 5.075e-5
-1.386, 4.941e-5
-1.385, 4.690e-5
-1.384, 4.551e-5
-1.383, 4.554e-5
-1.382, 4.564e-5
-1.381, 4.443e-5
-1.380, 4.215e-5
-1.379, 4.060e-5
-1.378, 4.080e-5
-1.377, 4.084e-5
-1.376, 4.011e-5
-1.375, 3.766e-5
-1.374, 3.597e-5
-1.373, 3.643e-5
-1.372, 3.668e-5
-1.371, 3.545e-5
-1.370, 3.333e-5
-1.369, 3.176e-5
-1.368, 3.236e-5
-1.367, 3.265e-5
-1.366, 3.130e-5
-1.365, 2.936e-5
-1.364, 2.808e-5
-1.363, 2.834e-5
-1.362, 2.882e-5
-1.361, 2.771e-5
-1.360, 2.563e-5
-1.359, 2.440e-5
-1.358, 2.481e-5
-1.357, 2.530e-5
-1.356, 2.433e-5
-1.355, 2.215e-5
-1.354, 2.104e-5
-1.353, 2.154e-5
-1.352, 2.201e-5
-1.351, 2.115e-5
-1.350, 1.887e-5
-1.349, 1.803e-5
-1.348, 1.858e-5
-1.347, 1.891e-5
-1.346, 1.811e-5
-1.345, 1.610e-5
-1.344, 1.512e-5
-1.343, 1.580e-5
-1.342, 1.619e-5
-1.341, 1.540e-5
-1.340, 1.344e-5
-1.339, 1.237e-5
-1.338, 1.324e-5
-1.337, 1.352e-5
-1.336, 1.293e-5
-1.335, 1.099e-5
-1.334, 9.990e-6
-1.333, 1.071e-5
-1.332, 1.132e-5
-1.331, 1.048e-5
-1.330, 8.621e-6
-1.329, 7.786e-6
-1.328, 8.614e-6
-1.327, 9.186e-6
-1.326, 8.341e-6
-1.325, 6.674e-6
-1.324, 5.826e-6
-1.323, 6.465e-6
-1.322, 7.225e-6
-1.321, 6.454e-6
-1.320, 4.658e-6
-1.319, 3.966e-6
-1.318, 4.619e-6
-1.317, 5.373e-6
-1.316, 4.744e-6
-1.315, 2.864e-6
-1.314, 2.178e-6
-1.313, 2.996e-6
-1.312, 3.849e-6
-1.311, 3.112e-6
-1.310, 1.231e-6
-1.309, 6.618e-7
-1.308, 1.498e-6
-1.307, 2.198e-6
-1.306, 1.569e-6
-1.305, -9.195e-8
-1.304, -7.697e-7
-1.303, 8.366e-8
-1.302, 8.483e-7
-1.301, 2.839e-7
-1.300, -1.444e-6
-1.299, -2.072e-6
-1.298, -1.089e-6
-1.297, -4.797e-7
-1.296, -9.227e-7
-1.295, -2.590e-6
-1.294, -3.253e-6
-1.293, -2.272e-6
-1.292, -1.429e-6
-1.291, -2.154e-6
-1.290, -3.752e-6
-1.289, -4.404e-6
-1.288, -3.244e-6
-1.287, -2.500e-6
-1.286, -3.214e-6
-1.285, -4.670e-6
-1.284, -5.213e-6
-1.283, -4.323e-6
-1.282, -3.343e-6
-1.281, -4.070e-6
-1.280, -5.755e-6
-1.279, -6.160e-6
-1.278, -5.173e-6
-1.277, -4.189e-6
-1.276, -4.830e-6
-1.275, -6.468e-6
-1.274, -6.811e-6
-1.273, -5.936e-6
-1.272, -4.911e-6
-1.271, -5.578e-6
-1.270, -7.266e-6
-1.269, -7.576e-6
-1.268, -6.612e-6
-1.267, -5.752e-6
-1.266, -6.249e-6
-1.265, -7.909e-6
-1.264, -8.240e-6
-1.263, -7.128e-6
-1.262, -6.405e-6
-1.261, -6.841e-6
-1.260, -8.484e-6
-1.259, -8.860e-6
-1.258, -7.771e-6
-1.257, -6.880e-6
-1.256, -7.431e-6
-1.255, -9.009e-6
-1.254, -9.421e-6
-1.253, -8.292e-6
-1.252, -7.266e-6
-1.251, -7.994e-6
-1.250, -9.453e-6
-1.249, -9.847e-6
-1.248, -8.703e-6
-1.247, -7.775e-6
-1.246, -8.484e-6
-1.245, -9.916e-6
-1.244, -1.021e-5
-1.243, -9.254e-6
-1.242, -8.159e-6
-1.241, -8.847e-6
-1.240, -1.032e-5
-1.239, -1.058e-5
-1.238, -9.628e-6
-1.237, -8.513e-6
-1.236, -9.290e-6
-1.235, -1.069e-5
-1.234, -1.092e-5
-1.233, -9.910e-6
-1.232, -8.890e-6
-1.231, -9.567e-6
-1.230, -1.115e-5
-1.229, -1.142e-5
-1.228, -1.028e-5
-1.227, -9.302e-6
-1.226, -9.865e-6
-1.225, -1.138e-5
-1.224, -1.157e-5
-1.223, -1.053e-5
-1.222, -9.556e-6
-1.221, -1.018e-5
-1.220, -1.161e-5
-1.219, -1.192e-5
-1.218, -1.076e-5
-1.217, -9.836e-6
-1.216, -1.045e-5
-1.215, -1.187e-5
-1.214, -1.221e-5
-1.213, -1.100e-5
-1.212, -1.006e-5
-1.211, -1.072e-5
-1.210, -1.219e-5
-1.209, -1.239e-5
-1.208, -1.128e-5
-1.207, -1.033e-5
-1.206, -1.100e-5
-1.205, -1.236e-5
-1.204, -1.253e-5
-1.203, -1.155e-5
-1.202, -1.049e-5
-1.201, -1.120e-5
-1.200, -1.263e-5
-1.199, -1.278e-5
-1.198, -1.179e-5
-1.197, -1.073e-5
-1.196, -1.130e-5
-1.195, -1.288e-5
-1.194, -1.304e-5
-1.193, -1.199e-5
-1.192, -1.088e-5
-1.191, -1.154e-5
-1.190, -1.325e-5
-1.189, -1.317e-5
-1.188, -1.216e-5
-1.187, -1.123e-5
-1.186, -1.185e-5
-1.185, -1.337e-5
-1.184, -1.338e-5
-1.183, -1.235e-5
-1.182, -1.143e-5
-1.181, -1.199e-5
-1.180, -1.355e-5
-1.179, -1.371e-5
-1.178, -1.263e-5
-1.177, -1.167e-5
-1.176, -1.222e-5
-1.175, -1.373e-5
-1.174, -1.388e-5
-1.173, -1.274e-5
-1.172, -1.180e-5
-1.171, -1.256e-5
-1.170, -1.399e-5
-1.169, -1.414e-5
-1.168, -1.296e-5
-1.167, -1.197e-5
-1.166, -1.280e-5
-1.165, -1.416e-5
-1.164, -1.430e-5
-1.163, -1.326e-5
-1.162, -1.224e-5
-1.161, -1.300e-5
-1.160, -1.461e-5
-1.159, -1.471e-5
-1.158, -1.345e-5
-1.157, -1.242e-5
-1.156, -1.325e-5
-1.155, -1.481e-5
-1.154, -1.477e-5
-1.153, -1.372e-5
-1.152, -1.276e-5
-1.151, -1.342e-5
-1.150, -1.505e-5
-1.149, -1.502e-5
-1.148, -1.385e-5
-1.147, -1.308e-5
-1.146, -1.378e-5
-1.145, -1.538e-5
-1.144, -1.529e-5
-1.143, -1.411e-5
-1.142, -1.341e-5
-1.141, -1.408e-5
-1.140, -1.555e-5
-1.139, -1.568e-5
-1.138, -1.446e-5
-1.137, -1.366e-5
-1.136, -1.444e-5
-1.135, -1.592e-5
-1.134, -1.605e-5
-1.133, -1.473e-5
-1.132, -1.393e-5
-1.131, -1.488e-5
-1.130, -1.617e-5
-1.129, -1.646e-5
-1.128, -1.512e-5
-1.127, -1.424e-5
-1.126, -1.527e-5
-1.125, -1.660e-5
-1.124, -1.674e-5
-1.123, -1.627e-5
-1.122, -1.476e-5
-1.121, -1.567e-5
-1.120, -1.708e-5
-1.119, -1.717e-5
-1.118, -1.606e-5
-1.117, -1.513e-5
-1.116, -1.608e-5
-1.115, -1.751e-5
-1.114, -1.758e-5
-1.113, -1.651e-5
-1.112, -1.569e-5
-1.111, -1.654e-5
-1.110, -1.809e-5
-1.109, -1.810e-5
-1.108, -1.686e-5
-1.107, -1.615e-5
-1.106, -1.715e-5
-1.105, -1.846e-5
-1.104, -1.859e-5
-1.103, -1.746e-5
-1.102, -1.673e-5
-1.101, -1.753e-5
-1.100, -1.908e-5
-1.099, -1.918e-5
-1.098, -1.796e-5
-1.097, -1.724e-5
-1.096, -1.806e-5
-1.095, -1.970e-5
-1.094, -1.980e-5
-1.093, -1.864e-5
-1.092, -1.776e-5
-1.091, -1.885e-5
-1.090, -2.024e-5
-1.089, -2.042e-5
-1.088, -1.923e-5
-1.087, -1.845e-5
-1.086, -1.952e-5
-1.085, -2.084e-5
-1.084, -2.107e-5
-1.083, -2.000e-5
-1.082, -1.918e-5
-1.081, -2.025e-5
-1.080, -2.163e-5
-1.079, -2.168e-5
-1.078, -2.072e-5
-1.077, -1.995e-5
-1.076, -2.094e-5
-1.075, -2.253e-5
-1.074, -2.263e-5
-1.073, -2.151e-5
-1.072, -2.071e-5
-1.071, -2.175e-5
-1.070, -2.340e-5
-1.069, -2.339e-5
-1.068, -2.233e-5
-1.067, -2.170e-5
-1.066, -2.260e-5
-1.065, -2.424e-5
-1.064, -2.437e-5
-1.063, -2.330e-5
-1.062, -2.269e-5
-1.061, -2.364e-5
-1.060, -2.517e-5
-1.059, -2.545e-5
-1.058, -2.435e-5
-1.057, -2.361e-5
-1.056, -2.474e-5
-1.055, -2.628e-5
-1.054, -2.664e-5
-1.053, -2.542e-5
-1.052, -2.477e-5
-1.051, -2.625e-5
-1.050, -2.754e-5
-1.049, -2.784e-5
-1.048, -2.677e-5
-1.047, -2.605e-5
-1.046, -2.738e-5
-1.045, -2.885e-5
-1.044, -2.927e-5
-1.043, -2.823e-5
-1.042, -2.764e-5
-1.041, -2.890e-5
-1.040, -3.064e-5
-1.039, -3.097e-5
-1.038, -3.010e-5
-1.037, -2.952e-5
-1.036, -3.079e-5
-1.035, -3.270e-5
-1.034, -3.304e-5
-1.033, -3.224e-5
-1.032, -3.160e-5
-1.031, -3.308e-5
-1.030, -3.514e-5
-1.029, -3.533e-5
-1.028, -3.469e-5
-1.027, -3.437e-5
-1.026, -3.569e-5
-1.025, -3.771e-5
-1.024, -3.835e-5
-1.023, -3.745e-5
-1.022, -3.717e-5
-1.021, -3.853e-5
-1.020, -4.072e-5
-1.019, -4.113e-5
-1.018, -4.042e-5
-1.017, -4.011e-5
-1.016, -4.160e-5
-1.015, -4.359e-5
-1.014, -4.432e-5
-1.013, -4.342e-5
-1.012, -4.314e-5
-1.011, -4.472e-5
-1.010, -4.666e-5
-1.009, -4.723e-5
-1.008, -4.644e-5
-1.007, -4.609e-5
-1.006, -4.779e-5
-1.005, -4.970e-5
-1.004, -5.032e-5
-1.003, -4.973e-5
-1.002, -4.925e-5
-1.001, -5.095e-5
