Apr. 1, 2025   13:55:56
Cyclic Voltammetry
File: c:/users/guazh/data/banditlqround7_x0exp518_r20/2025-03-28-exp1010\exp1010-2025-04-01t13_46_21-arkoh\exp1010_cv_sr_100mvs_efin_-1500mv.bin
Data Source:  Experiment
Instrument Model:  CHI760E
Header: CV ran at 100 mVs
Note: 

Init E (V) = -1
High E (V) = -1
Low E (V) = -1.5
Final E (V) = -1
Init P/N = N
Scan Rate (V/s) = 0.1
Segment = 3
Sample Interval (V) = 0.001
Quiet Time (sec) = 2
Sensitivity (A/V) = 0.01
Comp R (ohm) = 1.7

Results:

Channel 1:
Segment 1:
Ep = -1.294V
ip = 1.237e-3A
Ah = 9.662e-4C

Segment 2:

Segment 3:

Potential/V, Current/A

-1.000, -2.158e-4
-1.001, -1.477e-4
-1.002, -1.039e-4
-1.003, -6.600e-5
-1.004, -3.453e-5
-1.005, -1.041e-5
-1.006, 1.571e-5
-1.007, 3.424e-5
-1.008, 5.453e-5
-1.009, 7.162e-5
-1.010, 8.594e-5
-1.011, 1.033e-4
-1.012, 1.145e-4
-1.013, 1.289e-4
-1.014, 1.418e-4
-1.015, 1.511e-4
-1.016, 1.650e-4
-1.017, 1.730e-4
-1.018, 1.857e-4
-1.019, 1.955e-4
-1.020, 2.026e-4
-1.021, 2.126e-4
-1.022, 2.194e-4
-1.023, 2.291e-4
-1.024, 2.364e-4
-1.025, 2.423e-4
-1.026, 2.516e-4
-1.027, 2.551e-4
-1.028, 2.628e-4
-1.029, 2.679e-4
-1.030, 2.739e-4
-1.031, 2.834e-4
-1.032, 2.857e-4
-1.033, 2.926e-4
-1.034, 2.990e-4
-1.035, 3.016e-4
-1.036, 3.090e-4
-1.037, 3.124e-4
-1.038, 3.195e-4
-1.039, 3.232e-4
-1.040, 3.262e-4
-1.041, 3.336e-4
-1.042, 3.327e-4
-1.043, 3.385e-4
-1.044, 3.432e-4
-1.045, 3.453e-4
-1.046, 3.534e-4
-1.047, 3.532e-4
-1.048, 3.579e-4
-1.049, 3.641e-4
-1.050, 3.667e-4
-1.051, 3.705e-4
-1.052, 3.713e-4
-1.053, 3.794e-4
-1.054, 3.823e-4
-1.055, 3.819e-4
-1.056, 3.897e-4
-1.057, 3.912e-4
-1.058, 3.963e-4
-1.059, 3.988e-4
-1.060, 3.994e-4
-1.061, 4.057e-4
-1.062, 4.079e-4
-1.063, 4.101e-4
-1.064, 4.131e-4
-1.065, 4.168e-4
-1.066, 4.216e-4
-1.067, 4.202e-4
-1.068, 4.277e-4
-1.069, 4.290e-4
-1.070, 4.281e-4
-1.071, 4.333e-4
-1.072, 4.406e-4
-1.073, 4.514e-4
-1.074, 4.522e-4
-1.075, 4.484e-4
-1.076, 4.510e-4
-1.077, 4.539e-4
-1.078, 4.644e-4
-1.079, 4.704e-4
-1.080, 4.722e-4
-1.081, 4.722e-4
-1.082, 4.713e-4
-1.083, 4.814e-4
-1.084, 4.830e-4
-1.085, 4.823e-4
-1.086, 4.894e-4
-1.087, 4.920e-4
-1.088, 4.973e-4
-1.089, 5.027e-4
-1.090, 5.055e-4
-1.091, 5.091e-4
-1.092, 5.104e-4
-1.093, 5.180e-4
-1.094, 5.213e-4
-1.095, 5.226e-4
-1.096, 5.295e-4
-1.097, 5.315e-4
-1.098, 5.364e-4
-1.099, 5.467e-4
-1.100, 5.498e-4
-1.101, 5.499e-4
-1.102, 5.522e-4
-1.103, 5.626e-4
-1.104, 5.578e-4
-1.105, 5.642e-4
-1.106, 5.785e-4
-1.107, 5.738e-4
-1.108, 5.831e-4
-1.109, 5.887e-4
-1.110, 5.916e-4
-1.111, 6.008e-4
-1.112, 6.018e-4
-1.113, 6.086e-4
-1.114, 6.096e-4
-1.115, 6.133e-4
-1.116, 6.213e-4
-1.117, 6.167e-4
-1.118, 6.250e-4
-1.119, 6.374e-4
-1.120, 6.402e-4
-1.121, 6.425e-4
-1.122, 6.426e-4
-1.123, 6.541e-4
-1.124, 6.619e-4
-1.125, 6.625e-4
-1.126, 6.678e-4
-1.127, 6.717e-4
-1.128, 6.813e-4
-1.129, 6.866e-4
-1.130, 6.891e-4
-1.131, 6.973e-4
-1.132, 7.013e-4
-1.133, 7.076e-4
-1.134, 7.101e-4
-1.135, 7.132e-4
-1.136, 7.220e-4
-1.137, 7.234e-4
-1.138, 7.299e-4
-1.139, 7.377e-4
-1.140, 7.402e-4
-1.141, 7.481e-4
-1.142, 7.517e-4
-1.143, 7.591e-4
-1.144, 7.658e-4
-1.145, 7.733e-4
-1.146, 7.780e-4
-1.147, 7.809e-4
-1.148, 7.904e-4
-1.149, 7.972e-4
-1.150, 8.017e-4
-1.151, 8.087e-4
-1.152, 8.148e-4
-1.153, 8.251e-4
-1.154, 8.303e-4
-1.155, 8.313e-4
-1.156, 8.417e-4
-1.157, 8.506e-4
-1.158, 8.602e-4
-1.159, 8.613e-4
-1.160, 8.619e-4
-1.161, 8.763e-4
-1.162, 8.894e-4
-1.163, 8.944e-4
-1.164, 9.011e-4
-1.165, 9.050e-4
-1.166, 9.142e-4
-1.167, 9.248e-4
-1.168, 9.410e-4
-1.169, 9.458e-4
-1.170, 9.470e-4
-1.171, 9.592e-4
-1.172, 9.656e-4
-1.173, 9.744e-4
-1.174, 9.865e-4
-1.175, 9.965e-4
-1.176, 1.005e-3
-1.177, 1.014e-3
-1.178, 1.024e-3
-1.179, 1.030e-3
-1.180, 1.042e-3
-1.181, 1.052e-3
-1.182, 1.062e-3
-1.183, 1.074e-3
-1.184, 1.079e-3
-1.185, 1.088e-3
-1.186, 1.104e-3
-1.187, 1.110e-3
-1.188, 1.120e-3
-1.189, 1.132e-3
-1.190, 1.146e-3
-1.191, 1.165e-3
-1.192, 1.164e-3
-1.193, 1.165e-3
-1.194, 1.188e-3
-1.195, 1.209e-3
-1.196, 1.216e-3
-1.197, 1.215e-3
-1.198, 1.232e-3
-1.199, 1.250e-3
-1.200, 1.249e-3
-1.201, 1.263e-3
-1.202, 1.284e-3
-1.203, 1.290e-3
-1.204, 1.295e-3
-1.205, 1.309e-3
-1.206, 1.323e-3
-1.207, 1.348e-3
-1.208, 1.370e-3
-1.209, 1.369e-3
-1.210, 1.372e-3
-1.211, 1.396e-3
-1.212, 1.407e-3
-1.213, 1.430e-3
-1.214, 1.433e-3
-1.215, 1.428e-3
-1.216, 1.464e-3
-1.217, 1.492e-3
-1.218, 1.496e-3
-1.219, 1.499e-3
-1.220, 1.495e-3
-1.221, 1.525e-3
-1.222, 1.548e-3
-1.223, 1.564e-3
-1.224, 1.584e-3
-1.225, 1.586e-3
-1.226, 1.605e-3
-1.227, 1.631e-3
-1.228, 1.632e-3
-1.229, 1.636e-3
-1.230, 1.668e-3
-1.231, 1.693e-3
-1.232, 1.689e-3
-1.233, 1.702e-3
-1.234, 1.724e-3
-1.235, 1.752e-3
-1.236, 1.766e-3
-1.237, 1.763e-3
-1.238, 1.781e-3
-1.239, 1.805e-3
-1.240, 1.819e-3
-1.241, 1.837e-3
-1.242, 1.853e-3
-1.243, 1.868e-3
-1.244, 1.887e-3
-1.245, 1.888e-3
-1.246, 1.928e-3
-1.247, 1.929e-3
-1.248, 1.943e-3
-1.249, 1.956e-3
-1.250, 1.971e-3
-1.251, 1.996e-3
-1.252, 2.007e-3
-1.253, 2.023e-3
-1.254, 2.031e-3
-1.255, 2.041e-3
-1.256, 2.072e-3
-1.257, 2.102e-3
-1.258, 2.112e-3
-1.259, 2.110e-3
-1.260, 2.113e-3
-1.261, 2.179e-3
-1.262, 2.209e-3
-1.263, 2.171e-3
-1.264, 2.154e-3
-1.265, 2.203e-3
-1.266, 2.251e-3
-1.267, 2.253e-3
-1.268, 2.244e-3
-1.269, 2.254e-3
-1.270, 2.274e-3
-1.271, 2.300e-3
-1.272, 2.307e-3
-1.273, 2.317e-3
-1.274, 2.314e-3
-1.275, 2.319e-3
-1.276, 2.333e-3
-1.277, 2.350e-3
-1.278, 2.382e-3
-1.279, 2.399e-3
-1.280, 2.392e-3
-1.281, 2.379e-3
-1.282, 2.392e-3
-1.283, 2.420e-3
-1.284, 2.416e-3
-1.285, 2.412e-3
-1.286, 2.417e-3
-1.287, 2.421e-3
-1.288, 2.426e-3
-1.289, 2.417e-3
-1.290, 2.412e-3
-1.291, 2.417e-3
-1.292, 2.416e-3
-1.293, 2.428e-3
-1.294, 2.428e-3
-1.295, 2.421e-3
-1.296, 2.410e-3
-1.297, 2.397e-3
-1.298, 2.393e-3
-1.299, 2.374e-3
-1.300, 2.365e-3
-1.301, 2.347e-3
-1.302, 2.325e-3
-1.303, 2.301e-3
-1.304, 2.272e-3
-1.305, 2.273e-3
-1.306, 2.250e-3
-1.307, 2.228e-3
-1.308, 2.204e-3
-1.309, 2.176e-3
-1.310, 2.168e-3
-1.311, 2.146e-3
-1.312, 2.093e-3
-1.313, 2.059e-3
-1.314, 2.039e-3
-1.315, 2.011e-3
-1.316, 1.986e-3
-1.317, 1.948e-3
-1.318, 1.922e-3
-1.319, 1.892e-3
-1.320, 1.857e-3
-1.321, 1.824e-3
-1.322, 1.779e-3
-1.323, 1.749e-3
-1.324, 1.717e-3
-1.325, 1.675e-3
-1.326, 1.642e-3
-1.327, 1.610e-3
-1.328, 1.577e-3
-1.329, 1.545e-3
-1.330, 1.522e-3
-1.331, 1.500e-3
-1.332, 1.469e-3
-1.333, 1.440e-3
-1.334, 1.413e-3
-1.335, 1.392e-3
-1.336, 1.363e-3
-1.337, 1.333e-3
-1.338, 1.315e-3
-1.339, 1.296e-3
-1.340, 1.281e-3
-1.341, 1.268e-3
-1.342, 1.243e-3
-1.343, 1.229e-3
-1.344, 1.233e-3
-1.345, 1.226e-3
-1.346, 1.210e-3
-1.347, 1.201e-3
-1.348, 1.207e-3
-1.349, 1.211e-3
-1.350, 1.208e-3
-1.351, 1.208e-3
-1.352, 1.203e-3
-1.353, 1.216e-3
-1.354, 1.225e-3
-1.355, 1.224e-3
-1.356, 1.232e-3
-1.357, 1.247e-3
-1.358, 1.266e-3
-1.359, 1.264e-3
-1.360, 1.259e-3
-1.361, 1.298e-3
-1.362, 1.329e-3
-1.363, 1.334e-3
-1.364, 1.324e-3
-1.365, 1.340e-3
-1.366, 1.382e-3
-1.367, 1.399e-3
-1.368, 1.411e-3
-1.369, 1.428e-3
-1.370, 1.458e-3
-1.371, 1.483e-3
-1.372, 1.490e-3
-1.373, 1.510e-3
-1.374, 1.536e-3
-1.375, 1.560e-3
-1.376, 1.577e-3
-1.377, 1.595e-3
-1.378, 1.631e-3
-1.379, 1.670e-3
-1.380, 1.687e-3
-1.381, 1.700e-3
-1.382, 1.736e-3
-1.383, 1.768e-3
-1.384, 1.780e-3
-1.385, 1.797e-3
-1.386, 1.835e-3
-1.387, 1.870e-3
-1.388, 1.905e-3
-1.389, 1.934e-3
-1.390, 1.944e-3
-1.391, 1.973e-3
-1.392, 2.018e-3
-1.393, 2.056e-3
-1.394, 2.071e-3
-1.395, 2.103e-3
-1.396, 2.130e-3
-1.397, 2.159e-3
-1.398, 2.206e-3
-1.399, 2.232e-3
-1.400, 2.241e-3
-1.401, 2.279e-3
-1.402, 2.344e-3
-1.403, 2.374e-3
-1.404, 2.372e-3
-1.405, 2.421e-3
-1.406, 2.478e-3
-1.407, 2.494e-3
-1.408, 2.533e-3
-1.409, 2.587e-3
-1.410, 2.619e-3
-1.411, 2.638e-3
-1.412, 2.662e-3
-1.413, 2.717e-3
-1.414, 2.765e-3
-1.415, 2.784e-3
-1.416, 2.805e-3
-1.417, 2.844e-3
-1.418, 2.895e-3
-1.419, 2.940e-3
-1.420, 2.979e-3
-1.421, 3.004e-3
-1.422, 3.029e-3
-1.423, 3.064e-3
-1.424, 3.136e-3
-1.425, 3.186e-3
-1.426, 3.172e-3
-1.427, 3.203e-3
-1.428, 3.298e-3
-1.429, 3.369e-3
-1.430, 3.377e-3
-1.431, 3.395e-3
-1.432, 3.448e-3
-1.433, 3.491e-3
-1.434, 3.518e-3
-1.435, 3.556e-3
-1.436, 3.624e-3
-1.437, 3.657e-3
-1.438, 3.668e-3
-1.439, 3.720e-3
-1.440, 3.775e-3
-1.441, 3.794e-3
-1.442, 3.852e-3
-1.443, 3.918e-3
-1.444, 3.946e-3
-1.445, 3.997e-3
-1.446, 4.039e-3
-1.447, 4.069e-3
-1.448, 4.112e-3
-1.449, 4.190e-3
-1.450, 4.216e-3
-1.451, 4.206e-3
-1.452, 4.246e-3
-1.453, 4.339e-3
-1.454, 4.379e-3
-1.455, 4.395e-3
-1.456, 4.417e-3
-1.457, 4.479e-3
-1.458, 4.547e-3
-1.459, 4.577e-3
-1.460, 4.586e-3
-1.461, 4.638e-3
-1.462, 4.705e-3
-1.463, 4.775e-3
-1.464, 4.790e-3
-1.465, 4.835e-3
-1.466, 4.888e-3
-1.467, 4.928e-3
-1.468, 4.960e-3
-1.469, 5.056e-3
-1.470, 5.088e-3
-1.471, 5.105e-3
-1.472, 5.165e-3
-1.473, 5.229e-3
-1.474, 5.282e-3
-1.475, 5.292e-3
-1.476, 5.342e-3
-1.477, 5.429e-3
-1.478, 5.454e-3
-1.479, 5.482e-3
-1.480, 5.541e-3
-1.481, 5.582e-3
-1.482, 5.645e-3
-1.483, 5.689e-3
-1.484, 5.703e-3
-1.485, 5.755e-3
-1.486, 5.842e-3
-1.487, 5.852e-3
-1.488, 5.902e-3
-1.489, 5.969e-3
-1.490, 5.983e-3
-1.491, 6.055e-3
-1.492, 6.100e-3
-1.493, 6.141e-3
-1.494, 6.189e-3
-1.495, 6.252e-3
-1.496, 6.304e-3
-1.497, 6.332e-3
-1.498, 6.376e-3
-1.499, 6.473e-3
-1.500, 6.457e-3
-1.499, 6.309e-3
-1.498, 6.188e-3
-1.497, 6.172e-3
-1.496, 6.134e-3
-1.495, 6.061e-3
-1.494, 6.000e-3
-1.493, 5.932e-3
-1.492, 5.869e-3
-1.491, 5.842e-3
-1.490, 5.776e-3
-1.489, 5.741e-3
-1.488, 5.675e-3
-1.487, 5.590e-3
-1.486, 5.540e-3
-1.485, 5.510e-3
-1.484, 5.450e-3
-1.483, 5.396e-3
-1.482, 5.336e-3
-1.481, 5.307e-3
-1.480, 5.238e-3
-1.479, 5.143e-3
-1.478, 5.100e-3
-1.477, 5.102e-3
-1.476, 5.036e-3
-1.475, 4.935e-3
-1.474, 4.884e-3
-1.473, 4.890e-3
-1.472, 4.864e-3
-1.471, 4.847e-3
-1.470, 4.734e-3
-1.469, 4.678e-3
-1.468, 4.673e-3
-1.467, 4.641e-3
-1.466, 4.587e-3
-1.465, 4.519e-3
-1.464, 4.451e-3
-1.463, 4.471e-3
-1.462, 4.452e-3
-1.461, 4.372e-3
-1.460, 4.283e-3
-1.459, 4.258e-3
-1.458, 4.222e-3
-1.457, 4.203e-3
-1.456, 4.158e-3
-1.455, 4.077e-3
-1.454, 4.039e-3
-1.453, 4.008e-3
-1.452, 3.947e-3
-1.451, 3.897e-3
-1.450, 3.897e-3
-1.449, 3.851e-3
-1.448, 3.789e-3
-1.447, 3.731e-3
-1.446, 3.677e-3
-1.445, 3.649e-3
-1.444, 3.626e-3
-1.443, 3.560e-3
-1.442, 3.497e-3
-1.441, 3.469e-3
-1.440, 3.430e-3
-1.439, 3.387e-3
-1.438, 3.330e-3
-1.437, 3.313e-3
-1.436, 3.265e-3
-1.435, 3.251e-3
-1.434, 3.202e-3
-1.433, 3.152e-3
-1.432, 3.103e-3
-1.431, 3.075e-3
-1.430, 3.033e-3
-1.429, 2.985e-3
-1.428, 2.961e-3
-1.427, 2.923e-3
-1.426, 2.871e-3
-1.425, 2.848e-3
-1.424, 2.817e-3
-1.423, 2.781e-3
-1.422, 2.728e-3
-1.421, 2.676e-3
-1.420, 2.672e-3
-1.419, 2.641e-3
-1.418, 2.585e-3
-1.417, 2.553e-3
-1.416, 2.519e-3
-1.415, 2.475e-3
-1.414, 2.437e-3
-1.413, 2.424e-3
-1.412, 2.389e-3
-1.411, 2.346e-3
-1.410, 2.308e-3
-1.409, 2.285e-3
-1.408, 2.284e-3
-1.407, 2.228e-3
-1.406, 2.189e-3
-1.405, 2.157e-3
-1.404, 2.132e-3
-1.403, 2.088e-3
-1.402, 2.054e-3
-1.401, 2.025e-3
-1.400, 2.002e-3
-1.399, 1.955e-3
-1.398, 1.914e-3
-1.397, 1.899e-3
-1.396, 1.884e-3
-1.395, 1.860e-3
-1.394, 1.815e-3
-1.393, 1.792e-3
-1.392, 1.765e-3
-1.391, 1.732e-3
-1.390, 1.702e-3
-1.389, 1.695e-3
-1.388, 1.671e-3
-1.387, 1.642e-3
-1.386, 1.606e-3
-1.385, 1.586e-3
-1.384, 1.562e-3
-1.383, 1.522e-3
-1.382, 1.494e-3
-1.381, 1.465e-3
-1.380, 1.434e-3
-1.379, 1.414e-3
-1.378, 1.391e-3
-1.377, 1.359e-3
-1.376, 1.334e-3
-1.375, 1.310e-3
-1.374, 1.286e-3
-1.373, 1.262e-3
-1.372, 1.234e-3
-1.371, 1.202e-3
-1.370, 1.189e-3
-1.369, 1.166e-3
-1.368, 1.140e-3
-1.367, 1.113e-3
-1.366, 1.088e-3
-1.365, 1.076e-3
-1.364, 1.060e-3
-1.363, 1.029e-3
-1.362, 1.003e-3
-1.361, 9.815e-4
-1.360, 9.630e-4
-1.359, 9.405e-4
-1.358, 9.128e-4
-1.357, 8.945e-4
-1.356, 8.754e-4
-1.355, 8.510e-4
-1.354, 8.304e-4
-1.353, 8.093e-4
-1.352, 7.894e-4
-1.351, 7.700e-4
-1.350, 7.507e-4
-1.349, 7.335e-4
-1.348, 7.130e-4
-1.347, 6.974e-4
-1.346, 6.806e-4
-1.345, 6.580e-4
-1.344, 6.434e-4
-1.343, 6.245e-4
-1.342, 6.095e-4
-1.341, 5.917e-4
-1.340, 5.699e-4
-1.339, 5.558e-4
-1.338, 5.428e-4
-1.337, 5.260e-4
-1.336, 5.032e-4
-1.335, 4.893e-4
-1.334, 4.785e-4
-1.333, 4.615e-4
-1.332, 4.456e-4
-1.331, 4.319e-4
-1.330, 4.176e-4
-1.329, 4.076e-4
-1.328, 3.897e-4
-1.327, 3.755e-4
-1.326, 3.605e-4
-1.325, 3.476e-4
-1.324, 3.321e-4
-1.323, 3.195e-4
-1.322, 3.123e-4
-1.321, 2.969e-4
-1.320, 2.799e-4
-1.319, 2.736e-4
-1.318, 2.604e-4
-1.317, 2.481e-4
-1.316, 2.374e-4
-1.315, 2.245e-4
-1.314, 2.153e-4
-1.313, 2.030e-4
-1.312, 1.940e-4
-1.311, 1.831e-4
-1.310, 1.709e-4
-1.309, 1.643e-4
-1.308, 1.514e-4
-1.307, 1.421e-4
-1.306, 1.342e-4
-1.305, 1.206e-4
-1.304, 1.140e-4
-1.303, 1.047e-4
-1.302, 9.624e-5
-1.301, 8.667e-5
-1.300, 7.643e-5
-1.299, 7.153e-5
-1.298, 6.133e-5
-1.297, 5.347e-5
-1.296, 4.642e-5
-1.295, 3.648e-5
-1.294, 3.107e-5
-1.293, 2.110e-5
-1.292, 1.458e-5
-1.291, 7.851e-6
-1.290, -8.603e-7
-1.289, -6.435e-6
-1.288, -1.431e-5
-1.287, -1.993e-5
-1.286, -2.625e-5
-1.285, -3.409e-5
-1.284, -3.764e-5
-1.283, -4.606e-5
-1.282, -5.091e-5
-1.281, -5.661e-5
-1.280, -6.524e-5
-1.279, -6.819e-5
-1.278, -7.559e-5
-1.277, -8.069e-5
-1.276, -8.518e-5
-1.275, -9.224e-5
-1.274, -9.419e-5
-1.273, -1.009e-4
-1.272, -1.053e-4
-1.271, -1.096e-4
-1.270, -1.158e-4
-1.269, -1.171e-4
-1.268, -1.243e-4
-1.267, -1.276e-4
-1.266, -1.312e-4
-1.265, -1.374e-4
-1.264, -1.379e-4
-1.263, -1.436e-4
-1.262, -1.501e-4
-1.261, -1.517e-4
-1.260, -1.562e-4
-1.259, -1.568e-4
-1.258, -1.636e-4
-1.257, -1.676e-4
-1.256, -1.679e-4
-1.255, -1.736e-4
-1.254, -1.754e-4
-1.253, -1.802e-4
-1.252, -1.816e-4
-1.251, -1.834e-4
-1.250, -1.900e-4
-1.249, -1.913e-4
-1.248, -1.964e-4
-1.247, -1.981e-4
-1.246, -2.010e-4
-1.245, -2.054e-4
-1.244, -2.066e-4
-1.243, -2.097e-4
-1.242, -2.106e-4
-1.241, -2.162e-4
-1.240, -2.189e-4
-1.239, -2.167e-4
-1.238, -2.202e-4
-1.237, -2.231e-4
-1.236, -2.264e-4
-1.235, -2.295e-4
-1.234, -2.307e-4
-1.233, -2.333e-4
-1.232, -2.359e-4
-1.231, -2.374e-4
-1.230, -2.381e-4
-1.229, -2.392e-4
-1.228, -2.454e-4
-1.227, -2.444e-4
-1.226, -2.451e-4
-1.225, -2.492e-4
-1.224, -2.486e-4
-1.223, -2.544e-4
-1.222, -2.554e-4
-1.221, -2.557e-4
-1.220, -2.605e-4
-1.219, -2.599e-4
-1.218, -2.639e-4
-1.217, -2.644e-4
-1.216, -2.632e-4
-1.215, -2.669e-4
-1.214, -2.669e-4
-1.213, -2.701e-4
-1.212, -2.711e-4
-1.211, -2.723e-4
-1.210, -2.764e-4
-1.209, -2.746e-4
-1.208, -2.766e-4
-1.207, -2.788e-4
-1.206, -2.805e-4
-1.205, -2.834e-4
-1.204, -2.829e-4
-1.203, -2.851e-4
-1.202, -2.861e-4
-1.201, -2.889e-4
-1.200, -2.901e-4
-1.199, -2.892e-4
-1.198, -2.940e-4
-1.197, -2.948e-4
-1.196, -2.949e-4
-1.195, -2.977e-4
-1.194, -2.962e-4
-1.193, -3.002e-4
-1.192, -3.004e-4
-1.191, -3.019e-4
-1.190, -3.056e-4
-1.189, -3.038e-4
-1.188, -3.082e-4
-1.187, -3.087e-4
-1.186, -3.072e-4
-1.185, -3.115e-4
-1.184, -3.118e-4
-1.183, -3.159e-4
-1.182, -3.162e-4
-1.181, -3.136e-4
-1.180, -3.167e-4
-1.179, -3.178e-4
-1.178, -3.196e-4
-1.177, -3.219e-4
-1.176, -3.245e-4
-1.175, -3.262e-4
-1.174, -3.243e-4
-1.173, -3.284e-4
-1.172, -3.325e-4
-1.171, -3.320e-4
-1.170, -3.320e-4
-1.169, -3.306e-4
-1.168, -3.368e-4
-1.167, -3.381e-4
-1.166, -3.364e-4
-1.165, -3.414e-4
-1.164, -3.423e-4
-1.163, -3.423e-4
-1.162, -3.383e-4
-1.161, -3.428e-4
-1.160, -3.527e-4
-1.159, -3.503e-4
-1.158, -3.527e-4
-1.157, -3.524e-4
-1.156, -3.546e-4
-1.155, -3.572e-4
-1.154, -3.554e-4
-1.153, -3.615e-4
-1.152, -3.602e-4
-1.151, -3.605e-4
-1.150, -3.645e-4
-1.149, -3.620e-4
-1.148, -3.664e-4
-1.147, -3.694e-4
-1.146, -3.670e-4
-1.145, -3.704e-4
-1.144, -3.730e-4
-1.143, -3.772e-4
-1.142, -3.770e-4
-1.141, -3.773e-4
-1.140, -3.817e-4
-1.139, -3.832e-4
-1.138, -3.870e-4
-1.137, -3.873e-4
-1.136, -3.876e-4
-1.135, -3.921e-4
-1.134, -3.953e-4
-1.133, -3.992e-4
-1.132, -3.995e-4
-1.131, -4.018e-4
-1.130, -4.065e-4
-1.129, -4.055e-4
-1.128, -4.093e-4
-1.127, -4.112e-4
-1.126, -4.135e-4
-1.125, -4.194e-4
-1.124, -4.205e-4
-1.123, -4.272e-4
-1.122, -4.298e-4
-1.121, -4.324e-4
-1.120, -4.419e-4
-1.119, -4.466e-4
-1.118, -4.526e-4
-1.117, -4.611e-4
-1.116, -4.710e-4
-1.115, -4.852e-4
-1.114, -4.931e-4
-1.113, -5.088e-4
-1.112, -5.242e-4
-1.111, -5.398e-4
-1.110, -5.611e-4
-1.109, -5.828e-4
-1.108, -6.089e-4
-1.107, -6.295e-4
-1.106, -6.482e-4
-1.105, -6.723e-4
-1.104, -6.968e-4
-1.103, -7.298e-4
-1.102, -7.501e-4
-1.101, -7.711e-4
-1.100, -8.059e-4
-1.099, -8.235e-4
-1.098, -8.533e-4
-1.097, -8.805e-4
-1.096, -8.933e-4
-1.095, -9.227e-4
-1.094, -9.413e-4
-1.093, -9.747e-4
-1.092, -9.997e-4
-1.091, -1.006e-3
-1.090, -1.025e-3
-1.089, -1.057e-3
-1.088, -1.077e-3
-1.087, -1.083e-3
-1.086, -1.097e-3
-1.085, -1.126e-3
-1.084, -1.140e-3
-1.083, -1.151e-3
-1.082, -1.165e-3
-1.081, -1.185e-3
-1.080, -1.204e-3
-1.079, -1.210e-3
-1.078, -1.225e-3
-1.077, -1.252e-3
-1.076, -1.259e-3
-1.075, -1.267e-3
-1.074, -1.285e-3
-1.073, -1.310e-3
-1.072, -1.323e-3
-1.071, -1.341e-3
-1.070, -1.358e-3
-1.069, -1.362e-3
-1.068, -1.376e-3
-1.067, -1.387e-3
-1.066, -1.402e-3
-1.065, -1.415e-3
-1.064, -1.426e-3
-1.063, -1.440e-3
-1.062, -1.460e-3
-1.061, -1.474e-3
-1.060, -1.478e-3
-1.059, -1.494e-3
-1.058, -1.510e-3
-1.057, -1.526e-3
-1.056, -1.534e-3
-1.055, -1.540e-3
-1.054, -1.559e-3
-1.053, -1.591e-3
-1.052, -1.600e-3
-1.051, -1.600e-3
-1.050, -1.619e-3
-1.049, -1.624e-3
-1.048, -1.635e-3
-1.047, -1.637e-3
-1.046, -1.654e-3
-1.045, -1.677e-3
-1.044, -1.678e-3
-1.043, -1.672e-3
-1.042, -1.687e-3
-1.041, -1.712e-3
-1.040, -1.724e-3
-1.039, -1.721e-3
-1.038, -1.742e-3
-1.037, -1.764e-3
-1.036, -1.757e-3
-1.035, -1.764e-3
-1.034, -1.786e-3
-1.033, -1.793e-3
-1.032, -1.803e-3
-1.031, -1.798e-3
-1.030, -1.815e-3
-1.029, -1.841e-3
-1.028, -1.835e-3
-1.027, -1.837e-3
-1.026, -1.864e-3
-1.025, -1.871e-3
-1.024, -1.860e-3
-1.023, -1.869e-3
-1.022, -1.908e-3
-1.021, -1.914e-3
-1.020, -1.904e-3
-1.019, -1.913e-3
-1.018, -1.943e-3
-1.017, -1.962e-3
-1.016, -1.952e-3
-1.015, -1.945e-3
-1.014, -1.962e-3
-1.013, -1.984e-3
-1.012, -1.981e-3
-1.011, -1.973e-3
-1.010, -1.998e-3
-1.009, -2.016e-3
-1.008, -2.008e-3
-1.007, -2.008e-3
-1.006, -2.019e-3
-1.005, -2.024e-3
-1.004, -2.036e-3
-1.003, -2.073e-3
-1.002, -2.065e-3
-1.001, -2.043e-3
