Apr. 1, 2025   13:56:19
Cyclic Voltammetry
File: c:/users/guazh/data/banditlqround7_x0exp518_r20/2025-03-28-exp1010\exp1010-2025-04-01t13_46_21-arkoh\exp1010_cv_sr_200mvs_efin_-1500mv.bin
Data Source:  Experiment
Instrument Model:  CHI760E
Header: CV ran at 200 mVs
Note: 

Init E (V) = -1
High E (V) = -1
Low E (V) = -1.5
Final E (V) = -1
Init P/N = N
Scan Rate (V/s) = 0.2
Segment = 3
Sample Interval (V) = 0.001
Quiet Time (sec) = 2
Sensitivity (A/V) = 0.01
Comp R (ohm) = 1.7

Results:

Channel 1:
Segment 1:
Ep = -1.323V
ip = 1.972e-3A
Ah = 8.628e-4C

Segment 2:

Segment 3:

Potential/V, Current/A

-1.000, -2.494e-4
-1.001, -1.756e-4
-1.002, -1.121e-4
-1.003, -5.814e-5
-1.004, -1.621e-5
-1.005, 2.426e-5
-1.006, 6.455e-5
-1.007, 9.505e-5
-1.008, 1.223e-4
-1.009, 1.540e-4
-1.010, 1.800e-4
-1.011, 2.002e-4
-1.012, 2.243e-4
-1.013, 2.458e-4
-1.014, 2.624e-4
-1.015, 2.829e-4
-1.016, 3.043e-4
-1.017, 3.179e-4
-1.018, 3.298e-4
-1.019, 3.478e-4
-1.020, 3.648e-4
-1.021, 3.785e-4
-1.022, 3.965e-4
-1.023, 4.118e-4
-1.024, 4.188e-4
-1.025, 4.285e-4
-1.026, 4.413e-4
-1.027, 4.483e-4
-1.028, 4.570e-4
-1.029, 4.714e-4
-1.030, 4.831e-4
-1.031, 4.927e-4
-1.032, 5.063e-4
-1.033, 5.175e-4
-1.034, 5.216e-4
-1.035, 5.274e-4
-1.036, 5.368e-4
-1.037, 5.403e-4
-1.038, 5.456e-4
-1.039, 5.591e-4
-1.040, 5.675e-4
-1.041, 5.728e-4
-1.042, 5.846e-4
-1.043, 5.930e-4
-1.044, 5.960e-4
-1.045, 6.044e-4
-1.046, 6.148e-4
-1.047, 6.166e-4
-1.048, 6.142e-4
-1.049, 6.170e-4
-1.050, 6.222e-4
-1.051, 6.295e-4
-1.052, 6.438e-4
-1.053, 6.572e-4
-1.054, 6.635e-4
-1.055, 6.700e-4
-1.056, 6.800e-4
-1.057, 6.824e-4
-1.058, 6.804e-4
-1.059, 6.824e-4
-1.060, 6.817e-4
-1.061, 6.841e-4
-1.062, 7.003e-4
-1.063, 7.147e-4
-1.064, 7.220e-4
-1.065, 7.287e-4
-1.066, 7.335e-4
-1.067, 7.317e-4
-1.068, 7.301e-4
-1.069, 7.387e-4
-1.070, 7.484e-4
-1.071, 7.515e-4
-1.072, 7.575e-4
-1.073, 7.623e-4
-1.074, 7.630e-4
-1.075, 7.693e-4
-1.076, 7.785e-4
-1.077, 7.814e-4
-1.078, 7.843e-4
-1.079, 7.943e-4
-1.080, 7.987e-4
-1.081, 8.004e-4
-1.082, 8.117e-4
-1.083, 8.226e-4
-1.084, 8.274e-4
-1.085, 8.332e-4
-1.086, 8.374e-4
-1.087, 8.372e-4
-1.088, 8.396e-4
-1.089, 8.501e-4
-1.090, 8.587e-4
-1.091, 8.606e-4
-1.092, 8.705e-4
-1.093, 8.800e-4
-1.094, 8.805e-4
-1.095, 8.859e-4
-1.096, 8.954e-4
-1.097, 9.037e-4
-1.098, 9.150e-4
-1.099, 9.296e-4
-1.100, 9.365e-4
-1.101, 9.304e-4
-1.102, 9.294e-4
-1.103, 9.277e-4
-1.104, 9.247e-4
-1.105, 9.416e-4
-1.106, 9.754e-4
-1.107, 1.006e-3
-1.108, 1.024e-3
-1.109, 1.025e-3
-1.110, 1.005e-3
-1.111, 9.786e-4
-1.112, 9.762e-4
-1.113, 9.936e-4
-1.114, 1.014e-3
-1.115, 1.041e-3
-1.116, 1.063e-3
-1.117, 1.072e-3
-1.118, 1.076e-3
-1.119, 1.073e-3
-1.120, 1.067e-3
-1.121, 1.066e-3
-1.122, 1.078e-3
-1.123, 1.096e-3
-1.124, 1.106e-3
-1.125, 1.117e-3
-1.126, 1.131e-3
-1.127, 1.135e-3
-1.128, 1.139e-3
-1.129, 1.145e-3
-1.130, 1.148e-3
-1.131, 1.153e-3
-1.132, 1.166e-3
-1.133, 1.182e-3
-1.134, 1.193e-3
-1.135, 1.205e-3
-1.136, 1.217e-3
-1.137, 1.221e-3
-1.138, 1.224e-3
-1.139, 1.237e-3
-1.140, 1.247e-3
-1.141, 1.254e-3
-1.142, 1.269e-3
-1.143, 1.281e-3
-1.144, 1.286e-3
-1.145, 1.293e-3
-1.146, 1.304e-3
-1.147, 1.312e-3
-1.148, 1.318e-3
-1.149, 1.327e-3
-1.150, 1.334e-3
-1.151, 1.341e-3
-1.152, 1.360e-3
-1.153, 1.375e-3
-1.154, 1.378e-3
-1.155, 1.384e-3
-1.156, 1.391e-3
-1.157, 1.393e-3
-1.158, 1.400e-3
-1.159, 1.417e-3
-1.160, 1.432e-3
-1.161, 1.435e-3
-1.162, 1.438e-3
-1.163, 1.439e-3
-1.164, 1.443e-3
-1.165, 1.457e-3
-1.166, 1.482e-3
-1.167, 1.497e-3
-1.168, 1.506e-3
-1.169, 1.519e-3
-1.170, 1.525e-3
-1.171, 1.527e-3
-1.172, 1.536e-3
-1.173, 1.544e-3
-1.174, 1.547e-3
-1.175, 1.559e-3
-1.176, 1.577e-3
-1.177, 1.589e-3
-1.178, 1.605e-3
-1.179, 1.623e-3
-1.180, 1.635e-3
-1.181, 1.640e-3
-1.182, 1.648e-3
-1.183, 1.659e-3
-1.184, 1.667e-3
-1.185, 1.683e-3
-1.186, 1.701e-3
-1.187, 1.708e-3
-1.188, 1.720e-3
-1.189, 1.741e-3
-1.190, 1.754e-3
-1.191, 1.760e-3
-1.192, 1.765e-3
-1.193, 1.778e-3
-1.194, 1.792e-3
-1.195, 1.811e-3
-1.196, 1.831e-3
-1.197, 1.838e-3
-1.198, 1.848e-3
-1.199, 1.869e-3
-1.200, 1.885e-3
-1.201, 1.896e-3
-1.202, 1.911e-3
-1.203, 1.925e-3
-1.204, 1.933e-3
-1.205, 1.945e-3
-1.206, 1.967e-3
-1.207, 1.989e-3
-1.208, 2.007e-3
-1.209, 2.024e-3
-1.210, 2.032e-3
-1.211, 2.041e-3
-1.212, 2.054e-3
-1.213, 2.069e-3
-1.214, 2.078e-3
-1.215, 2.095e-3
-1.216, 2.130e-3
-1.217, 2.149e-3
-1.218, 2.156e-3
-1.219, 2.175e-3
-1.220, 2.196e-3
-1.221, 2.218e-3
-1.222, 2.244e-3
-1.223, 2.255e-3
-1.224, 2.256e-3
-1.225, 2.265e-3
-1.226, 2.284e-3
-1.227, 2.303e-3
-1.228, 2.321e-3
-1.229, 2.350e-3
-1.230, 2.381e-3
-1.231, 2.408e-3
-1.232, 2.434e-3
-1.233, 2.446e-3
-1.234, 2.446e-3
-1.235, 2.461e-3
-1.236, 2.494e-3
-1.237, 2.524e-3
-1.238, 2.541e-3
-1.239, 2.546e-3
-1.240, 2.549e-3
-1.241, 2.559e-3
-1.242, 2.588e-3
-1.243, 2.623e-3
-1.244, 2.640e-3
-1.245, 2.650e-3
-1.246, 2.668e-3
-1.247, 2.698e-3
-1.248, 2.724e-3
-1.249, 2.743e-3
-1.250, 2.765e-3
-1.251, 2.783e-3
-1.252, 2.810e-3
-1.253, 2.852e-3
-1.254, 2.878e-3
-1.255, 2.902e-3
-1.256, 2.917e-3
-1.257, 2.916e-3
-1.258, 2.930e-3
-1.259, 2.949e-3
-1.260, 2.960e-3
-1.261, 2.992e-3
-1.262, 3.042e-3
-1.263, 3.098e-3
-1.264, 3.147e-3
-1.265, 3.150e-3
-1.266, 3.119e-3
-1.267, 3.090e-3
-1.268, 3.099e-3
-1.269, 3.144e-3
-1.270, 3.183e-3
-1.271, 3.203e-3
-1.272, 3.236e-3
-1.273, 3.279e-3
-1.274, 3.308e-3
-1.275, 3.343e-3
-1.276, 3.354e-3
-1.277, 3.349e-3
-1.278, 3.364e-3
-1.279, 3.395e-3
-1.280, 3.429e-3
-1.281, 3.465e-3
-1.282, 3.501e-3
-1.283, 3.543e-3
-1.284, 3.578e-3
-1.285, 3.601e-3
-1.286, 3.609e-3
-1.287, 3.591e-3
-1.288, 3.570e-3
-1.289, 3.583e-3
-1.290, 3.639e-3
-1.291, 3.707e-3
-1.292, 3.752e-3
-1.293, 3.757e-3
-1.294, 3.743e-3
-1.295, 3.748e-3
-1.296, 3.764e-3
-1.297, 3.774e-3
-1.298, 3.788e-3
-1.299, 3.815e-3
-1.300, 3.842e-3
-1.301, 3.860e-3
-1.302, 3.883e-3
-1.303, 3.898e-3
-1.304, 3.895e-3
-1.305, 3.905e-3
-1.306, 3.923e-3
-1.307, 3.940e-3
-1.308, 3.973e-3
-1.309, 4.000e-3
-1.310, 4.007e-3
-1.311, 4.010e-3
-1.312, 4.014e-3
-1.313, 4.026e-3
-1.314, 4.034e-3
-1.315, 4.038e-3
-1.316, 4.042e-3
-1.317, 4.053e-3
-1.318, 4.064e-3
-1.319, 4.072e-3
-1.320, 4.074e-3
-1.321, 4.065e-3
-1.322, 4.071e-3
-1.323, 4.080e-3
-1.324, 4.066e-3
-1.325, 4.060e-3
-1.326, 4.055e-3
-1.327, 4.047e-3
-1.328, 4.056e-3
-1.329, 4.059e-3
-1.330, 4.051e-3
-1.331, 4.043e-3
-1.332, 4.030e-3
-1.333, 4.007e-3
-1.334, 3.969e-3
-1.335, 3.931e-3
-1.336, 3.911e-3
-1.337, 3.905e-3
-1.338, 3.909e-3
-1.339, 3.911e-3
-1.340, 3.893e-3
-1.341, 3.850e-3
-1.342, 3.812e-3
-1.343, 3.773e-3
-1.344, 3.722e-3
-1.345, 3.686e-3
-1.346, 3.667e-3
-1.347, 3.644e-3
-1.348, 3.623e-3
-1.349, 3.595e-3
-1.350, 3.555e-3
-1.351, 3.509e-3
-1.352, 3.450e-3
-1.353, 3.404e-3
-1.354, 3.386e-3
-1.355, 3.371e-3
-1.356, 3.345e-3
-1.357, 3.289e-3
-1.358, 3.219e-3
-1.359, 3.174e-3
-1.360, 3.141e-3
-1.361, 3.116e-3
-1.362, 3.102e-3
-1.363, 3.088e-3
-1.364, 3.064e-3
-1.365, 3.033e-3
-1.366, 2.993e-3
-1.367, 2.942e-3
-1.368, 2.893e-3
-1.369, 2.855e-3
-1.370, 2.829e-3
-1.371, 2.814e-3
-1.372, 2.812e-3
-1.373, 2.798e-3
-1.374, 2.760e-3
-1.375, 2.714e-3
-1.376, 2.664e-3
-1.377, 2.625e-3
-1.378, 2.598e-3
-1.379, 2.595e-3
-1.380, 2.599e-3
-1.381, 2.600e-3
-1.382, 2.612e-3
-1.383, 2.615e-3
-1.384, 2.603e-3
-1.385, 2.579e-3
-1.386, 2.549e-3
-1.387, 2.525e-3
-1.388, 2.523e-3
-1.389, 2.542e-3
-1.390, 2.573e-3
-1.391, 2.586e-3
-1.392, 2.586e-3
-1.393, 2.573e-3
-1.394, 2.560e-3
-1.395, 2.575e-3
-1.396, 2.607e-3
-1.397, 2.636e-3
-1.398, 2.661e-3
-1.399, 2.682e-3
-1.400, 2.698e-3
-1.401, 2.707e-3
-1.402, 2.721e-3
-1.403, 2.739e-3
-1.404, 2.757e-3
-1.405, 2.793e-3
-1.406, 2.832e-3
-1.407, 2.859e-3
-1.408, 2.881e-3
-1.409, 2.905e-3
-1.410, 2.932e-3
-1.411, 2.962e-3
-1.412, 3.002e-3
-1.413, 3.041e-3
-1.414, 3.062e-3
-1.415, 3.088e-3
-1.416, 3.124e-3
-1.417, 3.165e-3
-1.418, 3.210e-3
-1.419, 3.247e-3
-1.420, 3.273e-3
-1.421, 3.293e-3
-1.422, 3.319e-3
-1.423, 3.356e-3
-1.424, 3.388e-3
-1.425, 3.429e-3
-1.426, 3.481e-3
-1.427, 3.525e-3
-1.428, 3.567e-3
-1.429, 3.609e-3
-1.430, 3.653e-3
-1.431, 3.696e-3
-1.432, 3.742e-3
-1.433, 3.782e-3
-1.434, 3.795e-3
-1.435, 3.810e-3
-1.436, 3.842e-3
-1.437, 3.885e-3
-1.438, 3.947e-3
-1.439, 4.013e-3
-1.440, 4.063e-3
-1.441, 4.114e-3
-1.442, 4.164e-3
-1.443, 4.210e-3
-1.444, 4.246e-3
-1.445, 4.278e-3
-1.446, 4.322e-3
-1.447, 4.351e-3
-1.448, 4.382e-3
-1.449, 4.424e-3
-1.450, 4.473e-3
-1.451, 4.529e-3
-1.452, 4.580e-3
-1.453, 4.624e-3
-1.454, 4.660e-3
-1.455, 4.711e-3
-1.456, 4.772e-3
-1.457, 4.818e-3
-1.458, 4.868e-3
-1.459, 4.904e-3
-1.460, 4.917e-3
-1.461, 4.951e-3
-1.462, 5.008e-3
-1.463, 5.073e-3
-1.464, 5.127e-3
-1.465, 5.166e-3
-1.466, 5.215e-3
-1.467, 5.256e-3
-1.468, 5.282e-3
-1.469, 5.322e-3
-1.470, 5.371e-3
-1.471, 5.431e-3
-1.472, 5.479e-3
-1.473, 5.527e-3
-1.474, 5.574e-3
-1.475, 5.628e-3
-1.476, 5.663e-3
-1.477, 5.664e-3
-1.478, 5.674e-3
-1.479, 5.759e-3
-1.480, 5.862e-3
-1.481, 5.919e-3
-1.482, 5.950e-3
-1.483, 5.979e-3
-1.484, 6.042e-3
-1.485, 6.098e-3
-1.486, 6.158e-3
-1.487, 6.207e-3
-1.488, 6.240e-3
-1.489, 6.289e-3
-1.490, 6.351e-3
-1.491, 6.393e-3
-1.492, 6.455e-3
-1.493, 6.536e-3
-1.494, 6.588e-3
-1.495, 6.626e-3
-1.496, 6.658e-3
-1.497, 6.690e-3
-1.498, 6.753e-3
-1.499, 6.802e-3
-1.500, 6.756e-3
-1.499, 6.633e-3
-1.498, 6.560e-3
-1.497, 6.515e-3
-1.496, 6.460e-3
-1.495, 6.377e-3
-1.494, 6.304e-3
-1.493, 6.223e-3
-1.492, 6.170e-3
-1.491, 6.130e-3
-1.490, 6.066e-3
-1.489, 5.986e-3
-1.488, 5.885e-3
-1.487, 5.805e-3
-1.486, 5.755e-3
-1.485, 5.707e-3
-1.484, 5.690e-3
-1.483, 5.627e-3
-1.482, 5.530e-3
-1.481, 5.440e-3
-1.480, 5.405e-3
-1.479, 5.409e-3
-1.478, 5.408e-3
-1.477, 5.389e-3
-1.476, 5.295e-3
-1.475, 5.177e-3
-1.474, 5.100e-3
-1.473, 5.065e-3
-1.472, 5.040e-3
-1.471, 5.015e-3
-1.470, 4.957e-3
-1.469, 4.893e-3
-1.468, 4.823e-3
-1.467, 4.764e-3
-1.466, 4.729e-3
-1.465, 4.688e-3
-1.464, 4.643e-3
-1.463, 4.595e-3
-1.462, 4.549e-3
-1.461, 4.508e-3
-1.460, 4.454e-3
-1.459, 4.399e-3
-1.458, 4.350e-3
-1.457, 4.293e-3
-1.456, 4.244e-3
-1.455, 4.196e-3
-1.454, 4.166e-3
-1.453, 4.119e-3
-1.452, 4.049e-3
-1.451, 4.002e-3
-1.450, 3.951e-3
-1.449, 3.917e-3
-1.448, 3.890e-3
-1.447, 3.845e-3
-1.446, 3.793e-3
-1.445, 3.755e-3
-1.444, 3.716e-3
-1.443, 3.689e-3
-1.442, 3.622e-3
-1.441, 3.579e-3
-1.440, 3.535e-3
-1.439, 3.491e-3
-1.438, 3.459e-3
-1.437, 3.413e-3
-1.436, 3.361e-3
-1.435, 3.300e-3
-1.434, 3.246e-3
-1.433, 3.207e-3
-1.432, 3.179e-3
-1.431, 3.154e-3
-1.430, 3.123e-3
-1.429, 3.080e-3
-1.428, 3.041e-3
-1.427, 3.014e-3
-1.426, 2.957e-3
-1.425, 2.897e-3
-1.424, 2.856e-3
-1.423, 2.824e-3
-1.422, 2.803e-3
-1.421, 2.783e-3
-1.420, 2.752e-3
-1.419, 2.702e-3
-1.418, 2.661e-3
-1.417, 2.622e-3
-1.416, 2.578e-3
-1.415, 2.540e-3
-1.414, 2.504e-3
-1.413, 2.475e-3
-1.412, 2.437e-3
-1.411, 2.402e-3
-1.410, 2.366e-3
-1.409, 2.334e-3
-1.408, 2.297e-3
-1.407, 2.262e-3
-1.406, 2.230e-3
-1.405, 2.192e-3
-1.404, 2.153e-3
-1.403, 2.119e-3
-1.402, 2.090e-3
-1.401, 2.064e-3
-1.400, 2.033e-3
-1.399, 1.995e-3
-1.398, 1.960e-3
-1.397, 1.918e-3
-1.396, 1.869e-3
-1.395, 1.842e-3
-1.394, 1.824e-3
-1.393, 1.789e-3
-1.392, 1.757e-3
-1.391, 1.725e-3
-1.390, 1.701e-3
-1.389, 1.671e-3
-1.388, 1.639e-3
-1.387, 1.601e-3
-1.386, 1.560e-3
-1.385, 1.532e-3
-1.384, 1.508e-3
-1.383, 1.480e-3
-1.382, 1.449e-3
-1.381, 1.420e-3
-1.380, 1.397e-3
-1.379, 1.373e-3
-1.378, 1.352e-3
-1.377, 1.328e-3
-1.376, 1.297e-3
-1.375, 1.265e-3
-1.374, 1.242e-3
-1.373, 1.211e-3
-1.372, 1.186e-3
-1.371, 1.161e-3
-1.370, 1.134e-3
-1.369, 1.107e-3
-1.368, 1.085e-3
-1.367, 1.060e-3
-1.366, 1.031e-3
-1.365, 1.008e-3
-1.364, 9.913e-4
-1.363, 9.673e-4
-1.362, 9.401e-4
-1.361, 9.149e-4
-1.360, 8.892e-4
-1.359, 8.659e-4
-1.358, 8.444e-4
-1.357, 8.212e-4
-1.356, 7.923e-4
-1.355, 7.706e-4
-1.354, 7.566e-4
-1.353, 7.343e-4
-1.352, 7.145e-4
-1.351, 6.950e-4
-1.350, 6.741e-4
-1.349, 6.489e-4
-1.348, 6.310e-4
-1.347, 6.130e-4
-1.346, 5.894e-4
-1.345, 5.678e-4
-1.344, 5.526e-4
-1.343, 5.322e-4
-1.342, 5.135e-4
-1.341, 4.993e-4
-1.340, 4.806e-4
-1.339, 4.595e-4
-1.338, 4.409e-4
-1.337, 4.246e-4
-1.336, 4.052e-4
-1.335, 3.885e-4
-1.334, 3.774e-4
-1.333, 3.580e-4
-1.332, 3.386e-4
-1.331, 3.243e-4
-1.330, 3.069e-4
-1.329, 2.879e-4
-1.328, 2.746e-4
-1.327, 2.610e-4
-1.326, 2.441e-4
-1.325, 2.288e-4
-1.324, 2.173e-4
-1.323, 2.003e-4
-1.322, 1.842e-4
-1.321, 1.734e-4
-1.320, 1.600e-4
-1.319, 1.429e-4
-1.318, 1.309e-4
-1.317, 1.190e-4
-1.316, 1.021e-4
-1.315, 8.907e-5
-1.314, 8.035e-5
-1.313, 6.500e-5
-1.312, 5.057e-5
-1.311, 4.097e-5
-1.310, 2.939e-5
-1.309, 1.392e-5
-1.308, 4.615e-6
-1.307, -5.034e-6
-1.306, -1.949e-5
-1.305, -3.068e-5
-1.304, -3.770e-5
-1.303, -5.009e-5
-1.302, -6.254e-5
-1.301, -6.919e-5
-1.300, -7.972e-5
-1.299, -9.323e-5
-1.298, -1.011e-4
-1.297, -1.087e-4
-1.296, -1.215e-4
-1.295, -1.314e-4
-1.294, -1.372e-4
-1.293, -1.471e-4
-1.292, -1.571e-4
-1.291, -1.624e-4
-1.290, -1.709e-4
-1.289, -1.830e-4
-1.288, -1.890e-4
-1.287, -1.945e-4
-1.286, -2.061e-4
-1.285, -2.141e-4
-1.284, -2.187e-4
-1.283, -2.276e-4
-1.282, -2.352e-4
-1.281, -2.389e-4
-1.280, -2.476e-4
-1.279, -2.584e-4
-1.278, -2.638e-4
-1.277, -2.678e-4
-1.276, -2.796e-4
-1.275, -2.865e-4
-1.274, -2.893e-4
-1.273, -2.955e-4
-1.272, -3.005e-4
-1.271, -3.026e-4
-1.270, -3.102e-4
-1.269, -3.205e-4
-1.268, -3.263e-4
-1.267, -3.308e-4
-1.266, -3.386e-4
-1.265, -3.438e-4
-1.264, -3.445e-4
-1.263, -3.499e-4
-1.262, -3.546e-4
-1.261, -3.561e-4
-1.260, -3.623e-4
-1.259, -3.715e-4
-1.258, -3.753e-4
-1.257, -3.777e-4
-1.256, -3.836e-4
-1.255, -3.869e-4
-1.254, -3.857e-4
-1.253, -3.909e-4
-1.252, -3.973e-4
-1.251, -4.003e-4
-1.250, -4.066e-4
-1.249, -4.133e-4
-1.248, -4.126e-4
-1.247, -4.141e-4
-1.246, -4.236e-4
-1.245, -4.316e-4
-1.244, -4.350e-4
-1.243, -4.385e-4
-1.242, -4.393e-4
-1.241, -4.359e-4
-1.240, -4.374e-4
-1.239, -4.492e-4
-1.238, -4.552e-4
-1.237, -4.547e-4
-1.236, -4.592e-4
-1.235, -4.605e-4
-1.234, -4.606e-4
-1.233, -4.692e-4
-1.232, -4.755e-4
-1.231, -4.737e-4
-1.230, -4.739e-4
-1.229, -4.809e-4
-1.228, -4.827e-4
-1.227, -4.837e-4
-1.226, -4.861e-4
-1.225, -4.871e-4
-1.224, -4.863e-4
-1.223, -4.930e-4
-1.222, -5.012e-4
-1.221, -5.019e-4
-1.220, -5.043e-4
-1.219, -5.090e-4
-1.218, -5.077e-4
-1.217, -5.076e-4
-1.216, -5.150e-4
-1.215, -5.203e-4
-1.214, -5.247e-4
-1.213, -5.231e-4
-1.212, -5.266e-4
-1.211, -5.259e-4
-1.210, -5.280e-4
-1.209, -5.343e-4
-1.208, -5.338e-4
-1.207, -5.324e-4
-1.206, -5.355e-4
-1.205, -5.369e-4
-1.204, -5.362e-4
-1.203, -5.405e-4
-1.202, -5.470e-4
-1.201, -5.486e-4
-1.200, -5.538e-4
-1.199, -5.632e-4
-1.198, -5.637e-4
-1.197, -5.635e-4
-1.196, -5.679e-4
-1.195, -5.697e-4
-1.194, -5.684e-4
-1.193, -5.712e-4
-1.192, -5.749e-4
-1.191, -5.732e-4
-1.190, -5.737e-4
-1.189, -5.775e-4
-1.188, -5.761e-4
-1.187, -5.766e-4
-1.186, -5.858e-4
-1.185, -5.921e-4
-1.184, -5.933e-4
-1.183, -5.983e-4
-1.182, -6.023e-4
-1.181, -6.004e-4
-1.180, -6.017e-4
-1.179, -6.053e-4
-1.178, -6.037e-4
-1.177, -6.032e-4
-1.176, -6.081e-4
-1.175, -6.115e-4
-1.174, -6.122e-4
-1.173, -6.152e-4
-1.172, -6.188e-4
-1.171, -6.165e-4
-1.170, -6.220e-4
-1.169, -6.297e-4
-1.168, -6.283e-4
-1.167, -6.272e-4
-1.166, -6.328e-4
-1.165, -6.361e-4
-1.164, -6.355e-4
-1.163, -6.373e-4
-1.162, -6.403e-4
-1.161, -6.403e-4
-1.160, -6.454e-4
-1.159, -6.535e-4
-1.158, -6.544e-4
-1.157, -6.538e-4
-1.156, -6.588e-4
-1.155, -6.632e-4
-1.154, -6.642e-4
-1.153, -6.690e-4
-1.152, -6.724e-4
-1.151, -6.697e-4
-1.150, -6.718e-4
-1.149, -6.782e-4
-1.148, -6.799e-4
-1.147, -6.827e-4
-1.146, -6.884e-4
-1.145, -6.913e-4
-1.144, -6.896e-4
-1.143, -6.943e-4
-1.142, -6.999e-4
-1.141, -7.001e-4
-1.140, -7.069e-4
-1.139, -7.161e-4
-1.138, -7.218e-4
-1.137, -7.250e-4
-1.136, -7.286e-4
-1.135, -7.300e-4
-1.134, -7.333e-4
-1.133, -7.354e-4
-1.132, -7.410e-4
-1.131, -7.518e-4
-1.130, -7.581e-4
-1.129, -7.669e-4
-1.128, -7.686e-4
-1.127, -7.650e-4
-1.126, -7.672e-4
-1.125, -7.664e-4
-1.124, -7.629e-4
-1.123, -7.707e-4
-1.122, -7.796e-4
-1.121, -7.842e-4
-1.120, -7.924e-4
-1.119, -8.028e-4
-1.118, -8.083e-4
-1.117, -8.108e-4
-1.116, -8.143e-4
-1.115, -8.154e-4
-1.114, -8.168e-4
-1.113, -8.273e-4
-1.112, -8.451e-4
-1.111, -8.603e-4
-1.110, -8.773e-4
-1.109, -8.949e-4
-1.108, -9.086e-4
-1.107, -9.231e-4
-1.106, -9.432e-4
-1.105, -9.636e-4
-1.104, -9.822e-4
-1.103, -1.011e-3
-1.102, -1.043e-3
-1.101, -1.071e-3
-1.100, -1.100e-3
-1.099, -1.130e-3
-1.098, -1.156e-3
-1.097, -1.185e-3
-1.096, -1.225e-3
-1.095, -1.262e-3
-1.094, -1.289e-3
-1.093, -1.322e-3
-1.092, -1.357e-3
-1.091, -1.385e-3
-1.090, -1.421e-3
-1.089, -1.464e-3
-1.088, -1.497e-3
-1.087, -1.528e-3
-1.086, -1.564e-3
-1.085, -1.594e-3
-1.084, -1.616e-3
-1.083, -1.640e-3
-1.082, -1.664e-3
-1.081, -1.687e-3
-1.080, -1.717e-3
-1.079, -1.755e-3
-1.078, -1.787e-3
-1.077, -1.818e-3
-1.076, -1.848e-3
-1.075, -1.868e-3
-1.074, -1.879e-3
-1.073, -1.895e-3
-1.072, -1.908e-3
-1.071, -1.928e-3
-1.070, -1.954e-3
-1.069, -1.989e-3
-1.068, -2.018e-3
-1.067, -2.042e-3
-1.066, -2.064e-3
-1.065, -2.084e-3
-1.064, -2.098e-3
-1.063, -2.120e-3
-1.062, -2.148e-3
-1.061, -2.165e-3
-1.060, -2.181e-3
-1.059, -2.203e-3
-1.058, -2.222e-3
-1.057, -2.246e-3
-1.056, -2.276e-3
-1.055, -2.294e-3
-1.054, -2.302e-3
-1.053, -2.314e-3
-1.052, -2.339e-3
-1.051, -2.359e-3
-1.050, -2.374e-3
-1.049, -2.406e-3
-1.048, -2.435e-3
-1.047, -2.454e-3
-1.046, -2.468e-3
-1.045, -2.468e-3
-1.044, -2.479e-3
-1.043, -2.515e-3
-1.042, -2.550e-3
-1.041, -2.568e-3
-1.040, -2.580e-3
-1.039, -2.596e-3
-1.038, -2.606e-3
-1.037, -2.619e-3
-1.036, -2.643e-3
-1.035, -2.672e-3
-1.034, -2.707e-3
-1.033, -2.732e-3
-1.032, -2.742e-3
-1.031, -2.732e-3
-1.030, -2.717e-3
-1.029, -2.727e-3
-1.028, -2.745e-3
-1.027, -2.764e-3
-1.026, -2.802e-3
-1.025, -2.831e-3
-1.024, -2.847e-3
-1.023, -2.861e-3
-1.022, -2.872e-3
-1.021, -2.882e-3
-1.020, -2.891e-3
-1.019, -2.898e-3
-1.018, -2.905e-3
-1.017, -2.921e-3
-1.016, -2.959e-3
-1.015, -3.014e-3
-1.014, -3.045e-3
-1.013, -3.053e-3
-1.012, -3.052e-3
-1.011, -3.038e-3
-1.010, -3.020e-3
-1.009, -3.017e-3
-1.008, -3.034e-3
-1.007, -3.070e-3
-1.006, -3.118e-3
-1.005, -3.145e-3
-1.004, -3.151e-3
-1.003, -3.154e-3
-1.002, -3.158e-3
-1.001, -3.163e-3
