Potential V vs RHE, Current mA cm-2
0.013299999999999867,3.0996324580042955
0.012299999999999978,0.8731598142767006
0.011299999999999866,-1.0354272003712204
0.010299999999999976,-2.8860110517246746
0.009299999999999864,-4.521417314368658
0.008299999999999974,-5.885199007438552
0.007299999999999862,-7.309813286402645
0.006299999999999972,-8.656618443874159
0.00529999999999986,-9.740287299570777
0.0042999999999999705,-10.846591536065237
0.0032999999999998586,-12.084463923447142
0.0022999999999999687,-13.08325010115186
0.0012999999999998568,-13.939150437570206
0.00029999999999996696,-14.854468648582884
-0.000700000000000145,-15.689148315503255
-0.0017000000000000348,-16.453092417430376
-0.0027000000000001467,-17.2453307453548
-0.0037000000000000366,-18.009274847281915
-0.0047000000000001485,-18.546865141230633
-0.005700000000000038,-19.197632339168546
-0.00670000000000015,-19.93328221509837
-0.00770000000000004,-20.499166735044383
-0.008700000000000152,-20.994315689997144
-0.009700000000000042,-21.645082887935057
-0.010700000000000154,-22.239261633878378
-0.011700000000000044,-22.67782213683654
-0.012700000000000156,-23.229559543783903
-0.013700000000000045,-23.767149837732617
-0.014700000000000157,-24.134974775697525
-0.015700000000000047,-24.531093939659737
-0.01670000000000016,-25.0828313466071
-0.01770000000000005,-25.45065628457201
-0.01870000000000016,-25.790186996539617
-0.01970000000000005,-26.242894612496432
-0.020700000000000163,-26.65316088945729
-0.021700000000000053,-26.95025026242895
-0.022700000000000164,-27.289780974396557
-0.023700000000000054,-27.65760591236147
-0.024700000000000166,-27.869812607341224
-0.025700000000000056,-28.082019302320973
-0.026700000000000168,-28.379108675292635
-0.027700000000000058,-28.52057980527914
-0.02870000000000017,-28.662050935265643
-0.02970000000000006,-28.97328742123595
-0.03070000000000017,-29.32696524620221
-0.03170000000000006,-29.55331905418062
-0.03270000000000017,-29.878702653149578
-0.03370000000000006,-30.189939139119886
-0.034700000000000175,-30.274821817111786
-0.035700000000000065,-30.45873428609424
-0.03670000000000018,-30.953883241047
-0.03770000000000007,-31.067060145036205
-0.03870000000000018,-31.22267838802136
-0.03970000000000007,-31.47732642199707
-0.04070000000000018,-31.689533116976815
-0.04170000000000007,-31.74612156897142
-0.04270000000000018,-31.930034037953877
-0.04370000000000007,-32.184682071929586
-0.044700000000000184,-32.24127052392419
-0.045700000000000074,-32.354447427913385
-0.046700000000000186,-32.59494834889044
-0.047700000000000076,-32.693978139881004
-0.04870000000000019,-32.764713704874254
-0.04970000000000008,-32.97692039985401
-0.05070000000000019,-33.10424441684186
-0.05170000000000008,-33.09009730384321
-0.05270000000000019,-33.231568433829715
-0.05370000000000008,-33.41548090281216
-0.05470000000000019,-33.48621646780542
-0.05570000000000008,-33.655981823789226
-0.056700000000000195,-33.99551253575683
-0.057700000000000085,-34.13698366574334
-0.058700000000000196,-34.278454795729836
-0.059700000000000086,-34.5472499427042
-0.0607000000000002,-34.67457395969205
-0.06170000000000009,-34.717015298688004
-0.0627000000000002,-34.9150748806691
-0.06370000000000009,-35.02825178465831
-0.0647000000000002,-35.05654601065561
-0.06570000000000009,-35.11313446265021
-0.0667000000000002,-35.254605592636715
-0.0677000000000001,-35.254605592636715
-0.0687000000000002,-35.254605592636715
-0.0697000000000001,-35.42437094862052
-0.07070000000000021,-35.55169496560837
-0.0717000000000001,-35.56584207860703
-0.07270000000000021,-35.763901660588125
-0.0737000000000001,-35.97610835556789
-0.07470000000000021,-35.94781412957058
-0.0757000000000001,-36.00440258156518
-0.07670000000000021,-36.14587371155169
-0.0777000000000001,-36.16002082455034
-0.07870000000000021,-36.10343237255574
-0.0797000000000001,-36.244903502542236
-0.08070000000000022,-36.38637463252874
-0.0817000000000001,-36.38637463252874
-0.08270000000000022,-36.49955153651795
-0.08370000000000011,-36.6268755535058
-0.08470000000000022,-36.584434214509855
-0.08570000000000011,-36.61272844050715
-0.08670000000000022,-36.7117582314977
-0.08770000000000011,-36.61272844050715
-0.08870000000000022,-36.52784576251525
-0.08970000000000011,-36.584434214509855
-0.09070000000000022,-36.5985813275085
-0.09170000000000011,-36.61272844050715
-0.09270000000000023,-36.740052457495004
-0.09370000000000012,-36.95225915247476
-0.09470000000000023,-36.92396492647745
-0.09570000000000012,-37.00884760446935
-0.09670000000000023,-37.221054299449115
-0.09770000000000012,-37.235201412447765
-0.09870000000000023,-37.235201412447765
-0.09970000000000012,-37.334231203438314
-0.10070000000000023,-37.34837831643697
-0.10170000000000012,-37.26349563844507
-0.10270000000000024,-37.305936977441014
-0.10370000000000013,-37.34837831643697
-0.10470000000000024,-37.305936977441014
-0.10570000000000013,-37.376672542434264
-0.10670000000000024,-37.48984944642347
-0.10770000000000013,-37.51814367242077
-0.10870000000000024,-37.47570233342482
-0.10970000000000013,-37.58887923741403
-0.11070000000000024,-37.673761915405926
-0.11170000000000013,-37.60302635041268
-0.11270000000000002,-37.716203254401876
-0.11370000000000013,-37.85767438438838
-0.11470000000000002,-37.82938015839108
-0.11570000000000014,-37.85767438438838
-0.11670000000000003,-37.98499840137623
-0.11770000000000014,-37.95670417537893
-0.11870000000000003,-37.92840994938163
-0.11970000000000014,-37.99914551437489
-0.12070000000000003,-38.05573396636949
-0.12170000000000014,-38.04158685337084
-0.12270000000000003,-38.06988107936814
-0.12370000000000014,-38.09817530536544
-0.12470000000000003,-37.97085128837759
-0.12570000000000014,-37.99914551437489
-0.12670000000000003,-38.211352209354644
-0.12770000000000015,-38.267940661349236
-0.12870000000000004,-38.33867622634249
-0.12970000000000015,-38.43770601733305
-0.13070000000000004,-38.46600024333035
-0.13170000000000015,-38.38111756533845
-0.13270000000000004,-38.46600024333035
-0.13370000000000015,-38.57917714731955
-0.13470000000000004,-38.57917714731955
-0.13570000000000015,-38.607471373316855
-0.13670000000000004,-38.763089616302004
-0.13770000000000016,-38.734795390304704
-0.13870000000000005,-38.706501164307404
-0.13970000000000016,-38.98944342428042
-0.14070000000000005,-39.173355893262865
-0.14170000000000016,-39.046031876275016
-0.14270000000000005,-39.116767441268266
-0.14370000000000016,-39.244091458256115
-0.14470000000000005,-39.20165011926017
-0.14570000000000016,-39.258238571254765
-0.14670000000000005,-39.35726836224533
-0.14770000000000016,-39.35726836224533
-0.14870000000000005,-39.37141547524397
-0.14970000000000017,-39.51288660523048
-0.15070000000000006,-39.56947505722508
-0.15170000000000017,-39.54118083122778
-0.15270000000000006,-39.654357735216976
-0.15370000000000017,-39.76753463920618
-0.15470000000000006,-39.72509330021023
-0.15570000000000017,-39.71094618721158
-0.15670000000000006,-39.86656443019674
-0.15770000000000017,-39.88071154319538
-0.15870000000000006,-39.92315288219133
-0.15970000000000018,-40.092918238175145
-0.16070000000000007,-40.20609514216434
-0.16170000000000018,-40.220242255162994
-0.16270000000000007,-40.26268359415894
-0.16370000000000018,-40.29097782015624
-0.16470000000000007,-40.14950669016974
-0.16570000000000018,-40.163653803168394
-0.16670000000000007,-40.30512493315489
-0.16770000000000018,-40.27683070715759
-0.16870000000000007,-40.234389368161644
-0.16970000000000018,-40.37586049814815
-0.17070000000000007,-40.4748902891387
-0.17170000000000019,-40.4748902891387
-0.17270000000000008,-40.630508532123855
-0.1737000000000002,-40.78612677510901
-0.17470000000000008,-40.88515656609956
-0.1757000000000002,-41.04077480908471
-0.17670000000000008,-41.32371706905772
-0.1777000000000002,-41.40859974704962
-0.17870000000000008,-41.43689397304693
-0.1797000000000002,-41.59251221603208
-0.18070000000000008,-41.620806442029384
-0.1817000000000002,-41.53592376403748
-0.18270000000000008,-41.649100668026676
-0.1837000000000002,-41.76227757201589
-0.1847000000000001,-41.73398334601858
-0.1857000000000002,-41.80471891101183
-0.1867000000000001,-41.91789581500104
-0.1877000000000002,-41.91789581500104
-0.1887000000000001,-41.90374870200238
-0.1897000000000002,-42.05936694498754
-0.1907000000000001,-42.186690961975394
-0.1917000000000001,-42.172543848976744
-0.19269999999999998,-42.34230920496055
-0.1937000000000001,-42.483780334947056
-0.19469999999999998,-42.4696332219484
-0.1957000000000001,-42.554515899940306
-0.19669999999999999,-42.78086970791871
-0.1977000000000001,-42.80916393391601
-0.1987,-42.82331104691466
-0.1997000000000001,-42.99307640289846
-0.2007,-43.106253306887666
-0.2017000000000001,-43.09210619388902
-0.2027,-43.16284175888227
-0.2037000000000001,-43.23357732387552
-0.2047,-43.205283097878215
-0.2057000000000001,-43.148694645883616
-0.2067,-43.43163690585662
-0.2077000000000001,-43.53066669684718
-0.2087,-43.558960922844484
-0.2097000000000001,-43.68628493983233
-0.2107,-43.81360895682018
-0.2117000000000001,-43.89849163481209
-0.2127,-44.068256990795895
-0.2137000000000001,-44.223875233781044
-0.2147,-44.28046368577565
-0.2157000000000001,-44.478523267756756
-0.2167,-44.73317130173246
-0.21770000000000012,-44.83220109272301
-0.2187,-44.90293665771627
-0.21970000000000012,-45.044407787702774
-0.2207,-45.25661448268253
-0.22170000000000012,-45.44052695166498
-0.2227,-45.567850968652834
-0.22370000000000012,-45.61029230764878
-0.2247,-45.581998081651484
-0.22570000000000012,-45.666880759643384
-0.2267,-45.83664611562718
-0.22770000000000012,-45.92152879361909
-0.22870000000000001,-45.97811724561369
-0.22970000000000013,-46.3176479575813
-0.23070000000000002,-46.544001765559706
-0.23170000000000013,-46.572295991557006
-0.23270000000000002,-46.74206134754081
-0.23370000000000013,-46.94012092952192
-0.23470000000000002,-46.91182670352462
-0.23570000000000013,-46.99670938151652
-0.23670000000000002,-47.25135741549222
-0.2376999999999999,-47.421122771476035
-0.23870000000000002,-47.56259390146253
-0.2396999999999999,-47.83138904843689
-0.24070000000000003,-48.1426255344072
-0.24169999999999991,-48.2558024383964
-0.24270000000000003,-48.581186037365356
-0.24369999999999992,-48.920716749332975
-0.24470000000000003,-49.04804076632082
-0.24569999999999992,-49.14707055731138
-0.24670000000000003,-49.43001281728438
-0.24769999999999992,-49.514895495276285
-0.24870000000000003,-49.61392528626684
-0.24969999999999992,-49.89686754623985
-0.25070000000000003,-50.12322135421825
-0.2516999999999999,-50.23639825820745
-0.25270000000000004,-50.491046292183164
-0.2536999999999999,-50.77398855215617
-0.25470000000000004,-50.98619524713592
-0.2556999999999999,-51.28328462010758
-0.25670000000000004,-51.665256671071134
-0.25769999999999993,-51.83502202705494
-0.25870000000000004,-52.047228722034696
-0.25969999999999993,-52.49993633799151
-0.26070000000000004,-52.69799591997262
-0.26169999999999993,-52.76873148496586
-0.26270000000000004,-53.405351569905136
-0.26369999999999993,-53.88635341185925
-0.26470000000000005,-54.423943705807964
-0.26569999999999994,-54.480532157802564
-0.26670000000000005,-54.65029751378637
-0.26769999999999994,-54.77762153077422
-0.26870000000000005,-54.890798434763425
-0.26969999999999994,-55.357653163718886
-0.27070000000000005,-55.85280211867165
-0.27169999999999994,-56.022567474655446
-0.27270000000000005,-56.03671458765411
-0.27369999999999994,-56.50356931660957
-0.27470000000000006,-56.65918755959472
-0.27569999999999995,-56.98457115856368
-0.27670000000000006,-57.36654320952724
-0.27769999999999995,-57.6070441305043
-0.27870000000000006,-57.974869068469204
-0.27969999999999995,-58.44172379742467
-0.28070000000000006,-58.894431413381476
-0.28169999999999995,-59.17737367335449
-0.28270000000000006,-59.55934572431805
-0.28369999999999995,-60.01205334027486
-0.28470000000000006,-60.35158405224246
-0.28569999999999995,-60.91746857218848
-0.28670000000000007,-61.58238288312505
-0.28769999999999996,-62.04923761208051
-0.28870000000000007,-62.55853368003192
-0.28969999999999996,-63.280036442963095
-0.29070000000000007,-63.860068075907755
-0.29169999999999996,-64.34106991786187
-0.29270000000000007,-64.92110155080654
-0.29369999999999996,-65.5011331837512
-0.2947000000000001,-65.84066389571882
-0.29569999999999996,-66.49143109365673
-0.2967000000000001,-67.22708096958654
-0.29769999999999996,-67.82125971552985
-0.2987000000000001,-68.35885000947859
-0.29969999999999997,-69.0944998854084
-0.3007000000000001,-69.64623729235576
-0.30169999999999997,-70.11309202131122
-0.3027000000000001,-70.80630055824508
-0.30369999999999997,-71.47121486918165
-0.3047000000000001,-72.22101185811013
-0.30569999999999997,-72.95666173403994
-0.3067000000000001,-73.77719428796166
-0.3077,-74.51284416389147
-0.3087000000000001,-75.06458157083884
-0.3097,-75.84267278576462
-0.3107000000000001,-76.62076400069039
-0.3117,-77.243236972631
-0.3127000000000001,-77.99303396155948
-0.3137,-78.72868383748929
-0.3147000000000001,-79.36530392242857
-0.3157,-80.10095379835838
-0.3167000000000001,-80.86489790028548
-0.3177,-81.54395932422072
-0.3187000000000001,-82.25131497415322
-0.3197,-83.07184752807495
-0.3207000000000001,-84.00555698598588
-0.3217,-84.96756066989411
-0.3227000000000001,-86.07103548378883
-0.3237,-87.13206895868761
-0.3247000000000001,-87.95260151260933
-0.3257,-88.80142829252836
-0.3267000000000001,-89.84831465442848
-0.3277,-90.68299432134886
-0.3287000000000001,-91.48937976227192
-0.3297,-92.50797189817473
-0.3307000000000001,-93.32850445209648
-0.3317,-93.92268319803979
-0.3327000000000001,-94.78565709095746
-0.3337,-95.70521943586974
-0.3347000000000001,-96.80869424976446
-0.3357,-98.08193441964299
-0.3367000000000001,-99.39761592851748
-0.3377,-100.51523785541086
-0.3387000000000001,-101.63285978230424
-0.3397,-102.76462882219626
-0.3407000000000001,-103.78322095809908
-0.3417,-104.68863619001272
-0.3427000000000001,-105.82040522990474
-0.3437,-107.03705694778867
-0.3447000000000001,-108.14053176168339
-0.3457,-109.34303636656868
-0.3467000000000001,-110.68701210144046
-0.3477,-111.91781093232305
-0.3487000000000001,-113.14860976320564
-0.3497,-114.4925854980774
-0.3507000000000001,-115.79411989395325
-0.3517,-116.84100625585339
-0.3527000000000001,-117.88789261775351
-0.3537,-119.13283856163473
-0.3547000000000001,-120.47681429650652
-0.3557,-121.94811404836615
-0.35670000000000013,-123.60332626920825
-0.3577,-125.25853849005037
-0.35870000000000013,-126.94204493688973
-0.3597,-128.752875400717
-0.36070000000000013,-130.2241751525766
-0.3617,-131.38423841846597
-0.3626999999999999,-132.72821415333775
-0.3637,-134.1995139051974
-0.3646999999999999,-135.5576367530678
-0.3657,-136.7884355839504
-0.3666999999999999,-138.41535357879516
-0.3677,-139.80177065266292
-0.3686999999999999,-141.10330504853877
-0.36970000000000003,-142.8858412863687
-0.3706999999999999,-144.30055258623375
-0.37170000000000003,-145.43232162612577
-0.3726999999999999,-146.9885040559773
-0.37370000000000003,-148.82762874580186
-0.3746999999999999,-150.66675343562642
-0.37570000000000003,-152.50587812545095
-0.3766999999999999,-154.486473945262
-0.37770000000000004,-156.46706976507306
-0.3786999999999999,-158.4476655848841
-0.37970000000000004,-160.42826140469515
-0.3806999999999999,-162.40885722450622
-0.38170000000000004,-164.38945304431726
-0.38269999999999993,-166.65299112410133
-0.38370000000000004,-168.63358694391238
-0.38469999999999993,-170.33124050375042
-0.38570000000000004,-172.45330745354798
-0.38669999999999993,-172.17036519357498
-0.38570000000000004,-169.7653559838044
-0.38469999999999993,-167.78476016399335
-0.38370000000000004,-166.22857773414182
-0.38269999999999993,-164.24798191433075
-0.38170000000000004,-162.40885722450622
-0.3806999999999999,-160.99414592464117
-0.37970000000000004,-159.72090575476264
-0.3786999999999999,-158.3061944548976
-0.37770000000000004,-156.75001202504606
-0.3766999999999999,-155.47677185516753
-0.37570000000000003,-154.203531685289
-0.3746999999999999,-153.07176264539694
-0.37370000000000003,-152.0814647354914
-0.3726999999999999,-150.94969569559944
-0.37170000000000003,-149.6764555257209
-0.3706999999999999,-148.54468648582886
-0.36970000000000003,-147.27144631595033
-0.3686999999999999,-145.7152638860988
-0.3677,-144.30055258623375
-0.3666999999999999,-142.7443701563822
-0.3657,-141.41454153450906
-0.3646999999999999,-140.0988600256346
-0.3637,-139.16515056772366
-0.3626999999999999,-138.04752864083028
-0.3617,-137.1845547479126
-0.36070000000000013,-136.16596261200976
-0.3597,-135.03419357211774
-0.35870000000000013,-133.5911880462554
-0.3577,-132.04915272940255
-0.35670000000000013,-130.5778529775429
-0.3557,-128.8377580787089
-0.3547000000000001,-127.30986987485466
-0.3537,-126.19224794796128
-0.3527000000000001,-124.86241932608814
-0.3517,-123.5042964782177
-0.3507000000000001,-122.18861496934323
-0.3497,-120.80219789547547
-0.3487000000000001,-119.41578082160775
-0.3477,-118.35474734670898
-0.3467000000000001,-117.3785965498021
-0.3457,-116.0912092669249
-0.3447000000000001,-114.70479219305719
-0.3437,-113.50228758817191
-0.3427000000000001,-112.29978298328662
-0.3417,-110.89921879642023
-0.3407000000000001,-109.654272852539
-0.3397,-108.40932690865776
-0.3387000000000001,-107.02290983479001
-0.3377,-105.38184472694657
-0.3367000000000001,-103.95298631408289
-0.3357,-102.5807163532138
-0.3347000000000001,-101.34991752233122
-0.3337,-100.1615600304446
-0.3327000000000001,-98.81758429557281
-0.3317,-97.40287299570777
-0.3307000000000001,-96.0871914868333
-0.3297,-94.92712822094396
-0.3287000000000001,-93.95097742403709
-0.3277,-93.00312085312751
-0.3267000000000001,-91.98452871722468
-0.3257,-90.59811164335694
-0.3247000000000001,-89.18340034349191
-0.3237,-87.93845439961068
-0.3227000000000001,-86.6793613427308
-0.3217,-85.39197405985361
-0.3207000000000001,-84.26020501996159
-0.3197,-83.15673020606685
-0.3187000000000001,-81.86934292318966
-0.3177,-80.70927965730034
-0.3167000000000001,-79.7472759733921
-0.3157,-78.34671178652573
-0.3147000000000001,-76.91785337366204
-0.3137,-75.65876031678216
-0.3127000000000001,-74.38552014690363
-0.3117,-73.11227997702508
-0.3107000000000001,-71.96636382413442
-0.3097,-70.8345947842424
-0.3087000000000001,-69.67453151835305
-0.3077,-68.52861536546239
-0.3067000000000001,-67.52417034255821
-0.30569999999999997,-66.32166573767293
-0.3047000000000001,-65.0767197937917
-0.30369999999999997,-64.10056899688482
-0.3027000000000001,-62.44535677604272
-0.30169999999999997,-61.5965299961237
-0.3007000000000001,-60.45061384323302
-0.29969999999999997,-59.304697690342344
-0.2987000000000001,-58.15878153745166
-0.29769999999999996,-56.956276932566375
-0.2967000000000001,-55.85280211867165
-0.29569999999999996,-54.76347441777557
-0.2947000000000001,-53.71658805587545
-0.29369999999999996,-52.75458437196722
-0.29270000000000007,-51.60866821907654
-0.29169999999999996,-50.335428049198
-0.29070000000000007,-49.387571478288436
-0.28969999999999996,-48.45386202037751
-0.28870000000000007,-47.37868143248008
-0.28769999999999996,-46.37423640957591
-0.28670000000000007,-45.42637983866633
-0.28569999999999995,-44.36534636376755
-0.28470000000000006,-43.38919556686068
-0.28369999999999995,-42.45548610894975
-0.28270000000000006,-41.45104108604558
-0.28169999999999995,-40.36171338514949
-0.28070000000000006,-39.42800392723857
-0.27969999999999995,-38.49429446932764
-0.27870000000000006,-37.40496676843157
-0.27769999999999995,-36.47125731052064
-0.27670000000000006,-35.636577643600276
-0.27569999999999995,-34.61798550769744
-0.27470000000000006,-33.670128936787876
-0.27369999999999994,-32.8637434958648
-0.27270000000000005,-31.986622489948477
-0.27169999999999994,-30.939736128048356
-0.27070000000000005,-30.09090934812933
-0.26969999999999994,-29.25622968120896
-0.26870000000000005,-28.336667336296685
-0.26769999999999994,-27.501987669376312
-0.26670000000000005,-26.709749341451893
-0.26569999999999994,-25.77603988354097
