Potential V vs RHE, Current mA cm-2
0.05339999999999995,-0.02388032674172182
0.05239999999999995,-0.025040390007611147
0.051399999999999946,-0.025577980301559864
0.050399999999999945,-0.025959952352523425
0.049399999999999944,-0.026313630177489684
0.04839999999999994,-0.026639013776458643
0.04739999999999994,-0.0269643973754276
0.04639999999999994,-0.027289780974396556
0.04539999999999994,-0.027572723234369562
0.04439999999999994,-0.02788395972033987
0.04339999999999994,-0.02815275486731423
0.04239999999999994,-0.02847813846628319
0.04139999999999994,-0.02880352206525215
0.040399999999999936,-0.0290723172122265
0.039399999999999935,-0.029369406585198165
0.038399999999999934,-0.02966649595816982
0.03739999999999993,-0.029991879557138775
0.03639999999999993,-0.030288968930110433
0.03539999999999993,-0.030543616964086147
0.03439999999999993,-0.030812412111060502
0.03339999999999993,-0.031095354371033508
0.03239999999999993,-0.03139244374400516
0.03139999999999993,-0.03170368022997547
0.030399999999999927,-0.03195832826395118
0.029399999999999926,-0.03222712341092554
0.028399999999999925,-0.032538359896895845
0.027399999999999924,-0.0328637434958648
0.026399999999999924,-0.03316083286883646
0.025399999999999923,-0.033457922241808116
0.024399999999999922,-0.03375501161477978
0.02339999999999992,-0.03406624810075008
0.02239999999999992,-0.03440577881271769
0.02139999999999992,-0.0346887210726907
0.020399999999999918,-0.0349716633326637
0.019399999999999917,-0.03526875270563536
0.018399999999999916,-0.035565842078607024
0.017399999999999916,-0.03591951990357328
0.016399999999999915,-0.03624490350254224
0.015399999999999914,-0.03655613998851255
0.014399999999999913,-0.036867376474482856
0.013399999999999912,-0.037206907186450464
0.012399999999999911,-0.03756058501141672
0.01139999999999991,-0.03790011572338433
0.01039999999999991,-0.03819720509635599
0.009399999999999908,-0.038508441582326296
0.008399999999999908,-0.03880553095529796
0.007399999999999907,-0.03920165011926016
0.006399999999999906,-0.03954118083122777
0.005399999999999905,-0.03986656443019673
0.004399999999999904,-0.04019194802916569
0.003399999999999903,-0.04051733162813465
0.002399999999999902,-0.040899303679098206
0.0013999999999999013,-0.04126712861706312
0.00039999999999990044,-0.041606659329030724
-0.0006000000000001005,-0.04193204292799969
-0.0016000000000001013,-0.042271573639967294
-0.0026000000000001022,-0.042653545690930855
-0.003600000000000103,-0.043021370628895765
-0.004600000000000104,-0.04336090134086337
-0.005600000000000105,-0.04371457916582964
-0.006600000000000106,-0.04408240410379454
-0.007600000000000107,-0.04447852326775675
-0.008600000000000108,-0.044874642431718965
-0.009600000000000108,-0.04520002603068792
-0.01060000000000011,-0.04556785096865284
-0.01160000000000011,-0.04593567590661774
-0.012600000000000111,-0.046360089296577256
-0.013600000000000112,-0.04674206134754081
-0.014600000000000113,-0.04709573917250707
-0.015600000000000114,-0.04747771122347064
-0.016600000000000115,-0.04787383038743284
-0.017600000000000116,-0.048284096664393705
-0.018600000000000116,-0.04868021582835592
-0.019600000000000117,-0.04904804076632082
-0.020600000000000118,-0.04943001281728438
-0.02160000000000012,-0.049811984868247935
-0.02260000000000012,-0.0502505453712061
-0.02360000000000012,-0.050660811648166965
-0.024600000000000122,-0.051042783699130526
-0.025600000000000123,-0.05143890286309273
-0.026600000000000124,-0.0518491691400536
-0.027600000000000124,-0.052301876756010404
-0.028600000000000125,-0.052697995919972616
-0.029600000000000126,-0.05310826219693348
-0.030600000000000127,-0.053504381360895685
-0.03160000000000013,-0.0539287947508552
-0.03260000000000013,-0.05440979659280931
-0.03360000000000013,-0.054820062869770175
-0.03460000000000002,-0.05523032914673103
-0.03560000000000002,-0.055626448310693244
-0.03660000000000002,-0.05605086170065276
-0.03760000000000002,-0.05651771642960821
-0.03860000000000002,-0.05697042404556502
-0.039600000000000024,-0.057380690322525886
-0.040600000000000025,-0.0578051037124854
-0.041600000000000026,-0.05824366421544356
-0.04260000000000003,-0.05871051894439902
-0.04360000000000003,-0.059149079447357186
-0.04460000000000003,-0.05954519861131939
-0.04560000000000003,-0.059955464888280255
-0.04660000000000003,-0.06039402539123842
-0.04760000000000003,-0.06088917434619118
-0.04860000000000003,-0.06134188196214799
-0.04960000000000003,-0.06176629535210751
-0.050600000000000034,-0.06221900296806432
-0.051600000000000035,-0.06268585769701977
-0.052600000000000036,-0.06316685953897387
-0.053600000000000037,-0.06363371426792935
-0.05460000000000004,-0.06410056899688482
-0.05560000000000004,-0.06453912949984296
-0.05660000000000004,-0.06503427845479573
-0.05760000000000004,-0.06552942740974849
-0.05860000000000004,-0.06601042925170261
-0.05960000000000004,-0.06644898975466076
-0.06060000000000004,-0.06691584448361623
-0.061600000000000044,-0.0673826992125717
-0.06260000000000004,-0.06789199528052312
-0.06360000000000005,-0.06838714423547587
-0.06460000000000005,-0.06882570473843404
-0.06560000000000005,-0.0692925594673895
-0.06660000000000005,-0.06975941419634496
-0.06760000000000005,-0.07026871026429637
-0.06860000000000005,-0.07076385921924913
-0.06960000000000005,-0.07124486106120324
-0.07060000000000005,-0.0717117157901587
-0.07160000000000005,-0.07219271763211282
-0.07260000000000005,-0.07270201370006424
-0.07360000000000005,-0.07318301554201835
-0.07460000000000006,-0.0736498702709738
-0.07560000000000006,-0.07413087211292792
-0.07660000000000006,-0.07464016818087933
-0.07760000000000006,-0.07516361136182939
-0.07860000000000006,-0.07563046609078486
-0.07960000000000006,-0.07609732081974033
-0.08060000000000006,-0.07657832266169443
-0.08160000000000006,-0.07704517739064991
-0.08260000000000006,-0.07759691479759726
-0.08360000000000006,-0.07809206375255001
-0.08460000000000006,-0.07854477136850684
-0.08560000000000006,-0.07903992032345959
-0.08660000000000007,-0.079549216391411
-0.08760000000000007,-0.08004436534636378
-0.08860000000000007,-0.08053951430131655
-0.08960000000000007,-0.08102051614327066
-0.09060000000000007,-0.08150151798522477
-0.09160000000000007,-0.08199666694017753
-0.09260000000000007,-0.08252011012112759
-0.09360000000000007,-0.0830011119630817
-0.09460000000000007,-0.08343967246603987
-0.09560000000000007,-0.08389238008199668
-0.09660000000000007,-0.08434508769795349
-0.09760000000000008,-0.08486853087890354
-0.09860000000000008,-0.08534953272085766
-0.09960000000000008,-0.08583053456281178
-0.10060000000000008,-0.08629738929176724
-0.10160000000000008,-0.08679253824672
-0.10260000000000008,-0.08728768720167276
-0.10360000000000008,-0.08774039481762959
-0.10460000000000008,-0.08816480820758908
-0.10560000000000008,-0.08860336871054725
-0.10660000000000008,-0.08908437055250136
-0.10760000000000008,-0.08960781373345142
-0.10860000000000009,-0.09006052134940823
-0.10960000000000009,-0.09051322896536505
-0.11060000000000009,-0.09096593658132186
-0.11160000000000009,-0.09143279131027732
-0.11260000000000009,-0.09191379315223143
-0.11360000000000009,-0.09236650076818824
-0.11460000000000009,-0.09283335549714371
-0.11560000000000009,-0.09328606311310052
-0.11660000000000009,-0.09372462361605868
-0.1176000000000001,-0.09421977257101144
-0.1186000000000001,-0.0946583330739696
-0.1196000000000001,-0.09506859935093047
-0.1206000000000001,-0.09550715985388863
-0.1216000000000001,-0.09595986746984543
-0.1226000000000001,-0.0964267221988009
-0.1236000000000001,-0.09687942981475771
-0.1246000000000001,-0.09724725475272263
-0.1256000000000001,-0.09765752102968349
-0.1266000000000001,-0.09806778730664434
-0.1276000000000001,-0.09854878914859845
-0.1286000000000001,-0.09895905542555931
-0.1296000000000001,-0.09932688036352423
-0.1306000000000001,-0.09973714664048508
-0.1316000000000001,-0.1001332658044473
-0.1326000000000001,-0.10057182630740545
-0.1336000000000001,-0.10096794547136766
-0.1346000000000001,-0.10133577040933257
-0.1356000000000001,-0.10170359534729749
-0.1366000000000001,-0.10209971451125968
-0.1376000000000001,-0.10249583367522191
-0.1386000000000001,-0.10286365861318682
-0.1396000000000001,-0.10321733643815308
-0.1406000000000001,-0.10357101426311933
-0.14160000000000011,-0.1039529863140829
-0.14260000000000012,-0.1043208112520478
-0.14360000000000012,-0.10466034196401541
-0.14460000000000012,-0.10498572556298437
-0.14560000000000012,-0.10532525627495198
-0.14660000000000012,-0.10569308121291689
-0.14760000000000012,-0.10606090615088182
-0.14860000000000012,-0.1064004368628494
-0.14960000000000012,-0.10669752623582107
-0.15060000000000012,-0.10699461560879273
-0.15160000000000012,-0.10731999920776168
-0.15260000000000012,-0.1076878241457266
-0.15360000000000013,-0.10801320774469556
-0.15460000000000013,-0.10826785577867125
-0.15560000000000013,-0.10856494515164292
-0.15660000000000013,-0.10889032875061187
-0.15760000000000013,-0.10921571234958084
-0.15860000000000013,-0.10949865460955385
-0.15960000000000002,-0.1097674497565282
-0.16060000000000002,-0.11002209779050391
-0.16160000000000002,-0.11029089293747825
-0.16260000000000002,-0.11058798231044992
-0.16360000000000002,-0.11084263034442562
-0.16460000000000002,-0.11108313126540269
-0.16560000000000002,-0.1113660735253757
-0.16660000000000003,-0.11166316289834735
-0.16760000000000003,-0.11191781093232304
-0.16860000000000003,-0.11217245896629877
-0.16960000000000003,-0.11237051854827985
-0.17060000000000003,-0.11259687235625826
-0.17160000000000003,-0.11283737327723532
-0.17260000000000003,-0.11307787419821237
-0.17360000000000003,-0.11329008089319213
-0.17460000000000003,-0.11345984624917593
-0.17560000000000003,-0.1136437587181584
-0.17660000000000003,-0.11385596541313814
-0.17760000000000004,-0.11406817210811791
-0.17860000000000004,-0.11428037880309765
-0.17960000000000004,-0.11445014415908147
-0.18060000000000004,-0.11460576240206662
-0.18160000000000004,-0.11478967487104909
-0.18260000000000004,-0.11500188156602882
-0.18360000000000004,-0.11515749980901398
-0.18460000000000004,-0.11531311805199915
-0.18560000000000004,-0.11544044206898699
-0.18660000000000004,-0.11562435453796945
-0.18760000000000004,-0.11582241411995055
-0.18860000000000005,-0.1159780323629357
-0.18960000000000005,-0.11609120926692493
-0.19060000000000005,-0.11624682750991006
-0.19160000000000005,-0.11638829863989655
-0.19260000000000005,-0.11655806399588038
-0.19360000000000005,-0.11669953512586688
-0.19460000000000005,-0.11679856491685743
-0.19560000000000005,-0.11692588893384527
-0.19660000000000005,-0.11702491872483582
-0.19760000000000005,-0.11718053696782099
-0.19860000000000005,-0.1172937138718102
-0.19960000000000006,-0.11736444943680345
-0.20060000000000006,-0.11744933211479533
-0.20160000000000006,-0.11753421479278725
-0.20260000000000006,-0.11767568592277375
-0.20360000000000006,-0.11776056860076566
-0.20460000000000006,-0.11783130416575889
-0.20560000000000006,-0.11790203973075215
-0.20660000000000006,-0.1179727752957454
-0.20760000000000006,-0.11808595219973461
-0.20860000000000006,-0.11815668776472787
-0.20960000000000006,-0.11821327621672245
-0.21060000000000006,-0.11828401178171571
-0.21160000000000007,-0.11834060023371032
-0.21260000000000007,-0.11842548291170223
-0.21360000000000007,-0.11848207136369682
-0.21460000000000007,-0.11849621847669549
-0.21560000000000007,-0.11852451270269278
-0.21660000000000007,-0.11860939538068467
-0.21760000000000007,-0.11870842517167522
-0.21860000000000007,-0.11873671939767255
-0.21960000000000007,-0.11876501362366983
-0.22060000000000007,-0.11876501362366983
-0.22160000000000007,-0.11882160207566443
-0.22260000000000008,-0.11889233764065768
-0.22360000000000008,-0.118920631866655
-0.22460000000000008,-0.11893477897965361
-0.22560000000000008,-0.11894892609265229
-0.22660000000000008,-0.11897722031864959
-0.22760000000000008,-0.11904795588364282
-0.22860000000000008,-0.11907625010964012
-0.22960000000000008,-0.1190621029966415
-0.23060000000000008,-0.11907625010964012
-0.23160000000000008,-0.11909039722263878
-0.23260000000000008,-0.11914698567463339
-0.23360000000000009,-0.11914698567463339
-0.2346000000000001,-0.11913283856163473
-0.2356000000000001,-0.11914698567463339
-0.2366000000000001,-0.11916113278763205
-0.2376000000000001,-0.11921772123962665
-0.2386000000000001,-0.11920357412662799
-0.2396000000000001,-0.11917527990063068
-0.2406000000000001,-0.11918942701362933
-0.2416000000000001,-0.11920357412662799
-0.2426000000000001,-0.1192601625786226
-0.2436000000000001,-0.1192601625786226
-0.2446000000000001,-0.1192318683526253
-0.2456000000000001,-0.11921772123962665
-0.2466000000000001,-0.11921772123962665
-0.2476000000000001,-0.11924601546562394
-0.2486000000000001,-0.11924601546562394
-0.2496000000000001,-0.11924601546562394
-0.2506000000000001,-0.11921772123962665
-0.2516000000000001,-0.11920357412662799
-0.2526000000000001,-0.11924601546562394
-0.2536000000000001,-0.1192318683526253
-0.2546000000000001,-0.11918942701362933
-0.2556000000000001,-0.11918942701362933
-0.2566000000000001,-0.11920357412662799
-0.2576000000000001,-0.11920357412662799
-0.2586000000000001,-0.11921772123962665
-0.2596000000000001,-0.11918942701362933
-0.2606000000000001,-0.11913283856163473
-0.2616000000000001,-0.11917527990063068
-0.2626000000000001,-0.11917527990063068
-0.2636000000000001,-0.11914698567463339
-0.2646000000000001,-0.11913283856163473
-0.2656000000000001,-0.11910454433563744
-0.2666000000000001,-0.11909039722263878
-0.2676000000000001,-0.1191186914486361
-0.2686000000000001,-0.1191186914486361
-0.2696000000000001,-0.11909039722263878
-0.2706000000000001,-0.11904795588364282
-0.2716000000000001,-0.1190621029966415
-0.2726000000000001,-0.11909039722263878
-0.2736000000000001,-0.11907625010964012
-0.2746000000000001,-0.11904795588364282
-0.2756000000000001,-0.11903380877064418
-0.2766000000000001,-0.11901966165764555
-0.2776000000000001,-0.11904795588364282
-0.2786000000000001,-0.11903380877064418
-0.2796000000000001,-0.11900551454464689
-0.2806000000000001,-0.11899136743164823
-0.28160000000000013,-0.11897722031864959
-0.28260000000000013,-0.11901966165764555
-0.28360000000000013,-0.11899136743164823
-0.2846,-0.11896307320565094
-0.2856,-0.11893477897965361
-0.2866,-0.11893477897965361
-0.2876,-0.11896307320565094
-0.2886,-0.11893477897965361
-0.2896,-0.11890648475365632
-0.2906,-0.11889233764065768
-0.2916,-0.11887819052765905
-0.2926,-0.118920631866655
-0.2936,-0.118920631866655
-0.29460000000000003,-0.11890648475365632
-0.29560000000000003,-0.11887819052765905
-0.29660000000000003,-0.11889233764065768
-0.29760000000000003,-0.118920631866655
-0.29860000000000003,-0.11890648475365632
-0.29960000000000003,-0.11887819052765905
-0.30060000000000003,-0.11887819052765905
-0.30160000000000003,-0.11889233764065768
-0.30260000000000004,-0.11890648475365632
-0.30360000000000004,-0.11890648475365632
-0.30460000000000004,-0.11887819052765905
-0.30560000000000004,-0.11884989630166173
-0.30660000000000004,-0.11887819052765905
-0.30760000000000004,-0.118920631866655
-0.30860000000000004,-0.11889233764065768
-0.30960000000000004,-0.11887819052765905
-0.31060000000000004,-0.11887819052765905
-0.31160000000000004,-0.11887819052765905
-0.31260000000000004,-0.11893477897965361
-0.31360000000000005,-0.11893477897965361
-0.31460000000000005,-0.118920631866655
-0.31560000000000005,-0.118920631866655
-0.31660000000000005,-0.11893477897965361
-0.31760000000000005,-0.11897722031864959
-0.31860000000000005,-0.11897722031864959
-0.31960000000000005,-0.11899136743164823
-0.32060000000000005,-0.11896307320565094
-0.32160000000000005,-0.11899136743164823
-0.32260000000000005,-0.11903380877064418
-0.32360000000000005,-0.11904795588364282
-0.32460000000000006,-0.11903380877064418
-0.32560000000000006,-0.11901966165764555
-0.32660000000000006,-0.11904795588364282
-0.32760000000000006,-0.11909039722263878
-0.32860000000000006,-0.11909039722263878
-0.32960000000000006,-0.11907625010964012
-0.33060000000000006,-0.11907625010964012
-0.33160000000000006,-0.11910454433563744
-0.33260000000000006,-0.11916113278763205
-0.33360000000000006,-0.11916113278763205
-0.33460000000000006,-0.11916113278763205
-0.33560000000000006,-0.11916113278763205
-0.33660000000000007,-0.11920357412662799
-0.33760000000000007,-0.1192601625786226
-0.33860000000000007,-0.1192601625786226
-0.33960000000000007,-0.1192601625786226
-0.34060000000000007,-0.1192601625786226
-0.34160000000000007,-0.11933089814361585
-0.34260000000000007,-0.11937333948261179
-0.34360000000000007,-0.11935919236961315
-0.3446000000000001,-0.11937333948261179
-0.3456000000000001,-0.11937333948261179
-0.3466000000000001,-0.11942992793460638
-0.34759999999999996,-0.119486516386601
-0.3486000000000001,-0.11950066349959966
-0.34959999999999997,-0.11952895772559695
-0.3506000000000001,-0.11952895772559695
-0.35159999999999997,-0.11958554617759155
-0.3526000000000001,-0.11961384040358886
-0.35359999999999997,-0.11961384040358886
-0.3546000000000001,-0.11961384040358886
-0.35559999999999997,-0.11964213462958616
-0.3566000000000001,-0.11969872308158076
-0.3576,-0.1197977528725713
-0.3586000000000001,-0.1197977528725713
-0.3596,-0.11978360575957266
-0.3606000000000001,-0.1198260470985686
-0.3616,-0.11988263555056322
-0.3626000000000001,-0.1199675182285551
-0.3636,-0.12000995956755106
-0.3646000000000001,-0.12003825379354836
-0.3656,-0.12008069513254432
-0.3666000000000001,-0.12012313647154027
-0.3676,-0.12017972492353488
-0.3686000000000001,-0.12017972492353488
-0.3696,-0.12017972492353488
-0.3706000000000001,-0.12023631337552945
-0.3716,-0.1202787547145254
-0.3726000000000001,-0.12033534316652002
-0.3736,-0.12039193161851462
-0.3746000000000001,-0.12040607873151328
-0.3756,-0.12043437295751057
-0.3766000000000001,-0.12051925563550246
-0.3776,-0.12057584408749707
-0.3786000000000001,-0.12058999120049572
-0.3796,-0.12063243253949167
-0.3806000000000001,-0.12064657965249034
-0.3816,-0.12070316810448493
-0.3826000000000001,-0.12078805078247684
-0.3836,-0.12081634500847413
-0.3846000000000001,-0.12084463923447143
-0.3856,-0.12085878634747008
-0.3866000000000001,-0.12095781613846063
-0.3876,-0.12104269881645255
-0.3886000000000001,-0.12107099304244984
-0.3896,-0.12109928726844714
-0.3906000000000001,-0.12112758149444444
-0.3916,-0.12121246417243635
-0.3926000000000001,-0.12128319973742961
-0.3936,-0.1213114939634269
-0.3946000000000001,-0.12133978818942417
-0.3956,-0.12138222952842014
-0.3966000000000001,-0.12148125931941069
-0.3976,-0.12158028911040124
-0.3986000000000001,-0.12160858333639855
-0.3996,-0.1216227304493972
-0.4006000000000001,-0.1216793189013918
-0.4016,-0.12176420157938371
-0.4026000000000001,-0.12186323137037425
-0.4036,-0.12190567270937022
-0.4046000000000001,-0.12193396693536751
-0.4056,-0.12197640827436346
-0.40660000000000013,-0.12207543806535401
-0.4076,-0.12217446785634459
-0.40860000000000013,-0.12225935053433647
-0.4096,-0.12228764476033378
-0.41060000000000013,-0.12233008609932973
-0.4116,-0.12241496877732162
-0.41260000000000013,-0.12249985145531352
-0.4136,-0.12258473413330541
-0.41460000000000014,-0.12261302835930274
-0.4156,-0.12264132258530001
-0.41660000000000014,-0.12275449948928924
-0.4176,-0.12282523505428247
-0.41860000000000014,-0.12288182350627709
-0.41960000000000003,-0.12295255907127035
-0.42060000000000014,-0.12300914752326494
-0.42160000000000003,-0.12313647154025278
-0.42260000000000014,-0.12324964844424201
-0.42360000000000003,-0.12326379555724064
-0.42460000000000014,-0.12336282534823118
-0.42560000000000003,-0.12343356091322445
-0.42660000000000015,-0.12353259070421502
-0.42760000000000004,-0.12361747338220691
-0.42860000000000015,-0.12367406183420152
-0.42960000000000004,-0.12373065028619613
-0.43060000000000015,-0.12375894451219341
-0.43160000000000004,-0.12387212141618263
-0.43260000000000015,-0.12397115120717317
-0.43360000000000004,-0.12401359254616913
-0.43460000000000015,-0.12409847522416102
-0.43560000000000004,-0.12415506367615564
