Mar. 16, 2025   15:20:19
Cyclic Voltammetry
File: c:/users/guazh/data/banditlqround7_x0exp891_r5/2025-03-03-exp913\exp913-2025-03-16t14_59_01-h2koh\exp913_cv_sr_700mvs_efin_-1900mv.bin
Data Source:  Experiment
Instrument Model:  CHI760E
Header: CV ran at 700 mVs
Note: 

Init E (V) = -1
High E (V) = -1
Low E (V) = -1.9
Final E (V) = -1
Init P/N = N
Scan Rate (V/s) = 0.7
Segment = 3
Sample Interval (V) = 0.001
Quiet Time (sec) = 2
Sensitivity (A/V) = 0.01
Comp R (ohm) = 3.2

Results:

Channel 1:
Segment 1:

Segment 2:
Segment 3:

Potential/V, Current/A

-1.000, 3.239e-6
-1.001, 3.239e-6
-1.002, 3.239e-6
-1.003, 3.239e-6
-1.004, 3.239e-6
-1.005, 3.239e-6
-1.006, 3.239e-6
-1.007, 3.239e-6
-1.008, 3.239e-6
-1.009, 3.239e-6
-1.010, 3.239e-6
-1.011, 3.239e-6
-1.012, 3.239e-6
-1.013, 3.239e-6
-1.014, 3.239e-6
-1.015, 3.239e-6
-1.016, 3.239e-6
-1.017, 3.239e-6
-1.018, 3.239e-6
-1.019, 3.239e-6
-1.020, 3.239e-6
-1.021, 3.239e-6
-1.022, 3.239e-6
-1.023, 3.239e-6
-1.024, 3.239e-6
-1.025, 3.239e-6
-1.026, 6.322e-6
-1.027, 3.239e-6
-1.028, 3.239e-6
-1.029, 3.239e-6
-1.030, 3.239e-6
-1.031, 3.239e-6
-1.032, 3.239e-6
-1.033, 6.322e-6
-1.034, 3.239e-6
-1.035, 3.239e-6
-1.036, 3.239e-6
-1.037, 6.322e-6
-1.038, 6.322e-6
-1.039, 3.239e-6
-1.040, 6.322e-6
-1.041, 6.322e-6
-1.042, 6.322e-6
-1.043, 6.322e-6
-1.044, 6.322e-6
-1.045, 3.239e-6
-1.046, 6.322e-6
-1.047, 3.239e-6
-1.048, 6.322e-6
-1.049, 6.322e-6
-1.050, 6.322e-6
-1.051, 6.322e-6
-1.052, 3.239e-6
-1.053, 6.322e-6
-1.054, 6.322e-6
-1.055, 6.322e-6
-1.056, 6.322e-6
-1.057, 6.322e-6
-1.058, 6.322e-6
-1.059, 6.322e-6
-1.060, 6.322e-6
-1.061, 6.322e-6
-1.062, 6.322e-6
-1.063, 6.322e-6
-1.064, 6.322e-6
-1.065, 6.322e-6
-1.066, 6.322e-6
-1.067, 6.322e-6
-1.068, 3.239e-6
-1.069, 6.322e-6
-1.070, 6.322e-6
-1.071, 6.322e-6
-1.072, 6.322e-6
-1.073, 6.322e-6
-1.074, 6.322e-6
-1.075, 6.322e-6
-1.076, 6.322e-6
-1.077, 6.322e-6
-1.078, 6.322e-6
-1.079, 6.322e-6
-1.080, 6.322e-6
-1.081, 6.322e-6
-1.082, 6.322e-6
-1.083, 6.322e-6
-1.084, 6.322e-6
-1.085, 6.322e-6
-1.086, 6.322e-6
-1.087, 6.322e-6
-1.088, 6.322e-6
-1.089, 6.322e-6
-1.090, 6.322e-6
-1.091, 6.322e-6
-1.092, 6.322e-6
-1.093, 6.322e-6
-1.094, 6.322e-6
-1.095, 6.322e-6
-1.096, 6.322e-6
-1.097, 6.322e-6
-1.098, 6.322e-6
-1.099, 6.322e-6
-1.100, 6.322e-6
-1.101, 6.322e-6
-1.102, 6.322e-6
-1.103, 6.322e-6
-1.104, 6.322e-6
-1.105, 6.322e-6
-1.106, 6.322e-6
-1.107, 6.322e-6
-1.108, 6.322e-6
-1.109, 6.322e-6
-1.110, 6.322e-6
-1.111, 6.322e-6
-1.112, 6.322e-6
-1.113, 6.322e-6
-1.114, 6.322e-6
-1.115, 6.322e-6
-1.116, 6.322e-6
-1.117, 6.322e-6
-1.118, 6.322e-6
-1.119, 6.322e-6
-1.120, 6.322e-6
-1.121, 6.322e-6
-1.122, 6.322e-6
-1.123, 6.322e-6
-1.124, 6.322e-6
-1.125, 6.322e-6
-1.126, 6.322e-6
-1.127, 6.322e-6
-1.128, 6.322e-6
-1.129, 6.322e-6
-1.130, 6.322e-6
-1.131, 6.322e-6
-1.132, 6.322e-6
-1.133, 6.322e-6
-1.134, 6.322e-6
-1.135, 6.322e-6
-1.136, 6.322e-6
-1.137, 6.322e-6
-1.138, 6.322e-6
-1.139, 6.322e-6
-1.140, 6.322e-6
-1.141, 6.322e-6
-1.142, 6.322e-6
-1.143, 6.322e-6
-1.144, 6.322e-6
-1.145, 6.322e-6
-1.146, 6.322e-6
-1.147, 6.322e-6
-1.148, 6.322e-6
-1.149, 6.322e-6
-1.150, 6.322e-6
-1.151, 6.322e-6
-1.152, 6.322e-6
-1.153, 6.322e-6
-1.154, 6.322e-6
-1.155, 6.322e-6
-1.156, 6.322e-6
-1.157, 6.322e-6
-1.158, 6.322e-6
-1.159, 6.322e-6
-1.160, 6.322e-6
-1.161, 6.322e-6
-1.162, 6.322e-6
-1.163, 6.322e-6
-1.164, 6.322e-6
-1.165, 6.322e-6
-1.166, 9.405e-6
-1.167, 6.322e-6
-1.168, 6.322e-6
-1.169, 6.322e-6
-1.170, 6.322e-6
-1.171, 9.405e-6
-1.172, 6.322e-6
-1.173, 6.322e-6
-1.174, 6.322e-6
-1.175, 9.405e-6
-1.176, 6.322e-6
-1.177, 9.405e-6
-1.178, 6.322e-6
-1.179, 6.322e-6
-1.180, 9.405e-6
-1.181, 6.322e-6
-1.182, 9.405e-6
-1.183, 6.322e-6
-1.184, 9.405e-6
-1.185, 6.322e-6
-1.186, 9.405e-6
-1.187, 6.322e-6
-1.188, 6.322e-6
-1.189, 9.405e-6
-1.190, 6.322e-6
-1.191, 9.405e-6
-1.192, 6.322e-6
-1.193, 9.405e-6
-1.194, 6.322e-6
-1.195, 9.405e-6
-1.196, 9.405e-6
-1.197, 9.405e-6
-1.198, 9.405e-6
-1.199, 9.405e-6
-1.200, 9.405e-6
-1.201, 9.405e-6
-1.202, 9.405e-6
-1.203, 6.322e-6
-1.204, 9.405e-6
-1.205, 6.322e-6
-1.206, 9.405e-6
-1.207, 9.405e-6
-1.208, 6.322e-6
-1.209, 9.405e-6
-1.210, 9.405e-6
-1.211, 6.322e-6
-1.212, 9.405e-6
-1.213, 9.405e-6
-1.214, 9.405e-6
-1.215, 6.322e-6
-1.216, 9.405e-6
-1.217, 6.322e-6
-1.218, 9.405e-6
-1.219, 9.405e-6
-1.220, 9.405e-6
-1.221, 9.405e-6
-1.222, 9.405e-6
-1.223, 9.405e-6
-1.224, 9.405e-6
-1.225, 9.405e-6
-1.226, 9.405e-6
-1.227, 9.405e-6
-1.228, 9.405e-6
-1.229, 9.405e-6
-1.230, 9.405e-6
-1.231, 9.405e-6
-1.232, 9.405e-6
-1.233, 9.405e-6
-1.234, 9.405e-6
-1.235, 9.405e-6
-1.236, 9.405e-6
-1.237, 9.405e-6
-1.238, 9.405e-6
-1.239, 9.405e-6
-1.240, 9.405e-6
-1.241, 9.405e-6
-1.242, 9.405e-6
-1.243, 9.405e-6
-1.244, 9.405e-6
-1.245, 9.405e-6
-1.246, 9.405e-6
-1.247, 9.405e-6
-1.248, 9.405e-6
-1.249, 9.405e-6
-1.250, 9.405e-6
-1.251, 9.405e-6
-1.252, 9.405e-6
-1.253, 9.405e-6
-1.254, 9.405e-6
-1.255, 9.405e-6
-1.256, 9.405e-6
-1.257, 9.405e-6
-1.258, 9.405e-6
-1.259, 9.405e-6
-1.260, 9.405e-6
-1.261, 9.405e-6
-1.262, 9.405e-6
-1.263, 9.405e-6
-1.264, 9.405e-6
-1.265, 9.405e-6
-1.266, 9.405e-6
-1.267, 9.405e-6
-1.268, 9.405e-6
-1.269, 9.405e-6
-1.270, 9.405e-6
-1.271, 9.405e-6
-1.272, 9.405e-6
-1.273, 9.405e-6
-1.274, 9.405e-6
-1.275, 9.405e-6
-1.276, 9.405e-6
-1.277, 9.405e-6
-1.278, 9.405e-6
-1.279, 9.405e-6
-1.280, 9.405e-6
-1.281, 1.249e-5
-1.282, 9.405e-6
-1.283, 9.405e-6
-1.284, 9.405e-6
-1.285, 9.405e-6
-1.286, 1.249e-5
-1.287, 9.405e-6
-1.288, 1.249e-5
-1.289, 9.405e-6
-1.290, 9.405e-6
-1.291, 9.405e-6
-1.292, 9.405e-6
-1.293, 9.405e-6
-1.294, 9.405e-6
-1.295, 9.405e-6
-1.296, 9.405e-6
-1.297, 9.405e-6
-1.298, 9.405e-6
-1.299, 9.405e-6
-1.300, 9.405e-6
-1.301, 9.405e-6
-1.302, 1.249e-5
-1.303, 9.405e-6
-1.304, 9.405e-6
-1.305, 9.405e-6
-1.306, 9.405e-6
-1.307, 9.405e-6
-1.308, 9.405e-6
-1.309, 9.405e-6
-1.310, 9.405e-6
-1.311, 1.249e-5
-1.312, 9.405e-6
-1.313, 1.249e-5
-1.314, 9.405e-6
-1.315, 1.249e-5
-1.316, 9.405e-6
-1.317, 1.249e-5
-1.318, 1.249e-5
-1.319, 9.405e-6
-1.320, 9.405e-6
-1.321, 9.405e-6
-1.322, 1.249e-5
-1.323, 9.405e-6
-1.324, 1.249e-5
-1.325, 9.405e-6
-1.326, 1.249e-5
-1.327, 9.405e-6
-1.328, 1.249e-5
-1.329, 1.249e-5
-1.330, 9.405e-6
-1.331, 1.249e-5
-1.332, 9.405e-6
-1.333, 1.249e-5
-1.334, 1.249e-5
-1.335, 1.249e-5
-1.336, 1.249e-5
-1.337, 1.249e-5
-1.338, 1.249e-5
-1.339, 1.249e-5
-1.340, 1.249e-5
-1.341, 1.249e-5
-1.342, 1.249e-5
-1.343, 1.249e-5
-1.344, 1.249e-5
-1.345, 1.249e-5
-1.346, 9.405e-6
-1.347, 1.249e-5
-1.348, 1.249e-5
-1.349, 1.249e-5
-1.350, 1.249e-5
-1.351, 1.249e-5
-1.352, 1.249e-5
-1.353, 1.249e-5
-1.354, 1.249e-5
-1.355, 1.249e-5
-1.356, 1.249e-5
-1.357, 1.249e-5
-1.358, 1.249e-5
-1.359, 1.249e-5
-1.360, 1.249e-5
-1.361, 1.249e-5
-1.362, 1.249e-5
-1.363, 1.249e-5
-1.364, 1.249e-5
-1.365, 1.249e-5
-1.366, 1.249e-5
-1.367, 1.249e-5
-1.368, 1.249e-5
-1.369, 1.249e-5
-1.370, 1.249e-5
-1.371, 1.249e-5
-1.372, 1.249e-5
-1.373, 1.249e-5
-1.374, 1.249e-5
-1.375, 1.249e-5
-1.376, 1.249e-5
-1.377, 1.249e-5
-1.378, 1.249e-5
-1.379, 1.249e-5
-1.380, 1.249e-5
-1.381, 1.249e-5
-1.382, 1.249e-5
-1.383, 1.249e-5
-1.384, 1.249e-5
-1.385, 1.249e-5
-1.386, 1.249e-5
-1.387, 1.249e-5
-1.388, 1.249e-5
-1.389, 1.249e-5
-1.390, 1.249e-5
-1.391, 1.249e-5
-1.392, 1.249e-5
-1.393, 1.249e-5
-1.394, 1.249e-5
-1.395, 1.249e-5
-1.396, 1.249e-5
-1.397, 1.249e-5
-1.398, 1.249e-5
-1.399, 1.557e-5
-1.400, 1.249e-5
-1.401, 1.249e-5
-1.402, 1.249e-5
-1.403, 1.249e-5
-1.404, 1.249e-5
-1.405, 1.249e-5
-1.406, 1.249e-5
-1.407, 1.249e-5
-1.408, 1.249e-5
-1.409, 1.249e-5
-1.410, 1.249e-5
-1.411, 1.249e-5
-1.412, 1.557e-5
-1.413, 1.249e-5
-1.414, 1.249e-5
-1.415, 1.249e-5
-1.416, 1.249e-5
-1.417, 1.557e-5
-1.418, 1.249e-5
-1.419, 1.249e-5
-1.420, 1.249e-5
-1.421, 1.557e-5
-1.422, 1.249e-5
-1.423, 1.557e-5
-1.424, 1.249e-5
-1.425, 1.249e-5
-1.426, 1.249e-5
-1.427, 1.249e-5
-1.428, 1.557e-5
-1.429, 1.249e-5
-1.430, 1.557e-5
-1.431, 1.249e-5
-1.432, 1.249e-5
-1.433, 1.249e-5
-1.434, 1.557e-5
-1.435, 1.557e-5
-1.436, 1.557e-5
-1.437, 1.557e-5
-1.438, 1.249e-5
-1.439, 1.557e-5
-1.440, 1.557e-5
-1.441, 1.557e-5
-1.442, 1.557e-5
-1.443, 1.557e-5
-1.444, 1.557e-5
-1.445, 1.249e-5
-1.446, 1.557e-5
-1.447, 1.557e-5
-1.448, 1.557e-5
-1.449, 1.557e-5
-1.450, 1.557e-5
-1.451, 1.557e-5
-1.452, 1.557e-5
-1.453, 1.557e-5
-1.454, 1.557e-5
-1.455, 1.557e-5
-1.456, 1.557e-5
-1.457, 1.557e-5
-1.458, 1.557e-5
-1.459, 1.557e-5
-1.460, 1.557e-5
-1.461, 1.557e-5
-1.462, 1.557e-5
-1.463, 1.557e-5
-1.464, 1.557e-5
-1.465, 1.557e-5
-1.466, 1.557e-5
-1.467, 1.557e-5
-1.468, 1.557e-5
-1.469, 1.557e-5
-1.470, 1.557e-5
-1.471, 1.557e-5
-1.472, 1.557e-5
-1.473, 1.557e-5
-1.474, 1.557e-5
-1.475, 1.557e-5
-1.476, 1.557e-5
-1.477, 1.557e-5
-1.478, 1.557e-5
-1.479, 1.557e-5
-1.480, 1.557e-5
-1.481, 1.557e-5
-1.482, 1.557e-5
-1.483, 1.557e-5
-1.484, 1.557e-5
-1.485, 1.557e-5
-1.486, 1.557e-5
-1.487, 1.557e-5
-1.488, 1.557e-5
-1.489, 1.557e-5
-1.490, 1.557e-5
-1.491, 1.557e-5
-1.492, 1.557e-5
-1.493, 1.557e-5
-1.494, 1.557e-5
-1.495, 1.557e-5
-1.496, 1.557e-5
-1.497, 1.557e-5
-1.498, 1.865e-5
-1.499, 1.557e-5
-1.500, 1.557e-5
-1.501, 1.557e-5
-1.502, 1.557e-5
-1.503, 1.557e-5
-1.504, 1.557e-5
-1.505, 1.557e-5
-1.506, 1.557e-5
-1.507, 1.865e-5
-1.508, 1.557e-5
-1.509, 1.865e-5
-1.510, 1.557e-5
-1.511, 1.865e-5
-1.512, 1.865e-5
-1.513, 1.557e-5
-1.514, 1.865e-5
-1.515, 1.557e-5
-1.516, 1.865e-5
-1.517, 1.865e-5
-1.518, 1.865e-5
-1.519, 1.557e-5
-1.520, 1.557e-5
-1.521, 1.865e-5
-1.522, 1.865e-5
-1.523, 1.865e-5
-1.524, 1.865e-5
-1.525, 1.865e-5
-1.526, 1.865e-5
-1.527, 1.865e-5
-1.528, 1.865e-5
-1.529, 1.865e-5
-1.530, 1.865e-5
-1.531, 1.865e-5
-1.532, 1.865e-5
-1.533, 1.865e-5
-1.534, 1.865e-5
-1.535, 1.865e-5
-1.536, 1.865e-5
-1.537, 1.865e-5
-1.538, 1.865e-5
-1.539, 1.865e-5
-1.540, 1.865e-5
-1.541, 1.865e-5
-1.542, 1.865e-5
-1.543, 1.865e-5
-1.544, 1.865e-5
-1.545, 1.865e-5
-1.546, 1.865e-5
-1.547, 1.865e-5
-1.548, 1.865e-5
-1.549, 1.865e-5
-1.550, 1.865e-5
-1.551, 1.865e-5
-1.552, 1.865e-5
-1.553, 1.865e-5
-1.554, 1.865e-5
-1.555, 1.865e-5
-1.556, 1.865e-5
-1.557, 2.174e-5
-1.558, 2.174e-5
-1.559, 2.174e-5
-1.560, 1.865e-5
-1.561, 2.174e-5
-1.562, 2.174e-5
-1.563, 2.174e-5
-1.564, 2.174e-5
-1.565, 2.174e-5
-1.566, 2.174e-5
-1.567, 1.865e-5
-1.568, 2.174e-5
-1.569, 2.174e-5
-1.570, 2.174e-5
-1.571, 2.174e-5
-1.572, 2.174e-5
-1.573, 2.174e-5
-1.574, 2.174e-5
-1.575, 2.174e-5
-1.576, 2.174e-5
-1.577, 2.174e-5
-1.578, 2.174e-5
-1.579, 2.174e-5
-1.580, 2.174e-5
-1.581, 2.174e-5
-1.582, 2.174e-5
-1.583, 2.174e-5
-1.584, 2.174e-5
-1.585, 2.174e-5
-1.586, 2.482e-5
-1.587, 2.174e-5
-1.588, 2.482e-5
-1.589, 2.174e-5
-1.590, 2.482e-5
-1.591, 2.482e-5
-1.592, 2.482e-5
-1.593, 2.482e-5
-1.594, 2.482e-5
-1.595, 2.482e-5
-1.596, 2.482e-5
-1.597, 2.482e-5
-1.598, 2.482e-5
-1.599, 2.482e-5
-1.600, 2.482e-5
-1.601, 2.482e-5
-1.602, 2.482e-5
-1.603, 2.482e-5
-1.604, 2.790e-5
-1.605, 2.790e-5
-1.606, 2.482e-5
-1.607, 2.790e-5
-1.608, 2.790e-5
-1.609, 2.790e-5
-1.610, 2.482e-5
-1.611, 2.790e-5
-1.612, 2.790e-5
-1.613, 2.790e-5
-1.614, 2.790e-5
-1.615, 2.790e-5
-1.616, 2.790e-5
-1.617, 2.790e-5
-1.618, 3.099e-5
-1.619, 2.790e-5
-1.620, 3.099e-5
-1.621, 3.099e-5
-1.622, 3.099e-5
-1.623, 3.099e-5
-1.624, 3.099e-5
-1.625, 3.099e-5
-1.626, 3.099e-5
-1.627, 3.099e-5
-1.628, 3.099e-5
-1.629, 3.099e-5
-1.630, 3.099e-5
-1.631, 3.407e-5
-1.632, 3.407e-5
-1.633, 3.407e-5
-1.634, 3.407e-5
-1.635, 3.407e-5
-1.636, 3.407e-5
-1.637, 3.407e-5
-1.638, 3.715e-5
-1.639, 3.407e-5
-1.640, 3.715e-5
-1.641, 3.715e-5
-1.642, 3.715e-5
-1.643, 3.715e-5
-1.644, 3.715e-5
-1.645, 4.024e-5
-1.646, 3.715e-5
-1.647, 4.024e-5
-1.648, 4.024e-5
-1.649, 4.024e-5
-1.650, 4.024e-5
-1.651, 4.024e-5
-1.652, 4.024e-5
-1.653, 4.332e-5
-1.654, 4.332e-5
-1.655, 4.332e-5
-1.656, 4.332e-5
-1.657, 4.332e-5
-1.658, 4.640e-5
-1.659, 4.640e-5
-1.660, 4.640e-5
-1.661, 4.640e-5
-1.662, 4.640e-5
-1.663, 4.949e-5
-1.664, 4.949e-5
-1.665, 4.949e-5
-1.666, 4.949e-5
-1.667, 5.257e-5
-1.668, 5.257e-5
-1.669, 5.257e-5
-1.670, 5.565e-5
-1.671, 5.565e-5
-1.672, 5.565e-5
-1.673, 5.565e-5
-1.674, 5.873e-5
-1.675, 5.873e-5
-1.676, 5.873e-5
-1.677, 6.182e-5
-1.678, 6.182e-5
-1.679, 6.182e-5
-1.680, 6.182e-5
-1.681, 6.490e-5
-1.682, 6.490e-5
-1.683, 6.798e-5
-1.684, 6.798e-5
-1.685, 7.107e-5
-1.686, 7.107e-5
-1.687, 7.415e-5
-1.688, 7.415e-5
-1.689, 7.415e-5
-1.690, 7.723e-5
-1.691, 7.723e-5
-1.692, 8.032e-5
-1.693, 8.032e-5
-1.694, 8.340e-5
-1.695, 8.648e-5
-1.696, 8.648e-5
-1.697, 8.957e-5
-1.698, 8.957e-5
-1.699, 9.265e-5
-1.700, 9.573e-5
-1.701, 9.573e-5
-1.702, 9.882e-5
-1.703, 1.019e-4
-1.704, 1.050e-4
-1.705, 1.050e-4
-1.706, 1.081e-4
-1.707, 1.111e-4
-1.708, 1.142e-4
-1.709, 1.173e-4
-1.710, 1.204e-4
-1.711, 1.235e-4
-1.712, 1.235e-4
-1.713, 1.266e-4
-1.714, 1.296e-4
-1.715, 1.327e-4
-1.716, 1.358e-4
-1.717, 1.389e-4
-1.718, 1.420e-4
-1.719, 1.481e-4
-1.720, 1.512e-4
-1.721, 1.543e-4
-1.722, 1.605e-4
-1.723, 1.636e-4
-1.724, 1.697e-4
-1.725, 1.728e-4
-1.726, 1.759e-4
-1.727, 1.821e-4
-1.728, 1.851e-4
-1.729, 1.913e-4
-1.730, 1.975e-4
-1.731, 2.036e-4
-1.732, 2.067e-4
-1.733, 2.129e-4
-1.734, 2.191e-4
-1.735, 2.252e-4
-1.736, 2.314e-4
-1.737, 2.376e-4
-1.738, 2.437e-4
-1.739, 2.499e-4
-1.740, 2.591e-4
-1.741, 2.653e-4
-1.742, 2.746e-4
-1.743, 2.807e-4
-1.744, 2.900e-4
-1.745, 2.992e-4
-1.746, 3.054e-4
-1.747, 3.146e-4
-1.748, 3.239e-4
-1.749, 3.362e-4
-1.750, 3.455e-4
-1.751, 3.547e-4
-1.752, 3.640e-4
-1.753, 3.763e-4
-1.754, 3.886e-4
-1.755, 4.010e-4
-1.756, 4.102e-4
-1.757, 4.225e-4
-1.758, 4.380e-4
-1.759, 4.503e-4
-1.760, 4.657e-4
-1.761, 4.780e-4
-1.762, 4.935e-4
-1.763, 5.089e-4
-1.764, 5.243e-4
-1.765, 5.428e-4
-1.766, 5.582e-4
-1.767, 5.767e-4
-1.768, 5.921e-4
-1.769, 6.137e-4
-1.770, 6.322e-4
-1.771, 6.507e-4
-1.772, 6.723e-4
-1.773, 6.939e-4
-1.774, 7.154e-4
-1.775, 7.370e-4
-1.776, 7.617e-4
-1.777, 7.863e-4
-1.778, 8.110e-4
-1.779, 8.357e-4
-1.780, 8.634e-4
-1.781, 8.912e-4
-1.782, 9.189e-4
-1.783, 9.467e-4
-1.784, 9.775e-4
-1.785, 1.008e-3
-1.786, 1.039e-3
-1.787, 1.073e-3
-1.788, 1.107e-3
-1.789, 1.141e-3
-1.790, 1.175e-3
-1.791, 1.212e-3
-1.792, 1.246e-3
-1.793, 1.286e-3
-1.794, 1.326e-3
-1.795, 1.366e-3
-1.796, 1.409e-3
-1.797, 1.452e-3
-1.798, 1.495e-3
-1.799, 1.539e-3
-1.800, 1.585e-3
-1.801, 1.634e-3
-1.802, 1.680e-3
-1.803, 1.733e-3
-1.804, 1.782e-3
-1.805, 1.835e-3
-1.806, 1.890e-3
-1.807, 1.946e-3
-1.808, 2.001e-3
-1.809, 2.057e-3
-1.810, 2.115e-3
-1.811, 2.174e-3
-1.812, 2.235e-3
-1.813, 2.297e-3
-1.814, 2.359e-3
-1.815, 2.423e-3
-1.816, 2.488e-3
-1.817, 2.556e-3
-1.818, 2.624e-3
-1.819, 2.695e-3
-1.820, 2.763e-3
-1.821, 2.834e-3
-1.822, 2.908e-3
-1.823, 2.982e-3
-1.824, 3.052e-3
-1.825, 3.130e-3
-1.826, 3.207e-3
-1.827, 3.284e-3
-1.828, 3.364e-3
-1.829, 3.447e-3
-1.830, 3.530e-3
-1.831, 3.614e-3
-1.832, 3.700e-3
-1.833, 3.786e-3
-1.834, 3.869e-3
-1.835, 3.959e-3
-1.836, 4.045e-3
-1.837, 4.135e-3
-1.838, 4.221e-3
-1.839, 4.313e-3
-1.840, 4.403e-3
-1.841, 4.495e-3
-1.842, 4.588e-3
-1.843, 4.683e-3
-1.844, 4.776e-3
-1.845, 4.875e-3
-1.846, 4.970e-3
-1.847, 5.069e-3
-1.848, 5.171e-3
-1.849, 5.272e-3
-1.850, 5.371e-3
-1.851, 5.473e-3
-1.852, 5.578e-3
-1.853, 5.682e-3
-1.854, 5.784e-3
-1.855, 5.889e-3
-1.856, 5.991e-3
-1.857, 6.095e-3
-1.858, 6.203e-3
-1.859, 6.305e-3
-1.860, 6.410e-3
-1.861, 6.515e-3
-1.862, 6.623e-3
-1.863, 6.731e-3
-1.864, 6.845e-3
-1.865, 6.959e-3
-1.866, 7.076e-3
-1.867, 7.193e-3
-1.868, 7.307e-3
-1.869, 7.424e-3
-1.870, 7.538e-3
-1.871, 7.652e-3
-1.872, 7.763e-3
-1.873, 7.874e-3
-1.874, 7.985e-3
-1.875, 8.093e-3
-1.876, 8.201e-3
-1.877, 8.312e-3
-1.878, 8.426e-3
-1.879, 8.537e-3
-1.880, 8.645e-3
-1.881, 8.762e-3
-1.882, 8.876e-3
-1.883, 8.994e-3
-1.884, 9.111e-3
-1.885, 9.228e-3
-1.886, 9.351e-3
-1.887, 9.468e-3
-1.888, 9.589e-3
-1.889, 9.709e-3
-1.890, 9.826e-3
-1.891, 9.943e-3
-1.892, 1.006e-2
-1.893, 1.017e-2
-1.894, 1.029e-2
-1.895, 1.041e-2
-1.896, 1.053e-2
-1.897, 1.065e-2
-1.898, 1.077e-2
-1.899, 1.090e-2
-1.900, 1.097e-2
-1.899, 1.095e-2
-1.898, 1.092e-2
-1.897, 1.089e-2
-1.896, 1.085e-2
-1.895, 1.081e-2
-1.894, 1.077e-2
-1.893, 1.072e-2
-1.892, 1.067e-2
-1.891, 1.062e-2
-1.890, 1.057e-2
-1.889, 1.052e-2
-1.888, 1.047e-2
-1.887, 1.041e-2
-1.886, 1.036e-2
-1.885, 1.030e-2
-1.884, 1.024e-2
-1.883, 1.018e-2
-1.882, 1.012e-2
-1.881, 1.005e-2
-1.880, 9.986e-3
-1.879, 9.925e-3
-1.878, 9.863e-3
-1.877, 9.801e-3
-1.876, 9.740e-3
-1.875, 9.678e-3
-1.874, 9.616e-3
-1.873, 9.549e-3
-1.872, 9.481e-3
-1.871, 9.413e-3
-1.870, 9.345e-3
-1.869, 9.277e-3
-1.868, 9.209e-3
-1.867, 9.145e-3
-1.866, 9.080e-3
-1.865, 9.018e-3
-1.864, 8.960e-3
-1.863, 8.895e-3
-1.862, 8.830e-3
-1.861, 8.762e-3
-1.860, 8.695e-3
-1.859, 8.627e-3
-1.858, 8.556e-3
-1.857, 8.485e-3
-1.856, 8.411e-3
-1.855, 8.340e-3
-1.854, 8.272e-3
-1.853, 8.204e-3
-1.852, 8.140e-3
-1.851, 8.075e-3
-1.850, 8.010e-3
-1.849, 7.945e-3
-1.848, 7.881e-3
-1.847, 7.816e-3
-1.846, 7.748e-3
-1.845, 7.683e-3
-1.844, 7.615e-3
-1.843, 7.548e-3
-1.842, 7.483e-3
-1.841, 7.418e-3
-1.840, 7.353e-3
-1.839, 7.289e-3
-1.838, 7.221e-3
-1.837, 7.156e-3
-1.836, 7.088e-3
-1.835, 7.027e-3
-1.834, 6.962e-3
-1.833, 6.897e-3
-1.832, 6.832e-3
-1.831, 6.768e-3
-1.830, 6.706e-3
-1.829, 6.644e-3
-1.828, 6.583e-3
-1.827, 6.521e-3
-1.826, 6.459e-3
-1.825, 6.398e-3
-1.824, 6.336e-3
-1.823, 6.274e-3
-1.822, 6.213e-3
-1.821, 6.154e-3
-1.820, 6.092e-3
-1.819, 6.034e-3
-1.818, 5.975e-3
-1.817, 5.917e-3
-1.816, 5.861e-3
-1.815, 5.799e-3
-1.814, 5.738e-3
-1.813, 5.679e-3
-1.812, 5.618e-3
-1.811, 5.559e-3
-1.810, 5.497e-3
-1.809, 5.439e-3
-1.808, 5.380e-3
-1.807, 5.322e-3
-1.806, 5.266e-3
-1.805, 5.208e-3
-1.804, 5.152e-3
-1.803, 5.097e-3
-1.802, 5.044e-3
-1.801, 4.989e-3
-1.800, 4.936e-3
-1.799, 4.884e-3
-1.798, 4.831e-3
-1.797, 4.779e-3
-1.796, 4.727e-3
-1.795, 4.674e-3
-1.794, 4.622e-3
-1.793, 4.566e-3
-1.792, 4.511e-3
-1.791, 4.458e-3
-1.790, 4.403e-3
-1.789, 4.350e-3
-1.788, 4.298e-3
-1.787, 4.246e-3
-1.786, 4.196e-3
-1.785, 4.147e-3
-1.784, 4.101e-3
-1.783, 4.051e-3
-1.782, 4.005e-3
-1.781, 3.956e-3
-1.780, 3.910e-3
-1.779, 3.860e-3
-1.778, 3.811e-3
-1.777, 3.765e-3
-1.776, 3.715e-3
-1.775, 3.672e-3
-1.774, 3.626e-3
-1.773, 3.583e-3
-1.772, 3.540e-3
-1.771, 3.499e-3
-1.770, 3.456e-3
-1.769, 3.416e-3
-1.768, 3.373e-3
-1.767, 3.333e-3
-1.766, 3.290e-3
-1.765, 3.247e-3
-1.764, 3.204e-3
-1.763, 3.157e-3
-1.762, 3.114e-3
-1.761, 3.074e-3
-1.760, 3.031e-3
-1.759, 2.994e-3
-1.758, 2.954e-3
-1.757, 2.917e-3
-1.756, 2.880e-3
-1.755, 2.843e-3
-1.754, 2.806e-3
-1.753, 2.769e-3
-1.752, 2.732e-3
-1.751, 2.698e-3
-1.750, 2.661e-3
-1.749, 2.624e-3
-1.748, 2.590e-3
-1.747, 2.553e-3
-1.746, 2.519e-3
-1.745, 2.485e-3
-1.744, 2.448e-3
-1.743, 2.414e-3
-1.742, 2.377e-3
-1.741, 2.343e-3
-1.740, 2.309e-3
-1.739, 2.275e-3
-1.738, 2.242e-3
-1.737, 2.211e-3
-1.736, 2.183e-3
-1.735, 2.152e-3
-1.734, 2.121e-3
-1.733, 2.094e-3
-1.732, 2.063e-3
-1.731, 2.029e-3
-1.730, 2.001e-3
-1.729, 1.973e-3
-1.728, 1.943e-3
-1.727, 1.915e-3
-1.726, 1.887e-3
-1.725, 1.859e-3
-1.724, 1.832e-3
-1.723, 1.804e-3
-1.722, 1.776e-3
-1.721, 1.751e-3
-1.720, 1.724e-3
-1.719, 1.699e-3
-1.718, 1.671e-3
-1.717, 1.647e-3
-1.716, 1.622e-3
-1.715, 1.597e-3
-1.714, 1.573e-3
-1.713, 1.548e-3
-1.712, 1.526e-3
-1.711, 1.502e-3
-1.710, 1.480e-3
-1.709, 1.455e-3
-1.708, 1.434e-3
-1.707, 1.412e-3
-1.706, 1.388e-3
-1.705, 1.369e-3
-1.704, 1.344e-3
-1.703, 1.326e-3
-1.702, 1.304e-3
-1.701, 1.283e-3
-1.700, 1.264e-3
-1.699, 1.243e-3
-1.698, 1.224e-3
-1.697, 1.206e-3
-1.696, 1.187e-3
-1.695, 1.166e-3
-1.694, 1.147e-3
-1.693, 1.129e-3
-1.692, 1.110e-3
-1.691, 1.092e-3
-1.690, 1.073e-3
-1.689, 1.058e-3
-1.688, 1.039e-3
-1.687, 1.021e-3
-1.686, 1.005e-3
-1.685, 9.898e-4
-1.684, 9.744e-4
-1.683, 9.559e-4
-1.682, 9.405e-4
-1.681, 9.251e-4
-1.680, 9.097e-4
-1.679, 8.943e-4
-1.678, 8.788e-4
-1.677, 8.634e-4
-1.676, 8.480e-4
-1.675, 8.357e-4
-1.674, 8.203e-4
-1.673, 8.048e-4
-1.672, 7.925e-4
-1.671, 7.771e-4
-1.670, 7.648e-4
-1.669, 7.524e-4
-1.668, 7.370e-4
-1.667, 7.247e-4
-1.666, 7.124e-4
-1.665, 7.000e-4
-1.664, 6.877e-4
-1.663, 6.754e-4
-1.662, 6.630e-4
-1.661, 6.507e-4
-1.660, 6.414e-4
-1.659, 6.291e-4
-1.658, 6.168e-4
-1.657, 6.044e-4
-1.656, 5.952e-4
-1.655, 5.859e-4
-1.654, 5.736e-4
-1.653, 5.644e-4
-1.652, 5.520e-4
-1.651, 5.428e-4
-1.650, 5.305e-4
-1.649, 5.212e-4
-1.648, 5.120e-4
-1.647, 5.027e-4
-1.646, 4.935e-4
-1.645, 4.842e-4
-1.644, 4.750e-4
-1.643, 4.657e-4
-1.642, 4.595e-4
-1.641, 4.472e-4
-1.640, 4.410e-4
-1.639, 4.318e-4
-1.638, 4.225e-4
-1.637, 4.164e-4
-1.636, 4.071e-4
-1.635, 4.010e-4
-1.634, 3.917e-4
-1.633, 3.855e-4
-1.632, 3.763e-4
-1.631, 3.701e-4
-1.630, 3.640e-4
-1.629, 3.547e-4
-1.628, 3.485e-4
-1.627, 3.393e-4
-1.626, 3.331e-4
-1.625, 3.270e-4
-1.624, 3.208e-4
-1.623, 3.146e-4
-1.622, 3.085e-4
-1.621, 3.023e-4
-1.620, 2.961e-4
-1.619, 2.900e-4
-1.618, 2.838e-4
-1.617, 2.776e-4
-1.616, 2.715e-4
-1.615, 2.684e-4
-1.614, 2.622e-4
-1.613, 2.561e-4
-1.612, 2.499e-4
-1.611, 2.437e-4
-1.610, 2.406e-4
-1.609, 2.345e-4
-1.608, 2.314e-4
-1.607, 2.252e-4
-1.606, 2.221e-4
-1.605, 2.160e-4
-1.604, 2.098e-4
-1.603, 2.067e-4
-1.602, 2.006e-4
-1.601, 1.975e-4
-1.600, 1.944e-4
-1.599, 1.882e-4
-1.598, 1.851e-4
-1.597, 1.821e-4
-1.596, 1.759e-4
-1.595, 1.728e-4
-1.594, 1.697e-4
-1.593, 1.666e-4
-1.592, 1.636e-4
-1.591, 1.574e-4
-1.590, 1.543e-4
-1.589, 1.512e-4
-1.588, 1.481e-4
-1.587, 1.420e-4
-1.586, 1.420e-4
-1.585, 1.389e-4
-1.584, 1.358e-4
-1.583, 1.296e-4
-1.582, 1.266e-4
-1.581, 1.266e-4
-1.580, 1.204e-4
-1.579, 1.204e-4
-1.578, 1.173e-4
-1.577, 1.142e-4
-1.576, 1.111e-4
-1.575, 1.081e-4
-1.574, 1.050e-4
-1.573, 1.019e-4
-1.572, 1.019e-4
-1.571, 9.882e-5
-1.570, 9.573e-5
-1.569, 9.265e-5
-1.568, 8.957e-5
-1.567, 8.957e-5
-1.566, 8.648e-5
-1.565, 8.340e-5
-1.564, 8.340e-5
-1.563, 8.032e-5
-1.562, 7.723e-5
-1.561, 7.723e-5
-1.560, 7.415e-5
-1.559, 7.107e-5
-1.558, 7.107e-5
-1.557, 6.798e-5
-1.556, 6.798e-5
-1.555, 6.490e-5
-1.554, 6.490e-5
-1.553, 6.182e-5
-1.552, 5.873e-5
-1.551, 5.873e-5
-1.550, 5.565e-5
-1.549, 5.565e-5
-1.548, 5.257e-5
-1.547, 5.257e-5
-1.546, 4.949e-5
-1.545, 4.949e-5
-1.544, 4.640e-5
-1.543, 4.640e-5
-1.542, 4.640e-5
-1.541, 4.332e-5
-1.540, 4.332e-5
-1.539, 4.024e-5
-1.538, 4.024e-5
-1.537, 4.024e-5
-1.536, 3.715e-5
-1.535, 3.715e-5
-1.534, 3.715e-5
-1.533, 3.407e-5
-1.532, 3.407e-5
-1.531, 3.407e-5
-1.530, 3.099e-5
-1.529, 3.099e-5
-1.528, 2.790e-5
-1.527, 3.099e-5
-1.526, 2.790e-5
-1.525, 2.790e-5
-1.524, 2.482e-5
-1.523, 2.482e-5
-1.522, 2.482e-5
-1.521, 2.482e-5
-1.520, 2.482e-5
-1.519, 2.174e-5
-1.518, 2.174e-5
-1.517, 1.865e-5
-1.516, 1.865e-5
-1.515, 1.865e-5
-1.514, 1.865e-5
-1.513, 1.865e-5
-1.512, 1.865e-5
-1.511, 1.865e-5
-1.510, 1.557e-5
-1.509, 1.557e-5
-1.508, 1.557e-5
-1.507, 1.249e-5
-1.506, 1.249e-5
-1.505, 1.249e-5
-1.504, 1.249e-5
-1.503, 1.249e-5
-1.502, 1.249e-5
-1.501, 9.405e-6
-1.500, 9.405e-6
-1.499, 9.405e-6
-1.498, 9.405e-6
-1.497, 9.405e-6
-1.496, 9.405e-6
-1.495, 9.405e-6
-1.494, 9.405e-6
-1.493, 9.405e-6
-1.492, 6.322e-6
-1.491, 6.322e-6
-1.490, 6.322e-6
-1.489, 6.322e-6
-1.488, 6.322e-6
-1.487, 6.322e-6
-1.486, 6.322e-6
-1.485, 6.322e-6
-1.484, 6.322e-6
-1.483, 3.239e-6
-1.482, 6.322e-6
-1.481, 3.239e-6
-1.480, 3.239e-6
-1.479, 6.322e-6
-1.478, 3.239e-6
-1.477, 3.239e-6
-1.476, 3.239e-6
-1.475, 3.239e-6
-1.474, 3.239e-6
-1.473, 3.239e-6
-1.472, 3.239e-6
-1.471, 1.559e-7
-1.470, 1.559e-7
-1.469, 3.239e-6
-1.468, 3.239e-6
-1.467, 1.559e-7
-1.466, 3.239e-6
-1.465, 1.559e-7
-1.464, 1.559e-7
-1.463, 1.559e-7
-1.462, 1.559e-7
-1.461, 1.559e-7
-1.460, 1.559e-7
-1.459, 1.559e-7
-1.458, 1.559e-7
-1.457, 1.559e-7
-1.456, 1.559e-7
-1.455, 1.559e-7
-1.454, 1.559e-7
-1.453, 1.559e-7
-1.452, 1.559e-7
-1.451, 1.559e-7
-1.450, 1.559e-7
-1.449, -2.927e-6
-1.448, 1.559e-7
-1.447, 1.559e-7
-1.446, -2.927e-6
-1.445, 1.559e-7
-1.444, 1.559e-7
-1.443, 1.559e-7
-1.442, -2.927e-6
-1.441, 1.559e-7
-1.440, -2.927e-6
-1.439, -2.927e-6
-1.438, -2.927e-6
-1.437, -2.927e-6
-1.436, -2.927e-6
-1.435, -2.927e-6
-1.434, -2.927e-6
-1.433, -2.927e-6
-1.432, -2.927e-6
-1.431, -2.927e-6
-1.430, -2.927e-6
-1.429, -2.927e-6
-1.428, -2.927e-6
-1.427, -2.927e-6
-1.426, -2.927e-6
-1.425, -2.927e-6
-1.424, -2.927e-6
-1.423, -2.927e-6
-1.422, -2.927e-6
-1.421, -2.927e-6
-1.420, -2.927e-6
-1.419, -2.927e-6
-1.418, -2.927e-6
-1.417, -2.927e-6
-1.416, -2.927e-6
-1.415, -2.927e-6
-1.414, -2.927e-6
-1.413, -2.927e-6
-1.412, -2.927e-6
-1.411, -2.927e-6
-1.410, -2.927e-6
-1.409, -2.927e-6
-1.408, -2.927e-6
-1.407, -2.927e-6
-1.406, -2.927e-6
-1.405, -2.927e-6
-1.404, -2.927e-6
-1.403, -2.927e-6
-1.402, -2.927e-6
-1.401, -2.927e-6
-1.400, -2.927e-6
-1.399, -2.927e-6
-1.398, -2.927e-6
-1.397, -2.927e-6
-1.396, -2.927e-6
-1.395, -2.927e-6
-1.394, -6.010e-6
-1.393, -2.927e-6
-1.392, -2.927e-6
-1.391, -2.927e-6
-1.390, -2.927e-6
-1.389, -2.927e-6
-1.388, -2.927e-6
-1.387, -2.927e-6
-1.386, -2.927e-6
-1.385, -2.927e-6
-1.384, -2.927e-6
-1.383, -2.927e-6
-1.382, -2.927e-6
-1.381, -2.927e-6
-1.380, -2.927e-6
-1.379, -6.010e-6
-1.378, -2.927e-6
-1.377, -2.927e-6
-1.376, -2.927e-6
-1.375, -2.927e-6
-1.374, -2.927e-6
-1.373, -2.927e-6
-1.372, -2.927e-6
-1.371, -2.927e-6
-1.370, -2.927e-6
-1.369, -2.927e-6
-1.368, -2.927e-6
-1.367, -2.927e-6
-1.366, -2.927e-6
-1.365, -6.010e-6
-1.364, -2.927e-6
-1.363, -2.927e-6
-1.362, -2.927e-6
-1.361, -2.927e-6
-1.360, -6.010e-6
-1.359, -2.927e-6
-1.358, -6.010e-6
-1.357, -2.927e-6
-1.356, -2.927e-6
-1.355, -2.927e-6
-1.354, -6.010e-6
-1.353, -2.927e-6
-1.352, -2.927e-6
-1.351, -2.927e-6
-1.350, -2.927e-6
-1.349, -2.927e-6
-1.348, -2.927e-6
-1.347, -2.927e-6
-1.346, -2.927e-6
-1.345, -2.927e-6
-1.344, -2.927e-6
-1.343, -2.927e-6
-1.342, -6.010e-6
-1.341, -2.927e-6
-1.340, -2.927e-6
-1.339, -2.927e-6
-1.338, -6.010e-6
-1.337, -2.927e-6
-1.336, -6.010e-6
-1.335, -2.927e-6
-1.334, -2.927e-6
-1.333, -2.927e-6
-1.332, -2.927e-6
-1.331, -6.010e-6
-1.330, -2.927e-6
-1.329, -2.927e-6
-1.328, -2.927e-6
-1.327, -6.010e-6
-1.326, -2.927e-6
-1.325, -2.927e-6
-1.324, -6.010e-6
-1.323, -2.927e-6
-1.322, -2.927e-6
-1.321, -2.927e-6
-1.320, -2.927e-6
-1.319, -2.927e-6
-1.318, -6.010e-6
-1.317, -6.010e-6
-1.316, -2.927e-6
-1.315, -6.010e-6
-1.314, -2.927e-6
-1.313, -2.927e-6
-1.312, -2.927e-6
-1.311, -2.927e-6
-1.310, -2.927e-6
-1.309, -6.010e-6
-1.308, -6.010e-6
-1.307, -2.927e-6
-1.306, -6.010e-6
-1.305, -2.927e-6
-1.304, -6.010e-6
-1.303, -2.927e-6
-1.302, -6.010e-6
-1.301, -2.927e-6
-1.300, -6.010e-6
-1.299, -6.010e-6
-1.298, -6.010e-6
-1.297, -2.927e-6
-1.296, -6.010e-6
-1.295, -6.010e-6
-1.294, -2.927e-6
-1.293, -2.927e-6
-1.292, -2.927e-6
-1.291, -6.010e-6
-1.290, -6.010e-6
-1.289, -6.010e-6
-1.288, -2.927e-6
-1.287, -2.927e-6
-1.286, -6.010e-6
-1.285, -2.927e-6
-1.284, -6.010e-6
-1.283, -6.010e-6
-1.282, -2.927e-6
-1.281, -2.927e-6
-1.280, -2.927e-6
-1.279, -6.010e-6
-1.278, -2.927e-6
-1.277, -6.010e-6
-1.276, -2.927e-6
-1.275, -6.010e-6
-1.274, -2.927e-6
-1.273, -6.010e-6
-1.272, -6.010e-6
-1.271, -2.927e-6
-1.270, -6.010e-6
-1.269, -2.927e-6
-1.268, -6.010e-6
-1.267, -2.927e-6
-1.266, -6.010e-6
-1.265, -2.927e-6
-1.264, -2.927e-6
-1.263, -6.010e-6
-1.262, -6.010e-6
-1.261, -6.010e-6
-1.260, -6.010e-6
-1.259, -6.010e-6
-1.258, -2.927e-6
-1.257, -6.010e-6
-1.256, -6.010e-6
-1.255, -6.010e-6
-1.254, -6.010e-6
-1.253, -2.927e-6
-1.252, -6.010e-6
-1.251, -2.927e-6
-1.250, -6.010e-6
-1.249, -2.927e-6
-1.248, -6.010e-6
-1.247, -6.010e-6
-1.246, -2.927e-6
-1.245, -6.010e-6
-1.244, -2.927e-6
-1.243, -6.010e-6
-1.242, -2.927e-6
-1.241, -6.010e-6
-1.240, -6.010e-6
-1.239, -6.010e-6
-1.238, -6.010e-6
-1.237, -2.927e-6
-1.236, -6.010e-6
-1.235, -2.927e-6
-1.234, -6.010e-6
-1.233, -6.010e-6
-1.232, -6.010e-6
-1.231, -2.927e-6
-1.230, -2.927e-6
-1.229, -6.010e-6
-1.228, -2.927e-6
-1.227, -6.010e-6
-1.226, -2.927e-6
-1.225, -6.010e-6
-1.224, -2.927e-6
-1.223, -6.010e-6
-1.222, -2.927e-6
-1.221, -6.010e-6
-1.220, -6.010e-6
-1.219, -6.010e-6
-1.218, -6.010e-6
-1.217, -2.927e-6
-1.216, -6.010e-6
-1.215, -6.010e-6
-1.214, -6.010e-6
-1.213, -6.010e-6
-1.212, -6.010e-6
-1.211, -2.927e-6
-1.210, -6.010e-6
-1.209, -6.010e-6
-1.208, -2.927e-6
-1.207, -6.010e-6
-1.206, -6.010e-6
-1.205, -6.010e-6
-1.204, -6.010e-6
-1.203, -6.010e-6
-1.202, -6.010e-6
-1.201, -6.010e-6
-1.200, -6.010e-6
-1.199, -6.010e-6
-1.198, -6.010e-6
-1.197, -2.927e-6
-1.196, -6.010e-6
-1.195, -6.010e-6
-1.194, -2.927e-6
-1.193, -6.010e-6
-1.192, -6.010e-6
-1.191, -6.010e-6
-1.190, -6.010e-6
-1.189, -6.010e-6
-1.188, -6.010e-6
-1.187, -6.010e-6
-1.186, -6.010e-6
-1.185, -6.010e-6
-1.184, -6.010e-6
-1.183, -6.010e-6
-1.182, -6.010e-6
-1.181, -6.010e-6
-1.180, -6.010e-6
-1.179, -6.010e-6
-1.178, -6.010e-6
-1.177, -6.010e-6
-1.176, -2.927e-6
-1.175, -6.010e-6
-1.174, -6.010e-6
-1.173, -6.010e-6
-1.172, -6.010e-6
-1.171, -6.010e-6
-1.170, -6.010e-6
-1.169, -6.010e-6
-1.168, -6.010e-6
-1.167, -2.927e-6
-1.166, -6.010e-6
-1.165, -2.927e-6
-1.164, -6.010e-6
-1.163, -6.010e-6
-1.162, -6.010e-6
-1.161, -6.010e-6
-1.160, -6.010e-6
-1.159, -6.010e-6
-1.158, -6.010e-6
-1.157, -6.010e-6
-1.156, -6.010e-6
-1.155, -6.010e-6
-1.154, -6.010e-6
-1.153, -6.010e-6
-1.152, -6.010e-6
-1.151, -6.010e-6
-1.150, -6.010e-6
-1.149, -6.010e-6
-1.148, -6.010e-6
-1.147, -6.010e-6
-1.146, -6.010e-6
-1.145, -6.010e-6
-1.144, -6.010e-6
-1.143, -6.010e-6
-1.142, -6.010e-6
-1.141, -6.010e-6
-1.140, -6.010e-6
-1.139, -6.010e-6
-1.138, -6.010e-6
-1.137, -6.010e-6
-1.136, -6.010e-6
-1.135, -6.010e-6
-1.134, -6.010e-6
-1.133, -6.010e-6
-1.132, -6.010e-6
-1.131, -6.010e-6
-1.130, -6.010e-6
-1.129, -2.927e-6
-1.128, -6.010e-6
-1.127, -6.010e-6
-1.126, -6.010e-6
-1.125, -6.010e-6
-1.124, -6.010e-6
-1.123, -6.010e-6
-1.122, -6.010e-6
-1.121, -6.010e-6
-1.120, -6.010e-6
-1.119, -6.010e-6
-1.118, -6.010e-6
-1.117, -6.010e-6
-1.116, -6.010e-6
-1.115, -6.010e-6
-1.114, -6.010e-6
-1.113, -6.010e-6
-1.112, -6.010e-6
-1.111, -6.010e-6
-1.110, -6.010e-6
-1.109, -6.010e-6
-1.108, -6.010e-6
-1.107, -6.010e-6
-1.106, -2.927e-6
-1.105, -6.010e-6
-1.104, -6.010e-6
-1.103, -6.010e-6
-1.102, -6.010e-6
-1.101, -6.010e-6
-1.100, -6.010e-6
-1.099, -6.010e-6
-1.098, -6.010e-6
-1.097, -6.010e-6
-1.096, -6.010e-6
-1.095, -6.010e-6
-1.094, -6.010e-6
-1.093, -6.010e-6
-1.092, -6.010e-6
-1.091, -6.010e-6
-1.090, -6.010e-6
-1.089, -6.010e-6
-1.088, -6.010e-6
-1.087, -6.010e-6
-1.086, -6.010e-6
-1.085, -6.010e-6
-1.084, -6.010e-6
-1.083, -6.010e-6
-1.082, -6.010e-6
-1.081, -6.010e-6
-1.080, -6.010e-6
-1.079, -6.010e-6
-1.078, -6.010e-6
-1.077, -6.010e-6
-1.076, -6.010e-6
-1.075, -6.010e-6
-1.074, -6.010e-6
-1.073, -6.010e-6
-1.072, -6.010e-6
-1.071, -6.010e-6
-1.070, -6.010e-6
-1.069, -6.010e-6
-1.068, -6.010e-6
-1.067, -6.010e-6
-1.066, -6.010e-6
-1.065, -6.010e-6
-1.064, -6.010e-6
-1.063, -6.010e-6
-1.062, -6.010e-6
-1.061, -6.010e-6
-1.060, -6.010e-6
-1.059, -6.010e-6
-1.058, -6.010e-6
-1.057, -6.010e-6
-1.056, -6.010e-6
-1.055, -6.010e-6
-1.054, -6.010e-6
-1.053, -6.010e-6
-1.052, -6.010e-6
-1.051, -6.010e-6
-1.050, -6.010e-6
-1.049, -6.010e-6
-1.048, -6.010e-6
-1.047, -6.010e-6
-1.046, -6.010e-6
-1.045, -6.010e-6
-1.044, -6.010e-6
-1.043, -6.010e-6
-1.042, -6.010e-6
-1.041, -6.010e-6
-1.040, -6.010e-6
-1.039, -6.010e-6
-1.038, -6.010e-6
-1.037, -6.010e-6
-1.036, -6.010e-6
-1.035, -6.010e-6
-1.034, -6.010e-6
-1.033, -6.010e-6
-1.032, -6.010e-6
-1.031, -6.010e-6
-1.030, -6.010e-6
-1.029, -6.010e-6
-1.028, -6.010e-6
-1.027, -6.010e-6
-1.026, -6.010e-6
-1.025, -6.010e-6
-1.024, -6.010e-6
-1.023, -6.010e-6
-1.022, -6.010e-6
-1.021, -6.010e-6
-1.020, -6.010e-6
-1.019, -6.010e-6
-1.018, -6.010e-6
-1.017, -6.010e-6
-1.016, -6.010e-6
-1.015, -6.010e-6
-1.014, -6.010e-6
-1.013, -6.010e-6
-1.012, -6.010e-6
-1.011, -6.010e-6
-1.010, -6.010e-6
-1.009, -6.010e-6
-1.008, -9.093e-6
-1.007, -6.010e-6
-1.006, -6.010e-6
-1.005, -6.010e-6
-1.004, -6.010e-6
-1.003, -6.010e-6
-1.002, -6.010e-6
-1.001, -6.010e-6
