Potential V vs RHE, Current mA cm-2
0.4132999999999999,-0.008393482142099264
0.4122999999999999,-0.009938346881551883
0.4112999999999999,-0.010371248539310585
0.4102999999999999,-0.010599017058588853
0.4092999999999999,-0.010761708858073333
0.4082999999999999,-0.010889032875061187
0.4072999999999999,-0.011037577561547015
0.4062999999999999,-0.011142266197737028
0.4052999999999999,-0.011276663771224207
0.4042999999999999,-0.01136720529441557
0.4032999999999999,-0.01143794085940882
0.4022999999999999,-0.011528482382600184
0.4012999999999999,-0.01161760919449168
0.4002999999999999,-0.011708150717683045
0.3992999999999999,-0.011808595219973463
0.3982999999999999,-0.011875086651067117
0.3972999999999999,-0.01193733394826118
0.3962999999999999,-0.012017972492353486
0.3952999999999999,-0.012067487387848764
0.3942999999999999,-0.012150955354540801
0.39329999999999987,-0.01219905553873621
0.39229999999999987,-0.012271205815029329
0.39129999999999987,-0.01233345311222339
0.39029999999999987,-0.012395700409417452
0.38929999999999987,-0.012449459438812323
0.38829999999999987,-0.012514536158606114
0.38729999999999987,-0.012548489229802876
0.38629999999999987,-0.012630542485195047
0.38529999999999986,-0.012699863338888435
0.38429999999999986,-0.01273806054398479
0.38329999999999986,-0.012810210820277905
0.38229999999999986,-0.012848408025374264
0.38129999999999986,-0.012907825899968596
0.38029999999999986,-0.012988464444060903
0.37929999999999986,-0.013039394050856043
0.37829999999999986,-0.013074761833352669
0.37729999999999986,-0.013134179707946999
0.37629999999999986,-0.013172376913043356
0.37529999999999986,-0.013247356611936205
0.37429999999999986,-0.013295456796131614
0.37329999999999985,-0.013335068712527836
0.37229999999999985,-0.013393071875822303
0.37129999999999985,-0.013442586771317579
0.37029999999999985,-0.01351332233631083
0.36929999999999985,-0.013568496077005568
0.36829999999999985,-0.013582643190004217
0.36729999999999985,-0.013639231641998819
0.36629999999999985,-0.013684502403594501
0.36529999999999985,-0.013739676144289234
0.36429999999999985,-0.013799094018883568
0.36329999999999985,-0.013818899977081677
0.36229999999999984,-0.013851438336978574
0.36129999999999984,-0.013920759190671962
0.36029999999999984,-0.013983006487866021
0.35929999999999984,-0.014043839073760219
0.35829999999999984,-0.014045253785060085
0.35729999999999984,-0.014113159927453607
0.35629999999999984,-0.014147112998650365
0.35529999999999984,-0.014217848563643616
0.35429999999999984,-0.01424614278964092
0.35329999999999984,-0.01430273124163552
0.35229999999999984,-0.014316878354634173
0.35129999999999983,-0.014387613919627423
0.35029999999999983,-0.014430055258623373
0.34929999999999983,-0.014472496597619325
0.34829999999999983,-0.014529085049613928
0.34729999999999983,-0.014571526388609878
0.34629999999999983,-0.014628114840604478
0.34529999999999983,-0.014670556179600431
0.34429999999999983,-0.01469885040559773
0.3432999999999998,-0.014741291744593682
0.3422999999999998,-0.014769585970590984
0.3412999999999998,-0.014826174422585584
0.3402999999999998,-0.014911057100577486
0.3392999999999998,-0.014925204213576137
0.3382999999999998,-0.014981792665570736
0.3372999999999998,-0.01501008689156804
0.3362999999999998,-0.01505252823056399
0.3352999999999998,-0.015123263795557243
0.3342999999999998,-0.015151558021554544
0.3332999999999998,-0.015165705134553195
0.3322999999999998,-0.015208146473549147
0.3312999999999998,-0.015250587812545097
0.3302999999999998,-0.015307176264539698
0.3292999999999998,-0.015321323377538347
0.3282999999999998,-0.0153637647165343
0.3272999999999998,-0.015406206055530251
0.3262999999999998,-0.015448647394526203
0.3252999999999999,-0.015505235846520802
0.3242999999999999,-0.015547677185516754
0.3232999999999999,-0.015575971411514053
0.3222999999999999,-0.015618412750510005
0.3212999999999999,-0.015675001202504608
0.3202999999999999,-0.01573158965449921
0.3192999999999999,-0.01575988388049651
0.3182999999999999,-0.01580232521949246
0.3172999999999999,-0.01583061944548976
0.3162999999999999,-0.01588720789748436
0.3152999999999999,-0.01591550212348166
0.3142999999999999,-0.015957943462477614
0.3132999999999999,-0.015986237688474913
0.3122999999999999,-0.016014531914472215
0.3112999999999999,-0.01608526747946547
0.3102999999999999,-0.016127708818461418
0.3092999999999999,-0.01615600304445872
0.3082999999999999,-0.01619844438345467
0.3072999999999999,-0.016226738609451972
0.3062999999999999,-0.016283327061446574
0.3052999999999999,-0.016325768400442524
0.3042999999999999,-0.016354062626439823
0.3032999999999999,-0.016410651078434424
0.3022999999999999,-0.016424798191433075
0.3012999999999999,-0.016453092417430374
0.3002999999999999,-0.016552122208420932
0.2992999999999999,-0.01658041643441823
0.2982999999999999,-0.01662285777341418
0.2972999999999999,-0.01666529911241013
0.2962999999999999,-0.016693593338407434
0.2952999999999999,-0.016778476016399334
0.2942999999999999,-0.016778476016399334
0.2932999999999999,-0.016820917355395284
0.2922999999999999,-0.016849211581392583
0.2912999999999999,-0.01687750580738989
0.2902999999999999,-0.016962388485381792
0.2892999999999999,-0.01697653559838044
0.2882999999999999,-0.017004829824377742
0.2872999999999999,-0.01706141827637234
0.2862999999999999,-0.017118006728366945
0.2852999999999999,-0.017174595180361543
0.2842999999999999,-0.017217036519357496
0.2832999999999999,-0.0172453307453548
0.2822999999999999,-0.017273624971352097
0.2812999999999999,-0.01731606631034805
0.2802999999999999,-0.017372654762342652
0.2792999999999999,-0.017400948988339954
0.2782999999999999,-0.0174150961013386
0.2772999999999999,-0.017471684553333203
0.2762999999999999,-0.017514125892329157
0.2752999999999999,-0.017570714344323755
0.2742999999999999,-0.017599008570321057
0.2732999999999999,-0.017627302796318356
0.2722999999999999,-0.01765559702231566
0.2712999999999999,-0.01771218547431026
0.2702999999999999,-0.01776877392630486
0.2692999999999999,-0.017797068152302163
0.26829999999999987,-0.017839509491298113
0.26729999999999987,-0.017867803717295416
0.26629999999999987,-0.017910245056291362
0.26529999999999987,-0.017980980621284618
0.26429999999999987,-0.017995127734283266
0.26329999999999987,-0.018023421960280565
0.26229999999999987,-0.01803756907327922
0.26129999999999987,-0.018108304638272472
0.26029999999999986,-0.01817904020326572
0.25929999999999986,-0.01820733442926302
0.25829999999999986,-0.018249775768258973
0.25729999999999986,-0.018292217107254923
0.25629999999999986,-0.018334658446250877
0.25529999999999986,-0.018391246898245478
0.25429999999999986,-0.018419541124242777
0.25329999999999986,-0.018447835350240076
0.25229999999999986,-0.01849027668923603
0.25129999999999986,-0.01851857091523333
0.25029999999999986,-0.018575159367227933
0.24929999999999986,-0.018603453593225232
0.24829999999999985,-0.018645894932221182
0.24729999999999985,-0.018702483384215783
0.24629999999999985,-0.018730777610213082
0.24529999999999985,-0.018801513175206338
0.24429999999999985,-0.01882980740120364
0.24329999999999985,-0.018843954514202284
0.24229999999999985,-0.018886395853198238
0.24129999999999985,-0.018942984305192843
0.24029999999999985,-0.018985425644188793
0.23929999999999985,-0.019027866983184743
0.23829999999999985,-0.019056161209182042
0.23729999999999984,-0.019098602548177995
0.23629999999999984,-0.019169338113171244
0.23529999999999984,-0.019197632339168547
0.23429999999999984,-0.019240073678164497
0.23329999999999984,-0.0192683679041618
0.23229999999999984,-0.0192966621301591
0.23129999999999984,-0.019367397695152354
0.23029999999999984,-0.0194098390341483
0.22929999999999984,-0.019438133260145606
0.22829999999999984,-0.019494721712140204
0.22729999999999984,-0.019523015938137503
0.22629999999999983,-0.019579604390132108
0.22529999999999983,-0.01963619284212671
0.22429999999999983,-0.01965033995512536
0.22329999999999983,-0.01967863418112266
0.22229999999999983,-0.01970692840711996
0.22129999999999983,-0.019763516859114563
0.22029999999999983,-0.019834252424107815
0.21929999999999983,-0.019862546650105117
0.21829999999999983,-0.019904987989101064
0.21729999999999983,-0.019961576441095665
0.21629999999999983,-0.019989870667092968
0.21529999999999982,-0.02006060623208622
0.21429999999999982,-0.02006060623208622
0.21329999999999982,-0.020103047571082173
0.21229999999999982,-0.020145488910078124
0.21129999999999982,-0.020187930249074077
0.21029999999999982,-0.020258665814067326
0.20929999999999982,-0.020301107153063276
0.20829999999999982,-0.02032940137906058
0.20729999999999982,-0.02038598983105518
0.20629999999999982,-0.02042843117005113
0.20529999999999982,-0.02048501962204573
0.20429999999999982,-0.020513313848043033
0.20329999999999981,-0.02055575518703898
0.2022999999999998,-0.020584049413036282
0.2012999999999998,-0.020654784978029535
0.20029999999999992,-0.020697226317025485
0.19929999999999992,-0.02075381476902009
0.19829999999999992,-0.020767961882018737
0.19729999999999992,-0.020810403221014687
0.19629999999999992,-0.020895285899006594
0.19529999999999992,-0.020937727238002544
0.19429999999999992,-0.021008462802995797
0.19329999999999992,-0.021065051254990398
0.19229999999999992,-0.021050904141991744
0.19129999999999991,-0.021121639706984996
0.1902999999999999,-0.021164081045980946
0.1892999999999999,-0.02119237527197825
0.1882999999999999,-0.0212348166109742
0.1872999999999999,-0.021291405062968803
0.1862999999999999,-0.021347993514963404
0.1852999999999999,-0.021404581966958002
0.1842999999999999,-0.021418729079956657
0.1832999999999999,-0.021475317531951258
0.1822999999999999,-0.02150361175794856
0.1812999999999999,-0.02157434732294181
0.1802999999999999,-0.02163093577493641
0.1792999999999999,-0.021645082887935062
0.1782999999999999,-0.021701671339929663
0.1772999999999999,-0.021744112678925617
0.1762999999999999,-0.021814848243918866
0.1752999999999999,-0.021885583808912118
0.1742999999999999,-0.02189973092191077
0.1732999999999999,-0.021928025147908068
0.1722999999999999,-0.02198461359990267
0.1712999999999999,-0.02204120205189727
0.1702999999999999,-0.022097790503891875
0.1692999999999999,-0.022111937616890523
0.1682999999999999,-0.022168526068885124
0.1672999999999999,-0.022239261633878377
0.1662999999999999,-0.02230999719887163
0.1652999999999999,-0.022366585650866227
0.1642999999999999,-0.02240902698986218
0.1632999999999999,-0.02242317410286083
0.1622999999999999,-0.022479762554855433
0.1612999999999999,-0.022550498119848682
0.1602999999999999,-0.022578792345845984
0.1592999999999999,-0.022635380797840585
0.15829999999999989,-0.022663675023837888
0.15729999999999988,-0.02270611636283384
0.15629999999999988,-0.02280514615382439
0.15529999999999988,-0.022833440379821688
0.15429999999999988,-0.02287588171881764
0.15329999999999988,-0.022918323057813595
0.15229999999999988,-0.022960764396809545
0.15129999999999988,-0.023045647074801445
0.15029999999999988,-0.023073941300798748
0.14929999999999988,-0.02310223552679605
0.14829999999999988,-0.023172971091789302
0.14729999999999988,-0.0232012653177866
0.14629999999999987,-0.023286147995778505
0.14529999999999987,-0.023342736447773106
0.14429999999999987,-0.02338517778676906
0.14329999999999987,-0.023441766238763657
0.14229999999999987,-0.023512501803756906
0.14129999999999987,-0.02355494314275286
0.14029999999999987,-0.023625678707746112
0.13929999999999987,-0.023639825820744764
0.13829999999999987,-0.023682267159740714
0.13729999999999987,-0.02373885561173532
0.13629999999999987,-0.023809591176728567
0.13529999999999986,-0.023866179628723165
0.13429999999999986,-0.02389447385472047
0.13329999999999986,-0.02395106230671507
0.13229999999999986,-0.02400765075870967
0.13129999999999986,-0.024064239210704275
0.13029999999999986,-0.024134974775697527
0.12929999999999986,-0.024191563227692125
0.12829999999999986,-0.024219857453689427
0.12729999999999986,-0.02427644590568403
0.12629999999999986,-0.02433303435767863
0.12529999999999986,-0.024403769922671882
0.12429999999999986,-0.024460358374666487
0.12329999999999985,-0.024502799713662437
0.12229999999999985,-0.024559388165657038
0.12129999999999985,-0.024644270843648942
0.12029999999999985,-0.02467256506964624
0.11929999999999985,-0.024729153521640842
0.11829999999999985,-0.02475744774763814
0.11729999999999985,-0.02482818331263139
0.11629999999999985,-0.024898918877624646
0.11529999999999985,-0.024955507329619247
0.11429999999999985,-0.025012095781613848
0.11329999999999985,-0.02506868423360845
0.11229999999999984,-0.02509697845960575
0.11129999999999984,-0.025196008250596303
0.11029999999999984,-0.025266743815589552
0.10929999999999984,-0.025280890928588207
0.10829999999999984,-0.025337479380582808
0.10729999999999984,-0.02539406783257741
0.10629999999999984,-0.02547895051056931
0.10529999999999984,-0.02553553896256391
0.10429999999999984,-0.025577980301559864
0.10329999999999984,-0.025634568753554465
0.10229999999999984,-0.025691157205549067
0.10129999999999983,-0.02576189277054232
0.10029999999999983,-0.025832628335535568
0.09929999999999983,-0.02587506967453152
0.09829999999999983,-0.025931658126526123
0.09729999999999983,-0.02600239369151937
0.09629999999999983,-0.026087276369511275
0.09529999999999983,-0.02612971770850723
0.09429999999999983,-0.026158011934504528
0.09329999999999983,-0.02621460038649913
0.09229999999999983,-0.02628533595149238
0.09129999999999983,-0.026384365742482933
0.09029999999999982,-0.026440954194477534
0.08929999999999982,-0.026483395533473487
0.08829999999999982,-0.026539983985468085
0.08729999999999982,-0.02662486666345999
0.08629999999999982,-0.026709749341451892
0.08529999999999982,-0.026766337793446494
0.08429999999999982,-0.026837073358439746
0.08329999999999982,-0.026865367584437045
0.08229999999999982,-0.02692195603643165
0.08129999999999982,-0.027006838714423546
0.08029999999999982,-0.027063427166418155
0.07929999999999982,-0.027105868505414105
0.07829999999999981,-0.027162456957408702
0.07729999999999981,-0.027247339635400606
0.07629999999999981,-0.02734636942639116
0.07529999999999992,-0.027374663652388463
0.07429999999999992,-0.027445399217381712
0.07329999999999992,-0.02750198766937631
0.07229999999999992,-0.02755857612137091
0.07129999999999992,-0.027671753025360117
0.07029999999999992,-0.027714194364356067
0.06929999999999992,-0.027770782816350672
0.06829999999999992,-0.027841518381343924
0.06729999999999992,-0.02788395972033987
0.06629999999999991,-0.027997136624329073
0.06529999999999991,-0.02806787218932233
0.06429999999999991,-0.02809616641531963
0.06329999999999991,-0.02819519620631018
0.06229999999999991,-0.028237637545306133
0.06129999999999991,-0.028336667336296688
0.06029999999999991,-0.028421550014288588
0.05929999999999991,-0.02847813846628319
0.05829999999999991,-0.02854887403127644
0.05729999999999991,-0.02860546248327104
0.056299999999999906,-0.028676198048264292
0.055299999999999905,-0.028761080726256192
0.054299999999999904,-0.028817669178250797
0.0532999999999999,-0.02888840474324405
0.0522999999999999,-0.028973287421235953
0.0512999999999999,-0.029058170099227856
0.0502999999999999,-0.02912890566422111
0.0492999999999999,-0.029199641229214358
0.0482999999999999,-0.029256229681208955
0.0472999999999999,-0.029341112359200863
0.0462999999999999,-0.029425995037192763
0.045299999999999896,-0.02949673060218601
0.044299999999999895,-0.029567466167179264
0.043299999999999894,-0.029609907506175218
0.04229999999999989,-0.02970893729716577
0.04129999999999989,-0.02982211420115497
0.04029999999999989,-0.029921143992145526
0.03929999999999989,-0.029991879557138775
0.03829999999999989,-0.030034320896134725
0.03729999999999989,-0.030133350687125283
0.03629999999999989,-0.030218233365117184
0.03529999999999989,-0.030260674704113137
0.034299999999999886,-0.03033141026910639
0.033299999999999885,-0.03040214583409964
0.032299999999999884,-0.030487028512091542
0.031299999999999883,-0.030600205416080745
0.030299999999999883,-0.030670940981073994
0.02929999999999988,-0.030769970772064545
0.02829999999999988,-0.03085485345005645
0.02729999999999988,-0.0309255890150497
0.02629999999999988,-0.03103876591903891
0.025299999999999878,-0.031095354371033508
0.024299999999999877,-0.031137795710029458
0.023299999999999876,-0.031222678388021355
0.022299999999999875,-0.03130756106601326
0.021299999999999875,-0.03140659085700381
0.020299999999999874,-0.03149147353499571
0.019299999999999873,-0.031533914873991674
0.018299999999999872,-0.03163294466498222
0.01729999999999987,-0.03170368022997547
0.01629999999999987,-0.03181685713396468
0.01529999999999987,-0.03190173981195658
0.014299999999999868,-0.03195832826395118
0.013299999999999867,-0.03204321094194308
0.012299999999999978,-0.03211394650693633
0.011299999999999866,-0.03219882918492823
0.010299999999999976,-0.03229785897591879
0.009299999999999864,-0.03236859454091204
0.008299999999999974,-0.032467624331902596
0.007299999999999862,-0.032538359896895845
0.006299999999999972,-0.03265153680088505
0.00529999999999986,-0.032722272365878304
0.0042999999999999705,-0.032807155043870204
0.0032999999999998586,-0.03287789060886345
0.0022999999999999687,-0.033005214625851306
0.0012999999999998568,-0.03311839152984051
0.00029999999999996696,-0.03320327420783241
-0.000700000000000145,-0.033274009772825665
-0.0017000000000000348,-0.033344745337818914
-0.0027000000000001467,-0.03344377512880947
-0.0037000000000000366,-0.03358524625879597
-0.0047000000000001485,-0.03364183471079057
-0.005700000000000038,-0.033740864501781126
-0.00670000000000015,-0.03381160006677438
-0.00770000000000004,-0.03388233563176763
-0.008700000000000152,-0.03402380676175413
-0.009700000000000042,-0.034108689439746036
-0.010700000000000154,-0.03422186634373524
-0.011700000000000044,-0.03432089613472579
-0.012700000000000156,-0.034391631699719045
-0.013700000000000045,-0.03453310282970555
-0.014700000000000157,-0.034617985507697444
-0.015700000000000047,-0.0346887210726907
-0.01670000000000016,-0.03475945663768395
-0.01770000000000005,-0.03485848642867451
-0.01870000000000016,-0.0349716633326637
-0.01970000000000005,-0.0350565460106556
-0.020700000000000163,-0.03509898734965156
-0.021700000000000053,-0.03521216425364076
-0.022700000000000164,-0.03532534115762996
-0.023700000000000054,-0.03543851806161917
-0.024700000000000166,-0.03552340073961108
-0.025700000000000056,-0.035594136304604326
-0.026700000000000168,-0.03570731320859352
-0.027700000000000058,-0.03580634299958408
-0.02870000000000017,-0.03590537279057463
-0.02970000000000006,-0.03599025546856653
-0.03070000000000017,-0.03608928525955708
-0.03170000000000006,-0.03617416793754899
-0.03270000000000017,-0.03632978618053414
-0.03370000000000006,-0.03642881597152469
-0.034700000000000175,-0.03652784576251525
-0.035700000000000065,-0.0366268755535058
-0.03670000000000018,-0.03671175823149771
-0.03770000000000007,-0.03681078802248825
-0.03870000000000018,-0.03693811203947611
-0.03970000000000007,-0.03700884760446936
-0.04070000000000018,-0.03713617162145721
-0.04170000000000007,-0.037221054299449115
-0.04270000000000018,-0.03736252542943562
-0.04370000000000007,-0.03748984944642347
-0.044700000000000184,-0.03753229078541943
-0.045700000000000074,-0.03765961480240728
-0.046700000000000186,-0.03775864459339783
-0.047700000000000076,-0.037871821497387034
-0.04870000000000019,-0.03799914551437489
-0.04970000000000008,-0.03806988107936814
-0.05070000000000019,-0.038154763757360044
-0.05170000000000008,-0.038239646435351944
-0.05270000000000019,-0.03835282333934115
-0.05370000000000008,-0.038494294469327645
-0.05470000000000019,-0.03857917714731955
-0.05570000000000008,-0.03866405982531145
-0.056700000000000195,-0.038763089616302
-0.057700000000000085,-0.03889041363328985
-0.058700000000000196,-0.039003590537279066
-0.059700000000000086,-0.03910262032826961
-0.0607000000000002,-0.03918750300626152
-0.06170000000000009,-0.039314827023249364
-0.0627000000000002,-0.039456298153235876
-0.06370000000000009,-0.03954118083122777
-0.0647000000000002,-0.03965435773521698
-0.06570000000000009,-0.03973924041320888
