Potential V vs RHE, Current mA cm-2
0.4132999999999999,0.0039894858656194035
0.4122999999999999,0.0022607086571843284
0.4112999999999999,0.0017231183632356146
0.4102999999999999,0.0014444202371622023
0.4092999999999999,0.0012075975655647954
0.4082999999999999,0.0010122259350534338
0.4072999999999999,0.0008154395932422071
0.4062999999999999,0.0006199264916008591
0.4052999999999999,0.00045525409629656885
0.4042999999999999,0.00030175792026121233
0.4032999999999999,0.00018037569073279218
0.4022999999999999,2.540821494557606e-05
0.4012999999999999,-0.00011696833027284123
0.4002999999999999,-0.0002523844958959225
0.3992999999999999,-0.0003806988107936814
0.3982999999999999,-0.000503637222751953
0.3972999999999999,-0.0006292635861799683
0.3962999999999999,-0.0007659246977469308
0.3952999999999999,-0.000860851825967875
0.3942999999999999,-0.0009753019701269562
0.39329999999999987,-0.001081405317616834
0.39229999999999987,-0.0011818498199072517
0.39129999999999987,-0.0013186524026042009
0.39029999999999987,-0.001408062156755671
0.38929999999999987,-0.0015109116682558593
0.38829999999999987,-0.001619844438345467
0.38729999999999987,-0.001694824137238314
0.38629999999999987,-0.001819318731626437
0.38529999999999986,-0.0019240073678164498
0.38429999999999986,-0.002004645911908757
0.38329999999999986,-0.0020909433012005246
0.38229999999999986,-0.0021800701130920215
0.38129999999999986,-0.0022819293266823043
0.38029999999999986,-0.0023696414272739367
0.37929999999999986,-0.0024347181470677284
0.37829999999999986,-0.0025266743815589555
0.37729999999999986,-0.0026242894612496428
0.37629999999999986,-0.002723319252240196
0.37529999999999986,-0.0027898106833338524
0.37429999999999986,-0.002859131537027239
0.37329999999999985,-0.002948258348918737
0.37229999999999985,-0.003044458717309559
0.37129999999999985,-0.0031420737970002466
0.37029999999999985,-0.0032255417636922836
0.36929999999999985,-0.0033033508851848608
0.36829999999999985,-0.003358524625879597
0.36729999999999985,-0.0034575544168701498
0.36629999999999985,-0.003543851806161917
0.36529999999999985,-0.0036174167937548986
0.36429999999999985,-0.0036782493796490953
0.36329999999999985,-0.0037348378316436966
0.36229999999999984,-0.003822549932235329
0.36129999999999984,-0.003922994434525746
0.36029999999999984,-0.003990900576919269
0.35929999999999984,-0.00405597729671306
0.35829999999999984,-0.004112565748707661
0.35729999999999984,-0.004186130736300643
0.35629999999999984,-0.004287989949890926
0.35529999999999984,-0.004343163690585663
0.35429999999999984,-0.004428046368577565
0.35329999999999984,-0.0044945377996712214
0.35229999999999984,-0.004546882117766228
0.35129999999999983,-0.004627520661858535
0.35029999999999983,-0.0046826944025532705
0.34929999999999983,-0.004742112277147602
0.34829999999999983,-0.00482275082123991
0.34729999999999983,-0.004913292344431272
0.34629999999999983,-0.004976954352925199
0.34529999999999983,-0.005030713382320071
0.34429999999999983,-0.0050816429891152115
0.3432999999999998,-0.005143890286309273
0.3422999999999998,-0.005217455273902255
0.3412999999999998,-0.005303752663194023
0.3402999999999998,-0.00537024409428768
0.3392999999999998,-0.0053985383202849796
0.3382999999999998,-0.005460785617479041
0.3372999999999998,-0.0055230329146731035
0.3362999999999998,-0.00560650088136514
0.3352999999999998,-0.005664504044659607
0.3342999999999998,-0.005711189517555153
0.3332999999999998,-0.005769192680849619
0.3322999999999998,-0.005852660647541657
0.3312999999999998,-0.005919152078635314
0.3302999999999998,-0.005970081685430455
0.3292999999999998,-0.006033743693924382
0.3282999999999998,-0.006064867342521413
0.3272999999999998,-0.0061398470414142595
0.3262999999999998,-0.006197850204708726
0.3252999999999999,-0.0062586827906029215
0.3242999999999999,-0.006303953552198604
0.3232999999999999,-0.0063577125815934745
0.3222999999999999,-0.006427033435286861
0.3212999999999999,-0.0065161602471783585
0.3202999999999999,-0.006533136782776739
0.3192999999999999,-0.006616604749468777
0.3182999999999999,-0.006629337151167562
0.3172999999999999,-0.006695828582261218
0.3162999999999999,-0.006776467126353526
0.3152999999999999,-0.006820323176649342
0.3142999999999999,-0.006878326339943808
0.3132999999999999,-0.006908035277240975
0.3122999999999999,-0.006956135461436385
0.3112999999999999,-0.007053750541127073
0.3102999999999999,-0.007077800633224779
0.3092999999999999,-0.007144292064318436
0.3082999999999999,-0.007205124650212632
0.3072999999999999,-0.007253224834408043
0.3062999999999999,-0.00732820453330089
0.3052999999999999,-0.007394695964394547
0.3042999999999999,-0.0074201607677921175
0.3032999999999999,-0.007459772684188339
0.3022999999999999,-0.007526264115281995
0.3012999999999999,-0.0075955849689753815
0.3002999999999999,-0.007632367462771873
0.2992999999999999,-0.00768188235826715
0.2982999999999999,-0.007739885521561615
0.2972999999999999,-0.007795059262256353
0.2962999999999999,-0.00787852722894839
0.2952999999999999,-0.00791530972274488
0.2942999999999999,-0.007939359814842588
0.2932999999999999,-0.008001607112036648
0.2922999999999999,-0.008052536718831788
0.2912999999999999,-0.00811195459342612
0.2902999999999999,-0.008157225355021802
0.2892999999999999,-0.008206740250517076
0.2882999999999999,-0.00823786389911411
0.2872999999999999,-0.008285964083309519
0.2862999999999999,-0.008360943782202368
0.2852999999999999,-0.008394896853399128
0.2842999999999999,-0.00846280299579265
0.2832999999999999,-0.008496756066989412
0.2822999999999999,-0.008553344518984013
0.2812999999999999,-0.008621250661377535
0.2802999999999999,-0.008636812485676049
0.2792999999999999,-0.0087075480506693
0.2782999999999999,-0.008742915833165926
0.2772999999999999,-0.008807992552959717
0.2762999999999999,-0.00887589869535324
0.2752999999999999,-0.008898534076151082
0.2742999999999999,-0.008949463682946222
0.2732999999999999,-0.008986246176742712
0.2722999999999999,-0.009030102227038529
0.2712999999999999,-0.009107911348531107
0.2702999999999999,-0.009160255666626113
0.2692999999999999,-0.009180061624824223
0.26829999999999987,-0.009246553055917879
0.26729999999999987,-0.00928333554971437
0.26629999999999987,-0.009365388805106541
0.26529999999999987,-0.009405000721502764
0.26429999999999987,-0.009436124370099795
0.26329999999999987,-0.009481395131695474
0.26229999999999987,-0.009536568872390213
0.26129999999999987,-0.009601645592184002
0.26029999999999986,-0.009635598663380766
0.25929999999999986,-0.009678040002376716
0.25829999999999986,-0.009716237207473073
0.25729999999999986,-0.009784143349866594
0.25629999999999986,-0.009846390647060655
0.25529999999999986,-0.009890246697356473
0.25429999999999986,-0.009912882078154312
0.25329999999999986,-0.009963811684949454
0.25229999999999986,-0.010037376672542436
0.25129999999999986,-0.010082647434138114
0.25029999999999986,-0.010118015216634742
0.24929999999999986,-0.010153382999131369
0.24829999999999985,-0.010194409626827456
0.24729999999999985,-0.010253827501421786
0.24629999999999985,-0.010317489509915713
0.24529999999999985,-0.010375492673210179
0.24429999999999985,-0.01040944574440694
0.24329999999999985,-0.01041793401220613
0.24229999999999985,-0.010495743133698707
0.24129999999999985,-0.010556575719592905
0.24029999999999985,-0.01058628465689007
0.23929999999999985,-0.010637214263685212
0.23829999999999985,-0.010678240891381297
0.23729999999999984,-0.010726341075576708
0.23629999999999984,-0.010790003084070635
0.23529999999999984,-0.010812638464868476
0.23429999999999984,-0.010866397494263347
0.23329999999999984,-0.010904594699359702
0.23229999999999984,-0.01098523324345201
0.23129999999999984,-0.011054554097145397
0.23029999999999984,-0.01109133659094189
0.22929999999999984,-0.011101239570040942
0.22829999999999984,-0.011166316289834735
0.22729999999999984,-0.011203098783631226
0.22629999999999983,-0.011273834348624478
0.22529999999999983,-0.011319105110220157
0.22429999999999983,-0.01135305818141692
0.22329999999999983,-0.011394084809113006
0.22229999999999983,-0.011460576240206662
0.22129999999999983,-0.011531311805199914
0.22029999999999983,-0.01156667958769654
0.21929999999999983,-0.011619023905791547
0.21829999999999983,-0.011652976976988307
0.21729999999999983,-0.011733615521080614
0.21629999999999983,-0.011776056860076566
0.21529999999999982,-0.011815668776472785
0.21429999999999982,-0.011846792425069818
0.21329999999999982,-0.011897722031864958
0.21229999999999982,-0.01197411644205767
0.21129999999999982,-0.012010898935854162
0.21029999999999982,-0.012064657965249033
0.20929999999999982,-0.012092952191246332
0.20829999999999982,-0.01213114939634269
0.20729999999999982,-0.012208958517835267
0.20629999999999982,-0.012278279371528653
0.20529999999999982,-0.012299500041026628
0.20429999999999982,-0.012347600225222041
0.20329999999999981,-0.012374479739919475
0.2022999999999998,-0.012436727037113538
0.2012999999999998,-0.012514536158606114
0.20029999999999992,-0.012540000962003686
0.19929999999999992,-0.012593759991398557
0.19829999999999992,-0.012641860175593968
0.19729999999999992,-0.012697033916288705
0.19629999999999992,-0.012764940058682225
0.19529999999999992,-0.012790404862079796
0.19429999999999992,-0.012900752343469268
0.19329999999999992,-0.01295451137286414
0.19229999999999992,-0.012977146753661982
0.19129999999999991,-0.013046467607355368
0.1902999999999999,-0.013070517699453074
0.1892999999999999,-0.013118617883648485
0.1882999999999999,-0.013166718067843896
0.1872999999999999,-0.013216232963339174
0.1862999999999999,-0.013295456796131614
0.1852999999999999,-0.013325165733428781
0.1842999999999999,-0.013359118804625541
0.1832999999999999,-0.013402974854921357
0.1822999999999999,-0.01346239272951569
0.1812999999999999,-0.013517566470210424
0.1802999999999999,-0.013567081365705703
0.1792999999999999,-0.01361376683860125
0.1782999999999999,-0.013671770001895714
0.1772999999999999,-0.013731187876490048
0.1762999999999999,-0.013776458638085728
0.1752999999999999,-0.013825973533581002
0.1742999999999999,-0.013867000161277088
0.1732999999999999,-0.013906612077673311
0.1722999999999999,-0.013985835910465752
0.1712999999999999,-0.014029691960761568
0.1702999999999999,-0.01407213329975752
0.1692999999999999,-0.014132965885651718
0.1682999999999999,-0.014147112998650365
0.1672999999999999,-0.01424614278964092
0.1662999999999999,-0.014288584128636872
0.1652999999999999,-0.014331025467632824
0.1642999999999999,-0.014401761032626074
0.1632999999999999,-0.014430055258623373
0.1622999999999999,-0.014514937936615275
0.1612999999999999,-0.014585673501608528
0.1602999999999999,-0.014599820614607179
0.1592999999999999,-0.014670556179600431
0.15829999999999989,-0.014712997518596381
0.15729999999999988,-0.014755438857592333
0.15629999999999988,-0.014840321535584235
0.15529999999999988,-0.014854468648582884
0.15429999999999988,-0.014925204213576137
0.15329999999999988,-0.014967645552572089
0.15229999999999988,-0.01503838111756534
0.15129999999999988,-0.01509496956955994
0.15029999999999988,-0.015123263795557243
0.14929999999999988,-0.015179852247551842
0.14829999999999988,-0.015236440699546445
0.14729999999999988,-0.015293029151541045
0.14629999999999987,-0.0153637647165343
0.14529999999999987,-0.015392058942531598
0.14429999999999987,-0.01543450028152755
0.14329999999999987,-0.015491088733522153
0.14229999999999987,-0.015575971411514053
0.14129999999999987,-0.015618412750510005
0.14029999999999987,-0.015660854089505957
0.13929999999999987,-0.015703295428501907
0.13829999999999987,-0.01573158965449921
0.13729999999999987,-0.01581647233249111
0.13629999999999987,-0.015873060784485714
0.13529999999999986,-0.015929649236480315
0.13429999999999986,-0.015957943462477614
0.13329999999999986,-0.016014531914472215
0.13229999999999986,-0.016099414592464115
0.13129999999999986,-0.01615600304445872
0.13029999999999986,-0.01619844438345467
0.12929999999999986,-0.01625503283544927
0.12829999999999986,-0.01629747417444522
0.12729999999999986,-0.01638235685243712
0.12629999999999986,-0.016424798191433075
0.12529999999999986,-0.01646723953042903
0.12429999999999986,-0.01652382798242363
0.12329999999999985,-0.01658041643441823
0.12229999999999985,-0.01665115199941148
0.12129999999999985,-0.016721887564404736
0.12029999999999985,-0.016764328903400686
0.11929999999999985,-0.016820917355395284
0.11829999999999985,-0.016849211581392583
0.11729999999999985,-0.016948241372383138
0.11629999999999985,-0.017004829824377742
0.11529999999999985,-0.01703312405037504
0.11429999999999985,-0.017089712502369642
0.11329999999999985,-0.017160448067362895
0.11229999999999984,-0.017231183632356147
0.11129999999999984,-0.01728777208435075
0.11029999999999984,-0.0173302134233467
0.10929999999999984,-0.017372654762342652
0.10829999999999984,-0.017429243214337253
0.10729999999999984,-0.01748583166633185
0.10629999999999984,-0.017570714344323755
0.10529999999999984,-0.017627302796318356
0.10429999999999984,-0.01766974413531431
0.10329999999999984,-0.01772633258730891
0.10229999999999984,-0.017797068152302163
0.10129999999999983,-0.017867803717295416
0.10029999999999983,-0.017924392169290013
0.09929999999999983,-0.017966833508285963
0.09829999999999983,-0.01803756907327922
0.09729999999999983,-0.01812245175127112
0.09629999999999983,-0.01817904020326572
0.09529999999999983,-0.018235628655260322
0.09429999999999983,-0.018278069994256275
0.09329999999999983,-0.018348805559249524
0.09229999999999983,-0.018433688237241428
0.09129999999999983,-0.01847612957623738
0.09029999999999982,-0.01853271802823198
0.08929999999999982,-0.018603453593225232
0.08829999999999982,-0.018631747819222534
0.08729999999999982,-0.018716630497214438
0.08629999999999982,-0.018787366062207687
0.08529999999999982,-0.01885810162720094
0.08429999999999982,-0.01891469007919554
0.08329999999999982,-0.018957131418191494
0.08229999999999982,-0.019056161209182042
0.08129999999999982,-0.019112749661176646
0.08029999999999982,-0.019141043887173945
0.07929999999999982,-0.019240073678164497
0.07829999999999981,-0.0192966621301591
0.07729999999999981,-0.019367397695152354
0.07629999999999981,-0.019438133260145606
0.07529999999999992,-0.019480574599141553
0.07429999999999992,-0.019565457277133456
0.07329999999999992,-0.019622045729128058
0.07229999999999992,-0.01969278129412131
0.07129999999999992,-0.019763516859114563
0.07029999999999992,-0.019777663972113214
0.06929999999999992,-0.019848399537106463
0.06829999999999992,-0.019933282215098366
0.06729999999999992,-0.019989870667092968
0.06629999999999991,-0.02007475334508487
0.06529999999999991,-0.020131341797079472
0.06429999999999991,-0.020173783136075422
0.06329999999999991,-0.020272812927065977
0.06229999999999991,-0.020343548492059226
0.06129999999999991,-0.02041428405705248
0.06029999999999991,-0.02048501962204573
0.05929999999999991,-0.020541608074040336
0.05829999999999991,-0.020598196526034934
0.05729999999999991,-0.020683079204026837
0.056299999999999906,-0.02075381476902009
0.055299999999999905,-0.020810403221014687
0.054299999999999904,-0.02088113878600794
0.0532999999999999,-0.020951874351001196
0.0522999999999999,-0.021036757028993096
0.0512999999999999,-0.021107492593986348
0.0502999999999999,-0.021164081045980946
0.0492999999999999,-0.02122066949797555
0.0482999999999999,-0.021305552175967454
0.0472999999999999,-0.021404581966958002
0.0462999999999999,-0.021475317531951258
0.045299999999999896,-0.02153190598394586
0.044299999999999895,-0.02161678866193776
0.043299999999999894,-0.02167337711393236
0.04229999999999989,-0.021758259791924264
0.04129999999999989,-0.02185728958291482
0.04029999999999989,-0.021913878034909417
0.03929999999999989,-0.02199876071290132
0.03829999999999989,-0.02205534916489592
0.03729999999999989,-0.022140231842887825
0.03629999999999989,-0.022210967407881078
0.03529999999999989,-0.02226755585987568
0.034299999999999886,-0.02235243853786758
0.033299999999999885,-0.02242317410286083
0.032299999999999884,-0.022508056780852735
0.031299999999999883,-0.022592939458844635
0.030299999999999883,-0.02264952791083924
0.02929999999999988,-0.02272026347583249
0.02829999999999988,-0.02280514615382439
0.02729999999999988,-0.022918323057813595
0.02629999999999988,-0.022989058622806844
0.025299999999999878,-0.023045647074801445
0.024299999999999877,-0.023116382639794698
0.023299999999999876,-0.0232012653177866
0.022299999999999875,-0.023286147995778505
0.021299999999999875,-0.023356883560771757
0.020299999999999874,-0.023427619125765006
0.019299999999999873,-0.023498354690758262
0.018299999999999872,-0.02359738448174881
0.01729999999999987,-0.023682267159740714
0.01629999999999987,-0.023753002724733966
0.01529999999999987,-0.023823738289727222
0.014299999999999868,-0.02390862096771912
0.013299999999999867,-0.023965209419713723
0.012299999999999978,-0.024078386323702922
0.011299999999999866,-0.024163269001694826
0.010299999999999976,-0.024219857453689427
0.009299999999999864,-0.02433303435767863
0.008299999999999974,-0.024403769922671882
0.007299999999999862,-0.02453109393965974
0.006299999999999972,-0.024559388165657038
0.00529999999999986,-0.024644270843648942
0.0042999999999999705,-0.02471500640864219
0.0032999999999998586,-0.024814036199632745
0.0022999999999999687,-0.024898918877624646
0.0012999999999998568,-0.0249979486686152
0.00029999999999996696,-0.0250545371206098
-0.000700000000000145,-0.025139419798601705
-0.0017000000000000348,-0.025210155363594954
-0.0027000000000001467,-0.025323332267584157
-0.0037000000000000366,-0.02540821494557606
-0.0047000000000001485,-0.02545065628457201
-0.005700000000000038,-0.02554968607556256
-0.00670000000000015,-0.025648715866553113
-0.00770000000000004,-0.025747745657543668
-0.008700000000000152,-0.025846775448534223
-0.009700000000000042,-0.02590336390052882
-0.010700000000000154,-0.026016540804518026
-0.011700000000000044,-0.026101423482509926
-0.012700000000000156,-0.02620045327350048
-0.013700000000000045,-0.02629948306449103
-0.014700000000000157,-0.026384365742482933
-0.015700000000000047,-0.026440954194477534
-0.01670000000000016,-0.02656827821146539
-0.01770000000000005,-0.026667308002455942
-0.01870000000000016,-0.026752190680447843
-0.01970000000000005,-0.02682292624544109
-0.020700000000000163,-0.026893661810434347
-0.021700000000000053,-0.026992691601424906
-0.022700000000000164,-0.027105868505414105
-0.023700000000000054,-0.027176604070407354
-0.024700000000000166,-0.027261486748399254
-0.025700000000000056,-0.02734636942639116
-0.026700000000000168,-0.02743125210438306
-0.027700000000000058,-0.02755857612137091
-0.02870000000000017,-0.027615164573365516
-0.02970000000000006,-0.02774248859035337
-0.03070000000000017,-0.02782737126834527
-0.03170000000000006,-0.027912253946337173
-0.03270000000000017,-0.02802543085032638
-0.03370000000000006,-0.02811031352831828
-0.034700000000000175,-0.028181049093311532
-0.035700000000000065,-0.02829422599730073
-0.03670000000000018,-0.028379108675292634
-0.03770000000000007,-0.02849228557928184
-0.03870000000000018,-0.028591315370272388
-0.03970000000000007,-0.028676198048264292
-0.04070000000000018,-0.028761080726256192
-0.04170000000000007,-0.028860110517246747
-0.04270000000000018,-0.028987434534234607
-0.04370000000000007,-0.0290723172122265
-0.044700000000000184,-0.02912890566422111
-0.045700000000000074,-0.029242082568210308
-0.046700000000000186,-0.029341112359200863
-0.047700000000000076,-0.029440142150191414
-0.04870000000000019,-0.02953917194118197
-0.04970000000000008,-0.029624054619173872
-0.05070000000000019,-0.02972308441016442
-0.05170000000000008,-0.029836261314153626
-0.05270000000000019,-0.029935291105144177
-0.05370000000000008,-0.030034320896134725
-0.05470000000000019,-0.03011920357412663
-0.05570000000000008,-0.03018993913911988
-0.056700000000000195,-0.030317263156107735
-0.057700000000000085,-0.03040214583409964
-0.058700000000000196,-0.030487028512091542
-0.059700000000000086,-0.03058605830308209
-0.0607000000000002,-0.03065679386807535
-0.06170000000000009,-0.03079826499806185
-0.0627000000000002,-0.030911441902051046
