Potential V vs RHE, Current mA cm-2
0.013299999999999867,24.120827662698876
0.012299999999999978,22.111937616890522
0.011299999999999866,20.187930249074075
0.010299999999999976,18.40539401124413
0.009299999999999864,16.70774045140608
0.008299999999999974,15.05252823056399
0.007299999999999862,13.431269080918659
0.006299999999999972,11.904795588364284
0.00529999999999986,10.334466045514093
0.0042999999999999705,8.851848603255535
0.0032999999999998586,7.369231160996977
0.0022999999999999687,5.886613718738418
0.0012999999999998568,4.402581565179994
0.00029999999999996696,2.963820173217252
-0.000700000000000145,1.5250587812545096
-0.0017000000000000348,0.08502414912188871
-0.0027000000000001467,-1.3543031273607997
-0.0037000000000000366,-2.662486666345999
-0.0047000000000001485,-4.014950669016974
-0.005700000000000038,-5.411270721983764
-0.00670000000000015,-6.719878674358924
-0.00770000000000004,-7.984630576438266
-0.008700000000000152,-9.24938247851761
-0.009700000000000042,-10.470278330301136
-0.010700000000000154,-11.778886282676295
-0.011700000000000044,-12.99978213445982
-0.012700000000000156,-14.26028990263957
-0.013700000000000045,-15.533530072518102
-0.014700000000000157,-16.792623129397985
-0.015700000000000047,-17.966833508285966
-0.01670000000000016,-19.197632339168546
-0.01770000000000005,-20.286960040064624
-0.01870000000000016,-21.461170418952605
-0.01970000000000005,-22.67782213683654
-0.020700000000000163,-23.86617962872317
-0.021700000000000053,-25.04039000761115
-0.022700000000000164,-26.29948306449103
-0.023700000000000054,-27.572723234369565
-0.024700000000000166,-28.704492274261593
-0.025700000000000056,-29.878702653149578
-0.026700000000000168,-31.052913032037555
-0.027700000000000058,-32.368594540912035
-0.02870000000000017,-33.45792224180811
-0.02970000000000006,-34.41992592571634
-0.03070000000000017,-35.42437094862052
-0.03170000000000006,-36.5136986495166
-0.03270000000000017,-37.51814367242077
-0.03370000000000006,-38.522588695324956
-0.034700000000000175,-39.47044526623452
-0.035700000000000065,-40.4748902891387
-0.03670000000000018,-41.47933531204288
-0.03770000000000007,-42.31401497896325
-0.03870000000000018,-43.134547532884966
-0.03970000000000007,-44.138992555789144
-0.04070000000000018,-45.18587891768927
-0.04170000000000007,-46.3176479575813
-0.04270000000000018,-47.36453431948143
-0.04370000000000007,-47.590888127459834
-0.044700000000000184,-47.067444946509774
-0.045700000000000074,-47.71821214444768
-0.046700000000000186,-52.033081609036046
-0.047700000000000076,-53.603411151886235
-0.04870000000000019,-54.2117370108282
-0.04970000000000008,-54.961533999756675
-0.05070000000000019,-56.05086170065276
-0.05170000000000008,-56.88554136757313
-0.05270000000000019,-57.8333979384827
-0.05370000000000008,-58.79540162239092
-0.05470000000000019,-59.587639950315335
-0.05570000000000008,-60.40817250423707
-0.056700000000000195,-61.412617527141244
-0.057700000000000085,-60.40817250423707
-0.058700000000000196,-58.54075358841522
-0.059700000000000086,-56.22062705663656
-0.0607000000000002,-53.91464763785655
-0.06170000000000009,-51.509638428085985
-0.0627000000000002,-48.89242252333566
-0.06370000000000009,-46.45911908756781
-0.0647000000000002,-44.3229050247716
-0.06570000000000009,-43.007223515897124
-0.0667000000000002,-42.04521983198889
-0.0677000000000001,-41.66324778102533
-0.0687000000000002,-40.99833347008877
-0.0697000000000001,-40.177800916167044
-0.07070000000000021,-39.046031876275016
-0.0717000000000001,-37.164465847454515
-0.07270000000000021,-34.90092776767045
-0.0737000000000001,-32.66568391388369
-0.07470000000000021,-31.23682550102001
-0.0757000000000001,-30.04846800913338
-0.07670000000000021,-28.746933613257543
-0.0777000000000001,-27.615164573365515
-0.07870000000000021,-26.907808923433
-0.0797000000000001,-26.9643973754276
-0.08070000000000022,-27.049280053419505
-0.0817000000000001,-26.65316088945729
-0.08270000000000022,-26.002393691519377
-0.08370000000000011,-25.691157205549064
-0.08470000000000022,-25.337479380582806
-0.08570000000000011,-24.997948668615198
-0.08670000000000022,-24.516946826661083
-0.08770000000000011,-24.120827662698876
-0.08870000000000022,-23.767149837732617
-0.08970000000000011,-23.682267159740714
-0.09070000000000022,-23.639825820744765
-0.09170000000000011,-23.682267159740714
-0.09270000000000023,-22.38073276386488
-0.09370000000000012,-22.550498119848687
-0.09470000000000023,-22.776851927827092
-0.09570000000000012,-23.2012653177866
-0.09670000000000023,-23.86617962872317
-0.09770000000000012,-24.771594860636792
-0.09870000000000023,-26.86536758443705
-0.09970000000000012,-29.35525947219951
-0.10070000000000023,-31.27926684001596
-0.10170000000000012,-32.41103587990799
-0.10270000000000024,-32.84959638286615
-0.10370000000000013,-32.93447906085806
-0.10470000000000024,-32.49591855789989
-0.10570000000000013,-31.618797551983565
-0.10670000000000024,-30.614352529079397
-0.10770000000000013,-30.147497800123933
-0.10870000000000024,-30.79826499806185
-0.10970000000000013,-32.53835989689585
-0.11070000000000024,-34.41992592571634
-0.11170000000000013,-36.11757948555439
-0.11270000000000002,-38.6499127123128
-0.11370000000000013,-43.48822535785123
-0.11470000000000002,-49.20365900930597
-0.11570000000000014,-54.876651321764776
-0.11670000000000003,-59.884729323287
-0.11770000000000014,-63.633714267929356
-0.11870000000000003,-65.43039761875795
-0.11970000000000014,-64.82207175981598
-0.12070000000000003,-63.37906623395363
-0.12170000000000014,-62.33217987205352
-0.12270000000000003,-62.64341635802381
-0.12370000000000014,-63.633714267929356
-0.12470000000000003,-63.77518539791585
-0.12570000000000014,-62.855623053003576
-0.12670000000000003,-60.67696765121143
-0.12770000000000015,-57.45142588751914
-0.12870000000000004,-53.56096981289029
-0.12970000000000015,-49.85442620724389
-0.13070000000000004,-47.23721030249357
-0.13170000000000015,-45.27076159568118
-0.13270000000000004,-43.88434452181344
-0.13370000000000015,-42.96478217690117
-0.13470000000000004,-43.04966485489307
-0.13570000000000015,-44.3229050247716
-0.13670000000000004,-46.27520661858535
-0.13770000000000016,-46.94012092952192
-0.13870000000000005,-46.10544126260155
-0.13970000000000016,-45.27076159568118
-0.14070000000000005,-46.02055858460964
-0.14170000000000016,-49.16121767031002
-0.14270000000000005,-55.400094502714836
-0.14370000000000016,-62.16241451606972
-0.14470000000000005,-66.87340314462028
-0.14570000000000016,-67.6090530205501
-0.14670000000000005,-66.51972531965401
-0.14770000000000016,-64.86451309881193
-0.14870000000000005,-64.34106991786187
-0.14970000000000017,-65.11916113278764
-0.15070000000000006,-65.64260431373769
-0.15170000000000017,-64.42595259585376
-0.15270000000000006,-62.855623053003576
-0.15370000000000017,-62.459503889041365
-0.15470000000000006,-61.49750020513315
-0.15570000000000017,-58.54075358841522
-0.15670000000000006,-54.834209982768826
-0.15770000000000017,-51.69355089706845
-0.15870000000000006,-49.642219512264134
-0.15970000000000018,-48.59533315036401
-0.16070000000000007,-46.544001765559706
-0.16170000000000018,-43.79946184382153
-0.16270000000000007,-42.31401497896325
-0.16370000000000018,-41.52177665103883
-0.16470000000000007,-41.30956995605907
-0.16570000000000018,-41.70568912002128
-0.16670000000000007,-42.837458159913304
-0.16770000000000018,-45.79420477663124
-0.16870000000000007,-55.25862337272834
-0.16970000000000018,-64.11471610988345
-0.17070000000000007,-68.82570473843404
-0.17170000000000019,-70.66482942825859
-0.17270000000000008,-67.7788183765339
-0.1737000000000002,-65.95384079970802
-0.17470000000000008,-66.9582858226122
-0.1757000000000002,-66.68949067563783
-0.17670000000000008,-66.68949067563783
-0.1777000000000002,-67.04316850060408
-0.17870000000000008,-64.77963042082003
-0.1797000000000002,-61.28529351015339
-0.18070000000000008,-58.10219308545706
-0.1817000000000002,-57.22507207954074
-0.18270000000000008,-57.097748062552874
-0.1837000000000002,-57.62119124350295
-0.1847000000000001,-58.583194927411164
-0.1857000000000002,-58.79540162239092
-0.1867000000000001,-59.54519861131939
-0.1877000000000002,-59.7149639673032
-0.1887000000000001,-58.39928245842871
-0.1897000000000002,-56.008420361656796
-0.1907000000000001,-54.56541483579447
-0.1917000000000001,-52.995085292944275
-0.19269999999999998,-51.071077925127824
-0.1937000000000001,-49.72710219025603
-0.19469999999999998,-50.2505453712061
-0.1957000000000001,-50.77398855215617
-0.19669999999999999,-50.547634744177756
-0.1977000000000001,-48.80753984534376
-0.1987,-46.67132578254756
-0.1997000000000001,-44.66243573673921
-0.2007,-44.3229050247716
-0.2017000000000001,-45.143437578693316
-0.2027,-47.36453431948143
-0.2037000000000001,-50.29298671020206
-0.2047,-52.78287859796452
-0.2057000000000001,-54.65029751378637
-0.2067,-55.484977180706736
-0.2077000000000001,-56.97042404556503
-0.2087,-57.30995475753264
-0.2097000000000001,-56.36209818662306
-0.2107,-55.612301197694585
-0.2117000000000001,-56.05086170065276
-0.2127,-53.9570889768525
-0.2137000000000001,-50.60422319617236
-0.2147,-46.79864979953541
-0.2157000000000001,-43.09210619388902
-0.2167,-39.21579723225882
-0.21770000000000012,-35.90537279057463
-0.2187,-33.712570275783825
-0.21970000000000012,-32.283711862920136
-0.2207,-31.010471693041605
-0.22170000000000012,-29.878702653149578
-0.2227,-29.708937297165768
-0.22370000000000012,-31.052913032037555
-0.2247,-34.462367264712285
-0.22570000000000012,-38.42355890433439
-0.2267,-41.56421799003478
-0.22770000000000012,-44.4926703807554
-0.22870000000000001,-46.79864979953541
-0.22970000000000013,-48.68021582835591
-0.23070000000000002,-51.21254905511432
-0.23170000000000013,-55.046416677748574
-0.23270000000000002,-58.83784296138688
-0.23370000000000013,-61.63897133511965
-0.23470000000000002,-63.944950753899654
-0.23570000000000013,-67.21293385658788
-0.23670000000000002,-70.01406223032066
-0.2376999999999999,-71.2307139482046
-0.23870000000000002,-72.44736566608852
-0.2396999999999999,-74.06013654793468
-0.24070000000000003,-75.54558341279296
-0.24169999999999991,-76.7622351306769
-0.24270000000000003,-77.28567831162695
-0.24369999999999992,-76.33782174071737
-0.24470000000000003,-75.46070073480107
-0.24569999999999992,-75.14946424883075
-0.24670000000000003,-74.41381437290093
-0.24769999999999992,-72.53224834408043
-0.24870000000000003,-69.91503243933012
-0.24969999999999992,-68.13249620150016
-0.25070000000000003,-66.16604749468777
-0.2516999999999999,-64.77963042082003
-0.25270000000000004,-65.03427845479574
-0.2536999999999999,-68.38714423547587
-0.25470000000000004,-74.20160767792116
-0.2556999999999999,-78.38915312552167
-0.25670000000000004,-81.30345840324367
-0.25769999999999993,-80.04436534636378
-0.25870000000000004,-79.60580484340561
-0.25969999999999993,-79.16724434044745
-0.26070000000000004,-73.89037119195086
-0.26169999999999993,-70.74971210625048
-0.26270000000000004,-68.96717586842054
-0.26369999999999993,-65.68504565273366
-0.26470000000000005,-61.89361936909536
-0.26569999999999994,-59.14907944735718
-0.26670000000000005,-56.88554136757313
-0.26769999999999994,-55.088858016744524
-0.26870000000000005,-54.16929567183226
-0.26969999999999994,-53.39120445690648
-0.27070000000000005,-51.82087491405629
-0.27169999999999994,-49.85442620724389
-0.27270000000000005,-46.88353247752732
-0.27369999999999994,-43.53066669684718
-0.27470000000000006,-40.3900076111468
-0.27569999999999995,-37.56058501141672
-0.27670000000000006,-34.94336910666641
-0.27769999999999995,-32.807155043870196
-0.27870000000000006,-31.57635621298762
-0.27969999999999995,-31.095354371033505
-0.28070000000000006,-31.095354371033505
-0.28169999999999995,-31.27926684001596
-0.28270000000000006,-30.79826499806185
-0.28369999999999995,-29.18549411621571
-0.28470000000000006,-27.572723234369565
-0.28569999999999995,-25.91751101352747
-0.28670000000000007,-24.432064148669184
-0.28769999999999996,-23.342736447773106
-0.28870000000000007,-23.15882397879065
-0.28969999999999996,-25.252596702590903
-0.29070000000000007,-28.831816291249446
-0.29169999999999996,-32.32615320191609
-0.29270000000000007,-34.8018979766799
-0.29369999999999996,-36.16002082455034
-0.2947000000000001,-37.164465847454515
-0.29569999999999996,-39.51288660523048
-0.2967000000000001,-43.84190318281749
-0.29769999999999996,-48.97730520132757
-0.2987000000000001,-52.64140746797801
-0.29969999999999997,-57.45142588751914
-0.3007000000000001,-63.29418355596174
-0.30169999999999997,-68.13249620150016
-0.3027000000000001,-69.30670658038814
-0.30369999999999997,-67.82125971552985
-0.3047000000000001,-65.20404381077954
-0.30569999999999997,-62.33217987205352
-0.3067000000000001,-59.6300812893113
-0.3077,-56.927982706569075
-0.3087000000000001,-54.31076680181876
-0.3097,-51.990640270040096
-0.3107000000000001,-50.90131256914402
-0.3117,-50.60422319617236
-0.3127000000000001,-50.98619524713592
-0.3137,-51.424755750094086
-0.3147000000000001,-52.30187675601041
-0.3157,-53.476087134898386
-0.3167000000000001,-54.35320814081471
-0.3177,-55.003975338752625
-0.3187000000000001,-55.31521182472294
-0.3197,-55.088858016744524
-0.3207000000000001,-53.9570889768525
-0.3217,-52.386759434002315
-0.3227000000000001,-50.29298671020206
-0.3237,-47.67577080545174
-0.3247000000000001,-44.74731841473111
-0.3257,-42.4413389959511
-0.3267000000000001,-40.559772967130606
-0.3277,-38.86211940729255
-0.3287000000000001,-37.81523304539243
-0.3297,-37.122024508458566
-0.3307000000000001,-35.99025546856653
-0.3317,-34.717015298688004
-0.3327000000000001,-34.41992592571634
-0.3337,-35.198017140642115
-0.3347000000000001,-36.4288159715247
-0.3357,-37.56058501141672
-0.3367000000000001,-38.777236729300654
-0.3377,-40.65880275812115
-0.3387000000000001,-43.36090134086337
-0.3397,-46.02055858460964
-0.3407000000000001,-47.987007291422046
-0.3417,-49.16121767031002
-0.3427000000000001,-49.68466085126009
-0.3437,-49.72710219025603
-0.3447000000000001,-49.59977817326819
-0.3457,-49.16121767031002
-0.3467000000000001,-48.2840966643937
-0.3477,-46.79864979953541
-0.3487000000000001,-44.74731841473111
-0.3497,-42.2715736399673
-0.3507000000000001,-39.654357735216976
-0.3517,-36.95225915247476
-0.3527000000000001,-34.41992592571634
-0.3537,-32.184682071929586
-0.3547000000000001,-30.00602667013743
-0.3557,-27.869812607341224
-0.35670000000000013,-26.257041725495082
-0.3577,-25.337479380582806
-0.35870000000000013,-25.43650917157336
-0.3597,-26.65316088945729
-0.36070000000000013,-28.959140308237306
-0.3617,-30.968030354045652
-0.3626999999999999,-33.14668575583781
-0.3637,-35.32534115762997
-0.3646999999999999,-37.249348525446415
-0.3657,-38.5650300343209
-0.3666999999999999,-39.08847321527096
-0.3677,-38.734795390304704
-0.3686999999999999,-37.85767438438838
-0.36970000000000003,-36.55613998851254
-0.3706999999999999,-35.11313446265021
-0.37170000000000003,-33.98136542275818
-0.3726999999999999,-33.54280491980002
-0.37370000000000003,-33.670128936787876
-0.3746999999999999,-33.93892408376223
-0.37570000000000003,-33.85404140577033
-0.3766999999999999,-33.231568433829715
-0.37770000000000004,-32.764713704874254
-0.3786999999999999,-32.62324257488775
-0.37970000000000004,-32.14224073293363
-0.3806999999999999,-31.095354371033505
-0.38170000000000004,-29.581613280177915
-0.38269999999999993,-28.05372507632368
-0.38370000000000004,-26.780484906445146
-0.38469999999999993,-25.77603988354097
-0.38570000000000004,-25.691157205549064
-0.38669999999999993,-26.907808923433
-0.38570000000000004,-28.577168257273744
-0.38469999999999993,-30.04846800913338
-0.38370000000000004,-31.321708179011907
-0.38269999999999993,-32.14224073293363
-0.38170000000000004,-32.58080123589179
-0.3806999999999999,-32.66568391388369
-0.37970000000000004,-32.24127052392419
-0.3786999999999999,-31.19438416202406
-0.37770000000000004,-29.525024828183312
-0.3766999999999999,-27.700047251357418
-0.37570000000000003,-26.044835030515326
-0.3746999999999999,-24.95550732961925
-0.37370000000000003,-24.601829504652986
-0.3726999999999999,-24.474505487665134
-0.37170000000000003,-24.290593018682678
-0.3706999999999999,-24.035944984706973
-0.36970000000000003,-23.823738289727217
-0.3686999999999999,-23.993503645711023
-0.3677,-25.252596702590903
-0.3666999999999999,-27.261486748399253
-0.3657,-29.058170099227848
-0.3646999999999999,-31.23682550102001
-0.3637,-33.627687597791926
-0.3626999999999999,-35.38192960962457
-0.3617,-36.55613998851254
-0.36070000000000013,-37.645467689408626
-0.3597,-38.16891087035869
-0.35870000000000013,-38.38111756533845
-0.3577,-37.99914551437489
-0.35670000000000013,-36.55613998851254
-0.3557,-34.41992592571634
-0.3547000000000001,-32.283711862920136
-0.3537,-30.71338232006995
-0.3527000000000001,-30.04846800913338
-0.3517,-30.487028512091538
-0.3507000000000001,-31.717827342974125
-0.3497,-33.627687597791926
-0.3487000000000001,-35.721460321592176
-0.3477,-38.04158685337084
-0.3467000000000001,-40.3900076111468
-0.3457,-42.2715736399673
-0.3447000000000001,-43.48822535785123
-0.3437,-44.704877075735155
-0.3427000000000001,-46.37423640957591
-0.3417,-48.68021582835591
-0.3407000000000001,-51.55207976708194
-0.3397,-54.1268543328363
-0.3387000000000001,-55.838655005673
-0.3377,-57.53630856551105
-0.3367000000000001,-58.75296028339497
-0.3357,-59.6300812893113
-0.3347000000000001,-60.63452631221547
-0.3337,-61.851178030099405
-0.3327000000000001,-63.251742216965795
-0.3317,-64.0722747708875
-0.3307000000000001,-64.02983343189156
-0.3297,-63.3366248949577
-0.3287000000000001,-62.41706255004542
-0.3277,-61.63897133511965
-0.3267000000000001,-60.80429166819927
-0.3257,-60.06864179226946
-0.3247000000000001,-59.884729323287
-0.3237,-60.23840714825326
-0.3227000000000001,-60.59208497321952
-0.3217,-60.67696765121143
-0.3207000000000001,-60.84673300719523
-0.3197,-61.7662953521075
-0.3187000000000001,-64.0722747708875
-0.3177,-67.08560983960004
-0.3167000000000001,-69.3491479193841
-0.3157,-71.35803796519245
-0.3147000000000001,-72.75860215205884
-0.3137,-73.53669336698461
-0.3127000000000001,-73.53669336698461
-0.3117,-73.197162655017
-0.3107000000000001,-72.92836750804264
-0.3097,-73.0556915250305
-0.3087000000000001,-74.62602106788069
-0.3077,-76.46514575770523
-0.3067000000000001,-77.20079563363505
-0.30569999999999997,-76.63491111368903
-0.3047000000000001,-75.1070229098348
-0.30369999999999997,-73.0556915250305
-0.3027000000000001,-70.26871026429637
-0.30169999999999997,-66.87340314462028
-0.3007000000000001,-63.732744058919906
-0.29969999999999997,-61.327734849149344
-0.2987000000000001,-59.27640346434504
-0.29769999999999996,-57.493867226515086
-0.2967000000000001,-56.88554136757313
-0.29569999999999996,-56.093303039648696
-0.2947000000000001,-54.2117370108282
-0.29369999999999996,-51.69355089706845
-0.29270000000000007,-48.51045047237211
-0.29169999999999996,-45.581998081651484
-0.29070000000000007,-44.181433894785094
-0.28969999999999996,-43.40334267985933
-0.28870000000000007,-42.39889765695515
-0.28769999999999996,-40.91345079209687
-0.28670000000000007,-39.130914554266916
-0.28569999999999995,-37.037141830466666
-0.28470000000000006,-34.58969128170015
-0.28369999999999995,-32.368594540912035
-0.28270000000000006,-30.571911190083444
-0.28169999999999995,-29.100611438223805
-0.28070000000000006,-27.487840556377662
-0.27969999999999995,-25.563833188561212
-0.27870000000000006,-23.86617962872317
-0.27769999999999995,-22.592939458844636
-0.27670000000000006,-21.729965565926964
-0.27569999999999995,-21.149933932982297
-0.27470000000000006,-20.810403221014692
-0.27369999999999994,-20.584049413036283
-0.27270000000000005,-20.371842718056527
-0.27169999999999994,-20.244518701068674
-0.27070000000000005,-20.06060623208622
-0.26969999999999994,-19.848399537106463
-0.26870000000000005,-19.636192842126707
-0.26769999999999994,-19.49472171214021
-0.26670000000000005,-19.409839034148305
-0.26569999999999994,-19.197632339168546
-0.26470000000000005,-19.01371987018609
