Potential V vs RHE, Current mA cm-2
0.013299999999999867,25.12527268560305
0.012299999999999978,23.328589334774456
0.011299999999999866,21.67337711393236
0.010299999999999976,20.14548891007812
0.009299999999999864,18.617600706223882
0.008299999999999974,17.089712502369647
0.007299999999999862,15.618412750510005
0.006299999999999972,14.26028990263957
0.00529999999999986,12.95168195026441
0.0042999999999999705,11.643073997889251
0.0032999999999998586,10.37832209580991
0.0022999999999999687,9.06971414343475
0.0012999999999998568,7.761106191059591
0.00029999999999996696,6.540210339276065
-0.000700000000000145,5.3631705377883545
-0.0017000000000000348,4.2285720752965945
-0.0027000000000001467,3.0939736128048354
-0.0037000000000000366,1.9607898616129409
-0.0047000000000001485,0.7829012333453113
-0.005700000000000038,-0.3947044526623452
-0.00670000000000015,-1.5293029151541047
-0.00770000000000004,-2.576189277054232
-0.008700000000000152,-3.579219588658543
-0.009700000000000042,-4.626105950558669
-0.010700000000000154,-5.672992312458796
-0.011700000000000044,-6.762320013354876
-0.012700000000000156,-7.809206375255003
-0.013700000000000045,-8.812236686859313
-0.014700000000000157,-9.772825659467674
-0.015700000000000047,-10.688143870480351
-0.01670000000000016,-11.647318131788847
-0.01770000000000005,-12.651763154693022
-0.01870000000000016,-13.654793466297335
-0.01970000000000005,-14.61396772760583
-0.020700000000000163,-15.533530072518102
-0.021700000000000053,-16.396503965435777
-0.022700000000000164,-17.2736249713521
-0.023700000000000054,-18.19318731626437
-0.024700000000000166,-19.112749661176647
-0.025700000000000056,-20.06060623208622
-0.026700000000000168,-20.980168576998494
-0.027700000000000058,-21.857289582914817
-0.02870000000000017,-22.63538079784059
-0.02970000000000006,-23.51250180375691
-0.03070000000000017,-24.389622809673234
-0.03170000000000006,-25.295038041586857
-0.03270000000000017,-26.21460038649913
-0.03370000000000006,-27.091721392415455
-0.034700000000000175,-27.869812607341224
-0.035700000000000065,-28.662050935265643
-0.03670000000000018,-29.525024828183312
-0.03770000000000007,-30.402145834099635
-0.03870000000000018,-31.321708179011907
-0.03970000000000007,-32.184682071929586
-0.04070000000000018,-32.97692039985401
-0.04170000000000007,-33.81160006677438
-0.04270000000000018,-34.58969128170015
-0.04370000000000007,-35.46681228761647
-0.044700000000000184,-36.244903502542236
-0.045700000000000074,-37.122024508458566
-0.046700000000000186,-37.94255706238028
-0.047700000000000076,-38.734795390304704
-0.04870000000000019,-39.47044526623452
-0.04970000000000008,-40.220242255162994
-0.05070000000000019,-40.99833347008877
-0.05170000000000008,-41.83301313700913
-0.05270000000000019,-42.653545690930855
-0.05370000000000008,-43.44578401885527
-0.05470000000000019,-44.181433894785094
-0.05570000000000008,-44.97367222270952
-0.056700000000000195,-45.70932209863933
-0.057700000000000085,-46.501560426563756
-0.058700000000000196,-47.27965164148953
-0.059700000000000086,-48.071889969413945
-0.0607000000000002,-48.80753984534376
-0.06170000000000009,-49.59977817326819
-0.0627000000000002,-50.335428049198
-0.06370000000000009,-51.127666377122424
-0.0647000000000002,-51.948198931044146
-0.06570000000000009,-52.74043725896857
-0.0667000000000002,-53.433645795902436
-0.0677000000000001,-54.16929567183226
-0.0687000000000002,-54.919092660760725
-0.0697000000000001,-55.73962521468245
-0.07070000000000021,-56.53186354260687
-0.0717000000000001,-57.352396096528594
-0.07270000000000021,-58.10219308545706
-0.0737000000000001,-58.79540162239092
-0.07470000000000021,-59.502757272323436
-0.0757000000000001,-60.19596580925731
-0.07670000000000021,-60.93161568518713
-0.0777000000000001,-61.7662953521075
-0.07870000000000021,-62.64341635802381
-0.0797000000000001,-63.5063902509415
-0.08070000000000022,-64.34106991786187
-0.0817000000000001,-65.11916113278764
-0.08270000000000022,-65.86895812171612
-0.08370000000000011,-66.68949067563783
-0.08470000000000022,-67.65149435954605
-0.08570000000000011,-68.57105670445833
-0.08670000000000022,-69.43403059737601
-0.08770000000000011,-70.35359294228827
-0.08870000000000022,-71.1458312702127
-0.08970000000000011,-72.00880516313036
-0.09070000000000022,-72.92836750804264
-0.09170000000000011,-73.8479298529549
-0.09270000000000023,-74.62602106788069
-0.09370000000000012,-75.2484940398213
-0.09470000000000023,-75.8992612377592
-0.09570000000000012,-76.63491111368903
-0.09670000000000023,-77.42714944161345
-0.09770000000000012,-78.33256467352709
-0.09870000000000023,-79.1248030014515
-0.09970000000000012,-79.81801153838538
-0.10070000000000023,-80.46877873632329
-0.10170000000000012,-81.13369304725985
-0.10270000000000024,-81.86934292318966
-0.10370000000000013,-82.61913991211814
-0.10470000000000024,-83.43967246603985
-0.10570000000000013,-84.27435213296022
-0.10670000000000024,-85.01000200889004
-0.10770000000000013,-85.75979899781852
-0.10870000000000024,-86.49544887374834
-0.10970000000000013,-87.27354008867411
-0.11070000000000024,-88.10821975559449
-0.11170000000000013,-88.9853407615108
-0.11270000000000002,-89.80587331543254
-0.11370000000000013,-90.59811164335694
-0.11470000000000002,-91.33376151928677
-0.11570000000000014,-92.08355850821525
-0.11670000000000003,-92.81920838414506
-0.11770000000000014,-93.65388805106544
-0.11870000000000003,-94.4319792659912
-0.11970000000000014,-95.22421759391563
-0.12070000000000003,-96.00230880884139
-0.12170000000000014,-96.87942981475771
-0.12270000000000003,-97.6575210296835
-0.12370000000000014,-98.49220069660386
-0.12470000000000003,-99.35517458952152
-0.12570000000000014,-100.23229559543785
-0.12670000000000003,-101.06697526235823
-0.12770000000000015,-101.84506647728399
-0.12870000000000004,-102.59486346621246
-0.12970000000000015,-103.41539602013418
-0.13070000000000004,-104.2925170260505
-0.13170000000000015,-105.29696204895468
-0.13270000000000004,-106.34384841085482
-0.13370000000000015,-107.56050012873874
-0.13470000000000004,-109.04594699359701
-0.13570000000000015,-110.17771603348905
-0.13670000000000004,-111.3094850733811
-0.13770000000000016,-112.27148875728932
-0.13870000000000005,-113.06372708521374
-0.13970000000000016,-113.88425963913545
-0.14070000000000005,-114.67649796705987
-0.14170000000000016,-115.45458918198564
-0.14270000000000005,-116.24682750991008
-0.14370000000000016,-116.98247738583989
-0.14470000000000005,-117.81715705276027
-0.14570000000000016,-118.72257228467387
-0.14670000000000005,-119.38748659561045
-0.14770000000000016,-119.9109297765605
-0.14870000000000005,-120.56169697449842
-0.14970000000000017,-121.29734685042824
-0.15070000000000006,-122.08958517835266
-0.15170000000000017,-122.82523505428249
-0.15270000000000006,-123.65991472120285
-0.15370000000000017,-124.39556459713268
-0.15470000000000006,-124.91900777808273
-0.15570000000000017,-125.56977497602065
-0.15670000000000006,-126.40445464294103
-0.15770000000000017,-127.32401698785328
-0.15870000000000006,-128.32846201075745
-0.15970000000000018,-129.19143590367514
-0.16070000000000007,-130.06855690959148
-0.16170000000000018,-130.76176544652535
-0.16270000000000007,-131.55400377444977
-0.16370000000000018,-132.64333147534586
-0.16470000000000007,-133.77510051523788
-0.16570000000000018,-134.9917522331218
-0.16670000000000007,-136.26499240300032
-0.16770000000000018,-137.1845547479126
-0.16870000000000007,-137.92020462384244
-0.16970000000000018,-138.79732562975875
-0.17070000000000007,-139.8866533306548
-0.17170000000000019,-140.89109835355902
-0.17270000000000008,-141.89554337646317
-0.1737000000000002,-142.8858412863687
-0.17470000000000008,-143.73466806628772
-0.1757000000000002,-144.44202371622026
-0.17670000000000008,-145.00790823616626
-0.1777000000000002,-145.85673501608528
-0.17870000000000008,-146.7055617960043
-0.1797000000000002,-147.55438857592333
-0.18070000000000008,-148.40321535584232
-0.1817000000000002,-149.1105710057749
-0.18270000000000008,-149.6764555257209
-0.1837000000000002,-150.24234004566688
-0.1847000000000001,-150.94969569559944
-0.1857000000000002,-151.7985224755184
-0.1867000000000001,-152.64734925543743
-0.1877000000000002,-153.49617603535648
-0.1887000000000001,-154.203531685289
-0.1897000000000002,-155.05235846520802
-0.1907000000000001,-156.04265637511355
-0.1917000000000001,-156.75001202504606
-0.19269999999999998,-157.7403099349516
-0.1937000000000001,-158.73060784485713
-0.19469999999999998,-159.86237688474912
-0.1957000000000001,-160.99414592464117
-0.19669999999999999,-162.2673860945197
-0.1977000000000001,-163.39915513441173
-0.1987,-164.38945304431726
-0.1997000000000001,-165.3797509542228
-0.2007,-166.51151999411482
-0.2017000000000001,-167.50181790402033
-0.2027,-168.49211581392586
-0.2037000000000001,-169.3409425938449
-0.2047,-170.0482982437774
-0.2057000000000001,-170.75565389370993
-0.2067,-171.46300954364247
-0.2077000000000001,-172.45330745354798
-0.2087,-173.16066310348046
-0.2097000000000001,-173.86801875341303
-0.2107,-174.71684553333202
-0.2117000000000001,-175.56567231325104
-0.2127,-176.27302796318358
-0.2137000000000001,-176.98038361311612
-0.2147,-177.82921039303508
-0.2157000000000001,-178.67803717295413
-0.2167,-179.38539282288664
-0.21770000000000012,-180.23421960280567
-0.2187,-181.08304638272472
-0.21970000000000012,-182.07334429263022
-0.2207,-182.49775768258974
-0.22170000000000012,-183.06364220253573
-0.2227,-183.91246898245475
-0.22370000000000012,-184.9027668923603
-0.2247,-186.03453593225234
-0.22570000000000012,-187.02483384215788
-0.2267,-188.15660288204987
-0.22770000000000012,-188.8639585319824
-0.22870000000000001,-189.71278531190143
-0.22970000000000013,-190.98602548177996
-0.23070000000000002,-192.2592656516585
-0.23170000000000013,-193.532505821537
-0.23270000000000002,-194.52280373144254
-0.23370000000000013,-195.51310164134807
-0.23470000000000002,-196.3619284212671
-0.23570000000000013,-197.35222633117263
-0.23670000000000002,-198.62546650105114
-0.2376999999999999,-199.61576441095667
-0.23870000000000002,-200.7475334508487
-0.2396999999999999,-201.31341797079472
-0.24070000000000003,-202.02077362072723
-0.24169999999999991,-202.7281292706598
-0.24270000000000003,-203.29401379060576
-0.24369999999999992,-204.14284057052478
-0.24470000000000003,-204.9916673504438
-0.24569999999999992,-206.12343639033585
-0.24670000000000003,-206.83079204026836
-0.24769999999999992,-207.25520543022787
-0.24870000000000003,-207.8210899501739
-0.24969999999999992,-208.6699167300929
-0.25070000000000003,-209.66021463999843
-0.2516999999999999,-210.65051254990397
-0.25270000000000004,-211.499339329823
-0.2536999999999999,-212.631108369715
-0.25470000000000004,-213.47993514963403
-0.2556999999999999,-214.32876192955305
-0.25670000000000004,-215.6020020994316
-0.25769999999999993,-216.73377113932364
-0.25870000000000004,-217.86554017921566
-0.25969999999999993,-218.71436695913465
-0.26070000000000004,-219.8461359990267
-0.26169999999999993,-220.6949627789457
-0.26270000000000004,-221.68526068885126
-0.26369999999999993,-222.53408746877028
-0.26470000000000005,-223.52438537867582
-0.26569999999999994,-224.79762554855435
-0.26670000000000005,-225.78792345845983
-0.26769999999999994,-226.35380797840588
-0.26870000000000005,-227.34410588831142
-0.26969999999999994,-228.1929326682304
-0.27070000000000005,-229.04175944814943
-0.27169999999999994,-229.89058622806846
-0.27270000000000005,-230.7394130079875
-0.27369999999999994,-231.5882397879065
-0.27470000000000006,-231.8711820478795
-0.27569999999999995,-232.15412430785253
-0.27670000000000006,-232.86147995778504
-0.27769999999999995,-233.56883560771757
-0.27870000000000006,-234.27619125765005
-0.27969999999999995,-235.12501803756908
-0.28070000000000006,-235.83237368750162
-0.28169999999999995,-236.6812004674206
-0.28270000000000006,-237.53002724733966
-0.28369999999999995,-238.37885402725868
-0.28470000000000006,-239.0862096771912
-0.28569999999999995,-240.21797871708318
-0.28670000000000007,-241.20827662698875
-0.28769999999999996,-242.05710340690777
-0.28870000000000007,-243.04740131681334
-0.28969999999999996,-243.8962280967323
-0.29070000000000007,-245.02799713662432
-0.29169999999999996,-246.30123730650286
-0.29270000000000007,-247.4330063463949
-0.29369999999999996,-248.42330425630044
-0.2947000000000001,-248.9891887762465
-0.29569999999999996,-249.83801555616546
-0.2967000000000001,-250.545371206098
-0.29769999999999996,-251.39419798601702
-0.2987000000000001,-252.38449589592256
-0.29969999999999997,-253.23332267584152
-0.3007000000000001,-253.94067832577412
-0.30169999999999997,-254.78950510569314
-0.3027000000000001,-255.77980301559862
-0.30369999999999997,-256.91157205549064
-0.3047000000000001,-257.90186996539614
-0.30569999999999997,-258.7506967453152
-0.3067000000000001,-259.59952352523425
-0.3077,-260.3068791751668
-0.3087000000000001,-260.8727636951128
-0.3097,-261.58011934504526
-0.3107000000000001,-262.1460038649913
-0.3117,-262.8533595149238
-0.3127000000000001,-263.7021862948428
-0.3137,-264.12659968480233
-0.3147000000000001,-264.9754264647214
-0.3157,-266.1071955046134
-0.3167000000000001,-266.9560222845325
-0.3177,-267.6633779344649
-0.3187000000000001,-268.512204714384
-0.3197,-269.2195603643164
-0.3207000000000001,-269.926916014249
-0.3217,-270.49280053419506
-0.3227000000000001,-271.62456957408705
-0.3237,-272.7563386139791
-0.3247000000000001,-273.4636942639116
-0.3257,-274.4539921738171
-0.3267000000000001,-275.58576121370913
-0.3277,-276.5760591236147
-0.3287000000000001,-277.4248859035337
-0.3297,-278.4151838134392
-0.3307000000000001,-279.26401059335825
-0.3317,-280.11283737327733
-0.3327000000000001,-280.67872189322327
-0.3337,-281.24460641316927
-0.3347000000000001,-281.66901980312883
-0.3357,-282.2349043230748
-0.3367000000000001,-282.65931771303434
-0.3377,-283.3666733629668
-0.3387000000000001,-284.2155001428859
-0.3397,-284.7813846628319
-0.3407000000000001,-285.2057980527914
-0.3417,-285.7716825727374
-0.3427000000000001,-286.6205093526564
-0.3437,-287.327865002589
-0.3447000000000001,-287.893749522535
-0.3457,-288.6011051724675
-0.3467000000000001,-289.1669896924135
-0.3477,-289.87434534234603
-0.3487000000000001,-290.44022986229203
-0.3497,-290.86464325225154
-0.3507000000000001,-291.571998902184
-0.3517,-292.2793545521166
-0.3527000000000001,-293.1281813320356
-0.3537,-293.8355369819681
-0.3547000000000001,-294.4014215019141
-0.3557,-294.96730602186017
-0.35670000000000013,-295.53319054180616
-0.3577,-296.2405461917387
-0.35870000000000013,-297.0893729716577
-0.3597,-297.9381997515767
-0.36070000000000013,-299.06996879146874
-0.3617,-300.3432089613473
-0.3626999999999999,-301.1920357412663
-0.3637,-301.8993913911989
-0.3646999999999999,-302.74821817111786
-0.3657,-303.5970449510368
-0.3666999999999999,-304.5873428609424
-0.3677,-305.71911190083443
-0.3686999999999999,-306.28499642078043
-0.36970000000000003,-306.56793868075346
-0.3706999999999999,-306.70940981073994
-0.37170000000000003,-307.27529433068594
-0.3726999999999999,-307.69970772064545
-0.37370000000000003,-308.2655922405915
-0.3746999999999999,-308.690005630551
-0.37570000000000003,-308.8314767605375
-0.3766999999999999,-309.3973612804835
-0.37770000000000004,-309.821774670443
-0.3786999999999999,-310.10471693041603
-0.37970000000000004,-310.95354371033505
-0.3806999999999999,-311.3779571002945
-0.38170000000000004,-311.6608993602676
-0.38269999999999993,-311.94384162024056
-0.38370000000000004,-312.0853127502271
-0.38469999999999993,-312.50972614018656
-0.38570000000000004,-312.79266840015964
-0.38669999999999993,-311.6608993602676
-0.38570000000000004,-307.98264998061853
-0.38469999999999993,-304.72881399092887
-0.38370000000000004,-301.8993913911989
-0.38269999999999993,-299.2114399214552
-0.38170000000000004,-296.2405461917387
-0.3806999999999999,-293.26965246202207
-0.37970000000000004,-290.157287602319
-0.3786999999999999,-287.04492274261594
-0.37770000000000004,-284.07402901289936
-0.3766999999999999,-281.3860775431558
-0.37570000000000003,-278.6981260734122
-0.3746999999999999,-276.29311686364167
-0.37370000000000003,-273.7466365238846
-0.3726999999999999,-271.20015618412754
-0.37170000000000003,-268.79514697435695
-0.3706999999999999,-266.2486666345999
-0.36970000000000003,-263.84365742482936
-0.3686999999999999,-261.7215904750318
-0.3677,-259.59952352523425
-0.3666999999999999,-257.1945143154637
-0.3657,-254.36509171573357
-0.3646999999999999,-251.53566911600356
-0.3637,-248.9891887762465
-0.3626999999999999,-246.4427084364894
-0.3617,-243.6132858367593
-0.36070000000000013,-240.92533436701575
-0.3597,-238.5203251572452
-0.35870000000000013,-235.97384481748813
-0.3577,-233.4273644777311
-0.35670000000000013,-230.880884137974
-0.3557,-228.33440379821695
-0.3547000000000001,-225.64645232847332
-0.3537,-222.9585008587298
-0.3527000000000001,-220.5534916489592
-0.3517,-218.14848243918865
-0.3507000000000001,-215.88494435940459
-0.3497,-213.76287740960703
-0.3487000000000001,-211.782281589796
-0.3477,-209.8016857699849
-0.3467000000000001,-207.67961882018741
-0.3457,-205.41608074040332
-0.3447000000000001,-202.86960040064628
-0.3437,-200.6060623208622
-0.3427000000000001,-198.48399537106465
-0.3417,-196.50339955125358
-0.3407000000000001,-193.9569192114965
-0.3397,-191.41043887173947
-0.3387000000000001,-188.72248740199586
-0.3377,-186.17600706223882
-0.3367000000000001,-183.77099785246824
-0.3357,-181.64893090267074
-0.3347000000000001,-179.52686395287316
-0.3337,-177.2633258730891
-0.3327000000000001,-174.99978779330505
-0.3317,-172.73624971352098
-0.3307000000000001,-170.61418276372342
-0.3297,-168.49211581392586
-0.3287000000000001,-166.3700488641283
-0.3277,-164.53092417430375
-0.3267000000000001,-162.5503283544927
-0.3257,-160.5697325346817
-0.3247000000000001,-158.3061944548976
-0.3237,-156.32559863508658
-0.3227000000000001,-154.3450028152755
-0.3217,-152.50587812545095
-0.3207000000000001,-150.66675343562642
-0.3197,-148.82762874580186
-0.3187000000000001,-147.1299751859638
-0.3177,-145.43232162612577
-0.3167000000000001,-143.73466806628772
-0.3157,-142.17848563643616
-0.3147000000000001,-140.4949791895968
-0.3137,-138.96709098574257
-0.3127000000000001,-137.31187876490046
-0.3117,-135.3029887190921
-0.3107000000000001,-133.3365400122797
-0.3097,-131.37009130546733
-0.3087000000000001,-129.3753483726576
-0.3077,-127.4937823438371
-0.3067000000000001,-125.48489229802875
-0.30569999999999997,-123.43356091322445
-0.3047000000000001,-121.38222952842017
-0.30369999999999997,-119.2884568046199
-0.3027000000000001,-117.19468408081964
-0.30169999999999997,-115.2423824870059
-0.3007000000000001,-113.44569913617728
-0.29969999999999997,-111.57828022035544
-0.2987000000000001,-109.78159686952685
-0.29769999999999996,-108.0839433096888
-0.2967000000000001,-106.47117242784265
-0.29569999999999996,-104.77351886800463
-0.2947000000000001,-103.07586530816658
-0.29369999999999996,-101.40650597432582
-0.29270000000000007,-99.70885241448778
-0.29169999999999996,-98.2234055496295
-0.29070000000000007,-96.83698847576176
-0.28969999999999996,-95.22421759391563
-0.28870000000000007,-93.51241692107894
-0.28769999999999996,-91.81476336124088
-0.28670000000000007,-90.11710980140283
-0.28569999999999995,-88.54678025855264
-0.28470000000000006,-87.06133339369435
-0.28369999999999995,-85.61832786783202
-0.28270000000000006,-84.23191079396429
-0.28169999999999995,-82.78890526810196
-0.28070000000000006,-81.26101706424771
-0.27969999999999995,-79.56336350440966
-0.27870000000000006,-77.86570994457162
-0.27769999999999995,-76.15390927173492
-0.27670000000000006,-74.54113838988879
-0.27569999999999995,-73.01325018603454
-0.27470000000000006,-71.58439177317086
-0.27369999999999994,-69.95747377832606
-0.27270000000000005,-68.30226155748396
-0.27169999999999994,-66.60460799764593
-0.27070000000000005,-64.99183711579978
-0.26969999999999994,-63.421507572949594
-0.26870000000000005,-61.851178030099405
-0.26769999999999994,-60.36573116524111
