Mar. 31, 2025   00:03:02
Cyclic Voltammetry
File: c:/users/guazh/data/banditlqround7_x0exp518_r20/2025-03-28-exp994\exp994-2025-03-30t23_56_44-arkoh\exp994_cv_sr_200mvs_efin_-1400mv.bin
Data Source:  Experiment
Instrument Model:  CHI760E
Header: CV ran at 200 mVs
Note: 

Init E (V) = -1
High E (V) = -1
Low E (V) = -1.4
Final E (V) = -1
Init P/N = N
Scan Rate (V/s) = 0.2
Segment = 3
Sample Interval (V) = 0.001
Quiet Time (sec) = 2
Sensitivity (A/V) = 0.01
Comp R (ohm) = 1.8

Results:

Channel 1:
Segment 1:

Segment 2:

Segment 3:

Potential/V, Current/A

-1.000, -1.821e-3
-1.001, -1.699e-3
-1.002, -1.581e-3
-1.003, -1.478e-3
-1.004, -1.381e-3
-1.005, -1.283e-3
-1.006, -1.191e-3
-1.007, -1.109e-3
-1.008, -1.021e-3
-1.009, -9.357e-4
-1.010, -8.608e-4
-1.011, -7.830e-4
-1.012, -7.012e-4
-1.013, -6.298e-4
-1.014, -5.606e-4
-1.015, -4.845e-4
-1.016, -4.153e-4
-1.017, -3.530e-4
-1.018, -2.826e-4
-1.019, -2.136e-4
-1.020, -1.537e-4
-1.021, -9.023e-5
-1.022, -2.225e-5
-1.023, 3.695e-5
-1.024, 9.592e-5
-1.025, 1.607e-4
-1.026, 2.191e-4
-1.027, 2.724e-4
-1.028, 3.340e-4
-1.029, 3.936e-4
-1.030, 4.445e-4
-1.031, 4.999e-4
-1.032, 5.598e-4
-1.033, 6.110e-4
-1.034, 6.608e-4
-1.035, 7.187e-4
-1.036, 7.710e-4
-1.037, 8.177e-4
-1.038, 8.733e-4
-1.039, 9.271e-4
-1.040, 9.707e-4
-1.041, 1.020e-3
-1.042, 1.075e-3
-1.043, 1.120e-3
-1.044, 1.166e-3
-1.045, 1.217e-3
-1.046, 1.265e-3
-1.047, 1.308e-3
-1.048, 1.359e-3
-1.049, 1.408e-3
-1.050, 1.449e-3
-1.051, 1.495e-3
-1.052, 1.548e-3
-1.053, 1.590e-3
-1.054, 1.634e-3
-1.055, 1.685e-3
-1.056, 1.729e-3
-1.057, 1.770e-3
-1.058, 1.817e-3
-1.059, 1.864e-3
-1.060, 1.904e-3
-1.061, 1.948e-3
-1.062, 1.997e-3
-1.063, 2.039e-3
-1.064, 2.082e-3
-1.065, 2.130e-3
-1.066, 2.172e-3
-1.067, 2.210e-3
-1.068, 2.258e-3
-1.069, 2.304e-3
-1.070, 2.343e-3
-1.071, 2.389e-3
-1.072, 2.440e-3
-1.073, 2.481e-3
-1.074, 2.521e-3
-1.075, 2.569e-3
-1.076, 2.615e-3
-1.077, 2.651e-3
-1.078, 2.697e-3
-1.079, 2.746e-3
-1.080, 2.787e-3
-1.081, 2.828e-3
-1.082, 2.874e-3
-1.083, 2.916e-3
-1.084, 2.954e-3
-1.085, 2.998e-3
-1.086, 3.041e-3
-1.087, 3.082e-3
-1.088, 3.130e-3
-1.089, 3.176e-3
-1.090, 3.213e-3
-1.091, 3.257e-3
-1.092, 3.308e-3
-1.093, 3.349e-3
-1.094, 3.392e-3
-1.095, 3.441e-3
-1.096, 3.485e-3
-1.097, 3.525e-3
-1.098, 3.573e-3
-1.099, 3.621e-3
-1.100, 3.661e-3
-1.101, 3.705e-3
-1.102, 3.756e-3
-1.103, 3.799e-3
-1.104, 3.840e-3
-1.105, 3.888e-3
-1.106, 3.933e-3
-1.107, 3.974e-3
-1.108, 4.022e-3
-1.109, 4.070e-3
-1.110, 4.110e-3
-1.111, 4.156e-3
-1.112, 4.208e-3
-1.113, 4.250e-3
-1.114, 4.293e-3
-1.115, 4.343e-3
-1.116, 4.389e-3
-1.117, 4.429e-3
-1.118, 4.475e-3
-1.119, 4.522e-3
-1.120, 4.560e-3
-1.121, 4.606e-3
-1.122, 4.655e-3
-1.123, 4.697e-3
-1.124, 4.742e-3
-1.125, 4.792e-3
-1.126, 4.837e-3
-1.127, 4.878e-3
-1.128, 4.929e-3
-1.129, 4.984e-3
-1.130, 5.031e-3
-1.131, 5.086e-3
-1.132, 5.142e-3
-1.133, 5.182e-3
-1.134, 5.219e-3
-1.135, 5.267e-3
-1.136, 5.313e-3
-1.137, 5.357e-3
-1.138, 5.403e-3
-1.139, 5.449e-3
-1.140, 5.498e-3
-1.141, 5.546e-3
-1.142, 5.602e-3
-1.143, 5.649e-3
-1.144, 5.682e-3
-1.145, 5.728e-3
-1.146, 5.772e-3
-1.147, 5.814e-3
-1.148, 5.862e-3
-1.149, 5.911e-3
-1.150, 5.952e-3
-1.151, 6.002e-3
-1.152, 6.053e-3
-1.153, 6.098e-3
-1.154, 6.144e-3
-1.155, 6.199e-3
-1.156, 6.250e-3
-1.157, 6.296e-3
-1.158, 6.354e-3
-1.159, 6.414e-3
-1.160, 6.453e-3
-1.161, 6.503e-3
-1.162, 6.551e-3
-1.163, 6.592e-3
-1.164, 6.634e-3
-1.165, 6.683e-3
-1.166, 6.723e-3
-1.167, 6.761e-3
-1.168, 6.818e-3
-1.169, 6.870e-3
-1.170, 6.912e-3
-1.171, 6.959e-3
-1.172, 7.016e-3
-1.173, 7.063e-3
-1.174, 7.102e-3
-1.175, 7.156e-3
-1.176, 7.207e-3
-1.177, 7.255e-3
-1.178, 7.307e-3
-1.179, 7.353e-3
-1.180, 7.393e-3
-1.181, 7.447e-3
-1.182, 7.511e-3
-1.183, 7.570e-3
-1.184, 7.645e-3
-1.185, 7.714e-3
-1.186, 7.779e-3
-1.187, 7.832e-3
-1.188, 7.891e-3
-1.189, 7.943e-3
-1.190, 7.979e-3
-1.191, 8.015e-3
-1.192, 8.055e-3
-1.193, 8.086e-3
-1.194, 8.125e-3
-1.195, 8.164e-3
-1.196, 8.203e-3
-1.197, 8.239e-3
-1.198, 8.278e-3
-1.199, 8.334e-3
-1.200, 8.379e-3
-1.201, 8.435e-3
-1.202, 8.492e-3
-1.203, 8.547e-3
-1.204, 8.610e-3
-1.205, 8.680e-3
-1.206, 8.752e-3
-1.207, 8.809e-3
-1.208, 8.859e-3
-1.209, 8.894e-3
-1.210, 8.924e-3
-1.211, 8.968e-3
-1.212, 9.020e-3
-1.213, 9.051e-3
-1.214, 9.084e-3
-1.215, 9.128e-3
-1.216, 9.175e-3
-1.217, 9.231e-3
-1.218, 9.300e-3
-1.219, 9.361e-3
-1.220, 9.430e-3
-1.221, 9.508e-3
-1.222, 9.567e-3
-1.223, 9.596e-3
-1.224, 9.635e-3
-1.225, 9.679e-3
-1.226, 9.697e-3
-1.227, 9.721e-3
-1.228, 9.776e-3
-1.229, 9.824e-3
-1.230, 9.862e-3
-1.231, 9.903e-3
-1.232, 9.956e-3
-1.233, 1.001e-2
-1.234, 1.006e-2
-1.235, 1.012e-2
-1.236, 1.018e-2
-1.237, 1.023e-2
-1.238, 1.031e-2
-1.239, 1.038e-2
-1.240, 1.044e-2
-1.241, 1.050e-2
-1.242, 1.054e-2
-1.243, 1.058e-2
-1.244, 1.063e-2
-1.245, 1.067e-2
-1.246, 1.071e-2
-1.247, 1.075e-2
-1.248, 1.079e-2
-1.249, 1.082e-2
-1.250, 1.085e-2
-1.251, 1.089e-2
-1.252, 1.093e-2
-1.253, 1.096e-2
-1.254, 1.101e-2
-1.255, 1.106e-2
-1.256, 1.111e-2
-1.257, 1.115e-2
-1.258, 1.120e-2
-1.259, 1.127e-2
-1.260, 1.133e-2
-1.261, 1.138e-2
-1.262, 1.145e-2
-1.263, 1.151e-2
-1.264, 1.158e-2
-1.265, 1.164e-2
-1.266, 1.169e-2
-1.267, 1.173e-2
-1.268, 1.177e-2
-1.269, 1.181e-2
-1.270, 1.185e-2
-1.271, 1.189e-2
-1.272, 1.193e-2
-1.273, 1.197e-2
-1.274, 1.201e-2
-1.275, 1.205e-2
-1.276, 1.208e-2
-1.277, 1.212e-2
-1.278, 1.218e-2
-1.279, 1.223e-2
-1.280, 1.227e-2
-1.281, 1.232e-2
-1.282, 1.237e-2
-1.283, 1.242e-2
-1.284, 1.249e-2
-1.285, 1.253e-2
-1.286, 1.258e-2
-1.287, 1.263e-2
-1.288, 1.270e-2
-1.289, 1.273e-2
-1.290, 1.275e-2
-1.291, 1.278e-2
-1.292, 1.280e-2
-1.293, 1.281e-2
-1.294, 1.284e-2
-1.295, 1.288e-2
-1.296, 1.291e-2
-1.297, 1.295e-2
-1.298, 1.301e-2
-1.299, 1.305e-2
-1.300, 1.310e-2
-1.301, 1.315e-2
-1.302, 1.320e-2
-1.303, 1.325e-2
-1.304, 1.329e-2
-1.305, 1.334e-2
-1.306, 1.338e-2
-1.307, 1.342e-2
-1.308, 1.347e-2
-1.309, 1.355e-2
-1.310, 1.359e-2
-1.311, 1.363e-2
-1.312, 1.364e-2
-1.313, 1.365e-2
-1.314, 1.366e-2
-1.315, 1.368e-2
-1.316, 1.368e-2
-1.317, 1.371e-2
-1.318, 1.375e-2
-1.319, 1.378e-2
-1.320, 1.381e-2
-1.321, 1.385e-2
-1.322, 1.391e-2
-1.323, 1.394e-2
-1.324, 1.398e-2
-1.325, 1.402e-2
-1.326, 1.405e-2
-1.327, 1.408e-2
-1.328, 1.411e-2
-1.329, 1.415e-2
-1.330, 1.417e-2
-1.331, 1.420e-2
-1.332, 1.422e-2
-1.333, 1.422e-2
-1.334, 1.423e-2
-1.335, 1.425e-2
-1.336, 1.427e-2
-1.337, 1.428e-2
-1.338, 1.430e-2
-1.339, 1.432e-2
-1.340, 1.434e-2
-1.341, 1.437e-2
-1.342, 1.441e-2
-1.343, 1.443e-2
-1.344, 1.447e-2
-1.345, 1.452e-2
-1.346, 1.455e-2
-1.347, 1.455e-2
-1.348, 1.455e-2
-1.349, 1.454e-2
-1.350, 1.455e-2
-1.351, 1.455e-2
-1.352, 1.456e-2
-1.353, 1.458e-2
-1.354, 1.460e-2
-1.355, 1.462e-2
-1.356, 1.464e-2
-1.357, 1.467e-2
-1.358, 1.470e-2
-1.359, 1.472e-2
-1.360, 1.474e-2
-1.361, 1.477e-2
-1.362, 1.478e-2
-1.363, 1.478e-2
-1.364, 1.478e-2
-1.365, 1.478e-2
-1.366, 1.476e-2
-1.367, 1.474e-2
-1.368, 1.474e-2
-1.369, 1.475e-2
-1.370, 1.474e-2
-1.371, 1.474e-2
-1.372, 1.475e-2
-1.373, 1.475e-2
-1.374, 1.474e-2
-1.375, 1.474e-2
-1.376, 1.473e-2
-1.377, 1.474e-2
-1.378, 1.475e-2
-1.379, 1.476e-2
-1.380, 1.478e-2
-1.381, 1.480e-2
-1.382, 1.482e-2
-1.383, 1.482e-2
-1.384, 1.483e-2
-1.385, 1.483e-2
-1.386, 1.482e-2
-1.387, 1.480e-2
-1.388, 1.477e-2
-1.389, 1.474e-2
-1.390, 1.472e-2
-1.391, 1.471e-2
-1.392, 1.469e-2
-1.393, 1.467e-2
-1.394, 1.467e-2
-1.395, 1.467e-2
-1.396, 1.467e-2
-1.397, 1.465e-2
-1.398, 1.465e-2
-1.399, 1.465e-2
-1.400, 1.451e-2
-1.399, 1.425e-2
-1.398, 1.401e-2
-1.397, 1.377e-2
-1.396, 1.352e-2
-1.395, 1.331e-2
-1.394, 1.308e-2
-1.393, 1.285e-2
-1.392, 1.265e-2
-1.391, 1.244e-2
-1.390, 1.224e-2
-1.389, 1.204e-2
-1.388, 1.187e-2
-1.387, 1.167e-2
-1.386, 1.149e-2
-1.385, 1.131e-2
-1.384, 1.111e-2
-1.383, 1.090e-2
-1.382, 1.071e-2
-1.381, 1.054e-2
-1.380, 1.035e-2
-1.379, 1.018e-2
-1.378, 1.001e-2
-1.377, 9.840e-3
-1.376, 9.671e-3
-1.375, 9.511e-3
-1.374, 9.348e-3
-1.373, 9.185e-3
-1.372, 9.032e-3
-1.371, 8.880e-3
-1.370, 8.725e-3
-1.369, 8.575e-3
-1.368, 8.432e-3
-1.367, 8.286e-3
-1.366, 8.144e-3
-1.365, 8.013e-3
-1.364, 7.875e-3
-1.363, 7.736e-3
-1.362, 7.614e-3
-1.361, 7.480e-3
-1.360, 7.334e-3
-1.359, 7.200e-3
-1.358, 7.077e-3
-1.357, 6.933e-3
-1.356, 6.792e-3
-1.355, 6.674e-3
-1.354, 6.551e-3
-1.353, 6.425e-3
-1.352, 6.311e-3
-1.351, 6.198e-3
-1.350, 6.077e-3
-1.349, 5.961e-3
-1.348, 5.847e-3
-1.347, 5.730e-3
-1.346, 5.624e-3
-1.345, 5.523e-3
-1.344, 5.413e-3
-1.343, 5.309e-3
-1.342, 5.209e-3
-1.341, 5.111e-3
-1.340, 5.004e-3
-1.339, 4.909e-3
-1.338, 4.815e-3
-1.337, 4.705e-3
-1.336, 4.596e-3
-1.335, 4.496e-3
-1.334, 4.385e-3
-1.333, 4.287e-3
-1.332, 4.205e-3
-1.331, 4.118e-3
-1.330, 4.015e-3
-1.329, 3.921e-3
-1.328, 3.832e-3
-1.327, 3.732e-3
-1.326, 3.637e-3
-1.325, 3.550e-3
-1.324, 3.455e-3
-1.323, 3.359e-3
-1.322, 3.275e-3
-1.321, 3.189e-3
-1.320, 3.099e-3
-1.319, 3.014e-3
-1.318, 2.935e-3
-1.317, 2.848e-3
-1.316, 2.768e-3
-1.315, 2.698e-3
-1.314, 2.617e-3
-1.313, 2.533e-3
-1.312, 2.461e-3
-1.311, 2.387e-3
-1.310, 2.303e-3
-1.309, 2.230e-3
-1.308, 2.158e-3
-1.307, 2.079e-3
-1.306, 2.003e-3
-1.305, 1.935e-3
-1.304, 1.861e-3
-1.303, 1.785e-3
-1.302, 1.720e-3
-1.301, 1.650e-3
-1.300, 1.573e-3
-1.299, 1.507e-3
-1.298, 1.444e-3
-1.297, 1.372e-3
-1.296, 1.303e-3
-1.295, 1.242e-3
-1.294, 1.174e-3
-1.293, 1.104e-3
-1.292, 1.043e-3
-1.291, 9.794e-4
-1.290, 9.095e-4
-1.289, 8.477e-4
-1.288, 7.900e-4
-1.287, 7.235e-4
-1.286, 6.609e-4
-1.285, 6.058e-4
-1.284, 5.422e-4
-1.283, 4.785e-4
-1.282, 4.244e-4
-1.281, 3.664e-4
-1.280, 3.017e-4
-1.279, 2.458e-4
-1.278, 1.936e-4
-1.277, 1.318e-4
-1.276, 7.394e-5
-1.275, 2.322e-5
-1.274, -3.581e-5
-1.273, -9.563e-5
-1.272, -1.444e-4
-1.271, -1.976e-4
-1.270, -2.569e-4
-1.269, -3.070e-4
-1.268, -3.563e-4
-1.267, -4.131e-4
-1.266, -4.654e-4
-1.265, -5.118e-4
-1.264, -5.657e-4
-1.263, -6.201e-4
-1.262, -6.654e-4
-1.261, -7.150e-4
-1.260, -7.713e-4
-1.259, -8.175e-4
-1.258, -8.643e-4
-1.257, -9.201e-4
-1.256, -9.699e-4
-1.255, -1.014e-3
-1.254, -1.063e-3
-1.253, -1.113e-3
-1.252, -1.156e-3
-1.251, -1.199e-3
-1.250, -1.249e-3
-1.249, -1.292e-3
-1.248, -1.332e-3
-1.247, -1.381e-3
-1.246, -1.427e-3
-1.245, -1.467e-3
-1.244, -1.517e-3
-1.243, -1.566e-3
-1.242, -1.605e-3
-1.241, -1.646e-3
-1.240, -1.694e-3
-1.239, -1.732e-3
-1.238, -1.769e-3
-1.237, -1.817e-3
-1.236, -1.861e-3
-1.235, -1.897e-3
-1.234, -1.942e-3
-1.233, -1.989e-3
-1.232, -2.027e-3
-1.231, -2.070e-3
-1.230, -2.121e-3
-1.229, -2.162e-3
-1.228, -2.199e-3
-1.227, -2.246e-3
-1.226, -2.288e-3
-1.225, -2.322e-3
-1.224, -2.364e-3
-1.223, -2.407e-3
-1.222, -2.437e-3
-1.221, -2.473e-3
-1.220, -2.520e-3
-1.219, -2.555e-3
-1.218, -2.588e-3
-1.217, -2.633e-3
-1.216, -2.673e-3
-1.215, -2.714e-3
-1.214, -2.761e-3
-1.213, -2.807e-3
-1.212, -2.849e-3
-1.211, -2.882e-3
-1.210, -2.921e-3
-1.209, -2.953e-3
-1.208, -2.978e-3
-1.207, -3.013e-3
-1.206, -3.050e-3
-1.205, -3.081e-3
-1.204, -3.118e-3
-1.203, -3.161e-3
-1.202, -3.200e-3
-1.201, -3.242e-3
-1.200, -3.289e-3
-1.199, -3.322e-3
-1.198, -3.351e-3
-1.197, -3.393e-3
-1.196, -3.430e-3
-1.195, -3.462e-3
-1.194, -3.497e-3
-1.193, -3.539e-3
-1.192, -3.572e-3
-1.191, -3.613e-3
-1.190, -3.654e-3
-1.189, -3.688e-3
-1.188, -3.716e-3
-1.187, -3.757e-3
-1.186, -3.798e-3
-1.185, -3.831e-3
-1.184, -3.867e-3
-1.183, -3.904e-3
-1.182, -3.935e-3
-1.181, -3.972e-3
-1.180, -4.016e-3
-1.179, -4.052e-3
-1.178, -4.083e-3
-1.177, -4.129e-3
-1.176, -4.168e-3
-1.175, -4.202e-3
-1.174, -4.243e-3
-1.173, -4.289e-3
-1.172, -4.321e-3
-1.171, -4.350e-3
-1.170, -4.390e-3
-1.169, -4.426e-3
-1.168, -4.455e-3
-1.167, -4.493e-3
-1.166, -4.532e-3
-1.165, -4.560e-3
-1.164, -4.602e-3
-1.163, -4.648e-3
-1.162, -4.685e-3
-1.161, -4.727e-3
-1.160, -4.773e-3
-1.159, -4.809e-3
-1.158, -4.846e-3
-1.157, -4.894e-3
-1.156, -4.932e-3
-1.155, -4.964e-3
-1.154, -5.003e-3
-1.153, -5.041e-3
-1.152, -5.074e-3
-1.151, -5.102e-3
-1.150, -5.133e-3
-1.149, -5.167e-3
-1.148, -5.201e-3
-1.147, -5.245e-3
-1.146, -5.301e-3
-1.145, -5.336e-3
-1.144, -5.377e-3
-1.143, -5.436e-3
-1.142, -5.477e-3
-1.141, -5.517e-3
-1.140, -5.575e-3
-1.139, -5.612e-3
-1.138, -5.637e-3
-1.137, -5.669e-3
-1.136, -5.713e-3
-1.135, -5.770e-3
-1.134, -5.827e-3
-1.133, -5.854e-3
-1.132, -5.884e-3
-1.131, -5.916e-3
-1.130, -5.941e-3
-1.129, -5.974e-3
-1.128, -6.015e-3
-1.127, -6.061e-3
-1.126, -6.094e-3
-1.125, -6.126e-3
-1.124, -6.188e-3
-1.123, -6.251e-3
-1.122, -6.299e-3
-1.121, -6.349e-3
-1.120, -6.383e-3
-1.119, -6.425e-3
-1.118, -6.464e-3
-1.117, -6.513e-3
-1.116, -6.561e-3
-1.115, -6.592e-3
-1.114, -6.636e-3
-1.113, -6.674e-3
-1.112, -6.698e-3
-1.111, -6.735e-3
-1.110, -6.785e-3
-1.109, -6.824e-3
-1.108, -6.852e-3
-1.107, -6.902e-3
-1.106, -6.965e-3
-1.105, -6.995e-3
-1.104, -7.032e-3
-1.103, -7.088e-3
-1.102, -7.129e-3
-1.101, -7.175e-3
-1.100, -7.232e-3
-1.099, -7.270e-3
-1.098, -7.290e-3
-1.097, -7.327e-3
-1.096, -7.373e-3
-1.095, -7.391e-3
-1.094, -7.422e-3
-1.093, -7.477e-3
-1.092, -7.517e-3
-1.091, -7.558e-3
-1.090, -7.625e-3
-1.089, -7.681e-3
-1.088, -7.718e-3
-1.087, -7.770e-3
-1.086, -7.812e-3
-1.085, -7.834e-3
-1.084, -7.868e-3
-1.083, -7.911e-3
-1.082, -7.939e-3
-1.081, -7.989e-3
-1.080, -8.045e-3
-1.079, -8.077e-3
-1.078, -8.120e-3
-1.077, -8.188e-3
-1.076, -8.241e-3
-1.075, -8.281e-3
-1.074, -8.332e-3
-1.073, -8.374e-3
-1.072, -8.401e-3
-1.071, -8.439e-3
-1.070, -8.477e-3
-1.069, -8.504e-3
-1.068, -8.528e-3
-1.067, -8.565e-3
-1.066, -8.603e-3
-1.065, -8.638e-3
-1.064, -8.675e-3
-1.063, -8.723e-3
-1.062, -8.767e-3
-1.061, -8.829e-3
-1.060, -8.890e-3
-1.059, -8.933e-3
-1.058, -8.968e-3
-1.057, -9.017e-3
-1.056, -9.063e-3
-1.055, -9.099e-3
-1.054, -9.146e-3
-1.053, -9.176e-3
-1.052, -9.199e-3
-1.051, -9.235e-3
-1.050, -9.294e-3
-1.049, -9.316e-3
-1.048, -9.339e-3
-1.047, -9.399e-3
-1.046, -9.439e-3
-1.045, -9.454e-3
-1.044, -9.504e-3
-1.043, -9.551e-3
-1.042, -9.584e-3
-1.041, -9.637e-3
-1.040, -9.686e-3
-1.039, -9.718e-3
-1.038, -9.764e-3
-1.037, -9.815e-3
-1.036, -9.856e-3
-1.035, -9.882e-3
-1.034, -9.901e-3
-1.033, -9.933e-3
-1.032, -9.962e-3
-1.031, -1.002e-2
-1.030, -1.006e-2
-1.029, -1.011e-2
-1.028, -1.016e-2
-1.027, -1.020e-2
-1.026, -1.023e-2
-1.025, -1.025e-2
-1.024, -1.027e-2
-1.023, -1.028e-2
-1.022, -1.031e-2
-1.021, -1.035e-2
-1.020, -1.039e-2
-1.019, -1.045e-2
-1.018, -1.050e-2
-1.017, -1.055e-2
-1.016, -1.059e-2
-1.015, -1.062e-2
-1.014, -1.067e-2
-1.013, -1.070e-2
-1.012, -1.073e-2
-1.011, -1.075e-2
-1.010, -1.077e-2
-1.009, -1.080e-2
-1.008, -1.081e-2
-1.007, -1.083e-2
-1.006, -1.086e-2
-1.005, -1.089e-2
-1.004, -1.093e-2
-1.003, -1.099e-2
-1.002, -1.107e-2
-1.001, -1.111e-2
