Potential V vs RHE, Current mA cm-2
0.013299999999999867,-5.41268543328363
0.012299999999999978,-6.465230640383218
0.011299999999999866,-7.140047930418839
0.010299999999999976,-7.680467646967284
0.009299999999999864,-8.181275447119509
0.008299999999999974,-8.512317891287925
0.007299999999999862,-8.956537239445547
0.006299999999999972,-9.284750261014237
0.00529999999999986,-9.53656887239021
0.0042999999999999705,-9.900149676455525
0.0032999999999998586,-10.133577040933258
0.0022999999999999687,-10.409445744406941
0.0012999999999998568,-10.634384841085481
0.00029999999999996696,-10.857909226464155
-0.000700000000000145,-11.15075446553622
-0.0017000000000000348,-11.256857813026096
-0.0027000000000001467,-11.521408826100858
-0.0037000000000000366,-11.73503023238048
-0.0047000000000001485,-11.873671939767252
-0.005700000000000038,-12.092952191246333
-0.00670000000000015,-12.213202651734862
-0.00770000000000004,-12.457947706611513
-0.008700000000000152,-12.56405105410139
-0.009700000000000042,-12.7012780501883
-0.010700000000000154,-12.94602310506495
-0.011700000000000044,-13.012514536158609
-0.012700000000000156,-13.192182871241465
-0.013700000000000045,-13.322336310829051
-0.014700000000000157,-13.4821986877138
-0.015700000000000047,-13.630743374199627
-0.01670000000000016,-13.680258269694905
-0.01770000000000005,-13.885391408175334
-0.01870000000000016,-13.992909466965077
-0.01970000000000005,-14.067889165857926
-0.020700000000000163,-14.26028990263957
-0.021700000000000053,-14.345172580631472
-0.022700000000000164,-14.500790823616628
-0.023700000000000054,-14.57152638860988
-0.024700000000000166,-14.67055617960043
-0.025700000000000056,-14.882762874580186
-0.026700000000000168,-14.868615761581536
-0.027700000000000058,-15.03838111756534
-0.02870000000000017,-15.165705134553193
-0.02970000000000006,-15.250587812545096
-0.03070000000000017,-15.3920589425316
-0.03170000000000006,-15.43450028152755
-0.03270000000000017,-15.632559863508657
-0.03370000000000006,-15.689148315503255
-0.034700000000000175,-15.74573676749786
-0.035700000000000065,-15.943796349478962
-0.03670000000000018,-15.986237688474914
-0.03770000000000007,-16.11356170546277
-0.03870000000000018,-16.19844438345467
-0.03970000000000007,-16.311621287443874
-0.04070000000000018,-16.453092417430376
-0.04170000000000007,-16.453092417430376
-0.04270000000000018,-16.622857773414182
-0.04370000000000007,-16.736034677403385
-0.044700000000000184,-16.764328903400685
-0.045700000000000074,-16.919947146385837
-0.046700000000000186,-16.97653559838044
-0.047700000000000076,-17.103859615368293
-0.04870000000000019,-17.160448067362896
-0.04970000000000008,-17.2453307453548
-0.05070000000000019,-17.429243214337255
-0.05170000000000008,-17.4150961013386
-0.05270000000000019,-17.556567231325104
-0.05370000000000008,-17.655597022315657
-0.05470000000000019,-17.75462681330621
-0.05570000000000008,-17.867803717295413
-0.056700000000000195,-17.896097943292716
-0.057700000000000085,-18.08001041227517
-0.058700000000000196,-18.13659886426977
-0.059700000000000086,-18.19318731626437
-0.0607000000000002,-18.362952672248177
-0.06170000000000009,-18.433688237241427
-0.0627000000000002,-18.546865141230633
-0.06370000000000009,-18.603453593225233
-0.0647000000000002,-18.702483384215785
-0.06570000000000009,-18.858101627200938
-0.0667000000000002,-18.843954514202288
-0.0677000000000001,-19.01371987018609
-0.0687000000000002,-19.126896774175293
-0.0697000000000001,-19.169338113171246
-0.07070000000000021,-19.31080924315775
-0.0717000000000001,-19.339103469155052
-0.07270000000000021,-19.523015938137508
-0.0737000000000001,-19.551310164134804
-0.07470000000000021,-19.636192842126707
-0.0757000000000001,-19.834252424107817
-0.07670000000000021,-19.834252424107817
-0.0777000000000001,-19.97572355409432
-0.07870000000000021,-20.046459119087572
-0.0797000000000001,-20.159636023076775
-0.08070000000000022,-20.25866581406732
-0.0817000000000001,-20.286960040064624
-0.08270000000000022,-20.47087250904708
-0.08370000000000011,-20.541608074040333
-0.08470000000000022,-20.598196526034933
-0.08570000000000011,-20.75381476902009
-0.08670000000000022,-20.824550334013338
-0.08770000000000011,-20.93772723800254
-0.08870000000000022,-21.008462802995794
-0.08970000000000011,-21.107492593986347
-0.09070000000000022,-21.277257949970153
-0.09170000000000011,-21.2631108369715
-0.09270000000000023,-21.43287619295531
-0.09370000000000012,-21.54605309694451
-0.09470000000000023,-21.602641548939108
-0.09570000000000012,-21.744112678925614
-0.09670000000000023,-21.772406904922917
-0.09770000000000012,-21.97046648690402
-0.09870000000000023,-21.99876071290132
-0.09970000000000012,-22.083643390893226
-0.10070000000000023,-22.281702972874328
-0.10170000000000012,-22.309997198871628
-0.10270000000000024,-22.437321215859484
-0.10370000000000013,-22.508056780852733
-0.10470000000000024,-22.63538079784059
-0.10570000000000013,-22.76270481482844
-0.10670000000000024,-22.776851927827092
-0.10770000000000013,-22.974911509808198
-0.10870000000000024,-23.073941300798747
-0.10970000000000013,-23.1163826397947
-0.11070000000000024,-23.272000882779853
-0.11170000000000013,-23.328589334774456
-0.11270000000000002,-23.48420757775961
-0.11370000000000013,-23.54079602975421
-0.11470000000000002,-23.639825820744765
-0.11570000000000014,-23.852032515724517
-0.11670000000000003,-23.823738289727217
-0.11770000000000014,-23.993503645711023
-0.11870000000000003,-24.106680549700226
-0.11970000000000014,-24.17741611469348
-0.12070000000000003,-24.31888724467998
-0.12170000000000014,-24.37547569667458
-0.12270000000000003,-24.57353527865569
-0.12370000000000014,-24.630123730650286
-0.12470000000000003,-24.686712182644893
-0.12570000000000014,-24.884771764625995
-0.12670000000000003,-24.95550732961925
-0.12770000000000015,-25.06868423360845
-0.12870000000000004,-25.167714024599
-0.12970000000000015,-25.280890928588207
-0.13070000000000004,-25.43650917157336
-0.13170000000000015,-25.45065628457201
-0.13270000000000004,-25.634568753554465
-0.13370000000000015,-25.761892770542314
-0.13470000000000004,-25.80433410953827
-0.13570000000000015,-25.974099465522073
-0.13670000000000004,-26.044835030515326
-0.13770000000000016,-26.21460038649913
-0.13870000000000005,-26.27118883849373
-0.13970000000000016,-26.38436574248293
-0.14070000000000005,-26.59657243746269
-0.14170000000000016,-26.61071955046134
-0.14270000000000005,-26.780484906445146
-0.14370000000000016,-26.879514697435695
-0.14470000000000005,-27.00683871442355
-0.14570000000000016,-27.14830984441005
-0.14670000000000005,-27.176604070407354
-0.14770000000000016,-27.38881076538711
-0.14870000000000005,-27.487840556377662
-0.14970000000000017,-27.544429008372262
-0.15070000000000006,-27.742488590353368
-0.15170000000000017,-27.841518381343924
-0.15270000000000006,-27.968842398331773
-0.15370000000000017,-28.06787218932233
-0.15470000000000006,-28.19519620631018
-0.15570000000000017,-28.364961562293985
-0.15670000000000006,-28.379108675292635
-0.15770000000000017,-28.591315370272387
-0.15870000000000006,-28.732786500258893
-0.15970000000000018,-28.789374952253496
-0.16070000000000007,-28.97328742123595
-0.16170000000000018,-29.044022986229205
-0.16270000000000007,-29.25622968120896
-0.16370000000000018,-29.32696524620221
-0.16470000000000007,-29.440142150191413
-0.16570000000000018,-29.652348845171172
-0.16670000000000007,-29.694790184167122
-0.16770000000000018,-29.864555540150924
-0.16870000000000007,-29.977732444140123
-0.16970000000000018,-30.13335068712528
-0.17070000000000007,-30.274821817111786
-0.17170000000000019,-30.317263156107735
-0.17270000000000008,-30.55776407708479
-0.1737000000000002,-30.670940981073993
-0.17470000000000008,-30.741676546067247
-0.1757000000000002,-30.939736128048356
-0.17670000000000008,-31.038765919038905
-0.1777000000000002,-31.19438416202406
-0.17870000000000008,-31.29341395301461
-0.1797000000000002,-31.434885083001117
-0.18070000000000008,-31.64709177798087
-0.1817000000000002,-31.675386003978172
-0.18270000000000008,-31.887592698957924
-0.1837000000000002,-32.02906382894443
-0.1847000000000001,-32.14224073293363
-0.1857000000000002,-32.31200608891744
-0.1867000000000001,-32.38274165391069
-0.1877000000000002,-32.6373896878864
-0.1887000000000001,-32.693978139881004
-0.1897000000000002,-32.821302156868846
-0.1907000000000001,-33.07595019084456
-0.1917000000000001,-33.13253864283916
-0.19269999999999998,-33.302303998822964
-0.1937000000000001,-33.44377512880947
-0.19469999999999998,-33.627687597791926
-0.1957000000000001,-33.783305840777075
-0.19669999999999999,-33.85404140577033
-0.1977000000000001,-34.05210098775143
-0.1987,-34.193572117737936
-0.1997000000000001,-34.292601908728486
-0.2007,-34.53310282970554
-0.2017000000000001,-34.6887210726907
-0.2027,-34.85848642867451
-0.2037000000000001,-34.9716633326637
-0.2047,-35.07069312365426
-0.2057000000000001,-35.297046931632664
-0.2067,-35.367782496625914
-0.2077000000000001,-35.594136304604326
-0.2087,-35.778048773586775
-0.2097000000000001,-35.93366701657193
-0.2107,-36.08928525955708
-0.2117000000000001,-36.17416793754898
-0.2127,-36.44296308452335
-0.2137000000000001,-36.52784576251525
-0.2147,-36.6834640055004
-0.2157000000000001,-36.96640626547341
-0.2167,-37.05128894346531
-0.21770000000000012,-37.235201412447765
-0.2187,-37.36252542943562
-0.21970000000000012,-37.54643789841808
-0.2207,-37.758644593397825
-0.22170000000000012,-37.82938015839108
-0.2227,-38.08402819236679
-0.22370000000000012,-38.253793548350586
-0.2247,-38.35282333934114
-0.22570000000000012,-38.57917714731955
-0.2267,-38.706501164307404
-0.22770000000000012,-38.97529631128177
-0.22870000000000001,-39.074326102272316
-0.22970000000000013,-39.229944345257465
-0.23070000000000002,-39.49873949223183
-0.23170000000000013,-39.55532794422642
-0.23270000000000002,-39.78168175220483
-0.23370000000000013,-39.96559422118728
-0.23470000000000002,-40.135359577171094
-0.23570000000000013,-40.34756627215084
-0.23670000000000002,-40.460743176140056
-0.2376999999999999,-40.743685436113054
-0.23870000000000002,-40.87100945310091
-0.2396999999999999,-41.01248058308742
-0.24070000000000003,-41.281275730061765
-0.24169999999999991,-41.43689397304693
-0.24270000000000003,-41.63495355502803
-0.24369999999999992,-41.79057179801318
-0.24470000000000003,-42.00277849299294
-0.24569999999999992,-42.243279413969994
-0.24670000000000003,-42.3281620919619
-0.24769999999999992,-42.59695723893625
-0.24870000000000003,-42.80916393391601
-0.24969999999999992,-42.95063506390252
-0.25070000000000003,-43.17698887188092
-0.2516999999999999,-43.33260711486608
-0.25270000000000004,-43.60140226184043
-0.2536999999999999,-43.72872627882828
-0.25470000000000004,-43.94093297380804
-0.2556999999999999,-44.266316572776994
-0.25670000000000004,-44.3511992507689
-0.25769999999999993,-44.591700171745956
-0.25870000000000004,-44.775612640728404
-0.25969999999999993,-45.01611356170547
-0.26070000000000004,-45.242467369683865
-0.26169999999999993,-45.38393849967037
-0.26270000000000004,-45.72346921163799
-0.26369999999999993,-45.87908745462314
-0.26470000000000005,-46.048852810606945
-0.26569999999999994,-46.3459421835786
-0.26670000000000005,-46.529854652561056
-0.26769999999999994,-46.77035557353811
-0.26870000000000005,-46.982562268517874
-0.26969999999999994,-47.20891607649628
-0.27070000000000005,-47.520152562466585
-0.27169999999999994,-47.605035240458484
-0.27270000000000005,-47.91627172642879
-0.27369999999999994,-48.156772647405845
-0.27470000000000006,-48.3406851163883
-0.27569999999999995,-48.63777448935996
-0.27670000000000006,-48.82168695834242
-0.27769999999999995,-49.16121767031002
-0.27870000000000006,-49.31683591329518
-0.27969999999999995,-49.557336834272235
-0.28070000000000006,-49.9110146592385
-0.28169999999999995,-50.06663290222365
-0.28270000000000006,-50.34957516219666
-0.28369999999999995,-50.59007608317371
-0.28470000000000006,-50.88716545614537
-0.28569999999999995,-51.15596060311972
-0.28670000000000007,-51.35402018510083
-0.28769999999999996,-51.70769801006709
-0.28870000000000007,-51.962346044042796
-0.28969999999999996,-52.17455273902255
-0.29070000000000007,-52.514083450990164
-0.29169999999999996,-52.76873148496586
-0.29270000000000007,-53.079967970936174
-0.29369999999999996,-53.32046889191324
-0.2947000000000001,-53.617558264884885
-0.29569999999999996,-53.999530315848446
-0.2967000000000001,-54.16929567183226
-0.29769999999999996,-54.537120609797164
-0.2987000000000001,-54.834209982768826
-0.29969999999999997,-55.11715224274183
-0.3007000000000001,-55.456682954709436
-0.30169999999999997,-55.7254781016838
-0.3027000000000001,-56.164038604641945
-0.30369999999999997,-56.39039241262036
-0.3047000000000001,-56.70162889859067
-0.30569999999999997,-57.12604228855018
-0.3067000000000001,-57.380690322525886
-0.3077,-57.7485152604908
-0.3087000000000001,-58.10219308545706
-0.3097,-58.48416513642061
-0.3107000000000001,-58.83784296138688
-0.3117,-59.09249099536258
-0.3127000000000001,-59.53105149832074
-0.3137,-59.89887643628565
-0.3147000000000001,-60.19596580925731
-0.3157,-60.64867342521412
-0.3167000000000001,-61.00235125018038
-0.3177,-61.4267646401399
-0.3187000000000001,-61.7380011261102
-0.3197,-62.10582606407511
-0.3207000000000001,-62.61512213202652
-0.3217,-62.88391727900089
-0.3227000000000001,-63.350772007956344
-0.3237,-63.77518539791585
-0.3247000000000001,-64.18545167487672
-0.3257,-64.60986506483623
-0.3267000000000001,-64.99183711579978
-0.3277,-65.54357452274715
-0.3287000000000001,-65.91139946071206
-0.3297,-66.32166573767293
-0.3307000000000001,-66.84510891862298
-0.3317,-67.25537519558385
-0.3327000000000001,-67.7222299245393
-0.3337,-68.18908465349477
-0.3347000000000001,-68.69838072144618
-0.3357,-69.19352967639895
-0.3367000000000001,-69.56135461436386
-0.3377,-70.12723913430986
-0.3387000000000001,-70.63653520226127
-0.3397,-71.06094859222078
-0.3407000000000001,-71.6268331121668
-0.3417,-72.10783495412092
-0.3427000000000001,-72.6878665870656
-0.3437,-73.12642709002374
-0.3447000000000001,-73.66401738397246
-0.3457,-74.31478458191037
-0.3467000000000001,-74.7109037458726
-0.3477,-75.30508249181591
-0.3487000000000001,-75.85681989876326
-0.3497,-76.42270441870929
-0.3507000000000001,-76.98858893865528
-0.3517,-77.49788500660672
-0.3527000000000001,-78.19109354354057
-0.3537,-78.71453672449066
-0.3547000000000001,-79.25212701843935
-0.3557,-79.93118844237456
-0.35670000000000013,-80.49707296232059
-0.3577,-81.10539882126255
-0.35870000000000013,-81.67128334120858
-0.3597,-82.30790342614785
-0.36070000000000013,-83.0011119630817
-0.3617,-83.49626091803447
-0.3626999999999999,-84.18946945496833
-0.3637,-84.8543837659049
-0.3646999999999999,-85.42026828585092
-0.3657,-86.12762393578342
-0.3666999999999999,-86.72180268172674
-0.3677,-87.48574678365387
-0.3686999999999999,-88.06577841659853
-0.36970000000000003,-88.74483984053374
-0.3706999999999999,-89.52293105545952
-0.37170000000000003,-90.11710980140283
-0.3726999999999999,-90.82446545133537
-0.37370000000000003,-91.50352687527057
-0.3746999999999999,-92.26747097719769
-0.37570000000000003,-92.96067951413156
-0.3766999999999999,-93.59729959907082
-0.37770000000000004,-94.41783215299256
-0.3786999999999999,-95.11104068992641
-0.37970000000000004,-95.74766077486568
-0.3806999999999999,-96.55404621578876
-0.38170000000000004,-97.24725475272263
-0.38269999999999993,-98.02534596764839
-0.38370000000000004,-98.71855450458226
-0.38469999999999993,-99.48249860650938
-0.38570000000000004,-100.35961961242569
-0.38669999999999993,-99.55323417150264
-0.38570000000000004,-97.84143349866595
-0.38469999999999993,-96.44086931179956
-0.38370000000000004,-95.11104068992641
-0.38269999999999993,-93.90853608504113
-0.38170000000000004,-92.67773725415857
-0.3806999999999999,-91.65914511825574
-0.37970000000000004,-90.4424934003718
-0.3786999999999999,-89.32487147347842
-0.37770000000000004,-88.36286778957019
-0.3766999999999999,-87.23109874967815
-0.37570000000000003,-86.19835950077669
-0.3746999999999999,-85.15147313887655
-0.37370000000000003,-84.20361656796698
-0.3726999999999999,-83.22746577106011
-0.37170000000000003,-82.12399095716538
-0.3706999999999999,-81.27516417724635
-0.36970000000000003,-80.29901338033947
-0.3686999999999999,-79.23797990544071
-0.3677,-78.33256467352709
-0.3666999999999999,-77.34226676362155
-0.3657,-76.45099864470659
-0.3646999999999999,-75.47484784779972
-0.3637,-74.58357972888473
-0.3626999999999999,-73.77719428796166
-0.3617,-72.73030792606153
-0.36070000000000013,-71.89562825914116
-0.3597,-71.0043601402262
-0.35870000000000013,-70.11309202131122
-0.3577,-69.25011812839355
-0.35670000000000013,-68.33055578348127
-0.3557,-67.5807587945528
-0.3547000000000001,-66.64704933664189
-0.3537,-65.76992833072556
-0.3527000000000001,-65.00598422879844
-0.3517,-64.14301033588076
-0.3507000000000001,-63.30833066896038
-0.3497,-62.459503889041365
-0.3487000000000001,-61.695559787114256
-0.3477,-60.93161568518713
-0.3467000000000001,-60.02620045327351
-0.3457,-59.304697690342344
-0.3447000000000001,-58.52660647541657
-0.3437,-57.67777969549755
-0.3427000000000001,-56.942129819567725
-0.3417,-56.13574437864466
-0.3407000000000001,-55.442535841710786
-0.3397,-54.59370906179176
-0.3387000000000001,-53.84391207286329
-0.3377,-53.19314487492538
-0.3367000000000001,-52.34431809500636
-0.3357,-51.65110955807249
-0.3347000000000001,-50.915459682142675
-0.3337,-50.23639825820745
-0.3327000000000001,-49.50074838227763
-0.3317,-48.70851005435321
-0.3307000000000001,-48.100184195411245
-0.3297,-47.36453431948143
-0.3287000000000001,-46.60059021755431
-0.3277,-46.006411471610996
-0.3267000000000001,-45.28490870867982
-0.3257,-44.605847284744605
-0.3247000000000001,-43.89849163481209
-0.3237,-43.219430210876865
-0.3227000000000001,-42.63939857793221
-0.3217,-41.86130736300643
-0.3207000000000001,-41.267128617063115
-0.3197,-40.65880275812115
-0.3187000000000001,-39.93729999518999
-0.3177,-39.34312124924667
-0.3167000000000001,-38.664059825311455
-0.3157,-38.12646953136274
-0.3147000000000001,-37.41911388143023
-0.3137,-36.81078802248826
-0.3127000000000001,-36.30149195453684
-0.3117,-35.594136304604326
-0.3107000000000001,-35.014104671659666
-0.3097,-34.4057788127177
-0.3087000000000001,-33.839894292771675
-0.3077,-33.231568433829715
-0.3067000000000001,-32.58080123589179
-0.30569999999999997,-32.09979939393769
-0.3047000000000001,-31.505620647994366
-0.30369999999999997,-30.88314767605375
-0.3027000000000001,-30.37385160810234
-0.30169999999999997,-29.793819975157668
-0.3007000000000001,-29.27037679420761
-0.29969999999999997,-28.662050935265643
-0.2987000000000001,-28.12446064131693
-0.29769999999999996,-27.671753025360115
-0.2967000000000001,-27.00683871442355
-0.29569999999999996,-26.55413109846674
-0.2947000000000001,-26.030687917516673
-0.29369999999999996,-25.49309762356796
-0.29270000000000007,-24.997948668615198
-0.29169999999999996,-24.40376992267188
-0.29070000000000007,-24.00765075870967
-0.28969999999999996,-23.427619125765005
-0.28870000000000007,-22.904175944814945
-0.28769999999999996,-22.508056780852733
-0.28670000000000007,-21.94217226090672
-0.28569999999999995,-21.47531753195126
-0.28470000000000006,-20.966021463999844
-0.28369999999999995,-20.499166735044383
-0.28270000000000006,-20.07475334508487
-0.28169999999999995,-19.508868825138855
-0.28070000000000006,-19.141043887173947
-0.27969999999999995,-18.688336271217132
-0.27870000000000006,-18.164893090267068
-0.27769999999999995,-17.76877392630486
-0.27670000000000006,-17.2736249713521
-0.27569999999999995,-16.90580003338719
-0.27470000000000006,-16.424798191433077
-0.27369999999999994,-16.000384801473565
-0.27270000000000005,-15.660854089505953
-0.27169999999999994,-15.123263795557243
-0.27070000000000005,-14.755438857592333
-0.26969999999999994,-14.331025467632822
-0.26870000000000005,-13.920759190671962
-0.26769999999999994,-13.523225315409885
-0.26670000000000005,-13.047882318655235
