Potential V vs RHE, Current mA cm-2
0.013299999999999867,0.5946031593332749
0.012299999999999978,-0.7107509570521945
0.011299999999999866,-1.7075565389370995
0.010299999999999976,-2.3116382639794697
0.009299999999999864,-2.9341112359200863
0.008299999999999974,-3.371257027578382
0.007299999999999862,-3.67683466834923
0.006299999999999972,-4.088515656609956
0.00529999999999986,-4.283745815991331
0.0042999999999999705,-4.603470569760829
0.0032999999999998586,-4.811433130840991
0.0022999999999999687,-4.950074838227763
0.0012999999999998568,-5.2386759434002315
0.00029999999999996696,-5.313655642293078
-0.000700000000000145,-5.538594738971618
-0.0017000000000000348,-5.6913835593570425
-0.0027000000000001467,-5.7974869068469195
-0.0037000000000000366,-6.016767158326001
-0.0047000000000001485,-6.047890806923031
-0.005700000000000038,-6.227559142005892
-0.00670000000000015,-6.363371426792935
-0.00770000000000004,-6.436936414385917
-0.008700000000000152,-6.654801954565133
-0.009700000000000042,-6.692999159661489
-0.010700000000000154,-6.867008649544887
-0.011700000000000044,-6.941988348437734
-0.012700000000000156,-7.001406223032068
-0.013700000000000045,-7.209368784112227
-0.014700000000000157,-7.261713102207232
-0.015700000000000047,-7.4229901903918485
-0.01670000000000016,-7.503628734484154
-0.01770000000000005,-7.580023144676867
-0.01870000000000016,-7.766765036259051
-0.01970000000000005,-7.772423881458511
-0.020700000000000163,-7.946433371341912
-0.021700000000000053,-8.053951430131654
-0.022700000000000164,-8.100636903027201
-0.023700000000000054,-8.26898754771114
-0.024700000000000166,-8.295867062408576
-0.025700000000000056,-8.467047129692245
-0.026700000000000168,-8.529294426886306
-0.027700000000000058,-8.581638744981312
-0.02870000000000017,-8.779698326962418
-0.02970000000000006,-8.829213222457696
-0.03070000000000017,-8.997563867141633
-0.03170000000000006,-9.051322896536504
-0.03270000000000017,-9.103667214631512
-0.03370000000000006,-9.245138344618015
-0.034700000000000175,-9.233820654219095
-0.035700000000000065,-9.40924485540236
-0.03670000000000018,-9.550715985388862
-0.03770000000000007,-9.60306030348387
-0.03870000000000018,-9.77706979336727
-0.03970000000000007,-9.738872588270914
-0.04070000000000018,-9.895905542555932
-0.04170000000000007,-9.986447065747294
-0.04270000000000018,-10.043035517741895
-0.04370000000000007,-10.207142028526238
-0.044700000000000184,-10.195824338127318
-0.045700000000000074,-10.348613158512745
-0.046700000000000186,-10.44905766080316
-0.047700000000000076,-10.490084288499247
-0.04870000000000019,-10.664093778382647
-0.04970000000000008,-10.648531954084133
-0.05070000000000019,-10.770197125872524
-0.05170000000000008,-10.826785577867126
-0.05270000000000019,-10.903179988059838
-0.05370000000000008,-11.143680909036894
-0.05470000000000019,-11.118216105639322
-0.05570000000000008,-11.254028390426367
-0.056700000000000195,-11.32759337801935
-0.057700000000000085,-11.36437587181584
-0.058700000000000196,-11.491699888803693
-0.059700000000000086,-11.511505847001803
-0.0607000000000002,-11.682685914285473
-0.06170000000000009,-11.787374550475485
-0.0627000000000002,-11.826986466871707
-0.06370000000000009,-11.98826355505632
-0.0647000000000002,-11.98260470985686
-0.06570000000000009,-12.10002574774566
-0.0667000000000002,-12.091537479946469
-0.0677000000000001,-12.170761312738911
-0.0687000000000002,-12.412676945015832
-0.0697000000000001,-12.435312325813673
-0.07070000000000021,-12.616395372196397
-0.0717000000000001,-12.682886803290055
-0.07270000000000021,-12.72674285358587
-0.0737000000000001,-12.783331305580472
-0.07470000000000021,-12.790404862079797
-0.0757000000000001,-13.030905783056852
-0.07670000000000021,-13.207744695539983
-0.0777000000000001,-13.261503724934855
-0.07870000000000021,-13.391657164522437
-0.0797000000000001,-13.367607072424732
-0.08070000000000022,-13.524640026709752
-0.0817000000000001,-13.602449148202329
-0.08270000000000022,-13.717040763491397
-0.08370000000000011,-13.937735726270342
-0.08470000000000022,-13.937735726270342
-0.08570000000000011,-14.045253785060085
-0.08670000000000022,-14.11457463875347
-0.08770000000000011,-14.217848563643619
-0.08870000000000022,-14.486643710617974
-0.08970000000000011,-14.514937936615278
-0.09070000000000022,-14.65640906660178
-0.09170000000000011,-14.769585970590983
-0.09270000000000023,-14.896909987578834
-0.09370000000000012,-15.094969569559943
-0.09470000000000023,-15.03838111756534
-0.09570000000000012,-15.179852247551842
-0.09670000000000023,-15.264734925543747
-0.09770000000000012,-15.349617603535648
-0.09870000000000023,-15.618412750510005
-0.09970000000000012,-15.675001202504609
-0.10070000000000023,-15.830619445489761
-0.10170000000000012,-15.88720789748436
-0.10270000000000024,-16.000384801473565
-0.10370000000000013,-16.21259149645332
-0.10470000000000024,-16.21259149645332
-0.10570000000000013,-16.424798191433077
-0.10670000000000024,-16.50968086942498
-0.10770000000000013,-16.55212220842093
-0.10870000000000024,-16.693593338407435
-0.10970000000000013,-16.764328903400685
-0.11070000000000024,-17.047271163373694
-0.11170000000000013,-17.132153841365596
-0.11270000000000002,-17.188742293360193
-0.11370000000000013,-17.358507649344002
-0.11470000000000002,-17.316066310348052
-0.11570000000000014,-17.48583166633185
-0.11670000000000003,-17.570714344323754
-0.11770000000000014,-17.71218547431026
-0.11870000000000003,-17.910245056291366
-0.11970000000000014,-17.896097943292716
-0.12070000000000003,-18.06586329927652
-0.12170000000000014,-18.15074597726842
-0.12270000000000003,-18.221481542261674
-0.12370000000000014,-18.419541124242777
-0.12470000000000003,-18.44783535024008
-0.12570000000000014,-18.603453593225233
-0.12670000000000003,-18.631747819222536
-0.12770000000000015,-18.702483384215785
-0.12870000000000004,-18.900542966196888
-0.12970000000000015,-18.95713141819149
-0.13070000000000004,-19.084455435179343
-0.13170000000000015,-19.112749661176647
-0.13270000000000004,-19.197632339168546
-0.13370000000000015,-19.4381332601456
-0.13470000000000004,-19.4381332601456
-0.13570000000000015,-19.523015938137508
-0.13670000000000004,-19.466427486142905
-0.13770000000000016,-19.523015938137508
-0.13870000000000005,-19.678634181122664
-0.13970000000000016,-19.749369746115914
-0.14070000000000005,-19.890840876102416
-0.14170000000000016,-19.961576441095666
-0.14270000000000005,-20.01816489309027
-0.14370000000000016,-20.159636023076775
-0.14470000000000005,-20.088900458083522
-0.14570000000000016,-20.21622447507137
-0.14670000000000005,-20.286960040064624
-0.14770000000000016,-20.357695605057877
-0.14870000000000005,-20.456725396048434
-0.14970000000000017,-20.44257828304978
-0.15070000000000006,-20.598196526034933
-0.15170000000000017,-20.598196526034933
-0.15270000000000006,-20.612343639033586
-0.15370000000000017,-20.668932091028186
-0.15470000000000006,-20.584049413036283
-0.15570000000000017,-20.76796188201874
-0.15670000000000006,-20.810403221014692
-0.15770000000000017,-20.93772723800254
-0.15870000000000006,-20.994315689997144
-0.15970000000000018,-20.93772723800254
-0.16070000000000007,-21.036757028993097
-0.16170000000000018,-20.980168576998494
-0.16270000000000007,-20.994315689997144
-0.16370000000000018,-21.149933932982297
-0.16470000000000007,-21.1782281589796
-0.16570000000000018,-21.277257949970153
-0.16670000000000007,-21.13578681998365
-0.16770000000000018,-21.13578681998365
-0.16870000000000007,-21.319699288966106
-0.16970000000000018,-21.347993514963402
-0.17070000000000007,-21.418729079956652
-0.17170000000000019,-21.362140627962056
-0.17270000000000008,-21.333846401964752
-0.1737000000000002,-21.2631108369715
-0.17470000000000008,-21.149933932982297
-0.1757000000000002,-21.2631108369715
-0.17670000000000008,-21.347993514963402
-0.1777000000000002,-21.447023305953955
-0.17870000000000008,-21.447023305953955
-0.1797000000000002,-21.347993514963402
-0.18070000000000008,-21.418729079956652
-0.1817000000000002,-21.347993514963402
-0.18270000000000008,-21.291405062968803
-0.1837000000000002,-21.333846401964752
-0.1847000000000001,-21.248963723972853
-0.1857000000000002,-21.347993514963402
-0.1867000000000001,-21.30555217596745
-0.1877000000000002,-21.277257949970153
-0.1887000000000001,-21.30555217596745
-0.1897000000000002,-21.16408104598095
-0.1907000000000001,-21.2065223849769
-0.1917000000000001,-21.093345480987697
-0.19269999999999998,-21.19237527197825
-0.1937000000000001,-21.2348166109742
-0.19469999999999998,-21.065051254990397
-0.1957000000000001,-21.093345480987697
-0.19669999999999999,-21.008462802995794
-0.1977000000000001,-20.86699167300929
-0.1987,-20.824550334013338
-0.1997000000000001,-20.711373430024135
-0.2007,-20.86699167300929
-0.2017000000000001,-20.881138786007945
-0.2027,-20.79625610801604
-0.2037000000000001,-20.683079204026836
-0.2047,-20.47087250904708
-0.2057000000000001,-20.598196526034933
-0.2067,-20.51331384804303
-0.2077000000000001,-20.456725396048434
-0.2087,-20.400136944053827
-0.2097000000000001,-20.21622447507137
-0.2107,-20.21622447507137
-0.2117000000000001,-20.17378313607542
-0.2127,-20.13134179707947
-0.2137000000000001,-20.06060623208622
-0.2147,-19.93328221509837
-0.2157000000000001,-20.00401778009162
-0.2167,-19.834252424107817
-0.21770000000000012,-19.664487068124007
-0.2187,-19.60789861612941
-0.21970000000000012,-19.466427486142905
-0.2207,-19.565457277133458
-0.22170000000000012,-19.409839034148305
-0.2227,-19.28251501716045
-0.22370000000000012,-19.197632339168546
-0.2247,-18.95713141819149
-0.22570000000000012,-18.985425644188794
-0.2267,-18.92883719219419
-0.22770000000000012,-18.900542966196888
-0.22870000000000001,-18.815660288204988
-0.22970000000000013,-18.561012254229283
-0.23070000000000002,-18.561012254229283
-0.23170000000000013,-18.461982463238726
-0.23270000000000002,-18.362952672248177
-0.23370000000000013,-18.306364220253574
-0.23470000000000002,-18.13659886426977
-0.23570000000000013,-18.09415752527382
-0.23670000000000002,-17.924392169290012
-0.2376999999999999,-17.81121526530081
-0.23870000000000002,-17.825362378299463
-0.2396999999999999,-17.641449909317007
-0.24070000000000003,-17.570714344323754
-0.24169999999999991,-17.429243214337255
-0.24270000000000003,-17.34436053634535
-0.24369999999999992,-17.37265476234265
-0.24470000000000003,-17.20288940635885
-0.24569999999999992,-17.20288940635885
-0.24670000000000003,-17.047271163373694
-0.24769999999999992,-16.99068271137909
-0.24870000000000003,-16.919947146385837
-0.24969999999999992,-16.637004886412832
-0.25070000000000003,-16.60871066041553
-0.2516999999999999,-16.52382798242363
-0.25270000000000004,-16.52382798242363
-0.2536999999999999,-16.56626932141958
-0.25470000000000004,-16.382356852437127
-0.2556999999999999,-16.325768400442524
-0.25670000000000004,-16.11356170546277
-0.25769999999999993,-16.056973253468165
-0.25870000000000004,-16.056973253468165
-0.25969999999999993,-15.943796349478962
-0.26070000000000004,-15.929649236480316
-0.26169999999999993,-15.759883880496508
-0.26270000000000004,-15.675001202504609
-0.26369999999999993,-15.70329542850191
-0.26470000000000005,-15.575971411514052
-0.26569999999999994,-15.575971411514052
-0.26670000000000005,-15.4203531685289
-0.26769999999999994,-15.37791182953295
-0.26870000000000005,-15.406206055530248
-0.26969999999999994,-15.278882038542395
-0.27070000000000005,-15.307176264539699
-0.27169999999999994,-15.193999360550496
-0.27270000000000005,-15.151558021554543
-0.27369999999999994,-15.10911668255859
-0.27470000000000006,-14.939351326574789
-0.27569999999999995,-15.03838111756534
-0.27670000000000006,-14.939351326574789
-0.27769999999999995,-14.896909987578834
-0.27870000000000006,-14.882762874580186
-0.27969999999999995,-14.826174422585586
-0.28070000000000006,-14.911057100577487
-0.28169999999999995,-14.797880196588284
-0.28270000000000006,-14.741291744593681
-0.28369999999999995,-14.741291744593681
-0.28470000000000006,-14.61396772760583
-0.28569999999999995,-14.684703292599082
-0.28670000000000007,-14.642261953603128
-0.28769999999999996,-14.642261953603128
-0.28870000000000007,-14.65640906660178
-0.28969999999999996,-14.543232162612577
-0.29070000000000007,-14.642261953603128
-0.29169999999999996,-14.61396772760583
-0.29270000000000007,-14.61396772760583
-0.29369999999999996,-14.61396772760583
-0.2947000000000001,-14.514937936615278
-0.29569999999999996,-14.61396772760583
-0.2967000000000001,-14.585673501608527
-0.29769999999999996,-14.585673501608527
-0.2987000000000001,-14.599820614607177
-0.29969999999999997,-14.529085049613924
-0.3007000000000001,-14.69885040559773
-0.30169999999999997,-14.69885040559773
-0.3027000000000001,-14.741291744593681
-0.30369999999999997,-14.769585970590983
-0.3047000000000001,-14.585673501608527
-0.30569999999999997,-14.65640906660178
-0.3067000000000001,-14.62811484060448
-0.3077,-14.727144631595033
-0.3087000000000001,-14.840321535584234
-0.3097,-14.812027309586934
-0.3107000000000001,-14.953498439573437
-0.3117,-14.882762874580186
-0.3127000000000001,-14.925204213576137
-0.3137,-14.967645552572087
-0.3147000000000001,-14.854468648582884
-0.3157,-15.02423400456669
-0.3167000000000001,-15.05252823056399
-0.3177,-15.137410908555893
-0.3187000000000001,-15.236440699546446
-0.3197,-15.123263795557243
-0.3207000000000001,-15.222293586547794
-0.3217,-15.193999360550496
-0.3227000000000001,-15.293029151541045
-0.3237,-15.43450028152755
-0.3247000000000001,-15.462794507524851
-0.3257,-15.561824298515406
-0.3267000000000001,-15.561824298515406
-0.3277,-15.604265637511356
-0.3287000000000001,-15.590118524512702
-0.3297,-15.575971411514052
-0.3307000000000001,-15.731589654499205
-0.3317,-15.759883880496508
-0.3327000000000001,-15.91550212348166
-0.3337,-16.099414592464115
-0.3347000000000001,-16.04282614046952
-0.3357,-16.15600304445872
-0.3367000000000001,-16.170150157457368
-0.3377,-16.141855931460068
-0.3387000000000001,-16.170150157457368
-0.3397,-16.15600304445872
-0.3407000000000001,-16.382356852437127
-0.3417,-16.50968086942498
-0.3427000000000001,-16.637004886412832
-0.3437,-16.70774045140608
-0.3447000000000001,-16.750181790402035
-0.3457,-16.97653559838044
-0.3467000000000001,-16.94824137238314
-0.3477,-16.962388485381787
-0.3487000000000001,-17.160448067362896
-0.3497,-17.20288940635885
-0.3507000000000001,-17.2736249713521
-0.3517,-17.3302134233467
-0.3527000000000001,-17.40094898833995
-0.3537,-17.542420118326454
-0.3547000000000001,-17.542420118326454
-0.3557,-17.74047970030756
-0.35670000000000013,-17.825362378299463
-0.3577,-17.980980621284615
-0.35870000000000013,-18.122451751271118
-0.3597,-18.09415752527382
-0.36070000000000013,-18.249775768258974
-0.3617,-18.348805559249524
-0.3626999999999999,-18.49027668923603
-0.3637,-18.617600706223882
-0.3646999999999999,-18.518570915233333
-0.3657,-18.759071836210385
-0.3666999999999999,-18.858101627200938
-0.3677,-18.999572757187444
-0.3686999999999999,-19.141043887173947
-0.36970000000000003,-19.211779452167196
-0.3706999999999999,-19.480574599141555
-0.37170000000000003,-19.565457277133458
-0.3726999999999999,-19.69278129412131
-0.37370000000000003,-19.77766397211321
-0.3746999999999999,-19.791811085111863
-0.37570000000000003,-19.961576441095666
-0.3766999999999999,-20.03231200608892
-0.37770000000000004,-20.272812927065978
-0.3786999999999999,-20.47087250904708
-0.37970000000000004,-20.541608074040333
-0.3806999999999999,-20.76796188201874
-0.38170000000000004,-20.838697447011988
-0.38269999999999993,-21.079198367989047
-0.38370000000000004,-21.291405062968803
-0.38469999999999993,-21.390434853959356
-0.38570000000000004,-21.68752422693101
-0.38669999999999993,-21.814848243918867
-0.38770000000000004,-21.97046648690402
-0.38869999999999993,-22.168526068885125
-0.38970000000000005,-22.309997198871628
-0.39069999999999994,-22.63538079784059
-0.39170000000000005,-22.80514615382439
-0.39269999999999994,-23.059794187800097
-0.39370000000000005,-23.385177786769056
-0.39469999999999994,-23.597384481748815
-0.39570000000000005,-23.96520941971372
-0.39669999999999994,-24.134974775697525
-0.39770000000000005,-24.460358374666487
-0.39869999999999994,-24.884771764625995
-0.39970000000000006,-25.224302476593607
-0.40069999999999995,-25.691157205549064
-0.40170000000000006,-26.044835030515326
-0.40269999999999995,-26.61071955046134
-0.40370000000000006,-27.233192522401957
-0.40469999999999995,-27.855665494342567
-0.40570000000000006,-28.662050935265643
-0.40669999999999995,-29.369406585198163
-0.40770000000000006,-30.37385160810234
-0.40869999999999995,-31.533914873991666
-0.40970000000000006,-32.58080123589179
-0.41069999999999995,-33.95307119676088
-0.41170000000000007,-35.48095940061512
-0.41269999999999996,-37.291789864442364
-0.41370000000000007,-39.173355893262865
-0.41469999999999996,-41.182245939071215
-0.41570000000000007,-43.33260711486608
-0.41669999999999996,-45.34149716067443
-0.41770000000000007,-47.647476579454434
-0.41869999999999996,-50.2505453712061
-0.4197000000000001,-52.95264395394832
-0.42069999999999996,-56.008420361656796
-0.4217000000000001,-58.78125450939227
-0.42269999999999996,-61.7380011261102
-0.4237000000000001,-64.82207175981598
-0.42469999999999997,-67.84955394152715
-0.4257000000000001,-71.2590081742019
-0.42669999999999997,-74.8806691018564
-0.4277000000000001,-78.44574157751629
-0.42869999999999997,-82.18057940915998
-0.4297000000000001,-85.67491631982661
-0.43069999999999997,-89.76343197643658
-0.4317000000000001,-93.41338713008837
-0.4327,-97.30384320471723
-0.4337000000000001,-101.19429927934607
-0.4347,-105.42428606594254
-0.4357000000000001,-109.58353728754575
-0.4367,-112.95055018122453
-0.4377000000000001,-116.95418315984259
-0.4387,-121.12758149444444
-0.4397000000000001,-124.69265397010435
-0.4407,-128.10210820277908
-0.4417000000000001,-131.68132779143764
-0.4427,-135.68496077005568
-0.4437000000000001,-139.6602995226764
-0.4447,-143.16878354634173
-0.4457000000000001,-145.9982061460718
-0.4467,-148.96909987578834
-0.4477000000000001,-152.36440699546444
-0.4487,-155.75971411514055
-0.4497000000000001,-159.15502123481662
-0.4507,-162.40885722450622
-0.4517000000000001,-165.09680869424977
-0.4527,-167.50181790402033
-0.4537000000000001,-170.47271163373694
-0.4547,-173.302134233467
-0.4557000000000001,-176.4144990931701
-0.4567,-179.24392169290016
-0.4577000000000001,-182.49775768258974
-0.4587,-184.6198246323873
-0.4597000000000001,-186.74189158218485
-0.4607,-189.2883719219419
-0.4617000000000001,-192.2592656516585
-0.4627,-194.80574599141553
-0.4637000000000001,-197.0692840711996
-0.4647,-198.48399537106465
-0.4657000000000001,-200.4645911908757
-0.4667,-203.01107153063276
-0.4677000000000001,-206.83079204026836
-0.4687,-209.51874351001192
-0.4697000000000001,-210.65051254990397
-0.4707,-211.64081045980947
-0.4717000000000001,-214.04581966958003
-0.4727,-217.01671339929663
-0.4737000000000001,-219.28025147908068
-0.4747,-220.83643390893224
-0.4757000000000001,-221.68526068885126
-0.4767,-223.2414431187028
-0.4777000000000001,-226.49527910839237
-0.4787,-228.33440379821695
-0.4797000000000001,-229.04175944814943
-0.4807,-229.60764396809546
-0.48170000000000013,-231.44676865792
-0.4827,-233.56883560771757
-0.48370000000000013,-235.12501803756908
-0.4847,-235.97384481748813
-0.48570000000000013,-236.53972933743412
-0.4867,-235.97384481748813
-0.48570000000000013,-234.27619125765005
-0.4847,-232.29559543783904
-0.48370000000000013,-230.7394130079875
-0.4827,-228.47587492820347
-0.48170000000000013,-226.49527910839237
-0.4807,-224.5146832885813
-0.4797000000000001,-223.09997198871628
-0.4787,-220.41202051897272
-0.4777000000000001,-218.28995356917517
-0.4767,-216.0264154893911
-0.4757000000000001,-214.18729079956654
-0.4747,-212.48963723972852
-0.4737000000000001,-212.065223849769
-0.4727,-209.8016857699849
-0.4717000000000001,-205.98196526034934
-0.4707,-204.14284057052478
-0.4697000000000001,-202.86960040064628
-0.4687,-201.4548891007812
-0.4677000000000001,-198.76693763103765
