Sept. 5, 2024   18:32:33
Cyclic Voltammetry
File: c:/users/guazh/data/20240903_batch_252_500/2024-09-03-exp272\exp272-2024-09-05t18_06_43-arkoh\exp272_cv_sr_500mvs_efin_-2100mv.bin
Data Source:  Experiment
Instrument Model:  CHI760E
Header: CV ran at 500 mVs
Note: 

Init E (V) = -1
High E (V) = -1
Low E (V) = -2.1
Final E (V) = -1
Init P/N = N
Scan Rate (V/s) = 0.5
Segment = 3
Sample Interval (V) = 0.001
Quiet Time (sec) = 2
Sensitivity (A/V) = 0.01
Comp R (ohm) = 1.6

Results:

Channel 1:
Segment 1:

Segment 2:

Segment 3:

Potential/V, Current/A

-1.000, 3.239e-6
-1.001, 3.239e-6
-1.002, 3.239e-6
-1.003, 3.239e-6
-1.004, 3.239e-6
-1.005, 3.239e-6
-1.006, 6.322e-6
-1.007, 3.239e-6
-1.008, 3.239e-6
-1.009, 3.239e-6
-1.010, 3.239e-6
-1.011, 3.239e-6
-1.012, 6.322e-6
-1.013, 6.322e-6
-1.014, 3.239e-6
-1.015, 6.322e-6
-1.016, 6.322e-6
-1.017, 6.322e-6
-1.018, 6.322e-6
-1.019, 3.239e-6
-1.020, 6.322e-6
-1.021, 6.322e-6
-1.022, 6.322e-6
-1.023, 6.322e-6
-1.024, 6.322e-6
-1.025, 6.322e-6
-1.026, 6.322e-6
-1.027, 6.322e-6
-1.028, 6.322e-6
-1.029, 6.322e-6
-1.030, 6.322e-6
-1.031, 6.322e-6
-1.032, 6.322e-6
-1.033, 6.322e-6
-1.034, 6.322e-6
-1.035, 6.322e-6
-1.036, 6.322e-6
-1.037, 6.322e-6
-1.038, 6.322e-6
-1.039, 6.322e-6
-1.040, 6.322e-6
-1.041, 6.322e-6
-1.042, 6.322e-6
-1.043, 6.322e-6
-1.044, 6.322e-6
-1.045, 6.322e-6
-1.046, 6.322e-6
-1.047, 6.322e-6
-1.048, 6.322e-6
-1.049, 6.322e-6
-1.050, 6.322e-6
-1.051, 9.405e-6
-1.052, 6.322e-6
-1.053, 6.322e-6
-1.054, 6.322e-6
-1.055, 6.322e-6
-1.056, 9.405e-6
-1.057, 6.322e-6
-1.058, 6.322e-6
-1.059, 6.322e-6
-1.060, 6.322e-6
-1.061, 6.322e-6
-1.062, 6.322e-6
-1.063, 6.322e-6
-1.064, 9.405e-6
-1.065, 9.405e-6
-1.066, 9.405e-6
-1.067, 6.322e-6
-1.068, 9.405e-6
-1.069, 9.405e-6
-1.070, 9.405e-6
-1.071, 9.405e-6
-1.072, 9.405e-6
-1.073, 6.322e-6
-1.074, 9.405e-6
-1.075, 9.405e-6
-1.076, 9.405e-6
-1.077, 6.322e-6
-1.078, 9.405e-6
-1.079, 6.322e-6
-1.080, 9.405e-6
-1.081, 9.405e-6
-1.082, 9.405e-6
-1.083, 9.405e-6
-1.084, 6.322e-6
-1.085, 9.405e-6
-1.086, 9.405e-6
-1.087, 9.405e-6
-1.088, 9.405e-6
-1.089, 9.405e-6
-1.090, 9.405e-6
-1.091, 9.405e-6
-1.092, 9.405e-6
-1.093, 9.405e-6
-1.094, 9.405e-6
-1.095, 9.405e-6
-1.096, 9.405e-6
-1.097, 9.405e-6
-1.098, 9.405e-6
-1.099, 9.405e-6
-1.100, 9.405e-6
-1.101, 9.405e-6
-1.102, 9.405e-6
-1.103, 9.405e-6
-1.104, 9.405e-6
-1.105, 9.405e-6
-1.106, 9.405e-6
-1.107, 9.405e-6
-1.108, 9.405e-6
-1.109, 9.405e-6
-1.110, 9.405e-6
-1.111, 9.405e-6
-1.112, 9.405e-6
-1.113, 9.405e-6
-1.114, 9.405e-6
-1.115, 9.405e-6
-1.116, 9.405e-6
-1.117, 9.405e-6
-1.118, 9.405e-6
-1.119, 9.405e-6
-1.120, 9.405e-6
-1.121, 9.405e-6
-1.122, 9.405e-6
-1.123, 9.405e-6
-1.124, 9.405e-6
-1.125, 9.405e-6
-1.126, 9.405e-6
-1.127, 9.405e-6
-1.128, 9.405e-6
-1.129, 9.405e-6
-1.130, 9.405e-6
-1.131, 1.249e-5
-1.132, 9.405e-6
-1.133, 9.405e-6
-1.134, 9.405e-6
-1.135, 9.405e-6
-1.136, 9.405e-6
-1.137, 9.405e-6
-1.138, 9.405e-6
-1.139, 9.405e-6
-1.140, 9.405e-6
-1.141, 1.249e-5
-1.142, 9.405e-6
-1.143, 1.249e-5
-1.144, 9.405e-6
-1.145, 9.405e-6
-1.146, 9.405e-6
-1.147, 9.405e-6
-1.148, 9.405e-6
-1.149, 9.405e-6
-1.150, 9.405e-6
-1.151, 1.249e-5
-1.152, 9.405e-6
-1.153, 9.405e-6
-1.154, 9.405e-6
-1.155, 1.249e-5
-1.156, 1.249e-5
-1.157, 1.249e-5
-1.158, 1.249e-5
-1.159, 9.405e-6
-1.160, 1.249e-5
-1.161, 1.249e-5
-1.162, 9.405e-6
-1.163, 1.249e-5
-1.164, 9.405e-6
-1.165, 1.249e-5
-1.166, 1.249e-5
-1.167, 1.249e-5
-1.168, 1.249e-5
-1.169, 9.405e-6
-1.170, 1.249e-5
-1.171, 1.249e-5
-1.172, 1.249e-5
-1.173, 1.249e-5
-1.174, 1.249e-5
-1.175, 1.249e-5
-1.176, 1.249e-5
-1.177, 1.249e-5
-1.178, 1.249e-5
-1.179, 1.249e-5
-1.180, 1.249e-5
-1.181, 1.249e-5
-1.182, 1.249e-5
-1.183, 1.249e-5
-1.184, 1.249e-5
-1.185, 1.249e-5
-1.186, 1.249e-5
-1.187, 1.249e-5
-1.188, 1.249e-5
-1.189, 1.249e-5
-1.190, 1.249e-5
-1.191, 1.249e-5
-1.192, 1.249e-5
-1.193, 1.249e-5
-1.194, 1.249e-5
-1.195, 1.249e-5
-1.196, 1.249e-5
-1.197, 1.249e-5
-1.198, 1.249e-5
-1.199, 1.249e-5
-1.200, 1.249e-5
-1.201, 1.249e-5
-1.202, 1.249e-5
-1.203, 1.249e-5
-1.204, 1.249e-5
-1.205, 1.249e-5
-1.206, 1.249e-5
-1.207, 1.249e-5
-1.208, 1.249e-5
-1.209, 1.249e-5
-1.210, 1.249e-5
-1.211, 1.249e-5
-1.212, 1.249e-5
-1.213, 1.249e-5
-1.214, 1.249e-5
-1.215, 1.249e-5
-1.216, 1.249e-5
-1.217, 1.249e-5
-1.218, 1.557e-5
-1.219, 1.249e-5
-1.220, 1.249e-5
-1.221, 1.249e-5
-1.222, 1.249e-5
-1.223, 1.249e-5
-1.224, 1.249e-5
-1.225, 1.249e-5
-1.226, 1.249e-5
-1.227, 1.249e-5
-1.228, 1.249e-5
-1.229, 1.249e-5
-1.230, 1.249e-5
-1.231, 1.249e-5
-1.232, 1.249e-5
-1.233, 1.249e-5
-1.234, 1.249e-5
-1.235, 1.249e-5
-1.236, 1.249e-5
-1.237, 1.557e-5
-1.238, 1.249e-5
-1.239, 1.249e-5
-1.240, 1.249e-5
-1.241, 1.249e-5
-1.242, 1.249e-5
-1.243, 1.557e-5
-1.244, 1.249e-5
-1.245, 1.249e-5
-1.246, 1.249e-5
-1.247, 1.249e-5
-1.248, 1.249e-5
-1.249, 1.249e-5
-1.250, 1.249e-5
-1.251, 1.557e-5
-1.252, 1.249e-5
-1.253, 1.557e-5
-1.254, 1.249e-5
-1.255, 1.249e-5
-1.256, 1.557e-5
-1.257, 1.557e-5
-1.258, 1.249e-5
-1.259, 1.249e-5
-1.260, 1.249e-5
-1.261, 1.249e-5
-1.262, 1.249e-5
-1.263, 1.557e-5
-1.264, 1.557e-5
-1.265, 1.557e-5
-1.266, 1.557e-5
-1.267, 1.557e-5
-1.268, 1.557e-5
-1.269, 1.249e-5
-1.270, 1.249e-5
-1.271, 1.557e-5
-1.272, 1.557e-5
-1.273, 1.557e-5
-1.274, 1.249e-5
-1.275, 1.557e-5
-1.276, 1.557e-5
-1.277, 1.249e-5
-1.278, 1.557e-5
-1.279, 1.557e-5
-1.280, 1.557e-5
-1.281, 1.557e-5
-1.282, 1.557e-5
-1.283, 1.557e-5
-1.284, 1.557e-5
-1.285, 1.557e-5
-1.286, 1.557e-5
-1.287, 1.557e-5
-1.288, 1.557e-5
-1.289, 1.557e-5
-1.290, 1.557e-5
-1.291, 1.557e-5
-1.292, 1.557e-5
-1.293, 1.557e-5
-1.294, 1.557e-5
-1.295, 1.557e-5
-1.296, 1.557e-5
-1.297, 1.557e-5
-1.298, 1.557e-5
-1.299, 1.557e-5
-1.300, 1.557e-5
-1.301, 1.557e-5
-1.302, 1.557e-5
-1.303, 1.557e-5
-1.304, 1.557e-5
-1.305, 1.557e-5
-1.306, 1.557e-5
-1.307, 1.557e-5
-1.308, 1.249e-5
-1.309, 1.557e-5
-1.310, 1.557e-5
-1.311, 1.557e-5
-1.312, 1.557e-5
-1.313, 1.557e-5
-1.314, 1.557e-5
-1.315, 1.557e-5
-1.316, 1.557e-5
-1.317, 1.557e-5
-1.318, 1.557e-5
-1.319, 1.557e-5
-1.320, 1.557e-5
-1.321, 1.557e-5
-1.322, 1.557e-5
-1.323, 1.557e-5
-1.324, 1.557e-5
-1.325, 1.557e-5
-1.326, 1.557e-5
-1.327, 1.557e-5
-1.328, 1.557e-5
-1.329, 1.557e-5
-1.330, 1.557e-5
-1.331, 1.557e-5
-1.332, 1.557e-5
-1.333, 1.557e-5
-1.334, 1.557e-5
-1.335, 1.557e-5
-1.336, 1.557e-5
-1.337, 1.557e-5
-1.338, 1.557e-5
-1.339, 1.557e-5
-1.340, 1.557e-5
-1.341, 1.557e-5
-1.342, 1.557e-5
-1.343, 1.557e-5
-1.344, 1.557e-5
-1.345, 1.557e-5
-1.346, 1.557e-5
-1.347, 1.557e-5
-1.348, 1.557e-5
-1.349, 1.557e-5
-1.350, 1.557e-5
-1.351, 1.557e-5
-1.352, 1.557e-5
-1.353, 1.557e-5
-1.354, 1.557e-5
-1.355, 1.865e-5
-1.356, 1.557e-5
-1.357, 1.557e-5
-1.358, 1.557e-5
-1.359, 1.557e-5
-1.360, 1.557e-5
-1.361, 1.557e-5
-1.362, 1.557e-5
-1.363, 1.557e-5
-1.364, 1.557e-5
-1.365, 1.557e-5
-1.366, 1.557e-5
-1.367, 1.557e-5
-1.368, 1.557e-5
-1.369, 1.557e-5
-1.370, 1.557e-5
-1.371, 1.557e-5
-1.372, 1.865e-5
-1.373, 1.557e-5
-1.374, 1.557e-5
-1.375, 1.557e-5
-1.376, 1.865e-5
-1.377, 1.865e-5
-1.378, 1.557e-5
-1.379, 1.557e-5
-1.380, 1.557e-5
-1.381, 1.557e-5
-1.382, 1.865e-5
-1.383, 1.557e-5
-1.384, 1.865e-5
-1.385, 1.865e-5
-1.386, 1.557e-5
-1.387, 1.557e-5
-1.388, 1.557e-5
-1.389, 1.865e-5
-1.390, 1.865e-5
-1.391, 1.865e-5
-1.392, 1.557e-5
-1.393, 1.865e-5
-1.394, 1.557e-5
-1.395, 1.865e-5
-1.396, 1.865e-5
-1.397, 1.865e-5
-1.398, 1.865e-5
-1.399, 1.865e-5
-1.400, 1.557e-5
-1.401, 1.865e-5
-1.402, 1.557e-5
-1.403, 1.557e-5
-1.404, 1.557e-5
-1.405, 1.865e-5
-1.406, 1.865e-5
-1.407, 1.865e-5
-1.408, 1.865e-5
-1.409, 1.865e-5
-1.410, 1.865e-5
-1.411, 1.865e-5
-1.412, 1.865e-5
-1.413, 1.865e-5
-1.414, 1.865e-5
-1.415, 1.865e-5
-1.416, 1.865e-5
-1.417, 1.557e-5
-1.418, 1.865e-5
-1.419, 1.865e-5
-1.420, 1.865e-5
-1.421, 1.865e-5
-1.422, 1.865e-5
-1.423, 1.865e-5
-1.424, 1.865e-5
-1.425, 1.865e-5
-1.426, 1.865e-5
-1.427, 1.557e-5
-1.428, 1.865e-5
-1.429, 1.865e-5
-1.430, 1.865e-5
-1.431, 1.865e-5
-1.432, 1.865e-5
-1.433, 1.865e-5
-1.434, 1.865e-5
-1.435, 1.865e-5
-1.436, 1.865e-5
-1.437, 1.865e-5
-1.438, 1.865e-5
-1.439, 1.865e-5
-1.440, 2.174e-5
-1.441, 1.865e-5
-1.442, 1.865e-5
-1.443, 1.865e-5
-1.444, 1.865e-5
-1.445, 1.865e-5
-1.446, 1.865e-5
-1.447, 1.865e-5
-1.448, 1.865e-5
-1.449, 1.865e-5
-1.450, 1.865e-5
-1.451, 1.865e-5
-1.452, 1.865e-5
-1.453, 1.865e-5
-1.454, 1.865e-5
-1.455, 1.865e-5
-1.456, 1.865e-5
-1.457, 1.865e-5
-1.458, 1.865e-5
-1.459, 2.174e-5
-1.460, 1.865e-5
-1.461, 1.865e-5
-1.462, 1.865e-5
-1.463, 1.865e-5
-1.464, 1.865e-5
-1.465, 1.865e-5
-1.466, 2.174e-5
-1.467, 1.865e-5
-1.468, 2.174e-5
-1.469, 2.174e-5
-1.470, 1.865e-5
-1.471, 2.174e-5
-1.472, 2.174e-5
-1.473, 2.174e-5
-1.474, 2.174e-5
-1.475, 1.865e-5
-1.476, 2.174e-5
-1.477, 2.174e-5
-1.478, 2.174e-5
-1.479, 2.174e-5
-1.480, 2.174e-5
-1.481, 2.174e-5
-1.482, 2.174e-5
-1.483, 2.174e-5
-1.484, 2.174e-5
-1.485, 2.174e-5
-1.486, 2.174e-5
-1.487, 2.174e-5
-1.488, 2.174e-5
-1.489, 2.174e-5
-1.490, 2.174e-5
-1.491, 2.174e-5
-1.492, 2.174e-5
-1.493, 2.174e-5
-1.494, 2.174e-5
-1.495, 2.174e-5
-1.496, 2.174e-5
-1.497, 2.174e-5
-1.498, 2.174e-5
-1.499, 2.174e-5
-1.500, 2.174e-5
-1.501, 2.174e-5
-1.502, 2.174e-5
-1.503, 2.174e-5
-1.504, 2.174e-5
-1.505, 2.174e-5
-1.506, 2.482e-5
-1.507, 2.174e-5
-1.508, 2.174e-5
-1.509, 2.174e-5
-1.510, 2.482e-5
-1.511, 2.174e-5
-1.512, 2.482e-5
-1.513, 2.174e-5
-1.514, 2.482e-5
-1.515, 2.482e-5
-1.516, 2.482e-5
-1.517, 2.482e-5
-1.518, 2.482e-5
-1.519, 2.482e-5
-1.520, 2.482e-5
-1.521, 2.482e-5
-1.522, 2.482e-5
-1.523, 2.482e-5
-1.524, 2.482e-5
-1.525, 2.482e-5
-1.526, 2.482e-5
-1.527, 2.482e-5
-1.528, 2.482e-5
-1.529, 2.482e-5
-1.530, 2.482e-5
-1.531, 2.482e-5
-1.532, 2.790e-5
-1.533, 2.790e-5
-1.534, 2.790e-5
-1.535, 2.790e-5
-1.536, 2.790e-5
-1.537, 2.790e-5
-1.538, 2.790e-5
-1.539, 2.790e-5
-1.540, 2.790e-5
-1.541, 2.790e-5
-1.542, 2.790e-5
-1.543, 2.790e-5
-1.544, 2.790e-5
-1.545, 2.790e-5
-1.546, 2.790e-5
-1.547, 3.099e-5
-1.548, 3.099e-5
-1.549, 2.790e-5
-1.550, 3.099e-5
-1.551, 3.099e-5
-1.552, 3.099e-5
-1.553, 3.099e-5
-1.554, 3.099e-5
-1.555, 3.099e-5
-1.556, 3.099e-5
-1.557, 3.099e-5
-1.558, 3.099e-5
-1.559, 3.099e-5
-1.560, 3.099e-5
-1.561, 3.099e-5
-1.562, 3.099e-5
-1.563, 3.407e-5
-1.564, 3.407e-5
-1.565, 3.099e-5
-1.566, 3.407e-5
-1.567, 3.407e-5
-1.568, 3.407e-5
-1.569, 3.407e-5
-1.570, 3.407e-5
-1.571, 3.407e-5
-1.572, 3.407e-5
-1.573, 3.715e-5
-1.574, 3.407e-5
-1.575, 3.407e-5
-1.576, 3.715e-5
-1.577, 3.715e-5
-1.578, 3.715e-5
-1.579, 3.715e-5
-1.580, 3.715e-5
-1.581, 3.715e-5
-1.582, 3.715e-5
-1.583, 3.715e-5
-1.584, 3.715e-5
-1.585, 4.024e-5
-1.586, 4.024e-5
-1.587, 4.024e-5
-1.588, 4.024e-5
-1.589, 4.024e-5
-1.590, 4.024e-5
-1.591, 4.332e-5
-1.592, 4.332e-5
-1.593, 4.332e-5
-1.594, 4.332e-5
-1.595, 4.332e-5
-1.596, 4.332e-5
-1.597, 4.640e-5
-1.598, 4.332e-5
-1.599, 4.332e-5
-1.600, 4.640e-5
-1.601, 4.640e-5
-1.602, 4.949e-5
-1.603, 4.640e-5
-1.604, 4.640e-5
-1.605, 4.949e-5
-1.606, 4.949e-5
-1.607, 4.949e-5
-1.608, 4.949e-5
-1.609, 4.949e-5
-1.610, 5.257e-5
-1.611, 5.257e-5
-1.612, 5.257e-5
-1.613, 5.257e-5
-1.614, 5.565e-5
-1.615, 5.565e-5
-1.616, 5.565e-5
-1.617, 5.565e-5
-1.618, 5.873e-5
-1.619, 5.873e-5
-1.620, 5.873e-5
-1.621, 5.873e-5
-1.622, 6.182e-5
-1.623, 6.182e-5
-1.624, 6.182e-5
-1.625, 6.182e-5
-1.626, 6.490e-5
-1.627, 6.490e-5
-1.628, 6.490e-5
-1.629, 6.490e-5
-1.630, 6.798e-5
-1.631, 6.798e-5
-1.632, 6.798e-5
-1.633, 7.107e-5
-1.634, 7.107e-5
-1.635, 7.107e-5
-1.636, 7.415e-5
-1.637, 7.415e-5
-1.638, 7.723e-5
-1.639, 7.723e-5
-1.640, 7.723e-5
-1.641, 8.032e-5
-1.642, 8.032e-5
-1.643, 8.340e-5
-1.644, 8.340e-5
-1.645, 8.648e-5
-1.646, 8.648e-5
-1.647, 8.957e-5
-1.648, 8.957e-5
-1.649, 8.957e-5
-1.650, 9.265e-5
-1.651, 9.265e-5
-1.652, 9.573e-5
-1.653, 9.573e-5
-1.654, 9.882e-5
-1.655, 1.019e-4
-1.656, 1.019e-4
-1.657, 1.050e-4
-1.658, 1.050e-4
-1.659, 1.081e-4
-1.660, 1.111e-4
-1.661, 1.111e-4
-1.662, 1.142e-4
-1.663, 1.142e-4
-1.664, 1.173e-4
-1.665, 1.204e-4
-1.666, 1.204e-4
-1.667, 1.235e-4
-1.668, 1.266e-4
-1.669, 1.296e-4
-1.670, 1.296e-4
-1.671, 1.327e-4
-1.672, 1.358e-4
-1.673, 1.389e-4
-1.674, 1.420e-4
-1.675, 1.451e-4
-1.676, 1.481e-4
-1.677, 1.512e-4
-1.678, 1.512e-4
-1.679, 1.543e-4
-1.680, 1.574e-4
-1.681, 1.605e-4
-1.682, 1.636e-4
-1.683, 1.697e-4
-1.684, 1.697e-4
-1.685, 1.728e-4
-1.686, 1.790e-4
-1.687, 1.821e-4
-1.688, 1.851e-4
-1.689, 1.882e-4
-1.690, 1.913e-4
-1.691, 1.975e-4
-1.692, 2.006e-4
-1.693, 2.067e-4
-1.694, 2.098e-4
-1.695, 2.129e-4
-1.696, 2.191e-4
-1.697, 2.221e-4
-1.698, 2.252e-4
-1.699, 2.314e-4
-1.700, 2.345e-4
-1.701, 2.406e-4
-1.702, 2.468e-4
-1.703, 2.499e-4
-1.704, 2.561e-4
-1.705, 2.622e-4
-1.706, 2.684e-4
-1.707, 2.715e-4
-1.708, 2.776e-4
-1.709, 2.838e-4
-1.710, 2.931e-4
-1.711, 2.961e-4
-1.712, 3.023e-4
-1.713, 3.085e-4
-1.714, 3.177e-4
-1.715, 3.239e-4
-1.716, 3.300e-4
-1.717, 3.362e-4
-1.718, 3.455e-4
-1.719, 3.516e-4
-1.720, 3.609e-4
-1.721, 3.670e-4
-1.722, 3.763e-4
-1.723, 3.855e-4
-1.724, 3.917e-4
-1.725, 4.010e-4
-1.726, 4.102e-4
-1.727, 4.195e-4
-1.728, 4.287e-4
-1.729, 4.380e-4
-1.730, 4.472e-4
-1.731, 4.565e-4
-1.732, 4.688e-4
-1.733, 4.780e-4
-1.734, 4.904e-4
-1.735, 4.996e-4
-1.736, 5.089e-4
-1.737, 5.212e-4
-1.738, 5.335e-4
-1.739, 5.459e-4
-1.740, 5.551e-4
-1.741, 5.674e-4
-1.742, 5.829e-4
-1.743, 5.952e-4
-1.744, 6.044e-4
-1.745, 6.199e-4
-1.746, 6.322e-4
-1.747, 6.476e-4
-1.748, 6.630e-4
-1.749, 6.754e-4
-1.750, 6.908e-4
-1.751, 7.062e-4
-1.752, 7.185e-4
-1.753, 7.339e-4
-1.754, 7.494e-4
-1.755, 7.648e-4
-1.756, 7.833e-4
-1.757, 8.018e-4
-1.758, 8.172e-4
-1.759, 8.357e-4
-1.760, 8.511e-4
-1.761, 8.696e-4
-1.762, 8.881e-4
-1.763, 9.097e-4
-1.764, 9.313e-4
-1.765, 9.498e-4
-1.766, 9.713e-4
-1.767, 9.929e-4
-1.768, 1.011e-3
-1.769, 1.033e-3
-1.770, 1.058e-3
-1.771, 1.079e-3
-1.772, 1.104e-3
-1.773, 1.125e-3
-1.774, 1.150e-3
-1.775, 1.172e-3
-1.776, 1.199e-3
-1.777, 1.221e-3
-1.778, 1.249e-3
-1.779, 1.273e-3
-1.780, 1.301e-3
-1.781, 1.329e-3
-1.782, 1.357e-3
-1.783, 1.381e-3
-1.784, 1.409e-3
-1.785, 1.440e-3
-1.786, 1.471e-3
-1.787, 1.502e-3
-1.788, 1.532e-3
-1.789, 1.563e-3
-1.790, 1.597e-3
-1.791, 1.631e-3
-1.792, 1.662e-3
-1.793, 1.693e-3
-1.794, 1.724e-3
-1.795, 1.758e-3
-1.796, 1.791e-3
-1.797, 1.828e-3
-1.798, 1.865e-3
-1.799, 1.902e-3
-1.800, 1.939e-3
-1.801, 1.980e-3
-1.802, 2.017e-3
-1.803, 2.050e-3
-1.804, 2.087e-3
-1.805, 2.128e-3
-1.806, 2.168e-3
-1.807, 2.208e-3
-1.808, 2.254e-3
-1.809, 2.297e-3
-1.810, 2.343e-3
-1.811, 2.383e-3
-1.812, 2.430e-3
-1.813, 2.473e-3
-1.814, 2.519e-3
-1.815, 2.568e-3
-1.816, 2.615e-3
-1.817, 2.658e-3
-1.818, 2.707e-3
-1.819, 2.756e-3
-1.820, 2.803e-3
-1.821, 2.852e-3
-1.822, 2.901e-3
-1.823, 2.957e-3
-1.824, 3.012e-3
-1.825, 3.071e-3
-1.826, 3.126e-3
-1.827, 3.176e-3
-1.828, 3.231e-3
-1.829, 3.290e-3
-1.830, 3.348e-3
-1.831, 3.407e-3
-1.832, 3.462e-3
-1.833, 3.524e-3
-1.834, 3.586e-3
-1.835, 3.654e-3
-1.836, 3.718e-3
-1.837, 3.780e-3
-1.838, 3.842e-3
-1.839, 3.900e-3
-1.840, 3.962e-3
-1.841, 4.021e-3
-1.842, 4.082e-3
-1.843, 4.147e-3
-1.844, 4.215e-3
-1.845, 4.283e-3
-1.846, 4.354e-3
-1.847, 4.421e-3
-1.848, 4.492e-3
-1.849, 4.560e-3
-1.850, 4.625e-3
-1.851, 4.690e-3
-1.852, 4.757e-3
-1.853, 4.825e-3
-1.854, 4.893e-3
-1.855, 4.961e-3
-1.856, 5.032e-3
-1.857, 5.106e-3
-1.858, 5.180e-3
-1.859, 5.251e-3
-1.860, 5.325e-3
-1.861, 5.402e-3
-1.862, 5.470e-3
-1.863, 5.541e-3
-1.864, 5.608e-3
-1.865, 5.682e-3
-1.866, 5.756e-3
-1.867, 5.827e-3
-1.868, 5.901e-3
-1.869, 5.975e-3
-1.870, 6.046e-3
-1.871, 6.120e-3
-1.872, 6.191e-3
-1.873, 6.262e-3
-1.874, 6.330e-3
-1.875, 6.398e-3
-1.876, 6.465e-3
-1.877, 6.539e-3
-1.878, 6.604e-3
-1.879, 6.666e-3
-1.880, 6.715e-3
-1.881, 6.771e-3
-1.882, 6.829e-3
-1.883, 6.866e-3
-1.884, 6.894e-3
-1.885, 6.900e-3
-1.886, 6.903e-3
-1.887, 6.956e-3
-1.888, 7.070e-3
-1.889, 7.208e-3
-1.890, 7.332e-3
-1.891, 7.427e-3
-1.892, 7.501e-3
-1.893, 7.551e-3
-1.894, 7.600e-3
-1.895, 7.665e-3
-1.896, 7.742e-3
-1.897, 7.822e-3
-1.898, 7.908e-3
-1.899, 8.004e-3
-1.900, 8.093e-3
-1.901, 8.177e-3
-1.902, 8.257e-3
-1.903, 8.371e-3
-1.904, 8.485e-3
-1.905, 8.556e-3
-1.906, 8.599e-3
-1.907, 8.621e-3
-1.908, 8.658e-3
-1.909, 8.735e-3
-1.910, 8.839e-3
-1.911, 8.950e-3
-1.912, 9.055e-3
-1.913, 9.157e-3
-1.914, 9.262e-3
-1.915, 9.360e-3
-1.916, 9.441e-3
-1.917, 9.515e-3
-1.918, 9.595e-3
-1.919, 9.672e-3
-1.920, 9.752e-3
-1.921, 9.832e-3
-1.922, 9.912e-3
-1.923, 1.000e-2
-1.924, 1.010e-2
-1.925, 1.021e-2
-1.926, 1.032e-2
-1.927, 1.041e-2
-1.928, 1.050e-2
-1.929, 1.058e-2
-1.930, 1.066e-2
-1.931, 1.074e-2
-1.932, 1.083e-2
-1.933, 1.091e-2
-1.934, 1.100e-2
-1.935, 1.110e-2
-1.936, 1.120e-2
-1.937, 1.131e-2
-1.938, 1.142e-2
-1.939, 1.152e-2
-1.940, 1.161e-2
-1.941, 1.167e-2
-1.942, 1.174e-2
-1.943, 1.181e-2
-1.944, 1.189e-2
-1.945, 1.198e-2
-1.946, 1.209e-2
-1.947, 1.219e-2
-1.948, 1.229e-2
-1.949, 1.238e-2
-1.950, 1.247e-2
-1.951, 1.253e-2
-1.952, 1.259e-2
-1.953, 1.264e-2
-1.954, 1.270e-2
-1.955, 1.277e-2
-1.956, 1.286e-2
-1.957, 1.296e-2
-1.958, 1.306e-2
-1.959, 1.318e-2
-1.960, 1.330e-2
-1.961, 1.341e-2
-1.962, 1.350e-2
-1.963, 1.357e-2
-1.964, 1.363e-2
-1.965, 1.371e-2
-1.966, 1.380e-2
-1.967, 1.390e-2
-1.968, 1.401e-2
-1.969, 1.411e-2
-1.970, 1.423e-2
-1.971, 1.435e-2
-1.972, 1.446e-2
-1.973, 1.454e-2
-1.974, 1.461e-2
-1.975, 1.469e-2
-1.976, 1.478e-2
-1.977, 1.487e-2
-1.978, 1.497e-2
-1.979, 1.506e-2
-1.980, 1.515e-2
-1.981, 1.526e-2
-1.982, 1.538e-2
-1.983, 1.549e-2
-1.984, 1.559e-2
-1.985, 1.567e-2
-1.986, 1.577e-2
-1.987, 1.587e-2
-1.988, 1.596e-2
-1.989, 1.603e-2
-1.990, 1.610e-2
-1.991, 1.617e-2
-1.992, 1.628e-2
-1.993, 1.640e-2
-1.994, 1.652e-2
-1.995, 1.664e-2
-1.996, 1.675e-2
-1.997, 1.688e-2
-1.998, 1.703e-2
-1.999, 1.717e-2
-2.000, 1.729e-2
-2.001, 1.740e-2
-2.002, 1.751e-2
-2.003, 1.764e-2
-2.004, 1.778e-2
-2.005, 1.790e-2
-2.006, 1.800e-2
-2.007, 1.811e-2
-2.008, 1.827e-2
-2.009, 1.845e-2
-2.010, 1.860e-2
-2.011, 1.871e-2
-2.012, 1.879e-2
-2.013, 1.889e-2
-2.014, 1.904e-2
-2.015, 1.919e-2
-2.016, 1.929e-2
-2.017, 1.938e-2
-2.018, 1.949e-2
-2.019, 1.965e-2
-2.020, 1.981e-2
-2.021, 1.995e-2
-2.022, 2.005e-2
-2.023, 2.017e-2
-2.024, 2.029e-2
-2.025, 2.043e-2
-2.026, 2.055e-2
-2.027, 2.065e-2
-2.028, 2.076e-2
-2.029, 2.091e-2
-2.030, 2.105e-2
-2.031, 2.116e-2
-2.032, 2.127e-2
-2.033, 2.139e-2
-2.034, 2.154e-2
-2.035, 2.170e-2
-2.036, 2.179e-2
-2.037, 2.187e-2
-2.038, 2.198e-2
-2.039, 2.211e-2
-2.040, 2.224e-2
-2.041, 2.235e-2
-2.042, 2.246e-2
-2.043, 2.259e-2
-2.044, 2.272e-2
-2.045, 2.283e-2
-2.046, 2.292e-2
-2.047, 2.305e-2
-2.048, 2.316e-2
-2.049, 2.324e-2
-2.050, 2.331e-2
-2.051, 2.336e-2
-2.052, 2.345e-2
-2.053, 2.354e-2
-2.054, 2.362e-2
-2.055, 2.369e-2
-2.056, 2.379e-2
-2.057, 2.390e-2
-2.058, 2.397e-2
-2.059, 2.405e-2
-2.060, 2.413e-2
-2.061, 2.421e-2
-2.062, 2.426e-2
-2.063, 2.433e-2
-2.064, 2.440e-2
-2.065, 2.448e-2
-2.066, 2.451e-2
-2.067, 2.457e-2
-2.068, 2.467e-2
-2.069, 2.475e-2
-2.070, 2.479e-2
-2.071, 2.483e-2
-2.072, 2.485e-2
-2.073, 2.488e-2
-2.074, 2.495e-2
-2.075, 2.496e-2
-2.076, 2.487e-2
-2.077, 2.481e-2
-2.078, 2.468e-2
-2.079, 2.438e-2
-2.080, 2.406e-2
-2.081, 2.401e-2
-2.082, 2.409e-2
-2.083, 2.417e-2
-2.084, 2.425e-2
-2.085, 2.432e-2
-2.086, 2.428e-2
-2.087, 2.419e-2
-2.088, 2.417e-2
-2.089, 2.430e-2
-2.090, 2.453e-2
-2.091, 2.480e-2
-2.092, 2.495e-2
-2.093, 2.500e-2
-2.094, 2.514e-2
-2.095, 2.528e-2
-2.096, 2.537e-2
-2.097, 2.549e-2
-2.098, 2.553e-2
-2.099, 2.555e-2
-2.100, 2.555e-2
-2.099, 2.549e-2
-2.098, 2.541e-2
-2.097, 2.534e-2
-2.096, 2.526e-2
-2.095, 2.518e-2
-2.094, 2.516e-2
-2.093, 2.515e-2
-2.092, 2.511e-2
-2.091, 2.501e-2
-2.090, 2.483e-2
-2.089, 2.467e-2
-2.088, 2.447e-2
-2.087, 2.430e-2
-2.086, 2.420e-2
-2.085, 2.417e-2
-2.084, 2.414e-2
-2.083, 2.408e-2
-2.082, 2.398e-2
-2.081, 2.387e-2
-2.080, 2.378e-2
-2.079, 2.369e-2
-2.078, 2.359e-2
-2.077, 2.344e-2
-2.076, 2.325e-2
-2.075, 2.311e-2
-2.074, 2.304e-2
-2.073, 2.299e-2
-2.072, 2.294e-2
-2.071, 2.287e-2
-2.070, 2.278e-2
-2.069, 2.270e-2
-2.068, 2.261e-2
-2.067, 2.253e-2
-2.066, 2.242e-2
-2.065, 2.233e-2
-2.064, 2.224e-2
-2.063, 2.212e-2
-2.062, 2.202e-2
-2.061, 2.197e-2
-2.060, 2.190e-2
-2.059, 2.183e-2
-2.058, 2.171e-2
-2.057, 2.160e-2
-2.056, 2.152e-2
-2.055, 2.145e-2
-2.054, 2.140e-2
-2.053, 2.128e-2
-2.052, 2.118e-2
-2.051, 2.113e-2
-2.050, 2.110e-2
-2.049, 2.109e-2
-2.048, 2.101e-2
-2.047, 2.090e-2
-2.046, 2.082e-2
-2.045, 2.085e-2
-2.044, 2.079e-2
-2.043, 2.067e-2
-2.042, 2.053e-2
-2.041, 2.042e-2
-2.040, 2.038e-2
-2.039, 2.038e-2
-2.038, 2.033e-2
-2.037, 2.024e-2
-2.036, 2.018e-2
-2.035, 2.012e-2
-2.034, 2.006e-2
-2.033, 1.996e-2
-2.032, 1.985e-2
-2.031, 1.976e-2
-2.030, 1.970e-2
-2.029, 1.970e-2
-2.028, 1.962e-2
-2.027, 1.951e-2
-2.026, 1.944e-2
-2.025, 1.937e-2
-2.024, 1.929e-2
-2.023, 1.918e-2
-2.022, 1.910e-2
-2.021, 1.905e-2
-2.020, 1.897e-2
-2.019, 1.887e-2
-2.018, 1.877e-2
-2.017, 1.869e-2
-2.016, 1.862e-2
-2.015, 1.854e-2
-2.014, 1.845e-2
-2.013, 1.835e-2
-2.012, 1.826e-2
-2.011, 1.818e-2
-2.010, 1.808e-2
-2.009, 1.800e-2
-2.008, 1.789e-2
-2.007, 1.778e-2
-2.006, 1.768e-2
-2.005, 1.759e-2
-2.004, 1.750e-2
-2.003, 1.741e-2
-2.002, 1.732e-2
-2.001, 1.721e-2
-2.000, 1.709e-2
-1.999, 1.697e-2
-1.998, 1.690e-2
-1.997, 1.679e-2
-1.996, 1.670e-2
-1.995, 1.660e-2
-1.994, 1.648e-2
-1.993, 1.634e-2
-1.992, 1.620e-2
-1.991, 1.612e-2
-1.990, 1.603e-2
-1.989, 1.589e-2
-1.988, 1.575e-2
-1.987, 1.561e-2
-1.986, 1.550e-2
-1.985, 1.532e-2
-1.984, 1.522e-2
-1.983, 1.519e-2
-1.982, 1.512e-2
-1.981, 1.487e-2
-1.980, 1.450e-2
-1.979, 1.423e-2
-1.978, 1.408e-2
-1.977, 1.396e-2
-1.976, 1.391e-2
-1.975, 1.389e-2
-1.974, 1.387e-2
-1.973, 1.382e-2
-1.972, 1.378e-2
-1.971, 1.375e-2
-1.970, 1.375e-2
-1.969, 1.372e-2
-1.968, 1.363e-2
-1.967, 1.353e-2
-1.966, 1.340e-2
-1.965, 1.324e-2
-1.964, 1.317e-2
-1.963, 1.312e-2
-1.962, 1.305e-2
-1.961, 1.297e-2
-1.960, 1.285e-2
-1.959, 1.275e-2
-1.958, 1.269e-2
-1.957, 1.263e-2
-1.956, 1.256e-2
-1.955, 1.248e-2
-1.954, 1.236e-2
-1.953, 1.229e-2
-1.952, 1.220e-2
-1.951, 1.214e-2
-1.950, 1.210e-2
-1.949, 1.203e-2
-1.948, 1.197e-2
-1.947, 1.190e-2
-1.946, 1.182e-2
-1.945, 1.175e-2
-1.944, 1.169e-2
-1.943, 1.163e-2
-1.942, 1.156e-2
-1.941, 1.150e-2
-1.940, 1.145e-2
-1.939, 1.141e-2
-1.938, 1.133e-2
-1.937, 1.125e-2
-1.936, 1.117e-2
-1.935, 1.111e-2
-1.934, 1.103e-2
-1.933, 1.096e-2
-1.932, 1.088e-2
-1.931, 1.081e-2
-1.930, 1.074e-2
-1.929, 1.067e-2
-1.928, 1.061e-2
-1.927, 1.053e-2
-1.926, 1.045e-2
-1.925, 1.038e-2
-1.924, 1.030e-2
-1.923, 1.022e-2
-1.922, 1.017e-2
-1.921, 1.010e-2
-1.920, 1.003e-2
-1.919, 9.956e-3
-1.918, 9.912e-3
-1.917, 9.848e-3
-1.916, 9.767e-3
-1.915, 9.687e-3
-1.914, 9.616e-3
-1.913, 9.549e-3
-1.912, 9.512e-3
-1.911, 9.487e-3
-1.910, 9.410e-3
-1.909, 9.320e-3
-1.908, 9.231e-3
-1.907, 9.154e-3
-1.906, 9.114e-3
-1.905, 9.046e-3
-1.904, 8.960e-3
-1.903, 8.886e-3
-1.902, 8.821e-3
-1.901, 8.762e-3
-1.900, 8.728e-3
-1.899, 8.661e-3
-1.898, 8.599e-3
-1.897, 8.537e-3
-1.896, 8.466e-3
-1.895, 8.392e-3
-1.894, 8.321e-3
-1.893, 8.257e-3
-1.892, 8.195e-3
-1.891, 8.143e-3
-1.890, 8.090e-3
-1.889, 8.025e-3
-1.888, 7.955e-3
-1.887, 7.893e-3
-1.886, 7.831e-3
-1.885, 7.773e-3
-1.884, 7.711e-3
-1.883, 7.646e-3
-1.882, 7.619e-3
-1.881, 7.585e-3
-1.880, 7.541e-3
-1.879, 7.477e-3
-1.878, 7.406e-3
-1.877, 7.335e-3
-1.876, 7.276e-3
-1.875, 7.224e-3
-1.874, 7.171e-3
-1.873, 7.119e-3
-1.872, 7.064e-3
-1.871, 7.008e-3
-1.870, 6.953e-3
-1.869, 6.897e-3
-1.868, 6.842e-3
-1.867, 6.783e-3
-1.866, 6.721e-3
-1.865, 6.666e-3
-1.864, 6.617e-3
-1.863, 6.561e-3
-1.862, 6.502e-3
-1.861, 6.465e-3
-1.860, 6.432e-3
-1.859, 6.379e-3
-1.858, 6.317e-3
-1.857, 6.262e-3
-1.856, 6.203e-3
-1.855, 6.148e-3
-1.854, 6.099e-3
-1.853, 6.046e-3
-1.852, 5.994e-3
-1.851, 5.951e-3
-1.850, 5.904e-3
-1.849, 5.858e-3
-1.848, 5.806e-3
-1.847, 5.747e-3
-1.846, 5.695e-3
-1.845, 5.648e-3
-1.844, 5.602e-3
-1.843, 5.559e-3
-1.842, 5.507e-3
-1.841, 5.454e-3
-1.840, 5.423e-3
-1.839, 5.383e-3
-1.838, 5.334e-3
-1.837, 5.285e-3
-1.836, 5.232e-3
-1.835, 5.189e-3
-1.834, 5.152e-3
-1.833, 5.112e-3
-1.832, 5.060e-3
-1.831, 5.007e-3
-1.830, 4.961e-3
-1.829, 4.921e-3
-1.828, 4.875e-3
-1.827, 4.822e-3
-1.826, 4.773e-3
-1.825, 4.727e-3
-1.824, 4.683e-3
-1.823, 4.637e-3
-1.822, 4.594e-3
-1.821, 4.548e-3
-1.820, 4.498e-3
-1.819, 4.449e-3
-1.818, 4.400e-3
-1.817, 4.357e-3
-1.816, 4.310e-3
-1.815, 4.267e-3
-1.814, 4.221e-3
-1.813, 4.175e-3
-1.812, 4.132e-3
-1.811, 4.085e-3
-1.810, 4.045e-3
-1.809, 4.005e-3
-1.808, 3.962e-3
-1.807, 3.916e-3
-1.806, 3.869e-3
-1.805, 3.826e-3
-1.804, 3.780e-3
-1.803, 3.737e-3
-1.802, 3.697e-3
-1.801, 3.654e-3
-1.800, 3.610e-3
-1.799, 3.570e-3
-1.798, 3.527e-3
-1.797, 3.487e-3
-1.796, 3.447e-3
-1.795, 3.407e-3
-1.794, 3.364e-3
-1.793, 3.324e-3
-1.792, 3.284e-3
-1.791, 3.244e-3
-1.790, 3.204e-3
-1.789, 3.160e-3
-1.788, 3.120e-3
-1.787, 3.080e-3
-1.786, 3.040e-3
-1.785, 3.003e-3
-1.784, 2.963e-3
-1.783, 2.923e-3
-1.782, 2.883e-3
-1.781, 2.846e-3
-1.780, 2.809e-3
-1.779, 2.772e-3
-1.778, 2.729e-3
-1.777, 2.689e-3
-1.776, 2.652e-3
-1.775, 2.618e-3
-1.774, 2.578e-3
-1.773, 2.538e-3
-1.772, 2.501e-3
-1.771, 2.470e-3
-1.770, 2.430e-3
-1.769, 2.386e-3
-1.768, 2.353e-3
-1.767, 2.312e-3
-1.766, 2.272e-3
-1.765, 2.242e-3
-1.764, 2.217e-3
-1.763, 2.186e-3
-1.762, 2.158e-3
-1.761, 2.131e-3
-1.760, 2.100e-3
-1.759, 2.069e-3
-1.758, 2.044e-3
-1.757, 2.017e-3
-1.756, 1.986e-3
-1.755, 1.955e-3
-1.754, 1.924e-3
-1.753, 1.896e-3
-1.752, 1.875e-3
-1.751, 1.856e-3
-1.750, 1.835e-3
-1.749, 1.810e-3
-1.748, 1.782e-3
-1.747, 1.751e-3
-1.746, 1.721e-3
-1.745, 1.693e-3
-1.744, 1.668e-3
-1.743, 1.647e-3
-1.742, 1.622e-3
-1.741, 1.600e-3
-1.740, 1.576e-3
-1.739, 1.554e-3
-1.738, 1.536e-3
-1.737, 1.514e-3
-1.736, 1.492e-3
-1.735, 1.471e-3
-1.734, 1.446e-3
-1.733, 1.425e-3
-1.732, 1.403e-3
-1.731, 1.384e-3
-1.730, 1.363e-3
-1.729, 1.344e-3
-1.728, 1.323e-3
-1.727, 1.301e-3
-1.726, 1.277e-3
-1.725, 1.261e-3
-1.724, 1.243e-3
-1.723, 1.221e-3
-1.722, 1.203e-3
-1.721, 1.184e-3
-1.720, 1.166e-3
-1.719, 1.147e-3
-1.718, 1.132e-3
-1.717, 1.113e-3
-1.716, 1.095e-3
-1.715, 1.079e-3
-1.714, 1.061e-3
-1.713, 1.042e-3
-1.712, 1.027e-3
-1.711, 1.008e-3
-1.710, 9.929e-4
-1.709, 9.775e-4
-1.708, 9.621e-4
-1.707, 9.467e-4
-1.706, 9.282e-4
-1.705, 9.128e-4
-1.704, 8.973e-4
-1.703, 8.850e-4
-1.702, 8.696e-4
-1.701, 8.542e-4
-1.700, 8.388e-4
-1.699, 8.264e-4
-1.698, 8.110e-4
-1.697, 7.956e-4
-1.696, 7.833e-4
-1.695, 7.679e-4
-1.694, 7.555e-4
-1.693, 7.432e-4
-1.692, 7.309e-4
-1.691, 7.185e-4
-1.690, 7.062e-4
-1.689, 6.939e-4
-1.688, 6.815e-4
-1.687, 6.692e-4
-1.686, 6.569e-4
-1.685, 6.445e-4
-1.684, 6.353e-4
-1.683, 6.229e-4
-1.682, 6.137e-4
-1.681, 6.014e-4
-1.680, 5.921e-4
-1.679, 5.798e-4
-1.678, 5.705e-4
-1.677, 5.582e-4
-1.676, 5.489e-4
-1.675, 5.397e-4
-1.674, 5.305e-4
-1.673, 5.181e-4
-1.672, 5.120e-4
-1.671, 4.996e-4
-1.670, 4.935e-4
-1.669, 4.842e-4
-1.668, 4.750e-4
-1.667, 4.657e-4
-1.666, 4.565e-4
-1.665, 4.503e-4
-1.664, 4.380e-4
-1.663, 4.318e-4
-1.662, 4.225e-4
-1.661, 4.164e-4
-1.660, 4.071e-4
-1.659, 3.979e-4
-1.658, 3.917e-4
-1.657, 3.855e-4
-1.656, 3.763e-4
-1.655, 3.701e-4
-1.654, 3.609e-4
-1.653, 3.547e-4
-1.652, 3.485e-4
-1.651, 3.424e-4
-1.650, 3.362e-4
-1.649, 3.300e-4
-1.648, 3.208e-4
-1.647, 3.146e-4
-1.646, 3.115e-4
-1.645, 3.054e-4
-1.644, 2.961e-4
-1.643, 2.900e-4
-1.642, 2.869e-4
-1.641, 2.807e-4
-1.640, 2.746e-4
-1.639, 2.684e-4
-1.638, 2.622e-4
-1.637, 2.591e-4
-1.636, 2.530e-4
-1.635, 2.468e-4
-1.634, 2.437e-4
-1.633, 2.376e-4
-1.632, 2.314e-4
-1.631, 2.283e-4
-1.630, 2.221e-4
-1.629, 2.191e-4
-1.628, 2.160e-4
-1.627, 2.098e-4
-1.626, 2.067e-4
-1.625, 2.006e-4
-1.624, 1.975e-4
-1.623, 1.944e-4
-1.622, 1.913e-4
-1.621, 1.851e-4
-1.620, 1.821e-4
-1.619, 1.790e-4
-1.618, 1.759e-4
-1.617, 1.728e-4
-1.616, 1.666e-4
-1.615, 1.636e-4
-1.614, 1.605e-4
-1.613, 1.574e-4
-1.612, 1.543e-4
-1.611, 1.512e-4
-1.610, 1.481e-4
-1.609, 1.451e-4
-1.608, 1.420e-4
-1.607, 1.389e-4
-1.606, 1.358e-4
-1.605, 1.327e-4
-1.604, 1.296e-4
-1.603, 1.266e-4
-1.602, 1.266e-4
-1.601, 1.235e-4
-1.600, 1.204e-4
-1.599, 1.173e-4
-1.598, 1.142e-4
-1.597, 1.111e-4
-1.596, 1.081e-4
-1.595, 1.081e-4
-1.594, 1.050e-4
-1.593, 1.019e-4
-1.592, 1.019e-4
-1.591, 9.882e-5
-1.590, 9.573e-5
-1.589, 9.265e-5
-1.588, 9.265e-5
-1.587, 8.957e-5
-1.586, 8.648e-5
-1.585, 8.648e-5
-1.584, 8.340e-5
-1.583, 8.340e-5
-1.582, 8.032e-5
-1.581, 7.723e-5
-1.580, 7.723e-5
-1.579, 7.415e-5
-1.578, 7.415e-5
-1.577, 7.107e-5
-1.576, 7.107e-5
-1.575, 6.798e-5
-1.574, 6.798e-5
-1.573, 6.490e-5
-1.572, 6.490e-5
-1.571, 6.182e-5
-1.570, 6.182e-5
-1.569, 6.182e-5
-1.568, 5.873e-5
-1.567, 5.873e-5
-1.566, 5.565e-5
-1.565, 5.565e-5
-1.564, 5.257e-5
-1.563, 5.257e-5
-1.562, 4.949e-5
-1.561, 4.949e-5
-1.560, 4.949e-5
-1.559, 4.949e-5
-1.558, 4.640e-5
-1.557, 4.640e-5
-1.556, 4.332e-5
-1.555, 4.332e-5
-1.554, 4.332e-5
-1.553, 4.024e-5
-1.552, 4.024e-5
-1.551, 4.024e-5
-1.550, 4.024e-5
-1.549, 3.715e-5
-1.548, 3.715e-5
-1.547, 3.715e-5
-1.546, 3.407e-5
-1.545, 3.407e-5
-1.544, 3.407e-5
-1.543, 3.099e-5
-1.542, 3.099e-5
-1.541, 3.099e-5
-1.540, 3.099e-5
-1.539, 2.790e-5
-1.538, 2.790e-5
-1.537, 2.790e-5
-1.536, 2.790e-5
-1.535, 2.790e-5
-1.534, 2.482e-5
-1.533, 2.482e-5
-1.532, 2.482e-5
-1.531, 2.174e-5
-1.530, 2.174e-5
-1.529, 2.174e-5
-1.528, 2.174e-5
-1.527, 2.174e-5
-1.526, 2.174e-5
-1.525, 1.865e-5
-1.524, 1.865e-5
-1.523, 1.865e-5
-1.522, 1.865e-5
-1.521, 1.865e-5
-1.520, 1.865e-5
-1.519, 1.557e-5
-1.518, 1.557e-5
-1.517, 1.557e-5
-1.516, 1.557e-5
-1.515, 1.557e-5
-1.514, 1.249e-5
-1.513, 1.557e-5
-1.512, 1.249e-5
-1.511, 1.249e-5
-1.510, 1.249e-5
-1.509, 1.249e-5
-1.508, 1.249e-5
-1.507, 1.249e-5
-1.506, 1.249e-5
-1.505, 1.249e-5
-1.504, 9.405e-6
-1.503, 1.249e-5
-1.502, 9.405e-6
-1.501, 9.405e-6
-1.500, 9.405e-6
-1.499, 9.405e-6
-1.498, 9.405e-6
-1.497, 9.405e-6
-1.496, 6.322e-6
-1.495, 6.322e-6
-1.494, 6.322e-6
-1.493, 6.322e-6
-1.492, 6.322e-6
-1.491, 6.322e-6
-1.490, 6.322e-6
-1.489, 6.322e-6
-1.488, 6.322e-6
-1.487, 6.322e-6
-1.486, 6.322e-6
-1.485, 6.322e-6
-1.484, 6.322e-6
-1.483, 3.239e-6
-1.482, 3.239e-6
-1.481, 3.239e-6
-1.480, 3.239e-6
-1.479, 3.239e-6
-1.478, 3.239e-6
-1.477, 3.239e-6
-1.476, 3.239e-6
-1.475, 3.239e-6
-1.474, 3.239e-6
-1.473, 3.239e-6
-1.472, 3.239e-6
-1.471, 1.559e-7
-1.470, 3.239e-6
-1.469, 3.239e-6
-1.468, 1.559e-7
-1.467, 1.559e-7
-1.466, 1.559e-7
-1.465, 1.559e-7
-1.464, 1.559e-7
-1.463, 1.559e-7
-1.462, 1.559e-7
-1.461, 1.559e-7
-1.460, 1.559e-7
-1.459, 1.559e-7
-1.458, 1.559e-7
-1.457, 1.559e-7
-1.456, 1.559e-7
-1.455, 1.559e-7
-1.454, 1.559e-7
-1.453, 1.559e-7
-1.452, 1.559e-7
-1.451, 1.559e-7
-1.450, 1.559e-7
-1.449, 1.559e-7
-1.448, 1.559e-7
-1.447, -2.927e-6
-1.446, 1.559e-7
-1.445, 1.559e-7
-1.444, 1.559e-7
-1.443, 1.559e-7
-1.442, -2.927e-6
-1.441, 1.559e-7
-1.440, 1.559e-7
-1.439, -2.927e-6
-1.438, -2.927e-6
-1.437, -2.927e-6
-1.436, -2.927e-6
-1.435, -2.927e-6
-1.434, -2.927e-6
-1.433, -2.927e-6
-1.432, -2.927e-6
-1.431, -2.927e-6
-1.430, -2.927e-6
-1.429, -2.927e-6
-1.428, -2.927e-6
-1.427, -2.927e-6
-1.426, -2.927e-6
-1.425, -2.927e-6
-1.424, -2.927e-6
-1.423, -2.927e-6
-1.422, -2.927e-6
-1.421, -2.927e-6
-1.420, -2.927e-6
-1.419, -2.927e-6
-1.418, -2.927e-6
-1.417, -2.927e-6
-1.416, -2.927e-6
-1.415, -2.927e-6
-1.414, -2.927e-6
-1.413, -2.927e-6
-1.412, -2.927e-6
-1.411, -2.927e-6
-1.410, -2.927e-6
-1.409, -2.927e-6
-1.408, -2.927e-6
-1.407, -2.927e-6
-1.406, -2.927e-6
-1.405, -2.927e-6
-1.404, -6.010e-6
-1.403, -2.927e-6
-1.402, -6.010e-6
-1.401, -2.927e-6
-1.400, -6.010e-6
-1.399, -2.927e-6
-1.398, -2.927e-6
-1.397, -2.927e-6
-1.396, -2.927e-6
-1.395, -2.927e-6
-1.394, -2.927e-6
-1.393, -6.010e-6
-1.392, -6.010e-6
-1.391, -2.927e-6
-1.390, -2.927e-6
-1.389, -6.010e-6
-1.388, -6.010e-6
-1.387, -6.010e-6
-1.386, -6.010e-6
-1.385, -6.010e-6
-1.384, -6.010e-6
-1.383, -2.927e-6
-1.382, -2.927e-6
-1.381, -6.010e-6
-1.380, -6.010e-6
-1.379, -6.010e-6
-1.378, -6.010e-6
-1.377, -6.010e-6
-1.376, -6.010e-6
-1.375, -6.010e-6
-1.374, -6.010e-6
-1.373, -6.010e-6
-1.372, -6.010e-6
-1.371, -6.010e-6
-1.370, -6.010e-6
-1.369, -6.010e-6
-1.368, -6.010e-6
-1.367, -6.010e-6
-1.366, -6.010e-6
-1.365, -6.010e-6
-1.364, -6.010e-6
-1.363, -6.010e-6
-1.362, -6.010e-6
-1.361, -6.010e-6
-1.360, -6.010e-6
-1.359, -6.010e-6
-1.358, -6.010e-6
-1.357, -6.010e-6
-1.356, -6.010e-6
-1.355, -6.010e-6
-1.354, -6.010e-6
-1.353, -6.010e-6
-1.352, -6.010e-6
-1.351, -6.010e-6
-1.350, -6.010e-6
-1.349, -6.010e-6
-1.348, -6.010e-6
-1.347, -6.010e-6
-1.346, -6.010e-6
-1.345, -6.010e-6
-1.344, -6.010e-6
-1.343, -6.010e-6
-1.342, -6.010e-6
-1.341, -6.010e-6
-1.340, -6.010e-6
-1.339, -6.010e-6
-1.338, -6.010e-6
-1.337, -6.010e-6
-1.336, -6.010e-6
-1.335, -6.010e-6
-1.334, -6.010e-6
-1.333, -6.010e-6
-1.332, -6.010e-6
-1.331, -6.010e-6
-1.330, -6.010e-6
-1.329, -6.010e-6
-1.328, -6.010e-6
-1.327, -6.010e-6
-1.326, -6.010e-6
-1.325, -6.010e-6
-1.324, -6.010e-6
-1.323, -6.010e-6
-1.322, -6.010e-6
-1.321, -6.010e-6
-1.320, -6.010e-6
-1.319, -6.010e-6
-1.318, -6.010e-6
-1.317, -6.010e-6
-1.316, -6.010e-6
-1.315, -6.010e-6
-1.314, -6.010e-6
-1.313, -6.010e-6
-1.312, -6.010e-6
-1.311, -6.010e-6
-1.310, -6.010e-6
-1.309, -6.010e-6
-1.308, -6.010e-6
-1.307, -6.010e-6
-1.306, -6.010e-6
-1.305, -6.010e-6
-1.304, -6.010e-6
-1.303, -6.010e-6
-1.302, -6.010e-6
-1.301, -6.010e-6
-1.300, -6.010e-6
-1.299, -6.010e-6
-1.298, -6.010e-6
-1.297, -6.010e-6
-1.296, -6.010e-6
-1.295, -6.010e-6
-1.294, -6.010e-6
-1.293, -6.010e-6
-1.292, -6.010e-6
-1.291, -6.010e-6
-1.290, -6.010e-6
-1.289, -6.010e-6
-1.288, -6.010e-6
-1.287, -6.010e-6
-1.286, -6.010e-6
-1.285, -6.010e-6
-1.284, -6.010e-6
-1.283, -6.010e-6
-1.282, -6.010e-6
-1.281, -6.010e-6
-1.280, -6.010e-6
-1.279, -6.010e-6
-1.278, -6.010e-6
-1.277, -6.010e-6
-1.276, -6.010e-6
-1.275, -6.010e-6
-1.274, -6.010e-6
-1.273, -6.010e-6
-1.272, -6.010e-6
-1.271, -9.093e-6
-1.270, -6.010e-6
-1.269, -6.010e-6
-1.268, -6.010e-6
-1.267, -6.010e-6
-1.266, -6.010e-6
-1.265, -6.010e-6
-1.264, -6.010e-6
-1.263, -6.010e-6
-1.262, -6.010e-6
-1.261, -6.010e-6
-1.260, -6.010e-6
-1.259, -6.010e-6
-1.258, -6.010e-6
-1.257, -6.010e-6
-1.256, -6.010e-6
-1.255, -6.010e-6
-1.254, -6.010e-6
-1.253, -9.093e-6
-1.252, -6.010e-6
-1.251, -9.093e-6
-1.250, -6.010e-6
-1.249, -6.010e-6
-1.248, -6.010e-6
-1.247, -6.010e-6
-1.246, -9.093e-6
-1.245, -6.010e-6
-1.244, -6.010e-6
-1.243, -6.010e-6
-1.242, -6.010e-6
-1.241, -6.010e-6
-1.240, -6.010e-6
-1.239, -6.010e-6
-1.238, -6.010e-6
-1.237, -6.010e-6
-1.236, -6.010e-6
-1.235, -6.010e-6
-1.234, -6.010e-6
-1.233, -6.010e-6
-1.232, -6.010e-6
-1.231, -6.010e-6
-1.230, -6.010e-6
-1.229, -9.093e-6
-1.228, -6.010e-6
-1.227, -9.093e-6
-1.226, -6.010e-6
-1.225, -9.093e-6
-1.224, -6.010e-6
-1.223, -6.010e-6
-1.222, -9.093e-6
-1.221, -6.010e-6
-1.220, -6.010e-6
-1.219, -6.010e-6
-1.218, -6.010e-6
-1.217, -9.093e-6
-1.216, -6.010e-6
-1.215, -9.093e-6
-1.214, -9.093e-6
-1.213, -9.093e-6
-1.212, -6.010e-6
-1.211, -6.010e-6
-1.210, -6.010e-6
-1.209, -6.010e-6
-1.208, -6.010e-6
-1.207, -6.010e-6
-1.206, -6.010e-6
-1.205, -9.093e-6
-1.204, -6.010e-6
-1.203, -6.010e-6
-1.202, -6.010e-6
-1.201, -6.010e-6
-1.200, -9.093e-6
-1.199, -6.010e-6
-1.198, -9.093e-6
-1.197, -6.010e-6
-1.196, -9.093e-6
-1.195, -9.093e-6
-1.194, -9.093e-6
-1.193, -9.093e-6
-1.192, -6.010e-6
-1.191, -6.010e-6
-1.190, -9.093e-6
-1.189, -9.093e-6
-1.188, -9.093e-6
-1.187, -6.010e-6
-1.186, -6.010e-6
-1.185, -6.010e-6
-1.184, -9.093e-6
-1.183, -6.010e-6
-1.182, -6.010e-6
-1.181, -9.093e-6
-1.180, -9.093e-6
-1.179, -9.093e-6
-1.178, -9.093e-6
-1.177, -6.010e-6
-1.176, -9.093e-6
-1.175, -9.093e-6
-1.174, -6.010e-6
-1.173, -9.093e-6
-1.172, -9.093e-6
-1.171, -9.093e-6
-1.170, -9.093e-6
-1.169, -9.093e-6
-1.168, -9.093e-6
-1.167, -9.093e-6
-1.166, -9.093e-6
-1.165, -9.093e-6
-1.164, -9.093e-6
-1.163, -9.093e-6
-1.162, -9.093e-6
-1.161, -9.093e-6
-1.160, -9.093e-6
-1.159, -9.093e-6
-1.158, -9.093e-6
-1.157, -9.093e-6
-1.156, -9.093e-6
-1.155, -9.093e-6
-1.154, -9.093e-6
-1.153, -9.093e-6
-1.152, -9.093e-6
-1.151, -9.093e-6
-1.150, -9.093e-6
-1.149, -9.093e-6
-1.148, -9.093e-6
-1.147, -9.093e-6
-1.146, -9.093e-6
-1.145, -9.093e-6
-1.144, -9.093e-6
-1.143, -9.093e-6
-1.142, -9.093e-6
-1.141, -9.093e-6
-1.140, -9.093e-6
-1.139, -9.093e-6
-1.138, -9.093e-6
-1.137, -9.093e-6
-1.136, -9.093e-6
-1.135, -9.093e-6
-1.134, -9.093e-6
-1.133, -9.093e-6
-1.132, -9.093e-6
-1.131, -9.093e-6
-1.130, -9.093e-6
-1.129, -9.093e-6
-1.128, -9.093e-6
-1.127, -9.093e-6
-1.126, -9.093e-6
-1.125, -9.093e-6
-1.124, -9.093e-6
-1.123, -9.093e-6
-1.122, -9.093e-6
-1.121, -9.093e-6
-1.120, -9.093e-6
-1.119, -9.093e-6
-1.118, -9.093e-6
-1.117, -9.093e-6
-1.116, -9.093e-6
-1.115, -9.093e-6
-1.114, -9.093e-6
-1.113, -9.093e-6
-1.112, -9.093e-6
-1.111, -9.093e-6
-1.110, -9.093e-6
-1.109, -9.093e-6
-1.108, -9.093e-6
-1.107, -9.093e-6
-1.106, -9.093e-6
-1.105, -9.093e-6
-1.104, -9.093e-6
-1.103, -9.093e-6
-1.102, -9.093e-6
-1.101, -9.093e-6
-1.100, -9.093e-6
-1.099, -9.093e-6
-1.098, -9.093e-6
-1.097, -9.093e-6
-1.096, -9.093e-6
-1.095, -9.093e-6
-1.094, -1.218e-5
-1.093, -9.093e-6
-1.092, -9.093e-6
-1.091, -9.093e-6
-1.090, -9.093e-6
-1.089, -1.218e-5
-1.088, -1.218e-5
-1.087, -1.218e-5
-1.086, -9.093e-6
-1.085, -9.093e-6
-1.084, -1.218e-5
-1.083, -9.093e-6
-1.082, -1.218e-5
-1.081, -1.218e-5
-1.080, -1.218e-5
-1.079, -1.218e-5
-1.078, -9.093e-6
-1.077, -1.218e-5
-1.076, -1.218e-5
-1.075, -1.218e-5
-1.074, -1.218e-5
-1.073, -1.218e-5
-1.072, -1.218e-5
-1.071, -1.218e-5
-1.070, -1.218e-5
-1.069, -1.218e-5
-1.068, -1.218e-5
-1.067, -1.218e-5
-1.066, -1.218e-5
-1.065, -1.218e-5
-1.064, -1.218e-5
-1.063, -1.218e-5
-1.062, -1.218e-5
-1.061, -1.218e-5
-1.060, -1.218e-5
-1.059, -1.218e-5
-1.058, -1.218e-5
-1.057, -1.218e-5
-1.056, -1.218e-5
-1.055, -1.218e-5
-1.054, -1.218e-5
-1.053, -1.218e-5
-1.052, -1.218e-5
-1.051, -1.218e-5
-1.050, -1.218e-5
-1.049, -1.218e-5
-1.048, -1.218e-5
-1.047, -1.218e-5
-1.046, -1.218e-5
-1.045, -1.218e-5
-1.044, -1.218e-5
-1.043, -1.218e-5
-1.042, -1.218e-5
-1.041, -1.218e-5
-1.040, -1.218e-5
-1.039, -1.218e-5
-1.038, -1.218e-5
-1.037, -1.218e-5
-1.036, -1.218e-5
-1.035, -1.218e-5
-1.034, -1.218e-5
-1.033, -1.218e-5
-1.032, -1.218e-5
-1.031, -1.218e-5
-1.030, -1.218e-5
-1.029, -1.218e-5
-1.028, -1.218e-5
-1.027, -1.218e-5
-1.026, -1.218e-5
-1.025, -1.218e-5
-1.024, -1.218e-5
-1.023, -1.526e-5
-1.022, -1.218e-5
-1.021, -1.218e-5
-1.020, -1.218e-5
-1.019, -1.218e-5
-1.018, -1.218e-5
-1.017, -1.218e-5
-1.016, -1.218e-5
-1.015, -1.218e-5
-1.014, -1.526e-5
-1.013, -1.526e-5
-1.012, -1.218e-5
-1.011, -1.218e-5
-1.010, -1.526e-5
-1.009, -1.526e-5
-1.008, -1.526e-5
-1.007, -1.218e-5
-1.006, -1.526e-5
-1.005, -1.526e-5
-1.004, -1.526e-5
-1.003, -1.526e-5
-1.002, -1.526e-5
-1.001, -1.526e-5
