Potential V vs RHE, Current mA cm-2
0.05339999999999995,-0.029836261314153626
0.05239999999999995,-0.03123682550102001
0.051399999999999946,-0.03184515135996198
0.050399999999999945,-0.03226956474992148
0.049399999999999944,-0.032693978139880994
0.04839999999999994,-0.033104244416841865
0.04739999999999994,-0.03351451069380272
0.04639999999999994,-0.033910629857764926
0.04539999999999994,-0.03429260190872849
0.04439999999999994,-0.03467457395969205
0.04339999999999994,-0.035028251784658314
0.04239999999999994,-0.03543851806161917
0.04139999999999994,-0.035820490112582724
0.040399999999999936,-0.036202462163546285
0.039399999999999935,-0.03661272844050715
0.038399999999999934,-0.03700884760446936
0.03739999999999993,-0.037404966768431566
0.03639999999999993,-0.037801085932393785
0.03539999999999993,-0.03816891087035869
0.03439999999999993,-0.0385650300343209
0.03339999999999993,-0.03893285497228581
0.03239999999999993,-0.039343121249246674
0.03139999999999993,-0.03976753463920618
0.030399999999999927,-0.04014950669016974
0.029399999999999926,-0.04051733162813465
0.028399999999999925,-0.04091345079209686
0.027399999999999924,-0.04133786418205637
0.026399999999999924,-0.041748130459017235
0.025399999999999923,-0.042130102509980796
0.024399999999999922,-0.042526221673943
0.02339999999999992,-0.042936487950903865
0.02239999999999992,-0.04336090134086337
0.02139999999999992,-0.04378531473082289
0.020399999999999918,-0.04418143389478509
0.019399999999999917,-0.044591700171745956
0.018399999999999916,-0.04501611356170547
0.017399999999999916,-0.04545467406466363
0.016399999999999915,-0.04586494034162449
0.015399999999999914,-0.046275206618585356
0.014399999999999913,-0.046699620008544857
0.013399999999999912,-0.04712403339850437
0.012399999999999911,-0.04757674101446118
0.01139999999999991,-0.04801530151741934
0.01039999999999991,-0.0484538620203775
0.009399999999999908,-0.04887827541033701
0.008399999999999908,-0.04931683591329518
0.007399999999999907,-0.04978369064225065
0.006399999999999906,-0.0501939569192115
0.005399999999999905,-0.05061837030917101
0.004399999999999904,-0.05105693081212918
0.003399999999999903,-0.05150963842808598
0.002399999999999902,-0.05197649315704145
0.0013999999999999013,-0.0524433478859969
0.00039999999999990044,-0.05288190838895507
-0.0006000000000001005,-0.053334616004911885
-0.0016000000000001013,-0.053787323620868695
-0.0026000000000001022,-0.05428247257582146
-0.003600000000000103,-0.05473518019177826
-0.004600000000000104,-0.05517374069473643
-0.005600000000000105,-0.055640595423691895
-0.006600000000000106,-0.05610745015264735
-0.007600000000000107,-0.056560157768604166
-0.008600000000000108,-0.05705530672355694
-0.009600000000000108,-0.057493867226515095
-0.01060000000000011,-0.057946574842471905
-0.01160000000000011,-0.05842757668442602
-0.012600000000000111,-0.058922725639378774
-0.013600000000000112,-0.05938958036833424
-0.014600000000000113,-0.0598281408712924
-0.015600000000000114,-0.06028084848724922
-0.016600000000000115,-0.06076185032920333
-0.017600000000000116,-0.06125699928415609
-0.018600000000000116,-0.0617380011261102
-0.019600000000000117,-0.06220485585506567
-0.020600000000000118,-0.06270000481001843
-0.02160000000000012,-0.06318100665197254
-0.02260000000000012,-0.06369030271992396
-0.02360000000000012,-0.06419959878787536
-0.024600000000000122,-0.06468060062982947
-0.025600000000000123,-0.06514745535878494
-0.026600000000000124,-0.06562845720073905
-0.027600000000000124,-0.06615190038168911
-0.028600000000000125,-0.06663290222364322
-0.029600000000000126,-0.06711390406559734
-0.030600000000000127,-0.0676090530205501
-0.03160000000000013,-0.06810420197550286
-0.03260000000000013,-0.06861349804345429
-0.03360000000000013,-0.06909449988540839
-0.03460000000000002,-0.0695755017273625
-0.03560000000000002,-0.07005650356931663
-0.03660000000000002,-0.07056579963726803
-0.03760000000000002,-0.0710892428182181
-0.03860000000000002,-0.0715985388861695
-0.039600000000000024,-0.07206539361512497
-0.040600000000000025,-0.07256054257007773
-0.041600000000000026,-0.07304154441203185
-0.04260000000000003,-0.07355084047998325
-0.04360000000000003,-0.07406013654793467
-0.04460000000000003,-0.07454113838988878
-0.04560000000000003,-0.0750221402318429
-0.04660000000000003,-0.075503142073797
-0.04760000000000003,-0.07599829102874978
-0.04860000000000003,-0.07649343998370253
-0.04960000000000003,-0.07694614759965934
-0.050600000000000034,-0.07745544366761076
-0.051600000000000035,-0.07793644550956487
-0.052600000000000036,-0.07843159446451763
-0.053600000000000037,-0.0789267434194704
-0.05460000000000004,-0.07940774526142451
-0.05560000000000004,-0.07986045287738132
-0.05660000000000004,-0.08032730760633679
-0.05760000000000004,-0.08080830944829089
-0.05860000000000004,-0.08130345840324366
-0.05960000000000004,-0.08177031313219911
-0.06060000000000004,-0.08222302074815592
-0.061600000000000044,-0.08268987547711139
-0.06260000000000004,-0.0831425830930682
-0.06360000000000005,-0.08360943782202368
-0.06460000000000005,-0.08401970409898453
-0.06560000000000005,-0.08444411748894404
-0.06660000000000005,-0.08489682510490085
-0.06760000000000005,-0.08536367983385632
-0.06860000000000005,-0.08578809322381582
-0.06960000000000005,-0.08621250661377533
-0.07060000000000005,-0.08666521422973215
-0.07160000000000005,-0.08704718628069572
-0.07260000000000005,-0.08748574678365387
-0.07360000000000005,-0.08786771883461743
-0.07460000000000006,-0.08827798511157829
-0.07560000000000006,-0.0886741042755405
-0.07660000000000006,-0.08908437055250136
-0.07760000000000006,-0.08949463682946222
-0.07860000000000006,-0.08989075599342443
-0.07960000000000006,-0.09028687515738665
-0.08060000000000006,-0.09066884720835021
-0.08160000000000006,-0.09102252503331647
-0.08260000000000006,-0.09141864419727867
-0.08360000000000006,-0.09181476336124088
-0.08460000000000006,-0.09214014696020983
-0.08560000000000006,-0.0924938247851761
-0.08660000000000007,-0.09284750261014235
-0.08760000000000007,-0.09320118043510862
-0.08860000000000007,-0.09356900537307353
-0.08960000000000007,-0.09389438897204248
-0.09060000000000007,-0.09421977257101144
-0.09160000000000007,-0.0945451561699804
-0.09260000000000007,-0.09484224554295206
-0.09360000000000007,-0.09518177625491966
-0.09460000000000007,-0.09546471851489266
-0.09560000000000007,-0.09576180788786433
-0.09660000000000007,-0.09604475014783734
-0.09760000000000008,-0.09632769240781036
-0.09860000000000008,-0.09663892889378066
-0.09960000000000008,-0.09689357692775637
-0.10060000000000008,-0.09713407784873342
-0.10160000000000008,-0.09738872588270912
-0.10260000000000008,-0.09764337391668483
-0.10360000000000008,-0.0978838748376619
-0.10460000000000008,-0.09812437575863896
-0.10560000000000008,-0.0983365824536187
-0.10660000000000008,-0.09856293626159711
-0.10760000000000008,-0.09878929006957551
-0.10860000000000009,-0.09900149676455527
-0.10960000000000009,-0.09919955634653636
-0.11060000000000009,-0.09936932170252018
-0.11160000000000009,-0.09955323417150262
-0.11260000000000009,-0.09975129375348374
-0.11360000000000009,-0.0999069119964689
-0.11460000000000009,-0.10010497157845
-0.11560000000000009,-0.1002747369344338
-0.11660000000000009,-0.10040206095142165
-0.1176000000000001,-0.10055767919440682
-0.1186000000000001,-0.10069915032439332
-0.1196000000000001,-0.10082647434138116
-0.1206000000000001,-0.10093965124537037
-0.1216000000000001,-0.10103868103636092
-0.1226000000000001,-0.10118015216634743
-0.1236000000000001,-0.10127918195733798
-0.1246000000000001,-0.10134991752233123
-0.1256000000000001,-0.10144894731332177
-0.1266000000000001,-0.10151968287831505
-0.1276000000000001,-0.10160456555630692
-0.1286000000000001,-0.10167530112130019
-0.1296000000000001,-0.10173188957329479
-0.1306000000000001,-0.1017884780252894
-0.1316000000000001,-0.10183091936428534
-0.1326000000000001,-0.10187336070328129
-0.1336000000000001,-0.1019299491552759
-0.1346000000000001,-0.10194409626827454
-0.1356000000000001,-0.10197239049427186
-0.1366000000000001,-0.10197239049427186
-0.1376000000000001,-0.10200068472026914
-0.1386000000000001,-0.10200068472026914
-0.1396000000000001,-0.1020148318332678
-0.1406000000000001,-0.1020148318332678
-0.14160000000000011,-0.10200068472026914
-0.14260000000000012,-0.10198653760727049
-0.14360000000000012,-0.10198653760727049
-0.14460000000000012,-0.10194409626827454
-0.14560000000000012,-0.1019016549292786
-0.14660000000000012,-0.10185921359028265
-0.14760000000000012,-0.10184506647728399
-0.14860000000000012,-0.1017884780252894
-0.14960000000000012,-0.10174603668629344
-0.15060000000000012,-0.10168944823429883
-0.15160000000000012,-0.10160456555630692
-0.15260000000000012,-0.10156212421731098
-0.15360000000000013,-0.10150553576531639
-0.15460000000000013,-0.10142065308732448
-0.15560000000000013,-0.10134991752233123
-0.15660000000000013,-0.10123674061834202
-0.15760000000000013,-0.10119429927934608
-0.15860000000000013,-0.10109526948835552
-0.15960000000000002,-0.10099623969736496
-0.16060000000000002,-0.10091135701937308
-0.16160000000000002,-0.10079818011538387
-0.16260000000000002,-0.10071329743739196
-0.16360000000000002,-0.1006142676464014
-0.16460000000000002,-0.1005010907424122
-0.16560000000000002,-0.10045864940341626
-0.16660000000000003,-0.10034547249942705
-0.16760000000000003,-0.10018985425644189
-0.16860000000000003,-0.10010497157845
-0.16960000000000003,-0.09996350044846349
-0.17060000000000003,-0.09983617643147565
-0.17160000000000003,-0.09970885241448779
-0.17260000000000003,-0.09959567551049858
-0.17360000000000003,-0.09946835149351073
-0.17460000000000003,-0.09932688036352423
-0.17560000000000003,-0.09919955634653636
-0.17660000000000003,-0.09904393810355122
-0.17760000000000004,-0.09890246697356471
-0.17860000000000004,-0.0988175842955728
-0.17960000000000004,-0.0986761131655863
-0.18060000000000004,-0.09852049492260115
-0.18160000000000004,-0.098364876679616
-0.18260000000000004,-0.09823755266262815
-0.18360000000000004,-0.09809608153264164
-0.18460000000000004,-0.09795461040265514
-0.18560000000000004,-0.09779899215966999
-0.18660000000000004,-0.09764337391668483
-0.18760000000000004,-0.09751604989969698
-0.18860000000000005,-0.09737457876971047
-0.18960000000000005,-0.09723310763972397
-0.19060000000000005,-0.09709163650973747
-0.19160000000000005,-0.09692187115375367
-0.19260000000000005,-0.09680869424976446
-0.19360000000000005,-0.0966530760067793
-0.19460000000000005,-0.09649745776379416
-0.19560000000000005,-0.09635598663380765
-0.19660000000000005,-0.09617207416482519
-0.19760000000000005,-0.09603060303483868
-0.19860000000000005,-0.09590327901785084
-0.19960000000000006,-0.09573351366186703
-0.20060000000000006,-0.09557789541888188
-0.20160000000000006,-0.09540813006289808
-0.20260000000000006,-0.09526665893291157
-0.20360000000000006,-0.09515348202892236
-0.20460000000000006,-0.09498371667293856
-0.20560000000000006,-0.09484224554295206
-0.20660000000000006,-0.09467248018696825
-0.20760000000000006,-0.09453100905698175
-0.20860000000000006,-0.09441783215299256
-0.20960000000000006,-0.09424806679700874
-0.21060000000000006,-0.09410659566702224
-0.21160000000000007,-0.09395097742403709
-0.21260000000000007,-0.09379535918105193
-0.21360000000000007,-0.09366803516406408
-0.21460000000000007,-0.09352656403407757
-0.21560000000000007,-0.09337094579109242
-0.21660000000000007,-0.09321532754810727
-0.21760000000000007,-0.09310215064411806
-0.21860000000000007,-0.09296067951413156
-0.21960000000000007,-0.09283335549714371
-0.22060000000000007,-0.09266359014115991
-0.22160000000000007,-0.09250797189817477
-0.22260000000000008,-0.09239479499418554
-0.22360000000000008,-0.0922674709771977
-0.22460000000000008,-0.09211185273421253
-0.22560000000000008,-0.09197038160422603
-0.22660000000000008,-0.09184305758723818
-0.22760000000000008,-0.09171573357025031
-0.22860000000000008,-0.09158840955326249
-0.22960000000000008,-0.09146108553627462
-0.23060000000000008,-0.09133376151928675
-0.23160000000000008,-0.09117814327630162
-0.23260000000000008,-0.09106496637231241
-0.23360000000000009,-0.09093764235532456
-0.2346000000000001,-0.09079617122533806
-0.2356000000000001,-0.09068299432134884
-0.2366000000000001,-0.09054152319136234
-0.2376000000000001,-0.09042834628737315
-0.2386000000000001,-0.0903293164963826
-0.2396000000000001,-0.09017369825339744
-0.2406000000000001,-0.09006052134940823
-0.2416000000000001,-0.08991905021942173
-0.2426000000000001,-0.08983416754142984
-0.2436000000000001,-0.08973513775043927
-0.2446000000000001,-0.08959366662045277
-0.2456000000000001,-0.08946634260346491
-0.2466000000000001,-0.08933901858647707
-0.2476000000000001,-0.08922584168248787
-0.2486000000000001,-0.0891268118914973
-0.2496000000000001,-0.08902778210050676
-0.2506000000000001,-0.08891460519651756
-0.2516000000000001,-0.08878728117952969
-0.2526000000000001,-0.08868825138853914
-0.2536000000000001,-0.0885892215975486
-0.2546000000000001,-0.08849019180655805
-0.2556000000000001,-0.08836286778957018
-0.2566000000000001,-0.08827798511157829
-0.2576000000000001,-0.08817895532058774
-0.2586000000000001,-0.08809407264259583
-0.2596000000000001,-0.08799504285160528
-0.2606000000000001,-0.08791016017361337
-0.2616000000000001,-0.08779698326962418
-0.2626000000000001,-0.08771210059163227
-0.2636000000000001,-0.08764136502663902
-0.2646000000000001,-0.08754233523564847
-0.2656000000000001,-0.0874433054446579
-0.2666000000000001,-0.08734427565366736
-0.2676000000000001,-0.08728768720167276
-0.2686000000000001,-0.08721695163667952
-0.2696000000000001,-0.08713206895868761
-0.2706000000000001,-0.08703303916769706
-0.2716000000000001,-0.0869340093767065
-0.2726000000000001,-0.0868774209247119
-0.2736000000000001,-0.08680668535971865
-0.2746000000000001,-0.0867076555687281
-0.2756000000000001,-0.0866510671167335
-0.2766000000000001,-0.08652374309974564
-0.2776000000000001,-0.08646715464775104
-0.2786000000000001,-0.08642471330875509
-0.2796000000000001,-0.08629738929176724
-0.2806000000000001,-0.08625494795277128
-0.28160000000000013,-0.08614177104878207
-0.28260000000000013,-0.08607103548378882
-0.28360000000000013,-0.08602859414479287
-0.2846,-0.08592956435380232
-0.2856,-0.08585882878880907
-0.2866,-0.08578809322381582
-0.2876,-0.08571735765882257
-0.2886,-0.08567491631982663
-0.2896,-0.08559003364183472
-0.2906,-0.08551929807684147
-0.2916,-0.08543441539884956
-0.2926,-0.08537782694685496
-0.2936,-0.08533538560785901
-0.29460000000000003,-0.08526465004286575
-0.29560000000000003,-0.08520806159087116
-0.29660000000000003,-0.08513732602587791
-0.29760000000000003,-0.08509488468688196
-0.29860000000000003,-0.08503829623488735
-0.29960000000000003,-0.08498170778289275
-0.30060000000000003,-0.0849109722178995
-0.30160000000000003,-0.08484023665290626
-0.30260000000000004,-0.08478364820091165
-0.30360000000000004,-0.08475535397491435
-0.30460000000000004,-0.0846846184099211
-0.30560000000000004,-0.08462802995792648
-0.30660000000000004,-0.08455729439293323
-0.30760000000000004,-0.08452900016693596
-0.30860000000000004,-0.08448655882793998
-0.30960000000000004,-0.08442997037594539
-0.31060000000000004,-0.08435923481095214
-0.31160000000000004,-0.08430264635895754
-0.31260000000000004,-0.08427435213296022
-0.31360000000000005,-0.08423191079396428
-0.31460000000000005,-0.08418946945496834
-0.31560000000000005,-0.08414702811597238
-0.31660000000000005,-0.08407629255097913
-0.31760000000000005,-0.08404799832498183
-0.31860000000000005,-0.08401970409898453
-0.31960000000000005,-0.08399140987298723
-0.32060000000000005,-0.08394896853399128
-0.32160000000000005,-0.08387823296899803
-0.32260000000000005,-0.08384993874300072
-0.32360000000000005,-0.08383579163000207
-0.32460000000000006,-0.08377920317800747
-0.32560000000000006,-0.08375090895201018
-0.32660000000000006,-0.08370846761301422
-0.32760000000000006,-0.08365187916101963
-0.32860000000000006,-0.08365187916101963
-0.32960000000000006,-0.08360943782202368
-0.33060000000000006,-0.08358114359602638
-0.33160000000000006,-0.08352455514403176
-0.33260000000000006,-0.08351040803103311
-0.33360000000000006,-0.08349626091803447
-0.33460000000000006,-0.08343967246603987
-0.33560000000000006,-0.08341137824004256
-0.33660000000000007,-0.08336893690104662
-0.33760000000000007,-0.08335478978804794
-0.33860000000000007,-0.08332649556205066
-0.33960000000000007,-0.08329820133605337
-0.34060000000000007,-0.08325575999705741
-0.34160000000000007,-0.08321331865806145
-0.34260000000000007,-0.08318502443206416
-0.34360000000000007,-0.08319917154506282
-0.3446000000000001,-0.08315673020606687
-0.3456000000000001,-0.08312843598006955
-0.3466000000000001,-0.08308599464107361
-0.34759999999999996,-0.08307184752807495
-0.3486000000000001,-0.08304355330207766
-0.34959999999999997,-0.08301525907608036
-0.3506000000000001,-0.08298696485008306
-0.35159999999999997,-0.0829445235110871
-0.3526000000000001,-0.08293037639808845
-0.35359999999999997,-0.08291622928508981
-0.3546000000000001,-0.0828879350590925
-0.35559999999999997,-0.08285964083309519
-0.3566000000000001,-0.0828030523811006
-0.3576,-0.08281719949409926
-0.3586000000000001,-0.0828030523811006
-0.3596,-0.08276061104210465
-0.3606000000000001,-0.08274646392910599
-0.3616,-0.08270402259011005
-0.3626000000000001,-0.08267572836411274
-0.3636,-0.08268987547711139
-0.3646000000000001,-0.08264743413811544
-0.3656,-0.0826049927991195
-0.3666000000000001,-0.08257669857312219
-0.3676,-0.08256255146012353
-0.3686000000000001,-0.08256255146012353
-0.3696,-0.08252011012112759
-0.3706000000000001,-0.08254840434712489
-0.3716,-0.08249181589513029
-0.3726000000000001,-0.08244937455613434
-0.3736,-0.08246352166913298
-0.3746000000000001,-0.0824352274431357
-0.3756,-0.08239278610413973
-0.3766000000000001,-0.08237863899114109
-0.3776,-0.08236449187814243
-0.3786000000000001,-0.08235034476514379
-0.3796,-0.08230790342614784
-0.3806000000000001,-0.08229375631314918
-0.3816,-0.08227960920015054
-0.3826000000000001,-0.08225131497415322
-0.3836,-0.08223716786115459
-0.3846000000000001,-0.08222302074815592
-0.3856,-0.08220887363515728
-0.3866000000000001,-0.08216643229616134
-0.3876,-0.08216643229616134
-0.3886000000000001,-0.08213813807016403
-0.3896,-0.08210984384416672
-0.3906000000000001,-0.08209569673116808
-0.3916,-0.08205325539217213
-0.3926000000000001,-0.08205325539217213
-0.3936,-0.08203910827917348
-0.3946000000000001,-0.08202496116617483
-0.3956,-0.08199666694017753
-0.3966000000000001,-0.08198251982717887
-0.3976,-0.08195422560118158
-0.3986000000000001,-0.08196837271418023
-0.3996,-0.08194007848818292
-0.4006000000000001,-0.08192593137518428
-0.4016,-0.08188349003618833
-0.4026000000000001,-0.08189763714918698
-0.4036,-0.08188349003618833
-0.4046000000000001,-0.08185519581019103
-0.4056,-0.08182690158419371
-0.40660000000000013,-0.08181275447119508
-0.4076,-0.08179860735819641
-0.40860000000000013,-0.08182690158419371
-0.4096,-0.08178446024519778
-0.41060000000000013,-0.08175616601920047
-0.4116,-0.08175616601920047
-0.41260000000000013,-0.08171372468020452
-0.4136,-0.08172787179320316
-0.41460000000000014,-0.08171372468020452
-0.4156,-0.08167128334120857
-0.41660000000000014,-0.08168543045420722
-0.4176,-0.08165713622820991
-0.41860000000000014,-0.08167128334120857
-0.41960000000000003,-0.08167128334120857
-0.42060000000000014,-0.08162884200221261
-0.42160000000000003,-0.08164298911521127
-0.42260000000000014,-0.08162884200221261
-0.42360000000000003,-0.08162884200221261
-0.42460000000000014,-0.08161469488921397
-0.42560000000000003,-0.08161469488921397
-0.42660000000000015,-0.08157225355021802
-0.42760000000000004,-0.08160054777621531
-0.42860000000000015,-0.08160054777621531
-0.42960000000000004,-0.08157225355021802
-0.43060000000000015,-0.08155810643721936
-0.43160000000000004,-0.08154395932422072
-0.43260000000000015,-0.08154395932422072
-0.43360000000000004,-0.08155810643721936
-0.43460000000000015,-0.08154395932422072
-0.43560000000000004,-0.08154395932422072
