Potential V vs RHE, Current mA cm-2
0.013299999999999867,4.184716025000778
0.012299999999999978,3.4872633541673155
0.011299999999999866,2.919964122921436
0.010299999999999976,2.396520941971372
0.009299999999999864,1.9169338113171246
0.008299999999999974,1.5250587812545096
0.007299999999999862,1.0881959318561862
0.006299999999999972,0.6520404381077953
0.00529999999999986,0.2594580523952477
0.0042999999999999705,-0.1330535977523067
0.0032999999999998586,-0.5255652478998613
0.0022999999999999687,-0.8745745255765657
0.0012999999999998568,-1.2234423321232837
0.00029999999999996696,-1.5293029151541047
-0.000700000000000145,-1.8334658446250875
-0.0017000000000000348,-2.095187435100119
-0.0027000000000001467,-2.3569090255751513
-0.0037000000000000366,-2.618630616050183
-0.0047000000000001485,-2.8803522065252145
-0.005700000000000038,-3.1420737970002466
-0.00670000000000015,-3.447651437771094
-0.00770000000000004,-3.7093730282461257
-0.008700000000000152,-3.971094618721158
-0.009700000000000042,-4.23281620919619
-0.010700000000000154,-4.450681749375406
-0.011700000000000044,-4.668547289554621
-0.012700000000000156,-4.887827541033701
-0.013700000000000045,-5.0618370309171015
-0.014700000000000157,-5.235846520800501
-0.015700000000000047,-5.411270721983764
-0.01670000000000016,-5.629136262162981
-0.01770000000000005,-5.847001802342197
-0.01870000000000016,-6.021011292225596
-0.01970000000000005,-6.238876832404812
-0.020700000000000163,-6.458157083883892
-0.021700000000000053,-6.632166573767292
-0.022700000000000164,-6.806176063650692
-0.023700000000000054,-6.93774421453814
-0.024700000000000166,-7.067897654125724
-0.025700000000000056,-7.243321855308987
-0.026700000000000168,-7.37347529489657
-0.027700000000000058,-7.5474847847799715
-0.02870000000000017,-7.722908985963235
-0.02970000000000006,-7.896918475846635
-0.03070000000000017,-8.070927965730034
-0.03170000000000006,-8.288793505909249
-0.03270000000000017,-8.464217707092514
-0.03370000000000006,-8.638227196975913
-0.034700000000000175,-8.812236686859313
-0.035700000000000065,-8.987660888042578
-0.03670000000000018,-9.11781432763016
-0.03770000000000007,-9.24938247851761
-0.03870000000000018,-9.379535918105192
-0.03970000000000007,-9.511104068992642
-0.04070000000000018,-9.641257508580225
-0.04170000000000007,-9.772825659467674
-0.04270000000000018,-9.946835149351072
-0.04370000000000007,-10.078403300238522
-0.044700000000000184,-10.208556739826104
-0.045700000000000074,-10.340124890713554
-0.046700000000000186,-10.42642228000532
-0.047700000000000076,-10.557990430892769
-0.04870000000000019,-10.644287820184536
-0.04970000000000008,-10.731999920776168
-0.05070000000000019,-10.819712021367803
-0.05170000000000008,-10.906009410659568
-0.05270000000000019,-11.037577561547016
-0.05370000000000008,-11.1677310011346
-0.05470000000000019,-11.299299152022046
-0.05570000000000008,-11.42945259160963
-0.056700000000000195,-11.56102074249708
-0.057700000000000085,-11.647318131788847
-0.058700000000000196,-11.73503023238048
-0.059700000000000086,-11.86659838326793
-0.0607000000000002,-11.952895772559694
-0.06170000000000009,-12.040607873151327
-0.0627000000000002,-12.170761312738911
-0.06370000000000009,-12.258473413330542
-0.0647000000000002,-12.432482903213943
-0.06570000000000009,-12.56405105410139
-0.0667000000000002,-12.694204493688973
-0.0677000000000001,-12.869628694872238
-0.0687000000000002,-13.043638184755638
-0.0697000000000001,-13.175206335643086
-0.07070000000000021,-13.349215825526485
-0.0717000000000001,-13.436927926118118
-0.07270000000000021,-13.567081365705702
-0.0737000000000001,-13.698649516593148
-0.07470000000000021,-13.828802956180734
-0.0757000000000001,-13.960371107068182
-0.07670000000000021,-14.13438059695158
-0.0777000000000001,-14.30273124163552
-0.07870000000000021,-14.486643710617974
-0.0797000000000001,-14.61396772760583
-0.08070000000000022,-14.741291744593681
-0.0817000000000001,-14.868615761581536
-0.08270000000000022,-14.967645552572087
-0.08370000000000011,-15.05252823056399
-0.08470000000000022,-15.094969569559943
-0.08570000000000011,-15.222293586547794
-0.08670000000000022,-15.264734925543747
-0.08770000000000011,-15.3920589425316
-0.08870000000000022,-15.533530072518102
-0.08970000000000011,-15.70329542850191
-0.09070000000000022,-15.830619445489761
-0.09170000000000011,-15.972090575476265
-0.09270000000000023,-16.099414592464115
-0.09370000000000012,-16.184297270456018
-0.09470000000000023,-16.269179948447924
-0.09570000000000012,-16.354062626439823
-0.09670000000000023,-16.438945304431726
-0.09770000000000012,-16.53797509542228
-0.09870000000000023,-16.622857773414182
-0.09970000000000012,-16.792623129397985
-0.10070000000000023,-16.919947146385837
-0.10170000000000012,-17.061418276372343
-0.10270000000000024,-17.146300954364243
-0.10370000000000013,-17.2736249713521
-0.10470000000000024,-17.40094898833995
-0.10570000000000013,-17.48583166633185
-0.10670000000000024,-17.584861457322408
-0.10770000000000013,-17.71218547431026
-0.10870000000000024,-17.839509491298113
-0.10970000000000013,-18.009274847281915
-0.11070000000000024,-18.19318731626437
-0.11170000000000013,-18.40539401124413
-0.11270000000000002,-18.674189158218486
-0.11370000000000013,-18.843954514202288
-0.11470000000000002,-19.056161209182044
-0.11570000000000014,-19.2400736781645
-0.11670000000000003,-19.367397695152352
-0.11770000000000014,-19.49472171214021
-0.11870000000000003,-19.636192842126707
-0.11970000000000014,-19.721075520118614
-0.12070000000000003,-19.805958198110513
-0.12170000000000014,-19.93328221509837
-0.12270000000000003,-20.01816489309027
-0.12370000000000014,-20.202077362072725
-0.12470000000000003,-20.371842718056527
-0.12570000000000014,-20.541608074040333
-0.12670000000000003,-20.72552054302279
-0.12770000000000015,-20.85284456001064
-0.12870000000000004,-21.022609915994444
-0.12970000000000015,-21.149933932982297
-0.13070000000000004,-21.333846401964752
-0.13170000000000015,-21.461170418952605
-0.13270000000000004,-21.58849443594046
-0.13370000000000015,-21.772406904922917
-0.13470000000000004,-21.94217226090672
-0.13570000000000015,-22.111937616890522
-0.13670000000000004,-22.295850085872978
-0.13770000000000016,-22.46561544185678
-0.13870000000000005,-22.592939458844636
-0.13970000000000016,-22.72026347583249
-0.14070000000000005,-22.861734605818995
-0.14170000000000016,-22.946617283810895
-0.14270000000000005,-23.1163826397947
-0.14370000000000016,-23.24370665678255
-0.14470000000000005,-23.47006046476096
-0.14570000000000016,-23.682267159740714
-0.14670000000000005,-23.951062306715073
-0.14770000000000016,-24.20571034069078
-0.14870000000000005,-24.474505487665134
-0.14970000000000017,-24.686712182644893
-0.15070000000000006,-24.9130659906233
-0.15170000000000017,-25.0828313466071
-0.15270000000000006,-25.252596702590903
-0.15370000000000017,-25.39406783257741
-0.15470000000000006,-25.478950510569312
-0.15570000000000017,-25.60627452755716
-0.15670000000000006,-25.73359854454502
-0.15770000000000017,-25.86092256153287
-0.15870000000000006,-26.044835030515326
-0.15970000000000018,-26.257041725495082
-0.16070000000000007,-26.483395533473487
-0.16170000000000018,-26.69560222845324
-0.16270000000000007,-26.86536758443705
-0.16370000000000018,-27.049280053419505
-0.16470000000000007,-27.261486748399253
-0.16570000000000018,-27.38881076538711
-0.16670000000000007,-27.572723234369565
-0.16770000000000018,-27.742488590353368
-0.16870000000000007,-27.912253946337174
-0.16970000000000018,-28.13860775431558
-0.17070000000000007,-28.350814449295335
-0.17170000000000019,-28.53472691827779
-0.17270000000000008,-28.789374952253496
-0.1737000000000002,-29.001581647233255
-0.17470000000000008,-29.18549411621571
-0.1757000000000002,-29.39770081119546
-0.17670000000000008,-29.581613280177915
-0.1777000000000002,-29.751378636161718
-0.17870000000000008,-29.878702653149578
-0.1797000000000002,-30.04846800913338
-0.18070000000000008,-30.232380478115836
-0.1817000000000002,-30.402145834099635
-0.18270000000000008,-30.614352529079397
-0.1837000000000002,-30.8407063370578
-0.1847000000000001,-31.052913032037555
-0.1857000000000002,-31.321708179011907
-0.1867000000000001,-31.533914873991666
-0.1877000000000002,-31.76026868197007
-0.1887000000000001,-31.972475376949827
-0.1897000000000002,-32.184682071929586
-0.1907000000000001,-32.41103587990799
-0.1917000000000001,-32.58080123589179
-0.19269999999999998,-32.764713704874254
-0.1937000000000001,-32.97692039985401
-0.19469999999999998,-33.14668575583781
-0.1957000000000001,-33.330598224820264
-0.19669999999999999,-33.54280491980002
-0.1977000000000001,-33.712570275783825
-0.1987,-33.93892408376223
-0.1997000000000001,-34.15113077874198
-0.2007,-34.377484586720385
-0.2017000000000001,-34.58969128170015
-0.2027,-34.85848642867451
-0.2037000000000001,-35.15557580164616
-0.2047,-35.42437094862052
-0.2057000000000001,-35.721460321592176
-0.2067,-36.07513814655844
-0.2077000000000001,-36.37222751953009
-0.2087,-36.725905344496354
-0.2097000000000001,-37.037141830466666
-0.2107,-37.291789864442364
-0.2117000000000001,-37.60302635041268
-0.2127,-37.85767438438838
-0.2137000000000001,-38.12646953136274
-0.2147,-38.33867622634249
-0.2157000000000001,-38.6499127123128
-0.2167,-38.90456074628851
-0.21770000000000012,-39.130914554266916
-0.2187,-39.34312124924667
-0.21970000000000012,-39.47044526623452
-0.2207,-39.56947505722508
-0.22170000000000012,-39.654357735216976
-0.2227,-39.739240413208876
-0.22370000000000012,-39.86656443019674
-0.2247,-39.99388844718459
-0.22570000000000012,-40.220242255162994
-0.2267,-40.4748902891387
-0.22770000000000012,-40.828568114104954
-0.22870000000000001,-41.182245939071215
-0.22970000000000013,-41.606659329030734
-0.23070000000000002,-42.00277849299294
-0.23170000000000013,-42.31401497896325
-0.23270000000000002,-42.6111043519349
-0.23370000000000013,-42.87989949890926
-0.23470000000000002,-43.09210619388902
-0.23570000000000013,-43.36090134086337
-0.23670000000000002,-43.57310803584313
-0.2376999999999999,-43.70043205283099
-0.23870000000000002,-43.88434452181344
-0.2396999999999999,-44.011668538801295
-0.24070000000000003,-44.223875233781044
-0.24169999999999991,-44.4926703807554
-0.24270000000000003,-44.80390686672572
-0.24369999999999992,-45.10099623969737
-0.24470000000000003,-45.45467406466363
-0.24569999999999992,-45.75176343763528
-0.24670000000000003,-46.147882601597495
-0.24769999999999992,-46.45911908756781
-0.24870000000000003,-46.79864979953541
-0.24969999999999992,-47.15232762450167
-0.25070000000000003,-47.46356411047198
-0.2516999999999999,-47.76065348344364
-0.25270000000000004,-48.071889969413945
-0.2536999999999999,-48.36897934238561
-0.25470000000000004,-48.68021582835591
-0.2556999999999999,-48.93486386233162
-0.25670000000000004,-49.24610034830193
-0.25769999999999993,-49.50074838227763
-0.25870000000000004,-49.81198486824794
-0.25969999999999993,-50.12322135421825
-0.26070000000000004,-50.46275206618586
-0.26169999999999993,-50.81642989115212
-0.26270000000000004,-51.17010771611838
-0.26369999999999993,-51.55207976708194
-0.26470000000000005,-51.948198931044146
-0.26569999999999994,-52.386759434002315
-0.26670000000000005,-52.95264395394832
-0.26769999999999994,-53.39120445690648
-0.26870000000000005,-53.74488228187274
-0.26969999999999994,-54.08441299384035
-0.27070000000000005,-54.35320814081471
-0.27169999999999994,-54.56541483579447
-0.27270000000000005,-54.791768643772876
-0.27369999999999994,-54.876651321764776
-0.27470000000000006,-55.046416677748574
-0.27569999999999995,-55.25862337272834
-0.27670000000000006,-55.527418519702685
-0.27769999999999995,-55.881096344668954
-0.27870000000000006,-56.30550973462846
-0.27969999999999995,-56.61674622059877
-0.28070000000000006,-56.97042404556503
-0.28169999999999995,-57.352396096528594
-0.28270000000000006,-57.87583927747865
-0.28369999999999995,-58.45587091042332
-0.28470000000000006,-59.06419676936528
-0.28569999999999995,-59.6300812893113
-0.28670000000000007,-60.15352447026136
-0.28769999999999996,-60.63452631221547
-0.28870000000000007,-61.01649836317903
-0.28969999999999996,-61.37017618814529
-0.29070000000000007,-61.63897133511965
-0.29169999999999996,-61.851178030099405
-0.29270000000000007,-62.02094338608321
-0.29369999999999996,-62.24729719406162
-0.2947000000000001,-62.501945228037314
-0.29569999999999996,-62.77074037501168
-0.2967000000000001,-63.15271242597524
-0.29769999999999996,-63.6761556069253
-0.2987000000000001,-64.29862857886593
-0.29969999999999997,-64.94939577680383
-0.3007000000000001,-65.68504565273366
-0.30169999999999997,-66.34995996367022
-0.3027000000000001,-66.81681469262568
-0.30369999999999997,-67.25537519558385
-0.3047000000000001,-67.56661168155415
-0.30569999999999997,-67.86370105452582
-0.3067000000000001,-68.04761352350828
-0.3077,-68.25982021848802
-0.3087000000000001,-68.38714423547587
-0.3097,-68.52861536546239
-0.3107000000000001,-68.65593938245023
-0.3117,-68.86814607742998
-0.3127000000000001,-69.13694122440434
-0.3137,-69.39158925838004
-0.3147000000000001,-69.74526708334632
-0.3157,-70.09894490831257
-0.3167000000000001,-70.48091695927613
-0.3177,-70.96191880123024
-0.3187000000000001,-71.58439177317086
-0.3197,-72.15027629311687
-0.3207000000000001,-72.84348483005074
-0.3217,-73.49425202798865
-0.3227000000000001,-74.10257788693062
-0.3237,-74.66846240687663
-0.3247000000000001,-75.19190558782671
-0.3257,-75.63046609078486
-0.3267000000000001,-75.94170257675518
-0.3277,-76.23879194972683
-0.3287000000000001,-76.55002843569714
-0.3297,-76.86126492166746
-0.3307000000000001,-77.28567831162695
-0.3317,-77.80912149257702
-0.3327000000000001,-78.43159446451764
-0.3337,-79.08236166245555
-0.3347000000000001,-79.73312886039348
-0.3357,-80.29901338033947
-0.3367000000000001,-80.86489790028548
-0.3377,-81.3458997422396
-0.3387000000000001,-81.69957756720586
-0.3397,-81.99666694017753
-0.3407000000000001,-82.18057940915998
-0.3417,-82.30790342614785
-0.3427000000000001,-82.35034476514379
-0.3437,-82.39278610413973
-0.3447000000000001,-82.39278610413973
-0.3457,-82.56255146012353
-0.3467000000000001,-82.70402259011003
-0.3477,-82.87378794609386
-0.3487000000000001,-83.18502443206415
-0.3497,-83.48211380503581
-0.3507000000000001,-83.83579163000208
-0.3517,-84.18946945496833
-0.3527000000000001,-84.61388284492786
-0.3537,-85.09488468688197
-0.3547000000000001,-85.66076920682796
-0.3557,-86.32568351776455
-0.35670000000000013,-86.93400937670651
-0.3577,-87.54233523564847
-0.35870000000000013,-88.15066109459043
-0.3597,-88.6741042755405
-0.36070000000000013,-89.23998879548651
-0.3617,-89.76343197643658
-0.3626999999999999,-90.24443381839069
-0.3637,-90.68299432134886
-0.3646999999999999,-91.03667214631511
-0.3657,-91.37620285828272
-0.3666999999999999,-91.77232202224494
-0.3677,-92.16844118620713
-0.3686999999999999,-92.6918843671572
-0.36970000000000003,-93.25776888710321
-0.3706999999999999,-93.82365340704924
-0.37170000000000003,-94.38953792699526
-0.3726999999999999,-94.99786378593721
-0.37370000000000003,-95.60618964487918
-0.3746999999999999,-96.27110395581576
-0.37570000000000003,-96.96431249274961
-0.3766999999999999,-97.69996236867944
-0.37770000000000004,-98.49220069660386
-0.3786999999999999,-99.27029191152963
-0.37970000000000004,-100.02008890045809
-0.3806999999999999,-100.670856098396
-0.38170000000000004,-101.32162329633393
-0.38269999999999993,-101.80262513828804
-0.38370000000000004,-102.28362698024215
-0.38469999999999993,-102.67974614420436
-0.38570000000000004,-102.97683551717601
-0.38669999999999993,-103.24563066415038
-0.38770000000000004,-103.41539602013418
-0.38869999999999993,-103.64174982811258
-0.38970000000000005,-103.85395652309235
-0.39069999999999994,-104.12275167006669
-0.39170000000000005,-104.46228238203432
-0.39269999999999994,-104.90084288499246
-0.39370000000000005,-105.38184472694657
-0.39469999999999994,-105.90528790789664
-0.39570000000000005,-106.4287310888467
-0.39669999999999994,-106.90973293080083
-0.39770000000000005,-107.34829343375898
-0.39869999999999994,-107.78685393671715
-0.39970000000000006,-108.12638464868475
-0.40069999999999995,-108.43762113465506
-0.40170000000000006,-108.69226916863077
-0.40269999999999995,-108.87618163761321
-0.40370000000000006,-109.08838833259297
-0.40469999999999995,-109.25815368857677
-0.40570000000000006,-109.39962481856328
-0.40669999999999995,-109.56939017454708
-0.40770000000000006,-109.73915553053091
-0.40869999999999995,-110.00795067750525
-0.40970000000000006,-110.26259871148096
-0.41069999999999995,-110.6162765364472
-0.41170000000000007,-111.01239570040943
-0.41269999999999996,-111.4509562033676
-0.41370000000000007,-111.91781093232305
-0.41469999999999996,-112.39881277427718
-0.41570000000000007,-112.83737327723534
-0.41669999999999996,-113.27593378019348
-0.41770000000000007,-113.62961160515974
-0.41869999999999996,-113.92670097813141
-0.4197000000000001,-114.23793746410173
-0.42069999999999996,-114.45014415908147
-0.4217000000000001,-114.71893930605583
-0.42269999999999996,-114.93114600103557
-0.4237000000000001,-115.2423824870059
-0.42469999999999997,-115.53947185997755
-0.4257000000000001,-115.8931496849438
-0.42669999999999997,-116.33171018790196
-0.4277000000000001,-116.67124089986959
-0.42869999999999997,-117.02491872483584
-0.4297000000000001,-117.33615521080614
-0.43069999999999997,-117.54836190578591
-0.4317000000000001,-117.71812726176971
-0.4327,-117.81715705276027
-0.4337000000000001,-117.85959839175621
-0.4347,-117.77471571376431
-0.4357000000000001,-117.71812726176971
-0.4367,-117.59080324478184
-0.4377000000000001,-117.59080324478184
-0.4387,-117.59080324478184
-0.4397000000000001,-117.59080324478184
-0.4407,-117.59080324478184
-0.4417000000000001,-117.54836190578591
-0.4427,-117.46347922779398
-0.4437000000000001,-117.33615521080614
-0.4447,-117.15224274182368
-0.4457000000000001,-117.02491872483584
-0.4467,-116.85515336885203
-0.4477000000000001,-116.67124089986959
-0.4487,-116.41659286589388
-0.4497000000000001,-116.20438617091412
-0.4507,-115.97803236293572
-0.4517000000000001,-115.72338432896
-0.4527,-115.4970305209816
-0.4537000000000001,-115.28482382600184
-0.4547,-115.01602867902749
-0.4557000000000001,-114.80382198404773
-0.4567,-114.57746817606933
-0.4577000000000001,-114.45014415908147
-0.4587,-114.3228201420936
-0.4597000000000001,-114.23793746410173
-0.4607,-114.19549612510575
-0.4617000000000001,-114.11061344711386
-0.4627,-114.05402499511925
-0.4637000000000001,-113.92670097813141
-0.4647,-113.84181830013951
-0.4657000000000001,-113.67205294415571
-0.4667,-113.48814047517324
-0.4677000000000001,-113.31837511918944
-0.4687,-113.14860976320564
-0.4697000000000001,-112.96469729422319
-0.4707,-112.83737327723534
-0.4717000000000001,-112.66760792125153
-0.4727,-112.54028390426367
-0.4737000000000001,-112.39881277427718
-0.4747,-112.22904741829338
-0.4757000000000001,-112.10172340130552
-0.4767,-111.91781093232305
-0.4777000000000001,-111.66316289834735
-0.4787,-111.394367751373
-0.4797000000000001,-111.18216105639323
-0.4807,-111.05483703940537
-0.48170000000000013,-110.87092457042293
-0.4827,-110.70115921443913
-0.48370000000000013,-110.53139385845533
-0.4847,-110.3050400504769
-0.48570000000000013,-110.1352746944931
-0.4867,-109.78159686952685
-0.4876999999999999,-109.30059502757274
-0.4887,-109.00350565460108
-0.4896999999999999,-108.87618163761321
-0.4907,-108.96106431560513
-0.4916999999999999,-109.13082967158894
-0.4927,-109.21571234958083
-0.4936999999999999,-109.21571234958083
-0.49470000000000003,-109.00350565460108
-0.4956999999999999,-108.64982782963483
-0.49670000000000003,-108.3102971176672
-0.4976999999999999,-107.914177953705
-0.49870000000000003,-107.51805878974278
-0.4996999999999999,-107.07949828678463
-0.5007,-106.68337912282242
-0.5016999999999999,-106.38628974985076
-0.5027,-106.21652439386696
-0.5036999999999999,-106.21652439386696
-0.5047,-106.38628974985076
-0.5056999999999999,-106.64093778382647
-0.5067,-106.99461560879273
-0.5076999999999999,-107.39073477275493
