Potential V vs RHE, Current mA cm-2
0.013299999999999867,-0.6769393569854201
0.012299999999999978,-1.5151558021554543
0.011299999999999866,-1.8999572757187444
0.010299999999999976,-2.110749259398635
0.009299999999999864,-2.235243853786758
0.008299999999999974,-2.3130529752793345
0.007299999999999862,-2.3951062306715074
0.006299999999999972,-2.4700859295643536
0.00529999999999986,-2.518186113759765
0.0042999999999999705,-2.5691157205549064
0.0032999999999998586,-2.591751101352747
0.0022999999999999687,-2.627118883849373
0.0012999999999998568,-2.669560222845324
0.00029999999999996696,-2.706342716641815
-0.000700000000000145,-2.7332222313392514
-0.0017000000000000348,-2.7501987669376318
-0.0027000000000001467,-2.768590013835877
-0.0037000000000000366,-2.8096166415319628
-0.0047000000000001485,-2.843569712728724
-0.005700000000000038,-2.8619609596269693
-0.00670000000000015,-2.8789374952253497
-0.00770000000000004,-2.8944993195238653
-0.008700000000000152,-2.924208256821031
-0.009700000000000042,-2.956746616717927
-0.010700000000000154,-2.977967286215902
-0.011700000000000044,-2.996358533114148
-0.012700000000000156,-3.0232380478115832
-0.013700000000000045,-3.0487028512091543
-0.014700000000000157,-3.0656793868075347
-0.015700000000000047,-3.079826499806185
-0.01670000000000016,-3.0996324580042955
-0.01770000000000005,-3.122267838802136
-0.01870000000000016,-3.1477326421997063
-0.01970000000000005,-3.1887592698957925
-0.020700000000000163,-3.198662248994848
-0.021700000000000053,-3.211394650693633
-0.022700000000000164,-3.2524212783897193
-0.023700000000000054,-3.27222723658783
-0.024700000000000166,-3.303350885184861
-0.025700000000000056,-3.3245715546828363
-0.026700000000000168,-3.3373039563816214
-0.027700000000000058,-3.3655981823789225
-0.02870000000000017,-3.4066248100750083
-0.02970000000000006,-3.434919036072309
-0.03070000000000017,-3.4617985507697444
-0.03170000000000006,-3.4787750863681253
-0.03270000000000017,-3.508484023665291
-0.03370000000000006,-3.548095940061512
-0.034700000000000175,-3.572146032159218
-0.035700000000000065,-3.5990255468566534
-0.03670000000000018,-3.6287344841538194
-0.03770000000000007,-3.65702871015112
-0.03870000000000018,-3.696640626547341
-0.03970000000000007,-3.727764275144372
-0.04070000000000018,-3.7546437898418072
-0.04170000000000007,-3.791426283638298
-0.04270000000000018,-3.823964643535194
-0.04370000000000007,-3.8649912712312804
-0.044700000000000184,-3.9003590537279056
-0.045700000000000074,-3.934312124924667
-0.046700000000000186,-3.958362217022373
-0.047700000000000076,-3.992315288219133
-0.04870000000000019,-4.034756627215084
-0.04970000000000008,-4.088515656609956
-0.05070000000000019,-4.121054016506851
-0.05170000000000008,-4.159251221603208
-0.05270000000000019,-4.1960337153996985
-0.05370000000000008,-4.21018082839835
-0.05470000000000019,-4.283745815991331
-0.05570000000000008,-4.317698887188092
-0.056700000000000195,-4.337504845386203
-0.057700000000000085,-4.379946184382153
-0.058700000000000196,-4.422387523378105
-0.059700000000000086,-4.467658284973785
-0.0607000000000002,-4.488878954471762
-0.06170000000000009,-4.535564427367307
-0.0627000000000002,-4.590738168062044
-0.06370000000000009,-4.634594218357861
-0.0647000000000002,-4.688353247752731
-0.06570000000000009,-4.7463564110471985
-0.0667000000000002,-4.759088812745984
-0.0677000000000001,-4.785968327443419
-0.0687000000000002,-4.85387446983694
-0.0697000000000001,-4.909048210531677
-0.07070000000000021,-4.968466085126009
-0.0717000000000001,-4.99958973372304
-0.07270000000000021,-5.044860495318721
-0.0737000000000001,-5.104278369913052
-0.07470000000000021,-5.156622688008059
-0.0757000000000001,-5.2075522948032
-0.07670000000000021,-5.248578922499286
-0.0777000000000001,-5.282531993696048
-0.07870000000000021,-5.312240930993213
-0.0797000000000001,-5.377317650787004
-0.08070000000000022,-5.448053215780256
-0.0817000000000001,-5.493323977375938
-0.08270000000000022,-5.5145446468739125
-0.08370000000000011,-5.579621366667705
-0.08470000000000022,-5.643283375161632
-0.08570000000000011,-5.692798270656908
-0.08670000000000022,-5.729580764453398
-0.08770000000000011,-5.776266237348945
-0.08870000000000022,-5.828610555443951
-0.08970000000000011,-5.882369584838822
-0.09070000000000022,-5.926225635134639
-0.09170000000000011,-5.970081685430455
-0.09270000000000023,-6.030914271324651
-0.09370000000000012,-6.1058939702174975
-0.09470000000000023,-6.158238288312504
-0.09570000000000012,-6.17380011261102
-0.09670000000000023,-6.217656162906836
-0.09770000000000012,-6.285562305300359
-0.09870000000000023,-6.3407360459950945
-0.09970000000000012,-6.431277569186457
-0.10070000000000023,-6.480792464681733
-0.10170000000000012,-6.496354288980249
-0.10270000000000024,-6.545869184475525
-0.10370000000000013,-6.618019460768641
-0.10470000000000024,-6.690169737061758
-0.10570000000000013,-6.729781653457979
-0.10670000000000024,-6.7693935698542
-0.10770000000000013,-6.833055578348127
-0.10870000000000024,-6.891058741642594
-0.10970000000000013,-6.95189132753679
-0.11070000000000024,-7.001406223032068
-0.11170000000000013,-7.043847562028017
-0.11270000000000002,-7.082044767124374
-0.11370000000000013,-7.130144951319785
-0.11470000000000002,-7.203709938912767
-0.11570000000000014,-7.258883679607503
-0.11670000000000003,-7.312642709002375
-0.11770000000000014,-7.363572315797517
-0.11870000000000003,-7.425819612991578
-0.11970000000000014,-7.479578642386449
-0.12070000000000003,-7.516361136182939
-0.12170000000000014,-7.577193722077136
-0.12270000000000003,-7.618220349773223
-0.12370000000000014,-7.68471178086688
-0.12470000000000003,-7.746959078060941
-0.12570000000000014,-7.796473973556218
-0.12670000000000003,-7.855891848150549
-0.12770000000000015,-7.9082361662455565
-0.12870000000000004,-7.959165773040696
-0.12970000000000015,-8.001607112036647
-0.13070000000000004,-8.03273076063368
-0.13170000000000015,-8.07800152222936
-0.13270000000000004,-8.13741939682369
-0.13370000000000015,-8.194007848818291
-0.13470000000000004,-8.27181697031087
-0.13570000000000015,-8.321331865806146
-0.13670000000000004,-8.34538195790385
-0.13770000000000016,-8.403385121198317
-0.13870000000000005,-8.469876552291973
-0.13970000000000016,-8.534953272085767
-0.14070000000000005,-8.585882878880907
-0.14170000000000016,-8.63398306307632
-0.14270000000000005,-8.649544887374834
-0.14370000000000016,-8.656618443874159
-0.14470000000000005,-8.765551213963766
-0.14570000000000016,-8.843360335456342
-0.14670000000000005,-8.860336871054725
-0.14770000000000016,-8.92116945694892
-0.14870000000000005,-8.990490310642308
-0.14970000000000017,-9.0555670304361
-0.15070000000000006,-9.109326059830972
-0.15170000000000017,-9.124887884129487
-0.15270000000000006,-9.171573357025034
-0.15370000000000017,-9.253626612417206
-0.15470000000000006,-9.332850445209647
-0.15570000000000017,-9.403586010202897
-0.15670000000000006,-9.440368503999391
-0.15770000000000017,-9.481395131695475
-0.15870000000000006,-9.545057140189403
-0.15970000000000018,-9.618622127782384
-0.16070000000000007,-9.669551734577526
-0.16170000000000018,-9.7190666300728
-0.16270000000000007,-9.781313927266863
-0.16370000000000018,-9.81385228716376
-0.16470000000000007,-9.877514295657685
-0.16570000000000018,-9.975129375348374
-0.16670000000000007,-10.034547249942705
-0.16770000000000018,-10.037376672542434
-0.16870000000000007,-10.109526948835553
-0.16970000000000018,-10.191580204227723
-0.17070000000000007,-10.24675394492246
-0.17170000000000019,-10.283536438718953
-0.17270000000000008,-10.334466045514093
-0.1737000000000002,-10.39529863140829
-0.17470000000000008,-10.477351886800463
-0.1757000000000002,-10.490084288499247
-0.17670000000000008,-10.573552255191283
-0.1777000000000002,-10.641458397584804
-0.17870000000000008,-10.699461560879271
-0.1797000000000002,-10.79424721797023
-0.18070000000000008,-10.876300473362404
-0.1817000000000002,-10.894691720260647
-0.18270000000000008,-10.958353728754572
-0.1837000000000002,-11.040406984146745
-0.1847000000000001,-11.121045528239053
-0.1857000000000002,-11.173389846334059
-0.1867000000000001,-11.224319453129201
-0.1877000000000002,-11.303543285921643
-0.1887000000000001,-11.37569356221476
-0.1897000000000002,-11.464820374106257
-0.1907000000000001,-11.528482382600183
-0.1917000000000001,-11.532726516499778
-0.19269999999999998,-11.613365060592086
-0.1937000000000001,-11.743518500179668
-0.19469999999999998,-11.807180508673596
-0.1957000000000001,-11.876501362366984
-0.19669999999999999,-11.969872308158076
-0.1977000000000001,-12.025046048852811
-0.1987,-12.081634500847414
-0.1997000000000001,-12.152370065840664
-0.2007,-12.281108794128384
-0.2017000000000001,-12.397115120717316
-0.2027,-12.423994635414752
-0.2037000000000001,-12.462191840511109
-0.2047,-12.592345280098693
-0.2057000000000001,-12.675813246790728
-0.2067,-12.735231121385059
-0.2077000000000001,-12.773428326481417
-0.2087,-12.862555138372914
-0.2097000000000001,-12.979976176261713
-0.2107,-13.046467607355368
-0.2117000000000001,-13.06910298815321
-0.2127,-13.098811925450374
-0.2137000000000001,-13.274236126633639
-0.2147,-13.397316009721898
-0.2157000000000001,-13.50200464591191
-0.2167,-13.581228478704354
-0.21770000000000012,-13.644890487198278
-0.2187,-13.71562605219153
-0.21970000000000012,-13.85568247087817
-0.2207,-13.956126973168587
-0.22170000000000012,-14.01271542516319
-0.2227,-14.094768680555362
-0.22370000000000012,-14.147112998650368
-0.2247,-14.217848563643619
-0.22570000000000012,-14.373466806628771
-0.2267,-14.444202371622024
-0.22770000000000012,-14.529085049613924
-0.22870000000000001,-14.61396772760583
-0.22970000000000013,-14.69885040559773
-0.23070000000000002,-14.812027309586934
-0.23170000000000013,-14.896909987578834
-0.23270000000000002,-14.939351326574789
-0.23370000000000013,-15.02423400456669
-0.23470000000000002,-15.179852247551842
-0.23570000000000013,-15.278882038542395
-0.23670000000000002,-15.335470490536997
-0.2376999999999999,-15.43450028152755
-0.23870000000000002,-15.561824298515406
-0.2396999999999999,-15.675001202504609
-0.24070000000000003,-15.802325219492458
-0.24169999999999991,-15.858913671487063
-0.24270000000000003,-15.929649236480316
-0.24369999999999992,-16.04282614046952
-0.24470000000000003,-16.15600304445872
-0.24569999999999992,-16.25503283544927
-0.24670000000000003,-16.339915513441174
-0.24769999999999992,-16.438945304431726
-0.24870000000000003,-16.56626932141958
-0.24969999999999992,-16.665299112410132
-0.25070000000000003,-16.778476016399335
-0.2516999999999999,-16.891652920388537
-0.25270000000000004,-16.99068271137909
-0.2536999999999999,-17.103859615368293
-0.25470000000000004,-17.231183632356142
-0.2556999999999999,-17.358507649344002
-0.25670000000000004,-17.471684553333205
-0.25769999999999993,-17.584861457322408
-0.25870000000000004,-17.71218547431026
-0.25969999999999993,-17.867803717295413
-0.26070000000000004,-17.995127734283265
-0.26169999999999993,-18.122451751271118
-0.26270000000000004,-18.207334429263025
-0.26369999999999993,-18.320511333252224
-0.26470000000000005,-18.44783535024008
-0.26569999999999994,-18.617600706223882
-0.26670000000000005,-18.815660288204988
-0.26769999999999994,-18.95713141819149
-0.26870000000000005,-19.070308322180697
-0.26969999999999994,-19.211779452167196
-0.27070000000000005,-19.4381332601456
-0.27169999999999994,-19.65033995512536
-0.27270000000000005,-19.848399537106463
-0.27369999999999994,-20.117194684080822
-0.27470000000000006,-20.38598983105518
-0.27569999999999995,-20.626490752032236
-0.27670000000000006,-20.824550334013338
-0.27769999999999995,-21.093345480987697
-0.27870000000000006,-21.447023305953955
-0.27969999999999995,-21.800701130920213
-0.28070000000000006,-22.182673181883775
-0.28169999999999995,-22.592939458844636
-0.28270000000000006,-23.031499961802798
-0.28369999999999995,-23.526648916755562
-0.28470000000000006,-24.134974775697525
-0.28569999999999995,-24.870624651627345
-0.28670000000000007,-25.677010092550415
-0.28769999999999996,-26.62486666345999
-0.28870000000000007,-27.756635703352025
-0.28969999999999996,-29.072317212226505
-0.29070000000000007,-30.62849964207804
-0.29169999999999996,-32.32615320191609
-0.29270000000000007,-34.377484586720385
-0.29369999999999996,-36.78249379649095
-0.2947000000000001,-39.49873949223183
-0.29569999999999996,-42.497927447945706
-0.2967000000000001,-45.652733646644734
-0.29769999999999996,-49.20365900930597
-0.2987000000000001,-53.023379518941574
-0.29969999999999997,-57.16848362754614
-0.3007000000000001,-61.49750020513315
-0.30169999999999997,-66.15190038168912
-0.3027000000000001,-71.01850725322484
-0.30369999999999997,-75.47484784779972
-0.3047000000000001,-79.76142308639076
-0.30569999999999997,-84.52900016693594
-0.3067000000000001,-89.26828302148381
-0.3077,-93.65388805106544
-0.3087000000000001,-97.96875751565379
-0.3097,-102.36850965823406
-0.3107000000000001,-106.44287820184536
-0.3117,-110.2767458244796
-0.3127000000000001,-113.99743654312465
-0.3137,-117.67568592277377
-0.3147000000000001,-120.97196325145929
-0.3157,-124.52288861412055
-0.3167000000000001,-128.32846201075745
-0.3177,-131.73791624343224
-0.3187000000000001,-134.9351637811272
-0.3197,-138.52853048278442
-0.3207000000000001,-141.14574638753473
-0.3217,-143.0273124163552
-0.3227000000000001,-143.0273124163552
-0.3237,-143.0273124163552
-0.3247000000000001,-143.0273124163552
-0.3257,-143.0273124163552
-0.3267000000000001,-143.0273124163552
-0.3277,-143.0273124163552
-0.3287000000000001,-143.0273124163552
-0.3297,-143.0273124163552
-0.3307000000000001,-143.0273124163552
-0.3317,-143.0273124163552
-0.3327000000000001,-143.0273124163552
-0.3337,-143.0273124163552
-0.3347000000000001,-143.0273124163552
-0.3357,-143.0273124163552
-0.3367000000000001,-143.0273124163552
-0.3377,-143.0273124163552
-0.3387000000000001,-143.0273124163552
-0.3397,-143.0273124163552
-0.3407000000000001,-143.0273124163552
-0.3417,-143.0273124163552
-0.3427000000000001,-143.0273124163552
-0.3437,-143.0273124163552
-0.3447000000000001,-143.0273124163552
-0.3457,-143.0273124163552
-0.3467000000000001,-143.0273124163552
-0.3477,-143.0273124163552
-0.3487000000000001,-143.0273124163552
-0.3497,-143.0273124163552
-0.3507000000000001,-143.0273124163552
-0.3517,-143.0273124163552
-0.3527000000000001,-143.0273124163552
-0.3537,-143.0273124163552
-0.3547000000000001,-143.0273124163552
-0.3557,-143.0273124163552
-0.35670000000000013,-143.0273124163552
-0.3577,-143.0273124163552
-0.35870000000000013,-143.0273124163552
-0.3597,-143.0273124163552
-0.36070000000000013,-143.0273124163552
-0.3617,-143.0273124163552
-0.3626999999999999,-143.0273124163552
-0.3637,-143.0273124163552
-0.3646999999999999,-143.0273124163552
-0.3657,-143.0273124163552
-0.3666999999999999,-143.0273124163552
-0.3677,-143.0273124163552
-0.3686999999999999,-143.0273124163552
-0.36970000000000003,-143.0273124163552
-0.3706999999999999,-143.0273124163552
-0.37170000000000003,-143.0273124163552
-0.3726999999999999,-143.0273124163552
-0.37370000000000003,-143.0273124163552
-0.3746999999999999,-143.0273124163552
-0.37570000000000003,-143.0273124163552
-0.3766999999999999,-143.0273124163552
-0.37770000000000004,-143.0273124163552
-0.3786999999999999,-143.0273124163552
-0.37970000000000004,-143.0273124163552
-0.3806999999999999,-143.0273124163552
-0.38170000000000004,-143.0273124163552
-0.38269999999999993,-143.0273124163552
-0.38370000000000004,-143.0273124163552
-0.38469999999999993,-143.0273124163552
-0.38570000000000004,-143.0273124163552
-0.38669999999999993,-143.0273124163552
-0.38570000000000004,-143.0273124163552
-0.38469999999999993,-143.0273124163552
-0.38370000000000004,-143.0273124163552
-0.38269999999999993,-143.0273124163552
-0.38170000000000004,-143.0273124163552
-0.3806999999999999,-143.0273124163552
-0.37970000000000004,-143.0273124163552
-0.3786999999999999,-143.0273124163552
-0.37770000000000004,-143.0273124163552
-0.3766999999999999,-143.0273124163552
-0.37570000000000003,-143.0273124163552
-0.3746999999999999,-143.0273124163552
-0.37370000000000003,-143.0273124163552
-0.3726999999999999,-143.0273124163552
-0.37170000000000003,-143.0273124163552
-0.3706999999999999,-143.0273124163552
-0.36970000000000003,-143.0273124163552
-0.3686999999999999,-143.0273124163552
-0.3677,-143.0273124163552
-0.3666999999999999,-143.0273124163552
-0.3657,-143.0273124163552
-0.3646999999999999,-143.0273124163552
-0.3637,-143.0273124163552
-0.3626999999999999,-143.0273124163552
-0.3617,-143.0273124163552
-0.36070000000000013,-143.0273124163552
-0.3597,-143.0273124163552
-0.35870000000000013,-143.0273124163552
-0.3577,-143.0273124163552
-0.35670000000000013,-143.0273124163552
-0.3557,-143.0273124163552
-0.3547000000000001,-143.0273124163552
-0.3537,-143.0273124163552
-0.3527000000000001,-143.0273124163552
-0.3517,-143.0273124163552
-0.3507000000000001,-143.0273124163552
-0.3497,-143.0273124163552
-0.3487000000000001,-143.0273124163552
-0.3477,-143.0273124163552
-0.3467000000000001,-143.0273124163552
-0.3457,-143.0273124163552
-0.3447000000000001,-143.0273124163552
-0.3437,-143.0273124163552
-0.3427000000000001,-143.0273124163552
-0.3417,-143.0273124163552
-0.3407000000000001,-143.0273124163552
-0.3397,-143.0273124163552
-0.3387000000000001,-143.0273124163552
-0.3377,-143.0273124163552
-0.3367000000000001,-143.0273124163552
-0.3357,-143.0273124163552
-0.3347000000000001,-143.0273124163552
-0.3337,-143.0273124163552
-0.3327000000000001,-143.0273124163552
-0.3317,-143.0273124163552
-0.3307000000000001,-143.0273124163552
-0.3297,-142.6028990263957
-0.3287000000000001,-141.13159927453606
-0.3277,-139.2075919067196
-0.3267000000000001,-137.80702771985324
-0.3257,-136.60452311496792
-0.3247000000000001,-135.48690118807457
-0.3237,-133.35068712527837
-0.3227000000000001,-131.63888645244168
-0.3217,-129.36120125965894
-0.3207000000000001,-128.28602067176152
-0.3197,-127.86160728180201
-0.3187000000000001,-126.47519020793426
-0.3177,-124.53703572711918
-0.3167000000000001,-122.54229279430947
-0.3157,-121.11343438144578
-0.3147000000000001,-119.55725195159425
-0.3137,-117.85959839175621
-0.3127000000000001,-116.47318131788847
-0.3117,-114.73308641905447
-0.3107000000000001,-113.48814047517324
-0.3097,-111.91781093232305
-0.3087000000000001,-110.7577476664337
-0.3077,-109.61183151354304
-0.3067000000000001,-108.29615000466856
-0.30569999999999997,-106.78240891381296
-0.3047000000000001,-105.52331585693308
-0.30369999999999997,-103.59930848911664
-0.3027000000000001,-102.04312605926509
-0.30169999999999997,-100.65670898539736
-0.3007000000000001,-98.90246697356471
-0.29969999999999997,-97.10578362273613
-0.2987000000000001,-96.21451550382113
-0.29769999999999996,-95.83254345285758
-0.2967000000000001,-94.58759750897636
-0.29569999999999996,-93.00312085312751
-0.2947000000000001,-91.57426244026381
-0.29369999999999996,-90.32931649638259
-0.29270000000000007,-88.94289942251486
-0.29169999999999996,-87.61307080064172
-0.29070000000000007,-85.97200569279828
-0.28969999999999996,-84.17532234196969
-0.28870000000000007,-82.60499279911949
-0.28769999999999996,-81.38834108123557
-0.28670000000000007,-80.24242492834487
-0.28569999999999995,-79.11065588845284
-0.28470000000000006,-77.90815128356756
-0.28369999999999995,-76.63491111368903
-0.28270000000000006,-75.23434692682265
-0.28169999999999995,-73.97525386994278
-0.28070000000000006,-72.61713102207234
-0.27969999999999995,-71.38633219118975
-0.27870000000000006,-70.04235645631796
-0.27769999999999995,-68.67008649544888
-0.27670000000000006,-67.53831745555684
-0.27569999999999995,-66.47728398065809
-0.27470000000000006,-65.20404381077954
-0.27369999999999994,-64.00153920589426
-0.27270000000000005,-62.78488748801033
-0.27169999999999994,-61.5116473181318
-0.27070000000000005,-60.25255426125191
-0.26969999999999994,-59.10663810836124
-0.26870000000000005,-58.30025266743816
-0.26769999999999994,-56.97042404556503
-0.26670000000000005,-56.079155926650046
-0.26569999999999994,-55.10300512974318
