Sept. 15, 2024   22:51:33
Linear Sweep Voltammetry
File: c:/users/guazh/data/20240903_batch_252_500/2024-09-03-exp364\post-regen1-2024-09-15t22_48_18-lsvinphos\post-regen1_lsv_50mvs_efin_-2300mv.bin
Data Source:  Experiment
Instrument Model:  CHI760E
Header: LSV ran at 50 mVs with Efin at -2300mV
Note: 

Init E (V) = -0.6
Final E (V) = -2.3
Scan Rate (V/s) = 0.05
Sample Interval (V) = 0.001
Quiet Time (sec) = 2
Sensitivity (A/V) = 1e-4
Comp R (ohm) = 11.3

Results:

Channel 1:
Ep = -1.944V
ip = 5.821e-4A
Ah = 8.186e-4C

Potential/V, Current/A

-0.600, 2.314e-5
-0.601, 2.338e-5
-0.602, 2.346e-5
-0.603, 2.349e-5
-0.604, 2.351e-5
-0.605, 2.353e-5
-0.606, 2.354e-5
-0.607, 2.354e-5
-0.608, 2.356e-5
-0.609, 2.356e-5
-0.610, 2.357e-5
-0.611, 2.357e-5
-0.612, 2.357e-5
-0.613, 2.359e-5
-0.614, 2.359e-5
-0.615, 2.359e-5
-0.616, 2.358e-5
-0.617, 2.358e-5
-0.618, 2.359e-5
-0.619, 2.358e-5
-0.620, 2.357e-5
-0.621, 2.357e-5
-0.622, 2.357e-5
-0.623, 2.358e-5
-0.624, 2.358e-5
-0.625, 2.356e-5
-0.626, 2.356e-5
-0.627, 2.356e-5
-0.628, 2.355e-5
-0.629, 2.355e-5
-0.630, 2.355e-5
-0.631, 2.355e-5
-0.632, 2.355e-5
-0.633, 2.354e-5
-0.634, 2.353e-5
-0.635, 2.353e-5
-0.636, 2.352e-5
-0.637, 2.351e-5
-0.638, 2.352e-5
-0.639, 2.351e-5
-0.640, 2.350e-5
-0.641, 2.349e-5
-0.642, 2.348e-5
-0.643, 2.347e-5
-0.644, 2.346e-5
-0.645, 2.346e-5
-0.646, 2.346e-5
-0.647, 2.346e-5
-0.648, 2.345e-5
-0.649, 2.344e-5
-0.650, 2.342e-5
-0.651, 2.342e-5
-0.652, 2.341e-5
-0.653, 2.340e-5
-0.654, 2.339e-5
-0.655, 2.338e-5
-0.656, 2.338e-5
-0.657, 2.337e-5
-0.658, 2.337e-5
-0.659, 2.336e-5
-0.660, 2.335e-5
-0.661, 2.334e-5
-0.662, 2.333e-5
-0.663, 2.331e-5
-0.664, 2.332e-5
-0.665, 2.331e-5
-0.666, 2.329e-5
-0.667, 2.328e-5
-0.668, 2.327e-5
-0.669, 2.326e-5
-0.670, 2.324e-5
-0.671, 2.324e-5
-0.672, 2.323e-5
-0.673, 2.322e-5
-0.674, 2.322e-5
-0.675, 2.321e-5
-0.676, 2.319e-5
-0.677, 2.317e-5
-0.678, 2.318e-5
-0.679, 2.317e-5
-0.680, 2.315e-5
-0.681, 2.314e-5
-0.682, 2.315e-5
-0.683, 2.313e-5
-0.684, 2.313e-5
-0.685, 2.313e-5
-0.686, 2.311e-5
-0.687, 2.309e-5
-0.688, 2.308e-5
-0.689, 2.306e-5
-0.690, 2.306e-5
-0.691, 2.305e-5
-0.692, 2.303e-5
-0.693, 2.303e-5
-0.694, 2.302e-5
-0.695, 2.301e-5
-0.696, 2.301e-5
-0.697, 2.300e-5
-0.698, 2.299e-5
-0.699, 2.298e-5
-0.700, 2.297e-5
-0.701, 2.296e-5
-0.702, 2.299e-5
-0.703, 2.296e-5
-0.704, 2.294e-5
-0.705, 2.294e-5
-0.706, 2.291e-5
-0.707, 2.289e-5
-0.708, 2.289e-5
-0.709, 2.287e-5
-0.710, 2.289e-5
-0.711, 2.285e-5
-0.712, 2.285e-5
-0.713, 2.284e-5
-0.714, 2.283e-5
-0.715, 2.283e-5
-0.716, 2.282e-5
-0.717, 2.281e-5
-0.718, 2.284e-5
-0.719, 2.285e-5
-0.720, 2.284e-5
-0.721, 2.283e-5
-0.722, 2.284e-5
-0.723, 2.284e-5
-0.724, 2.282e-5
-0.725, 2.282e-5
-0.726, 2.282e-5
-0.727, 2.280e-5
-0.728, 2.278e-5
-0.729, 2.278e-5
-0.730, 2.278e-5
-0.731, 2.277e-5
-0.732, 2.278e-5
-0.733, 2.276e-5
-0.734, 2.275e-5
-0.735, 2.274e-5
-0.736, 2.273e-5
-0.737, 2.274e-5
-0.738, 2.273e-5
-0.739, 2.274e-5
-0.740, 2.273e-5
-0.741, 2.272e-5
-0.742, 2.272e-5
-0.743, 2.272e-5
-0.744, 2.272e-5
-0.745, 2.271e-5
-0.746, 2.270e-5
-0.747, 2.271e-5
-0.748, 2.270e-5
-0.749, 2.270e-5
-0.750, 2.270e-5
-0.751, 2.270e-5
-0.752, 2.269e-5
-0.753, 2.270e-5
-0.754, 2.270e-5
-0.755, 2.269e-5
-0.756, 2.269e-5
-0.757, 2.270e-5
-0.758, 2.271e-5
-0.759, 2.271e-5
-0.760, 2.270e-5
-0.761, 2.270e-5
-0.762, 2.270e-5
-0.763, 2.270e-5
-0.764, 2.270e-5
-0.765, 2.269e-5
-0.766, 2.269e-5
-0.767, 2.269e-5
-0.768, 2.270e-5
-0.769, 2.271e-5
-0.770, 2.271e-5
-0.771, 2.271e-5
-0.772, 2.271e-5
-0.773, 2.270e-5
-0.774, 2.270e-5
-0.775, 2.271e-5
-0.776, 2.270e-5
-0.777, 2.271e-5
-0.778, 2.270e-5
-0.779, 2.270e-5
-0.780, 2.271e-5
-0.781, 2.271e-5
-0.782, 2.271e-5
-0.783, 2.270e-5
-0.784, 2.270e-5
-0.785, 2.269e-5
-0.786, 2.269e-5
-0.787, 2.270e-5
-0.788, 2.270e-5
-0.789, 2.269e-5
-0.790, 2.269e-5
-0.791, 2.269e-5
-0.792, 2.268e-5
-0.793, 2.268e-5
-0.794, 2.267e-5
-0.795, 2.267e-5
-0.796, 2.267e-5
-0.797, 2.267e-5
-0.798, 2.266e-5
-0.799, 2.265e-5
-0.800, 2.263e-5
-0.801, 2.264e-5
-0.802, 2.263e-5
-0.803, 2.262e-5
-0.804, 2.261e-5
-0.805, 2.260e-5
-0.806, 2.259e-5
-0.807, 2.259e-5
-0.808, 2.259e-5
-0.809, 2.258e-5
-0.810, 2.256e-5
-0.811, 2.255e-5
-0.812, 2.254e-5
-0.813, 2.253e-5
-0.814, 2.253e-5
-0.815, 2.251e-5
-0.816, 2.250e-5
-0.817, 2.248e-5
-0.818, 2.246e-5
-0.819, 2.246e-5
-0.820, 2.245e-5
-0.821, 2.243e-5
-0.822, 2.242e-5
-0.823, 2.240e-5
-0.824, 2.239e-5
-0.825, 2.238e-5
-0.826, 2.237e-5
-0.827, 2.235e-5
-0.828, 2.233e-5
-0.829, 2.232e-5
-0.830, 2.230e-5
-0.831, 2.229e-5
-0.832, 2.227e-5
-0.833, 2.225e-5
-0.834, 2.225e-5
-0.835, 2.224e-5
-0.836, 2.222e-5
-0.837, 2.221e-5
-0.838, 2.221e-5
-0.839, 2.219e-5
-0.840, 2.218e-5
-0.841, 2.220e-5
-0.842, 2.216e-5
-0.843, 2.213e-5
-0.844, 2.212e-5
-0.845, 2.211e-5
-0.846, 2.208e-5
-0.847, 2.206e-5
-0.848, 2.206e-5
-0.849, 2.205e-5
-0.850, 2.204e-5
-0.851, 2.205e-5
-0.852, 2.202e-5
-0.853, 2.199e-5
-0.854, 2.197e-5
-0.855, 2.196e-5
-0.856, 2.195e-5
-0.857, 2.193e-5
-0.858, 2.192e-5
-0.859, 2.190e-5
-0.860, 2.189e-5
-0.861, 2.187e-5
-0.862, 2.186e-5
-0.863, 2.183e-5
-0.864, 2.183e-5
-0.865, 2.183e-5
-0.866, 2.182e-5
-0.867, 2.181e-5
-0.868, 2.180e-5
-0.869, 2.178e-5
-0.870, 2.178e-5
-0.871, 2.177e-5
-0.872, 2.176e-5
-0.873, 2.175e-5
-0.874, 2.174e-5
-0.875, 2.174e-5
-0.876, 2.173e-5
-0.877, 2.171e-5
-0.878, 2.171e-5
-0.879, 2.171e-5
-0.880, 2.170e-5
-0.881, 2.168e-5
-0.882, 2.168e-5
-0.883, 2.167e-5
-0.884, 2.167e-5
-0.885, 2.166e-5
-0.886, 2.165e-5
-0.887, 2.164e-5
-0.888, 2.163e-5
-0.889, 2.163e-5
-0.890, 2.161e-5
-0.891, 2.161e-5
-0.892, 2.160e-5
-0.893, 2.159e-5
-0.894, 2.159e-5
-0.895, 2.159e-5
-0.896, 2.158e-5
-0.897, 2.159e-5
-0.898, 2.158e-5
-0.899, 2.157e-5
-0.900, 2.157e-5
-0.901, 2.157e-5
-0.902, 2.157e-5
-0.903, 2.157e-5
-0.904, 2.157e-5
-0.905, 2.156e-5
-0.906, 2.155e-5
-0.907, 2.156e-5
-0.908, 2.156e-5
-0.909, 2.156e-5
-0.910, 2.156e-5
-0.911, 2.157e-5
-0.912, 2.157e-5
-0.913, 2.156e-5
-0.914, 2.157e-5
-0.915, 2.157e-5
-0.916, 2.157e-5
-0.917, 2.157e-5
-0.918, 2.158e-5
-0.919, 2.158e-5
-0.920, 2.158e-5
-0.921, 2.159e-5
-0.922, 2.159e-5
-0.923, 2.159e-5
-0.924, 2.159e-5
-0.925, 2.159e-5
-0.926, 2.160e-5
-0.927, 2.161e-5
-0.928, 2.162e-5
-0.929, 2.164e-5
-0.930, 2.165e-5
-0.931, 2.165e-5
-0.932, 2.164e-5
-0.933, 2.165e-5
-0.934, 2.167e-5
-0.935, 2.168e-5
-0.936, 2.168e-5
-0.937, 2.169e-5
-0.938, 2.169e-5
-0.939, 2.170e-5
-0.940, 2.170e-5
-0.941, 2.171e-5
-0.942, 2.172e-5
-0.943, 2.173e-5
-0.944, 2.174e-5
-0.945, 2.175e-5
-0.946, 2.176e-5
-0.947, 2.177e-5
-0.948, 2.176e-5
-0.949, 2.177e-5
-0.950, 2.181e-5
-0.951, 2.181e-5
-0.952, 2.181e-5
-0.953, 2.181e-5
-0.954, 2.183e-5
-0.955, 2.185e-5
-0.956, 2.186e-5
-0.957, 2.186e-5
-0.958, 2.188e-5
-0.959, 2.189e-5
-0.960, 2.190e-5
-0.961, 2.191e-5
-0.962, 2.194e-5
-0.963, 2.195e-5
-0.964, 2.196e-5
-0.965, 2.196e-5
-0.966, 2.197e-5
-0.967, 2.198e-5
-0.968, 2.199e-5
-0.969, 2.199e-5
-0.970, 2.201e-5
-0.971, 2.203e-5
-0.972, 2.204e-5
-0.973, 2.205e-5
-0.974, 2.207e-5
-0.975, 2.209e-5
-0.976, 2.210e-5
-0.977, 2.212e-5
-0.978, 2.215e-5
-0.979, 2.216e-5
-0.980, 2.218e-5
-0.981, 2.220e-5
-0.982, 2.221e-5
-0.983, 2.222e-5
-0.984, 2.221e-5
-0.985, 2.223e-5
-0.986, 2.225e-5
-0.987, 2.227e-5
-0.988, 2.229e-5
-0.989, 2.231e-5
-0.990, 2.233e-5
-0.991, 2.234e-5
-0.992, 2.236e-5
-0.993, 2.238e-5
-0.994, 2.240e-5
-0.995, 2.243e-5
-0.996, 2.244e-5
-0.997, 2.246e-5
-0.998, 2.248e-5
-0.999, 2.251e-5
-1.000, 2.254e-5
-1.001, 2.255e-5
-1.002, 2.258e-5
-1.003, 2.261e-5
-1.004, 2.264e-5
-1.005, 2.266e-5
-1.006, 2.268e-5
-1.007, 2.270e-5
-1.008, 2.272e-5
-1.009, 2.275e-5
-1.010, 2.278e-5
-1.011, 2.280e-5
-1.012, 2.284e-5
-1.013, 2.286e-5
-1.014, 2.290e-5
-1.015, 2.293e-5
-1.016, 2.296e-5
-1.017, 2.298e-5
-1.018, 2.300e-5
-1.019, 2.303e-5
-1.020, 2.305e-5
-1.021, 2.308e-5
-1.022, 2.311e-5
-1.023, 2.314e-5
-1.024, 2.318e-5
-1.025, 2.321e-5
-1.026, 2.323e-5
-1.027, 2.327e-5
-1.028, 2.329e-5
-1.029, 2.332e-5
-1.030, 2.336e-5
-1.031, 2.339e-5
-1.032, 2.342e-5
-1.033, 2.345e-5
-1.034, 2.349e-5
-1.035, 2.352e-5
-1.036, 2.354e-5
-1.037, 2.357e-5
-1.038, 2.360e-5
-1.039, 2.364e-5
-1.040, 2.367e-5
-1.041, 2.372e-5
-1.042, 2.376e-5
-1.043, 2.379e-5
-1.044, 2.382e-5
-1.045, 2.386e-5
-1.046, 2.388e-5
-1.047, 2.391e-5
-1.048, 2.395e-5
-1.049, 2.399e-5
-1.050, 2.403e-5
-1.051, 2.406e-5
-1.052, 2.410e-5
-1.053, 2.414e-5
-1.054, 2.416e-5
-1.055, 2.420e-5
-1.056, 2.422e-5
-1.057, 2.425e-5
-1.058, 2.428e-5
-1.059, 2.431e-5
-1.060, 2.434e-5
-1.061, 2.438e-5
-1.062, 2.440e-5
-1.063, 2.444e-5
-1.064, 2.447e-5
-1.065, 2.450e-5
-1.066, 2.454e-5
-1.067, 2.457e-5
-1.068, 2.460e-5
-1.069, 2.463e-5
-1.070, 2.467e-5
-1.071, 2.469e-5
-1.072, 2.471e-5
-1.073, 2.473e-5
-1.074, 2.476e-5
-1.075, 2.478e-5
-1.076, 2.481e-5
-1.077, 2.483e-5
-1.078, 2.485e-5
-1.079, 2.489e-5
-1.080, 2.492e-5
-1.081, 2.496e-5
-1.082, 2.499e-5
-1.083, 2.501e-5
-1.084, 2.503e-5
-1.085, 2.508e-5
-1.086, 2.511e-5
-1.087, 2.514e-5
-1.088, 2.517e-5
-1.089, 2.518e-5
-1.090, 2.521e-5
-1.091, 2.526e-5
-1.092, 2.529e-5
-1.093, 2.532e-5
-1.094, 2.534e-5
-1.095, 2.536e-5
-1.096, 2.540e-5
-1.097, 2.542e-5
-1.098, 2.545e-5
-1.099, 2.548e-5
-1.100, 2.553e-5
-1.101, 2.556e-5
-1.102, 2.560e-5
-1.103, 2.562e-5
-1.104, 2.565e-5
-1.105, 2.567e-5
-1.106, 2.569e-5
-1.107, 2.574e-5
-1.108, 2.576e-5
-1.109, 2.576e-5
-1.110, 2.579e-5
-1.111, 2.582e-5
-1.112, 2.584e-5
-1.113, 2.586e-5
-1.114, 2.588e-5
-1.115, 2.592e-5
-1.116, 2.596e-5
-1.117, 2.600e-5
-1.118, 2.605e-5
-1.119, 2.606e-5
-1.120, 2.609e-5
-1.121, 2.612e-5
-1.122, 2.615e-5
-1.123, 2.620e-5
-1.124, 2.624e-5
-1.125, 2.626e-5
-1.126, 2.629e-5
-1.127, 2.632e-5
-1.128, 2.636e-5
-1.129, 2.640e-5
-1.130, 2.643e-5
-1.131, 2.647e-5
-1.132, 2.650e-5
-1.133, 2.653e-5
-1.134, 2.656e-5
-1.135, 2.659e-5
-1.136, 2.662e-5
-1.137, 2.665e-5
-1.138, 2.670e-5
-1.139, 2.675e-5
-1.140, 2.679e-5
-1.141, 2.682e-5
-1.142, 2.686e-5
-1.143, 2.688e-5
-1.144, 2.692e-5
-1.145, 2.699e-5
-1.146, 2.704e-5
-1.147, 2.712e-5
-1.148, 2.719e-5
-1.149, 2.723e-5
-1.150, 2.729e-5
-1.151, 2.733e-5
-1.152, 2.739e-5
-1.153, 2.746e-5
-1.154, 2.750e-5
-1.155, 2.756e-5
-1.156, 2.766e-5
-1.157, 2.769e-5
-1.158, 2.773e-5
-1.159, 2.779e-5
-1.160, 2.785e-5
-1.161, 2.792e-5
-1.162, 2.798e-5
-1.163, 2.805e-5
-1.164, 2.813e-5
-1.165, 2.820e-5
-1.166, 2.826e-5
-1.167, 2.834e-5
-1.168, 2.844e-5
-1.169, 2.851e-5
-1.170, 2.857e-5
-1.171, 2.865e-5
-1.172, 2.874e-5
-1.173, 2.880e-5
-1.174, 2.887e-5
-1.175, 2.894e-5
-1.176, 2.904e-5
-1.177, 2.912e-5
-1.178, 2.919e-5
-1.179, 2.928e-5
-1.180, 2.935e-5
-1.181, 2.942e-5
-1.182, 2.948e-5
-1.183, 2.953e-5
-1.184, 2.959e-5
-1.185, 2.967e-5
-1.186, 2.978e-5
-1.187, 2.986e-5
-1.188, 2.992e-5
-1.189, 2.998e-5
-1.190, 3.006e-5
-1.191, 3.015e-5
-1.192, 3.021e-5
-1.193, 3.027e-5
-1.194, 3.033e-5
-1.195, 3.043e-5
-1.196, 3.050e-5
-1.197, 3.061e-5
-1.198, 3.073e-5
-1.199, 3.077e-5
-1.200, 3.083e-5
-1.201, 3.090e-5
-1.202, 3.096e-5
-1.203, 3.100e-5
-1.204, 3.107e-5
-1.205, 3.116e-5
-1.206, 3.127e-5
-1.207, 3.135e-5
-1.208, 3.143e-5
-1.209, 3.154e-5
-1.210, 3.164e-5
-1.211, 3.174e-5
-1.212, 3.185e-5
-1.213, 3.201e-5
-1.214, 3.209e-5
-1.215, 3.215e-5
-1.216, 3.225e-5
-1.217, 3.235e-5
-1.218, 3.247e-5
-1.219, 3.256e-5
-1.220, 3.267e-5
-1.221, 3.279e-5
-1.222, 3.288e-5
-1.223, 3.296e-5
-1.224, 3.306e-5
-1.225, 3.320e-5
-1.226, 3.330e-5
-1.227, 3.341e-5
-1.228, 3.352e-5
-1.229, 3.360e-5
-1.230, 3.371e-5
-1.231, 3.381e-5
-1.232, 3.392e-5
-1.233, 3.406e-5
-1.234, 3.412e-5
-1.235, 3.422e-5
-1.236, 3.432e-5
-1.237, 3.443e-5
-1.238, 3.453e-5
-1.239, 3.460e-5
-1.240, 3.470e-5
-1.241, 3.483e-5
-1.242, 3.497e-5
-1.243, 3.507e-5
-1.244, 3.523e-5
-1.245, 3.533e-5
-1.246, 3.546e-5
-1.247, 3.557e-5
-1.248, 3.571e-5
-1.249, 3.583e-5
-1.250, 3.593e-5
-1.251, 3.600e-5
-1.252, 3.611e-5
-1.253, 3.624e-5
-1.254, 3.636e-5
-1.255, 3.647e-5
-1.256, 3.655e-5
-1.257, 3.666e-5
-1.258, 3.687e-5
-1.259, 3.699e-5
-1.260, 3.705e-5
-1.261, 3.717e-5
-1.262, 3.731e-5
-1.263, 3.743e-5
-1.264, 3.751e-5
-1.265, 3.761e-5
-1.266, 3.773e-5
-1.267, 3.788e-5
-1.268, 3.799e-5
-1.269, 3.811e-5
-1.270, 3.820e-5
-1.271, 3.829e-5
-1.272, 3.842e-5
-1.273, 3.857e-5
-1.274, 3.866e-5
-1.275, 3.875e-5
-1.276, 3.884e-5
-1.277, 3.891e-5
-1.278, 3.902e-5
-1.279, 3.918e-5
-1.280, 3.929e-5
-1.281, 3.936e-5
-1.282, 3.946e-5
-1.283, 3.961e-5
-1.284, 3.980e-5
-1.285, 3.985e-5
-1.286, 3.991e-5
-1.287, 3.996e-5
-1.288, 4.005e-5
-1.289, 4.013e-5
-1.290, 4.020e-5
-1.291, 4.028e-5
-1.292, 4.037e-5
-1.293, 4.042e-5
-1.294, 4.048e-5
-1.295, 4.052e-5
-1.296, 4.061e-5
-1.297, 4.071e-5
-1.298, 4.080e-5
-1.299, 4.083e-5
-1.300, 4.088e-5
-1.301, 4.092e-5
-1.302, 4.095e-5
-1.303, 4.099e-5
-1.304, 4.103e-5
-1.305, 4.108e-5
-1.306, 4.111e-5
-1.307, 4.118e-5
-1.308, 4.125e-5
-1.309, 4.131e-5
-1.310, 4.139e-5
-1.311, 4.141e-5
-1.312, 4.140e-5
-1.313, 4.141e-5
-1.314, 4.141e-5
-1.315, 4.147e-5
-1.316, 4.151e-5
-1.317, 4.159e-5
-1.318, 4.159e-5
-1.319, 4.158e-5
-1.320, 4.160e-5
-1.321, 4.163e-5
-1.322, 4.166e-5
-1.323, 4.162e-5
-1.324, 4.164e-5
-1.325, 4.166e-5
-1.326, 4.167e-5
-1.327, 4.170e-5
-1.328, 4.174e-5
-1.329, 4.171e-5
-1.330, 4.171e-5
-1.331, 4.177e-5
-1.332, 4.182e-5
-1.333, 4.180e-5
-1.334, 4.183e-5
-1.335, 4.186e-5
-1.336, 4.189e-5
-1.337, 4.192e-5
-1.338, 4.198e-5
-1.339, 4.201e-5
-1.340, 4.197e-5
-1.341, 4.194e-5
-1.342, 4.200e-5
-1.343, 4.206e-5
-1.344, 4.206e-5
-1.345, 4.205e-5
-1.346, 4.208e-5
-1.347, 4.208e-5
-1.348, 4.199e-5
-1.349, 4.196e-5
-1.350, 4.201e-5
-1.351, 4.198e-5
-1.352, 4.198e-5
-1.353, 4.201e-5
-1.354, 4.203e-5
-1.355, 4.203e-5
-1.356, 4.204e-5
-1.357, 4.209e-5
-1.358, 4.211e-5
-1.359, 4.211e-5
-1.360, 4.205e-5
-1.361, 4.200e-5
-1.362, 4.199e-5
-1.363, 4.206e-5
-1.364, 4.207e-5
-1.365, 4.207e-5
-1.366, 4.206e-5
-1.367, 4.206e-5
-1.368, 4.206e-5
-1.369, 4.206e-5
-1.370, 4.203e-5
-1.371, 4.205e-5
-1.372, 4.204e-5
-1.373, 4.204e-5
-1.374, 4.202e-5
-1.375, 4.198e-5
-1.376, 4.196e-5
-1.377, 4.196e-5
-1.378, 4.199e-5
-1.379, 4.198e-5
-1.380, 4.198e-5
-1.381, 4.197e-5
-1.382, 4.195e-5
-1.383, 4.195e-5
-1.384, 4.192e-5
-1.385, 4.188e-5
-1.386, 4.188e-5
-1.387, 4.186e-5
-1.388, 4.192e-5
-1.389, 4.195e-5
-1.390, 4.196e-5
-1.391, 4.197e-5
-1.392, 4.200e-5
-1.393, 4.200e-5
-1.394, 4.205e-5
-1.395, 4.210e-5
-1.396, 4.214e-5
-1.397, 4.212e-5
-1.398, 4.211e-5
-1.399, 4.206e-5
-1.400, 4.201e-5
-1.401, 4.202e-5
-1.402, 4.206e-5
-1.403, 4.210e-5
-1.404, 4.207e-5
-1.405, 4.210e-5
-1.406, 4.210e-5
-1.407, 4.214e-5
-1.408, 4.224e-5
-1.409, 4.235e-5
-1.410, 4.240e-5
-1.411, 4.239e-5
-1.412, 4.243e-5
-1.413, 4.247e-5
-1.414, 4.246e-5
-1.415, 4.238e-5
-1.416, 4.239e-5
-1.417, 4.246e-5
-1.418, 4.253e-5
-1.419, 4.259e-5
-1.420, 4.263e-5
-1.421, 4.270e-5
-1.422, 4.273e-5
-1.423, 4.273e-5
-1.424, 4.279e-5
-1.425, 4.283e-5
-1.426, 4.285e-5
-1.427, 4.293e-5
-1.428, 4.305e-5
-1.429, 4.317e-5
-1.430, 4.324e-5
-1.431, 4.323e-5
-1.432, 4.332e-5
-1.433, 4.340e-5
-1.434, 4.351e-5
-1.435, 4.363e-5
-1.436, 4.369e-5
-1.437, 4.374e-5
-1.438, 4.371e-5
-1.439, 4.379e-5
-1.440, 4.395e-5
-1.441, 4.394e-5
-1.442, 4.395e-5
-1.443, 4.400e-5
-1.444, 4.409e-5
-1.445, 4.414e-5
-1.446, 4.414e-5
-1.447, 4.421e-5
-1.448, 4.427e-5
-1.449, 4.431e-5
-1.450, 4.439e-5
-1.451, 4.457e-5
-1.452, 4.482e-5
-1.453, 4.487e-5
-1.454, 4.486e-5
-1.455, 4.493e-5
-1.456, 4.505e-5
-1.457, 4.514e-5
-1.458, 4.523e-5
-1.459, 4.531e-5
-1.460, 4.555e-5
-1.461, 4.573e-5
-1.462, 4.582e-5
-1.463, 4.587e-5
-1.464, 4.600e-5
-1.465, 4.601e-5
-1.466, 4.594e-5
-1.467, 4.596e-5
-1.468, 4.607e-5
-1.469, 4.619e-5
-1.470, 4.623e-5
-1.471, 4.630e-5
-1.472, 4.632e-5
-1.473, 4.640e-5
-1.474, 4.649e-5
-1.475, 4.653e-5
-1.476, 4.649e-5
-1.477, 4.657e-5
-1.478, 4.670e-5
-1.479, 4.685e-5
-1.480, 4.702e-5
-1.481, 4.715e-5
-1.482, 4.715e-5
-1.483, 4.732e-5
-1.484, 4.754e-5
-1.485, 4.766e-5
-1.486, 4.764e-5
-1.487, 4.758e-5
-1.488, 4.763e-5
-1.489, 4.781e-5
-1.490, 4.796e-5
-1.491, 4.800e-5
-1.492, 4.798e-5
-1.493, 4.794e-5
-1.494, 4.800e-5
-1.495, 4.808e-5
-1.496, 4.821e-5
-1.497, 4.833e-5
-1.498, 4.840e-5
-1.499, 4.854e-5
-1.500, 4.874e-5
-1.501, 4.891e-5
-1.502, 4.900e-5
-1.503, 4.907e-5
-1.504, 4.915e-5
-1.505, 4.930e-5
-1.506, 4.946e-5
-1.507, 4.966e-5
-1.508, 4.984e-5
-1.509, 4.999e-5
-1.510, 5.008e-5
-1.511, 5.014e-5
-1.512, 5.031e-5
-1.513, 5.050e-5
-1.514, 5.069e-5
-1.515, 5.089e-5
-1.516, 5.102e-5
-1.517, 5.120e-5
-1.518, 5.143e-5
-1.519, 5.163e-5
-1.520, 5.181e-5
-1.521, 5.199e-5
-1.522, 5.217e-5
-1.523, 5.237e-5
-1.524, 5.257e-5
-1.525, 5.276e-5
-1.526, 5.297e-5
-1.527, 5.315e-5
-1.528, 5.335e-5
-1.529, 5.343e-5
-1.530, 5.356e-5
-1.531, 5.380e-5
-1.532, 5.402e-5
-1.533, 5.425e-5
-1.534, 5.448e-5
-1.535, 5.471e-5
-1.536, 5.495e-5
-1.537, 5.517e-5
-1.538, 5.546e-5
-1.539, 5.582e-5
-1.540, 5.609e-5
-1.541, 5.629e-5
-1.542, 5.645e-5
-1.543, 5.662e-5
-1.544, 5.689e-5
-1.545, 5.716e-5
-1.546, 5.744e-5
-1.547, 5.770e-5
-1.548, 5.799e-5
-1.549, 5.836e-5
-1.550, 5.871e-5
-1.551, 5.887e-5
-1.552, 5.900e-5
-1.553, 5.915e-5
-1.554, 5.940e-5
-1.555, 5.970e-5
-1.556, 5.984e-5
-1.557, 5.999e-5
-1.558, 6.024e-5
-1.559, 6.054e-5
-1.560, 6.082e-5
-1.561, 6.110e-5
-1.562, 6.138e-5
-1.563, 6.170e-5
-1.564, 6.197e-5
-1.565, 6.228e-5
-1.566, 6.260e-5
-1.567, 6.293e-5
-1.568, 6.319e-5
-1.569, 6.349e-5
-1.570, 6.377e-5
-1.571, 6.413e-5
-1.572, 6.447e-5
-1.573, 6.482e-5
-1.574, 6.518e-5
-1.575, 6.542e-5
-1.576, 6.576e-5
-1.577, 6.602e-5
-1.578, 6.636e-5
-1.579, 6.675e-5
-1.580, 6.713e-5
-1.581, 6.745e-5
-1.582, 6.784e-5
-1.583, 6.820e-5
-1.584, 6.848e-5
-1.585, 6.881e-5
-1.586, 6.918e-5
-1.587, 6.952e-5
-1.588, 6.986e-5
-1.589, 7.020e-5
-1.590, 7.054e-5
-1.591, 7.085e-5
-1.592, 7.115e-5
-1.593, 7.154e-5
-1.594, 7.197e-5
-1.595, 7.234e-5
-1.596, 7.272e-5
-1.597, 7.315e-5
-1.598, 7.348e-5
-1.599, 7.383e-5
-1.600, 7.421e-5
-1.601, 7.460e-5
-1.602, 7.501e-5
-1.603, 7.538e-5
-1.604, 7.576e-5
-1.605, 7.625e-5
-1.606, 7.674e-5
-1.607, 7.724e-5
-1.608, 7.763e-5
-1.609, 7.810e-5
-1.610, 7.858e-5
-1.611, 7.910e-5
-1.612, 7.957e-5
-1.613, 8.007e-5
-1.614, 8.049e-5
-1.615, 8.091e-5
-1.616, 8.142e-5
-1.617, 8.206e-5
-1.618, 8.260e-5
-1.619, 8.304e-5
-1.620, 8.342e-5
-1.621, 8.386e-5
-1.622, 8.429e-5
-1.623, 8.475e-5
-1.624, 8.527e-5
-1.625, 8.567e-5
-1.626, 8.609e-5
-1.627, 8.666e-5
-1.628, 8.725e-5
-1.629, 8.791e-5
-1.630, 8.852e-5
-1.631, 8.909e-5
-1.632, 8.942e-5
-1.633, 8.986e-5
-1.634, 9.042e-5
-1.635, 9.091e-5
-1.636, 9.146e-5
-1.637, 9.221e-5
-1.638, 9.271e-5
-1.639, 9.329e-5
-1.640, 9.381e-5
-1.641, 9.444e-5
-1.642, 9.509e-5
-1.643, 9.568e-5
-1.644, 9.623e-5
-1.645, 9.675e-5
-1.646, 9.728e-5
-1.647, 9.788e-5
-1.648, 9.840e-5
-1.649, 9.895e-5
-1.650, 9.955e-5
-1.651, 1.002e-4
-1.652, 1.008e-4
-1.653, 1.014e-4
-1.654, 1.020e-4
-1.655, 1.027e-4
-1.656, 1.034e-4
-1.657, 1.041e-4
-1.658, 1.048e-4
-1.659, 1.056e-4
-1.660, 1.063e-4
-1.661, 1.070e-4
-1.662, 1.078e-4
-1.663, 1.086e-4
-1.664, 1.093e-4
-1.665, 1.106e-4
-1.666, 1.115e-4
-1.667, 1.118e-4
-1.668, 1.125e-4
-1.669, 1.133e-4
-1.670, 1.143e-4
-1.671, 1.149e-4
-1.672, 1.156e-4
-1.673, 1.166e-4
-1.674, 1.175e-4
-1.675, 1.186e-4
-1.676, 1.194e-4
-1.677, 1.200e-4
-1.678, 1.207e-4
-1.679, 1.216e-4
-1.680, 1.225e-4
-1.681, 1.235e-4
-1.682, 1.242e-4
-1.683, 1.248e-4
-1.684, 1.255e-4
-1.685, 1.263e-4
-1.686, 1.271e-4
-1.687, 1.281e-4
-1.688, 1.289e-4
-1.689, 1.298e-4
-1.690, 1.307e-4
-1.691, 1.316e-4
-1.692, 1.325e-4
-1.693, 1.336e-4
-1.694, 1.344e-4
-1.695, 1.353e-4
-1.696, 1.363e-4
-1.697, 1.372e-4
-1.698, 1.381e-4
-1.699, 1.390e-4
-1.700, 1.400e-4
-1.701, 1.410e-4
-1.702, 1.422e-4
-1.703, 1.432e-4
-1.704, 1.443e-4
-1.705, 1.459e-4
-1.706, 1.474e-4
-1.707, 1.480e-4
-1.708, 1.489e-4
-1.709, 1.499e-4
-1.710, 1.510e-4
-1.711, 1.522e-4
-1.712, 1.534e-4
-1.713, 1.546e-4
-1.714, 1.558e-4
-1.715, 1.571e-4
-1.716, 1.585e-4
-1.717, 1.597e-4
-1.718, 1.610e-4
-1.719, 1.625e-4
-1.720, 1.636e-4
-1.721, 1.646e-4
-1.722, 1.658e-4
-1.723, 1.673e-4
-1.724, 1.685e-4
-1.725, 1.697e-4
-1.726, 1.710e-4
-1.727, 1.723e-4
-1.728, 1.737e-4
-1.729, 1.751e-4
-1.730, 1.764e-4
-1.731, 1.778e-4
-1.732, 1.793e-4
-1.733, 1.808e-4
-1.734, 1.822e-4
-1.735, 1.837e-4
-1.736, 1.852e-4
-1.737, 1.867e-4
-1.738, 1.883e-4
-1.739, 1.897e-4
-1.740, 1.913e-4
-1.741, 1.930e-4
-1.742, 1.945e-4
-1.743, 1.959e-4
-1.744, 1.975e-4
-1.745, 1.990e-4
-1.746, 2.006e-4
-1.747, 2.025e-4
-1.748, 2.040e-4
-1.749, 2.057e-4
-1.750, 2.073e-4
-1.751, 2.090e-4
-1.752, 2.107e-4
-1.753, 2.124e-4
-1.754, 2.141e-4
-1.755, 2.159e-4
-1.756, 2.177e-4
-1.757, 2.197e-4
-1.758, 2.215e-4
-1.759, 2.233e-4
-1.760, 2.252e-4
-1.761, 2.271e-4
-1.762, 2.291e-4
-1.763, 2.311e-4
-1.764, 2.329e-4
-1.765, 2.349e-4
-1.766, 2.370e-4
-1.767, 2.391e-4
-1.768, 2.411e-4
-1.769, 2.431e-4
-1.770, 2.451e-4
-1.771, 2.472e-4
-1.772, 2.492e-4
-1.773, 2.513e-4
-1.774, 2.535e-4
-1.775, 2.558e-4
-1.776, 2.579e-4
-1.777, 2.601e-4
-1.778, 2.623e-4
-1.779, 2.646e-4
-1.780, 2.668e-4
-1.781, 2.689e-4
-1.782, 2.712e-4
-1.783, 2.736e-4
-1.784, 2.760e-4
-1.785, 2.783e-4
-1.786, 2.806e-4
-1.787, 2.829e-4
-1.788, 2.855e-4
-1.789, 2.878e-4
-1.790, 2.903e-4
-1.791, 2.927e-4
-1.792, 2.953e-4
-1.793, 2.981e-4
-1.794, 3.004e-4
-1.795, 3.026e-4
-1.796, 3.049e-4
-1.797, 3.070e-4
-1.798, 3.094e-4
-1.799, 3.120e-4
-1.800, 3.144e-4
-1.801, 3.170e-4
-1.802, 3.197e-4
-1.803, 3.225e-4
-1.804, 3.253e-4
-1.805, 3.281e-4
-1.806, 3.308e-4
-1.807, 3.334e-4
-1.808, 3.363e-4
-1.809, 3.389e-4
-1.810, 3.417e-4
-1.811, 3.445e-4
-1.812, 3.474e-4
-1.813, 3.502e-4
-1.814, 3.530e-4
-1.815, 3.561e-4
-1.816, 3.593e-4
-1.817, 3.625e-4
-1.818, 3.656e-4
-1.819, 3.688e-4
-1.820, 3.719e-4
-1.821, 3.751e-4
-1.822, 3.782e-4
-1.823, 3.815e-4
-1.824, 3.848e-4
-1.825, 3.882e-4
-1.826, 3.916e-4
-1.827, 3.950e-4
-1.828, 3.984e-4
-1.829, 4.019e-4
-1.830, 4.054e-4
-1.831, 4.090e-4
-1.832, 4.125e-4
-1.833, 4.161e-4
-1.834, 4.199e-4
-1.835, 4.237e-4
-1.836, 4.275e-4
-1.837, 4.317e-4
-1.838, 4.354e-4
-1.839, 4.390e-4
-1.840, 4.430e-4
-1.841, 4.469e-4
-1.842, 4.507e-4
-1.843, 4.547e-4
-1.844, 4.589e-4
-1.845, 4.630e-4
-1.846, 4.672e-4
-1.847, 4.716e-4
-1.848, 4.758e-4
-1.849, 4.800e-4
-1.850, 4.841e-4
-1.851, 4.883e-4
-1.852, 4.928e-4
-1.853, 4.974e-4
-1.854, 5.016e-4
-1.855, 5.060e-4
-1.856, 5.104e-4
-1.857, 5.149e-4
-1.858, 5.195e-4
-1.859, 5.246e-4
-1.860, 5.300e-4
-1.861, 5.346e-4
-1.862, 5.393e-4
-1.863, 5.440e-4
-1.864, 5.487e-4
-1.865, 5.536e-4
-1.866, 5.584e-4
-1.867, 5.633e-4
-1.868, 5.683e-4
-1.869, 5.733e-4
-1.870, 5.786e-4
-1.871, 5.835e-4
-1.872, 5.886e-4
-1.873, 5.937e-4
-1.874, 5.987e-4
-1.875, 6.037e-4
-1.876, 6.089e-4
-1.877, 6.148e-4
-1.878, 6.211e-4
-1.879, 6.265e-4
-1.880, 6.315e-4
-1.881, 6.363e-4
-1.882, 6.414e-4
-1.883, 6.469e-4
-1.884, 6.524e-4
-1.885, 6.579e-4
-1.886, 6.632e-4
-1.887, 6.687e-4
-1.888, 6.742e-4
-1.889, 6.796e-4
-1.890, 6.850e-4
-1.891, 6.904e-4
-1.892, 6.961e-4
-1.893, 7.019e-4
-1.894, 7.071e-4
-1.895, 7.123e-4
-1.896, 7.176e-4
-1.897, 7.244e-4
-1.898, 7.299e-4
-1.899, 7.349e-4
-1.900, 7.402e-4
-1.901, 7.458e-4
-1.902, 7.515e-4
-1.903, 7.571e-4
-1.904, 7.630e-4
-1.905, 7.689e-4
-1.906, 7.748e-4
-1.907, 7.808e-4
-1.908, 7.868e-4
-1.909, 7.930e-4
-1.910, 7.990e-4
-1.911, 8.051e-4
-1.912, 8.112e-4
-1.913, 8.175e-4
-1.914, 8.236e-4
-1.915, 8.298e-4
-1.916, 8.361e-4
-1.917, 8.423e-4
-1.918, 8.487e-4
-1.919, 8.549e-4
-1.920, 8.612e-4
-1.921, 8.677e-4
-1.922, 8.741e-4
-1.923, 8.808e-4
-1.924, 8.874e-4
-1.925, 8.941e-4
-1.926, 9.006e-4
-1.927, 9.069e-4
-1.928, 9.132e-4
-1.929, 9.197e-4
-1.930, 9.261e-4
-1.931, 9.326e-4
-1.932, 9.394e-4
-1.933, 9.461e-4
-1.934, 9.529e-4
-1.935, 9.597e-4
-1.936, 9.664e-4
-1.937, 9.731e-4
-1.938, 9.799e-4
-1.939, 9.866e-4
-1.940, 9.931e-4
-1.941, 9.997e-4
-1.942, 1.006e-3
-1.943, 1.011e-3
-1.944, 1.011e-3
-1.945, 1.011e-3
-1.946, 1.011e-3
-1.947, 1.011e-3
-1.948, 1.011e-3
-1.949, 1.011e-3
-1.950, 1.011e-3
-1.951, 1.011e-3
-1.952, 1.011e-3
-1.953, 1.011e-3
-1.954, 1.011e-3
-1.955, 1.011e-3
-1.956, 1.011e-3
-1.957, 1.011e-3
-1.958, 1.011e-3
-1.959, 1.011e-3
-1.960, 1.011e-3
-1.961, 1.011e-3
-1.962, 1.011e-3
-1.963, 1.011e-3
-1.964, 1.011e-3
-1.965, 1.011e-3
-1.966, 1.011e-3
-1.967, 1.011e-3
-1.968, 1.011e-3
-1.969, 1.011e-3
-1.970, 1.011e-3
-1.971, 1.011e-3
-1.972, 1.011e-3
-1.973, 1.011e-3
-1.974, 1.011e-3
-1.975, 1.011e-3
-1.976, 1.011e-3
-1.977, 1.011e-3
-1.978, 1.011e-3
-1.979, 1.011e-3
-1.980, 1.011e-3
-1.981, 1.011e-3
-1.982, 1.011e-3
-1.983, 1.011e-3
-1.984, 1.011e-3
-1.985, 1.011e-3
-1.986, 1.011e-3
-1.987, 1.011e-3
-1.988, 1.011e-3
-1.989, 1.011e-3
-1.990, 1.011e-3
-1.991, 1.011e-3
-1.992, 1.011e-3
-1.993, 1.011e-3
-1.994, 1.011e-3
-1.995, 1.011e-3
-1.996, 1.011e-3
-1.997, 1.011e-3
-1.998, 1.011e-3
-1.999, 1.011e-3
-2.000, 1.011e-3
-2.001, 1.011e-3
-2.002, 1.011e-3
-2.003, 1.011e-3
-2.004, 1.011e-3
-2.005, 1.011e-3
-2.006, 1.011e-3
-2.007, 1.011e-3
-2.008, 1.011e-3
-2.009, 1.011e-3
-2.010, 1.011e-3
-2.011, 1.011e-3
-2.012, 1.011e-3
-2.013, 1.011e-3
-2.014, 1.011e-3
-2.015, 1.011e-3
-2.016, 1.011e-3
-2.017, 1.011e-3
-2.018, 1.011e-3
-2.019, 1.011e-3
-2.020, 1.011e-3
-2.021, 1.011e-3
-2.022, 1.011e-3
-2.023, 1.011e-3
-2.024, 1.011e-3
-2.025, 1.011e-3
-2.026, 1.011e-3
-2.027, 1.011e-3
-2.028, 1.011e-3
-2.029, 1.011e-3
-2.030, 1.011e-3
-2.031, 1.011e-3
-2.032, 1.011e-3
-2.033, 1.011e-3
-2.034, 1.011e-3
-2.035, 1.011e-3
-2.036, 1.011e-3
-2.037, 1.011e-3
-2.038, 1.011e-3
-2.039, 1.011e-3
-2.040, 1.011e-3
-2.041, 1.011e-3
-2.042, 1.011e-3
-2.043, 1.011e-3
-2.044, 1.011e-3
-2.045, 1.011e-3
-2.046, 1.011e-3
-2.047, 1.011e-3
-2.048, 1.011e-3
-2.049, 1.011e-3
-2.050, 1.011e-3
-2.051, 1.011e-3
-2.052, 1.011e-3
-2.053, 1.011e-3
-2.054, 1.011e-3
-2.055, 1.011e-3
-2.056, 1.011e-3
-2.057, 1.011e-3
-2.058, 1.011e-3
-2.059, 1.011e-3
-2.060, 1.011e-3
-2.061, 1.011e-3
-2.062, 1.011e-3
-2.063, 1.011e-3
-2.064, 1.011e-3
-2.065, 1.011e-3
-2.066, 1.011e-3
-2.067, 1.011e-3
-2.068, 1.011e-3
-2.069, 1.011e-3
-2.070, 1.011e-3
-2.071, 1.011e-3
-2.072, 1.011e-3
-2.073, 1.011e-3
-2.074, 1.011e-3
-2.075, 1.011e-3
-2.076, 1.011e-3
-2.077, 1.011e-3
-2.078, 1.011e-3
-2.079, 1.011e-3
-2.080, 1.011e-3
-2.081, 1.011e-3
-2.082, 1.011e-3
-2.083, 1.011e-3
-2.084, 1.011e-3
-2.085, 1.011e-3
-2.086, 1.011e-3
-2.087, 1.011e-3
-2.088, 1.011e-3
-2.089, 1.011e-3
-2.090, 1.011e-3
-2.091, 1.011e-3
-2.092, 1.011e-3
-2.093, 1.011e-3
-2.094, 1.011e-3
-2.095, 1.011e-3
-2.096, 1.011e-3
-2.097, 1.011e-3
-2.098, 1.011e-3
-2.099, 1.011e-3
-2.100, 1.011e-3
-2.101, 1.011e-3
-2.102, 1.011e-3
-2.103, 1.011e-3
-2.104, 1.011e-3
-2.105, 1.011e-3
-2.106, 1.011e-3
-2.107, 1.011e-3
-2.108, 1.011e-3
-2.109, 1.011e-3
-2.110, 1.011e-3
-2.111, 1.011e-3
-2.112, 1.011e-3
-2.113, 1.011e-3
-2.114, 1.011e-3
-2.115, 1.011e-3
-2.116, 1.011e-3
-2.117, 1.011e-3
-2.118, 1.011e-3
-2.119, 1.011e-3
-2.120, 1.011e-3
-2.121, 1.011e-3
-2.122, 1.011e-3
-2.123, 1.011e-3
-2.124, 1.011e-3
-2.125, 1.011e-3
-2.126, 1.011e-3
-2.127, 1.011e-3
-2.128, 1.011e-3
-2.129, 1.011e-3
-2.130, 1.011e-3
-2.131, 1.011e-3
-2.132, 1.011e-3
-2.133, 1.011e-3
-2.134, 1.011e-3
-2.135, 1.011e-3
-2.136, 1.011e-3
-2.137, 1.011e-3
-2.138, 1.011e-3
-2.139, 1.011e-3
-2.140, 1.011e-3
-2.141, 1.011e-3
-2.142, 1.011e-3
-2.143, 1.011e-3
-2.144, 1.011e-3
-2.145, 1.011e-3
-2.146, 1.011e-3
-2.147, 1.011e-3
-2.148, 1.011e-3
-2.149, 1.011e-3
-2.150, 1.011e-3
-2.151, 1.011e-3
-2.152, 1.011e-3
-2.153, 1.011e-3
-2.154, 1.011e-3
-2.155, 1.011e-3
-2.156, 1.011e-3
-2.157, 1.011e-3
-2.158, 1.011e-3
-2.159, 1.011e-3
-2.160, 1.011e-3
-2.161, 1.011e-3
-2.162, 1.011e-3
-2.163, 1.011e-3
-2.164, 1.011e-3
-2.165, 1.011e-3
-2.166, 1.011e-3
-2.167, 1.011e-3
-2.168, 1.011e-3
-2.169, 1.011e-3
-2.170, 1.011e-3
-2.171, 1.011e-3
-2.172, 1.011e-3
-2.173, 1.011e-3
-2.174, 1.011e-3
-2.175, 1.011e-3
-2.176, 1.011e-3
-2.177, 1.011e-3
-2.178, 1.011e-3
-2.179, 1.011e-3
-2.180, 1.011e-3
-2.181, 1.011e-3
-2.182, 1.011e-3
-2.183, 1.011e-3
-2.184, 1.011e-3
-2.185, 1.011e-3
-2.186, 1.011e-3
-2.187, 1.011e-3
-2.188, 1.011e-3
-2.189, 1.011e-3
-2.190, 1.011e-3
-2.191, 1.011e-3
-2.192, 1.011e-3
-2.193, 1.011e-3
-2.194, 1.011e-3
-2.195, 1.011e-3
-2.196, 1.011e-3
-2.197, 1.011e-3
-2.198, 1.011e-3
-2.199, 1.011e-3
-2.200, 1.011e-3
-2.201, 1.011e-3
-2.202, 1.011e-3
-2.203, 1.011e-3
-2.204, 1.011e-3
-2.205, 1.011e-3
-2.206, 1.011e-3
-2.207, 1.011e-3
-2.208, 1.011e-3
-2.209, 1.011e-3
-2.210, 1.011e-3
-2.211, 1.011e-3
-2.212, 1.011e-3
-2.213, 1.011e-3
-2.214, 1.011e-3
-2.215, 1.011e-3
-2.216, 1.011e-3
-2.217, 1.011e-3
-2.218, 1.011e-3
-2.219, 1.011e-3
-2.220, 1.011e-3
-2.221, 1.011e-3
-2.222, 1.011e-3
-2.223, 1.011e-3
-2.224, 1.011e-3
-2.225, 1.011e-3
-2.226, 1.011e-3
-2.227, 1.011e-3
-2.228, 1.011e-3
-2.229, 1.011e-3
-2.230, 1.011e-3
-2.231, 1.011e-3
-2.232, 1.011e-3
-2.233, 1.011e-3
-2.234, 1.011e-3
-2.235, 1.011e-3
-2.236, 1.011e-3
-2.237, 1.011e-3
-2.238, 1.011e-3
-2.239, 1.011e-3
-2.240, 1.011e-3
-2.241, 1.011e-3
-2.242, 1.011e-3
-2.243, 1.011e-3
-2.244, 1.011e-3
-2.245, 1.011e-3
-2.246, 1.011e-3
-2.247, 1.011e-3
-2.248, 1.011e-3
-2.249, 1.011e-3
-2.250, 1.011e-3
-2.251, 1.011e-3
-2.252, 1.011e-3
-2.253, 1.011e-3
-2.254, 1.011e-3
-2.255, 1.011e-3
-2.256, 1.011e-3
-2.257, 1.011e-3
-2.258, 1.011e-3
-2.259, 1.011e-3
-2.260, 1.011e-3
-2.261, 1.011e-3
-2.262, 1.011e-3
-2.263, 1.011e-3
-2.264, 1.011e-3
-2.265, 1.011e-3
-2.266, 1.011e-3
-2.267, 1.011e-3
-2.268, 1.011e-3
-2.269, 1.011e-3
-2.270, 1.011e-3
-2.271, 1.011e-3
-2.272, 1.011e-3
-2.273, 1.011e-3
-2.274, 1.011e-3
-2.275, 1.011e-3
-2.276, 1.011e-3
-2.277, 1.011e-3
-2.278, 1.011e-3
-2.279, 1.011e-3
-2.280, 1.011e-3
-2.281, 1.011e-3
-2.282, 1.011e-3
-2.283, 1.011e-3
-2.284, 1.011e-3
-2.285, 1.011e-3
-2.286, 1.011e-3
-2.287, 1.011e-3
-2.288, 1.011e-3
-2.289, 1.011e-3
-2.290, 1.011e-3
-2.291, 1.011e-3
-2.292, 1.011e-3
-2.293, 1.011e-3
-2.294, 1.011e-3
-2.295, 1.011e-3
-2.296, 1.011e-3
-2.297, 1.011e-3
-2.298, 1.011e-3
-2.299, 1.011e-3
