Potential V vs RHE, Current mA cm-2
0.4132999999999999,0.013992909466965077
0.4122999999999999,0.010952694883555115
0.4112999999999999,0.008860336871054727
0.4102999999999999,0.007084874189724104
0.4092999999999999,0.005701286538456097
0.4082999999999999,0.004459170017174596
0.4072999999999999,0.002655413109846674
0.4062999999999999,0.0012382968007718666
0.4052999999999999,-3.181685713396468e-05
0.4042999999999999,-0.0013759482102487345
0.4032999999999999,-0.0027487840556377663
0.4022999999999999,-0.004057392008012925
0.4012999999999999,-0.00577202210344935
0.4002999999999999,-0.006930670658038814
0.3992999999999999,-0.008178446024519778
0.3982999999999999,-0.00959457203568468
0.3972999999999999,-0.010976744975652817
0.3962999999999999,-0.012296670618426897
0.3952999999999999,-0.013564251943105973
0.3942999999999999,-0.014911057100577486
0.39329999999999987,-0.016226738609451972
0.39229999999999987,-0.0175282730053278
0.39129999999999987,-0.018886395853198238
0.39029999999999987,-0.020216224475071376
0.38929999999999987,-0.02163093577493641
0.38829999999999987,-0.022989058622806844
0.38729999999999987,-0.02429059301868268
0.38629999999999987,-0.025521391849565263
0.38529999999999986,-0.026837073358439746
0.38429999999999986,-0.028039577963325023
0.38329999999999986,-0.029058170099227856
0.38229999999999986,-0.029779672862159025
0.38129999999999986,-0.031194384162024056
0.38029999999999986,-0.032722272365878304
0.37929999999999986,-0.03425016056973254
0.37829999999999986,-0.03583463722558138
0.37729999999999986,-0.03652784576251525
0.37629999999999986,-0.037320084090439666
0.37529999999999986,-0.038494294469327645
0.37429999999999986,-0.04017780091616704
0.37329999999999985,-0.04139445263405097
0.37229999999999985,-0.0424413389959511
0.37129999999999985,-0.04360140226184043
0.37029999999999985,-0.04549711540365958
0.36929999999999985,-0.04599226435861234
0.36829999999999985,-0.047647476579454444
0.36729999999999985,-0.04909048210531677
0.36629999999999985,-0.05200478738303874
0.36529999999999985,-0.05271214303297127
0.36429999999999985,-0.05299508529294428
0.36329999999999985,-0.05449467927080121
0.36229999999999984,-0.05572547810168379
0.36129999999999984,-0.05691383559357043
0.36029999999999984,-0.058554900701413864
0.35929999999999984,-0.05933299191633964
0.35829999999999984,-0.06059208497321952
0.35729999999999984,-0.06315271242597524
0.35629999999999984,-0.06411471610988345
0.35529999999999984,-0.06680266757962702
0.35429999999999984,-0.06688755025761894
0.35329999999999984,-0.06801931929751097
0.35229999999999984,-0.0679485837325177
0.35129999999999983,-0.06892473452942459
0.35029999999999983,-0.07140047930418841
0.34929999999999983,-0.07258883679607502
0.34829999999999983,-0.07410257788693062
0.34729999999999983,-0.07587096701176191
0.34629999999999983,-0.07796473973556219
0.34529999999999983,-0.07814865220454463
0.34429999999999983,-0.07887015496747579
0.3432999999999998,-0.08029901338033948
0.3422999999999998,-0.08198251982717887
0.3412999999999998,-0.0824352274431357
0.3402999999999998,-0.0831708773190655
0.3392999999999998,-0.08373676183901152
0.3382999999999998,-0.08506659046088466
0.3372999999999998,-0.08631153640476588
0.3362999999999998,-0.09124887884129487
0.3352999999999998,-0.09160255666626112
0.3342999999999998,-0.09182891047423952
0.3332999999999998,-0.09346997558208296
0.3322999999999998,-0.09629939818181305
0.3312999999999998,-0.0984497593576079
0.3302999999999998,-0.09905808521654987
0.3292999999999998,-0.10023229559543784
0.3282999999999998,-0.10118015216634743
0.3272999999999998,-0.10125088773134068
0.3262999999999998,-0.10241095099723
0.3252999999999999,-0.10497157844998573
0.3242999999999999,-0.10543843317894118
0.3232999999999999,-0.10565063987392094
0.3222999999999999,-0.10689558581780217
0.3212999999999999,-0.10949865460955385
0.3202999999999999,-0.11113971971739729
0.3192999999999999,-0.11282322616423668
0.3182999999999999,-0.11279493193823936
0.3172999999999999,-0.11453502683707338
0.3162999999999999,-0.11706736006383177
0.3152999999999999,-0.1179444810697481
0.3142999999999999,-0.12119831705943768
0.3132999999999999,-0.12323550133124336
0.3122999999999999,-0.1258668643489923
0.3112999999999999,-0.12575368744500312
0.3102999999999999,-0.12545659807203147
0.3092999999999999,-0.12828602067176154
0.3082999999999999,-0.13083250101151858
0.3072999999999999,-0.13378924762823652
0.3062999999999999,-0.13451075039116767
0.3052999999999999,-0.13528884160609345
0.3042999999999999,-0.13543031273607994
0.3032999999999999,-0.1368733182619423
0.3022999999999999,-0.13851438336978575
0.3012999999999999,-0.14189554337646318
0.3002999999999999,-0.1434517258063147
0.2992999999999999,-0.14514937936615277
0.2982999999999999,-0.1465640906660178
0.2972999999999999,-0.14741291744593682
0.2962999999999999,-0.1508082245656129
0.2952999999999999,-0.1509496956955994
0.2942999999999999,-0.15208146473549145
0.2932999999999999,-0.15476941620523502
0.2922999999999999,-0.15547677185516753
0.2912999999999999,-0.15660854089505957
0.2902999999999999,-0.15957943462477614
0.2892999999999999,-0.16042826140469515
0.2882999999999999,-0.1629747417444522
0.2872999999999999,-0.1697653559838044
0.2862999999999999,-0.17061418276372342
0.2852999999999999,-0.16835064468393937
0.2842999999999999,-0.16750181790402036
0.2832999999999999,-0.16863358694391237
0.2822999999999999,-0.17217036519357498
0.2812999999999999,-0.16792623129397988
0.2802999999999999,-0.17075565389370992
0.2792999999999999,-0.17075565389370992
0.2782999999999999,-0.17443390327335903
0.2772999999999999,-0.17556567231325104
0.2762999999999999,-0.18136598864269768
0.2752999999999999,-0.18377099785246825
0.2742999999999999,-0.1847612957623738
0.2732999999999999,-0.1850442380223468
0.2722999999999999,-0.18773218949209036
0.2712999999999999,-0.19084455435179343
0.2702999999999999,-0.19056161209182043
0.2692999999999999,-0.19508868825138856
0.26829999999999987,-0.19579604390132105
0.26729999999999987,-0.19523015938137506
0.26629999999999987,-0.19636192842126707
0.26529999999999987,-0.20244518701068673
0.26429999999999987,-0.20725520543022788
0.26329999999999987,-0.20725520543022788
0.26229999999999987,-0.20626490752032234
0.26129999999999987,-0.20909433012005244
0.26029999999999986,-0.21065051254990397
0.25929999999999986,-0.2044257828304978
0.25829999999999986,-0.20499166735044383
0.25729999999999986,-0.2079625610801604
0.25629999999999986,-0.20966021463999845
0.25529999999999986,-0.21418729079956658
0.25429999999999986,-0.21729965565926962
0.25329999999999986,-0.21857289582914816
0.25229999999999986,-0.2151775887094721
0.25129999999999986,-0.21857289582914816
0.25029999999999986,-0.2245146832885813
0.24929999999999986,-0.22522203893851384
0.24829999999999985,-0.2284758749282034
0.24729999999999985,-0.23781296950731265
0.24629999999999985,-0.24021797871708325
0.24529999999999985,-0.2429059301868268
0.24429999999999985,-0.24446211261667833
0.24329999999999985,-0.250545371206098
0.24229999999999985,-0.2547895051056931
0.24129999999999985,-0.2591751101352747
0.24029999999999985,-0.2615801193450453
0.23929999999999985,-0.2620045327350048
0.23829999999999985,-0.2697854448842625
0.23729999999999984,-0.27148309844410057
0.23629999999999984,-0.2775663570335202
0.23529999999999984,-0.2812446064131693
0.23429999999999984,-0.28308373110299384
0.23329999999999984,-0.2869034516126294
0.23229999999999984,-0.2924208256821031
0.23129999999999984,-0.2960990750617522
0.23029999999999984,-0.3044458717309559
0.22929999999999984,-0.3096803035404565
0.22829999999999984,-0.3108120725803486
0.22729999999999984,-0.3184515135996197
0.22629999999999983,-0.3246762433190259
0.22529999999999983,-0.32580801235891793
0.22429999999999983,-0.3221297629792688
0.22329999999999983,-0.3293447906085805
0.22229999999999983,-0.3320327420783241
0.22129999999999983,-0.3388233563176763
0.22029999999999983,-0.34448220151713643
0.21929999999999983,-0.34858486428674507
0.21829999999999983,-0.34900927767670453
0.21729999999999983,-0.35169722914644813
0.21629999999999983,-0.3594781412957058
0.21529999999999982,-0.36018549694563834
0.21429999999999982,-0.3611757948555439
0.21329999999999982,-0.3614587371155169
0.21229999999999982,-0.3580634299958408
0.21129999999999982,-0.3586293145157868
0.21029999999999982,-0.3580634299958408
0.20929999999999982,-0.36711758231497704
0.20829999999999982,-0.3712202450845856
0.20729999999999982,-0.383952646783371
0.20629999999999982,-0.3822549932235329
0.20529999999999982,-0.3822549932235329
0.20429999999999982,-0.3872064827730605
0.20329999999999981,-0.39244091458256114
0.2022999999999998,-0.39696799074212924
0.2012999999999998,-0.4078612677510901
0.20029999999999992,-0.4125298150406447
0.19929999999999992,-0.41847160250007787
0.19829999999999992,-0.42031072718990237
0.19729999999999992,-0.4280916393391601
0.19629999999999992,-0.4307795908089037
0.19529999999999992,-0.4344578401885528
0.19429999999999992,-0.4320528309787822
0.19329999999999992,-0.43827756069818835
0.19229999999999992,-0.444926703807554
0.19129999999999991,-0.4470487707573516
0.1902999999999999,-0.4442193481576215
0.1892999999999999,-0.44549258832750005
0.1882999999999999,-0.45539556742655535
0.1872999999999999,-0.4671376712154351
0.1862999999999999,-0.47025003607513816
0.1852999999999999,-0.4756259390146253
0.1842999999999999,-0.47180621850498966
0.1832999999999999,-0.46388383522574556
0.1822999999999999,-0.4685523825153001
0.1812999999999999,-0.47520152562466583
0.1802999999999999,-0.48312390890391005
0.1792999999999999,-0.4842556779438021
0.1782999999999999,-0.4900559942732487
0.1772999999999999,-0.49755396416253334
0.1762999999999999,-0.5015151558021554
0.1752999999999999,-0.5064666453516832
0.1742999999999999,-0.5087301834314671
0.1732999999999999,-0.5124084328111163
0.1722999999999999,-0.5143890286309274
0.1712999999999999,-0.52075522948032
0.1702999999999999,-0.5237261232100366
0.1692999999999999,-0.5223114119101716
0.1682999999999999,-0.5231602386900907
0.1672999999999999,-0.5293849684094968
0.1662999999999999,-0.5368829382987814
0.1652999999999999,-0.5408441299384036
0.1642999999999999,-0.539570889768525
0.1632999999999999,-0.5422588412382686
0.1622999999999999,-0.5462200328778907
0.1612999999999999,-0.5484835709576747
0.1602999999999999,-0.5636209818662306
0.1592999999999999,-0.5725336630553803
0.15829999999999989,-0.57578749904507
0.15729999999999988,-0.5926225635134639
0.15629999999999988,-0.6016767158326001
0.15529999999999988,-0.6018181869625866
0.15429999999999988,-0.6047890806923032
0.15329999999999988,-0.6063452631221548
0.15229999999999988,-0.6086088012019387
0.15129999999999988,-0.6025255426125191
0.15029999999999988,-0.6012523024426406
0.14929999999999988,-0.5999790622727621
0.14829999999999988,-0.6091746857218847
0.14729999999999988,-0.6243120966304406
0.14629999999999987,-0.6308197686098198
0.14529999999999987,-0.6419959878787537
0.14429999999999987,-0.6568504565273365
0.14329999999999987,-0.6425618723986997
0.14229999999999987,-0.6084673300719523
0.14129999999999987,-0.5999790622727621
0.14029999999999987,-0.6151164731813179
0.13929999999999987,-0.6254438656703327
0.13829999999999987,-0.6271415192301707
0.13729999999999987,-0.63647861380928
0.13629999999999987,-0.6480792464681732
0.13529999999999986,-0.6496354288980248
0.13429999999999986,-0.6528892648877144
0.13329999999999986,-0.6656216665864998
0.13229999999999986,-0.6684510891862299
0.13129999999999986,-0.6678852046662839
0.13029999999999986,-0.6745343477756495
0.12929999999999986,-0.6820323176649342
0.12829999999999986,-0.7002820934331931
0.12729999999999986,-0.6995747377832607
0.12629999999999986,-0.7041018139428288
0.12529999999999986,-0.7174001001615601
0.12429999999999986,-0.733952222369981
0.12329999999999985,-0.731688684290197
0.12229999999999985,-0.7291422039504398
0.12129999999999985,-0.7355084047998326
0.12029999999999985,-0.7297080884703859
0.11929999999999985,-0.7304154441203184
0.11829999999999985,-0.7414501922592658
0.11729999999999985,-0.7592755546375651
0.11629999999999985,-0.7628123328872277
0.11529999999999985,-0.7763935613659322
0.11429999999999985,-0.8039804317133004
0.11329999999999985,-0.8209569673116808
0.11229999999999984,-0.8368017338701692
0.11129999999999984,-0.8427435213296024
0.11029999999999984,-0.8435923481095214
0.10929999999999984,-0.8360943782202367
0.10829999999999984,-0.8195422560118159
0.10729999999999984,-0.790965087754542
0.10629999999999984,-0.7782326860557566
0.10529999999999984,-0.7814865220454462
0.10429999999999984,-0.7898333187146499
0.10329999999999984,-0.7885600785447714
0.10229999999999984,-0.8049707296232058
0.10129999999999983,-0.8116198727325715
0.10029999999999983,-0.81006369030272
0.09929999999999983,-0.8093563346527874
0.09829999999999983,-0.8196837271418023
0.09729999999999983,-0.8126101706424771
0.09629999999999983,-0.8130345840324366
0.09529999999999983,-0.8246352166913299
0.09429999999999983,-0.8310014175407225
0.09329999999999983,-0.8431679347195619
0.09229999999999983,-0.8663692000373485
0.09129999999999983,-0.8788186594761607
0.09029999999999982,-0.8778283615662553
0.08929999999999982,-0.8820724954658503
0.08829999999999982,-0.8857507448454994
0.08729999999999982,-0.871037747326903
0.08629999999999982,-0.8703303916769705
0.08529999999999982,-0.8649544887374835
0.08429999999999982,-0.8776868904362687
0.08329999999999982,-0.8925413590848515
0.08229999999999982,-0.8973513775043926
0.08129999999999982,-0.8952293105545953
0.08029999999999982,-0.8948048971646357
0.07929999999999982,-0.9042834628737314
0.07829999999999981,-0.9085275967733266
0.07729999999999981,-0.9092349524232591
0.07629999999999981,-0.9160255666626113
0.07529999999999992,-0.9342753424308702
0.07429999999999992,-0.9335679867809377
0.07329999999999992,-0.9249382478517609
0.07229999999999992,-0.9349826980808027
0.07129999999999992,-0.9339924001708971
0.07029999999999992,-0.9379535918105193
0.06929999999999992,-0.9489883399494666
0.06829999999999992,-0.9508274646392911
0.06729999999999992,-0.9727554897871993
0.06629999999999991,-0.9799705174165111
0.06529999999999991,-0.9985032354447428
0.06429999999999991,-1.003313253864284
0.06329999999999991,-0.9777069793367268
0.06229999999999991,-0.9829414111462275
0.06129999999999991,-0.9781313927266864
0.06029999999999991,-0.9769996236867944
0.05929999999999991,-0.9648331065079551
0.05829999999999991,-0.9673795868477121
0.05729999999999991,-0.9844975935760791
0.056299999999999906,-0.9813852287163759
0.055299999999999905,-0.9632769240781034
0.054299999999999904,-0.961154857128306
0.0532999999999999,-0.9699260671874691
0.0522999999999999,-0.9726140186572129
0.0512999999999999,-0.98081934419643
0.0502999999999999,-0.9925614479853098
0.0492999999999999,-0.9994935333546484
0.0482999999999999,-1.0093965124537037
0.0472999999999999,-1.0168944823429882
0.0462999999999999,-1.017035953472975
0.045299999999999896,-1.0191580204227724
0.044299999999999895,-1.025807163532138
0.043299999999999894,-1.0388225074908966
0.04229999999999989,-1.0649946665383996
0.04129999999999989,-1.0552331585693309
0.04029999999999989,-1.0577796389090879
0.03929999999999989,-1.075180587897428
0.03829999999999989,-1.0901765276759974
0.03729999999999989,-1.0838103268266046
0.03629999999999989,-1.0733414632076033
0.03529999999999989,-1.1040406984146747
0.034299999999999886,-1.1268175503425015
0.033299999999999885,-1.1162072155935139
0.032299999999999884,-1.0911668255859028
0.031299999999999883,-1.0832444423066585
0.030299999999999883,-1.074614703377482
0.02929999999999988,-1.103050400504769
0.02829999999999988,-1.115924273333541
0.02729999999999988,-1.1180463402833383
0.02629999999999988,-1.1464820374106257
0.025299999999999878,-1.142379374641017
0.024299999999999877,-1.1360131737916246
0.023299999999999876,-1.1350228758817187
0.022299999999999875,-1.1503017579202612
0.021299999999999875,-1.164590342048898
0.020299999999999874,-1.1702491872483582
0.019299999999999873,-1.1596388524993706
0.018299999999999872,-1.14266231690099
0.01729999999999987,-1.1382767118714086
0.01629999999999987,-1.1207342917530823
0.01529999999999987,-1.1290810884222857
0.014299999999999868,-1.1542629495598833
0.013299999999999867,-1.1546873629498429
0.012299999999999978,-1.146906450800585
0.011299999999999866,-1.1590729679794245
0.010299999999999976,-1.1691174182084663
0.009299999999999864,-1.1913283856163475
0.008299999999999974,-1.215661419974026
0.007299999999999862,-1.2070316810448494
0.006299999999999972,-1.2105684592945118
0.00529999999999986,-1.2109928726844712
0.0042999999999999705,-1.201372835845389
0.0032999999999998586,-1.2057584408749709
0.0022999999999999687,-1.2313647154025278
0.0012999999999998568,-1.2373065028619612
0.00029999999999996696,-1.237589445121934
-0.000700000000000145,-1.233345311222339
-0.0017000000000000348,-1.245087415011219
-0.0027000000000001467,-1.2595174702698424
-0.0037000000000000366,-1.2674398535490865
-0.0047000000000001485,-1.2725328142286005
-0.005700000000000038,-1.277201361518155
-0.00670000000000015,-1.285831100447332
-0.00770000000000004,-1.28469933140744
-0.008700000000000152,-1.285548158187359
-0.009700000000000042,-1.294602310506495
-0.010700000000000154,-1.2998367423159956
-0.011700000000000044,-1.305495587515456
-0.012700000000000156,-1.329404208483175
-0.013700000000000045,-1.3722699608690856
-0.014700000000000157,-1.3804752864083027
-0.015700000000000047,-1.3992909466965078
-0.01670000000000016,-1.3977347642666564
-0.01770000000000005,-1.3814655843182082
-0.01870000000000016,-1.3763726236386942
-0.01970000000000005,-1.387265900647655
-0.020700000000000163,-1.394622399406953
-0.021700000000000053,-1.4175407224647667
-0.022700000000000164,-1.4387613919627424
-0.023700000000000054,-1.4571526388609877
-0.024700000000000166,-1.4557379275611226
-0.025700000000000056,-1.459982061460718
-0.026700000000000168,-1.4571526388609877
-0.027700000000000058,-1.4698850405597732
-0.02870000000000017,-1.459982061460718
-0.02970000000000006,-1.461396772760583
-0.03070000000000017,-1.4585673501608527
-0.03170000000000006,-1.471299751859638
-0.03270000000000017,-1.4840321535584236
-0.03370000000000006,-1.4896909987578837
-0.034700000000000175,-1.4854468648582886
-0.035700000000000065,-1.5038381117565338
-0.03670000000000018,-1.5193999360550492
-0.03770000000000007,-1.5151558021554543
-0.03870000000000018,-1.501008689156804
-0.03970000000000007,-1.506667534356264
-0.04070000000000018,-1.5208146473549145
-0.04170000000000007,-1.5349617603535646
-0.04270000000000018,-1.54769416205235
-0.04370000000000007,-1.54486473945262
-0.044700000000000184,-1.5675001202504606
-0.045700000000000074,-1.5901355010483011
-0.046700000000000186,-1.584476655848841
-0.047700000000000076,-1.5887207897484361
-0.04870000000000019,-1.5887207897484361
-0.04970000000000008,-1.5887207897484361
-0.05070000000000019,-1.584476655848841
-0.05170000000000008,-1.580232521949246
-0.05270000000000019,-1.5901355010483011
-0.05370000000000008,-1.6056973253468165
-0.05470000000000019,-1.5957943462477613
-0.05570000000000008,-1.5915502123481662
-0.056700000000000195,-1.583061944548976
-0.057700000000000085,-1.5957943462477613
-0.058700000000000196,-1.5943796349478963
-0.059700000000000086,-1.6014531914472214
-0.0607000000000002,-1.6056973253468165
-0.06170000000000009,-1.6339915513441174
-0.0627000000000002,-1.6467239530429028
-0.06370000000000009,-1.6736034677403384
-0.0647000000000002,-1.6707740451406083
-0.06570000000000009,-1.6637004886412832
-0.0667000000000002,-1.6481386643427678
-0.0677000000000001,-1.6481386643427678
-0.0687000000000002,-1.6693593338407433
-0.0697000000000001,-1.6679446225408785
-0.07070000000000021,-1.656626932141958
-0.0717000000000001,-1.656626932141958
-0.07270000000000021,-1.6665299112410132
-0.0737000000000001,-1.6764328903400685
-0.07470000000000021,-1.6820917355395286
-0.0757000000000001,-1.696238848538179
-0.07670000000000021,-1.6863358694391237
-0.0777000000000001,-1.6863358694391237
-0.07870000000000021,-1.7033124050375041
-0.0797000000000001,-1.7146300954364246
-0.08070000000000022,-1.7330213423346699
