Potential V vs RHE, Current mA cm-2
0.013299999999999867,2.843569712728724
0.012299999999999978,1.3107300193249565
0.011299999999999866,0.012310817731425549
0.010299999999999976,-0.9962396973649587
0.009299999999999864,-2.001816489309027
0.008299999999999974,-2.7770782816350668
0.007299999999999862,-3.507069312365426
0.006299999999999972,-4.198863137999429
0.00529999999999986,-4.694012092952192
0.0042999999999999705,-5.299508529294427
0.0032999999999998586,-5.721092496654209
0.0022999999999999687,-6.15682357701264
0.0012999999999998568,-6.605287059069856
0.00029999999999996696,-6.900961720741648
-0.000700000000000145,-7.306983863802915
-0.0017000000000000348,-7.568705454277946
-0.0027000000000001467,-7.853062425550818
-0.0037000000000000366,-8.158640066321666
-0.0047000000000001485,-8.321331865806146
-0.005700000000000038,-8.615591816178071
-0.00670000000000015,-8.774039481762957
-0.00770000000000004,-8.962196084645006
-0.008700000000000152,-9.174402779624762
-0.009700000000000042,-9.291823817513562
-0.010700000000000154,-9.499786378593722
-0.011700000000000044,-9.61720741648252
-0.012700000000000156,-9.733213743071452
-0.013700000000000045,-9.887417274756743
-0.014700000000000157,-9.953908705850399
-0.015700000000000047,-10.099623969736497
-0.01670000000000016,-10.15904184433083
-0.01770000000000005,-10.273633459619896
-0.01870000000000016,-10.388225074908965
-0.01970000000000005,-10.430666413904916
-0.020700000000000163,-10.58628465689007
-0.021700000000000053,-10.60043176988872
-0.022700000000000164,-10.685314447880621
-0.023700000000000054,-10.787173661470904
-0.024700000000000166,-10.784344238871176
-0.025700000000000056,-10.9088388332593
-0.026700000000000168,-10.889032875061186
-0.027700000000000058,-10.935718347956733
-0.02870000000000017,-11.000795067750527
-0.02970000000000006,-10.969671419153494
-0.03070000000000017,-11.091336590941888
-0.03170000000000006,-11.092751302241753
-0.03270000000000017,-11.135192641237705
-0.03370000000000006,-11.213001762730281
-0.034700000000000175,-11.17904869153352
-0.035700000000000065,-11.283737327723532
-0.03670000000000018,-11.225734164429067
-0.03770000000000007,-11.331837511918945
-0.03870000000000018,-11.333252223218809
-0.03970000000000007,-11.208757628830686
-0.04070000000000018,-11.35588760401665
-0.04170000000000007,-11.272419637324612
-0.04270000000000018,-11.299299152022046
-0.04370000000000007,-11.323349244119754
-0.044700000000000184,-11.289396172922991
-0.045700000000000074,-11.385596541313816
-0.046700000000000186,-11.35022875881719
-0.047700000000000076,-11.33891106841827
-0.04870000000000019,-11.34739933621746
-0.04970000000000008,-11.252613679126501
-0.05070000000000019,-11.290810884222859
-0.05170000000000008,-11.222904741829336
-0.05270000000000019,-11.20734291753082
-0.05370000000000008,-11.235637143528121
-0.05470000000000019,-11.162072155935139
-0.05570000000000008,-11.229978298328662
-0.056700000000000195,-11.163486867235004
-0.057700000000000085,-11.145095620336757
-0.058700000000000196,-11.13660735253757
-0.059700000000000086,-11.046065829346206
-0.0607000000000002,-11.080018900542967
-0.06170000000000009,-11.043236406746477
-0.0627000000000002,-11.055968808445261
-0.06370000000000009,-11.072945344043642
-0.0647000000000002,-10.951280172255249
-0.06570000000000009,-10.975330264352955
-0.0667000000000002,-10.8480062473651
-0.0677000000000001,-10.849420958664966
-0.0687000000000002,-10.850835669964832
-0.0697000000000001,-10.754635301574009
-0.07070000000000021,-10.790003084070635
-0.0717000000000001,-10.703705694778867
-0.07270000000000021,-10.654190799283592
-0.0737000000000001,-10.635799552385345
-0.07470000000000021,-10.505646112797763
-0.0757000000000001,-10.512719669297088
-0.07670000000000021,-10.436325259104375
-0.0777000000000001,-10.379736807109774
-0.07870000000000021,-10.413689878306533
-0.0797000000000001,-10.306171819516793
-0.08070000000000022,-10.316074798615848
-0.0817000000000001,-10.214215585025565
-0.08270000000000022,-10.174603668629343
-0.08370000000000011,-10.174603668629343
-0.08470000000000022,-10.078403300238522
-0.08570000000000011,-10.098209258436631
-0.08670000000000022,-10.018985425644189
-0.08770000000000011,-9.983617643147563
-0.08870000000000022,-9.98503235444743
-0.08970000000000011,-9.880343718257414
-0.09070000000000022,-9.911467366854446
-0.09170000000000011,-9.826584688862544
-0.09270000000000023,-9.761507969068754
-0.09370000000000012,-9.7516049899697
-0.09470000000000023,-9.641257508580225
-0.09570000000000012,-9.673795868477121
-0.09670000000000023,-9.605889726083598
-0.09770000000000012,-9.58042492268603
-0.09870000000000023,-9.593157324384812
-0.09970000000000012,-9.48563926559507
-0.10070000000000023,-9.509689357692777
-0.10170000000000012,-9.42056254580128
-0.10270000000000024,-9.38660947460452
-0.10370000000000013,-9.402171298903033
-0.10470000000000024,-9.2861649723141
-0.10570000000000013,-9.338509290409108
-0.10670000000000024,-9.26070016891653
-0.10770000000000013,-9.230991231619363
-0.10870000000000024,-9.23806478811869
-0.10970000000000013,-9.126302595429351
-0.11070000000000024,-9.177232202224493
-0.11170000000000013,-9.109326059830972
-0.11270000000000002,-9.107911348531106
-0.11370000000000013,-9.151767398826921
-0.11470000000000002,-8.982002042843117
-0.11570000000000014,-9.007466846240689
-0.11670000000000003,-8.936731281247436
-0.11770000000000014,-8.940975415147031
-0.11870000000000003,-8.955122528145683
-0.11970000000000014,-8.85892215975486
-0.12070000000000003,-8.911266477849864
-0.12170000000000014,-8.865995716254185
-0.12270000000000003,-8.88438696315243
-0.12370000000000014,-8.92116945694892
-0.12470000000000003,-8.817895532058774
-0.12570000000000014,-8.868825138853914
-0.12670000000000003,-8.789601306061472
-0.12770000000000015,-8.740086410566196
-0.12870000000000004,-8.764136502663902
-0.12970000000000015,-8.697645071570244
-0.13070000000000004,-8.765551213963766
-0.13170000000000015,-8.727354008867412
-0.13270000000000004,-8.735842276666602
-0.13370000000000015,-8.758477657464443
-0.13470000000000004,-8.67076555687281
-0.13570000000000015,-8.71320689586876
-0.13670000000000004,-8.67359497947254
-0.13770000000000016,-8.66510671167335
-0.13870000000000005,-8.706133339369435
-0.13970000000000016,-8.63398306307632
-0.14070000000000005,-8.716036318468491
-0.14170000000000016,-8.666521422973215
-0.14270000000000005,-8.666521422973215
-0.14370000000000016,-8.7075480506693
-0.14470000000000005,-8.63681248567605
-0.14570000000000016,-8.700474494169976
-0.14670000000000005,-8.663692000373485
-0.14770000000000016,-8.666521422973215
-0.14870000000000005,-8.716036318468491
-0.14970000000000017,-8.650959598674698
-0.15070000000000006,-8.723109874967816
-0.15170000000000017,-8.689156803771056
-0.15270000000000006,-8.691986226370785
-0.15370000000000017,-8.751404100965116
-0.15470000000000006,-8.690571515070921
-0.15570000000000017,-8.785357172161877
-0.15670000000000006,-8.755648234864712
-0.15770000000000017,-8.758477657464443
-0.15870000000000006,-8.817895532058774
-0.15970000000000018,-8.759892368764307
-0.16070000000000007,-8.846189758056074
-0.16170000000000018,-8.822139665958368
-0.16270000000000007,-8.849019180655803
-0.16370000000000018,-8.923998879548652
-0.16470000000000007,-8.88438696315243
-0.16570000000000018,-8.966440218544603
-0.16670000000000007,-8.943804837746763
-0.16770000000000018,-8.955122528145683
-0.16870000000000007,-9.034346360938125
-0.16970000000000018,-8.997563867141633
-0.17070000000000007,-9.109326059830972
-0.17170000000000019,-9.096593658132186
-0.17270000000000008,-9.120643750229892
-0.1737000000000002,-9.185720470023682
-0.17470000000000008,-9.158840955326248
-0.1757000000000002,-9.252211901117338
-0.17670000000000008,-9.245138344618015
-0.1777000000000002,-9.287579683613965
-0.17870000000000008,-9.361144671206947
-0.1797000000000002,-9.352656403407758
-0.18070000000000008,-9.468662729996689
-0.1817000000000002,-9.487053976894938
-0.18270000000000008,-9.547886562789131
-0.1837000000000002,-9.629939818181304
-0.1847000000000001,-9.605889726083598
-0.1857000000000002,-9.720481341372667
-0.1867000000000001,-9.724725475272262
-0.1877000000000002,-9.768581525568079
-0.1887000000000001,-9.904393810355122
-0.1897000000000002,-9.928443902452829
-0.1907000000000001,-9.98503235444743
-0.1917000000000001,-9.980788220547833
-0.19269999999999998,-9.99635004484635
-0.1937000000000001,-10.115185794035014
-0.19469999999999998,-10.183091936428536
-0.1957000000000001,-10.317489509915713
-0.19669999999999999,-10.344369024613147
-0.1977000000000001,-10.38398094100937
-0.1987,-10.495743133698706
-0.1997000000000001,-10.491498999799111
-0.2007,-10.642873108884672
-0.2017000000000001,-10.685314447880621
-0.2027,-10.765952991972927
-0.2037000000000001,-10.89044758636105
-0.2047,-10.906009410659568
-0.2057000000000001,-11.068701210144049
-0.2067,-11.087092457042292
-0.2077000000000001,-11.173389846334059
-0.2087,-11.273834348624478
-0.2097000000000001,-11.299299152022046
-0.2107,-11.445014415908147
-0.2117000000000001,-11.559606031197214
-0.2127,-11.703906583783448
-0.2137000000000001,-11.86659838326793
-0.2147,-11.954310483859562
-0.2157000000000001,-12.107099304244983
-0.2167,-12.121246417243634
-0.21770000000000012,-12.224520342133783
-0.2187,-12.312232442725414
-0.21970000000000012,-12.37306502861961
-0.2207,-12.56405105410139
-0.22170000000000012,-12.68996035978938
-0.2227,-12.794648995979392
-0.22370000000000012,-12.913484745168056
-0.2247,-12.95168195026441
-0.22570000000000012,-13.153985666145111
-0.2267,-13.226135942438228
-0.22770000000000012,-13.34214226902716
-0.22870000000000001,-13.571325499605297
-0.22970000000000013,-13.656208177597199
-0.23070000000000002,-13.89246496467466
-0.23170000000000013,-13.915100345472501
-0.23270000000000002,-14.004227157363998
-0.23370000000000013,-14.161260111649016
-0.23470000000000002,-14.30273124163552
-0.23570000000000013,-14.500790823616628
-0.23670000000000002,-14.61396772760583
-0.2376999999999999,-14.741291744593681
-0.23870000000000002,-14.967645552572087
-0.2396999999999999,-15.05252823056399
-0.24070000000000003,-15.278882038542395
-0.24169999999999991,-15.406206055530248
-0.24270000000000003,-15.519382959519453
-0.24369999999999992,-15.731589654499205
-0.24470000000000003,-15.816472332491113
-0.24569999999999992,-16.056973253468165
-0.24670000000000003,-16.19844438345467
-0.24769999999999992,-16.382356852437127
-0.24870000000000003,-16.60871066041553
-0.24969999999999992,-16.693593338407435
-0.25070000000000003,-16.90580003338719
-0.2516999999999999,-17.03312405037504
-0.25270000000000004,-17.174595180361546
-0.2536999999999999,-17.4150961013386
-0.25470000000000004,-17.528273005327804
-0.2556999999999999,-17.782921039303513
-0.25670000000000004,-17.924392169290012
-0.25769999999999993,-18.09415752527382
-0.25870000000000004,-18.348805559249524
-0.25969999999999993,-18.518570915233333
-0.26070000000000004,-18.80151317520634
-0.26169999999999993,-18.95713141819149
-0.26270000000000004,-19.141043887173947
-0.26369999999999993,-19.339103469155052
-0.26470000000000005,-19.452280373144255
-0.26569999999999994,-19.73522263311726
-0.26670000000000005,-19.919135102099716
-0.26769999999999994,-20.06060623208622
-0.26870000000000005,-20.315254266061928
-0.26969999999999994,-20.456725396048434
-0.27070000000000005,-20.73966765602144
-0.27169999999999994,-21.121639706984997
-0.27270000000000005,-21.16408104598095
-0.27369999999999994,-21.2631108369715
-0.27470000000000006,-21.560200209943158
-0.27569999999999995,-21.786554017921564
-0.27670000000000006,-22.04120205189727
-0.27769999999999995,-22.15437895588647
-0.27870000000000006,-22.40902698986218
-0.27969999999999995,-22.564645232847337
-0.28070000000000006,-22.890028831816295
-0.28169999999999995,-23.073941300798747
-0.28270000000000006,-23.328589334774456
-0.28369999999999995,-23.61153159474746
-0.28470000000000006,-23.738855611735314
-0.28569999999999995,-24.078386323702922
-0.28670000000000007,-24.389622809673234
-0.28769999999999996,-24.44621126166783
-0.28870000000000007,-24.71500640864219
-0.28969999999999996,-24.785741973635442
-0.29070000000000007,-25.054537120609798
-0.29169999999999996,-25.238449589592253
-0.29270000000000007,-25.49309762356796
-0.29369999999999996,-25.719451431546364
-0.2947000000000001,-25.889216787530174
-0.29569999999999996,-26.18630616050183
-0.2967000000000001,-26.440954194477534
-0.29769999999999996,-26.709749341451893
-0.2987000000000001,-26.9643973754276
-0.29969999999999997,-27.120015618412754
-0.3007000000000001,-27.40295787838576
-0.30169999999999997,-27.530281895373616
-0.3027000000000001,-27.742488590353368
-0.30369999999999997,-27.98298951133043
-0.3047000000000001,-28.15275486731423
-0.30569999999999997,-28.478138466283188
-0.3067000000000001,-28.676198048264297
-0.3077,-28.88840474324405
-0.3087000000000001,-29.18549411621571
-0.3097,-29.31281813320356
-0.3107000000000001,-29.63820173217252
-0.3117,-29.76552574916037
-0.3127000000000001,-30.00602667013743
-0.3137,-30.260674704113132
-0.3147000000000001,-30.359704495103685
-0.3157,-30.54361696408614
-0.3167000000000001,-30.854853450056453
-0.3177,-31.024618806040255
-0.3187000000000001,-31.335855292010564
-0.3197,-31.449032195999767
-0.3207000000000001,-31.717827342974125
-0.3217,-31.972475376949827
-0.3227000000000001,-32.14224073293363
-0.3237,-32.368594540912035
-0.3247000000000001,-32.58080123589179
-0.3257,-32.764713704874254
-0.3267000000000001,-33.00521462585131
-0.3277,-33.21742132083106
-0.3287000000000001,-33.52865780680137
-0.3297,-33.698423162785176
-0.3307000000000001,-33.96721830975953
-0.3317,-34.193572117737936
-0.3327000000000001,-34.39163169971904
-0.3337,-34.6604268466934
-0.3347000000000001,-34.87263354167316
-0.3357,-35.169722914644815
-0.3367000000000001,-35.311194044631314
-0.3377,-35.57998919160567
-0.3387000000000001,-35.83463722558138
-0.3397,-36.06099103355979
-0.3407000000000001,-36.3439332935328
-0.3417,-36.570287101511205
-0.3427000000000001,-36.83908224848555
-0.3437,-37.178612960453165
-0.3447000000000001,-37.46155522042617
-0.3457,-37.82938015839108
-0.3467000000000001,-38.154763757360044
-0.3477,-38.5367358083236
-0.3487000000000001,-38.91870785928716
-0.3497,-39.060178989273666
-0.3507000000000001,-39.47044526623452
-0.3517,-39.85241731719808
-0.3527000000000001,-40.27683070715759
-0.3537,-40.92759790509552
-0.3547000000000001,-41.42274686004827
-0.3557,-41.81886602401048
-0.35670000000000013,-42.37060343095784
-0.3577,-42.89404661190791
-0.35870000000000013,-43.51651958384853
-0.3597,-44.054109877797245
-0.36070000000000013,-44.74731841473111
-0.3617,-45.42637983866633
-0.3626999999999999,-46.091294149602895
-0.3637,-46.95426804252057
-0.3646999999999999,-47.87383038743284
-0.3657,-48.84998118433972
-0.3666999999999999,-49.656366625262784
-0.3677,-50.56178185717641
-0.3686999999999999,-51.481344202088685
-0.36970000000000003,-52.386759434002315
-0.3706999999999999,-53.50438136089569
-0.37170000000000003,-54.480532157802564
-0.3726999999999999,-55.59815408469595
-0.37370000000000003,-56.64504044659606
-0.3746999999999999,-57.649485469500235
-0.37570000000000003,-58.79540162239092
-0.3766999999999999,-60.02620045327351
-0.37770000000000004,-61.21455794516014
-0.3786999999999999,-62.58682790602922
-0.37970000000000004,-64.0439805448902
-0.3806999999999999,-65.43039761875795
-0.38170000000000004,-66.76022624063107
-0.38269999999999993,-68.04761352350828
-0.38370000000000004,-69.25011812839355
-0.38469999999999993,-70.49506407227477
-0.38570000000000004,-71.93806959813712
-0.38669999999999993,-71.95221671113578
-0.38570000000000004,-71.01850725322484
-0.38469999999999993,-70.59409386326533
-0.38370000000000004,-70.02820934331933
-0.38269999999999993,-69.6320901793571
-0.38170000000000004,-68.93888164242324
-0.3806999999999999,-68.33055578348127
-0.37970000000000004,-67.8354068285285
-0.3786999999999999,-67.04316850060408
-0.37770000000000004,-66.20848883368372
-0.3766999999999999,-65.3596620537647
-0.37570000000000003,-64.69474774282813
-0.3746999999999999,-63.88836230190506
-0.37370000000000003,-63.08197686098199
-0.3726999999999999,-62.37462121104946
-0.37170000000000003,-61.61067710912235
-0.3706999999999999,-60.74770321620468
-0.36970000000000003,-59.9696120012789
-0.3686999999999999,-59.07834388236393
-0.3677,-58.32854689343546
-0.3666999999999999,-57.479720113516436
-0.3657,-56.61674622059877
-0.3646999999999999,-55.90939057066625
-0.3637,-55.088858016744524
-0.3626999999999999,-54.19758989782956
-0.3617,-53.19314487492538
-0.36070000000000013,-52.25943541701445
-0.3597,-51.580373993079235
-0.35870000000000013,-50.68910587416426
-0.3577,-50.06663290222365
-0.35670000000000013,-49.18951189630732
-0.3557,-48.29824377739235
-0.3547000000000001,-47.57674101446119
-0.3537,-46.643031556550255
-0.3527000000000001,-45.83664611562718
-0.3517,-45.12929046569467
-0.3507000000000001,-44.25216945977835
-0.3497,-43.61554937483908
-0.3487000000000001,-42.90819372490656
-0.3477,-42.25742652696865
-0.3467000000000001,-41.29542284306042
-0.3457,-40.6729498711198
-0.3447000000000001,-39.79582886520348
-0.3437,-38.89041363328986
-0.3427000000000001,-38.154763757360044
-0.3417,-37.376672542434264
-0.3407000000000001,-36.655169779503105
-0.3397,-36.00440258156518
-0.3387000000000001,-35.254605592636715
-0.3377,-34.60383839469879
-0.3367000000000001,-33.825747179773025
-0.3357,-33.14668575583781
-0.3347000000000001,-32.5525070098945
-0.3337,-31.802710020966025
-0.3327000000000001,-31.19438416202406
-0.3317,-30.45873428609424
-0.3307000000000001,-29.836261314153624
-0.3297,-29.213788342213007
-0.3287000000000001,-28.52057980527914
-0.3277,-27.98298951133043
-0.3267000000000001,-27.31807520039386
-0.3257,-26.709749341451893
-0.3247000000000001,-26.15801193450453
-0.3237,-25.507244736566612
-0.3227000000000001,-24.941360216620595
-0.3217,-24.290593018682678
-0.3207000000000001,-23.795444063729917
-0.3197,-23.342736447773106
-0.3187000000000001,-22.592939458844636
-0.3177,-22.15437895588647
-0.3167000000000001,-21.51775887094721
-0.3157,-21.050904141991744
-0.3147000000000001,-20.555755187038983
-0.3137,-19.97572355409432
-0.3127000000000001,-19.466427486142905
-0.3117,-18.97127853119014
-0.3107000000000001,-18.49027668923603
-0.3097,-18.02342196028057
-0.3087000000000001,-17.429243214337255
-0.3077,-17.047271163373694
-0.3067000000000001,-16.59456354741688
-0.30569999999999997,-16.099414592464115
-0.3047000000000001,-15.70329542850191
-0.30369999999999997,-15.208146473549144
-0.3027000000000001,-14.797880196588284
-0.30169999999999997,-14.345172580631472
-0.3007000000000001,-13.90095323247385
-0.29969999999999997,-13.543031273607996
-0.2987000000000001,-13.073347122052803
-0.29769999999999996,-12.716839874486816
-0.2967000000000001,-12.317891287924875
-0.29569999999999996,-11.914698567463338
-0.2947000000000001,-11.594973813693839
-0.29369999999999996,-11.198854649731631
-0.29270000000000007,-10.877715184662266
-0.29169999999999996,-10.477351886800463
-0.29070000000000007,-10.127918195733796
-0.28969999999999996,-9.818096421063354
-0.28870000000000007,-9.410659566702224
-0.28769999999999996,-9.122058461529756
-0.28670000000000007,-8.77545419306282
-0.28569999999999995,-8.452900016693595
-0.28470000000000006,-8.1855195810191
-0.28369999999999995,-7.786570994457163
-0.28270000000000006,-7.5743642994774065
-0.28169999999999995,-7.246151277908718
-0.28070000000000006,-6.94623248233733
-0.27969999999999995,-6.714219829159464
-0.27870000000000006,-6.3548831589937445
-0.27769999999999995,-6.144091175313854
-0.27670000000000006,-5.8682224718401725
-0.27569999999999995,-5.596597902266086
-0.27470000000000006,-5.421173701082821
-0.27369999999999994,-5.104278369913052
-0.27270000000000005,-4.923195323530328
-0.27169999999999994,-4.679864979953542
-0.27070000000000005,-4.42380223467797
-0.26969999999999994,-4.251207456094435
-0.26870000000000005,-3.956947505722508
-0.26769999999999994,-3.7772791706396474
-0.26670000000000005,-3.5381929609624567
-0.26569999999999994,-3.3005214625851305
