Mar. 31, 2025   16:25:35
Cyclic Voltammetry
File: c:/users/guazh/data/banditlqround7_x0exp518_r20/2025-03-28-exp1001\exp1001-2025-03-31t16_20_09-h2koh\exp1001_cv_sr_50mvs_efin_-1400mv.bin
Data Source:  Experiment
Instrument Model:  CHI760E
Header: CV ran at 50 mVs
Note: 

Init E (V) = -1
High E (V) = -1
Low E (V) = -1.4
Final E (V) = -1
Init P/N = N
Scan Rate (V/s) = 0.05
Segment = 3
Sample Interval (V) = 0.001
Quiet Time (sec) = 2
Sensitivity (A/V) = 0.01
Comp R (ohm) = 1.7

Results:

Channel 1:
Segment 1:

Segment 2:

Segment 3:

Potential/V, Current/A

-1.000, -2.172e-4
-1.001, -1.190e-4
-1.002, -4.719e-5
-1.003, 9.321e-6
-1.004, 5.598e-5
-1.005, 9.197e-5
-1.006, 1.227e-4
-1.007, 1.496e-4
-1.008, 1.752e-4
-1.009, 1.977e-4
-1.010, 2.159e-4
-1.011, 2.312e-4
-1.012, 2.463e-4
-1.013, 2.607e-4
-1.014, 2.752e-4
-1.015, 2.868e-4
-1.016, 2.952e-4
-1.017, 3.048e-4
-1.018, 3.149e-4
-1.019, 3.229e-4
-1.020, 3.302e-4
-1.021, 3.351e-4
-1.022, 3.425e-4
-1.023, 3.508e-4
-1.024, 3.561e-4
-1.025, 3.600e-4
-1.026, 3.633e-4
-1.027, 3.699e-4
-1.028, 3.764e-4
-1.029, 3.802e-4
-1.030, 3.826e-4
-1.031, 3.852e-4
-1.032, 3.885e-4
-1.033, 3.923e-4
-1.034, 3.960e-4
-1.035, 3.981e-4
-1.036, 3.992e-4
-1.037, 4.018e-4
-1.038, 4.058e-4
-1.039, 4.081e-4
-1.040, 4.087e-4
-1.041, 4.103e-4
-1.042, 4.098e-4
-1.043, 4.107e-4
-1.044, 4.133e-4
-1.045, 4.127e-4
-1.046, 4.122e-4
-1.047, 4.141e-4
-1.048, 4.160e-4
-1.049, 4.167e-4
-1.050, 4.168e-4
-1.051, 4.163e-4
-1.052, 4.169e-4
-1.053, 4.172e-4
-1.054, 4.171e-4
-1.055, 4.157e-4
-1.056, 4.149e-4
-1.057, 4.152e-4
-1.058, 4.162e-4
-1.059, 4.164e-4
-1.060, 4.144e-4
-1.061, 4.111e-4
-1.062, 4.119e-4
-1.063, 4.142e-4
-1.064, 4.135e-4
-1.065, 4.105e-4
-1.066, 4.078e-4
-1.067, 4.067e-4
-1.068, 4.076e-4
-1.069, 4.060e-4
-1.070, 4.050e-4
-1.071, 4.035e-4
-1.072, 4.011e-4
-1.073, 4.008e-4
-1.074, 4.013e-4
-1.075, 4.015e-4
-1.076, 3.990e-4
-1.077, 3.967e-4
-1.078, 3.961e-4
-1.079, 3.949e-4
-1.080, 3.908e-4
-1.081, 3.904e-4
-1.082, 3.899e-4
-1.083, 3.877e-4
-1.084, 3.863e-4
-1.085, 3.841e-4
-1.086, 3.826e-4
-1.087, 3.818e-4
-1.088, 3.809e-4
-1.089, 3.797e-4
-1.090, 3.786e-4
-1.091, 3.773e-4
-1.092, 3.757e-4
-1.093, 3.753e-4
-1.094, 3.741e-4
-1.095, 3.730e-4
-1.096, 3.694e-4
-1.097, 3.664e-4
-1.098, 3.666e-4
-1.099, 3.671e-4
-1.100, 3.644e-4
-1.101, 3.621e-4
-1.102, 3.634e-4
-1.103, 3.634e-4
-1.104, 3.614e-4
-1.105, 3.593e-4
-1.106, 3.576e-4
-1.107, 3.573e-4
-1.108, 3.584e-4
-1.109, 3.574e-4
-1.110, 3.554e-4
-1.111, 3.544e-4
-1.112, 3.531e-4
-1.113, 3.534e-4
-1.114, 3.532e-4
-1.115, 3.514e-4
-1.116, 3.502e-4
-1.117, 3.494e-4
-1.118, 3.510e-4
-1.119, 3.513e-4
-1.120, 3.492e-4
-1.121, 3.473e-4
-1.122, 3.474e-4
-1.123, 3.487e-4
-1.124, 3.496e-4
-1.125, 3.473e-4
-1.126, 3.471e-4
-1.127, 3.472e-4
-1.128, 3.474e-4
-1.129, 3.476e-4
-1.130, 3.469e-4
-1.131, 3.458e-4
-1.132, 3.463e-4
-1.133, 3.475e-4
-1.134, 3.476e-4
-1.135, 3.468e-4
-1.136, 3.462e-4
-1.137, 3.487e-4
-1.138, 3.487e-4
-1.139, 3.497e-4
-1.140, 3.512e-4
-1.141, 3.489e-4
-1.142, 3.489e-4
-1.143, 3.503e-4
-1.144, 3.516e-4
-1.145, 3.515e-4
-1.146, 3.517e-4
-1.147, 3.525e-4
-1.148, 3.552e-4
-1.149, 3.553e-4
-1.150, 3.562e-4
-1.151, 3.567e-4
-1.152, 3.571e-4
-1.153, 3.588e-4
-1.154, 3.604e-4
-1.155, 3.611e-4
-1.156, 3.626e-4
-1.157, 3.619e-4
-1.158, 3.649e-4
-1.159, 3.672e-4
-1.160, 3.674e-4
-1.161, 3.683e-4
-1.162, 3.693e-4
-1.163, 3.716e-4
-1.164, 3.752e-4
-1.165, 3.765e-4
-1.166, 3.770e-4
-1.167, 3.795e-4
-1.168, 3.816e-4
-1.169, 3.850e-4
-1.170, 3.859e-4
-1.171, 3.857e-4
-1.172, 3.890e-4
-1.173, 3.936e-4
-1.174, 3.963e-4
-1.175, 3.959e-4
-1.176, 3.955e-4
-1.177, 4.021e-4
-1.178, 4.074e-4
-1.179, 4.096e-4
-1.180, 4.099e-4
-1.181, 4.106e-4
-1.182, 4.148e-4
-1.183, 4.202e-4
-1.184, 4.228e-4
-1.185, 4.255e-4
-1.186, 4.274e-4
-1.187, 4.299e-4
-1.188, 4.345e-4
-1.189, 4.392e-4
-1.190, 4.422e-4
-1.191, 4.444e-4
-1.192, 4.468e-4
-1.193, 4.523e-4
-1.194, 4.570e-4
-1.195, 4.604e-4
-1.196, 4.648e-4
-1.197, 4.684e-4
-1.198, 4.731e-4
-1.199, 4.784e-4
-1.200, 4.816e-4
-1.201, 4.852e-4
-1.202, 4.891e-4
-1.203, 4.949e-4
-1.204, 5.026e-4
-1.205, 5.071e-4
-1.206, 5.110e-4
-1.207, 5.142e-4
-1.208, 5.198e-4
-1.209, 5.262e-4
-1.210, 5.318e-4
-1.211, 5.393e-4
-1.212, 5.424e-4
-1.213, 5.482e-4
-1.214, 5.561e-4
-1.215, 5.606e-4
-1.216, 5.650e-4
-1.217, 5.690e-4
-1.218, 5.793e-4
-1.219, 5.880e-4
-1.220, 5.933e-4
-1.221, 5.961e-4
-1.222, 6.019e-4
-1.223, 6.101e-4
-1.224, 6.185e-4
-1.225, 6.252e-4
-1.226, 6.303e-4
-1.227, 6.371e-4
-1.228, 6.481e-4
-1.229, 6.578e-4
-1.230, 6.630e-4
-1.231, 6.672e-4
-1.232, 6.733e-4
-1.233, 6.816e-4
-1.234, 6.912e-4
-1.235, 6.978e-4
-1.236, 7.070e-4
-1.237, 7.148e-4
-1.238, 7.208e-4
-1.239, 7.291e-4
-1.240, 7.389e-4
-1.241, 7.491e-4
-1.242, 7.558e-4
-1.243, 7.626e-4
-1.244, 7.726e-4
-1.245, 7.802e-4
-1.246, 7.896e-4
-1.247, 7.994e-4
-1.248, 8.072e-4
-1.249, 8.172e-4
-1.250, 8.267e-4
-1.251, 8.378e-4
-1.252, 8.477e-4
-1.253, 8.577e-4
-1.254, 8.620e-4
-1.255, 8.704e-4
-1.256, 8.800e-4
-1.257, 8.903e-4
-1.258, 9.004e-4
-1.259, 9.082e-4
-1.260, 9.188e-4
-1.261, 9.303e-4
-1.262, 9.396e-4
-1.263, 9.483e-4
-1.264, 9.557e-4
-1.265, 9.633e-4
-1.266, 9.772e-4
-1.267, 9.897e-4
-1.268, 9.984e-4
-1.269, 1.005e-3
-1.270, 1.014e-3
-1.271, 1.024e-3
-1.272, 1.034e-3
-1.273, 1.044e-3
-1.274, 1.055e-3
-1.275, 1.066e-3
-1.276, 1.071e-3
-1.277, 1.079e-3
-1.278, 1.095e-3
-1.279, 1.106e-3
-1.280, 1.112e-3
-1.281, 1.118e-3
-1.282, 1.129e-3
-1.283, 1.140e-3
-1.284, 1.149e-3
-1.285, 1.159e-3
-1.286, 1.167e-3
-1.287, 1.177e-3
-1.288, 1.189e-3
-1.289, 1.197e-3
-1.290, 1.202e-3
-1.291, 1.209e-3
-1.292, 1.219e-3
-1.293, 1.231e-3
-1.294, 1.243e-3
-1.295, 1.253e-3
-1.296, 1.259e-3
-1.297, 1.268e-3
-1.298, 1.274e-3
-1.299, 1.284e-3
-1.300, 1.295e-3
-1.301, 1.302e-3
-1.302, 1.309e-3
-1.303, 1.321e-3
-1.304, 1.332e-3
-1.305, 1.341e-3
-1.306, 1.348e-3
-1.307, 1.358e-3
-1.308, 1.367e-3
-1.309, 1.372e-3
-1.310, 1.384e-3
-1.311, 1.398e-3
-1.312, 1.408e-3
-1.313, 1.417e-3
-1.314, 1.423e-3
-1.315, 1.434e-3
-1.316, 1.450e-3
-1.317, 1.462e-3
-1.318, 1.474e-3
-1.319, 1.484e-3
-1.320, 1.494e-3
-1.321, 1.508e-3
-1.322, 1.518e-3
-1.323, 1.535e-3
-1.324, 1.561e-3
-1.325, 1.570e-3
-1.326, 1.581e-3
-1.327, 1.597e-3
-1.328, 1.622e-3
-1.329, 1.638e-3
-1.330, 1.655e-3
-1.331, 1.674e-3
-1.332, 1.704e-3
-1.333, 1.729e-3
-1.334, 1.752e-3
-1.335, 1.775e-3
-1.336, 1.804e-3
-1.337, 1.835e-3
-1.338, 1.874e-3
-1.339, 1.907e-3
-1.340, 1.944e-3
-1.341, 1.975e-3
-1.342, 2.013e-3
-1.343, 2.062e-3
-1.344, 2.115e-3
-1.345, 2.160e-3
-1.346, 2.202e-3
-1.347, 2.248e-3
-1.348, 2.308e-3
-1.349, 2.364e-3
-1.350, 2.428e-3
-1.351, 2.489e-3
-1.352, 2.545e-3
-1.353, 2.602e-3
-1.354, 2.663e-3
-1.355, 2.734e-3
-1.356, 2.801e-3
-1.357, 2.877e-3
-1.358, 2.938e-3
-1.359, 2.998e-3
-1.360, 3.073e-3
-1.361, 3.153e-3
-1.362, 3.217e-3
-1.363, 3.280e-3
-1.364, 3.353e-3
-1.365, 3.442e-3
-1.366, 3.524e-3
-1.367, 3.578e-3
-1.368, 3.655e-3
-1.369, 3.734e-3
-1.370, 3.795e-3
-1.371, 3.856e-3
-1.372, 3.938e-3
-1.373, 4.034e-3
-1.374, 4.109e-3
-1.375, 4.169e-3
-1.376, 4.235e-3
-1.377, 4.312e-3
-1.378, 4.392e-3
-1.379, 4.472e-3
-1.380, 4.539e-3
-1.381, 4.612e-3
-1.382, 4.700e-3
-1.383, 4.773e-3
-1.384, 4.842e-3
-1.385, 4.908e-3
-1.386, 4.975e-3
-1.387, 5.059e-3
-1.388, 5.151e-3
-1.389, 5.231e-3
-1.390, 5.313e-3
-1.391, 5.343e-3
-1.392, 5.396e-3
-1.393, 5.487e-3
-1.394, 5.569e-3
-1.395, 5.632e-3
-1.396, 5.692e-3
-1.397, 5.756e-3
-1.398, 5.849e-3
-1.399, 5.936e-3
-1.400, 5.893e-3
-1.399, 5.788e-3
-1.398, 5.704e-3
-1.397, 5.628e-3
-1.396, 5.562e-3
-1.395, 5.475e-3
-1.394, 5.394e-3
-1.393, 5.286e-3
-1.392, 5.223e-3
-1.391, 5.174e-3
-1.390, 5.103e-3
-1.389, 5.023e-3
-1.388, 4.940e-3
-1.387, 4.865e-3
-1.386, 4.792e-3
-1.385, 4.712e-3
-1.384, 4.637e-3
-1.383, 4.555e-3
-1.382, 4.473e-3
-1.381, 4.389e-3
-1.380, 4.311e-3
-1.379, 4.246e-3
-1.378, 4.166e-3
-1.377, 4.090e-3
-1.376, 4.011e-3
-1.375, 3.941e-3
-1.374, 3.876e-3
-1.373, 3.819e-3
-1.372, 3.752e-3
-1.371, 3.685e-3
-1.370, 3.617e-3
-1.369, 3.549e-3
-1.368, 3.493e-3
-1.367, 3.444e-3
-1.366, 3.385e-3
-1.365, 3.326e-3
-1.364, 3.261e-3
-1.363, 3.202e-3
-1.362, 3.134e-3
-1.361, 3.071e-3
-1.360, 3.018e-3
-1.359, 2.951e-3
-1.358, 2.892e-3
-1.357, 2.826e-3
-1.356, 2.772e-3
-1.355, 2.730e-3
-1.354, 2.680e-3
-1.353, 2.637e-3
-1.352, 2.580e-3
-1.351, 2.530e-3
-1.350, 2.481e-3
-1.349, 2.423e-3
-1.348, 2.372e-3
-1.347, 2.324e-3
-1.346, 2.267e-3
-1.345, 2.219e-3
-1.344, 2.169e-3
-1.343, 2.119e-3
-1.342, 2.072e-3
-1.341, 2.028e-3
-1.340, 1.982e-3
-1.339, 1.936e-3
-1.338, 1.888e-3
-1.337, 1.840e-3
-1.336, 1.800e-3
-1.335, 1.762e-3
-1.334, 1.713e-3
-1.333, 1.682e-3
-1.332, 1.639e-3
-1.331, 1.597e-3
-1.330, 1.556e-3
-1.329, 1.525e-3
-1.328, 1.487e-3
-1.327, 1.446e-3
-1.326, 1.417e-3
-1.325, 1.383e-3
-1.324, 1.352e-3
-1.323, 1.325e-3
-1.322, 1.285e-3
-1.321, 1.250e-3
-1.320, 1.216e-3
-1.319, 1.185e-3
-1.318, 1.157e-3
-1.317, 1.127e-3
-1.316, 1.094e-3
-1.315, 1.065e-3
-1.314, 1.036e-3
-1.313, 1.010e-3
-1.312, 9.797e-4
-1.311, 9.496e-4
-1.310, 9.164e-4
-1.309, 8.889e-4
-1.308, 8.625e-4
-1.307, 8.386e-4
-1.306, 8.123e-4
-1.305, 7.860e-4
-1.304, 7.640e-4
-1.303, 7.442e-4
-1.302, 7.234e-4
-1.301, 7.007e-4
-1.300, 6.776e-4
-1.299, 6.569e-4
-1.298, 6.393e-4
-1.297, 6.209e-4
-1.296, 6.005e-4
-1.295, 5.833e-4
-1.294, 5.630e-4
-1.293, 5.430e-4
-1.292, 5.264e-4
-1.291, 5.110e-4
-1.290, 4.911e-4
-1.289, 4.722e-4
-1.288, 4.563e-4
-1.287, 4.427e-4
-1.286, 4.258e-4
-1.285, 4.095e-4
-1.284, 3.949e-4
-1.283, 3.809e-4
-1.282, 3.685e-4
-1.281, 3.544e-4
-1.280, 3.379e-4
-1.279, 3.250e-4
-1.278, 3.107e-4
-1.277, 2.998e-4
-1.276, 2.889e-4
-1.275, 2.760e-4
-1.274, 2.643e-4
-1.273, 2.525e-4
-1.272, 2.417e-4
-1.271, 2.300e-4
-1.270, 2.194e-4
-1.269, 2.085e-4
-1.268, 1.971e-4
-1.267, 1.862e-4
-1.266, 1.796e-4
-1.265, 1.673e-4
-1.264, 1.566e-4
-1.263, 1.485e-4
-1.262, 1.391e-4
-1.261, 1.313e-4
-1.260, 1.211e-4
-1.259, 1.107e-4
-1.258, 1.040e-4
-1.257, 9.666e-5
-1.256, 8.972e-5
-1.255, 8.199e-5
-1.254, 7.426e-5
-1.253, 6.627e-5
-1.252, 5.816e-5
-1.251, 5.203e-5
-1.250, 4.481e-5
-1.249, 3.803e-5
-1.248, 3.331e-5
-1.247, 2.688e-5
-1.246, 2.057e-5
-1.245, 1.449e-5
-1.244, 7.733e-6
-1.243, 1.695e-6
-1.242, -4.067e-6
-1.241, -9.365e-6
-1.240, -1.387e-5
-1.239, -1.860e-5
-1.238, -2.196e-5
-1.237, -2.521e-5
-1.236, -3.083e-5
-1.235, -3.832e-5
-1.234, -4.503e-5
-1.233, -5.008e-5
-1.232, -5.264e-5
-1.231, -5.616e-5
-1.230, -6.140e-5
-1.229, -6.816e-5
-1.228, -7.206e-5
-1.227, -7.475e-5
-1.226, -7.862e-5
-1.225, -8.180e-5
-1.224, -8.688e-5
-1.223, -9.230e-5
-1.222, -9.530e-5
-1.221, -9.802e-5
-1.220, -1.025e-4
-1.219, -1.051e-4
-1.218, -1.061e-4
-1.217, -1.083e-4
-1.216, -1.112e-4
-1.215, -1.160e-4
-1.214, -1.208e-4
-1.213, -1.240e-4
-1.212, -1.267e-4
-1.211, -1.291e-4
-1.210, -1.350e-4
-1.209, -1.400e-4
-1.208, -1.399e-4
-1.207, -1.405e-4
-1.206, -1.447e-4
-1.205, -1.483e-4
-1.204, -1.523e-4
-1.203, -1.549e-4
-1.202, -1.564e-4
-1.201, -1.585e-4
-1.200, -1.604e-4
-1.199, -1.624e-4
-1.198, -1.646e-4
-1.197, -1.658e-4
-1.196, -1.687e-4
-1.195, -1.707e-4
-1.194, -1.730e-4
-1.193, -1.754e-4
-1.192, -1.775e-4
-1.191, -1.789e-4
-1.190, -1.835e-4
-1.189, -1.850e-4
-1.188, -1.845e-4
-1.187, -1.845e-4
-1.186, -1.867e-4
-1.185, -1.900e-4
-1.184, -1.932e-4
-1.183, -1.953e-4
-1.182, -1.970e-4
-1.181, -1.989e-4
-1.180, -2.029e-4
-1.179, -2.056e-4
-1.178, -2.083e-4
-1.177, -2.100e-4
-1.176, -2.103e-4
-1.175, -2.116e-4
-1.174, -2.135e-4
-1.173, -2.144e-4
-1.172, -2.154e-4
-1.171, -2.173e-4
-1.170, -2.213e-4
-1.169, -2.240e-4
-1.168, -2.243e-4
-1.167, -2.242e-4
-1.166, -2.271e-4
-1.165, -2.312e-4
-1.164, -2.331e-4
-1.163, -2.321e-4
-1.162, -2.325e-4
-1.161, -2.340e-4
-1.160, -2.370e-4
-1.159, -2.394e-4
-1.158, -2.396e-4
-1.157, -2.394e-4
-1.156, -2.410e-4
-1.155, -2.443e-4
-1.154, -2.465e-4
-1.153, -2.469e-4
-1.152, -2.467e-4
-1.151, -2.495e-4
-1.150, -2.543e-4
-1.149, -2.556e-4
-1.148, -2.559e-4
-1.147, -2.546e-4
-1.146, -2.564e-4
-1.145, -2.594e-4
-1.144, -2.626e-4
-1.143, -2.632e-4
-1.142, -2.634e-4
-1.141, -2.638e-4
-1.140, -2.670e-4
-1.139, -2.695e-4
-1.138, -2.712e-4
-1.137, -2.715e-4
-1.136, -2.724e-4
-1.135, -2.755e-4
-1.134, -2.788e-4
-1.133, -2.813e-4
-1.132, -2.825e-4
-1.131, -2.844e-4
-1.130, -2.848e-4
-1.129, -2.864e-4
-1.128, -2.862e-4
-1.127, -2.873e-4
-1.126, -2.888e-4
-1.125, -2.913e-4
-1.124, -2.952e-4
-1.123, -2.973e-4
-1.122, -2.989e-4
-1.121, -3.015e-4
-1.120, -3.031e-4
-1.119, -3.053e-4
-1.118, -3.068e-4
-1.117, -3.071e-4
-1.116, -3.093e-4
-1.115, -3.131e-4
-1.114, -3.178e-4
-1.113, -3.210e-4
-1.112, -3.221e-4
-1.111, -3.253e-4
-1.110, -3.281e-4
-1.109, -3.282e-4
-1.108, -3.282e-4
-1.107, -3.296e-4
-1.106, -3.320e-4
-1.105, -3.349e-4
-1.104, -3.368e-4
-1.103, -3.394e-4
-1.102, -3.414e-4
-1.101, -3.450e-4
-1.100, -3.488e-4
-1.099, -3.506e-4
-1.098, -3.527e-4
-1.097, -3.540e-4
-1.096, -3.571e-4
-1.095, -3.605e-4
-1.094, -3.645e-4
-1.093, -3.665e-4
-1.092, -3.693e-4
-1.091, -3.719e-4
-1.090, -3.761e-4
-1.089, -3.794e-4
-1.088, -3.822e-4
-1.087, -3.848e-4
-1.086, -3.881e-4
-1.085, -3.929e-4
-1.084, -3.987e-4
-1.083, -4.019e-4
-1.082, -4.034e-4
-1.081, -4.054e-4
-1.080, -4.087e-4
-1.079, -4.137e-4
-1.078, -4.139e-4
-1.077, -4.179e-4
-1.076, -4.243e-4
-1.075, -4.304e-4
-1.074, -4.341e-4
-1.073, -4.373e-4
-1.072, -4.406e-4
-1.071, -4.454e-4
-1.070, -4.502e-4
-1.069, -4.553e-4
-1.068, -4.603e-4
-1.067, -4.631e-4
-1.066, -4.667e-4
-1.065, -4.732e-4
-1.064, -4.788e-4
-1.063, -4.850e-4
-1.062, -4.897e-4
-1.061, -4.940e-4
-1.060, -4.996e-4
-1.059, -5.056e-4
-1.058, -5.114e-4
-1.057, -5.145e-4
-1.056, -5.210e-4
-1.055, -5.279e-4
-1.054, -5.336e-4
-1.053, -5.386e-4
-1.052, -5.445e-4
-1.051, -5.491e-4
-1.050, -5.562e-4
-1.049, -5.630e-4
-1.048, -5.695e-4
-1.047, -5.763e-4
-1.046, -5.840e-4
-1.045, -5.902e-4
-1.044, -5.970e-4
-1.043, -6.035e-4
-1.042, -6.118e-4
-1.041, -6.171e-4
-1.040, -6.234e-4
-1.039, -6.331e-4
-1.038, -6.407e-4
-1.037, -6.473e-4
-1.036, -6.562e-4
-1.035, -6.658e-4
-1.034, -6.741e-4
-1.033, -6.808e-4
-1.032, -6.870e-4
-1.031, -6.954e-4
-1.030, -7.065e-4
-1.029, -7.171e-4
-1.028, -7.262e-4
-1.027, -7.332e-4
-1.026, -7.430e-4
-1.025, -7.530e-4
-1.024, -7.654e-4
-1.023, -7.778e-4
-1.022, -7.867e-4
-1.021, -7.941e-4
-1.020, -8.050e-4
-1.019, -8.169e-4
-1.018, -8.269e-4
-1.017, -8.369e-4
-1.016, -8.533e-4
-1.015, -8.651e-4
-1.014, -8.775e-4
-1.013, -8.860e-4
-1.012, -8.940e-4
-1.011, -9.077e-4
-1.010, -9.200e-4
-1.009, -9.334e-4
-1.008, -9.459e-4
-1.007, -9.581e-4
-1.006, -9.722e-4
-1.005, -9.842e-4
-1.004, -1.000e-3
-1.003, -1.014e-3
-1.002, -1.028e-3
-1.001, -1.043e-3
