June 27, 2026   04:00:49
Cyclic Voltammetry
File: c:/users/guazh/data/20260623_doe_duplica2/2026-06-24-exp20\exp20-2026-06-27t03_40_04-arkoh\exp20_cv_sr_600mvs_efin_-1900mv.bin
Data Source:  Experiment
Instrument Model:  CHI760E
Header: CV ran at 600 mVs
Note: 

Init E (V) = -1
High E (V) = -1
Low E (V) = -1.9
Final E (V) = -1
Init P/N = N
Scan Rate (V/s) = 0.6
Segment = 3
Sample Interval (V) = 0.001
Quiet Time (sec) = 2
Sensitivity (A/V) = 0.01
Comp R (ohm) = 2.4

Results:

Channel 1:
Segment 1:

Segment 2:

Segment 3:

Potential/V, Current/A

-1.000, 1.559e-7
-1.001, 1.559e-7
-1.002, 1.559e-7
-1.003, 1.559e-7
-1.004, 1.559e-7
-1.005, 1.559e-7
-1.006, 1.559e-7
-1.007, 1.559e-7
-1.008, 1.559e-7
-1.009, 1.559e-7
-1.010, 1.559e-7
-1.011, 1.559e-7
-1.012, 1.559e-7
-1.013, 1.559e-7
-1.014, 3.239e-6
-1.015, 1.559e-7
-1.016, 1.559e-7
-1.017, 1.559e-7
-1.018, 1.559e-7
-1.019, 1.559e-7
-1.020, 1.559e-7
-1.021, 1.559e-7
-1.022, 1.559e-7
-1.023, 1.559e-7
-1.024, 1.559e-7
-1.025, 3.239e-6
-1.026, 1.559e-7
-1.027, 3.239e-6
-1.028, 1.559e-7
-1.029, 1.559e-7
-1.030, 3.239e-6
-1.031, 3.239e-6
-1.032, 1.559e-7
-1.033, 3.239e-6
-1.034, 3.239e-6
-1.035, 1.559e-7
-1.036, 3.239e-6
-1.037, 3.239e-6
-1.038, 1.559e-7
-1.039, 3.239e-6
-1.040, 3.239e-6
-1.041, 3.239e-6
-1.042, 3.239e-6
-1.043, 3.239e-6
-1.044, 3.239e-6
-1.045, 3.239e-6
-1.046, 3.239e-6
-1.047, 3.239e-6
-1.048, 3.239e-6
-1.049, 3.239e-6
-1.050, 3.239e-6
-1.051, 3.239e-6
-1.052, 1.559e-7
-1.053, 3.239e-6
-1.054, 3.239e-6
-1.055, 3.239e-6
-1.056, 3.239e-6
-1.057, 3.239e-6
-1.058, 3.239e-6
-1.059, 3.239e-6
-1.060, 3.239e-6
-1.061, 3.239e-6
-1.062, 3.239e-6
-1.063, 3.239e-6
-1.064, 3.239e-6
-1.065, 3.239e-6
-1.066, 3.239e-6
-1.067, 3.239e-6
-1.068, 3.239e-6
-1.069, 3.239e-6
-1.070, 3.239e-6
-1.071, 3.239e-6
-1.072, 3.239e-6
-1.073, 3.239e-6
-1.074, 3.239e-6
-1.075, 3.239e-6
-1.076, 3.239e-6
-1.077, 3.239e-6
-1.078, 3.239e-6
-1.079, 3.239e-6
-1.080, 3.239e-6
-1.081, 3.239e-6
-1.082, 3.239e-6
-1.083, 3.239e-6
-1.084, 3.239e-6
-1.085, 3.239e-6
-1.086, 3.239e-6
-1.087, 3.239e-6
-1.088, 3.239e-6
-1.089, 3.239e-6
-1.090, 3.239e-6
-1.091, 3.239e-6
-1.092, 3.239e-6
-1.093, 3.239e-6
-1.094, 3.239e-6
-1.095, 3.239e-6
-1.096, 3.239e-6
-1.097, 3.239e-6
-1.098, 3.239e-6
-1.099, 3.239e-6
-1.100, 3.239e-6
-1.101, 6.322e-6
-1.102, 3.239e-6
-1.103, 3.239e-6
-1.104, 3.239e-6
-1.105, 3.239e-6
-1.106, 3.239e-6
-1.107, 3.239e-6
-1.108, 3.239e-6
-1.109, 3.239e-6
-1.110, 3.239e-6
-1.111, 3.239e-6
-1.112, 6.322e-6
-1.113, 3.239e-6
-1.114, 3.239e-6
-1.115, 3.239e-6
-1.116, 3.239e-6
-1.117, 3.239e-6
-1.118, 6.322e-6
-1.119, 3.239e-6
-1.120, 3.239e-6
-1.121, 6.322e-6
-1.122, 3.239e-6
-1.123, 3.239e-6
-1.124, 6.322e-6
-1.125, 3.239e-6
-1.126, 6.322e-6
-1.127, 6.322e-6
-1.128, 3.239e-6
-1.129, 3.239e-6
-1.130, 6.322e-6
-1.131, 3.239e-6
-1.132, 6.322e-6
-1.133, 3.239e-6
-1.134, 3.239e-6
-1.135, 6.322e-6
-1.136, 6.322e-6
-1.137, 3.239e-6
-1.138, 3.239e-6
-1.139, 6.322e-6
-1.140, 3.239e-6
-1.141, 6.322e-6
-1.142, 3.239e-6
-1.143, 6.322e-6
-1.144, 6.322e-6
-1.145, 6.322e-6
-1.146, 6.322e-6
-1.147, 6.322e-6
-1.148, 3.239e-6
-1.149, 6.322e-6
-1.150, 6.322e-6
-1.151, 6.322e-6
-1.152, 6.322e-6
-1.153, 6.322e-6
-1.154, 6.322e-6
-1.155, 6.322e-6
-1.156, 6.322e-6
-1.157, 6.322e-6
-1.158, 6.322e-6
-1.159, 3.239e-6
-1.160, 6.322e-6
-1.161, 6.322e-6
-1.162, 3.239e-6
-1.163, 6.322e-6
-1.164, 6.322e-6
-1.165, 6.322e-6
-1.166, 6.322e-6
-1.167, 6.322e-6
-1.168, 6.322e-6
-1.169, 6.322e-6
-1.170, 6.322e-6
-1.171, 6.322e-6
-1.172, 6.322e-6
-1.173, 6.322e-6
-1.174, 6.322e-6
-1.175, 6.322e-6
-1.176, 6.322e-6
-1.177, 6.322e-6
-1.178, 6.322e-6
-1.179, 6.322e-6
-1.180, 6.322e-6
-1.181, 6.322e-6
-1.182, 6.322e-6
-1.183, 6.322e-6
-1.184, 6.322e-6
-1.185, 6.322e-6
-1.186, 6.322e-6
-1.187, 6.322e-6
-1.188, 6.322e-6
-1.189, 6.322e-6
-1.190, 6.322e-6
-1.191, 6.322e-6
-1.192, 6.322e-6
-1.193, 6.322e-6
-1.194, 6.322e-6
-1.195, 6.322e-6
-1.196, 6.322e-6
-1.197, 6.322e-6
-1.198, 6.322e-6
-1.199, 6.322e-6
-1.200, 6.322e-6
-1.201, 6.322e-6
-1.202, 6.322e-6
-1.203, 6.322e-6
-1.204, 6.322e-6
-1.205, 6.322e-6
-1.206, 6.322e-6
-1.207, 6.322e-6
-1.208, 6.322e-6
-1.209, 6.322e-6
-1.210, 6.322e-6
-1.211, 6.322e-6
-1.212, 6.322e-6
-1.213, 6.322e-6
-1.214, 6.322e-6
-1.215, 6.322e-6
-1.216, 6.322e-6
-1.217, 9.405e-6
-1.218, 6.322e-6
-1.219, 6.322e-6
-1.220, 6.322e-6
-1.221, 6.322e-6
-1.222, 6.322e-6
-1.223, 6.322e-6
-1.224, 6.322e-6
-1.225, 6.322e-6
-1.226, 6.322e-6
-1.227, 6.322e-6
-1.228, 6.322e-6
-1.229, 9.405e-6
-1.230, 6.322e-6
-1.231, 9.405e-6
-1.232, 6.322e-6
-1.233, 6.322e-6
-1.234, 6.322e-6
-1.235, 6.322e-6
-1.236, 6.322e-6
-1.237, 9.405e-6
-1.238, 6.322e-6
-1.239, 6.322e-6
-1.240, 9.405e-6
-1.241, 6.322e-6
-1.242, 6.322e-6
-1.243, 6.322e-6
-1.244, 6.322e-6
-1.245, 6.322e-6
-1.246, 9.405e-6
-1.247, 6.322e-6
-1.248, 9.405e-6
-1.249, 9.405e-6
-1.250, 6.322e-6
-1.251, 9.405e-6
-1.252, 9.405e-6
-1.253, 6.322e-6
-1.254, 9.405e-6
-1.255, 9.405e-6
-1.256, 9.405e-6
-1.257, 9.405e-6
-1.258, 6.322e-6
-1.259, 9.405e-6
-1.260, 9.405e-6
-1.261, 9.405e-6
-1.262, 9.405e-6
-1.263, 9.405e-6
-1.264, 9.405e-6
-1.265, 9.405e-6
-1.266, 9.405e-6
-1.267, 9.405e-6
-1.268, 9.405e-6
-1.269, 9.405e-6
-1.270, 9.405e-6
-1.271, 9.405e-6
-1.272, 9.405e-6
-1.273, 9.405e-6
-1.274, 9.405e-6
-1.275, 9.405e-6
-1.276, 9.405e-6
-1.277, 9.405e-6
-1.278, 9.405e-6
-1.279, 9.405e-6
-1.280, 9.405e-6
-1.281, 9.405e-6
-1.282, 9.405e-6
-1.283, 9.405e-6
-1.284, 9.405e-6
-1.285, 9.405e-6
-1.286, 9.405e-6
-1.287, 9.405e-6
-1.288, 9.405e-6
-1.289, 9.405e-6
-1.290, 9.405e-6
-1.291, 9.405e-6
-1.292, 9.405e-6
-1.293, 9.405e-6
-1.294, 9.405e-6
-1.295, 9.405e-6
-1.296, 9.405e-6
-1.297, 9.405e-6
-1.298, 9.405e-6
-1.299, 9.405e-6
-1.300, 9.405e-6
-1.301, 9.405e-6
-1.302, 9.405e-6
-1.303, 9.405e-6
-1.304, 9.405e-6
-1.305, 9.405e-6
-1.306, 9.405e-6
-1.307, 9.405e-6
-1.308, 9.405e-6
-1.309, 9.405e-6
-1.310, 9.405e-6
-1.311, 1.249e-5
-1.312, 9.405e-6
-1.313, 9.405e-6
-1.314, 9.405e-6
-1.315, 9.405e-6
-1.316, 9.405e-6
-1.317, 9.405e-6
-1.318, 9.405e-6
-1.319, 9.405e-6
-1.320, 9.405e-6
-1.321, 9.405e-6
-1.322, 9.405e-6
-1.323, 9.405e-6
-1.324, 9.405e-6
-1.325, 1.249e-5
-1.326, 9.405e-6
-1.327, 9.405e-6
-1.328, 1.249e-5
-1.329, 9.405e-6
-1.330, 1.249e-5
-1.331, 1.249e-5
-1.332, 9.405e-6
-1.333, 1.249e-5
-1.334, 9.405e-6
-1.335, 9.405e-6
-1.336, 1.249e-5
-1.337, 9.405e-6
-1.338, 9.405e-6
-1.339, 1.249e-5
-1.340, 9.405e-6
-1.341, 1.249e-5
-1.342, 9.405e-6
-1.343, 9.405e-6
-1.344, 9.405e-6
-1.345, 9.405e-6
-1.346, 9.405e-6
-1.347, 1.249e-5
-1.348, 1.249e-5
-1.349, 9.405e-6
-1.350, 1.249e-5
-1.351, 1.249e-5
-1.352, 9.405e-6
-1.353, 1.249e-5
-1.354, 1.249e-5
-1.355, 1.249e-5
-1.356, 1.249e-5
-1.357, 9.405e-6
-1.358, 1.249e-5
-1.359, 1.249e-5
-1.360, 1.249e-5
-1.361, 1.249e-5
-1.362, 1.249e-5
-1.363, 1.249e-5
-1.364, 1.249e-5
-1.365, 1.249e-5
-1.366, 1.249e-5
-1.367, 1.249e-5
-1.368, 1.249e-5
-1.369, 1.249e-5
-1.370, 1.249e-5
-1.371, 1.249e-5
-1.372, 1.249e-5
-1.373, 1.249e-5
-1.374, 1.249e-5
-1.375, 1.249e-5
-1.376, 1.249e-5
-1.377, 1.249e-5
-1.378, 1.249e-5
-1.379, 1.249e-5
-1.380, 1.249e-5
-1.381, 1.249e-5
-1.382, 1.249e-5
-1.383, 1.249e-5
-1.384, 1.249e-5
-1.385, 1.249e-5
-1.386, 1.249e-5
-1.387, 1.249e-5
-1.388, 1.249e-5
-1.389, 1.249e-5
-1.390, 1.249e-5
-1.391, 1.249e-5
-1.392, 1.249e-5
-1.393, 1.249e-5
-1.394, 1.249e-5
-1.395, 1.557e-5
-1.396, 1.249e-5
-1.397, 1.249e-5
-1.398, 1.249e-5
-1.399, 1.249e-5
-1.400, 1.557e-5
-1.401, 1.557e-5
-1.402, 1.249e-5
-1.403, 1.249e-5
-1.404, 1.249e-5
-1.405, 1.249e-5
-1.406, 1.557e-5
-1.407, 1.557e-5
-1.408, 1.557e-5
-1.409, 1.557e-5
-1.410, 1.557e-5
-1.411, 1.557e-5
-1.412, 1.557e-5
-1.413, 1.557e-5
-1.414, 1.249e-5
-1.415, 1.557e-5
-1.416, 1.557e-5
-1.417, 1.557e-5
-1.418, 1.557e-5
-1.419, 1.557e-5
-1.420, 1.557e-5
-1.421, 1.557e-5
-1.422, 1.557e-5
-1.423, 1.557e-5
-1.424, 1.557e-5
-1.425, 1.557e-5
-1.426, 1.557e-5
-1.427, 1.557e-5
-1.428, 1.557e-5
-1.429, 1.557e-5
-1.430, 1.557e-5
-1.431, 1.557e-5
-1.432, 1.557e-5
-1.433, 1.557e-5
-1.434, 1.557e-5
-1.435, 1.557e-5
-1.436, 1.557e-5
-1.437, 1.557e-5
-1.438, 1.557e-5
-1.439, 1.557e-5
-1.440, 1.865e-5
-1.441, 1.865e-5
-1.442, 1.557e-5
-1.443, 1.865e-5
-1.444, 1.865e-5
-1.445, 1.557e-5
-1.446, 1.865e-5
-1.447, 1.865e-5
-1.448, 1.865e-5
-1.449, 1.865e-5
-1.450, 1.865e-5
-1.451, 1.865e-5
-1.452, 1.865e-5
-1.453, 1.865e-5
-1.454, 1.865e-5
-1.455, 1.865e-5
-1.456, 1.865e-5
-1.457, 1.865e-5
-1.458, 1.865e-5
-1.459, 1.865e-5
-1.460, 1.865e-5
-1.461, 1.865e-5
-1.462, 1.865e-5
-1.463, 1.865e-5
-1.464, 1.865e-5
-1.465, 1.865e-5
-1.466, 2.174e-5
-1.467, 2.174e-5
-1.468, 1.865e-5
-1.469, 2.174e-5
-1.470, 1.865e-5
-1.471, 2.174e-5
-1.472, 2.174e-5
-1.473, 2.174e-5
-1.474, 2.174e-5
-1.475, 2.174e-5
-1.476, 2.174e-5
-1.477, 2.174e-5
-1.478, 2.174e-5
-1.479, 2.174e-5
-1.480, 2.174e-5
-1.481, 2.174e-5
-1.482, 2.174e-5
-1.483, 2.482e-5
-1.484, 2.174e-5
-1.485, 2.482e-5
-1.486, 2.482e-5
-1.487, 2.482e-5
-1.488, 2.482e-5
-1.489, 2.482e-5
-1.490, 2.482e-5
-1.491, 2.482e-5
-1.492, 2.482e-5
-1.493, 2.482e-5
-1.494, 2.482e-5
-1.495, 2.790e-5
-1.496, 2.790e-5
-1.497, 2.790e-5
-1.498, 2.482e-5
-1.499, 2.790e-5
-1.500, 2.790e-5
-1.501, 2.790e-5
-1.502, 2.790e-5
-1.503, 2.790e-5
-1.504, 2.790e-5
-1.505, 2.790e-5
-1.506, 3.099e-5
-1.507, 3.099e-5
-1.508, 3.099e-5
-1.509, 3.099e-5
-1.510, 3.099e-5
-1.511, 3.099e-5
-1.512, 3.099e-5
-1.513, 3.099e-5
-1.514, 3.407e-5
-1.515, 3.099e-5
-1.516, 3.407e-5
-1.517, 3.407e-5
-1.518, 3.407e-5
-1.519, 3.407e-5
-1.520, 3.407e-5
-1.521, 3.407e-5
-1.522, 3.407e-5
-1.523, 3.715e-5
-1.524, 3.407e-5
-1.525, 3.715e-5
-1.526, 3.715e-5
-1.527, 3.715e-5
-1.528, 3.715e-5
-1.529, 3.715e-5
-1.530, 3.715e-5
-1.531, 4.024e-5
-1.532, 3.715e-5
-1.533, 4.024e-5
-1.534, 4.024e-5
-1.535, 4.024e-5
-1.536, 4.332e-5
-1.537, 4.332e-5
-1.538, 4.332e-5
-1.539, 4.332e-5
-1.540, 4.332e-5
-1.541, 4.332e-5
-1.542, 4.640e-5
-1.543, 4.640e-5
-1.544, 4.640e-5
-1.545, 4.640e-5
-1.546, 4.640e-5
-1.547, 4.640e-5
-1.548, 4.949e-5
-1.549, 4.949e-5
-1.550, 4.949e-5
-1.551, 4.949e-5
-1.552, 4.949e-5
-1.553, 5.257e-5
-1.554, 5.257e-5
-1.555, 5.257e-5
-1.556, 5.257e-5
-1.557, 5.565e-5
-1.558, 5.257e-5
-1.559, 5.565e-5
-1.560, 5.565e-5
-1.561, 5.565e-5
-1.562, 5.873e-5
-1.563, 5.873e-5
-1.564, 5.873e-5
-1.565, 6.182e-5
-1.566, 6.182e-5
-1.567, 6.182e-5
-1.568, 6.182e-5
-1.569, 6.182e-5
-1.570, 6.490e-5
-1.571, 6.490e-5
-1.572, 6.490e-5
-1.573, 6.798e-5
-1.574, 6.798e-5
-1.575, 6.798e-5
-1.576, 7.107e-5
-1.577, 7.107e-5
-1.578, 7.107e-5
-1.579, 7.415e-5
-1.580, 7.415e-5
-1.581, 7.723e-5
-1.582, 7.723e-5
-1.583, 7.723e-5
-1.584, 7.723e-5
-1.585, 8.032e-5
-1.586, 8.032e-5
-1.587, 8.340e-5
-1.588, 8.340e-5
-1.589, 8.340e-5
-1.590, 8.648e-5
-1.591, 8.648e-5
-1.592, 8.957e-5
-1.593, 8.957e-5
-1.594, 8.957e-5
-1.595, 9.265e-5
-1.596, 9.573e-5
-1.597, 9.573e-5
-1.598, 9.882e-5
-1.599, 9.882e-5
-1.600, 1.019e-4
-1.601, 1.019e-4
-1.602, 1.050e-4
-1.603, 1.050e-4
-1.604, 1.081e-4
-1.605, 1.081e-4
-1.606, 1.111e-4
-1.607, 1.142e-4
-1.608, 1.142e-4
-1.609, 1.173e-4
-1.610, 1.173e-4
-1.611, 1.204e-4
-1.612, 1.204e-4
-1.613, 1.235e-4
-1.614, 1.266e-4
-1.615, 1.266e-4
-1.616, 1.327e-4
-1.617, 1.327e-4
-1.618, 1.358e-4
-1.619, 1.389e-4
-1.620, 1.420e-4
-1.621, 1.451e-4
-1.622, 1.451e-4
-1.623, 1.481e-4
-1.624, 1.512e-4
-1.625, 1.543e-4
-1.626, 1.574e-4
-1.627, 1.605e-4
-1.628, 1.636e-4
-1.629, 1.666e-4
-1.630, 1.697e-4
-1.631, 1.728e-4
-1.632, 1.759e-4
-1.633, 1.790e-4
-1.634, 1.821e-4
-1.635, 1.851e-4
-1.636, 1.882e-4
-1.637, 1.913e-4
-1.638, 1.944e-4
-1.639, 2.006e-4
-1.640, 2.036e-4
-1.641, 2.098e-4
-1.642, 2.098e-4
-1.643, 2.129e-4
-1.644, 2.160e-4
-1.645, 2.191e-4
-1.646, 2.283e-4
-1.647, 2.314e-4
-1.648, 2.376e-4
-1.649, 2.406e-4
-1.650, 2.468e-4
-1.651, 2.499e-4
-1.652, 2.561e-4
-1.653, 2.591e-4
-1.654, 2.653e-4
-1.655, 2.715e-4
-1.656, 2.776e-4
-1.657, 2.838e-4
-1.658, 2.869e-4
-1.659, 2.931e-4
-1.660, 2.992e-4
-1.661, 3.085e-4
-1.662, 3.115e-4
-1.663, 3.177e-4
-1.664, 3.239e-4
-1.665, 3.331e-4
-1.666, 3.393e-4
-1.667, 3.455e-4
-1.668, 3.485e-4
-1.669, 3.578e-4
-1.670, 3.640e-4
-1.671, 3.732e-4
-1.672, 3.794e-4
-1.673, 3.886e-4
-1.674, 4.010e-4
-1.675, 4.102e-4
-1.676, 4.164e-4
-1.677, 4.256e-4
-1.678, 4.318e-4
-1.679, 4.410e-4
-1.680, 4.503e-4
-1.681, 4.595e-4
-1.682, 4.688e-4
-1.683, 4.811e-4
-1.684, 4.904e-4
-1.685, 5.058e-4
-1.686, 5.150e-4
-1.687, 5.212e-4
-1.688, 5.335e-4
-1.689, 5.489e-4
-1.690, 5.582e-4
-1.691, 5.705e-4
-1.692, 5.829e-4
-1.693, 5.952e-4
-1.694, 6.106e-4
-1.695, 6.199e-4
-1.696, 6.322e-4
-1.697, 6.476e-4
-1.698, 6.599e-4
-1.699, 6.754e-4
-1.700, 6.908e-4
-1.701, 7.062e-4
-1.702, 7.216e-4
-1.703, 7.309e-4
-1.704, 7.494e-4
-1.705, 7.709e-4
-1.706, 7.894e-4
-1.707, 8.018e-4
-1.708, 8.172e-4
-1.709, 8.357e-4
-1.710, 8.542e-4
-1.711, 8.758e-4
-1.712, 8.912e-4
-1.713, 9.128e-4
-1.714, 9.313e-4
-1.715, 9.498e-4
-1.716, 9.713e-4
-1.717, 9.898e-4
-1.718, 1.011e-3
-1.719, 1.033e-3
-1.720, 1.055e-3
-1.721, 1.079e-3
-1.722, 1.101e-3
-1.723, 1.125e-3
-1.724, 1.147e-3
-1.725, 1.172e-3
-1.726, 1.199e-3
-1.727, 1.221e-3
-1.728, 1.246e-3
-1.729, 1.270e-3
-1.730, 1.298e-3
-1.731, 1.323e-3
-1.732, 1.347e-3
-1.733, 1.378e-3
-1.734, 1.406e-3
-1.735, 1.434e-3
-1.736, 1.465e-3
-1.737, 1.489e-3
-1.738, 1.523e-3
-1.739, 1.554e-3
-1.740, 1.582e-3
-1.741, 1.616e-3
-1.742, 1.647e-3
-1.743, 1.677e-3
-1.744, 1.711e-3
-1.745, 1.748e-3
-1.746, 1.779e-3
-1.747, 1.816e-3
-1.748, 1.850e-3
-1.749, 1.884e-3
-1.750, 1.918e-3
-1.751, 1.961e-3
-1.752, 1.992e-3
-1.753, 2.032e-3
-1.754, 2.072e-3
-1.755, 2.109e-3
-1.756, 2.143e-3
-1.757, 2.189e-3
-1.758, 2.226e-3
-1.759, 2.269e-3
-1.760, 2.303e-3
-1.761, 2.353e-3
-1.762, 2.393e-3
-1.763, 2.433e-3
-1.764, 2.476e-3
-1.765, 2.516e-3
-1.766, 2.565e-3
-1.767, 2.608e-3
-1.768, 2.649e-3
-1.769, 2.698e-3
-1.770, 2.741e-3
-1.771, 2.784e-3
-1.772, 2.830e-3
-1.773, 2.880e-3
-1.774, 2.920e-3
-1.775, 2.972e-3
-1.776, 3.022e-3
-1.777, 3.071e-3
-1.778, 3.130e-3
-1.779, 3.173e-3
-1.780, 3.222e-3
-1.781, 3.274e-3
-1.782, 3.327e-3
-1.783, 3.373e-3
-1.784, 3.425e-3
-1.785, 3.478e-3
-1.786, 3.530e-3
-1.787, 3.580e-3
-1.788, 3.635e-3
-1.789, 3.691e-3
-1.790, 3.746e-3
-1.791, 3.805e-3
-1.792, 3.863e-3
-1.793, 3.916e-3
-1.794, 3.977e-3
-1.795, 4.033e-3
-1.796, 4.091e-3
-1.797, 4.153e-3
-1.798, 4.209e-3
-1.799, 4.264e-3
-1.800, 4.320e-3
-1.801, 4.375e-3
-1.802, 4.437e-3
-1.803, 4.495e-3
-1.804, 4.560e-3
-1.805, 4.628e-3
-1.806, 4.683e-3
-1.807, 4.748e-3
-1.808, 4.813e-3
-1.809, 4.871e-3
-1.810, 4.933e-3
-1.811, 4.995e-3
-1.812, 5.056e-3
-1.813, 5.112e-3
-1.814, 5.174e-3
-1.815, 5.235e-3
-1.816, 5.300e-3
-1.817, 5.371e-3
-1.818, 5.439e-3
-1.819, 5.507e-3
-1.820, 5.578e-3
-1.821, 5.642e-3
-1.822, 5.704e-3
-1.823, 5.762e-3
-1.824, 5.827e-3
-1.825, 5.898e-3
-1.826, 5.957e-3
-1.827, 6.012e-3
-1.828, 6.083e-3
-1.829, 6.157e-3
-1.830, 6.219e-3
-1.831, 6.274e-3
-1.832, 6.339e-3
-1.833, 6.401e-3
-1.834, 6.469e-3
-1.835, 6.536e-3
-1.836, 6.601e-3
-1.837, 6.669e-3
-1.838, 6.734e-3
-1.839, 6.792e-3
-1.840, 6.860e-3
-1.841, 6.937e-3
-1.842, 7.020e-3
-1.843, 7.085e-3
-1.844, 7.171e-3
-1.845, 7.249e-3
-1.846, 7.329e-3
-1.847, 7.393e-3
-1.848, 7.467e-3
-1.849, 7.541e-3
-1.850, 7.603e-3
-1.851, 7.668e-3
-1.852, 7.739e-3
-1.853, 7.819e-3
-1.854, 7.902e-3
-1.855, 7.979e-3
-1.856, 8.059e-3
-1.857, 8.140e-3
-1.858, 8.220e-3
-1.859, 8.288e-3
-1.860, 8.352e-3
-1.861, 8.429e-3
-1.862, 8.506e-3
-1.863, 8.587e-3
-1.864, 8.664e-3
-1.865, 8.732e-3
-1.866, 8.799e-3
-1.867, 8.880e-3
-1.868, 8.954e-3
-1.869, 9.040e-3
-1.870, 9.123e-3
-1.871, 9.197e-3
-1.872, 9.265e-3
-1.873, 9.333e-3
-1.874, 9.407e-3
-1.875, 9.487e-3
-1.876, 9.564e-3
-1.877, 9.632e-3
-1.878, 9.697e-3
-1.879, 9.764e-3
-1.880, 9.841e-3
-1.881, 9.922e-3
-1.882, 1.000e-2
-1.883, 1.008e-2
-1.884, 1.016e-2
-1.885, 1.024e-2
-1.886, 1.032e-2
-1.887, 1.040e-2
-1.888, 1.048e-2
-1.889, 1.054e-2
-1.890, 1.059e-2
-1.891, 1.066e-2
-1.892, 1.074e-2
-1.893, 1.082e-2
-1.894, 1.090e-2
-1.895, 1.098e-2
-1.896, 1.106e-2
-1.897, 1.114e-2
-1.898, 1.122e-2
-1.899, 1.128e-2
-1.900, 1.131e-2
-1.899, 1.125e-2
-1.898, 1.120e-2
-1.897, 1.115e-2
-1.896, 1.111e-2
-1.895, 1.105e-2
-1.894, 1.099e-2
-1.893, 1.093e-2
-1.892, 1.089e-2
-1.891, 1.082e-2
-1.890, 1.075e-2
-1.889, 1.069e-2
-1.888, 1.065e-2
-1.887, 1.061e-2
-1.886, 1.056e-2
-1.885, 1.051e-2
-1.884, 1.045e-2
-1.883, 1.039e-2
-1.882, 1.034e-2
-1.881, 1.027e-2
-1.880, 1.021e-2
-1.879, 1.016e-2
-1.878, 1.010e-2
-1.877, 1.004e-2
-1.876, 9.983e-3
-1.875, 9.934e-3
-1.874, 9.888e-3
-1.873, 9.835e-3
-1.872, 9.786e-3
-1.871, 9.730e-3
-1.870, 9.669e-3
-1.869, 9.613e-3
-1.868, 9.567e-3
-1.867, 9.515e-3
-1.866, 9.456e-3
-1.865, 9.397e-3
-1.864, 9.333e-3
-1.863, 9.286e-3
-1.862, 9.237e-3
-1.861, 9.182e-3
-1.860, 9.123e-3
-1.859, 9.061e-3
-1.858, 9.000e-3
-1.857, 8.944e-3
-1.856, 8.895e-3
-1.855, 8.846e-3
-1.854, 8.787e-3
-1.853, 8.719e-3
-1.852, 8.658e-3
-1.851, 8.605e-3
-1.850, 8.556e-3
-1.849, 8.513e-3
-1.848, 8.473e-3
-1.847, 8.429e-3
-1.846, 8.374e-3
-1.845, 8.315e-3
-1.844, 8.251e-3
-1.843, 8.186e-3
-1.842, 8.115e-3
-1.841, 8.050e-3
-1.840, 7.985e-3
-1.839, 7.927e-3
-1.838, 7.862e-3
-1.837, 7.813e-3
-1.836, 7.754e-3
-1.835, 7.696e-3
-1.834, 7.637e-3
-1.833, 7.572e-3
-1.832, 7.526e-3
-1.831, 7.467e-3
-1.830, 7.406e-3
-1.829, 7.353e-3
-1.828, 7.304e-3
-1.827, 7.255e-3
-1.826, 7.212e-3
-1.825, 7.159e-3
-1.824, 7.110e-3
-1.823, 7.060e-3
-1.822, 7.002e-3
-1.821, 6.949e-3
-1.820, 6.894e-3
-1.819, 6.842e-3
-1.818, 6.795e-3
-1.817, 6.743e-3
-1.816, 6.687e-3
-1.815, 6.629e-3
-1.814, 6.573e-3
-1.813, 6.524e-3
-1.812, 6.472e-3
-1.811, 6.422e-3
-1.810, 6.376e-3
-1.809, 6.333e-3
-1.808, 6.284e-3
-1.807, 6.231e-3
-1.806, 6.179e-3
-1.805, 6.120e-3
-1.804, 6.080e-3
-1.803, 6.021e-3
-1.802, 5.975e-3
-1.801, 5.929e-3
-1.800, 5.880e-3
-1.799, 5.833e-3
-1.798, 5.790e-3
-1.797, 5.744e-3
-1.796, 5.692e-3
-1.795, 5.645e-3
-1.794, 5.596e-3
-1.793, 5.553e-3
-1.792, 5.507e-3
-1.791, 5.454e-3
-1.790, 5.411e-3
-1.789, 5.368e-3
-1.788, 5.315e-3
-1.787, 5.269e-3
-1.786, 5.223e-3
-1.785, 5.174e-3
-1.784, 5.127e-3
-1.783, 5.081e-3
-1.782, 5.032e-3
-1.781, 4.992e-3
-1.780, 4.949e-3
-1.779, 4.908e-3
-1.778, 4.865e-3
-1.777, 4.816e-3
-1.776, 4.770e-3
-1.775, 4.720e-3
-1.774, 4.674e-3
-1.773, 4.628e-3
-1.772, 4.582e-3
-1.771, 4.542e-3
-1.770, 4.498e-3
-1.769, 4.458e-3
-1.768, 4.415e-3
-1.767, 4.375e-3
-1.766, 4.329e-3
-1.765, 4.289e-3
-1.764, 4.249e-3
-1.763, 4.202e-3
-1.762, 4.159e-3
-1.761, 4.107e-3
-1.760, 4.067e-3
-1.759, 4.024e-3
-1.758, 3.980e-3
-1.757, 3.943e-3
-1.756, 3.903e-3
-1.755, 3.863e-3
-1.754, 3.823e-3
-1.753, 3.786e-3
-1.752, 3.746e-3
-1.751, 3.706e-3
-1.750, 3.663e-3
-1.749, 3.620e-3
-1.748, 3.580e-3
-1.747, 3.546e-3
-1.746, 3.509e-3
-1.745, 3.475e-3
-1.744, 3.438e-3
-1.743, 3.401e-3
-1.742, 3.364e-3
-1.741, 3.330e-3
-1.740, 3.290e-3
-1.739, 3.259e-3
-1.738, 3.219e-3
-1.737, 3.185e-3
-1.736, 3.148e-3
-1.735, 3.114e-3
-1.734, 3.083e-3
-1.733, 3.046e-3
-1.732, 3.012e-3
-1.731, 2.978e-3
-1.730, 2.945e-3
-1.729, 2.914e-3
-1.728, 2.880e-3
-1.727, 2.846e-3
-1.726, 2.809e-3
-1.725, 2.781e-3
-1.724, 2.747e-3
-1.723, 2.716e-3
-1.722, 2.686e-3
-1.721, 2.658e-3
-1.720, 2.624e-3
-1.719, 2.593e-3
-1.718, 2.562e-3
-1.717, 2.531e-3
-1.716, 2.504e-3
-1.715, 2.467e-3
-1.714, 2.439e-3
-1.713, 2.411e-3
-1.712, 2.377e-3
-1.711, 2.346e-3
-1.710, 2.316e-3
-1.709, 2.288e-3
-1.708, 2.257e-3
-1.707, 2.232e-3
-1.706, 2.201e-3
-1.705, 2.171e-3
-1.704, 2.146e-3
-1.703, 2.118e-3
-1.702, 2.091e-3
-1.701, 2.060e-3
-1.700, 2.035e-3
-1.699, 2.013e-3
-1.698, 1.983e-3
-1.697, 1.955e-3
-1.696, 1.930e-3
-1.695, 1.902e-3
-1.694, 1.878e-3
-1.693, 1.853e-3
-1.692, 1.825e-3
-1.691, 1.804e-3
-1.690, 1.779e-3
-1.689, 1.751e-3
-1.688, 1.727e-3
-1.687, 1.702e-3
-1.686, 1.680e-3
-1.685, 1.659e-3
-1.684, 1.631e-3
-1.683, 1.610e-3
-1.682, 1.585e-3
-1.681, 1.566e-3
-1.680, 1.545e-3
-1.679, 1.520e-3
-1.678, 1.495e-3
-1.677, 1.474e-3
-1.676, 1.452e-3
-1.675, 1.428e-3
-1.674, 1.409e-3
-1.673, 1.391e-3
-1.672, 1.369e-3
-1.671, 1.351e-3
-1.670, 1.329e-3
-1.669, 1.314e-3
-1.668, 1.292e-3
-1.667, 1.270e-3
-1.666, 1.252e-3
-1.665, 1.233e-3
-1.664, 1.215e-3
-1.663, 1.196e-3
-1.662, 1.178e-3
-1.661, 1.156e-3
-1.660, 1.138e-3
-1.659, 1.122e-3
-1.658, 1.104e-3
-1.657, 1.085e-3
-1.656, 1.070e-3
-1.655, 1.051e-3
-1.654, 1.036e-3
-1.653, 1.021e-3
-1.652, 1.005e-3
-1.651, 9.868e-4
-1.650, 9.713e-4
-1.649, 9.559e-4
-1.648, 9.405e-4
-1.647, 9.220e-4
-1.646, 9.066e-4
-1.645, 8.943e-4
-1.644, 8.788e-4
-1.643, 8.665e-4
-1.642, 8.480e-4
-1.641, 8.326e-4
-1.640, 8.203e-4
-1.639, 8.048e-4
-1.638, 7.894e-4
-1.637, 7.771e-4
-1.636, 7.617e-4
-1.635, 7.494e-4
-1.634, 7.370e-4
-1.633, 7.247e-4
-1.632, 7.093e-4
-1.631, 6.969e-4
-1.630, 6.846e-4
-1.629, 6.723e-4
-1.628, 6.630e-4
-1.627, 6.507e-4
-1.626, 6.353e-4
-1.625, 6.260e-4
-1.624, 6.137e-4
-1.623, 6.044e-4
-1.622, 5.921e-4
-1.621, 5.829e-4
-1.620, 5.705e-4
-1.619, 5.613e-4
-1.618, 5.489e-4
-1.617, 5.366e-4
-1.616, 5.274e-4
-1.615, 5.181e-4
-1.614, 5.089e-4
-1.613, 4.965e-4
-1.612, 4.873e-4
-1.611, 4.780e-4
-1.610, 4.688e-4
-1.609, 4.595e-4
-1.608, 4.503e-4
-1.607, 4.410e-4
-1.606, 4.318e-4
-1.605, 4.256e-4
-1.604, 4.164e-4
-1.603, 4.102e-4
-1.602, 3.979e-4
-1.601, 3.917e-4
-1.600, 3.825e-4
-1.599, 3.732e-4
-1.598, 3.670e-4
-1.597, 3.609e-4
-1.596, 3.516e-4
-1.595, 3.455e-4
-1.594, 3.362e-4
-1.593, 3.300e-4
-1.592, 3.239e-4
-1.591, 3.146e-4
-1.590, 3.115e-4
-1.589, 3.054e-4
-1.588, 2.992e-4
-1.587, 2.900e-4
-1.586, 2.838e-4
-1.585, 2.776e-4
-1.584, 2.715e-4
-1.583, 2.653e-4
-1.582, 2.591e-4
-1.581, 2.530e-4
-1.580, 2.499e-4
-1.579, 2.437e-4
-1.578, 2.376e-4
-1.577, 2.314e-4
-1.576, 2.283e-4
-1.575, 2.221e-4
-1.574, 2.160e-4
-1.573, 2.129e-4
-1.572, 2.067e-4
-1.571, 2.036e-4
-1.570, 1.975e-4
-1.569, 1.944e-4
-1.568, 1.882e-4
-1.567, 1.851e-4
-1.566, 1.790e-4
-1.565, 1.759e-4
-1.564, 1.728e-4
-1.563, 1.666e-4
-1.562, 1.636e-4
-1.561, 1.605e-4
-1.560, 1.574e-4
-1.559, 1.512e-4
-1.558, 1.481e-4
-1.557, 1.451e-4
-1.556, 1.420e-4
-1.555, 1.389e-4
-1.554, 1.327e-4
-1.553, 1.327e-4
-1.552, 1.296e-4
-1.551, 1.235e-4
-1.550, 1.204e-4
-1.549, 1.173e-4
-1.548, 1.142e-4
-1.547, 1.142e-4
-1.546, 1.081e-4
-1.545, 1.050e-4
-1.544, 1.050e-4
-1.543, 1.019e-4
-1.542, 9.882e-5
-1.541, 9.573e-5
-1.540, 9.573e-5
-1.539, 9.265e-5
-1.538, 8.957e-5
-1.537, 8.648e-5
-1.536, 8.340e-5
-1.535, 8.340e-5
-1.534, 8.032e-5
-1.533, 7.723e-5
-1.532, 7.723e-5
-1.531, 7.415e-5
-1.530, 7.107e-5
-1.529, 7.107e-5
-1.528, 6.798e-5
-1.527, 6.490e-5
-1.526, 6.490e-5
-1.525, 6.182e-5
-1.524, 6.182e-5
-1.523, 5.873e-5
-1.522, 5.565e-5
-1.521, 5.565e-5
-1.520, 5.257e-5
-1.519, 5.257e-5
-1.518, 4.949e-5
-1.517, 4.949e-5
-1.516, 4.640e-5
-1.515, 4.640e-5
-1.514, 4.640e-5
-1.513, 4.332e-5
-1.512, 4.024e-5
-1.511, 4.024e-5
-1.510, 4.024e-5
-1.509, 3.715e-5
-1.508, 3.715e-5
-1.507, 3.715e-5
-1.506, 3.407e-5
-1.505, 3.407e-5
-1.504, 3.407e-5
-1.503, 3.099e-5
-1.502, 3.099e-5
-1.501, 2.790e-5
-1.500, 2.790e-5
-1.499, 2.790e-5
-1.498, 2.790e-5
-1.497, 2.482e-5
-1.496, 2.482e-5
-1.495, 2.482e-5
-1.494, 2.174e-5
-1.493, 2.174e-5
-1.492, 2.174e-5
-1.491, 2.174e-5
-1.490, 1.865e-5
-1.489, 1.865e-5
-1.488, 1.865e-5
-1.487, 1.865e-5
-1.486, 1.557e-5
-1.485, 1.557e-5
-1.484, 1.557e-5
-1.483, 1.557e-5
-1.482, 1.557e-5
-1.481, 1.557e-5
-1.480, 1.249e-5
-1.479, 1.249e-5
-1.478, 1.249e-5
-1.477, 1.249e-5
-1.476, 1.249e-5
-1.475, 9.405e-6
-1.474, 9.405e-6
-1.473, 9.405e-6
-1.472, 6.322e-6
-1.471, 9.405e-6
-1.470, 9.405e-6
-1.469, 6.322e-6
-1.468, 6.322e-6
-1.467, 6.322e-6
-1.466, 6.322e-6
-1.465, 6.322e-6
-1.464, 6.322e-6
-1.463, 6.322e-6
-1.462, 6.322e-6
-1.461, 3.239e-6
-1.460, 3.239e-6
-1.459, 6.322e-6
-1.458, 3.239e-6
-1.457, 3.239e-6
-1.456, 3.239e-6
-1.455, 3.239e-6
-1.454, 3.239e-6
-1.453, 3.239e-6
-1.452, 3.239e-6
-1.451, 3.239e-6
-1.450, 1.559e-7
-1.449, 1.559e-7
-1.448, 1.559e-7
-1.447, 1.559e-7
-1.446, 1.559e-7
-1.445, 1.559e-7
-1.444, 1.559e-7
-1.443, 1.559e-7
-1.442, 1.559e-7
-1.441, 1.559e-7
-1.440, 1.559e-7
-1.439, 1.559e-7
-1.438, 1.559e-7
-1.437, 1.559e-7
-1.436, 1.559e-7
-1.435, -2.927e-6
-1.434, 1.559e-7
-1.433, -2.927e-6
-1.432, -2.927e-6
-1.431, -2.927e-6
-1.430, -2.927e-6
-1.429, -2.927e-6
-1.428, -2.927e-6
-1.427, -2.927e-6
-1.426, -2.927e-6
-1.425, -2.927e-6
-1.424, -2.927e-6
-1.423, -2.927e-6
-1.422, -2.927e-6
-1.421, -2.927e-6
-1.420, -2.927e-6
-1.419, -2.927e-6
-1.418, -6.010e-6
-1.417, -2.927e-6
-1.416, -2.927e-6
-1.415, -6.010e-6
-1.414, -2.927e-6
-1.413, -2.927e-6
-1.412, -6.010e-6
-1.411, -2.927e-6
-1.410, -6.010e-6
-1.409, -2.927e-6
-1.408, -2.927e-6
-1.407, -6.010e-6
-1.406, -6.010e-6
-1.405, -6.010e-6
-1.404, -6.010e-6
-1.403, -6.010e-6
-1.402, -6.010e-6
-1.401, -6.010e-6
-1.400, -6.010e-6
-1.399, -6.010e-6
-1.398, -6.010e-6
-1.397, -6.010e-6
-1.396, -6.010e-6
-1.395, -6.010e-6
-1.394, -6.010e-6
-1.393, -6.010e-6
-1.392, -6.010e-6
-1.391, -6.010e-6
-1.390, -6.010e-6
-1.389, -6.010e-6
-1.388, -6.010e-6
-1.387, -6.010e-6
-1.386, -6.010e-6
-1.385, -6.010e-6
-1.384, -6.010e-6
-1.383, -6.010e-6
-1.382, -6.010e-6
-1.381, -9.093e-6
-1.380, -6.010e-6
-1.379, -6.010e-6
-1.378, -6.010e-6
-1.377, -6.010e-6
-1.376, -9.093e-6
-1.375, -6.010e-6
-1.374, -6.010e-6
-1.373, -6.010e-6
-1.372, -6.010e-6
-1.371, -6.010e-6
-1.370, -9.093e-6
-1.369, -6.010e-6
-1.368, -6.010e-6
-1.367, -9.093e-6
-1.366, -6.010e-6
-1.365, -9.093e-6
-1.364, -6.010e-6
-1.363, -6.010e-6
-1.362, -6.010e-6
-1.361, -9.093e-6
-1.360, -6.010e-6
-1.359, -6.010e-6
-1.358, -6.010e-6
-1.357, -6.010e-6
-1.356, -6.010e-6
-1.355, -6.010e-6
-1.354, -6.010e-6
-1.353, -9.093e-6
-1.352, -6.010e-6
-1.351, -6.010e-6
-1.350, -9.093e-6
-1.349, -6.010e-6
-1.348, -6.010e-6
-1.347, -6.010e-6
-1.346, -6.010e-6
-1.345, -9.093e-6
-1.344, -6.010e-6
-1.343, -6.010e-6
-1.342, -9.093e-6
-1.341, -9.093e-6
-1.340, -9.093e-6
-1.339, -9.093e-6
-1.338, -6.010e-6
-1.337, -9.093e-6
-1.336, -9.093e-6
-1.335, -9.093e-6
-1.334, -6.010e-6
-1.333, -9.093e-6
-1.332, -6.010e-6
-1.331, -9.093e-6
-1.330, -9.093e-6
-1.329, -6.010e-6
-1.328, -9.093e-6
-1.327, -9.093e-6
-1.326, -6.010e-6
-1.325, -9.093e-6
-1.324, -6.010e-6
-1.323, -9.093e-6
-1.322, -9.093e-6
-1.321, -9.093e-6
-1.320, -9.093e-6
-1.319, -9.093e-6
-1.318, -9.093e-6
-1.317, -9.093e-6
-1.316, -9.093e-6
-1.315, -6.010e-6
-1.314, -6.010e-6
-1.313, -9.093e-6
-1.312, -9.093e-6
-1.311, -9.093e-6
-1.310, -9.093e-6
-1.309, -9.093e-6
-1.308, -9.093e-6
-1.307, -9.093e-6
-1.306, -6.010e-6
-1.305, -9.093e-6
-1.304, -9.093e-6
-1.303, -9.093e-6
-1.302, -9.093e-6
-1.301, -9.093e-6
-1.300, -9.093e-6
-1.299, -9.093e-6
-1.298, -6.010e-6
-1.297, -9.093e-6
-1.296, -9.093e-6
-1.295, -6.010e-6
-1.294, -9.093e-6
-1.293, -6.010e-6
-1.292, -9.093e-6
-1.291, -9.093e-6
-1.290, -9.093e-6
-1.289, -6.010e-6
-1.288, -9.093e-6
-1.287, -9.093e-6
-1.286, -6.010e-6
-1.285, -9.093e-6
-1.284, -9.093e-6
-1.283, -9.093e-6
-1.282, -9.093e-6
-1.281, -9.093e-6
-1.280, -9.093e-6
-1.279, -9.093e-6
-1.278, -9.093e-6
-1.277, -9.093e-6
-1.276, -9.093e-6
-1.275, -9.093e-6
-1.274, -9.093e-6
-1.273, -9.093e-6
-1.272, -9.093e-6
-1.271, -9.093e-6
-1.270, -9.093e-6
-1.269, -9.093e-6
-1.268, -9.093e-6
-1.267, -9.093e-6
-1.266, -9.093e-6
-1.265, -9.093e-6
-1.264, -9.093e-6
-1.263, -9.093e-6
-1.262, -9.093e-6
-1.261, -9.093e-6
-1.260, -9.093e-6
-1.259, -9.093e-6
-1.258, -9.093e-6
-1.257, -9.093e-6
-1.256, -9.093e-6
-1.255, -9.093e-6
-1.254, -9.093e-6
-1.253, -9.093e-6
-1.252, -9.093e-6
-1.251, -9.093e-6
-1.250, -9.093e-6
-1.249, -9.093e-6
-1.248, -9.093e-6
-1.247, -9.093e-6
-1.246, -9.093e-6
-1.245, -9.093e-6
-1.244, -9.093e-6
-1.243, -9.093e-6
-1.242, -9.093e-6
-1.241, -9.093e-6
-1.240, -9.093e-6
-1.239, -9.093e-6
-1.238, -9.093e-6
-1.237, -9.093e-6
-1.236, -9.093e-6
-1.235, -9.093e-6
-1.234, -9.093e-6
-1.233, -9.093e-6
-1.232, -9.093e-6
-1.231, -9.093e-6
-1.230, -9.093e-6
-1.229, -9.093e-6
-1.228, -9.093e-6
-1.227, -9.093e-6
-1.226, -9.093e-6
-1.225, -9.093e-6
-1.224, -9.093e-6
-1.223, -9.093e-6
-1.222, -9.093e-6
-1.221, -9.093e-6
-1.220, -9.093e-6
-1.219, -9.093e-6
-1.218, -9.093e-6
-1.217, -9.093e-6
-1.216, -9.093e-6
-1.215, -9.093e-6
-1.214, -9.093e-6
-1.213, -9.093e-6
-1.212, -9.093e-6
-1.211, -9.093e-6
-1.210, -9.093e-6
-1.209, -9.093e-6
-1.208, -9.093e-6
-1.207, -9.093e-6
-1.206, -9.093e-6
-1.205, -9.093e-6
-1.204, -9.093e-6
-1.203, -9.093e-6
-1.202, -9.093e-6
-1.201, -9.093e-6
-1.200, -9.093e-6
-1.199, -9.093e-6
-1.198, -9.093e-6
-1.197, -9.093e-6
-1.196, -9.093e-6
-1.195, -9.093e-6
-1.194, -9.093e-6
-1.193, -9.093e-6
-1.192, -9.093e-6
-1.191, -9.093e-6
-1.190, -9.093e-6
-1.189, -9.093e-6
-1.188, -9.093e-6
-1.187, -9.093e-6
-1.186, -9.093e-6
-1.185, -9.093e-6
-1.184, -9.093e-6
-1.183, -9.093e-6
-1.182, -9.093e-6
-1.181, -9.093e-6
-1.180, -9.093e-6
-1.179, -9.093e-6
-1.178, -9.093e-6
-1.177, -9.093e-6
-1.176, -9.093e-6
-1.175, -9.093e-6
-1.174, -9.093e-6
-1.173, -9.093e-6
-1.172, -9.093e-6
-1.171, -9.093e-6
-1.170, -9.093e-6
-1.169, -9.093e-6
-1.168, -9.093e-6
-1.167, -9.093e-6
-1.166, -9.093e-6
-1.165, -9.093e-6
-1.164, -9.093e-6
-1.163, -9.093e-6
-1.162, -9.093e-6
-1.161, -9.093e-6
-1.160, -9.093e-6
-1.159, -9.093e-6
-1.158, -9.093e-6
-1.157, -9.093e-6
-1.156, -9.093e-6
-1.155, -9.093e-6
-1.154, -9.093e-6
-1.153, -9.093e-6
-1.152, -9.093e-6
-1.151, -9.093e-6
-1.150, -9.093e-6
-1.149, -9.093e-6
-1.148, -9.093e-6
-1.147, -9.093e-6
-1.146, -9.093e-6
-1.145, -9.093e-6
-1.144, -9.093e-6
-1.143, -9.093e-6
-1.142, -9.093e-6
-1.141, -9.093e-6
-1.140, -9.093e-6
-1.139, -9.093e-6
-1.138, -9.093e-6
-1.137, -9.093e-6
-1.136, -9.093e-6
-1.135, -9.093e-6
-1.134, -9.093e-6
-1.133, -9.093e-6
-1.132, -9.093e-6
-1.131, -9.093e-6
-1.130, -9.093e-6
-1.129, -9.093e-6
-1.128, -9.093e-6
-1.127, -9.093e-6
-1.126, -9.093e-6
-1.125, -9.093e-6
-1.124, -9.093e-6
-1.123, -9.093e-6
-1.122, -9.093e-6
-1.121, -9.093e-6
-1.120, -9.093e-6
-1.119, -9.093e-6
-1.118, -9.093e-6
-1.117, -9.093e-6
-1.116, -9.093e-6
-1.115, -9.093e-6
-1.114, -9.093e-6
-1.113, -1.218e-5
-1.112, -9.093e-6
-1.111, -9.093e-6
-1.110, -1.218e-5
-1.109, -9.093e-6
-1.108, -9.093e-6
-1.107, -1.218e-5
-1.106, -9.093e-6
-1.105, -9.093e-6
-1.104, -9.093e-6
-1.103, -9.093e-6
-1.102, -9.093e-6
-1.101, -9.093e-6
-1.100, -9.093e-6
-1.099, -9.093e-6
-1.098, -9.093e-6
-1.097, -9.093e-6
-1.096, -1.218e-5
-1.095, -9.093e-6
-1.094, -9.093e-6
-1.093, -1.218e-5
-1.092, -9.093e-6
-1.091, -9.093e-6
-1.090, -1.218e-5
-1.089, -9.093e-6
-1.088, -1.218e-5
-1.087, -1.218e-5
-1.086, -1.218e-5
-1.085, -1.218e-5
-1.084, -9.093e-6
-1.083, -9.093e-6
-1.082, -1.218e-5
-1.081, -1.218e-5
-1.080, -9.093e-6
-1.079, -9.093e-6
-1.078, -9.093e-6
-1.077, -9.093e-6
-1.076, -1.218e-5
-1.075, -9.093e-6
-1.074, -9.093e-6
-1.073, -9.093e-6
-1.072, -9.093e-6
-1.071, -1.218e-5
-1.070, -1.218e-5
-1.069, -9.093e-6
-1.068, -1.218e-5
-1.067, -1.218e-5
-1.066, -9.093e-6
-1.065, -1.218e-5
-1.064, -1.218e-5
-1.063, -1.218e-5
-1.062, -1.218e-5
-1.061, -9.093e-6
-1.060, -9.093e-6
-1.059, -1.218e-5
-1.058, -1.218e-5
-1.057, -9.093e-6
-1.056, -1.218e-5
-1.055, -9.093e-6
-1.054, -1.218e-5
-1.053, -1.218e-5
-1.052, -1.218e-5
-1.051, -1.218e-5
-1.050, -1.218e-5
-1.049, -9.093e-6
-1.048, -1.218e-5
-1.047, -9.093e-6
-1.046, -9.093e-6
-1.045, -1.218e-5
-1.044, -1.218e-5
-1.043, -9.093e-6
-1.042, -1.218e-5
-1.041, -1.218e-5
-1.040, -1.218e-5
-1.039, -1.218e-5
-1.038, -1.218e-5
-1.037, -1.218e-5
-1.036, -1.218e-5
-1.035, -1.218e-5
-1.034, -1.218e-5
-1.033, -1.218e-5
-1.032, -1.218e-5
-1.031, -1.218e-5
-1.030, -1.218e-5
-1.029, -1.218e-5
-1.028, -1.218e-5
-1.027, -1.218e-5
-1.026, -1.218e-5
-1.025, -1.218e-5
-1.024, -1.218e-5
-1.023, -1.218e-5
-1.022, -1.218e-5
-1.021, -1.218e-5
-1.020, -1.218e-5
-1.019, -1.218e-5
-1.018, -1.218e-5
-1.017, -1.218e-5
-1.016, -1.218e-5
-1.015, -1.218e-5
-1.014, -1.218e-5
-1.013, -1.218e-5
-1.012, -1.218e-5
-1.011, -1.218e-5
-1.010, -1.218e-5
-1.009, -1.218e-5
-1.008, -1.218e-5
-1.007, -1.218e-5
-1.006, -1.218e-5
-1.005, -1.218e-5
-1.004, -1.218e-5
-1.003, -1.218e-5
-1.002, -1.218e-5
-1.001, -1.218e-5
