Mar. 31, 2025   00:15:22
Linear Sweep Voltammetry
File: c:/users/guazh/data/banditlqround7_x0exp518_r20/2025-03-28-exp994\pre-regen-2025-03-31t00_12_16-lsvinphos\pre-regen_lsv_50mvs_efin_-1900mv.bin
Data Source:  Experiment
Instrument Model:  CHI760E
Header: LSV ran at 50 mVs with Efin at -1900mV
Note: 

Init E (V) = -0.6
Final E (V) = -1.9
Scan Rate (V/s) = 0.05
Sample Interval (V) = 0.001
Quiet Time (sec) = 2
Sensitivity (A/V) = 1e-4
Comp R (ohm) = 8.8

Results:

Channel 1:
Ep = -1.499V
ip = 7.499e-4A
Ah = 8.225e-4C

Potential/V, Current/A

-0.600, 5.231e-6
-0.601, 5.700e-6
-0.602, 5.934e-6
-0.603, 6.082e-6
-0.604, 6.201e-6
-0.605, 6.302e-6
-0.606, 6.402e-6
-0.607, 6.491e-6
-0.608, 6.585e-6
-0.609, 6.667e-6
-0.610, 6.747e-6
-0.611, 6.826e-6
-0.612, 6.899e-6
-0.613, 6.978e-6
-0.614, 7.052e-6
-0.615, 7.126e-6
-0.616, 7.195e-6
-0.617, 7.262e-6
-0.618, 7.329e-6
-0.619, 7.398e-6
-0.620, 7.463e-6
-0.621, 7.529e-6
-0.622, 7.597e-6
-0.623, 7.661e-6
-0.624, 7.726e-6
-0.625, 7.791e-6
-0.626, 7.848e-6
-0.627, 7.915e-6
-0.628, 7.982e-6
-0.629, 8.043e-6
-0.630, 8.103e-6
-0.631, 8.161e-6
-0.632, 8.226e-6
-0.633, 8.293e-6
-0.634, 8.350e-6
-0.635, 8.412e-6
-0.636, 8.467e-6
-0.637, 8.525e-6
-0.638, 8.588e-6
-0.639, 8.644e-6
-0.640, 8.701e-6
-0.641, 8.760e-6
-0.642, 8.815e-6
-0.643, 8.876e-6
-0.644, 8.932e-6
-0.645, 8.987e-6
-0.646, 9.041e-6
-0.647, 9.097e-6
-0.648, 9.154e-6
-0.649, 9.210e-6
-0.650, 9.263e-6
-0.651, 9.321e-6
-0.652, 9.374e-6
-0.653, 9.432e-6
-0.654, 9.487e-6
-0.655, 9.537e-6
-0.656, 9.590e-6
-0.657, 9.643e-6
-0.658, 9.696e-6
-0.659, 9.755e-6
-0.660, 9.804e-6
-0.661, 9.854e-6
-0.662, 9.909e-6
-0.663, 9.960e-6
-0.664, 1.002e-5
-0.665, 1.007e-5
-0.666, 1.012e-5
-0.667, 1.017e-5
-0.668, 1.022e-5
-0.669, 1.027e-5
-0.670, 1.032e-5
-0.671, 1.036e-5
-0.672, 1.042e-5
-0.673, 1.047e-5
-0.674, 1.052e-5
-0.675, 1.057e-5
-0.676, 1.061e-5
-0.677, 1.066e-5
-0.678, 1.072e-5
-0.679, 1.077e-5
-0.680, 1.081e-5
-0.681, 1.086e-5
-0.682, 1.091e-5
-0.683, 1.096e-5
-0.684, 1.101e-5
-0.685, 1.105e-5
-0.686, 1.110e-5
-0.687, 1.114e-5
-0.688, 1.120e-5
-0.689, 1.125e-5
-0.690, 1.129e-5
-0.691, 1.134e-5
-0.692, 1.138e-5
-0.693, 1.143e-5
-0.694, 1.148e-5
-0.695, 1.152e-5
-0.696, 1.157e-5
-0.697, 1.161e-5
-0.698, 1.166e-5
-0.699, 1.171e-5
-0.700, 1.175e-5
-0.701, 1.179e-5
-0.702, 1.184e-5
-0.703, 1.189e-5
-0.704, 1.193e-5
-0.705, 1.197e-5
-0.706, 1.201e-5
-0.707, 1.205e-5
-0.708, 1.209e-5
-0.709, 1.213e-5
-0.710, 1.217e-5
-0.711, 1.221e-5
-0.712, 1.226e-5
-0.713, 1.231e-5
-0.714, 1.235e-5
-0.715, 1.239e-5
-0.716, 1.243e-5
-0.717, 1.247e-5
-0.718, 1.252e-5
-0.719, 1.256e-5
-0.720, 1.260e-5
-0.721, 1.264e-5
-0.722, 1.268e-5
-0.723, 1.273e-5
-0.724, 1.277e-5
-0.725, 1.281e-5
-0.726, 1.285e-5
-0.727, 1.289e-5
-0.728, 1.293e-5
-0.729, 1.298e-5
-0.730, 1.302e-5
-0.731, 1.305e-5
-0.732, 1.309e-5
-0.733, 1.313e-5
-0.734, 1.318e-5
-0.735, 1.321e-5
-0.736, 1.325e-5
-0.737, 1.329e-5
-0.738, 1.333e-5
-0.739, 1.337e-5
-0.740, 1.341e-5
-0.741, 1.345e-5
-0.742, 1.349e-5
-0.743, 1.353e-5
-0.744, 1.357e-5
-0.745, 1.360e-5
-0.746, 1.364e-5
-0.747, 1.368e-5
-0.748, 1.372e-5
-0.749, 1.375e-5
-0.750, 1.379e-5
-0.751, 1.382e-5
-0.752, 1.386e-5
-0.753, 1.390e-5
-0.754, 1.394e-5
-0.755, 1.397e-5
-0.756, 1.401e-5
-0.757, 1.404e-5
-0.758, 1.408e-5
-0.759, 1.411e-5
-0.760, 1.415e-5
-0.761, 1.418e-5
-0.762, 1.422e-5
-0.763, 1.425e-5
-0.764, 1.429e-5
-0.765, 1.432e-5
-0.766, 1.436e-5
-0.767, 1.439e-5
-0.768, 1.443e-5
-0.769, 1.447e-5
-0.770, 1.450e-5
-0.771, 1.453e-5
-0.772, 1.456e-5
-0.773, 1.460e-5
-0.774, 1.463e-5
-0.775, 1.466e-5
-0.776, 1.469e-5
-0.777, 1.473e-5
-0.778, 1.476e-5
-0.779, 1.479e-5
-0.780, 1.482e-5
-0.781, 1.485e-5
-0.782, 1.489e-5
-0.783, 1.492e-5
-0.784, 1.495e-5
-0.785, 1.498e-5
-0.786, 1.501e-5
-0.787, 1.504e-5
-0.788, 1.508e-5
-0.789, 1.511e-5
-0.790, 1.514e-5
-0.791, 1.517e-5
-0.792, 1.520e-5
-0.793, 1.523e-5
-0.794, 1.526e-5
-0.795, 1.529e-5
-0.796, 1.532e-5
-0.797, 1.535e-5
-0.798, 1.538e-5
-0.799, 1.541e-5
-0.800, 1.544e-5
-0.801, 1.547e-5
-0.802, 1.549e-5
-0.803, 1.553e-5
-0.804, 1.556e-5
-0.805, 1.558e-5
-0.806, 1.561e-5
-0.807, 1.564e-5
-0.808, 1.567e-5
-0.809, 1.570e-5
-0.810, 1.573e-5
-0.811, 1.576e-5
-0.812, 1.579e-5
-0.813, 1.582e-5
-0.814, 1.585e-5
-0.815, 1.587e-5
-0.816, 1.590e-5
-0.817, 1.594e-5
-0.818, 1.597e-5
-0.819, 1.600e-5
-0.820, 1.604e-5
-0.821, 1.606e-5
-0.822, 1.609e-5
-0.823, 1.612e-5
-0.824, 1.615e-5
-0.825, 1.618e-5
-0.826, 1.620e-5
-0.827, 1.624e-5
-0.828, 1.627e-5
-0.829, 1.630e-5
-0.830, 1.633e-5
-0.831, 1.635e-5
-0.832, 1.639e-5
-0.833, 1.642e-5
-0.834, 1.645e-5
-0.835, 1.648e-5
-0.836, 1.651e-5
-0.837, 1.654e-5
-0.838, 1.657e-5
-0.839, 1.660e-5
-0.840, 1.664e-5
-0.841, 1.667e-5
-0.842, 1.670e-5
-0.843, 1.673e-5
-0.844, 1.676e-5
-0.845, 1.679e-5
-0.846, 1.683e-5
-0.847, 1.686e-5
-0.848, 1.690e-5
-0.849, 1.693e-5
-0.850, 1.696e-5
-0.851, 1.700e-5
-0.852, 1.703e-5
-0.853, 1.707e-5
-0.854, 1.711e-5
-0.855, 1.714e-5
-0.856, 1.718e-5
-0.857, 1.722e-5
-0.858, 1.726e-5
-0.859, 1.730e-5
-0.860, 1.733e-5
-0.861, 1.737e-5
-0.862, 1.741e-5
-0.863, 1.745e-5
-0.864, 1.749e-5
-0.865, 1.753e-5
-0.866, 1.757e-5
-0.867, 1.762e-5
-0.868, 1.766e-5
-0.869, 1.770e-5
-0.870, 1.775e-5
-0.871, 1.780e-5
-0.872, 1.784e-5
-0.873, 1.789e-5
-0.874, 1.793e-5
-0.875, 1.797e-5
-0.876, 1.802e-5
-0.877, 1.807e-5
-0.878, 1.812e-5
-0.879, 1.817e-5
-0.880, 1.822e-5
-0.881, 1.826e-5
-0.882, 1.831e-5
-0.883, 1.837e-5
-0.884, 1.842e-5
-0.885, 1.848e-5
-0.886, 1.853e-5
-0.887, 1.858e-5
-0.888, 1.865e-5
-0.889, 1.870e-5
-0.890, 1.876e-5
-0.891, 1.881e-5
-0.892, 1.887e-5
-0.893, 1.894e-5
-0.894, 1.900e-5
-0.895, 1.905e-5
-0.896, 1.912e-5
-0.897, 1.919e-5
-0.898, 1.925e-5
-0.899, 1.932e-5
-0.900, 1.938e-5
-0.901, 1.944e-5
-0.902, 1.951e-5
-0.903, 1.958e-5
-0.904, 1.966e-5
-0.905, 1.973e-5
-0.906, 1.980e-5
-0.907, 1.987e-5
-0.908, 1.994e-5
-0.909, 2.002e-5
-0.910, 2.009e-5
-0.911, 2.016e-5
-0.912, 2.024e-5
-0.913, 2.032e-5
-0.914, 2.040e-5
-0.915, 2.048e-5
-0.916, 2.056e-5
-0.917, 2.064e-5
-0.918, 2.073e-5
-0.919, 2.081e-5
-0.920, 2.089e-5
-0.921, 2.098e-5
-0.922, 2.107e-5
-0.923, 2.116e-5
-0.924, 2.125e-5
-0.925, 2.134e-5
-0.926, 2.143e-5
-0.927, 2.152e-5
-0.928, 2.161e-5
-0.929, 2.170e-5
-0.930, 2.179e-5
-0.931, 2.189e-5
-0.932, 2.198e-5
-0.933, 2.208e-5
-0.934, 2.218e-5
-0.935, 2.228e-5
-0.936, 2.237e-5
-0.937, 2.247e-5
-0.938, 2.257e-5
-0.939, 2.268e-5
-0.940, 2.278e-5
-0.941, 2.287e-5
-0.942, 2.298e-5
-0.943, 2.308e-5
-0.944, 2.318e-5
-0.945, 2.329e-5
-0.946, 2.339e-5
-0.947, 2.350e-5
-0.948, 2.360e-5
-0.949, 2.371e-5
-0.950, 2.381e-5
-0.951, 2.391e-5
-0.952, 2.403e-5
-0.953, 2.414e-5
-0.954, 2.424e-5
-0.955, 2.435e-5
-0.956, 2.445e-5
-0.957, 2.455e-5
-0.958, 2.466e-5
-0.959, 2.477e-5
-0.960, 2.487e-5
-0.961, 2.497e-5
-0.962, 2.508e-5
-0.963, 2.519e-5
-0.964, 2.529e-5
-0.965, 2.539e-5
-0.966, 2.549e-5
-0.967, 2.559e-5
-0.968, 2.569e-5
-0.969, 2.580e-5
-0.970, 2.589e-5
-0.971, 2.599e-5
-0.972, 2.609e-5
-0.973, 2.619e-5
-0.974, 2.629e-5
-0.975, 2.638e-5
-0.976, 2.648e-5
-0.977, 2.657e-5
-0.978, 2.667e-5
-0.979, 2.676e-5
-0.980, 2.685e-5
-0.981, 2.694e-5
-0.982, 2.703e-5
-0.983, 2.712e-5
-0.984, 2.721e-5
-0.985, 2.730e-5
-0.986, 2.738e-5
-0.987, 2.747e-5
-0.988, 2.756e-5
-0.989, 2.764e-5
-0.990, 2.773e-5
-0.991, 2.780e-5
-0.992, 2.788e-5
-0.993, 2.797e-5
-0.994, 2.804e-5
-0.995, 2.812e-5
-0.996, 2.820e-5
-0.997, 2.828e-5
-0.998, 2.837e-5
-0.999, 2.844e-5
-1.000, 2.852e-5
-1.001, 2.860e-5
-1.002, 2.868e-5
-1.003, 2.876e-5
-1.004, 2.883e-5
-1.005, 2.891e-5
-1.006, 2.899e-5
-1.007, 2.907e-5
-1.008, 2.915e-5
-1.009, 2.923e-5
-1.010, 2.931e-5
-1.011, 2.938e-5
-1.012, 2.946e-5
-1.013, 2.954e-5
-1.014, 2.963e-5
-1.015, 2.970e-5
-1.016, 2.978e-5
-1.017, 2.987e-5
-1.018, 2.995e-5
-1.019, 3.003e-5
-1.020, 3.011e-5
-1.021, 3.019e-5
-1.022, 3.028e-5
-1.023, 3.037e-5
-1.024, 3.046e-5
-1.025, 3.055e-5
-1.026, 3.064e-5
-1.027, 3.073e-5
-1.028, 3.082e-5
-1.029, 3.092e-5
-1.030, 3.101e-5
-1.031, 3.110e-5
-1.032, 3.120e-5
-1.033, 3.130e-5
-1.034, 3.140e-5
-1.035, 3.150e-5
-1.036, 3.160e-5
-1.037, 3.170e-5
-1.038, 3.181e-5
-1.039, 3.192e-5
-1.040, 3.203e-5
-1.041, 3.214e-5
-1.042, 3.225e-5
-1.043, 3.237e-5
-1.044, 3.248e-5
-1.045, 3.259e-5
-1.046, 3.271e-5
-1.047, 3.283e-5
-1.048, 3.295e-5
-1.049, 3.307e-5
-1.050, 3.320e-5
-1.051, 3.333e-5
-1.052, 3.345e-5
-1.053, 3.358e-5
-1.054, 3.372e-5
-1.055, 3.384e-5
-1.056, 3.398e-5
-1.057, 3.412e-5
-1.058, 3.426e-5
-1.059, 3.440e-5
-1.060, 3.454e-5
-1.061, 3.469e-5
-1.062, 3.484e-5
-1.063, 3.499e-5
-1.064, 3.514e-5
-1.065, 3.530e-5
-1.066, 3.545e-5
-1.067, 3.561e-5
-1.068, 3.577e-5
-1.069, 3.593e-5
-1.070, 3.610e-5
-1.071, 3.627e-5
-1.072, 3.644e-5
-1.073, 3.662e-5
-1.074, 3.680e-5
-1.075, 3.699e-5
-1.076, 3.718e-5
-1.077, 3.737e-5
-1.078, 3.756e-5
-1.079, 3.775e-5
-1.080, 3.795e-5
-1.081, 3.815e-5
-1.082, 3.836e-5
-1.083, 3.858e-5
-1.084, 3.879e-5
-1.085, 3.901e-5
-1.086, 3.923e-5
-1.087, 3.946e-5
-1.088, 3.969e-5
-1.089, 3.994e-5
-1.090, 4.017e-5
-1.091, 4.042e-5
-1.092, 4.067e-5
-1.093, 4.092e-5
-1.094, 4.119e-5
-1.095, 4.145e-5
-1.096, 4.172e-5
-1.097, 4.199e-5
-1.098, 4.227e-5
-1.099, 4.256e-5
-1.100, 4.285e-5
-1.101, 4.315e-5
-1.102, 4.346e-5
-1.103, 4.375e-5
-1.104, 4.406e-5
-1.105, 4.438e-5
-1.106, 4.470e-5
-1.107, 4.504e-5
-1.108, 4.539e-5
-1.109, 4.573e-5
-1.110, 4.608e-5
-1.111, 4.644e-5
-1.112, 4.681e-5
-1.113, 4.718e-5
-1.114, 4.756e-5
-1.115, 4.795e-5
-1.116, 4.835e-5
-1.117, 4.875e-5
-1.118, 4.916e-5
-1.119, 4.957e-5
-1.120, 4.999e-5
-1.121, 5.042e-5
-1.122, 5.086e-5
-1.123, 5.131e-5
-1.124, 5.175e-5
-1.125, 5.221e-5
-1.126, 5.268e-5
-1.127, 5.317e-5
-1.128, 5.365e-5
-1.129, 5.415e-5
-1.130, 5.464e-5
-1.131, 5.516e-5
-1.132, 5.569e-5
-1.133, 5.622e-5
-1.134, 5.676e-5
-1.135, 5.731e-5
-1.136, 5.786e-5
-1.137, 5.843e-5
-1.138, 5.900e-5
-1.139, 5.958e-5
-1.140, 6.016e-5
-1.141, 6.077e-5
-1.142, 6.139e-5
-1.143, 6.201e-5
-1.144, 6.264e-5
-1.145, 6.328e-5
-1.146, 6.394e-5
-1.147, 6.461e-5
-1.148, 6.528e-5
-1.149, 6.596e-5
-1.150, 6.665e-5
-1.151, 6.736e-5
-1.152, 6.808e-5
-1.153, 6.881e-5
-1.154, 6.953e-5
-1.155, 7.028e-5
-1.156, 7.103e-5
-1.157, 7.181e-5
-1.158, 7.259e-5
-1.159, 7.337e-5
-1.160, 7.417e-5
-1.161, 7.498e-5
-1.162, 7.578e-5
-1.163, 7.662e-5
-1.164, 7.745e-5
-1.165, 7.830e-5
-1.166, 7.917e-5
-1.167, 8.005e-5
-1.168, 8.093e-5
-1.169, 8.182e-5
-1.170, 8.272e-5
-1.171, 8.363e-5
-1.172, 8.456e-5
-1.173, 8.549e-5
-1.174, 8.644e-5
-1.175, 8.739e-5
-1.176, 8.836e-5
-1.177, 8.933e-5
-1.178, 9.034e-5
-1.179, 9.132e-5
-1.180, 9.231e-5
-1.181, 9.332e-5
-1.182, 9.435e-5
-1.183, 9.538e-5
-1.184, 9.642e-5
-1.185, 9.746e-5
-1.186, 9.852e-5
-1.187, 9.959e-5
-1.188, 1.007e-4
-1.189, 1.017e-4
-1.190, 1.028e-4
-1.191, 1.039e-4
-1.192, 1.050e-4
-1.193, 1.062e-4
-1.194, 1.073e-4
-1.195, 1.084e-4
-1.196, 1.095e-4
-1.197, 1.107e-4
-1.198, 1.118e-4
-1.199, 1.130e-4
-1.200, 1.141e-4
-1.201, 1.153e-4
-1.202, 1.164e-4
-1.203, 1.176e-4
-1.204, 1.188e-4
-1.205, 1.200e-4
-1.206, 1.212e-4
-1.207, 1.224e-4
-1.208, 1.236e-4
-1.209, 1.248e-4
-1.210, 1.260e-4
-1.211, 1.272e-4
-1.212, 1.284e-4
-1.213, 1.296e-4
-1.214, 1.308e-4
-1.215, 1.320e-4
-1.216, 1.332e-4
-1.217, 1.344e-4
-1.218, 1.356e-4
-1.219, 1.368e-4
-1.220, 1.381e-4
-1.221, 1.393e-4
-1.222, 1.405e-4
-1.223, 1.417e-4
-1.224, 1.429e-4
-1.225, 1.441e-4
-1.226, 1.453e-4
-1.227, 1.465e-4
-1.228, 1.477e-4
-1.229, 1.489e-4
-1.230, 1.502e-4
-1.231, 1.513e-4
-1.232, 1.525e-4
-1.233, 1.537e-4
-1.234, 1.549e-4
-1.235, 1.560e-4
-1.236, 1.572e-4
-1.237, 1.584e-4
-1.238, 1.595e-4
-1.239, 1.607e-4
-1.240, 1.618e-4
-1.241, 1.629e-4
-1.242, 1.640e-4
-1.243, 1.652e-4
-1.244, 1.663e-4
-1.245, 1.674e-4
-1.246, 1.685e-4
-1.247, 1.695e-4
-1.248, 1.706e-4
-1.249, 1.717e-4
-1.250, 1.727e-4
-1.251, 1.738e-4
-1.252, 1.748e-4
-1.253, 1.758e-4
-1.254, 1.768e-4
-1.255, 1.778e-4
-1.256, 1.788e-4
-1.257, 1.798e-4
-1.258, 1.808e-4
-1.259, 1.817e-4
-1.260, 1.827e-4
-1.261, 1.836e-4
-1.262, 1.846e-4
-1.263, 1.855e-4
-1.264, 1.863e-4
-1.265, 1.872e-4
-1.266, 1.881e-4
-1.267, 1.890e-4
-1.268, 1.898e-4
-1.269, 1.906e-4
-1.270, 1.915e-4
-1.271, 1.923e-4
-1.272, 1.931e-4
-1.273, 1.939e-4
-1.274, 1.946e-4
-1.275, 1.954e-4
-1.276, 1.961e-4
-1.277, 1.969e-4
-1.278, 1.976e-4
-1.279, 1.983e-4
-1.280, 1.990e-4
-1.281, 1.997e-4
-1.282, 2.004e-4
-1.283, 2.011e-4
-1.284, 2.017e-4
-1.285, 2.023e-4
-1.286, 2.030e-4
-1.287, 2.036e-4
-1.288, 2.042e-4
-1.289, 2.048e-4
-1.290, 2.054e-4
-1.291, 2.060e-4
-1.292, 2.066e-4
-1.293, 2.071e-4
-1.294, 2.077e-4
-1.295, 2.082e-4
-1.296, 2.087e-4
-1.297, 2.092e-4
-1.298, 2.097e-4
-1.299, 2.102e-4
-1.300, 2.107e-4
-1.301, 2.112e-4
-1.302, 2.117e-4
-1.303, 2.121e-4
-1.304, 2.126e-4
-1.305, 2.130e-4
-1.306, 2.134e-4
-1.307, 2.138e-4
-1.308, 2.142e-4
-1.309, 2.146e-4
-1.310, 2.150e-4
-1.311, 2.154e-4
-1.312, 2.157e-4
-1.313, 2.161e-4
-1.314, 2.164e-4
-1.315, 2.168e-4
-1.316, 2.171e-4
-1.317, 2.174e-4
-1.318, 2.177e-4
-1.319, 2.179e-4
-1.320, 2.182e-4
-1.321, 2.185e-4
-1.322, 2.187e-4
-1.323, 2.190e-4
-1.324, 2.192e-4
-1.325, 2.194e-4
-1.326, 2.197e-4
-1.327, 2.199e-4
-1.328, 2.201e-4
-1.329, 2.203e-4
-1.330, 2.205e-4
-1.331, 2.207e-4
-1.332, 2.209e-4
-1.333, 2.211e-4
-1.334, 2.213e-4
-1.335, 2.215e-4
-1.336, 2.217e-4
-1.337, 2.219e-4
-1.338, 2.221e-4
-1.339, 2.223e-4
-1.340, 2.225e-4
-1.341, 2.228e-4
-1.342, 2.230e-4
-1.343, 2.233e-4
-1.344, 2.236e-4
-1.345, 2.239e-4
-1.346, 2.242e-4
-1.347, 2.246e-4
-1.348, 2.250e-4
-1.349, 2.254e-4
-1.350, 2.259e-4
-1.351, 2.264e-4
-1.352, 2.269e-4
-1.353, 2.274e-4
-1.354, 2.280e-4
-1.355, 2.287e-4
-1.356, 2.294e-4
-1.357, 2.302e-4
-1.358, 2.310e-4
-1.359, 2.319e-4
-1.360, 2.328e-4
-1.361, 2.338e-4
-1.362, 2.349e-4
-1.363, 2.361e-4
-1.364, 2.373e-4
-1.365, 2.387e-4
-1.366, 2.401e-4
-1.367, 2.416e-4
-1.368, 2.431e-4
-1.369, 2.448e-4
-1.370, 2.465e-4
-1.371, 2.483e-4
-1.372, 2.502e-4
-1.373, 2.522e-4
-1.374, 2.543e-4
-1.375, 2.565e-4
-1.376, 2.587e-4
-1.377, 2.610e-4
-1.378, 2.634e-4
-1.379, 2.659e-4
-1.380, 2.684e-4
-1.381, 2.710e-4
-1.382, 2.736e-4
-1.383, 2.763e-4
-1.384, 2.791e-4
-1.385, 2.818e-4
-1.386, 2.847e-4
-1.387, 2.876e-4
-1.388, 2.906e-4
-1.389, 2.936e-4
-1.390, 2.967e-4
-1.391, 2.999e-4
-1.392, 3.032e-4
-1.393, 3.066e-4
-1.394, 3.100e-4
-1.395, 3.135e-4
-1.396, 3.172e-4
-1.397, 3.209e-4
-1.398, 3.248e-4
-1.399, 3.287e-4
-1.400, 3.328e-4
-1.401, 3.369e-4
-1.402, 3.412e-4
-1.403, 3.456e-4
-1.404, 3.501e-4
-1.405, 3.547e-4
-1.406, 3.593e-4
-1.407, 3.641e-4
-1.408, 3.690e-4
-1.409, 3.740e-4
-1.410, 3.791e-4
-1.411, 3.843e-4
-1.412, 3.896e-4
-1.413, 3.950e-4
-1.414, 4.005e-4
-1.415, 4.061e-4
-1.416, 4.118e-4
-1.417, 4.176e-4
-1.418, 4.234e-4
-1.419, 4.294e-4
-1.420, 4.354e-4
-1.421, 4.415e-4
-1.422, 4.477e-4
-1.423, 4.539e-4
-1.424, 4.602e-4
-1.425, 4.665e-4
-1.426, 4.729e-4
-1.427, 4.794e-4
-1.428, 4.859e-4
-1.429, 4.925e-4
-1.430, 4.991e-4
-1.431, 5.057e-4
-1.432, 5.124e-4
-1.433, 5.191e-4
-1.434, 5.259e-4
-1.435, 5.326e-4
-1.436, 5.394e-4
-1.437, 5.462e-4
-1.438, 5.531e-4
-1.439, 5.600e-4
-1.440, 5.668e-4
-1.441, 5.736e-4
-1.442, 5.804e-4
-1.443, 5.873e-4
-1.444, 5.942e-4
-1.445, 6.010e-4
-1.446, 6.078e-4
-1.447, 6.147e-4
-1.448, 6.215e-4
-1.449, 6.282e-4
-1.450, 6.349e-4
-1.451, 6.418e-4
-1.452, 6.488e-4
-1.453, 6.559e-4
-1.454, 6.630e-4
-1.455, 6.701e-4
-1.456, 6.774e-4
-1.457, 6.846e-4
-1.458, 6.917e-4
-1.459, 6.989e-4
-1.460, 7.060e-4
-1.461, 7.133e-4
-1.462, 7.207e-4
-1.463, 7.282e-4
-1.464, 7.357e-4
-1.465, 7.430e-4
-1.466, 7.506e-4
-1.467, 7.580e-4
-1.468, 7.655e-4
-1.469, 7.730e-4
-1.470, 7.806e-4
-1.471, 7.882e-4
-1.472, 7.959e-4
-1.473, 8.035e-4
-1.474, 8.111e-4
-1.475, 8.189e-4
-1.476, 8.268e-4
-1.477, 8.348e-4
-1.478, 8.429e-4
-1.479, 8.510e-4
-1.480, 8.591e-4
-1.481, 8.674e-4
-1.482, 8.756e-4
-1.483, 8.838e-4
-1.484, 8.921e-4
-1.485, 9.005e-4
-1.486, 9.088e-4
-1.487, 9.171e-4
-1.488, 9.254e-4
-1.489, 9.337e-4
-1.490, 9.421e-4
-1.491, 9.505e-4
-1.492, 9.587e-4
-1.493, 9.672e-4
-1.494, 9.755e-4
-1.495, 9.843e-4
-1.496, 9.928e-4
-1.497, 1.001e-3
-1.498, 1.009e-3
-1.499, 1.011e-3
-1.500, 1.011e-3
-1.501, 1.011e-3
-1.502, 1.011e-3
-1.503, 1.011e-3
-1.504, 1.011e-3
-1.505, 1.011e-3
-1.506, 1.011e-3
-1.507, 1.011e-3
-1.508, 1.011e-3
-1.509, 1.011e-3
-1.510, 1.011e-3
-1.511, 1.011e-3
-1.512, 1.011e-3
-1.513, 1.011e-3
-1.514, 1.011e-3
-1.515, 1.011e-3
-1.516, 1.011e-3
-1.517, 1.011e-3
-1.518, 1.011e-3
-1.519, 1.011e-3
-1.520, 1.011e-3
-1.521, 1.011e-3
-1.522, 1.011e-3
-1.523, 1.011e-3
-1.524, 1.011e-3
-1.525, 1.011e-3
-1.526, 1.011e-3
-1.527, 1.011e-3
-1.528, 1.011e-3
-1.529, 1.011e-3
-1.530, 1.011e-3
-1.531, 1.011e-3
-1.532, 1.011e-3
-1.533, 1.011e-3
-1.534, 1.011e-3
-1.535, 1.011e-3
-1.536, 1.011e-3
-1.537, 1.011e-3
-1.538, 1.011e-3
-1.539, 1.011e-3
-1.540, 1.011e-3
-1.541, 1.011e-3
-1.542, 1.011e-3
-1.543, 1.011e-3
-1.544, 1.011e-3
-1.545, 1.011e-3
-1.546, 1.011e-3
-1.547, 1.011e-3
-1.548, 1.011e-3
-1.549, 1.011e-3
-1.550, 1.011e-3
-1.551, 1.011e-3
-1.552, 1.011e-3
-1.553, 1.011e-3
-1.554, 1.011e-3
-1.555, 1.011e-3
-1.556, 1.011e-3
-1.557, 1.011e-3
-1.558, 1.011e-3
-1.559, 1.011e-3
-1.560, 1.011e-3
-1.561, 1.011e-3
-1.562, 1.011e-3
-1.563, 1.011e-3
-1.564, 1.011e-3
-1.565, 1.011e-3
-1.566, 1.011e-3
-1.567, 1.011e-3
-1.568, 1.011e-3
-1.569, 1.011e-3
-1.570, 1.011e-3
-1.571, 1.011e-3
-1.572, 1.011e-3
-1.573, 1.011e-3
-1.574, 1.011e-3
-1.575, 1.011e-3
-1.576, 1.011e-3
-1.577, 1.011e-3
-1.578, 1.011e-3
-1.579, 1.011e-3
-1.580, 1.011e-3
-1.581, 1.011e-3
-1.582, 1.011e-3
-1.583, 1.011e-3
-1.584, 1.011e-3
-1.585, 1.011e-3
-1.586, 1.011e-3
-1.587, 1.011e-3
-1.588, 1.011e-3
-1.589, 1.011e-3
-1.590, 1.011e-3
-1.591, 1.011e-3
-1.592, 1.011e-3
-1.593, 1.011e-3
-1.594, 1.011e-3
-1.595, 1.011e-3
-1.596, 1.011e-3
-1.597, 1.011e-3
-1.598, 1.011e-3
-1.599, 1.011e-3
-1.600, 1.011e-3
-1.601, 1.011e-3
-1.602, 1.011e-3
-1.603, 1.011e-3
-1.604, 1.011e-3
-1.605, 1.011e-3
-1.606, 1.011e-3
-1.607, 1.011e-3
-1.608, 1.011e-3
-1.609, 1.011e-3
-1.610, 1.011e-3
-1.611, 1.011e-3
-1.612, 1.011e-3
-1.613, 1.011e-3
-1.614, 1.011e-3
-1.615, 1.011e-3
-1.616, 1.011e-3
-1.617, 1.011e-3
-1.618, 1.011e-3
-1.619, 1.011e-3
-1.620, 1.011e-3
-1.621, 1.011e-3
-1.622, 1.011e-3
-1.623, 1.011e-3
-1.624, 1.011e-3
-1.625, 1.011e-3
-1.626, 1.011e-3
-1.627, 1.011e-3
-1.628, 1.011e-3
-1.629, 1.011e-3
-1.630, 1.011e-3
-1.631, 1.011e-3
-1.632, 1.011e-3
-1.633, 1.011e-3
-1.634, 1.011e-3
-1.635, 1.011e-3
-1.636, 1.011e-3
-1.637, 1.011e-3
-1.638, 1.011e-3
-1.639, 1.011e-3
-1.640, 1.011e-3
-1.641, 1.011e-3
-1.642, 1.011e-3
-1.643, 1.011e-3
-1.644, 1.011e-3
-1.645, 1.011e-3
-1.646, 1.011e-3
-1.647, 1.011e-3
-1.648, 1.011e-3
-1.649, 1.011e-3
-1.650, 1.011e-3
-1.651, 1.011e-3
-1.652, 1.011e-3
-1.653, 1.011e-3
-1.654, 1.011e-3
-1.655, 1.011e-3
-1.656, 1.011e-3
-1.657, 1.011e-3
-1.658, 1.011e-3
-1.659, 1.011e-3
-1.660, 1.011e-3
-1.661, 1.011e-3
-1.662, 1.011e-3
-1.663, 1.011e-3
-1.664, 1.011e-3
-1.665, 1.011e-3
-1.666, 1.011e-3
-1.667, 1.011e-3
-1.668, 1.011e-3
-1.669, 1.011e-3
-1.670, 1.011e-3
-1.671, 1.011e-3
-1.672, 1.011e-3
-1.673, 1.011e-3
-1.674, 1.011e-3
-1.675, 1.011e-3
-1.676, 1.011e-3
-1.677, 1.011e-3
-1.678, 1.011e-3
-1.679, 1.011e-3
-1.680, 1.011e-3
-1.681, 1.011e-3
-1.682, 1.011e-3
-1.683, 1.011e-3
-1.684, 1.011e-3
-1.685, 1.011e-3
-1.686, 1.011e-3
-1.687, 1.011e-3
-1.688, 1.011e-3
-1.689, 1.011e-3
-1.690, 1.011e-3
-1.691, 1.011e-3
-1.692, 1.011e-3
-1.693, 1.011e-3
-1.694, 1.011e-3
-1.695, 1.011e-3
-1.696, 1.011e-3
-1.697, 1.011e-3
-1.698, 1.011e-3
-1.699, 1.011e-3
-1.700, 1.011e-3
-1.701, 1.011e-3
-1.702, 1.011e-3
-1.703, 1.011e-3
-1.704, 1.011e-3
-1.705, 1.011e-3
-1.706, 1.011e-3
-1.707, 1.011e-3
-1.708, 1.011e-3
-1.709, 1.011e-3
-1.710, 1.011e-3
-1.711, 1.011e-3
-1.712, 1.011e-3
-1.713, 1.011e-3
-1.714, 1.011e-3
-1.715, 1.011e-3
-1.716, 1.011e-3
-1.717, 1.011e-3
-1.718, 1.011e-3
-1.719, 1.011e-3
-1.720, 1.011e-3
-1.721, 1.011e-3
-1.722, 1.011e-3
-1.723, 1.011e-3
-1.724, 1.011e-3
-1.725, 1.011e-3
-1.726, 1.011e-3
-1.727, 1.011e-3
-1.728, 1.011e-3
-1.729, 1.011e-3
-1.730, 1.011e-3
-1.731, 1.011e-3
-1.732, 1.011e-3
-1.733, 1.011e-3
-1.734, 1.011e-3
-1.735, 1.011e-3
-1.736, 1.011e-3
-1.737, 1.011e-3
-1.738, 1.011e-3
-1.739, 1.011e-3
-1.740, 1.011e-3
-1.741, 1.011e-3
-1.742, 1.011e-3
-1.743, 1.011e-3
-1.744, 1.011e-3
-1.745, 1.011e-3
-1.746, 1.011e-3
-1.747, 1.011e-3
-1.748, 1.011e-3
-1.749, 1.011e-3
-1.750, 1.011e-3
-1.751, 1.011e-3
-1.752, 1.011e-3
-1.753, 1.011e-3
-1.754, 1.011e-3
-1.755, 1.011e-3
-1.756, 1.011e-3
-1.757, 1.011e-3
-1.758, 1.011e-3
-1.759, 1.011e-3
-1.760, 1.011e-3
-1.761, 1.011e-3
-1.762, 1.011e-3
-1.763, 1.011e-3
-1.764, 1.011e-3
-1.765, 1.011e-3
-1.766, 1.011e-3
-1.767, 1.011e-3
-1.768, 1.011e-3
-1.769, 1.011e-3
-1.770, 1.011e-3
-1.771, 1.011e-3
-1.772, 1.011e-3
-1.773, 1.011e-3
-1.774, 1.011e-3
-1.775, 1.011e-3
-1.776, 1.011e-3
-1.777, 1.011e-3
-1.778, 1.011e-3
-1.779, 1.011e-3
-1.780, 1.011e-3
-1.781, 1.011e-3
-1.782, 1.011e-3
-1.783, 1.011e-3
-1.784, 1.011e-3
-1.785, 1.011e-3
-1.786, 1.011e-3
-1.787, 1.011e-3
-1.788, 1.011e-3
-1.789, 1.011e-3
-1.790, 1.011e-3
-1.791, 1.011e-3
-1.792, 1.011e-3
-1.793, 1.011e-3
-1.794, 1.011e-3
-1.795, 1.011e-3
-1.796, 1.011e-3
-1.797, 1.011e-3
-1.798, 1.011e-3
-1.799, 1.011e-3
-1.800, 1.011e-3
-1.801, 1.011e-3
-1.802, 1.011e-3
-1.803, 1.011e-3
-1.804, 1.011e-3
-1.805, 1.011e-3
-1.806, 1.011e-3
-1.807, 1.011e-3
-1.808, 1.011e-3
-1.809, 1.011e-3
-1.810, 1.011e-3
-1.811, 1.011e-3
-1.812, 1.011e-3
-1.813, 1.011e-3
-1.814, 1.011e-3
-1.815, 1.011e-3
-1.816, 1.011e-3
-1.817, 1.011e-3
-1.818, 1.011e-3
-1.819, 1.011e-3
-1.820, 1.011e-3
-1.821, 1.011e-3
-1.822, 1.011e-3
-1.823, 1.011e-3
-1.824, 1.011e-3
-1.825, 1.011e-3
-1.826, 1.011e-3
-1.827, 1.011e-3
-1.828, 1.011e-3
-1.829, 1.011e-3
-1.830, 1.011e-3
-1.831, 1.011e-3
-1.832, 1.011e-3
-1.833, 1.011e-3
-1.834, 1.011e-3
-1.835, 1.011e-3
-1.836, 1.011e-3
-1.837, 1.011e-3
-1.838, 1.011e-3
-1.839, 1.011e-3
-1.840, 1.011e-3
-1.841, 1.011e-3
-1.842, 1.011e-3
-1.843, 1.011e-3
-1.844, 1.011e-3
-1.845, 1.011e-3
-1.846, 1.011e-3
-1.847, 1.011e-3
-1.848, 1.011e-3
-1.849, 1.011e-3
-1.850, 1.011e-3
-1.851, 1.011e-3
-1.852, 1.011e-3
-1.853, 1.011e-3
-1.854, 1.011e-3
-1.855, 1.011e-3
-1.856, 1.011e-3
-1.857, 1.011e-3
-1.858, 1.011e-3
-1.859, 1.011e-3
-1.860, 1.011e-3
-1.861, 1.011e-3
-1.862, 1.011e-3
-1.863, 1.011e-3
-1.864, 1.011e-3
-1.865, 1.011e-3
-1.866, 1.011e-3
-1.867, 1.011e-3
-1.868, 1.011e-3
-1.869, 1.011e-3
-1.870, 1.011e-3
-1.871, 1.011e-3
-1.872, 1.011e-3
-1.873, 1.011e-3
-1.874, 1.011e-3
-1.875, 1.011e-3
-1.876, 1.011e-3
-1.877, 1.011e-3
-1.878, 1.011e-3
-1.879, 1.011e-3
-1.880, 1.011e-3
-1.881, 1.011e-3
-1.882, 1.011e-3
-1.883, 1.011e-3
-1.884, 1.011e-3
-1.885, 1.011e-3
-1.886, 1.011e-3
-1.887, 1.011e-3
-1.888, 1.011e-3
-1.889, 1.011e-3
-1.890, 1.011e-3
-1.891, 1.011e-3
-1.892, 1.011e-3
-1.893, 1.011e-3
-1.894, 1.011e-3
-1.895, 1.011e-3
-1.896, 1.011e-3
-1.897, 1.011e-3
-1.898, 1.011e-3
-1.899, 1.011e-3
