Dec. 28, 2024   18:59:09
Cyclic Voltammetry
File: c:/users/guazh/data/banditlqround7_x0exp136_r20/2024-12-24-exp770\exp770-2024-12-28t18_48_39-h2koh\exp770_cv_sr_300mvs_efin_-1500mv.bin
Data Source:  Experiment
Instrument Model:  CHI760E
Header: CV ran at 300 mVs
Note: 

Init E (V) = -1
High E (V) = -1
Low E (V) = -1.5
Final E (V) = -1
Init P/N = N
Scan Rate (V/s) = 0.3
Segment = 3
Sample Interval (V) = 0.001
Quiet Time (sec) = 2
Sensitivity (A/V) = 0.01
Comp R (ohm) = 1.5

Results:

Channel 1:
Segment 1:

Segment 2:

Segment 3:

Potential/V, Current/A

-1.000, 3.715e-5
-1.001, 1.050e-4
-1.002, 1.512e-4
-1.003, 2.067e-4
-1.004, 2.622e-4
-1.005, 2.931e-4
-1.006, 2.992e-4
-1.007, 3.054e-4
-1.008, 3.362e-4
-1.009, 3.701e-4
-1.010, 3.825e-4
-1.011, 3.763e-4
-1.012, 3.732e-4
-1.013, 3.917e-4
-1.014, 4.195e-4
-1.015, 4.225e-4
-1.016, 4.102e-4
-1.017, 4.071e-4
-1.018, 4.225e-4
-1.019, 4.472e-4
-1.020, 4.503e-4
-1.021, 4.380e-4
-1.022, 4.287e-4
-1.023, 4.441e-4
-1.024, 4.657e-4
-1.025, 4.657e-4
-1.026, 4.503e-4
-1.027, 4.410e-4
-1.028, 4.534e-4
-1.029, 4.750e-4
-1.030, 4.750e-4
-1.031, 4.595e-4
-1.032, 4.503e-4
-1.033, 4.657e-4
-1.034, 4.873e-4
-1.035, 4.842e-4
-1.036, 4.657e-4
-1.037, 4.534e-4
-1.038, 4.719e-4
-1.039, 4.935e-4
-1.040, 4.935e-4
-1.041, 4.719e-4
-1.042, 4.565e-4
-1.043, 4.657e-4
-1.044, 4.842e-4
-1.045, 4.904e-4
-1.046, 4.750e-4
-1.047, 4.688e-4
-1.048, 4.842e-4
-1.049, 5.027e-4
-1.050, 4.965e-4
-1.051, 4.780e-4
-1.052, 4.688e-4
-1.053, 4.811e-4
-1.054, 4.996e-4
-1.055, 4.965e-4
-1.056, 4.780e-4
-1.057, 4.657e-4
-1.058, 4.750e-4
-1.059, 4.904e-4
-1.060, 4.935e-4
-1.061, 4.780e-4
-1.062, 4.688e-4
-1.063, 4.842e-4
-1.064, 5.027e-4
-1.065, 5.027e-4
-1.066, 4.873e-4
-1.067, 4.750e-4
-1.068, 4.873e-4
-1.069, 5.058e-4
-1.070, 5.027e-4
-1.071, 4.842e-4
-1.072, 4.688e-4
-1.073, 4.811e-4
-1.074, 4.996e-4
-1.075, 5.027e-4
-1.076, 4.904e-4
-1.077, 4.780e-4
-1.078, 4.904e-4
-1.079, 5.058e-4
-1.080, 5.058e-4
-1.081, 4.842e-4
-1.082, 4.719e-4
-1.083, 4.873e-4
-1.084, 5.058e-4
-1.085, 5.089e-4
-1.086, 4.904e-4
-1.087, 4.811e-4
-1.088, 4.904e-4
-1.089, 5.058e-4
-1.090, 5.058e-4
-1.091, 4.873e-4
-1.092, 4.750e-4
-1.093, 4.873e-4
-1.094, 5.058e-4
-1.095, 5.058e-4
-1.096, 4.873e-4
-1.097, 4.811e-4
-1.098, 4.904e-4
-1.099, 5.120e-4
-1.100, 5.120e-4
-1.101, 4.935e-4
-1.102, 4.842e-4
-1.103, 4.965e-4
-1.104, 5.120e-4
-1.105, 5.058e-4
-1.106, 4.842e-4
-1.107, 4.688e-4
-1.108, 4.842e-4
-1.109, 5.089e-4
-1.110, 5.150e-4
-1.111, 4.996e-4
-1.112, 4.873e-4
-1.113, 4.965e-4
-1.114, 5.150e-4
-1.115, 5.120e-4
-1.116, 4.935e-4
-1.117, 4.811e-4
-1.118, 4.904e-4
-1.119, 5.120e-4
-1.120, 5.089e-4
-1.121, 4.935e-4
-1.122, 4.811e-4
-1.123, 4.935e-4
-1.124, 5.150e-4
-1.125, 5.181e-4
-1.126, 4.965e-4
-1.127, 4.873e-4
-1.128, 4.965e-4
-1.129, 5.150e-4
-1.130, 5.150e-4
-1.131, 4.965e-4
-1.132, 4.873e-4
-1.133, 4.965e-4
-1.134, 5.181e-4
-1.135, 5.181e-4
-1.136, 4.996e-4
-1.137, 4.904e-4
-1.138, 4.996e-4
-1.139, 5.212e-4
-1.140, 5.212e-4
-1.141, 5.027e-4
-1.142, 4.935e-4
-1.143, 5.027e-4
-1.144, 5.181e-4
-1.145, 5.181e-4
-1.146, 4.996e-4
-1.147, 4.904e-4
-1.148, 5.027e-4
-1.149, 5.212e-4
-1.150, 5.243e-4
-1.151, 5.058e-4
-1.152, 4.965e-4
-1.153, 5.089e-4
-1.154, 5.274e-4
-1.155, 5.274e-4
-1.156, 5.089e-4
-1.157, 4.965e-4
-1.158, 5.089e-4
-1.159, 5.274e-4
-1.160, 5.274e-4
-1.161, 5.120e-4
-1.162, 4.965e-4
-1.163, 5.089e-4
-1.164, 5.305e-4
-1.165, 5.274e-4
-1.166, 5.120e-4
-1.167, 4.996e-4
-1.168, 5.120e-4
-1.169, 5.305e-4
-1.170, 5.335e-4
-1.171, 5.150e-4
-1.172, 5.058e-4
-1.173, 5.150e-4
-1.174, 5.366e-4
-1.175, 5.366e-4
-1.176, 5.181e-4
-1.177, 5.058e-4
-1.178, 5.181e-4
-1.179, 5.366e-4
-1.180, 5.366e-4
-1.181, 5.212e-4
-1.182, 5.089e-4
-1.183, 5.212e-4
-1.184, 5.397e-4
-1.185, 5.428e-4
-1.186, 5.243e-4
-1.187, 5.150e-4
-1.188, 5.243e-4
-1.189, 5.428e-4
-1.190, 5.428e-4
-1.191, 5.274e-4
-1.192, 5.150e-4
-1.193, 5.274e-4
-1.194, 5.459e-4
-1.195, 5.459e-4
-1.196, 5.305e-4
-1.197, 5.181e-4
-1.198, 5.274e-4
-1.199, 5.489e-4
-1.200, 5.489e-4
-1.201, 5.335e-4
-1.202, 5.212e-4
-1.203, 5.335e-4
-1.204, 5.551e-4
-1.205, 5.551e-4
-1.206, 5.366e-4
-1.207, 5.243e-4
-1.208, 5.335e-4
-1.209, 5.551e-4
-1.210, 5.551e-4
-1.211, 5.397e-4
-1.212, 5.274e-4
-1.213, 5.397e-4
-1.214, 5.582e-4
-1.215, 5.582e-4
-1.216, 5.428e-4
-1.217, 5.305e-4
-1.218, 5.428e-4
-1.219, 5.644e-4
-1.220, 5.644e-4
-1.221, 5.489e-4
-1.222, 5.366e-4
-1.223, 5.459e-4
-1.224, 5.644e-4
-1.225, 5.674e-4
-1.226, 5.489e-4
-1.227, 5.397e-4
-1.228, 5.489e-4
-1.229, 5.736e-4
-1.230, 5.736e-4
-1.231, 5.582e-4
-1.232, 5.459e-4
-1.233, 5.551e-4
-1.234, 5.767e-4
-1.235, 5.767e-4
-1.236, 5.582e-4
-1.237, 5.459e-4
-1.238, 5.613e-4
-1.239, 5.798e-4
-1.240, 5.829e-4
-1.241, 5.674e-4
-1.242, 5.582e-4
-1.243, 5.674e-4
-1.244, 5.859e-4
-1.245, 5.859e-4
-1.246, 5.705e-4
-1.247, 5.613e-4
-1.248, 5.736e-4
-1.249, 5.921e-4
-1.250, 5.921e-4
-1.251, 5.736e-4
-1.252, 5.613e-4
-1.253, 5.736e-4
-1.254, 5.952e-4
-1.255, 5.983e-4
-1.256, 5.798e-4
-1.257, 5.674e-4
-1.258, 5.829e-4
-1.259, 6.014e-4
-1.260, 6.075e-4
-1.261, 5.890e-4
-1.262, 5.798e-4
-1.263, 5.921e-4
-1.264, 6.106e-4
-1.265, 6.137e-4
-1.266, 5.952e-4
-1.267, 5.859e-4
-1.268, 5.983e-4
-1.269, 6.168e-4
-1.270, 6.199e-4
-1.271, 6.044e-4
-1.272, 5.952e-4
-1.273, 6.075e-4
-1.274, 6.260e-4
-1.275, 6.291e-4
-1.276, 6.168e-4
-1.277, 6.044e-4
-1.278, 6.168e-4
-1.279, 6.353e-4
-1.280, 6.353e-4
-1.281, 6.229e-4
-1.282, 6.137e-4
-1.283, 6.260e-4
-1.284, 6.476e-4
-1.285, 6.538e-4
-1.286, 6.384e-4
-1.287, 6.291e-4
-1.288, 6.476e-4
-1.289, 6.661e-4
-1.290, 6.661e-4
-1.291, 6.445e-4
-1.292, 6.353e-4
-1.293, 6.476e-4
-1.294, 6.723e-4
-1.295, 6.784e-4
-1.296, 6.630e-4
-1.297, 6.569e-4
-1.298, 6.692e-4
-1.299, 6.908e-4
-1.300, 6.969e-4
-1.301, 6.815e-4
-1.302, 6.754e-4
-1.303, 6.846e-4
-1.304, 7.062e-4
-1.305, 7.124e-4
-1.306, 7.000e-4
-1.307, 6.939e-4
-1.308, 7.062e-4
-1.309, 7.278e-4
-1.310, 7.309e-4
-1.311, 7.185e-4
-1.312, 7.093e-4
-1.313, 7.247e-4
-1.314, 7.494e-4
-1.315, 7.555e-4
-1.316, 7.432e-4
-1.317, 7.278e-4
-1.318, 7.370e-4
-1.319, 7.586e-4
-1.320, 7.679e-4
-1.321, 7.679e-4
-1.322, 7.679e-4
-1.323, 7.863e-4
-1.324, 8.141e-4
-1.325, 8.172e-4
-1.326, 7.987e-4
-1.327, 7.894e-4
-1.328, 8.018e-4
-1.329, 8.295e-4
-1.330, 8.388e-4
-1.331, 8.295e-4
-1.332, 8.264e-4
-1.333, 8.449e-4
-1.334, 8.665e-4
-1.335, 8.727e-4
-1.336, 8.603e-4
-1.337, 8.542e-4
-1.338, 8.727e-4
-1.339, 9.004e-4
-1.340, 9.128e-4
-1.341, 9.066e-4
-1.342, 9.004e-4
-1.343, 9.189e-4
-1.344, 9.467e-4
-1.345, 9.528e-4
-1.346, 9.405e-4
-1.347, 9.313e-4
-1.348, 9.528e-4
-1.349, 9.868e-4
-1.350, 1.002e-3
-1.351, 9.991e-4
-1.352, 9.960e-4
-1.353, 1.014e-3
-1.354, 1.042e-3
-1.355, 1.048e-3
-1.356, 1.036e-3
-1.357, 1.033e-3
-1.358, 1.055e-3
-1.359, 1.085e-3
-1.360, 1.104e-3
-1.361, 1.101e-3
-1.362, 1.101e-3
-1.363, 1.122e-3
-1.364, 1.150e-3
-1.365, 1.162e-3
-1.366, 1.153e-3
-1.367, 1.153e-3
-1.368, 1.175e-3
-1.369, 1.209e-3
-1.370, 1.224e-3
-1.371, 1.224e-3
-1.372, 1.227e-3
-1.373, 1.252e-3
-1.374, 1.289e-3
-1.375, 1.304e-3
-1.376, 1.301e-3
-1.377, 1.301e-3
-1.378, 1.320e-3
-1.379, 1.351e-3
-1.380, 1.366e-3
-1.381, 1.366e-3
-1.382, 1.372e-3
-1.383, 1.406e-3
-1.384, 1.446e-3
-1.385, 1.468e-3
-1.386, 1.468e-3
-1.387, 1.468e-3
-1.388, 1.495e-3
-1.389, 1.536e-3
-1.390, 1.563e-3
-1.391, 1.569e-3
-1.392, 1.582e-3
-1.393, 1.613e-3
-1.394, 1.643e-3
-1.395, 1.662e-3
-1.396, 1.665e-3
-1.397, 1.671e-3
-1.398, 1.699e-3
-1.399, 1.742e-3
-1.400, 1.773e-3
-1.401, 1.782e-3
-1.402, 1.795e-3
-1.403, 1.828e-3
-1.404, 1.872e-3
-1.405, 1.893e-3
-1.406, 1.899e-3
-1.407, 1.915e-3
-1.408, 1.955e-3
-1.409, 2.007e-3
-1.410, 2.041e-3
-1.411, 2.054e-3
-1.412, 2.066e-3
-1.413, 2.097e-3
-1.414, 2.137e-3
-1.415, 2.161e-3
-1.416, 2.171e-3
-1.417, 2.186e-3
-1.418, 2.229e-3
-1.419, 2.294e-3
-1.420, 2.340e-3
-1.421, 2.362e-3
-1.422, 2.386e-3
-1.423, 2.430e-3
-1.424, 2.479e-3
-1.425, 2.507e-3
-1.426, 2.522e-3
-1.427, 2.538e-3
-1.428, 2.578e-3
-1.429, 2.633e-3
-1.430, 2.676e-3
-1.431, 2.707e-3
-1.432, 2.747e-3
-1.433, 2.809e-3
-1.434, 2.901e-3
-1.435, 2.938e-3
-1.436, 2.954e-3
-1.437, 2.966e-3
-1.438, 3.003e-3
-1.439, 3.052e-3
-1.440, 3.093e-3
-1.441, 3.123e-3
-1.442, 3.167e-3
-1.443, 3.237e-3
-1.444, 3.324e-3
-1.445, 3.385e-3
-1.446, 3.419e-3
-1.447, 3.453e-3
-1.448, 3.509e-3
-1.449, 3.586e-3
-1.450, 3.654e-3
-1.451, 3.712e-3
-1.452, 3.768e-3
-1.453, 3.836e-3
-1.454, 3.906e-3
-1.455, 3.953e-3
-1.456, 3.980e-3
-1.457, 4.011e-3
-1.458, 4.067e-3
-1.459, 4.138e-3
-1.460, 4.196e-3
-1.461, 4.243e-3
-1.462, 4.292e-3
-1.463, 4.366e-3
-1.464, 4.458e-3
-1.465, 4.529e-3
-1.466, 4.569e-3
-1.467, 4.606e-3
-1.468, 4.662e-3
-1.469, 4.730e-3
-1.470, 4.788e-3
-1.471, 4.841e-3
-1.472, 4.890e-3
-1.473, 4.961e-3
-1.474, 5.038e-3
-1.475, 5.106e-3
-1.476, 5.152e-3
-1.477, 5.204e-3
-1.478, 5.275e-3
-1.479, 5.349e-3
-1.480, 5.408e-3
-1.481, 5.454e-3
-1.482, 5.516e-3
-1.483, 5.596e-3
-1.484, 5.679e-3
-1.485, 5.741e-3
-1.486, 5.784e-3
-1.487, 5.827e-3
-1.488, 5.895e-3
-1.489, 5.975e-3
-1.490, 6.037e-3
-1.491, 6.086e-3
-1.492, 6.179e-3
-1.493, 6.231e-3
-1.494, 6.324e-3
-1.495, 6.401e-3
-1.496, 6.447e-3
-1.497, 6.502e-3
-1.498, 6.570e-3
-1.499, 6.647e-3
-1.500, 6.669e-3
-1.499, 6.515e-3
-1.498, 6.413e-3
-1.497, 6.348e-3
-1.496, 6.311e-3
-1.495, 6.256e-3
-1.494, 6.185e-3
-1.493, 6.114e-3
-1.492, 6.062e-3
-1.491, 6.009e-3
-1.490, 5.938e-3
-1.489, 5.852e-3
-1.488, 5.769e-3
-1.487, 5.719e-3
-1.486, 5.676e-3
-1.485, 5.624e-3
-1.484, 5.547e-3
-1.483, 5.476e-3
-1.482, 5.426e-3
-1.481, 5.396e-3
-1.480, 5.346e-3
-1.479, 5.257e-3
-1.478, 5.158e-3
-1.477, 5.078e-3
-1.476, 5.035e-3
-1.475, 4.989e-3
-1.474, 4.927e-3
-1.473, 4.868e-3
-1.472, 4.828e-3
-1.471, 4.788e-3
-1.470, 4.730e-3
-1.469, 4.659e-3
-1.468, 4.588e-3
-1.467, 4.563e-3
-1.466, 4.480e-3
-1.465, 4.403e-3
-1.464, 4.320e-3
-1.463, 4.258e-3
-1.462, 4.239e-3
-1.461, 4.252e-3
-1.460, 4.230e-3
-1.459, 4.187e-3
-1.458, 4.101e-3
-1.457, 4.051e-3
-1.456, 3.996e-3
-1.455, 3.894e-3
-1.454, 3.799e-3
-1.453, 3.743e-3
-1.452, 3.697e-3
-1.451, 3.684e-3
-1.450, 3.654e-3
-1.449, 3.614e-3
-1.448, 3.530e-3
-1.447, 3.478e-3
-1.446, 3.425e-3
-1.445, 3.358e-3
-1.444, 3.299e-3
-1.443, 3.259e-3
-1.442, 3.222e-3
-1.441, 3.197e-3
-1.440, 3.163e-3
-1.439, 3.105e-3
-1.438, 3.049e-3
-1.437, 3.015e-3
-1.436, 2.985e-3
-1.435, 2.935e-3
-1.434, 2.871e-3
-1.433, 2.806e-3
-1.432, 2.772e-3
-1.431, 2.750e-3
-1.430, 2.713e-3
-1.429, 2.661e-3
-1.428, 2.612e-3
-1.427, 2.584e-3
-1.426, 2.562e-3
-1.425, 2.513e-3
-1.424, 2.442e-3
-1.423, 2.371e-3
-1.422, 2.331e-3
-1.421, 2.319e-3
-1.420, 2.291e-3
-1.419, 2.245e-3
-1.418, 2.201e-3
-1.417, 2.171e-3
-1.416, 2.152e-3
-1.415, 2.118e-3
-1.414, 2.063e-3
-1.413, 2.010e-3
-1.412, 1.973e-3
-1.411, 1.946e-3
-1.410, 1.906e-3
-1.409, 1.856e-3
-1.408, 1.819e-3
-1.407, 1.801e-3
-1.406, 1.795e-3
-1.405, 1.767e-3
-1.404, 1.714e-3
-1.403, 1.668e-3
-1.402, 1.637e-3
-1.401, 1.606e-3
-1.400, 1.573e-3
-1.399, 1.523e-3
-1.398, 1.480e-3
-1.397, 1.458e-3
-1.396, 1.449e-3
-1.395, 1.428e-3
-1.394, 1.381e-3
-1.393, 1.341e-3
-1.392, 1.323e-3
-1.391, 1.314e-3
-1.390, 1.286e-3
-1.389, 1.236e-3
-1.388, 1.196e-3
-1.387, 1.178e-3
-1.386, 1.172e-3
-1.385, 1.150e-3
-1.384, 1.132e-3
-1.383, 1.088e-3
-1.382, 1.061e-3
-1.381, 1.048e-3
-1.380, 1.030e-3
-1.379, 9.929e-4
-1.378, 9.559e-4
-1.377, 9.374e-4
-1.376, 9.282e-4
-1.375, 9.004e-4
-1.374, 8.573e-4
-1.373, 8.203e-4
-1.372, 8.018e-4
-1.371, 7.987e-4
-1.370, 7.802e-4
-1.369, 7.494e-4
-1.368, 7.185e-4
-1.367, 7.062e-4
-1.366, 7.124e-4
-1.365, 6.939e-4
-1.364, 6.538e-4
-1.363, 6.168e-4
-1.362, 6.014e-4
-1.361, 5.983e-4
-1.360, 5.829e-4
-1.359, 5.489e-4
-1.358, 5.181e-4
-1.357, 5.120e-4
-1.356, 5.120e-4
-1.355, 4.965e-4
-1.354, 4.595e-4
-1.353, 4.256e-4
-1.352, 4.164e-4
-1.351, 4.164e-4
-1.350, 4.040e-4
-1.349, 3.732e-4
-1.348, 3.424e-4
-1.347, 3.362e-4
-1.346, 3.393e-4
-1.345, 3.300e-4
-1.344, 3.054e-4
-1.343, 2.776e-4
-1.342, 2.684e-4
-1.341, 2.715e-4
-1.340, 2.561e-4
-1.339, 2.252e-4
-1.338, 1.975e-4
-1.337, 1.913e-4
-1.336, 1.975e-4
-1.335, 1.882e-4
-1.334, 1.605e-4
-1.333, 1.327e-4
-1.332, 1.296e-4
-1.331, 1.358e-4
-1.330, 1.266e-4
-1.329, 9.882e-5
-1.328, 7.415e-5
-1.327, 7.107e-5
-1.326, 7.723e-5
-1.325, 7.107e-5
-1.324, 4.332e-5
-1.323, 1.865e-5
-1.322, 1.557e-5
-1.321, 2.174e-5
-1.320, 1.865e-5
-1.319, -9.093e-6
-1.318, -3.376e-5
-1.317, -3.376e-5
-1.316, -2.451e-5
-1.315, -3.068e-5
-1.314, -5.534e-5
-1.313, -8.000e-5
-1.312, -8.000e-5
-1.311, -6.767e-5
-1.310, -7.692e-5
-1.309, -9.850e-5
-1.308, -1.201e-4
-1.307, -1.201e-4
-1.306, -1.108e-4
-1.305, -1.170e-4
-1.304, -1.386e-4
-1.303, -1.602e-4
-1.302, -1.602e-4
-1.301, -1.478e-4
-1.300, -1.509e-4
-1.299, -1.725e-4
-1.298, -1.941e-4
-1.297, -1.941e-4
-1.296, -1.817e-4
-1.295, -1.848e-4
-1.294, -2.064e-4
-1.293, -2.249e-4
-1.292, -2.249e-4
-1.291, -2.126e-4
-1.290, -2.157e-4
-1.289, -2.342e-4
-1.288, -2.557e-4
-1.287, -2.527e-4
-1.286, -2.403e-4
-1.285, -2.403e-4
-1.284, -2.650e-4
-1.283, -2.804e-4
-1.282, -2.804e-4
-1.281, -2.619e-4
-1.280, -2.650e-4
-1.279, -2.866e-4
-1.278, -3.051e-4
-1.277, -3.020e-4
-1.276, -2.866e-4
-1.275, -2.866e-4
-1.274, -3.082e-4
-1.273, -3.267e-4
-1.272, -3.236e-4
-1.271, -3.082e-4
-1.270, -3.112e-4
-1.269, -3.297e-4
-1.268, -3.482e-4
-1.267, -3.421e-4
-1.266, -3.267e-4
-1.265, -3.297e-4
-1.264, -3.482e-4
-1.263, -3.637e-4
-1.262, -3.606e-4
-1.261, -3.452e-4
-1.260, -3.482e-4
-1.259, -3.637e-4
-1.258, -3.821e-4
-1.257, -3.760e-4
-1.256, -3.606e-4
-1.255, -3.606e-4
-1.254, -3.791e-4
-1.253, -3.976e-4
-1.252, -3.945e-4
-1.251, -3.760e-4
-1.250, -3.729e-4
-1.249, -3.914e-4
-1.248, -4.068e-4
-1.247, -4.006e-4
-1.246, -3.883e-4
-1.245, -3.852e-4
-1.244, -4.068e-4
-1.243, -4.222e-4
-1.242, -4.161e-4
-1.241, -4.006e-4
-1.240, -3.976e-4
-1.239, -4.161e-4
-1.238, -4.346e-4
-1.237, -4.284e-4
-1.236, -4.099e-4
-1.235, -4.068e-4
-1.234, -4.253e-4
-1.233, -4.407e-4
-1.232, -4.376e-4
-1.231, -4.222e-4
-1.230, -4.191e-4
-1.229, -4.407e-4
-1.228, -4.561e-4
-1.227, -4.469e-4
-1.226, -4.315e-4
-1.225, -4.253e-4
-1.224, -4.438e-4
-1.223, -4.592e-4
-1.222, -4.531e-4
-1.221, -4.376e-4
-1.220, -4.346e-4
-1.219, -4.531e-4
-1.218, -4.685e-4
-1.217, -4.623e-4
-1.216, -4.469e-4
-1.215, -4.407e-4
-1.214, -4.592e-4
-1.213, -4.777e-4
-1.212, -4.685e-4
-1.211, -4.531e-4
-1.210, -4.500e-4
-1.209, -4.654e-4
-1.208, -4.808e-4
-1.207, -4.716e-4
-1.206, -4.561e-4
-1.205, -4.561e-4
-1.204, -4.716e-4
-1.203, -4.870e-4
-1.202, -4.808e-4
-1.201, -4.654e-4
-1.200, -4.592e-4
-1.199, -4.777e-4
-1.198, -4.931e-4
-1.197, -4.870e-4
-1.196, -4.685e-4
-1.195, -4.654e-4
-1.194, -4.808e-4
-1.193, -4.993e-4
-1.192, -4.901e-4
-1.191, -4.746e-4
-1.190, -4.716e-4
-1.189, -4.870e-4
-1.188, -5.055e-4
-1.187, -4.962e-4
-1.186, -4.746e-4
-1.185, -4.716e-4
-1.184, -4.870e-4
-1.183, -5.024e-4
-1.182, -4.962e-4
-1.181, -4.777e-4
-1.180, -4.777e-4
-1.179, -4.931e-4
-1.178, -5.116e-4
-1.177, -5.086e-4
-1.176, -4.901e-4
-1.175, -4.839e-4
-1.174, -4.993e-4
-1.173, -5.147e-4
-1.172, -5.055e-4
-1.171, -4.870e-4
-1.170, -4.839e-4
-1.169, -5.024e-4
-1.168, -5.178e-4
-1.167, -5.116e-4
-1.166, -4.931e-4
-1.165, -4.901e-4
-1.164, -5.055e-4
-1.163, -5.209e-4
-1.162, -5.178e-4
-1.161, -4.962e-4
-1.160, -4.931e-4
-1.159, -5.116e-4
-1.158, -5.271e-4
-1.157, -5.209e-4
-1.156, -5.116e-4
-1.155, -4.993e-4
-1.154, -5.147e-4
-1.153, -5.301e-4
-1.152, -5.240e-4
-1.151, -5.055e-4
-1.150, -5.024e-4
-1.149, -5.178e-4
-1.148, -5.301e-4
-1.147, -5.240e-4
-1.146, -5.086e-4
-1.145, -5.055e-4
-1.144, -5.209e-4
-1.143, -5.363e-4
-1.142, -5.301e-4
-1.141, -5.086e-4
-1.140, -5.055e-4
-1.139, -5.209e-4
-1.138, -5.363e-4
-1.137, -5.332e-4
-1.136, -5.147e-4
-1.135, -5.116e-4
-1.134, -5.301e-4
-1.133, -5.425e-4
-1.132, -5.363e-4
-1.131, -5.178e-4
-1.130, -5.116e-4
-1.129, -5.271e-4
-1.128, -5.425e-4
-1.127, -5.363e-4
-1.126, -5.178e-4
-1.125, -5.147e-4
-1.124, -5.332e-4
-1.123, -5.456e-4
-1.122, -5.394e-4
-1.121, -5.209e-4
-1.120, -5.178e-4
-1.119, -5.332e-4
-1.118, -5.456e-4
-1.117, -5.425e-4
-1.116, -5.240e-4
-1.115, -5.178e-4
-1.114, -5.363e-4
-1.113, -5.517e-4
-1.112, -5.456e-4
-1.111, -5.301e-4
-1.110, -5.271e-4
-1.109, -5.425e-4
-1.108, -5.579e-4
-1.107, -5.517e-4
-1.106, -5.332e-4
-1.105, -5.271e-4
-1.104, -5.394e-4
-1.103, -5.548e-4
-1.102, -5.486e-4
-1.101, -5.271e-4
-1.100, -5.240e-4
-1.099, -5.425e-4
-1.098, -5.610e-4
-1.097, -5.548e-4
-1.096, -5.425e-4
-1.095, -5.363e-4
-1.094, -5.517e-4
-1.093, -5.641e-4
-1.092, -5.610e-4
-1.091, -5.394e-4
-1.090, -5.332e-4
-1.089, -5.486e-4
-1.088, -5.610e-4
-1.087, -5.548e-4
-1.086, -5.394e-4
-1.085, -5.363e-4
-1.084, -5.548e-4
-1.083, -5.702e-4
-1.082, -5.641e-4
-1.081, -5.456e-4
-1.080, -5.425e-4
-1.079, -5.579e-4
-1.078, -5.733e-4
-1.077, -5.671e-4
-1.076, -5.456e-4
-1.075, -5.456e-4
-1.074, -5.610e-4
-1.073, -5.764e-4
-1.072, -5.702e-4
-1.071, -5.517e-4
-1.070, -5.456e-4
-1.069, -5.610e-4
-1.068, -5.764e-4
-1.067, -5.702e-4
-1.066, -5.548e-4
-1.065, -5.517e-4
-1.064, -5.702e-4
-1.063, -5.887e-4
-1.062, -5.826e-4
-1.061, -5.610e-4
-1.060, -5.548e-4
-1.059, -5.702e-4
-1.058, -5.826e-4
-1.057, -5.764e-4
-1.056, -5.579e-4
-1.055, -5.579e-4
-1.054, -5.733e-4
-1.053, -5.918e-4
-1.052, -5.856e-4
-1.051, -5.671e-4
-1.050, -5.641e-4
-1.049, -5.795e-4
-1.048, -5.949e-4
-1.047, -5.856e-4
-1.046, -5.671e-4
-1.045, -5.610e-4
-1.044, -5.795e-4
-1.043, -5.980e-4
-1.042, -5.918e-4
-1.041, -5.795e-4
-1.040, -5.733e-4
-1.039, -5.887e-4
-1.038, -6.041e-4
-1.037, -5.980e-4
-1.036, -5.795e-4
-1.035, -5.733e-4
-1.034, -5.887e-4
-1.033, -6.011e-4
-1.032, -5.980e-4
-1.031, -5.826e-4
-1.030, -5.795e-4
-1.029, -6.011e-4
-1.028, -6.195e-4
-1.027, -6.134e-4
-1.026, -5.949e-4
-1.025, -5.887e-4
-1.024, -6.041e-4
-1.023, -6.195e-4
-1.022, -6.134e-4
-1.021, -5.980e-4
-1.020, -5.949e-4
-1.019, -6.134e-4
-1.018, -6.319e-4
-1.017, -6.257e-4
-1.016, -6.072e-4
-1.015, -6.041e-4
-1.014, -6.165e-4
-1.013, -6.288e-4
-1.012, -6.195e-4
-1.011, -6.041e-4
-1.010, -6.011e-4
-1.009, -6.226e-4
-1.008, -6.442e-4
-1.007, -6.442e-4
-1.006, -6.257e-4
-1.005, -6.195e-4
-1.004, -6.350e-4
-1.003, -6.504e-4
-1.002, -6.473e-4
-1.001, -6.288e-4
