Dec. 27, 2024   06:44:54
Cyclic Voltammetry
File: c:/users/guazh/data/banditlqround7_x0exp136_r20/2024-12-24-exp755\exp755-2024-12-27t06_34_31-arkoh\exp755_cv_sr_300mvs_efin_-1500mv.bin
Data Source:  Experiment
Instrument Model:  CHI760E
Header: CV ran at 300 mVs
Note: 

Init E (V) = -1
High E (V) = -1
Low E (V) = -1.5
Final E (V) = -1
Init P/N = N
Scan Rate (V/s) = 0.3
Segment = 3
Sample Interval (V) = 0.001
Quiet Time (sec) = 2
Sensitivity (A/V) = 0.01
Comp R (ohm) = 1.4

Results:

Channel 1:
Segment 1:

Segment 2:

Segment 3:

Potential/V, Current/A

-1.000, -2.451e-5
-1.001, 2.482e-5
-1.002, 5.565e-5
-1.003, 8.032e-5
-1.004, 1.111e-4
-1.005, 1.389e-4
-1.006, 1.574e-4
-1.007, 1.697e-4
-1.008, 1.821e-4
-1.009, 2.006e-4
-1.010, 2.221e-4
-1.011, 2.345e-4
-1.012, 2.406e-4
-1.013, 2.499e-4
-1.014, 2.653e-4
-1.015, 2.807e-4
-1.016, 2.900e-4
-1.017, 2.931e-4
-1.018, 3.023e-4
-1.019, 3.146e-4
-1.020, 3.331e-4
-1.021, 3.393e-4
-1.022, 3.393e-4
-1.023, 3.455e-4
-1.024, 3.578e-4
-1.025, 3.701e-4
-1.026, 3.794e-4
-1.027, 3.794e-4
-1.028, 3.855e-4
-1.029, 3.979e-4
-1.030, 4.102e-4
-1.031, 4.164e-4
-1.032, 4.195e-4
-1.033, 4.256e-4
-1.034, 4.380e-4
-1.035, 4.503e-4
-1.036, 4.565e-4
-1.037, 4.565e-4
-1.038, 4.595e-4
-1.039, 4.688e-4
-1.040, 4.811e-4
-1.041, 4.904e-4
-1.042, 4.904e-4
-1.043, 4.935e-4
-1.044, 5.058e-4
-1.045, 5.212e-4
-1.046, 5.274e-4
-1.047, 5.274e-4
-1.048, 5.305e-4
-1.049, 5.428e-4
-1.050, 5.551e-4
-1.051, 5.613e-4
-1.052, 5.582e-4
-1.053, 5.644e-4
-1.054, 5.767e-4
-1.055, 5.890e-4
-1.056, 5.921e-4
-1.057, 5.921e-4
-1.058, 5.952e-4
-1.059, 6.044e-4
-1.060, 6.199e-4
-1.061, 6.229e-4
-1.062, 6.229e-4
-1.063, 6.260e-4
-1.064, 6.414e-4
-1.065, 6.538e-4
-1.066, 6.599e-4
-1.067, 6.599e-4
-1.068, 6.599e-4
-1.069, 6.692e-4
-1.070, 6.815e-4
-1.071, 6.877e-4
-1.072, 6.846e-4
-1.073, 6.846e-4
-1.074, 6.939e-4
-1.075, 7.062e-4
-1.076, 7.124e-4
-1.077, 7.093e-4
-1.078, 7.093e-4
-1.079, 7.154e-4
-1.080, 7.247e-4
-1.081, 7.247e-4
-1.082, 7.185e-4
-1.083, 7.185e-4
-1.084, 7.278e-4
-1.085, 7.370e-4
-1.086, 7.432e-4
-1.087, 7.401e-4
-1.088, 7.370e-4
-1.089, 7.463e-4
-1.090, 7.524e-4
-1.091, 7.524e-4
-1.092, 7.432e-4
-1.093, 7.370e-4
-1.094, 7.432e-4
-1.095, 7.494e-4
-1.096, 7.494e-4
-1.097, 7.432e-4
-1.098, 7.432e-4
-1.099, 7.494e-4
-1.100, 7.586e-4
-1.101, 7.555e-4
-1.102, 7.494e-4
-1.103, 7.463e-4
-1.104, 7.494e-4
-1.105, 7.524e-4
-1.106, 7.524e-4
-1.107, 7.432e-4
-1.108, 7.401e-4
-1.109, 7.432e-4
-1.110, 7.463e-4
-1.111, 7.432e-4
-1.112, 7.370e-4
-1.113, 7.309e-4
-1.114, 7.278e-4
-1.115, 7.309e-4
-1.116, 7.309e-4
-1.117, 7.247e-4
-1.118, 7.185e-4
-1.119, 7.247e-4
-1.120, 7.339e-4
-1.121, 7.278e-4
-1.122, 7.154e-4
-1.123, 7.031e-4
-1.124, 6.969e-4
-1.125, 6.969e-4
-1.126, 6.908e-4
-1.127, 6.784e-4
-1.128, 6.723e-4
-1.129, 6.754e-4
-1.130, 6.784e-4
-1.131, 6.754e-4
-1.132, 6.692e-4
-1.133, 6.630e-4
-1.134, 6.630e-4
-1.135, 6.661e-4
-1.136, 6.569e-4
-1.137, 6.445e-4
-1.138, 6.353e-4
-1.139, 6.384e-4
-1.140, 6.414e-4
-1.141, 6.353e-4
-1.142, 6.229e-4
-1.143, 6.168e-4
-1.144, 6.168e-4
-1.145, 6.199e-4
-1.146, 6.106e-4
-1.147, 5.983e-4
-1.148, 5.921e-4
-1.149, 5.921e-4
-1.150, 5.921e-4
-1.151, 5.859e-4
-1.152, 5.736e-4
-1.153, 5.674e-4
-1.154, 5.674e-4
-1.155, 5.705e-4
-1.156, 5.644e-4
-1.157, 5.582e-4
-1.158, 5.489e-4
-1.159, 5.520e-4
-1.160, 5.520e-4
-1.161, 5.459e-4
-1.162, 5.366e-4
-1.163, 5.274e-4
-1.164, 5.305e-4
-1.165, 5.335e-4
-1.166, 5.274e-4
-1.167, 5.150e-4
-1.168, 5.089e-4
-1.169, 5.120e-4
-1.170, 5.150e-4
-1.171, 5.058e-4
-1.172, 4.965e-4
-1.173, 4.904e-4
-1.174, 4.935e-4
-1.175, 4.996e-4
-1.176, 4.935e-4
-1.177, 4.842e-4
-1.178, 4.780e-4
-1.179, 4.811e-4
-1.180, 4.842e-4
-1.181, 4.811e-4
-1.182, 4.719e-4
-1.183, 4.626e-4
-1.184, 4.688e-4
-1.185, 4.719e-4
-1.186, 4.688e-4
-1.187, 4.595e-4
-1.188, 4.503e-4
-1.189, 4.534e-4
-1.190, 4.565e-4
-1.191, 4.534e-4
-1.192, 4.441e-4
-1.193, 4.380e-4
-1.194, 4.410e-4
-1.195, 4.441e-4
-1.196, 4.410e-4
-1.197, 4.318e-4
-1.198, 4.225e-4
-1.199, 4.287e-4
-1.200, 4.318e-4
-1.201, 4.287e-4
-1.202, 4.195e-4
-1.203, 4.133e-4
-1.204, 4.164e-4
-1.205, 4.195e-4
-1.206, 4.164e-4
-1.207, 4.071e-4
-1.208, 4.010e-4
-1.209, 4.071e-4
-1.210, 4.102e-4
-1.211, 4.071e-4
-1.212, 4.010e-4
-1.213, 3.948e-4
-1.214, 3.979e-4
-1.215, 4.010e-4
-1.216, 3.948e-4
-1.217, 3.886e-4
-1.218, 3.825e-4
-1.219, 3.886e-4
-1.220, 3.917e-4
-1.221, 3.886e-4
-1.222, 3.825e-4
-1.223, 3.763e-4
-1.224, 3.794e-4
-1.225, 3.855e-4
-1.226, 3.794e-4
-1.227, 3.732e-4
-1.228, 3.670e-4
-1.229, 3.732e-4
-1.230, 3.794e-4
-1.231, 3.732e-4
-1.232, 3.670e-4
-1.233, 3.640e-4
-1.234, 3.701e-4
-1.235, 3.732e-4
-1.236, 3.701e-4
-1.237, 3.640e-4
-1.238, 3.578e-4
-1.239, 3.640e-4
-1.240, 3.670e-4
-1.241, 3.640e-4
-1.242, 3.547e-4
-1.243, 3.485e-4
-1.244, 3.547e-4
-1.245, 3.578e-4
-1.246, 3.547e-4
-1.247, 3.485e-4
-1.248, 3.455e-4
-1.249, 3.516e-4
-1.250, 3.578e-4
-1.251, 3.547e-4
-1.252, 3.455e-4
-1.253, 3.424e-4
-1.254, 3.455e-4
-1.255, 3.516e-4
-1.256, 3.485e-4
-1.257, 3.393e-4
-1.258, 3.362e-4
-1.259, 3.424e-4
-1.260, 3.485e-4
-1.261, 3.455e-4
-1.262, 3.362e-4
-1.263, 3.331e-4
-1.264, 3.393e-4
-1.265, 3.455e-4
-1.266, 3.424e-4
-1.267, 3.362e-4
-1.268, 3.331e-4
-1.269, 3.393e-4
-1.270, 3.424e-4
-1.271, 3.393e-4
-1.272, 3.331e-4
-1.273, 3.300e-4
-1.274, 3.331e-4
-1.275, 3.393e-4
-1.276, 3.362e-4
-1.277, 3.300e-4
-1.278, 3.300e-4
-1.279, 3.331e-4
-1.280, 3.393e-4
-1.281, 3.393e-4
-1.282, 3.331e-4
-1.283, 3.300e-4
-1.284, 3.331e-4
-1.285, 3.424e-4
-1.286, 3.393e-4
-1.287, 3.362e-4
-1.288, 3.300e-4
-1.289, 3.393e-4
-1.290, 3.424e-4
-1.291, 3.424e-4
-1.292, 3.362e-4
-1.293, 3.300e-4
-1.294, 3.362e-4
-1.295, 3.424e-4
-1.296, 3.424e-4
-1.297, 3.331e-4
-1.298, 3.331e-4
-1.299, 3.362e-4
-1.300, 3.455e-4
-1.301, 3.424e-4
-1.302, 3.362e-4
-1.303, 3.362e-4
-1.304, 3.424e-4
-1.305, 3.485e-4
-1.306, 3.485e-4
-1.307, 3.424e-4
-1.308, 3.424e-4
-1.309, 3.485e-4
-1.310, 3.547e-4
-1.311, 3.547e-4
-1.312, 3.516e-4
-1.313, 3.485e-4
-1.314, 3.547e-4
-1.315, 3.609e-4
-1.316, 3.640e-4
-1.317, 3.578e-4
-1.318, 3.547e-4
-1.319, 3.609e-4
-1.320, 3.701e-4
-1.321, 3.701e-4
-1.322, 3.640e-4
-1.323, 3.640e-4
-1.324, 3.701e-4
-1.325, 3.794e-4
-1.326, 3.794e-4
-1.327, 3.763e-4
-1.328, 3.763e-4
-1.329, 3.855e-4
-1.330, 3.917e-4
-1.331, 3.917e-4
-1.332, 3.886e-4
-1.333, 3.886e-4
-1.334, 3.979e-4
-1.335, 4.040e-4
-1.336, 4.040e-4
-1.337, 4.040e-4
-1.338, 4.040e-4
-1.339, 4.102e-4
-1.340, 4.225e-4
-1.341, 4.256e-4
-1.342, 4.225e-4
-1.343, 4.225e-4
-1.344, 4.318e-4
-1.345, 4.410e-4
-1.346, 4.441e-4
-1.347, 4.410e-4
-1.348, 4.441e-4
-1.349, 4.534e-4
-1.350, 4.626e-4
-1.351, 4.688e-4
-1.352, 4.657e-4
-1.353, 4.688e-4
-1.354, 4.811e-4
-1.355, 4.935e-4
-1.356, 4.996e-4
-1.357, 4.965e-4
-1.358, 4.996e-4
-1.359, 5.150e-4
-1.360, 5.274e-4
-1.361, 5.335e-4
-1.362, 5.366e-4
-1.363, 5.397e-4
-1.364, 5.551e-4
-1.365, 5.674e-4
-1.366, 5.736e-4
-1.367, 5.767e-4
-1.368, 5.798e-4
-1.369, 5.952e-4
-1.370, 6.106e-4
-1.371, 6.168e-4
-1.372, 6.229e-4
-1.373, 6.322e-4
-1.374, 6.507e-4
-1.375, 6.692e-4
-1.376, 6.846e-4
-1.377, 6.939e-4
-1.378, 7.031e-4
-1.379, 7.247e-4
-1.380, 7.494e-4
-1.381, 7.648e-4
-1.382, 7.771e-4
-1.383, 7.925e-4
-1.384, 8.172e-4
-1.385, 8.449e-4
-1.386, 8.665e-4
-1.387, 8.850e-4
-1.388, 9.066e-4
-1.389, 9.374e-4
-1.390, 9.744e-4
-1.391, 1.005e-3
-1.392, 1.033e-3
-1.393, 1.064e-3
-1.394, 1.110e-3
-1.395, 1.156e-3
-1.396, 1.203e-3
-1.397, 1.243e-3
-1.398, 1.292e-3
-1.399, 1.351e-3
-1.400, 1.418e-3
-1.401, 1.477e-3
-1.402, 1.532e-3
-1.403, 1.597e-3
-1.404, 1.671e-3
-1.405, 1.748e-3
-1.406, 1.819e-3
-1.407, 1.893e-3
-1.408, 1.970e-3
-1.409, 2.060e-3
-1.410, 2.152e-3
-1.411, 2.242e-3
-1.412, 2.328e-3
-1.413, 2.417e-3
-1.414, 2.519e-3
-1.415, 2.621e-3
-1.416, 2.713e-3
-1.417, 2.806e-3
-1.418, 2.901e-3
-1.419, 3.000e-3
-1.420, 3.099e-3
-1.421, 3.194e-3
-1.422, 3.293e-3
-1.423, 3.385e-3
-1.424, 3.484e-3
-1.425, 3.592e-3
-1.426, 3.700e-3
-1.427, 3.805e-3
-1.428, 3.903e-3
-1.429, 4.011e-3
-1.430, 4.125e-3
-1.431, 4.230e-3
-1.432, 4.329e-3
-1.433, 4.421e-3
-1.434, 4.523e-3
-1.435, 4.622e-3
-1.436, 4.727e-3
-1.437, 4.822e-3
-1.438, 4.927e-3
-1.439, 5.029e-3
-1.440, 5.134e-3
-1.441, 5.238e-3
-1.442, 5.343e-3
-1.443, 5.454e-3
-1.444, 5.587e-3
-1.445, 5.722e-3
-1.446, 5.843e-3
-1.447, 5.957e-3
-1.448, 6.068e-3
-1.449, 6.176e-3
-1.450, 6.290e-3
-1.451, 6.395e-3
-1.452, 6.487e-3
-1.453, 6.573e-3
-1.454, 6.675e-3
-1.455, 6.777e-3
-1.456, 6.882e-3
-1.457, 6.971e-3
-1.458, 7.076e-3
-1.459, 7.184e-3
-1.460, 7.295e-3
-1.461, 7.412e-3
-1.462, 7.532e-3
-1.463, 7.637e-3
-1.464, 7.742e-3
-1.465, 7.847e-3
-1.466, 7.939e-3
-1.467, 8.019e-3
-1.468, 8.096e-3
-1.469, 8.186e-3
-1.470, 8.284e-3
-1.471, 8.368e-3
-1.472, 8.457e-3
-1.473, 8.556e-3
-1.474, 8.670e-3
-1.475, 8.759e-3
-1.476, 8.849e-3
-1.477, 8.950e-3
-1.478, 9.037e-3
-1.479, 9.132e-3
-1.480, 9.231e-3
-1.481, 9.330e-3
-1.482, 9.401e-3
-1.483, 9.465e-3
-1.484, 9.586e-3
-1.485, 9.675e-3
-1.486, 9.758e-3
-1.487, 9.829e-3
-1.488, 9.906e-3
-1.489, 9.986e-3
-1.490, 1.009e-2
-1.491, 1.020e-2
-1.492, 1.029e-2
-1.493, 1.038e-2
-1.494, 1.045e-2
-1.495, 1.054e-2
-1.496, 1.065e-2
-1.497, 1.071e-2
-1.498, 1.078e-2
-1.499, 1.085e-2
-1.500, 1.087e-2
-1.499, 1.078e-2
-1.498, 1.070e-2
-1.497, 1.060e-2
-1.496, 1.051e-2
-1.495, 1.046e-2
-1.494, 1.037e-2
-1.493, 1.028e-2
-1.492, 1.019e-2
-1.491, 1.010e-2
-1.490, 1.003e-2
-1.489, 9.959e-3
-1.488, 9.875e-3
-1.487, 9.774e-3
-1.486, 9.712e-3
-1.485, 9.638e-3
-1.484, 9.579e-3
-1.483, 9.496e-3
-1.482, 9.434e-3
-1.481, 9.345e-3
-1.480, 9.271e-3
-1.479, 9.179e-3
-1.478, 9.095e-3
-1.477, 9.031e-3
-1.476, 8.950e-3
-1.475, 8.889e-3
-1.474, 8.796e-3
-1.473, 8.728e-3
-1.472, 8.645e-3
-1.471, 8.574e-3
-1.470, 8.513e-3
-1.469, 8.451e-3
-1.468, 8.374e-3
-1.467, 8.281e-3
-1.466, 8.226e-3
-1.465, 8.155e-3
-1.464, 8.090e-3
-1.463, 7.998e-3
-1.462, 7.908e-3
-1.461, 7.841e-3
-1.460, 7.776e-3
-1.459, 7.693e-3
-1.458, 7.603e-3
-1.457, 7.526e-3
-1.456, 7.464e-3
-1.455, 7.403e-3
-1.454, 7.338e-3
-1.453, 7.276e-3
-1.452, 7.221e-3
-1.451, 7.159e-3
-1.450, 7.104e-3
-1.449, 7.023e-3
-1.448, 6.934e-3
-1.447, 6.872e-3
-1.446, 6.805e-3
-1.445, 6.758e-3
-1.444, 6.681e-3
-1.443, 6.592e-3
-1.442, 6.539e-3
-1.441, 6.456e-3
-1.440, 6.391e-3
-1.439, 6.321e-3
-1.438, 6.247e-3
-1.437, 6.169e-3
-1.436, 6.117e-3
-1.435, 6.052e-3
-1.434, 6.000e-3
-1.433, 5.947e-3
-1.432, 5.855e-3
-1.431, 5.799e-3
-1.430, 5.753e-3
-1.429, 5.673e-3
-1.428, 5.602e-3
-1.427, 5.531e-3
-1.426, 5.436e-3
-1.425, 5.362e-3
-1.424, 5.319e-3
-1.423, 5.229e-3
-1.422, 5.149e-3
-1.421, 5.100e-3
-1.420, 5.060e-3
-1.419, 5.001e-3
-1.418, 4.952e-3
-1.417, 4.887e-3
-1.416, 4.850e-3
-1.415, 4.804e-3
-1.414, 4.730e-3
-1.413, 4.656e-3
-1.412, 4.591e-3
-1.411, 4.542e-3
-1.410, 4.471e-3
-1.409, 4.406e-3
-1.408, 4.338e-3
-1.407, 4.276e-3
-1.406, 4.221e-3
-1.405, 4.172e-3
-1.404, 4.122e-3
-1.403, 4.061e-3
-1.402, 4.002e-3
-1.401, 3.956e-3
-1.400, 3.910e-3
-1.399, 3.845e-3
-1.398, 3.783e-3
-1.397, 3.728e-3
-1.396, 3.675e-3
-1.395, 3.623e-3
-1.394, 3.580e-3
-1.393, 3.509e-3
-1.392, 3.453e-3
-1.391, 3.407e-3
-1.390, 3.358e-3
-1.389, 3.299e-3
-1.388, 3.250e-3
-1.387, 3.197e-3
-1.386, 3.148e-3
-1.385, 3.093e-3
-1.384, 3.040e-3
-1.383, 2.991e-3
-1.382, 2.941e-3
-1.381, 2.892e-3
-1.380, 2.849e-3
-1.379, 2.800e-3
-1.378, 2.744e-3
-1.377, 2.689e-3
-1.376, 2.639e-3
-1.375, 2.605e-3
-1.374, 2.556e-3
-1.373, 2.497e-3
-1.372, 2.448e-3
-1.371, 2.408e-3
-1.370, 2.365e-3
-1.369, 2.316e-3
-1.368, 2.266e-3
-1.367, 2.220e-3
-1.366, 2.183e-3
-1.365, 2.143e-3
-1.364, 2.094e-3
-1.363, 2.041e-3
-1.362, 1.995e-3
-1.361, 1.958e-3
-1.360, 1.921e-3
-1.359, 1.881e-3
-1.358, 1.832e-3
-1.357, 1.785e-3
-1.356, 1.751e-3
-1.355, 1.714e-3
-1.354, 1.677e-3
-1.353, 1.634e-3
-1.352, 1.591e-3
-1.351, 1.560e-3
-1.350, 1.529e-3
-1.349, 1.489e-3
-1.348, 1.443e-3
-1.347, 1.400e-3
-1.346, 1.369e-3
-1.345, 1.338e-3
-1.344, 1.304e-3
-1.343, 1.264e-3
-1.342, 1.227e-3
-1.341, 1.199e-3
-1.340, 1.172e-3
-1.339, 1.135e-3
-1.338, 1.095e-3
-1.337, 1.064e-3
-1.336, 1.039e-3
-1.335, 1.011e-3
-1.334, 9.806e-4
-1.333, 9.436e-4
-1.332, 9.097e-4
-1.331, 8.850e-4
-1.330, 8.603e-4
-1.329, 8.326e-4
-1.328, 7.987e-4
-1.327, 7.709e-4
-1.326, 7.463e-4
-1.325, 7.247e-4
-1.324, 6.969e-4
-1.323, 6.630e-4
-1.322, 6.322e-4
-1.321, 6.137e-4
-1.320, 5.983e-4
-1.319, 5.767e-4
-1.318, 5.489e-4
-1.317, 5.243e-4
-1.316, 5.089e-4
-1.315, 4.935e-4
-1.314, 4.750e-4
-1.313, 4.472e-4
-1.312, 4.225e-4
-1.311, 4.071e-4
-1.310, 3.979e-4
-1.309, 3.763e-4
-1.308, 3.516e-4
-1.307, 3.300e-4
-1.306, 3.208e-4
-1.305, 3.085e-4
-1.304, 2.900e-4
-1.303, 2.684e-4
-1.302, 2.468e-4
-1.301, 2.345e-4
-1.300, 2.283e-4
-1.299, 2.129e-4
-1.298, 1.913e-4
-1.297, 1.759e-4
-1.296, 1.666e-4
-1.295, 1.605e-4
-1.294, 1.481e-4
-1.293, 1.296e-4
-1.292, 1.142e-4
-1.291, 1.081e-4
-1.290, 1.019e-4
-1.289, 9.265e-5
-1.288, 7.415e-5
-1.287, 6.182e-5
-1.286, 5.565e-5
-1.285, 5.257e-5
-1.284, 4.332e-5
-1.283, 2.790e-5
-1.282, 1.557e-5
-1.281, 1.249e-5
-1.280, 9.405e-6
-1.279, 1.559e-7
-1.278, -1.526e-5
-1.277, -2.451e-5
-1.276, -2.759e-5
-1.275, -2.759e-5
-1.274, -3.376e-5
-1.273, -4.917e-5
-1.272, -5.842e-5
-1.271, -5.842e-5
-1.270, -5.842e-5
-1.269, -6.459e-5
-1.268, -7.692e-5
-1.267, -8.617e-5
-1.266, -8.617e-5
-1.265, -8.617e-5
-1.264, -8.925e-5
-1.263, -1.016e-4
-1.262, -1.108e-4
-1.261, -1.108e-4
-1.260, -1.078e-4
-1.259, -1.139e-4
-1.258, -1.232e-4
-1.257, -1.293e-4
-1.256, -1.293e-4
-1.255, -1.263e-4
-1.254, -1.324e-4
-1.253, -1.417e-4
-1.252, -1.478e-4
-1.251, -1.448e-4
-1.250, -1.417e-4
-1.249, -1.478e-4
-1.248, -1.540e-4
-1.247, -1.632e-4
-1.246, -1.602e-4
-1.245, -1.571e-4
-1.244, -1.602e-4
-1.243, -1.663e-4
-1.242, -1.725e-4
-1.241, -1.694e-4
-1.240, -1.663e-4
-1.239, -1.694e-4
-1.238, -1.787e-4
-1.237, -1.848e-4
-1.236, -1.817e-4
-1.235, -1.787e-4
-1.234, -1.817e-4
-1.233, -1.910e-4
-1.232, -1.941e-4
-1.231, -1.910e-4
-1.230, -1.879e-4
-1.229, -1.910e-4
-1.228, -1.972e-4
-1.227, -2.033e-4
-1.226, -1.972e-4
-1.225, -1.941e-4
-1.224, -1.941e-4
-1.223, -2.033e-4
-1.222, -2.095e-4
-1.221, -2.033e-4
-1.220, -2.033e-4
-1.219, -2.033e-4
-1.218, -2.126e-4
-1.217, -2.157e-4
-1.216, -2.126e-4
-1.215, -2.095e-4
-1.214, -2.095e-4
-1.213, -2.157e-4
-1.212, -2.187e-4
-1.211, -2.157e-4
-1.210, -2.126e-4
-1.209, -2.187e-4
-1.208, -2.249e-4
-1.207, -2.280e-4
-1.206, -2.249e-4
-1.205, -2.187e-4
-1.204, -2.218e-4
-1.203, -2.280e-4
-1.202, -2.311e-4
-1.201, -2.280e-4
-1.200, -2.218e-4
-1.199, -2.249e-4
-1.198, -2.311e-4
-1.197, -2.372e-4
-1.196, -2.311e-4
-1.195, -2.249e-4
-1.194, -2.249e-4
-1.193, -2.342e-4
-1.192, -2.372e-4
-1.191, -2.342e-4
-1.190, -2.280e-4
-1.189, -2.311e-4
-1.188, -2.403e-4
-1.187, -2.403e-4
-1.186, -2.372e-4
-1.185, -2.342e-4
-1.184, -2.372e-4
-1.183, -2.434e-4
-1.182, -2.465e-4
-1.181, -2.434e-4
-1.180, -2.372e-4
-1.179, -2.403e-4
-1.178, -2.465e-4
-1.177, -2.496e-4
-1.176, -2.465e-4
-1.175, -2.403e-4
-1.174, -2.403e-4
-1.173, -2.496e-4
-1.172, -2.527e-4
-1.171, -2.496e-4
-1.170, -2.434e-4
-1.169, -2.465e-4
-1.168, -2.527e-4
-1.167, -2.588e-4
-1.166, -2.527e-4
-1.165, -2.465e-4
-1.164, -2.496e-4
-1.163, -2.557e-4
-1.162, -2.619e-4
-1.161, -2.588e-4
-1.160, -2.557e-4
-1.159, -2.557e-4
-1.158, -2.619e-4
-1.157, -2.681e-4
-1.156, -2.619e-4
-1.155, -2.588e-4
-1.154, -2.588e-4
-1.153, -2.681e-4
-1.152, -2.712e-4
-1.151, -2.681e-4
-1.150, -2.650e-4
-1.149, -2.650e-4
-1.148, -2.712e-4
-1.147, -2.742e-4
-1.146, -2.712e-4
-1.145, -2.681e-4
-1.144, -2.681e-4
-1.143, -2.773e-4
-1.142, -2.804e-4
-1.141, -2.773e-4
-1.140, -2.742e-4
-1.139, -2.742e-4
-1.138, -2.835e-4
-1.137, -2.866e-4
-1.136, -2.835e-4
-1.135, -2.773e-4
-1.134, -2.804e-4
-1.133, -2.866e-4
-1.132, -2.958e-4
-1.131, -2.927e-4
-1.130, -2.866e-4
-1.129, -2.897e-4
-1.128, -2.958e-4
-1.127, -2.989e-4
-1.126, -2.958e-4
-1.125, -2.897e-4
-1.124, -2.927e-4
-1.123, -2.989e-4
-1.122, -3.020e-4
-1.121, -3.020e-4
-1.120, -2.958e-4
-1.119, -2.989e-4
-1.118, -3.082e-4
-1.117, -3.143e-4
-1.116, -3.112e-4
-1.115, -3.082e-4
-1.114, -3.112e-4
-1.113, -3.174e-4
-1.112, -3.236e-4
-1.111, -3.205e-4
-1.110, -3.143e-4
-1.109, -3.174e-4
-1.108, -3.267e-4
-1.107, -3.328e-4
-1.106, -3.267e-4
-1.105, -3.236e-4
-1.104, -3.236e-4
-1.103, -3.328e-4
-1.102, -3.390e-4
-1.101, -3.359e-4
-1.100, -3.328e-4
-1.099, -3.359e-4
-1.098, -3.452e-4
-1.097, -3.513e-4
-1.096, -3.513e-4
-1.095, -3.482e-4
-1.094, -3.513e-4
-1.093, -3.575e-4
-1.092, -3.667e-4
-1.091, -3.637e-4
-1.090, -3.575e-4
-1.089, -3.606e-4
-1.088, -3.698e-4
-1.087, -3.760e-4
-1.086, -3.760e-4
-1.085, -3.729e-4
-1.084, -3.760e-4
-1.083, -3.821e-4
-1.082, -3.914e-4
-1.081, -3.883e-4
-1.080, -3.852e-4
-1.079, -3.852e-4
-1.078, -3.976e-4
-1.077, -4.037e-4
-1.076, -4.037e-4
-1.075, -3.976e-4
-1.074, -4.006e-4
-1.073, -4.130e-4
-1.072, -4.222e-4
-1.071, -4.222e-4
-1.070, -4.191e-4
-1.069, -4.222e-4
-1.068, -4.315e-4
-1.067, -4.376e-4
-1.066, -4.376e-4
-1.065, -4.315e-4
-1.064, -4.376e-4
-1.063, -4.500e-4
-1.062, -4.592e-4
-1.061, -4.592e-4
-1.060, -4.561e-4
-1.059, -4.623e-4
-1.058, -4.716e-4
-1.057, -4.808e-4
-1.056, -4.808e-4
-1.055, -4.777e-4
-1.054, -4.808e-4
-1.053, -4.901e-4
-1.052, -4.993e-4
-1.051, -4.993e-4
-1.050, -4.962e-4
-1.049, -4.993e-4
-1.048, -5.116e-4
-1.047, -5.209e-4
-1.046, -5.240e-4
-1.045, -5.240e-4
-1.044, -5.271e-4
-1.043, -5.394e-4
-1.042, -5.486e-4
-1.041, -5.517e-4
-1.040, -5.486e-4
-1.039, -5.517e-4
-1.038, -5.641e-4
-1.037, -5.795e-4
-1.036, -5.826e-4
-1.035, -5.826e-4
-1.034, -5.856e-4
-1.033, -6.011e-4
-1.032, -6.072e-4
-1.031, -6.103e-4
-1.030, -6.103e-4
-1.029, -6.165e-4
-1.028, -6.288e-4
-1.027, -6.380e-4
-1.026, -6.442e-4
-1.025, -6.442e-4
-1.024, -6.535e-4
-1.023, -6.658e-4
-1.022, -6.781e-4
-1.021, -6.812e-4
-1.020, -6.843e-4
-1.019, -6.905e-4
-1.018, -7.059e-4
-1.017, -7.213e-4
-1.016, -7.275e-4
-1.015, -7.275e-4
-1.014, -7.367e-4
-1.013, -7.490e-4
-1.012, -7.645e-4
-1.011, -7.675e-4
-1.010, -7.675e-4
-1.009, -7.768e-4
-1.008, -7.922e-4
-1.007, -8.076e-4
-1.006, -8.138e-4
-1.005, -8.138e-4
-1.004, -8.200e-4
-1.003, -8.385e-4
-1.002, -8.539e-4
-1.001, -8.600e-4
