Potential V vs RHE, Current mA cm-2
0.4132999999999999,0.006079014455520062
0.4122999999999999,0.004205936694498754
0.4112999999999999,0.0037263495638445066
0.4102999999999999,0.003444822015171364
0.4092999999999999,0.003197247537694983
0.4082999999999999,0.0029496730602186013
0.4072999999999999,0.002744539921738171
0.4062999999999999,0.002595995235252342
0.4052999999999999,0.002436132858367593
0.4042999999999999,0.0022451468328858137
0.4032999999999999,0.002045672539604843
0.4022999999999999,0.0018914690079195541
0.4012999999999999,0.0017896097943292716
0.4002999999999999,0.0016566269321419578
0.3992999999999999,0.0014911057100577487
0.3982999999999999,0.0013039394050856044
0.3972999999999999,0.001176898330357724
0.3962999999999999,0.00107914177953705
0.3952999999999999,0.0009898734965155661
0.3942999999999999,0.0008335478978804796
0.39329999999999987,0.0006800517218451232
0.39229999999999987,0.0005739483743552454
0.39129999999999987,0.0004832653800338965
0.39029999999999987,0.00039102620328269617
0.38929999999999987,0.00025705304318547715
0.38829999999999987,9.100837792031781e-05
0.38729999999999987,1.8419541124242777e-05
0.38629999999999987,-7.649343998370254e-05
0.38529999999999986,-0.0001769803836131161
0.38429999999999986,-0.00026214600386499133
0.38329999999999986,-0.00041564217990034774
0.38229999999999986,-0.0005050519340518182
0.38129999999999986,-0.0005636209818662306
0.38029999999999986,-0.0006640654841566482
0.37929999999999986,-0.0007589926123775922
0.37829999999999986,-0.0008986246176742713
0.37729999999999986,-0.000997654408664824
0.37629999999999986,-0.0010144894731332179
0.37529999999999986,-0.0011037577561547017
0.37429999999999986,-0.0012363162049520557
0.37329999999999985,-0.001349351637811272
0.37229999999999985,-0.0014415908145624726
0.37129999999999985,-0.001469885040559773
0.37029999999999985,-0.0015519382959519451
0.36929999999999985,-0.0016721887564404734
0.36829999999999985,-0.001775462681330621
0.36729999999999985,-0.001885810162720094
0.36629999999999985,-0.0019112749661176645
0.36529999999999985,-0.001972107552011861
0.36429999999999985,-0.0021036757028993097
0.36329999999999985,-0.0022154378955886477
0.36229999999999984,-0.0022564645232847334
0.36129999999999984,-0.0023144676865792004
0.36029999999999984,-0.002389447385472047
0.35929999999999984,-0.0025167714024599
0.35829999999999984,-0.0026186306160501834
0.35729999999999984,-0.0026865367584437048
0.35629999999999984,-0.002731807520039386
0.35529999999999984,-0.002805372507632368
0.35429999999999984,-0.0029171347003217056
0.35329999999999984,-0.003031726315610774
0.35229999999999984,-0.003088314767605375
0.35129999999999983,-0.003130756106601326
0.35029999999999983,-0.003180271002096602
0.34929999999999983,-0.003270812525287965
0.34829999999999983,-0.0034207719230736587
0.34729999999999983,-0.0034915074880669107
0.34629999999999983,-0.003521216425364076
0.34529999999999983,-0.0035679018982596226
0.34429999999999983,-0.0036740052457495
0.3432999999999998,-0.0037928409949381636
0.3422999999999998,-0.0038154763757360034
0.3412999999999998,-0.0038649912712312804
0.3402999999999998,-0.003941385681423992
0.3392999999999998,-0.004043244895014275
0.3382999999999998,-0.004140859974704963
0.3372999999999998,-0.004197448426699564
0.3362999999999998,-0.00422149851879727
0.3352999999999998,-0.0042851605272911965
0.3342999999999998,-0.004395508008680668
0.3332999999999998,-0.004491708377071491
0.3322999999999998,-0.004546882117766228
0.3312999999999998,-0.004563858653364609
0.3302999999999998,-0.00464025306355732
0.3292999999999998,-0.004726550452849088
0.3282999999999998,-0.004832653800338965
0.3272999999999998,-0.004882168695834241
0.3262999999999998,-0.0049062187879319475
0.3252999999999999,-0.004964221951226414
0.3242999999999999,-0.0050476899179184515
0.3232999999999999,-0.005158037399307923
0.3222999999999999,-0.005216040562602391
0.3212999999999999,-0.005241505365999961
0.3202999999999999,-0.005288190838895508
0.3192999999999999,-0.005388635341185924
0.3182999999999999,-0.005482006286977017
0.3172999999999999,-0.0055315211824722935
0.3162999999999999,-0.005559815408469594
0.3152999999999999,-0.00558952434576676
0.3142999999999999,-0.005695627693256638
0.3132999999999999,-0.005805975174646111
0.3122999999999999,-0.0058229517102444915
0.3112999999999999,-0.005856904781441252
0.3102999999999999,-0.005906419676936528
0.3092999999999999,-0.0059856435097289705
0.3082999999999999,-0.006103064547617769
0.3072999999999999,-0.006120041083216148
0.3062999999999999,-0.0061653118448118304
0.3052999999999999,-0.006228973853305756
0.3042999999999999,-0.0063110271086979286
0.3032999999999999,-0.006408642188388616
0.3022999999999999,-0.006419959878787536
0.3012999999999999,-0.006458157083883892
0.3002999999999999,-0.006514745535878493
0.2992999999999999,-0.006584066389571881
0.2982999999999999,-0.006695828582261218
0.2972999999999999,-0.0067410993438569
0.2962999999999999,-0.0067693935698542
0.2952999999999999,-0.006830226155748396
0.2942999999999999,-0.006899547009441784
0.2932999999999999,-0.007007065068231527
0.2922999999999999,-0.007050921118527342
0.2912999999999999,-0.007066482942825859
0.2902999999999999,-0.007124486106120325
0.2892999999999999,-0.007209368784112226
0.2882999999999999,-0.007265957236106829
0.2872999999999999,-0.007315472131602104
0.2862999999999999,-0.00733103395590062
0.2852999999999999,-0.007374890006196436
0.2842999999999999,-0.007478163931086584
0.2832999999999999,-0.007564461320378351
0.2822999999999999,-0.007601243814174842
0.2812999999999999,-0.007632367462771873
0.2802999999999999,-0.007649343998370253
0.2792999999999999,-0.0077710091701586465
0.2782999999999999,-0.007834671178652573
0.2772999999999999,-0.007867209538549469
0.2762999999999999,-0.007903992032345961
0.2752999999999999,-0.007919553856644475
0.2742999999999999,-0.008015754225035298
0.2732999999999999,-0.008110539882126256
0.2722999999999999,-0.008116198727325717
0.2712999999999999,-0.008160054777621533
0.2702999999999999,-0.008194007848818291
0.2692999999999999,-0.008295867062408575
0.26829999999999987,-0.008366602627401826
0.26729999999999987,-0.008380749740400477
0.26629999999999987,-0.008428849924595888
0.26529999999999987,-0.008471291263591838
0.26429999999999987,-0.008546270962484686
0.26329999999999987,-0.008638227196975915
0.26229999999999987,-0.008641056619575645
0.26129999999999987,-0.00867076555687281
0.26029999999999986,-0.0087075480506693
0.25929999999999986,-0.008803748419060124
0.25829999999999986,-0.008885801674452295
0.25729999999999986,-0.008928243013448247
0.25629999999999986,-0.008925413590848516
0.25529999999999986,-0.008994734444541904
0.25429999999999986,-0.009085275967733264
0.25329999999999986,-0.009161670377925977
0.25229999999999986,-0.009187135181323547
0.25129999999999986,-0.009212599984721119
0.25029999999999986,-0.009256456035016935
0.24929999999999986,-0.009338509290409108
0.24829999999999985,-0.009409244855402359
0.24729999999999985,-0.00944602734919885
0.24629999999999985,-0.009465833307396958
0.24529999999999985,-0.009539398294989941
0.24429999999999985,-0.009624280972981845
0.24329999999999985,-0.009692187115375367
0.24229999999999985,-0.009696431249274962
0.24129999999999985,-0.009737457876971048
0.24029999999999985,-0.009762922680368618
0.23929999999999985,-0.009873270161758091
0.23829999999999985,-0.009938346881551883
0.23729999999999984,-0.009959567551049858
0.23629999999999984,-0.009980788220547833
0.23529999999999984,-0.01001898542564419
0.23429999999999984,-0.010112356371435281
0.23329999999999984,-0.01019016549292786
0.23229999999999984,-0.010226947986724352
0.23129999999999984,-0.010242509811022866
0.23029999999999984,-0.010279292304819356
0.22929999999999984,-0.010357101426311934
0.22829999999999984,-0.010456131217302487
0.22729999999999984,-0.010450472372103026
0.22629999999999983,-0.010491498999799113
0.22529999999999983,-0.010541013895294387
0.22429999999999983,-0.010618823016786965
0.22329999999999983,-0.010700876272179137
0.22229999999999983,-0.010716438096477652
0.22129999999999983,-0.010730585209476303
0.22029999999999983,-0.010785758950171039
0.21929999999999983,-0.010874885762062537
0.21829999999999983,-0.010958353728754575
0.21729999999999983,-0.010969671419153495
0.21629999999999983,-0.01099089208865147
0.21529999999999982,-0.011061627653644723
0.21429999999999982,-0.011128119084738378
0.21329999999999982,-0.011222904741829336
0.21229999999999982,-0.01125827252432596
0.21129999999999982,-0.011248369545226906
0.21029999999999982,-0.011310616842420969
0.20929999999999982,-0.011415305478610981
0.20829999999999982,-0.011471893930605584
0.20729999999999982,-0.011495944022703288
0.20629999999999982,-0.011524238248700589
0.20529999999999982,-0.01157516785549573
0.20429999999999982,-0.011657221110887902
0.20329999999999981,-0.011720883119381829
0.2022999999999998,-0.011764739169677645
0.2012999999999998,-0.01178878926177535
0.20029999999999992,-0.011836889445970762
0.19929999999999992,-0.01194299279346064
0.19829999999999992,-0.011979775287257131
0.19729999999999992,-0.012016557781053622
0.19629999999999992,-0.012042022584451192
0.19529999999999992,-0.012080219789547549
0.19429999999999992,-0.012231593898633108
0.19329999999999992,-0.012315061865325144
0.19229999999999992,-0.01229101177322744
0.19129999999999991,-0.01231930599922474
0.1902999999999999,-0.012354673781721365
0.1892999999999999,-0.012449459438812323
0.1882999999999999,-0.01251312144730625
0.1872999999999999,-0.0125272685603049
0.1862999999999999,-0.012565465765401256
0.1852999999999999,-0.012620639506095991
0.1842999999999999,-0.012691375071089243
0.1832999999999999,-0.012784746016880337
0.1822999999999999,-0.012770598903881686
0.1812999999999999,-0.012822943221976694
0.1802999999999999,-0.01288094638527116
0.1792999999999999,-0.012961584929363466
0.1782999999999999,-0.013059200009054153
0.1772999999999999,-0.01308042067855213
0.1762999999999999,-0.013081835389851994
0.1752999999999999,-0.013149741532245515
0.1742999999999999,-0.013238868344137013
0.1732999999999999,-0.013295456796131614
0.1722999999999999,-0.013315262754329725
0.1712999999999999,-0.013337898135127564
0.1702999999999999,-0.013401560143621493
0.1692999999999999,-0.01348785753291326
0.1682999999999999,-0.013569910788305434
0.1672999999999999,-0.013599619725602599
0.1662999999999999,-0.013612352127301384
0.1652999999999999,-0.013657622888897063
0.1642999999999999,-0.013767970370286538
0.1632999999999999,-0.013818899977081677
0.1622999999999999,-0.013855682470878171
0.1612999999999999,-0.0138868061194752
0.1602999999999999,-0.013926418035871422
0.1592999999999999,-0.014025447826861973
0.15829999999999989,-0.014087695124056035
0.15729999999999988,-0.014087695124056035
0.15629999999999988,-0.014131551174351852
0.15529999999999988,-0.014189554337646317
0.15429999999999988,-0.014288584128636872
0.15329999999999988,-0.014359319693630123
0.15229999999999988,-0.014373466806628774
0.15129999999999988,-0.014415908145624722
0.15029999999999988,-0.014458349484620674
0.14929999999999988,-0.014557379275611227
0.14829999999999988,-0.01461396772760583
0.14729999999999988,-0.014628114840604478
0.14629999999999987,-0.014670556179600431
0.14529999999999987,-0.014712997518596381
0.14429999999999987,-0.014812027309586936
0.14329999999999987,-0.014925204213576137
0.14229999999999987,-0.014967645552572089
0.14129999999999987,-0.014967645552572089
0.14029999999999987,-0.01503838111756534
0.13929999999999987,-0.01509496956955994
0.13829999999999987,-0.015179852247551842
0.13729999999999987,-0.015193999360550494
0.13629999999999987,-0.015236440699546445
0.13529999999999986,-0.015293029151541045
0.13429999999999986,-0.0153637647165343
0.13329999999999986,-0.01543450028152755
0.13229999999999986,-0.01546279450752485
0.13129999999999986,-0.015491088733522153
0.13029999999999986,-0.015547677185516754
0.12929999999999986,-0.015632559863508654
0.12829999999999986,-0.01568914831550326
0.12729999999999986,-0.015717442541500558
0.12629999999999986,-0.015745736767497857
0.12529999999999986,-0.01583061944548976
0.12429999999999986,-0.01591550212348166
0.12329999999999985,-0.01597209057547626
0.12229999999999985,-0.015986237688474913
0.12129999999999985,-0.016028679027470863
0.12029999999999985,-0.01608526747946547
0.11929999999999985,-0.016170150157457368
0.11829999999999985,-0.016226738609451972
0.11729999999999985,-0.016269179948447923
0.11629999999999985,-0.01629747417444522
0.11529999999999985,-0.016354062626439823
0.11429999999999985,-0.016453092417430374
0.11329999999999985,-0.01652382798242363
0.11229999999999984,-0.01652382798242363
0.11129999999999984,-0.01656626932141958
0.11029999999999984,-0.01662285777341418
0.10929999999999984,-0.016721887564404736
0.10829999999999984,-0.016792623129397985
0.10729999999999984,-0.016778476016399334
0.10629999999999984,-0.016820917355395284
0.10529999999999984,-0.01691994714638584
0.10429999999999984,-0.017018976937376393
0.10329999999999984,-0.017089712502369642
0.10229999999999984,-0.017103859615368294
0.10129999999999983,-0.017132153841365592
0.10029999999999983,-0.017202889406358845
0.09929999999999983,-0.01728777208435075
0.09829999999999983,-0.01734436053634535
0.09729999999999983,-0.0173868018753413
0.09629999999999983,-0.017400948988339954
0.09529999999999983,-0.017499978779330502
0.09429999999999983,-0.017584861457322406
0.09329999999999983,-0.017641449909317007
0.09229999999999983,-0.01768389124831296
0.09129999999999983,-0.01771218547431026
0.09029999999999982,-0.017782921039303512
0.08929999999999982,-0.017881950830294063
0.08829999999999982,-0.017938539282288665
0.08729999999999982,-0.017952686395287316
0.08629999999999982,-0.018009274847281917
0.08529999999999982,-0.018065863299276518
0.08429999999999982,-0.01817904020326572
0.08329999999999982,-0.018249775768258973
0.08229999999999982,-0.018278069994256275
0.08129999999999982,-0.018306364220253574
0.08029999999999982,-0.018362952672248176
0.07929999999999982,-0.01849027668923603
0.07829999999999981,-0.018546865141230634
0.07729999999999981,-0.01856101225422928
0.07629999999999981,-0.018617600706223883
0.07529999999999992,-0.018688336271217135
0.07429999999999992,-0.018801513175206338
0.07329999999999992,-0.018843954514202284
0.07229999999999992,-0.01887224874019959
0.07129999999999992,-0.01892883719219419
0.07029999999999992,-0.018985425644188793
0.06929999999999992,-0.019084455435179344
0.06829999999999992,-0.0191551910001726
0.06729999999999992,-0.0191551910001726
0.06629999999999991,-0.01922592656516585
0.06529999999999991,-0.0192966621301591
0.06429999999999991,-0.019395691921149656
0.06329999999999991,-0.019480574599141553
0.06229999999999991,-0.019480574599141553
0.06129999999999991,-0.019537163051136158
0.06029999999999991,-0.019607898616129407
0.05929999999999991,-0.01970692840711996
0.05829999999999991,-0.019777663972113214
0.05729999999999991,-0.019791811085111865
0.056299999999999906,-0.019848399537106463
0.055299999999999905,-0.019933282215098366
0.054299999999999904,-0.020018164893090266
0.0532999999999999,-0.02011719468408082
0.0522999999999999,-0.020145488910078124
0.0512999999999999,-0.020173783136075422
0.0502999999999999,-0.020244518701068675
0.0492999999999999,-0.020343548492059226
0.0482999999999999,-0.020400136944053827
0.0472999999999999,-0.020442578283049778
0.0462999999999999,-0.020513313848043033
0.045299999999999896,-0.020584049413036282
0.044299999999999895,-0.020697226317025485
0.043299999999999894,-0.02073966765602144
0.04229999999999989,-0.020767961882018737
0.04129999999999989,-0.020838697447011986
0.04029999999999989,-0.020937727238002544
0.03929999999999989,-0.021036757028993096
0.03829999999999989,-0.021079198367989046
0.03729999999999989,-0.021107492593986348
0.03629999999999989,-0.0211782281589796
0.03529999999999989,-0.02124896372397285
0.034299999999999886,-0.021362140627962056
0.033299999999999885,-0.021418729079956657
0.032299999999999884,-0.021461170418952607
0.031299999999999883,-0.02153190598394586
0.030299999999999883,-0.02158849443594046
0.02929999999999988,-0.021701671339929663
0.02829999999999988,-0.021800701130920214
0.02729999999999988,-0.021814848243918866
0.02629999999999988,-0.021871436695913467
0.025299999999999878,-0.021956319373905367
0.024299999999999877,-0.022069496277894573
0.023299999999999876,-0.022140231842887825
0.022299999999999875,-0.022168526068885124
0.021299999999999875,-0.022239261633878377
0.020299999999999874,-0.02232414431187028
0.019299999999999873,-0.02242317410286083
0.018299999999999872,-0.022479762554855433
0.01729999999999987,-0.022550498119848682
0.01629999999999987,-0.022578792345845984
0.01529999999999987,-0.02267782213683654
0.014299999999999868,-0.02279099904082574
0.013299999999999867,-0.022861734605818994
0.012299999999999978,-0.022904175944814944
0.011299999999999866,-0.022946617283810897
0.010299999999999976,-0.0230597941878001
0.009299999999999864,-0.023172971091789302
0.008299999999999974,-0.02324370665678255
0.007299999999999862,-0.02327200088277985
0.006299999999999972,-0.023314442221775804
0.00529999999999986,-0.023427619125765006
0.0042999999999999705,-0.02354079602975421
0.0032999999999998586,-0.023583237368750162
0.0022999999999999687,-0.02365397293374341
0.0012999999999998568,-0.023710561385738016
0.00029999999999996696,-0.023809591176728567
-0.000700000000000145,-0.02392276808071777
-0.0017000000000000348,-0.02397935653271237
-0.0027000000000001467,-0.024035944984706972
-0.0037000000000000366,-0.024092533436701577
-0.0047000000000001485,-0.02417741611469348
-0.005700000000000038,-0.02429059301868268
-0.00670000000000015,-0.02436132858367593
-0.00770000000000004,-0.024403769922671882
-0.008700000000000152,-0.024488652600663786
-0.009700000000000042,-0.024559388165657038
-0.010700000000000154,-0.024700859295643543
-0.011700000000000044,-0.024771594860636792
-0.012700000000000156,-0.024814036199632745
-0.013700000000000045,-0.024856477538628696
-0.014700000000000157,-0.024969654442617898
-0.015700000000000047,-0.02506868423360845
-0.01670000000000016,-0.025139419798601705
-0.01770000000000005,-0.025196008250596303
-0.01870000000000016,-0.025238449589592253
-0.01970000000000005,-0.02535162649358146
-0.020700000000000163,-0.02546480339757066
-0.021700000000000053,-0.025521391849565263
-0.022700000000000164,-0.025592127414558512
-0.023700000000000054,-0.025648715866553113
-0.024700000000000166,-0.02576189277054232
-0.025700000000000056,-0.02587506967453152
-0.026700000000000168,-0.025931658126526123
-0.027700000000000058,-0.02600239369151937
-0.02870000000000017,-0.026044835030515325
-0.02970000000000006,-0.026158011934504528
-0.03070000000000017,-0.02628533595149238
-0.03170000000000006,-0.026341924403486983
-0.03270000000000017,-0.026412659968480235
-0.03370000000000006,-0.02645510130747619
-0.034700000000000175,-0.02656827821146539
-0.035700000000000065,-0.026695602228453245
-0.03670000000000018,-0.026752190680447843
-0.03770000000000007,-0.026794632019443793
-0.03870000000000018,-0.026865367584437045
-0.03970000000000007,-0.02695025026242895
-0.04070000000000018,-0.027105868505414105
-0.04170000000000007,-0.027148309844410055
-0.04270000000000018,-0.027176604070407354
-0.04370000000000007,-0.027261486748399254
-0.044700000000000184,-0.02734636942639116
-0.045700000000000074,-0.027487840556377662
-0.046700000000000186,-0.027530281895373616
-0.047700000000000076,-0.027586870347368214
-0.04870000000000019,-0.027671753025360117
-0.04970000000000008,-0.02775663570335202
-0.05070000000000019,-0.027898106833338522
-0.05170000000000008,-0.02796884239833177
-0.05270000000000019,-0.028011283737327728
-0.05370000000000008,-0.028082019302320977
-0.05470000000000019,-0.028181049093311532
-0.05570000000000008,-0.02829422599730073
-0.056700000000000195,-0.028379108675292634
-0.057700000000000085,-0.028407402901289937
-0.058700000000000196,-0.02847813846628319
-0.059700000000000086,-0.02860546248327104
-0.0607000000000002,-0.028718639387260245
-0.06170000000000009,-0.028831816291249444
-0.0627000000000002,-0.02888840474324405
