Potential V vs RHE, Current mA cm-2
0.4132999999999999,-0.0052528230563988814
0.4122999999999999,-0.006759490590755145
0.4112999999999999,-0.007340936934999676
0.4102999999999999,-0.007653588132269849
0.4092999999999999,-0.007858721270750279
0.4082999999999999,-0.008014339513735431
0.4072999999999999,-0.008184104869719239
0.4062999999999999,-0.008334064267504932
0.4052999999999999,-0.008445826460194268
0.4042999999999999,-0.00850807375738833
0.4032999999999999,-0.008568906343282527
0.4022999999999999,-0.008672180268172675
0.4012999999999999,-0.008789601306061474
0.4002999999999999,-0.008864581004954318
0.3992999999999999,-0.00894380483774676
0.3982999999999999,-0.009000393289741363
0.3972999999999999,-0.009082446545133535
0.3962999999999999,-0.009167329223125438
0.3952999999999999,-0.009226747097719768
0.3942999999999999,-0.00926918843671572
0.39329999999999987,-0.009297482662713021
0.39229999999999987,-0.009371047650306004
0.39129999999999987,-0.009467248018696825
0.39029999999999987,-0.009528080604591021
0.38929999999999987,-0.009550715985388864
0.38829999999999987,-0.009595986746984544
0.38729999999999987,-0.009651160487679281
0.38629999999999987,-0.009740287299570776
0.38529999999999986,-0.009795461040265515
0.38429999999999986,-0.009805364019364568
0.38329999999999986,-0.009857708337459577
0.38229999999999986,-0.009904393810355122
0.38129999999999986,-0.00998503235444743
0.38029999999999986,-0.010026058982143515
0.37929999999999986,-0.01005293849684095
0.37829999999999986,-0.010086891568037711
0.37729999999999986,-0.010127918195733797
0.37629999999999986,-0.010204312605926509
0.37529999999999986,-0.01026090105792111
0.37429999999999986,-0.01026373048052084
0.37329999999999985,-0.010313245376016118
0.37229999999999985,-0.010362760271511394
0.37129999999999985,-0.010436325259104377
0.37029999999999985,-0.010468863619001272
0.36929999999999985,-0.010485840154599652
0.36829999999999985,-0.010511304957997222
0.36729999999999985,-0.010562234564792364
0.36629999999999985,-0.010634384841085481
0.36529999999999985,-0.010689558581780218
0.36429999999999985,-0.010703705694778867
0.36329999999999985,-0.010743317611175088
0.36229999999999984,-0.010802735485769419
0.36129999999999984,-0.010896106431560512
0.36029999999999984,-0.010961183151354303
0.35929999999999984,-0.010961183151354303
0.35829999999999984,-0.010955524306154846
0.35729999999999984,-0.011006453912949984
0.35629999999999984,-0.011087092457042293
0.35529999999999984,-0.011112557260439863
0.35429999999999984,-0.011138022063837433
0.35329999999999984,-0.011163486867235005
0.35229999999999984,-0.011217245896629875
0.35129999999999983,-0.011302128574621777
0.35029999999999983,-0.011345984624917593
0.34929999999999983,-0.01135022875881719
0.34829999999999983,-0.01138135240741422
0.34729999999999983,-0.01143794085940882
0.34629999999999983,-0.01151009113570194
0.34529999999999983,-0.011553947185997754
0.34429999999999983,-0.011562435453796944
0.3432999999999998,-0.011585070834594785
0.3422999999999998,-0.01162609746229087
0.3412999999999998,-0.011712394851582639
0.3402999999999998,-0.011773227437476835
0.3392999999999998,-0.011756250901878453
0.3382999999999998,-0.011784545127875756
0.3372999999999998,-0.011832645312071167
0.3362999999999998,-0.011907625010964014
0.3352999999999998,-0.011967042885558346
0.3342999999999998,-0.01196562817425848
0.3332999999999998,-0.011996751822855511
0.3322999999999998,-0.012039193161851461
0.3312999999999998,-0.01210285517034539
0.3302999999999998,-0.012166517178839315
0.3292999999999998,-0.012169346601439045
0.3282999999999998,-0.012194811404836615
0.3272999999999998,-0.012235838032532703
0.3262999999999998,-0.012303744174926225
0.3252999999999999,-0.012360332626920826
0.3242999999999999,-0.012364576760820421
0.3232999999999999,-0.012380138585118937
0.3222999999999999,-0.012435312325813672
0.3212999999999999,-0.012517365581205843
0.3202999999999999,-0.012548489229802876
0.3192999999999999,-0.012558392208901932
0.3182999999999999,-0.012559806920201795
0.3172999999999999,-0.012610736526996937
0.3162999999999999,-0.01268713093718965
0.3152999999999999,-0.012716839874486815
0.3142999999999999,-0.012736645832684924
0.3132999999999999,-0.012746548811783982
0.3122999999999999,-0.012769184192581821
0.3112999999999999,-0.012854066870573722
0.3102999999999999,-0.01288943465307035
0.3092999999999999,-0.012909240611268462
0.3082999999999999,-0.01291489945646792
0.3072999999999999,-0.012948852527664681
0.3062999999999999,-0.013047882318655234
0.3052999999999999,-0.01308325010115186
0.3042999999999999,-0.013086079523751591
0.3032999999999999,-0.013107300193249564
0.3022999999999999,-0.01315115624354538
0.3012999999999999,-0.0131907681599416
0.3002999999999999,-0.013228965365037957
0.2992999999999999,-0.013219062385938904
0.2982999999999999,-0.013233209498937554
0.2972999999999999,-0.01326574785883445
0.2962999999999999,-0.013350630536826351
0.2952999999999999,-0.013398730721021762
0.2942999999999999,-0.013387413030622844
0.2932999999999999,-0.013393071875822303
0.2922999999999999,-0.013424195524419334
0.2912999999999999,-0.013494931089412587
0.2902999999999999,-0.013540201851008266
0.2892999999999999,-0.013537372428408538
0.2882999999999999,-0.013523225315409887
0.2872999999999999,-0.013569910788305434
0.2862999999999999,-0.013634987508099224
0.2852999999999999,-0.01368167298099477
0.2842999999999999,-0.013698649516593149
0.2832999999999999,-0.013683087692294635
0.2822999999999999,-0.01372411431999072
0.2812999999999999,-0.013808996997982624
0.2802999999999999,-0.01383304709008033
0.2792999999999999,-0.01383304709008033
0.2782999999999999,-0.013837291223979923
0.2772999999999999,-0.013861341316077629
0.2762999999999999,-0.013951882839268992
0.2752999999999999,-0.013980177065266292
0.2742999999999999,-0.013978762353966426
0.2732999999999999,-0.01400705657996373
0.2722999999999999,-0.014031106672061432
0.2712999999999999,-0.014101842237054685
0.2702999999999999,-0.014175407224647668
0.2692999999999999,-0.014161260111649017
0.26829999999999987,-0.014161260111649017
0.26729999999999987,-0.014175407224647668
0.26629999999999987,-0.01424614278964092
0.26529999999999987,-0.01430273124163552
0.26429999999999987,-0.01430273124163552
0.26329999999999987,-0.01430273124163552
0.26229999999999987,-0.014316878354634173
0.26129999999999987,-0.014401761032626074
0.26029999999999986,-0.014458349484620674
0.25929999999999986,-0.014444202371622025
0.25829999999999986,-0.014458349484620674
0.25729999999999986,-0.014486643710617976
0.25629999999999986,-0.014557379275611227
0.25529999999999986,-0.01461396772760583
0.25429999999999986,-0.014599820614607179
0.25329999999999986,-0.01461396772760583
0.25229999999999986,-0.014670556179600431
0.25129999999999986,-0.014727144631595034
0.25029999999999986,-0.014783733083589632
0.24929999999999986,-0.014769585970590984
0.24829999999999985,-0.014797880196588285
0.24729999999999985,-0.014826174422585584
0.24629999999999985,-0.014882762874580187
0.24529999999999985,-0.014953498439573438
0.24429999999999985,-0.014967645552572089
0.24329999999999985,-0.014981792665570736
0.24229999999999985,-0.014995939778569388
0.24129999999999985,-0.015066675343562642
0.24029999999999985,-0.015109116682558592
0.23929999999999985,-0.015123263795557243
0.23829999999999985,-0.015109116682558592
0.23729999999999984,-0.015137410908555892
0.23629999999999984,-0.015222293586547794
0.23529999999999984,-0.015264734925543746
0.23429999999999984,-0.015264734925543746
0.23329999999999984,-0.015278882038542396
0.23229999999999984,-0.015307176264539698
0.23129999999999984,-0.015392058942531598
0.23029999999999984,-0.015420353168528897
0.22929999999999984,-0.015448647394526203
0.22829999999999984,-0.01546279450752485
0.22729999999999984,-0.015476941620523503
0.22629999999999983,-0.015547677185516754
0.22529999999999983,-0.015590118524512706
0.22429999999999983,-0.015575971411514053
0.22329999999999983,-0.015632559863508654
0.22229999999999983,-0.015646706976507305
0.22129999999999983,-0.015717442541500558
0.22029999999999983,-0.01578817810649381
0.21929999999999983,-0.01581647233249111
0.21829999999999983,-0.01580232521949246
0.21729999999999983,-0.01584476655848841
0.21629999999999983,-0.015929649236480315
0.21529999999999982,-0.016014531914472215
0.21429999999999982,-0.01597209057547626
0.21329999999999982,-0.01597209057547626
0.21229999999999982,-0.016028679027470863
0.21129999999999982,-0.016127708818461418
0.21029999999999982,-0.01618429727045602
0.20929999999999982,-0.01619844438345467
0.20829999999999982,-0.01619844438345467
0.20729999999999982,-0.01624088572245062
0.20629999999999982,-0.01629747417444522
0.20529999999999982,-0.016325768400442524
0.20429999999999982,-0.016354062626439823
0.20329999999999981,-0.01638235685243712
0.2022999999999998,-0.016396503965435776
0.2012999999999998,-0.01648138664342768
0.20029999999999992,-0.01658041643441823
0.19929999999999992,-0.01658041643441823
0.19829999999999992,-0.01656626932141958
0.19729999999999992,-0.01662285777341418
0.19629999999999992,-0.01666529911241013
0.19529999999999992,-0.01670774045140608
0.19429999999999992,-0.016792623129397985
0.19329999999999992,-0.01683506446839394
0.19229999999999992,-0.01683506446839394
0.19129999999999991,-0.01691994714638584
0.1902999999999999,-0.016962388485381792
0.1892999999999999,-0.01699068271137909
0.1882999999999999,-0.01706141827637234
0.1872999999999999,-0.017089712502369642
0.1862999999999999,-0.017160448067362895
0.1852999999999999,-0.017231183632356147
0.1842999999999999,-0.017231183632356147
0.1832999999999999,-0.0172453307453548
0.1822999999999999,-0.017231183632356147
0.1812999999999999,-0.017372654762342652
0.1802999999999999,-0.017400948988339954
0.1792999999999999,-0.0173868018753413
0.1782999999999999,-0.01748583166633185
0.1772999999999999,-0.01748583166633185
0.1762999999999999,-0.0175282730053278
0.1752999999999999,-0.017570714344323755
0.1742999999999999,-0.017570714344323755
0.1732999999999999,-0.017584861457322406
0.1722999999999999,-0.017627302796318356
0.1712999999999999,-0.01771218547431026
0.1702999999999999,-0.017782921039303512
0.1692999999999999,-0.01781121526530081
0.1682999999999999,-0.017825362378299462
0.1672999999999999,-0.017867803717295416
0.1662999999999999,-0.017952686395287316
0.1652999999999999,-0.018080010412275173
0.1642999999999999,-0.018065863299276518
0.1632999999999999,-0.018065863299276518
0.1622999999999999,-0.018080010412275173
0.1612999999999999,-0.01816489309026707
0.1602999999999999,-0.01820733442926302
0.1592999999999999,-0.018263922881257624
0.15829999999999989,-0.018263922881257624
0.15729999999999988,-0.018306364220253574
0.15629999999999988,-0.018405394011244126
0.15529999999999988,-0.018461982463238727
0.15429999999999988,-0.01847612957623738
0.15329999999999988,-0.01850442380223468
0.15229999999999988,-0.01851857091523333
0.15129999999999988,-0.018617600706223883
0.15029999999999988,-0.018674189158218484
0.14929999999999988,-0.018702483384215783
0.14829999999999988,-0.018730777610213082
0.14729999999999988,-0.018744924723211737
0.14629999999999987,-0.01885810162720094
0.14529999999999987,-0.01891469007919554
0.14429999999999987,-0.01892883719219419
0.14329999999999987,-0.018985425644188793
0.14229999999999987,-0.019042014096183394
0.14129999999999987,-0.019098602548177995
0.14029999999999987,-0.0191834852261699
0.13929999999999987,-0.0191834852261699
0.13829999999999987,-0.019211779452167198
0.13729999999999987,-0.019254220791163148
0.13629999999999987,-0.01933910346915505
0.13529999999999986,-0.0194098390341483
0.13429999999999986,-0.019438133260145606
0.13329999999999986,-0.019452280373144254
0.13229999999999986,-0.019480574599141553
0.13129999999999986,-0.019565457277133456
0.13029999999999986,-0.019664487068124008
0.12929999999999986,-0.019721075520118612
0.12829999999999986,-0.019749369746115915
0.12729999999999986,-0.019820105311109164
0.12629999999999986,-0.019890840876102416
0.12529999999999986,-0.019947429328097017
0.12429999999999986,-0.019947429328097017
0.12329999999999985,-0.019947429328097017
0.12229999999999985,-0.02000401778009162
0.12129999999999985,-0.020103047571082173
0.12029999999999985,-0.020173783136075422
0.11929999999999985,-0.020230371588070024
0.11829999999999985,-0.020258665814067326
0.11729999999999985,-0.020286960040064625
0.11629999999999985,-0.020400136944053827
0.11529999999999985,-0.020470872509047083
0.11429999999999985,-0.02048501962204573
0.11329999999999985,-0.020513313848043033
0.11229999999999984,-0.02055575518703898
0.11129999999999984,-0.020640637865030884
0.11029999999999984,-0.02073966765602144
0.10929999999999984,-0.02075381476902009
0.10829999999999984,-0.02078210899501739
0.10729999999999984,-0.02079625610801604
0.10629999999999984,-0.02088113878600794
0.10529999999999984,-0.020980168576998495
0.10429999999999984,-0.021022609915994445
0.10329999999999984,-0.021050904141991744
0.10229999999999984,-0.021093345480987697
0.10129999999999983,-0.02119237527197825
0.10029999999999983,-0.021291405062968803
0.09929999999999983,-0.021291405062968803
0.09829999999999983,-0.021347993514963404
0.09729999999999983,-0.021376287740960703
0.09629999999999983,-0.021475317531951258
0.09529999999999983,-0.02157434732294181
0.09429999999999983,-0.02158849443594046
0.09329999999999983,-0.02163093577493641
0.09229999999999983,-0.021687524226931015
0.09129999999999983,-0.021772406904922915
0.09029999999999982,-0.021871436695913467
0.08929999999999982,-0.021885583808912118
0.08829999999999982,-0.021913878034909417
0.08729999999999982,-0.02197046648690402
0.08629999999999982,-0.02205534916489592
0.08529999999999982,-0.022168526068885124
0.08429999999999982,-0.022196820294882423
0.08329999999999982,-0.022225114520879725
0.08229999999999982,-0.022281702972874327
0.08129999999999982,-0.02239487987686353
0.08029999999999982,-0.02245146832885813
0.07929999999999982,-0.022522203893851383
0.07829999999999981,-0.022550498119848682
0.07729999999999981,-0.022607086571843286
0.07629999999999981,-0.022691969249835187
0.07529999999999992,-0.02277685192782709
0.07429999999999992,-0.022819293266823044
0.07329999999999992,-0.022890028831816296
0.07229999999999992,-0.022932470170812246
0.07129999999999992,-0.023045647074801445
0.07029999999999992,-0.02310223552679605
0.06929999999999992,-0.023158823978790648
0.06829999999999992,-0.0232012653177866
0.06729999999999992,-0.0232295595437839
0.06629999999999991,-0.023328589334774455
0.06529999999999991,-0.023399324899767704
0.06429999999999991,-0.023441766238763657
0.06329999999999991,-0.023498354690758262
0.06229999999999991,-0.02355494314275286
0.06129999999999991,-0.02365397293374341
0.06029999999999991,-0.023795444063729916
0.05929999999999991,-0.023866179628723165
0.05829999999999991,-0.02392276808071777
0.05729999999999991,-0.02397935653271237
0.056299999999999906,-0.024035944984706972
0.055299999999999905,-0.024134974775697527
0.054299999999999904,-0.024134974775697527
0.0532999999999999,-0.024191563227692125
0.0522999999999999,-0.02423400456668808
0.0512999999999999,-0.02433303435767863
0.0502999999999999,-0.024460358374666487
0.0492999999999999,-0.02447450548766513
0.0482999999999999,-0.024516946826661085
0.0472999999999999,-0.024601829504652988
0.0462999999999999,-0.02468671218264489
0.045299999999999896,-0.024785741973635443
0.044299999999999895,-0.024814036199632745
0.043299999999999894,-0.02482818331263139
0.04229999999999989,-0.024913065990623297
0.04129999999999989,-0.0250262428946125
0.04029999999999989,-0.025167714024599004
0.03929999999999989,-0.025210155363594954
0.03829999999999989,-0.025210155363594954
0.03729999999999989,-0.025280890928588207
0.03629999999999989,-0.02535162649358146
0.03529999999999989,-0.02546480339757066
0.034299999999999886,-0.025507244736566608
0.033299999999999885,-0.02553553896256391
0.032299999999999884,-0.025606274527557166
0.031299999999999883,-0.025747745657543668
0.030299999999999883,-0.025846775448534223
0.02929999999999988,-0.02591751101352747
0.02829999999999988,-0.025959952352523425
0.02729999999999988,-0.02600239369151937
0.02629999999999988,-0.026101423482509926
0.025299999999999878,-0.02621460038649913
0.024299999999999877,-0.02624289461249643
0.023299999999999876,-0.02629948306449103
0.022299999999999875,-0.026341924403486983
0.021299999999999875,-0.02645510130747619
0.020299999999999874,-0.02656827821146539
0.019299999999999873,-0.02661071955046134
0.018299999999999872,-0.026667308002455942
0.01729999999999987,-0.02673804356744919
0.01629999999999987,-0.02682292624544109
0.01529999999999987,-0.026936103149430297
0.014299999999999868,-0.026992691601424906
0.013299999999999867,-0.02703513294042085
0.012299999999999978,-0.027105868505414105
0.011299999999999866,-0.027219045409403307
0.010299999999999976,-0.02731807520039386
0.009299999999999864,-0.02738881076538711
0.008299999999999974,-0.02743125210438306
0.007299999999999862,-0.027473693443379014
0.006299999999999972,-0.027572723234369562
0.00529999999999986,-0.027671753025360117
0.0042999999999999705,-0.02774248859035337
0.0032999999999998586,-0.027784929929349323
0.0022999999999999687,-0.02788395972033987
0.0012999999999998568,-0.027982989511330426
0.00029999999999996696,-0.028082019302320977
-0.000700000000000145,-0.02815275486731423
-0.0017000000000000348,-0.028181049093311532
-0.0027000000000001467,-0.028251784658304784
-0.0037000000000000366,-0.028393255788291286
-0.0047000000000001485,-0.028534726918277787
-0.005700000000000038,-0.028591315370272388
-0.00670000000000015,-0.02861960959626969
-0.00770000000000004,-0.028676198048264292
-0.008700000000000152,-0.02880352206525215
-0.009700000000000042,-0.028916698969241348
-0.010700000000000154,-0.029001581647233248
-0.011700000000000044,-0.029044022986229205
-0.012700000000000156,-0.029100611438223806
-0.013700000000000045,-0.029199641229214358
-0.014700000000000157,-0.029326965246202208
-0.015700000000000047,-0.029369406585198165
-0.01670000000000016,-0.02941184792419411
-0.01770000000000005,-0.02946843637618871
-0.01870000000000016,-0.029567466167179264
-0.01970000000000005,-0.02970893729716577
-0.020700000000000163,-0.029765525749160374
-0.021700000000000053,-0.029779672862159025
-0.022700000000000164,-0.029836261314153626
-0.023700000000000054,-0.029949438218142825
-0.024700000000000166,-0.03007676223513068
-0.025700000000000056,-0.03011920357412663
-0.026700000000000168,-0.030175792026121234
-0.027700000000000058,-0.030246527591114486
-0.02870000000000017,-0.030345557382105034
-0.02970000000000006,-0.03047288139909289
-0.03070000000000017,-0.03055776407708479
-0.03170000000000006,-0.030571911190083446
-0.03270000000000017,-0.030614352529079396
-0.03370000000000006,-0.030699235207071292
-0.034700000000000175,-0.030840706337057794
-0.035700000000000065,-0.030911441902051046
-0.03670000000000018,-0.030939736128048352
-0.03770000000000007,-0.03099632458004295
-0.03870000000000018,-0.031151942823028106
-0.03970000000000007,-0.03130756106601326
-0.04070000000000018,-0.03139244374400516
-0.04170000000000007,-0.03140659085700381
-0.04270000000000018,-0.03146317930899842
-0.04370000000000007,-0.03156220909998896
-0.044700000000000184,-0.03161879755198357
-0.045700000000000074,-0.03167538600397817
-0.046700000000000186,-0.03170368022997547
-0.047700000000000076,-0.03174612156897143
-0.04870000000000019,-0.03185929847296063
-0.04970000000000008,-0.031972475376949826
-0.05070000000000019,-0.03204321094194308
-0.05170000000000008,-0.032085652280939035
-0.05270000000000019,-0.03209979939393768
-0.05370000000000008,-0.03221297629792688
-0.05470000000000019,-0.032340300314914736
-0.05570000000000008,-0.03239688876690934
-0.056700000000000195,-0.03243933010590529
-0.057700000000000085,-0.03249591855789989
-0.058700000000000196,-0.0326090954618891
-0.059700000000000086,-0.03276471370487424
-0.0607000000000002,-0.03279300793087155
-0.06170000000000009,-0.0328637434958648
-0.0627000000000002,-0.0329203319478594
-0.06370000000000009,-0.032991067512852655
-0.0647000000000002,-0.03311839152984051
