Apr. 3, 2025   13:32:54
Cyclic Voltammetry
File: c:/users/guazh/data/banditlqround7_x0exp518_r20/2025-03-28-exp1030\exp1030-2025-04-03t13_18_41-arkoh\exp1030_cv_sr_300mvs_efin_-1600mv.bin
Data Source:  Experiment
Instrument Model:  CHI760E
Header: CV ran at 300 mVs
Note: 

Init E (V) = -1
High E (V) = -1
Low E (V) = -1.6
Final E (V) = -1
Init P/N = N
Scan Rate (V/s) = 0.3
Segment = 3
Sample Interval (V) = 0.001
Quiet Time (sec) = 2
Sensitivity (A/V) = 0.01
Comp R (ohm) = 1.7

Results:

Channel 1:
Segment 1:

Segment 2:

Segment 3:

Potential/V, Current/A

-1.000, 2.790e-5
-1.001, 5.873e-5
-1.002, 6.798e-5
-1.003, 7.107e-5
-1.004, 7.107e-5
-1.005, 7.107e-5
-1.006, 7.107e-5
-1.007, 7.415e-5
-1.008, 7.415e-5
-1.009, 7.415e-5
-1.010, 7.415e-5
-1.011, 7.107e-5
-1.012, 7.723e-5
-1.013, 7.723e-5
-1.014, 7.723e-5
-1.015, 7.415e-5
-1.016, 7.415e-5
-1.017, 7.723e-5
-1.018, 8.032e-5
-1.019, 7.723e-5
-1.020, 7.723e-5
-1.021, 7.723e-5
-1.022, 8.032e-5
-1.023, 8.032e-5
-1.024, 8.032e-5
-1.025, 7.723e-5
-1.026, 7.723e-5
-1.027, 8.032e-5
-1.028, 8.340e-5
-1.029, 8.032e-5
-1.030, 8.032e-5
-1.031, 8.032e-5
-1.032, 8.032e-5
-1.033, 8.340e-5
-1.034, 8.032e-5
-1.035, 8.032e-5
-1.036, 8.032e-5
-1.037, 8.340e-5
-1.038, 8.340e-5
-1.039, 8.340e-5
-1.040, 8.032e-5
-1.041, 8.032e-5
-1.042, 8.340e-5
-1.043, 8.340e-5
-1.044, 8.340e-5
-1.045, 8.032e-5
-1.046, 8.032e-5
-1.047, 8.340e-5
-1.048, 8.340e-5
-1.049, 8.032e-5
-1.050, 8.032e-5
-1.051, 8.032e-5
-1.052, 8.340e-5
-1.053, 8.340e-5
-1.054, 8.340e-5
-1.055, 8.032e-5
-1.056, 8.032e-5
-1.057, 8.340e-5
-1.058, 8.340e-5
-1.059, 8.032e-5
-1.060, 8.032e-5
-1.061, 8.032e-5
-1.062, 8.340e-5
-1.063, 8.340e-5
-1.064, 8.340e-5
-1.065, 8.032e-5
-1.066, 8.032e-5
-1.067, 8.340e-5
-1.068, 8.648e-5
-1.069, 8.340e-5
-1.070, 8.032e-5
-1.071, 8.032e-5
-1.072, 8.340e-5
-1.073, 8.648e-5
-1.074, 8.340e-5
-1.075, 8.032e-5
-1.076, 8.340e-5
-1.077, 8.340e-5
-1.078, 8.648e-5
-1.079, 8.340e-5
-1.080, 8.032e-5
-1.081, 8.032e-5
-1.082, 8.340e-5
-1.083, 8.340e-5
-1.084, 8.340e-5
-1.085, 8.032e-5
-1.086, 8.032e-5
-1.087, 8.340e-5
-1.088, 8.648e-5
-1.089, 8.032e-5
-1.090, 8.032e-5
-1.091, 8.032e-5
-1.092, 8.340e-5
-1.093, 8.340e-5
-1.094, 8.340e-5
-1.095, 8.032e-5
-1.096, 8.032e-5
-1.097, 8.340e-5
-1.098, 8.340e-5
-1.099, 8.032e-5
-1.100, 8.032e-5
-1.101, 8.032e-5
-1.102, 8.340e-5
-1.103, 8.648e-5
-1.104, 8.032e-5
-1.105, 8.032e-5
-1.106, 8.032e-5
-1.107, 8.340e-5
-1.108, 8.340e-5
-1.109, 8.340e-5
-1.110, 8.032e-5
-1.111, 8.032e-5
-1.112, 8.340e-5
-1.113, 8.340e-5
-1.114, 8.032e-5
-1.115, 8.032e-5
-1.116, 8.032e-5
-1.117, 8.340e-5
-1.118, 8.340e-5
-1.119, 8.340e-5
-1.120, 8.032e-5
-1.121, 8.032e-5
-1.122, 8.340e-5
-1.123, 8.340e-5
-1.124, 8.340e-5
-1.125, 8.032e-5
-1.126, 8.032e-5
-1.127, 8.340e-5
-1.128, 8.340e-5
-1.129, 8.340e-5
-1.130, 8.032e-5
-1.131, 8.032e-5
-1.132, 8.340e-5
-1.133, 8.648e-5
-1.134, 8.340e-5
-1.135, 8.032e-5
-1.136, 8.032e-5
-1.137, 8.340e-5
-1.138, 8.340e-5
-1.139, 8.032e-5
-1.140, 8.032e-5
-1.141, 8.032e-5
-1.142, 8.340e-5
-1.143, 8.340e-5
-1.144, 8.032e-5
-1.145, 8.032e-5
-1.146, 8.032e-5
-1.147, 8.340e-5
-1.148, 8.340e-5
-1.149, 8.340e-5
-1.150, 8.032e-5
-1.151, 8.032e-5
-1.152, 8.340e-5
-1.153, 8.340e-5
-1.154, 8.032e-5
-1.155, 8.032e-5
-1.156, 8.032e-5
-1.157, 8.340e-5
-1.158, 8.340e-5
-1.159, 8.340e-5
-1.160, 8.032e-5
-1.161, 8.032e-5
-1.162, 8.340e-5
-1.163, 8.032e-5
-1.164, 8.032e-5
-1.165, 8.032e-5
-1.166, 8.032e-5
-1.167, 8.340e-5
-1.168, 8.340e-5
-1.169, 8.032e-5
-1.170, 8.032e-5
-1.171, 8.032e-5
-1.172, 8.340e-5
-1.173, 8.340e-5
-1.174, 8.032e-5
-1.175, 8.032e-5
-1.176, 8.032e-5
-1.177, 8.340e-5
-1.178, 8.340e-5
-1.179, 8.032e-5
-1.180, 7.723e-5
-1.181, 8.032e-5
-1.182, 8.032e-5
-1.183, 8.032e-5
-1.184, 8.032e-5
-1.185, 8.032e-5
-1.186, 8.032e-5
-1.187, 8.032e-5
-1.188, 8.340e-5
-1.189, 8.032e-5
-1.190, 7.723e-5
-1.191, 7.723e-5
-1.192, 8.032e-5
-1.193, 8.340e-5
-1.194, 8.032e-5
-1.195, 7.723e-5
-1.196, 8.032e-5
-1.197, 8.340e-5
-1.198, 8.032e-5
-1.199, 8.032e-5
-1.200, 7.723e-5
-1.201, 7.723e-5
-1.202, 8.032e-5
-1.203, 8.340e-5
-1.204, 8.032e-5
-1.205, 7.723e-5
-1.206, 8.032e-5
-1.207, 8.032e-5
-1.208, 8.032e-5
-1.209, 8.032e-5
-1.210, 7.723e-5
-1.211, 7.723e-5
-1.212, 8.032e-5
-1.213, 8.032e-5
-1.214, 8.032e-5
-1.215, 7.723e-5
-1.216, 8.032e-5
-1.217, 8.032e-5
-1.218, 8.340e-5
-1.219, 8.032e-5
-1.220, 8.032e-5
-1.221, 8.032e-5
-1.222, 8.340e-5
-1.223, 8.032e-5
-1.224, 8.032e-5
-1.225, 7.723e-5
-1.226, 8.032e-5
-1.227, 8.032e-5
-1.228, 8.340e-5
-1.229, 8.340e-5
-1.230, 8.032e-5
-1.231, 8.032e-5
-1.232, 8.340e-5
-1.233, 8.340e-5
-1.234, 8.032e-5
-1.235, 8.032e-5
-1.236, 8.032e-5
-1.237, 8.340e-5
-1.238, 8.340e-5
-1.239, 8.032e-5
-1.240, 8.032e-5
-1.241, 8.032e-5
-1.242, 8.340e-5
-1.243, 8.340e-5
-1.244, 8.340e-5
-1.245, 8.032e-5
-1.246, 8.340e-5
-1.247, 8.648e-5
-1.248, 8.648e-5
-1.249, 8.340e-5
-1.250, 8.340e-5
-1.251, 8.340e-5
-1.252, 8.648e-5
-1.253, 8.648e-5
-1.254, 8.340e-5
-1.255, 8.340e-5
-1.256, 8.340e-5
-1.257, 8.648e-5
-1.258, 8.648e-5
-1.259, 8.648e-5
-1.260, 8.648e-5
-1.261, 8.648e-5
-1.262, 8.648e-5
-1.263, 8.957e-5
-1.264, 8.648e-5
-1.265, 8.648e-5
-1.266, 8.648e-5
-1.267, 8.957e-5
-1.268, 9.265e-5
-1.269, 8.957e-5
-1.270, 8.648e-5
-1.271, 8.957e-5
-1.272, 9.265e-5
-1.273, 9.265e-5
-1.274, 9.265e-5
-1.275, 8.957e-5
-1.276, 9.265e-5
-1.277, 9.265e-5
-1.278, 9.573e-5
-1.279, 9.265e-5
-1.280, 9.265e-5
-1.281, 9.573e-5
-1.282, 9.573e-5
-1.283, 9.882e-5
-1.284, 9.573e-5
-1.285, 9.573e-5
-1.286, 9.882e-5
-1.287, 9.882e-5
-1.288, 1.019e-4
-1.289, 9.882e-5
-1.290, 9.882e-5
-1.291, 1.019e-4
-1.292, 1.050e-4
-1.293, 1.050e-4
-1.294, 1.050e-4
-1.295, 1.050e-4
-1.296, 1.050e-4
-1.297, 1.081e-4
-1.298, 1.081e-4
-1.299, 1.081e-4
-1.300, 1.081e-4
-1.301, 1.081e-4
-1.302, 1.111e-4
-1.303, 1.142e-4
-1.304, 1.142e-4
-1.305, 1.142e-4
-1.306, 1.142e-4
-1.307, 1.173e-4
-1.308, 1.204e-4
-1.309, 1.173e-4
-1.310, 1.173e-4
-1.311, 1.204e-4
-1.312, 1.235e-4
-1.313, 1.266e-4
-1.314, 1.235e-4
-1.315, 1.235e-4
-1.316, 1.266e-4
-1.317, 1.296e-4
-1.318, 1.327e-4
-1.319, 1.296e-4
-1.320, 1.296e-4
-1.321, 1.327e-4
-1.322, 1.389e-4
-1.323, 1.389e-4
-1.324, 1.389e-4
-1.325, 1.389e-4
-1.326, 1.420e-4
-1.327, 1.451e-4
-1.328, 1.481e-4
-1.329, 1.451e-4
-1.330, 1.481e-4
-1.331, 1.512e-4
-1.332, 1.543e-4
-1.333, 1.574e-4
-1.334, 1.574e-4
-1.335, 1.574e-4
-1.336, 1.574e-4
-1.337, 1.636e-4
-1.338, 1.666e-4
-1.339, 1.666e-4
-1.340, 1.666e-4
-1.341, 1.697e-4
-1.342, 1.728e-4
-1.343, 1.790e-4
-1.344, 1.759e-4
-1.345, 1.790e-4
-1.346, 1.821e-4
-1.347, 1.851e-4
-1.348, 1.913e-4
-1.349, 1.913e-4
-1.350, 1.913e-4
-1.351, 1.944e-4
-1.352, 2.006e-4
-1.353, 2.036e-4
-1.354, 2.036e-4
-1.355, 2.067e-4
-1.356, 2.098e-4
-1.357, 2.129e-4
-1.358, 2.191e-4
-1.359, 2.191e-4
-1.360, 2.221e-4
-1.361, 2.252e-4
-1.362, 2.314e-4
-1.363, 2.314e-4
-1.364, 2.345e-4
-1.365, 2.376e-4
-1.366, 2.406e-4
-1.367, 2.468e-4
-1.368, 2.530e-4
-1.369, 2.530e-4
-1.370, 2.561e-4
-1.371, 2.591e-4
-1.372, 2.653e-4
-1.373, 2.715e-4
-1.374, 2.746e-4
-1.375, 2.776e-4
-1.376, 2.807e-4
-1.377, 2.869e-4
-1.378, 2.931e-4
-1.379, 2.961e-4
-1.380, 2.992e-4
-1.381, 3.054e-4
-1.382, 3.115e-4
-1.383, 3.177e-4
-1.384, 3.208e-4
-1.385, 3.239e-4
-1.386, 3.300e-4
-1.387, 3.362e-4
-1.388, 3.424e-4
-1.389, 3.455e-4
-1.390, 3.516e-4
-1.391, 3.547e-4
-1.392, 3.640e-4
-1.393, 3.701e-4
-1.394, 3.732e-4
-1.395, 3.794e-4
-1.396, 3.855e-4
-1.397, 3.948e-4
-1.398, 4.010e-4
-1.399, 4.071e-4
-1.400, 4.102e-4
-1.401, 4.195e-4
-1.402, 4.287e-4
-1.403, 4.349e-4
-1.404, 4.410e-4
-1.405, 4.472e-4
-1.406, 4.534e-4
-1.407, 4.626e-4
-1.408, 4.719e-4
-1.409, 4.780e-4
-1.410, 4.842e-4
-1.411, 4.935e-4
-1.412, 5.027e-4
-1.413, 5.120e-4
-1.414, 5.181e-4
-1.415, 5.243e-4
-1.416, 5.335e-4
-1.417, 5.459e-4
-1.418, 5.551e-4
-1.419, 5.613e-4
-1.420, 5.705e-4
-1.421, 5.798e-4
-1.422, 5.921e-4
-1.423, 6.014e-4
-1.424, 6.106e-4
-1.425, 6.199e-4
-1.426, 6.291e-4
-1.427, 6.414e-4
-1.428, 6.538e-4
-1.429, 6.630e-4
-1.430, 6.723e-4
-1.431, 6.846e-4
-1.432, 6.969e-4
-1.433, 7.124e-4
-1.434, 7.216e-4
-1.435, 7.309e-4
-1.436, 7.432e-4
-1.437, 7.586e-4
-1.438, 7.709e-4
-1.439, 7.833e-4
-1.440, 7.956e-4
-1.441, 8.079e-4
-1.442, 8.233e-4
-1.443, 8.388e-4
-1.444, 8.511e-4
-1.445, 8.634e-4
-1.446, 8.788e-4
-1.447, 8.943e-4
-1.448, 9.128e-4
-1.449, 9.251e-4
-1.450, 9.405e-4
-1.451, 9.559e-4
-1.452, 9.744e-4
-1.453, 9.898e-4
-1.454, 1.005e-3
-1.455, 1.021e-3
-1.456, 1.036e-3
-1.457, 1.058e-3
-1.458, 1.076e-3
-1.459, 1.095e-3
-1.460, 1.110e-3
-1.461, 1.129e-3
-1.462, 1.147e-3
-1.463, 1.169e-3
-1.464, 1.184e-3
-1.465, 1.203e-3
-1.466, 1.221e-3
-1.467, 1.243e-3
-1.468, 1.267e-3
-1.469, 1.286e-3
-1.470, 1.304e-3
-1.471, 1.326e-3
-1.472, 1.347e-3
-1.473, 1.372e-3
-1.474, 1.391e-3
-1.475, 1.412e-3
-1.476, 1.434e-3
-1.477, 1.462e-3
-1.478, 1.486e-3
-1.479, 1.508e-3
-1.480, 1.529e-3
-1.481, 1.554e-3
-1.482, 1.579e-3
-1.483, 1.606e-3
-1.484, 1.631e-3
-1.485, 1.656e-3
-1.486, 1.680e-3
-1.487, 1.708e-3
-1.488, 1.736e-3
-1.489, 1.761e-3
-1.490, 1.785e-3
-1.491, 1.813e-3
-1.492, 1.841e-3
-1.493, 1.869e-3
-1.494, 1.896e-3
-1.495, 1.924e-3
-1.496, 1.952e-3
-1.497, 1.983e-3
-1.498, 2.010e-3
-1.499, 2.041e-3
-1.500, 2.066e-3
-1.501, 2.097e-3
-1.502, 2.131e-3
-1.503, 2.158e-3
-1.504, 2.189e-3
-1.505, 2.220e-3
-1.506, 2.248e-3
-1.507, 2.282e-3
-1.508, 2.316e-3
-1.509, 2.343e-3
-1.510, 2.374e-3
-1.511, 2.408e-3
-1.512, 2.442e-3
-1.513, 2.476e-3
-1.514, 2.507e-3
-1.515, 2.538e-3
-1.516, 2.568e-3
-1.517, 2.602e-3
-1.518, 2.639e-3
-1.519, 2.670e-3
-1.520, 2.701e-3
-1.521, 2.735e-3
-1.522, 2.772e-3
-1.523, 2.809e-3
-1.524, 2.843e-3
-1.525, 2.874e-3
-1.526, 2.911e-3
-1.527, 2.948e-3
-1.528, 2.985e-3
-1.529, 3.019e-3
-1.530, 3.052e-3
-1.531, 3.086e-3
-1.532, 3.126e-3
-1.533, 3.163e-3
-1.534, 3.200e-3
-1.535, 3.237e-3
-1.536, 3.274e-3
-1.537, 3.314e-3
-1.538, 3.351e-3
-1.539, 3.388e-3
-1.540, 3.425e-3
-1.541, 3.462e-3
-1.542, 3.503e-3
-1.543, 3.543e-3
-1.544, 3.580e-3
-1.545, 3.617e-3
-1.546, 3.657e-3
-1.547, 3.697e-3
-1.548, 3.737e-3
-1.549, 3.777e-3
-1.550, 3.817e-3
-1.551, 3.857e-3
-1.552, 3.900e-3
-1.553, 3.943e-3
-1.554, 3.987e-3
-1.555, 4.027e-3
-1.556, 4.067e-3
-1.557, 4.113e-3
-1.558, 4.159e-3
-1.559, 4.199e-3
-1.560, 4.243e-3
-1.561, 4.286e-3
-1.562, 4.335e-3
-1.563, 4.378e-3
-1.564, 4.424e-3
-1.565, 4.468e-3
-1.566, 4.511e-3
-1.567, 4.560e-3
-1.568, 4.606e-3
-1.569, 4.653e-3
-1.570, 4.696e-3
-1.571, 4.742e-3
-1.572, 4.791e-3
-1.573, 4.841e-3
-1.574, 4.887e-3
-1.575, 4.933e-3
-1.576, 4.979e-3
-1.577, 5.032e-3
-1.578, 5.084e-3
-1.579, 5.137e-3
-1.580, 5.186e-3
-1.581, 5.235e-3
-1.582, 5.288e-3
-1.583, 5.343e-3
-1.584, 5.393e-3
-1.585, 5.445e-3
-1.586, 5.497e-3
-1.587, 5.553e-3
-1.588, 5.608e-3
-1.589, 5.664e-3
-1.590, 5.716e-3
-1.591, 5.772e-3
-1.592, 5.827e-3
-1.593, 5.886e-3
-1.594, 5.941e-3
-1.595, 5.991e-3
-1.596, 6.049e-3
-1.597, 6.105e-3
-1.598, 6.163e-3
-1.599, 6.222e-3
-1.600, 6.206e-3
-1.599, 6.129e-3
-1.598, 6.071e-3
-1.597, 6.018e-3
-1.596, 5.960e-3
-1.595, 5.898e-3
-1.594, 5.836e-3
-1.593, 5.784e-3
-1.592, 5.729e-3
-1.591, 5.673e-3
-1.590, 5.614e-3
-1.589, 5.559e-3
-1.588, 5.504e-3
-1.587, 5.454e-3
-1.586, 5.399e-3
-1.585, 5.343e-3
-1.584, 5.291e-3
-1.583, 5.241e-3
-1.582, 5.192e-3
-1.581, 5.140e-3
-1.580, 5.087e-3
-1.579, 5.035e-3
-1.578, 4.986e-3
-1.577, 4.939e-3
-1.576, 4.890e-3
-1.575, 4.841e-3
-1.574, 4.788e-3
-1.573, 4.745e-3
-1.572, 4.699e-3
-1.571, 4.653e-3
-1.570, 4.600e-3
-1.569, 4.554e-3
-1.568, 4.511e-3
-1.567, 4.468e-3
-1.566, 4.421e-3
-1.565, 4.375e-3
-1.564, 4.329e-3
-1.563, 4.292e-3
-1.562, 4.249e-3
-1.561, 4.206e-3
-1.560, 4.162e-3
-1.559, 4.116e-3
-1.558, 4.073e-3
-1.557, 4.036e-3
-1.556, 3.996e-3
-1.555, 3.950e-3
-1.554, 3.913e-3
-1.553, 3.873e-3
-1.552, 3.836e-3
-1.551, 3.795e-3
-1.550, 3.752e-3
-1.549, 3.715e-3
-1.548, 3.678e-3
-1.547, 3.644e-3
-1.546, 3.607e-3
-1.545, 3.567e-3
-1.544, 3.530e-3
-1.543, 3.493e-3
-1.542, 3.462e-3
-1.541, 3.425e-3
-1.540, 3.388e-3
-1.539, 3.355e-3
-1.538, 3.321e-3
-1.537, 3.287e-3
-1.536, 3.253e-3
-1.535, 3.219e-3
-1.534, 3.185e-3
-1.533, 3.151e-3
-1.532, 3.120e-3
-1.531, 3.089e-3
-1.530, 3.056e-3
-1.529, 3.022e-3
-1.528, 2.994e-3
-1.527, 2.966e-3
-1.526, 2.932e-3
-1.525, 2.901e-3
-1.524, 2.871e-3
-1.523, 2.843e-3
-1.522, 2.815e-3
-1.521, 2.781e-3
-1.520, 2.753e-3
-1.519, 2.726e-3
-1.518, 2.701e-3
-1.517, 2.676e-3
-1.516, 2.642e-3
-1.515, 2.612e-3
-1.514, 2.587e-3
-1.513, 2.562e-3
-1.512, 2.538e-3
-1.511, 2.510e-3
-1.510, 2.479e-3
-1.509, 2.454e-3
-1.508, 2.430e-3
-1.507, 2.405e-3
-1.506, 2.377e-3
-1.505, 2.349e-3
-1.504, 2.325e-3
-1.503, 2.303e-3
-1.502, 2.279e-3
-1.501, 2.254e-3
-1.500, 2.226e-3
-1.499, 2.201e-3
-1.498, 2.180e-3
-1.497, 2.158e-3
-1.496, 2.134e-3
-1.495, 2.112e-3
-1.494, 2.087e-3
-1.493, 2.066e-3
-1.492, 2.044e-3
-1.491, 2.023e-3
-1.490, 1.998e-3
-1.489, 1.976e-3
-1.488, 1.955e-3
-1.487, 1.933e-3
-1.486, 1.912e-3
-1.485, 1.887e-3
-1.484, 1.865e-3
-1.483, 1.847e-3
-1.482, 1.828e-3
-1.481, 1.807e-3
-1.480, 1.782e-3
-1.479, 1.764e-3
-1.478, 1.745e-3
-1.477, 1.727e-3
-1.476, 1.705e-3
-1.475, 1.684e-3
-1.474, 1.662e-3
-1.473, 1.647e-3
-1.472, 1.628e-3
-1.471, 1.606e-3
-1.470, 1.585e-3
-1.469, 1.566e-3
-1.468, 1.551e-3
-1.467, 1.532e-3
-1.466, 1.514e-3
-1.465, 1.492e-3
-1.464, 1.474e-3
-1.463, 1.455e-3
-1.462, 1.440e-3
-1.461, 1.421e-3
-1.460, 1.400e-3
-1.459, 1.384e-3
-1.458, 1.369e-3
-1.457, 1.351e-3
-1.456, 1.332e-3
-1.455, 1.314e-3
-1.454, 1.298e-3
-1.453, 1.283e-3
-1.452, 1.267e-3
-1.451, 1.246e-3
-1.450, 1.230e-3
-1.449, 1.212e-3
-1.448, 1.199e-3
-1.447, 1.184e-3
-1.446, 1.166e-3
-1.445, 1.147e-3
-1.444, 1.135e-3
-1.443, 1.119e-3
-1.442, 1.104e-3
-1.441, 1.088e-3
-1.440, 1.070e-3
-1.439, 1.055e-3
-1.438, 1.042e-3
-1.437, 1.027e-3
-1.436, 1.011e-3
-1.435, 9.929e-4
-1.434, 9.806e-4
-1.433, 9.652e-4
-1.432, 9.528e-4
-1.431, 9.374e-4
-1.430, 9.220e-4
-1.429, 9.066e-4
-1.428, 8.943e-4
-1.427, 8.819e-4
-1.426, 8.665e-4
-1.425, 8.480e-4
-1.424, 8.357e-4
-1.423, 8.264e-4
-1.422, 8.110e-4
-1.421, 7.956e-4
-1.420, 7.802e-4
-1.419, 7.679e-4
-1.418, 7.586e-4
-1.417, 7.432e-4
-1.416, 7.309e-4
-1.415, 7.154e-4
-1.414, 7.031e-4
-1.413, 6.939e-4
-1.412, 6.815e-4
-1.411, 6.692e-4
-1.410, 6.538e-4
-1.409, 6.384e-4
-1.408, 6.322e-4
-1.407, 6.199e-4
-1.406, 6.075e-4
-1.405, 5.952e-4
-1.404, 5.829e-4
-1.403, 5.736e-4
-1.402, 5.644e-4
-1.401, 5.489e-4
-1.400, 5.366e-4
-1.399, 5.274e-4
-1.398, 5.181e-4
-1.397, 5.089e-4
-1.396, 4.965e-4
-1.395, 4.842e-4
-1.394, 4.750e-4
-1.393, 4.657e-4
-1.392, 4.595e-4
-1.391, 4.441e-4
-1.390, 4.349e-4
-1.389, 4.256e-4
-1.388, 4.164e-4
-1.387, 4.102e-4
-1.386, 3.979e-4
-1.385, 3.886e-4
-1.384, 3.794e-4
-1.383, 3.701e-4
-1.382, 3.640e-4
-1.381, 3.547e-4
-1.380, 3.424e-4
-1.379, 3.362e-4
-1.378, 3.270e-4
-1.377, 3.208e-4
-1.376, 3.115e-4
-1.375, 3.023e-4
-1.374, 2.931e-4
-1.373, 2.900e-4
-1.372, 2.807e-4
-1.371, 2.746e-4
-1.370, 2.653e-4
-1.369, 2.591e-4
-1.368, 2.530e-4
-1.367, 2.468e-4
-1.366, 2.376e-4
-1.365, 2.314e-4
-1.364, 2.252e-4
-1.363, 2.191e-4
-1.362, 2.160e-4
-1.361, 2.067e-4
-1.360, 1.975e-4
-1.359, 1.944e-4
-1.358, 1.882e-4
-1.357, 1.851e-4
-1.356, 1.759e-4
-1.355, 1.697e-4
-1.354, 1.636e-4
-1.353, 1.636e-4
-1.352, 1.574e-4
-1.351, 1.481e-4
-1.350, 1.451e-4
-1.349, 1.389e-4
-1.348, 1.358e-4
-1.347, 1.327e-4
-1.346, 1.266e-4
-1.345, 1.204e-4
-1.344, 1.173e-4
-1.343, 1.142e-4
-1.342, 1.111e-4
-1.341, 1.050e-4
-1.340, 9.882e-5
-1.339, 9.573e-5
-1.338, 9.265e-5
-1.337, 8.957e-5
-1.336, 8.648e-5
-1.335, 8.032e-5
-1.334, 7.723e-5
-1.333, 7.723e-5
-1.332, 7.107e-5
-1.331, 6.798e-5
-1.330, 6.490e-5
-1.329, 5.873e-5
-1.328, 5.873e-5
-1.327, 5.565e-5
-1.326, 5.257e-5
-1.325, 4.949e-5
-1.324, 4.640e-5
-1.323, 4.332e-5
-1.322, 4.332e-5
-1.321, 3.715e-5
-1.320, 3.407e-5
-1.319, 3.099e-5
-1.318, 3.099e-5
-1.317, 2.790e-5
-1.316, 2.482e-5
-1.315, 2.174e-5
-1.314, 1.865e-5
-1.313, 1.865e-5
-1.312, 1.865e-5
-1.311, 1.249e-5
-1.310, 9.405e-6
-1.309, 9.405e-6
-1.308, 9.405e-6
-1.307, 9.405e-6
-1.306, 3.239e-6
-1.305, 1.559e-7
-1.304, 1.559e-7
-1.303, 1.559e-7
-1.302, 1.559e-7
-1.301, -6.010e-6
-1.300, -9.093e-6
-1.299, -9.093e-6
-1.298, -9.093e-6
-1.297, -9.093e-6
-1.296, -1.218e-5
-1.295, -1.526e-5
-1.294, -1.834e-5
-1.293, -1.218e-5
-1.292, -1.526e-5
-1.291, -1.834e-5
-1.290, -2.143e-5
-1.289, -2.143e-5
-1.288, -2.143e-5
-1.287, -2.143e-5
-1.286, -2.451e-5
-1.285, -2.759e-5
-1.284, -2.759e-5
-1.283, -2.759e-5
-1.282, -2.759e-5
-1.281, -3.068e-5
-1.280, -3.376e-5
-1.279, -3.376e-5
-1.278, -3.068e-5
-1.277, -3.068e-5
-1.276, -3.684e-5
-1.275, -3.684e-5
-1.274, -3.684e-5
-1.273, -3.684e-5
-1.272, -3.684e-5
-1.271, -3.992e-5
-1.270, -4.301e-5
-1.269, -3.992e-5
-1.268, -3.992e-5
-1.267, -3.992e-5
-1.266, -4.301e-5
-1.265, -4.301e-5
-1.264, -4.301e-5
-1.263, -4.301e-5
-1.262, -4.301e-5
-1.261, -4.609e-5
-1.260, -4.917e-5
-1.259, -4.609e-5
-1.258, -4.609e-5
-1.257, -4.609e-5
-1.256, -4.917e-5
-1.255, -4.917e-5
-1.254, -5.226e-5
-1.253, -4.917e-5
-1.252, -4.917e-5
-1.251, -5.226e-5
-1.250, -5.226e-5
-1.249, -5.226e-5
-1.248, -5.226e-5
-1.247, -5.226e-5
-1.246, -5.226e-5
-1.245, -5.534e-5
-1.244, -5.534e-5
-1.243, -5.226e-5
-1.242, -5.226e-5
-1.241, -5.534e-5
-1.240, -5.534e-5
-1.239, -5.534e-5
-1.238, -5.534e-5
-1.237, -5.534e-5
-1.236, -5.842e-5
-1.235, -5.842e-5
-1.234, -5.842e-5
-1.233, -5.842e-5
-1.232, -5.534e-5
-1.231, -5.842e-5
-1.230, -5.842e-5
-1.229, -6.151e-5
-1.228, -5.842e-5
-1.227, -5.842e-5
-1.226, -5.842e-5
-1.225, -6.151e-5
-1.224, -6.151e-5
-1.223, -5.842e-5
-1.222, -5.842e-5
-1.221, -6.151e-5
-1.220, -6.151e-5
-1.219, -6.459e-5
-1.218, -6.151e-5
-1.217, -6.151e-5
-1.216, -6.151e-5
-1.215, -6.459e-5
-1.214, -6.459e-5
-1.213, -6.151e-5
-1.212, -6.151e-5
-1.211, -6.459e-5
-1.210, -6.459e-5
-1.209, -6.459e-5
-1.208, -6.459e-5
-1.207, -6.151e-5
-1.206, -6.459e-5
-1.205, -6.459e-5
-1.204, -6.767e-5
-1.203, -6.459e-5
-1.202, -6.151e-5
-1.201, -6.459e-5
-1.200, -6.767e-5
-1.199, -6.767e-5
-1.198, -6.459e-5
-1.197, -6.459e-5
-1.196, -6.767e-5
-1.195, -6.767e-5
-1.194, -6.767e-5
-1.193, -6.459e-5
-1.192, -6.459e-5
-1.191, -6.459e-5
-1.190, -6.767e-5
-1.189, -6.767e-5
-1.188, -6.459e-5
-1.187, -6.459e-5
-1.186, -6.767e-5
-1.185, -6.767e-5
-1.184, -6.767e-5
-1.183, -6.767e-5
-1.182, -6.767e-5
-1.181, -6.767e-5
-1.180, -7.076e-5
-1.179, -7.076e-5
-1.178, -6.767e-5
-1.177, -6.767e-5
-1.176, -6.767e-5
-1.175, -7.076e-5
-1.174, -7.076e-5
-1.173, -6.767e-5
-1.172, -6.767e-5
-1.171, -7.076e-5
-1.170, -7.076e-5
-1.169, -7.076e-5
-1.168, -6.767e-5
-1.167, -6.767e-5
-1.166, -7.076e-5
-1.165, -7.076e-5
-1.164, -7.076e-5
-1.163, -6.767e-5
-1.162, -6.767e-5
-1.161, -7.076e-5
-1.160, -7.384e-5
-1.159, -7.384e-5
-1.158, -7.076e-5
-1.157, -6.767e-5
-1.156, -7.076e-5
-1.155, -7.384e-5
-1.154, -7.384e-5
-1.153, -7.076e-5
-1.152, -7.076e-5
-1.151, -7.384e-5
-1.150, -7.384e-5
-1.149, -7.384e-5
-1.148, -7.384e-5
-1.147, -7.076e-5
-1.146, -7.384e-5
-1.145, -7.692e-5
-1.144, -7.384e-5
-1.143, -7.384e-5
-1.142, -7.384e-5
-1.141, -7.384e-5
-1.140, -7.692e-5
-1.139, -7.692e-5
-1.138, -7.384e-5
-1.137, -7.384e-5
-1.136, -7.692e-5
-1.135, -7.692e-5
-1.134, -7.692e-5
-1.133, -7.384e-5
-1.132, -7.384e-5
-1.131, -7.692e-5
-1.130, -8.000e-5
-1.129, -7.692e-5
-1.128, -7.692e-5
-1.127, -7.692e-5
-1.126, -7.692e-5
-1.125, -8.000e-5
-1.124, -8.000e-5
-1.123, -7.692e-5
-1.122, -7.692e-5
-1.121, -8.000e-5
-1.120, -8.000e-5
-1.119, -8.000e-5
-1.118, -8.000e-5
-1.117, -8.000e-5
-1.116, -8.000e-5
-1.115, -8.309e-5
-1.114, -8.309e-5
-1.113, -8.000e-5
-1.112, -8.000e-5
-1.111, -8.309e-5
-1.110, -8.309e-5
-1.109, -8.309e-5
-1.108, -8.000e-5
-1.107, -8.000e-5
-1.106, -8.309e-5
-1.105, -8.617e-5
-1.104, -8.309e-5
-1.103, -8.309e-5
-1.102, -8.000e-5
-1.101, -8.309e-5
-1.100, -8.617e-5
-1.099, -8.617e-5
-1.098, -8.309e-5
-1.097, -8.309e-5
-1.096, -8.309e-5
-1.095, -8.617e-5
-1.094, -8.617e-5
-1.093, -8.309e-5
-1.092, -8.309e-5
-1.091, -8.617e-5
-1.090, -8.925e-5
-1.089, -8.925e-5
-1.088, -8.617e-5
-1.087, -8.617e-5
-1.086, -8.925e-5
-1.085, -8.925e-5
-1.084, -8.925e-5
-1.083, -8.617e-5
-1.082, -8.617e-5
-1.081, -8.925e-5
-1.080, -9.234e-5
-1.079, -8.925e-5
-1.078, -8.925e-5
-1.077, -8.617e-5
-1.076, -8.925e-5
-1.075, -9.234e-5
-1.074, -9.234e-5
-1.073, -8.925e-5
-1.072, -8.925e-5
-1.071, -9.234e-5
-1.070, -9.234e-5
-1.069, -9.234e-5
-1.068, -9.234e-5
-1.067, -8.925e-5
-1.066, -9.234e-5
-1.065, -9.542e-5
-1.064, -9.542e-5
-1.063, -9.234e-5
-1.062, -9.234e-5
-1.061, -9.542e-5
-1.060, -9.542e-5
-1.059, -9.542e-5
-1.058, -9.234e-5
-1.057, -9.234e-5
-1.056, -9.542e-5
-1.055, -9.850e-5
-1.054, -9.850e-5
-1.053, -9.542e-5
-1.052, -9.542e-5
-1.051, -9.850e-5
-1.050, -9.850e-5
-1.049, -9.850e-5
-1.048, -9.542e-5
-1.047, -9.542e-5
-1.046, -9.850e-5
-1.045, -9.850e-5
-1.044, -1.016e-4
-1.043, -9.850e-5
-1.042, -9.850e-5
-1.041, -1.016e-4
-1.040, -1.016e-4
-1.039, -1.016e-4
-1.038, -9.850e-5
-1.037, -9.850e-5
-1.036, -1.016e-4
-1.035, -1.047e-4
-1.034, -1.047e-4
-1.033, -1.016e-4
-1.032, -1.016e-4
-1.031, -1.047e-4
-1.030, -1.047e-4
-1.029, -1.047e-4
-1.028, -1.047e-4
-1.027, -1.016e-4
-1.026, -1.047e-4
-1.025, -1.078e-4
-1.024, -1.078e-4
-1.023, -1.047e-4
-1.022, -1.047e-4
-1.021, -1.078e-4
-1.020, -1.108e-4
-1.019, -1.108e-4
-1.018, -1.078e-4
-1.017, -1.078e-4
-1.016, -1.078e-4
-1.015, -1.108e-4
-1.014, -1.108e-4
-1.013, -1.078e-4
-1.012, -1.078e-4
-1.011, -1.108e-4
-1.010, -1.108e-4
-1.009, -1.108e-4
-1.008, -1.108e-4
-1.007, -1.108e-4
-1.006, -1.108e-4
-1.005, -1.139e-4
-1.004, -1.139e-4
-1.003, -1.139e-4
-1.002, -1.108e-4
-1.001, -1.139e-4
