Dec. 11, 2024   13:54:33
Cyclic Voltammetry
File: c:/users/guazh/data/banditlqround7_x0exp59_r20/2024-12-09-exp628\exp628-2024-12-11t13_47_27-h2koh\exp628_cv_sr_400mvs_efin_-1400mv.bin
Data Source:  Experiment
Instrument Model:  CHI760E
Header: CV ran at 400 mVs
Note: 

Init E (V) = -1
High E (V) = -1
Low E (V) = -1.4
Final E (V) = -1
Init P/N = N
Scan Rate (V/s) = 0.4
Segment = 3
Sample Interval (V) = 0.001
Quiet Time (sec) = 2
Sensitivity (A/V) = 0.01
Comp R (ohm) = 1.3

Results:

Channel 1:
Segment 1:

Segment 2:

Segment 3:

Potential/V, Current/A

-1.000, -8.385e-4
-1.001, -7.367e-4
-1.002, -6.473e-4
-1.003, -5.671e-4
-1.004, -4.931e-4
-1.005, -4.222e-4
-1.006, -3.452e-4
-1.007, -2.650e-4
-1.008, -1.941e-4
-1.009, -1.263e-4
-1.010, -6.767e-5
-1.011, -6.010e-6
-1.012, 5.565e-5
-1.013, 1.204e-4
-1.014, 1.882e-4
-1.015, 2.499e-4
-1.016, 3.023e-4
-1.017, 3.547e-4
-1.018, 4.040e-4
-1.019, 4.595e-4
-1.020, 5.181e-4
-1.021, 5.767e-4
-1.022, 6.291e-4
-1.023, 6.754e-4
-1.024, 7.216e-4
-1.025, 7.679e-4
-1.026, 8.233e-4
-1.027, 8.758e-4
-1.028, 9.282e-4
-1.029, 9.744e-4
-1.030, 1.014e-3
-1.031, 1.055e-3
-1.032, 1.101e-3
-1.033, 1.150e-3
-1.034, 1.199e-3
-1.035, 1.246e-3
-1.036, 1.286e-3
-1.037, 1.323e-3
-1.038, 1.363e-3
-1.039, 1.406e-3
-1.040, 1.452e-3
-1.041, 1.499e-3
-1.042, 1.542e-3
-1.043, 1.576e-3
-1.044, 1.613e-3
-1.045, 1.653e-3
-1.046, 1.696e-3
-1.047, 1.742e-3
-1.048, 1.785e-3
-1.049, 1.825e-3
-1.050, 1.859e-3
-1.051, 1.893e-3
-1.052, 1.930e-3
-1.053, 1.973e-3
-1.054, 2.020e-3
-1.055, 2.060e-3
-1.056, 2.094e-3
-1.057, 2.128e-3
-1.058, 2.161e-3
-1.059, 2.198e-3
-1.060, 2.245e-3
-1.061, 2.285e-3
-1.062, 2.325e-3
-1.063, 2.359e-3
-1.064, 2.390e-3
-1.065, 2.423e-3
-1.066, 2.467e-3
-1.067, 2.510e-3
-1.068, 2.550e-3
-1.069, 2.587e-3
-1.070, 2.618e-3
-1.071, 2.649e-3
-1.072, 2.686e-3
-1.073, 2.729e-3
-1.074, 2.769e-3
-1.075, 2.809e-3
-1.076, 2.846e-3
-1.077, 2.877e-3
-1.078, 2.908e-3
-1.079, 2.948e-3
-1.080, 2.988e-3
-1.081, 3.034e-3
-1.082, 3.071e-3
-1.083, 3.102e-3
-1.084, 3.136e-3
-1.085, 3.170e-3
-1.086, 3.210e-3
-1.087, 3.253e-3
-1.088, 3.293e-3
-1.089, 3.330e-3
-1.090, 3.361e-3
-1.091, 3.395e-3
-1.092, 3.429e-3
-1.093, 3.472e-3
-1.094, 3.515e-3
-1.095, 3.555e-3
-1.096, 3.589e-3
-1.097, 3.620e-3
-1.098, 3.654e-3
-1.099, 3.691e-3
-1.100, 3.734e-3
-1.101, 3.777e-3
-1.102, 3.814e-3
-1.103, 3.848e-3
-1.104, 3.879e-3
-1.105, 3.916e-3
-1.106, 3.956e-3
-1.107, 4.002e-3
-1.108, 4.045e-3
-1.109, 4.079e-3
-1.110, 4.110e-3
-1.111, 4.141e-3
-1.112, 4.178e-3
-1.113, 4.218e-3
-1.114, 4.261e-3
-1.115, 4.301e-3
-1.116, 4.338e-3
-1.117, 4.366e-3
-1.118, 4.397e-3
-1.119, 4.437e-3
-1.120, 4.483e-3
-1.121, 4.523e-3
-1.122, 4.563e-3
-1.123, 4.594e-3
-1.124, 4.628e-3
-1.125, 4.659e-3
-1.126, 4.702e-3
-1.127, 4.745e-3
-1.128, 4.788e-3
-1.129, 4.825e-3
-1.130, 4.859e-3
-1.131, 4.893e-3
-1.132, 4.933e-3
-1.133, 4.976e-3
-1.134, 5.016e-3
-1.135, 5.060e-3
-1.136, 5.090e-3
-1.137, 5.124e-3
-1.138, 5.158e-3
-1.139, 5.195e-3
-1.140, 5.238e-3
-1.141, 5.282e-3
-1.142, 5.319e-3
-1.143, 5.349e-3
-1.144, 5.380e-3
-1.145, 5.417e-3
-1.146, 5.460e-3
-1.147, 5.504e-3
-1.148, 5.541e-3
-1.149, 5.578e-3
-1.150, 5.605e-3
-1.151, 5.636e-3
-1.152, 5.670e-3
-1.153, 5.713e-3
-1.154, 5.753e-3
-1.155, 5.793e-3
-1.156, 5.827e-3
-1.157, 5.858e-3
-1.158, 5.892e-3
-1.159, 5.929e-3
-1.160, 5.972e-3
-1.161, 6.015e-3
-1.162, 6.049e-3
-1.163, 6.083e-3
-1.164, 6.114e-3
-1.165, 6.148e-3
-1.166, 6.185e-3
-1.167, 6.228e-3
-1.168, 6.271e-3
-1.169, 6.308e-3
-1.170, 6.339e-3
-1.171, 6.367e-3
-1.172, 6.404e-3
-1.173, 6.444e-3
-1.174, 6.484e-3
-1.175, 6.524e-3
-1.176, 6.555e-3
-1.177, 6.583e-3
-1.178, 6.617e-3
-1.179, 6.654e-3
-1.180, 6.694e-3
-1.181, 6.737e-3
-1.182, 6.777e-3
-1.183, 6.811e-3
-1.184, 6.842e-3
-1.185, 6.875e-3
-1.186, 6.912e-3
-1.187, 6.959e-3
-1.188, 7.002e-3
-1.189, 7.039e-3
-1.190, 7.073e-3
-1.191, 7.104e-3
-1.192, 7.141e-3
-1.193, 7.181e-3
-1.194, 7.227e-3
-1.195, 7.264e-3
-1.196, 7.295e-3
-1.197, 7.323e-3
-1.198, 7.353e-3
-1.199, 7.387e-3
-1.200, 7.430e-3
-1.201, 7.471e-3
-1.202, 7.504e-3
-1.203, 7.535e-3
-1.204, 7.557e-3
-1.205, 7.591e-3
-1.206, 7.631e-3
-1.207, 7.671e-3
-1.208, 7.711e-3
-1.209, 7.745e-3
-1.210, 7.773e-3
-1.211, 7.800e-3
-1.212, 7.837e-3
-1.213, 7.874e-3
-1.214, 7.918e-3
-1.215, 7.955e-3
-1.216, 7.985e-3
-1.217, 8.013e-3
-1.218, 8.041e-3
-1.219, 8.078e-3
-1.220, 8.103e-3
-1.221, 8.155e-3
-1.222, 8.192e-3
-1.223, 8.220e-3
-1.224, 8.251e-3
-1.225, 8.284e-3
-1.226, 8.325e-3
-1.227, 8.371e-3
-1.228, 8.411e-3
-1.229, 8.448e-3
-1.230, 8.473e-3
-1.231, 8.506e-3
-1.232, 8.540e-3
-1.233, 8.580e-3
-1.234, 8.621e-3
-1.235, 8.658e-3
-1.236, 8.695e-3
-1.237, 8.722e-3
-1.238, 8.756e-3
-1.239, 8.790e-3
-1.240, 8.824e-3
-1.241, 8.867e-3
-1.242, 8.901e-3
-1.243, 8.932e-3
-1.244, 8.957e-3
-1.245, 8.987e-3
-1.246, 9.024e-3
-1.247, 9.071e-3
-1.248, 9.105e-3
-1.249, 9.135e-3
-1.250, 9.160e-3
-1.251, 9.191e-3
-1.252, 9.228e-3
-1.253, 9.259e-3
-1.254, 9.290e-3
-1.255, 9.327e-3
-1.256, 9.364e-3
-1.257, 9.394e-3
-1.258, 9.431e-3
-1.259, 9.465e-3
-1.260, 9.512e-3
-1.261, 9.555e-3
-1.262, 9.586e-3
-1.263, 9.613e-3
-1.264, 9.641e-3
-1.265, 9.669e-3
-1.266, 9.697e-3
-1.267, 9.737e-3
-1.268, 9.771e-3
-1.269, 9.795e-3
-1.270, 9.820e-3
-1.271, 9.841e-3
-1.272, 9.872e-3
-1.273, 9.915e-3
-1.274, 9.952e-3
-1.275, 9.989e-3
-1.276, 1.002e-2
-1.277, 1.005e-2
-1.278, 1.008e-2
-1.279, 1.011e-2
-1.280, 1.016e-2
-1.281, 1.019e-2
-1.282, 1.023e-2
-1.283, 1.026e-2
-1.284, 1.029e-2
-1.285, 1.033e-2
-1.286, 1.037e-2
-1.287, 1.041e-2
-1.288, 1.045e-2
-1.289, 1.049e-2
-1.290, 1.051e-2
-1.291, 1.054e-2
-1.292, 1.058e-2
-1.293, 1.062e-2
-1.294, 1.066e-2
-1.295, 1.070e-2
-1.296, 1.073e-2
-1.297, 1.076e-2
-1.298, 1.079e-2
-1.299, 1.082e-2
-1.300, 1.087e-2
-1.301, 1.090e-2
-1.302, 1.094e-2
-1.303, 1.098e-2
-1.304, 1.100e-2
-1.305, 1.103e-2
-1.306, 1.107e-2
-1.307, 1.111e-2
-1.308, 1.115e-2
-1.309, 1.118e-2
-1.310, 1.121e-2
-1.311, 1.124e-2
-1.312, 1.127e-2
-1.313, 1.131e-2
-1.314, 1.135e-2
-1.315, 1.139e-2
-1.316, 1.140e-2
-1.317, 1.143e-2
-1.318, 1.146e-2
-1.319, 1.149e-2
-1.320, 1.153e-2
-1.321, 1.157e-2
-1.322, 1.160e-2
-1.323, 1.164e-2
-1.324, 1.167e-2
-1.325, 1.170e-2
-1.326, 1.173e-2
-1.327, 1.177e-2
-1.328, 1.180e-2
-1.329, 1.184e-2
-1.330, 1.187e-2
-1.331, 1.189e-2
-1.332, 1.193e-2
-1.333, 1.196e-2
-1.334, 1.199e-2
-1.335, 1.203e-2
-1.336, 1.206e-2
-1.337, 1.208e-2
-1.338, 1.210e-2
-1.339, 1.214e-2
-1.340, 1.218e-2
-1.341, 1.222e-2
-1.342, 1.226e-2
-1.343, 1.230e-2
-1.344, 1.231e-2
-1.345, 1.235e-2
-1.346, 1.238e-2
-1.347, 1.242e-2
-1.348, 1.246e-2
-1.349, 1.249e-2
-1.350, 1.252e-2
-1.351, 1.255e-2
-1.352, 1.259e-2
-1.353, 1.263e-2
-1.354, 1.267e-2
-1.355, 1.269e-2
-1.356, 1.272e-2
-1.357, 1.274e-2
-1.358, 1.278e-2
-1.359, 1.281e-2
-1.360, 1.284e-2
-1.361, 1.287e-2
-1.362, 1.290e-2
-1.363, 1.292e-2
-1.364, 1.295e-2
-1.365, 1.297e-2
-1.366, 1.300e-2
-1.367, 1.304e-2
-1.368, 1.308e-2
-1.369, 1.311e-2
-1.370, 1.313e-2
-1.371, 1.317e-2
-1.372, 1.319e-2
-1.373, 1.322e-2
-1.374, 1.325e-2
-1.375, 1.327e-2
-1.376, 1.329e-2
-1.377, 1.332e-2
-1.378, 1.333e-2
-1.379, 1.336e-2
-1.380, 1.340e-2
-1.381, 1.343e-2
-1.382, 1.346e-2
-1.383, 1.348e-2
-1.384, 1.350e-2
-1.385, 1.352e-2
-1.386, 1.355e-2
-1.387, 1.358e-2
-1.388, 1.361e-2
-1.389, 1.363e-2
-1.390, 1.365e-2
-1.391, 1.366e-2
-1.392, 1.368e-2
-1.393, 1.371e-2
-1.394, 1.374e-2
-1.395, 1.377e-2
-1.396, 1.379e-2
-1.397, 1.381e-2
-1.398, 1.383e-2
-1.399, 1.386e-2
-1.400, 1.381e-2
-1.399, 1.362e-2
-1.398, 1.344e-2
-1.397, 1.325e-2
-1.396, 1.307e-2
-1.395, 1.289e-2
-1.394, 1.273e-2
-1.393, 1.257e-2
-1.392, 1.241e-2
-1.391, 1.225e-2
-1.390, 1.209e-2
-1.389, 1.193e-2
-1.388, 1.178e-2
-1.387, 1.163e-2
-1.386, 1.149e-2
-1.385, 1.134e-2
-1.384, 1.119e-2
-1.383, 1.104e-2
-1.382, 1.090e-2
-1.381, 1.075e-2
-1.380, 1.062e-2
-1.379, 1.049e-2
-1.378, 1.035e-2
-1.377, 1.020e-2
-1.376, 1.006e-2
-1.375, 9.925e-3
-1.374, 9.789e-3
-1.373, 9.663e-3
-1.372, 9.521e-3
-1.371, 9.379e-3
-1.370, 9.243e-3
-1.369, 9.105e-3
-1.368, 8.972e-3
-1.367, 8.855e-3
-1.366, 8.744e-3
-1.365, 8.621e-3
-1.364, 8.503e-3
-1.363, 8.371e-3
-1.362, 8.244e-3
-1.361, 8.133e-3
-1.360, 8.016e-3
-1.359, 7.902e-3
-1.358, 7.797e-3
-1.357, 7.674e-3
-1.356, 7.554e-3
-1.355, 7.446e-3
-1.354, 7.338e-3
-1.353, 7.230e-3
-1.352, 7.131e-3
-1.351, 7.011e-3
-1.350, 6.879e-3
-1.349, 6.789e-3
-1.348, 6.687e-3
-1.347, 6.576e-3
-1.346, 6.475e-3
-1.345, 6.376e-3
-1.344, 6.265e-3
-1.343, 6.157e-3
-1.342, 6.055e-3
-1.341, 5.963e-3
-1.340, 5.873e-3
-1.339, 5.781e-3
-1.338, 5.685e-3
-1.337, 5.593e-3
-1.336, 5.491e-3
-1.335, 5.393e-3
-1.334, 5.303e-3
-1.333, 5.217e-3
-1.332, 5.127e-3
-1.331, 5.032e-3
-1.330, 4.930e-3
-1.329, 4.828e-3
-1.328, 4.739e-3
-1.327, 4.646e-3
-1.326, 4.560e-3
-1.325, 4.468e-3
-1.324, 4.375e-3
-1.323, 4.283e-3
-1.322, 4.190e-3
-1.321, 4.104e-3
-1.320, 4.024e-3
-1.319, 3.947e-3
-1.318, 3.857e-3
-1.317, 3.765e-3
-1.316, 3.675e-3
-1.315, 3.598e-3
-1.314, 3.518e-3
-1.313, 3.444e-3
-1.312, 3.370e-3
-1.311, 3.284e-3
-1.310, 3.200e-3
-1.309, 3.117e-3
-1.308, 3.037e-3
-1.307, 2.969e-3
-1.306, 2.895e-3
-1.305, 2.821e-3
-1.304, 2.747e-3
-1.303, 2.664e-3
-1.302, 2.587e-3
-1.301, 2.513e-3
-1.300, 2.445e-3
-1.299, 2.383e-3
-1.298, 2.309e-3
-1.297, 2.232e-3
-1.296, 2.158e-3
-1.295, 2.087e-3
-1.294, 2.020e-3
-1.293, 1.958e-3
-1.292, 1.893e-3
-1.291, 1.822e-3
-1.290, 1.751e-3
-1.289, 1.677e-3
-1.288, 1.610e-3
-1.287, 1.545e-3
-1.286, 1.486e-3
-1.285, 1.425e-3
-1.284, 1.354e-3
-1.283, 1.283e-3
-1.282, 1.215e-3
-1.281, 1.153e-3
-1.280, 1.095e-3
-1.279, 1.036e-3
-1.278, 9.744e-4
-1.277, 9.128e-4
-1.276, 8.418e-4
-1.275, 7.771e-4
-1.274, 7.216e-4
-1.273, 6.661e-4
-1.272, 6.137e-4
-1.271, 5.520e-4
-1.270, 4.873e-4
-1.269, 4.256e-4
-1.268, 3.670e-4
-1.267, 3.115e-4
-1.266, 2.622e-4
-1.265, 2.098e-4
-1.264, 1.481e-4
-1.263, 8.648e-5
-1.262, 2.790e-5
-1.261, -2.759e-5
-1.260, -7.692e-5
-1.259, -1.232e-4
-1.258, -1.756e-4
-1.257, -2.342e-4
-1.256, -2.958e-4
-1.255, -3.513e-4
-1.254, -4.006e-4
-1.253, -4.469e-4
-1.252, -4.931e-4
-1.251, -5.486e-4
-1.250, -6.041e-4
-1.249, -6.627e-4
-1.248, -7.120e-4
-1.247, -7.614e-4
-1.246, -8.045e-4
-1.245, -8.508e-4
-1.244, -9.032e-4
-1.243, -9.587e-4
-1.242, -1.014e-3
-1.241, -1.064e-3
-1.240, -1.107e-3
-1.239, -1.150e-3
-1.238, -1.196e-3
-1.237, -1.249e-3
-1.236, -1.304e-3
-1.235, -1.356e-3
-1.234, -1.400e-3
-1.233, -1.443e-3
-1.232, -1.483e-3
-1.231, -1.529e-3
-1.230, -1.581e-3
-1.229, -1.637e-3
-1.228, -1.686e-3
-1.227, -1.729e-3
-1.226, -1.766e-3
-1.225, -1.810e-3
-1.224, -1.859e-3
-1.223, -1.908e-3
-1.222, -1.958e-3
-1.221, -2.004e-3
-1.220, -2.044e-3
-1.219, -2.081e-3
-1.218, -2.124e-3
-1.217, -2.170e-3
-1.216, -2.223e-3
-1.215, -2.269e-3
-1.214, -2.312e-3
-1.213, -2.349e-3
-1.212, -2.386e-3
-1.211, -2.432e-3
-1.210, -2.482e-3
-1.209, -2.531e-3
-1.208, -2.577e-3
-1.207, -2.617e-3
-1.206, -2.651e-3
-1.205, -2.691e-3
-1.204, -2.741e-3
-1.203, -2.787e-3
-1.202, -2.836e-3
-1.201, -2.879e-3
-1.200, -2.916e-3
-1.199, -2.953e-3
-1.198, -2.994e-3
-1.197, -3.040e-3
-1.196, -3.089e-3
-1.195, -3.135e-3
-1.194, -3.172e-3
-1.193, -3.209e-3
-1.192, -3.246e-3
-1.191, -3.290e-3
-1.190, -3.339e-3
-1.189, -3.388e-3
-1.188, -3.431e-3
-1.187, -3.468e-3
-1.186, -3.505e-3
-1.185, -3.539e-3
-1.184, -3.582e-3
-1.183, -3.629e-3
-1.182, -3.675e-3
-1.181, -3.718e-3
-1.180, -3.755e-3
-1.179, -3.789e-3
-1.178, -3.829e-3
-1.177, -3.875e-3
-1.176, -3.925e-3
-1.175, -3.968e-3
-1.174, -3.996e-3
-1.173, -4.023e-3
-1.172, -4.070e-3
-1.171, -4.116e-3
-1.170, -4.168e-3
-1.169, -4.214e-3
-1.168, -4.255e-3
-1.167, -4.292e-3
-1.166, -4.325e-3
-1.165, -4.362e-3
-1.164, -4.412e-3
-1.163, -4.464e-3
-1.162, -4.507e-3
-1.161, -4.532e-3
-1.160, -4.569e-3
-1.159, -4.612e-3
-1.158, -4.655e-3
-1.157, -4.699e-3
-1.156, -4.745e-3
-1.155, -4.788e-3
-1.154, -4.825e-3
-1.153, -4.859e-3
-1.152, -4.896e-3
-1.151, -4.933e-3
-1.150, -4.976e-3
-1.149, -5.022e-3
-1.148, -5.068e-3
-1.147, -5.102e-3
-1.146, -5.130e-3
-1.145, -5.164e-3
-1.144, -5.207e-3
-1.143, -5.257e-3
-1.142, -5.309e-3
-1.141, -5.349e-3
-1.140, -5.380e-3
-1.139, -5.411e-3
-1.138, -5.451e-3
-1.137, -5.494e-3
-1.136, -5.537e-3
-1.135, -5.577e-3
-1.134, -5.614e-3
-1.133, -5.645e-3
-1.132, -5.679e-3
-1.131, -5.719e-3
-1.130, -5.759e-3
-1.129, -5.802e-3
-1.128, -5.839e-3
-1.127, -5.867e-3
-1.126, -5.898e-3
-1.125, -5.929e-3
-1.124, -5.969e-3
-1.123, -6.015e-3
-1.122, -6.055e-3
-1.121, -6.086e-3
-1.120, -6.117e-3
-1.119, -6.154e-3
-1.118, -6.188e-3
-1.117, -6.228e-3
-1.116, -6.274e-3
-1.115, -6.311e-3
-1.114, -6.348e-3
-1.113, -6.379e-3
-1.112, -6.410e-3
-1.111, -6.450e-3
-1.110, -6.490e-3
-1.109, -6.530e-3
-1.108, -6.570e-3
-1.107, -6.598e-3
-1.106, -6.629e-3
-1.105, -6.662e-3
-1.104, -6.703e-3
-1.103, -6.743e-3
-1.102, -6.783e-3
-1.101, -6.817e-3
-1.100, -6.847e-3
-1.099, -6.875e-3
-1.098, -6.906e-3
-1.097, -6.943e-3
-1.096, -6.986e-3
-1.095, -7.023e-3
-1.094, -7.054e-3
-1.093, -7.082e-3
-1.092, -7.106e-3
-1.091, -7.140e-3
-1.090, -7.180e-3
-1.089, -7.220e-3
-1.088, -7.251e-3
-1.087, -7.279e-3
-1.086, -7.301e-3
-1.085, -7.328e-3
-1.084, -7.365e-3
-1.083, -7.402e-3
-1.082, -7.436e-3
-1.081, -7.470e-3
-1.080, -7.492e-3
-1.079, -7.520e-3
-1.078, -7.550e-3
-1.077, -7.584e-3
-1.076, -7.621e-3
-1.075, -7.652e-3
-1.074, -7.686e-3
-1.073, -7.717e-3
-1.072, -7.742e-3
-1.071, -7.772e-3
-1.070, -7.812e-3
-1.069, -7.853e-3
-1.068, -7.883e-3
-1.067, -7.911e-3
-1.066, -7.939e-3
-1.065, -7.979e-3
-1.064, -8.019e-3
-1.063, -8.059e-3
-1.062, -8.096e-3
-1.061, -8.127e-3
-1.060, -8.152e-3
-1.059, -8.173e-3
-1.058, -8.198e-3
-1.057, -8.232e-3
-1.056, -8.263e-3
-1.055, -8.303e-3
-1.054, -8.333e-3
-1.053, -8.355e-3
-1.052, -8.380e-3
-1.051, -8.407e-3
-1.050, -8.444e-3
-1.049, -8.475e-3
-1.048, -8.506e-3
-1.047, -8.531e-3
-1.046, -8.552e-3
-1.045, -8.580e-3
-1.044, -8.608e-3
-1.043, -8.642e-3
-1.042, -8.676e-3
-1.041, -8.700e-3
-1.040, -8.722e-3
-1.039, -8.740e-3
-1.038, -8.759e-3
-1.037, -8.790e-3
-1.036, -8.827e-3
-1.035, -8.855e-3
-1.034, -8.879e-3
-1.033, -8.898e-3
-1.032, -8.919e-3
-1.031, -8.941e-3
-1.030, -8.972e-3
-1.029, -9.003e-3
-1.028, -9.027e-3
-1.027, -9.049e-3
-1.026, -9.064e-3
-1.025, -9.086e-3
-1.024, -9.114e-3
-1.023, -9.141e-3
-1.022, -9.169e-3
-1.021, -9.191e-3
-1.020, -9.212e-3
-1.019, -9.225e-3
-1.018, -9.246e-3
-1.017, -9.280e-3
-1.016, -9.311e-3
-1.015, -9.339e-3
-1.014, -9.360e-3
-1.013, -9.376e-3
-1.012, -9.394e-3
-1.011, -9.419e-3
-1.010, -9.446e-3
-1.009, -9.474e-3
-1.008, -9.496e-3
-1.007, -9.514e-3
-1.006, -9.530e-3
-1.005, -9.551e-3
-1.004, -9.573e-3
-1.003, -9.604e-3
-1.002, -9.638e-3
-1.001, -9.653e-3
