Potential V vs RHE, Current mA cm-2
0.013299999999999867,-0.2284758749282034
0.012299999999999978,-0.3058605830308209
0.011299999999999866,-0.3525460559263671
0.010299999999999976,-0.38791383842299304
0.009299999999999864,-0.4191789581500104
0.008299999999999974,-0.4442193481576215
0.007299999999999862,-0.4662888444355161
0.006299999999999972,-0.4893486386233161
0.00529999999999986,-0.5111351926412377
0.0042999999999999705,-0.5316485064892809
0.0032999999999998586,-0.5515959358173778
0.0022999999999999687,-0.5688554136757313
0.0012999999999998568,-0.5869637183140037
0.00029999999999996696,-0.6056379074722221
-0.000700000000000145,-0.6245950388904137
-0.0017000000000000348,-0.6432692280486321
-0.0027000000000001467,-0.657840754437242
-0.0037000000000000366,-0.6762320013354877
-0.0047000000000001485,-0.694057363713787
-0.005700000000000038,-0.712590081742019
-0.00670000000000015,-0.7297080884703859
-0.00770000000000004,-0.7455528550288744
-0.008700000000000152,-0.7632367462771872
-0.009700000000000042,-0.7800718107455812
-0.010700000000000154,-0.7984630576438266
-0.011700000000000044,-0.8131760551624231
-0.012700000000000156,-0.828030523811006
-0.013700000000000045,-0.8431679347195619
-0.014700000000000157,-0.8592956435380232
-0.015700000000000047,-0.8741501121866062
-0.01670000000000016,-0.8880142829252835
-0.01770000000000005,-0.9013125691440148
-0.01870000000000016,-0.9147523264927326
-0.01970000000000005,-0.9293238528813426
-0.020700000000000163,-0.9438953792699524
-0.021700000000000053,-0.9564863098387513
-0.022700000000000164,-0.9675210579776986
-0.023700000000000054,-0.9803949308064704
-0.024700000000000166,-0.9936932170252017
-0.025700000000000056,-1.0088306279337578
-0.026700000000000168,-1.0202897894626646
-0.027700000000000058,-1.0307586530816657
-0.02870000000000017,-1.0444813526903567
-0.02970000000000006,-1.0565063987392094
-0.03070000000000017,-1.071785280777752
-0.03170000000000006,-1.0828200289166992
-0.03270000000000017,-1.0937133059256599
-0.03370000000000006,-1.1089921879642022
-0.034700000000000175,-1.1207342917530823
-0.035700000000000065,-1.136154644921611
-0.03670000000000018,-1.1486041043604232
-0.03770000000000007,-1.1599217947593436
-0.03870000000000018,-1.174068907757994
-0.03970000000000007,-1.1875086651067117
-0.04070000000000018,-1.201372835845389
-0.04170000000000007,-1.2149540643240935
-0.04270000000000018,-1.2258473413330544
-0.04370000000000007,-1.2402773965916778
-0.044700000000000184,-1.2547074518503012
-0.045700000000000074,-1.268430151458992
-0.046700000000000186,-1.2828602067176154
-0.047700000000000076,-1.2938949548565624
-0.04870000000000019,-1.3093153080250914
-0.04970000000000008,-1.3230380076337822
-0.05070000000000019,-1.3376095340223921
-0.05170000000000008,-1.350200464591191
-0.05270000000000019,-1.3619425683800708
-0.05370000000000008,-1.3769385081586403
-0.05470000000000019,-1.3896709098574256
-0.05570000000000008,-1.4053742052859275
-0.056700000000000195,-1.4189554337646317
-0.057700000000000085,-1.4302731241635522
-0.058700000000000196,-1.4444202371622026
-0.059700000000000086,-1.4571526388609877
-0.0607000000000002,-1.471299751859638
-0.06170000000000009,-1.4854468648582886
-0.0627000000000002,-1.498179266557074
-0.06370000000000009,-1.5094969569559942
-0.0647000000000002,-1.5222293586547795
-0.06570000000000009,-1.53920589425316
-0.0667000000000002,-1.55052358465208
-0.0677000000000001,-1.5618412750510005
-0.0687000000000002,-1.5759883880496508
-0.0697000000000001,-1.587306078448571
-0.07070000000000021,-1.6014531914472214
-0.0717000000000001,-1.614185593146007
-0.07270000000000021,-1.6240885722450622
-0.0737000000000001,-1.6382356852437125
-0.07470000000000021,-1.6509680869424979
-0.0757000000000001,-1.6637004886412832
-0.07670000000000021,-1.6750181790402037
-0.0777000000000001,-1.6849211581392587
-0.07870000000000021,-1.6976535598380442
-0.0797000000000001,-1.7089712502369643
-0.08070000000000022,-1.7217036519357498
-0.0817000000000001,-1.734436053634535
-0.08270000000000022,-1.7429243214337253
-0.08370000000000011,-1.7556567231325106
-0.08470000000000022,-1.766974413531431
-0.08570000000000011,-1.778292103930351
-0.08670000000000022,-1.7896097943292715
-0.08770000000000011,-1.7980980621284617
-0.08870000000000022,-1.8108304638272468
-0.08970000000000011,-1.822148154226167
-0.09070000000000022,-1.8334658446250875
-0.09170000000000011,-1.8433688237241426
-0.09270000000000023,-1.8518570915233332
-0.09370000000000012,-1.8617600706223882
-0.09470000000000023,-1.8730777610213083
-0.09570000000000012,-1.884395451420229
-0.09670000000000023,-1.892883719219419
-0.09770000000000012,-1.9013719870186092
-0.09870000000000023,-1.9112749661176645
-0.09970000000000012,-1.922592656516585
-0.10070000000000023,-1.9324956356156402
-0.10170000000000012,-1.9423986147146954
-0.10270000000000024,-1.9494721712140204
-0.10370000000000013,-1.9579604390132106
-0.10470000000000024,-1.9692781294121309
-0.10570000000000013,-1.9791811085111866
-0.10670000000000024,-1.9890840876102414
-0.10770000000000013,-1.9947429328097017
-0.10870000000000024,-2.004645911908757
-0.10970000000000013,-2.014548891007812
-0.11070000000000024,-2.023037158807002
-0.11170000000000013,-2.0315254266061924
-0.11270000000000002,-2.0371842718056525
-0.11370000000000013,-2.047087250904708
-0.11470000000000002,-2.0555755187038987
-0.11570000000000014,-2.0654784978029537
-0.11670000000000003,-2.072552054302279
-0.11770000000000014,-2.0782108995017388
-0.11870000000000003,-2.0866991673009294
-0.11970000000000014,-2.095187435100119
-0.12070000000000003,-2.10367570289931
-0.12170000000000014,-2.1121639706984996
-0.12270000000000003,-2.11782281589796
-0.12370000000000014,-2.12631108369715
-0.12470000000000003,-2.1347993514963406
-0.12570000000000014,-2.1418729079956655
-0.12670000000000003,-2.150361175794856
-0.12770000000000015,-2.1546053096944506
-0.12870000000000004,-2.161678866193776
-0.12970000000000015,-2.171581845292831
-0.13070000000000004,-2.178655401792157
-0.13170000000000015,-2.1871436695913467
-0.13270000000000004,-2.1913878034909415
-0.13370000000000015,-2.197046648690402
-0.13470000000000004,-2.206949627789457
-0.13570000000000015,-2.2140231842887825
-0.13670000000000004,-2.2210967407881075
-0.13770000000000016,-2.226755585987568
-0.13870000000000005,-2.235243853786758
-0.13970000000000016,-2.2423174102860832
-0.14070000000000005,-2.250805678085273
-0.14170000000000016,-2.2550498119848683
-0.14270000000000005,-2.2621233684841937
-0.14370000000000016,-2.2677822136836534
-0.14470000000000005,-2.2776851927827093
-0.14570000000000016,-2.286173460581899
-0.14670000000000005,-2.2918323057813597
-0.14770000000000016,-2.298905862280684
-0.14870000000000005,-2.30597941878001
-0.14970000000000017,-2.3144676865791998
-0.15070000000000006,-2.321541243078525
-0.15170000000000017,-2.330029510877715
-0.15270000000000006,-2.3356883560771755
-0.15370000000000017,-2.3441766238763657
-0.15470000000000006,-2.352664891675556
-0.15570000000000017,-2.362567870774611
-0.15670000000000006,-2.3710561385738016
-0.15770000000000017,-2.3738855611735317
-0.15870000000000006,-2.383788540272587
-0.15970000000000018,-2.3951062306715074
-0.16070000000000007,-2.4035944984706976
-0.16170000000000018,-2.412082766269888
-0.16270000000000007,-2.4163269001694827
-0.16370000000000018,-2.426229879268538
-0.16470000000000007,-2.436132858367593
-0.16570000000000018,-2.4460358374666487
-0.16670000000000007,-2.4559388165657037
-0.16770000000000018,-2.463012373065029
-0.16870000000000007,-2.4700859295643536
-0.16970000000000018,-2.4814036199632743
-0.17070000000000007,-2.4898918877624645
-0.17170000000000019,-2.5012095781613843
-0.17270000000000008,-2.509697845960575
-0.1737000000000002,-2.5196008250596305
-0.17470000000000008,-2.5309185154585507
-0.1757000000000002,-2.5408214945576058
-0.17670000000000008,-2.550724473656661
-0.1777000000000002,-2.5592127414558514
-0.17870000000000008,-2.5705304318547717
-0.1797000000000002,-2.583262833553557
-0.18070000000000008,-2.5959952352523423
-0.1817000000000002,-2.6073129256512626
-0.18270000000000008,-2.615801193450453
-0.1837000000000002,-2.627118883849373
-0.1847000000000001,-2.641265996848024
-0.1857000000000002,-2.6525836872469437
-0.1867000000000001,-2.666730800245594
-0.1877000000000002,-2.6780484906445143
-0.1887000000000001,-2.6907808923433
-0.1897000000000002,-2.7049280053419507
-0.1907000000000001,-2.720489829640466
-0.1917000000000001,-2.7360516539389814
-0.19269999999999998,-2.7473693443379013
-0.1937000000000001,-2.7629311686364164
-0.19469999999999998,-2.778492992934932
-0.1957000000000001,-2.7926401059335824
-0.19669999999999999,-2.811031352831828
-0.1977000000000001,-2.8251784658304784
-0.1987,-2.842155001428859
-0.1997000000000001,-2.859131537027239
-0.2007,-2.8761080726256196
-0.2017000000000001,-2.8959140308237297
-0.2027,-2.9100611438223805
-0.2037000000000001,-2.9298671020204905
-0.2047,-2.9539171941181968
-0.2057000000000001,-2.972308441016442
-0.2067,-2.9935291105144173
-0.2077000000000001,-3.0076762235130676
-0.2087,-3.028896893011044
-0.2097000000000001,-3.0515322738088844
-0.2107,-3.074167654606725
-0.2117000000000001,-3.0996324580042955
-0.2127,-3.1180237049025408
-0.2137000000000001,-3.1392443744005165
-0.2147,-3.166123889097952
-0.2157000000000001,-3.1915886924955226
-0.2167,-3.2156387845932284
-0.21770000000000012,-3.238274165391069
-0.2187,-3.2580801235891794
-0.21970000000000012,-3.2892037721862106
-0.2207,-3.317497998183511
-0.22170000000000012,-3.3500363580804073
-0.2227,-3.3769158727778423
-0.22370000000000012,-3.4094542326747383
-0.2247,-3.440577881271769
-0.22570000000000012,-3.4646279733694745
-0.2267,-3.502825178465831
-0.22770000000000012,-3.5297046931632665
-0.22870000000000001,-3.5608283417602973
-0.22970000000000013,-3.580634299958408
-0.23070000000000002,-3.590537279057463
-0.23170000000000013,-3.6287344841538194
-0.23270000000000002,-3.666931689250175
-0.23370000000000013,-3.713617162145721
-0.23470000000000002,-3.7404966768431565
-0.23570000000000013,-3.7758644593397825
-0.23670000000000002,-3.8140616644361387
-0.2376999999999999,-3.838111756533844
-0.23870000000000002,-3.881967806829661
-0.2396999999999999,-3.9088473215270967
-0.24070000000000003,-3.945629815323587
-0.24169999999999991,-3.9937299995189983
-0.24270000000000003,-4.03617133851495
-0.24369999999999992,-4.08710094531009
-0.24470000000000003,-4.132371706905772
-0.24569999999999992,-4.173398334601859
-0.24670000000000003,-4.217254384897673
-0.24769999999999992,-4.2611104351934905
-0.24870000000000003,-4.304966485489307
-0.24969999999999992,-4.353066669684718
-0.25070000000000003,-4.395508008680669
-0.2516999999999999,-4.442193481576215
-0.25270000000000004,-4.483220109272302
-0.2536999999999999,-4.527076159568118
-0.25470000000000004,-4.570932209863933
-0.2556999999999999,-4.61195883756002
-0.25670000000000004,-4.652985465256107
-0.25769999999999993,-4.691182670352461
-0.25870000000000004,-4.735038720648277
-0.25969999999999993,-4.773235925744634
-0.26070000000000004,-4.8128478421408545
-0.26169999999999993,-4.849630335937346
-0.26270000000000004,-4.8849981184339715
-0.26369999999999993,-4.920365900930598
-0.26470000000000005,-4.954318972127359
-0.26569999999999994,-4.986857332024254
-0.26670000000000005,-5.012322135421825
-0.26769999999999994,-5.043445784018855
-0.26870000000000005,-5.070325298716291
-0.26969999999999994,-5.100034236013457
-0.27070000000000005,-5.125499039411029
-0.27169999999999994,-5.152378554108464
-0.27270000000000005,-5.208967006103065
-0.27369999999999994,-5.329217466591594
-0.27470000000000006,-5.431076680181876
-0.27569999999999995,-5.479176864377286
-0.27670000000000006,-5.549912429370539
-0.27769999999999995,-5.622062705663656
-0.27870000000000006,-5.670162889859067
-0.27969999999999995,-5.728166053153534
-0.28070000000000006,-5.779095659948675
-0.28169999999999995,-5.837098823243141
-0.28270000000000006,-5.896516697837473
-0.28369999999999995,-5.963008128931129
-0.28470000000000006,-6.033743693924381
-0.28569999999999995,-6.0917468572188485
-0.28670000000000007,-6.149750020513314
-0.28769999999999996,-6.195020782108996
-0.28870000000000007,-6.245950388904137
-0.28969999999999996,-6.2954652843994126
-0.29070000000000007,-6.337906623395364
-0.29169999999999996,-6.384592096290911
-0.29270000000000007,-6.388836230190505
-0.29369999999999996,-6.422789301387266
-0.2947000000000001,-6.458157083883892
-0.29569999999999996,-6.496354288980249
-0.2967000000000001,-6.537380916676335
-0.29769999999999996,-6.574163410472826
-0.2987000000000001,-6.603872347769991
-0.29969999999999997,-6.633581285067157
-0.3007000000000001,-6.6632902223643224
-0.30169999999999997,-6.692999159661489
-0.3027000000000001,-6.735440498657439
-0.30369999999999997,-6.780711260253121
-0.3047000000000001,-6.821737887949207
-0.30569999999999997,-6.872667494744348
-0.3067000000000001,-6.908035277240974
-0.3077,-6.970282574435036
-0.3087000000000001,-7.028285737729503
-0.3097,-7.091947746223429
-0.3107000000000001,-7.12307139482046
-0.3117,-7.186733403314386
-0.3127000000000001,-7.219271763211282
-0.3137,-7.2659572361068285
-0.3147000000000001,-7.340936934999675
-0.3157,-7.428649035591308
-0.3167000000000001,-7.49089633278537
-0.3177,-7.561631897778621
-0.3187000000000001,-7.676223513067688
-0.3197,-7.789400417056893
-0.3207000000000001,-7.875697806348659
-0.3217,-7.929456835743531
-0.3227000000000001,-8.001607112036647
-0.3237,-8.08648979002855
-0.3247000000000001,-8.172787179320316
-0.3257,-8.24352274431357
-0.3267000000000001,-8.264743413811544
-0.3277,-8.328405422305472
-0.3287000000000001,-8.426020501996158
-0.3297,-8.530709138186172
-0.3307000000000001,-8.619835950077668
-0.3317,-8.716036318468491
-0.3327000000000001,-8.802333707760258
-0.3337,-8.887216385752161
-0.3347000000000001,-8.986246176742714
-0.3357,-9.107911348531106
-0.3367000000000001,-9.15459682142665
-0.3377,-9.281920838414505
-0.3387000000000001,-9.413488989301953
-0.3397,-9.540813006289808
-0.3407000000000001,-9.628525106881439
-0.3417,-9.699260671874692
-0.3427000000000001,-9.784143349866595
-0.3437,-9.85629362615971
-0.3447000000000001,-9.936932170252017
-0.3457,-10.054353208140816
-0.3467000000000001,-10.125088773134069
-0.3477,-10.21845971892516
-0.3487000000000001,-10.313245376016118
-0.3497,-10.425007568705455
-0.3507000000000001,-10.52403735969601
-0.3517,-10.562234564792364
-0.3527000000000001,-10.64004368628494
-0.3537,-10.822541443967529
-0.3547000000000001,-10.986647954751875
-0.3557,-11.101239570040944
-0.35670000000000013,-11.160657444635275
-0.3577,-11.358717026616379
-0.35870000000000013,-11.529897093900049
-0.3597,-11.694003604684394
-0.36070000000000013,-11.862354249368334
-0.3617,-11.944407504760505
-0.3626999999999999,-12.104269881645255
-0.3637,-12.34760022522204
-0.3646999999999999,-12.459362417911377
-0.3657,-12.527268560304899
-0.3666999999999999,-12.694204493688973
-0.3677,-12.805966686378312
-0.3686999999999999,-12.824357933276557
-0.36970000000000003,-12.90924061126846
-0.3706999999999999,-13.056370586454424
-0.37170000000000003,-13.247356611936203
-0.3726999999999999,-13.435513214818254
-0.37370000000000003,-13.571325499605297
-0.3746999999999999,-13.741090855589102
-0.37570000000000003,-13.872659006476551
-0.3766999999999999,-14.063645031958329
-0.37770000000000004,-14.26028990263957
-0.3786999999999999,-14.458349484620674
-0.37970000000000004,-14.599820614607177
-0.3806999999999999,-14.71299751859638
-0.38170000000000004,-14.755438857592333
-0.38269999999999993,-14.783733083589633
-0.38370000000000004,-14.882762874580186
-0.38469999999999993,-15.02423400456669
-0.38570000000000004,-15.321323377538347
-0.38669999999999993,-15.321323377538347
-0.38570000000000004,-14.995939778569388
-0.38469999999999993,-14.65640906660178
-0.38370000000000004,-14.444202371622024
-0.38269999999999993,-14.175407224647667
-0.38170000000000004,-13.824558822281137
-0.3806999999999999,-13.610937416001518
-0.37970000000000004,-13.486442821613394
-0.3786999999999999,-13.279894971833098
-0.37770000000000004,-13.032320494356718
-0.3766999999999999,-12.708351606687625
-0.37570000000000003,-12.429653480614212
-0.3746999999999999,-12.220276208234186
-0.37370000000000003,-11.991092977656052
-0.3726999999999999,-11.787374550475485
-0.37170000000000003,-11.641659286589386
-0.3706999999999999,-11.539800072999105
-0.36970000000000003,-11.299299152022046
-0.3686999999999999,-11.014942180749173
-0.3677,-10.753220590274143
-0.3666999999999999,-10.481596020700055
-0.3657,-10.225533275424485
-0.3646999999999999,-9.99069119964689
-0.3637,-9.77706979336727
-0.3626999999999999,-9.562033675787783
-0.3617,-9.341338713008836
-0.36070000000000013,-9.139034997128135
-0.3597,-8.940975415147031
-0.35870000000000013,-8.758477657464443
-0.3577,-8.585882878880907
-0.35670000000000013,-8.392067430799397
-0.3557,-8.202496116617484
-0.3547000000000001,-8.018583647635028
-0.3537,-7.834671178652573
-0.3527000000000001,-7.655002843569713
-0.3517,-7.473919797186989
-0.3507000000000001,-7.2984955960037246
-0.3497,-7.12873024001992
-0.3487000000000001,-6.966038440535441
-0.3477,-6.801931929751096
-0.3467000000000001,-6.642069552866347
-0.3457,-6.4864513098811925
-0.3447000000000001,-6.329418355596174
-0.3437,-6.178044246510615
-0.3427000000000001,-6.025255426125191
-0.3417,-5.880954873538958
-0.3407000000000001,-5.736654320952724
-0.3397,-5.60367145876541
-0.3387000000000001,-5.507471090374587
-0.3377,-5.38722062988606
-0.3367000000000001,-5.241505365999961
-0.3357,-5.139646152409678
-0.3347000000000001,-5.020810403221016
-0.3337,-4.8977305201327574
-0.3327000000000001,-4.768991791845038
-0.3317,-4.623276527958939
-0.3307000000000001,-4.501611356170546
-0.3297,-4.391263874781075
-0.3287000000000001,-4.280916393391601
-0.3277,-4.177642468501453
-0.3267000000000001,-4.077197966211036
-0.3257,-3.973924041320888
-0.3247000000000001,-3.8904560746288515
-0.3237,-3.8055733966369485
-0.3227000000000001,-3.7122024508458558
-0.3217,-3.5990255468566534
-0.3207000000000001,-3.504239889765696
-0.3197,-3.4179425004739286
-0.3187000000000001,-3.3330598224820265
-0.3177,-3.2510065670898545
-0.3167000000000001,-3.161879755198357
-0.3157,-3.0755823659065897
-0.3147000000000001,-2.997773244414013
-0.3137,-2.919964122921436
-0.3127000000000001,-2.844984424028589
-0.3117,-2.770004725135742
-0.3107000000000001,-2.70209858274222
-0.3097,-2.6285335951492383
-0.3087000000000001,-2.5606274527557162
-0.3077,-2.4898918877624645
-0.3067000000000001,-2.4234004566688077
-0.30569999999999997,-2.358323736875016
-0.3047000000000001,-2.2932470170812245
-0.30369999999999997,-2.2338291424868926
-0.3027000000000001,-2.174411267892561
-0.30169999999999997,-2.113578681998365
-0.3007000000000001,-2.052746096104168
-0.29969999999999997,-1.993328221509837
-0.2987000000000001,-1.9395691921149654
-0.29769999999999996,-1.884395451420229
-0.2967000000000001,-1.8263922881257622
-0.29569999999999996,-1.775462681330621
-0.2947000000000001,-1.7245330745354797
-0.29369999999999996,-1.6778476016399335
-0.29270000000000007,-1.626917994844792
-0.29169999999999996,-1.5759883880496508
-0.29070000000000007,-1.5293029151541047
-0.28969999999999996,-1.471299751859638
-0.28870000000000007,-1.4246142789640919
-0.28769999999999996,-1.385285304827844
-0.28670000000000007,-1.3412877834020411
-0.28569999999999995,-1.3002611557059554
-0.28470000000000006,-1.2616395372196396
-0.28369999999999995,-1.2238667455132433
-0.28270000000000006,-1.1870842517167524
-0.28169999999999995,-1.1495944022703288
-0.28070000000000006,-1.115924273333541
-0.27969999999999995,-1.0822541443967533
-0.27870000000000006,-1.0495743133698707
-0.27769999999999995,-1.0167530112130019
-0.27670000000000006,-0.981951113236322
-0.27569999999999995,-0.9504030512493317
-0.27470000000000006,-0.9204111716921929
-0.27369999999999994,-0.8904192921350541
-0.27270000000000005,-0.8611347682278478
-0.27169999999999994,-0.8317087731906551
-0.27070000000000005,-0.8041219028432868
-0.26969999999999994,-0.7766765036259051
-0.26870000000000005,-0.7513531713583209
