Aug. 20, 2024   06:02:15
Cyclic Voltammetry
File: c:/users/guazh/data/20240813_batch_94_500/2024-08-15-exp138\exp138-2024-08-20t05_38_31-h2koh\exp138_cv_sr_500mvs_efin_-1800mv.bin
Data Source:  Experiment
Instrument Model:  CHI760E
Header: CV ran at 500 mVs
Note: 

Init E (V) = -1
High E (V) = -1
Low E (V) = -1.8
Final E (V) = -1
Init P/N = N
Scan Rate (V/s) = 0.5
Segment = 3
Sample Interval (V) = 0.001
Quiet Time (sec) = 2
Sensitivity (A/V) = 0.01
Comp R (ohm) = 1.8

Results:

Channel 1:
Segment 1:

Segment 2:

Segment 3:

Potential/V, Current/A

-1.000, -1.218e-5
-1.001, 1.249e-5
-1.002, 2.790e-5
-1.003, 3.715e-5
-1.004, 4.640e-5
-1.005, 4.949e-5
-1.006, 5.565e-5
-1.007, 6.182e-5
-1.008, 6.182e-5
-1.009, 6.490e-5
-1.010, 6.798e-5
-1.011, 7.107e-5
-1.012, 7.415e-5
-1.013, 7.415e-5
-1.014, 7.723e-5
-1.015, 7.723e-5
-1.016, 8.032e-5
-1.017, 8.032e-5
-1.018, 8.032e-5
-1.019, 8.340e-5
-1.020, 8.340e-5
-1.021, 8.648e-5
-1.022, 8.648e-5
-1.023, 8.648e-5
-1.024, 8.957e-5
-1.025, 8.957e-5
-1.026, 8.957e-5
-1.027, 8.957e-5
-1.028, 9.265e-5
-1.029, 9.265e-5
-1.030, 9.265e-5
-1.031, 9.573e-5
-1.032, 9.265e-5
-1.033, 9.573e-5
-1.034, 9.573e-5
-1.035, 9.573e-5
-1.036, 9.882e-5
-1.037, 9.882e-5
-1.038, 9.882e-5
-1.039, 1.019e-4
-1.040, 9.882e-5
-1.041, 1.019e-4
-1.042, 1.019e-4
-1.043, 1.019e-4
-1.044, 1.019e-4
-1.045, 1.019e-4
-1.046, 1.050e-4
-1.047, 1.050e-4
-1.048, 1.050e-4
-1.049, 1.081e-4
-1.050, 1.050e-4
-1.051, 1.081e-4
-1.052, 1.081e-4
-1.053, 1.081e-4
-1.054, 1.111e-4
-1.055, 1.081e-4
-1.056, 1.111e-4
-1.057, 1.111e-4
-1.058, 1.081e-4
-1.059, 1.111e-4
-1.060, 1.111e-4
-1.061, 1.111e-4
-1.062, 1.142e-4
-1.063, 1.111e-4
-1.064, 1.142e-4
-1.065, 1.142e-4
-1.066, 1.142e-4
-1.067, 1.142e-4
-1.068, 1.142e-4
-1.069, 1.173e-4
-1.070, 1.142e-4
-1.071, 1.173e-4
-1.072, 1.173e-4
-1.073, 1.173e-4
-1.074, 1.173e-4
-1.075, 1.173e-4
-1.076, 1.204e-4
-1.077, 1.204e-4
-1.078, 1.204e-4
-1.079, 1.235e-4
-1.080, 1.204e-4
-1.081, 1.204e-4
-1.082, 1.235e-4
-1.083, 1.204e-4
-1.084, 1.235e-4
-1.085, 1.235e-4
-1.086, 1.235e-4
-1.087, 1.235e-4
-1.088, 1.235e-4
-1.089, 1.266e-4
-1.090, 1.235e-4
-1.091, 1.235e-4
-1.092, 1.266e-4
-1.093, 1.266e-4
-1.094, 1.266e-4
-1.095, 1.266e-4
-1.096, 1.266e-4
-1.097, 1.296e-4
-1.098, 1.296e-4
-1.099, 1.296e-4
-1.100, 1.296e-4
-1.101, 1.296e-4
-1.102, 1.296e-4
-1.103, 1.296e-4
-1.104, 1.327e-4
-1.105, 1.327e-4
-1.106, 1.327e-4
-1.107, 1.327e-4
-1.108, 1.327e-4
-1.109, 1.327e-4
-1.110, 1.327e-4
-1.111, 1.327e-4
-1.112, 1.327e-4
-1.113, 1.327e-4
-1.114, 1.358e-4
-1.115, 1.358e-4
-1.116, 1.358e-4
-1.117, 1.358e-4
-1.118, 1.327e-4
-1.119, 1.358e-4
-1.120, 1.358e-4
-1.121, 1.389e-4
-1.122, 1.389e-4
-1.123, 1.358e-4
-1.124, 1.389e-4
-1.125, 1.389e-4
-1.126, 1.389e-4
-1.127, 1.389e-4
-1.128, 1.389e-4
-1.129, 1.389e-4
-1.130, 1.389e-4
-1.131, 1.389e-4
-1.132, 1.420e-4
-1.133, 1.389e-4
-1.134, 1.420e-4
-1.135, 1.420e-4
-1.136, 1.420e-4
-1.137, 1.420e-4
-1.138, 1.420e-4
-1.139, 1.451e-4
-1.140, 1.420e-4
-1.141, 1.420e-4
-1.142, 1.420e-4
-1.143, 1.420e-4
-1.144, 1.451e-4
-1.145, 1.420e-4
-1.146, 1.451e-4
-1.147, 1.451e-4
-1.148, 1.451e-4
-1.149, 1.451e-4
-1.150, 1.451e-4
-1.151, 1.451e-4
-1.152, 1.451e-4
-1.153, 1.481e-4
-1.154, 1.481e-4
-1.155, 1.481e-4
-1.156, 1.481e-4
-1.157, 1.481e-4
-1.158, 1.481e-4
-1.159, 1.481e-4
-1.160, 1.481e-4
-1.161, 1.481e-4
-1.162, 1.481e-4
-1.163, 1.481e-4
-1.164, 1.512e-4
-1.165, 1.512e-4
-1.166, 1.512e-4
-1.167, 1.512e-4
-1.168, 1.512e-4
-1.169, 1.512e-4
-1.170, 1.512e-4
-1.171, 1.543e-4
-1.172, 1.543e-4
-1.173, 1.512e-4
-1.174, 1.543e-4
-1.175, 1.512e-4
-1.176, 1.543e-4
-1.177, 1.543e-4
-1.178, 1.543e-4
-1.179, 1.543e-4
-1.180, 1.543e-4
-1.181, 1.543e-4
-1.182, 1.543e-4
-1.183, 1.543e-4
-1.184, 1.574e-4
-1.185, 1.574e-4
-1.186, 1.543e-4
-1.187, 1.574e-4
-1.188, 1.574e-4
-1.189, 1.574e-4
-1.190, 1.574e-4
-1.191, 1.574e-4
-1.192, 1.574e-4
-1.193, 1.574e-4
-1.194, 1.605e-4
-1.195, 1.574e-4
-1.196, 1.605e-4
-1.197, 1.605e-4
-1.198, 1.574e-4
-1.199, 1.605e-4
-1.200, 1.605e-4
-1.201, 1.605e-4
-1.202, 1.605e-4
-1.203, 1.605e-4
-1.204, 1.605e-4
-1.205, 1.605e-4
-1.206, 1.605e-4
-1.207, 1.636e-4
-1.208, 1.605e-4
-1.209, 1.636e-4
-1.210, 1.636e-4
-1.211, 1.636e-4
-1.212, 1.636e-4
-1.213, 1.636e-4
-1.214, 1.636e-4
-1.215, 1.636e-4
-1.216, 1.636e-4
-1.217, 1.666e-4
-1.218, 1.636e-4
-1.219, 1.666e-4
-1.220, 1.666e-4
-1.221, 1.666e-4
-1.222, 1.666e-4
-1.223, 1.666e-4
-1.224, 1.666e-4
-1.225, 1.666e-4
-1.226, 1.666e-4
-1.227, 1.666e-4
-1.228, 1.666e-4
-1.229, 1.697e-4
-1.230, 1.697e-4
-1.231, 1.697e-4
-1.232, 1.697e-4
-1.233, 1.666e-4
-1.234, 1.697e-4
-1.235, 1.697e-4
-1.236, 1.697e-4
-1.237, 1.697e-4
-1.238, 1.697e-4
-1.239, 1.728e-4
-1.240, 1.697e-4
-1.241, 1.697e-4
-1.242, 1.697e-4
-1.243, 1.728e-4
-1.244, 1.728e-4
-1.245, 1.728e-4
-1.246, 1.728e-4
-1.247, 1.759e-4
-1.248, 1.728e-4
-1.249, 1.728e-4
-1.250, 1.728e-4
-1.251, 1.728e-4
-1.252, 1.728e-4
-1.253, 1.728e-4
-1.254, 1.759e-4
-1.255, 1.759e-4
-1.256, 1.759e-4
-1.257, 1.759e-4
-1.258, 1.759e-4
-1.259, 1.759e-4
-1.260, 1.759e-4
-1.261, 1.759e-4
-1.262, 1.790e-4
-1.263, 1.759e-4
-1.264, 1.790e-4
-1.265, 1.790e-4
-1.266, 1.759e-4
-1.267, 1.790e-4
-1.268, 1.759e-4
-1.269, 1.790e-4
-1.270, 1.790e-4
-1.271, 1.821e-4
-1.272, 1.790e-4
-1.273, 1.790e-4
-1.274, 1.821e-4
-1.275, 1.790e-4
-1.276, 1.790e-4
-1.277, 1.790e-4
-1.278, 1.821e-4
-1.279, 1.821e-4
-1.280, 1.821e-4
-1.281, 1.821e-4
-1.282, 1.821e-4
-1.283, 1.821e-4
-1.284, 1.821e-4
-1.285, 1.821e-4
-1.286, 1.821e-4
-1.287, 1.851e-4
-1.288, 1.851e-4
-1.289, 1.851e-4
-1.290, 1.851e-4
-1.291, 1.851e-4
-1.292, 1.851e-4
-1.293, 1.821e-4
-1.294, 1.851e-4
-1.295, 1.851e-4
-1.296, 1.851e-4
-1.297, 1.882e-4
-1.298, 1.851e-4
-1.299, 1.882e-4
-1.300, 1.851e-4
-1.301, 1.882e-4
-1.302, 1.882e-4
-1.303, 1.882e-4
-1.304, 1.882e-4
-1.305, 1.882e-4
-1.306, 1.882e-4
-1.307, 1.882e-4
-1.308, 1.882e-4
-1.309, 1.882e-4
-1.310, 1.882e-4
-1.311, 1.913e-4
-1.312, 1.913e-4
-1.313, 1.913e-4
-1.314, 1.913e-4
-1.315, 1.913e-4
-1.316, 1.913e-4
-1.317, 1.913e-4
-1.318, 1.913e-4
-1.319, 1.913e-4
-1.320, 1.944e-4
-1.321, 1.944e-4
-1.322, 1.944e-4
-1.323, 1.944e-4
-1.324, 1.944e-4
-1.325, 1.944e-4
-1.326, 1.944e-4
-1.327, 1.944e-4
-1.328, 1.944e-4
-1.329, 1.975e-4
-1.330, 1.975e-4
-1.331, 1.975e-4
-1.332, 1.975e-4
-1.333, 1.944e-4
-1.334, 1.975e-4
-1.335, 1.975e-4
-1.336, 1.975e-4
-1.337, 2.006e-4
-1.338, 2.006e-4
-1.339, 2.006e-4
-1.340, 2.006e-4
-1.341, 2.006e-4
-1.342, 2.006e-4
-1.343, 2.006e-4
-1.344, 2.006e-4
-1.345, 2.036e-4
-1.346, 2.036e-4
-1.347, 2.036e-4
-1.348, 2.006e-4
-1.349, 2.036e-4
-1.350, 2.036e-4
-1.351, 2.036e-4
-1.352, 2.067e-4
-1.353, 2.036e-4
-1.354, 2.067e-4
-1.355, 2.067e-4
-1.356, 2.067e-4
-1.357, 2.067e-4
-1.358, 2.067e-4
-1.359, 2.067e-4
-1.360, 2.067e-4
-1.361, 2.067e-4
-1.362, 2.098e-4
-1.363, 2.098e-4
-1.364, 2.129e-4
-1.365, 2.098e-4
-1.366, 2.098e-4
-1.367, 2.098e-4
-1.368, 2.098e-4
-1.369, 2.129e-4
-1.370, 2.129e-4
-1.371, 2.129e-4
-1.372, 2.160e-4
-1.373, 2.129e-4
-1.374, 2.129e-4
-1.375, 2.129e-4
-1.376, 2.160e-4
-1.377, 2.160e-4
-1.378, 2.160e-4
-1.379, 2.160e-4
-1.380, 2.191e-4
-1.381, 2.160e-4
-1.382, 2.191e-4
-1.383, 2.160e-4
-1.384, 2.191e-4
-1.385, 2.191e-4
-1.386, 2.191e-4
-1.387, 2.221e-4
-1.388, 2.221e-4
-1.389, 2.221e-4
-1.390, 2.221e-4
-1.391, 2.221e-4
-1.392, 2.221e-4
-1.393, 2.221e-4
-1.394, 2.252e-4
-1.395, 2.252e-4
-1.396, 2.252e-4
-1.397, 2.252e-4
-1.398, 2.252e-4
-1.399, 2.283e-4
-1.400, 2.283e-4
-1.401, 2.283e-4
-1.402, 2.283e-4
-1.403, 2.283e-4
-1.404, 2.314e-4
-1.405, 2.314e-4
-1.406, 2.314e-4
-1.407, 2.314e-4
-1.408, 2.314e-4
-1.409, 2.314e-4
-1.410, 2.314e-4
-1.411, 2.314e-4
-1.412, 2.345e-4
-1.413, 2.345e-4
-1.414, 2.376e-4
-1.415, 2.376e-4
-1.416, 2.376e-4
-1.417, 2.376e-4
-1.418, 2.376e-4
-1.419, 2.406e-4
-1.420, 2.406e-4
-1.421, 2.406e-4
-1.422, 2.437e-4
-1.423, 2.406e-4
-1.424, 2.406e-4
-1.425, 2.437e-4
-1.426, 2.437e-4
-1.427, 2.468e-4
-1.428, 2.437e-4
-1.429, 2.468e-4
-1.430, 2.499e-4
-1.431, 2.468e-4
-1.432, 2.499e-4
-1.433, 2.468e-4
-1.434, 2.499e-4
-1.435, 2.530e-4
-1.436, 2.499e-4
-1.437, 2.530e-4
-1.438, 2.530e-4
-1.439, 2.561e-4
-1.440, 2.561e-4
-1.441, 2.561e-4
-1.442, 2.561e-4
-1.443, 2.561e-4
-1.444, 2.591e-4
-1.445, 2.591e-4
-1.446, 2.622e-4
-1.447, 2.622e-4
-1.448, 2.622e-4
-1.449, 2.653e-4
-1.450, 2.653e-4
-1.451, 2.653e-4
-1.452, 2.653e-4
-1.453, 2.684e-4
-1.454, 2.684e-4
-1.455, 2.715e-4
-1.456, 2.684e-4
-1.457, 2.715e-4
-1.458, 2.715e-4
-1.459, 2.746e-4
-1.460, 2.746e-4
-1.461, 2.746e-4
-1.462, 2.776e-4
-1.463, 2.776e-4
-1.464, 2.807e-4
-1.465, 2.807e-4
-1.466, 2.807e-4
-1.467, 2.838e-4
-1.468, 2.838e-4
-1.469, 2.838e-4
-1.470, 2.869e-4
-1.471, 2.869e-4
-1.472, 2.900e-4
-1.473, 2.900e-4
-1.474, 2.931e-4
-1.475, 2.931e-4
-1.476, 2.931e-4
-1.477, 2.961e-4
-1.478, 2.961e-4
-1.479, 2.992e-4
-1.480, 3.023e-4
-1.481, 3.023e-4
-1.482, 3.023e-4
-1.483, 3.023e-4
-1.484, 3.054e-4
-1.485, 3.085e-4
-1.486, 3.085e-4
-1.487, 3.115e-4
-1.488, 3.115e-4
-1.489, 3.146e-4
-1.490, 3.146e-4
-1.491, 3.177e-4
-1.492, 3.177e-4
-1.493, 3.208e-4
-1.494, 3.239e-4
-1.495, 3.239e-4
-1.496, 3.270e-4
-1.497, 3.300e-4
-1.498, 3.300e-4
-1.499, 3.300e-4
-1.500, 3.331e-4
-1.501, 3.331e-4
-1.502, 3.362e-4
-1.503, 3.393e-4
-1.504, 3.424e-4
-1.505, 3.455e-4
-1.506, 3.455e-4
-1.507, 3.485e-4
-1.508, 3.485e-4
-1.509, 3.516e-4
-1.510, 3.547e-4
-1.511, 3.547e-4
-1.512, 3.578e-4
-1.513, 3.609e-4
-1.514, 3.640e-4
-1.515, 3.670e-4
-1.516, 3.670e-4
-1.517, 3.701e-4
-1.518, 3.732e-4
-1.519, 3.763e-4
-1.520, 3.763e-4
-1.521, 3.794e-4
-1.522, 3.825e-4
-1.523, 3.855e-4
-1.524, 3.886e-4
-1.525, 3.917e-4
-1.526, 3.948e-4
-1.527, 3.979e-4
-1.528, 3.979e-4
-1.529, 4.010e-4
-1.530, 4.071e-4
-1.531, 4.071e-4
-1.532, 4.102e-4
-1.533, 4.133e-4
-1.534, 4.164e-4
-1.535, 4.225e-4
-1.536, 4.225e-4
-1.537, 4.287e-4
-1.538, 4.287e-4
-1.539, 4.349e-4
-1.540, 4.380e-4
-1.541, 4.380e-4
-1.542, 4.441e-4
-1.543, 4.441e-4
-1.544, 4.503e-4
-1.545, 4.565e-4
-1.546, 4.565e-4
-1.547, 4.626e-4
-1.548, 4.657e-4
-1.549, 4.688e-4
-1.550, 4.750e-4
-1.551, 4.750e-4
-1.552, 4.811e-4
-1.553, 4.873e-4
-1.554, 4.873e-4
-1.555, 4.935e-4
-1.556, 4.996e-4
-1.557, 5.027e-4
-1.558, 5.058e-4
-1.559, 5.089e-4
-1.560, 5.150e-4
-1.561, 5.212e-4
-1.562, 5.274e-4
-1.563, 5.305e-4
-1.564, 5.366e-4
-1.565, 5.397e-4
-1.566, 5.428e-4
-1.567, 5.489e-4
-1.568, 5.551e-4
-1.569, 5.613e-4
-1.570, 5.674e-4
-1.571, 5.705e-4
-1.572, 5.767e-4
-1.573, 5.829e-4
-1.574, 5.859e-4
-1.575, 5.921e-4
-1.576, 5.983e-4
-1.577, 6.044e-4
-1.578, 6.106e-4
-1.579, 6.137e-4
-1.580, 6.229e-4
-1.581, 6.291e-4
-1.582, 6.353e-4
-1.583, 6.414e-4
-1.584, 6.445e-4
-1.585, 6.538e-4
-1.586, 6.599e-4
-1.587, 6.661e-4
-1.588, 6.754e-4
-1.589, 6.784e-4
-1.590, 6.846e-4
-1.591, 6.908e-4
-1.592, 6.969e-4
-1.593, 7.062e-4
-1.594, 7.124e-4
-1.595, 7.185e-4
-1.596, 7.278e-4
-1.597, 7.339e-4
-1.598, 7.432e-4
-1.599, 7.494e-4
-1.600, 7.555e-4
-1.601, 7.648e-4
-1.602, 7.709e-4
-1.603, 7.802e-4
-1.604, 7.863e-4
-1.605, 7.956e-4
-1.606, 8.018e-4
-1.607, 8.110e-4
-1.608, 8.203e-4
-1.609, 8.295e-4
-1.610, 8.357e-4
-1.611, 8.449e-4
-1.612, 8.542e-4
-1.613, 8.634e-4
-1.614, 8.727e-4
-1.615, 8.819e-4
-1.616, 8.912e-4
-1.617, 8.973e-4
-1.618, 9.097e-4
-1.619, 9.189e-4
-1.620, 9.282e-4
-1.621, 9.374e-4
-1.622, 9.467e-4
-1.623, 9.559e-4
-1.624, 9.652e-4
-1.625, 9.744e-4
-1.626, 9.868e-4
-1.627, 9.960e-4
-1.628, 1.008e-3
-1.629, 1.018e-3
-1.630, 1.030e-3
-1.631, 1.042e-3
-1.632, 1.051e-3
-1.633, 1.064e-3
-1.634, 1.073e-3
-1.635, 1.085e-3
-1.636, 1.098e-3
-1.637, 1.110e-3
-1.638, 1.122e-3
-1.639, 1.135e-3
-1.640, 1.147e-3
-1.641, 1.159e-3
-1.642, 1.169e-3
-1.643, 1.184e-3
-1.644, 1.196e-3
-1.645, 1.209e-3
-1.646, 1.221e-3
-1.647, 1.236e-3
-1.648, 1.249e-3
-1.649, 1.264e-3
-1.650, 1.277e-3
-1.651, 1.289e-3
-1.652, 1.304e-3
-1.653, 1.320e-3
-1.654, 1.335e-3
-1.655, 1.351e-3
-1.656, 1.363e-3
-1.657, 1.378e-3
-1.658, 1.394e-3
-1.659, 1.406e-3
-1.660, 1.421e-3
-1.661, 1.440e-3
-1.662, 1.455e-3
-1.663, 1.474e-3
-1.664, 1.489e-3
-1.665, 1.505e-3
-1.666, 1.520e-3
-1.667, 1.539e-3
-1.668, 1.557e-3
-1.669, 1.576e-3
-1.670, 1.594e-3
-1.671, 1.613e-3
-1.672, 1.628e-3
-1.673, 1.643e-3
-1.674, 1.665e-3
-1.675, 1.684e-3
-1.676, 1.702e-3
-1.677, 1.721e-3
-1.678, 1.739e-3
-1.679, 1.761e-3
-1.680, 1.782e-3
-1.681, 1.801e-3
-1.682, 1.819e-3
-1.683, 1.841e-3
-1.684, 1.862e-3
-1.685, 1.881e-3
-1.686, 1.902e-3
-1.687, 1.924e-3
-1.688, 1.949e-3
-1.689, 1.970e-3
-1.690, 1.995e-3
-1.691, 2.017e-3
-1.692, 2.038e-3
-1.693, 2.063e-3
-1.694, 2.087e-3
-1.695, 2.109e-3
-1.696, 2.137e-3
-1.697, 2.158e-3
-1.698, 2.180e-3
-1.699, 2.205e-3
-1.700, 2.229e-3
-1.701, 2.254e-3
-1.702, 2.282e-3
-1.703, 2.309e-3
-1.704, 2.334e-3
-1.705, 2.362e-3
-1.706, 2.390e-3
-1.707, 2.414e-3
-1.708, 2.445e-3
-1.709, 2.473e-3
-1.710, 2.501e-3
-1.711, 2.531e-3
-1.712, 2.559e-3
-1.713, 2.587e-3
-1.714, 2.618e-3
-1.715, 2.645e-3
-1.716, 2.676e-3
-1.717, 2.707e-3
-1.718, 2.738e-3
-1.719, 2.769e-3
-1.720, 2.800e-3
-1.721, 2.830e-3
-1.722, 2.864e-3
-1.723, 2.892e-3
-1.724, 2.926e-3
-1.725, 2.960e-3
-1.726, 2.994e-3
-1.727, 3.028e-3
-1.728, 3.065e-3
-1.729, 3.102e-3
-1.730, 3.139e-3
-1.731, 3.179e-3
-1.732, 3.213e-3
-1.733, 3.253e-3
-1.734, 3.290e-3
-1.735, 3.327e-3
-1.736, 3.367e-3
-1.737, 3.407e-3
-1.738, 3.447e-3
-1.739, 3.490e-3
-1.740, 3.530e-3
-1.741, 3.570e-3
-1.742, 3.610e-3
-1.743, 3.657e-3
-1.744, 3.697e-3
-1.745, 3.740e-3
-1.746, 3.786e-3
-1.747, 3.832e-3
-1.748, 3.876e-3
-1.749, 3.925e-3
-1.750, 3.971e-3
-1.751, 4.017e-3
-1.752, 4.064e-3
-1.753, 4.110e-3
-1.754, 4.162e-3
-1.755, 4.209e-3
-1.756, 4.261e-3
-1.757, 4.307e-3
-1.758, 4.357e-3
-1.759, 4.406e-3
-1.760, 4.455e-3
-1.761, 4.508e-3
-1.762, 4.572e-3
-1.763, 4.625e-3
-1.764, 4.680e-3
-1.765, 4.730e-3
-1.766, 4.782e-3
-1.767, 4.838e-3
-1.768, 4.890e-3
-1.769, 4.949e-3
-1.770, 5.001e-3
-1.771, 5.060e-3
-1.772, 5.115e-3
-1.773, 5.171e-3
-1.774, 5.229e-3
-1.775, 5.285e-3
-1.776, 5.346e-3
-1.777, 5.402e-3
-1.778, 5.460e-3
-1.779, 5.525e-3
-1.780, 5.584e-3
-1.781, 5.655e-3
-1.782, 5.716e-3
-1.783, 5.781e-3
-1.784, 5.846e-3
-1.785, 5.910e-3
-1.786, 5.975e-3
-1.787, 6.043e-3
-1.788, 6.108e-3
-1.789, 6.179e-3
-1.790, 6.243e-3
-1.791, 6.311e-3
-1.792, 6.379e-3
-1.793, 6.450e-3
-1.794, 6.527e-3
-1.795, 6.601e-3
-1.796, 6.678e-3
-1.797, 6.749e-3
-1.798, 6.826e-3
-1.799, 6.906e-3
-1.800, 6.928e-3
-1.799, 6.885e-3
-1.798, 6.851e-3
-1.797, 6.808e-3
-1.796, 6.768e-3
-1.795, 6.724e-3
-1.794, 6.681e-3
-1.793, 6.635e-3
-1.792, 6.586e-3
-1.791, 6.543e-3
-1.790, 6.493e-3
-1.789, 6.450e-3
-1.788, 6.404e-3
-1.787, 6.358e-3
-1.786, 6.311e-3
-1.785, 6.268e-3
-1.784, 6.222e-3
-1.783, 6.169e-3
-1.782, 6.120e-3
-1.781, 6.071e-3
-1.780, 6.021e-3
-1.779, 5.978e-3
-1.778, 5.926e-3
-1.777, 5.873e-3
-1.776, 5.824e-3
-1.775, 5.772e-3
-1.774, 5.725e-3
-1.773, 5.673e-3
-1.772, 5.621e-3
-1.771, 5.578e-3
-1.770, 5.534e-3
-1.769, 5.485e-3
-1.768, 5.439e-3
-1.767, 5.386e-3
-1.766, 5.340e-3
-1.765, 5.288e-3
-1.764, 5.238e-3
-1.763, 5.198e-3
-1.762, 5.152e-3
-1.761, 5.100e-3
-1.760, 5.050e-3
-1.759, 5.004e-3
-1.758, 4.961e-3
-1.757, 4.908e-3
-1.756, 4.862e-3
-1.755, 4.816e-3
-1.754, 4.773e-3
-1.753, 4.727e-3
-1.752, 4.680e-3
-1.751, 4.640e-3
-1.750, 4.594e-3
-1.749, 4.551e-3
-1.748, 4.505e-3
-1.747, 4.461e-3
-1.746, 4.415e-3
-1.745, 4.372e-3
-1.744, 4.329e-3
-1.743, 4.286e-3
-1.742, 4.239e-3
-1.741, 4.196e-3
-1.740, 4.150e-3
-1.739, 4.107e-3
-1.738, 4.067e-3
-1.737, 4.024e-3
-1.736, 3.980e-3
-1.735, 3.937e-3
-1.734, 3.897e-3
-1.733, 3.857e-3
-1.732, 3.817e-3
-1.731, 3.780e-3
-1.730, 3.740e-3
-1.729, 3.700e-3
-1.728, 3.660e-3
-1.727, 3.620e-3
-1.726, 3.583e-3
-1.725, 3.540e-3
-1.724, 3.503e-3
-1.723, 3.466e-3
-1.722, 3.425e-3
-1.721, 3.388e-3
-1.720, 3.348e-3
-1.719, 3.308e-3
-1.718, 3.274e-3
-1.717, 3.231e-3
-1.716, 3.197e-3
-1.715, 3.160e-3
-1.714, 3.123e-3
-1.713, 3.093e-3
-1.712, 3.056e-3
-1.711, 3.022e-3
-1.710, 2.988e-3
-1.709, 2.954e-3
-1.708, 2.920e-3
-1.707, 2.886e-3
-1.706, 2.852e-3
-1.705, 2.821e-3
-1.704, 2.790e-3
-1.703, 2.763e-3
-1.702, 2.726e-3
-1.701, 2.698e-3
-1.700, 2.661e-3
-1.699, 2.633e-3
-1.698, 2.602e-3
-1.697, 2.571e-3
-1.696, 2.544e-3
-1.695, 2.510e-3
-1.694, 2.482e-3
-1.693, 2.451e-3
-1.692, 2.420e-3
-1.691, 2.393e-3
-1.690, 2.365e-3
-1.689, 2.334e-3
-1.688, 2.309e-3
-1.687, 2.279e-3
-1.686, 2.254e-3
-1.685, 2.226e-3
-1.684, 2.195e-3
-1.683, 2.171e-3
-1.682, 2.140e-3
-1.681, 2.115e-3
-1.680, 2.087e-3
-1.679, 2.060e-3
-1.678, 2.035e-3
-1.677, 2.007e-3
-1.676, 1.983e-3
-1.675, 1.958e-3
-1.674, 1.936e-3
-1.673, 1.912e-3
-1.672, 1.884e-3
-1.671, 1.859e-3
-1.670, 1.841e-3
-1.669, 1.813e-3
-1.668, 1.795e-3
-1.667, 1.767e-3
-1.666, 1.745e-3
-1.665, 1.721e-3
-1.664, 1.696e-3
-1.663, 1.677e-3
-1.662, 1.653e-3
-1.661, 1.634e-3
-1.660, 1.613e-3
-1.659, 1.588e-3
-1.658, 1.566e-3
-1.657, 1.545e-3
-1.656, 1.526e-3
-1.655, 1.505e-3
-1.654, 1.483e-3
-1.653, 1.465e-3
-1.652, 1.443e-3
-1.651, 1.421e-3
-1.650, 1.403e-3
-1.649, 1.381e-3
-1.648, 1.366e-3
-1.647, 1.344e-3
-1.646, 1.326e-3
-1.645, 1.307e-3
-1.644, 1.289e-3
-1.643, 1.270e-3
-1.642, 1.249e-3
-1.641, 1.233e-3
-1.640, 1.215e-3
-1.639, 1.196e-3
-1.638, 1.181e-3
-1.637, 1.166e-3
-1.636, 1.147e-3
-1.635, 1.129e-3
-1.634, 1.113e-3
-1.633, 1.098e-3
-1.632, 1.079e-3
-1.631, 1.067e-3
-1.630, 1.048e-3
-1.629, 1.030e-3
-1.628, 1.018e-3
-1.627, 1.002e-3
-1.626, 9.868e-4
-1.625, 9.713e-4
-1.624, 9.559e-4
-1.623, 9.405e-4
-1.622, 9.282e-4
-1.621, 9.128e-4
-1.620, 9.004e-4
-1.619, 8.850e-4
-1.618, 8.727e-4
-1.617, 8.542e-4
-1.616, 8.388e-4
-1.615, 8.264e-4
-1.614, 8.141e-4
-1.613, 8.018e-4
-1.612, 7.863e-4
-1.611, 7.740e-4
-1.610, 7.617e-4
-1.609, 7.463e-4
-1.608, 7.370e-4
-1.607, 7.247e-4
-1.606, 7.124e-4
-1.605, 7.000e-4
-1.604, 6.846e-4
-1.603, 6.754e-4
-1.602, 6.630e-4
-1.601, 6.507e-4
-1.600, 6.384e-4
-1.599, 6.291e-4
-1.598, 6.199e-4
-1.597, 6.075e-4
-1.596, 5.952e-4
-1.595, 5.859e-4
-1.594, 5.736e-4
-1.593, 5.644e-4
-1.592, 5.520e-4
-1.591, 5.397e-4
-1.590, 5.335e-4
-1.589, 5.212e-4
-1.588, 5.120e-4
-1.587, 5.027e-4
-1.586, 4.935e-4
-1.585, 4.842e-4
-1.584, 4.719e-4
-1.583, 4.626e-4
-1.582, 4.534e-4
-1.581, 4.472e-4
-1.580, 4.380e-4
-1.579, 4.287e-4
-1.578, 4.195e-4
-1.577, 4.102e-4
-1.576, 4.010e-4
-1.575, 3.948e-4
-1.574, 3.855e-4
-1.573, 3.794e-4
-1.572, 3.701e-4
-1.571, 3.609e-4
-1.570, 3.547e-4
-1.569, 3.455e-4
-1.568, 3.393e-4
-1.567, 3.331e-4
-1.566, 3.239e-4
-1.565, 3.177e-4
-1.564, 3.085e-4
-1.563, 3.054e-4
-1.562, 2.961e-4
-1.561, 2.900e-4
-1.560, 2.838e-4
-1.559, 2.746e-4
-1.558, 2.684e-4
-1.557, 2.622e-4
-1.556, 2.561e-4
-1.555, 2.499e-4
-1.554, 2.437e-4
-1.553, 2.406e-4
-1.552, 2.345e-4
-1.551, 2.252e-4
-1.550, 2.221e-4
-1.549, 2.160e-4
-1.548, 2.098e-4
-1.547, 2.067e-4
-1.546, 1.975e-4
-1.545, 1.944e-4
-1.544, 1.882e-4
-1.543, 1.851e-4
-1.542, 1.790e-4
-1.541, 1.728e-4
-1.540, 1.697e-4
-1.539, 1.636e-4
-1.538, 1.605e-4
-1.537, 1.543e-4
-1.536, 1.481e-4
-1.535, 1.451e-4
-1.534, 1.389e-4
-1.533, 1.358e-4
-1.532, 1.327e-4
-1.531, 1.266e-4
-1.530, 1.266e-4
-1.529, 1.204e-4
-1.528, 1.173e-4
-1.527, 1.111e-4
-1.526, 1.081e-4
-1.525, 1.050e-4
-1.524, 1.019e-4
-1.523, 9.882e-5
-1.522, 9.265e-5
-1.521, 8.957e-5
-1.520, 8.648e-5
-1.519, 8.340e-5
-1.518, 8.032e-5
-1.517, 7.723e-5
-1.516, 7.107e-5
-1.515, 7.107e-5
-1.514, 6.490e-5
-1.513, 6.490e-5
-1.512, 6.182e-5
-1.511, 5.565e-5
-1.510, 5.565e-5
-1.509, 4.949e-5
-1.508, 4.640e-5
-1.507, 4.332e-5
-1.506, 4.332e-5
-1.505, 4.024e-5
-1.504, 3.715e-5
-1.503, 3.407e-5
-1.502, 3.099e-5
-1.501, 2.790e-5
-1.500, 2.482e-5
-1.499, 2.174e-5
-1.498, 2.174e-5
-1.497, 1.865e-5
-1.496, 1.557e-5
-1.495, 1.249e-5
-1.494, 9.405e-6
-1.493, 6.322e-6
-1.492, 3.239e-6
-1.491, 1.559e-7
-1.490, 1.559e-7
-1.489, -2.927e-6
-1.488, -2.927e-6
-1.487, -6.010e-6
-1.486, -9.093e-6
-1.485, -1.218e-5
-1.484, -1.526e-5
-1.483, -1.526e-5
-1.482, -1.834e-5
-1.481, -2.143e-5
-1.480, -2.143e-5
-1.479, -2.451e-5
-1.478, -2.451e-5
-1.477, -2.759e-5
-1.476, -3.068e-5
-1.475, -3.376e-5
-1.474, -3.376e-5
-1.473, -3.684e-5
-1.472, -3.684e-5
-1.471, -3.992e-5
-1.470, -3.992e-5
-1.469, -4.301e-5
-1.468, -4.609e-5
-1.467, -4.609e-5
-1.466, -4.609e-5
-1.465, -4.917e-5
-1.464, -4.917e-5
-1.463, -5.226e-5
-1.462, -5.226e-5
-1.461, -5.534e-5
-1.460, -5.534e-5
-1.459, -5.842e-5
-1.458, -5.842e-5
-1.457, -6.151e-5
-1.456, -6.151e-5
-1.455, -6.151e-5
-1.454, -6.459e-5
-1.453, -6.459e-5
-1.452, -6.767e-5
-1.451, -7.076e-5
-1.450, -7.076e-5
-1.449, -7.076e-5
-1.448, -7.076e-5
-1.447, -7.076e-5
-1.446, -7.692e-5
-1.445, -7.384e-5
-1.444, -7.692e-5
-1.443, -7.692e-5
-1.442, -8.000e-5
-1.441, -8.000e-5
-1.440, -8.309e-5
-1.439, -8.309e-5
-1.438, -8.309e-5
-1.437, -8.309e-5
-1.436, -8.617e-5
-1.435, -8.617e-5
-1.434, -8.925e-5
-1.433, -9.234e-5
-1.432, -8.925e-5
-1.431, -9.234e-5
-1.430, -9.234e-5
-1.429, -9.234e-5
-1.428, -9.542e-5
-1.427, -9.542e-5
-1.426, -9.850e-5
-1.425, -9.850e-5
-1.424, -9.850e-5
-1.423, -1.016e-4
-1.422, -1.016e-4
-1.421, -1.016e-4
-1.420, -1.016e-4
-1.419, -1.016e-4
-1.418, -1.047e-4
-1.417, -1.047e-4
-1.416, -1.078e-4
-1.415, -1.078e-4
-1.414, -1.078e-4
-1.413, -1.078e-4
-1.412, -1.078e-4
-1.411, -1.108e-4
-1.410, -1.108e-4
-1.409, -1.139e-4
-1.408, -1.139e-4
-1.407, -1.139e-4
-1.406, -1.170e-4
-1.405, -1.170e-4
-1.404, -1.170e-4
-1.403, -1.170e-4
-1.402, -1.201e-4
-1.401, -1.201e-4
-1.400, -1.201e-4
-1.399, -1.232e-4
-1.398, -1.232e-4
-1.397, -1.232e-4
-1.396, -1.263e-4
-1.395, -1.232e-4
-1.394, -1.263e-4
-1.393, -1.293e-4
-1.392, -1.263e-4
-1.391, -1.293e-4
-1.390, -1.293e-4
-1.389, -1.293e-4
-1.388, -1.324e-4
-1.387, -1.293e-4
-1.386, -1.324e-4
-1.385, -1.324e-4
-1.384, -1.355e-4
-1.383, -1.355e-4
-1.382, -1.355e-4
-1.381, -1.386e-4
-1.380, -1.386e-4
-1.379, -1.386e-4
-1.378, -1.386e-4
-1.377, -1.417e-4
-1.376, -1.417e-4
-1.375, -1.448e-4
-1.374, -1.417e-4
-1.373, -1.448e-4
-1.372, -1.448e-4
-1.371, -1.448e-4
-1.370, -1.448e-4
-1.369, -1.448e-4
-1.368, -1.478e-4
-1.367, -1.478e-4
-1.366, -1.509e-4
-1.365, -1.509e-4
-1.364, -1.509e-4
-1.363, -1.509e-4
-1.362, -1.509e-4
-1.361, -1.509e-4
-1.360, -1.540e-4
-1.359, -1.540e-4
-1.358, -1.571e-4
-1.357, -1.540e-4
-1.356, -1.571e-4
-1.355, -1.571e-4
-1.354, -1.571e-4
-1.353, -1.571e-4
-1.352, -1.571e-4
-1.351, -1.602e-4
-1.350, -1.602e-4
-1.349, -1.602e-4
-1.348, -1.602e-4
-1.347, -1.602e-4
-1.346, -1.632e-4
-1.345, -1.632e-4
-1.344, -1.632e-4
-1.343, -1.663e-4
-1.342, -1.632e-4
-1.341, -1.663e-4
-1.340, -1.663e-4
-1.339, -1.663e-4
-1.338, -1.663e-4
-1.337, -1.663e-4
-1.336, -1.663e-4
-1.335, -1.663e-4
-1.334, -1.694e-4
-1.333, -1.694e-4
-1.332, -1.694e-4
-1.331, -1.694e-4
-1.330, -1.694e-4
-1.329, -1.694e-4
-1.328, -1.694e-4
-1.327, -1.725e-4
-1.326, -1.725e-4
-1.325, -1.725e-4
-1.324, -1.725e-4
-1.323, -1.725e-4
-1.322, -1.725e-4
-1.321, -1.756e-4
-1.320, -1.725e-4
-1.319, -1.725e-4
-1.318, -1.756e-4
-1.317, -1.756e-4
-1.316, -1.756e-4
-1.315, -1.787e-4
-1.314, -1.756e-4
-1.313, -1.756e-4
-1.312, -1.787e-4
-1.311, -1.756e-4
-1.310, -1.787e-4
-1.309, -1.787e-4
-1.308, -1.817e-4
-1.307, -1.787e-4
-1.306, -1.787e-4
-1.305, -1.787e-4
-1.304, -1.817e-4
-1.303, -1.787e-4
-1.302, -1.817e-4
-1.301, -1.817e-4
-1.300, -1.817e-4
-1.299, -1.817e-4
-1.298, -1.817e-4
-1.297, -1.817e-4
-1.296, -1.817e-4
-1.295, -1.817e-4
-1.294, -1.848e-4
-1.293, -1.848e-4
-1.292, -1.848e-4
-1.291, -1.848e-4
-1.290, -1.848e-4
-1.289, -1.848e-4
-1.288, -1.848e-4
-1.287, -1.848e-4
-1.286, -1.848e-4
-1.285, -1.879e-4
-1.284, -1.879e-4
-1.283, -1.879e-4
-1.282, -1.879e-4
-1.281, -1.879e-4
-1.280, -1.879e-4
-1.279, -1.879e-4
-1.278, -1.879e-4
-1.277, -1.910e-4
-1.276, -1.910e-4
-1.275, -1.910e-4
-1.274, -1.910e-4
-1.273, -1.910e-4
-1.272, -1.910e-4
-1.271, -1.910e-4
-1.270, -1.910e-4
-1.269, -1.910e-4
-1.268, -1.910e-4
-1.267, -1.941e-4
-1.266, -1.910e-4
-1.265, -1.941e-4
-1.264, -1.910e-4
-1.263, -1.941e-4
-1.262, -1.941e-4
-1.261, -1.910e-4
-1.260, -1.941e-4
-1.259, -1.941e-4
-1.258, -1.972e-4
-1.257, -1.972e-4
-1.256, -1.941e-4
-1.255, -1.941e-4
-1.254, -1.941e-4
-1.253, -1.941e-4
-1.252, -1.972e-4
-1.251, -1.972e-4
-1.250, -1.972e-4
-1.249, -1.972e-4
-1.248, -1.972e-4
-1.247, -1.972e-4
-1.246, -1.972e-4
-1.245, -1.972e-4
-1.244, -2.002e-4
-1.243, -1.972e-4
-1.242, -2.002e-4
-1.241, -2.002e-4
-1.240, -2.002e-4
-1.239, -2.002e-4
-1.238, -2.002e-4
-1.237, -2.002e-4
-1.236, -2.002e-4
-1.235, -2.002e-4
-1.234, -2.002e-4
-1.233, -2.002e-4
-1.232, -2.033e-4
-1.231, -2.033e-4
-1.230, -2.033e-4
-1.229, -2.033e-4
-1.228, -2.033e-4
-1.227, -2.033e-4
-1.226, -2.033e-4
-1.225, -2.064e-4
-1.224, -2.033e-4
-1.223, -2.033e-4
-1.222, -2.064e-4
-1.221, -2.033e-4
-1.220, -2.033e-4
-1.219, -2.064e-4
-1.218, -2.064e-4
-1.217, -2.064e-4
-1.216, -2.064e-4
-1.215, -2.064e-4
-1.214, -2.064e-4
-1.213, -2.064e-4
-1.212, -2.064e-4
-1.211, -2.064e-4
-1.210, -2.095e-4
-1.209, -2.064e-4
-1.208, -2.095e-4
-1.207, -2.095e-4
-1.206, -2.095e-4
-1.205, -2.095e-4
-1.204, -2.095e-4
-1.203, -2.064e-4
-1.202, -2.095e-4
-1.201, -2.095e-4
-1.200, -2.126e-4
-1.199, -2.126e-4
-1.198, -2.095e-4
-1.197, -2.126e-4
-1.196, -2.095e-4
-1.195, -2.126e-4
-1.194, -2.126e-4
-1.193, -2.095e-4
-1.192, -2.126e-4
-1.191, -2.126e-4
-1.190, -2.126e-4
-1.189, -2.126e-4
-1.188, -2.126e-4
-1.187, -2.126e-4
-1.186, -2.126e-4
-1.185, -2.126e-4
-1.184, -2.126e-4
-1.183, -2.157e-4
-1.182, -2.157e-4
-1.181, -2.157e-4
-1.180, -2.157e-4
-1.179, -2.157e-4
-1.178, -2.126e-4
-1.177, -2.157e-4
-1.176, -2.157e-4
-1.175, -2.187e-4
-1.174, -2.157e-4
-1.173, -2.157e-4
-1.172, -2.187e-4
-1.171, -2.157e-4
-1.170, -2.157e-4
-1.169, -2.187e-4
-1.168, -2.187e-4
-1.167, -2.187e-4
-1.166, -2.187e-4
-1.165, -2.187e-4
-1.164, -2.187e-4
-1.163, -2.187e-4
-1.162, -2.187e-4
-1.161, -2.187e-4
-1.160, -2.187e-4
-1.159, -2.218e-4
-1.158, -2.218e-4
-1.157, -2.218e-4
-1.156, -2.218e-4
-1.155, -2.218e-4
-1.154, -2.218e-4
-1.153, -2.218e-4
-1.152, -2.249e-4
-1.151, -2.249e-4
-1.150, -2.249e-4
-1.149, -2.249e-4
-1.148, -2.249e-4
-1.147, -2.280e-4
-1.146, -2.249e-4
-1.145, -2.249e-4
-1.144, -2.280e-4
-1.143, -2.249e-4
-1.142, -2.280e-4
-1.141, -2.249e-4
-1.140, -2.280e-4
-1.139, -2.280e-4
-1.138, -2.249e-4
-1.137, -2.280e-4
-1.136, -2.280e-4
-1.135, -2.280e-4
-1.134, -2.311e-4
-1.133, -2.280e-4
-1.132, -2.311e-4
-1.131, -2.280e-4
-1.130, -2.280e-4
-1.129, -2.311e-4
-1.128, -2.280e-4
-1.127, -2.311e-4
-1.126, -2.311e-4
-1.125, -2.311e-4
-1.124, -2.342e-4
-1.123, -2.311e-4
-1.122, -2.311e-4
-1.121, -2.311e-4
-1.120, -2.311e-4
-1.119, -2.342e-4
-1.118, -2.342e-4
-1.117, -2.342e-4
-1.116, -2.342e-4
-1.115, -2.342e-4
-1.114, -2.372e-4
-1.113, -2.372e-4
-1.112, -2.342e-4
-1.111, -2.342e-4
-1.110, -2.372e-4
-1.109, -2.372e-4
-1.108, -2.372e-4
-1.107, -2.403e-4
-1.106, -2.403e-4
-1.105, -2.372e-4
-1.104, -2.403e-4
-1.103, -2.372e-4
-1.102, -2.403e-4
-1.101, -2.434e-4
-1.100, -2.403e-4
-1.099, -2.434e-4
-1.098, -2.403e-4
-1.097, -2.434e-4
-1.096, -2.403e-4
-1.095, -2.434e-4
-1.094, -2.465e-4
-1.093, -2.434e-4
-1.092, -2.465e-4
-1.091, -2.465e-4
-1.090, -2.465e-4
-1.089, -2.465e-4
-1.088, -2.465e-4
-1.087, -2.465e-4
-1.086, -2.465e-4
-1.085, -2.465e-4
-1.084, -2.496e-4
-1.083, -2.496e-4
-1.082, -2.496e-4
-1.081, -2.496e-4
-1.080, -2.496e-4
-1.079, -2.496e-4
-1.078, -2.496e-4
-1.077, -2.527e-4
-1.076, -2.527e-4
-1.075, -2.527e-4
-1.074, -2.527e-4
-1.073, -2.527e-4
-1.072, -2.557e-4
-1.071, -2.527e-4
-1.070, -2.527e-4
-1.069, -2.557e-4
-1.068, -2.557e-4
-1.067, -2.557e-4
-1.066, -2.557e-4
-1.065, -2.557e-4
-1.064, -2.588e-4
-1.063, -2.588e-4
-1.062, -2.588e-4
-1.061, -2.588e-4
-1.060, -2.588e-4
-1.059, -2.619e-4
-1.058, -2.619e-4
-1.057, -2.619e-4
-1.056, -2.619e-4
-1.055, -2.619e-4
-1.054, -2.650e-4
-1.053, -2.619e-4
-1.052, -2.650e-4
-1.051, -2.650e-4
-1.050, -2.650e-4
-1.049, -2.681e-4
-1.048, -2.650e-4
-1.047, -2.681e-4
-1.046, -2.650e-4
-1.045, -2.650e-4
-1.044, -2.681e-4
-1.043, -2.681e-4
-1.042, -2.681e-4
-1.041, -2.712e-4
-1.040, -2.712e-4
-1.039, -2.712e-4
-1.038, -2.712e-4
-1.037, -2.712e-4
-1.036, -2.742e-4
-1.035, -2.742e-4
-1.034, -2.773e-4
-1.033, -2.742e-4
-1.032, -2.773e-4
-1.031, -2.773e-4
-1.030, -2.773e-4
-1.029, -2.773e-4
-1.028, -2.773e-4
-1.027, -2.804e-4
-1.026, -2.804e-4
-1.025, -2.804e-4
-1.024, -2.835e-4
-1.023, -2.804e-4
-1.022, -2.835e-4
-1.021, -2.835e-4
-1.020, -2.835e-4
-1.019, -2.866e-4
-1.018, -2.866e-4
-1.017, -2.866e-4
-1.016, -2.897e-4
-1.015, -2.866e-4
-1.014, -2.897e-4
-1.013, -2.897e-4
-1.012, -2.897e-4
-1.011, -2.927e-4
-1.010, -2.897e-4
-1.009, -2.958e-4
-1.008, -2.927e-4
-1.007, -2.927e-4
-1.006, -2.958e-4
-1.005, -2.927e-4
-1.004, -2.958e-4
-1.003, -2.958e-4
-1.002, -2.989e-4
-1.001, -2.989e-4
