Aug. 20, 2024   06:00:35
Cyclic Voltammetry
File: c:/users/guazh/data/20240813_batch_94_500/2024-08-15-exp138\exp138-2024-08-20t05_38_31-h2koh\exp138_cv_sr_100mvs_efin_-1800mv.bin
Data Source:  Experiment
Instrument Model:  CHI760E
Header: CV ran at 100 mVs
Note: 

Init E (V) = -1
High E (V) = -1
Low E (V) = -1.8
Final E (V) = -1
Init P/N = N
Scan Rate (V/s) = 0.1
Segment = 3
Sample Interval (V) = 0.001
Quiet Time (sec) = 2
Sensitivity (A/V) = 0.01
Comp R (ohm) = 1.8

Results:

Channel 1:
Segment 1:

Segment 2:

Segment 3:

Potential/V, Current/A

-1.000, -2.510e-5
-1.001, -1.624e-5
-1.002, -1.297e-5
-1.003, -1.114e-5
-1.004, -9.217e-6
-1.005, -8.349e-6
-1.006, -6.908e-6
-1.007, -5.823e-6
-1.008, -5.280e-6
-1.009, -3.929e-6
-1.010, -3.514e-6
-1.011, -2.399e-6
-1.012, -1.807e-6
-1.013, -1.117e-6
-1.014, -2.289e-7
-1.015, 5.722e-8
-1.016, 9.550e-7
-1.017, 1.498e-6
-1.018, 1.784e-6
-1.019, 2.691e-6
-1.020, 2.869e-6
-1.021, 3.747e-6
-1.022, 4.023e-6
-1.023, 4.408e-6
-1.024, 5.533e-6
-1.025, 5.355e-6
-1.026, 6.381e-6
-1.027, 6.480e-6
-1.028, 7.013e-6
-1.029, 7.713e-6
-1.030, 7.654e-6
-1.031, 8.512e-6
-1.032, 8.641e-6
-1.033, 8.966e-6
-1.034, 9.815e-6
-1.035, 9.578e-6
-1.036, 1.042e-5
-1.037, 1.079e-5
-1.038, 1.086e-5
-1.039, 1.156e-5
-1.040, 1.149e-5
-1.041, 1.244e-5
-1.042, 1.271e-5
-1.043, 1.281e-5
-1.044, 1.361e-5
-1.045, 1.334e-5
-1.046, 1.404e-5
-1.047, 1.445e-5
-1.048, 1.449e-5
-1.049, 1.513e-5
-1.050, 1.524e-5
-1.051, 1.598e-5
-1.052, 1.615e-5
-1.053, 1.636e-5
-1.054, 1.698e-5
-1.055, 1.691e-5
-1.056, 1.751e-5
-1.057, 1.788e-5
-1.058, 1.780e-5
-1.059, 1.846e-5
-1.060, 1.827e-5
-1.061, 1.903e-5
-1.062, 1.902e-5
-1.063, 1.936e-5
-1.064, 1.980e-5
-1.065, 1.976e-5
-1.066, 2.049e-5
-1.067, 2.066e-5
-1.068, 2.084e-5
-1.069, 2.135e-5
-1.070, 2.122e-5
-1.071, 2.201e-5
-1.072, 2.195e-5
-1.073, 2.231e-5
-1.074, 2.285e-5
-1.075, 2.282e-5
-1.076, 2.343e-5
-1.077, 2.344e-5
-1.078, 2.356e-5
-1.079, 2.405e-5
-1.080, 2.380e-5
-1.081, 2.455e-5
-1.082, 2.468e-5
-1.083, 2.473e-5
-1.084, 2.530e-5
-1.085, 2.502e-5
-1.086, 2.574e-5
-1.087, 2.584e-5
-1.088, 2.607e-5
-1.089, 2.661e-5
-1.090, 2.631e-5
-1.091, 2.708e-5
-1.092, 2.715e-5
-1.093, 2.713e-5
-1.094, 2.769e-5
-1.095, 2.760e-5
-1.096, 2.815e-5
-1.097, 2.820e-5
-1.098, 2.832e-5
-1.099, 2.899e-5
-1.100, 2.872e-5
-1.101, 2.949e-5
-1.102, 2.934e-5
-1.103, 2.964e-5
-1.104, 3.010e-5
-1.105, 2.988e-5
-1.106, 3.050e-5
-1.107, 3.073e-5
-1.108, 3.053e-5
-1.109, 3.131e-5
-1.110, 3.106e-5
-1.111, 3.161e-5
-1.112, 3.189e-5
-1.113, 3.183e-5
-1.114, 3.243e-5
-1.115, 3.225e-5
-1.116, 3.289e-5
-1.117, 3.298e-5
-1.118, 3.292e-5
-1.119, 3.358e-5
-1.120, 3.332e-5
-1.121, 3.405e-5
-1.122, 3.412e-5
-1.123, 3.413e-5
-1.124, 3.479e-5
-1.125, 3.451e-5
-1.126, 3.507e-5
-1.127, 3.524e-5
-1.128, 3.512e-5
-1.129, 3.576e-5
-1.130, 3.578e-5
-1.131, 3.611e-5
-1.132, 3.647e-5
-1.133, 3.628e-5
-1.134, 3.684e-5
-1.135, 3.668e-5
-1.136, 3.720e-5
-1.137, 3.746e-5
-1.138, 3.739e-5
-1.139, 3.804e-5
-1.140, 3.793e-5
-1.141, 3.834e-5
-1.142, 3.843e-5
-1.143, 3.866e-5
-1.144, 3.895e-5
-1.145, 3.882e-5
-1.146, 3.948e-5
-1.147, 3.951e-5
-1.148, 3.961e-5
-1.149, 4.019e-5
-1.150, 3.978e-5
-1.151, 4.075e-5
-1.152, 4.070e-5
-1.153, 4.068e-5
-1.154, 4.132e-5
-1.155, 4.096e-5
-1.156, 4.164e-5
-1.157, 4.170e-5
-1.158, 4.153e-5
-1.159, 4.216e-5
-1.160, 4.197e-5
-1.161, 4.259e-5
-1.162, 4.278e-5
-1.163, 4.265e-5
-1.164, 4.322e-5
-1.165, 4.316e-5
-1.166, 4.365e-5
-1.167, 4.397e-5
-1.168, 4.355e-5
-1.169, 4.434e-5
-1.170, 4.406e-5
-1.171, 4.471e-5
-1.172, 4.484e-5
-1.173, 4.494e-5
-1.174, 4.546e-5
-1.175, 4.503e-5
-1.176, 4.574e-5
-1.177, 4.594e-5
-1.178, 4.612e-5
-1.179, 4.641e-5
-1.180, 4.625e-5
-1.181, 4.671e-5
-1.182, 4.695e-5
-1.183, 4.699e-5
-1.184, 4.748e-5
-1.185, 4.715e-5
-1.186, 4.786e-5
-1.187, 4.776e-5
-1.188, 4.791e-5
-1.189, 4.845e-5
-1.190, 4.822e-5
-1.191, 4.887e-5
-1.192, 4.898e-5
-1.193, 4.895e-5
-1.194, 4.969e-5
-1.195, 4.915e-5
-1.196, 4.992e-5
-1.197, 5.002e-5
-1.198, 4.998e-5
-1.199, 5.060e-5
-1.200, 5.019e-5
-1.201, 5.109e-5
-1.202, 5.114e-5
-1.203, 5.104e-5
-1.204, 5.171e-5
-1.205, 5.128e-5
-1.206, 5.192e-5
-1.207, 5.216e-5
-1.208, 5.202e-5
-1.209, 5.264e-5
-1.210, 5.236e-5
-1.211, 5.309e-5
-1.212, 5.305e-5
-1.213, 5.313e-5
-1.214, 5.372e-5
-1.215, 5.363e-5
-1.216, 5.412e-5
-1.217, 5.431e-5
-1.218, 5.442e-5
-1.219, 5.490e-5
-1.220, 5.474e-5
-1.221, 5.517e-5
-1.222, 5.524e-5
-1.223, 5.542e-5
-1.224, 5.584e-5
-1.225, 5.560e-5
-1.226, 5.627e-5
-1.227, 5.632e-5
-1.228, 5.646e-5
-1.229, 5.746e-5
-1.230, 5.690e-5
-1.231, 5.746e-5
-1.232, 5.749e-5
-1.233, 5.753e-5
-1.234, 5.819e-5
-1.235, 5.796e-5
-1.236, 5.864e-5
-1.237, 5.853e-5
-1.238, 5.856e-5
-1.239, 5.919e-5
-1.240, 5.890e-5
-1.241, 5.946e-5
-1.242, 5.966e-5
-1.243, 5.955e-5
-1.244, 6.040e-5
-1.245, 6.028e-5
-1.246, 6.067e-5
-1.247, 6.072e-5
-1.248, 6.081e-5
-1.249, 6.148e-5
-1.250, 6.120e-5
-1.251, 6.176e-5
-1.252, 6.196e-5
-1.253, 6.184e-5
-1.254, 6.261e-5
-1.255, 6.244e-5
-1.256, 6.279e-5
-1.257, 6.301e-5
-1.258, 6.311e-5
-1.259, 6.359e-5
-1.260, 6.348e-5
-1.261, 6.400e-5
-1.262, 6.416e-5
-1.263, 6.414e-5
-1.264, 6.467e-5
-1.265, 6.448e-5
-1.266, 6.519e-5
-1.267, 6.526e-5
-1.268, 6.521e-5
-1.269, 6.572e-5
-1.270, 6.554e-5
-1.271, 6.622e-5
-1.272, 6.626e-5
-1.273, 6.649e-5
-1.274, 6.704e-5
-1.275, 6.679e-5
-1.276, 6.747e-5
-1.277, 6.756e-5
-1.278, 6.749e-5
-1.279, 6.822e-5
-1.280, 6.812e-5
-1.281, 6.874e-5
-1.282, 6.880e-5
-1.283, 6.867e-5
-1.284, 6.951e-5
-1.285, 6.914e-5
-1.286, 6.994e-5
-1.287, 7.007e-5
-1.288, 7.003e-5
-1.289, 7.066e-5
-1.290, 7.032e-5
-1.291, 7.083e-5
-1.292, 7.109e-5
-1.293, 7.122e-5
-1.294, 7.158e-5
-1.295, 7.147e-5
-1.296, 7.217e-5
-1.297, 7.219e-5
-1.298, 7.236e-5
-1.299, 7.284e-5
-1.300, 7.282e-5
-1.301, 7.330e-5
-1.302, 7.346e-5
-1.303, 7.363e-5
-1.304, 7.402e-5
-1.305, 7.385e-5
-1.306, 7.464e-5
-1.307, 7.464e-5
-1.308, 7.490e-5
-1.309, 7.524e-5
-1.310, 7.501e-5
-1.311, 7.562e-5
-1.312, 7.582e-5
-1.313, 7.597e-5
-1.314, 7.651e-5
-1.315, 7.612e-5
-1.316, 7.691e-5
-1.317, 7.700e-5
-1.318, 7.719e-5
-1.319, 7.789e-5
-1.320, 7.749e-5
-1.321, 7.830e-5
-1.322, 7.829e-5
-1.323, 7.822e-5
-1.324, 7.885e-5
-1.325, 7.842e-5
-1.326, 7.913e-5
-1.327, 7.936e-5
-1.328, 7.929e-5
-1.329, 8.009e-5
-1.330, 7.976e-5
-1.331, 8.038e-5
-1.332, 8.055e-5
-1.333, 8.045e-5
-1.334, 8.097e-5
-1.335, 8.083e-5
-1.336, 8.140e-5
-1.337, 8.162e-5
-1.338, 8.164e-5
-1.339, 8.233e-5
-1.340, 8.210e-5
-1.341, 8.259e-5
-1.342, 8.246e-5
-1.343, 8.281e-5
-1.344, 8.326e-5
-1.345, 8.316e-5
-1.346, 8.387e-5
-1.347, 8.388e-5
-1.348, 8.379e-5
-1.349, 8.428e-5
-1.350, 8.410e-5
-1.351, 8.485e-5
-1.352, 8.494e-5
-1.353, 8.495e-5
-1.354, 8.567e-5
-1.355, 8.517e-5
-1.356, 8.599e-5
-1.357, 8.617e-5
-1.358, 8.627e-5
-1.359, 8.687e-5
-1.360, 8.634e-5
-1.361, 8.707e-5
-1.362, 8.711e-5
-1.363, 8.702e-5
-1.364, 8.776e-5
-1.365, 8.730e-5
-1.366, 8.799e-5
-1.367, 8.836e-5
-1.368, 8.822e-5
-1.369, 8.882e-5
-1.370, 8.862e-5
-1.371, 8.916e-5
-1.372, 8.937e-5
-1.373, 8.932e-5
-1.374, 8.997e-5
-1.375, 8.966e-5
-1.376, 9.049e-5
-1.377, 9.064e-5
-1.378, 9.085e-5
-1.379, 9.120e-5
-1.380, 9.100e-5
-1.381, 9.172e-5
-1.382, 9.214e-5
-1.383, 9.221e-5
-1.384, 9.273e-5
-1.385, 9.243e-5
-1.386, 9.315e-5
-1.387, 9.296e-5
-1.388, 9.344e-5
-1.389, 9.393e-5
-1.390, 9.376e-5
-1.391, 9.463e-5
-1.392, 9.452e-5
-1.393, 9.476e-5
-1.394, 9.541e-5
-1.395, 9.524e-5
-1.396, 9.590e-5
-1.397, 9.602e-5
-1.398, 9.599e-5
-1.399, 9.681e-5
-1.400, 9.656e-5
-1.401, 9.739e-5
-1.402, 9.774e-5
-1.403, 9.770e-5
-1.404, 9.843e-5
-1.405, 9.838e-5
-1.406, 9.889e-5
-1.407, 9.942e-5
-1.408, 9.950e-5
-1.409, 1.004e-4
-1.410, 1.002e-4
-1.411, 1.008e-4
-1.412, 1.013e-4
-1.413, 1.013e-4
-1.414, 1.021e-4
-1.415, 1.020e-4
-1.416, 1.027e-4
-1.417, 1.030e-4
-1.418, 1.033e-4
-1.419, 1.040e-4
-1.420, 1.040e-4
-1.421, 1.049e-4
-1.422, 1.052e-4
-1.423, 1.054e-4
-1.424, 1.062e-4
-1.425, 1.062e-4
-1.426, 1.070e-4
-1.427, 1.075e-4
-1.428, 1.077e-4
-1.429, 1.087e-4
-1.430, 1.084e-4
-1.431, 1.093e-4
-1.432, 1.098e-4
-1.433, 1.102e-4
-1.434, 1.113e-4
-1.435, 1.111e-4
-1.436, 1.122e-4
-1.437, 1.124e-4
-1.438, 1.125e-4
-1.439, 1.136e-4
-1.440, 1.137e-4
-1.441, 1.146e-4
-1.442, 1.153e-4
-1.443, 1.154e-4
-1.444, 1.167e-4
-1.445, 1.165e-4
-1.446, 1.177e-4
-1.447, 1.186e-4
-1.448, 1.187e-4
-1.449, 1.198e-4
-1.450, 1.199e-4
-1.451, 1.210e-4
-1.452, 1.217e-4
-1.453, 1.221e-4
-1.454, 1.232e-4
-1.455, 1.235e-4
-1.456, 1.245e-4
-1.457, 1.252e-4
-1.458, 1.259e-4
-1.459, 1.269e-4
-1.460, 1.273e-4
-1.461, 1.285e-4
-1.462, 1.292e-4
-1.463, 1.301e-4
-1.464, 1.309e-4
-1.465, 1.315e-4
-1.466, 1.328e-4
-1.467, 1.333e-4
-1.468, 1.343e-4
-1.469, 1.356e-4
-1.470, 1.360e-4
-1.471, 1.375e-4
-1.472, 1.384e-4
-1.473, 1.392e-4
-1.474, 1.403e-4
-1.475, 1.409e-4
-1.476, 1.425e-4
-1.477, 1.431e-4
-1.478, 1.440e-4
-1.479, 1.455e-4
-1.480, 1.462e-4
-1.481, 1.476e-4
-1.482, 1.487e-4
-1.483, 1.496e-4
-1.484, 1.515e-4
-1.485, 1.523e-4
-1.486, 1.537e-4
-1.487, 1.549e-4
-1.488, 1.559e-4
-1.489, 1.577e-4
-1.490, 1.581e-4
-1.491, 1.601e-4
-1.492, 1.614e-4
-1.493, 1.623e-4
-1.494, 1.643e-4
-1.495, 1.650e-4
-1.496, 1.669e-4
-1.497, 1.685e-4
-1.498, 1.695e-4
-1.499, 1.714e-4
-1.500, 1.724e-4
-1.501, 1.744e-4
-1.502, 1.763e-4
-1.503, 1.777e-4
-1.504, 1.793e-4
-1.505, 1.806e-4
-1.506, 1.827e-4
-1.507, 1.843e-4
-1.508, 1.862e-4
-1.509, 1.879e-4
-1.510, 1.893e-4
-1.511, 1.919e-4
-1.512, 1.935e-4
-1.513, 1.952e-4
-1.514, 1.976e-4
-1.515, 1.990e-4
-1.516, 2.016e-4
-1.517, 2.035e-4
-1.518, 2.053e-4
-1.519, 2.078e-4
-1.520, 2.093e-4
-1.521, 2.120e-4
-1.522, 2.142e-4
-1.523, 2.163e-4
-1.524, 2.191e-4
-1.525, 2.205e-4
-1.526, 2.236e-4
-1.527, 2.258e-4
-1.528, 2.280e-4
-1.529, 2.311e-4
-1.530, 2.333e-4
-1.531, 2.362e-4
-1.532, 2.390e-4
-1.533, 2.414e-4
-1.534, 2.444e-4
-1.535, 2.467e-4
-1.536, 2.500e-4
-1.537, 2.529e-4
-1.538, 2.556e-4
-1.539, 2.589e-4
-1.540, 2.615e-4
-1.541, 2.648e-4
-1.542, 2.681e-4
-1.543, 2.713e-4
-1.544, 2.745e-4
-1.545, 2.771e-4
-1.546, 2.813e-4
-1.547, 2.843e-4
-1.548, 2.874e-4
-1.549, 2.913e-4
-1.550, 2.945e-4
-1.551, 2.990e-4
-1.552, 3.026e-4
-1.553, 3.061e-4
-1.554, 3.101e-4
-1.555, 3.130e-4
-1.556, 3.172e-4
-1.557, 3.215e-4
-1.558, 3.254e-4
-1.559, 3.300e-4
-1.560, 3.337e-4
-1.561, 3.383e-4
-1.562, 3.426e-4
-1.563, 3.464e-4
-1.564, 3.513e-4
-1.565, 3.549e-4
-1.566, 3.595e-4
-1.567, 3.644e-4
-1.568, 3.693e-4
-1.569, 3.747e-4
-1.570, 3.791e-4
-1.571, 3.846e-4
-1.572, 3.893e-4
-1.573, 3.941e-4
-1.574, 4.002e-4
-1.575, 4.056e-4
-1.576, 4.113e-4
-1.577, 4.166e-4
-1.578, 4.222e-4
-1.579, 4.285e-4
-1.580, 4.337e-4
-1.581, 4.403e-4
-1.582, 4.462e-4
-1.583, 4.525e-4
-1.584, 4.590e-4
-1.585, 4.655e-4
-1.586, 4.725e-4
-1.587, 4.799e-4
-1.588, 4.860e-4
-1.589, 4.934e-4
-1.590, 5.000e-4
-1.591, 5.075e-4
-1.592, 5.146e-4
-1.593, 5.221e-4
-1.594, 5.298e-4
-1.595, 5.368e-4
-1.596, 5.450e-4
-1.597, 5.523e-4
-1.598, 5.610e-4
-1.599, 5.690e-4
-1.600, 5.763e-4
-1.601, 5.854e-4
-1.602, 5.939e-4
-1.603, 6.020e-4
-1.604, 6.106e-4
-1.605, 6.194e-4
-1.606, 6.285e-4
-1.607, 6.376e-4
-1.608, 6.458e-4
-1.609, 6.554e-4
-1.610, 6.649e-4
-1.611, 6.748e-4
-1.612, 6.844e-4
-1.613, 6.935e-4
-1.614, 7.038e-4
-1.615, 7.140e-4
-1.616, 7.245e-4
-1.617, 7.338e-4
-1.618, 7.436e-4
-1.619, 7.564e-4
-1.620, 7.675e-4
-1.621, 7.778e-4
-1.622, 7.887e-4
-1.623, 8.006e-4
-1.624, 8.127e-4
-1.625, 8.237e-4
-1.626, 8.359e-4
-1.627, 8.478e-4
-1.628, 8.592e-4
-1.629, 8.721e-4
-1.630, 8.832e-4
-1.631, 8.957e-4
-1.632, 9.077e-4
-1.633, 9.203e-4
-1.634, 9.344e-4
-1.635, 9.466e-4
-1.636, 9.605e-4
-1.637, 9.734e-4
-1.638, 9.871e-4
-1.639, 1.003e-3
-1.640, 1.015e-3
-1.641, 1.029e-3
-1.642, 1.043e-3
-1.643, 1.059e-3
-1.644, 1.074e-3
-1.645, 1.087e-3
-1.646, 1.102e-3
-1.647, 1.117e-3
-1.648, 1.133e-3
-1.649, 1.148e-3
-1.650, 1.163e-3
-1.651, 1.179e-3
-1.652, 1.194e-3
-1.653, 1.209e-3
-1.654, 1.225e-3
-1.655, 1.242e-3
-1.656, 1.262e-3
-1.657, 1.279e-3
-1.658, 1.298e-3
-1.659, 1.317e-3
-1.660, 1.333e-3
-1.661, 1.351e-3
-1.662, 1.369e-3
-1.663, 1.388e-3
-1.664, 1.406e-3
-1.665, 1.423e-3
-1.666, 1.444e-3
-1.667, 1.462e-3
-1.668, 1.482e-3
-1.669, 1.502e-3
-1.670, 1.521e-3
-1.671, 1.542e-3
-1.672, 1.563e-3
-1.673, 1.586e-3
-1.674, 1.610e-3
-1.675, 1.631e-3
-1.676, 1.652e-3
-1.677, 1.676e-3
-1.678, 1.698e-3
-1.679, 1.721e-3
-1.680, 1.742e-3
-1.681, 1.767e-3
-1.682, 1.791e-3
-1.683, 1.814e-3
-1.684, 1.838e-3
-1.685, 1.862e-3
-1.686, 1.889e-3
-1.687, 1.914e-3
-1.688, 1.937e-3
-1.689, 1.963e-3
-1.690, 1.988e-3
-1.691, 2.015e-3
-1.692, 2.041e-3
-1.693, 2.070e-3
-1.694, 2.098e-3
-1.695, 2.125e-3
-1.696, 2.155e-3
-1.697, 2.184e-3
-1.698, 2.213e-3
-1.699, 2.239e-3
-1.700, 2.266e-3
-1.701, 2.297e-3
-1.702, 2.329e-3
-1.703, 2.357e-3
-1.704, 2.392e-3
-1.705, 2.424e-3
-1.706, 2.457e-3
-1.707, 2.490e-3
-1.708, 2.523e-3
-1.709, 2.556e-3
-1.710, 2.587e-3
-1.711, 2.622e-3
-1.712, 2.652e-3
-1.713, 2.684e-3
-1.714, 2.721e-3
-1.715, 2.754e-3
-1.716, 2.786e-3
-1.717, 2.821e-3
-1.718, 2.858e-3
-1.719, 2.898e-3
-1.720, 2.934e-3
-1.721, 2.970e-3
-1.722, 3.010e-3
-1.723, 3.051e-3
-1.724, 3.088e-3
-1.725, 3.127e-3
-1.726, 3.168e-3
-1.727, 3.210e-3
-1.728, 3.246e-3
-1.729, 3.287e-3
-1.730, 3.329e-3
-1.731, 3.372e-3
-1.732, 3.411e-3
-1.733, 3.451e-3
-1.734, 3.499e-3
-1.735, 3.545e-3
-1.736, 3.588e-3
-1.737, 3.630e-3
-1.738, 3.677e-3
-1.739, 3.720e-3
-1.740, 3.766e-3
-1.741, 3.822e-3
-1.742, 3.875e-3
-1.743, 3.923e-3
-1.744, 3.967e-3
-1.745, 4.012e-3
-1.746, 4.062e-3
-1.747, 4.109e-3
-1.748, 4.152e-3
-1.749, 4.197e-3
-1.750, 4.255e-3
-1.751, 4.307e-3
-1.752, 4.357e-3
-1.753, 4.408e-3
-1.754, 4.467e-3
-1.755, 4.519e-3
-1.756, 4.574e-3
-1.757, 4.633e-3
-1.758, 4.696e-3
-1.759, 4.750e-3
-1.760, 4.802e-3
-1.761, 4.856e-3
-1.762, 4.900e-3
-1.763, 4.961e-3
-1.764, 5.023e-3
-1.765, 5.090e-3
-1.766, 5.167e-3
-1.767, 5.240e-3
-1.768, 5.299e-3
-1.769, 5.362e-3
-1.770, 5.440e-3
-1.771, 5.520e-3
-1.772, 5.585e-3
-1.773, 5.655e-3
-1.774, 5.730e-3
-1.775, 5.796e-3
-1.776, 5.858e-3
-1.777, 5.934e-3
-1.778, 6.007e-3
-1.779, 6.070e-3
-1.780, 6.141e-3
-1.781, 6.226e-3
-1.782, 6.293e-3
-1.783, 6.357e-3
-1.784, 6.433e-3
-1.785, 6.509e-3
-1.786, 6.582e-3
-1.787, 6.647e-3
-1.788, 6.741e-3
-1.789, 6.832e-3
-1.790, 6.924e-3
-1.791, 7.027e-3
-1.792, 7.122e-3
-1.793, 7.211e-3
-1.794, 7.285e-3
-1.795, 7.353e-3
-1.796, 7.434e-3
-1.797, 7.523e-3
-1.798, 7.610e-3
-1.799, 7.697e-3
-1.800, 7.739e-3
-1.799, 7.705e-3
-1.798, 7.640e-3
-1.797, 7.582e-3
-1.796, 7.531e-3
-1.795, 7.496e-3
-1.794, 7.456e-3
-1.793, 7.400e-3
-1.792, 7.338e-3
-1.791, 7.268e-3
-1.790, 7.210e-3
-1.789, 7.152e-3
-1.788, 7.095e-3
-1.787, 7.044e-3
-1.786, 7.022e-3
-1.785, 6.999e-3
-1.784, 6.933e-3
-1.783, 6.875e-3
-1.782, 6.837e-3
-1.781, 6.776e-3
-1.780, 6.707e-3
-1.779, 6.651e-3
-1.778, 6.598e-3
-1.777, 6.534e-3
-1.776, 6.467e-3
-1.775, 6.414e-3
-1.774, 6.357e-3
-1.773, 6.293e-3
-1.772, 6.229e-3
-1.771, 6.181e-3
-1.770, 6.123e-3
-1.769, 6.061e-3
-1.768, 6.008e-3
-1.767, 5.965e-3
-1.766, 5.914e-3
-1.765, 5.846e-3
-1.764, 5.785e-3
-1.763, 5.744e-3
-1.762, 5.688e-3
-1.761, 5.623e-3
-1.760, 5.567e-3
-1.759, 5.522e-3
-1.758, 5.470e-3
-1.757, 5.408e-3
-1.756, 5.347e-3
-1.755, 5.296e-3
-1.754, 5.244e-3
-1.753, 5.196e-3
-1.752, 5.161e-3
-1.751, 5.112e-3
-1.750, 5.052e-3
-1.749, 4.996e-3
-1.748, 4.943e-3
-1.747, 4.900e-3
-1.746, 4.849e-3
-1.745, 4.796e-3
-1.744, 4.744e-3
-1.743, 4.695e-3
-1.742, 4.639e-3
-1.741, 4.593e-3
-1.740, 4.542e-3
-1.739, 4.494e-3
-1.738, 4.452e-3
-1.737, 4.405e-3
-1.736, 4.361e-3
-1.735, 4.318e-3
-1.734, 4.271e-3
-1.733, 4.220e-3
-1.732, 4.171e-3
-1.731, 4.129e-3
-1.730, 4.088e-3
-1.729, 4.042e-3
-1.728, 3.992e-3
-1.727, 3.949e-3
-1.726, 3.907e-3
-1.725, 3.862e-3
-1.724, 3.812e-3
-1.723, 3.773e-3
-1.722, 3.733e-3
-1.721, 3.696e-3
-1.720, 3.649e-3
-1.719, 3.616e-3
-1.718, 3.580e-3
-1.717, 3.549e-3
-1.716, 3.505e-3
-1.715, 3.458e-3
-1.714, 3.415e-3
-1.713, 3.369e-3
-1.712, 3.326e-3
-1.711, 3.293e-3
-1.710, 3.249e-3
-1.709, 3.208e-3
-1.708, 3.171e-3
-1.707, 3.136e-3
-1.706, 3.100e-3
-1.705, 3.066e-3
-1.704, 3.032e-3
-1.703, 2.992e-3
-1.702, 2.951e-3
-1.701, 2.917e-3
-1.700, 2.878e-3
-1.699, 2.839e-3
-1.698, 2.804e-3
-1.697, 2.777e-3
-1.696, 2.739e-3
-1.695, 2.701e-3
-1.694, 2.669e-3
-1.693, 2.633e-3
-1.692, 2.599e-3
-1.691, 2.563e-3
-1.690, 2.530e-3
-1.689, 2.503e-3
-1.688, 2.471e-3
-1.687, 2.439e-3
-1.686, 2.411e-3
-1.685, 2.378e-3
-1.684, 2.346e-3
-1.683, 2.312e-3
-1.682, 2.283e-3
-1.681, 2.255e-3
-1.680, 2.222e-3
-1.679, 2.191e-3
-1.678, 2.165e-3
-1.677, 2.137e-3
-1.676, 2.108e-3
-1.675, 2.075e-3
-1.674, 2.051e-3
-1.673, 2.021e-3
-1.672, 1.996e-3
-1.671, 1.966e-3
-1.670, 1.938e-3
-1.669, 1.914e-3
-1.668, 1.884e-3
-1.667, 1.857e-3
-1.666, 1.832e-3
-1.665, 1.808e-3
-1.664, 1.788e-3
-1.663, 1.756e-3
-1.662, 1.731e-3
-1.661, 1.707e-3
-1.660, 1.682e-3
-1.659, 1.662e-3
-1.658, 1.638e-3
-1.657, 1.612e-3
-1.656, 1.588e-3
-1.655, 1.567e-3
-1.654, 1.544e-3
-1.653, 1.521e-3
-1.652, 1.496e-3
-1.651, 1.476e-3
-1.650, 1.451e-3
-1.649, 1.430e-3
-1.648, 1.408e-3
-1.647, 1.392e-3
-1.646, 1.370e-3
-1.645, 1.348e-3
-1.644, 1.328e-3
-1.643, 1.308e-3
-1.642, 1.286e-3
-1.641, 1.268e-3
-1.640, 1.246e-3
-1.639, 1.228e-3
-1.638, 1.208e-3
-1.637, 1.190e-3
-1.636, 1.172e-3
-1.635, 1.153e-3
-1.634, 1.137e-3
-1.633, 1.118e-3
-1.632, 1.098e-3
-1.631, 1.081e-3
-1.630, 1.064e-3
-1.629, 1.047e-3
-1.628, 1.032e-3
-1.627, 1.017e-3
-1.626, 1.001e-3
-1.625, 9.839e-4
-1.624, 9.685e-4
-1.623, 9.532e-4
-1.622, 9.374e-4
-1.621, 9.236e-4
-1.620, 9.084e-4
-1.619, 8.926e-4
-1.618, 8.765e-4
-1.617, 8.619e-4
-1.616, 8.496e-4
-1.615, 8.330e-4
-1.614, 8.180e-4
-1.613, 8.048e-4
-1.612, 7.905e-4
-1.611, 7.771e-4
-1.610, 7.625e-4
-1.609, 7.505e-4
-1.608, 7.381e-4
-1.607, 7.264e-4
-1.606, 7.150e-4
-1.605, 7.021e-4
-1.604, 6.884e-4
-1.603, 6.772e-4
-1.602, 6.651e-4
-1.601, 6.532e-4
-1.600, 6.423e-4
-1.599, 6.324e-4
-1.598, 6.191e-4
-1.597, 6.063e-4
-1.596, 5.975e-4
-1.595, 5.869e-4
-1.594, 5.760e-4
-1.593, 5.652e-4
-1.592, 5.556e-4
-1.591, 5.463e-4
-1.590, 5.356e-4
-1.589, 5.266e-4
-1.588, 5.165e-4
-1.587, 5.075e-4
-1.586, 4.979e-4
-1.585, 4.890e-4
-1.584, 4.808e-4
-1.583, 4.722e-4
-1.582, 4.606e-4
-1.581, 4.533e-4
-1.580, 4.447e-4
-1.579, 4.360e-4
-1.578, 4.281e-4
-1.577, 4.200e-4
-1.576, 4.131e-4
-1.575, 4.048e-4
-1.574, 3.970e-4
-1.573, 3.901e-4
-1.572, 3.827e-4
-1.571, 3.753e-4
-1.570, 3.670e-4
-1.569, 3.612e-4
-1.568, 3.541e-4
-1.567, 3.469e-4
-1.566, 3.409e-4
-1.565, 3.335e-4
-1.564, 3.274e-4
-1.563, 3.214e-4
-1.562, 3.144e-4
-1.561, 3.085e-4
-1.560, 3.027e-4
-1.559, 2.970e-4
-1.558, 2.914e-4
-1.557, 2.862e-4
-1.556, 2.812e-4
-1.555, 2.742e-4
-1.554, 2.696e-4
-1.553, 2.646e-4
-1.552, 2.591e-4
-1.551, 2.540e-4
-1.550, 2.489e-4
-1.549, 2.443e-4
-1.548, 2.392e-4
-1.547, 2.345e-4
-1.546, 2.305e-4
-1.545, 2.253e-4
-1.544, 2.213e-4
-1.543, 2.169e-4
-1.542, 2.128e-4
-1.541, 2.090e-4
-1.540, 2.041e-4
-1.539, 2.005e-4
-1.538, 1.967e-4
-1.537, 1.923e-4
-1.536, 1.891e-4
-1.535, 1.847e-4
-1.534, 1.816e-4
-1.533, 1.777e-4
-1.532, 1.736e-4
-1.531, 1.706e-4
-1.530, 1.668e-4
-1.529, 1.636e-4
-1.528, 1.601e-4
-1.527, 1.568e-4
-1.526, 1.541e-4
-1.525, 1.505e-4
-1.524, 1.475e-4
-1.523, 1.442e-4
-1.522, 1.450e-4
-1.521, 1.401e-4
-1.520, 1.361e-4
-1.519, 1.336e-4
-1.518, 1.304e-4
-1.517, 1.276e-4
-1.516, 1.254e-4
-1.515, 1.223e-4
-1.514, 1.200e-4
-1.513, 1.173e-4
-1.512, 1.149e-4
-1.511, 1.128e-4
-1.510, 1.096e-4
-1.509, 1.078e-4
-1.508, 1.055e-4
-1.507, 1.028e-4
-1.506, 1.013e-4
-1.505, 9.860e-5
-1.504, 9.645e-5
-1.503, 9.451e-5
-1.502, 9.190e-5
-1.501, 9.003e-5
-1.500, 8.754e-5
-1.499, 8.579e-5
-1.498, 8.417e-5
-1.497, 8.170e-5
-1.496, 8.020e-5
-1.495, 7.799e-5
-1.494, 7.639e-5
-1.493, 7.464e-5
-1.492, 7.254e-5
-1.491, 7.104e-5
-1.490, 6.900e-5
-1.489, 6.753e-5
-1.488, 6.572e-5
-1.487, 6.390e-5
-1.486, 6.242e-5
-1.485, 6.015e-5
-1.484, 5.898e-5
-1.483, 5.729e-5
-1.482, 5.564e-5
-1.481, 5.441e-5
-1.480, 5.238e-5
-1.479, 5.134e-5
-1.478, 4.980e-5
-1.477, 4.839e-5
-1.476, 4.722e-5
-1.475, 4.544e-5
-1.474, 4.441e-5
-1.473, 4.275e-5
-1.472, 4.107e-5
-1.471, 4.005e-5
-1.470, 3.817e-5
-1.469, 3.715e-5
-1.468, 3.584e-5
-1.467, 3.426e-5
-1.466, 3.329e-5
-1.465, 3.146e-5
-1.464, 3.073e-5
-1.463, 2.951e-5
-1.462, 2.810e-5
-1.461, 2.720e-5
-1.460, 2.562e-5
-1.459, 2.459e-5
-1.458, 2.363e-5
-1.457, 2.208e-5
-1.456, 2.138e-5
-1.455, 1.989e-5
-1.454, 1.917e-5
-1.453, 1.804e-5
-1.452, 1.686e-5
-1.451, 1.608e-5
-1.450, 1.456e-5
-1.449, 1.412e-5
-1.448, 1.314e-5
-1.447, 1.204e-5
-1.446, 1.141e-5
-1.445, 1.013e-5
-1.444, 9.874e-6
-1.443, 8.710e-6
-1.442, 7.684e-6
-1.441, 7.032e-6
-1.440, 5.908e-6
-1.439, 5.266e-6
-1.438, 4.142e-6
-1.437, 3.382e-6
-1.436, 3.106e-6
-1.435, 1.813e-6
-1.434, 1.419e-6
-1.433, 4.519e-7
-1.432, -5.841e-7
-1.431, -8.998e-7
-1.430, -2.163e-6
-1.429, -2.399e-6
-1.428, -3.031e-6
-1.427, -4.146e-6
-1.426, -4.294e-6
-1.425, -5.507e-6
-1.424, -5.566e-6
-1.423, -6.306e-6
-1.422, -7.253e-6
-1.421, -7.609e-6
-1.420, -8.832e-6
-1.419, -8.901e-6
-1.418, -9.552e-6
-1.417, -1.052e-5
-1.416, -1.071e-5
-1.415, -1.167e-5
-1.414, -1.197e-5
-1.413, -1.244e-5
-1.412, -1.320e-5
-1.411, -1.358e-5
-1.410, -1.441e-5
-1.409, -1.476e-5
-1.408, -1.543e-5
-1.407, -1.611e-5
-1.406, -1.619e-5
-1.405, -1.701e-5
-1.404, -1.717e-5
-1.403, -1.764e-5
-1.402, -1.829e-5
-1.401, -1.875e-5
-1.400, -1.941e-5
-1.399, -1.965e-5
-1.398, -2.009e-5
-1.397, -2.066e-5
-1.396, -2.089e-5
-1.395, -2.184e-5
-1.394, -2.179e-5
-1.393, -2.237e-5
-1.392, -2.283e-5
-1.391, -2.291e-5
-1.390, -2.387e-5
-1.389, -2.373e-5
-1.388, -2.409e-5
-1.387, -2.501e-5
-1.386, -2.499e-5
-1.385, -2.595e-5
-1.384, -2.564e-5
-1.383, -2.627e-5
-1.382, -2.702e-5
-1.381, -2.679e-5
-1.380, -2.766e-5
-1.379, -2.774e-5
-1.378, -2.802e-5
-1.377, -2.866e-5
-1.376, -2.868e-5
-1.375, -2.933e-5
-1.374, -2.938e-5
-1.373, -2.972e-5
-1.372, -3.046e-5
-1.371, -3.028e-5
-1.370, -3.116e-5
-1.369, -3.111e-5
-1.368, -3.147e-5
-1.367, -3.204e-5
-1.366, -3.188e-5
-1.365, -3.261e-5
-1.364, -3.258e-5
-1.363, -3.305e-5
-1.362, -3.358e-5
-1.361, -3.362e-5
-1.360, -3.413e-5
-1.359, -3.423e-5
-1.358, -3.467e-5
-1.357, -3.515e-5
-1.356, -3.525e-5
-1.355, -3.590e-5
-1.354, -3.575e-5
-1.353, -3.605e-5
-1.352, -3.648e-5
-1.351, -3.629e-5
-1.350, -3.718e-5
-1.349, -3.699e-5
-1.348, -3.751e-5
-1.347, -3.788e-5
-1.346, -3.765e-5
-1.345, -3.850e-5
-1.344, -3.835e-5
-1.343, -3.871e-5
-1.342, -3.930e-5
-1.341, -3.904e-5
-1.340, -3.985e-5
-1.339, -3.994e-5
-1.338, -4.023e-5
-1.337, -4.058e-5
-1.336, -4.046e-5
-1.335, -4.101e-5
-1.334, -4.110e-5
-1.333, -4.134e-5
-1.332, -4.183e-5
-1.331, -4.175e-5
-1.330, -4.246e-5
-1.329, -4.247e-5
-1.328, -4.272e-5
-1.327, -4.324e-5
-1.326, -4.317e-5
-1.325, -4.378e-5
-1.324, -4.392e-5
-1.323, -4.418e-5
-1.322, -4.447e-5
-1.321, -4.441e-5
-1.320, -4.508e-5
-1.319, -4.502e-5
-1.318, -4.556e-5
-1.317, -4.583e-5
-1.316, -4.577e-5
-1.315, -4.650e-5
-1.314, -4.661e-5
-1.313, -4.682e-5
-1.312, -4.728e-5
-1.311, -4.702e-5
-1.310, -4.791e-5
-1.309, -4.768e-5
-1.308, -4.819e-5
-1.307, -4.863e-5
-1.306, -4.858e-5
-1.305, -4.923e-5
-1.304, -4.911e-5
-1.303, -4.970e-5
-1.302, -5.011e-5
-1.301, -4.984e-5
-1.300, -5.046e-5
-1.299, -5.056e-5
-1.298, -5.093e-5
-1.297, -5.141e-5
-1.296, -5.142e-5
-1.295, -5.204e-5
-1.294, -5.206e-5
-1.293, -5.232e-5
-1.292, -5.281e-5
-1.291, -5.300e-5
-1.290, -5.351e-5
-1.289, -5.359e-5
-1.288, -5.382e-5
-1.287, -5.421e-5
-1.286, -5.418e-5
-1.285, -5.454e-5
-1.284, -5.458e-5
-1.283, -5.523e-5
-1.282, -5.557e-5
-1.281, -5.554e-5
-1.280, -5.621e-5
-1.279, -5.621e-5
-1.278, -5.658e-5
-1.277, -5.687e-5
-1.276, -5.700e-5
-1.275, -5.768e-5
-1.274, -5.765e-5
-1.273, -5.806e-5
-1.272, -5.833e-5
-1.271, -5.823e-5
-1.270, -5.908e-5
-1.269, -5.900e-5
-1.268, -5.946e-5
-1.267, -5.995e-5
-1.266, -5.974e-5
-1.265, -6.065e-5
-1.264, -6.038e-5
-1.263, -6.073e-5
-1.262, -6.138e-5
-1.261, -6.136e-5
-1.260, -6.194e-5
-1.259, -6.192e-5
-1.258, -6.225e-5
-1.257, -6.427e-5
-1.256, -6.392e-5
-1.255, -6.443e-5
-1.254, -6.402e-5
-1.253, -6.460e-5
-1.252, -6.566e-5
-1.251, -6.565e-5
-1.250, -6.563e-5
-1.249, -6.571e-5
-1.248, -6.602e-5
-1.247, -6.647e-5
-1.246, -6.665e-5
-1.245, -6.720e-5
-1.244, -6.715e-5
-1.243, -6.731e-5
-1.242, -6.809e-5
-1.241, -6.855e-5
-1.240, -6.905e-5
-1.239, -6.868e-5
-1.238, -6.920e-5
-1.237, -6.951e-5
-1.236, -6.933e-5
-1.235, -6.995e-5
-1.234, -7.007e-5
-1.233, -7.050e-5
-1.232, -7.078e-5
-1.231, -7.068e-5
-1.230, -7.148e-5
-1.229, -7.184e-5
-1.228, -7.217e-5
-1.227, -7.264e-5
-1.226, -7.255e-5
-1.225, -7.335e-5
-1.224, -7.306e-5
-1.223, -7.344e-5
-1.222, -7.391e-5
-1.221, -7.364e-5
-1.220, -7.434e-5
-1.219, -7.435e-5
-1.218, -7.453e-5
-1.217, -7.529e-5
-1.216, -7.511e-5
-1.215, -7.567e-5
-1.214, -7.591e-5
-1.213, -7.575e-5
-1.212, -7.650e-5
-1.211, -7.632e-5
-1.210, -7.699e-5
-1.209, -7.721e-5
-1.208, -7.730e-5
-1.207, -7.766e-5
-1.206, -7.765e-5
-1.205, -7.817e-5
-1.204, -7.814e-5
-1.203, -7.846e-5
-1.202, -7.888e-5
-1.201, -7.899e-5
-1.200, -7.942e-5
-1.199, -7.958e-5
-1.198, -7.989e-5
-1.197, -8.012e-5
-1.196, -8.001e-5
-1.195, -8.067e-5
-1.194, -8.078e-5
-1.193, -8.106e-5
-1.192, -8.128e-5
-1.191, -8.110e-5
-1.190, -8.204e-5
-1.189, -8.187e-5
-1.188, -8.213e-5
-1.187, -8.274e-5
-1.186, -8.233e-5
-1.185, -8.325e-5
-1.184, -8.293e-5
-1.183, -8.352e-5
-1.182, -8.406e-5
-1.181, -8.371e-5
-1.180, -8.427e-5
-1.179, -8.461e-5
-1.178, -8.493e-5
-1.177, -8.549e-5
-1.176, -8.515e-5
-1.175, -8.572e-5
-1.174, -8.579e-5
-1.173, -8.602e-5
-1.172, -8.648e-5
-1.171, -8.632e-5
-1.170, -8.716e-5
-1.169, -8.695e-5
-1.168, -8.715e-5
-1.167, -8.755e-5
-1.166, -8.738e-5
-1.165, -8.799e-5
-1.164, -8.808e-5
-1.163, -8.856e-5
-1.162, -8.880e-5
-1.161, -8.869e-5
-1.160, -8.920e-5
-1.159, -8.906e-5
-1.158, -8.947e-5
-1.157, -8.969e-5
-1.156, -8.945e-5
-1.155, -9.032e-5
-1.154, -9.012e-5
-1.153, -9.041e-5
-1.152, -9.094e-5
-1.151, -9.079e-5
-1.150, -9.150e-5
-1.149, -9.151e-5
-1.148, -9.179e-5
-1.147, -9.197e-5
-1.146, -9.173e-5
-1.145, -9.263e-5
-1.144, -9.269e-5
-1.143, -9.272e-5
-1.142, -9.325e-5
-1.141, -9.266e-5
-1.140, -9.366e-5
-1.139, -9.373e-5
-1.138, -9.397e-5
-1.137, -9.451e-5
-1.136, -9.434e-5
-1.135, -9.497e-5
-1.134, -9.484e-5
-1.133, -9.516e-5
-1.132, -9.542e-5
-1.131, -9.497e-5
-1.130, -9.578e-5
-1.129, -9.582e-5
-1.128, -9.585e-5
-1.127, -9.641e-5
-1.126, -9.640e-5
-1.125, -9.681e-5
-1.124, -9.702e-5
-1.123, -9.723e-5
-1.122, -9.764e-5
-1.121, -9.741e-5
-1.120, -9.805e-5
-1.119, -9.810e-5
-1.118, -9.835e-5
-1.117, -9.865e-5
-1.116, -9.822e-5
-1.115, -9.899e-5
-1.114, -9.904e-5
-1.113, -9.942e-5
-1.112, -9.968e-5
-1.111, -9.938e-5
-1.110, -1.002e-4
-1.109, -9.995e-5
-1.108, -1.003e-4
-1.107, -1.009e-4
-1.106, -1.005e-4
-1.105, -1.011e-4
-1.104, -1.010e-4
-1.103, -1.014e-4
-1.102, -1.016e-4
-1.101, -1.012e-4
-1.100, -1.019e-4
-1.099, -1.021e-4
-1.098, -1.026e-4
-1.097, -1.031e-4
-1.096, -1.027e-4
-1.095, -1.034e-4
-1.094, -1.037e-4
-1.093, -1.039e-4
-1.092, -1.042e-4
-1.091, -1.038e-4
-1.090, -1.048e-4
-1.089, -1.048e-4
-1.088, -1.051e-4
-1.087, -1.057e-4
-1.086, -1.052e-4
-1.085, -1.057e-4
-1.084, -1.058e-4
-1.083, -1.060e-4
-1.082, -1.064e-4
-1.081, -1.061e-4
-1.080, -1.068e-4
-1.079, -1.068e-4
-1.078, -1.072e-4
-1.077, -1.075e-4
-1.076, -1.074e-4
-1.075, -1.082e-4
-1.074, -1.083e-4
-1.073, -1.085e-4
-1.072, -1.090e-4
-1.071, -1.087e-4
-1.070, -1.096e-4
-1.069, -1.095e-4
-1.068, -1.097e-4
-1.067, -1.103e-4
-1.066, -1.099e-4
-1.065, -1.108e-4
-1.064, -1.106e-4
-1.063, -1.109e-4
-1.062, -1.115e-4
-1.061, -1.112e-4
-1.060, -1.119e-4
-1.059, -1.120e-4
-1.058, -1.123e-4
-1.057, -1.129e-4
-1.056, -1.123e-4
-1.055, -1.134e-4
-1.054, -1.135e-4
-1.053, -1.138e-4
-1.052, -1.142e-4
-1.051, -1.139e-4
-1.050, -1.148e-4
-1.049, -1.149e-4
-1.048, -1.150e-4
-1.047, -1.158e-4
-1.046, -1.156e-4
-1.045, -1.160e-4
-1.044, -1.159e-4
-1.043, -1.163e-4
-1.042, -1.167e-4
-1.041, -1.167e-4
-1.040, -1.173e-4
-1.039, -1.173e-4
-1.038, -1.178e-4
-1.037, -1.183e-4
-1.036, -1.182e-4
-1.035, -1.191e-4
-1.034, -1.190e-4
-1.033, -1.195e-4
-1.032, -1.199e-4
-1.031, -1.197e-4
-1.030, -1.209e-4
-1.029, -1.207e-4
-1.028, -1.210e-4
-1.027, -1.214e-4
-1.026, -1.209e-4
-1.025, -1.218e-4
-1.024, -1.219e-4
-1.023, -1.223e-4
-1.022, -1.229e-4
-1.021, -1.226e-4
-1.020, -1.237e-4
-1.019, -1.236e-4
-1.018, -1.240e-4
-1.017, -1.244e-4
-1.016, -1.244e-4
-1.015, -1.252e-4
-1.014, -1.250e-4
-1.013, -1.253e-4
-1.012, -1.260e-4
-1.011, -1.260e-4
-1.010, -1.268e-4
-1.009, -1.268e-4
-1.008, -1.270e-4
-1.007, -1.276e-4
-1.006, -1.273e-4
-1.005, -1.281e-4
-1.004, -1.278e-4
-1.003, -1.284e-4
-1.002, -1.289e-4
-1.001, -1.289e-4
