Potential V vs RHE, Current mA cm-2
0.013299999999999867,1.1317690398920295
0.012299999999999978,-0.6128529351015338
0.011299999999999866,-2.2706116362833835
0.010299999999999976,-3.884797229429391
0.009299999999999864,-5.411270721983764
0.008299999999999974,-6.93774421453814
0.007299999999999862,-8.4203616567967
0.006299999999999972,-9.81668170976349
0.00529999999999986,-11.211587051430415
0.0042999999999999705,-12.607907104397206
0.0032999999999998586,-13.916515056772363
0.0022999999999999687,-15.222293586547794
0.0012999999999998568,-16.53797509542228
0.00029999999999996696,-17.75462681330621
-0.000700000000000145,-18.97127853119014
-0.0017000000000000348,-20.202077362072725
-0.0027000000000001467,-21.376287740960702
-0.0037000000000000366,-22.550498119848687
-0.0047000000000001485,-23.639825820744765
-0.005700000000000038,-24.729153521640843
-0.00670000000000015,-25.77603988354097
-0.00770000000000004,-26.822926245441096
-0.008700000000000152,-27.827371268345274
-0.009700000000000042,-28.831816291249446
-0.010700000000000154,-29.836261314153624
-0.011700000000000044,-30.8407063370578
-0.012700000000000156,-31.802710020966025
-0.013700000000000045,-32.764713704874254
-0.014700000000000157,-33.712570275783825
-0.015700000000000047,-34.67457395969205
-0.01670000000000016,-35.636577643600276
-0.01770000000000005,-36.55613998851254
-0.01870000000000016,-37.41911388143023
-0.01970000000000005,-38.29623488734655
-0.020700000000000163,-39.130914554266916
-0.021700000000000053,-39.90900576919269
-0.022700000000000164,-40.701244097117105
-0.023700000000000054,-41.43689397304693
-0.024700000000000166,-42.186690961975394
-0.025700000000000056,-42.87989949890926
-0.026700000000000168,-43.657990713835034
-0.027700000000000058,-44.36534636376755
-0.02870000000000017,-45.05855490070142
-0.02970000000000006,-45.75176343763528
-0.03070000000000017,-46.45911908756781
-0.03170000000000006,-47.10988628550572
-0.03270000000000017,-47.67577080545174
-0.03370000000000006,-48.1992139864018
-0.034700000000000175,-48.72265716735186
-0.035700000000000065,-49.24610034830193
-0.03670000000000018,-49.72710219025603
-0.03770000000000007,-50.20810403221015
-0.03870000000000018,-50.60422319617236
-0.03970000000000007,-51.028636586131874
-0.04070000000000018,-51.424755750094086
-0.04170000000000007,-51.82087491405629
-0.04270000000000018,-52.2169940780185
-0.04370000000000007,-52.59896612898206
-0.044700000000000184,-52.995085292944275
-0.045700000000000074,-53.30632177891458
-0.046700000000000186,-53.64585249088219
-0.047700000000000076,-53.91464763785655
-0.04870000000000019,-54.26832546282281
-0.04970000000000008,-54.56541483579447
-0.05070000000000019,-54.919092660760725
-0.05170000000000008,-55.25862337272834
-0.05270000000000019,-55.56985985869864
-0.05370000000000008,-55.881096344668954
-0.05470000000000019,-56.26306839563251
-0.05570000000000008,-56.61674622059877
-0.056700000000000195,-56.97042404556503
-0.057700000000000085,-57.30995475753264
-0.058700000000000196,-57.66363258249889
-0.059700000000000086,-58.10219308545706
-0.0607000000000002,-58.498312249419264
-0.06170000000000009,-58.880284300382826
-0.0627000000000002,-59.23396212534908
-0.06370000000000009,-59.6300812893113
-0.0647000000000002,-59.92717066228296
-0.06570000000000009,-60.28084848724921
-0.0667000000000002,-60.63452631221547
-0.0677000000000001,-60.974057024183075
-0.0687000000000002,-61.37017618814529
-0.0697000000000001,-61.7662953521075
-0.07070000000000021,-62.16241451606972
-0.0717000000000001,-62.501945228037314
-0.07270000000000021,-62.89806439199953
-0.0737000000000001,-63.251742216965795
-0.07470000000000021,-63.59127292893339
-0.0757000000000001,-63.902509414903705
-0.07670000000000021,-64.25618723986996
-0.0777000000000001,-64.55327661284163
-0.07870000000000021,-64.82207175981598
-0.0797000000000001,-65.0767197937917
-0.08070000000000022,-65.34551494076604
-0.0817000000000001,-65.60016297474175
-0.08270000000000022,-65.86895812171612
-0.08370000000000011,-66.08116481669586
-0.08470000000000022,-66.29337151167562
-0.08570000000000011,-66.51972531965401
-0.08670000000000022,-66.73193201463377
-0.08770000000000011,-66.91584448361623
-0.08870000000000022,-67.128051178596
-0.08970000000000011,-67.34025787357575
-0.09070000000000022,-67.6090530205501
-0.09170000000000011,-67.86370105452582
-0.09270000000000023,-68.04761352350828
-0.09370000000000012,-68.25982021848802
-0.09470000000000023,-68.38714423547587
-0.09570000000000012,-68.52861536546239
-0.09670000000000023,-68.61349804345427
-0.09770000000000012,-68.65593938245023
-0.09870000000000023,-68.74082206044213
-0.09970000000000012,-68.78326339943808
-0.10070000000000023,-68.91058741642594
-0.10170000000000012,-69.0096172074165
-0.10270000000000024,-69.13694122440434
-0.10370000000000013,-69.22182390239624
-0.10470000000000024,-69.30670658038814
-0.10570000000000013,-69.39158925838004
-0.10670000000000024,-69.43403059737601
-0.10770000000000013,-69.57550172736251
-0.10870000000000024,-69.70282574435035
-0.10970000000000013,-69.87259110033416
-0.11070000000000024,-70.05650356931662
-0.11170000000000013,-70.18382758630447
-0.11270000000000002,-70.31115160329232
-0.11370000000000013,-70.39603428128423
-0.11470000000000002,-70.53750541127073
-0.11570000000000014,-70.66482942825859
-0.11670000000000003,-70.8345947842424
-0.11770000000000014,-71.10338993121674
-0.11870000000000003,-71.35803796519245
-0.11970000000000014,-71.6268331121668
-0.12070000000000003,-71.8814811461425
-0.12170000000000014,-72.10783495412092
-0.12270000000000003,-72.32004164910067
-0.12370000000000014,-72.53224834408043
-0.12470000000000003,-72.71616081306288
-0.12570000000000014,-72.92836750804264
-0.12670000000000003,-73.09813286402644
-0.12770000000000015,-73.23960399401295
-0.12870000000000004,-73.40936934999675
-0.12970000000000015,-73.53669336698461
-0.13070000000000004,-73.6781644969711
-0.13170000000000015,-73.76304717496302
-0.13270000000000004,-73.8479298529549
-0.13370000000000015,-73.93281253094682
-0.13470000000000004,-73.97525386994278
-0.13570000000000015,-74.0176952089387
-0.13670000000000004,-74.0176952089387
-0.13770000000000016,-73.97525386994278
-0.13870000000000005,-73.93281253094682
-0.13970000000000016,-73.93281253094682
-0.14070000000000005,-73.97525386994278
-0.14170000000000016,-74.0176952089387
-0.14270000000000005,-74.06013654793468
-0.14370000000000016,-74.0176952089387
-0.14470000000000005,-73.97525386994278
-0.14570000000000016,-73.89037119195086
-0.14670000000000005,-73.76304717496302
-0.14770000000000016,-73.62157604497652
-0.14870000000000005,-73.53669336698461
-0.14970000000000017,-73.40936934999675
-0.15070000000000006,-73.3669280110008
-0.15170000000000017,-73.40936934999675
-0.15270000000000006,-73.53669336698461
-0.15370000000000017,-73.62157604497652
-0.15470000000000006,-73.72060583596706
-0.15570000000000017,-73.76304717496302
-0.15670000000000006,-73.80548851395896
-0.15770000000000017,-73.93281253094682
-0.15870000000000006,-74.10257788693062
-0.15970000000000018,-74.32893169490903
-0.16070000000000007,-74.62602106788069
-0.16170000000000018,-74.93725755385098
-0.16270000000000007,-75.29093537881725
-0.16370000000000018,-75.5880247517889
-0.16470000000000007,-75.85681989876326
-0.16570000000000018,-75.98414391575112
-0.16670000000000007,-76.06902659374302
-0.16770000000000018,-76.11146793273898
-0.16870000000000007,-76.19635061073087
-0.16970000000000018,-76.19635061073087
-0.17070000000000007,-76.11146793273898
-0.17170000000000019,-76.06902659374302
-0.17270000000000008,-75.98414391575112
-0.1737000000000002,-75.94170257675518
-0.17470000000000008,-75.8992612377592
-0.1757000000000002,-75.8992612377592
-0.17670000000000008,-75.8992612377592
-0.1777000000000002,-75.8992612377592
-0.17870000000000008,-75.8992612377592
-0.1797000000000002,-75.98414391575112
-0.18070000000000008,-76.11146793273898
-0.1817000000000002,-76.23879194972683
-0.18270000000000008,-76.46514575770523
-0.1837000000000002,-76.67735245268499
-0.1847000000000001,-76.9037062606634
-0.1857000000000002,-77.1583542946391
-0.1867000000000001,-77.42714944161345
-0.1877000000000002,-77.63935613659322
-0.1887000000000001,-77.86570994457162
-0.1897000000000002,-78.03547530055542
-0.1907000000000001,-78.20524065653922
-0.1917000000000001,-78.38915312552167
-0.19269999999999998,-78.51647714250953
-0.1937000000000001,-78.68624249849334
-0.19469999999999998,-78.91259630647174
-0.1957000000000001,-79.1248030014515
-0.19669999999999999,-79.33700969643127
-0.1977000000000001,-79.60580484340561
-0.1987,-79.86045287738132
-0.1997000000000001,-80.04436534636378
-0.2007,-80.34145471933543
-0.2017000000000001,-80.65269120530574
-0.2027,-80.99222191727335
-0.2037000000000001,-81.38834108123557
-0.2047,-81.82690158419373
-0.2057000000000001,-82.26546208715187
-0.2067,-82.70402259011003
-0.2077000000000001,-83.14258309306821
-0.2087,-83.52455514403178
-0.2097000000000001,-83.96311564698992
-0.2107,-84.35923481095215
-0.2117000000000001,-84.84023665290624
-0.2127,-85.32123849486035
-0.2137000000000001,-85.80224033681448
-0.2147,-86.22665372677399
-0.2157000000000001,-86.66521422973216
-0.2167,-87.10377473269031
-0.21770000000000012,-87.49989389665252
-0.2187,-87.89601306061473
-0.21970000000000012,-88.32042645057423
-0.2207,-88.63166293654454
-0.22170000000000012,-88.94289942251486
-0.2227,-89.32487147347842
-0.22370000000000012,-89.72099063744062
-0.2247,-90.20199247939475
-0.22570000000000012,-90.68299432134886
-0.2267,-91.24887884129487
-0.22770000000000012,-91.81476336124088
-0.22870000000000001,-92.3806478811869
-0.22970000000000013,-92.94653240113291
-0.23070000000000002,-93.46997558208298
-0.23170000000000013,-93.95097742403709
-0.23270000000000002,-94.47442060498715
-0.23370000000000013,-94.91298110794531
-0.23470000000000002,-95.35154161090348
-0.23570000000000013,-95.83254345285758
-0.23670000000000002,-96.31354529481169
-0.2376999999999999,-96.83698847576176
-0.23870000000000002,-97.44531433470372
-0.2396999999999999,-98.01119885464975
-0.24070000000000003,-98.66196605258766
-0.24169999999999991,-99.22785057253368
-0.24270000000000003,-99.7937350924797
-0.24369999999999992,-100.31717827342976
-0.24470000000000003,-100.79818011538387
-0.24569999999999992,-101.15185794035013
-0.24670000000000003,-101.50553576531638
-0.24769999999999992,-101.76018379929208
-0.24870000000000003,-101.92994915527588
-0.24969999999999992,-102.1563029632543
-0.25070000000000003,-102.36850965823406
-0.2516999999999999,-102.59486346621246
-0.25270000000000004,-102.84951150018817
-0.2536999999999999,-103.11830664716253
-0.25470000000000004,-103.33051334214227
-0.2556999999999999,-103.59930848911664
-0.25670000000000004,-103.81151518409638
-0.25769999999999993,-104.02372187907615
-0.25870000000000004,-104.16519300906265
-0.25969999999999993,-104.25007568705455
-0.26070000000000004,-104.2925170260505
-0.26169999999999993,-104.33495836504645
-0.26270000000000004,-104.3773997040424
-0.26369999999999993,-104.33495836504645
-0.26470000000000005,-104.33495836504645
-0.26569999999999994,-104.33495836504645
-0.26670000000000005,-104.3773997040424
-0.26769999999999994,-104.50472372103027
-0.26870000000000005,-104.73107752900866
-0.26969999999999994,-105.02816690198033
-0.27070000000000005,-105.29696204895468
-0.27169999999999994,-105.63649276092228
-0.27270000000000005,-105.99017058588855
-0.27369999999999994,-106.4287310888467
-0.27470000000000006,-106.99461560879273
-0.27569999999999995,-107.64538280673065
-0.27670000000000006,-108.39517979565912
-0.27769999999999995,-109.25815368857677
-0.27870000000000006,-110.26259871148096
-0.27969999999999995,-111.3094850733811
-0.28070000000000006,-112.44125411327312
-0.28169999999999995,-113.62961160515974
-0.28270000000000006,-114.88870466203963
-0.28369999999999995,-116.10535637992358
-0.28470000000000006,-117.25127253281424
-0.28569999999999995,-118.38304157270628
-0.28670000000000007,-119.4299279346064
-0.28769999999999996,-120.33534316652002
-0.28870000000000007,-121.17002283344038
-0.28969999999999996,-121.90567270937021
-0.29070000000000007,-122.61302835930273
-0.29169999999999996,-123.3062368962366
-0.29270000000000007,-124.05603388516508
-0.29369999999999996,-124.7916837610949
-0.2947000000000001,-125.62636342801528
-0.29569999999999996,-126.44689598193698
-0.2967000000000001,-127.28157564885734
-0.29769999999999996,-128.10210820277908
-0.2987000000000001,-128.89434653070347
-0.29969999999999997,-129.7148790846252
-0.3007000000000001,-130.63444142953747
-0.30169999999999997,-131.63888645244168
-0.3027000000000001,-132.64333147534586
-0.30369999999999997,-133.73265917624192
-0.3047000000000001,-134.77954553814206
-0.30569999999999997,-135.86887323903812
-0.3067000000000001,-136.95820093993422
-0.3077,-138.08996997982624
-0.3087000000000001,-139.1792976807223
-0.3097,-140.2686253816184
-0.3107000000000001,-141.3721001955131
-0.3117,-142.4614278964092
-0.3127000000000001,-143.4517258063147
-0.3137,-144.44202371622026
-0.3147000000000001,-145.43232162612577
-0.3157,-146.4226195360313
-0.3167000000000001,-147.27144631595033
-0.3177,-148.26174422585584
-0.3187000000000001,-149.25204213576137
-0.3197,-150.24234004566688
-0.3207000000000001,-151.09116682558593
-0.3217,-152.0814647354914
-0.3227000000000001,-153.07176264539694
-0.3237,-154.203531685289
-0.3247000000000001,-155.05235846520802
-0.3257,-156.04265637511355
-0.3267000000000001,-156.89148315503257
-0.3277,-157.7403099349516
-0.3287000000000001,-158.5891367148706
-0.3297,-159.43796349478964
-0.3307000000000001,-160.28679027470866
-0.3317,-161.2770881846142
-0.3327000000000001,-162.2673860945197
-0.3337,-163.39915513441173
-0.3347000000000001,-164.53092417430375
-0.3357,-165.8041643441823
-0.3367000000000001,-166.93593338407433
-0.3377,-168.20917355395284
-0.3387000000000001,-169.3409425938449
-0.3397,-170.61418276372342
-0.3407000000000001,-171.88742293360195
-0.3417,-173.16066310348046
-0.3427000000000001,-174.43390327335902
-0.3437,-175.70714344323756
-0.3447000000000001,-176.98038361311612
-0.3457,-178.1121526530081
-0.3467000000000001,-179.24392169290016
-0.3477,-180.5171618627787
-0.3487000000000001,-181.64893090267074
-0.3497,-182.78069994256273
-0.3507000000000001,-183.91246898245475
-0.3517,-185.0442380223468
-0.3527000000000001,-185.89306480226583
-0.3537,-186.88336271217133
-0.3547000000000001,-187.73218949209036
-0.3557,-188.58101627200938
-0.35670000000000013,-189.57131418191491
-0.3577,-190.56161209182042
-0.35870000000000013,-191.551910001726
-0.3597,-192.683679041618
-0.36070000000000013,-194.09839034148303
-0.3617,-195.37163051136156
-0.3626999999999999,-196.6448706812401
-0.3637,-197.91811085111863
-0.3646999999999999,-199.19135102099716
-0.3657,-200.4645911908757
-0.3666999999999999,-201.87930249074074
-0.3677,-203.15254266061928
-0.3686999999999999,-204.5672539604843
-0.36970000000000003,-205.84049413036286
-0.3706999999999999,-207.1137343002414
-0.37170000000000003,-208.52844560010638
-0.3726999999999999,-209.8016857699849
-0.37370000000000003,-211.07492593986345
-0.3746999999999999,-212.34816610974204
-0.37570000000000003,-213.62140627962054
-0.3766999999999999,-214.75317531951256
-0.37770000000000004,-215.88494435940459
-0.3786999999999999,-216.87524226931012
-0.37970000000000004,-217.86554017921566
-0.3806999999999999,-218.85583808912116
-0.38170000000000004,-219.98760712901318
-0.38269999999999993,-221.26084729889175
-0.38370000000000004,-222.6755585987568
-0.38469999999999993,-224.09026989862178
-0.38570000000000004,-225.36351006850035
-0.38669999999999993,-225.50498119848683
-0.38570000000000004,-223.38291424868927
-0.38469999999999993,-221.26084729889175
-0.38370000000000004,-219.28025147908068
-0.38269999999999993,-217.58259791924263
-0.38170000000000004,-215.7434732294181
-0.3806999999999999,-214.18729079956654
-0.37970000000000004,-212.48963723972852
-0.3786999999999999,-210.79198367989048
-0.37770000000000004,-209.0943301200524
-0.3766999999999999,-207.3966765602144
-0.37570000000000003,-205.69902300037634
-0.3746999999999999,-203.85989831055176
-0.37370000000000003,-202.16224475071377
-0.3726999999999999,-200.3231200608892
-0.37170000000000003,-198.48399537106465
-0.3706999999999999,-196.6448706812401
-0.36970000000000003,-194.80574599141553
-0.3686999999999999,-192.966621301591
-0.3677,-191.268967741753
-0.3666999999999999,-189.57131418191491
-0.3657,-187.87366062207687
-0.3646999999999999,-186.17600706223882
-0.3637,-184.47835350240078
-0.3626999999999999,-182.92217107254925
-0.3617,-181.2245175127112
-0.36070000000000013,-179.80980621284618
-0.3597,-178.1121526530081
-0.35870000000000013,-176.6974413531431
-0.3577,-175.28273005327804
-0.35670000000000013,-174.0094898833995
-0.3557,-172.59477858353446
-0.3547000000000001,-171.32153841365593
-0.3537,-169.9068271137909
-0.3527000000000001,-168.49211581392586
-0.3517,-167.07740451406085
-0.3507000000000001,-165.6626932141958
-0.3497,-164.24798191433075
-0.3487000000000001,-162.6917994844792
-0.3477,-161.41855931460069
-0.3467000000000001,-160.00384801473567
-0.3457,-158.73060784485713
-0.3447000000000001,-157.31589654499206
-0.3437,-155.90118524512707
-0.3427000000000001,-154.486473945262
-0.3417,-153.21323377538346
-0.3407000000000001,-152.0814647354914
-0.3397,-150.8082245656129
-0.3387000000000001,-149.6764555257209
-0.3377,-148.54468648582886
-0.3367000000000001,-147.27144631595033
-0.3357,-145.9982061460718
-0.3347000000000001,-144.72496597619326
-0.3337,-143.5931969363012
-0.3327000000000001,-142.31995676642268
-0.3317,-141.27307040452254
-0.3307000000000001,-140.14130136463055
-0.3297,-139.0095323247385
-0.3287000000000001,-137.87776328484648
-0.3277,-136.70355290595847
-0.3267000000000001,-135.5576367530678
-0.3257,-134.38342637417986
-0.3247000000000001,-133.20921599529186
-0.3237,-132.03500561640385
-0.3227000000000001,-130.90323657651186
-0.3217,-129.67243774562928
-0.3207000000000001,-128.41334468874936
-0.3197,-127.19669297086547
-0.3187000000000001,-125.88101146199097
-0.3177,-124.52288861412055
-0.3167000000000001,-123.26379555724066
-0.3157,-121.90567270937021
-0.3147000000000001,-120.56169697449842
-0.3137,-119.16113278763203
-0.3127000000000001,-117.71812726176971
-0.3117,-116.28926884890602
-0.3107000000000001,-114.80382198404773
-0.3097,-113.36081645818538
-0.3087000000000001,-111.91781093232305
-0.3077,-110.48895251945936
-0.3067000000000001,-108.96106431560513
-0.30569999999999997,-107.34829343375898
-0.3047000000000001,-105.69308121291688
-0.30369999999999997,-103.98128054008019
-0.3027000000000001,-102.3260683192381
-0.30169999999999997,-100.84062145437981
-0.3007000000000001,-99.58152839749994
-0.29969999999999997,-98.40731801861195
-0.2987000000000001,-97.31799031771587
-0.29769999999999996,-96.17207416482519
-0.2967000000000001,-95.04030512493317
-0.29569999999999996,-93.86609474604518
-0.2947000000000001,-92.6918843671572
-0.29369999999999996,-91.56011532726518
-0.29270000000000007,-90.47078762636909
-0.29169999999999996,-89.32487147347842
-0.29070000000000007,-88.15066109459043
-0.28969999999999996,-86.93400937670651
-0.28870000000000007,-85.70321054582392
-0.28769999999999996,-84.48655882793999
-0.28670000000000007,-83.18502443206415
-0.28569999999999995,-81.82690158419373
-0.28470000000000006,-80.46877873632329
-0.28369999999999995,-79.16724434044745
-0.28270000000000006,-77.90815128356756
-0.28169999999999995,-76.67735245268499
-0.28070000000000006,-75.54558341279296
-0.27969999999999995,-74.45625571189689
-0.27870000000000006,-73.40936934999675
-0.27769999999999995,-72.44736566608852
-0.27670000000000006,-71.48536198218031
-0.27569999999999995,-70.53750541127073
-0.27470000000000006,-69.61794306635846
-0.27369999999999994,-68.69838072144618
-0.27270000000000005,-67.73637703753796
-0.27169999999999994,-66.77437335362974
-0.27070000000000005,-65.82651678272015
-0.26969999999999994,-64.82207175981598
-0.26870000000000005,-63.860068075907755
-0.26769999999999994,-62.855623053003576
-0.26670000000000005,-61.851178030099405
-0.26569999999999994,-60.889174346191176
