Potential V vs RHE, Current mA cm-2
0.013299999999999867,1.175483619057859
0.012299999999999978,-0.6128529351015338
0.011299999999999866,-2.3144676865791998
0.010299999999999976,-3.971094618721158
0.009299999999999864,-5.5414241615713475
0.008299999999999974,-7.024041603829907
0.007299999999999862,-8.55051509638428
0.006299999999999972,-9.99069119964689
0.00529999999999986,-11.385596541313816
0.0042999999999999705,-12.781916594280606
0.0032999999999998586,-14.13438059695158
0.0022999999999999687,-15.448647394526201
0.0012999999999998568,-16.70774045140608
0.00029999999999996696,-17.924392169290012
-0.000700000000000145,-19.155191000172596
-0.0017000000000000348,-20.286960040064624
-0.0027000000000001467,-21.333846401964752
-0.0037000000000000366,-22.33829142486893
-0.0047000000000001485,-23.342736447773106
-0.005700000000000038,-24.24815167968673
-0.00670000000000015,-25.167714024599
-0.00770000000000004,-26.087276369511276
-0.008700000000000152,-27.049280053419505
-0.009700000000000042,-27.954695285333123
-0.010700000000000154,-28.91669896924135
-0.011700000000000044,-29.836261314153624
-0.012700000000000156,-30.7558236590659
-0.013700000000000045,-31.618797551983565
-0.014700000000000157,-32.45347721890394
-0.015700000000000047,-33.288156885824314
-0.01670000000000016,-34.06624810075008
-0.01770000000000005,-34.90092776767045
-0.01870000000000016,-35.636577643600276
-0.01970000000000005,-36.4288159715247
-0.020700000000000163,-37.07958316946261
-0.021700000000000053,-37.73035036740053
-0.022700000000000164,-38.38111756533845
-0.023700000000000054,-39.08847321527096
-0.024700000000000166,-39.739240413208876
-0.025700000000000056,-40.43244895014274
-0.026700000000000168,-41.04077480908471
-0.027700000000000058,-41.66324778102533
-0.02870000000000017,-42.186690961975394
-0.02970000000000006,-42.71013414292546
-0.03070000000000017,-43.134547532884966
-0.03170000000000006,-43.53066669684718
-0.03270000000000017,-43.88434452181344
-0.03370000000000006,-44.3229050247716
-0.034700000000000175,-44.80390686672572
-0.035700000000000065,-45.36979138667173
-0.03670000000000018,-45.93567590661774
-0.03770000000000007,-46.501560426563756
-0.03870000000000018,-47.067444946509774
-0.03970000000000007,-47.633329466455784
-0.04070000000000018,-48.114331308409895
-0.04170000000000007,-48.59533315036401
-0.04270000000000018,-49.076334992318124
-0.04370000000000007,-49.557336834272235
-0.044700000000000184,-50.024191563227696
-0.045700000000000074,-50.46275206618586
-0.046700000000000186,-50.943753908139975
-0.047700000000000076,-51.424755750094086
-0.04870000000000019,-51.86331625305225
-0.04970000000000008,-52.25943541701445
-0.05070000000000019,-52.59896612898206
-0.05170000000000008,-52.91020261495237
-0.05270000000000019,-53.16485064892808
-0.05370000000000008,-53.433645795902436
-0.05470000000000019,-53.74488228187274
-0.05570000000000008,-53.999530315848446
-0.056700000000000195,-54.31076680181876
-0.057700000000000085,-54.60785617479041
-0.058700000000000196,-54.919092660760725
-0.059700000000000086,-55.17374069473642
-0.0607000000000002,-55.484977180706736
-0.06170000000000009,-55.73962521468245
-0.0627000000000002,-56.093303039648696
-0.06370000000000009,-56.404539525619015
-0.0647000000000002,-56.70162889859067
-0.06570000000000009,-57.05530672355693
-0.0667000000000002,-57.352396096528594
-0.0677000000000001,-57.70607392149485
-0.0687000000000002,-58.017310407465146
-0.0697000000000001,-58.31439978043681
-0.07070000000000021,-58.583194927411164
-0.0717000000000001,-58.83784296138688
-0.07270000000000021,-59.06419676936528
-0.0737000000000001,-59.27640346434504
-0.07470000000000021,-59.502757272323436
-0.0757000000000001,-59.7149639673032
-0.07670000000000021,-59.9696120012789
-0.0777000000000001,-60.19596580925731
-0.07870000000000021,-60.45061384323302
-0.0797000000000001,-60.71940899020737
-0.08070000000000022,-60.974057024183075
-0.0817000000000001,-61.20041083216149
-0.08270000000000022,-61.455058866137186
-0.08370000000000011,-61.72385401311155
-0.08470000000000022,-61.97850204708726
-0.08570000000000011,-62.24729719406162
-0.08670000000000022,-62.544386567033264
-0.08770000000000011,-62.81318171400764
-0.08870000000000022,-63.11027108697928
-0.08970000000000011,-63.37906623395363
-0.09070000000000022,-63.633714267929356
-0.09170000000000011,-63.902509414903705
-0.09270000000000023,-64.15715744887942
-0.09370000000000012,-64.42595259585376
-0.09470000000000023,-64.63815929083353
-0.09570000000000012,-64.82207175981598
-0.09670000000000023,-64.94939577680383
-0.09770000000000012,-65.03427845479574
-0.09870000000000023,-65.11916113278764
-0.09970000000000012,-65.2464851497755
-0.10070000000000023,-65.34551494076604
-0.10170000000000012,-65.43039761875795
-0.10270000000000024,-65.51528029674984
-0.10370000000000013,-65.60016297474175
-0.10470000000000024,-65.76992833072556
-0.10570000000000013,-65.91139946071206
-0.10670000000000024,-66.03872347769992
-0.10770000000000013,-66.16604749468777
-0.10870000000000024,-66.25093017267966
-0.10970000000000013,-66.29337151167562
-0.11070000000000024,-66.29337151167562
-0.11170000000000013,-66.25093017267966
-0.11270000000000002,-66.12360615569182
-0.11370000000000013,-65.99628213870396
-0.11470000000000002,-65.86895812171612
-0.11570000000000014,-65.76992833072556
-0.11670000000000003,-65.64260431373769
-0.11770000000000014,-65.5577216357458
-0.11870000000000003,-65.4728389577539
-0.11970000000000014,-65.34551494076604
-0.12070000000000003,-65.2464851497755
-0.12170000000000014,-65.11916113278764
-0.12270000000000003,-64.99183711579978
-0.12370000000000014,-64.82207175981598
-0.12470000000000003,-64.59571795183757
-0.12570000000000014,-64.38351125685783
-0.12670000000000003,-64.15715744887942
-0.12770000000000015,-63.944950753899654
-0.12870000000000004,-63.732744058919906
-0.12970000000000015,-63.633714267929356
-0.13070000000000004,-63.54883158993744
-0.13170000000000015,-63.5063902509415
-0.13270000000000004,-63.46394891194555
-0.13370000000000015,-63.421507572949594
-0.13470000000000004,-63.421507572949594
-0.13570000000000015,-63.37906623395363
-0.13670000000000004,-63.37906623395363
-0.13770000000000016,-63.421507572949594
-0.13870000000000005,-63.46394891194555
-0.13970000000000016,-63.54883158993744
-0.14070000000000005,-63.59127292893339
-0.14170000000000016,-63.6761556069253
-0.14270000000000005,-63.81762673691181
-0.14370000000000016,-63.944950753899654
-0.14470000000000005,-64.15715744887942
-0.14570000000000016,-64.38351125685783
-0.14670000000000005,-64.55327661284163
-0.14770000000000016,-64.77963042082003
-0.14870000000000005,-64.94939577680383
-0.14970000000000017,-65.0767197937917
-0.15070000000000006,-65.2464851497755
-0.15170000000000017,-65.38795627976201
-0.15270000000000006,-65.5577216357458
-0.15370000000000017,-65.76992833072556
-0.15470000000000006,-65.95384079970802
-0.15570000000000017,-66.16604749468777
-0.15670000000000006,-66.39240130266617
-0.15770000000000017,-66.60460799764593
-0.15870000000000006,-66.87340314462028
-0.15970000000000018,-67.128051178596
-0.16070000000000007,-67.39684632557035
-0.16170000000000018,-67.6090530205501
-0.16270000000000007,-67.82125971552985
-0.16370000000000018,-68.0900548625042
-0.16470000000000007,-68.34470289647993
-0.16570000000000018,-68.61349804345427
-0.16670000000000007,-68.91058741642594
-0.16770000000000018,-69.22182390239624
-0.16870000000000007,-69.53306038836655
-0.16970000000000018,-69.91503243933012
-0.17070000000000007,-70.18382758630447
-0.17170000000000019,-70.48091695927613
-0.17270000000000008,-70.70727076725453
-0.1737000000000002,-70.91947746223428
-0.17470000000000008,-71.10338993121674
-0.1757000000000002,-71.2307139482046
-0.17670000000000008,-71.2307139482046
-0.1777000000000002,-71.27315528720055
-0.17870000000000008,-71.27315528720055
-0.1797000000000002,-71.31559662619651
-0.18070000000000008,-71.31559662619651
-0.1817000000000002,-71.4004793041884
-0.18270000000000008,-71.48536198218031
-0.1837000000000002,-71.7117157901587
-0.1847000000000001,-71.92392248513846
-0.1857000000000002,-72.15027629311687
-0.1867000000000001,-72.32004164910067
-0.1877000000000002,-72.48980700508447
-0.1887000000000001,-72.71616081306288
-0.1897000000000002,-72.8859261690467
-0.1907000000000001,-73.01325018603454
-0.1917000000000001,-73.197162655017
-0.19269999999999998,-73.40936934999675
-0.1937000000000001,-73.62157604497652
-0.19469999999999998,-73.8479298529549
-0.1957000000000001,-74.10257788693062
-0.19669999999999999,-74.37137303390499
-0.1977000000000001,-74.62602106788069
-0.1987,-74.89481621485504
-0.1997000000000001,-75.14946424883075
-0.2007,-75.4182593958051
-0.2017000000000001,-75.6729074297808
-0.2027,-75.94170257675518
-0.2037000000000001,-76.33782174071737
-0.2047,-76.67735245268499
-0.2057000000000001,-77.03103027765125
-0.2067,-77.46959078060941
-0.2077000000000001,-77.76668015358106
-0.2087,-78.20524065653922
-0.2097000000000001,-78.60135982050144
-0.2107,-78.9550376454677
-0.2117000000000001,-79.33700969643127
-0.2127,-79.69068752139752
-0.2137000000000001,-80.00192400736783
-0.2147,-80.29901338033947
-0.2157000000000001,-80.56780852731384
-0.2167,-80.7800152222936
-0.21770000000000012,-81.09125170826391
-0.2187,-81.3458997422396
-0.21970000000000012,-81.61469488921396
-0.2207,-81.91178426218562
-0.22170000000000012,-82.22302074815593
-0.2227,-82.56255146012353
-0.22370000000000012,-82.9162292850898
-0.2247,-83.31234844905201
-0.22570000000000012,-83.70846761301424
-0.2267,-84.09043966397778
-0.22770000000000012,-84.48655882793999
-0.22870000000000001,-84.84023665290624
-0.22970000000000013,-85.17976736487385
-0.23070000000000002,-85.57588652883607
-0.23170000000000013,-85.97200569279828
-0.23270000000000002,-86.32568351776455
-0.23370000000000013,-86.7076555687281
-0.23470000000000002,-87.06133339369435
-0.23570000000000013,-87.45745255765657
-0.23670000000000002,-87.71210059163228
-0.2376999999999999,-87.93845439961068
-0.23870000000000002,-88.19310243358639
-0.2396999999999999,-88.5043389195567
-0.24070000000000003,-88.80142829252836
-0.24169999999999991,-89.11266477849867
-0.24270000000000003,-89.50878394246087
-0.24369999999999992,-89.94734444541903
-0.24470000000000003,-90.32931649638259
-0.24569999999999992,-90.7254356603448
-0.24670000000000003,-91.20643750229891
-0.24769999999999992,-91.68743934425302
-0.24870000000000003,-92.25332386419905
-0.24969999999999992,-92.90409106213696
-0.25070000000000003,-93.55485826007487
-0.2516999999999999,-94.26221391000739
-0.25270000000000004,-94.95542244694126
-0.2536999999999999,-95.60618964487918
-0.25470000000000004,-96.27110395581576
-0.2556999999999999,-96.83698847576176
-0.25670000000000004,-97.36043165671182
-0.25769999999999993,-97.84143349866595
-0.25870000000000004,-98.26584688862545
-0.25969999999999993,-98.74684873057957
-0.26070000000000004,-99.27029191152963
-0.26169999999999993,-99.7937350924797
-0.26270000000000004,-100.35961961242569
-0.26369999999999993,-100.92550413237171
-0.26470000000000005,-101.50553576531638
-0.26569999999999994,-102.07142028526239
-0.26670000000000005,-102.67974614420436
-0.26769999999999994,-103.33051334214227
-0.26870000000000005,-104.02372187907615
-0.26969999999999994,-104.77351886800463
-0.27070000000000005,-105.5516100829304
-0.27169999999999994,-106.38628974985076
-0.27270000000000005,-107.30585209476303
-0.27369999999999994,-108.1688259876807
-0.27470000000000006,-109.08838833259297
-0.27569999999999995,-110.00795067750525
-0.27670000000000006,-110.87092457042293
-0.27769999999999995,-111.83292825433115
-0.27870000000000006,-112.83737327723534
-0.27969999999999995,-113.88425963913545
-0.28070000000000006,-114.97358734003153
-0.28169999999999995,-116.02047370193165
-0.28270000000000006,-117.02491872483584
-0.28369999999999995,-117.98692240874406
-0.28470000000000006,-118.90648475365633
-0.28569999999999995,-119.72701730757805
-0.28670000000000007,-120.56169697449842
-0.28769999999999996,-121.33978818942418
-0.28870000000000007,-122.17446785634456
-0.28969999999999996,-123.00914752326493
-0.29070000000000007,-123.87212141618261
-0.29169999999999996,-124.74924242209892
-0.29270000000000007,-125.62636342801528
-0.29369999999999996,-126.44689598193698
-0.2947000000000001,-127.32401698785328
-0.29569999999999996,-128.144549541775
-0.2967000000000001,-128.89434653070347
-0.29769999999999996,-129.58755506763737
-0.2987000000000001,-130.19588092657932
-0.29969999999999997,-130.90323657651186
-0.3007000000000001,-131.63888645244168
-0.30169999999999997,-132.37453632837148
-0.3027000000000001,-133.12433331729994
-0.30369999999999997,-133.90242453222572
-0.3047000000000001,-134.69466286015015
-0.30569999999999997,-135.47275407507593
-0.3067000000000001,-136.26499240300032
-0.3077,-137.1845547479126
-0.3087000000000001,-138.23144110981272
-0.3097,-139.4056514887007
-0.3107000000000001,-140.62230320658463
-0.3117,-141.89554337646317
-0.3127000000000001,-143.0273124163552
-0.3137,-144.15908145624724
-0.3147000000000001,-145.29085049613926
-0.3157,-146.4226195360313
-0.3167000000000001,-147.6958597059098
-0.3177,-148.82762874580186
-0.3187000000000001,-150.1008689156804
-0.3197,-151.37410908555893
-0.3207000000000001,-152.64734925543743
-0.3217,-153.920589425316
-0.3227000000000001,-155.05235846520802
-0.3237,-156.18412750510007
-0.3247000000000001,-157.45736767497857
-0.3257,-158.73060784485713
-0.3267000000000001,-160.14531914472215
-0.3277,-161.41855931460069
-0.3287000000000001,-162.8332706144657
-0.3297,-164.10651078434424
-0.3307000000000001,-165.5212220842093
-0.3317,-166.79446225408785
-0.3327000000000001,-168.06770242396635
-0.3337,-169.19947146385837
-0.3347000000000001,-170.47271163373694
-0.3357,-171.74595180361547
-0.3367000000000001,-173.01919197349397
-0.3377,-174.2924321433725
-0.3387000000000001,-175.56567231325104
-0.3397,-176.55597022315658
-0.3407000000000001,-177.54626813306209
-0.3417,-178.1121526530081
-0.3427000000000001,-178.81950830294062
-0.3437,-179.38539282288664
-0.3447000000000001,-180.09274847281918
-0.3457,-180.8001041227517
-0.3467000000000001,-181.36598864269772
-0.3477,-182.07334429263022
-0.3487000000000001,-182.78069994256273
-0.3497,-183.34658446250873
-0.3507000000000001,-184.19541124242778
-0.3517,-185.0442380223468
-0.3527000000000001,-185.89306480226583
-0.3537,-186.60042045219836
-0.3547000000000001,-187.30777610213087
-0.3557,-187.87366062207687
-0.35670000000000013,-188.58101627200938
-0.3577,-189.1469007919554
-0.35870000000000013,-189.71278531190143
-0.3597,-190.27866983184742
-0.36070000000000013,-190.98602548177996
-0.3617,-191.83485226169896
-0.3626999999999999,-192.683679041618
-0.3637,-193.6739769515235
-0.3646999999999999,-194.38133260145605
-0.3657,-194.94721712140205
-0.3666999999999999,-195.79604390132107
-0.3677,-196.6448706812401
-0.3686999999999999,-197.77663972113214
-0.36970000000000003,-198.90840876102413
-0.3706999999999999,-200.04017780091618
-0.37170000000000003,-201.31341797079472
-0.3726999999999999,-202.44518701068677
-0.37370000000000003,-203.71842718056527
-0.3746999999999999,-205.13313848043032
-0.37570000000000003,-206.54784978029537
-0.3766999999999999,-207.96256108016038
-0.37770000000000004,-209.37727238002543
-0.3786999999999999,-210.50904141991748
-0.37970000000000004,-211.782281589796
-0.3806999999999999,-213.19699288966103
-0.38170000000000004,-214.61170418952605
-0.38269999999999993,-215.88494435940459
-0.38370000000000004,-217.15818452928315
-0.38469999999999993,-218.28995356917517
-0.38570000000000004,-219.7046648690402
-0.38669999999999993,-219.8461359990267
-0.38570000000000004,-218.00701130920217
-0.38469999999999993,-216.3093577493641
-0.38370000000000004,-214.61170418952605
-0.38269999999999993,-212.914050629688
-0.38170000000000004,-211.35786819983647
-0.3806999999999999,-209.8016857699849
-0.37970000000000004,-208.24550334013338
-0.3786999999999999,-206.83079204026836
-0.37770000000000004,-205.41608074040332
-0.3766999999999999,-204.2843117005113
-0.37570000000000003,-203.01107153063276
-0.3746999999999999,-201.73783136075423
-0.37370000000000003,-200.4645911908757
-0.3726999999999999,-199.04987989101065
-0.37170000000000003,-197.63516859114563
-0.3706999999999999,-195.93751503130758
-0.36970000000000003,-194.2398614714695
-0.3686999999999999,-192.683679041618
-0.3677,-190.98602548177996
-0.3666999999999999,-189.57131418191491
-0.3657,-187.73218949209036
-0.3646999999999999,-186.03453593225234
-0.3637,-184.19541124242778
-0.3626999999999999,-182.49775768258974
-0.3617,-180.94157525273818
-0.36070000000000013,-179.38539282288664
-0.3597,-177.9706815230216
-0.35870000000000013,-176.6974413531431
-0.3577,-175.28273005327804
-0.35670000000000013,-173.72654762342648
-0.3557,-172.31183632356147
-0.3547000000000001,-171.18006728366944
-0.3537,-170.18976937376394
-0.3527000000000001,-169.3409425938449
-0.3517,-168.49211581392586
-0.3507000000000001,-167.6432890340068
-0.3497,-166.65299112410133
-0.3487000000000001,-165.6626932141958
-0.3477,-164.38945304431726
-0.3467000000000001,-162.97474174445222
-0.3457,-161.41855931460069
-0.3447000000000001,-159.86237688474912
-0.3437,-158.4476655848841
-0.3427000000000001,-157.31589654499206
-0.3417,-156.18412750510007
-0.3407000000000001,-155.19382959519453
-0.3397,-154.0620605553025
-0.3387000000000001,-152.93029151541046
-0.3377,-151.65705134553193
-0.3367000000000001,-150.38381117565342
-0.3357,-148.82762874580186
-0.3347000000000001,-147.4129174459368
-0.3337,-145.9982061460718
-0.3327000000000001,-144.44202371622026
-0.3317,-143.16878354634173
-0.3307000000000001,-142.03701450644968
-0.3297,-140.79206856256846
-0.3287000000000001,-139.57541684468453
-0.3277,-138.3163237878046
-0.3267000000000001,-137.04308361792607
-0.3257,-135.82643190004217
-0.3247000000000001,-134.56733884316228
-0.3237,-133.4214226902716
-0.3227000000000001,-132.20477097238768
-0.3217,-130.98811925450374
-0.3207000000000001,-129.75732042362114
-0.3197,-128.5831100447332
-0.3187000000000001,-127.36645832684925
-0.3177,-126.09321815697072
-0.3167000000000001,-124.91900777808273
-0.3157,-123.74479739919475
-0.3147000000000001,-122.57058702030677
-0.3137,-121.38222952842017
-0.3127000000000001,-120.20801914953216
-0.3117,-118.94892609265229
-0.3107000000000001,-117.63324458377778
-0.3097,-116.33171018790196
-0.3087000000000001,-115.01602867902749
-0.3077,-113.71449428315165
-0.3067000000000001,-112.39881277427718
-0.30569999999999997,-111.05483703940537
-0.3047000000000001,-109.69671419153494
-0.30369999999999997,-108.35273845666316
-0.3027000000000001,-106.95217426979677
-0.30169999999999997,-105.59405142192634
-0.3007000000000001,-104.25007568705455
-0.29969999999999997,-102.93439417818009
-0.2987000000000001,-101.59041844330828
-0.29769999999999996,-100.23229559543785
-0.2967000000000001,-98.93076119956201
-0.29569999999999996,-97.57263835169158
-0.2947000000000001,-96.21451550382113
-0.29369999999999996,-94.87053976894937
-0.29270000000000007,-93.51241692107894
-0.29169999999999996,-92.16844118620713
-0.29070000000000007,-90.89520101632861
-0.28969999999999996,-89.67854929844468
-0.28870000000000007,-88.5043389195567
-0.28769999999999996,-87.37256987966467
-0.28670000000000007,-86.32568351776455
-0.28569999999999995,-85.23635581686847
-0.28470000000000006,-84.18946945496833
-0.28369999999999995,-83.14258309306821
-0.28270000000000006,-81.95422560118158
-0.28169999999999995,-80.82245656128954
-0.28070000000000006,-79.73312886039348
-0.27969999999999995,-78.60135982050144
-0.27870000000000006,-77.51203211960537
-0.27769999999999995,-76.46514575770523
-0.27670000000000006,-75.33337671781321
-0.27569999999999995,-74.24404901691713
-0.27470000000000006,-73.09813286402644
-0.27369999999999994,-71.96636382413442
-0.27270000000000005,-70.87703612323833
-0.27169999999999994,-69.78770842234226
-0.27070000000000005,-68.74082206044213
-0.26969999999999994,-67.65149435954605
-0.26870000000000005,-66.60460799764593
-0.26769999999999994,-65.5577216357458
-0.26670000000000005,-64.42595259585376
