Potential V vs RHE, Current mA cm-2
0.013299999999999867,0.5211796428702795
0.012299999999999978,-0.26384365742482935
0.011299999999999866,-0.7872868383748929
0.010299999999999976,-1.3107300193249565
0.009299999999999864,-1.7033124050375041
0.008299999999999974,-2.1390434853959355
0.007299999999999862,-2.4884771764625997
0.006299999999999972,-2.794054817233447
0.00529999999999986,-3.0996324580042955
0.0042999999999999705,-3.403795387475278
0.0032999999999998586,-3.6655169779503103
0.0022999999999999687,-3.884797229429391
0.0012999999999998568,-4.146518819904423
0.00029999999999996696,-4.364384360083638
-0.000700000000000145,-4.582249900262854
-0.0017000000000000348,-4.756259390146253
-0.0027000000000001467,-4.9302688800296535
-0.0037000000000000366,-5.0618370309171015
-0.0047000000000001485,-5.235846520800501
-0.005700000000000038,-5.367414671687949
-0.00670000000000015,-5.453712060979717
-0.00770000000000004,-5.629136262162981
-0.008700000000000152,-5.715433651454749
-0.009700000000000042,-5.80314575204638
-0.010700000000000154,-5.9347139029338285
-0.011700000000000044,-6.021011292225596
-0.012700000000000156,-6.108723392817228
-0.013700000000000045,-6.196435493408861
-0.014700000000000157,-6.238876832404812
-0.015700000000000047,-6.37044498329226
-0.01670000000000016,-6.458157083883892
-0.01770000000000005,-6.54445447317566
-0.01870000000000016,-6.632166573767292
-0.01970000000000005,-6.719878674358924
-0.020700000000000163,-6.806176063650692
-0.021700000000000053,-6.893888164242324
-0.022700000000000164,-7.024041603829907
-0.023700000000000054,-7.155609754717355
-0.024700000000000166,-7.28576319430494
-0.025700000000000056,-7.37347529489657
-0.026700000000000168,-7.461187395488204
-0.027700000000000058,-7.591340835075788
-0.02870000000000017,-7.722908985963235
-0.02970000000000006,-7.896918475846635
-0.03070000000000017,-7.984630576438266
-0.03170000000000006,-8.11478401602585
-0.03270000000000017,-8.288793505909249
-0.03370000000000006,-8.464217707092514
-0.034700000000000175,-8.638227196975913
-0.035700000000000065,-8.812236686859313
-0.03670000000000018,-9.031516938338395
-0.03770000000000007,-9.293238528813426
-0.03870000000000018,-9.55496011928846
-0.03970000000000007,-9.81668170976349
-0.04070000000000018,-10.078403300238522
-0.04170000000000007,-10.340124890713554
-0.04270000000000018,-10.601846481188586
-0.04370000000000007,-10.863568071663616
-0.044700000000000184,-11.081433611842833
-0.045700000000000074,-11.343155202317865
-0.046700000000000186,-11.604876792792895
-0.047700000000000076,-11.86659838326793
-0.04870000000000019,-12.12831997374296
-0.04970000000000008,-12.390041564217992
-0.05070000000000019,-12.694204493688973
-0.05170000000000008,-12.955926084164007
-0.05270000000000019,-13.217647674639037
-0.05370000000000008,-13.523225315409885
-0.05470000000000019,-13.828802956180734
-0.05570000000000008,-14.13438059695158
-0.056700000000000195,-14.444202371622024
-0.057700000000000085,-14.741291744593681
-0.058700000000000196,-15.137410908555893
-0.059700000000000086,-15.491088733522153
-0.0607000000000002,-15.78817810649381
-0.06170000000000009,-16.141855931460068
-0.0627000000000002,-16.53797509542228
-0.06370000000000009,-16.877505807389888
-0.0647000000000002,-17.188742293360193
-0.06570000000000009,-17.542420118326454
-0.0667000000000002,-17.881950830294063
-0.0677000000000001,-18.23562865526032
-0.0687000000000002,-18.53271802823198
-0.0697000000000001,-18.843954514202288
-0.07070000000000021,-19.155191000172596
-0.0717000000000001,-19.452280373144255
-0.07270000000000021,-19.763516859114564
-0.0737000000000001,-20.06060623208622
-0.07470000000000021,-20.329401379060574
-0.0757000000000001,-20.626490752032236
-0.07670000000000021,-20.89528589900659
-0.0777000000000001,-21.149933932982297
-0.07870000000000021,-21.418729079956652
-0.0797000000000001,-21.63093577493641
-0.08070000000000022,-21.857289582914817
-0.0817000000000001,-22.069496277894572
-0.08270000000000022,-22.253408746877028
-0.08370000000000011,-22.42317410286083
-0.08470000000000022,-22.592939458844636
-0.08570000000000011,-22.776851927827092
-0.08670000000000022,-22.946617283810895
-0.08770000000000011,-23.15882397879065
-0.08870000000000022,-23.300295108777156
-0.08970000000000011,-23.47006046476096
-0.09070000000000022,-23.639825820744765
-0.09170000000000011,-23.823738289727217
-0.09270000000000023,-23.951062306715073
-0.09370000000000012,-24.120827662698876
-0.09470000000000023,-24.24815167968673
-0.09570000000000012,-24.389622809673234
-0.09670000000000023,-24.516946826661083
-0.09770000000000012,-24.64427084364894
-0.09870000000000023,-24.814036199632742
-0.09970000000000012,-24.95550732961925
-0.10070000000000023,-25.0828313466071
-0.10170000000000012,-25.210155363594954
-0.10270000000000024,-25.39406783257741
-0.10370000000000013,-25.563833188561212
-0.10470000000000024,-25.691157205549064
-0.10570000000000013,-25.81848122253692
-0.10670000000000024,-25.959952352523427
-0.10770000000000013,-26.087276369511276
-0.10870000000000024,-26.21460038649913
-0.10970000000000013,-26.34192440348698
-0.11070000000000024,-26.483395533473487
-0.11170000000000013,-26.568278211465387
-0.11270000000000002,-26.738043567449193
-0.11370000000000013,-26.907808923433
-0.11470000000000002,-27.091721392415455
-0.11570000000000014,-27.176604070407354
-0.11670000000000003,-27.261486748399253
-0.11770000000000014,-27.303928087395207
-0.11870000000000003,-27.38881076538711
-0.11970000000000014,-27.43125210438306
-0.12070000000000003,-27.530281895373616
-0.12170000000000014,-27.572723234369565
-0.12270000000000003,-27.65760591236147
-0.12370000000000014,-27.742488590353368
-0.12470000000000003,-27.827371268345274
-0.12570000000000014,-27.869812607341224
-0.12670000000000003,-27.912253946337174
-0.12770000000000015,-27.954695285333123
-0.12870000000000004,-28.011283737327723
-0.12970000000000015,-28.05372507632368
-0.13070000000000004,-28.13860775431558
-0.13170000000000015,-28.22349043230748
-0.13270000000000004,-28.265931771303435
-0.13370000000000015,-28.350814449295335
-0.13470000000000004,-28.393255788291288
-0.13570000000000015,-28.435697127287238
-0.13670000000000004,-28.53472691827779
-0.13770000000000016,-28.577168257273744
-0.13870000000000005,-28.619609596269694
-0.13970000000000016,-28.704492274261593
-0.14070000000000005,-28.746933613257543
-0.14170000000000016,-28.8742576302454
-0.14270000000000005,-28.91669896924135
-0.14370000000000016,-29.001581647233255
-0.14470000000000005,-29.100611438223805
-0.14570000000000016,-29.14305277721976
-0.14670000000000005,-29.22793545521166
-0.14770000000000016,-29.31281813320356
-0.14870000000000005,-29.35525947219951
-0.14970000000000017,-29.39770081119546
-0.15070000000000006,-29.482583489187363
-0.15170000000000017,-29.581613280177915
-0.15270000000000006,-29.62405461917387
-0.15370000000000017,-29.708937297165768
-0.15470000000000006,-29.708937297165768
-0.15570000000000017,-29.751378636161718
-0.15670000000000006,-29.751378636161718
-0.15770000000000017,-29.751378636161718
-0.15870000000000006,-29.751378636161718
-0.15970000000000018,-29.751378636161718
-0.16070000000000007,-29.793819975157668
-0.16170000000000018,-29.793819975157668
-0.16270000000000007,-29.793819975157668
-0.16370000000000018,-29.793819975157668
-0.16470000000000007,-29.793819975157668
-0.16570000000000018,-29.793819975157668
-0.16670000000000007,-29.793819975157668
-0.16770000000000018,-29.793819975157668
-0.16870000000000007,-29.793819975157668
-0.16970000000000018,-29.793819975157668
-0.17070000000000007,-29.793819975157668
-0.17170000000000019,-29.793819975157668
-0.17270000000000008,-29.836261314153624
-0.1737000000000002,-29.836261314153624
-0.17470000000000008,-29.836261314153624
-0.1757000000000002,-29.793819975157668
-0.17670000000000008,-29.836261314153624
-0.1777000000000002,-29.836261314153624
-0.17870000000000008,-29.878702653149578
-0.1797000000000002,-29.878702653149578
-0.18070000000000008,-29.921143992145527
-0.1817000000000002,-29.921143992145527
-0.18270000000000008,-30.00602667013743
-0.1837000000000002,-30.00602667013743
-0.1847000000000001,-30.00602667013743
-0.1857000000000002,-30.00602667013743
-0.1867000000000001,-30.04846800913338
-0.1877000000000002,-30.04846800913338
-0.1887000000000001,-30.10505646112798
-0.1897000000000002,-30.147497800123933
-0.1907000000000001,-30.189939139119886
-0.1917000000000001,-30.147497800123933
-0.19269999999999998,-30.147497800123933
-0.1937000000000001,-30.10505646112798
-0.19469999999999998,-30.04846800913338
-0.1957000000000001,-30.00602667013743
-0.19669999999999999,-29.921143992145527
-0.1977000000000001,-29.878702653149578
-0.1987,-29.878702653149578
-0.1997000000000001,-29.836261314153624
-0.2007,-29.836261314153624
-0.2017000000000001,-29.793819975157668
-0.2027,-29.793819975157668
-0.2037000000000001,-29.751378636161718
-0.2047,-29.751378636161718
-0.2057000000000001,-29.708937297165768
-0.2067,-29.66649595816982
-0.2077000000000001,-29.62405461917387
-0.2087,-29.581613280177915
-0.2097000000000001,-29.525024828183312
-0.2107,-29.525024828183312
-0.2117000000000001,-29.482583489187363
-0.2127,-29.482583489187363
-0.2137000000000001,-29.482583489187363
-0.2147,-29.482583489187363
-0.2157000000000001,-29.525024828183312
-0.2167,-29.581613280177915
-0.21770000000000012,-29.581613280177915
-0.2187,-29.581613280177915
-0.21970000000000012,-29.581613280177915
-0.2207,-29.525024828183312
-0.22170000000000012,-29.525024828183312
-0.2227,-29.525024828183312
-0.22370000000000012,-29.581613280177915
-0.2247,-29.62405461917387
-0.22570000000000012,-29.66649595816982
-0.2267,-29.708937297165768
-0.22770000000000012,-29.793819975157668
-0.22870000000000001,-29.793819975157668
-0.22970000000000013,-29.793819975157668
-0.23070000000000002,-29.793819975157668
-0.23170000000000013,-29.708937297165768
-0.23270000000000002,-29.66649595816982
-0.23370000000000013,-29.62405461917387
-0.23470000000000002,-29.581613280177915
-0.23570000000000013,-29.62405461917387
-0.23670000000000002,-29.62405461917387
-0.2376999999999999,-29.708937297165768
-0.23870000000000002,-29.66649595816982
-0.2396999999999999,-29.66649595816982
-0.24070000000000003,-29.66649595816982
-0.24169999999999991,-29.62405461917387
-0.24270000000000003,-29.62405461917387
-0.24369999999999992,-29.62405461917387
-0.24470000000000003,-29.62405461917387
-0.24569999999999992,-29.66649595816982
-0.24670000000000003,-29.66649595816982
-0.24769999999999992,-29.708937297165768
-0.24870000000000003,-29.751378636161718
-0.24969999999999992,-29.793819975157668
-0.25070000000000003,-29.836261314153624
-0.2516999999999999,-29.878702653149578
-0.25270000000000004,-29.921143992145527
-0.2536999999999999,-30.00602667013743
-0.25470000000000004,-30.04846800913338
-0.2556999999999999,-30.10505646112798
-0.25670000000000004,-30.189939139119886
-0.25769999999999993,-30.274821817111786
-0.25870000000000004,-30.359704495103685
-0.25969999999999993,-30.444587173095588
-0.26070000000000004,-30.529469851087494
-0.26169999999999993,-30.614352529079397
-0.26270000000000004,-30.7558236590659
-0.26369999999999993,-30.8407063370578
-0.26470000000000005,-31.010471693041605
-0.26569999999999994,-31.095354371033505
-0.26670000000000005,-31.19438416202406
-0.26769999999999994,-31.23682550102001
-0.26870000000000005,-31.321708179011907
-0.26969999999999994,-31.36414951800786
-0.27070000000000005,-31.40659085700382
-0.27169999999999994,-31.49147353499572
-0.27270000000000005,-31.57635621298762
-0.27369999999999994,-31.661238890979522
-0.27470000000000006,-31.802710020966025
-0.27569999999999995,-31.887592698957924
-0.27670000000000006,-31.972475376949827
-0.27769999999999995,-32.01491671594578
-0.27870000000000006,-32.09979939393769
-0.27969999999999995,-32.184682071929586
-0.28070000000000006,-32.368594540912035
-0.28169999999999995,-32.45347721890394
-0.28270000000000006,-32.58080123589179
-0.28369999999999995,-32.70812525287965
-0.28470000000000006,-32.892037721862096
-0.28569999999999995,-33.06180307784591
-0.28670000000000007,-33.18912709483376
-0.28769999999999996,-33.330598224820264
-0.28870000000000007,-33.50036358080407
-0.28969999999999996,-33.627687597791926
-0.29070000000000007,-33.81160006677438
-0.29169999999999996,-34.02380676175414
-0.29270000000000007,-34.236013456733886
-0.29369999999999996,-34.462367264712285
-0.2947000000000001,-34.632132620696105
-0.29569999999999996,-34.85848642867451
-0.2967000000000001,-35.07069312365426
-0.29769999999999996,-35.32534115762997
-0.2987000000000001,-35.50925362661242
-0.29969999999999997,-35.763901660588125
-0.3007000000000001,-35.99025546856653
-0.30169999999999997,-36.28734484153819
-0.3027000000000001,-36.5136986495166
-0.30369999999999997,-36.768346683492304
-0.3047000000000001,-36.99470049147071
-0.30569999999999997,-37.206907186450465
-0.3067000000000001,-37.41911388143023
-0.3077,-37.645467689408626
-0.3087000000000001,-37.81523304539243
-0.3097,-38.04158685337084
-0.3107000000000001,-38.253793548350586
-0.3117,-38.522588695324956
-0.3127000000000001,-38.777236729300654
-0.3137,-38.98944342428042
-0.3147000000000001,-39.21579723225882
-0.3157,-39.42800392723857
-0.3167000000000001,-39.696799074212926
-0.3177,-39.95144710818864
-0.3187000000000001,-40.220242255162994
-0.3197,-40.51733162813464
-0.3207000000000001,-40.78612677510901
-0.3217,-41.04077480908471
-0.3227000000000001,-41.352011295055014
-0.3237,-41.606659329030734
-0.3247000000000001,-41.91789581500104
-0.3257,-42.2715736399673
-0.3267000000000001,-42.568663012938956
-0.3277,-42.96478217690117
-0.3287000000000001,-43.36090134086337
-0.3297,-43.75702050482558
-0.3307000000000001,-44.096551216793195
-0.3317,-44.4926703807554
-0.3327000000000001,-44.88878954471762
-0.3337,-45.22832025668522
-0.3347000000000001,-45.581998081651484
-0.3357,-45.97811724561369
-0.3367000000000001,-46.37423640957591
-0.3377,-46.75620846053947
-0.3387000000000001,-47.23721030249357
-0.3397,-47.67577080545174
-0.3407000000000001,-48.156772647405845
-0.3417,-48.59533315036401
-0.3427000000000001,-48.89242252333566
-0.3437,-49.28854168729788
-0.3447000000000001,-49.642219512264134
-0.3457,-49.98175022423175
-0.3467000000000001,-50.29298671020206
-0.3477,-50.68910587416426
-0.3487000000000001,-51.127666377122424
-0.3497,-51.55207976708194
-0.3507000000000001,-51.990640270040096
-0.3517,-52.34431809500636
-0.3527000000000001,-52.74043725896857
-0.3537,-53.079967970936174
-0.3547000000000001,-53.476087134898386
-0.3557,-53.872206298860604
-0.35670000000000013,-54.31076680181876
-0.3577,-54.69273885278232
-0.35870000000000013,-55.17374069473642
-0.3597,-55.65474253669055
-0.36070000000000013,-56.13574437864466
-0.3617,-56.61674622059877
-0.3626999999999999,-57.097748062552874
-0.3637,-57.57874990450699
-0.3646999999999999,-58.05975174646111
-0.3657,-58.54075358841522
-0.3666999999999999,-59.06419676936528
-0.3677,-59.587639950315335
-0.3686999999999999,-60.15352447026136
-0.36970000000000003,-60.71940899020737
-0.3706999999999999,-61.242852171157445
-0.37170000000000003,-61.851178030099405
-0.3726999999999999,-62.41706255004542
-0.37370000000000003,-62.98294706999144
-0.3746999999999999,-63.54883158993744
-0.37570000000000003,-64.0722747708875
-0.3766999999999999,-64.68060062982947
-0.37770000000000004,-65.34551494076604
-0.3786999999999999,-65.91139946071206
-0.37970000000000004,-66.51972531965401
-0.3806999999999999,-67.00072716160814
-0.38170000000000004,-67.52417034255821
-0.38269999999999993,-68.04761352350828
-0.38370000000000004,-68.52861536546239
-0.38469999999999993,-69.0096172074165
-0.38570000000000004,-69.53306038836655
-0.38669999999999993,-69.3491479193841
-0.38570000000000004,-67.96273084551636
-0.38469999999999993,-66.73193201463377
-0.38370000000000004,-65.51528029674984
-0.38269999999999993,-64.34106991786187
-0.38170000000000004,-63.29418355596174
-0.3806999999999999,-62.28973853305756
-0.37970000000000004,-61.37017618814529
-0.3786999999999999,-60.49305518222897
-0.37770000000000004,-59.6300812893113
-0.3766999999999999,-58.83784296138688
-0.37570000000000003,-58.05975174646111
-0.3746999999999999,-57.22507207954074
-0.37370000000000003,-56.489422203610914
-0.3726999999999999,-55.73962521468245
-0.37170000000000003,-54.961533999756675
-0.3706999999999999,-54.26832546282281
-0.36970000000000003,-53.56096981289029
-0.3686999999999999,-52.91020261495237
-0.3677,-52.25943541701445
-0.3666999999999999,-51.594521106077885
-0.3657,-50.98619524713592
-0.3646999999999999,-50.37786938819396
-0.3637,-49.68466085126009
-0.3626999999999999,-49.03389365332217
-0.3617,-48.41142068138156
-0.36070000000000013,-47.76065348344364
-0.3597,-47.19476896349763
-0.35870000000000013,-46.628884443551605
-0.3577,-46.10544126260155
-0.35670000000000013,-45.497115403659585
-0.3557,-44.84634820572166
-0.3547000000000001,-44.181433894785094
-0.3537,-43.53066669684718
-0.3527000000000001,-42.837458159913304
-0.3517,-42.130102509980794
-0.3507000000000001,-41.47933531204288
-0.3497,-40.87100945310091
-0.3487000000000001,-40.30512493315489
-0.3477,-39.696799074212926
-0.3467000000000001,-39.130914554266916
-0.3457,-38.522588695324956
-0.3447000000000001,-37.90011572338433
-0.3437,-37.291789864442364
-0.3427000000000001,-36.6834640055004
-0.3417,-36.11757948555439
-0.3407000000000001,-35.50925362661242
-0.3397,-34.90092776767045
-0.3387000000000001,-34.377484586720385
-0.3377,-33.81160006677438
-0.3367000000000001,-33.288156885824314
-0.3357,-32.70812525287965
-0.3347000000000001,-32.184682071929586
-0.3337,-31.717827342974125
-0.3327000000000001,-31.19438416202406
-0.3317,-30.670940981073993
-0.3307000000000001,-30.189939139119886
-0.3297,-29.66649595816982
-0.3287000000000001,-29.18549411621571
-0.3277,-28.662050935265643
-0.3267000000000001,-28.18104909331153
-0.3257,-27.65760591236147
-0.3247000000000001,-27.219045409403304
-0.3237,-26.69560222845324
-0.3227000000000001,-26.257041725495082
-0.3217,-25.81848122253692
-0.3207000000000001,-25.39406783257741
-0.3197,-24.95550732961925
-0.3187000000000001,-24.474505487665134
-0.3177,-23.993503645711023
-0.3167000000000001,-23.47006046476096
-0.3157,-22.946617283810895
-0.3147000000000001,-22.42317410286083
-0.3137,-21.94217226090672
-0.3127000000000001,-21.461170418952605
-0.3117,-21.022609915994444
-0.3107000000000001,-20.584049413036283
-0.3097,-20.159636023076775
-0.3087000000000001,-19.721075520118614
-0.3077,-19.2400736781645
-0.3067000000000001,-18.759071836210385
-0.30569999999999997,-18.320511333252224
-0.3047000000000001,-17.881950830294063
-0.30369999999999997,-17.4433903273359
-0.3027000000000001,-17.018976937376394
-0.30169999999999997,-16.622857773414182
-0.3007000000000001,-16.184297270456018
-0.29969999999999997,-15.78817810649381
-0.2987000000000001,-15.3920589425316
-0.29769999999999996,-15.01008689156804
-0.2967000000000001,-14.61396772760583
-0.29569999999999996,-14.217848563643619
-0.2947000000000001,-13.828802956180734
-0.29369999999999996,-13.47936926511407
-0.29270000000000007,-13.087494235051453
-0.29169999999999996,-12.694204493688973
-0.29070000000000007,-12.302329463626359
-0.28969999999999996,-11.952895772559694
-0.28870000000000007,-11.56102074249708
-0.28769999999999996,-11.211587051430415
-0.28670000000000007,-10.863568071663616
-0.28569999999999995,-10.514134380596953
-0.28470000000000006,-10.164700689530287
-0.28369999999999995,-9.81668170976349
-0.28270000000000006,-9.511104068992642
-0.28169999999999995,-9.161670377925978
-0.28070000000000006,-8.812236686859313
-0.27969999999999995,-8.508073757388331
-0.27870000000000006,-8.11478401602585
-0.27769999999999995,-7.809206375255003
-0.27670000000000006,-7.461187395488204
-0.27569999999999995,-7.111753704421539
-0.27470000000000006,-6.806176063650692
-0.27369999999999994,-6.500598422879844
-0.27270000000000005,-6.196435493408861
-0.27169999999999994,-5.890857852638012
-0.27070000000000005,-5.585280211867165
-0.26969999999999994,-5.323558621392133
-0.26870000000000005,-5.017980980621284
-0.26769999999999994,-4.756259390146253
