Potential V vs RHE, Current mA cm-2
0.013299999999999867,0.6084673300719523
0.012299999999999978,-0.08943804837746762
0.011299999999999866,-0.6128529351015338
0.010299999999999976,-1.0925815368857679
0.009299999999999864,-1.4854468648582886
0.008299999999999974,-1.8334658446250875
0.007299999999999862,-2.1390434853959355
0.006299999999999972,-2.4446211261667834
0.00529999999999986,-2.706342716641815
0.0042999999999999705,-2.924208256821031
0.0032999999999998586,-3.1859298472960624
0.0022999999999999687,-3.403795387475278
0.0012999999999998568,-3.579219588658543
0.00029999999999996696,-3.7532290785419424
-0.000700000000000145,-3.927238568425342
-0.0017000000000000348,-4.102662769608606
-0.0027000000000001467,-4.23281620919619
-0.0037000000000000366,-4.3205283097878215
-0.0047000000000001485,-4.450681749375406
-0.005700000000000038,-4.538393849967037
-0.00670000000000015,-4.668547289554621
-0.00770000000000004,-4.756259390146253
-0.008700000000000152,-4.843971490737885
-0.009700000000000042,-4.887827541033701
-0.010700000000000154,-4.974124930325469
-0.011700000000000044,-5.0618370309171015
-0.012700000000000156,-5.149549131508733
-0.013700000000000045,-5.235846520800501
-0.014700000000000157,-5.279702571096316
-0.015700000000000047,-5.367414671687949
-0.01670000000000016,-5.453712060979717
-0.01770000000000005,-5.585280211867165
-0.01870000000000016,-5.672992312458796
-0.01970000000000005,-5.759289701750564
-0.020700000000000163,-5.890857852638012
-0.021700000000000053,-5.977155241929781
-0.022700000000000164,-6.108723392817228
-0.023700000000000054,-6.196435493408861
-0.024700000000000166,-6.326588932996443
-0.025700000000000056,-6.458157083883892
-0.026700000000000168,-6.588310523471475
-0.027700000000000058,-6.719878674358924
-0.02870000000000017,-6.893888164242324
-0.02970000000000006,-7.024041603829907
-0.03070000000000017,-7.199465805013171
-0.03170000000000006,-7.37347529489657
-0.03270000000000017,-7.591340835075788
-0.03370000000000006,-7.7653503249591855
-0.034700000000000175,-7.984630576438266
-0.035700000000000065,-8.202496116617484
-0.03670000000000018,-8.464217707092514
-0.03770000000000007,-8.68208324727173
-0.03870000000000018,-8.943804837746763
-0.03970000000000007,-9.161670377925978
-0.04070000000000018,-9.379535918105192
-0.04170000000000007,-9.641257508580225
-0.04270000000000018,-9.85912304875944
-0.04370000000000007,-10.078403300238522
-0.044700000000000184,-10.296268840417738
-0.045700000000000074,-10.514134380596953
-0.046700000000000186,-10.775855971071984
-0.047700000000000076,-11.037577561547016
-0.04870000000000019,-11.255443101726232
-0.04970000000000008,-11.517164692201263
-0.05070000000000019,-11.778886282676295
-0.05170000000000008,-12.040607873151327
-0.05270000000000019,-12.346185513922174
-0.05370000000000008,-12.607907104397206
-0.05470000000000019,-12.913484745168056
-0.05570000000000008,-13.217647674639037
-0.056700000000000195,-13.567081365705702
-0.057700000000000085,-13.828802956180734
-0.058700000000000196,-14.13438059695158
-0.059700000000000086,-14.486643710617974
-0.0607000000000002,-14.783733083589633
-0.06170000000000009,-15.094969569559943
-0.0627000000000002,-15.3920589425316
-0.06370000000000009,-15.70329542850191
-0.0647000000000002,-15.91550212348166
-0.06570000000000009,-16.184297270456018
-0.0667000000000002,-16.396503965435777
-0.0677000000000001,-16.622857773414182
-0.0687000000000002,-16.792623129397985
-0.0697000000000001,-17.018976937376394
-0.07070000000000021,-17.188742293360193
-0.0717000000000001,-17.40094898833995
-0.07270000000000021,-17.627302796318357
-0.0737000000000001,-17.797068152302163
-0.07470000000000021,-18.009274847281915
-0.0757000000000001,-18.15074597726842
-0.07670000000000021,-18.320511333252224
-0.0777000000000001,-18.44783535024008
-0.07870000000000021,-18.631747819222536
-0.0797000000000001,-18.80151317520634
-0.08070000000000022,-19.01371987018609
-0.0817000000000001,-19.197632339168546
-0.08270000000000022,-19.409839034148305
-0.08370000000000011,-19.579604390132108
-0.08470000000000022,-19.678634181122664
-0.08570000000000011,-19.805958198110513
-0.08670000000000022,-19.93328221509837
-0.08770000000000011,-20.10304757108217
-0.08870000000000022,-20.286960040064624
-0.08970000000000011,-20.456725396048434
-0.09070000000000022,-20.584049413036283
-0.09170000000000011,-20.72552054302279
-0.09270000000000023,-20.85284456001064
-0.09370000000000012,-20.89528589900659
-0.09470000000000023,-20.980168576998494
-0.09570000000000012,-20.980168576998494
-0.09670000000000023,-21.065051254990397
-0.09770000000000012,-21.149933932982297
-0.09870000000000023,-21.248963723972853
-0.09970000000000012,-21.333846401964752
-0.10070000000000023,-21.418729079956652
-0.10170000000000012,-21.503611757948562
-0.10270000000000024,-21.54605309694451
-0.10370000000000013,-21.63093577493641
-0.10470000000000024,-21.67337711393236
-0.10570000000000013,-21.772406904922917
-0.10670000000000024,-21.857289582914817
-0.10770000000000013,-21.94217226090672
-0.10870000000000024,-22.027054938898623
-0.10970000000000013,-22.15437895588647
-0.11070000000000024,-22.253408746877028
-0.11170000000000013,-22.33829142486893
-0.11270000000000002,-22.46561544185678
-0.11370000000000013,-22.550498119848687
-0.11470000000000002,-22.63538079784059
-0.11570000000000014,-22.67782213683654
-0.11670000000000003,-22.819293266823045
-0.11770000000000014,-22.946617283810895
-0.11870000000000003,-23.031499961802798
-0.11970000000000014,-23.1163826397947
-0.12070000000000003,-23.1163826397947
-0.12170000000000014,-23.15882397879065
-0.12270000000000003,-23.2012653177866
-0.12370000000000014,-23.2012653177866
-0.12470000000000003,-23.2012653177866
-0.12570000000000014,-23.24370665678255
-0.12670000000000003,-23.300295108777156
-0.12770000000000015,-23.300295108777156
-0.12870000000000004,-23.300295108777156
-0.12970000000000015,-23.342736447773106
-0.13070000000000004,-23.385177786769056
-0.13170000000000015,-23.427619125765005
-0.13270000000000004,-23.47006046476096
-0.13370000000000015,-23.51250180375691
-0.13470000000000004,-23.51250180375691
-0.13570000000000015,-23.55494314275286
-0.13670000000000004,-23.597384481748815
-0.13770000000000016,-23.639825820744765
-0.13870000000000005,-23.724708498736668
-0.13970000000000016,-23.823738289727217
-0.14070000000000005,-23.86617962872317
-0.14170000000000016,-23.908620967719123
-0.14270000000000005,-23.993503645711023
-0.14370000000000016,-23.993503645711023
-0.14470000000000005,-24.035944984706973
-0.14570000000000016,-24.120827662698876
-0.14670000000000005,-24.20571034069078
-0.14770000000000016,-24.24815167968673
-0.14870000000000005,-24.24815167968673
-0.14970000000000017,-24.24815167968673
-0.15070000000000006,-24.20571034069078
-0.15170000000000017,-24.16326900169483
-0.15270000000000006,-24.120827662698876
-0.15370000000000017,-24.120827662698876
-0.15470000000000006,-24.120827662698876
-0.15570000000000017,-24.078386323702922
-0.15670000000000006,-24.078386323702922
-0.15770000000000017,-24.078386323702922
-0.15870000000000006,-24.078386323702922
-0.15970000000000018,-24.078386323702922
-0.16070000000000007,-24.078386323702922
-0.16170000000000018,-24.078386323702922
-0.16270000000000007,-24.078386323702922
-0.16370000000000018,-24.078386323702922
-0.16470000000000007,-24.078386323702922
-0.16570000000000018,-24.078386323702922
-0.16670000000000007,-24.120827662698876
-0.16770000000000018,-24.16326900169483
-0.16870000000000007,-24.16326900169483
-0.16970000000000018,-24.20571034069078
-0.17070000000000007,-24.20571034069078
-0.17170000000000019,-24.20571034069078
-0.17270000000000008,-24.20571034069078
-0.1737000000000002,-24.24815167968673
-0.17470000000000008,-24.290593018682678
-0.1757000000000002,-24.290593018682678
-0.17670000000000008,-24.290593018682678
-0.1777000000000002,-24.24815167968673
-0.17870000000000008,-24.16326900169483
-0.1797000000000002,-24.120827662698876
-0.18070000000000008,-24.078386323702922
-0.1817000000000002,-24.035944984706973
-0.18270000000000008,-23.993503645711023
-0.1837000000000002,-23.951062306715073
-0.1847000000000001,-23.908620967719123
-0.1857000000000002,-23.86617962872317
-0.1867000000000001,-23.86617962872317
-0.1877000000000002,-23.823738289727217
-0.1887000000000001,-23.823738289727217
-0.1897000000000002,-23.767149837732617
-0.1907000000000001,-23.767149837732617
-0.1917000000000001,-23.724708498736668
-0.19269999999999998,-23.724708498736668
-0.1937000000000001,-23.724708498736668
-0.19469999999999998,-23.724708498736668
-0.1957000000000001,-23.767149837732617
-0.19669999999999999,-23.767149837732617
-0.1977000000000001,-23.767149837732617
-0.1987,-23.767149837732617
-0.1997000000000001,-23.767149837732617
-0.2007,-23.767149837732617
-0.2017000000000001,-23.823738289727217
-0.2027,-23.86617962872317
-0.2037000000000001,-23.86617962872317
-0.2047,-23.86617962872317
-0.2057000000000001,-23.823738289727217
-0.2067,-23.767149837732617
-0.2077000000000001,-23.682267159740714
-0.2087,-23.639825820744765
-0.2097000000000001,-23.597384481748815
-0.2107,-23.597384481748815
-0.2117000000000001,-23.55494314275286
-0.2127,-23.51250180375691
-0.2137000000000001,-23.51250180375691
-0.2147,-23.47006046476096
-0.2157000000000001,-23.47006046476096
-0.2167,-23.47006046476096
-0.21770000000000012,-23.47006046476096
-0.2187,-23.427619125765005
-0.21970000000000012,-23.47006046476096
-0.2207,-23.47006046476096
-0.22170000000000012,-23.51250180375691
-0.2227,-23.55494314275286
-0.22370000000000012,-23.597384481748815
-0.2247,-23.639825820744765
-0.22570000000000012,-23.682267159740714
-0.2267,-23.682267159740714
-0.22770000000000012,-23.682267159740714
-0.22870000000000001,-23.724708498736668
-0.22970000000000013,-23.823738289727217
-0.23070000000000002,-23.908620967719123
-0.23170000000000013,-23.993503645711023
-0.23270000000000002,-23.993503645711023
-0.23370000000000013,-23.993503645711023
-0.23470000000000002,-23.951062306715073
-0.23570000000000013,-23.951062306715073
-0.23670000000000002,-23.951062306715073
-0.2376999999999999,-23.908620967719123
-0.23870000000000002,-23.951062306715073
-0.2396999999999999,-23.993503645711023
-0.24070000000000003,-24.035944984706973
-0.24169999999999991,-24.035944984706973
-0.24270000000000003,-24.078386323702922
-0.24369999999999992,-24.078386323702922
-0.24470000000000003,-24.120827662698876
-0.24569999999999992,-24.20571034069078
-0.24670000000000003,-24.24815167968673
-0.24769999999999992,-24.34718147067728
-0.24870000000000003,-24.389622809673234
-0.24969999999999992,-24.516946826661083
-0.25070000000000003,-24.601829504652986
-0.2516999999999999,-24.686712182644893
-0.25270000000000004,-24.771594860636792
-0.2536999999999999,-24.870624651627345
-0.25470000000000004,-24.997948668615198
-0.2556999999999999,-25.0828313466071
-0.25670000000000004,-25.210155363594954
-0.25769999999999993,-25.337479380582806
-0.25870000000000004,-25.478950510569312
-0.25969999999999993,-25.648715866553115
-0.26070000000000004,-25.691157205549064
-0.26169999999999993,-25.81848122253692
-0.26270000000000004,-25.86092256153287
-0.26369999999999993,-25.91751101352747
-0.26470000000000005,-26.002393691519377
-0.26569999999999994,-26.087276369511276
-0.26670000000000005,-26.17215904750318
-0.26769999999999994,-26.29948306449103
-0.26870000000000005,-26.34192440348698
-0.26969999999999994,-26.440954194477534
-0.27070000000000005,-26.568278211465387
-0.27169999999999994,-26.69560222845324
-0.27270000000000005,-26.86536758443705
-0.27369999999999994,-27.00683871442355
-0.27470000000000006,-27.134162731411404
-0.27569999999999995,-27.303928087395207
-0.27670000000000006,-27.43125210438306
-0.27769999999999995,-27.615164573365515
-0.27870000000000006,-27.78492992934932
-0.27969999999999995,-28.011283737327723
-0.28070000000000006,-28.22349043230748
-0.28169999999999995,-28.478138466283188
-0.28270000000000006,-28.662050935265643
-0.28369999999999995,-28.8742576302454
-0.28470000000000006,-29.058170099227848
-0.28569999999999995,-29.27037679420761
-0.28670000000000007,-29.525024828183312
-0.28769999999999996,-29.751378636161718
-0.28870000000000007,-30.00602667013743
-0.28969999999999996,-30.232380478115836
-0.29070000000000007,-30.444587173095588
-0.29169999999999996,-30.614352529079397
-0.29270000000000007,-30.79826499806185
-0.29369999999999996,-30.925589015049702
-0.2947000000000001,-31.095354371033505
-0.29569999999999996,-31.27926684001596
-0.2967000000000001,-31.49147353499572
-0.29769999999999996,-31.717827342974125
-0.2987000000000001,-31.972475376949827
-0.29969999999999997,-32.24127052392419
-0.3007000000000001,-32.45347721890394
-0.30169999999999997,-32.70812525287965
-0.3027000000000001,-32.93447906085806
-0.30369999999999997,-33.18912709483376
-0.3047000000000001,-33.41548090281216
-0.30569999999999997,-33.712570275783825
-0.3067000000000001,-34.06624810075008
-0.3077,-34.462367264712285
-0.3087000000000001,-34.8018979766799
-0.3097,-35.15557580164616
-0.3107000000000001,-35.46681228761647
-0.3117,-35.806342999584075
-0.3127000000000001,-36.07513814655844
-0.3137,-36.4288159715247
-0.3147000000000001,-36.81078802248826
-0.3157,-37.249348525446415
-0.3167000000000001,-37.645467689408626
-0.3177,-37.94255706238028
-0.3187000000000001,-38.253793548350586
-0.3197,-38.522588695324956
-0.3207000000000001,-38.777236729300654
-0.3217,-39.046031876275016
-0.3227000000000001,-39.30067991025072
-0.3237,-39.654357735216976
-0.3247000000000001,-39.99388844718459
-0.3257,-40.30512493315489
-0.3267000000000001,-40.65880275812115
-0.3277,-40.95589213109281
-0.3287000000000001,-41.30956995605907
-0.3297,-41.70568912002128
-0.3307000000000001,-42.087661170984845
-0.3317,-42.4413389959511
-0.3327000000000001,-42.837458159913304
-0.3337,-43.27601866287147
-0.3347000000000001,-43.70043205283099
-0.3357,-44.138992555789144
-0.3367000000000001,-44.66243573673921
-0.3377,-45.143437578693316
-0.3387000000000001,-45.581998081651484
-0.3397,-46.062999923605595
-0.3407000000000001,-46.501560426563756
-0.3417,-46.982562268517874
-0.3427000000000001,-47.54844678846388
-0.3437,-48.114331308409895
-0.3447000000000001,-48.59533315036401
-0.3457,-49.03389365332217
-0.3467000000000001,-49.41586570428573
-0.3477,-49.76954352925199
-0.3487000000000001,-50.1656626932142
-0.3497,-50.547634744177756
-0.3507000000000001,-50.98619524713592
-0.3517,-51.424755750094086
-0.3527000000000001,-51.86331625305225
-0.3537,-52.25943541701445
-0.3547000000000001,-52.64140746797801
-0.3557,-53.079967970936174
-0.35670000000000013,-53.56096981289029
-0.3577,-54.0419716548444
-0.35870000000000013,-54.56541483579447
-0.3597,-55.088858016744524
-0.36070000000000013,-55.56985985869864
-0.3617,-56.093303039648696
-0.3626999999999999,-56.65918755959472
-0.3637,-57.22507207954074
-0.3646999999999999,-57.8333979384827
-0.3657,-58.39928245842871
-0.3666999999999999,-59.06419676936528
-0.3677,-59.6300812893113
-0.3686999999999999,-60.23840714825326
-0.36970000000000003,-60.80429166819927
-0.3706999999999999,-61.455058866137186
-0.37170000000000003,-62.11997317707376
-0.3726999999999999,-62.72829903601572
-0.37370000000000003,-63.3366248949577
-0.3746999999999999,-63.860068075907755
-0.37570000000000003,-64.34106991786187
-0.3766999999999999,-64.82207175981598
-0.37770000000000004,-65.3030736017701
-0.3786999999999999,-65.76992833072556
-0.37970000000000004,-66.29337151167562
-0.3806999999999999,-66.77437335362974
-0.38170000000000004,-67.25537519558385
-0.38269999999999993,-67.73637703753796
-0.38370000000000004,-68.25982021848802
-0.38469999999999993,-68.78326339943808
-0.38570000000000004,-69.30670658038814
-0.38669999999999993,-69.22182390239624
-0.38570000000000004,-67.9202895065204
-0.38469999999999993,-66.68949067563783
-0.38370000000000004,-65.60016297474175
-0.38269999999999993,-64.63815929083353
-0.38170000000000004,-63.77518539791585
-0.3806999999999999,-62.98294706999144
-0.37970000000000004,-62.24729719406162
-0.3786999999999999,-61.53994154412909
-0.37770000000000004,-60.84673300719523
-0.3766999999999999,-60.11108313126541
-0.37570000000000003,-59.31884480334099
-0.3746999999999999,-58.62563626640712
-0.37370000000000003,-57.974869068469204
-0.3726999999999999,-57.30995475753264
-0.37170000000000003,-56.61674622059877
-0.3706999999999999,-55.881096344668954
-0.36970000000000003,-55.13129935574048
-0.3686999999999999,-54.35320814081471
-0.3677,-53.603411151886235
-0.3666999999999999,-52.82531993696047
-0.3657,-52.033081609036046
-0.3646999999999999,-51.29743173310623
-0.3637,-50.50519340518181
-0.3626999999999999,-49.81198486824794
-0.3617,-49.118776331314066
-0.36070000000000013,-48.51045047237211
-0.3597,-47.8879775004315
-0.35870000000000013,-47.27965164148953
-0.3577,-46.628884443551605
-0.35670000000000013,-45.97811724561369
-0.3557,-45.27076159568118
-0.3547000000000001,-44.66243573673921
-0.3537,-44.096551216793195
-0.3527000000000001,-43.57310803584313
-0.3517,-43.04966485489307
-0.3507000000000001,-42.526221673943
-0.3497,-42.00277849299294
-0.3487000000000001,-41.43689397304693
-0.3477,-40.828568114104954
-0.3467000000000001,-40.26268359415894
-0.3457,-39.696799074212926
-0.3447000000000001,-39.21579723225882
-0.3437,-38.692354051308754
-0.3427000000000001,-38.12646953136274
-0.3417,-37.56058501141672
-0.3407000000000001,-36.89567070048016
-0.3397,-36.28734484153819
-0.3387000000000001,-35.636577643600276
-0.3377,-35.02825178465831
-0.3367000000000001,-34.462367264712285
-0.3357,-33.85404140577033
-0.3347000000000001,-33.330598224820264
-0.3337,-32.807155043870196
-0.3327000000000001,-32.24127052392419
-0.3317,-31.661238890979522
-0.3307000000000001,-31.137795710029454
-0.3297,-30.614352529079397
-0.3287000000000001,-30.10505646112798
-0.3277,-29.581613280177915
-0.3267000000000001,-29.100611438223805
-0.3257,-28.619609596269694
-0.3247000000000001,-28.18104909331153
-0.3237,-27.742488590353368
-0.3227000000000001,-27.261486748399253
-0.3217,-26.780484906445146
-0.3207000000000001,-26.34192440348698
-0.3197,-25.86092256153287
-0.3187000000000001,-25.43650917157336
-0.3177,-25.04039000761115
-0.3167000000000001,-24.64427084364894
-0.3157,-24.16326900169483
-0.3147000000000001,-23.682267159740714
-0.3137,-23.2012653177866
-0.3127000000000001,-22.67782213683654
-0.3117,-22.196820294882425
-0.3107000000000001,-21.729965565926964
-0.3097,-21.248963723972853
-0.3087000000000001,-20.76796188201874
-0.3077,-20.329401379060574
-0.3067000000000001,-19.890840876102416
-0.30569999999999997,-19.452280373144255
-0.3047000000000001,-18.97127853119014
-0.30369999999999997,-18.53271802823198
-0.3027000000000001,-18.15074597726842
-0.30169999999999997,-17.75462681330621
-0.3007000000000001,-17.316066310348052
-0.29969999999999997,-16.919947146385837
-0.2987000000000001,-16.580416434418233
-0.29769999999999996,-16.141855931460068
-0.2967000000000001,-15.78817810649381
-0.29569999999999996,-15.448647394526201
-0.2947000000000001,-15.05252823056399
-0.29369999999999996,-14.69885040559773
-0.29270000000000007,-14.345172580631472
-0.29169999999999996,-13.960371107068182
-0.29070000000000007,-13.610937416001518
-0.28969999999999996,-13.261503724934855
-0.28870000000000007,-12.913484745168056
-0.28769999999999996,-12.56405105410139
-0.28670000000000007,-12.214617363034726
-0.28569999999999995,-11.86659838326793
-0.28470000000000006,-11.473308641905447
-0.28369999999999995,-11.081433611842833
-0.28270000000000006,-10.775855971071984
-0.28169999999999995,-10.382566229709504
-0.28070000000000006,-10.034547249942705
-0.27969999999999995,-9.685113558876042
-0.27870000000000006,-9.335679867809377
-0.27769999999999995,-9.031516938338395
-0.27670000000000006,-8.725939297567548
-0.27569999999999995,-8.376505606500881
-0.27470000000000006,-8.070927965730034
-0.27369999999999994,-7.7653503249591855
-0.27270000000000005,-7.461187395488204
-0.27169999999999994,-7.155609754717355
-0.27070000000000005,-6.850032113946507
-0.26969999999999994,-6.588310523471475
-0.26870000000000005,-6.282732882700628
-0.26769999999999994,-6.021011292225596
