Potential V vs RHE, Current mA cm-2
0.013299999999999867,0.6084673300719523
0.012299999999999978,-0.1766974413531431
0.011299999999999866,-0.7437137303390498
0.010299999999999976,-1.1798692240874404
0.009299999999999864,-1.6156003044458718
0.008299999999999974,-1.9650339955125358
0.007299999999999862,-2.3144676865791998
0.006299999999999972,-2.618630616050183
0.00529999999999986,-2.8803522065252145
0.0042999999999999705,-3.1859298472960624
0.0032999999999998586,-3.403795387475278
0.0022999999999999687,-3.623075638954359
0.0012999999999998568,-3.840941179133574
0.00029999999999996696,-4.014950669016974
-0.000700000000000145,-4.23281620919619
-0.0017000000000000348,-4.406825699079589
-0.0027000000000001467,-4.538393849967037
-0.0037000000000000366,-4.712403339850438
-0.0047000000000001485,-4.843971490737885
-0.005700000000000038,-4.974124930325469
-0.00670000000000015,-5.0618370309171015
-0.00770000000000004,-5.149549131508733
-0.008700000000000152,-5.279702571096316
-0.009700000000000042,-5.367414671687949
-0.010700000000000154,-5.497568111275533
-0.011700000000000044,-5.585280211867165
-0.012700000000000156,-5.629136262162981
-0.013700000000000045,-5.715433651454749
-0.014700000000000157,-5.847001802342197
-0.015700000000000047,-5.9347139029338285
-0.01670000000000016,-6.021011292225596
-0.01770000000000005,-6.108723392817228
-0.01870000000000016,-6.196435493408861
-0.01970000000000005,-6.282732882700628
-0.020700000000000163,-6.37044498329226
-0.021700000000000053,-6.458157083883892
-0.022700000000000164,-6.588310523471475
-0.023700000000000054,-6.6760226240631075
-0.024700000000000166,-6.806176063650692
-0.025700000000000056,-6.93774421453814
-0.026700000000000168,-7.024041603829907
-0.027700000000000058,-7.155609754717355
-0.02870000000000017,-7.28576319430494
-0.02970000000000006,-7.4173313451923875
-0.03070000000000017,-7.5474847847799715
-0.03170000000000006,-7.679052935667419
-0.03270000000000017,-7.853062425550818
-0.03370000000000006,-8.070927965730034
-0.034700000000000175,-8.246352166913299
-0.035700000000000065,-8.464217707092514
-0.03670000000000018,-8.68208324727173
-0.03770000000000007,-8.943804837746763
-0.03870000000000018,-9.205526428221793
-0.03970000000000007,-9.467248018696827
-0.04070000000000018,-9.728969609171857
-0.04170000000000007,-9.99069119964689
-0.04270000000000018,-10.25241279012192
-0.04370000000000007,-10.514134380596953
-0.044700000000000184,-10.775855971071984
-0.045700000000000074,-11.037577561547016
-0.046700000000000186,-11.299299152022046
-0.047700000000000076,-11.56102074249708
-0.04870000000000019,-11.82274233297211
-0.04970000000000008,-12.084463923447142
-0.05070000000000019,-12.390041564217992
-0.05170000000000008,-12.651763154693022
-0.05270000000000019,-12.955926084164007
-0.05370000000000008,-13.261503724934855
-0.05470000000000019,-13.567081365705702
-0.05570000000000008,-13.828802956180734
-0.056700000000000195,-14.13438059695158
-0.057700000000000085,-14.444202371622024
-0.058700000000000196,-14.741291744593681
-0.059700000000000086,-15.05252823056399
-0.0607000000000002,-15.3920589425316
-0.06170000000000009,-15.70329542850191
-0.0627000000000002,-16.014531914472215
-0.06370000000000009,-16.311621287443874
-0.0647000000000002,-16.622857773414182
-0.06570000000000009,-16.919947146385837
-0.0667000000000002,-17.188742293360193
-0.0677000000000001,-17.4433903273359
-0.0687000000000002,-17.71218547431026
-0.0697000000000001,-17.966833508285966
-0.07070000000000021,-18.23562865526032
-0.0717000000000001,-18.49027668923603
-0.07270000000000021,-18.716630497214435
-0.0737000000000001,-18.97127853119014
-0.07470000000000021,-19.197632339168546
-0.0757000000000001,-19.49472171214021
-0.07670000000000021,-19.721075520118614
-0.0777000000000001,-19.93328221509837
-0.07870000000000021,-20.159636023076775
-0.0797000000000001,-20.371842718056527
-0.08070000000000022,-20.541608074040333
-0.0817000000000001,-20.72552054302279
-0.08270000000000022,-20.93772723800254
-0.08370000000000011,-21.149933932982297
-0.08470000000000022,-21.376287740960702
-0.08570000000000011,-21.58849443594046
-0.08670000000000022,-21.772406904922917
-0.08770000000000011,-21.899730921910766
-0.08870000000000022,-22.027054938898623
-0.08970000000000011,-22.111937616890522
-0.09070000000000022,-22.253408746877028
-0.09170000000000011,-22.33829142486893
-0.09270000000000023,-22.46561544185678
-0.09370000000000012,-22.63538079784059
-0.09470000000000023,-22.776851927827092
-0.09570000000000012,-22.861734605818995
-0.09670000000000023,-22.946617283810895
-0.09770000000000012,-23.073941300798747
-0.09870000000000023,-23.15882397879065
-0.09970000000000012,-23.300295108777156
-0.10070000000000023,-23.385177786769056
-0.10170000000000012,-23.47006046476096
-0.10270000000000024,-23.597384481748815
-0.10370000000000013,-23.682267159740714
-0.10470000000000024,-23.823738289727217
-0.10570000000000013,-23.908620967719123
-0.10670000000000024,-24.035944984706973
-0.10770000000000013,-24.16326900169483
-0.10870000000000024,-24.24815167968673
-0.10970000000000013,-24.389622809673234
-0.11070000000000024,-24.474505487665134
-0.11170000000000013,-24.601829504652986
-0.11270000000000002,-24.729153521640843
-0.11370000000000013,-24.814036199632742
-0.11470000000000002,-24.9130659906233
-0.11570000000000014,-25.04039000761115
-0.11670000000000003,-25.167714024599
-0.11770000000000014,-25.252596702590903
-0.11870000000000003,-25.39406783257741
-0.11970000000000014,-25.478950510569312
-0.12070000000000003,-25.521391849565262
-0.12170000000000014,-25.563833188561212
-0.12270000000000003,-25.60627452755716
-0.12370000000000014,-25.648715866553115
-0.12470000000000003,-25.691157205549064
-0.12570000000000014,-25.73359854454502
-0.12670000000000003,-25.77603988354097
-0.12770000000000015,-25.81848122253692
-0.12870000000000004,-25.86092256153287
-0.12970000000000015,-25.86092256153287
-0.13070000000000004,-25.91751101352747
-0.13170000000000015,-25.959952352523427
-0.13270000000000004,-26.002393691519377
-0.13370000000000015,-26.044835030515326
-0.13470000000000004,-26.129717708507226
-0.13570000000000015,-26.17215904750318
-0.13670000000000004,-26.21460038649913
-0.13770000000000016,-26.257041725495082
-0.13870000000000005,-26.29948306449103
-0.13970000000000016,-26.34192440348698
-0.14070000000000005,-26.440954194477534
-0.14170000000000016,-26.483395533473487
-0.14270000000000005,-26.568278211465387
-0.14370000000000016,-26.65316088945729
-0.14470000000000005,-26.69560222845324
-0.14570000000000016,-26.738043567449193
-0.14670000000000005,-26.822926245441096
-0.14770000000000016,-26.86536758443705
-0.14870000000000005,-26.907808923433
-0.14970000000000017,-26.9643973754276
-0.15070000000000006,-27.049280053419505
-0.15170000000000017,-27.091721392415455
-0.15270000000000006,-27.134162731411404
-0.15370000000000017,-27.134162731411404
-0.15470000000000006,-27.134162731411404
-0.15570000000000017,-27.134162731411404
-0.15670000000000006,-27.134162731411404
-0.15770000000000017,-27.134162731411404
-0.15870000000000006,-27.134162731411404
-0.15970000000000018,-27.134162731411404
-0.16070000000000007,-27.091721392415455
-0.16170000000000018,-27.049280053419505
-0.16270000000000007,-27.049280053419505
-0.16370000000000018,-27.091721392415455
-0.16470000000000007,-27.091721392415455
-0.16570000000000018,-27.049280053419505
-0.16670000000000007,-27.091721392415455
-0.16770000000000018,-27.049280053419505
-0.16870000000000007,-27.049280053419505
-0.16970000000000018,-27.049280053419505
-0.17070000000000007,-27.049280053419505
-0.17170000000000019,-27.049280053419505
-0.17270000000000008,-27.091721392415455
-0.1737000000000002,-27.091721392415455
-0.17470000000000008,-27.134162731411404
-0.1757000000000002,-27.176604070407354
-0.17670000000000008,-27.176604070407354
-0.1777000000000002,-27.219045409403304
-0.17870000000000008,-27.219045409403304
-0.1797000000000002,-27.219045409403304
-0.18070000000000008,-27.219045409403304
-0.1817000000000002,-27.219045409403304
-0.18270000000000008,-27.261486748399253
-0.1837000000000002,-27.303928087395207
-0.1847000000000001,-27.303928087395207
-0.1857000000000002,-27.303928087395207
-0.1867000000000001,-27.261486748399253
-0.1877000000000002,-27.219045409403304
-0.1887000000000001,-27.134162731411404
-0.1897000000000002,-27.134162731411404
-0.1907000000000001,-27.091721392415455
-0.1917000000000001,-27.049280053419505
-0.19269999999999998,-27.049280053419505
-0.1937000000000001,-27.00683871442355
-0.19469999999999998,-26.907808923433
-0.1957000000000001,-26.86536758443705
-0.19669999999999999,-26.822926245441096
-0.1977000000000001,-26.822926245441096
-0.1987,-26.780484906445146
-0.1997000000000001,-26.780484906445146
-0.2007,-26.738043567449193
-0.2017000000000001,-26.738043567449193
-0.2027,-26.69560222845324
-0.2037000000000001,-26.69560222845324
-0.2047,-26.65316088945729
-0.2057000000000001,-26.65316088945729
-0.2067,-26.69560222845324
-0.2077000000000001,-26.69560222845324
-0.2087,-26.69560222845324
-0.2097000000000001,-26.69560222845324
-0.2107,-26.738043567449193
-0.2117000000000001,-26.780484906445146
-0.2127,-26.780484906445146
-0.2137000000000001,-26.780484906445146
-0.2147,-26.780484906445146
-0.2157000000000001,-26.822926245441096
-0.2167,-26.822926245441096
-0.21770000000000012,-26.86536758443705
-0.2187,-26.822926245441096
-0.21970000000000012,-26.780484906445146
-0.2207,-26.780484906445146
-0.22170000000000012,-26.738043567449193
-0.2227,-26.738043567449193
-0.22370000000000012,-26.69560222845324
-0.2247,-26.69560222845324
-0.22570000000000012,-26.69560222845324
-0.2267,-26.61071955046134
-0.22770000000000012,-26.61071955046134
-0.22870000000000001,-26.568278211465387
-0.22970000000000013,-26.568278211465387
-0.23070000000000002,-26.568278211465387
-0.23170000000000013,-26.61071955046134
-0.23270000000000002,-26.61071955046134
-0.23370000000000013,-26.61071955046134
-0.23470000000000002,-26.61071955046134
-0.23570000000000013,-26.61071955046134
-0.23670000000000002,-26.61071955046134
-0.2376999999999999,-26.65316088945729
-0.23870000000000002,-26.69560222845324
-0.2396999999999999,-26.780484906445146
-0.24070000000000003,-26.822926245441096
-0.24169999999999991,-26.907808923433
-0.24270000000000003,-26.9643973754276
-0.24369999999999992,-27.00683871442355
-0.24470000000000003,-27.049280053419505
-0.24569999999999992,-27.091721392415455
-0.24670000000000003,-27.134162731411404
-0.24769999999999992,-27.219045409403304
-0.24870000000000003,-27.34636942639116
-0.24969999999999992,-27.43125210438306
-0.25070000000000003,-27.530281895373616
-0.2516999999999999,-27.572723234369565
-0.25270000000000004,-27.572723234369565
-0.2536999999999999,-27.572723234369565
-0.25470000000000004,-27.615164573365515
-0.2556999999999999,-27.615164573365515
-0.25670000000000004,-27.65760591236147
-0.25769999999999993,-27.742488590353368
-0.25870000000000004,-27.827371268345274
-0.25969999999999993,-27.869812607341224
-0.26070000000000004,-27.954695285333123
-0.26169999999999993,-28.011283737327723
-0.26270000000000004,-28.09616641531963
-0.26369999999999993,-28.13860775431558
-0.26470000000000005,-28.18104909331153
-0.26569999999999994,-28.265931771303435
-0.26670000000000005,-28.350814449295335
-0.26769999999999994,-28.435697127287238
-0.26870000000000005,-28.577168257273744
-0.26969999999999994,-28.704492274261593
-0.27070000000000005,-28.831816291249446
-0.27169999999999994,-29.001581647233255
-0.27270000000000005,-29.14305277721976
-0.27369999999999994,-29.27037679420761
-0.27470000000000006,-29.39770081119546
-0.27569999999999995,-29.581613280177915
-0.27670000000000006,-29.708937297165768
-0.27769999999999995,-29.878702653149578
-0.27870000000000006,-30.04846800913338
-0.27969999999999995,-30.189939139119886
-0.28070000000000006,-30.444587173095588
-0.28169999999999995,-30.670940981073993
-0.28270000000000006,-30.88314767605375
-0.28369999999999995,-31.010471693041605
-0.28470000000000006,-31.137795710029454
-0.28569999999999995,-31.23682550102001
-0.28670000000000007,-31.36414951800786
-0.28769999999999996,-31.533914873991666
-0.28870000000000007,-31.717827342974125
-0.28969999999999996,-31.887592698957924
-0.29070000000000007,-32.09979939393769
-0.29169999999999996,-32.283711862920136
-0.29270000000000007,-32.41103587990799
-0.29369999999999996,-32.53835989689585
-0.2947000000000001,-32.70812525287965
-0.29569999999999996,-32.84959638286615
-0.2967000000000001,-33.06180307784591
-0.29769999999999996,-33.288156885824314
-0.2987000000000001,-33.50036358080407
-0.29969999999999997,-33.755011614779775
-0.3007000000000001,-34.02380676175414
-0.30169999999999997,-34.236013456733886
-0.3027000000000001,-34.50480860370825
-0.30369999999999997,-34.717015298688004
-0.3047000000000001,-34.98581044566235
-0.30569999999999997,-35.240458479638065
-0.3067000000000001,-35.50925362661242
-0.3077,-35.848784338580025
-0.3087000000000001,-36.16002082455034
-0.3097,-36.47125731052064
-0.3107000000000001,-36.768346683492304
-0.3117,-37.07958316946261
-0.3127000000000001,-37.376672542434264
-0.3137,-37.687909028404576
-0.3147000000000001,-38.04158685337084
-0.3157,-38.38111756533845
-0.3167000000000001,-38.692354051308754
-0.3177,-38.98944342428042
-0.3187000000000001,-39.258238571254765
-0.3197,-39.51288660523048
-0.3207000000000001,-39.78168175220483
-0.3217,-40.092918238175145
-0.3227000000000001,-40.3900076111468
-0.3237,-40.743685436113054
-0.3247000000000001,-40.99833347008877
-0.3257,-41.30956995605907
-0.3267000000000001,-41.56421799003478
-0.3277,-41.87545447600508
-0.3287000000000001,-42.229132300971344
-0.3297,-42.568663012938956
-0.3307000000000001,-42.92234083790521
-0.3317,-43.23357732387552
-0.3327000000000001,-43.61554937483908
-0.3337,-43.96922719980534
-0.3347000000000001,-44.4077877027635
-0.3357,-44.74731841473111
-0.3367000000000001,-45.18587891768927
-0.3377,-45.624439420647434
-0.3387000000000001,-46.062999923605595
-0.3397,-46.544001765559706
-0.3407000000000001,-46.982562268517874
-0.3417,-47.46356411047198
-0.3427000000000001,-47.84553616143554
-0.3437,-48.2840966643937
-0.3447000000000001,-48.76509850634781
-0.3457,-49.24610034830193
-0.3467000000000001,-49.72710219025603
-0.3477,-50.2505453712061
-0.3487000000000001,-50.77398855215617
-0.3497,-51.17010771611838
-0.3507000000000001,-51.65110955807249
-0.3517,-52.033081609036046
-0.3527000000000001,-52.42920077299826
-0.3537,-52.86776127595642
-0.3547000000000001,-53.26388043991864
-0.3557,-53.68829382987814
-0.35670000000000013,-54.1268543328363
-0.3577,-54.56541483579447
-0.35870000000000013,-54.961533999756675
-0.3597,-55.357653163718886
-0.36070000000000013,-55.7820665536784
-0.3617,-56.26306839563251
-0.3626999999999999,-56.74407023758662
-0.3637,-57.22507207954074
-0.3646999999999999,-57.70607392149485
-0.3657,-58.18707576344896
-0.3666999999999999,-58.71051894439902
-0.3677,-59.19152078635314
-0.3686999999999999,-59.7149639673032
-0.36970000000000003,-60.23840714825326
-0.3706999999999999,-60.84673300719523
-0.37170000000000003,-61.455058866137186
-0.3726999999999999,-62.06338472507916
-0.37370000000000003,-62.64341635802381
-0.3746999999999999,-63.251742216965795
-0.37570000000000003,-63.81762673691181
-0.3766999999999999,-64.38351125685783
-0.37770000000000004,-64.94939577680383
-0.3786999999999999,-65.60016297474175
-0.37970000000000004,-66.25093017267966
-0.3806999999999999,-66.91584448361623
-0.38170000000000004,-67.6090530205501
-0.38269999999999993,-68.21737887949207
-0.38370000000000004,-68.74082206044213
-0.38469999999999993,-69.26426524139221
-0.38570000000000004,-69.78770842234226
-0.38669999999999993,-69.57550172736251
-0.38570000000000004,-68.17493754049613
-0.38469999999999993,-66.91584448361623
-0.38370000000000004,-65.76992833072556
-0.38269999999999993,-64.63815929083353
-0.38170000000000004,-63.54883158993744
-0.3806999999999999,-62.544386567033264
-0.37970000000000004,-61.63897133511965
-0.3786999999999999,-60.761850329203334
-0.37770000000000004,-59.884729323287
-0.3766999999999999,-59.10663810836124
-0.37570000000000003,-58.31439978043681
-0.3746999999999999,-57.53630856551105
-0.37370000000000003,-56.786511576582576
-0.3726999999999999,-56.05086170065276
-0.37170000000000003,-55.31521182472294
-0.3706999999999999,-54.60785617479041
-0.36970000000000003,-53.9570889768525
-0.3686999999999999,-53.30632177891458
-0.3677,-52.64140746797801
-0.3666999999999999,-52.033081609036046
-0.3657,-51.424755750094086
-0.3646999999999999,-50.77398855215617
-0.3637,-50.1656626932142
-0.3626999999999999,-49.458307043281685
-0.3617,-48.84998118433972
-0.36070000000000013,-48.2840966643937
-0.3597,-47.76065348344364
-0.35870000000000013,-47.15232762450167
-0.3577,-46.501560426563756
-0.35670000000000013,-45.85079322862584
-0.3557,-45.10099623969737
-0.3547000000000001,-44.45022904175945
-0.3537,-43.79946184382153
-0.3527000000000001,-43.134547532884966
-0.3517,-42.526221673943
-0.3507000000000001,-41.91789581500104
-0.3497,-41.267128617063115
-0.3487000000000001,-40.616361419125205
-0.3477,-39.95144710818864
-0.3467000000000001,-39.38556258824262
-0.3457,-38.777236729300654
-0.3447000000000001,-38.16891087035869
-0.3437,-37.60302635041268
-0.3427000000000001,-36.99470049147071
-0.3417,-36.4288159715247
-0.3407000000000001,-35.848784338580025
-0.3397,-35.32534115762997
-0.3387000000000001,-34.8018979766799
-0.3377,-34.278454795729836
-0.3367000000000001,-33.755011614779775
-0.3357,-33.231568433829715
-0.3347000000000001,-32.70812525287965
-0.3337,-32.24127052392419
-0.3327000000000001,-31.661238890979522
-0.3317,-31.19438416202406
-0.3307000000000001,-30.71338232006995
-0.3297,-30.189939139119886
-0.3287000000000001,-29.708937297165768
-0.3277,-29.22793545521166
-0.3267000000000001,-28.746933613257543
-0.3257,-28.308373110299385
-0.3247000000000001,-27.827371268345274
-0.3237,-27.303928087395207
-0.3227000000000001,-26.738043567449193
-0.3217,-26.21460038649913
-0.3207000000000001,-25.691157205549064
-0.3197,-25.210155363594954
-0.3187000000000001,-24.729153521640843
-0.3177,-24.24815167968673
-0.3167000000000001,-23.767149837732617
-0.3157,-23.300295108777156
-0.3147000000000001,-22.819293266823045
-0.3137,-22.33829142486893
-0.3127000000000001,-21.857289582914817
-0.3117,-21.376287740960702
-0.3107000000000001,-20.93772723800254
-0.3097,-20.456725396048434
-0.3087000000000001,-20.01816489309027
-0.3077,-19.579604390132108
-0.3067000000000001,-19.155191000172596
-0.30569999999999997,-18.716630497214435
-0.3047000000000001,-18.320511333252224
-0.30369999999999997,-17.924392169290012
-0.3027000000000001,-17.542420118326454
-0.30169999999999997,-17.146300954364243
-0.3007000000000001,-16.750181790402035
-0.29969999999999997,-16.354062626439823
-0.2987000000000001,-15.972090575476265
-0.29769999999999996,-15.533530072518102
-0.2967000000000001,-15.179852247551842
-0.29569999999999996,-14.783733083589633
-0.2947000000000001,-14.444202371622024
-0.29369999999999996,-14.090524546655764
-0.29270000000000007,-13.698649516593148
-0.29169999999999996,-13.30535977523067
-0.29070000000000007,-12.913484745168056
-0.28969999999999996,-12.520195003805576
-0.28870000000000007,-12.170761312738911
-0.28769999999999996,-11.778886282676295
-0.28670000000000007,-11.385596541313816
-0.28569999999999995,-11.037577561547016
-0.28470000000000006,-10.688143870480351
-0.28369999999999995,-10.296268840417738
-0.28270000000000006,-9.99069119964689
-0.28169999999999995,-9.59740145828441
-0.28070000000000006,-9.293238528813426
-0.27969999999999995,-8.943804837746763
-0.27870000000000006,-8.594371146680096
-0.27769999999999995,-8.288793505909249
-0.27670000000000006,-7.940774526142452
-0.27569999999999995,-7.635196885371603
-0.27470000000000006,-7.329619244600755
-0.27369999999999994,-7.024041603829907
-0.27270000000000005,-6.719878674358924
-0.27169999999999994,-6.414301033588076
-0.27070000000000005,-6.108723392817228
-0.26969999999999994,-5.847001802342197
-0.26870000000000005,-5.5414241615713475
-0.26769999999999994,-5.279702571096316
