Potential V vs RHE, Current mA cm-2
0.013299999999999867,0.7829012333453113
0.012299999999999978,0.21588494435940458
0.011299999999999866,-0.2202705493889862
0.010299999999999976,-0.5692798270656908
0.009299999999999864,-0.8308599464107361
0.008299999999999974,-1.1362961160515976
0.007299999999999862,-1.3543031273607997
0.006299999999999972,-1.5717442541500557
0.00529999999999986,-1.7910245056291363
0.0042999999999999705,-1.92117794521672
0.0032999999999998586,-2.095187435100119
0.0022999999999999687,-2.226755585987568
0.0012999999999998568,-2.3569090255751513
0.00029999999999996696,-2.4446211261667834
-0.000700000000000145,-2.532333226758415
-0.0017000000000000348,-2.618630616050183
-0.0027000000000001467,-2.706342716641815
-0.0037000000000000366,-2.794054817233447
-0.0047000000000001485,-2.8379108675292635
-0.005700000000000038,-2.8803522065252145
-0.00670000000000015,-2.968064307116847
-0.00770000000000004,-3.055776407708479
-0.008700000000000152,-3.0996324580042955
-0.009700000000000042,-3.1859298472960624
-0.010700000000000154,-3.273641947887695
-0.011700000000000044,-3.361354048479327
-0.012700000000000156,-3.447651437771094
-0.013700000000000045,-3.5353635383627267
-0.014700000000000157,-3.623075638954359
-0.015700000000000047,-3.7093730282461257
-0.01670000000000016,-3.7970851288377587
-0.01770000000000005,-3.927238568425342
-0.01870000000000016,-4.0588067193127895
-0.01970000000000005,-4.1889601589003735
-0.020700000000000163,-4.3205283097878215
-0.021700000000000053,-4.450681749375406
-0.022700000000000164,-4.582249900262854
-0.023700000000000054,-4.712403339850438
-0.024700000000000166,-4.843971490737885
-0.025700000000000056,-4.974124930325469
-0.026700000000000168,-5.149549131508733
-0.027700000000000058,-5.279702571096316
-0.02870000000000017,-5.453712060979717
-0.02970000000000006,-5.585280211867165
-0.03070000000000017,-5.759289701750564
-0.03170000000000006,-5.977155241929781
-0.03270000000000017,-6.108723392817228
-0.03370000000000006,-6.326588932996443
-0.034700000000000175,-6.54445447317566
-0.035700000000000065,-6.719878674358924
-0.03670000000000018,-6.893888164242324
-0.03770000000000007,-7.067897654125724
-0.03870000000000018,-7.28576319430494
-0.03970000000000007,-7.4173313451923875
-0.04070000000000018,-7.591340835075788
-0.04170000000000007,-7.722908985963235
-0.04270000000000018,-7.809206375255003
-0.04370000000000007,-7.984630576438266
-0.044700000000000184,-8.070927965730034
-0.045700000000000074,-8.246352166913299
-0.046700000000000186,-8.332649556205066
-0.047700000000000076,-8.508073757388331
-0.04870000000000019,-8.638227196975913
-0.04970000000000008,-8.812236686859313
-0.05070000000000019,-8.943804837746763
-0.05170000000000008,-9.073958277334345
-0.05270000000000019,-9.24938247851761
-0.05370000000000008,-9.423391968401008
-0.05470000000000019,-9.511104068992642
-0.05570000000000008,-9.641257508580225
-0.056700000000000195,-9.728969609171857
-0.057700000000000085,-9.85912304875944
-0.058700000000000196,-9.99069119964689
-0.059700000000000086,-10.120844639234473
-0.0607000000000002,-10.25241279012192
-0.06170000000000009,-10.382566229709504
-0.0627000000000002,-10.557990430892769
-0.06370000000000009,-10.731999920776168
-0.0647000000000002,-10.863568071663616
-0.06570000000000009,-10.993721511251199
-0.0667000000000002,-11.123874950838783
-0.0677000000000001,-11.299299152022046
-0.0687000000000002,-11.42945259160963
-0.0697000000000001,-11.517164692201263
-0.07070000000000021,-11.56102074249708
-0.0717000000000001,-11.604876792792895
-0.07270000000000021,-11.691174182084664
-0.0737000000000001,-11.778886282676295
-0.07470000000000021,-11.86659838326793
-0.0757000000000001,-11.909039722263879
-0.07670000000000021,-12.040607873151327
-0.0777000000000001,-12.12831997374296
-0.07870000000000021,-12.258473413330542
-0.0797000000000001,-12.346185513922174
-0.08070000000000022,-12.432482903213943
-0.0817000000000001,-12.56405105410139
-0.08270000000000022,-12.607907104397206
-0.08370000000000011,-12.651763154693022
-0.08470000000000022,-12.694204493688973
-0.08570000000000011,-12.694204493688973
-0.08670000000000022,-12.694204493688973
-0.08770000000000011,-12.73806054398479
-0.08870000000000022,-12.825772644576423
-0.08970000000000011,-12.869628694872238
-0.09070000000000022,-12.913484745168056
-0.09170000000000011,-12.99978213445982
-0.09270000000000023,-13.087494235051453
-0.09370000000000012,-13.175206335643086
-0.09470000000000023,-13.261503724934855
-0.09570000000000012,-13.30535977523067
-0.09670000000000023,-13.3930718758223
-0.09770000000000012,-13.3930718758223
-0.09870000000000023,-13.3930718758223
-0.09970000000000012,-13.3930718758223
-0.10070000000000023,-13.3930718758223
-0.10170000000000012,-13.3930718758223
-0.10270000000000024,-13.436927926118118
-0.10370000000000013,-13.47936926511407
-0.10470000000000024,-13.523225315409885
-0.10570000000000013,-13.610937416001518
-0.10670000000000024,-13.654793466297335
-0.10770000000000013,-13.698649516593148
-0.10870000000000024,-13.784946905884919
-0.10970000000000013,-13.872659006476551
-0.11070000000000024,-13.916515056772363
-0.11170000000000013,-13.872659006476551
-0.11270000000000002,-13.872659006476551
-0.11370000000000013,-13.872659006476551
-0.11470000000000002,-13.828802956180734
-0.11570000000000014,-13.872659006476551
-0.11670000000000003,-13.828802956180734
-0.11770000000000014,-13.872659006476551
-0.11870000000000003,-13.916515056772363
-0.11970000000000014,-14.002812446064135
-0.12070000000000003,-14.002812446064135
-0.12170000000000014,-14.046668496359947
-0.12270000000000003,-14.090524546655764
-0.12370000000000014,-14.175407224647667
-0.12470000000000003,-14.217848563643619
-0.12570000000000014,-14.175407224647667
-0.12670000000000003,-14.175407224647667
-0.12770000000000015,-14.13438059695158
-0.12870000000000004,-14.090524546655764
-0.12970000000000015,-14.046668496359947
-0.13070000000000004,-14.046668496359947
-0.13170000000000015,-14.046668496359947
-0.13270000000000004,-14.090524546655764
-0.13370000000000015,-14.13438059695158
-0.13470000000000004,-14.175407224647667
-0.13570000000000015,-14.217848563643619
-0.13670000000000004,-14.26028990263957
-0.13770000000000016,-14.30273124163552
-0.13870000000000005,-14.30273124163552
-0.13970000000000016,-14.30273124163552
-0.14070000000000005,-14.26028990263957
-0.14170000000000016,-14.175407224647667
-0.14270000000000005,-14.13438059695158
-0.14370000000000016,-14.13438059695158
-0.14470000000000005,-14.090524546655764
-0.14570000000000016,-14.090524546655764
-0.14670000000000005,-14.090524546655764
-0.14770000000000016,-14.13438059695158
-0.14870000000000005,-14.175407224647667
-0.14970000000000017,-14.175407224647667
-0.15070000000000006,-14.217848563643619
-0.15170000000000017,-14.217848563643619
-0.15270000000000006,-14.26028990263957
-0.15370000000000017,-14.26028990263957
-0.15470000000000006,-14.175407224647667
-0.15570000000000017,-14.090524546655764
-0.15670000000000006,-14.046668496359947
-0.15770000000000017,-14.002812446064135
-0.15870000000000006,-14.002812446064135
-0.15970000000000018,-13.960371107068182
-0.16070000000000007,-13.960371107068182
-0.16170000000000018,-14.002812446064135
-0.16270000000000007,-14.046668496359947
-0.16370000000000018,-14.046668496359947
-0.16470000000000007,-14.046668496359947
-0.16570000000000018,-14.090524546655764
-0.16670000000000007,-14.090524546655764
-0.16770000000000018,-14.090524546655764
-0.16870000000000007,-14.046668496359947
-0.16970000000000018,-13.960371107068182
-0.17070000000000007,-13.916515056772363
-0.17170000000000019,-13.828802956180734
-0.17270000000000008,-13.828802956180734
-0.1737000000000002,-13.784946905884919
-0.17470000000000008,-13.784946905884919
-0.1757000000000002,-13.784946905884919
-0.17670000000000008,-13.828802956180734
-0.1777000000000002,-13.872659006476551
-0.17870000000000008,-13.872659006476551
-0.1797000000000002,-13.916515056772363
-0.18070000000000008,-13.916515056772363
-0.1817000000000002,-13.916515056772363
-0.18270000000000008,-13.872659006476551
-0.1837000000000002,-13.828802956180734
-0.1847000000000001,-13.741090855589102
-0.1857000000000002,-13.698649516593148
-0.1867000000000001,-13.654793466297335
-0.1877000000000002,-13.698649516593148
-0.1887000000000001,-13.698649516593148
-0.1897000000000002,-13.698649516593148
-0.1907000000000001,-13.741090855589102
-0.1917000000000001,-13.784946905884919
-0.19269999999999998,-13.828802956180734
-0.1937000000000001,-13.828802956180734
-0.19469999999999998,-13.872659006476551
-0.1957000000000001,-13.872659006476551
-0.19669999999999999,-13.872659006476551
-0.1977000000000001,-13.784946905884919
-0.1987,-13.741090855589102
-0.1997000000000001,-13.698649516593148
-0.2007,-13.698649516593148
-0.2017000000000001,-13.698649516593148
-0.2027,-13.698649516593148
-0.2037000000000001,-13.741090855589102
-0.2047,-13.828802956180734
-0.2057000000000001,-13.872659006476551
-0.2067,-13.916515056772363
-0.2077000000000001,-13.960371107068182
-0.2087,-14.046668496359947
-0.2097000000000001,-14.090524546655764
-0.2107,-14.046668496359947
-0.2117000000000001,-14.002812446064135
-0.2127,-13.960371107068182
-0.2137000000000001,-14.002812446064135
-0.2147,-14.002812446064135
-0.2157000000000001,-14.002812446064135
-0.2167,-14.046668496359947
-0.21770000000000012,-14.13438059695158
-0.2187,-14.217848563643619
-0.21970000000000012,-14.30273124163552
-0.2207,-14.345172580631472
-0.22170000000000012,-14.444202371622024
-0.2227,-14.57152638860988
-0.22370000000000012,-14.61396772760583
-0.2247,-14.61396772760583
-0.22570000000000012,-14.61396772760583
-0.2267,-14.61396772760583
-0.22770000000000012,-14.65640906660178
-0.22870000000000001,-14.69885040559773
-0.22970000000000013,-14.741291744593681
-0.23070000000000002,-14.826174422585586
-0.23170000000000013,-14.868615761581536
-0.23270000000000002,-15.05252823056399
-0.23370000000000013,-15.179852247551842
-0.23470000000000002,-15.264734925543747
-0.23570000000000013,-15.3920589425316
-0.23670000000000002,-15.533530072518102
-0.2376999999999999,-15.660854089505953
-0.23870000000000002,-15.70329542850191
-0.2396999999999999,-15.70329542850191
-0.24070000000000003,-15.74573676749786
-0.24169999999999991,-15.830619445489761
-0.24270000000000003,-15.87306078448571
-0.24369999999999992,-16.014531914472215
-0.24470000000000003,-16.099414592464115
-0.24569999999999992,-16.269179948447924
-0.24670000000000003,-16.396503965435777
-0.24769999999999992,-16.580416434418233
-0.24870000000000003,-16.750181790402035
-0.24969999999999992,-16.877505807389888
-0.25070000000000003,-17.061418276372343
-0.2516999999999999,-17.2736249713521
-0.25270000000000004,-17.358507649344002
-0.2536999999999999,-17.40094898833995
-0.25470000000000004,-17.48583166633185
-0.2556999999999999,-17.627302796318357
-0.25670000000000004,-17.71218547431026
-0.25769999999999993,-17.839509491298113
-0.25870000000000004,-18.009274847281915
-0.25969999999999993,-18.23562865526032
-0.26070000000000004,-18.40539401124413
-0.26169999999999993,-18.674189158218486
-0.26270000000000004,-18.88639585319824
-0.26369999999999993,-19.112749661176647
-0.26470000000000005,-19.3249563561564
-0.26569999999999994,-19.579604390132108
-0.26670000000000005,-19.763516859114564
-0.26769999999999994,-19.848399537106463
-0.26870000000000005,-19.97572355409432
-0.26969999999999994,-20.10304757108217
-0.27070000000000005,-20.286960040064624
-0.27169999999999994,-20.456725396048434
-0.27270000000000005,-20.683079204026836
-0.27369999999999994,-20.89528589900659
-0.27470000000000006,-21.2065223849769
-0.27569999999999995,-21.503611757948562
-0.27670000000000006,-21.772406904922917
-0.27769999999999995,-22.027054938898623
-0.27870000000000006,-22.33829142486893
-0.27969999999999995,-22.63538079784059
-0.28070000000000006,-22.904175944814945
-0.28169999999999995,-23.031499961802798
-0.28270000000000006,-23.2012653177866
-0.28369999999999995,-23.385177786769056
-0.28470000000000006,-23.597384481748815
-0.28569999999999995,-23.86617962872317
-0.28670000000000007,-24.078386323702922
-0.28769999999999996,-24.389622809673234
-0.28870000000000007,-24.729153521640843
-0.28969999999999996,-25.12527268560305
-0.29070000000000007,-25.43650917157336
-0.29169999999999996,-25.77603988354097
-0.29270000000000007,-26.129717708507226
-0.29369999999999996,-26.525836872469437
-0.2947000000000001,-26.780484906445146
-0.29569999999999996,-27.00683871442355
-0.2967000000000001,-27.219045409403304
-0.29769999999999996,-27.487840556377662
-0.2987000000000001,-27.700047251357418
-0.29969999999999997,-28.011283737327723
-0.3007000000000001,-28.308373110299385
-0.30169999999999997,-28.662050935265643
-0.3027000000000001,-29.058170099227848
-0.30369999999999997,-29.482583489187363
-0.3047000000000001,-29.921143992145527
-0.30569999999999997,-30.359704495103685
-0.3067000000000001,-30.7558236590659
-0.3077,-31.19438416202406
-0.3087000000000001,-31.533914873991666
-0.3097,-31.84515135996197
-0.3107000000000001,-32.09979939393769
-0.3117,-32.32615320191609
-0.3127000000000001,-32.62324257488775
-0.3137,-33.01936173884996
-0.3147000000000001,-33.41548090281216
-0.3157,-33.755011614779775
-0.3167000000000001,-34.193572117737936
-0.3177,-34.75945663768395
-0.3187000000000001,-35.32534115762997
-0.3197,-35.763901660588125
-0.3207000000000001,-36.20246216354629
-0.3217,-36.725905344496354
-0.3227000000000001,-37.206907186450465
-0.3237,-37.51814367242077
-0.3247000000000001,-37.77279170639648
-0.3257,-38.08402819236679
-0.3267000000000001,-38.38111756533845
-0.3277,-38.81967806829661
-0.3287000000000001,-39.258238571254765
-0.3297,-39.654357735216976
-0.3307000000000001,-40.220242255162994
-0.3317,-40.828568114104954
-0.3327000000000001,-41.39445263405098
-0.3337,-41.91789581500104
-0.3347000000000001,-42.4413389959511
-0.3357,-43.04966485489307
-0.3367000000000001,-43.57310803584313
-0.3377,-43.92678586080939
-0.3387000000000001,-44.28046368577565
-0.3397,-44.619994397743255
-0.3407000000000001,-44.97367222270952
-0.3417,-45.36979138667173
-0.3427000000000001,-45.85079322862584
-0.3437,-46.41667774857186
-0.3447000000000001,-47.02500360751382
-0.3457,-47.633329466455784
-0.3467000000000001,-48.2840966643937
-0.3477,-48.89242252333566
-0.3487000000000001,-49.50074838227763
-0.3497,-50.20810403221015
-0.3507000000000001,-50.73154721316022
-0.3517,-51.17010771611838
-0.3527000000000001,-51.55207976708194
-0.3537,-51.90575759204819
-0.3547000000000001,-52.25943541701445
-0.3557,-52.74043725896857
-0.35670000000000013,-53.30632177891458
-0.3577,-53.82976495986464
-0.35870000000000013,-54.480532157802564
-0.3597,-55.21618203373238
-0.36070000000000013,-55.96597902266086
-0.3617,-56.61674622059877
-0.3626999999999999,-57.26751341853669
-0.3637,-58.05975174646111
-0.3646999999999999,-58.75296028339497
-0.3657,-59.19152078635314
-0.3666999999999999,-59.587639950315335
-0.3677,-59.92717066228296
-0.3686999999999999,-60.36573116524111
-0.36970000000000003,-60.84673300719523
-0.3706999999999999,-61.412617527141244
-0.37170000000000003,-61.97850204708726
-0.3726999999999999,-62.68585769701977
-0.37370000000000003,-63.46394891194555
-0.3746999999999999,-64.25618723986996
-0.37570000000000003,-64.99183711579978
-0.3766999999999999,-65.76992833072556
-0.37770000000000004,-66.60460799764593
-0.3786999999999999,-67.25537519558385
-0.37970000000000004,-67.82125971552985
-0.3806999999999999,-68.30226155748396
-0.38170000000000004,-68.65593938245023
-0.38269999999999993,-69.0096172074165
-0.38370000000000004,-69.4906190493706
-0.38469999999999993,-70.14138624730852
-0.38570000000000004,-70.79215344524643
-0.38669999999999993,-70.74971210625048
-0.38570000000000004,-69.70282574435035
-0.38469999999999993,-68.86814607742998
-0.38370000000000004,-68.0900548625042
-0.38269999999999993,-67.25537519558385
-0.38170000000000004,-66.60460799764593
-0.3806999999999999,-65.95384079970802
-0.37970000000000004,-65.03427845479574
-0.3786999999999999,-64.0722747708875
-0.37770000000000004,-63.06782974798333
-0.3766999999999999,-62.11997317707376
-0.37570000000000003,-61.327734849149344
-0.3746999999999999,-60.54964363422357
-0.37370000000000003,-59.7998466452951
-0.3726999999999999,-59.14907944735718
-0.37170000000000003,-58.66807760540307
-0.3706999999999999,-58.14463442445301
-0.36970000000000003,-57.53630856551105
-0.3686999999999999,-56.88554136757313
-0.3677,-56.36209818662306
-0.3666999999999999,-55.838655005673
-0.3657,-55.046416677748574
-0.3646999999999999,-54.2117370108282
-0.3637,-53.348763117910536
-0.3626999999999999,-52.471642111994214
-0.3617,-51.73599223606439
-0.36070000000000013,-51.028636586131874
-0.3597,-50.335428049198
-0.35870000000000013,-49.76954352925199
-0.3577,-49.24610034830193
-0.35670000000000013,-48.76509850634781
-0.3557,-48.24165532539775
-0.3547000000000001,-47.71821214444768
-0.3537,-47.19476896349763
-0.3527000000000001,-46.713767121543505
-0.3517,-46.02055858460964
-0.3507000000000001,-45.27076159568118
-0.3497,-44.4926703807554
-0.3487000000000001,-43.70043205283099
-0.3477,-43.007223515897124
-0.3467000000000001,-42.39889765695515
-0.3457,-41.83301313700913
-0.3447000000000001,-41.267128617063115
-0.3437,-40.78612677510901
-0.3427000000000001,-40.30512493315489
-0.3417,-39.86656443019674
-0.3407000000000001,-39.42800392723857
-0.3397,-38.90456074628851
-0.3387000000000001,-38.42355890433439
-0.3377,-37.85767438438838
-0.3367000000000001,-37.249348525446415
-0.3357,-36.55613998851254
-0.3347000000000001,-35.848784338580025
-0.3337,-35.198017140642115
-0.3327000000000001,-34.67457395969205
-0.3317,-34.15113077874198
-0.3307000000000001,-33.627687597791926
-0.3297,-33.18912709483376
-0.3287000000000001,-32.764713704874254
-0.3277,-32.368594540912035
-0.3267000000000001,-31.887592698957924
-0.3257,-31.449032195999767
-0.3247000000000001,-31.052913032037555
-0.3237,-30.571911190083444
-0.3227000000000001,-29.96358533114148
-0.3217,-29.35525947219951
-0.3207000000000001,-28.746933613257543
-0.3197,-28.265931771303435
-0.3187000000000001,-27.742488590353368
-0.3177,-27.261486748399253
-0.3167000000000001,-26.780484906445146
-0.3157,-26.38436574248293
-0.3147000000000001,-26.087276369511276
-0.3137,-25.648715866553115
-0.3127000000000001,-25.210155363594954
-0.3117,-24.814036199632742
-0.3107000000000001,-24.516946826661083
-0.3097,-24.078386323702922
-0.3087000000000001,-23.55494314275286
-0.3077,-23.031499961802798
-0.3067000000000001,-22.508056780852733
-0.30569999999999997,-22.027054938898623
-0.3047000000000001,-21.58849443594046
-0.30369999999999997,-21.2065223849769
-0.3027000000000001,-20.810403221014692
-0.30169999999999997,-20.414284057052477
-0.3007000000000001,-20.06060623208622
-0.29969999999999997,-19.763516859114564
-0.2987000000000001,-19.409839034148305
-0.29769999999999996,-19.01371987018609
-0.2967000000000001,-18.716630497214435
-0.29569999999999996,-18.362952672248177
-0.2947000000000001,-17.924392169290012
-0.29369999999999996,-17.48583166633185
-0.29270000000000007,-17.061418276372343
-0.29169999999999996,-16.665299112410132
-0.29070000000000007,-16.269179948447924
-0.28969999999999996,-15.972090575476265
-0.28870000000000007,-15.618412750510005
-0.28769999999999996,-15.264734925543747
-0.28670000000000007,-14.967645552572087
-0.28569999999999995,-14.65640906660178
-0.28470000000000006,-14.345172580631472
-0.28369999999999995,-14.046668496359947
-0.28270000000000006,-13.741090855589102
-0.28169999999999995,-13.436927926118118
-0.28070000000000006,-13.087494235051453
-0.27969999999999995,-12.694204493688973
-0.27870000000000006,-12.346185513922174
-0.27769999999999995,-12.040607873151327
-0.27670000000000006,-11.691174182084664
-0.27569999999999995,-11.385596541313816
-0.27470000000000006,-11.081433611842833
-0.27369999999999994,-10.775855971071984
-0.27270000000000005,-10.514134380596953
-0.27169999999999994,-10.25241279012192
-0.27070000000000005,-9.99069119964689
-0.26969999999999994,-9.728969609171857
-0.26870000000000005,-9.467248018696827
-0.26769999999999994,-9.205526428221793
