Aug. 16, 2024   10:46:08
Cyclic Voltammetry
File: c:/users/guazh/data/20240813_batch_94_500/2024-08-15-exp103\exp103-2024-08-16t10_16_15-arkoh\exp103_cv_sr_800mvs_efin_-1900mv.bin
Data Source:  Experiment
Instrument Model:  CHI760E
Header: CV ran at 800 mVs
Note: 

Init E (V) = -1
High E (V) = -1
Low E (V) = -1.9
Final E (V) = -1
Init P/N = N
Scan Rate (V/s) = 0.8
Segment = 3
Sample Interval (V) = 0.001
Quiet Time (sec) = 2
Sensitivity (A/V) = 0.01
Comp R (ohm) = 1.5

Results:

Channel 1:
Segment 1:

Segment 2:

Segment 3:

Potential/V, Current/A

-1.000, 3.239e-6
-1.001, 6.322e-6
-1.002, 6.322e-6
-1.003, 6.322e-6
-1.004, 6.322e-6
-1.005, 6.322e-6
-1.006, 6.322e-6
-1.007, 6.322e-6
-1.008, 6.322e-6
-1.009, 6.322e-6
-1.010, 6.322e-6
-1.011, 6.322e-6
-1.012, 6.322e-6
-1.013, 6.322e-6
-1.014, 6.322e-6
-1.015, 6.322e-6
-1.016, 6.322e-6
-1.017, 6.322e-6
-1.018, 9.405e-6
-1.019, 6.322e-6
-1.020, 9.405e-6
-1.021, 9.405e-6
-1.022, 9.405e-6
-1.023, 6.322e-6
-1.024, 9.405e-6
-1.025, 9.405e-6
-1.026, 9.405e-6
-1.027, 9.405e-6
-1.028, 9.405e-6
-1.029, 9.405e-6
-1.030, 9.405e-6
-1.031, 9.405e-6
-1.032, 9.405e-6
-1.033, 9.405e-6
-1.034, 9.405e-6
-1.035, 9.405e-6
-1.036, 9.405e-6
-1.037, 9.405e-6
-1.038, 9.405e-6
-1.039, 9.405e-6
-1.040, 9.405e-6
-1.041, 9.405e-6
-1.042, 9.405e-6
-1.043, 9.405e-6
-1.044, 9.405e-6
-1.045, 9.405e-6
-1.046, 9.405e-6
-1.047, 1.249e-5
-1.048, 1.249e-5
-1.049, 9.405e-6
-1.050, 9.405e-6
-1.051, 1.249e-5
-1.052, 1.249e-5
-1.053, 1.249e-5
-1.054, 9.405e-6
-1.055, 1.249e-5
-1.056, 9.405e-6
-1.057, 1.249e-5
-1.058, 1.249e-5
-1.059, 1.249e-5
-1.060, 9.405e-6
-1.061, 1.249e-5
-1.062, 1.249e-5
-1.063, 1.249e-5
-1.064, 1.249e-5
-1.065, 1.249e-5
-1.066, 1.249e-5
-1.067, 1.249e-5
-1.068, 1.249e-5
-1.069, 1.249e-5
-1.070, 1.249e-5
-1.071, 1.249e-5
-1.072, 1.249e-5
-1.073, 1.249e-5
-1.074, 1.249e-5
-1.075, 1.557e-5
-1.076, 1.249e-5
-1.077, 1.249e-5
-1.078, 1.249e-5
-1.079, 1.249e-5
-1.080, 1.249e-5
-1.081, 1.557e-5
-1.082, 1.249e-5
-1.083, 1.249e-5
-1.084, 1.249e-5
-1.085, 1.557e-5
-1.086, 1.249e-5
-1.087, 1.557e-5
-1.088, 1.557e-5
-1.089, 1.557e-5
-1.090, 1.249e-5
-1.091, 1.557e-5
-1.092, 1.557e-5
-1.093, 1.557e-5
-1.094, 1.557e-5
-1.095, 1.557e-5
-1.096, 1.557e-5
-1.097, 1.557e-5
-1.098, 1.557e-5
-1.099, 1.557e-5
-1.100, 1.557e-5
-1.101, 1.557e-5
-1.102, 1.557e-5
-1.103, 1.557e-5
-1.104, 1.557e-5
-1.105, 1.557e-5
-1.106, 1.557e-5
-1.107, 1.557e-5
-1.108, 1.557e-5
-1.109, 1.557e-5
-1.110, 1.557e-5
-1.111, 1.557e-5
-1.112, 1.557e-5
-1.113, 1.557e-5
-1.114, 1.557e-5
-1.115, 1.557e-5
-1.116, 1.557e-5
-1.117, 1.557e-5
-1.118, 1.557e-5
-1.119, 1.557e-5
-1.120, 1.557e-5
-1.121, 1.557e-5
-1.122, 1.557e-5
-1.123, 1.557e-5
-1.124, 1.865e-5
-1.125, 1.557e-5
-1.126, 1.557e-5
-1.127, 1.557e-5
-1.128, 1.865e-5
-1.129, 1.557e-5
-1.130, 1.557e-5
-1.131, 1.557e-5
-1.132, 1.865e-5
-1.133, 1.865e-5
-1.134, 1.557e-5
-1.135, 1.865e-5
-1.136, 1.865e-5
-1.137, 1.557e-5
-1.138, 1.865e-5
-1.139, 1.865e-5
-1.140, 1.865e-5
-1.141, 1.865e-5
-1.142, 1.557e-5
-1.143, 1.865e-5
-1.144, 1.865e-5
-1.145, 1.865e-5
-1.146, 1.557e-5
-1.147, 1.865e-5
-1.148, 1.865e-5
-1.149, 1.865e-5
-1.150, 1.557e-5
-1.151, 1.865e-5
-1.152, 1.865e-5
-1.153, 1.865e-5
-1.154, 1.865e-5
-1.155, 1.865e-5
-1.156, 1.557e-5
-1.157, 1.865e-5
-1.158, 1.557e-5
-1.159, 1.865e-5
-1.160, 1.865e-5
-1.161, 1.865e-5
-1.162, 1.865e-5
-1.163, 1.865e-5
-1.164, 1.865e-5
-1.165, 1.865e-5
-1.166, 1.557e-5
-1.167, 1.865e-5
-1.168, 1.865e-5
-1.169, 1.865e-5
-1.170, 1.865e-5
-1.171, 1.865e-5
-1.172, 1.865e-5
-1.173, 1.865e-5
-1.174, 1.865e-5
-1.175, 1.865e-5
-1.176, 1.865e-5
-1.177, 1.865e-5
-1.178, 1.865e-5
-1.179, 1.865e-5
-1.180, 1.865e-5
-1.181, 1.865e-5
-1.182, 1.865e-5
-1.183, 1.865e-5
-1.184, 1.865e-5
-1.185, 1.865e-5
-1.186, 1.865e-5
-1.187, 1.865e-5
-1.188, 1.865e-5
-1.189, 1.865e-5
-1.190, 1.865e-5
-1.191, 1.865e-5
-1.192, 1.865e-5
-1.193, 1.865e-5
-1.194, 1.865e-5
-1.195, 1.865e-5
-1.196, 1.865e-5
-1.197, 1.865e-5
-1.198, 1.865e-5
-1.199, 1.865e-5
-1.200, 1.865e-5
-1.201, 1.865e-5
-1.202, 1.865e-5
-1.203, 1.865e-5
-1.204, 1.865e-5
-1.205, 1.865e-5
-1.206, 1.865e-5
-1.207, 1.865e-5
-1.208, 1.865e-5
-1.209, 1.865e-5
-1.210, 1.865e-5
-1.211, 1.865e-5
-1.212, 1.865e-5
-1.213, 1.865e-5
-1.214, 1.865e-5
-1.215, 1.865e-5
-1.216, 1.865e-5
-1.217, 1.865e-5
-1.218, 1.865e-5
-1.219, 1.865e-5
-1.220, 1.865e-5
-1.221, 1.865e-5
-1.222, 1.865e-5
-1.223, 1.865e-5
-1.224, 1.865e-5
-1.225, 2.174e-5
-1.226, 1.865e-5
-1.227, 1.865e-5
-1.228, 1.865e-5
-1.229, 1.865e-5
-1.230, 1.865e-5
-1.231, 1.865e-5
-1.232, 1.865e-5
-1.233, 1.865e-5
-1.234, 1.865e-5
-1.235, 2.174e-5
-1.236, 1.865e-5
-1.237, 1.865e-5
-1.238, 1.865e-5
-1.239, 1.865e-5
-1.240, 1.865e-5
-1.241, 2.174e-5
-1.242, 1.865e-5
-1.243, 1.865e-5
-1.244, 1.865e-5
-1.245, 1.865e-5
-1.246, 1.865e-5
-1.247, 2.174e-5
-1.248, 1.865e-5
-1.249, 2.174e-5
-1.250, 2.174e-5
-1.251, 2.174e-5
-1.252, 1.865e-5
-1.253, 1.865e-5
-1.254, 2.174e-5
-1.255, 2.174e-5
-1.256, 1.865e-5
-1.257, 2.174e-5
-1.258, 2.174e-5
-1.259, 2.174e-5
-1.260, 2.174e-5
-1.261, 2.174e-5
-1.262, 2.174e-5
-1.263, 1.865e-5
-1.264, 2.174e-5
-1.265, 1.865e-5
-1.266, 2.174e-5
-1.267, 2.174e-5
-1.268, 2.174e-5
-1.269, 2.174e-5
-1.270, 2.174e-5
-1.271, 2.174e-5
-1.272, 2.174e-5
-1.273, 2.174e-5
-1.274, 2.174e-5
-1.275, 2.174e-5
-1.276, 2.174e-5
-1.277, 2.174e-5
-1.278, 2.174e-5
-1.279, 2.174e-5
-1.280, 2.174e-5
-1.281, 2.174e-5
-1.282, 2.174e-5
-1.283, 2.174e-5
-1.284, 2.174e-5
-1.285, 2.174e-5
-1.286, 2.174e-5
-1.287, 2.174e-5
-1.288, 2.174e-5
-1.289, 2.174e-5
-1.290, 2.174e-5
-1.291, 2.174e-5
-1.292, 2.174e-5
-1.293, 2.174e-5
-1.294, 2.174e-5
-1.295, 2.174e-5
-1.296, 2.174e-5
-1.297, 2.174e-5
-1.298, 2.174e-5
-1.299, 2.174e-5
-1.300, 2.174e-5
-1.301, 2.174e-5
-1.302, 2.174e-5
-1.303, 2.174e-5
-1.304, 2.174e-5
-1.305, 2.174e-5
-1.306, 2.174e-5
-1.307, 2.174e-5
-1.308, 2.174e-5
-1.309, 2.174e-5
-1.310, 2.174e-5
-1.311, 2.482e-5
-1.312, 2.174e-5
-1.313, 2.482e-5
-1.314, 2.174e-5
-1.315, 2.482e-5
-1.316, 2.174e-5
-1.317, 2.482e-5
-1.318, 2.174e-5
-1.319, 2.482e-5
-1.320, 2.174e-5
-1.321, 2.482e-5
-1.322, 2.482e-5
-1.323, 2.482e-5
-1.324, 2.174e-5
-1.325, 2.482e-5
-1.326, 2.482e-5
-1.327, 2.482e-5
-1.328, 2.482e-5
-1.329, 2.482e-5
-1.330, 2.482e-5
-1.331, 2.482e-5
-1.332, 2.482e-5
-1.333, 2.482e-5
-1.334, 2.482e-5
-1.335, 2.482e-5
-1.336, 2.482e-5
-1.337, 2.482e-5
-1.338, 2.482e-5
-1.339, 2.482e-5
-1.340, 2.482e-5
-1.341, 2.482e-5
-1.342, 2.482e-5
-1.343, 2.482e-5
-1.344, 2.482e-5
-1.345, 2.482e-5
-1.346, 2.482e-5
-1.347, 2.482e-5
-1.348, 2.482e-5
-1.349, 2.482e-5
-1.350, 2.790e-5
-1.351, 2.482e-5
-1.352, 2.482e-5
-1.353, 2.790e-5
-1.354, 2.790e-5
-1.355, 2.790e-5
-1.356, 2.790e-5
-1.357, 2.790e-5
-1.358, 2.790e-5
-1.359, 2.790e-5
-1.360, 2.790e-5
-1.361, 2.790e-5
-1.362, 2.790e-5
-1.363, 2.790e-5
-1.364, 2.790e-5
-1.365, 2.790e-5
-1.366, 2.790e-5
-1.367, 2.790e-5
-1.368, 2.790e-5
-1.369, 2.790e-5
-1.370, 3.099e-5
-1.371, 2.790e-5
-1.372, 2.790e-5
-1.373, 2.790e-5
-1.374, 3.099e-5
-1.375, 2.790e-5
-1.376, 3.099e-5
-1.377, 2.790e-5
-1.378, 3.099e-5
-1.379, 3.099e-5
-1.380, 3.099e-5
-1.381, 2.790e-5
-1.382, 3.099e-5
-1.383, 3.099e-5
-1.384, 3.099e-5
-1.385, 3.099e-5
-1.386, 3.099e-5
-1.387, 3.099e-5
-1.388, 3.099e-5
-1.389, 3.407e-5
-1.390, 3.099e-5
-1.391, 3.407e-5
-1.392, 3.099e-5
-1.393, 3.099e-5
-1.394, 3.099e-5
-1.395, 3.407e-5
-1.396, 3.407e-5
-1.397, 3.407e-5
-1.398, 3.407e-5
-1.399, 3.407e-5
-1.400, 3.407e-5
-1.401, 3.407e-5
-1.402, 3.407e-5
-1.403, 3.407e-5
-1.404, 3.407e-5
-1.405, 3.715e-5
-1.406, 3.407e-5
-1.407, 3.715e-5
-1.408, 3.715e-5
-1.409, 3.715e-5
-1.410, 3.715e-5
-1.411, 3.715e-5
-1.412, 3.715e-5
-1.413, 3.715e-5
-1.414, 3.715e-5
-1.415, 3.715e-5
-1.416, 3.715e-5
-1.417, 3.715e-5
-1.418, 3.715e-5
-1.419, 4.024e-5
-1.420, 4.024e-5
-1.421, 4.024e-5
-1.422, 4.024e-5
-1.423, 4.024e-5
-1.424, 4.024e-5
-1.425, 4.024e-5
-1.426, 4.332e-5
-1.427, 4.024e-5
-1.428, 4.332e-5
-1.429, 4.024e-5
-1.430, 4.332e-5
-1.431, 4.332e-5
-1.432, 4.332e-5
-1.433, 4.332e-5
-1.434, 4.332e-5
-1.435, 4.332e-5
-1.436, 4.640e-5
-1.437, 4.332e-5
-1.438, 4.640e-5
-1.439, 4.640e-5
-1.440, 4.640e-5
-1.441, 4.640e-5
-1.442, 4.640e-5
-1.443, 4.640e-5
-1.444, 4.949e-5
-1.445, 4.640e-5
-1.446, 4.949e-5
-1.447, 4.949e-5
-1.448, 4.949e-5
-1.449, 4.949e-5
-1.450, 4.949e-5
-1.451, 4.949e-5
-1.452, 5.257e-5
-1.453, 4.949e-5
-1.454, 5.257e-5
-1.455, 5.257e-5
-1.456, 5.257e-5
-1.457, 5.257e-5
-1.458, 5.257e-5
-1.459, 5.257e-5
-1.460, 5.565e-5
-1.461, 5.565e-5
-1.462, 5.565e-5
-1.463, 5.565e-5
-1.464, 5.565e-5
-1.465, 5.873e-5
-1.466, 5.873e-5
-1.467, 5.873e-5
-1.468, 5.873e-5
-1.469, 5.873e-5
-1.470, 5.873e-5
-1.471, 5.873e-5
-1.472, 5.873e-5
-1.473, 6.182e-5
-1.474, 6.182e-5
-1.475, 6.182e-5
-1.476, 6.182e-5
-1.477, 6.490e-5
-1.478, 6.490e-5
-1.479, 6.490e-5
-1.480, 6.490e-5
-1.481, 6.490e-5
-1.482, 6.490e-5
-1.483, 6.490e-5
-1.484, 6.490e-5
-1.485, 6.798e-5
-1.486, 6.798e-5
-1.487, 6.798e-5
-1.488, 6.798e-5
-1.489, 7.107e-5
-1.490, 7.107e-5
-1.491, 7.107e-5
-1.492, 7.107e-5
-1.493, 7.415e-5
-1.494, 7.415e-5
-1.495, 7.415e-5
-1.496, 7.415e-5
-1.497, 7.723e-5
-1.498, 7.723e-5
-1.499, 7.723e-5
-1.500, 7.723e-5
-1.501, 8.032e-5
-1.502, 8.032e-5
-1.503, 8.032e-5
-1.504, 8.032e-5
-1.505, 8.032e-5
-1.506, 8.032e-5
-1.507, 8.032e-5
-1.508, 8.648e-5
-1.509, 8.340e-5
-1.510, 8.340e-5
-1.511, 8.340e-5
-1.512, 8.648e-5
-1.513, 8.648e-5
-1.514, 8.648e-5
-1.515, 8.648e-5
-1.516, 8.648e-5
-1.517, 8.648e-5
-1.518, 8.957e-5
-1.519, 8.957e-5
-1.520, 9.265e-5
-1.521, 9.265e-5
-1.522, 9.265e-5
-1.523, 9.265e-5
-1.524, 9.573e-5
-1.525, 9.573e-5
-1.526, 9.882e-5
-1.527, 9.573e-5
-1.528, 9.882e-5
-1.529, 9.882e-5
-1.530, 1.019e-4
-1.531, 1.019e-4
-1.532, 1.019e-4
-1.533, 1.050e-4
-1.534, 1.050e-4
-1.535, 1.081e-4
-1.536, 1.081e-4
-1.537, 1.081e-4
-1.538, 1.111e-4
-1.539, 1.111e-4
-1.540, 1.142e-4
-1.541, 1.142e-4
-1.542, 1.173e-4
-1.543, 1.142e-4
-1.544, 1.173e-4
-1.545, 1.173e-4
-1.546, 1.173e-4
-1.547, 1.173e-4
-1.548, 1.204e-4
-1.549, 1.235e-4
-1.550, 1.235e-4
-1.551, 1.235e-4
-1.552, 1.266e-4
-1.553, 1.266e-4
-1.554, 1.266e-4
-1.555, 1.266e-4
-1.556, 1.266e-4
-1.557, 1.296e-4
-1.558, 1.296e-4
-1.559, 1.327e-4
-1.560, 1.327e-4
-1.561, 1.327e-4
-1.562, 1.327e-4
-1.563, 1.327e-4
-1.564, 1.327e-4
-1.565, 1.358e-4
-1.566, 1.358e-4
-1.567, 1.389e-4
-1.568, 1.389e-4
-1.569, 1.389e-4
-1.570, 1.389e-4
-1.571, 1.389e-4
-1.572, 1.420e-4
-1.573, 1.451e-4
-1.574, 1.451e-4
-1.575, 1.451e-4
-1.576, 1.451e-4
-1.577, 1.451e-4
-1.578, 1.481e-4
-1.579, 1.512e-4
-1.580, 1.512e-4
-1.581, 1.543e-4
-1.582, 1.543e-4
-1.583, 1.543e-4
-1.584, 1.543e-4
-1.585, 1.605e-4
-1.586, 1.605e-4
-1.587, 1.636e-4
-1.588, 1.636e-4
-1.589, 1.636e-4
-1.590, 1.666e-4
-1.591, 1.666e-4
-1.592, 1.666e-4
-1.593, 1.697e-4
-1.594, 1.697e-4
-1.595, 1.728e-4
-1.596, 1.759e-4
-1.597, 1.759e-4
-1.598, 1.790e-4
-1.599, 1.759e-4
-1.600, 1.790e-4
-1.601, 1.821e-4
-1.602, 1.851e-4
-1.603, 1.851e-4
-1.604, 1.851e-4
-1.605, 1.913e-4
-1.606, 1.944e-4
-1.607, 1.944e-4
-1.608, 1.944e-4
-1.609, 1.944e-4
-1.610, 2.006e-4
-1.611, 2.006e-4
-1.612, 2.036e-4
-1.613, 2.036e-4
-1.614, 2.098e-4
-1.615, 2.098e-4
-1.616, 2.098e-4
-1.617, 2.129e-4
-1.618, 2.160e-4
-1.619, 2.191e-4
-1.620, 2.160e-4
-1.621, 2.191e-4
-1.622, 2.252e-4
-1.623, 2.252e-4
-1.624, 2.283e-4
-1.625, 2.283e-4
-1.626, 2.345e-4
-1.627, 2.345e-4
-1.628, 2.376e-4
-1.629, 2.376e-4
-1.630, 2.406e-4
-1.631, 2.437e-4
-1.632, 2.468e-4
-1.633, 2.499e-4
-1.634, 2.499e-4
-1.635, 2.561e-4
-1.636, 2.591e-4
-1.637, 2.591e-4
-1.638, 2.561e-4
-1.639, 2.622e-4
-1.640, 2.684e-4
-1.641, 2.715e-4
-1.642, 2.715e-4
-1.643, 2.746e-4
-1.644, 2.807e-4
-1.645, 2.838e-4
-1.646, 2.838e-4
-1.647, 2.869e-4
-1.648, 2.900e-4
-1.649, 2.961e-4
-1.650, 2.992e-4
-1.651, 3.023e-4
-1.652, 3.085e-4
-1.653, 3.085e-4
-1.654, 3.115e-4
-1.655, 3.208e-4
-1.656, 3.208e-4
-1.657, 3.208e-4
-1.658, 3.331e-4
-1.659, 3.362e-4
-1.660, 3.362e-4
-1.661, 3.393e-4
-1.662, 3.455e-4
-1.663, 3.485e-4
-1.664, 3.516e-4
-1.665, 3.516e-4
-1.666, 3.609e-4
-1.667, 3.609e-4
-1.668, 3.609e-4
-1.669, 3.701e-4
-1.670, 3.732e-4
-1.671, 3.763e-4
-1.672, 3.794e-4
-1.673, 3.855e-4
-1.674, 3.855e-4
-1.675, 3.917e-4
-1.676, 3.917e-4
-1.677, 4.010e-4
-1.678, 4.040e-4
-1.679, 4.040e-4
-1.680, 4.102e-4
-1.681, 4.133e-4
-1.682, 4.164e-4
-1.683, 4.195e-4
-1.684, 4.256e-4
-1.685, 4.256e-4
-1.686, 4.256e-4
-1.687, 4.380e-4
-1.688, 4.380e-4
-1.689, 4.441e-4
-1.690, 4.503e-4
-1.691, 4.595e-4
-1.692, 4.565e-4
-1.693, 4.657e-4
-1.694, 4.719e-4
-1.695, 4.780e-4
-1.696, 4.811e-4
-1.697, 4.811e-4
-1.698, 4.935e-4
-1.699, 4.935e-4
-1.700, 4.965e-4
-1.701, 5.027e-4
-1.702, 5.120e-4
-1.703, 5.150e-4
-1.704, 5.181e-4
-1.705, 5.274e-4
-1.706, 5.335e-4
-1.707, 5.397e-4
-1.708, 5.428e-4
-1.709, 5.489e-4
-1.710, 5.582e-4
-1.711, 5.644e-4
-1.712, 5.705e-4
-1.713, 5.798e-4
-1.714, 5.829e-4
-1.715, 5.859e-4
-1.716, 5.983e-4
-1.717, 5.921e-4
-1.718, 6.044e-4
-1.719, 6.106e-4
-1.720, 6.137e-4
-1.721, 6.260e-4
-1.722, 6.322e-4
-1.723, 6.476e-4
-1.724, 6.476e-4
-1.725, 6.569e-4
-1.726, 6.630e-4
-1.727, 6.754e-4
-1.728, 6.784e-4
-1.729, 6.846e-4
-1.730, 7.000e-4
-1.731, 7.062e-4
-1.732, 7.154e-4
-1.733, 7.309e-4
-1.734, 7.370e-4
-1.735, 7.463e-4
-1.736, 7.586e-4
-1.737, 7.586e-4
-1.738, 7.709e-4
-1.739, 7.894e-4
-1.740, 7.987e-4
-1.741, 8.110e-4
-1.742, 8.264e-4
-1.743, 8.295e-4
-1.744, 8.449e-4
-1.745, 8.511e-4
-1.746, 8.634e-4
-1.747, 8.850e-4
-1.748, 8.912e-4
-1.749, 9.004e-4
-1.750, 9.158e-4
-1.751, 9.343e-4
-1.752, 9.467e-4
-1.753, 9.559e-4
-1.754, 9.775e-4
-1.755, 9.868e-4
-1.756, 9.960e-4
-1.757, 1.014e-3
-1.758, 1.027e-3
-1.759, 1.039e-3
-1.760, 1.051e-3
-1.761, 1.070e-3
-1.762, 1.082e-3
-1.763, 1.107e-3
-1.764, 1.122e-3
-1.765, 1.132e-3
-1.766, 1.153e-3
-1.767, 1.153e-3
-1.768, 1.190e-3
-1.769, 1.199e-3
-1.770, 1.218e-3
-1.771, 1.230e-3
-1.772, 1.249e-3
-1.773, 1.267e-3
-1.774, 1.286e-3
-1.775, 1.317e-3
-1.776, 1.323e-3
-1.777, 1.344e-3
-1.778, 1.363e-3
-1.779, 1.391e-3
-1.780, 1.412e-3
-1.781, 1.421e-3
-1.782, 1.449e-3
-1.783, 1.471e-3
-1.784, 1.499e-3
-1.785, 1.517e-3
-1.786, 1.532e-3
-1.787, 1.560e-3
-1.788, 1.588e-3
-1.789, 1.600e-3
-1.790, 1.628e-3
-1.791, 1.656e-3
-1.792, 1.668e-3
-1.793, 1.702e-3
-1.794, 1.721e-3
-1.795, 1.748e-3
-1.796, 1.767e-3
-1.797, 1.791e-3
-1.798, 1.819e-3
-1.799, 1.841e-3
-1.800, 1.875e-3
-1.801, 1.893e-3
-1.802, 1.921e-3
-1.803, 1.952e-3
-1.804, 1.983e-3
-1.805, 2.004e-3
-1.806, 2.029e-3
-1.807, 2.066e-3
-1.808, 2.100e-3
-1.809, 2.121e-3
-1.810, 2.158e-3
-1.811, 2.189e-3
-1.812, 2.217e-3
-1.813, 2.248e-3
-1.814, 2.279e-3
-1.815, 2.312e-3
-1.816, 2.334e-3
-1.817, 2.365e-3
-1.818, 2.396e-3
-1.819, 2.442e-3
-1.820, 2.470e-3
-1.821, 2.516e-3
-1.822, 2.556e-3
-1.823, 2.581e-3
-1.824, 2.618e-3
-1.825, 2.639e-3
-1.826, 2.682e-3
-1.827, 2.716e-3
-1.828, 2.760e-3
-1.829, 2.793e-3
-1.830, 2.827e-3
-1.831, 2.877e-3
-1.832, 2.914e-3
-1.833, 2.954e-3
-1.834, 2.991e-3
-1.835, 3.037e-3
-1.836, 3.077e-3
-1.837, 3.114e-3
-1.838, 3.163e-3
-1.839, 3.216e-3
-1.840, 3.259e-3
-1.841, 3.296e-3
-1.842, 3.348e-3
-1.843, 3.395e-3
-1.844, 3.438e-3
-1.845, 3.487e-3
-1.846, 3.536e-3
-1.847, 3.583e-3
-1.848, 3.635e-3
-1.849, 3.678e-3
-1.850, 3.743e-3
-1.851, 3.780e-3
-1.852, 3.836e-3
-1.853, 3.885e-3
-1.854, 3.937e-3
-1.855, 3.984e-3
-1.856, 4.045e-3
-1.857, 4.076e-3
-1.858, 4.141e-3
-1.859, 4.190e-3
-1.860, 4.246e-3
-1.861, 4.298e-3
-1.862, 4.366e-3
-1.863, 4.406e-3
-1.864, 4.461e-3
-1.865, 4.514e-3
-1.866, 4.566e-3
-1.867, 4.628e-3
-1.868, 4.686e-3
-1.869, 4.745e-3
-1.870, 4.804e-3
-1.871, 4.868e-3
-1.872, 4.927e-3
-1.873, 4.976e-3
-1.874, 5.038e-3
-1.875, 5.097e-3
-1.876, 5.158e-3
-1.877, 5.229e-3
-1.878, 5.278e-3
-1.879, 5.340e-3
-1.880, 5.408e-3
-1.881, 5.467e-3
-1.882, 5.525e-3
-1.883, 5.590e-3
-1.884, 5.645e-3
-1.885, 5.707e-3
-1.886, 5.772e-3
-1.887, 5.833e-3
-1.888, 5.883e-3
-1.889, 5.951e-3
-1.890, 6.003e-3
-1.891, 6.074e-3
-1.892, 6.126e-3
-1.893, 6.194e-3
-1.894, 6.243e-3
-1.895, 6.317e-3
-1.896, 6.370e-3
-1.897, 6.425e-3
-1.898, 6.484e-3
-1.899, 6.543e-3
-1.900, 6.573e-3
-1.899, 6.555e-3
-1.898, 6.546e-3
-1.897, 6.512e-3
-1.896, 6.490e-3
-1.895, 6.459e-3
-1.894, 6.435e-3
-1.893, 6.410e-3
-1.892, 6.382e-3
-1.891, 6.348e-3
-1.890, 6.327e-3
-1.889, 6.299e-3
-1.888, 6.271e-3
-1.887, 6.240e-3
-1.886, 6.210e-3
-1.885, 6.179e-3
-1.884, 6.145e-3
-1.883, 6.111e-3
-1.882, 6.068e-3
-1.881, 6.037e-3
-1.880, 6.003e-3
-1.879, 5.975e-3
-1.878, 5.947e-3
-1.877, 5.907e-3
-1.876, 5.873e-3
-1.875, 5.840e-3
-1.874, 5.803e-3
-1.873, 5.766e-3
-1.872, 5.735e-3
-1.871, 5.695e-3
-1.870, 5.664e-3
-1.869, 5.627e-3
-1.868, 5.587e-3
-1.867, 5.562e-3
-1.866, 5.522e-3
-1.865, 5.494e-3
-1.864, 5.451e-3
-1.863, 5.411e-3
-1.862, 5.380e-3
-1.861, 5.340e-3
-1.860, 5.303e-3
-1.859, 5.266e-3
-1.858, 5.238e-3
-1.857, 5.201e-3
-1.856, 5.167e-3
-1.855, 5.134e-3
-1.854, 5.103e-3
-1.853, 5.063e-3
-1.852, 5.029e-3
-1.851, 4.992e-3
-1.850, 4.949e-3
-1.849, 4.921e-3
-1.848, 4.881e-3
-1.847, 4.844e-3
-1.846, 4.810e-3
-1.845, 4.779e-3
-1.844, 4.739e-3
-1.843, 4.699e-3
-1.842, 4.677e-3
-1.841, 4.637e-3
-1.840, 4.609e-3
-1.839, 4.572e-3
-1.838, 4.542e-3
-1.837, 4.498e-3
-1.836, 4.477e-3
-1.835, 4.446e-3
-1.834, 4.415e-3
-1.833, 4.384e-3
-1.832, 4.354e-3
-1.831, 4.323e-3
-1.830, 4.289e-3
-1.829, 4.249e-3
-1.828, 4.215e-3
-1.827, 4.184e-3
-1.826, 4.156e-3
-1.825, 4.125e-3
-1.824, 4.082e-3
-1.823, 4.042e-3
-1.822, 4.011e-3
-1.821, 3.984e-3
-1.820, 3.937e-3
-1.819, 3.919e-3
-1.818, 3.885e-3
-1.817, 3.842e-3
-1.816, 3.814e-3
-1.815, 3.774e-3
-1.814, 3.737e-3
-1.813, 3.703e-3
-1.812, 3.669e-3
-1.811, 3.635e-3
-1.810, 3.598e-3
-1.809, 3.564e-3
-1.808, 3.540e-3
-1.807, 3.506e-3
-1.806, 3.469e-3
-1.805, 3.441e-3
-1.804, 3.404e-3
-1.803, 3.373e-3
-1.802, 3.333e-3
-1.801, 3.302e-3
-1.800, 3.268e-3
-1.799, 3.244e-3
-1.798, 3.200e-3
-1.797, 3.176e-3
-1.796, 3.145e-3
-1.795, 3.111e-3
-1.794, 3.071e-3
-1.793, 3.040e-3
-1.792, 3.015e-3
-1.791, 2.969e-3
-1.790, 2.935e-3
-1.789, 2.895e-3
-1.788, 2.871e-3
-1.787, 2.843e-3
-1.786, 2.800e-3
-1.785, 2.766e-3
-1.784, 2.753e-3
-1.783, 2.719e-3
-1.782, 2.682e-3
-1.781, 2.658e-3
-1.780, 2.624e-3
-1.779, 2.593e-3
-1.778, 2.559e-3
-1.777, 2.528e-3
-1.776, 2.494e-3
-1.775, 2.482e-3
-1.774, 2.442e-3
-1.773, 2.427e-3
-1.772, 2.393e-3
-1.771, 2.365e-3
-1.770, 2.346e-3
-1.769, 2.300e-3
-1.768, 2.291e-3
-1.767, 2.263e-3
-1.766, 2.232e-3
-1.765, 2.220e-3
-1.764, 2.186e-3
-1.763, 2.164e-3
-1.762, 2.134e-3
-1.761, 2.106e-3
-1.760, 2.084e-3
-1.759, 2.063e-3
-1.758, 2.044e-3
-1.757, 2.013e-3
-1.756, 2.001e-3
-1.755, 1.961e-3
-1.754, 1.952e-3
-1.753, 1.921e-3
-1.752, 1.909e-3
-1.751, 1.881e-3
-1.750, 1.859e-3
-1.749, 1.838e-3
-1.748, 1.819e-3
-1.747, 1.795e-3
-1.746, 1.776e-3
-1.745, 1.751e-3
-1.744, 1.727e-3
-1.743, 1.717e-3
-1.742, 1.687e-3
-1.741, 1.671e-3
-1.740, 1.643e-3
-1.739, 1.631e-3
-1.738, 1.603e-3
-1.737, 1.588e-3
-1.736, 1.569e-3
-1.735, 1.548e-3
-1.734, 1.529e-3
-1.733, 1.523e-3
-1.732, 1.502e-3
-1.731, 1.477e-3
-1.730, 1.449e-3
-1.729, 1.449e-3
-1.728, 1.421e-3
-1.727, 1.412e-3
-1.726, 1.397e-3
-1.725, 1.381e-3
-1.724, 1.366e-3
-1.723, 1.338e-3
-1.722, 1.320e-3
-1.721, 1.307e-3
-1.720, 1.295e-3
-1.719, 1.280e-3
-1.718, 1.258e-3
-1.717, 1.249e-3
-1.716, 1.233e-3
-1.715, 1.206e-3
-1.714, 1.196e-3
-1.713, 1.187e-3
-1.712, 1.162e-3
-1.711, 1.162e-3
-1.710, 1.138e-3
-1.709, 1.116e-3
-1.708, 1.107e-3
-1.707, 1.085e-3
-1.706, 1.073e-3
-1.705, 1.070e-3
-1.704, 1.042e-3
-1.703, 1.030e-3
-1.702, 1.024e-3
-1.701, 1.002e-3
-1.700, 9.898e-4
-1.699, 9.806e-4
-1.698, 9.559e-4
-1.697, 9.467e-4
-1.696, 9.405e-4
-1.695, 9.128e-4
-1.694, 9.097e-4
-1.693, 8.973e-4
-1.692, 8.727e-4
-1.691, 8.727e-4
-1.690, 8.511e-4
-1.689, 8.357e-4
-1.688, 8.357e-4
-1.687, 8.203e-4
-1.686, 8.048e-4
-1.685, 7.987e-4
-1.684, 7.925e-4
-1.683, 7.709e-4
-1.682, 7.617e-4
-1.681, 7.617e-4
-1.680, 7.432e-4
-1.679, 7.309e-4
-1.678, 7.216e-4
-1.677, 7.093e-4
-1.676, 7.000e-4
-1.675, 6.939e-4
-1.674, 6.784e-4
-1.673, 6.723e-4
-1.672, 6.661e-4
-1.671, 6.507e-4
-1.670, 6.384e-4
-1.669, 6.322e-4
-1.668, 6.322e-4
-1.667, 6.137e-4
-1.666, 6.014e-4
-1.665, 6.014e-4
-1.664, 5.890e-4
-1.663, 5.798e-4
-1.662, 5.674e-4
-1.661, 5.674e-4
-1.660, 5.551e-4
-1.659, 5.428e-4
-1.658, 5.335e-4
-1.657, 5.274e-4
-1.656, 5.181e-4
-1.655, 5.058e-4
-1.654, 4.935e-4
-1.653, 4.935e-4
-1.652, 4.842e-4
-1.651, 4.750e-4
-1.650, 4.719e-4
-1.649, 4.657e-4
-1.648, 4.595e-4
-1.647, 4.503e-4
-1.646, 4.441e-4
-1.645, 4.441e-4
-1.644, 4.318e-4
-1.643, 4.256e-4
-1.642, 4.164e-4
-1.641, 4.133e-4
-1.640, 4.071e-4
-1.639, 4.010e-4
-1.638, 3.979e-4
-1.637, 3.917e-4
-1.636, 3.825e-4
-1.635, 3.794e-4
-1.634, 3.732e-4
-1.633, 3.640e-4
-1.632, 3.578e-4
-1.631, 3.485e-4
-1.630, 3.516e-4
-1.629, 3.455e-4
-1.628, 3.424e-4
-1.627, 3.362e-4
-1.626, 3.300e-4
-1.625, 3.239e-4
-1.624, 3.208e-4
-1.623, 3.146e-4
-1.622, 3.085e-4
-1.621, 3.054e-4
-1.620, 2.992e-4
-1.619, 2.961e-4
-1.618, 2.900e-4
-1.617, 2.807e-4
-1.616, 2.869e-4
-1.615, 2.807e-4
-1.614, 2.746e-4
-1.613, 2.715e-4
-1.612, 2.653e-4
-1.611, 2.653e-4
-1.610, 2.653e-4
-1.609, 2.530e-4
-1.608, 2.468e-4
-1.607, 2.468e-4
-1.606, 2.437e-4
-1.605, 2.437e-4
-1.604, 2.376e-4
-1.603, 2.345e-4
-1.602, 2.283e-4
-1.601, 2.252e-4
-1.600, 2.191e-4
-1.599, 2.191e-4
-1.598, 2.191e-4
-1.597, 2.129e-4
-1.596, 2.129e-4
-1.595, 2.036e-4
-1.594, 2.036e-4
-1.593, 1.975e-4
-1.592, 1.944e-4
-1.591, 1.913e-4
-1.590, 1.913e-4
-1.589, 1.851e-4
-1.588, 1.851e-4
-1.587, 1.790e-4
-1.586, 1.790e-4
-1.585, 1.728e-4
-1.584, 1.759e-4
-1.583, 1.697e-4
-1.582, 1.636e-4
-1.581, 1.636e-4
-1.580, 1.605e-4
-1.579, 1.574e-4
-1.578, 1.543e-4
-1.577, 1.574e-4
-1.576, 1.543e-4
-1.575, 1.451e-4
-1.574, 1.451e-4
-1.573, 1.420e-4
-1.572, 1.420e-4
-1.571, 1.358e-4
-1.570, 1.389e-4
-1.569, 1.358e-4
-1.568, 1.327e-4
-1.567, 1.296e-4
-1.566, 1.266e-4
-1.565, 1.266e-4
-1.564, 1.204e-4
-1.563, 1.173e-4
-1.562, 1.235e-4
-1.561, 1.173e-4
-1.560, 1.173e-4
-1.559, 1.142e-4
-1.558, 1.111e-4
-1.557, 1.111e-4
-1.556, 1.050e-4
-1.555, 1.050e-4
-1.554, 1.019e-4
-1.553, 1.019e-4
-1.552, 9.573e-5
-1.551, 9.573e-5
-1.550, 9.882e-5
-1.549, 9.573e-5
-1.548, 9.265e-5
-1.547, 9.265e-5
-1.546, 8.957e-5
-1.545, 8.957e-5
-1.544, 8.648e-5
-1.543, 8.340e-5
-1.542, 8.032e-5
-1.541, 7.723e-5
-1.540, 8.340e-5
-1.539, 8.032e-5
-1.538, 7.723e-5
-1.537, 7.723e-5
-1.536, 7.723e-5
-1.535, 7.415e-5
-1.534, 7.107e-5
-1.533, 7.107e-5
-1.532, 6.798e-5
-1.531, 6.490e-5
-1.530, 6.798e-5
-1.529, 6.490e-5
-1.528, 6.182e-5
-1.527, 6.182e-5
-1.526, 6.182e-5
-1.525, 6.490e-5
-1.524, 6.182e-5
-1.523, 5.873e-5
-1.522, 5.873e-5
-1.521, 5.565e-5
-1.520, 5.873e-5
-1.519, 5.565e-5
-1.518, 5.565e-5
-1.517, 5.257e-5
-1.516, 5.257e-5
-1.515, 4.949e-5
-1.514, 4.949e-5
-1.513, 4.640e-5
-1.512, 4.949e-5
-1.511, 4.949e-5
-1.510, 4.640e-5
-1.509, 4.640e-5
-1.508, 4.640e-5
-1.507, 4.332e-5
-1.506, 4.332e-5
-1.505, 4.024e-5
-1.504, 4.024e-5
-1.503, 4.024e-5
-1.502, 4.024e-5
-1.501, 3.715e-5
-1.500, 3.715e-5
-1.499, 3.715e-5
-1.498, 3.715e-5
-1.497, 3.715e-5
-1.496, 3.407e-5
-1.495, 3.407e-5
-1.494, 3.407e-5
-1.493, 3.407e-5
-1.492, 3.407e-5
-1.491, 3.099e-5
-1.490, 3.099e-5
-1.489, 3.099e-5
-1.488, 3.099e-5
-1.487, 2.790e-5
-1.486, 2.790e-5
-1.485, 2.790e-5
-1.484, 2.482e-5
-1.483, 2.482e-5
-1.482, 2.482e-5
-1.481, 2.482e-5
-1.480, 2.482e-5
-1.479, 2.482e-5
-1.478, 2.174e-5
-1.477, 2.482e-5
-1.476, 2.174e-5
-1.475, 2.174e-5
-1.474, 2.174e-5
-1.473, 2.174e-5
-1.472, 2.174e-5
-1.471, 2.174e-5
-1.470, 1.865e-5
-1.469, 1.865e-5
-1.468, 1.865e-5
-1.467, 1.865e-5
-1.466, 1.865e-5
-1.465, 1.865e-5
-1.464, 1.557e-5
-1.463, 1.557e-5
-1.462, 1.557e-5
-1.461, 1.557e-5
-1.460, 1.557e-5
-1.459, 1.557e-5
-1.458, 1.557e-5
-1.457, 1.249e-5
-1.456, 1.557e-5
-1.455, 1.249e-5
-1.454, 1.249e-5
-1.453, 1.249e-5
-1.452, 1.249e-5
-1.451, 1.249e-5
-1.450, 1.249e-5
-1.449, 9.405e-6
-1.448, 9.405e-6
-1.447, 9.405e-6
-1.446, 9.405e-6
-1.445, 9.405e-6
-1.444, 9.405e-6
-1.443, 9.405e-6
-1.442, 9.405e-6
-1.441, 9.405e-6
-1.440, 9.405e-6
-1.439, 6.322e-6
-1.438, 6.322e-6
-1.437, 6.322e-6
-1.436, 6.322e-6
-1.435, 6.322e-6
-1.434, 6.322e-6
-1.433, 6.322e-6
-1.432, 6.322e-6
-1.431, 6.322e-6
-1.430, 6.322e-6
-1.429, 6.322e-6
-1.428, 6.322e-6
-1.427, 3.239e-6
-1.426, 3.239e-6
-1.425, 3.239e-6
-1.424, 3.239e-6
-1.423, 3.239e-6
-1.422, 3.239e-6
-1.421, 3.239e-6
-1.420, 3.239e-6
-1.419, 3.239e-6
-1.418, 3.239e-6
-1.417, 3.239e-6
-1.416, 3.239e-6
-1.415, 3.239e-6
-1.414, 1.559e-7
-1.413, 3.239e-6
-1.412, 1.559e-7
-1.411, 1.559e-7
-1.410, 1.559e-7
-1.409, 3.239e-6
-1.408, 1.559e-7
-1.407, 1.559e-7
-1.406, 1.559e-7
-1.405, 1.559e-7
-1.404, 1.559e-7
-1.403, 1.559e-7
-1.402, 1.559e-7
-1.401, 1.559e-7
-1.400, 1.559e-7
-1.399, 1.559e-7
-1.398, 1.559e-7
-1.397, 1.559e-7
-1.396, 1.559e-7
-1.395, 1.559e-7
-1.394, -2.927e-6
-1.393, 1.559e-7
-1.392, 1.559e-7
-1.391, 1.559e-7
-1.390, -2.927e-6
-1.389, 1.559e-7
-1.388, -2.927e-6
-1.387, 1.559e-7
-1.386, -2.927e-6
-1.385, -2.927e-6
-1.384, -2.927e-6
-1.383, -2.927e-6
-1.382, -2.927e-6
-1.381, -2.927e-6
-1.380, -2.927e-6
-1.379, -2.927e-6
-1.378, -2.927e-6
-1.377, -2.927e-6
-1.376, -2.927e-6
-1.375, -2.927e-6
-1.374, -2.927e-6
-1.373, -2.927e-6
-1.372, -2.927e-6
-1.371, -2.927e-6
-1.370, -2.927e-6
-1.369, -2.927e-6
-1.368, -2.927e-6
-1.367, -2.927e-6
-1.366, -2.927e-6
-1.365, -2.927e-6
-1.364, -6.010e-6
-1.363, -2.927e-6
-1.362, -2.927e-6
-1.361, -2.927e-6
-1.360, -2.927e-6
-1.359, -6.010e-6
-1.358, -2.927e-6
-1.357, -2.927e-6
-1.356, -6.010e-6
-1.355, -6.010e-6
-1.354, -2.927e-6
-1.353, -6.010e-6
-1.352, -6.010e-6
-1.351, -6.010e-6
-1.350, -6.010e-6
-1.349, -6.010e-6
-1.348, -6.010e-6
-1.347, -6.010e-6
-1.346, -2.927e-6
-1.345, -6.010e-6
-1.344, -6.010e-6
-1.343, -6.010e-6
-1.342, -2.927e-6
-1.341, -6.010e-6
-1.340, -6.010e-6
-1.339, -6.010e-6
-1.338, -6.010e-6
-1.337, -6.010e-6
-1.336, -6.010e-6
-1.335, -6.010e-6
-1.334, -6.010e-6
-1.333, -6.010e-6
-1.332, -6.010e-6
-1.331, -6.010e-6
-1.330, -6.010e-6
-1.329, -6.010e-6
-1.328, -6.010e-6
-1.327, -6.010e-6
-1.326, -6.010e-6
-1.325, -6.010e-6
-1.324, -6.010e-6
-1.323, -6.010e-6
-1.322, -6.010e-6
-1.321, -6.010e-6
-1.320, -6.010e-6
-1.319, -6.010e-6
-1.318, -6.010e-6
-1.317, -6.010e-6
-1.316, -6.010e-6
-1.315, -6.010e-6
-1.314, -6.010e-6
-1.313, -6.010e-6
-1.312, -6.010e-6
-1.311, -6.010e-6
-1.310, -6.010e-6
-1.309, -6.010e-6
-1.308, -6.010e-6
-1.307, -6.010e-6
-1.306, -6.010e-6
-1.305, -6.010e-6
-1.304, -6.010e-6
-1.303, -6.010e-6
-1.302, -6.010e-6
-1.301, -6.010e-6
-1.300, -6.010e-6
-1.299, -6.010e-6
-1.298, -6.010e-6
-1.297, -6.010e-6
-1.296, -6.010e-6
-1.295, -6.010e-6
-1.294, -6.010e-6
-1.293, -6.010e-6
-1.292, -6.010e-6
-1.291, -6.010e-6
-1.290, -6.010e-6
-1.289, -9.093e-6
-1.288, -6.010e-6
-1.287, -6.010e-6
-1.286, -6.010e-6
-1.285, -6.010e-6
-1.284, -6.010e-6
-1.283, -9.093e-6
-1.282, -6.010e-6
-1.281, -6.010e-6
-1.280, -6.010e-6
-1.279, -9.093e-6
-1.278, -6.010e-6
-1.277, -9.093e-6
-1.276, -9.093e-6
-1.275, -6.010e-6
-1.274, -6.010e-6
-1.273, -6.010e-6
-1.272, -9.093e-6
-1.271, -6.010e-6
-1.270, -9.093e-6
-1.269, -6.010e-6
-1.268, -9.093e-6
-1.267, -6.010e-6
-1.266, -6.010e-6
-1.265, -9.093e-6
-1.264, -6.010e-6
-1.263, -6.010e-6
-1.262, -9.093e-6
-1.261, -6.010e-6
-1.260, -9.093e-6
-1.259, -6.010e-6
-1.258, -6.010e-6
-1.257, -9.093e-6
-1.256, -6.010e-6
-1.255, -9.093e-6
-1.254, -6.010e-6
-1.253, -9.093e-6
-1.252, -9.093e-6
-1.251, -6.010e-6
-1.250, -9.093e-6
-1.249, -9.093e-6
-1.248, -9.093e-6
-1.247, -9.093e-6
-1.246, -9.093e-6
-1.245, -6.010e-6
-1.244, -9.093e-6
-1.243, -9.093e-6
-1.242, -9.093e-6
-1.241, -6.010e-6
-1.240, -9.093e-6
-1.239, -6.010e-6
-1.238, -9.093e-6
-1.237, -6.010e-6
-1.236, -9.093e-6
-1.235, -6.010e-6
-1.234, -6.010e-6
-1.233, -6.010e-6
-1.232, -9.093e-6
-1.231, -6.010e-6
-1.230, -9.093e-6
-1.229, -9.093e-6
-1.228, -9.093e-6
-1.227, -9.093e-6
-1.226, -9.093e-6
-1.225, -9.093e-6
-1.224, -9.093e-6
-1.223, -9.093e-6
-1.222, -9.093e-6
-1.221, -9.093e-6
-1.220, -9.093e-6
-1.219, -9.093e-6
-1.218, -9.093e-6
-1.217, -9.093e-6
-1.216, -9.093e-6
-1.215, -9.093e-6
-1.214, -9.093e-6
-1.213, -9.093e-6
-1.212, -9.093e-6
-1.211, -9.093e-6
-1.210, -9.093e-6
-1.209, -9.093e-6
-1.208, -9.093e-6
-1.207, -9.093e-6
-1.206, -6.010e-6
-1.205, -9.093e-6
-1.204, -9.093e-6
-1.203, -9.093e-6
-1.202, -9.093e-6
-1.201, -9.093e-6
-1.200, -9.093e-6
-1.199, -9.093e-6
-1.198, -6.010e-6
-1.197, -9.093e-6
-1.196, -9.093e-6
-1.195, -9.093e-6
-1.194, -9.093e-6
-1.193, -9.093e-6
-1.192, -6.010e-6
-1.191, -9.093e-6
-1.190, -9.093e-6
-1.189, -9.093e-6
-1.188, -9.093e-6
-1.187, -9.093e-6
-1.186, -9.093e-6
-1.185, -9.093e-6
-1.184, -9.093e-6
-1.183, -9.093e-6
-1.182, -9.093e-6
-1.181, -9.093e-6
-1.180, -9.093e-6
-1.179, -9.093e-6
-1.178, -9.093e-6
-1.177, -9.093e-6
-1.176, -9.093e-6
-1.175, -9.093e-6
-1.174, -9.093e-6
-1.173, -9.093e-6
-1.172, -9.093e-6
-1.171, -9.093e-6
-1.170, -9.093e-6
-1.169, -9.093e-6
-1.168, -9.093e-6
-1.167, -9.093e-6
-1.166, -9.093e-6
-1.165, -9.093e-6
-1.164, -9.093e-6
-1.163, -9.093e-6
-1.162, -9.093e-6
-1.161, -9.093e-6
-1.160, -9.093e-6
-1.159, -9.093e-6
-1.158, -9.093e-6
-1.157, -9.093e-6
-1.156, -9.093e-6
-1.155, -9.093e-6
-1.154, -9.093e-6
-1.153, -9.093e-6
-1.152, -9.093e-6
-1.151, -9.093e-6
-1.150, -9.093e-6
-1.149, -9.093e-6
-1.148, -9.093e-6
-1.147, -9.093e-6
-1.146, -9.093e-6
-1.145, -9.093e-6
-1.144, -9.093e-6
-1.143, -9.093e-6
-1.142, -9.093e-6
-1.141, -9.093e-6
-1.140, -9.093e-6
-1.139, -9.093e-6
-1.138, -9.093e-6
-1.137, -9.093e-6
-1.136, -9.093e-6
-1.135, -9.093e-6
-1.134, -9.093e-6
-1.133, -9.093e-6
-1.132, -9.093e-6
-1.131, -9.093e-6
-1.130, -9.093e-6
-1.129, -1.218e-5
-1.128, -9.093e-6
-1.127, -9.093e-6
-1.126, -9.093e-6
-1.125, -9.093e-6
-1.124, -9.093e-6
-1.123, -9.093e-6
-1.122, -9.093e-6
-1.121, -9.093e-6
-1.120, -9.093e-6
-1.119, -9.093e-6
-1.118, -9.093e-6
-1.117, -9.093e-6
-1.116, -9.093e-6
-1.115, -9.093e-6
-1.114, -9.093e-6
-1.113, -9.093e-6
-1.112, -9.093e-6
-1.111, -9.093e-6
-1.110, -9.093e-6
-1.109, -1.218e-5
-1.108, -9.093e-6
-1.107, -9.093e-6
-1.106, -9.093e-6
-1.105, -9.093e-6
-1.104, -9.093e-6
-1.103, -9.093e-6
-1.102, -9.093e-6
-1.101, -9.093e-6
-1.100, -9.093e-6
-1.099, -9.093e-6
-1.098, -9.093e-6
-1.097, -9.093e-6
-1.096, -9.093e-6
-1.095, -9.093e-6
-1.094, -1.218e-5
-1.093, -9.093e-6
-1.092, -9.093e-6
-1.091, -9.093e-6
-1.090, -9.093e-6
-1.089, -9.093e-6
-1.088, -1.218e-5
-1.087, -9.093e-6
-1.086, -9.093e-6
-1.085, -9.093e-6
-1.084, -9.093e-6
-1.083, -9.093e-6
-1.082, -1.218e-5
-1.081, -9.093e-6
-1.080, -9.093e-6
-1.079, -9.093e-6
-1.078, -9.093e-6
-1.077, -9.093e-6
-1.076, -1.218e-5
-1.075, -1.218e-5
-1.074, -1.218e-5
-1.073, -1.218e-5
-1.072, -9.093e-6
-1.071, -9.093e-6
-1.070, -1.218e-5
-1.069, -1.218e-5
-1.068, -1.218e-5
-1.067, -1.218e-5
-1.066, -1.218e-5
-1.065, -1.218e-5
-1.064, -9.093e-6
-1.063, -1.218e-5
-1.062, -1.218e-5
-1.061, -1.218e-5
-1.060, -1.218e-5
-1.059, -1.218e-5
-1.058, -9.093e-6
-1.057, -1.218e-5
-1.056, -9.093e-6
-1.055, -1.218e-5
-1.054, -1.218e-5
-1.053, -1.218e-5
-1.052, -1.218e-5
-1.051, -1.218e-5
-1.050, -1.218e-5
-1.049, -1.218e-5
-1.048, -9.093e-6
-1.047, -1.218e-5
-1.046, -9.093e-6
-1.045, -1.218e-5
-1.044, -9.093e-6
-1.043, -1.218e-5
-1.042, -1.218e-5
-1.041, -1.218e-5
-1.040, -1.218e-5
-1.039, -1.218e-5
-1.038, -1.218e-5
-1.037, -1.218e-5
-1.036, -1.218e-5
-1.035, -1.218e-5
-1.034, -1.218e-5
-1.033, -1.218e-5
-1.032, -1.218e-5
-1.031, -1.218e-5
-1.030, -1.218e-5
-1.029, -1.218e-5
-1.028, -1.218e-5
-1.027, -1.218e-5
-1.026, -1.218e-5
-1.025, -1.218e-5
-1.024, -1.218e-5
-1.023, -1.218e-5
-1.022, -1.218e-5
-1.021, -1.218e-5
-1.020, -1.218e-5
-1.019, -1.218e-5
-1.018, -1.218e-5
-1.017, -1.218e-5
-1.016, -1.218e-5
-1.015, -1.218e-5
-1.014, -1.218e-5
-1.013, -1.218e-5
-1.012, -1.218e-5
-1.011, -1.218e-5
-1.010, -1.218e-5
-1.009, -1.218e-5
-1.008, -1.218e-5
-1.007, -1.218e-5
-1.006, -1.218e-5
-1.005, -1.218e-5
-1.004, -1.218e-5
-1.003, -1.218e-5
-1.002, -1.218e-5
-1.001, -1.218e-5
