Aug. 6, 2024   18:59:53
Linear Sweep Voltammetry
File: c:/users/guazh/data/20240802_batch_500/2024-08-02-exp37\1acid_3ac-2024-08-06t18_56_41-lsvinphos\1acid_3ac_lsv_50mvs_efin_-2300mv.bin
Data Source:  Experiment
Instrument Model:  CHI760E
Header: LSV ran at 50 mVs with Efin at -2300mV
Note: 

Init E (V) = -0.6
Final E (V) = -2.3
Scan Rate (V/s) = 0.05
Sample Interval (V) = 0.001
Quiet Time (sec) = 2
Sensitivity (A/V) = 1e-4
Comp R (ohm) = 7.5

Results:

Channel 1:
Ep = -2.128V
ip = 8.356e-4A
Ah = 1.067e-3C

Potential/V, Current/A

-0.600, 1.655e-6
-0.601, 1.732e-6
-0.602, 1.773e-6
-0.603, 1.801e-6
-0.604, 1.824e-6
-0.605, 1.849e-6
-0.606, 1.873e-6
-0.607, 1.898e-6
-0.608, 1.920e-6
-0.609, 1.942e-6
-0.610, 1.962e-6
-0.611, 1.985e-6
-0.612, 2.008e-6
-0.613, 2.029e-6
-0.614, 2.051e-6
-0.615, 2.073e-6
-0.616, 2.095e-6
-0.617, 2.118e-6
-0.618, 2.139e-6
-0.619, 2.159e-6
-0.620, 2.180e-6
-0.621, 2.201e-6
-0.622, 2.225e-6
-0.623, 2.247e-6
-0.624, 2.266e-6
-0.625, 2.289e-6
-0.626, 2.311e-6
-0.627, 2.336e-6
-0.628, 2.358e-6
-0.629, 2.380e-6
-0.630, 2.402e-6
-0.631, 2.426e-6
-0.632, 2.449e-6
-0.633, 2.472e-6
-0.634, 2.493e-6
-0.635, 2.516e-6
-0.636, 2.540e-6
-0.637, 2.567e-6
-0.638, 2.591e-6
-0.639, 2.613e-6
-0.640, 2.638e-6
-0.641, 2.663e-6
-0.642, 2.689e-6
-0.643, 2.713e-6
-0.644, 2.737e-6
-0.645, 2.759e-6
-0.646, 2.786e-6
-0.647, 2.815e-6
-0.648, 2.839e-6
-0.649, 2.863e-6
-0.650, 2.888e-6
-0.651, 2.916e-6
-0.652, 2.943e-6
-0.653, 2.969e-6
-0.654, 2.994e-6
-0.655, 3.018e-6
-0.656, 3.047e-6
-0.657, 3.077e-6
-0.658, 3.103e-6
-0.659, 3.129e-6
-0.660, 3.157e-6
-0.661, 3.185e-6
-0.662, 3.215e-6
-0.663, 3.240e-6
-0.664, 3.268e-6
-0.665, 3.296e-6
-0.666, 3.326e-6
-0.667, 3.355e-6
-0.668, 3.385e-6
-0.669, 3.413e-6
-0.670, 3.442e-6
-0.671, 3.470e-6
-0.672, 3.502e-6
-0.673, 3.531e-6
-0.674, 3.559e-6
-0.675, 3.587e-6
-0.676, 3.618e-6
-0.677, 3.650e-6
-0.678, 3.682e-6
-0.679, 3.711e-6
-0.680, 3.740e-6
-0.681, 3.772e-6
-0.682, 3.804e-6
-0.683, 3.836e-6
-0.684, 3.866e-6
-0.685, 3.897e-6
-0.686, 3.928e-6
-0.687, 3.960e-6
-0.688, 3.993e-6
-0.689, 4.024e-6
-0.690, 4.056e-6
-0.691, 4.087e-6
-0.692, 4.122e-6
-0.693, 4.153e-6
-0.694, 4.184e-6
-0.695, 4.214e-6
-0.696, 4.245e-6
-0.697, 4.281e-6
-0.698, 4.313e-6
-0.699, 4.344e-6
-0.700, 4.376e-6
-0.701, 4.410e-6
-0.702, 4.445e-6
-0.703, 4.478e-6
-0.704, 4.512e-6
-0.705, 4.546e-6
-0.706, 4.580e-6
-0.707, 4.615e-6
-0.708, 4.648e-6
-0.709, 4.681e-6
-0.710, 4.715e-6
-0.711, 4.749e-6
-0.712, 4.784e-6
-0.713, 4.819e-6
-0.714, 4.851e-6
-0.715, 4.885e-6
-0.716, 4.918e-6
-0.717, 4.957e-6
-0.718, 4.990e-6
-0.719, 5.024e-6
-0.720, 5.059e-6
-0.721, 5.095e-6
-0.722, 5.129e-6
-0.723, 5.164e-6
-0.724, 5.197e-6
-0.725, 5.231e-6
-0.726, 5.267e-6
-0.727, 5.303e-6
-0.728, 5.337e-6
-0.729, 5.371e-6
-0.730, 5.405e-6
-0.731, 5.439e-6
-0.732, 5.475e-6
-0.733, 5.510e-6
-0.734, 5.544e-6
-0.735, 5.578e-6
-0.736, 5.613e-6
-0.737, 5.649e-6
-0.738, 5.682e-6
-0.739, 5.716e-6
-0.740, 5.751e-6
-0.741, 5.786e-6
-0.742, 5.823e-6
-0.743, 5.858e-6
-0.744, 5.889e-6
-0.745, 5.921e-6
-0.746, 5.952e-6
-0.747, 5.989e-6
-0.748, 6.022e-6
-0.749, 6.056e-6
-0.750, 6.088e-6
-0.751, 6.121e-6
-0.752, 6.156e-6
-0.753, 6.188e-6
-0.754, 6.218e-6
-0.755, 6.249e-6
-0.756, 6.283e-6
-0.757, 6.317e-6
-0.758, 6.349e-6
-0.759, 6.380e-6
-0.760, 6.412e-6
-0.761, 6.445e-6
-0.762, 6.479e-6
-0.763, 6.513e-6
-0.764, 6.542e-6
-0.765, 6.574e-6
-0.766, 6.605e-6
-0.767, 6.637e-6
-0.768, 6.670e-6
-0.769, 6.700e-6
-0.770, 6.728e-6
-0.771, 6.759e-6
-0.772, 6.791e-6
-0.773, 6.820e-6
-0.774, 6.850e-6
-0.775, 6.882e-6
-0.776, 6.912e-6
-0.777, 6.943e-6
-0.778, 6.970e-6
-0.779, 6.996e-6
-0.780, 7.023e-6
-0.781, 7.053e-6
-0.782, 7.082e-6
-0.783, 7.108e-6
-0.784, 7.134e-6
-0.785, 7.160e-6
-0.786, 7.187e-6
-0.787, 7.217e-6
-0.788, 7.241e-6
-0.789, 7.265e-6
-0.790, 7.288e-6
-0.791, 7.314e-6
-0.792, 7.340e-6
-0.793, 7.364e-6
-0.794, 7.388e-6
-0.795, 7.412e-6
-0.796, 7.435e-6
-0.797, 7.460e-6
-0.798, 7.485e-6
-0.799, 7.505e-6
-0.800, 7.528e-6
-0.801, 7.556e-6
-0.802, 7.577e-6
-0.803, 7.595e-6
-0.804, 7.613e-6
-0.805, 7.633e-6
-0.806, 7.654e-6
-0.807, 7.677e-6
-0.808, 7.697e-6
-0.809, 7.715e-6
-0.810, 7.732e-6
-0.811, 7.753e-6
-0.812, 7.775e-6
-0.813, 7.792e-6
-0.814, 7.810e-6
-0.815, 7.827e-6
-0.816, 7.845e-6
-0.817, 7.865e-6
-0.818, 7.881e-6
-0.819, 7.901e-6
-0.820, 7.919e-6
-0.821, 7.935e-6
-0.822, 7.956e-6
-0.823, 7.973e-6
-0.824, 7.987e-6
-0.825, 8.002e-6
-0.826, 8.017e-6
-0.827, 8.033e-6
-0.828, 8.047e-6
-0.829, 8.060e-6
-0.830, 8.072e-6
-0.831, 8.087e-6
-0.832, 8.103e-6
-0.833, 8.115e-6
-0.834, 8.125e-6
-0.835, 8.138e-6
-0.836, 8.152e-6
-0.837, 8.166e-6
-0.838, 8.177e-6
-0.839, 8.187e-6
-0.840, 8.198e-6
-0.841, 8.213e-6
-0.842, 8.226e-6
-0.843, 8.238e-6
-0.844, 8.247e-6
-0.845, 8.256e-6
-0.846, 8.267e-6
-0.847, 8.279e-6
-0.848, 8.288e-6
-0.849, 8.296e-6
-0.850, 8.303e-6
-0.851, 8.314e-6
-0.852, 8.323e-6
-0.853, 8.331e-6
-0.854, 8.338e-6
-0.855, 8.345e-6
-0.856, 8.352e-6
-0.857, 8.363e-6
-0.858, 8.369e-6
-0.859, 8.375e-6
-0.860, 8.381e-6
-0.861, 8.388e-6
-0.862, 8.397e-6
-0.863, 8.403e-6
-0.864, 8.408e-6
-0.865, 8.414e-6
-0.866, 8.420e-6
-0.867, 8.428e-6
-0.868, 8.434e-6
-0.869, 8.437e-6
-0.870, 8.442e-6
-0.871, 8.450e-6
-0.872, 8.456e-6
-0.873, 8.461e-6
-0.874, 8.465e-6
-0.875, 8.469e-6
-0.876, 8.474e-6
-0.877, 8.480e-6
-0.878, 8.485e-6
-0.879, 8.488e-6
-0.880, 8.491e-6
-0.881, 8.498e-6
-0.882, 8.507e-6
-0.883, 8.511e-6
-0.884, 8.513e-6
-0.885, 8.515e-6
-0.886, 8.520e-6
-0.887, 8.526e-6
-0.888, 8.529e-6
-0.889, 8.533e-6
-0.890, 8.534e-6
-0.891, 8.538e-6
-0.892, 8.543e-6
-0.893, 8.545e-6
-0.894, 8.548e-6
-0.895, 8.549e-6
-0.896, 8.555e-6
-0.897, 8.559e-6
-0.898, 8.561e-6
-0.899, 8.564e-6
-0.900, 8.565e-6
-0.901, 8.568e-6
-0.902, 8.573e-6
-0.903, 8.575e-6
-0.904, 8.577e-6
-0.905, 8.579e-6
-0.906, 8.582e-6
-0.907, 8.588e-6
-0.908, 8.589e-6
-0.909, 8.590e-6
-0.910, 8.592e-6
-0.911, 8.594e-6
-0.912, 8.599e-6
-0.913, 8.600e-6
-0.914, 8.601e-6
-0.915, 8.602e-6
-0.916, 8.605e-6
-0.917, 8.609e-6
-0.918, 8.611e-6
-0.919, 8.612e-6
-0.920, 8.614e-6
-0.921, 8.617e-6
-0.922, 8.622e-6
-0.923, 8.622e-6
-0.924, 8.623e-6
-0.925, 8.624e-6
-0.926, 8.626e-6
-0.927, 8.631e-6
-0.928, 8.632e-6
-0.929, 8.633e-6
-0.930, 8.634e-6
-0.931, 8.637e-6
-0.932, 8.641e-6
-0.933, 8.643e-6
-0.934, 8.644e-6
-0.935, 8.646e-6
-0.936, 8.649e-6
-0.937, 8.654e-6
-0.938, 8.654e-6
-0.939, 8.656e-6
-0.940, 8.656e-6
-0.941, 8.659e-6
-0.942, 8.663e-6
-0.943, 8.666e-6
-0.944, 8.667e-6
-0.945, 8.668e-6
-0.946, 8.671e-6
-0.947, 8.676e-6
-0.948, 8.678e-6
-0.949, 8.679e-6
-0.950, 8.682e-6
-0.951, 8.684e-6
-0.952, 8.690e-6
-0.953, 8.691e-6
-0.954, 8.693e-6
-0.955, 8.696e-6
-0.956, 8.724e-6
-0.957, 8.748e-6
-0.958, 8.752e-6
-0.959, 8.754e-6
-0.960, 8.756e-6
-0.961, 8.760e-6
-0.962, 8.765e-6
-0.963, 8.768e-6
-0.964, 8.769e-6
-0.965, 8.770e-6
-0.966, 8.774e-6
-0.967, 8.779e-6
-0.968, 8.782e-6
-0.969, 8.785e-6
-0.970, 8.786e-6
-0.971, 8.789e-6
-0.972, 8.794e-6
-0.973, 8.798e-6
-0.974, 8.800e-6
-0.975, 8.802e-6
-0.976, 8.806e-6
-0.977, 8.811e-6
-0.978, 8.812e-6
-0.979, 8.815e-6
-0.980, 8.818e-6
-0.981, 8.822e-6
-0.982, 8.826e-6
-0.983, 8.828e-6
-0.984, 8.831e-6
-0.985, 8.833e-6
-0.986, 8.838e-6
-0.987, 8.843e-6
-0.988, 8.846e-6
-0.989, 8.848e-6
-0.990, 8.850e-6
-0.991, 8.855e-6
-0.992, 8.859e-6
-0.993, 8.862e-6
-0.994, 8.864e-6
-0.995, 8.868e-6
-0.996, 8.871e-6
-0.997, 8.876e-6
-0.998, 8.880e-6
-0.999, 8.883e-6
-1.000, 8.886e-6
-1.001, 8.890e-6
-1.002, 8.895e-6
-1.003, 8.898e-6
-1.004, 8.901e-6
-1.005, 8.905e-6
-1.006, 8.908e-6
-1.007, 8.915e-6
-1.008, 8.918e-6
-1.009, 8.920e-6
-1.010, 8.925e-6
-1.011, 8.930e-6
-1.012, 8.936e-6
-1.013, 8.938e-6
-1.014, 8.943e-6
-1.015, 8.946e-6
-1.016, 8.952e-6
-1.017, 8.957e-6
-1.018, 8.961e-6
-1.019, 8.964e-6
-1.020, 8.967e-6
-1.021, 8.973e-6
-1.022, 8.979e-6
-1.023, 8.982e-6
-1.024, 8.988e-6
-1.025, 8.992e-6
-1.026, 8.996e-6
-1.027, 9.004e-6
-1.028, 9.006e-6
-1.029, 9.032e-6
-1.030, 9.062e-6
-1.031, 9.068e-6
-1.032, 9.076e-6
-1.033, 9.079e-6
-1.034, 9.084e-6
-1.035, 9.087e-6
-1.036, 9.092e-6
-1.037, 9.099e-6
-1.038, 9.103e-6
-1.039, 9.106e-6
-1.040, 9.110e-6
-1.041, 9.115e-6
-1.042, 9.120e-6
-1.043, 9.126e-6
-1.044, 9.129e-6
-1.045, 9.134e-6
-1.046, 9.139e-6
-1.047, 9.145e-6
-1.048, 9.152e-6
-1.049, 9.157e-6
-1.050, 9.160e-6
-1.051, 9.166e-6
-1.052, 9.172e-6
-1.053, 9.177e-6
-1.054, 9.180e-6
-1.055, 9.183e-6
-1.056, 9.190e-6
-1.057, 9.197e-6
-1.058, 9.200e-6
-1.059, 9.205e-6
-1.060, 9.208e-6
-1.061, 9.215e-6
-1.062, 9.222e-6
-1.063, 9.227e-6
-1.064, 9.232e-6
-1.065, 9.234e-6
-1.066, 9.241e-6
-1.067, 9.247e-6
-1.068, 9.251e-6
-1.069, 9.255e-6
-1.070, 9.259e-6
-1.071, 9.267e-6
-1.072, 9.272e-6
-1.073, 9.299e-6
-1.074, 9.380e-6
-1.075, 9.408e-6
-1.076, 9.426e-6
-1.077, 9.438e-6
-1.078, 9.444e-6
-1.079, 9.451e-6
-1.080, 9.456e-6
-1.081, 9.462e-6
-1.082, 9.469e-6
-1.083, 9.475e-6
-1.084, 9.478e-6
-1.085, 9.482e-6
-1.086, 9.488e-6
-1.087, 9.495e-6
-1.088, 9.500e-6
-1.089, 9.504e-6
-1.090, 9.506e-6
-1.091, 9.512e-6
-1.092, 9.518e-6
-1.093, 9.521e-6
-1.094, 9.525e-6
-1.095, 9.529e-6
-1.096, 9.534e-6
-1.097, 9.541e-6
-1.098, 9.544e-6
-1.099, 9.548e-6
-1.100, 9.552e-6
-1.101, 9.557e-6
-1.102, 9.564e-6
-1.103, 9.568e-6
-1.104, 9.572e-6
-1.105, 9.576e-6
-1.106, 9.581e-6
-1.107, 9.589e-6
-1.108, 9.593e-6
-1.109, 9.603e-6
-1.110, 9.608e-6
-1.111, 9.615e-6
-1.112, 9.621e-6
-1.113, 9.625e-6
-1.114, 9.629e-6
-1.115, 9.634e-6
-1.116, 9.639e-6
-1.117, 9.645e-6
-1.118, 9.650e-6
-1.119, 9.653e-6
-1.120, 9.658e-6
-1.121, 9.663e-6
-1.122, 9.669e-6
-1.123, 9.673e-6
-1.124, 9.677e-6
-1.125, 9.682e-6
-1.126, 9.687e-6
-1.127, 9.694e-6
-1.128, 9.698e-6
-1.129, 9.703e-6
-1.130, 9.706e-6
-1.131, 9.712e-6
-1.132, 9.720e-6
-1.133, 9.728e-6
-1.134, 9.733e-6
-1.135, 9.735e-6
-1.136, 9.741e-6
-1.137, 9.748e-6
-1.138, 9.751e-6
-1.139, 9.755e-6
-1.140, 9.760e-6
-1.141, 9.765e-6
-1.142, 9.771e-6
-1.143, 9.775e-6
-1.144, 9.778e-6
-1.145, 9.782e-6
-1.146, 9.787e-6
-1.147, 9.793e-6
-1.148, 9.797e-6
-1.149, 9.802e-6
-1.150, 9.805e-6
-1.151, 9.809e-6
-1.152, 9.816e-6
-1.153, 9.820e-6
-1.154, 9.823e-6
-1.155, 9.827e-6
-1.156, 9.833e-6
-1.157, 9.839e-6
-1.158, 9.843e-6
-1.159, 9.846e-6
-1.160, 9.850e-6
-1.161, 9.855e-6
-1.162, 9.860e-6
-1.163, 9.864e-6
-1.164, 9.867e-6
-1.165, 9.871e-6
-1.166, 9.877e-6
-1.167, 9.884e-6
-1.168, 9.888e-6
-1.169, 9.892e-6
-1.170, 9.894e-6
-1.171, 9.900e-6
-1.172, 9.905e-6
-1.173, 9.908e-6
-1.174, 9.913e-6
-1.175, 9.916e-6
-1.176, 9.921e-6
-1.177, 9.931e-6
-1.178, 9.936e-6
-1.179, 9.939e-6
-1.180, 9.941e-6
-1.181, 9.946e-6
-1.182, 9.953e-6
-1.183, 9.953e-6
-1.184, 9.957e-6
-1.185, 9.961e-6
-1.186, 9.965e-6
-1.187, 9.970e-6
-1.188, 9.971e-6
-1.189, 9.973e-6
-1.190, 9.977e-6
-1.191, 9.983e-6
-1.192, 9.987e-6
-1.193, 9.989e-6
-1.194, 9.991e-6
-1.195, 9.994e-6
-1.196, 9.998e-6
-1.197, 1.000e-5
-1.198, 1.001e-5
-1.199, 1.001e-5
-1.200, 1.001e-5
-1.201, 1.001e-5
-1.202, 1.002e-5
-1.203, 1.002e-5
-1.204, 1.002e-5
-1.205, 1.002e-5
-1.206, 1.003e-5
-1.207, 1.003e-5
-1.208, 1.004e-5
-1.209, 1.004e-5
-1.210, 1.004e-5
-1.211, 1.004e-5
-1.212, 1.005e-5
-1.213, 1.005e-5
-1.214, 1.005e-5
-1.215, 1.005e-5
-1.216, 1.006e-5
-1.217, 1.006e-5
-1.218, 1.006e-5
-1.219, 1.007e-5
-1.220, 1.007e-5
-1.221, 1.007e-5
-1.222, 1.008e-5
-1.223, 1.008e-5
-1.224, 1.008e-5
-1.225, 1.008e-5
-1.226, 1.008e-5
-1.227, 1.009e-5
-1.228, 1.009e-5
-1.229, 1.010e-5
-1.230, 1.010e-5
-1.231, 1.010e-5
-1.232, 1.010e-5
-1.233, 1.010e-5
-1.234, 1.010e-5
-1.235, 1.010e-5
-1.236, 1.011e-5
-1.237, 1.011e-5
-1.238, 1.011e-5
-1.239, 1.011e-5
-1.240, 1.011e-5
-1.241, 1.011e-5
-1.242, 1.012e-5
-1.243, 1.012e-5
-1.244, 1.012e-5
-1.245, 1.012e-5
-1.246, 1.012e-5
-1.247, 1.013e-5
-1.248, 1.013e-5
-1.249, 1.013e-5
-1.250, 1.013e-5
-1.251, 1.013e-5
-1.252, 1.013e-5
-1.253, 1.013e-5
-1.254, 1.014e-5
-1.255, 1.014e-5
-1.256, 1.014e-5
-1.257, 1.014e-5
-1.258, 1.014e-5
-1.259, 1.015e-5
-1.260, 1.016e-5
-1.261, 1.016e-5
-1.262, 1.016e-5
-1.263, 1.016e-5
-1.264, 1.016e-5
-1.265, 1.016e-5
-1.266, 1.016e-5
-1.267, 1.016e-5
-1.268, 1.016e-5
-1.269, 1.017e-5
-1.270, 1.017e-5
-1.271, 1.017e-5
-1.272, 1.017e-5
-1.273, 1.017e-5
-1.274, 1.014e-5
-1.275, 1.014e-5
-1.276, 1.015e-5
-1.277, 1.015e-5
-1.278, 1.015e-5
-1.279, 1.015e-5
-1.280, 1.015e-5
-1.281, 1.015e-5
-1.282, 1.016e-5
-1.283, 1.016e-5
-1.284, 1.016e-5
-1.285, 1.016e-5
-1.286, 1.016e-5
-1.287, 1.016e-5
-1.288, 1.016e-5
-1.289, 1.016e-5
-1.290, 1.016e-5
-1.291, 1.016e-5
-1.292, 1.017e-5
-1.293, 1.017e-5
-1.294, 1.017e-5
-1.295, 1.017e-5
-1.296, 1.017e-5
-1.297, 1.018e-5
-1.298, 1.018e-5
-1.299, 1.019e-5
-1.300, 1.019e-5
-1.301, 1.019e-5
-1.302, 1.019e-5
-1.303, 1.019e-5
-1.304, 1.019e-5
-1.305, 1.019e-5
-1.306, 1.019e-5
-1.307, 1.019e-5
-1.308, 1.019e-5
-1.309, 1.019e-5
-1.310, 1.020e-5
-1.311, 1.020e-5
-1.312, 1.020e-5
-1.313, 1.020e-5
-1.314, 1.020e-5
-1.315, 1.020e-5
-1.316, 1.021e-5
-1.317, 1.021e-5
-1.318, 1.021e-5
-1.319, 1.021e-5
-1.320, 1.021e-5
-1.321, 1.021e-5
-1.322, 1.022e-5
-1.323, 1.022e-5
-1.324, 1.022e-5
-1.325, 1.022e-5
-1.326, 1.022e-5
-1.327, 1.022e-5
-1.328, 1.023e-5
-1.329, 1.023e-5
-1.330, 1.023e-5
-1.331, 1.023e-5
-1.332, 1.023e-5
-1.333, 1.024e-5
-1.334, 1.024e-5
-1.335, 1.024e-5
-1.336, 1.024e-5
-1.337, 1.024e-5
-1.338, 1.024e-5
-1.339, 1.024e-5
-1.340, 1.025e-5
-1.341, 1.025e-5
-1.342, 1.025e-5
-1.343, 1.025e-5
-1.344, 1.026e-5
-1.345, 1.026e-5
-1.346, 1.026e-5
-1.347, 1.026e-5
-1.348, 1.026e-5
-1.349, 1.027e-5
-1.350, 1.027e-5
-1.351, 1.027e-5
-1.352, 1.027e-5
-1.353, 1.028e-5
-1.354, 1.028e-5
-1.355, 1.028e-5
-1.356, 1.028e-5
-1.357, 1.029e-5
-1.358, 1.029e-5
-1.359, 1.029e-5
-1.360, 1.029e-5
-1.361, 1.030e-5
-1.362, 1.030e-5
-1.363, 1.030e-5
-1.364, 1.030e-5
-1.365, 1.031e-5
-1.366, 1.031e-5
-1.367, 1.031e-5
-1.368, 1.032e-5
-1.369, 1.032e-5
-1.370, 1.032e-5
-1.371, 1.033e-5
-1.372, 1.033e-5
-1.373, 1.033e-5
-1.374, 1.033e-5
-1.375, 1.034e-5
-1.376, 1.034e-5
-1.377, 1.035e-5
-1.378, 1.035e-5
-1.379, 1.035e-5
-1.380, 1.035e-5
-1.381, 1.036e-5
-1.382, 1.036e-5
-1.383, 1.037e-5
-1.384, 1.037e-5
-1.385, 1.037e-5
-1.386, 1.038e-5
-1.387, 1.038e-5
-1.388, 1.039e-5
-1.389, 1.039e-5
-1.390, 1.039e-5
-1.391, 1.040e-5
-1.392, 1.040e-5
-1.393, 1.041e-5
-1.394, 1.041e-5
-1.395, 1.041e-5
-1.396, 1.042e-5
-1.397, 1.043e-5
-1.398, 1.043e-5
-1.399, 1.044e-5
-1.400, 1.044e-5
-1.401, 1.045e-5
-1.402, 1.045e-5
-1.403, 1.046e-5
-1.404, 1.046e-5
-1.405, 1.046e-5
-1.406, 1.047e-5
-1.407, 1.048e-5
-1.408, 1.048e-5
-1.409, 1.049e-5
-1.410, 1.049e-5
-1.411, 1.050e-5
-1.412, 1.051e-5
-1.413, 1.051e-5
-1.414, 1.051e-5
-1.415, 1.052e-5
-1.416, 1.053e-5
-1.417, 1.054e-5
-1.418, 1.054e-5
-1.419, 1.054e-5
-1.420, 1.055e-5
-1.421, 1.056e-5
-1.422, 1.057e-5
-1.423, 1.057e-5
-1.424, 1.058e-5
-1.425, 1.058e-5
-1.426, 1.059e-5
-1.427, 1.060e-5
-1.428, 1.060e-5
-1.429, 1.061e-5
-1.430, 1.061e-5
-1.431, 1.062e-5
-1.432, 1.063e-5
-1.433, 1.064e-5
-1.434, 1.065e-5
-1.435, 1.065e-5
-1.436, 1.066e-5
-1.437, 1.067e-5
-1.438, 1.068e-5
-1.439, 1.068e-5
-1.440, 1.069e-5
-1.441, 1.070e-5
-1.442, 1.071e-5
-1.443, 1.071e-5
-1.444, 1.072e-5
-1.445, 1.073e-5
-1.446, 1.074e-5
-1.447, 1.074e-5
-1.448, 1.075e-5
-1.449, 1.076e-5
-1.450, 1.076e-5
-1.451, 1.077e-5
-1.452, 1.078e-5
-1.453, 1.079e-5
-1.454, 1.080e-5
-1.455, 1.081e-5
-1.456, 1.082e-5
-1.457, 1.083e-5
-1.458, 1.083e-5
-1.459, 1.084e-5
-1.460, 1.085e-5
-1.461, 1.086e-5
-1.462, 1.088e-5
-1.463, 1.088e-5
-1.464, 1.089e-5
-1.465, 1.090e-5
-1.466, 1.091e-5
-1.467, 1.092e-5
-1.468, 1.093e-5
-1.469, 1.094e-5
-1.470, 1.095e-5
-1.471, 1.096e-5
-1.472, 1.097e-5
-1.473, 1.098e-5
-1.474, 1.098e-5
-1.475, 1.099e-5
-1.476, 1.100e-5
-1.477, 1.101e-5
-1.478, 1.102e-5
-1.479, 1.103e-5
-1.480, 1.103e-5
-1.481, 1.103e-5
-1.482, 1.104e-5
-1.483, 1.103e-5
-1.484, 1.104e-5
-1.485, 1.104e-5
-1.486, 1.105e-5
-1.487, 1.106e-5
-1.488, 1.107e-5
-1.489, 1.108e-5
-1.490, 1.109e-5
-1.491, 1.111e-5
-1.492, 1.112e-5
-1.493, 1.113e-5
-1.494, 1.114e-5
-1.495, 1.115e-5
-1.496, 1.116e-5
-1.497, 1.118e-5
-1.498, 1.119e-5
-1.499, 1.120e-5
-1.500, 1.121e-5
-1.501, 1.122e-5
-1.502, 1.124e-5
-1.503, 1.125e-5
-1.504, 1.126e-5
-1.505, 1.126e-5
-1.506, 1.125e-5
-1.507, 1.127e-5
-1.508, 1.128e-5
-1.509, 1.129e-5
-1.510, 1.130e-5
-1.511, 1.132e-5
-1.512, 1.133e-5
-1.513, 1.135e-5
-1.514, 1.136e-5
-1.515, 1.137e-5
-1.516, 1.139e-5
-1.517, 1.140e-5
-1.518, 1.142e-5
-1.519, 1.143e-5
-1.520, 1.144e-5
-1.521, 1.146e-5
-1.522, 1.147e-5
-1.523, 1.149e-5
-1.524, 1.150e-5
-1.525, 1.151e-5
-1.526, 1.153e-5
-1.527, 1.155e-5
-1.528, 1.156e-5
-1.529, 1.157e-5
-1.530, 1.159e-5
-1.531, 1.161e-5
-1.532, 1.162e-5
-1.533, 1.164e-5
-1.534, 1.165e-5
-1.535, 1.167e-5
-1.536, 1.169e-5
-1.537, 1.171e-5
-1.538, 1.172e-5
-1.539, 1.174e-5
-1.540, 1.175e-5
-1.541, 1.177e-5
-1.542, 1.179e-5
-1.543, 1.181e-5
-1.544, 1.182e-5
-1.545, 1.184e-5
-1.546, 1.186e-5
-1.547, 1.188e-5
-1.548, 1.190e-5
-1.549, 1.192e-5
-1.550, 1.194e-5
-1.551, 1.196e-5
-1.552, 1.198e-5
-1.553, 1.199e-5
-1.554, 1.201e-5
-1.555, 1.202e-5
-1.556, 1.204e-5
-1.557, 1.206e-5
-1.558, 1.208e-5
-1.559, 1.209e-5
-1.560, 1.211e-5
-1.561, 1.214e-5
-1.562, 1.216e-5
-1.563, 1.218e-5
-1.564, 1.220e-5
-1.565, 1.222e-5
-1.566, 1.224e-5
-1.567, 1.227e-5
-1.568, 1.229e-5
-1.569, 1.231e-5
-1.570, 1.233e-5
-1.571, 1.236e-5
-1.572, 1.238e-5
-1.573, 1.240e-5
-1.574, 1.242e-5
-1.575, 1.245e-5
-1.576, 1.247e-5
-1.577, 1.250e-5
-1.578, 1.252e-5
-1.579, 1.254e-5
-1.580, 1.257e-5
-1.581, 1.260e-5
-1.582, 1.263e-5
-1.583, 1.265e-5
-1.584, 1.267e-5
-1.585, 1.270e-5
-1.586, 1.273e-5
-1.587, 1.276e-5
-1.588, 1.278e-5
-1.589, 1.281e-5
-1.590, 1.283e-5
-1.591, 1.286e-5
-1.592, 1.289e-5
-1.593, 1.292e-5
-1.594, 1.294e-5
-1.595, 1.297e-5
-1.596, 1.300e-5
-1.597, 1.303e-5
-1.598, 1.306e-5
-1.599, 1.309e-5
-1.600, 1.312e-5
-1.601, 1.315e-5
-1.602, 1.318e-5
-1.603, 1.321e-5
-1.604, 1.324e-5
-1.605, 1.327e-5
-1.606, 1.330e-5
-1.607, 1.333e-5
-1.608, 1.337e-5
-1.609, 1.340e-5
-1.610, 1.343e-5
-1.611, 1.346e-5
-1.612, 1.350e-5
-1.613, 1.353e-5
-1.614, 1.356e-5
-1.615, 1.359e-5
-1.616, 1.363e-5
-1.617, 1.367e-5
-1.618, 1.370e-5
-1.619, 1.373e-5
-1.620, 1.376e-5
-1.621, 1.380e-5
-1.622, 1.384e-5
-1.623, 1.387e-5
-1.624, 1.390e-5
-1.625, 1.394e-5
-1.626, 1.398e-5
-1.627, 1.402e-5
-1.628, 1.405e-5
-1.629, 1.408e-5
-1.630, 1.412e-5
-1.631, 1.416e-5
-1.632, 1.420e-5
-1.633, 1.423e-5
-1.634, 1.426e-5
-1.635, 1.430e-5
-1.636, 1.434e-5
-1.637, 1.438e-5
-1.638, 1.442e-5
-1.639, 1.447e-5
-1.640, 1.450e-5
-1.641, 1.454e-5
-1.642, 1.458e-5
-1.643, 1.462e-5
-1.644, 1.465e-5
-1.645, 1.469e-5
-1.646, 1.474e-5
-1.647, 1.478e-5
-1.648, 1.481e-5
-1.649, 1.485e-5
-1.650, 1.489e-5
-1.651, 1.494e-5
-1.652, 1.499e-5
-1.653, 1.502e-5
-1.654, 1.506e-5
-1.655, 1.510e-5
-1.656, 1.515e-5
-1.657, 1.520e-5
-1.658, 1.523e-5
-1.659, 1.527e-5
-1.660, 1.531e-5
-1.661, 1.534e-5
-1.662, 1.539e-5
-1.663, 1.543e-5
-1.664, 1.547e-5
-1.665, 1.551e-5
-1.666, 1.556e-5
-1.667, 1.560e-5
-1.668, 1.564e-5
-1.669, 1.568e-5
-1.670, 1.573e-5
-1.671, 1.577e-5
-1.672, 1.582e-5
-1.673, 1.586e-5
-1.674, 1.590e-5
-1.675, 1.594e-5
-1.676, 1.599e-5
-1.677, 1.604e-5
-1.678, 1.608e-5
-1.679, 1.612e-5
-1.680, 1.617e-5
-1.681, 1.621e-5
-1.682, 1.626e-5
-1.683, 1.630e-5
-1.684, 1.635e-5
-1.685, 1.639e-5
-1.686, 1.644e-5
-1.687, 1.649e-5
-1.688, 1.653e-5
-1.689, 1.658e-5
-1.690, 1.663e-5
-1.691, 1.668e-5
-1.692, 1.673e-5
-1.693, 1.677e-5
-1.694, 1.682e-5
-1.695, 1.686e-5
-1.696, 1.692e-5
-1.697, 1.697e-5
-1.698, 1.701e-5
-1.699, 1.705e-5
-1.700, 1.710e-5
-1.701, 1.715e-5
-1.702, 1.721e-5
-1.703, 1.725e-5
-1.704, 1.730e-5
-1.705, 1.735e-5
-1.706, 1.740e-5
-1.707, 1.746e-5
-1.708, 1.750e-5
-1.709, 1.755e-5
-1.710, 1.760e-5
-1.711, 1.766e-5
-1.712, 1.772e-5
-1.713, 1.777e-5
-1.714, 1.782e-5
-1.715, 1.787e-5
-1.716, 1.793e-5
-1.717, 1.799e-5
-1.718, 1.804e-5
-1.719, 1.810e-5
-1.720, 1.815e-5
-1.721, 1.821e-5
-1.722, 1.827e-5
-1.723, 1.833e-5
-1.724, 1.838e-5
-1.725, 1.844e-5
-1.726, 1.851e-5
-1.727, 1.857e-5
-1.728, 1.863e-5
-1.729, 1.869e-5
-1.730, 1.875e-5
-1.731, 1.881e-5
-1.732, 1.888e-5
-1.733, 1.894e-5
-1.734, 1.900e-5
-1.735, 1.905e-5
-1.736, 1.913e-5
-1.737, 1.919e-5
-1.738, 1.926e-5
-1.739, 1.932e-5
-1.740, 1.939e-5
-1.741, 1.946e-5
-1.742, 1.953e-5
-1.743, 1.960e-5
-1.744, 1.967e-5
-1.745, 1.974e-5
-1.746, 1.982e-5
-1.747, 1.990e-5
-1.748, 1.997e-5
-1.749, 2.004e-5
-1.750, 2.011e-5
-1.751, 2.019e-5
-1.752, 2.028e-5
-1.753, 2.035e-5
-1.754, 2.043e-5
-1.755, 2.051e-5
-1.756, 2.060e-5
-1.757, 2.068e-5
-1.758, 2.077e-5
-1.759, 2.085e-5
-1.760, 2.094e-5
-1.761, 2.103e-5
-1.762, 2.113e-5
-1.763, 2.122e-5
-1.764, 2.130e-5
-1.765, 2.139e-5
-1.766, 2.149e-5
-1.767, 2.159e-5
-1.768, 2.168e-5
-1.769, 2.178e-5
-1.770, 2.187e-5
-1.771, 2.198e-5
-1.772, 2.208e-5
-1.773, 2.218e-5
-1.774, 2.227e-5
-1.775, 2.238e-5
-1.776, 2.250e-5
-1.777, 2.260e-5
-1.778, 2.274e-5
-1.779, 2.290e-5
-1.780, 2.301e-5
-1.781, 2.311e-5
-1.782, 2.322e-5
-1.783, 2.332e-5
-1.784, 2.343e-5
-1.785, 2.354e-5
-1.786, 2.366e-5
-1.787, 2.378e-5
-1.788, 2.390e-5
-1.789, 2.402e-5
-1.790, 2.415e-5
-1.791, 2.428e-5
-1.792, 2.440e-5
-1.793, 2.452e-5
-1.794, 2.464e-5
-1.795, 2.477e-5
-1.796, 2.491e-5
-1.797, 2.504e-5
-1.798, 2.517e-5
-1.799, 2.530e-5
-1.800, 2.543e-5
-1.801, 2.558e-5
-1.802, 2.571e-5
-1.803, 2.585e-5
-1.804, 2.597e-5
-1.805, 2.611e-5
-1.806, 2.625e-5
-1.807, 2.637e-5
-1.808, 2.649e-5
-1.809, 2.663e-5
-1.810, 2.677e-5
-1.811, 2.693e-5
-1.812, 2.708e-5
-1.813, 2.722e-5
-1.814, 2.736e-5
-1.815, 2.752e-5
-1.816, 2.768e-5
-1.817, 2.784e-5
-1.818, 2.799e-5
-1.819, 2.815e-5
-1.820, 2.831e-5
-1.821, 2.849e-5
-1.822, 2.866e-5
-1.823, 2.883e-5
-1.824, 2.899e-5
-1.825, 2.917e-5
-1.826, 2.935e-5
-1.827, 2.953e-5
-1.828, 2.970e-5
-1.829, 2.987e-5
-1.830, 3.006e-5
-1.831, 3.026e-5
-1.832, 3.046e-5
-1.833, 3.067e-5
-1.834, 3.086e-5
-1.835, 3.107e-5
-1.836, 3.128e-5
-1.837, 3.150e-5
-1.838, 3.171e-5
-1.839, 3.191e-5
-1.840, 3.213e-5
-1.841, 3.236e-5
-1.842, 3.259e-5
-1.843, 3.282e-5
-1.844, 3.305e-5
-1.845, 3.328e-5
-1.846, 3.347e-5
-1.847, 3.366e-5
-1.848, 3.388e-5
-1.849, 3.412e-5
-1.850, 3.436e-5
-1.851, 3.461e-5
-1.852, 3.486e-5
-1.853, 3.511e-5
-1.854, 3.536e-5
-1.855, 3.564e-5
-1.856, 3.594e-5
-1.857, 3.622e-5
-1.858, 3.649e-5
-1.859, 3.677e-5
-1.860, 3.704e-5
-1.861, 3.732e-5
-1.862, 3.760e-5
-1.863, 3.790e-5
-1.864, 3.818e-5
-1.865, 3.847e-5
-1.866, 3.880e-5
-1.867, 3.912e-5
-1.868, 3.944e-5
-1.869, 3.975e-5
-1.870, 4.009e-5
-1.871, 4.043e-5
-1.872, 4.077e-5
-1.873, 4.110e-5
-1.874, 4.144e-5
-1.875, 4.180e-5
-1.876, 4.217e-5
-1.877, 4.255e-5
-1.878, 4.295e-5
-1.879, 4.333e-5
-1.880, 4.373e-5
-1.881, 4.416e-5
-1.882, 4.460e-5
-1.883, 4.504e-5
-1.884, 4.548e-5
-1.885, 4.592e-5
-1.886, 4.637e-5
-1.887, 4.681e-5
-1.888, 4.729e-5
-1.889, 4.774e-5
-1.890, 4.820e-5
-1.891, 4.870e-5
-1.892, 4.910e-5
-1.893, 4.951e-5
-1.894, 4.998e-5
-1.895, 5.047e-5
-1.896, 5.096e-5
-1.897, 5.146e-5
-1.898, 5.200e-5
-1.899, 5.252e-5
-1.900, 5.308e-5
-1.901, 5.367e-5
-1.902, 5.424e-5
-1.903, 5.483e-5
-1.904, 5.546e-5
-1.905, 5.605e-5
-1.906, 5.664e-5
-1.907, 5.724e-5
-1.908, 5.792e-5
-1.909, 5.862e-5
-1.910, 5.935e-5
-1.911, 6.001e-5
-1.912, 6.071e-5
-1.913, 6.143e-5
-1.914, 6.215e-5
-1.915, 6.291e-5
-1.916, 6.369e-5
-1.917, 6.451e-5
-1.918, 6.531e-5
-1.919, 6.610e-5
-1.920, 6.695e-5
-1.921, 6.776e-5
-1.922, 6.870e-5
-1.923, 6.971e-5
-1.924, 7.055e-5
-1.925, 7.138e-5
-1.926, 7.230e-5
-1.927, 7.328e-5
-1.928, 7.424e-5
-1.929, 7.514e-5
-1.930, 7.613e-5
-1.931, 7.717e-5
-1.932, 7.819e-5
-1.933, 7.926e-5
-1.934, 8.028e-5
-1.935, 8.140e-5
-1.936, 8.243e-5
-1.937, 8.357e-5
-1.938, 8.469e-5
-1.939, 8.591e-5
-1.940, 8.701e-5
-1.941, 8.815e-5
-1.942, 8.950e-5
-1.943, 9.072e-5
-1.944, 9.187e-5
-1.945, 9.314e-5
-1.946, 9.453e-5
-1.947, 9.588e-5
-1.948, 9.725e-5
-1.949, 9.859e-5
-1.950, 9.995e-5
-1.951, 1.013e-4
-1.952, 1.029e-4
-1.953, 1.044e-4
-1.954, 1.059e-4
-1.955, 1.070e-4
-1.956, 1.082e-4
-1.957, 1.096e-4
-1.958, 1.111e-4
-1.959, 1.127e-4
-1.960, 1.143e-4
-1.961, 1.160e-4
-1.962, 1.178e-4
-1.963, 1.197e-4
-1.964, 1.215e-4
-1.965, 1.231e-4
-1.966, 1.251e-4
-1.967, 1.271e-4
-1.968, 1.290e-4
-1.969, 1.310e-4
-1.970, 1.329e-4
-1.971, 1.349e-4
-1.972, 1.368e-4
-1.973, 1.387e-4
-1.974, 1.409e-4
-1.975, 1.431e-4
-1.976, 1.451e-4
-1.977, 1.472e-4
-1.978, 1.493e-4
-1.979, 1.515e-4
-1.980, 1.537e-4
-1.981, 1.555e-4
-1.982, 1.577e-4
-1.983, 1.601e-4
-1.984, 1.624e-4
-1.985, 1.646e-4
-1.986, 1.670e-4
-1.987, 1.694e-4
-1.988, 1.718e-4
-1.989, 1.742e-4
-1.990, 1.768e-4
-1.991, 1.796e-4
-1.992, 1.822e-4
-1.993, 1.850e-4
-1.994, 1.877e-4
-1.995, 1.901e-4
-1.996, 1.928e-4
-1.997, 1.955e-4
-1.998, 1.983e-4
-1.999, 2.012e-4
-2.000, 2.036e-4
-2.001, 2.058e-4
-2.002, 2.085e-4
-2.003, 2.114e-4
-2.004, 2.145e-4
-2.005, 2.177e-4
-2.006, 2.205e-4
-2.007, 2.233e-4
-2.008, 2.270e-4
-2.009, 2.305e-4
-2.010, 2.340e-4
-2.011, 2.376e-4
-2.012, 2.409e-4
-2.013, 2.439e-4
-2.014, 2.476e-4
-2.015, 2.507e-4
-2.016, 2.537e-4
-2.017, 2.574e-4
-2.018, 2.610e-4
-2.019, 2.644e-4
-2.020, 2.680e-4
-2.021, 2.717e-4
-2.022, 2.754e-4
-2.023, 2.791e-4
-2.024, 2.830e-4
-2.025, 2.873e-4
-2.026, 2.916e-4
-2.027, 2.957e-4
-2.028, 3.000e-4
-2.029, 3.042e-4
-2.030, 3.085e-4
-2.031, 3.131e-4
-2.032, 3.178e-4
-2.033, 3.222e-4
-2.034, 3.269e-4
-2.035, 3.314e-4
-2.036, 3.361e-4
-2.037, 3.405e-4
-2.038, 3.454e-4
-2.039, 3.503e-4
-2.040, 3.554e-4
-2.041, 3.598e-4
-2.042, 3.650e-4
-2.043, 3.698e-4
-2.044, 3.748e-4
-2.045, 3.799e-4
-2.046, 3.853e-4
-2.047, 3.908e-4
-2.048, 3.964e-4
-2.049, 4.013e-4
-2.050, 4.070e-4
-2.051, 4.126e-4
-2.052, 4.180e-4
-2.053, 4.235e-4
-2.054, 4.294e-4
-2.055, 4.349e-4
-2.056, 4.408e-4
-2.057, 4.467e-4
-2.058, 4.525e-4
-2.059, 4.579e-4
-2.060, 4.641e-4
-2.061, 4.709e-4
-2.062, 4.770e-4
-2.063, 4.836e-4
-2.064, 4.903e-4
-2.065, 4.955e-4
-2.066, 5.022e-4
-2.067, 5.092e-4
-2.068, 5.158e-4
-2.069, 5.230e-4
-2.070, 5.296e-4
-2.071, 5.367e-4
-2.072, 5.435e-4
-2.073, 5.503e-4
-2.074, 5.574e-4
-2.075, 5.646e-4
-2.076, 5.715e-4
-2.077, 5.787e-4
-2.078, 5.859e-4
-2.079, 5.934e-4
-2.080, 6.001e-4
-2.081, 6.075e-4
-2.082, 6.154e-4
-2.083, 6.229e-4
-2.084, 6.300e-4
-2.085, 6.379e-4
-2.086, 6.456e-4
-2.087, 6.529e-4
-2.088, 6.602e-4
-2.089, 6.679e-4
-2.090, 6.757e-4
-2.091, 6.826e-4
-2.092, 6.914e-4
-2.093, 7.002e-4
-2.094, 7.090e-4
-2.095, 7.173e-4
-2.096, 7.258e-4
-2.097, 7.341e-4
-2.098, 7.407e-4
-2.099, 7.492e-4
-2.100, 7.585e-4
-2.101, 7.680e-4
-2.102, 7.772e-4
-2.103, 7.857e-4
-2.104, 7.946e-4
-2.105, 8.025e-4
-2.106, 8.114e-4
-2.107, 8.208e-4
-2.108, 8.283e-4
-2.109, 8.375e-4
-2.110, 8.471e-4
-2.111, 8.568e-4
-2.112, 8.664e-4
-2.113, 8.757e-4
-2.114, 8.845e-4
-2.115, 8.936e-4
-2.116, 9.020e-4
-2.117, 9.111e-4
-2.118, 9.215e-4
-2.119, 9.316e-4
-2.120, 9.417e-4
-2.121, 9.518e-4
-2.122, 9.615e-4
-2.123, 9.705e-4
-2.124, 9.805e-4
-2.125, 9.906e-4
-2.126, 1.000e-3
-2.127, 1.008e-3
-2.128, 1.011e-3
-2.129, 1.011e-3
-2.130, 1.011e-3
-2.131, 1.011e-3
-2.132, 1.011e-3
-2.133, 1.011e-3
-2.134, 1.011e-3
-2.135, 1.011e-3
-2.136, 1.011e-3
-2.137, 1.011e-3
-2.138, 1.011e-3
-2.139, 1.011e-3
-2.140, 1.011e-3
-2.141, 1.011e-3
-2.142, 1.011e-3
-2.143, 1.011e-3
-2.144, 1.011e-3
-2.145, 1.011e-3
-2.146, 1.011e-3
-2.147, 1.011e-3
-2.148, 1.011e-3
-2.149, 1.011e-3
-2.150, 1.011e-3
-2.151, 1.011e-3
-2.152, 1.011e-3
-2.153, 1.011e-3
-2.154, 1.011e-3
-2.155, 1.011e-3
-2.156, 1.011e-3
-2.157, 1.011e-3
-2.158, 1.011e-3
-2.159, 1.011e-3
-2.160, 1.011e-3
-2.161, 1.011e-3
-2.162, 1.011e-3
-2.163, 1.011e-3
-2.164, 1.011e-3
-2.165, 1.011e-3
-2.166, 1.011e-3
-2.167, 1.011e-3
-2.168, 1.011e-3
-2.169, 1.011e-3
-2.170, 1.011e-3
-2.171, 1.011e-3
-2.172, 1.011e-3
-2.173, 1.011e-3
-2.174, 1.011e-3
-2.175, 1.011e-3
-2.176, 1.011e-3
-2.177, 1.011e-3
-2.178, 1.011e-3
-2.179, 1.011e-3
-2.180, 1.011e-3
-2.181, 1.011e-3
-2.182, 1.011e-3
-2.183, 1.011e-3
-2.184, 1.011e-3
-2.185, 1.011e-3
-2.186, 1.011e-3
-2.187, 1.011e-3
-2.188, 1.011e-3
-2.189, 1.011e-3
-2.190, 1.011e-3
-2.191, 1.011e-3
-2.192, 1.011e-3
-2.193, 1.011e-3
-2.194, 1.011e-3
-2.195, 1.011e-3
-2.196, 1.011e-3
-2.197, 1.011e-3
-2.198, 1.011e-3
-2.199, 1.011e-3
-2.200, 1.011e-3
-2.201, 1.011e-3
-2.202, 1.011e-3
-2.203, 1.011e-3
-2.204, 1.011e-3
-2.205, 1.011e-3
-2.206, 1.011e-3
-2.207, 1.011e-3
-2.208, 1.011e-3
-2.209, 1.011e-3
-2.210, 1.011e-3
-2.211, 1.011e-3
-2.212, 1.011e-3
-2.213, 1.011e-3
-2.214, 1.011e-3
-2.215, 1.011e-3
-2.216, 1.011e-3
-2.217, 1.011e-3
-2.218, 1.011e-3
-2.219, 1.011e-3
-2.220, 1.011e-3
-2.221, 1.011e-3
-2.222, 1.011e-3
-2.223, 1.011e-3
-2.224, 1.011e-3
-2.225, 1.011e-3
-2.226, 1.011e-3
-2.227, 1.011e-3
-2.228, 1.011e-3
-2.229, 1.011e-3
-2.230, 1.011e-3
-2.231, 1.011e-3
-2.232, 1.011e-3
-2.233, 1.011e-3
-2.234, 1.011e-3
-2.235, 1.011e-3
-2.236, 1.011e-3
-2.237, 1.011e-3
-2.238, 1.011e-3
-2.239, 1.011e-3
-2.240, 1.011e-3
-2.241, 1.011e-3
-2.242, 1.011e-3
-2.243, 1.011e-3
-2.244, 1.011e-3
-2.245, 1.011e-3
-2.246, 1.011e-3
-2.247, 1.011e-3
-2.248, 1.011e-3
-2.249, 1.011e-3
-2.250, 1.011e-3
-2.251, 1.011e-3
-2.252, 1.011e-3
-2.253, 1.011e-3
-2.254, 1.011e-3
-2.255, 1.011e-3
-2.256, 1.011e-3
-2.257, 1.011e-3
-2.258, 1.011e-3
-2.259, 1.011e-3
-2.260, 1.011e-3
-2.261, 1.011e-3
-2.262, 1.011e-3
-2.263, 1.011e-3
-2.264, 1.011e-3
-2.265, 1.011e-3
-2.266, 1.011e-3
-2.267, 1.011e-3
-2.268, 1.011e-3
-2.269, 1.011e-3
-2.270, 1.011e-3
-2.271, 1.011e-3
-2.272, 1.011e-3
-2.273, 1.011e-3
-2.274, 1.011e-3
-2.275, 1.011e-3
-2.276, 1.011e-3
-2.277, 1.011e-3
-2.278, 1.011e-3
-2.279, 1.011e-3
-2.280, 1.011e-3
-2.281, 1.011e-3
-2.282, 1.011e-3
-2.283, 1.011e-3
-2.284, 1.011e-3
-2.285, 1.011e-3
-2.286, 1.011e-3
-2.287, 1.011e-3
-2.288, 1.011e-3
-2.289, 1.011e-3
-2.290, 1.011e-3
-2.291, 1.011e-3
-2.292, 1.011e-3
-2.293, 1.011e-3
-2.294, 1.011e-3
-2.295, 1.011e-3
-2.296, 1.011e-3
-2.297, 1.011e-3
-2.298, 1.011e-3
-2.299, 1.011e-3
