Potential V vs RHE, Current mA cm-2
0.013299999999999867,-0.19381544808151
0.012299999999999978,-1.0941377193156194
0.011299999999999866,-1.6877505807389888
0.010299999999999976,-2.083869744701199
0.009299999999999864,-2.4021797871708324
0.008299999999999974,-2.637021862948428
0.007299999999999862,-2.8803522065252145
0.006299999999999972,-3.055776407708479
0.00529999999999986,-3.2297858975918787
0.0042999999999999705,-3.3373039563816214
0.0032999999999998586,-3.4844339315675854
0.0022999999999999687,-3.589122567757598
0.0012999999999998568,-3.7376672542434273
0.00029999999999996696,-3.821135220935464
-0.000700000000000145,-3.915920878026421
-0.0017000000000000348,-4.009291823817514
-0.0027000000000001467,-4.105492192208336
-0.0037000000000000366,-4.256866301293895
-0.0047000000000001485,-4.295063506390251
-0.005700000000000038,-4.385605029581614
-0.00670000000000015,-4.478975975372705
-0.00770000000000004,-4.5893234567621795
-0.008700000000000152,-4.7010856494515165
-0.009700000000000042,-4.776065348344364
-0.010700000000000154,-4.872265716735186
-0.011700000000000044,-4.938757147828842
-0.012700000000000156,-5.06466645351683
-0.013700000000000045,-5.169355089706844
-0.014700000000000157,-5.271214303297127
-0.015700000000000047,-5.327802755291728
-0.01670000000000016,-5.428247257582146
-0.01770000000000005,-5.5414241615713475
-0.01870000000000016,-5.644698086461496
-0.01970000000000005,-5.747972011351644
-0.020700000000000163,-5.858319492741117
-0.021700000000000053,-5.926225635134639
-0.022700000000000164,-6.098820413718173
-0.023700000000000054,-6.169555978711425
-0.024700000000000166,-6.316685953897389
-0.025700000000000056,-6.394495075389965
-0.026700000000000168,-6.518989669778089
-0.027700000000000058,-6.642069552866347
-0.02870000000000017,-6.779296548953256
-0.02970000000000006,-6.882570473843404
-0.03070000000000017,-7.021212181230177
-0.03170000000000006,-7.124486106120324
-0.03270000000000017,-7.295666173403994
-0.03370000000000006,-7.428649035591308
-0.034700000000000175,-7.540411228280647
-0.035700000000000065,-7.6733940904679585
-0.03670000000000018,-7.812035797854732
-0.03770000000000007,-7.960580484340561
-0.03870000000000018,-8.10912517082639
-0.03970000000000007,-8.26049927991195
-0.04070000000000018,-8.380749740400477
-0.04170000000000007,-8.551929807684147
-0.04270000000000018,-8.691986226370785
-0.04370000000000007,-8.875898695353241
-0.044700000000000184,-9.011710980140284
-0.045700000000000074,-9.156011532726518
-0.046700000000000186,-9.317288620911132
-0.047700000000000076,-9.492712822094397
-0.04870000000000019,-9.658234044178606
-0.04970000000000008,-9.819511132363221
-0.05070000000000019,-9.983617643147563
-0.05170000000000008,-10.134991752233123
-0.05270000000000019,-10.350027869812608
-0.05370000000000008,-10.502816690198033
-0.05470000000000019,-10.690973293080082
-0.05570000000000008,-10.80839433096888
-0.056700000000000195,-11.029089293747825
-0.057700000000000085,-11.214416474030147
-0.058700000000000196,-11.409646633411523
-0.059700000000000086,-11.596388524993706
-0.0607000000000002,-11.761909747077915
-0.06170000000000009,-11.911869144863608
-0.0627000000000002,-12.064657965249033
-0.06370000000000009,-12.34760022522204
-0.0647000000000002,-12.460777129211243
-0.06570000000000009,-12.699863338888433
-0.0667000000000002,-12.844163891474668
-0.0677000000000001,-13.076176544652533
-0.0687000000000002,-13.237453632837148
-0.0697000000000001,-13.442586771317579
-0.07070000000000021,-13.584057901304082
-0.0717000000000001,-13.801923441483297
-0.07270000000000021,-13.988665333065482
-0.0737000000000001,-14.231995676642269
-0.07470000000000021,-14.430055258623375
-0.0757000000000001,-14.599820614607177
-0.07670000000000021,-14.812027309586934
-0.0777000000000001,-15.01008689156804
-0.07870000000000021,-15.236440699546446
-0.0797000000000001,-15.4203531685289
-0.08070000000000022,-15.533530072518102
-0.0817000000000001,-15.830619445489761
-0.08270000000000022,-15.972090575476265
-0.08370000000000011,-16.21259149645332
-0.08470000000000022,-16.396503965435777
-0.08570000000000011,-16.56626932141958
-0.08670000000000022,-16.820917355395284
-0.08770000000000011,-17.00482982437774
-0.08870000000000022,-17.188742293360193
-0.08970000000000011,-17.358507649344002
-0.09070000000000022,-17.599008570321057
-0.09170000000000011,-17.867803717295413
-0.09270000000000023,-18.03756907327922
-0.09370000000000012,-18.23562865526032
-0.09470000000000023,-18.40539401124413
-0.09570000000000012,-18.589306480226583
-0.09670000000000023,-18.80151317520634
-0.09770000000000012,-19.027866983184744
-0.09870000000000023,-19.22592656516585
-0.09970000000000012,-19.4381332601456
-0.10070000000000023,-19.593751503130758
-0.10170000000000012,-19.848399537106463
-0.10270000000000024,-19.97572355409432
-0.10370000000000013,-20.301107153063278
-0.10470000000000024,-20.34354849205923
-0.10570000000000013,-20.626490752032236
-0.10670000000000024,-20.838697447011988
-0.10770000000000013,-21.107492593986347
-0.10870000000000024,-21.2065223849769
-0.10970000000000013,-21.531905983945855
-0.11070000000000024,-21.58849443594046
-0.11170000000000013,-21.94217226090672
-0.11270000000000002,-22.04120205189727
-0.11370000000000013,-22.281702972874328
-0.11470000000000002,-22.46561544185678
-0.11570000000000014,-22.592939458844636
-0.11670000000000003,-22.861734605818995
-0.11770000000000014,-23.045647074801447
-0.11870000000000003,-23.272000882779853
-0.11970000000000014,-23.48420757775961
-0.12070000000000003,-23.682267159740714
-0.12170000000000014,-23.86617962872317
-0.12270000000000003,-24.134974775697525
-0.12370000000000014,-24.23400456668808
-0.12470000000000003,-24.474505487665134
-0.12570000000000014,-24.61597661765164
-0.12670000000000003,-24.9130659906233
-0.12770000000000015,-25.026242894612498
-0.12870000000000004,-25.39406783257741
-0.12970000000000015,-25.43650917157336
-0.13070000000000004,-25.691157205549064
-0.13170000000000015,-25.90336390052882
-0.13270000000000004,-26.11557059550858
-0.13370000000000015,-26.34192440348698
-0.13470000000000004,-26.426807081478888
-0.13570000000000015,-26.738043567449193
-0.13670000000000004,-26.86536758443705
-0.13770000000000016,-27.219045409403304
-0.13870000000000005,-27.332222313392506
-0.13970000000000016,-27.62931168636417
-0.14070000000000005,-27.671753025360115
-0.14170000000000016,-27.940548172334477
-0.14270000000000005,-28.12446064131693
-0.14370000000000016,-28.308373110299385
-0.14470000000000005,-28.577168257273744
-0.14570000000000016,-28.718639387260247
-0.14670000000000005,-28.959140308237306
-0.14770000000000016,-29.29867102020491
-0.14870000000000005,-29.581613280177915
-0.14970000000000017,-29.66649595816982
-0.15070000000000006,-29.779672862159025
-0.15170000000000017,-30.09090934812933
-0.15270000000000006,-30.246527591114486
-0.15370000000000017,-30.529469851087494
-0.15470000000000006,-30.642646755076694
-0.15570000000000017,-31.010471693041605
-0.15670000000000006,-31.151942823028104
-0.15770000000000017,-31.420737970002463
-0.15870000000000006,-31.505620647994366
-0.15970000000000018,-31.901739811956578
-0.16070000000000007,-31.986622489948477
-0.16170000000000018,-32.255417636922836
-0.16270000000000007,-32.4676243319026
-0.16370000000000018,-32.70812525287965
-0.16470000000000007,-33.00521462585131
-0.16570000000000018,-33.13253864283916
-0.16670000000000007,-33.48621646780542
-0.16770000000000018,-33.51451069380272
-0.16870000000000007,-33.924776970763574
-0.16970000000000018,-33.99551253575683
-0.17070000000000007,-34.377484586720385
-0.17170000000000019,-34.4906614907096
-0.17270000000000008,-34.773603750682604
-0.1737000000000002,-34.9716633326637
-0.17470000000000008,-35.32534115762997
-0.1757000000000002,-35.46681228761647
-0.17670000000000008,-35.735607434590825
-0.1777000000000002,-36.04684392056114
-0.17870000000000008,-36.16002082455034
-0.1797000000000002,-36.47125731052064
-0.18070000000000008,-36.69761111849905
-0.1817000000000002,-36.98055337847206
-0.18270000000000008,-37.376672542434264
-0.1837000000000002,-37.46155522042617
-0.1847000000000001,-37.716203254401876
-0.1857000000000002,-37.88596861038568
-0.1867000000000001,-38.29623488734655
-0.1877000000000002,-38.40941179133574
-0.1887000000000001,-38.90456074628851
-0.1897000000000002,-38.93285497228581
-0.1907000000000001,-39.314827023249364
-0.1917000000000001,-39.51288660523048
-0.19269999999999998,-39.82412309120078
-0.1937000000000001,-40.163653803168394
-0.19469999999999998,-40.3900076111468
-0.1957000000000001,-40.644655645122505
-0.19669999999999999,-41.111510374077966
-0.1977000000000001,-41.22468727806717
-0.1987,-41.52177665103883
-0.1997000000000001,-41.80471891101183
-0.2007,-42.14424962297944
-0.2017000000000001,-42.3847505439565
-0.2027,-42.667692803929505
-0.2037000000000001,-43.06381196789171
-0.2047,-43.077959080890366
-0.2057000000000001,-43.68628493983233
-0.2067,-43.72872627882828
-0.2077000000000001,-44.124845442790495
-0.2087,-44.506817493754056
-0.2097000000000001,-44.704877075735155
-0.2107,-44.98781933570817
-0.2117000000000001,-45.36979138667173
-0.2127,-45.63858653364609
-0.2137000000000001,-46.02055858460964
-0.2147,-46.2327652795894
-0.2157000000000001,-46.515707539562406
-0.2167,-46.92597381652327
-0.21770000000000012,-47.20891607649628
-0.2187,-47.647476579454434
-0.21970000000000012,-47.84553616143554
-0.2207,-48.1992139864018
-0.22170000000000012,-48.4255677943802
-0.2227,-48.83583407134107
-0.22370000000000012,-49.20365900930597
-0.2247,-49.26024746130057
-0.22570000000000012,-50.53348763117911
-0.2267,-49.939308885235796
-0.22770000000000012,-50.84472411714942
-0.22870000000000001,-50.29298671020206
-0.22970000000000013,-51.113519264123774
-0.23070000000000002,-51.60866821907654
-0.23170000000000013,-51.679403784069784
-0.23270000000000002,-52.16040562602391
-0.23370000000000013,-52.41505365999961
-0.23470000000000002,-52.853614162957776
-0.23570000000000013,-53.023379518941574
-0.23670000000000002,-53.419498682903786
-0.2376999999999999,-53.74488228187274
-0.23870000000000002,-53.85805918586195
-0.2396999999999999,-54.59370906179176
-0.24070000000000003,-54.77762153077422
-0.24169999999999991,-55.07471090374588
-0.24270000000000003,-55.17374069473642
-0.24369999999999992,-56.12159726564601
-0.24470000000000003,-55.951831909662204
-0.24569999999999992,-56.30550973462846
-0.24670000000000003,-56.475275090612264
-0.24769999999999992,-56.97042404556503
-0.24870000000000003,-57.36654320952724
-0.24969999999999992,-57.50801433951374
-0.25070000000000003,-57.93242772947325
-0.2516999999999999,-58.25781132844221
-0.25270000000000004,-58.59734204040982
-0.2536999999999999,-58.92272563937878
-0.25470000000000004,-58.97931409137338
-0.2556999999999999,-59.26225635134639
-0.25670000000000004,-59.67252262830725
-0.25769999999999993,-59.983759114277554
-0.25870000000000004,-60.46476095623167
-0.25969999999999993,-60.521349408226264
-0.26070000000000004,-60.79014455520062
-0.26169999999999993,-61.00235125018038
-0.26270000000000004,-61.29944062315204
-0.26369999999999993,-61.62482422212099
-0.26470000000000005,-61.907766482094
-0.26569999999999994,-62.09167895107646
-0.26670000000000005,-62.30388564605621
-0.26769999999999994,-62.51609234103597
-0.26870000000000005,-62.75659326201302
-0.26969999999999994,-63.02538840898739
-0.27070000000000005,-63.13856531297658
-0.27169999999999994,-63.43565468594825
-0.27270000000000005,-63.57712581593475
-0.27369999999999994,-63.973244979896954
-0.27470000000000006,-63.930803640901004
-0.27569999999999995,-64.14301033588076
-0.27670000000000006,-64.49668816084701
-0.27769999999999995,-64.70889485582677
-0.27870000000000006,-64.94939577680383
-0.27969999999999995,-64.99183711579978
-0.28070000000000006,-64.94939577680383
-0.28169999999999995,-65.31722071476874
-0.28270000000000006,-65.14745535878494
-0.28369999999999995,-65.60016297474175
-0.28470000000000006,-65.4445447317566
-0.28569999999999995,-65.65675142673635
-0.28670000000000007,-65.78407544372419
-0.28769999999999996,-65.61431008774039
-0.28870000000000007,-66.0670177036972
-0.28969999999999996,-66.03872347769992
-0.29070000000000007,-66.12360615569182
-0.29169999999999996,-65.78407544372419
-0.29270000000000007,-65.93969368670936
-0.29369999999999996,-66.18019460768642
-0.2947000000000001,-65.85481100871746
-0.29569999999999996,-66.03872347769992
-0.2967000000000001,-65.88310523471476
-0.29769999999999996,-66.03872347769992
-0.2987000000000001,-65.6991927657323
-0.29969999999999997,-65.7274869917296
-0.3007000000000001,-65.64260431373769
-0.30169999999999997,-65.4162505057593
-0.3027000000000001,-65.60016297474175
-0.30369999999999997,-65.33136782776738
-0.3047000000000001,-65.40210339276065
-0.30569999999999997,-65.51528029674984
-0.3067000000000001,-64.9352486638052
-0.3077,-64.89280732480923
-0.3087000000000001,-64.62401217783489
-0.3097,-64.36936414385917
-0.3107000000000001,-64.49668816084701
-0.3117,-64.14301033588076
-0.3127000000000001,-64.22789301387266
-0.3137,-63.77518539791585
-0.3147000000000001,-63.7044498329226
-0.3157,-63.20930087796983
-0.3167000000000001,-63.350772007956344
-0.3177,-62.78488748801033
-0.3187000000000001,-63.06782974798333
-0.3197,-62.55853368003192
-0.3207000000000001,-62.629269245025185
-0.3217,-62.11997317707376
-0.3227000000000001,-61.8228838041021
-0.3237,-61.5965299961237
-0.3247000000000001,-61.398470414142594
-0.3257,-61.228705058158795
-0.3267000000000001,-61.20041083216149
-0.3277,-60.79014455520062
-0.3287000000000001,-61.03064547617768
-0.3297,-60.33743693924381
-0.3307000000000001,-60.16767158326001
-0.3317,-59.913023549284304
-0.3327000000000001,-59.9696120012789
-0.3337,-59.7432581933005
-0.3347000000000001,-59.7149639673032
-0.3357,-59.55934572431805
-0.3367000000000001,-59.34713902933829
-0.3377,-59.12078522135989
-0.3387000000000001,-58.86613718738417
-0.3397,-58.809548735389576
-0.3407000000000001,-58.52660647541657
-0.3417,-58.61148915340847
-0.3427000000000001,-58.51245936241792
-0.3437,-58.48416513642061
-0.3447000000000001,-58.427576684426015
-0.3457,-58.37098823243142
-0.3467000000000001,-58.31439978043681
-0.3477,-58.31439978043681
-0.3487000000000001,-58.20122287644761
-0.3497,-58.30025266743816
-0.3507000000000001,-58.18707576344896
-0.3517,-58.38513534543006
-0.3527000000000001,-58.31439978043681
-0.3537,-58.45587091042332
-0.3547000000000001,-58.38513534543006
-0.3557,-58.569047814412514
-0.35670000000000013,-58.32854689343546
-0.3577,-58.69637183140037
-0.35870000000000013,-58.55490070141387
-0.3597,-58.880284300382826
-0.36070000000000013,-58.82369584838823
-0.3617,-59.14907944735718
-0.3626999999999999,-58.99346120437203
-0.3637,-59.290550577343694
-0.3646999999999999,-59.34713902933829
-0.3657,-59.24810923834774
-0.3666999999999999,-59.67252262830725
-0.3677,-59.87058221028835
-0.3686999999999999,-60.12523024426406
-0.36970000000000003,-60.43646673023436
-0.3706999999999999,-60.01205334027486
-0.37170000000000003,-60.42231961723571
-0.3726999999999999,-60.42231961723571
-0.37370000000000003,-60.70526187720872
-0.3746999999999999,-60.87502723319253
-0.37570000000000003,-60.95990991118443
-0.3766999999999999,-61.398470414142594
-0.37770000000000004,-61.28529351015339
-0.3786999999999999,-61.794589578104805
-0.37970000000000004,-61.5682357701264
-0.3806999999999999,-62.006796273084554
-0.38170000000000004,-61.80873669110345
-0.38269999999999993,-62.21900296806431
-0.38370000000000004,-62.37462121104946
-0.38469999999999993,-62.34632698505217
-0.38570000000000004,-62.799034601008984
-0.38669999999999993,-61.49750020513315
-0.38570000000000004,-59.19152078635314
-0.38469999999999993,-57.16848362754614
-0.38370000000000004,-55.18788780773508
-0.38269999999999993,-53.63170537788354
-0.38170000000000004,-52.075522948032
-0.3806999999999999,-50.56178185717641
-0.37970000000000004,-49.50074838227763
-0.3786999999999999,-48.1992139864018
-0.37770000000000004,-46.89767959052597
-0.3766999999999999,-45.32735004767578
-0.37570000000000003,-44.181433894785094
-0.3746999999999999,-43.03551774189442
-0.37370000000000003,-41.87545447600508
-0.3726999999999999,-40.94174501809416
-0.37170000000000003,-39.68265196121428
-0.3706999999999999,-38.692354051308754
-0.36970000000000003,-37.60302635041268
-0.3686999999999999,-36.49955153651795
-0.3677,-35.52340073961108
-0.3666999999999999,-34.56139705570285
-0.3657,-33.670128936787876
-0.3646999999999999,-32.7505665918756
-0.3637,-31.816857133964678
-0.3626999999999999,-30.925589015049702
-0.3617,-30.09090934812933
-0.36070000000000013,-29.22793545521166
-0.3597,-28.393255788291288
-0.35870000000000013,-27.62931168636417
-0.3577,-26.837073358439746
-0.35670000000000013,-26.058982143513976
-0.3557,-25.351626493581456
-0.3547000000000001,-24.531093939659737
-0.3537,-23.88032674172182
-0.3527000000000001,-23.073941300798747
-0.3517,-22.493909667854084
-0.3507000000000001,-21.659230000933714
-0.3497,-21.248963723972853
-0.3487000000000001,-20.52746096104168
-0.3477,-19.97572355409432
-0.3467000000000001,-19.2683679041618
-0.3457,-18.688336271217132
-0.3447000000000001,-18.10830463827247
-0.3437,-17.528273005327804
-0.3427000000000001,-16.94824137238314
-0.3417,-16.453092417430376
-0.3407000000000001,-15.91550212348166
-0.3397,-15.43450028152755
-0.3387000000000001,-14.812027309586934
-0.3377,-14.599820614607177
-0.3367000000000001,-13.776458638085728
-0.3357,-13.543031273607996
-0.3347000000000001,-12.96299964066333
-0.3337,-12.545659807203146
-0.3327000000000001,-12.12831997374296
-0.3317,-11.65156226568844
-0.3307000000000001,-11.31627568762043
-0.3297,-10.845176824765371
-0.3287000000000001,-10.45471650600262
-0.3277,-10.06142676464014
-0.3267000000000001,-9.673795868477121
-0.3257,-9.341338713008836
-0.3247000000000001,-8.938145992547302
-0.3237,-8.584468167581042
-0.3227000000000001,-8.196837271418023
-0.3217,-7.929456835743531
-0.3207000000000001,-7.53050824918159
-0.3197,-7.236248298809663
-0.3187000000000001,-6.881155762543538
-0.3177,-6.599628213870396
-0.3167000000000001,-6.240291543704677
-0.3157,-5.967252262830725
-0.3147000000000001,-5.648942220361092
-0.3137,-5.360341115188624
-0.3127000000000001,-5.034957516219666
-0.3117,-4.781724193543823
-0.3107000000000001,-4.544052695166498
-0.3097,-4.25828101259376
-0.3087000000000001,-3.973924041320888
-0.3077,-3.6754199570493657
-0.3067000000000001,-3.4292601908728493
-0.30569999999999997,-3.178856290796737
-0.3047000000000001,-2.9369406585198163
-0.30369999999999997,-2.6766337793446495
-0.3027000000000001,-2.424815167968673
-0.30169999999999997,-2.1956319373905373
-0.3007000000000001,-1.963619284212671
-0.29969999999999997,-1.7316066310348048
-0.2987000000000001,-1.4812027309586933
-0.29769999999999996,-1.2466435974410703
-0.2967000000000001,-1.00953798358369
-0.29569999999999996,-0.8113369304725986
-0.2947000000000001,-0.5943202170733018
-0.29369999999999996,-0.3608928525955709
-0.29270000000000007,-0.12663080845091942
-0.29169999999999996,0.07922383279244205
-0.29070000000000007,0.27176604070407356
-0.28969999999999996,0.48227508212399106
-0.28870000000000007,0.7039603428128423
-0.28769999999999996,0.8863166293654455
-0.28670000000000007,1.0842347402165642
-0.28569999999999995,1.2735231121385058
-0.28470000000000006,1.472714463159503
-0.28369999999999995,1.6863358694391237
-0.28270000000000006,1.884395451420229
-0.28169999999999995,2.076796188201874
-0.28070000000000006,2.2564645232847336
-0.27969999999999995,2.4545241052658384
-0.27870000000000006,2.655413109846674
-0.27769999999999995,2.866205093526564
-0.27670000000000006,3.054361696408614
-0.27569999999999995,3.232615320191609
-0.27470000000000006,3.4136983665743337
-0.27369999999999994,3.6202462163546287
-0.27270000000000005,3.819720509635599
-0.27169999999999994,3.9965594221187284
-0.27070000000000005,4.179057179801319
-0.26969999999999994,4.358725514884178
-0.26870000000000005,4.572346921163798
-0.26769999999999994,4.776065348344364
-0.26670000000000005,4.952904260827493
-0.26569999999999994,5.126913750710893
-0.26470000000000005,5.309411508393483
