Dec. 12, 2024   11:48:25
Cyclic Voltammetry
File: c:/users/guazh/data/banditlqround7_x0exp59_r20/2024-12-09-exp637\exp637-2024-12-12t11_28_17-arkoh\exp637_cv_sr_800mvs_efin_-1700mv.bin
Data Source:  Experiment
Instrument Model:  CHI760E
Header: CV ran at 800 mVs
Note: 

Init E (V) = -1
High E (V) = -1
Low E (V) = -1.7
Final E (V) = -1
Init P/N = N
Scan Rate (V/s) = 0.8
Segment = 3
Sample Interval (V) = 0.001
Quiet Time (sec) = 2
Sensitivity (A/V) = 0.01
Comp R (ohm) = 1.4

Results:

Channel 1:
Segment 1:
Ep = -1.285V
ip = 6.569e-5A
Ah = 7.951e-6C

Segment 2:

Segment 3:

Potential/V, Current/A

-1.000, 9.405e-6
-1.001, 1.249e-5
-1.002, 1.557e-5
-1.003, 1.557e-5
-1.004, 1.557e-5
-1.005, 1.557e-5
-1.006, 1.557e-5
-1.007, 1.865e-5
-1.008, 1.557e-5
-1.009, 1.865e-5
-1.010, 1.865e-5
-1.011, 1.865e-5
-1.012, 1.865e-5
-1.013, 1.865e-5
-1.014, 1.865e-5
-1.015, 1.865e-5
-1.016, 2.174e-5
-1.017, 2.174e-5
-1.018, 2.174e-5
-1.019, 2.174e-5
-1.020, 2.174e-5
-1.021, 2.174e-5
-1.022, 2.174e-5
-1.023, 2.174e-5
-1.024, 2.174e-5
-1.025, 2.482e-5
-1.026, 2.482e-5
-1.027, 2.482e-5
-1.028, 2.482e-5
-1.029, 2.482e-5
-1.030, 2.482e-5
-1.031, 2.790e-5
-1.032, 2.790e-5
-1.033, 2.790e-5
-1.034, 2.790e-5
-1.035, 2.790e-5
-1.036, 2.790e-5
-1.037, 2.790e-5
-1.038, 2.790e-5
-1.039, 2.790e-5
-1.040, 2.790e-5
-1.041, 2.790e-5
-1.042, 3.099e-5
-1.043, 3.099e-5
-1.044, 3.407e-5
-1.045, 3.099e-5
-1.046, 3.407e-5
-1.047, 3.407e-5
-1.048, 3.407e-5
-1.049, 3.407e-5
-1.050, 3.407e-5
-1.051, 3.407e-5
-1.052, 3.407e-5
-1.053, 3.715e-5
-1.054, 3.407e-5
-1.055, 3.715e-5
-1.056, 3.715e-5
-1.057, 4.024e-5
-1.058, 4.024e-5
-1.059, 4.024e-5
-1.060, 4.024e-5
-1.061, 4.024e-5
-1.062, 4.024e-5
-1.063, 4.024e-5
-1.064, 4.332e-5
-1.065, 4.332e-5
-1.066, 4.024e-5
-1.067, 4.332e-5
-1.068, 4.332e-5
-1.069, 4.640e-5
-1.070, 4.640e-5
-1.071, 4.640e-5
-1.072, 4.640e-5
-1.073, 4.949e-5
-1.074, 4.949e-5
-1.075, 4.949e-5
-1.076, 4.949e-5
-1.077, 4.949e-5
-1.078, 4.949e-5
-1.079, 4.949e-5
-1.080, 4.949e-5
-1.081, 5.257e-5
-1.082, 5.257e-5
-1.083, 5.257e-5
-1.084, 5.257e-5
-1.085, 5.565e-5
-1.086, 5.565e-5
-1.087, 5.565e-5
-1.088, 5.565e-5
-1.089, 5.565e-5
-1.090, 5.565e-5
-1.091, 5.873e-5
-1.092, 5.873e-5
-1.093, 5.565e-5
-1.094, 5.873e-5
-1.095, 5.873e-5
-1.096, 5.873e-5
-1.097, 5.873e-5
-1.098, 6.182e-5
-1.099, 6.182e-5
-1.100, 6.182e-5
-1.101, 6.182e-5
-1.102, 6.182e-5
-1.103, 6.182e-5
-1.104, 6.490e-5
-1.105, 6.182e-5
-1.106, 6.490e-5
-1.107, 6.490e-5
-1.108, 6.490e-5
-1.109, 6.490e-5
-1.110, 6.798e-5
-1.111, 6.798e-5
-1.112, 6.798e-5
-1.113, 6.798e-5
-1.114, 7.107e-5
-1.115, 6.798e-5
-1.116, 7.107e-5
-1.117, 6.798e-5
-1.118, 7.107e-5
-1.119, 7.107e-5
-1.120, 7.107e-5
-1.121, 7.107e-5
-1.122, 7.415e-5
-1.123, 7.415e-5
-1.124, 7.415e-5
-1.125, 7.415e-5
-1.126, 7.415e-5
-1.127, 7.415e-5
-1.128, 7.723e-5
-1.129, 7.723e-5
-1.130, 7.723e-5
-1.131, 7.723e-5
-1.132, 7.723e-5
-1.133, 7.723e-5
-1.134, 7.723e-5
-1.135, 8.032e-5
-1.136, 7.723e-5
-1.137, 8.032e-5
-1.138, 8.032e-5
-1.139, 8.032e-5
-1.140, 8.032e-5
-1.141, 8.340e-5
-1.142, 8.340e-5
-1.143, 8.340e-5
-1.144, 8.340e-5
-1.145, 8.340e-5
-1.146, 8.340e-5
-1.147, 8.340e-5
-1.148, 8.340e-5
-1.149, 8.648e-5
-1.150, 8.648e-5
-1.151, 8.648e-5
-1.152, 8.957e-5
-1.153, 8.957e-5
-1.154, 8.957e-5
-1.155, 8.957e-5
-1.156, 8.957e-5
-1.157, 8.957e-5
-1.158, 8.957e-5
-1.159, 8.957e-5
-1.160, 8.957e-5
-1.161, 9.265e-5
-1.162, 9.265e-5
-1.163, 9.265e-5
-1.164, 9.573e-5
-1.165, 9.573e-5
-1.166, 9.573e-5
-1.167, 9.573e-5
-1.168, 9.573e-5
-1.169, 9.882e-5
-1.170, 9.882e-5
-1.171, 9.882e-5
-1.172, 9.882e-5
-1.173, 9.882e-5
-1.174, 1.019e-4
-1.175, 1.019e-4
-1.176, 1.019e-4
-1.177, 1.050e-4
-1.178, 1.050e-4
-1.179, 1.050e-4
-1.180, 1.050e-4
-1.181, 1.050e-4
-1.182, 1.081e-4
-1.183, 1.111e-4
-1.184, 1.111e-4
-1.185, 1.111e-4
-1.186, 1.111e-4
-1.187, 1.111e-4
-1.188, 1.142e-4
-1.189, 1.142e-4
-1.190, 1.142e-4
-1.191, 1.173e-4
-1.192, 1.173e-4
-1.193, 1.204e-4
-1.194, 1.204e-4
-1.195, 1.204e-4
-1.196, 1.204e-4
-1.197, 1.204e-4
-1.198, 1.235e-4
-1.199, 1.235e-4
-1.200, 1.235e-4
-1.201, 1.266e-4
-1.202, 1.266e-4
-1.203, 1.266e-4
-1.204, 1.296e-4
-1.205, 1.296e-4
-1.206, 1.296e-4
-1.207, 1.327e-4
-1.208, 1.327e-4
-1.209, 1.327e-4
-1.210, 1.358e-4
-1.211, 1.358e-4
-1.212, 1.358e-4
-1.213, 1.389e-4
-1.214, 1.389e-4
-1.215, 1.420e-4
-1.216, 1.389e-4
-1.217, 1.451e-4
-1.218, 1.451e-4
-1.219, 1.451e-4
-1.220, 1.451e-4
-1.221, 1.451e-4
-1.222, 1.481e-4
-1.223, 1.512e-4
-1.224, 1.512e-4
-1.225, 1.512e-4
-1.226, 1.512e-4
-1.227, 1.543e-4
-1.228, 1.543e-4
-1.229, 1.574e-4
-1.230, 1.574e-4
-1.231, 1.574e-4
-1.232, 1.605e-4
-1.233, 1.605e-4
-1.234, 1.605e-4
-1.235, 1.636e-4
-1.236, 1.636e-4
-1.237, 1.666e-4
-1.238, 1.666e-4
-1.239, 1.666e-4
-1.240, 1.697e-4
-1.241, 1.697e-4
-1.242, 1.697e-4
-1.243, 1.697e-4
-1.244, 1.728e-4
-1.245, 1.728e-4
-1.246, 1.728e-4
-1.247, 1.728e-4
-1.248, 1.759e-4
-1.249, 1.759e-4
-1.250, 1.790e-4
-1.251, 1.790e-4
-1.252, 1.790e-4
-1.253, 1.790e-4
-1.254, 1.821e-4
-1.255, 1.821e-4
-1.256, 1.821e-4
-1.257, 1.851e-4
-1.258, 1.851e-4
-1.259, 1.851e-4
-1.260, 1.851e-4
-1.261, 1.851e-4
-1.262, 1.882e-4
-1.263, 1.851e-4
-1.264, 1.882e-4
-1.265, 1.882e-4
-1.266, 1.882e-4
-1.267, 1.882e-4
-1.268, 1.913e-4
-1.269, 1.913e-4
-1.270, 1.913e-4
-1.271, 1.913e-4
-1.272, 1.913e-4
-1.273, 1.913e-4
-1.274, 1.913e-4
-1.275, 1.913e-4
-1.276, 1.913e-4
-1.277, 1.913e-4
-1.278, 1.913e-4
-1.279, 1.913e-4
-1.280, 1.913e-4
-1.281, 1.913e-4
-1.282, 1.913e-4
-1.283, 1.913e-4
-1.284, 1.913e-4
-1.285, 1.944e-4
-1.286, 1.913e-4
-1.287, 1.944e-4
-1.288, 1.913e-4
-1.289, 1.944e-4
-1.290, 1.913e-4
-1.291, 1.913e-4
-1.292, 1.882e-4
-1.293, 1.882e-4
-1.294, 1.882e-4
-1.295, 1.882e-4
-1.296, 1.882e-4
-1.297, 1.882e-4
-1.298, 1.882e-4
-1.299, 1.882e-4
-1.300, 1.882e-4
-1.301, 1.882e-4
-1.302, 1.851e-4
-1.303, 1.851e-4
-1.304, 1.821e-4
-1.305, 1.851e-4
-1.306, 1.821e-4
-1.307, 1.821e-4
-1.308, 1.821e-4
-1.309, 1.790e-4
-1.310, 1.790e-4
-1.311, 1.790e-4
-1.312, 1.790e-4
-1.313, 1.790e-4
-1.314, 1.759e-4
-1.315, 1.759e-4
-1.316, 1.728e-4
-1.317, 1.728e-4
-1.318, 1.728e-4
-1.319, 1.728e-4
-1.320, 1.697e-4
-1.321, 1.666e-4
-1.322, 1.666e-4
-1.323, 1.666e-4
-1.324, 1.666e-4
-1.325, 1.666e-4
-1.326, 1.636e-4
-1.327, 1.605e-4
-1.328, 1.605e-4
-1.329, 1.574e-4
-1.330, 1.574e-4
-1.331, 1.574e-4
-1.332, 1.543e-4
-1.333, 1.512e-4
-1.334, 1.512e-4
-1.335, 1.512e-4
-1.336, 1.512e-4
-1.337, 1.481e-4
-1.338, 1.481e-4
-1.339, 1.481e-4
-1.340, 1.451e-4
-1.341, 1.451e-4
-1.342, 1.420e-4
-1.343, 1.420e-4
-1.344, 1.420e-4
-1.345, 1.389e-4
-1.346, 1.389e-4
-1.347, 1.389e-4
-1.348, 1.389e-4
-1.349, 1.389e-4
-1.350, 1.389e-4
-1.351, 1.358e-4
-1.352, 1.358e-4
-1.353, 1.358e-4
-1.354, 1.327e-4
-1.355, 1.327e-4
-1.356, 1.327e-4
-1.357, 1.296e-4
-1.358, 1.296e-4
-1.359, 1.296e-4
-1.360, 1.266e-4
-1.361, 1.266e-4
-1.362, 1.266e-4
-1.363, 1.266e-4
-1.364, 1.235e-4
-1.365, 1.266e-4
-1.366, 1.235e-4
-1.367, 1.235e-4
-1.368, 1.235e-4
-1.369, 1.235e-4
-1.370, 1.235e-4
-1.371, 1.235e-4
-1.372, 1.204e-4
-1.373, 1.204e-4
-1.374, 1.204e-4
-1.375, 1.204e-4
-1.376, 1.204e-4
-1.377, 1.204e-4
-1.378, 1.204e-4
-1.379, 1.204e-4
-1.380, 1.204e-4
-1.381, 1.204e-4
-1.382, 1.204e-4
-1.383, 1.204e-4
-1.384, 1.204e-4
-1.385, 1.204e-4
-1.386, 1.204e-4
-1.387, 1.204e-4
-1.388, 1.204e-4
-1.389, 1.204e-4
-1.390, 1.204e-4
-1.391, 1.235e-4
-1.392, 1.204e-4
-1.393, 1.204e-4
-1.394, 1.235e-4
-1.395, 1.235e-4
-1.396, 1.235e-4
-1.397, 1.204e-4
-1.398, 1.235e-4
-1.399, 1.235e-4
-1.400, 1.235e-4
-1.401, 1.235e-4
-1.402, 1.266e-4
-1.403, 1.266e-4
-1.404, 1.266e-4
-1.405, 1.266e-4
-1.406, 1.266e-4
-1.407, 1.296e-4
-1.408, 1.266e-4
-1.409, 1.266e-4
-1.410, 1.266e-4
-1.411, 1.266e-4
-1.412, 1.296e-4
-1.413, 1.296e-4
-1.414, 1.296e-4
-1.415, 1.296e-4
-1.416, 1.327e-4
-1.417, 1.327e-4
-1.418, 1.327e-4
-1.419, 1.327e-4
-1.420, 1.358e-4
-1.421, 1.358e-4
-1.422, 1.358e-4
-1.423, 1.358e-4
-1.424, 1.389e-4
-1.425, 1.389e-4
-1.426, 1.389e-4
-1.427, 1.389e-4
-1.428, 1.389e-4
-1.429, 1.420e-4
-1.430, 1.420e-4
-1.431, 1.420e-4
-1.432, 1.420e-4
-1.433, 1.451e-4
-1.434, 1.420e-4
-1.435, 1.451e-4
-1.436, 1.451e-4
-1.437, 1.451e-4
-1.438, 1.481e-4
-1.439, 1.481e-4
-1.440, 1.481e-4
-1.441, 1.481e-4
-1.442, 1.481e-4
-1.443, 1.512e-4
-1.444, 1.512e-4
-1.445, 1.512e-4
-1.446, 1.512e-4
-1.447, 1.512e-4
-1.448, 1.512e-4
-1.449, 1.512e-4
-1.450, 1.543e-4
-1.451, 1.543e-4
-1.452, 1.543e-4
-1.453, 1.543e-4
-1.454, 1.543e-4
-1.455, 1.574e-4
-1.456, 1.574e-4
-1.457, 1.574e-4
-1.458, 1.574e-4
-1.459, 1.574e-4
-1.460, 1.574e-4
-1.461, 1.574e-4
-1.462, 1.574e-4
-1.463, 1.574e-4
-1.464, 1.574e-4
-1.465, 1.574e-4
-1.466, 1.574e-4
-1.467, 1.574e-4
-1.468, 1.574e-4
-1.469, 1.574e-4
-1.470, 1.605e-4
-1.471, 1.605e-4
-1.472, 1.605e-4
-1.473, 1.605e-4
-1.474, 1.605e-4
-1.475, 1.605e-4
-1.476, 1.605e-4
-1.477, 1.605e-4
-1.478, 1.605e-4
-1.479, 1.605e-4
-1.480, 1.605e-4
-1.481, 1.605e-4
-1.482, 1.636e-4
-1.483, 1.605e-4
-1.484, 1.636e-4
-1.485, 1.636e-4
-1.486, 1.636e-4
-1.487, 1.636e-4
-1.488, 1.636e-4
-1.489, 1.636e-4
-1.490, 1.636e-4
-1.491, 1.636e-4
-1.492, 1.666e-4
-1.493, 1.666e-4
-1.494, 1.666e-4
-1.495, 1.697e-4
-1.496, 1.697e-4
-1.497, 1.697e-4
-1.498, 1.728e-4
-1.499, 1.728e-4
-1.500, 1.728e-4
-1.501, 1.728e-4
-1.502, 1.728e-4
-1.503, 1.759e-4
-1.504, 1.759e-4
-1.505, 1.790e-4
-1.506, 1.790e-4
-1.507, 1.821e-4
-1.508, 1.821e-4
-1.509, 1.882e-4
-1.510, 1.882e-4
-1.511, 1.913e-4
-1.512, 1.944e-4
-1.513, 1.975e-4
-1.514, 2.006e-4
-1.515, 2.036e-4
-1.516, 2.067e-4
-1.517, 2.129e-4
-1.518, 2.160e-4
-1.519, 2.221e-4
-1.520, 2.252e-4
-1.521, 2.345e-4
-1.522, 2.406e-4
-1.523, 2.499e-4
-1.524, 2.561e-4
-1.525, 2.653e-4
-1.526, 2.715e-4
-1.527, 2.838e-4
-1.528, 2.961e-4
-1.529, 3.085e-4
-1.530, 3.239e-4
-1.531, 3.393e-4
-1.532, 3.578e-4
-1.533, 3.794e-4
-1.534, 3.979e-4
-1.535, 4.225e-4
-1.536, 4.472e-4
-1.537, 4.750e-4
-1.538, 5.027e-4
-1.539, 5.305e-4
-1.540, 5.613e-4
-1.541, 5.890e-4
-1.542, 6.229e-4
-1.543, 6.538e-4
-1.544, 6.877e-4
-1.545, 7.216e-4
-1.546, 7.586e-4
-1.547, 7.987e-4
-1.548, 8.418e-4
-1.549, 8.819e-4
-1.550, 9.251e-4
-1.551, 9.683e-4
-1.552, 1.014e-3
-1.553, 1.058e-3
-1.554, 1.104e-3
-1.555, 1.147e-3
-1.556, 1.193e-3
-1.557, 1.236e-3
-1.558, 1.286e-3
-1.559, 1.332e-3
-1.560, 1.375e-3
-1.561, 1.421e-3
-1.562, 1.471e-3
-1.563, 1.520e-3
-1.564, 1.566e-3
-1.565, 1.616e-3
-1.566, 1.659e-3
-1.567, 1.699e-3
-1.568, 1.742e-3
-1.569, 1.785e-3
-1.570, 1.822e-3
-1.571, 1.859e-3
-1.572, 1.899e-3
-1.573, 1.933e-3
-1.574, 1.967e-3
-1.575, 2.001e-3
-1.576, 2.035e-3
-1.577, 2.069e-3
-1.578, 2.103e-3
-1.579, 2.137e-3
-1.580, 2.171e-3
-1.581, 2.201e-3
-1.582, 2.235e-3
-1.583, 2.266e-3
-1.584, 2.294e-3
-1.585, 2.328e-3
-1.586, 2.362e-3
-1.587, 2.393e-3
-1.588, 2.427e-3
-1.589, 2.460e-3
-1.590, 2.494e-3
-1.591, 2.528e-3
-1.592, 2.559e-3
-1.593, 2.593e-3
-1.594, 2.627e-3
-1.595, 2.661e-3
-1.596, 2.695e-3
-1.597, 2.729e-3
-1.598, 2.763e-3
-1.599, 2.793e-3
-1.600, 2.824e-3
-1.601, 2.858e-3
-1.602, 2.892e-3
-1.603, 2.926e-3
-1.604, 2.960e-3
-1.605, 2.994e-3
-1.606, 3.028e-3
-1.607, 3.065e-3
-1.608, 3.102e-3
-1.609, 3.136e-3
-1.610, 3.170e-3
-1.611, 3.204e-3
-1.612, 3.241e-3
-1.613, 3.271e-3
-1.614, 3.305e-3
-1.615, 3.336e-3
-1.616, 3.373e-3
-1.617, 3.407e-3
-1.618, 3.447e-3
-1.619, 3.481e-3
-1.620, 3.521e-3
-1.621, 3.555e-3
-1.622, 3.589e-3
-1.623, 3.626e-3
-1.624, 3.657e-3
-1.625, 3.691e-3
-1.626, 3.728e-3
-1.627, 3.762e-3
-1.628, 3.795e-3
-1.629, 3.832e-3
-1.630, 3.863e-3
-1.631, 3.894e-3
-1.632, 3.934e-3
-1.633, 3.965e-3
-1.634, 4.002e-3
-1.635, 4.033e-3
-1.636, 4.064e-3
-1.637, 4.095e-3
-1.638, 4.128e-3
-1.639, 4.172e-3
-1.640, 4.206e-3
-1.641, 4.246e-3
-1.642, 4.283e-3
-1.643, 4.320e-3
-1.644, 4.360e-3
-1.645, 4.400e-3
-1.646, 4.440e-3
-1.647, 4.477e-3
-1.648, 4.514e-3
-1.649, 4.551e-3
-1.650, 4.609e-3
-1.651, 4.625e-3
-1.652, 4.665e-3
-1.653, 4.702e-3
-1.654, 4.742e-3
-1.655, 4.785e-3
-1.656, 4.822e-3
-1.657, 4.865e-3
-1.658, 4.905e-3
-1.659, 4.942e-3
-1.660, 4.979e-3
-1.661, 5.010e-3
-1.662, 5.047e-3
-1.663, 5.084e-3
-1.664, 5.124e-3
-1.665, 5.171e-3
-1.666, 5.211e-3
-1.667, 5.260e-3
-1.668, 5.325e-3
-1.669, 5.365e-3
-1.670, 5.386e-3
-1.671, 5.426e-3
-1.672, 5.467e-3
-1.673, 5.513e-3
-1.674, 5.556e-3
-1.675, 5.602e-3
-1.676, 5.645e-3
-1.677, 5.682e-3
-1.678, 5.719e-3
-1.679, 5.756e-3
-1.680, 5.793e-3
-1.681, 5.833e-3
-1.682, 5.870e-3
-1.683, 5.914e-3
-1.684, 5.954e-3
-1.685, 6.015e-3
-1.686, 6.037e-3
-1.687, 6.080e-3
-1.688, 6.117e-3
-1.689, 6.163e-3
-1.690, 6.206e-3
-1.691, 6.250e-3
-1.692, 6.317e-3
-1.693, 6.339e-3
-1.694, 6.382e-3
-1.695, 6.425e-3
-1.696, 6.475e-3
-1.697, 6.515e-3
-1.698, 6.564e-3
-1.699, 6.604e-3
-1.700, 6.610e-3
-1.699, 6.561e-3
-1.698, 6.515e-3
-1.697, 6.475e-3
-1.696, 6.419e-3
-1.695, 6.361e-3
-1.694, 6.317e-3
-1.693, 6.274e-3
-1.692, 6.206e-3
-1.691, 6.154e-3
-1.690, 6.111e-3
-1.689, 6.058e-3
-1.688, 6.015e-3
-1.687, 5.975e-3
-1.686, 5.926e-3
-1.685, 5.880e-3
-1.684, 5.846e-3
-1.683, 5.784e-3
-1.682, 5.744e-3
-1.681, 5.685e-3
-1.680, 5.655e-3
-1.679, 5.602e-3
-1.678, 5.556e-3
-1.677, 5.504e-3
-1.676, 5.467e-3
-1.675, 5.433e-3
-1.674, 5.374e-3
-1.673, 5.340e-3
-1.672, 5.278e-3
-1.671, 5.245e-3
-1.670, 5.198e-3
-1.669, 5.155e-3
-1.668, 5.137e-3
-1.667, 5.063e-3
-1.666, 5.026e-3
-1.665, 4.989e-3
-1.664, 4.952e-3
-1.663, 4.905e-3
-1.662, 4.856e-3
-1.661, 4.810e-3
-1.660, 4.773e-3
-1.659, 4.733e-3
-1.658, 4.683e-3
-1.657, 4.643e-3
-1.656, 4.594e-3
-1.655, 4.551e-3
-1.654, 4.517e-3
-1.653, 4.461e-3
-1.652, 4.424e-3
-1.651, 4.397e-3
-1.650, 4.350e-3
-1.649, 4.304e-3
-1.648, 4.270e-3
-1.647, 4.227e-3
-1.646, 4.184e-3
-1.645, 4.144e-3
-1.644, 4.122e-3
-1.643, 4.073e-3
-1.642, 4.036e-3
-1.641, 4.002e-3
-1.640, 3.977e-3
-1.639, 3.919e-3
-1.638, 3.885e-3
-1.637, 3.854e-3
-1.636, 3.820e-3
-1.635, 3.777e-3
-1.634, 3.743e-3
-1.633, 3.703e-3
-1.632, 3.660e-3
-1.631, 3.623e-3
-1.630, 3.601e-3
-1.629, 3.552e-3
-1.628, 3.509e-3
-1.627, 3.472e-3
-1.626, 3.459e-3
-1.625, 3.401e-3
-1.624, 3.364e-3
-1.623, 3.327e-3
-1.622, 3.296e-3
-1.621, 3.278e-3
-1.620, 3.228e-3
-1.619, 3.191e-3
-1.618, 3.160e-3
-1.617, 3.139e-3
-1.616, 3.096e-3
-1.615, 3.056e-3
-1.614, 3.022e-3
-1.613, 2.991e-3
-1.612, 2.957e-3
-1.611, 2.926e-3
-1.610, 2.889e-3
-1.609, 2.874e-3
-1.608, 2.830e-3
-1.607, 2.797e-3
-1.606, 2.775e-3
-1.605, 2.753e-3
-1.604, 2.701e-3
-1.603, 2.670e-3
-1.602, 2.636e-3
-1.601, 2.618e-3
-1.600, 2.575e-3
-1.599, 2.544e-3
-1.598, 2.513e-3
-1.597, 2.485e-3
-1.596, 2.454e-3
-1.595, 2.433e-3
-1.594, 2.396e-3
-1.593, 2.368e-3
-1.592, 2.346e-3
-1.591, 2.322e-3
-1.590, 2.285e-3
-1.589, 2.254e-3
-1.588, 2.226e-3
-1.587, 2.195e-3
-1.586, 2.171e-3
-1.585, 2.143e-3
-1.584, 2.115e-3
-1.583, 2.087e-3
-1.582, 2.066e-3
-1.581, 2.038e-3
-1.580, 2.004e-3
-1.579, 1.976e-3
-1.578, 1.964e-3
-1.577, 1.927e-3
-1.576, 1.899e-3
-1.575, 1.872e-3
-1.574, 1.844e-3
-1.573, 1.819e-3
-1.572, 1.795e-3
-1.571, 1.770e-3
-1.570, 1.758e-3
-1.569, 1.727e-3
-1.568, 1.705e-3
-1.567, 1.677e-3
-1.566, 1.668e-3
-1.565, 1.631e-3
-1.564, 1.606e-3
-1.563, 1.582e-3
-1.562, 1.582e-3
-1.561, 1.532e-3
-1.560, 1.511e-3
-1.559, 1.483e-3
-1.558, 1.458e-3
-1.557, 1.440e-3
-1.556, 1.418e-3
-1.555, 1.394e-3
-1.554, 1.388e-3
-1.553, 1.354e-3
-1.552, 1.332e-3
-1.551, 1.332e-3
-1.550, 1.292e-3
-1.549, 1.264e-3
-1.548, 1.246e-3
-1.547, 1.224e-3
-1.546, 1.209e-3
-1.545, 1.187e-3
-1.544, 1.169e-3
-1.543, 1.150e-3
-1.542, 1.132e-3
-1.541, 1.122e-3
-1.540, 1.088e-3
-1.539, 1.070e-3
-1.538, 1.051e-3
-1.537, 1.033e-3
-1.536, 1.014e-3
-1.535, 1.002e-3
-1.534, 9.775e-4
-1.533, 9.590e-4
-1.532, 9.405e-4
-1.531, 9.405e-4
-1.530, 9.128e-4
-1.529, 8.943e-4
-1.528, 8.758e-4
-1.527, 8.603e-4
-1.526, 8.449e-4
-1.525, 8.295e-4
-1.524, 8.110e-4
-1.523, 7.956e-4
-1.522, 7.802e-4
-1.521, 7.648e-4
-1.520, 7.463e-4
-1.519, 7.370e-4
-1.518, 7.185e-4
-1.517, 7.031e-4
-1.516, 6.877e-4
-1.515, 6.784e-4
-1.514, 6.661e-4
-1.513, 6.507e-4
-1.512, 6.353e-4
-1.511, 6.199e-4
-1.510, 6.075e-4
-1.509, 5.952e-4
-1.508, 5.767e-4
-1.507, 5.674e-4
-1.506, 5.520e-4
-1.505, 5.459e-4
-1.504, 5.366e-4
-1.503, 5.181e-4
-1.502, 5.089e-4
-1.501, 4.965e-4
-1.500, 4.935e-4
-1.499, 4.811e-4
-1.498, 4.657e-4
-1.497, 4.503e-4
-1.496, 4.410e-4
-1.495, 4.287e-4
-1.494, 4.195e-4
-1.493, 4.133e-4
-1.492, 4.133e-4
-1.491, 3.886e-4
-1.490, 3.794e-4
-1.489, 3.701e-4
-1.488, 3.609e-4
-1.487, 3.516e-4
-1.486, 3.424e-4
-1.485, 3.331e-4
-1.484, 3.239e-4
-1.483, 3.146e-4
-1.482, 3.115e-4
-1.481, 2.992e-4
-1.480, 2.900e-4
-1.479, 2.807e-4
-1.478, 2.746e-4
-1.477, 2.807e-4
-1.476, 2.591e-4
-1.475, 2.530e-4
-1.474, 2.468e-4
-1.473, 2.376e-4
-1.472, 2.468e-4
-1.471, 2.252e-4
-1.470, 2.191e-4
-1.469, 2.129e-4
-1.468, 2.067e-4
-1.467, 2.006e-4
-1.466, 1.975e-4
-1.465, 1.882e-4
-1.464, 1.821e-4
-1.463, 1.790e-4
-1.462, 1.697e-4
-1.461, 1.790e-4
-1.460, 1.605e-4
-1.459, 1.543e-4
-1.458, 1.512e-4
-1.457, 1.451e-4
-1.456, 1.512e-4
-1.455, 1.420e-4
-1.454, 1.296e-4
-1.453, 1.296e-4
-1.452, 1.235e-4
-1.451, 1.204e-4
-1.450, 1.173e-4
-1.449, 1.111e-4
-1.448, 1.081e-4
-1.447, 1.050e-4
-1.446, 9.882e-5
-1.445, 9.882e-5
-1.444, 9.882e-5
-1.443, 9.265e-5
-1.442, 8.648e-5
-1.441, 8.340e-5
-1.440, 8.032e-5
-1.439, 8.957e-5
-1.438, 7.723e-5
-1.437, 7.415e-5
-1.436, 7.107e-5
-1.435, 6.798e-5
-1.434, 6.490e-5
-1.433, 7.107e-5
-1.432, 6.182e-5
-1.431, 5.565e-5
-1.430, 5.565e-5
-1.429, 5.257e-5
-1.428, 4.949e-5
-1.427, 4.949e-5
-1.426, 4.640e-5
-1.425, 4.332e-5
-1.424, 4.332e-5
-1.423, 4.332e-5
-1.422, 4.024e-5
-1.421, 4.332e-5
-1.420, 3.715e-5
-1.419, 3.407e-5
-1.418, 3.407e-5
-1.417, 3.099e-5
-1.416, 3.407e-5
-1.415, 3.407e-5
-1.414, 2.790e-5
-1.413, 2.482e-5
-1.412, 2.482e-5
-1.411, 2.174e-5
-1.410, 2.174e-5
-1.409, 1.865e-5
-1.408, 1.865e-5
-1.407, 1.865e-5
-1.406, 1.557e-5
-1.405, 1.557e-5
-1.404, 1.557e-5
-1.403, 1.249e-5
-1.402, 1.249e-5
-1.401, 1.249e-5
-1.400, 9.405e-6
-1.399, 9.405e-6
-1.398, 9.405e-6
-1.397, 6.322e-6
-1.396, 6.322e-6
-1.395, 6.322e-6
-1.394, 6.322e-6
-1.393, 3.239e-6
-1.392, 3.239e-6
-1.391, 3.239e-6
-1.390, 3.239e-6
-1.389, 1.559e-7
-1.388, 1.559e-7
-1.387, 1.559e-7
-1.386, 3.239e-6
-1.385, 1.559e-7
-1.384, 1.559e-7
-1.383, -2.927e-6
-1.382, -2.927e-6
-1.381, -2.927e-6
-1.380, -2.927e-6
-1.379, -6.010e-6
-1.378, -6.010e-6
-1.377, -6.010e-6
-1.376, -6.010e-6
-1.375, -6.010e-6
-1.374, -9.093e-6
-1.373, -9.093e-6
-1.372, -9.093e-6
-1.371, -9.093e-6
-1.370, -9.093e-6
-1.369, -9.093e-6
-1.368, -1.218e-5
-1.367, -1.218e-5
-1.366, -1.218e-5
-1.365, -1.218e-5
-1.364, -1.218e-5
-1.363, -1.526e-5
-1.362, -1.218e-5
-1.361, -1.526e-5
-1.360, -1.526e-5
-1.359, -1.526e-5
-1.358, -1.834e-5
-1.357, -1.526e-5
-1.356, -1.526e-5
-1.355, -1.526e-5
-1.354, -1.834e-5
-1.353, -1.834e-5
-1.352, -1.834e-5
-1.351, -2.143e-5
-1.350, -1.834e-5
-1.349, -2.143e-5
-1.348, -2.451e-5
-1.347, -2.451e-5
-1.346, -2.143e-5
-1.345, -2.143e-5
-1.344, -2.143e-5
-1.343, -2.143e-5
-1.342, -2.143e-5
-1.341, -2.143e-5
-1.340, -2.143e-5
-1.339, -2.759e-5
-1.338, -2.759e-5
-1.337, -3.068e-5
-1.336, -2.451e-5
-1.335, -2.759e-5
-1.334, -2.759e-5
-1.333, -2.759e-5
-1.332, -2.759e-5
-1.331, -2.759e-5
-1.330, -3.068e-5
-1.329, -3.376e-5
-1.328, -3.068e-5
-1.327, -3.068e-5
-1.326, -3.068e-5
-1.325, -3.068e-5
-1.324, -3.068e-5
-1.323, -3.068e-5
-1.322, -3.376e-5
-1.321, -3.376e-5
-1.320, -3.376e-5
-1.319, -3.684e-5
-1.318, -3.376e-5
-1.317, -3.376e-5
-1.316, -3.376e-5
-1.315, -3.376e-5
-1.314, -3.376e-5
-1.313, -3.376e-5
-1.312, -3.376e-5
-1.311, -3.684e-5
-1.310, -3.684e-5
-1.309, -3.992e-5
-1.308, -4.609e-5
-1.307, -4.301e-5
-1.306, -3.992e-5
-1.305, -3.992e-5
-1.304, -3.992e-5
-1.303, -3.992e-5
-1.302, -3.992e-5
-1.301, -3.992e-5
-1.300, -3.992e-5
-1.299, -4.301e-5
-1.298, -4.301e-5
-1.297, -3.992e-5
-1.296, -3.992e-5
-1.295, -4.301e-5
-1.294, -4.301e-5
-1.293, -4.301e-5
-1.292, -4.301e-5
-1.291, -4.301e-5
-1.290, -4.301e-5
-1.289, -4.301e-5
-1.288, -4.301e-5
-1.287, -4.301e-5
-1.286, -4.609e-5
-1.285, -4.609e-5
-1.284, -5.226e-5
-1.283, -5.842e-5
-1.282, -4.609e-5
-1.281, -4.917e-5
-1.280, -4.917e-5
-1.279, -4.917e-5
-1.278, -4.917e-5
-1.277, -4.917e-5
-1.276, -4.917e-5
-1.275, -4.917e-5
-1.274, -4.917e-5
-1.273, -5.226e-5
-1.272, -5.226e-5
-1.271, -5.226e-5
-1.270, -5.226e-5
-1.269, -5.842e-5
-1.268, -6.151e-5
-1.267, -6.459e-5
-1.266, -5.534e-5
-1.265, -5.226e-5
-1.264, -5.534e-5
-1.263, -5.226e-5
-1.262, -5.226e-5
-1.261, -5.534e-5
-1.260, -5.534e-5
-1.259, -5.534e-5
-1.258, -5.534e-5
-1.257, -5.534e-5
-1.256, -5.534e-5
-1.255, -5.842e-5
-1.254, -5.842e-5
-1.253, -5.842e-5
-1.252, -5.842e-5
-1.251, -5.842e-5
-1.250, -5.842e-5
-1.249, -5.842e-5
-1.248, -6.767e-5
-1.247, -6.767e-5
-1.246, -6.151e-5
-1.245, -5.842e-5
-1.244, -6.151e-5
-1.243, -6.151e-5
-1.242, -6.151e-5
-1.241, -6.151e-5
-1.240, -6.459e-5
-1.239, -6.459e-5
-1.238, -6.459e-5
-1.237, -6.459e-5
-1.236, -7.076e-5
-1.235, -7.384e-5
-1.234, -7.076e-5
-1.233, -6.459e-5
-1.232, -6.767e-5
-1.231, -6.767e-5
-1.230, -6.767e-5
-1.229, -6.767e-5
-1.228, -7.076e-5
-1.227, -6.767e-5
-1.226, -7.692e-5
-1.225, -8.309e-5
-1.224, -7.076e-5
-1.223, -7.076e-5
-1.222, -7.076e-5
-1.221, -7.384e-5
-1.220, -7.384e-5
-1.219, -7.384e-5
-1.218, -7.384e-5
-1.217, -7.384e-5
-1.216, -8.309e-5
-1.215, -8.925e-5
-1.214, -7.692e-5
-1.213, -7.692e-5
-1.212, -8.000e-5
-1.211, -8.000e-5
-1.210, -8.000e-5
-1.209, -8.000e-5
-1.208, -8.000e-5
-1.207, -8.309e-5
-1.206, -8.925e-5
-1.205, -9.542e-5
-1.204, -9.850e-5
-1.203, -8.617e-5
-1.202, -8.617e-5
-1.201, -8.617e-5
-1.200, -8.925e-5
-1.199, -9.850e-5
-1.198, -9.850e-5
-1.197, -9.234e-5
-1.196, -9.234e-5
-1.195, -9.234e-5
-1.194, -9.234e-5
-1.193, -9.234e-5
-1.192, -9.542e-5
-1.191, -1.016e-4
-1.190, -9.850e-5
-1.189, -9.850e-5
-1.188, -9.850e-5
-1.187, -1.016e-4
-1.186, -1.016e-4
-1.185, -1.016e-4
-1.184, -1.047e-4
-1.183, -1.047e-4
-1.182, -1.047e-4
-1.181, -1.108e-4
-1.180, -1.170e-4
-1.179, -1.078e-4
-1.178, -1.108e-4
-1.177, -1.108e-4
-1.176, -1.108e-4
-1.175, -1.139e-4
-1.174, -1.139e-4
-1.173, -1.170e-4
-1.172, -1.170e-4
-1.171, -1.170e-4
-1.170, -1.170e-4
-1.169, -1.170e-4
-1.168, -1.201e-4
-1.167, -1.201e-4
-1.166, -1.386e-4
-1.165, -1.417e-4
-1.164, -1.355e-4
-1.163, -1.263e-4
-1.162, -1.263e-4
-1.161, -1.263e-4
-1.160, -1.293e-4
-1.159, -1.293e-4
-1.158, -1.324e-4
-1.157, -1.417e-4
-1.156, -1.324e-4
-1.155, -1.324e-4
-1.154, -1.324e-4
-1.153, -1.324e-4
-1.152, -1.355e-4
-1.151, -1.355e-4
-1.150, -1.386e-4
-1.149, -1.386e-4
-1.148, -1.448e-4
-1.147, -1.417e-4
-1.146, -1.417e-4
-1.145, -1.417e-4
-1.144, -1.417e-4
-1.143, -1.417e-4
-1.142, -1.417e-4
-1.141, -1.448e-4
-1.140, -1.448e-4
-1.139, -1.448e-4
-1.138, -1.448e-4
-1.137, -1.448e-4
-1.136, -1.448e-4
-1.135, -1.478e-4
-1.134, -1.478e-4
-1.133, -1.478e-4
-1.132, -1.478e-4
-1.131, -1.694e-4
-1.130, -1.694e-4
-1.129, -1.509e-4
-1.128, -1.509e-4
-1.127, -1.509e-4
-1.126, -1.509e-4
-1.125, -1.540e-4
-1.124, -1.540e-4
-1.123, -1.540e-4
-1.122, -1.540e-4
-1.121, -1.540e-4
-1.120, -1.540e-4
-1.119, -1.602e-4
-1.118, -1.540e-4
-1.117, -1.540e-4
-1.116, -1.540e-4
-1.115, -1.540e-4
-1.114, -1.540e-4
-1.113, -1.540e-4
-1.112, -1.540e-4
-1.111, -1.540e-4
-1.110, -1.540e-4
-1.109, -1.540e-4
-1.108, -1.571e-4
-1.107, -1.571e-4
-1.106, -1.571e-4
-1.105, -1.571e-4
-1.104, -1.540e-4
-1.103, -1.540e-4
-1.102, -1.571e-4
-1.101, -1.663e-4
-1.100, -1.756e-4
-1.099, -1.756e-4
-1.098, -1.817e-4
-1.097, -1.602e-4
-1.096, -1.571e-4
-1.095, -1.571e-4
-1.094, -1.571e-4
-1.093, -1.540e-4
-1.092, -1.756e-4
-1.091, -1.540e-4
-1.090, -1.540e-4
-1.089, -1.540e-4
-1.088, -1.540e-4
-1.087, -1.540e-4
-1.086, -1.602e-4
-1.085, -1.663e-4
-1.084, -1.571e-4
-1.083, -1.540e-4
-1.082, -1.540e-4
-1.081, -1.540e-4
-1.080, -1.663e-4
-1.079, -1.725e-4
-1.078, -1.571e-4
-1.077, -1.509e-4
-1.076, -1.509e-4
-1.075, -1.509e-4
-1.074, -1.602e-4
-1.073, -1.756e-4
-1.072, -1.540e-4
-1.071, -1.509e-4
-1.070, -1.478e-4
-1.069, -1.478e-4
-1.068, -1.478e-4
-1.067, -1.571e-4
-1.066, -1.478e-4
-1.065, -1.478e-4
-1.064, -1.478e-4
-1.063, -1.478e-4
-1.062, -1.448e-4
-1.061, -1.571e-4
-1.060, -1.663e-4
-1.059, -1.478e-4
-1.058, -1.478e-4
-1.057, -1.478e-4
-1.056, -1.448e-4
-1.055, -1.448e-4
-1.054, -1.571e-4
-1.053, -1.725e-4
-1.052, -1.478e-4
-1.051, -1.448e-4
-1.050, -1.448e-4
-1.049, -1.448e-4
-1.048, -1.417e-4
-1.047, -1.448e-4
-1.046, -1.478e-4
-1.045, -1.417e-4
-1.044, -1.417e-4
-1.043, -1.417e-4
-1.042, -1.417e-4
-1.041, -1.386e-4
-1.040, -1.417e-4
-1.039, -1.478e-4
-1.038, -1.602e-4
-1.037, -1.478e-4
-1.036, -1.386e-4
-1.035, -1.386e-4
-1.034, -1.386e-4
-1.033, -1.386e-4
-1.032, -1.417e-4
-1.031, -1.386e-4
-1.030, -1.448e-4
-1.029, -1.540e-4
-1.028, -1.602e-4
-1.027, -1.386e-4
-1.026, -1.386e-4
-1.025, -1.386e-4
-1.024, -1.386e-4
-1.023, -1.355e-4
-1.022, -1.355e-4
-1.021, -1.355e-4
-1.020, -1.509e-4
-1.019, -1.602e-4
-1.018, -1.632e-4
-1.017, -1.355e-4
-1.016, -1.355e-4
-1.015, -1.355e-4
-1.014, -1.355e-4
-1.013, -1.355e-4
-1.012, -1.355e-4
-1.011, -1.355e-4
-1.010, -1.478e-4
-1.009, -1.571e-4
-1.008, -1.355e-4
-1.007, -1.324e-4
-1.006, -1.324e-4
-1.005, -1.324e-4
-1.004, -1.324e-4
-1.003, -1.324e-4
-1.002, -1.355e-4
-1.001, -1.509e-4
