Potential V vs RHE, Current mA cm-2
0.013299999999999867,25.86092256153287
0.012299999999999978,23.767149837732617
0.011299999999999866,21.758259791924264
0.010299999999999976,19.848399537106463
0.009299999999999864,18.009274847281915
0.008299999999999974,16.269179948447924
0.007299999999999862,14.57152638860988
0.006299999999999972,12.821528510676828
0.00529999999999986,11.033333427647422
0.0042999999999999705,9.157426244026382
0.0032999999999998586,7.32537511070116
0.0022999999999999687,5.581036077967569
0.0012999999999998568,3.922994434525747
0.00029999999999996696,2.30880884137974
-0.000700000000000145,0.7829012333453113
-0.0017000000000000348,-0.8308599464107361
-0.0027000000000001467,-2.4446211261667834
-0.0037000000000000366,-4.146518819904423
-0.0047000000000001485,-5.847001802342197
-0.005700000000000038,-7.50504344578402
-0.00670000000000015,-9.073958277334345
-0.00770000000000004,-10.557990430892769
-0.008700000000000152,-12.040607873151327
-0.009700000000000042,-13.523225315409885
-0.010700000000000154,-15.01008689156804
-0.011700000000000044,-16.580416434418233
-0.012700000000000156,-18.15074597726842
-0.013700000000000045,-19.721075520118614
-0.014700000000000157,-21.248963723972853
-0.015700000000000047,-22.63538079784059
-0.01670000000000016,-24.035944984706973
-0.01770000000000005,-25.39406783257741
-0.01870000000000016,-26.738043567449193
-0.01970000000000005,-28.22349043230748
-0.020700000000000163,-29.708937297165768
-0.021700000000000053,-31.23682550102001
-0.022700000000000164,-32.66568391388369
-0.023700000000000054,-34.06624810075008
-0.024700000000000166,-35.38192960962457
-0.025700000000000056,-36.5985813275085
-0.026700000000000168,-37.90011572338433
-0.027700000000000058,-39.258238571254765
-0.02870000000000017,-40.616361419125205
-0.02970000000000006,-42.04521983198889
-0.03070000000000017,-43.40334267985933
-0.03170000000000006,-44.704877075735155
-0.03270000000000017,-45.97811724561369
-0.03370000000000006,-47.15232762450167
-0.034700000000000175,-48.36897934238561
-0.035700000000000065,-49.68466085126009
-0.03670000000000018,-50.98619524713592
-0.03770000000000007,-52.34431809500636
-0.03870000000000018,-53.68829382987814
-0.03970000000000007,-55.003975338752625
-0.04070000000000018,-56.1781857176406
-0.04170000000000007,-57.352396096528594
-0.04270000000000018,-58.45587091042332
-0.04370000000000007,-59.6300812893113
-0.044700000000000184,-60.84673300719523
-0.045700000000000074,-62.16241451606972
-0.046700000000000186,-63.46394891194555
-0.047700000000000076,-64.68060062982947
-0.04870000000000019,-65.86895812171612
-0.04970000000000008,-67.00072716160814
-0.05070000000000019,-68.0900548625042
-0.05170000000000008,-69.22182390239624
-0.05270000000000019,-70.39603428128423
-0.05370000000000008,-71.58439177317086
-0.05470000000000019,-72.84348483005074
-0.05570000000000008,-74.06013654793468
-0.056700000000000195,-75.19190558782671
-0.057700000000000085,-76.29538040172143
-0.058700000000000196,-77.28567831162695
-0.059700000000000086,-78.38915312552167
-0.0607000000000002,-79.47848082641775
-0.06170000000000009,-80.65269120530574
-0.0627000000000002,-81.86934292318966
-0.06370000000000009,-83.08599464107361
-0.0647000000000002,-84.23191079396429
-0.06570000000000009,-85.27879715586442
-0.0667000000000002,-86.32568351776455
-0.0677000000000001,-87.27354008867411
-0.0687000000000002,-88.32042645057423
-0.0697000000000001,-89.50878394246087
-0.07070000000000021,-90.6405529823529
-0.0717000000000001,-91.85720470023682
-0.07270000000000021,-92.94653240113291
-0.0737000000000001,-93.99341876303303
-0.07470000000000021,-94.99786378593721
-0.0757000000000001,-95.95986746984543
-0.07670000000000021,-96.96431249274961
-0.0777000000000001,-98.01119885464975
-0.07870000000000021,-99.10052655554581
-0.0797000000000001,-100.23229559543785
-0.08070000000000022,-101.3640646353299
-0.0817000000000001,-102.41095099723
-0.08270000000000022,-103.37295468113824
-0.08370000000000011,-104.2925170260505
-0.08470000000000022,-105.25452070995874
-0.08570000000000011,-106.2589657328629
-0.08670000000000022,-107.30585209476303
-0.08770000000000011,-108.43762113465506
-0.08870000000000022,-109.52694883555114
-0.08970000000000011,-110.6162765364472
-0.09070000000000022,-111.57828022035544
-0.09170000000000011,-112.48369545226906
-0.09270000000000023,-113.40325779718134
-0.09370000000000012,-114.3228201420936
-0.09470000000000023,-115.36970650399375
-0.09570000000000012,-116.37415152689792
-0.09670000000000023,-117.46347922779398
-0.09770000000000012,-118.55280692869007
-0.09870000000000023,-119.47236927360234
-0.09970000000000012,-120.33534316652002
-0.10070000000000023,-121.21246417243634
-0.10170000000000012,-122.1320265173486
-0.10270000000000024,-123.09403020125686
-0.10370000000000013,-124.14091656315696
-0.10470000000000024,-125.23024426405304
-0.10570000000000013,-126.23468928695722
-0.10670000000000024,-127.14010451887084
-0.10770000000000013,-128.01722552478716
-0.10870000000000024,-128.8094638527116
-0.10970000000000013,-129.6299964066333
-0.11070000000000024,-130.5495587515456
-0.11170000000000013,-131.5115624354538
-0.11270000000000002,-132.55844879735392
-0.11370000000000013,-133.60533515925405
-0.11470000000000002,-134.6097801821582
-0.11570000000000014,-135.51519541407185
-0.11670000000000003,-136.43475775898415
-0.11770000000000014,-137.31187876490046
-0.11870000000000003,-138.17485265781812
-0.11970000000000014,-139.1792976807223
-0.12070000000000003,-140.18374270362645
-0.12170000000000014,-141.2306290655266
-0.12270000000000003,-142.31995676642268
-0.12370000000000014,-143.16878354634173
-0.12470000000000003,-144.01761032626072
-0.12570000000000014,-144.86643710617977
-0.12670000000000003,-145.85673501608528
-0.12770000000000015,-146.7055617960043
-0.12870000000000004,-147.6958597059098
-0.12970000000000015,-148.68615761581535
-0.13070000000000004,-149.6764555257209
-0.13170000000000015,-150.66675343562642
-0.13270000000000004,-151.37410908555893
-0.13370000000000015,-152.22293586547795
-0.13470000000000004,-153.07176264539694
-0.13570000000000015,-154.0620605553025
-0.13670000000000004,-155.05235846520802
-0.13770000000000016,-156.04265637511355
-0.13870000000000005,-157.03295428501906
-0.13970000000000016,-158.02325219492457
-0.14070000000000005,-159.01355010483013
-0.14170000000000016,-159.72090575476264
-0.14270000000000005,-160.5697325346817
-0.14370000000000016,-161.41855931460069
-0.14470000000000005,-162.40885722450622
-0.14570000000000016,-163.25768400442522
-0.14670000000000005,-164.24798191433075
-0.14770000000000016,-165.2382798242363
-0.14870000000000005,-166.0871066041553
-0.14970000000000017,-166.79446225408785
-0.15070000000000006,-167.50181790402033
-0.15170000000000017,-168.35064468393938
-0.15270000000000006,-169.3409425938449
-0.15370000000000017,-170.33124050375042
-0.15470000000000006,-171.18006728366944
-0.15570000000000017,-172.31183632356147
-0.15670000000000006,-173.16066310348046
-0.15770000000000017,-174.0094898833995
-0.15870000000000006,-174.85831666331853
-0.15970000000000018,-175.70714344323756
-0.16070000000000007,-176.4144990931701
-0.16170000000000018,-177.4047970030756
-0.16270000000000007,-178.25362378299462
-0.16370000000000018,-179.24392169290016
-0.16470000000000007,-180.23421960280567
-0.16570000000000018,-181.08304638272472
-0.16670000000000007,-181.79040203265723
-0.16770000000000018,-182.63922881257625
-0.16870000000000007,-183.48805559249527
-0.16970000000000018,-184.47835350240078
-0.17070000000000007,-185.46865141230631
-0.17170000000000019,-186.45894932221185
-0.17270000000000008,-187.44924723211736
-0.1737000000000002,-188.15660288204987
-0.17470000000000008,-189.0054296619689
-0.1757000000000002,-189.8542564418879
-0.17670000000000008,-190.70308322180696
-0.1777000000000002,-191.551910001726
-0.17870000000000008,-192.54220791163152
-0.1797000000000002,-193.6739769515235
-0.18070000000000008,-194.66427486142905
-0.1817000000000002,-195.51310164134807
-0.18270000000000008,-196.3619284212671
-0.1837000000000002,-197.21075520118612
-0.1847000000000001,-197.91811085111863
-0.1857000000000002,-198.76693763103765
-0.1867000000000001,-199.75723554094319
-0.1877000000000002,-200.7475334508487
-0.1887000000000001,-201.59636023076774
-0.1897000000000002,-202.58665814067325
-0.1907000000000001,-203.29401379060576
-0.1917000000000001,-204.14284057052478
-0.19269999999999998,-204.8501962204573
-0.1937000000000001,-205.55755187038983
-0.19469999999999998,-206.54784978029537
-0.1957000000000001,-207.3966765602144
-0.19669999999999999,-208.3869744701199
-0.1977000000000001,-209.23580125003892
-0.1987,-210.08462802995794
-0.1997000000000001,-210.79198367989048
-0.2007,-211.64081045980947
-0.2017000000000001,-212.34816610974204
-0.2027,-213.33846401964755
-0.2037000000000001,-214.18729079956654
-0.2047,-215.31905983945856
-0.2057000000000001,-216.1678866193776
-0.2067,-217.15818452928315
-0.2077000000000001,-217.86554017921566
-0.2087,-218.71436695913465
-0.2097000000000001,-219.5631937390537
-0.2107,-220.41202051897272
-0.2117000000000001,-221.26084729889175
-0.2127,-222.25114520879725
-0.2137000000000001,-223.09997198871628
-0.2147,-224.09026989862178
-0.2157000000000001,-224.93909667854084
-0.2167,-225.78792345845983
-0.21770000000000012,-226.49527910839237
-0.2187,-227.34410588831142
-0.21970000000000012,-228.1929326682304
-0.2207,-229.18323057813595
-0.22170000000000012,-230.17352848804146
-0.2227,-231.0223552679605
-0.22370000000000012,-231.8711820478795
-0.2247,-232.72000882779852
-0.22570000000000012,-233.28589334774458
-0.2267,-234.13472012766357
-0.22770000000000012,-234.9835469075826
-0.22870000000000001,-235.97384481748813
-0.22970000000000013,-236.82267159740715
-0.23070000000000002,-237.81296950731266
-0.23170000000000013,-238.66179628723168
-0.23270000000000002,-239.5106230671507
-0.23370000000000013,-240.21797871708318
-0.23470000000000002,-240.92533436701575
-0.23570000000000013,-241.77416114693477
-0.23670000000000002,-242.76445905684034
-0.2376999999999999,-243.6132858367593
-0.23870000000000002,-244.60358374666484
-0.2396999999999999,-245.45241052658386
-0.24070000000000003,-246.15976617651637
-0.24169999999999991,-247.0085929564354
-0.24270000000000003,-247.85741973635444
-0.24369999999999992,-248.56477538628693
-0.24470000000000003,-249.5550732961925
-0.24569999999999992,-250.4039000761115
-0.24670000000000003,-251.39419798601702
-0.24769999999999992,-252.243024765936
-0.24870000000000003,-253.09185154585506
-0.24969999999999992,-253.79920719578757
-0.25070000000000003,-254.64803397570657
-0.2516999999999999,-255.35538962563913
-0.25270000000000004,-256.20421640555816
-0.2536999999999999,-257.0530431854772
-0.25470000000000004,-258.0433410953827
-0.2556999999999999,-258.8921678753017
-0.25670000000000004,-259.7409946552208
-0.25769999999999993,-260.58982143513975
-0.25870000000000004,-261.1557059550858
-0.25969999999999993,-262.0045327350048
-0.26070000000000004,-262.7118883849373
-0.26169999999999993,-263.56071516485633
-0.26270000000000004,-264.55101307476184
-0.26369999999999993,-265.39983985468086
-0.26470000000000005,-266.2486666345999
-0.26569999999999994,-267.09749341451896
-0.26670000000000005,-267.94632019443793
-0.26769999999999994,-268.65367584437047
-0.26870000000000005,-269.5025026242895
-0.26969999999999994,-270.49280053419506
-0.27070000000000005,-271.341627314114
-0.27169999999999994,-272.1904540940331
-0.27270000000000005,-273.1807520039386
-0.27369999999999994,-274.0295787838576
-0.27470000000000006,-274.7369344337901
-0.27569999999999995,-275.44429008372265
-0.27670000000000006,-276.29311686364167
-0.27769999999999995,-277.0004725135742
-0.27870000000000006,-277.84929929349323
-0.27969999999999995,-278.6981260734122
-0.28070000000000006,-279.6884239833177
-0.28169999999999995,-280.3957796332503
-0.28270000000000006,-281.1031352831828
-0.28369999999999995,-281.8104909331153
-0.28470000000000006,-282.51784658304786
-0.28569999999999995,-283.3666733629668
-0.28670000000000007,-284.2155001428859
-0.28769999999999996,-285.2057980527914
-0.28870000000000007,-286.196095962697
-0.28969999999999996,-287.04492274261594
-0.29070000000000007,-287.893749522535
-0.29169999999999996,-288.6011051724675
-0.29270000000000007,-289.3084608224
-0.29369999999999996,-290.157287602319
-0.2947000000000001,-291.0061143822381
-0.29569999999999996,-291.85494116215705
-0.2967000000000001,-292.8452390720626
-0.29769999999999996,-293.6940658519816
-0.2987000000000001,-294.4014215019141
-0.29969999999999997,-295.25024828183314
-0.3007000000000001,-295.8161328017792
-0.30169999999999997,-296.6649595816982
-0.3027000000000001,-297.3723152316307
-0.30369999999999997,-298.3626131415362
-0.3047000000000001,-299.2114399214552
-0.30569999999999997,-300.06026670137425
-0.3067000000000001,-300.76762235130684
-0.3077,-301.47497800123926
-0.3087000000000001,-302.18233365117186
-0.3097,-302.88968930110434
-0.3107000000000001,-303.73851608102336
-0.3117,-304.5873428609424
-0.3127000000000001,-305.57764077084795
-0.3137,-306.56793868075346
-0.3147000000000001,-307.4167654606725
-0.3157,-308.124121110605
-0.3167000000000001,-308.972947890524
-0.3177,-309.6803035404565
-0.3187000000000001,-310.38765919038906
-0.3197,-311.2364859703081
-0.3207000000000001,-312.0853127502271
-0.3217,-312.9341395301461
-0.3227000000000001,-313.78296631006515
-0.3237,-314.49032195999763
-0.3247000000000001,-315.19767760993017
-0.3257,-315.9050332598627
-0.3267000000000001,-316.7538600397817
-0.3277,-317.60268681970075
-0.3287000000000001,-318.4515135996198
-0.3297,-319.4418115095253
-0.3307000000000001,-320.2906382894443
-0.3317,-321.1394650693634
-0.3327000000000001,-321.8468207192958
-0.3337,-322.5541763692284
-0.3347000000000001,-323.40300314914737
-0.3357,-324.1103587990799
-0.3367000000000001,-325.1006567089854
-0.3377,-326.090954618891
-0.3387000000000001,-326.93978139880994
-0.3397,-327.9300793087155
-0.3407000000000001,-328.63743495864804
-0.3417,-329.48626173856707
-0.3427000000000001,-330.05214625851306
-0.3437,-330.7595019084456
-0.3447000000000001,-331.6083286883646
-0.3457,-332.45715546828364
-0.3467000000000001,-333.30598224820267
-0.3477,-334.01333789813515
-0.3487000000000001,-334.7206935480677
-0.3497,-335.42804919800017
-0.3507000000000001,-335.9939337179462
-0.3517,-336.70128936787876
-0.3527000000000001,-337.5501161477977
-0.3537,-338.39894292771675
-0.3547000000000001,-339.2477697076358
-0.3557,-340.0965964875548
-0.35670000000000013,-340.94542326747387
-0.3577,-341.7942500473929
-0.35870000000000013,-342.3601345673389
-0.3597,-343.06749021727137
-0.36070000000000013,-344.057788127177
-0.3617,-344.90661490709596
-0.3626999999999999,-345.7554416870149
-0.3637,-346.604268466934
-0.3646999999999999,-347.45309524685297
-0.3657,-348.301922026772
-0.3666999999999999,-349.0092776767046
-0.3677,-349.71663332663707
-0.3686999999999999,-350.5654601065561
-0.36970000000000003,-351.4142868864751
-0.3706999999999999,-352.26311366639413
-0.37170000000000003,-353.11194044631316
-0.3726999999999999,-353.96076722623224
-0.37370000000000003,-354.8095940061512
-0.3746999999999999,-355.51694965608374
-0.37570000000000003,-356.36577643600276
-0.3766999999999999,-357.07313208593524
-0.37770000000000004,-357.7804877358678
-0.3786999999999999,-358.62931451578686
-0.37970000000000004,-359.61961242569237
-0.3806999999999999,-360.46843920561133
-0.38170000000000004,-361.31726598553036
-0.38269999999999993,-362.0246216354629
-0.38370000000000004,-362.73197728539543
-0.38469999999999993,-363.4393329353279
-0.38570000000000004,-364.28815971524693
-0.38669999999999993,-363.58080406531445
-0.38570000000000004,-360.6099103355978
-0.38469999999999993,-357.63901660588124
-0.38370000000000004,-354.5266517461782
-0.38269999999999993,-351.5557580164616
-0.38170000000000004,-348.44339315675853
-0.3806999999999999,-345.47249942704195
-0.37970000000000004,-342.64307682731186
-0.3786999999999999,-339.8136542275818
-0.37770000000000004,-337.12570275783827
-0.3766999999999999,-334.43775128809466
-0.37570000000000003,-331.74979981835105
-0.3746999999999999,-328.92037721862107
-0.37370000000000003,-326.090954618891
-0.3726999999999999,-323.2615320191609
-0.37170000000000003,-320.4321094194308
-0.3706999999999999,-317.8856290796738
-0.36970000000000003,-315.19767760993017
-0.3686999999999999,-312.50972614018656
-0.3677,-309.9632458004295
-0.3666999999999999,-307.27529433068594
-0.3657,-304.5873428609424
-0.3646999999999999,-301.7579202612123
-0.3637,-299.06996879146874
-0.3626999999999999,-296.3820173217252
-0.3617,-293.8355369819681
-0.36070000000000013,-291.4305277721976
-0.3597,-288.8840474324405
-0.35870000000000013,-286.33756709268346
-0.3577,-283.64961562293985
-0.35670000000000013,-281.1031352831828
-0.3557,-278.4151838134392
-0.3547000000000001,-275.86870347368216
-0.3537,-273.4636942639116
-0.3527000000000001,-271.05868505414105
-0.3517,-268.79514697435695
-0.3507000000000001,-266.3901377645864
-0.3497,-263.98512855481584
-0.3487000000000001,-261.58011934504526
-0.3477,-258.8921678753017
-0.3467000000000001,-256.4871586655312
-0.3457,-254.08214945576057
-0.3447000000000001,-251.67714024599002
-0.3437,-249.41360216620598
-0.3427000000000001,-247.0085929564354
-0.3417,-244.60358374666484
-0.3407000000000001,-242.19857453689428
-0.3397,-239.7935653271237
-0.3387000000000001,-237.38855611735315
-0.3377,-234.9835469075826
-0.3367000000000001,-232.57853769781204
-0.3357,-230.31499961802797
-0.3347000000000001,-228.0514615382439
-0.3337,-225.78792345845983
-0.3327000000000001,-223.38291424868927
-0.3317,-220.97790503891872
-0.3307000000000001,-218.57289582914817
-0.3297,-216.1678866193776
-0.3287000000000001,-214.04581966958003
-0.3277,-211.782281589796
-0.3267000000000001,-209.66021463999843
-0.3257,-207.5381476902009
-0.3247000000000001,-205.27460961041683
-0.3237,-202.86960040064628
-0.3227000000000001,-200.6060623208622
-0.3217,-198.3425242410781
-0.3207000000000001,-196.0789861612941
-0.3197,-194.09839034148303
-0.3187000000000001,-192.11779452167198
-0.3177,-189.8542564418879
-0.3167000000000001,-187.73218949209036
-0.3157,-185.6101225422928
-0.3147000000000001,-183.34658446250873
-0.3137,-181.08304638272472
-0.3127000000000001,-178.81950830294062
-0.3117,-176.8389124831296
-0.3107000000000001,-174.85831666331853
-0.3097,-172.87772084350746
-0.3087000000000001,-170.75565389370993
-0.3077,-168.63358694391238
-0.3067000000000001,-166.51151999411482
-0.30569999999999997,-164.24798191433075
-0.3047000000000001,-162.12591496453322
-0.30369999999999997,-160.14531914472215
-0.3027000000000001,-158.02325219492457
-0.30169999999999997,-156.04265637511355
-0.3007000000000001,-154.0620605553025
-0.29969999999999997,-151.93999360550492
-0.2987000000000001,-149.95939778569388
-0.29769999999999996,-147.83733083589632
-0.2967000000000001,-145.7152638860988
-0.29569999999999996,-143.73466806628772
-0.2947000000000001,-141.75407224647665
-0.29369999999999996,-139.8866533306548
-0.29270000000000007,-137.92020462384244
-0.29169999999999996,-135.91131457803408
-0.29070000000000007,-133.8599831932298
-0.28969999999999996,-131.76621046942952
-0.28870000000000007,-129.7148790846252
-0.28769999999999996,-127.76257749081147
-0.28670000000000007,-125.83857012299501
-0.28569999999999995,-123.95700409417452
-0.28470000000000006,-122.08958517835266
-0.28369999999999995,-120.25046048852812
-0.28270000000000006,-118.24157044271978
-0.28169999999999995,-116.24682750991008
-0.28070000000000006,-114.23793746410173
-0.27969999999999995,-112.27148875728932
-0.27870000000000006,-110.4465111804634
-0.27769999999999995,-108.60738649063886
-0.27670000000000006,-106.82485025280893
-0.27569999999999995,-104.98572556298437
-0.27470000000000006,-103.11830664716253
-0.27369999999999994,-101.19429927934607
-0.27270000000000005,-99.18540923353773
-0.27169999999999994,-97.31799031771587
-0.27070000000000005,-95.43642428889537
-0.26969999999999994,-93.65388805106544
-0.26870000000000005,-91.94208737822873
-0.26769999999999994,-90.15955114039879
