July 16, 2024   17:41:53
Linear Sweep Voltammetry
File: c:/users/guazh/data/20240709_batch67/2024-07-10-exp63\regeneratedgce-2024-07-16t17_37_20-lsvinkoh\regeneratedgce_lsv_50mvs_efin_-1900mv.bin
Data Source:  Experiment
Instrument Model:  CHI760E
Header: LSV ran at 50 mVs with Efin at -1900mV
Note: 

Init E (V) = -0.6
Final E (V) = -1.9
Scan Rate (V/s) = 0.05
Sample Interval (V) = 0.001
Quiet Time (sec) = 2
Sensitivity (A/V) = 1e-4
Comp R (ohm) = 1.6

Results:

Channel 1:

Potential/V, Current/A

-0.600, -1.851e-7
-0.601, -4.511e-8
-0.602, 8.366e-9
-0.603, 3.846e-8
-0.604, 5.701e-8
-0.605, 7.220e-8
-0.606, 8.848e-8
-0.607, 1.059e-7
-0.608, 1.203e-7
-0.609, 1.322e-7
-0.610, 1.406e-7
-0.611, 1.514e-7
-0.612, 1.640e-7
-0.613, 1.744e-7
-0.614, 1.833e-7
-0.615, 1.911e-7
-0.616, 1.980e-7
-0.617, 2.100e-7
-0.618, 2.183e-7
-0.619, 2.245e-7
-0.620, 2.286e-7
-0.621, 2.357e-7
-0.622, 2.457e-7
-0.623, 2.529e-7
-0.624, 2.575e-7
-0.625, 2.627e-7
-0.626, 2.671e-7
-0.627, 2.772e-7
-0.628, 2.839e-7
-0.629, 2.878e-7
-0.630, 2.918e-7
-0.631, 2.954e-7
-0.632, 3.038e-7
-0.633, 3.119e-7
-0.634, 3.129e-7
-0.635, 3.157e-7
-0.636, 3.208e-7
-0.637, 3.274e-7
-0.638, 3.343e-7
-0.639, 3.363e-7
-0.640, 3.408e-7
-0.641, 3.441e-7
-0.642, 3.489e-7
-0.643, 3.549e-7
-0.644, 3.577e-7
-0.645, 3.587e-7
-0.646, 3.630e-7
-0.647, 3.700e-7
-0.648, 3.740e-7
-0.649, 3.776e-7
-0.650, 3.780e-7
-0.651, 3.810e-7
-0.652, 3.881e-7
-0.653, 3.931e-7
-0.654, 3.948e-7
-0.655, 3.959e-7
-0.656, 3.993e-7
-0.657, 4.058e-7
-0.658, 4.104e-7
-0.659, 4.109e-7
-0.660, 4.129e-7
-0.661, 4.152e-7
-0.662, 4.225e-7
-0.663, 4.262e-7
-0.664, 4.273e-7
-0.665, 4.295e-7
-0.666, 4.325e-7
-0.667, 4.380e-7
-0.668, 4.444e-7
-0.669, 4.461e-7
-0.670, 4.485e-7
-0.671, 4.499e-7
-0.672, 4.554e-7
-0.673, 4.590e-7
-0.674, 4.573e-7
-0.675, 4.594e-7
-0.676, 4.606e-7
-0.677, 4.651e-7
-0.678, 4.719e-7
-0.679, 4.733e-7
-0.680, 4.736e-7
-0.681, 4.747e-7
-0.682, 4.794e-7
-0.683, 4.833e-7
-0.684, 4.840e-7
-0.685, 4.834e-7
-0.686, 4.865e-7
-0.687, 4.908e-7
-0.688, 4.955e-7
-0.689, 4.968e-7
-0.690, 4.970e-7
-0.691, 4.997e-7
-0.692, 5.031e-7
-0.693, 5.064e-7
-0.694, 5.088e-7
-0.695, 5.090e-7
-0.696, 5.099e-7
-0.697, 5.149e-7
-0.698, 5.202e-7
-0.699, 5.202e-7
-0.700, 5.203e-7
-0.701, 5.215e-7
-0.702, 5.263e-7
-0.703, 5.300e-7
-0.704, 5.311e-7
-0.705, 5.328e-7
-0.706, 5.321e-7
-0.707, 5.377e-7
-0.708, 5.416e-7
-0.709, 5.416e-7
-0.710, 5.429e-7
-0.711, 5.447e-7
-0.712, 5.482e-7
-0.713, 5.536e-7
-0.714, 5.527e-7
-0.715, 5.524e-7
-0.716, 5.544e-7
-0.717, 5.592e-7
-0.718, 5.668e-7
-0.719, 5.665e-7
-0.720, 5.665e-7
-0.721, 5.656e-7
-0.722, 5.691e-7
-0.723, 5.725e-7
-0.724, 5.736e-7
-0.725, 5.735e-7
-0.726, 5.751e-7
-0.727, 5.791e-7
-0.728, 5.843e-7
-0.729, 5.860e-7
-0.730, 5.845e-7
-0.731, 5.859e-7
-0.732, 5.896e-7
-0.733, 5.925e-7
-0.734, 5.939e-7
-0.735, 5.931e-7
-0.736, 5.942e-7
-0.737, 5.994e-7
-0.738, 6.033e-7
-0.739, 6.041e-7
-0.740, 6.028e-7
-0.741, 6.043e-7
-0.742, 6.084e-7
-0.743, 6.128e-7
-0.744, 6.130e-7
-0.745, 6.132e-7
-0.746, 6.144e-7
-0.747, 6.177e-7
-0.748, 6.234e-7
-0.749, 6.233e-7
-0.750, 6.244e-7
-0.751, 6.229e-7
-0.752, 6.280e-7
-0.753, 6.333e-7
-0.754, 6.339e-7
-0.755, 6.349e-7
-0.756, 6.357e-7
-0.757, 6.386e-7
-0.758, 6.420e-7
-0.759, 6.426e-7
-0.760, 6.429e-7
-0.761, 6.453e-7
-0.762, 6.492e-7
-0.763, 6.560e-7
-0.764, 6.555e-7
-0.765, 6.549e-7
-0.766, 6.572e-7
-0.767, 6.604e-7
-0.768, 6.649e-7
-0.769, 6.662e-7
-0.770, 6.649e-7
-0.771, 6.657e-7
-0.772, 6.699e-7
-0.773, 6.748e-7
-0.774, 6.753e-7
-0.775, 6.765e-7
-0.776, 6.754e-7
-0.777, 6.805e-7
-0.778, 6.851e-7
-0.779, 6.861e-7
-0.780, 6.861e-7
-0.781, 6.850e-7
-0.782, 6.892e-7
-0.783, 6.929e-7
-0.784, 6.933e-7
-0.785, 6.943e-7
-0.786, 6.943e-7
-0.787, 6.995e-7
-0.788, 7.029e-7
-0.789, 7.013e-7
-0.790, 7.027e-7
-0.791, 7.036e-7
-0.792, 7.081e-7
-0.793, 7.123e-7
-0.794, 7.133e-7
-0.795, 7.138e-7
-0.796, 7.131e-7
-0.797, 7.161e-7
-0.798, 7.216e-7
-0.799, 7.219e-7
-0.800, 7.217e-7
-0.801, 7.222e-7
-0.802, 7.252e-7
-0.803, 7.315e-7
-0.804, 7.326e-7
-0.805, 7.317e-7
-0.806, 7.317e-7
-0.807, 7.358e-7
-0.808, 7.423e-7
-0.809, 7.425e-7
-0.810, 7.411e-7
-0.811, 7.426e-7
-0.812, 7.458e-7
-0.813, 7.506e-7
-0.814, 7.515e-7
-0.815, 7.522e-7
-0.816, 7.526e-7
-0.817, 7.564e-7
-0.818, 7.602e-7
-0.819, 7.649e-7
-0.820, 7.665e-7
-0.821, 7.633e-7
-0.822, 7.688e-7
-0.823, 7.759e-7
-0.824, 7.795e-7
-0.825, 7.807e-7
-0.826, 7.822e-7
-0.827, 7.841e-7
-0.828, 7.875e-7
-0.829, 7.862e-7
-0.830, 7.855e-7
-0.831, 7.866e-7
-0.832, 7.896e-7
-0.833, 7.959e-7
-0.834, 7.973e-7
-0.835, 7.980e-7
-0.836, 7.997e-7
-0.837, 8.024e-7
-0.838, 8.079e-7
-0.839, 8.076e-7
-0.840, 8.072e-7
-0.841, 8.064e-7
-0.842, 8.119e-7
-0.843, 8.164e-7
-0.844, 8.175e-7
-0.845, 8.187e-7
-0.846, 8.184e-7
-0.847, 8.212e-7
-0.848, 8.277e-7
-0.849, 8.278e-7
-0.850, 8.273e-7
-0.851, 8.268e-7
-0.852, 8.324e-7
-0.853, 8.359e-7
-0.854, 8.391e-7
-0.855, 8.376e-7
-0.856, 8.379e-7
-0.857, 8.431e-7
-0.858, 8.481e-7
-0.859, 8.491e-7
-0.860, 8.495e-7
-0.861, 8.506e-7
-0.862, 8.556e-7
-0.863, 8.614e-7
-0.864, 8.656e-7
-0.865, 8.653e-7
-0.866, 8.639e-7
-0.867, 8.694e-7
-0.868, 8.720e-7
-0.869, 8.714e-7
-0.870, 8.748e-7
-0.871, 8.758e-7
-0.872, 8.785e-7
-0.873, 8.854e-7
-0.874, 8.856e-7
-0.875, 8.859e-7
-0.876, 8.862e-7
-0.877, 8.889e-7
-0.878, 8.943e-7
-0.879, 8.953e-7
-0.880, 8.961e-7
-0.881, 8.970e-7
-0.882, 9.011e-7
-0.883, 9.070e-7
-0.884, 9.084e-7
-0.885, 9.078e-7
-0.886, 9.096e-7
-0.887, 9.129e-7
-0.888, 9.174e-7
-0.889, 9.194e-7
-0.890, 9.202e-7
-0.891, 9.207e-7
-0.892, 9.247e-7
-0.893, 9.304e-7
-0.894, 9.329e-7
-0.895, 9.319e-7
-0.896, 9.340e-7
-0.897, 9.376e-7
-0.898, 9.423e-7
-0.899, 9.444e-7
-0.900, 9.454e-7
-0.901, 9.458e-7
-0.902, 9.497e-7
-0.903, 9.547e-7
-0.904, 9.558e-7
-0.905, 9.570e-7
-0.906, 9.583e-7
-0.907, 9.620e-7
-0.908, 9.668e-7
-0.909, 9.695e-7
-0.910, 9.702e-7
-0.911, 9.699e-7
-0.912, 9.738e-7
-0.913, 9.803e-7
-0.914, 9.807e-7
-0.915, 9.808e-7
-0.916, 9.829e-7
-0.917, 9.864e-7
-0.918, 9.926e-7
-0.919, 9.933e-7
-0.920, 9.940e-7
-0.921, 9.950e-7
-0.922, 9.987e-7
-0.923, 1.004e-6
-0.924, 1.008e-6
-0.925, 1.007e-6
-0.926, 1.008e-6
-0.927, 1.012e-6
-0.928, 1.018e-6
-0.929, 1.020e-6
-0.930, 1.021e-6
-0.931, 1.023e-6
-0.932, 1.026e-6
-0.933, 1.031e-6
-0.934, 1.037e-6
-0.935, 1.042e-6
-0.936, 1.045e-6
-0.937, 1.050e-6
-0.938, 1.055e-6
-0.939, 1.055e-6
-0.940, 1.054e-6
-0.941, 1.054e-6
-0.942, 1.056e-6
-0.943, 1.062e-6
-0.944, 1.065e-6
-0.945, 1.066e-6
-0.946, 1.068e-6
-0.947, 1.073e-6
-0.948, 1.079e-6
-0.949, 1.081e-6
-0.950, 1.080e-6
-0.951, 1.080e-6
-0.952, 1.084e-6
-0.953, 1.091e-6
-0.954, 1.093e-6
-0.955, 1.094e-6
-0.956, 1.096e-6
-0.957, 1.100e-6
-0.958, 1.105e-6
-0.959, 1.107e-6
-0.960, 1.109e-6
-0.961, 1.111e-6
-0.962, 1.113e-6
-0.963, 1.119e-6
-0.964, 1.123e-6
-0.965, 1.123e-6
-0.966, 1.126e-6
-0.967, 1.128e-6
-0.968, 1.134e-6
-0.969, 1.138e-6
-0.970, 1.138e-6
-0.971, 1.140e-6
-0.972, 1.144e-6
-0.973, 1.153e-6
-0.974, 1.156e-6
-0.975, 1.154e-6
-0.976, 1.156e-6
-0.977, 1.163e-6
-0.978, 1.168e-6
-0.979, 1.171e-6
-0.980, 1.173e-6
-0.981, 1.173e-6
-0.982, 1.178e-6
-0.983, 1.183e-6
-0.984, 1.187e-6
-0.985, 1.190e-6
-0.986, 1.191e-6
-0.987, 1.195e-6
-0.988, 1.202e-6
-0.989, 1.206e-6
-0.990, 1.209e-6
-0.991, 1.212e-6
-0.992, 1.217e-6
-0.993, 1.224e-6
-0.994, 1.226e-6
-0.995, 1.228e-6
-0.996, 1.227e-6
-0.997, 1.230e-6
-0.998, 1.237e-6
-0.999, 1.241e-6
-1.000, 1.242e-6
-1.001, 1.246e-6
-1.002, 1.248e-6
-1.003, 1.255e-6
-1.004, 1.260e-6
-1.005, 1.260e-6
-1.006, 1.262e-6
-1.007, 1.264e-6
-1.008, 1.270e-6
-1.009, 1.275e-6
-1.010, 1.275e-6
-1.011, 1.279e-6
-1.012, 1.285e-6
-1.013, 1.291e-6
-1.014, 1.295e-6
-1.015, 1.295e-6
-1.016, 1.296e-6
-1.017, 1.301e-6
-1.018, 1.307e-6
-1.019, 1.312e-6
-1.020, 1.313e-6
-1.021, 1.314e-6
-1.022, 1.319e-6
-1.023, 1.325e-6
-1.024, 1.331e-6
-1.025, 1.334e-6
-1.026, 1.333e-6
-1.027, 1.338e-6
-1.028, 1.345e-6
-1.029, 1.348e-6
-1.030, 1.351e-6
-1.031, 1.352e-6
-1.032, 1.354e-6
-1.033, 1.363e-6
-1.034, 1.366e-6
-1.035, 1.368e-6
-1.036, 1.369e-6
-1.037, 1.373e-6
-1.038, 1.381e-6
-1.039, 1.386e-6
-1.040, 1.386e-6
-1.041, 1.389e-6
-1.042, 1.391e-6
-1.043, 1.398e-6
-1.044, 1.403e-6
-1.045, 1.404e-6
-1.046, 1.408e-6
-1.047, 1.409e-6
-1.048, 1.417e-6
-1.049, 1.422e-6
-1.050, 1.421e-6
-1.051, 1.424e-6
-1.052, 1.427e-6
-1.053, 1.433e-6
-1.054, 1.439e-6
-1.055, 1.441e-6
-1.056, 1.447e-6
-1.057, 1.454e-6
-1.058, 1.460e-6
-1.059, 1.464e-6
-1.060, 1.463e-6
-1.061, 1.463e-6
-1.062, 1.466e-6
-1.063, 1.470e-6
-1.064, 1.475e-6
-1.065, 1.478e-6
-1.066, 1.479e-6
-1.067, 1.485e-6
-1.068, 1.492e-6
-1.069, 1.495e-6
-1.070, 1.496e-6
-1.071, 1.497e-6
-1.072, 1.499e-6
-1.073, 1.505e-6
-1.074, 1.510e-6
-1.075, 1.513e-6
-1.076, 1.516e-6
-1.077, 1.519e-6
-1.078, 1.526e-6
-1.079, 1.530e-6
-1.080, 1.532e-6
-1.081, 1.533e-6
-1.082, 1.536e-6
-1.083, 1.543e-6
-1.084, 1.547e-6
-1.085, 1.549e-6
-1.086, 1.549e-6
-1.087, 1.553e-6
-1.088, 1.560e-6
-1.089, 1.566e-6
-1.090, 1.567e-6
-1.091, 1.569e-6
-1.092, 1.573e-6
-1.093, 1.580e-6
-1.094, 1.588e-6
-1.095, 1.589e-6
-1.096, 1.589e-6
-1.097, 1.595e-6
-1.098, 1.602e-6
-1.099, 1.607e-6
-1.100, 1.606e-6
-1.101, 1.608e-6
-1.102, 1.612e-6
-1.103, 1.617e-6
-1.104, 1.622e-6
-1.105, 1.623e-6
-1.106, 1.625e-6
-1.107, 1.630e-6
-1.108, 1.637e-6
-1.109, 1.640e-6
-1.110, 1.643e-6
-1.111, 1.643e-6
-1.112, 1.647e-6
-1.113, 1.654e-6
-1.114, 1.658e-6
-1.115, 1.661e-6
-1.116, 1.662e-6
-1.117, 1.665e-6
-1.118, 1.673e-6
-1.119, 1.677e-6
-1.120, 1.679e-6
-1.121, 1.680e-6
-1.122, 1.682e-6
-1.123, 1.691e-6
-1.124, 1.695e-6
-1.125, 1.696e-6
-1.126, 1.701e-6
-1.127, 1.705e-6
-1.128, 1.711e-6
-1.129, 1.717e-6
-1.130, 1.717e-6
-1.131, 1.719e-6
-1.132, 1.724e-6
-1.133, 1.730e-6
-1.134, 1.736e-6
-1.135, 1.738e-6
-1.136, 1.739e-6
-1.137, 1.742e-6
-1.138, 1.748e-6
-1.139, 1.756e-6
-1.140, 1.758e-6
-1.141, 1.757e-6
-1.142, 1.763e-6
-1.143, 1.771e-6
-1.144, 1.775e-6
-1.145, 1.778e-6
-1.146, 1.779e-6
-1.147, 1.782e-6
-1.148, 1.787e-6
-1.149, 1.794e-6
-1.150, 1.798e-6
-1.151, 1.800e-6
-1.152, 1.804e-6
-1.153, 1.812e-6
-1.154, 1.814e-6
-1.155, 1.818e-6
-1.156, 1.821e-6
-1.157, 1.824e-6
-1.158, 1.833e-6
-1.159, 1.838e-6
-1.160, 1.840e-6
-1.161, 1.843e-6
-1.162, 1.846e-6
-1.163, 1.853e-6
-1.164, 1.858e-6
-1.165, 1.861e-6
-1.166, 1.865e-6
-1.167, 1.867e-6
-1.168, 1.875e-6
-1.169, 1.882e-6
-1.170, 1.885e-6
-1.171, 1.889e-6
-1.172, 1.893e-6
-1.173, 1.900e-6
-1.174, 1.910e-6
-1.175, 1.910e-6
-1.176, 1.911e-6
-1.177, 1.915e-6
-1.178, 1.922e-6
-1.179, 1.926e-6
-1.180, 1.927e-6
-1.181, 1.928e-6
-1.182, 1.932e-6
-1.183, 1.940e-6
-1.184, 1.945e-6
-1.185, 1.947e-6
-1.186, 1.949e-6
-1.187, 1.950e-6
-1.188, 1.959e-6
-1.189, 1.964e-6
-1.190, 1.969e-6
-1.191, 1.969e-6
-1.192, 1.971e-6
-1.193, 1.980e-6
-1.194, 1.985e-6
-1.195, 1.989e-6
-1.196, 1.992e-6
-1.197, 1.993e-6
-1.198, 2.001e-6
-1.199, 2.005e-6
-1.200, 2.011e-6
-1.201, 2.013e-6
-1.202, 2.015e-6
-1.203, 2.024e-6
-1.204, 2.030e-6
-1.205, 2.032e-6
-1.206, 2.034e-6
-1.207, 2.039e-6
-1.208, 2.046e-6
-1.209, 2.054e-6
-1.210, 2.056e-6
-1.211, 2.059e-6
-1.212, 2.063e-6
-1.213, 2.072e-6
-1.214, 2.080e-6
-1.215, 2.079e-6
-1.216, 2.081e-6
-1.217, 2.087e-6
-1.218, 2.094e-6
-1.219, 2.101e-6
-1.220, 2.105e-6
-1.221, 2.106e-6
-1.222, 2.112e-6
-1.223, 2.118e-6
-1.224, 2.125e-6
-1.225, 2.127e-6
-1.226, 2.127e-6
-1.227, 2.132e-6
-1.228, 2.139e-6
-1.229, 2.151e-6
-1.230, 2.153e-6
-1.231, 2.154e-6
-1.232, 2.159e-6
-1.233, 2.167e-6
-1.234, 2.170e-6
-1.235, 2.173e-6
-1.236, 2.176e-6
-1.237, 2.180e-6
-1.238, 2.191e-6
-1.239, 2.197e-6
-1.240, 2.199e-6
-1.241, 2.202e-6
-1.242, 2.206e-6
-1.243, 2.214e-6
-1.244, 2.220e-6
-1.245, 2.223e-6
-1.246, 2.225e-6
-1.247, 2.229e-6
-1.248, 2.236e-6
-1.249, 2.243e-6
-1.250, 2.246e-6
-1.251, 2.248e-6
-1.252, 2.251e-6
-1.253, 2.261e-6
-1.254, 2.272e-6
-1.255, 2.275e-6
-1.256, 2.274e-6
-1.257, 2.279e-6
-1.258, 2.286e-6
-1.259, 2.296e-6
-1.260, 2.301e-6
-1.261, 2.304e-6
-1.262, 2.311e-6
-1.263, 2.317e-6
-1.264, 2.322e-6
-1.265, 2.324e-6
-1.266, 2.324e-6
-1.267, 2.327e-6
-1.268, 2.335e-6
-1.269, 2.343e-6
-1.270, 2.346e-6
-1.271, 2.349e-6
-1.272, 2.353e-6
-1.273, 2.360e-6
-1.274, 2.366e-6
-1.275, 2.371e-6
-1.276, 2.371e-6
-1.277, 2.376e-6
-1.278, 2.381e-6
-1.279, 2.391e-6
-1.280, 2.397e-6
-1.281, 2.399e-6
-1.282, 2.399e-6
-1.283, 2.405e-6
-1.284, 2.412e-6
-1.285, 2.413e-6
-1.286, 2.416e-6
-1.287, 2.419e-6
-1.288, 2.424e-6
-1.289, 2.434e-6
-1.290, 2.436e-6
-1.291, 2.440e-6
-1.292, 2.440e-6
-1.293, 2.448e-6
-1.294, 2.453e-6
-1.295, 2.455e-6
-1.296, 2.458e-6
-1.297, 2.459e-6
-1.298, 2.466e-6
-1.299, 2.472e-6
-1.300, 2.474e-6
-1.301, 2.478e-6
-1.302, 2.480e-6
-1.303, 2.484e-6
-1.304, 2.492e-6
-1.305, 2.497e-6
-1.306, 2.498e-6
-1.307, 2.498e-6
-1.308, 2.505e-6
-1.309, 2.514e-6
-1.310, 2.515e-6
-1.311, 2.513e-6
-1.312, 2.514e-6
-1.313, 2.523e-6
-1.314, 2.532e-6
-1.315, 2.532e-6
-1.316, 2.530e-6
-1.317, 2.536e-6
-1.318, 2.551e-6
-1.319, 2.556e-6
-1.320, 2.556e-6
-1.321, 2.561e-6
-1.322, 2.561e-6
-1.323, 2.569e-6
-1.324, 2.580e-6
-1.325, 2.584e-6
-1.326, 2.595e-6
-1.327, 2.596e-6
-1.328, 2.600e-6
-1.329, 2.604e-6
-1.330, 2.604e-6
-1.331, 2.611e-6
-1.332, 2.614e-6
-1.333, 2.619e-6
-1.334, 2.632e-6
-1.335, 2.638e-6
-1.336, 2.636e-6
-1.337, 2.635e-6
-1.338, 2.638e-6
-1.339, 2.653e-6
-1.340, 2.661e-6
-1.341, 2.661e-6
-1.342, 2.661e-6
-1.343, 2.670e-6
-1.344, 2.680e-6
-1.345, 2.678e-6
-1.346, 2.683e-6
-1.347, 2.682e-6
-1.348, 2.690e-6
-1.349, 2.703e-6
-1.350, 2.709e-6
-1.351, 2.708e-6
-1.352, 2.711e-6
-1.353, 2.719e-6
-1.354, 2.725e-6
-1.355, 2.738e-6
-1.356, 2.746e-6
-1.357, 2.748e-6
-1.358, 2.762e-6
-1.359, 2.772e-6
-1.360, 2.776e-6
-1.361, 2.777e-6
-1.362, 2.782e-6
-1.363, 2.793e-6
-1.364, 2.800e-6
-1.365, 2.806e-6
-1.366, 2.807e-6
-1.367, 2.815e-6
-1.368, 2.826e-6
-1.369, 2.838e-6
-1.370, 2.841e-6
-1.371, 2.844e-6
-1.372, 2.850e-6
-1.373, 2.859e-6
-1.374, 2.872e-6
-1.375, 2.879e-6
-1.376, 2.894e-6
-1.377, 2.898e-6
-1.378, 2.910e-6
-1.379, 2.921e-6
-1.380, 2.925e-6
-1.381, 2.935e-6
-1.382, 2.947e-6
-1.383, 2.964e-6
-1.384, 2.973e-6
-1.385, 2.980e-6
-1.386, 2.988e-6
-1.387, 3.010e-6
-1.388, 3.029e-6
-1.389, 3.023e-6
-1.390, 3.015e-6
-1.391, 3.014e-6
-1.392, 3.019e-6
-1.393, 3.035e-6
-1.394, 3.055e-6
-1.395, 3.067e-6
-1.396, 3.072e-6
-1.397, 3.085e-6
-1.398, 3.105e-6
-1.399, 3.125e-6
-1.400, 3.138e-6
-1.401, 3.145e-6
-1.402, 3.147e-6
-1.403, 3.163e-6
-1.404, 3.171e-6
-1.405, 3.181e-6
-1.406, 3.190e-6
-1.407, 3.205e-6
-1.408, 3.222e-6
-1.409, 3.240e-6
-1.410, 3.259e-6
-1.411, 3.267e-6
-1.412, 3.275e-6
-1.413, 3.291e-6
-1.414, 3.310e-6
-1.415, 3.319e-6
-1.416, 3.327e-6
-1.417, 3.336e-6
-1.418, 3.353e-6
-1.419, 3.377e-6
-1.420, 3.388e-6
-1.421, 3.392e-6
-1.422, 3.393e-6
-1.423, 3.408e-6
-1.424, 3.433e-6
-1.425, 3.458e-6
-1.426, 3.469e-6
-1.427, 3.480e-6
-1.428, 3.492e-6
-1.429, 3.513e-6
-1.430, 3.523e-6
-1.431, 3.530e-6
-1.432, 3.560e-6
-1.433, 3.596e-6
-1.434, 3.593e-6
-1.435, 3.602e-6
-1.436, 3.607e-6
-1.437, 3.624e-6
-1.438, 3.650e-6
-1.439, 3.669e-6
-1.440, 3.684e-6
-1.441, 3.701e-6
-1.442, 3.715e-6
-1.443, 3.731e-6
-1.444, 3.754e-6
-1.445, 3.773e-6
-1.446, 3.790e-6
-1.447, 3.804e-6
-1.448, 3.828e-6
-1.449, 3.852e-6
-1.450, 3.874e-6
-1.451, 3.896e-6
-1.452, 3.917e-6
-1.453, 3.945e-6
-1.454, 3.967e-6
-1.455, 3.985e-6
-1.456, 4.008e-6
-1.457, 4.028e-6
-1.458, 4.050e-6
-1.459, 4.073e-6
-1.460, 4.104e-6
-1.461, 4.123e-6
-1.462, 4.149e-6
-1.463, 4.176e-6
-1.464, 4.202e-6
-1.465, 4.234e-6
-1.466, 4.271e-6
-1.467, 4.358e-6
-1.468, 4.395e-6
-1.469, 4.426e-6
-1.470, 4.480e-6
-1.471, 4.525e-6
-1.472, 4.562e-6
-1.473, 4.603e-6
-1.474, 4.634e-6
-1.475, 4.664e-6
-1.476, 4.681e-6
-1.477, 4.701e-6
-1.478, 4.721e-6
-1.479, 4.746e-6
-1.480, 4.793e-6
-1.481, 4.881e-6
-1.482, 4.919e-6
-1.483, 4.941e-6
-1.484, 4.976e-6
-1.485, 5.028e-6
-1.486, 5.050e-6
-1.487, 5.082e-6
-1.488, 5.115e-6
-1.489, 5.145e-6
-1.490, 5.178e-6
-1.491, 5.223e-6
-1.492, 5.265e-6
-1.493, 5.298e-6
-1.494, 5.348e-6
-1.495, 5.382e-6
-1.496, 5.424e-6
-1.497, 5.483e-6
-1.498, 5.531e-6
-1.499, 5.570e-6
-1.500, 5.610e-6
-1.501, 5.635e-6
-1.502, 5.670e-6
-1.503, 5.724e-6
-1.504, 5.771e-6
-1.505, 5.844e-6
-1.506, 5.915e-6
-1.507, 5.985e-6
-1.508, 6.044e-6
-1.509, 6.123e-6
-1.510, 6.172e-6
-1.511, 6.215e-6
-1.512, 6.288e-6
-1.513, 6.366e-6
-1.514, 6.471e-6
-1.515, 6.542e-6
-1.516, 6.606e-6
-1.517, 6.702e-6
-1.518, 6.735e-6
-1.519, 6.794e-6
-1.520, 6.853e-6
-1.521, 6.887e-6
-1.522, 6.929e-6
-1.523, 6.973e-6
-1.524, 7.027e-6
-1.525, 7.060e-6
-1.526, 7.103e-6
-1.527, 7.139e-6
-1.528, 7.182e-6
-1.529, 7.257e-6
-1.530, 7.312e-6
-1.531, 7.381e-6
-1.532, 7.446e-6
-1.533, 7.497e-6
-1.534, 7.554e-6
-1.535, 7.630e-6
-1.536, 7.700e-6
-1.537, 7.772e-6
-1.538, 7.848e-6
-1.539, 7.960e-6
-1.540, 8.055e-6
-1.541, 8.139e-6
-1.542, 8.207e-6
-1.543, 8.273e-6
-1.544, 8.344e-6
-1.545, 8.383e-6
-1.546, 8.426e-6
-1.547, 8.492e-6
-1.548, 8.545e-6
-1.549, 8.588e-6
-1.550, 8.645e-6
-1.551, 8.700e-6
-1.552, 8.800e-6
-1.553, 8.889e-6
-1.554, 9.003e-6
-1.555, 9.086e-6
-1.556, 9.150e-6
-1.557, 9.222e-6
-1.558, 9.302e-6
-1.559, 9.395e-6
-1.560, 9.477e-6
-1.561, 9.565e-6
-1.562, 9.627e-6
-1.563, 9.682e-6
-1.564, 9.800e-6
-1.565, 9.880e-6
-1.566, 9.952e-6
-1.567, 1.003e-5
-1.568, 1.016e-5
-1.569, 1.026e-5
-1.570, 1.035e-5
-1.571, 1.044e-5
-1.572, 1.052e-5
-1.573, 1.061e-5
-1.574, 1.072e-5
-1.575, 1.084e-5
-1.576, 1.093e-5
-1.577, 1.101e-5
-1.578, 1.113e-5
-1.579, 1.124e-5
-1.580, 1.138e-5
-1.581, 1.150e-5
-1.582, 1.164e-5
-1.583, 1.178e-5
-1.584, 1.189e-5
-1.585, 1.197e-5
-1.586, 1.204e-5
-1.587, 1.209e-5
-1.588, 1.212e-5
-1.589, 1.223e-5
-1.590, 1.231e-5
-1.591, 1.233e-5
-1.592, 1.242e-5
-1.593, 1.253e-5
-1.594, 1.264e-5
-1.595, 1.275e-5
-1.596, 1.289e-5
-1.597, 1.299e-5
-1.598, 1.315e-5
-1.599, 1.327e-5
-1.600, 1.339e-5
-1.601, 1.352e-5
-1.602, 1.365e-5
-1.603, 1.376e-5
-1.604, 1.388e-5
-1.605, 1.407e-5
-1.606, 1.425e-5
-1.607, 1.445e-5
-1.608, 1.459e-5
-1.609, 1.468e-5
-1.610, 1.480e-5
-1.611, 1.499e-5
-1.612, 1.511e-5
-1.613, 1.522e-5
-1.614, 1.529e-5
-1.615, 1.535e-5
-1.616, 1.549e-5
-1.617, 1.562e-5
-1.618, 1.578e-5
-1.619, 1.596e-5
-1.620, 1.611e-5
-1.621, 1.628e-5
-1.622, 1.646e-5
-1.623, 1.662e-5
-1.624, 1.684e-5
-1.625, 1.702e-5
-1.626, 1.723e-5
-1.627, 1.739e-5
-1.628, 1.757e-5
-1.629, 1.767e-5
-1.630, 1.784e-5
-1.631, 1.807e-5
-1.632, 1.825e-5
-1.633, 1.838e-5
-1.634, 1.854e-5
-1.635, 1.871e-5
-1.636, 1.893e-5
-1.637, 1.910e-5
-1.638, 1.924e-5
-1.639, 1.930e-5
-1.640, 1.946e-5
-1.641, 1.968e-5
-1.642, 1.989e-5
-1.643, 2.007e-5
-1.644, 2.026e-5
-1.645, 2.056e-5
-1.646, 2.080e-5
-1.647, 2.092e-5
-1.648, 2.114e-5
-1.649, 2.139e-5
-1.650, 2.168e-5
-1.651, 2.187e-5
-1.652, 2.204e-5
-1.653, 2.217e-5
-1.654, 2.244e-5
-1.655, 2.265e-5
-1.656, 2.285e-5
-1.657, 2.316e-5
-1.658, 2.343e-5
-1.659, 2.363e-5
-1.660, 2.375e-5
-1.661, 2.392e-5
-1.662, 2.414e-5
-1.663, 2.442e-5
-1.664, 2.458e-5
-1.665, 2.480e-5
-1.666, 2.506e-5
-1.667, 2.529e-5
-1.668, 2.552e-5
-1.669, 2.576e-5
-1.670, 2.599e-5
-1.671, 2.626e-5
-1.672, 2.654e-5
-1.673, 2.689e-5
-1.674, 2.722e-5
-1.675, 2.745e-5
-1.676, 2.775e-5
-1.677, 2.815e-5
-1.678, 2.856e-5
-1.679, 2.890e-5
-1.680, 2.925e-5
-1.681, 2.957e-5
-1.682, 2.986e-5
-1.683, 3.009e-5
-1.684, 3.045e-5
-1.685, 3.088e-5
-1.686, 3.133e-5
-1.687, 3.169e-5
-1.688, 3.197e-5
-1.689, 3.235e-5
-1.690, 3.266e-5
-1.691, 3.295e-5
-1.692, 3.330e-5
-1.693, 3.358e-5
-1.694, 3.394e-5
-1.695, 3.430e-5
-1.696, 3.472e-5
-1.697, 3.516e-5
-1.698, 3.548e-5
-1.699, 3.591e-5
-1.700, 3.639e-5
-1.701, 3.682e-5
-1.702, 3.734e-5
-1.703, 3.783e-5
-1.704, 3.827e-5
-1.705, 3.879e-5
-1.706, 3.928e-5
-1.707, 3.975e-5
-1.708, 4.022e-5
-1.709, 4.069e-5
-1.710, 4.130e-5
-1.711, 4.187e-5
-1.712, 4.234e-5
-1.713, 4.281e-5
-1.714, 4.336e-5
-1.715, 4.396e-5
-1.716, 4.446e-5
-1.717, 4.500e-5
-1.718, 4.487e-5
-1.719, 4.495e-5
-1.720, 4.544e-5
-1.721, 4.597e-5
-1.722, 4.651e-5
-1.723, 4.715e-5
-1.724, 4.780e-5
-1.725, 4.848e-5
-1.726, 4.899e-5
-1.727, 4.949e-5
-1.728, 5.024e-5
-1.729, 5.107e-5
-1.730, 5.188e-5
-1.731, 5.272e-5
-1.732, 5.352e-5
-1.733, 5.431e-5
-1.734, 5.518e-5
-1.735, 5.607e-5
-1.736, 5.702e-5
-1.737, 5.803e-5
-1.738, 5.917e-5
-1.739, 6.026e-5
-1.740, 6.132e-5
-1.741, 6.252e-5
-1.742, 6.359e-5
-1.743, 6.477e-5
-1.744, 6.594e-5
-1.745, 6.706e-5
-1.746, 6.828e-5
-1.747, 6.965e-5
-1.748, 7.099e-5
-1.749, 7.238e-5
-1.750, 7.387e-5
-1.751, 7.538e-5
-1.752, 7.687e-5
-1.753, 7.856e-5
-1.754, 8.033e-5
-1.755, 8.246e-5
-1.756, 8.439e-5
-1.757, 8.618e-5
-1.758, 8.810e-5
-1.759, 9.008e-5
-1.760, 9.212e-5
-1.761, 9.413e-5
-1.762, 9.617e-5
-1.763, 9.838e-5
-1.764, 1.008e-4
-1.765, 1.030e-4
-1.766, 1.053e-4
-1.767, 1.077e-4
-1.768, 1.102e-4
-1.769, 1.128e-4
-1.770, 1.154e-4
-1.771, 1.181e-4
-1.772, 1.210e-4
-1.773, 1.240e-4
-1.774, 1.273e-4
-1.775, 1.306e-4
-1.776, 1.339e-4
-1.777, 1.374e-4
-1.778, 1.410e-4
-1.779, 1.448e-4
-1.780, 1.488e-4
-1.781, 1.526e-4
-1.782, 1.564e-4
-1.783, 1.606e-4
-1.784, 1.649e-4
-1.785, 1.693e-4
-1.786, 1.740e-4
-1.787, 1.787e-4
-1.788, 1.836e-4
-1.789, 1.885e-4
-1.790, 1.936e-4
-1.791, 1.991e-4
-1.792, 2.048e-4
-1.793, 2.106e-4
-1.794, 2.167e-4
-1.795, 2.230e-4
-1.796, 2.294e-4
-1.797, 2.359e-4
-1.798, 2.427e-4
-1.799, 2.497e-4
-1.800, 2.568e-4
-1.801, 2.640e-4
-1.802, 2.715e-4
-1.803, 2.790e-4
-1.804, 2.861e-4
-1.805, 2.939e-4
-1.806, 3.020e-4
-1.807, 3.102e-4
-1.808, 3.185e-4
-1.809, 3.275e-4
-1.810, 3.367e-4
-1.811, 3.461e-4
-1.812, 3.562e-4
-1.813, 3.661e-4
-1.814, 3.762e-4
-1.815, 3.868e-4
-1.816, 3.973e-4
-1.817, 4.080e-4
-1.818, 4.189e-4
-1.819, 4.309e-4
-1.820, 4.439e-4
-1.821, 4.559e-4
-1.822, 4.680e-4
-1.823, 4.804e-4
-1.824, 4.925e-4
-1.825, 5.051e-4
-1.826, 5.182e-4
-1.827, 5.313e-4
-1.828, 5.444e-4
-1.829, 5.579e-4
-1.830, 5.720e-4
-1.831, 5.862e-4
-1.832, 6.009e-4
-1.833, 6.161e-4
-1.834, 6.314e-4
-1.835, 6.469e-4
-1.836, 6.628e-4
-1.837, 6.788e-4
-1.838, 6.951e-4
-1.839, 7.115e-4
-1.840, 7.287e-4
-1.841, 7.459e-4
-1.842, 7.635e-4
-1.843, 7.812e-4
-1.844, 7.996e-4
-1.845, 8.174e-4
-1.846, 8.343e-4
-1.847, 8.527e-4
-1.848, 8.709e-4
-1.849, 8.897e-4
-1.850, 9.093e-4
-1.851, 9.290e-4
-1.852, 9.491e-4
-1.853, 9.690e-4
-1.854, 9.892e-4
-1.855, 1.008e-3
-1.856, 1.011e-3
-1.857, 1.011e-3
-1.858, 1.011e-3
-1.859, 1.011e-3
-1.860, 1.011e-3
-1.861, 1.011e-3
-1.862, 1.011e-3
-1.863, 1.011e-3
-1.864, 1.011e-3
-1.865, 1.011e-3
-1.866, 1.011e-3
-1.867, 1.011e-3
-1.868, 1.011e-3
-1.869, 1.011e-3
-1.870, 1.011e-3
-1.871, 1.011e-3
-1.872, 1.011e-3
-1.873, 1.011e-3
-1.874, 1.011e-3
-1.875, 1.011e-3
-1.876, 1.011e-3
-1.877, 1.011e-3
-1.878, 1.011e-3
-1.879, 1.011e-3
-1.880, 1.011e-3
-1.881, 1.011e-3
-1.882, 1.011e-3
-1.883, 1.011e-3
-1.884, 1.011e-3
-1.885, 1.011e-3
-1.886, 1.011e-3
-1.887, 1.011e-3
-1.888, 1.011e-3
-1.889, 1.011e-3
-1.890, 1.011e-3
-1.891, 1.011e-3
-1.892, 1.011e-3
-1.893, 1.011e-3
-1.894, 1.011e-3
-1.895, 1.011e-3
-1.896, 1.011e-3
-1.897, 1.011e-3
-1.898, 1.011e-3
-1.899, 1.011e-3
