Sept. 4, 2024   07:05:07
Cyclic Voltammetry
File: c:/users/guazh/data/20240903_batch_252_500/2024-09-03-exp259\exp259-2024-09-04t06_46_50-arkoh\exp259_cv_sr_50mvs_efin_-1900mv.bin
Data Source:  Experiment
Instrument Model:  CHI760E
Header: CV ran at 50 mVs
Note: 

Init E (V) = -1
High E (V) = -1
Low E (V) = -1.9
Final E (V) = -1
Init P/N = N
Scan Rate (V/s) = 0.05
Segment = 3
Sample Interval (V) = 0.001
Quiet Time (sec) = 2
Sensitivity (A/V) = 0.01
Comp R (ohm) = 4.0

Results:

Channel 1:
Segment 1:

Segment 2:

Segment 3:

Potential/V, Current/A

-1.000, -1.105e-7
-1.001, -4.144e-8
-1.002, -7.103e-8
-1.003, -1.973e-9
-1.004, 1.164e-7
-1.005, 1.657e-7
-1.006, 1.066e-7
-1.007, 1.164e-7
-1.008, 1.559e-7
-1.009, 1.460e-7
-1.010, 2.151e-7
-1.011, 3.335e-7
-1.012, 4.223e-7
-1.013, 4.223e-7
-1.014, 4.124e-7
-1.015, 4.025e-7
-1.016, 4.025e-7
-1.017, 4.223e-7
-1.018, 3.631e-7
-1.019, 3.433e-7
-1.020, 3.335e-7
-1.021, 3.236e-7
-1.022, 4.321e-7
-1.023, 3.729e-7
-1.024, 4.519e-7
-1.025, 5.801e-7
-1.026, 6.492e-7
-1.027, 5.407e-7
-1.028, 5.703e-7
-1.029, 4.913e-7
-1.030, 5.209e-7
-1.031, 5.801e-7
-1.032, 5.604e-7
-1.033, 5.407e-7
-1.034, 4.223e-7
-1.035, 5.703e-7
-1.036, 5.801e-7
-1.037, 6.196e-7
-1.038, 6.097e-7
-1.039, 6.492e-7
-1.040, 7.182e-7
-1.041, 7.182e-7
-1.042, 6.886e-7
-1.043, 5.900e-7
-1.044, 5.703e-7
-1.045, 7.380e-7
-1.046, 6.196e-7
-1.047, 6.886e-7
-1.048, 6.985e-7
-1.049, 6.590e-7
-1.050, 7.676e-7
-1.051, 6.886e-7
-1.052, 8.366e-7
-1.053, 7.281e-7
-1.054, 7.972e-7
-1.055, 8.860e-7
-1.056, 7.972e-7
-1.057, 7.281e-7
-1.058, 7.182e-7
-1.059, 7.676e-7
-1.060, 8.366e-7
-1.061, 6.788e-7
-1.062, 7.873e-7
-1.063, 8.366e-7
-1.064, 7.774e-7
-1.065, 8.268e-7
-1.066, 8.465e-7
-1.067, 8.958e-7
-1.068, 8.958e-7
-1.069, 8.860e-7
-1.070, 8.761e-7
-1.071, 8.465e-7
-1.072, 8.761e-7
-1.073, 5.900e-7
-1.074, 9.057e-7
-1.075, 8.564e-7
-1.076, 7.972e-7
-1.077, 9.550e-7
-1.078, 8.761e-7
-1.079, 8.465e-7
-1.080, 8.860e-7
-1.081, 9.057e-7
-1.082, 1.113e-6
-1.083, 9.254e-7
-1.084, 9.353e-7
-1.085, 9.550e-7
-1.086, 8.662e-7
-1.087, 8.958e-7
-1.088, 9.846e-7
-1.089, 1.004e-6
-1.090, 9.452e-7
-1.091, 9.550e-7
-1.092, 8.860e-7
-1.093, 9.452e-7
-1.094, 9.846e-7
-1.095, 9.846e-7
-1.096, 1.014e-6
-1.097, 1.024e-6
-1.098, 1.123e-6
-1.099, 1.034e-6
-1.100, 9.945e-7
-1.101, 1.024e-6
-1.102, 1.123e-6
-1.103, 9.550e-7
-1.104, 1.014e-6
-1.105, 9.945e-7
-1.106, 1.054e-6
-1.107, 1.054e-6
-1.108, 1.034e-6
-1.109, 1.083e-6
-1.110, 1.162e-6
-1.111, 1.231e-6
-1.112, 1.073e-6
-1.113, 1.093e-6
-1.114, 1.064e-6
-1.115, 1.054e-6
-1.116, 1.172e-6
-1.117, 1.014e-6
-1.118, 1.044e-6
-1.119, 1.014e-6
-1.120, 1.123e-6
-1.121, 1.093e-6
-1.122, 1.093e-6
-1.123, 1.133e-6
-1.124, 1.310e-6
-1.125, 1.281e-6
-1.126, 1.192e-6
-1.127, 1.251e-6
-1.128, 1.221e-6
-1.129, 1.290e-6
-1.130, 1.123e-6
-1.131, 1.133e-6
-1.132, 1.241e-6
-1.133, 1.142e-6
-1.134, 1.162e-6
-1.135, 1.152e-6
-1.136, 1.142e-6
-1.137, 1.310e-6
-1.138, 1.192e-6
-1.139, 1.182e-6
-1.140, 1.231e-6
-1.141, 1.142e-6
-1.142, 1.369e-6
-1.143, 1.300e-6
-1.144, 1.172e-6
-1.145, 1.172e-6
-1.146, 1.133e-6
-1.147, 1.103e-6
-1.148, 1.064e-6
-1.149, 1.251e-6
-1.150, 1.241e-6
-1.151, 1.330e-6
-1.152, 1.281e-6
-1.153, 1.212e-6
-1.154, 1.379e-6
-1.155, 1.290e-6
-1.156, 1.212e-6
-1.157, 1.251e-6
-1.158, 1.241e-6
-1.159, 1.212e-6
-1.160, 1.182e-6
-1.161, 1.231e-6
-1.162, 1.261e-6
-1.163, 1.330e-6
-1.164, 1.389e-6
-1.165, 1.212e-6
-1.166, 1.271e-6
-1.167, 1.212e-6
-1.168, 1.182e-6
-1.169, 1.379e-6
-1.170, 1.221e-6
-1.171, 1.212e-6
-1.172, 1.231e-6
-1.173, 1.192e-6
-1.174, 1.261e-6
-1.175, 1.271e-6
-1.176, 1.241e-6
-1.177, 1.300e-6
-1.178, 1.360e-6
-1.179, 1.488e-6
-1.180, 1.212e-6
-1.181, 1.192e-6
-1.182, 1.192e-6
-1.183, 1.192e-6
-1.184, 1.231e-6
-1.185, 1.399e-6
-1.186, 1.271e-6
-1.187, 1.300e-6
-1.188, 1.231e-6
-1.189, 1.241e-6
-1.190, 1.241e-6
-1.191, 1.320e-6
-1.192, 1.271e-6
-1.193, 1.350e-6
-1.194, 1.616e-6
-1.195, 1.271e-6
-1.196, 1.241e-6
-1.197, 1.182e-6
-1.198, 1.202e-6
-1.199, 1.330e-6
-1.200, 1.310e-6
-1.201, 1.241e-6
-1.202, 1.300e-6
-1.203, 1.330e-6
-1.204, 1.389e-6
-1.205, 1.360e-6
-1.206, 1.389e-6
-1.207, 1.468e-6
-1.208, 1.586e-6
-1.209, 1.577e-6
-1.210, 1.320e-6
-1.211, 1.458e-6
-1.212, 1.300e-6
-1.213, 1.281e-6
-1.214, 1.281e-6
-1.215, 1.300e-6
-1.216, 1.369e-6
-1.217, 1.429e-6
-1.218, 1.330e-6
-1.219, 1.360e-6
-1.220, 1.340e-6
-1.221, 1.330e-6
-1.222, 1.419e-6
-1.223, 1.448e-6
-1.224, 1.409e-6
-1.225, 1.360e-6
-1.226, 1.419e-6
-1.227, 1.360e-6
-1.228, 1.409e-6
-1.229, 1.695e-6
-1.230, 1.646e-6
-1.231, 1.685e-6
-1.232, 1.567e-6
-1.233, 1.537e-6
-1.234, 1.675e-6
-1.235, 1.478e-6
-1.236, 1.458e-6
-1.237, 1.468e-6
-1.238, 1.448e-6
-1.239, 1.537e-6
-1.240, 1.468e-6
-1.241, 1.438e-6
-1.242, 1.557e-6
-1.243, 1.646e-6
-1.244, 1.685e-6
-1.245, 1.764e-6
-1.246, 1.695e-6
-1.247, 1.656e-6
-1.248, 1.547e-6
-1.249, 1.547e-6
-1.250, 1.389e-6
-1.251, 1.557e-6
-1.252, 1.517e-6
-1.253, 1.508e-6
-1.254, 1.656e-6
-1.255, 1.744e-6
-1.256, 1.725e-6
-1.257, 1.675e-6
-1.258, 1.734e-6
-1.259, 1.705e-6
-1.260, 1.734e-6
-1.261, 1.567e-6
-1.262, 1.508e-6
-1.263, 1.429e-6
-1.264, 1.537e-6
-1.265, 1.527e-6
-1.266, 1.606e-6
-1.267, 1.646e-6
-1.268, 1.685e-6
-1.269, 1.774e-6
-1.270, 1.616e-6
-1.271, 1.567e-6
-1.272, 1.616e-6
-1.273, 1.606e-6
-1.274, 1.764e-6
-1.275, 1.606e-6
-1.276, 1.557e-6
-1.277, 1.557e-6
-1.278, 1.567e-6
-1.279, 1.577e-6
-1.280, 1.606e-6
-1.281, 1.695e-6
-1.282, 1.813e-6
-1.283, 1.823e-6
-1.284, 1.843e-6
-1.285, 1.725e-6
-1.286, 1.586e-6
-1.287, 1.725e-6
-1.288, 1.636e-6
-1.289, 1.725e-6
-1.290, 1.508e-6
-1.291, 1.616e-6
-1.292, 1.656e-6
-1.293, 1.626e-6
-1.294, 1.636e-6
-1.295, 1.685e-6
-1.296, 1.794e-6
-1.297, 1.912e-6
-1.298, 1.665e-6
-1.299, 1.695e-6
-1.300, 1.744e-6
-1.301, 1.932e-6
-1.302, 1.744e-6
-1.303, 1.656e-6
-1.304, 1.725e-6
-1.305, 1.754e-6
-1.306, 1.794e-6
-1.307, 1.784e-6
-1.308, 1.744e-6
-1.309, 1.813e-6
-1.310, 1.754e-6
-1.311, 1.803e-6
-1.312, 2.001e-6
-1.313, 2.030e-6
-1.314, 1.892e-6
-1.315, 1.942e-6
-1.316, 1.932e-6
-1.317, 1.912e-6
-1.318, 1.725e-6
-1.319, 1.764e-6
-1.320, 1.764e-6
-1.321, 1.823e-6
-1.322, 1.863e-6
-1.323, 1.823e-6
-1.324, 1.873e-6
-1.325, 1.942e-6
-1.326, 1.922e-6
-1.327, 1.764e-6
-1.328, 1.892e-6
-1.329, 1.833e-6
-1.330, 1.833e-6
-1.331, 1.942e-6
-1.332, 1.853e-6
-1.333, 1.833e-6
-1.334, 1.843e-6
-1.335, 1.784e-6
-1.336, 1.892e-6
-1.337, 1.853e-6
-1.338, 1.863e-6
-1.339, 2.040e-6
-1.340, 1.853e-6
-1.341, 1.794e-6
-1.342, 1.744e-6
-1.343, 1.715e-6
-1.344, 1.951e-6
-1.345, 1.823e-6
-1.346, 1.902e-6
-1.347, 1.764e-6
-1.348, 1.833e-6
-1.349, 1.853e-6
-1.350, 1.932e-6
-1.351, 1.981e-6
-1.352, 2.001e-6
-1.353, 1.991e-6
-1.354, 1.961e-6
-1.355, 1.843e-6
-1.356, 1.843e-6
-1.357, 1.951e-6
-1.358, 1.932e-6
-1.359, 1.853e-6
-1.360, 1.873e-6
-1.361, 1.912e-6
-1.362, 1.833e-6
-1.363, 1.863e-6
-1.364, 1.991e-6
-1.365, 1.971e-6
-1.366, 2.080e-6
-1.367, 1.981e-6
-1.368, 1.991e-6
-1.369, 1.892e-6
-1.370, 1.922e-6
-1.371, 2.021e-6
-1.372, 1.922e-6
-1.373, 1.892e-6
-1.374, 1.863e-6
-1.375, 1.863e-6
-1.376, 1.922e-6
-1.377, 1.922e-6
-1.378, 2.011e-6
-1.379, 2.099e-6
-1.380, 2.011e-6
-1.381, 1.912e-6
-1.382, 1.843e-6
-1.383, 1.912e-6
-1.384, 1.971e-6
-1.385, 1.991e-6
-1.386, 2.099e-6
-1.387, 1.873e-6
-1.388, 2.021e-6
-1.389, 2.021e-6
-1.390, 2.030e-6
-1.391, 1.981e-6
-1.392, 2.080e-6
-1.393, 2.169e-6
-1.394, 2.011e-6
-1.395, 2.060e-6
-1.396, 2.011e-6
-1.397, 2.109e-6
-1.398, 2.021e-6
-1.399, 2.021e-6
-1.400, 1.991e-6
-1.401, 2.060e-6
-1.402, 2.099e-6
-1.403, 2.129e-6
-1.404, 1.951e-6
-1.405, 2.188e-6
-1.406, 2.208e-6
-1.407, 1.942e-6
-1.408, 2.070e-6
-1.409, 1.991e-6
-1.410, 1.971e-6
-1.411, 2.149e-6
-1.412, 2.099e-6
-1.413, 2.178e-6
-1.414, 2.149e-6
-1.415, 2.070e-6
-1.416, 2.257e-6
-1.417, 2.129e-6
-1.418, 2.267e-6
-1.419, 2.218e-6
-1.420, 2.149e-6
-1.421, 2.129e-6
-1.422, 2.139e-6
-1.423, 2.159e-6
-1.424, 2.159e-6
-1.425, 2.169e-6
-1.426, 2.099e-6
-1.427, 2.159e-6
-1.428, 2.247e-6
-1.429, 2.139e-6
-1.430, 2.208e-6
-1.431, 2.257e-6
-1.432, 2.267e-6
-1.433, 2.307e-6
-1.434, 2.277e-6
-1.435, 2.208e-6
-1.436, 2.169e-6
-1.437, 2.119e-6
-1.438, 2.465e-6
-1.439, 2.317e-6
-1.440, 2.415e-6
-1.441, 2.346e-6
-1.442, 2.356e-6
-1.443, 2.297e-6
-1.444, 2.425e-6
-1.445, 2.346e-6
-1.446, 2.474e-6
-1.447, 2.583e-6
-1.448, 2.317e-6
-1.449, 2.386e-6
-1.450, 2.514e-6
-1.451, 2.465e-6
-1.452, 2.425e-6
-1.453, 2.484e-6
-1.454, 2.415e-6
-1.455, 2.504e-6
-1.456, 2.524e-6
-1.457, 2.484e-6
-1.458, 2.514e-6
-1.459, 2.622e-6
-1.460, 2.662e-6
-1.461, 2.642e-6
-1.462, 2.603e-6
-1.463, 2.514e-6
-1.464, 2.593e-6
-1.465, 2.494e-6
-1.466, 2.573e-6
-1.467, 2.504e-6
-1.468, 2.563e-6
-1.469, 2.642e-6
-1.470, 2.524e-6
-1.471, 2.652e-6
-1.472, 2.652e-6
-1.473, 2.701e-6
-1.474, 2.721e-6
-1.475, 2.632e-6
-1.476, 2.731e-6
-1.477, 2.603e-6
-1.478, 2.691e-6
-1.479, 2.721e-6
-1.480, 2.721e-6
-1.481, 2.721e-6
-1.482, 2.760e-6
-1.483, 2.751e-6
-1.484, 2.751e-6
-1.485, 2.859e-6
-1.486, 2.889e-6
-1.487, 2.918e-6
-1.488, 2.978e-6
-1.489, 3.037e-6
-1.490, 2.820e-6
-1.491, 2.879e-6
-1.492, 2.849e-6
-1.493, 2.790e-6
-1.494, 2.968e-6
-1.495, 2.958e-6
-1.496, 3.027e-6
-1.497, 2.958e-6
-1.498, 3.027e-6
-1.499, 3.056e-6
-1.500, 3.126e-6
-1.501, 3.126e-6
-1.502, 3.214e-6
-1.503, 3.175e-6
-1.504, 3.185e-6
-1.505, 3.126e-6
-1.506, 3.254e-6
-1.507, 3.244e-6
-1.508, 3.175e-6
-1.509, 3.195e-6
-1.510, 3.185e-6
-1.511, 3.323e-6
-1.512, 3.293e-6
-1.513, 3.362e-6
-1.514, 3.372e-6
-1.515, 3.402e-6
-1.516, 3.500e-6
-1.517, 3.352e-6
-1.518, 3.471e-6
-1.519, 3.323e-6
-1.520, 3.461e-6
-1.521, 3.579e-6
-1.522, 3.313e-6
-1.523, 3.589e-6
-1.524, 3.619e-6
-1.525, 3.688e-6
-1.526, 3.658e-6
-1.527, 3.708e-6
-1.528, 3.796e-6
-1.529, 3.747e-6
-1.530, 3.639e-6
-1.531, 3.747e-6
-1.532, 3.668e-6
-1.533, 3.570e-6
-1.534, 3.777e-6
-1.535, 3.836e-6
-1.536, 3.925e-6
-1.537, 3.856e-6
-1.538, 3.994e-6
-1.539, 4.013e-6
-1.540, 4.053e-6
-1.541, 4.013e-6
-1.542, 4.161e-6
-1.543, 4.280e-6
-1.544, 4.092e-6
-1.545, 4.083e-6
-1.546, 4.083e-6
-1.547, 4.122e-6
-1.548, 4.339e-6
-1.549, 4.300e-6
-1.550, 4.309e-6
-1.551, 4.418e-6
-1.552, 4.359e-6
-1.553, 4.507e-6
-1.554, 4.457e-6
-1.555, 4.566e-6
-1.556, 4.714e-6
-1.557, 4.655e-6
-1.558, 4.526e-6
-1.559, 4.665e-6
-1.560, 4.635e-6
-1.561, 4.576e-6
-1.562, 4.773e-6
-1.563, 4.901e-6
-1.564, 4.921e-6
-1.565, 4.911e-6
-1.566, 5.059e-6
-1.567, 5.148e-6
-1.568, 5.148e-6
-1.569, 5.020e-6
-1.570, 5.286e-6
-1.571, 5.316e-6
-1.572, 5.296e-6
-1.573, 5.326e-6
-1.574, 5.365e-6
-1.575, 5.395e-6
-1.576, 5.345e-6
-1.577, 5.493e-6
-1.578, 5.631e-6
-1.579, 5.710e-6
-1.580, 5.779e-6
-1.581, 5.858e-6
-1.582, 5.937e-6
-1.583, 6.075e-6
-1.584, 5.987e-6
-1.585, 6.194e-6
-1.586, 6.223e-6
-1.587, 6.095e-6
-1.588, 6.204e-6
-1.589, 6.391e-6
-1.590, 6.312e-6
-1.591, 6.510e-6
-1.592, 6.559e-6
-1.593, 6.727e-6
-1.594, 6.786e-6
-1.595, 6.894e-6
-1.596, 6.944e-6
-1.597, 7.082e-6
-1.598, 7.121e-6
-1.599, 7.180e-6
-1.600, 7.319e-6
-1.601, 7.388e-6
-1.602, 7.545e-6
-1.603, 7.753e-6
-1.604, 7.792e-6
-1.605, 7.891e-6
-1.606, 8.068e-6
-1.607, 8.088e-6
-1.608, 8.256e-6
-1.609, 8.276e-6
-1.610, 8.414e-6
-1.611, 8.443e-6
-1.612, 8.591e-6
-1.613, 8.907e-6
-1.614, 8.976e-6
-1.615, 9.114e-6
-1.616, 9.321e-6
-1.617, 9.302e-6
-1.618, 9.627e-6
-1.619, 9.686e-6
-1.620, 9.854e-6
-1.621, 9.953e-6
-1.622, 1.015e-5
-1.623, 1.023e-5
-1.624, 1.044e-5
-1.625, 1.075e-5
-1.626, 1.096e-5
-1.627, 1.111e-5
-1.628, 1.133e-5
-1.629, 1.148e-5
-1.630, 1.177e-5
-1.631, 1.187e-5
-1.632, 1.213e-5
-1.633, 1.240e-5
-1.634, 1.265e-5
-1.635, 1.275e-5
-1.636, 1.281e-5
-1.637, 1.318e-5
-1.638, 1.349e-5
-1.639, 1.397e-5
-1.640, 1.419e-5
-1.641, 1.454e-5
-1.642, 1.487e-5
-1.643, 1.518e-5
-1.644, 1.549e-5
-1.645, 1.579e-5
-1.646, 1.610e-5
-1.647, 1.645e-5
-1.648, 1.682e-5
-1.649, 1.718e-5
-1.650, 1.760e-5
-1.651, 1.798e-5
-1.652, 1.833e-5
-1.653, 1.874e-5
-1.654, 1.926e-5
-1.655, 1.969e-5
-1.656, 2.003e-5
-1.657, 2.059e-5
-1.658, 2.113e-5
-1.659, 2.151e-5
-1.660, 2.208e-5
-1.661, 2.261e-5
-1.662, 2.320e-5
-1.663, 2.376e-5
-1.664, 2.437e-5
-1.665, 2.507e-5
-1.666, 2.571e-5
-1.667, 2.631e-5
-1.668, 2.712e-5
-1.669, 2.772e-5
-1.670, 2.849e-5
-1.671, 2.920e-5
-1.672, 2.993e-5
-1.673, 3.083e-5
-1.674, 3.165e-5
-1.675, 3.245e-5
-1.676, 3.350e-5
-1.677, 3.444e-5
-1.678, 3.543e-5
-1.679, 3.638e-5
-1.680, 3.742e-5
-1.681, 3.850e-5
-1.682, 3.963e-5
-1.683, 4.092e-5
-1.684, 4.198e-5
-1.685, 4.340e-5
-1.686, 4.472e-5
-1.687, 4.589e-5
-1.688, 4.738e-5
-1.689, 4.892e-5
-1.690, 5.048e-5
-1.691, 5.207e-5
-1.692, 5.362e-5
-1.693, 5.538e-5
-1.694, 5.707e-5
-1.695, 5.898e-5
-1.696, 6.086e-5
-1.697, 6.282e-5
-1.698, 6.487e-5
-1.699, 6.698e-5
-1.700, 6.931e-5
-1.701, 7.172e-5
-1.702, 7.398e-5
-1.703, 7.662e-5
-1.704, 7.916e-5
-1.705, 8.196e-5
-1.706, 8.453e-5
-1.707, 8.750e-5
-1.708, 9.067e-5
-1.709, 9.374e-5
-1.710, 9.705e-5
-1.711, 1.002e-4
-1.712, 1.037e-4
-1.713, 1.074e-4
-1.714, 1.110e-4
-1.715, 1.149e-4
-1.716, 1.190e-4
-1.717, 1.233e-4
-1.718, 1.276e-4
-1.719, 1.322e-4
-1.720, 1.370e-4
-1.721, 1.419e-4
-1.722, 1.470e-4
-1.723, 1.524e-4
-1.724, 1.580e-4
-1.725, 1.640e-4
-1.726, 1.699e-4
-1.727, 1.762e-4
-1.728, 1.827e-4
-1.729, 1.894e-4
-1.730, 1.964e-4
-1.731, 2.031e-4
-1.732, 2.105e-4
-1.733, 2.183e-4
-1.734, 2.262e-4
-1.735, 2.349e-4
-1.736, 2.433e-4
-1.737, 2.521e-4
-1.738, 2.616e-4
-1.739, 2.713e-4
-1.740, 2.819e-4
-1.741, 2.928e-4
-1.742, 3.038e-4
-1.743, 3.155e-4
-1.744, 3.269e-4
-1.745, 3.391e-4
-1.746, 3.510e-4
-1.747, 3.638e-4
-1.748, 3.770e-4
-1.749, 3.908e-4
-1.750, 4.050e-4
-1.751, 4.195e-4
-1.752, 4.347e-4
-1.753, 4.512e-4
-1.754, 4.679e-4
-1.755, 4.858e-4
-1.756, 5.043e-4
-1.757, 5.237e-4
-1.758, 5.435e-4
-1.759, 5.626e-4
-1.760, 5.812e-4
-1.761, 5.987e-4
-1.762, 6.192e-4
-1.763, 6.433e-4
-1.764, 6.672e-4
-1.765, 6.893e-4
-1.766, 7.140e-4
-1.767, 7.400e-4
-1.768, 7.665e-4
-1.769, 7.958e-4
-1.770, 8.258e-4
-1.771, 8.552e-4
-1.772, 8.854e-4
-1.773, 9.144e-4
-1.774, 9.405e-4
-1.775, 9.631e-4
-1.776, 9.974e-4
-1.777, 1.027e-3
-1.778, 1.065e-3
-1.779, 1.094e-3
-1.780, 1.131e-3
-1.781, 1.167e-3
-1.782, 1.207e-3
-1.783, 1.251e-3
-1.784, 1.294e-3
-1.785, 1.336e-3
-1.786, 1.377e-3
-1.787, 1.416e-3
-1.788, 1.442e-3
-1.789, 1.472e-3
-1.790, 1.523e-3
-1.791, 1.570e-3
-1.792, 1.620e-3
-1.793, 1.671e-3
-1.794, 1.716e-3
-1.795, 1.765e-3
-1.796, 1.825e-3
-1.797, 1.889e-3
-1.798, 1.948e-3
-1.799, 2.006e-3
-1.800, 2.059e-3
-1.801, 2.107e-3
-1.802, 2.126e-3
-1.803, 2.170e-3
-1.804, 2.230e-3
-1.805, 2.278e-3
-1.806, 2.340e-3
-1.807, 2.395e-3
-1.808, 2.463e-3
-1.809, 2.526e-3
-1.810, 2.612e-3
-1.811, 2.696e-3
-1.812, 2.771e-3
-1.813, 2.842e-3
-1.814, 2.903e-3
-1.815, 2.950e-3
-1.816, 2.960e-3
-1.817, 2.989e-3
-1.818, 3.075e-3
-1.819, 3.137e-3
-1.820, 3.233e-3
-1.821, 3.296e-3
-1.822, 3.368e-3
-1.823, 3.469e-3
-1.824, 3.548e-3
-1.825, 3.623e-3
-1.826, 3.686e-3
-1.827, 3.736e-3
-1.828, 3.794e-3
-1.829, 3.871e-3
-1.830, 3.945e-3
-1.831, 4.016e-3
-1.832, 4.082e-3
-1.833, 4.166e-3
-1.834, 4.249e-3
-1.835, 4.342e-3
-1.836, 4.431e-3
-1.837, 4.534e-3
-1.838, 4.664e-3
-1.839, 4.802e-3
-1.840, 4.913e-3
-1.841, 5.003e-3
-1.842, 5.081e-3
-1.843, 5.136e-3
-1.844, 5.077e-3
-1.845, 5.132e-3
-1.846, 5.208e-3
-1.847, 5.267e-3
-1.848, 5.394e-3
-1.849, 5.445e-3
-1.850, 5.608e-3
-1.851, 5.723e-3
-1.852, 5.914e-3
-1.853, 6.052e-3
-1.854, 6.145e-3
-1.855, 6.250e-3
-1.856, 6.284e-3
-1.857, 6.255e-3
-1.858, 6.139e-3
-1.859, 6.220e-3
-1.860, 6.425e-3
-1.861, 6.604e-3
-1.862, 6.631e-3
-1.863, 6.716e-3
-1.864, 6.831e-3
-1.865, 6.981e-3
-1.866, 7.210e-3
-1.867, 7.354e-3
-1.868, 7.439e-3
-1.869, 7.601e-3
-1.870, 7.620e-3
-1.871, 7.556e-3
-1.872, 7.347e-3
-1.873, 7.465e-3
-1.874, 7.699e-3
-1.875, 7.840e-3
-1.876, 7.917e-3
-1.877, 8.026e-3
-1.878, 8.146e-3
-1.879, 8.378e-3
-1.880, 8.632e-3
-1.881, 8.790e-3
-1.882, 8.918e-3
-1.883, 8.991e-3
-1.884, 8.862e-3
-1.885, 8.639e-3
-1.886, 8.814e-3
-1.887, 8.826e-3
-1.888, 8.924e-3
-1.889, 9.023e-3
-1.890, 9.151e-3
-1.891, 9.280e-3
-1.892, 9.535e-3
-1.893, 9.823e-3
-1.894, 9.990e-3
-1.895, 1.012e-2
-1.896, 1.016e-2
-1.897, 1.008e-2
-1.898, 9.685e-3
-1.899, 9.741e-3
-1.900, 9.812e-3
-1.899, 9.756e-3
-1.898, 9.697e-3
-1.897, 9.613e-3
-1.896, 9.576e-3
-1.895, 9.678e-3
-1.894, 9.835e-3
-1.893, 9.897e-3
-1.892, 9.875e-3
-1.891, 9.708e-3
-1.890, 9.526e-3
-1.889, 9.269e-3
-1.888, 8.866e-3
-1.887, 8.734e-3
-1.886, 8.579e-3
-1.885, 8.604e-3
-1.884, 8.545e-3
-1.883, 8.464e-3
-1.882, 8.370e-3
-1.881, 8.402e-3
-1.880, 8.443e-3
-1.879, 8.443e-3
-1.878, 8.405e-3
-1.877, 8.285e-3
-1.876, 8.171e-3
-1.875, 7.949e-3
-1.874, 7.609e-3
-1.873, 7.513e-3
-1.872, 7.449e-3
-1.871, 7.443e-3
-1.870, 7.488e-3
-1.869, 7.282e-3
-1.868, 7.288e-3
-1.867, 7.261e-3
-1.866, 7.280e-3
-1.865, 7.276e-3
-1.864, 7.256e-3
-1.863, 7.213e-3
-1.862, 7.166e-3
-1.861, 7.041e-3
-1.860, 6.783e-3
-1.859, 6.530e-3
-1.858, 6.645e-3
-1.857, 6.457e-3
-1.856, 6.441e-3
-1.855, 6.376e-3
-1.854, 6.274e-3
-1.853, 6.214e-3
-1.852, 6.149e-3
-1.851, 6.069e-3
-1.850, 6.009e-3
-1.849, 5.943e-3
-1.848, 5.919e-3
-1.847, 5.853e-3
-1.846, 5.799e-3
-1.845, 5.740e-3
-1.844, 5.676e-3
-1.843, 5.624e-3
-1.842, 5.558e-3
-1.841, 5.495e-3
-1.840, 5.423e-3
-1.839, 5.397e-3
-1.838, 5.354e-3
-1.837, 5.303e-3
-1.836, 5.273e-3
-1.835, 5.244e-3
-1.834, 5.250e-3
-1.833, 5.236e-3
-1.832, 5.188e-3
-1.831, 5.167e-3
-1.830, 5.090e-3
-1.829, 4.985e-3
-1.828, 4.834e-3
-1.827, 4.790e-3
-1.826, 4.744e-3
-1.825, 4.679e-3
-1.824, 4.614e-3
-1.823, 4.560e-3
-1.822, 4.533e-3
-1.821, 4.528e-3
-1.820, 4.523e-3
-1.819, 4.487e-3
-1.818, 4.449e-3
-1.817, 4.388e-3
-1.816, 4.312e-3
-1.815, 4.172e-3
-1.814, 4.049e-3
-1.813, 4.003e-3
-1.812, 3.959e-3
-1.811, 3.920e-3
-1.810, 3.880e-3
-1.809, 3.859e-3
-1.808, 3.787e-3
-1.807, 3.774e-3
-1.806, 3.748e-3
-1.805, 3.656e-3
-1.804, 3.614e-3
-1.803, 3.548e-3
-1.802, 3.497e-3
-1.801, 3.454e-3
-1.800, 3.414e-3
-1.799, 3.378e-3
-1.798, 3.322e-3
-1.797, 3.274e-3
-1.796, 3.238e-3
-1.795, 3.200e-3
-1.794, 3.168e-3
-1.793, 3.135e-3
-1.792, 3.115e-3
-1.791, 3.093e-3
-1.790, 3.059e-3
-1.789, 3.023e-3
-1.788, 2.977e-3
-1.787, 2.923e-3
-1.786, 2.836e-3
-1.785, 2.784e-3
-1.784, 2.760e-3
-1.783, 2.713e-3
-1.782, 2.679e-3
-1.781, 2.642e-3
-1.780, 2.607e-3
-1.779, 2.584e-3
-1.778, 2.568e-3
-1.777, 2.565e-3
-1.776, 2.530e-3
-1.775, 2.487e-3
-1.774, 2.440e-3
-1.773, 2.377e-3
-1.772, 2.322e-3
-1.771, 2.288e-3
-1.770, 2.251e-3
-1.769, 2.209e-3
-1.768, 2.171e-3
-1.767, 2.144e-3
-1.766, 2.117e-3
-1.765, 2.081e-3
-1.764, 2.045e-3
-1.763, 2.016e-3
-1.762, 1.990e-3
-1.761, 1.960e-3
-1.760, 1.932e-3
-1.759, 1.909e-3
-1.758, 1.889e-3
-1.757, 1.864e-3
-1.756, 1.835e-3
-1.755, 1.803e-3
-1.754, 1.771e-3
-1.753, 1.728e-3
-1.752, 1.691e-3
-1.751, 1.660e-3
-1.750, 1.632e-3
-1.749, 1.601e-3
-1.748, 1.574e-3
-1.747, 1.555e-3
-1.746, 1.519e-3
-1.745, 1.504e-3
-1.744, 1.484e-3
-1.743, 1.459e-3
-1.742, 1.435e-3
-1.741, 1.407e-3
-1.740, 1.377e-3
-1.739, 1.345e-3
-1.738, 1.313e-3
-1.737, 1.296e-3
-1.736, 1.275e-3
-1.735, 1.251e-3
-1.734, 1.229e-3
-1.733, 1.208e-3
-1.732, 1.187e-3
-1.731, 1.171e-3
-1.730, 1.153e-3
-1.729, 1.131e-3
-1.728, 1.113e-3
-1.727, 1.088e-3
-1.726, 1.066e-3
-1.725, 1.037e-3
-1.724, 1.017e-3
-1.723, 1.003e-3
-1.722, 9.847e-4
-1.721, 9.638e-4
-1.720, 9.462e-4
-1.719, 9.289e-4
-1.718, 9.123e-4
-1.717, 8.974e-4
-1.716, 8.817e-4
-1.715, 8.651e-4
-1.714, 8.485e-4
-1.713, 8.299e-4
-1.712, 8.091e-4
-1.711, 7.908e-4
-1.710, 7.776e-4
-1.709, 7.624e-4
-1.708, 7.462e-4
-1.707, 7.318e-4
-1.706, 7.180e-4
-1.705, 7.039e-4
-1.704, 6.910e-4
-1.703, 6.790e-4
-1.702, 6.669e-4
-1.701, 6.531e-4
-1.700, 6.390e-4
-1.699, 6.255e-4
-1.698, 6.107e-4
-1.697, 5.984e-4
-1.696, 5.849e-4
-1.695, 5.731e-4
-1.694, 5.607e-4
-1.693, 5.490e-4
-1.692, 5.374e-4
-1.691, 5.271e-4
-1.690, 5.169e-4
-1.689, 5.067e-4
-1.688, 4.964e-4
-1.687, 4.862e-4
-1.686, 4.753e-4
-1.685, 4.636e-4
-1.684, 4.532e-4
-1.683, 4.436e-4
-1.682, 4.336e-4
-1.681, 4.246e-4
-1.680, 4.154e-4
-1.679, 4.067e-4
-1.678, 3.984e-4
-1.677, 3.906e-4
-1.676, 3.824e-4
-1.675, 3.749e-4
-1.674, 3.663e-4
-1.673, 3.578e-4
-1.672, 3.497e-4
-1.671, 3.415e-4
-1.670, 3.338e-4
-1.669, 3.263e-4
-1.668, 3.193e-4
-1.667, 3.119e-4
-1.666, 3.051e-4
-1.665, 2.981e-4
-1.664, 2.914e-4
-1.663, 2.851e-4
-1.662, 2.791e-4
-1.661, 2.732e-4
-1.660, 2.671e-4
-1.659, 2.612e-4
-1.658, 2.552e-4
-1.657, 2.494e-4
-1.656, 2.437e-4
-1.655, 2.378e-4
-1.654, 2.326e-4
-1.653, 2.275e-4
-1.652, 2.220e-4
-1.651, 2.168e-4
-1.650, 2.118e-4
-1.649, 2.072e-4
-1.648, 2.026e-4
-1.647, 1.981e-4
-1.646, 1.938e-4
-1.645, 1.894e-4
-1.644, 1.851e-4
-1.643, 1.807e-4
-1.642, 1.764e-4
-1.641, 1.722e-4
-1.640, 1.681e-4
-1.639, 1.643e-4
-1.638, 1.603e-4
-1.637, 1.565e-4
-1.636, 1.530e-4
-1.635, 1.494e-4
-1.634, 1.460e-4
-1.633, 1.426e-4
-1.632, 1.391e-4
-1.631, 1.361e-4
-1.630, 1.328e-4
-1.629, 1.298e-4
-1.628, 1.267e-4
-1.627, 1.238e-4
-1.626, 1.209e-4
-1.625, 1.181e-4
-1.624, 1.154e-4
-1.623, 1.126e-4
-1.622, 1.100e-4
-1.621, 1.075e-4
-1.620, 1.050e-4
-1.619, 1.025e-4
-1.618, 1.003e-4
-1.617, 9.785e-5
-1.616, 9.560e-5
-1.615, 9.341e-5
-1.614, 9.126e-5
-1.613, 8.893e-5
-1.612, 8.687e-5
-1.611, 8.484e-5
-1.610, 8.281e-5
-1.609, 8.098e-5
-1.608, 7.899e-5
-1.607, 7.718e-5
-1.606, 7.539e-5
-1.605, 7.361e-5
-1.604, 7.186e-5
-1.603, 7.018e-5
-1.602, 6.860e-5
-1.601, 6.701e-5
-1.600, 6.527e-5
-1.599, 6.385e-5
-1.598, 6.223e-5
-1.597, 6.071e-5
-1.596, 5.942e-5
-1.595, 5.799e-5
-1.594, 5.669e-5
-1.593, 5.528e-5
-1.592, 5.397e-5
-1.591, 5.285e-5
-1.590, 5.150e-5
-1.589, 5.043e-5
-1.588, 4.911e-5
-1.587, 4.787e-5
-1.586, 4.679e-5
-1.585, 4.567e-5
-1.584, 4.462e-5
-1.583, 4.355e-5
-1.582, 4.253e-5
-1.581, 4.159e-5
-1.580, 4.052e-5
-1.579, 3.960e-5
-1.578, 3.868e-5
-1.577, 3.779e-5
-1.576, 3.692e-5
-1.575, 3.611e-5
-1.574, 3.516e-5
-1.573, 3.428e-5
-1.572, 3.355e-5
-1.571, 3.276e-5
-1.570, 3.203e-5
-1.569, 3.130e-5
-1.568, 3.055e-5
-1.567, 2.983e-5
-1.566, 2.924e-5
-1.565, 2.851e-5
-1.564, 2.779e-5
-1.563, 2.729e-5
-1.562, 2.652e-5
-1.561, 2.594e-5
-1.560, 2.532e-5
-1.559, 2.471e-5
-1.558, 2.416e-5
-1.557, 2.360e-5
-1.556, 2.305e-5
-1.555, 2.257e-5
-1.554, 2.200e-5
-1.553, 2.152e-5
-1.552, 2.101e-5
-1.551, 2.059e-5
-1.550, 2.011e-5
-1.549, 1.958e-5
-1.548, 1.906e-5
-1.547, 1.865e-5
-1.546, 1.827e-5
-1.545, 1.786e-5
-1.544, 1.755e-5
-1.543, 1.706e-5
-1.542, 1.660e-5
-1.541, 1.625e-5
-1.540, 1.582e-5
-1.539, 1.557e-5
-1.538, 1.514e-5
-1.537, 1.483e-5
-1.536, 1.434e-5
-1.535, 1.410e-5
-1.534, 1.382e-5
-1.533, 1.346e-5
-1.532, 1.318e-5
-1.531, 1.297e-5
-1.530, 1.259e-5
-1.529, 1.242e-5
-1.528, 1.203e-5
-1.527, 1.167e-5
-1.526, 1.154e-5
-1.525, 1.120e-5
-1.524, 1.097e-5
-1.523, 1.063e-5
-1.522, 1.041e-5
-1.521, 1.022e-5
-1.520, 1.005e-5
-1.519, 9.913e-6
-1.518, 9.568e-6
-1.517, 9.390e-6
-1.516, 9.144e-6
-1.515, 8.956e-6
-1.514, 8.818e-6
-1.513, 8.522e-6
-1.512, 8.315e-6
-1.511, 8.088e-6
-1.510, 7.851e-6
-1.509, 7.792e-6
-1.508, 7.516e-6
-1.507, 7.467e-6
-1.506, 7.269e-6
-1.505, 7.141e-6
-1.504, 6.884e-6
-1.503, 6.618e-6
-1.502, 6.598e-6
-1.501, 6.510e-6
-1.500, 6.332e-6
-1.499, 6.214e-6
-1.498, 5.957e-6
-1.497, 5.898e-6
-1.496, 5.799e-6
-1.495, 5.701e-6
-1.494, 5.622e-6
-1.493, 5.375e-6
-1.492, 5.355e-6
-1.491, 5.197e-6
-1.490, 5.118e-6
-1.489, 4.961e-6
-1.488, 4.803e-6
-1.487, 4.793e-6
-1.486, 4.694e-6
-1.485, 4.467e-6
-1.484, 4.438e-6
-1.483, 4.260e-6
-1.482, 4.181e-6
-1.481, 4.132e-6
-1.480, 4.023e-6
-1.479, 4.004e-6
-1.478, 3.836e-6
-1.477, 3.708e-6
-1.476, 3.599e-6
-1.475, 3.550e-6
-1.474, 3.530e-6
-1.473, 3.471e-6
-1.472, 3.264e-6
-1.471, 3.234e-6
-1.470, 3.145e-6
-1.469, 3.106e-6
-1.468, 2.968e-6
-1.467, 2.928e-6
-1.466, 2.978e-6
-1.465, 2.869e-6
-1.464, 2.780e-6
-1.463, 2.691e-6
-1.462, 2.632e-6
-1.461, 2.474e-6
-1.460, 2.534e-6
-1.459, 2.415e-6
-1.458, 2.356e-6
-1.457, 2.307e-6
-1.456, 2.257e-6
-1.455, 2.208e-6
-1.454, 2.139e-6
-1.453, 2.109e-6
-1.452, 2.070e-6
-1.451, 2.050e-6
-1.450, 1.971e-6
-1.449, 1.873e-6
-1.448, 1.803e-6
-1.447, 1.784e-6
-1.446, 1.665e-6
-1.445, 1.695e-6
-1.444, 1.636e-6
-1.443, 1.616e-6
-1.442, 1.557e-6
-1.441, 1.547e-6
-1.440, 1.369e-6
-1.439, 1.508e-6
-1.438, 1.438e-6
-1.437, 1.379e-6
-1.436, 1.350e-6
-1.435, 1.320e-6
-1.434, 1.172e-6
-1.433, 1.064e-6
-1.432, 1.044e-6
-1.431, 1.083e-6
-1.430, 1.044e-6
-1.429, 1.024e-6
-1.428, 9.057e-7
-1.427, 8.761e-7
-1.426, 8.958e-7
-1.425, 9.057e-7
-1.424, 9.550e-7
-1.423, 8.169e-7
-1.422, 8.662e-7
-1.421, 7.182e-7
-1.420, 7.577e-7
-1.419, 7.084e-7
-1.418, 7.380e-7
-1.417, 6.689e-7
-1.416, 6.788e-7
-1.415, 5.998e-7
-1.414, 5.209e-7
-1.413, 5.801e-7
-1.412, 6.196e-7
-1.411, 5.703e-7
-1.410, 5.012e-7
-1.409, 5.703e-7
-1.408, 5.209e-7
-1.407, 4.913e-7
-1.406, 3.039e-7
-1.405, 3.335e-7
-1.404, 4.519e-7
-1.403, 3.927e-7
-1.402, 4.124e-7
-1.401, 2.940e-7
-1.400, 2.348e-7
-1.399, 3.236e-7
-1.398, 2.743e-7
-1.397, 3.433e-7
-1.396, 2.644e-7
-1.395, 1.756e-7
-1.394, 2.348e-7
-1.393, 1.953e-7
-1.392, 2.644e-7
-1.391, 1.164e-7
-1.390, 1.263e-7
-1.389, 2.052e-7
-1.388, 1.066e-7
-1.387, 1.657e-7
-1.386, 9.669e-8
-1.385, 4.736e-8
-1.384, 8.682e-8
-1.383, -6.117e-8
-1.382, -8.090e-8
-1.381, -7.103e-8
-1.380, 1.776e-8
-1.379, 3.749e-8
-1.378, -1.184e-8
-1.377, 7.893e-9
-1.376, -1.204e-7
-1.375, -2.092e-7
-1.374, -5.130e-8
-1.373, -2.092e-7
-1.372, -1.184e-8
-1.371, -2.171e-8
-1.370, -1.697e-7
-1.369, -1.697e-7
-1.368, -1.598e-7
-1.367, -9.077e-8
-1.366, -1.894e-7
-1.365, -1.006e-7
-1.364, -1.302e-7
-1.363, -1.894e-7
-1.362, -1.993e-7
-1.361, -2.980e-7
-1.360, -2.190e-7
-1.359, -2.092e-7
-1.358, -2.190e-7
-1.357, -2.782e-7
-1.356, -3.177e-7
-1.355, -3.374e-7
-1.354, -2.486e-7
-1.353, -2.782e-7
-1.352, -1.598e-7
-1.351, -2.190e-7
-1.350, -2.684e-7
-1.349, -2.782e-7
-1.348, -3.867e-7
-1.347, -3.078e-7
-1.346, -3.177e-7
-1.345, -3.177e-7
-1.344, -3.670e-7
-1.343, -4.755e-7
-1.342, -4.065e-7
-1.341, -3.078e-7
-1.340, -4.163e-7
-1.339, -3.078e-7
-1.338, -2.782e-7
-1.337, -3.473e-7
-1.336, -4.262e-7
-1.335, -4.065e-7
-1.334, -4.755e-7
-1.333, -4.262e-7
-1.332, -3.966e-7
-1.331, -5.545e-7
-1.330, -5.150e-7
-1.329, -5.347e-7
-1.328, -5.347e-7
-1.327, -5.643e-7
-1.326, -5.051e-7
-1.325, -4.262e-7
-1.324, -4.558e-7
-1.323, -4.953e-7
-1.322, -4.755e-7
-1.321, -4.854e-7
-1.320, -4.953e-7
-1.319, -5.742e-7
-1.318, -6.334e-7
-1.317, -6.137e-7
-1.316, -5.841e-7
-1.315, -5.249e-7
-1.314, -5.841e-7
-1.313, -5.249e-7
-1.312, -4.854e-7
-1.311, -4.657e-7
-1.310, -5.742e-7
-1.309, -5.347e-7
-1.308, -6.038e-7
-1.307, -4.854e-7
-1.306, -6.038e-7
-1.305, -6.729e-7
-1.304, -6.433e-7
-1.303, -6.235e-7
-1.302, -5.643e-7
-1.301, -6.038e-7
-1.300, -6.038e-7
-1.299, -5.446e-7
-1.298, -6.630e-7
-1.297, -5.742e-7
-1.296, -6.038e-7
-1.295, -6.137e-7
-1.294, -5.150e-7
-1.293, -5.742e-7
-1.292, -7.419e-7
-1.291, -7.025e-7
-1.290, -6.926e-7
-1.289, -6.433e-7
-1.288, -7.025e-7
-1.287, -5.841e-7
-1.286, -6.038e-7
-1.285, -6.531e-7
-1.284, -6.531e-7
-1.283, -6.630e-7
-1.282, -7.518e-7
-1.281, -6.926e-7
-1.280, -7.123e-7
-1.279, -7.222e-7
-1.278, -6.827e-7
-1.277, -7.715e-7
-1.276, -7.617e-7
-1.275, -7.025e-7
-1.274, -7.814e-7
-1.273, -6.334e-7
-1.272, -6.334e-7
-1.271, -6.531e-7
-1.270, -6.334e-7
-1.269, -5.939e-7
-1.268, -7.025e-7
-1.267, -7.222e-7
-1.266, -7.222e-7
-1.265, -6.433e-7
-1.264, -7.518e-7
-1.263, -8.110e-7
-1.262, -7.222e-7
-1.261, -7.222e-7
-1.260, -7.518e-7
-1.259, -7.025e-7
-1.258, -7.715e-7
-1.257, -6.137e-7
-1.256, -6.235e-7
-1.255, -7.814e-7
-1.254, -8.504e-7
-1.253, -7.025e-7
-1.252, -7.617e-7
-1.251, -7.617e-7
-1.250, -7.123e-7
-1.249, -7.123e-7
-1.248, -7.222e-7
-1.247, -7.123e-7
-1.246, -7.617e-7
-1.245, -7.025e-7
-1.244, -5.939e-7
-1.243, -6.729e-7
-1.242, -6.827e-7
-1.241, -6.729e-7
-1.240, -6.729e-7
-1.239, -6.729e-7
-1.238, -8.307e-7
-1.237, -7.419e-7
-1.236, -8.011e-7
-1.235, -8.702e-7
-1.234, -8.307e-7
-1.233, -7.715e-7
-1.232, -6.827e-7
-1.231, -7.419e-7
-1.230, -5.545e-7
-1.229, -7.912e-7
-1.228, -8.800e-7
-1.227, -7.518e-7
-1.226, -8.899e-7
-1.225, -7.222e-7
-1.224, -7.912e-7
-1.223, -9.096e-7
-1.222, -8.603e-7
-1.221, -9.392e-7
-1.220, -8.899e-7
-1.219, -8.307e-7
-1.218, -8.899e-7
-1.217, -8.011e-7
-1.216, -9.195e-7
-1.215, -8.307e-7
-1.214, -8.998e-7
-1.213, -8.307e-7
-1.212, -9.195e-7
-1.211, -7.222e-7
-1.210, -7.025e-7
-1.209, -8.603e-7
-1.208, -8.702e-7
-1.207, -8.011e-7
-1.206, -8.011e-7
-1.205, -8.208e-7
-1.204, -8.998e-7
-1.203, -9.294e-7
-1.202, -9.392e-7
-1.201, -8.998e-7
-1.200, -8.504e-7
-1.199, -8.702e-7
-1.198, -8.406e-7
-1.197, -7.617e-7
-1.196, -8.899e-7
-1.195, -9.688e-7
-1.194, -9.294e-7
-1.193, -9.984e-7
-1.192, -8.406e-7
-1.191, -8.603e-7
-1.190, -8.998e-7
-1.189, -9.294e-7
-1.188, -9.294e-7
-1.187, -9.886e-7
-1.186, -1.008e-6
-1.185, -7.715e-7
-1.184, -8.603e-7
-1.183, -8.504e-7
-1.182, -9.294e-7
-1.181, -8.998e-7
-1.180, -8.406e-7
-1.179, -9.392e-7
-1.178, -9.787e-7
-1.177, -9.688e-7
-1.176, -9.195e-7
-1.175, -8.603e-7
-1.174, -9.590e-7
-1.173, -8.899e-7
-1.172, -9.096e-7
-1.171, -1.018e-6
-1.170, -9.590e-7
-1.169, -9.688e-7
-1.168, -8.702e-7
-1.167, -9.195e-7
-1.166, -9.590e-7
-1.165, -8.998e-7
-1.164, -1.038e-6
-1.163, -9.886e-7
-1.162, -8.800e-7
-1.161, -9.294e-7
-1.160, -8.800e-7
-1.159, -8.307e-7
-1.158, -9.195e-7
-1.157, -7.419e-7
-1.156, -9.096e-7
-1.155, -8.702e-7
-1.154, -9.688e-7
-1.153, -9.195e-7
-1.152, -1.058e-6
-1.151, -1.087e-6
-1.150, -1.067e-6
-1.149, -1.067e-6
-1.148, -1.008e-6
-1.147, -9.886e-7
-1.146, -9.787e-7
-1.145, -9.096e-7
-1.144, -1.087e-6
-1.143, -9.886e-7
-1.142, -1.048e-6
-1.141, -1.058e-6
-1.140, -1.018e-6
-1.139, -1.117e-6
-1.138, -1.067e-6
-1.137, -1.058e-6
-1.136, -1.107e-6
-1.135, -1.028e-6
-1.134, -1.008e-6
-1.133, -1.038e-6
-1.132, -9.787e-7
-1.131, -1.087e-6
-1.130, -1.008e-6
-1.129, -1.176e-6
-1.128, -1.077e-6
-1.127, -1.156e-6
-1.126, -1.255e-6
-1.125, -1.117e-6
-1.124, -1.285e-6
-1.123, -1.137e-6
-1.122, -1.146e-6
-1.121, -1.206e-6
-1.120, -1.107e-6
-1.119, -1.058e-6
-1.118, -1.077e-6
-1.117, -1.235e-6
-1.116, -1.117e-6
-1.115, -1.058e-6
-1.114, -1.186e-6
-1.113, -1.176e-6
-1.112, -1.235e-6
-1.111, -1.275e-6
-1.110, -1.275e-6
-1.109, -1.166e-6
-1.108, -1.186e-6
-1.107, -1.176e-6
-1.106, -1.087e-6
-1.105, -1.196e-6
-1.104, -1.275e-6
-1.103, -1.215e-6
-1.102, -1.235e-6
-1.101, -1.186e-6
-1.100, -1.344e-6
-1.099, -1.354e-6
-1.098, -1.294e-6
-1.097, -1.285e-6
-1.096, -1.265e-6
-1.095, -1.245e-6
-1.094, -1.285e-6
-1.093, -1.235e-6
-1.092, -1.285e-6
-1.091, -1.334e-6
-1.090, -1.255e-6
-1.089, -1.344e-6
-1.088, -1.275e-6
-1.087, -1.413e-6
-1.086, -1.373e-6
-1.085, -1.354e-6
-1.084, -1.462e-6
-1.083, -1.354e-6
-1.082, -1.294e-6
-1.081, -1.393e-6
-1.080, -1.304e-6
-1.079, -1.294e-6
-1.078, -1.294e-6
-1.077, -1.344e-6
-1.076, -1.324e-6
-1.075, -1.363e-6
-1.074, -1.452e-6
-1.073, -1.433e-6
-1.072, -1.482e-6
-1.071, -1.452e-6
-1.070, -1.482e-6
-1.069, -1.502e-6
-1.068, -1.462e-6
-1.067, -1.462e-6
-1.066, -1.452e-6
-1.065, -1.462e-6
-1.064, -1.403e-6
-1.063, -1.403e-6
-1.062, -1.452e-6
-1.061, -1.551e-6
-1.060, -1.462e-6
-1.059, -1.452e-6
-1.058, -1.541e-6
-1.057, -1.502e-6
-1.056, -1.541e-6
-1.055, -1.531e-6
-1.054, -1.581e-6
-1.053, -1.492e-6
-1.052, -1.482e-6
-1.051, -1.551e-6
-1.050, -1.521e-6
-1.049, -1.650e-6
-1.048, -1.521e-6
-1.047, -1.630e-6
-1.046, -1.561e-6
-1.045, -1.630e-6
-1.044, -1.620e-6
-1.043, -1.561e-6
-1.042, -1.590e-6
-1.041, -1.689e-6
-1.040, -1.650e-6
-1.039, -1.610e-6
-1.038, -1.521e-6
-1.037, -1.581e-6
-1.036, -1.640e-6
-1.035, -1.689e-6
-1.034, -1.729e-6
-1.033, -1.748e-6
-1.032, -1.699e-6
-1.031, -1.827e-6
-1.030, -1.640e-6
-1.029, -1.719e-6
-1.028, -1.659e-6
-1.027, -1.758e-6
-1.026, -1.669e-6
-1.025, -1.729e-6
-1.024, -1.798e-6
-1.023, -1.738e-6
-1.022, -1.837e-6
-1.021, -1.847e-6
-1.020, -1.758e-6
-1.019, -1.886e-6
-1.018, -1.778e-6
-1.017, -1.906e-6
-1.016, -1.916e-6
-1.015, -1.807e-6
-1.014, -1.955e-6
-1.013, -1.817e-6
-1.012, -1.817e-6
-1.011, -1.926e-6
-1.010, -1.896e-6
-1.009, -1.916e-6
-1.008, -1.837e-6
-1.007, -2.005e-6
-1.006, -1.985e-6
-1.005, -1.975e-6
-1.004, -2.064e-6
-1.003, -1.926e-6
-1.002, -1.985e-6
-1.001, -1.955e-6
