Potential V vs RHE, Current mA cm-2
0.013299999999999867,1.3937735726270342
0.012299999999999978,0.2429059301868268
0.011299999999999866,-0.5848416513642062
0.010299999999999976,-1.3008270402259012
0.009299999999999864,-1.9494721712140204
0.008299999999999974,-2.4898918877624645
0.007299999999999862,-2.9440142150191413
0.006299999999999972,-3.3740864501781123
0.00529999999999986,-3.795670417537894
0.0042999999999999705,-4.23564563179592
0.0032999999999998586,-4.60629999236056
0.0022999999999999687,-4.928854168729788
0.0012999999999998568,-5.247164211199421
0.00029999999999996696,-5.57537723276811
-0.000700000000000145,-5.917737367335448
-0.0017000000000000348,-6.231803275905486
-0.0027000000000001467,-6.482207175981599
-0.0037000000000000366,-6.739684632557035
-0.0047000000000001485,-7.033944582928963
-0.005700000000000038,-7.3381075123999455
-0.00670000000000015,-7.615390927173493
-0.00770000000000004,-7.845988869051494
-0.008700000000000152,-8.080830944829088
-0.009700000000000042,-8.33406426750493
-0.010700000000000154,-8.626909506576993
-0.011700000000000044,-8.880142829252835
-0.012700000000000156,-9.09234952423259
-0.013700000000000045,-9.31162977571167
-0.014700000000000157,-9.583254345285757
-0.015700000000000047,-9.86195247135917
-0.01670000000000016,-10.109526948835553
-0.01770000000000005,-10.324563066415037
-0.01870000000000016,-10.531110916195333
-0.01970000000000005,-10.79424721797023
-0.020700000000000163,-11.080018900542967
-0.021700000000000053,-11.337496357118404
-0.022700000000000164,-11.54970305209816
-0.023700000000000054,-11.77181272617697
-0.024700000000000166,-12.037778450551597
-0.025700000000000056,-12.34477080262231
-0.026700000000000168,-12.602248259197747
-0.027700000000000058,-12.837090334975343
-0.02870000000000017,-13.07193241075294
-0.02970000000000006,-13.34214226902716
-0.03070000000000017,-13.657622888897064
-0.03170000000000006,-13.929247458471151
-0.03270000000000017,-14.161260111649016
-0.03370000000000006,-14.415908145624723
-0.034700000000000175,-14.71299751859638
-0.035700000000000065,-15.03838111756534
-0.03670000000000018,-15.335470490536997
-0.03770000000000007,-15.590118524512702
-0.03870000000000018,-15.858913671487063
-0.03970000000000007,-16.170150157457368
-0.04070000000000018,-16.52382798242363
-0.04170000000000007,-16.849211581392588
-0.04270000000000018,-17.118006728366943
-0.04370000000000007,-17.40094898833995
-0.044700000000000184,-17.74047970030756
-0.045700000000000074,-18.09415752527382
-0.046700000000000186,-18.419541124242777
-0.047700000000000076,-18.688336271217132
-0.04870000000000019,-18.999572757187444
-0.04970000000000008,-19.339103469155052
-0.05070000000000019,-19.678634181122664
-0.05170000000000008,-20.00401778009162
-0.05270000000000019,-20.315254266061928
-0.05370000000000008,-20.69722631702549
-0.05470000000000019,-21.121639706984997
-0.05570000000000008,-21.531905983945855
-0.056700000000000195,-21.91387803490942
-0.057700000000000085,-22.253408746877028
-0.058700000000000196,-22.592939458844636
-0.059700000000000086,-22.989058622806844
-0.0607000000000002,-23.385177786769056
-0.06170000000000009,-23.795444063729917
-0.0627000000000002,-24.16326900169483
-0.06370000000000009,-24.531093939659737
-0.0647000000000002,-24.941360216620595
-0.06570000000000009,-25.42236205857471
-0.0667000000000002,-25.832628335535567
-0.0677000000000001,-26.18630616050183
-0.0687000000000002,-26.568278211465387
-0.0697000000000001,-26.97854448842625
-0.07070000000000021,-27.473693443379013
-0.0717000000000001,-27.898106833338524
-0.07270000000000021,-28.294225997300735
-0.0737000000000001,-28.732786500258893
-0.07470000000000021,-29.18549411621571
-0.0757000000000001,-29.694790184167122
-0.07670000000000021,-30.161644913122586
-0.0777000000000001,-30.571911190083444
-0.07870000000000021,-31.038765919038905
-0.0797000000000001,-31.519767760993016
-0.08070000000000022,-32.01491671594578
-0.0817000000000001,-32.51006567089854
-0.08270000000000022,-32.93447906085806
-0.08370000000000011,-33.38718667681487
-0.08470000000000022,-33.910629857764924
-0.08570000000000011,-34.41992592571634
-0.08670000000000022,-34.9150748806691
-0.08770000000000011,-35.268752705635364
-0.08870000000000022,-35.636577643600276
-0.08970000000000011,-36.20246216354629
-0.09070000000000022,-36.8532293614842
-0.09170000000000011,-37.43326099442887
-0.09270000000000023,-37.90011572338433
-0.09370000000000012,-38.40941179133574
-0.09470000000000023,-38.93285497228581
-0.09570000000000012,-39.45629815323587
-0.09670000000000023,-39.95144710818864
-0.09770000000000012,-40.43244895014274
-0.09870000000000023,-40.8993036790982
-0.09970000000000012,-41.43689397304693
-0.10070000000000023,-42.04521983198889
-0.10170000000000012,-42.6111043519349
-0.10270000000000024,-43.120400419886316
-0.10370000000000013,-43.657990713835034
-0.10470000000000024,-44.238022346779694
-0.10570000000000013,-44.84634820572166
-0.10670000000000024,-45.38393849967037
-0.10770000000000013,-45.89323456762179
-0.10870000000000024,-46.41667774857186
-0.10970000000000013,-46.92597381652327
-0.11070000000000024,-47.534299675465235
-0.11170000000000013,-48.114331308409895
-0.11270000000000002,-48.75095139334916
-0.11370000000000013,-49.40171859128708
-0.11470000000000002,-49.967603111233096
-0.11570000000000014,-50.71740010016157
-0.11670000000000003,-51.127666377122424
-0.11770000000000014,-51.52378554108463
-0.11870000000000003,-52.075522948032
-0.11970000000000014,-52.76873148496586
-0.12070000000000003,-53.419498682903786
-0.12170000000000014,-53.999530315848446
-0.12270000000000003,-54.52297349679851
-0.12370000000000014,-55.018122451751275
-0.12470000000000003,-55.612301197694585
-0.12570000000000014,-56.23477416963521
-0.12670000000000003,-56.89968848057178
-0.12770000000000015,-57.50801433951374
-0.12870000000000004,-58.17292865045031
-0.12970000000000015,-58.809548735389576
-0.13070000000000004,-59.502757272323436
-0.13170000000000015,-60.11108313126541
-0.13270000000000004,-60.59208497321952
-0.13370000000000015,-61.12967526716824
-0.13470000000000004,-61.83703091710075
-0.13570000000000015,-62.48779811503867
-0.13670000000000004,-63.12441819997794
-0.13770000000000016,-63.76103828491719
-0.13870000000000005,-64.44009970885242
-0.13970000000000016,-65.14745535878494
-0.14070000000000005,-65.8972523477134
-0.14170000000000016,-66.51972531965401
-0.14270000000000005,-67.05731561360274
-0.14370000000000016,-67.56661168155415
-0.14470000000000005,-68.30226155748396
-0.14570000000000016,-69.0944998854084
-0.14670000000000005,-69.6603844053544
-0.14770000000000016,-70.01406223032066
-0.14870000000000005,-70.56579963726803
-0.14970000000000017,-71.30144951319785
-0.15070000000000006,-72.16442340611552
-0.15170000000000017,-72.84348483005074
-0.15270000000000006,-73.4235164629954
-0.15370000000000017,-74.06013654793468
-0.15470000000000006,-74.76749219786718
-0.15570000000000017,-75.46070073480107
-0.15670000000000006,-76.08317370674168
-0.15770000000000017,-76.66320533968634
-0.15870000000000006,-77.28567831162695
-0.15970000000000018,-77.90815128356756
-0.16070000000000007,-78.50233002951089
-0.16170000000000018,-79.18139145344611
-0.16270000000000007,-79.81801153838538
-0.16370000000000018,-80.55366141431519
-0.16470000000000007,-81.20442861225311
-0.16570000000000018,-81.89763714918698
-0.16670000000000007,-82.57669857312219
-0.16770000000000018,-83.39723112704392
-0.16870000000000007,-83.96311564698992
-0.16970000000000018,-84.34508769795349
-0.17070000000000007,-84.98170778289276
-0.17170000000000019,-85.73150477182124
-0.17270000000000008,-86.42471330875509
-0.1737000000000002,-87.10377473269031
-0.17470000000000008,-87.79698326962418
-0.1757000000000002,-88.49019180655806
-0.17670000000000008,-89.0985176655
-0.1777000000000002,-89.69269641144332
-0.17870000000000008,-90.28687515738663
-0.1797000000000002,-90.92349524232591
-0.18070000000000008,-91.57426244026381
-0.1817000000000002,-92.26747097719769
-0.18270000000000008,-92.96067951413156
-0.1837000000000002,-93.56900537307352
-0.1847000000000001,-94.20562545801279
-0.1857000000000002,-94.85639265595071
-0.1867000000000001,-95.52130696688728
-0.1877000000000002,-96.05889726083599
-0.1887000000000001,-96.69551734577524
-0.1897000000000002,-97.38872588270912
-0.1907000000000001,-98.16681709763489
-0.1917000000000001,-98.81758429557281
-0.19269999999999998,-99.42591015451478
-0.1937000000000001,-99.97764756146215
-0.19469999999999998,-100.6425618723987
-0.1957000000000001,-101.40650597432582
-0.19669999999999999,-102.0148318332678
-0.1977000000000001,-102.50998078822056
-0.1987,-103.14660087315983
-0.1997000000000001,-103.7266325061045
-0.2007,-104.27836991305185
-0.2017000000000001,-104.87254865899517
-0.2027,-105.29696204895468
-0.2037000000000001,-105.7496696649115
-0.2047,-106.2589657328629
-0.2057000000000001,-106.78240891381296
-0.2067,-107.39073477275493
-0.2077000000000001,-107.8292952757131
-0.2087,-108.15467887468205
-0.2097000000000001,-108.72056339462807
-0.2107,-109.44206615755924
-0.2117000000000001,-109.92306799951335
-0.2127,-110.51724674545667
-0.2137000000000001,-111.15386683039593
-0.2147,-111.80463402833385
-0.2157000000000001,-112.46954833927042
-0.2167,-112.97884440722183
-0.21770000000000012,-113.43155202317865
-0.2187,-113.983289430126
-0.21970000000000012,-114.43599704608283
-0.2207,-114.88870466203963
-0.22170000000000012,-115.45458918198564
-0.2227,-115.9214439109411
-0.22370000000000012,-116.38829863989656
-0.2247,-116.96833027284121
-0.22570000000000012,-117.50592056678994
-0.2267,-117.88789261775351
-0.22770000000000012,-118.2557175557184
-0.22870000000000001,-118.58110115468739
-0.22970000000000013,-118.86404341466037
-0.23070000000000002,-119.30260391761853
-0.23170000000000013,-119.89678266356185
-0.23270000000000002,-120.43437295751058
-0.23370000000000013,-120.97196325145929
-0.23470000000000002,-121.48125931941068
-0.23570000000000013,-121.91981982236886
-0.23670000000000002,-122.16032074334592
-0.2376999999999999,-122.52814568131083
-0.23870000000000002,-123.12232442725416
-0.2396999999999999,-123.63162049520555
-0.24070000000000003,-124.09847522416102
-0.24169999999999991,-124.50874150112188
-0.24270000000000003,-124.89071355208544
-0.24369999999999992,-125.24439137705171
-0.24470000000000003,-125.64051054101391
-0.24569999999999992,-126.00833547897882
-0.24670000000000003,-126.44689598193698
-0.24769999999999992,-126.82886803290056
-0.24870000000000003,-127.09766317987489
-0.24969999999999992,-127.52207656983438
-0.25070000000000003,-128.15869665477368
-0.2516999999999999,-128.82361096571023
-0.25270000000000004,-129.09240611268459
-0.2536999999999999,-129.30461280766437
-0.25470000000000004,-129.47437816364814
-0.2556999999999999,-129.75732042362114
-0.25670000000000004,-130.12514536158608
-0.25769999999999993,-130.4363818475564
-0.25870000000000004,-130.39394050856043
-0.25969999999999993,-130.30905783056855
-0.26070000000000004,-130.29491071756988
-0.26169999999999993,-130.492970299551
-0.26270000000000004,-130.9739721415051
-0.26369999999999993,-131.6530335654403
-0.26470000000000005,-132.3462421023742
-0.26569999999999994,-132.92627373531886
-0.26670000000000005,-133.26580444728646
-0.26769999999999994,-133.5911880462554
-0.26870000000000005,-133.8741303062284
-0.26969999999999994,-134.24195524419332
-0.27070000000000005,-134.38342637417986
-0.27169999999999994,-134.75125131214475
-0.27270000000000005,-135.1615175891056
-0.27369999999999994,-135.18981181510293
-0.27470000000000006,-135.57178386606648
-0.27569999999999995,-136.0527857080206
-0.27670000000000006,-136.37816930698955
-0.27769999999999995,-136.74599424495443
-0.27870000000000006,-136.88746537494094
-0.27969999999999995,-137.22699608690854
-0.28070000000000006,-137.5806739118748
-0.28169999999999995,-137.86361617184784
-0.28270000000000006,-138.27388244880868
-0.28369999999999995,-138.585118934779
-0.28470000000000006,-138.92464964674662
-0.28569999999999995,-139.43394571469804
-0.28670000000000007,-139.87250621765617
-0.28769999999999996,-140.22618404262244
-0.28870000000000007,-140.608156093586
-0.28969999999999996,-141.14574638753473
-0.29070000000000007,-141.61260111649017
-0.29169999999999996,-141.89554337646317
-0.29270000000000007,-142.31995676642268
-0.29369999999999996,-142.7443701563822
-0.2947000000000001,-143.0273124163552
-0.29569999999999996,-143.0273124163552
-0.2967000000000001,-143.0273124163552
-0.29769999999999996,-143.0273124163552
-0.2987000000000001,-143.0273124163552
-0.29969999999999997,-143.0273124163552
-0.3007000000000001,-143.0273124163552
-0.30169999999999997,-143.0273124163552
-0.3027000000000001,-143.0273124163552
-0.30369999999999997,-143.0273124163552
-0.3047000000000001,-143.0273124163552
-0.30569999999999997,-143.0273124163552
-0.3067000000000001,-143.0273124163552
-0.3077,-143.0273124163552
-0.3087000000000001,-143.0273124163552
-0.3097,-143.0273124163552
-0.3107000000000001,-143.0273124163552
-0.3117,-143.0273124163552
-0.3127000000000001,-143.0273124163552
-0.3137,-143.0273124163552
-0.3147000000000001,-143.0273124163552
-0.3157,-143.0273124163552
-0.3167000000000001,-143.0273124163552
-0.3177,-143.0273124163552
-0.3187000000000001,-143.0273124163552
-0.3197,-143.0273124163552
-0.3207000000000001,-143.0273124163552
-0.3217,-143.0273124163552
-0.3227000000000001,-143.0273124163552
-0.3237,-143.0273124163552
-0.3247000000000001,-143.0273124163552
-0.3257,-143.0273124163552
-0.3267000000000001,-143.0273124163552
-0.3277,-143.0273124163552
-0.3287000000000001,-143.0273124163552
-0.3297,-143.0273124163552
-0.3307000000000001,-143.0273124163552
-0.3317,-143.0273124163552
-0.3327000000000001,-143.0273124163552
-0.3337,-143.0273124163552
-0.3347000000000001,-143.0273124163552
-0.3357,-143.0273124163552
-0.3367000000000001,-143.0273124163552
-0.3377,-143.0273124163552
-0.3387000000000001,-143.0273124163552
-0.3397,-143.0273124163552
-0.3407000000000001,-143.0273124163552
-0.3417,-143.0273124163552
-0.3427000000000001,-143.0273124163552
-0.3437,-143.0273124163552
-0.3447000000000001,-143.0273124163552
-0.3457,-143.0273124163552
-0.3467000000000001,-143.0273124163552
-0.3477,-143.0273124163552
-0.3487000000000001,-143.0273124163552
-0.3497,-143.0273124163552
-0.3507000000000001,-143.0273124163552
-0.3517,-143.0273124163552
-0.3527000000000001,-143.0273124163552
-0.3537,-143.0273124163552
-0.3547000000000001,-143.0273124163552
-0.3557,-143.0273124163552
-0.35670000000000013,-143.0273124163552
-0.3577,-143.0273124163552
-0.35870000000000013,-143.0273124163552
-0.3597,-143.0273124163552
-0.36070000000000013,-143.0273124163552
-0.3617,-143.0273124163552
-0.3626999999999999,-143.0273124163552
-0.3637,-143.0273124163552
-0.3646999999999999,-143.0273124163552
-0.3657,-143.0273124163552
-0.3666999999999999,-143.0273124163552
-0.3677,-143.0273124163552
-0.3686999999999999,-143.0273124163552
-0.36970000000000003,-143.0273124163552
-0.3706999999999999,-143.0273124163552
-0.37170000000000003,-143.0273124163552
-0.3726999999999999,-143.0273124163552
-0.37370000000000003,-143.0273124163552
-0.3746999999999999,-143.0273124163552
-0.37570000000000003,-143.0273124163552
-0.3766999999999999,-143.0273124163552
-0.37770000000000004,-143.0273124163552
-0.3786999999999999,-143.0273124163552
-0.37970000000000004,-143.0273124163552
-0.3806999999999999,-143.0273124163552
-0.38170000000000004,-143.0273124163552
-0.38269999999999993,-143.0273124163552
-0.38370000000000004,-143.0273124163552
-0.38469999999999993,-143.0273124163552
-0.38570000000000004,-143.0273124163552
-0.38669999999999993,-143.0273124163552
-0.38570000000000004,-143.0273124163552
-0.38469999999999993,-143.0273124163552
-0.38370000000000004,-143.0273124163552
-0.38269999999999993,-143.0273124163552
-0.38170000000000004,-143.0273124163552
-0.3806999999999999,-143.0273124163552
-0.37970000000000004,-143.0273124163552
-0.3786999999999999,-143.0273124163552
-0.37770000000000004,-143.0273124163552
-0.3766999999999999,-141.75407224647665
-0.37570000000000003,-139.39150437570208
-0.3746999999999999,-137.08552495692206
-0.37370000000000003,-134.7936926511407
-0.3726999999999999,-132.55844879735392
-0.37170000000000003,-130.29491071756988
-0.3706999999999999,-128.144549541775
-0.36970000000000003,-126.09321815697072
-0.3686999999999999,-124.04188677216642
-0.3677,-121.87737848337291
-0.3666999999999999,-119.5996932905902
-0.3657,-117.43518500179668
-0.3646999999999999,-115.68094298996405
-0.3637,-114.05402499511925
-0.3626999999999999,-112.42710700027446
-0.3617,-110.4465111804634
-0.36070000000000013,-108.55079803864427
-0.3597,-106.85314447880621
-0.35870000000000013,-105.15549091896818
-0.3577,-103.45783735913014
-0.35670000000000013,-101.77433091229074
-0.3557,-100.10497157844999
-0.3547000000000001,-98.4497593576079
-0.3537,-96.61063466778336
-0.3527000000000001,-94.87053976894937
-0.3517,-93.20118043510863
-0.3507000000000001,-91.71573357025032
-0.3497,-90.37175783537855
-0.3487000000000001,-89.0985176655
-0.3477,-87.71210059163228
-0.3467000000000001,-86.33983063076319
-0.3457,-84.81194242690896
-0.3447000000000001,-83.36893690104661
-0.3437,-81.99666694017753
-0.3427000000000001,-80.6385440923071
-0.3417,-79.35115680942992
-0.3407000000000001,-78.06376952655272
-0.3397,-76.83297069567014
-0.3387000000000001,-75.64461320378352
-0.3377,-74.42796148589959
-0.3367000000000001,-73.23960399401295
-0.3357,-72.10783495412092
-0.3347000000000001,-70.76385921924914
-0.3337,-69.54720750136521
-0.3327000000000001,-68.41543846147317
-0.3317,-67.21293385658788
-0.3307000000000001,-66.13775326869046
-0.3297,-65.20404381077954
-0.3287000000000001,-64.22789301387266
-0.3277,-63.20930087796983
-0.3267000000000001,-62.13412029007241
-0.3257,-60.974057024183075
-0.3247000000000001,-59.828140871292405
-0.3237,-58.82369584838823
-0.3227000000000001,-57.79095659948675
-0.3217,-56.72992312458797
-0.3207000000000001,-55.51327140670405
-0.3197,-54.2966196888201
-0.3187000000000001,-53.30632177891458
-0.3177,-52.41505365999961
-0.3167000000000001,-51.481344202088685
-0.3157,-50.547634744177756
-0.3147000000000001,-49.571483947270885
-0.3137,-48.69436294135456
-0.3127000000000001,-47.76065348344364
-0.3117,-46.72791423454216
-0.3107000000000001,-45.652733646644734
-0.3097,-44.690729962736505
-0.3087000000000001,-43.81360895682018
-0.3077,-42.99307640289846
-0.3067000000000001,-42.10180828398349
-0.30569999999999997,-41.15395171307392
-0.3047000000000001,-40.29097782015624
-0.30369999999999997,-39.42800392723857
-0.3027000000000001,-38.5367358083236
-0.30169999999999997,-37.631320576409976
-0.3007000000000001,-36.768346683492304
-0.29969999999999997,-35.90537279057463
-0.2987000000000001,-35.07069312365426
-0.29769999999999996,-34.236013456733886
-0.2967000000000001,-33.373039563816214
-0.29569999999999996,-32.48177144490124
-0.2947000000000001,-31.56220909998897
-0.29369999999999996,-30.7558236590659
-0.29270000000000007,-29.850408427152274
-0.29169999999999996,-29.015728760231898
-0.29070000000000007,-28.19519620631018
-0.28969999999999996,-27.40295787838576
-0.28870000000000007,-26.667308002455943
-0.28769999999999996,-25.91751101352747
-0.28670000000000007,-25.0828313466071
-0.28569999999999995,-24.24815167968673
-0.28470000000000006,-23.44176623876366
-0.28369999999999995,-22.67782213683654
-0.28270000000000006,-21.97046648690402
-0.28169999999999995,-21.2065223849769
-0.28070000000000006,-20.400136944053827
-0.27969999999999995,-19.636192842126707
-0.27870000000000006,-18.858101627200938
-0.27769999999999995,-18.13659886426977
-0.27670000000000006,-17.40094898833995
-0.27569999999999995,-16.60871066041553
-0.27470000000000006,-15.87306078448571
-0.27369999999999994,-15.193999360550496
-0.27270000000000005,-14.543232162612577
-0.27169999999999994,-13.838705935279789
-0.27070000000000005,-13.09456779155078
-0.26969999999999994,-12.398529832017182
-0.26870000000000005,-11.759080324478186
-0.26769999999999994,-11.095580724841483
-0.26670000000000005,-10.379736807109774
-0.26569999999999994,-9.658234044178606
