Jan. 8, 2025   06:52:43
Cyclic Voltammetry
File: c:/users/guazh/data/banditlqround7_x0exp772_r5/2025-01-07-exp795\exp795-2025-01-08t06_47_51-arkoh\exp795_cv_50mvs_efin_-1400mv.bin
Data Source:  Experiment
Instrument Model:  CHI760E
Header: CV ran at 50 mVs
Note: 

Init E (V) = -1
High E (V) = -1
Low E (V) = -1.4
Final E (V) = -1
Init P/N = N
Scan Rate (V/s) = 0.05
Segment = 7
Sample Interval (V) = 0.001
Quiet Time (sec) = 60
Sensitivity (A/V) = 0.001
Comp R (ohm) = 1.9

Results:

Channel 1:
Segment 1:

Segment 2:

Segment 3:

Segment 4:

Segment 5:

Segment 6:

Segment 7:

Potential/V, Current/A

-1.000, -6.425e-7
-1.001, -6.296e-7
-1.002, -5.339e-7
-1.003, -3.070e-7
-1.004, -8.504e-8
-1.005, -2.202e-7
-1.006, -2.666e-7
-1.007, -2.488e-7
-1.008, -6.433e-8
-1.009, 1.458e-7
-1.010, 6.097e-8
-1.011, 7.084e-8
-1.012, 5.722e-9
-1.013, 2.376e-7
-1.014, 3.915e-7
-1.015, 3.204e-7
-1.016, 1.656e-7
-1.017, 1.823e-7
-1.018, 4.398e-7
-1.019, 6.006e-7
-1.020, 5.720e-7
-1.021, 3.668e-7
-1.022, 4.083e-7
-1.023, 5.020e-7
-1.024, 7.980e-7
-1.025, 6.825e-7
-1.026, 5.849e-7
-1.027, 6.154e-7
-1.028, 8.591e-7
-1.029, 9.223e-7
-1.030, 9.025e-7
-1.031, 7.871e-7
-1.032, 7.654e-7
-1.033, 9.459e-7
-1.034, 1.189e-6
-1.035, 1.156e-6
-1.036, 1.007e-6
-1.037, 9.706e-7
-1.038, 1.168e-6
-1.039, 1.330e-6
-1.040, 1.290e-6
-1.041, 1.189e-6
-1.042, 1.141e-6
-1.043, 1.382e-6
-1.044, 1.535e-6
-1.045, 1.455e-6
-1.046, 1.317e-6
-1.047, 1.365e-6
-1.048, 1.525e-6
-1.049, 1.716e-6
-1.050, 1.618e-6
-1.051, 1.561e-6
-1.052, 1.551e-6
-1.053, 1.717e-6
-1.054, 1.891e-6
-1.055, 1.824e-6
-1.056, 1.722e-6
-1.057, 1.705e-6
-1.058, 1.890e-6
-1.059, 2.114e-6
-1.060, 2.017e-6
-1.061, 1.899e-6
-1.062, 1.876e-6
-1.063, 2.041e-6
-1.064, 2.128e-6
-1.065, 2.163e-6
-1.066, 2.072e-6
-1.067, 2.078e-6
-1.068, 2.245e-6
-1.069, 2.471e-6
-1.070, 2.377e-6
-1.071, 2.275e-6
-1.072, 2.196e-6
-1.073, 2.425e-6
-1.074, 2.545e-6
-1.075, 2.569e-6
-1.076, 2.438e-6
-1.077, 2.382e-6
-1.078, 2.596e-6
-1.079, 2.719e-6
-1.080, 2.744e-6
-1.081, 2.588e-6
-1.082, 2.498e-6
-1.083, 2.783e-6
-1.084, 2.901e-6
-1.085, 2.913e-6
-1.086, 2.831e-6
-1.087, 2.752e-6
-1.088, 2.940e-6
-1.089, 3.082e-6
-1.090, 3.079e-6
-1.091, 2.942e-6
-1.092, 2.899e-6
-1.093, 3.150e-6
-1.094, 3.265e-6
-1.095, 3.344e-6
-1.096, 3.122e-6
-1.097, 3.111e-6
-1.098, 3.304e-6
-1.099, 3.304e-6
-1.100, 3.420e-6
-1.101, 3.272e-6
-1.102, 3.229e-6
-1.103, 3.488e-6
-1.104, 3.619e-6
-1.105, 3.617e-6
-1.106, 3.472e-6
-1.107, 3.441e-6
-1.108, 3.633e-6
-1.109, 3.758e-6
-1.110, 3.846e-6
-1.111, 3.642e-6
-1.112, 3.603e-6
-1.113, 3.779e-6
-1.114, 3.959e-6
-1.115, 3.961e-6
-1.116, 3.735e-6
-1.117, 3.767e-6
-1.118, 3.981e-6
-1.119, 4.144e-6
-1.120, 4.119e-6
-1.121, 4.046e-6
-1.122, 3.953e-6
-1.123, 4.140e-6
-1.124, 4.260e-6
-1.125, 4.272e-6
-1.126, 4.081e-6
-1.127, 4.123e-6
-1.128, 4.301e-6
-1.129, 4.461e-6
-1.130, 4.495e-6
-1.131, 4.289e-6
-1.132, 4.296e-6
-1.133, 4.472e-6
-1.134, 4.644e-6
-1.135, 4.706e-6
-1.136, 4.550e-6
-1.137, 4.451e-6
-1.138, 4.679e-6
-1.139, 4.860e-6
-1.140, 4.831e-6
-1.141, 4.641e-6
-1.142, 4.623e-6
-1.143, 4.879e-6
-1.144, 5.011e-6
-1.145, 4.994e-6
-1.146, 4.810e-6
-1.147, 4.786e-6
-1.148, 4.881e-6
-1.149, 5.176e-6
-1.150, 5.164e-6
-1.151, 5.006e-6
-1.152, 4.980e-6
-1.153, 5.246e-6
-1.154, 5.335e-6
-1.155, 5.319e-6
-1.156, 5.123e-6
-1.157, 5.119e-6
-1.158, 5.373e-6
-1.159, 5.557e-6
-1.160, 5.505e-6
-1.161, 5.492e-6
-1.162, 5.346e-6
-1.163, 5.426e-6
-1.164, 5.677e-6
-1.165, 5.739e-6
-1.166, 5.604e-6
-1.167, 5.529e-6
-1.168, 5.734e-6
-1.169, 5.910e-6
-1.170, 5.880e-6
-1.171, 5.772e-6
-1.172, 5.640e-6
-1.173, 5.785e-6
-1.174, 6.002e-6
-1.175, 5.959e-6
-1.176, 5.973e-6
-1.177, 5.889e-6
-1.178, 6.044e-6
-1.179, 6.221e-6
-1.180, 6.247e-6
-1.181, 6.146e-6
-1.182, 6.114e-6
-1.183, 6.236e-6
-1.184, 6.447e-6
-1.185, 6.385e-6
-1.186, 6.308e-6
-1.187, 6.371e-6
-1.188, 6.337e-6
-1.189, 6.582e-6
-1.190, 6.621e-6
-1.191, 6.554e-6
-1.192, 6.511e-6
-1.193, 6.716e-6
-1.194, 6.863e-6
-1.195, 6.829e-6
-1.196, 6.697e-6
-1.197, 6.739e-6
-1.198, 6.806e-6
-1.199, 7.088e-6
-1.200, 7.054e-6
-1.201, 7.029e-6
-1.202, 6.885e-6
-1.203, 6.973e-6
-1.204, 7.272e-6
-1.205, 7.292e-6
-1.206, 7.135e-6
-1.207, 7.165e-6
-1.208, 7.262e-6
-1.209, 7.506e-6
-1.210, 7.463e-6
-1.211, 7.419e-6
-1.212, 7.352e-6
-1.213, 7.490e-6
-1.214, 7.807e-6
-1.215, 7.684e-6
-1.216, 7.612e-6
-1.217, 7.582e-6
-1.218, 7.761e-6
-1.219, 7.926e-6
-1.220, 7.948e-6
-1.221, 7.869e-6
-1.222, 7.773e-6
-1.223, 8.042e-6
-1.224, 8.209e-6
-1.225, 8.181e-6
-1.226, 8.139e-6
-1.227, 8.128e-6
-1.228, 8.247e-6
-1.229, 8.489e-6
-1.230, 8.481e-6
-1.231, 8.386e-6
-1.232, 8.386e-6
-1.233, 8.598e-6
-1.234, 8.789e-6
-1.235, 8.756e-6
-1.236, 8.748e-6
-1.237, 8.660e-6
-1.238, 8.802e-6
-1.239, 9.042e-6
-1.240, 9.079e-6
-1.241, 9.043e-6
-1.242, 8.977e-6
-1.243, 9.140e-6
-1.244, 9.418e-6
-1.245, 9.453e-6
-1.246, 9.387e-6
-1.247, 9.252e-6
-1.248, 9.523e-6
-1.249, 9.782e-6
-1.250, 9.772e-6
-1.251, 9.752e-6
-1.252, 9.665e-6
-1.253, 9.799e-6
-1.254, 1.016e-5
-1.255, 1.012e-5
-1.256, 1.012e-5
-1.257, 1.007e-5
-1.258, 1.021e-5
-1.259, 1.051e-5
-1.260, 1.051e-5
-1.261, 1.048e-5
-1.262, 1.041e-5
-1.263, 1.064e-5
-1.264, 1.100e-5
-1.265, 1.091e-5
-1.266, 1.088e-5
-1.267, 1.085e-5
-1.268, 1.108e-5
-1.269, 1.128e-5
-1.270, 1.138e-5
-1.271, 1.137e-5
-1.272, 1.130e-5
-1.273, 1.157e-5
-1.274, 1.183e-5
-1.275, 1.179e-5
-1.276, 1.180e-5
-1.277, 1.177e-5
-1.278, 1.202e-5
-1.279, 1.236e-5
-1.280, 1.232e-5
-1.281, 1.237e-5
-1.282, 1.231e-5
-1.283, 1.251e-5
-1.284, 1.287e-5
-1.285, 1.286e-5
-1.286, 1.287e-5
-1.287, 1.284e-5
-1.288, 1.313e-5
-1.289, 1.342e-5
-1.290, 1.347e-5
-1.291, 1.339e-5
-1.292, 1.346e-5
-1.293, 1.372e-5
-1.294, 1.415e-5
-1.295, 1.412e-5
-1.296, 1.411e-5
-1.297, 1.410e-5
-1.298, 1.433e-5
-1.299, 1.461e-5
-1.300, 1.474e-5
-1.301, 1.485e-5
-1.302, 1.483e-5
-1.303, 1.507e-5
-1.304, 1.543e-5
-1.305, 1.550e-5
-1.306, 1.544e-5
-1.307, 1.550e-5
-1.308, 1.582e-5
-1.309, 1.618e-5
-1.310, 1.627e-5
-1.311, 1.632e-5
-1.312, 1.631e-5
-1.313, 1.662e-5
-1.314, 1.698e-5
-1.315, 1.708e-5
-1.316, 1.714e-5
-1.317, 1.724e-5
-1.318, 1.751e-5
-1.319, 1.794e-5
-1.320, 1.809e-5
-1.321, 1.809e-5
-1.322, 1.810e-5
-1.323, 1.850e-5
-1.324, 1.882e-5
-1.325, 1.904e-5
-1.326, 1.915e-5
-1.327, 1.913e-5
-1.328, 1.957e-5
-1.329, 1.997e-5
-1.330, 2.018e-5
-1.331, 2.026e-5
-1.332, 2.041e-5
-1.333, 2.079e-5
-1.334, 2.122e-5
-1.335, 2.145e-5
-1.336, 2.157e-5
-1.337, 2.167e-5
-1.338, 2.216e-5
-1.339, 2.259e-5
-1.340, 2.283e-5
-1.341, 2.318e-5
-1.342, 2.329e-5
-1.343, 2.375e-5
-1.344, 2.429e-5
-1.345, 2.460e-5
-1.346, 2.480e-5
-1.347, 2.504e-5
-1.348, 2.561e-5
-1.349, 2.622e-5
-1.350, 2.650e-5
-1.351, 2.680e-5
-1.352, 2.707e-5
-1.353, 2.757e-5
-1.354, 2.825e-5
-1.355, 2.868e-5
-1.356, 2.908e-5
-1.357, 2.945e-5
-1.358, 2.996e-5
-1.359, 3.069e-5
-1.360, 3.116e-5
-1.361, 3.150e-5
-1.362, 3.194e-5
-1.363, 3.251e-5
-1.364, 3.333e-5
-1.365, 3.374e-5
-1.366, 3.427e-5
-1.367, 3.463e-5
-1.368, 3.515e-5
-1.369, 3.597e-5
-1.370, 3.645e-5
-1.371, 3.691e-5
-1.372, 3.729e-5
-1.373, 3.791e-5
-1.374, 3.871e-5
-1.375, 3.911e-5
-1.376, 3.946e-5
-1.377, 3.974e-5
-1.378, 4.030e-5
-1.379, 4.094e-5
-1.380, 4.125e-5
-1.381, 4.165e-5
-1.382, 4.173e-5
-1.383, 4.216e-5
-1.384, 4.264e-5
-1.385, 4.284e-5
-1.386, 4.294e-5
-1.387, 4.307e-5
-1.388, 4.341e-5
-1.389, 4.370e-5
-1.390, 4.370e-5
-1.391, 4.381e-5
-1.392, 4.372e-5
-1.393, 4.388e-5
-1.394, 4.429e-5
-1.395, 4.423e-5
-1.396, 4.418e-5
-1.397, 4.405e-5
-1.398, 4.417e-5
-1.399, 4.445e-5
-1.400, 4.291e-5
-1.399, 4.089e-5
-1.398, 3.923e-5
-1.397, 3.814e-5
-1.396, 3.710e-5
-1.395, 3.573e-5
-1.394, 3.473e-5
-1.393, 3.367e-5
-1.392, 3.291e-5
-1.391, 3.221e-5
-1.390, 3.131e-5
-1.389, 3.038e-5
-1.388, 2.945e-5
-1.387, 2.881e-5
-1.386, 2.844e-5
-1.385, 2.773e-5
-1.384, 2.709e-5
-1.383, 2.632e-5
-1.382, 2.585e-5
-1.381, 2.559e-5
-1.380, 2.497e-5
-1.379, 2.434e-5
-1.378, 2.372e-5
-1.377, 2.338e-5
-1.376, 2.315e-5
-1.375, 2.263e-5
-1.374, 2.213e-5
-1.373, 2.160e-5
-1.372, 2.133e-5
-1.371, 2.114e-5
-1.370, 2.077e-5
-1.369, 2.028e-5
-1.368, 1.973e-5
-1.367, 1.951e-5
-1.366, 1.943e-5
-1.365, 1.898e-5
-1.364, 1.859e-5
-1.363, 1.819e-5
-1.362, 1.803e-5
-1.361, 1.784e-5
-1.360, 1.764e-5
-1.359, 1.712e-5
-1.358, 1.677e-5
-1.357, 1.655e-5
-1.356, 1.649e-5
-1.355, 1.624e-5
-1.354, 1.586e-5
-1.353, 1.551e-5
-1.352, 1.533e-5
-1.351, 1.529e-5
-1.350, 1.499e-5
-1.349, 1.471e-5
-1.348, 1.437e-5
-1.347, 1.426e-5
-1.346, 1.423e-5
-1.345, 1.392e-5
-1.344, 1.361e-5
-1.343, 1.328e-5
-1.342, 1.325e-5
-1.341, 1.326e-5
-1.340, 1.295e-5
-1.339, 1.269e-5
-1.338, 1.237e-5
-1.337, 1.224e-5
-1.336, 1.233e-5
-1.335, 1.209e-5
-1.334, 1.181e-5
-1.333, 1.154e-5
-1.332, 1.145e-5
-1.331, 1.156e-5
-1.330, 1.133e-5
-1.329, 1.102e-5
-1.328, 1.081e-5
-1.327, 1.067e-5
-1.326, 1.085e-5
-1.325, 1.056e-5
-1.324, 1.018e-5
-1.323, 1.005e-5
-1.322, 1.000e-5
-1.321, 1.003e-5
-1.320, 9.915e-6
-1.319, 9.658e-6
-1.318, 9.387e-6
-1.317, 9.343e-6
-1.316, 9.319e-6
-1.315, 9.234e-6
-1.314, 8.991e-6
-1.313, 8.847e-6
-1.312, 8.766e-6
-1.311, 8.816e-6
-1.310, 8.690e-6
-1.309, 8.337e-6
-1.308, 8.188e-6
-1.307, 8.142e-6
-1.306, 8.273e-6
-1.305, 8.113e-6
-1.304, 7.898e-6
-1.303, 7.680e-6
-1.302, 7.650e-6
-1.301, 7.745e-6
-1.300, 7.568e-6
-1.299, 7.396e-6
-1.298, 7.207e-6
-1.297, 7.171e-6
-1.296, 7.301e-6
-1.295, 7.191e-6
-1.294, 6.914e-6
-1.293, 6.704e-6
-1.292, 6.824e-6
-1.291, 6.883e-6
-1.290, 6.681e-6
-1.289, 6.480e-6
-1.288, 6.289e-6
-1.287, 6.295e-6
-1.286, 6.418e-6
-1.285, 6.287e-6
-1.284, 6.164e-6
-1.283, 6.011e-6
-1.282, 5.888e-6
-1.281, 6.025e-6
-1.280, 5.891e-6
-1.279, 5.658e-6
-1.278, 5.571e-6
-1.277, 5.570e-6
-1.276, 5.732e-6
-1.275, 5.467e-6
-1.274, 5.298e-6
-1.273, 5.100e-6
-1.272, 5.220e-6
-1.271, 5.368e-6
-1.270, 5.262e-6
-1.269, 5.072e-6
-1.268, 4.829e-6
-1.267, 4.830e-6
-1.266, 5.002e-6
-1.265, 4.931e-6
-1.264, 4.736e-6
-1.263, 4.551e-6
-1.262, 4.620e-6
-1.261, 4.665e-6
-1.260, 4.548e-6
-1.259, 4.388e-6
-1.258, 4.253e-6
-1.257, 4.283e-6
-1.256, 4.430e-6
-1.255, 4.301e-6
-1.254, 4.003e-6
-1.253, 3.925e-6
-1.252, 3.987e-6
-1.251, 4.120e-6
-1.250, 4.039e-6
-1.249, 3.778e-6
-1.248, 3.686e-6
-1.247, 3.643e-6
-1.246, 3.803e-6
-1.245, 3.791e-6
-1.244, 3.547e-6
-1.243, 3.380e-6
-1.242, 3.398e-6
-1.241, 3.591e-6
-1.240, 3.472e-6
-1.239, 3.225e-6
-1.238, 3.190e-6
-1.237, 3.249e-6
-1.236, 3.323e-6
-1.235, 3.212e-6
-1.234, 2.994e-6
-1.233, 2.844e-6
-1.232, 2.932e-6
-1.231, 2.974e-6
-1.230, 3.024e-6
-1.229, 2.788e-6
-1.228, 2.569e-6
-1.227, 2.639e-6
-1.226, 2.750e-6
-1.225, 2.758e-6
-1.224, 2.571e-6
-1.223, 2.444e-6
-1.222, 2.470e-6
-1.221, 2.584e-6
-1.220, 2.459e-6
-1.219, 2.280e-6
-1.218, 2.153e-6
-1.217, 2.230e-6
-1.216, 2.377e-6
-1.215, 2.314e-6
-1.214, 2.001e-6
-1.213, 1.949e-6
-1.212, 2.005e-6
-1.211, 2.134e-6
-1.210, 2.089e-6
-1.209, 1.937e-6
-1.208, 1.787e-6
-1.207, 1.755e-6
-1.206, 1.871e-6
-1.205, 1.839e-6
-1.204, 1.706e-6
-1.203, 1.606e-6
-1.202, 1.595e-6
-1.201, 1.692e-6
-1.200, 1.685e-6
-1.199, 1.364e-6
-1.198, 1.379e-6
-1.197, 1.438e-6
-1.196, 1.610e-6
-1.195, 1.489e-6
-1.194, 1.262e-6
-1.193, 1.091e-6
-1.192, 1.204e-6
-1.191, 1.350e-6
-1.190, 1.317e-6
-1.189, 1.105e-6
-1.188, 9.489e-7
-1.187, 1.004e-6
-1.186, 1.183e-6
-1.185, 1.052e-6
-1.184, 8.927e-7
-1.183, 8.236e-7
-1.182, 8.246e-7
-1.181, 9.894e-7
-1.180, 9.529e-7
-1.179, 6.746e-7
-1.178, 6.204e-7
-1.177, 6.924e-7
-1.176, 7.999e-7
-1.175, 8.572e-7
-1.174, 5.444e-7
-1.173, 3.915e-7
-1.172, 5.434e-7
-1.171, 6.638e-7
-1.170, 6.529e-7
-1.169, 3.708e-7
-1.168, 3.382e-7
-1.167, 3.530e-7
-1.166, 4.240e-7
-1.165, 4.645e-7
-1.164, 3.283e-7
-1.163, 1.882e-7
-1.162, 1.498e-7
-1.161, 3.392e-7
-1.160, 3.372e-7
-1.159, 9.057e-8
-1.158, -5.545e-8
-1.157, 1.164e-8
-1.156, 1.833e-7
-1.155, 1.863e-7
-1.154, -6.926e-8
-1.153, -2.103e-7
-1.152, -1.363e-7
-1.151, 8.465e-8
-1.150, 4.223e-8
-1.149, -1.729e-7
-1.148, -2.429e-7
-1.147, -2.518e-7
-1.146, -2.074e-7
-1.145, -1.028e-7
-1.144, -3.445e-7
-1.143, -4.353e-7
-1.142, -4.649e-7
-1.141, -2.735e-7
-1.140, -2.518e-7
-1.139, -4.866e-7
-1.138, -5.714e-7
-1.137, -5.793e-7
-1.136, -3.672e-7
-1.135, -3.416e-7
-1.134, -7.313e-7
-1.133, -8.072e-7
-1.132, -6.997e-7
-1.131, -5.083e-7
-1.130, -5.448e-7
-1.129, -8.566e-7
-1.128, -9.069e-7
-1.127, -8.546e-7
-1.126, -7.411e-7
-1.125, -6.602e-7
-1.124, -9.493e-7
-1.123, -1.065e-6
-1.122, -1.008e-6
-1.121, -8.418e-7
-1.120, -8.329e-7
-1.119, -1.049e-6
-1.118, -1.171e-6
-1.117, -1.127e-6
-1.116, -9.986e-7
-1.115, -1.023e-6
-1.114, -1.214e-6
-1.113, -1.321e-6
-1.112, -1.303e-6
-1.111, -1.221e-6
-1.110, -1.098e-6
-1.109, -1.372e-6
-1.108, -1.431e-6
-1.107, -1.412e-6
-1.106, -1.327e-6
-1.105, -1.311e-6
-1.104, -1.590e-6
-1.103, -1.629e-6
-1.102, -1.584e-6
-1.101, -1.458e-6
-1.100, -1.437e-6
-1.099, -1.730e-6
-1.098, -1.817e-6
-1.097, -1.702e-6
-1.096, -1.578e-6
-1.095, -1.579e-6
-1.094, -1.844e-6
-1.093, -1.988e-6
-1.092, -1.921e-6
-1.091, -1.803e-6
-1.090, -1.752e-6
-1.089, -1.964e-6
-1.088, -2.054e-6
-1.087, -2.119e-6
-1.086, -1.951e-6
-1.085, -1.972e-6
-1.084, -2.095e-6
-1.083, -2.211e-6
-1.082, -2.300e-6
-1.081, -2.123e-6
-1.080, -2.047e-6
-1.079, -2.384e-6
-1.078, -2.391e-6
-1.077, -2.409e-6
-1.076, -2.282e-6
-1.075, -2.282e-6
-1.074, -2.552e-6
-1.073, -2.626e-6
-1.072, -2.507e-6
-1.071, -2.448e-6
-1.070, -2.397e-6
-1.069, -2.605e-6
-1.068, -2.751e-6
-1.067, -2.740e-6
-1.066, -2.620e-6
-1.065, -2.610e-6
-1.064, -2.740e-6
-1.063, -2.938e-6
-1.062, -2.872e-6
-1.061, -2.781e-6
-1.060, -2.807e-6
-1.059, -2.970e-6
-1.058, -3.058e-6
-1.057, -3.074e-6
-1.056, -2.952e-6
-1.055, -2.949e-6
-1.054, -3.185e-6
-1.053, -3.368e-6
-1.052, -3.167e-6
-1.051, -3.074e-6
-1.050, -3.069e-6
-1.049, -3.315e-6
-1.048, -3.492e-6
-1.047, -3.424e-6
-1.046, -3.301e-6
-1.045, -3.317e-6
-1.044, -3.400e-6
-1.043, -3.664e-6
-1.042, -3.639e-6
-1.041, -3.504e-6
-1.040, -3.441e-6
-1.039, -3.621e-6
-1.038, -3.695e-6
-1.037, -3.730e-6
-1.036, -3.610e-6
-1.035, -3.693e-6
-1.034, -3.915e-6
-1.033, -3.957e-6
-1.032, -3.934e-6
-1.031, -3.803e-6
-1.030, -3.831e-6
-1.029, -4.054e-6
-1.028, -4.187e-6
-1.027, -4.201e-6
-1.026, -4.008e-6
-1.025, -4.076e-6
-1.024, -4.270e-6
-1.023, -4.470e-6
-1.022, -4.387e-6
-1.021, -4.344e-6
-1.020, -4.191e-6
-1.019, -4.346e-6
-1.018, -4.511e-6
-1.017, -4.546e-6
-1.016, -4.394e-6
-1.015, -4.367e-6
-1.014, -4.643e-6
-1.013, -4.713e-6
-1.012, -4.790e-6
-1.011, -4.648e-6
-1.010, -4.575e-6
-1.009, -4.918e-6
-1.008, -4.961e-6
-1.007, -4.964e-6
-1.006, -4.748e-6
-1.005, -4.754e-6
-1.004, -4.983e-6
-1.003, -5.314e-6
-1.002, -5.101e-6
-1.001, -5.110e-6
-1.000, -4.325e-6
-1.001, -3.886e-6
-1.002, -3.927e-6
-1.003, -3.613e-6
-1.004, -3.326e-6
-1.005, -3.172e-6
-1.006, -3.290e-6
-1.007, -3.213e-6
-1.008, -3.016e-6
-1.009, -2.734e-6
-1.010, -2.654e-6
-1.011, -2.766e-6
-1.012, -2.788e-6
-1.013, -2.577e-6
-1.014, -2.304e-6
-1.015, -2.139e-6
-1.016, -2.260e-6
-1.017, -2.378e-6
-1.018, -2.184e-6
-1.019, -1.939e-6
-1.020, -1.786e-6
-1.021, -1.797e-6
-1.022, -1.994e-6
-1.023, -1.806e-6
-1.024, -1.638e-6
-1.025, -1.525e-6
-1.026, -1.509e-6
-1.027, -1.575e-6
-1.028, -1.519e-6
-1.029, -1.189e-6
-1.030, -1.233e-6
-1.031, -1.337e-6
-1.032, -1.352e-6
-1.033, -1.319e-6
-1.034, -9.898e-7
-1.035, -9.296e-7
-1.036, -1.033e-6
-1.037, -1.100e-6
-1.038, -1.023e-6
-1.039, -7.313e-7
-1.040, -5.922e-7
-1.041, -7.540e-7
-1.042, -8.497e-7
-1.043, -7.559e-7
-1.044, -5.310e-7
-1.045, -3.800e-7
-1.046, -5.083e-7
-1.047, -5.912e-7
-1.048, -4.669e-7
-1.049, -3.386e-7
-1.050, -2.222e-7
-1.051, -3.386e-7
-1.052, -3.968e-7
-1.053, -2.222e-7
-1.054, -5.939e-8
-1.055, 5.998e-8
-1.056, -1.541e-7
-1.057, -1.304e-7
-1.058, -7.617e-8
-1.059, 1.734e-7
-1.060, 2.908e-7
-1.061, 9.156e-8
-1.062, 6.788e-8
-1.063, 1.054e-7
-1.064, 2.790e-7
-1.065, 5.020e-7
-1.066, 4.004e-7
-1.067, 2.563e-7
-1.068, 3.244e-7
-1.069, 4.842e-7
-1.070, 6.154e-7
-1.071, 5.878e-7
-1.072, 5.543e-7
-1.073, 5.030e-7
-1.074, 7.871e-7
-1.075, 8.433e-7
-1.076, 6.884e-7
-1.077, 6.480e-7
-1.078, 7.338e-7
-1.079, 9.430e-7
-1.080, 1.078e-6
-1.081, 8.611e-7
-1.082, 8.216e-7
-1.083, 8.946e-7
-1.084, 1.135e-6
-1.085, 1.305e-6
-1.086, 1.150e-6
-1.087, 1.021e-6
-1.088, 1.110e-6
-1.089, 1.352e-6
-1.090, 1.392e-6
-1.091, 1.317e-6
-1.092, 1.262e-6
-1.093, 1.288e-6
-1.094, 1.533e-6
-1.095, 1.620e-6
-1.096, 1.455e-6
-1.097, 1.395e-6
-1.098, 1.459e-6
-1.099, 1.744e-6
-1.100, 1.771e-6
-1.101, 1.668e-6
-1.102, 1.605e-6
-1.103, 1.662e-6
-1.104, 1.847e-6
-1.105, 1.970e-6
-1.106, 1.910e-6
-1.107, 1.862e-6
-1.108, 1.803e-6
-1.109, 2.044e-6
-1.110, 2.094e-6
-1.111, 2.033e-6
-1.112, 1.947e-6
-1.113, 2.019e-6
-1.114, 2.235e-6
-1.115, 2.352e-6
-1.116, 2.113e-6
-1.117, 2.111e-6
-1.118, 2.203e-6
-1.119, 2.524e-6
-1.120, 2.592e-6
-1.121, 2.313e-6
-1.122, 2.330e-6
-1.123, 2.314e-6
-1.124, 2.618e-6
-1.125, 2.762e-6
-1.126, 2.666e-6
-1.127, 2.490e-6
-1.128, 2.550e-6
-1.129, 2.718e-6
-1.130, 2.925e-6
-1.131, 2.777e-6
-1.132, 2.740e-6
-1.133, 2.740e-6
-1.134, 2.914e-6
-1.135, 3.064e-6
-1.136, 2.955e-6
-1.137, 2.851e-6
-1.138, 2.943e-6
-1.139, 3.137e-6
-1.140, 3.268e-6
-1.141, 3.087e-6
-1.142, 3.034e-6
-1.143, 3.044e-6
-1.144, 3.332e-6
-1.145, 3.474e-6
-1.146, 3.347e-6
-1.147, 3.227e-6
-1.148, 3.270e-6
-1.149, 3.419e-6
-1.150, 3.556e-6
-1.151, 3.531e-6
-1.152, 3.425e-6
-1.153, 3.484e-6
-1.154, 3.699e-6
-1.155, 3.746e-6
-1.156, 3.625e-6
-1.157, 3.574e-6
-1.158, 3.709e-6
-1.159, 3.861e-6
-1.160, 4.018e-6
-1.161, 3.828e-6
-1.162, 3.730e-6
-1.163, 3.750e-6
-1.164, 4.057e-6
-1.165, 4.137e-6
-1.166, 4.101e-6
-1.167, 3.898e-6
-1.168, 4.000e-6
-1.169, 4.171e-6
-1.170, 4.319e-6
-1.171, 4.273e-6
-1.172, 4.116e-6
-1.173, 4.182e-6
-1.174, 4.321e-6
-1.175, 4.484e-6
-1.176, 4.435e-6
-1.177, 4.329e-6
-1.178, 4.379e-6
-1.179, 4.588e-6
-1.180, 4.658e-6
-1.181, 4.546e-6
-1.182, 4.449e-6
-1.183, 4.551e-6
-1.184, 4.776e-6
-1.185, 4.901e-6
-1.186, 4.818e-6
-1.187, 4.601e-6
-1.188, 4.823e-6
-1.189, 4.967e-6
-1.190, 5.020e-6
-1.191, 5.063e-6
-1.192, 4.847e-6
-1.193, 4.939e-6
-1.194, 5.177e-6
-1.195, 5.228e-6
-1.196, 5.192e-6
-1.197, 5.089e-6
-1.198, 5.216e-6
-1.199, 5.400e-6
-1.200, 5.451e-6
-1.201, 5.300e-6
-1.202, 5.192e-6
-1.203, 5.325e-6
-1.204, 5.516e-6
-1.205, 5.695e-6
-1.206, 5.646e-6
-1.207, 5.493e-6
-1.208, 5.544e-6
-1.209, 5.637e-6
-1.210, 5.806e-6
-1.211, 5.836e-6
-1.212, 5.685e-6
-1.213, 5.729e-6
-1.214, 5.916e-6
-1.215, 6.029e-6
-1.216, 5.970e-6
-1.217, 5.924e-6
-1.218, 5.980e-6
-1.219, 6.085e-6
-1.220, 6.276e-6
-1.221, 6.162e-6
-1.222, 6.074e-6
-1.223, 6.153e-6
-1.224, 6.287e-6
-1.225, 6.543e-6
-1.226, 6.343e-6
-1.227, 6.332e-6
-1.228, 6.392e-6
-1.229, 6.546e-6
-1.230, 6.643e-6
-1.231, 6.646e-6
-1.232, 6.495e-6
-1.233, 6.691e-6
-1.234, 6.720e-6
-1.235, 6.911e-6
-1.236, 6.846e-6
-1.237, 6.727e-6
-1.238, 6.862e-6
-1.239, 7.010e-6
-1.240, 7.127e-6
-1.241, 7.010e-6
-1.242, 6.863e-6
-1.243, 7.053e-6
-1.244, 7.196e-6
-1.245, 7.391e-6
-1.246, 7.269e-6
-1.247, 7.245e-6
-1.248, 7.276e-6
-1.249, 7.362e-6
-1.250, 7.639e-6
-1.251, 7.584e-6
-1.252, 7.382e-6
-1.253, 7.550e-6
-1.254, 7.661e-6
-1.255, 7.819e-6
-1.256, 7.799e-6
-1.257, 7.701e-6
-1.258, 7.706e-6
-1.259, 7.945e-6
-1.260, 8.132e-6
-1.261, 7.982e-6
-1.262, 7.978e-6
-1.263, 8.045e-6
-1.264, 8.231e-6
-1.265, 8.446e-6
-1.266, 8.304e-6
-1.267, 8.263e-6
-1.268, 8.347e-6
-1.269, 8.520e-6
-1.270, 8.712e-6
-1.271, 8.622e-6
-1.272, 8.508e-6
-1.273, 8.645e-6
-1.274, 8.712e-6
-1.275, 8.910e-6
-1.276, 8.848e-6
-1.277, 8.800e-6
-1.278, 8.967e-6
-1.279, 9.158e-6
-1.280, 9.312e-6
-1.281, 9.187e-6
-1.282, 9.144e-6
-1.283, 9.249e-6
-1.284, 9.393e-6
-1.285, 9.633e-6
-1.286, 9.588e-6
-1.287, 9.430e-6
-1.288, 9.568e-6
-1.289, 9.754e-6
-1.290, 1.003e-5
-1.291, 9.962e-6
-1.292, 9.898e-6
-1.293, 9.924e-6
-1.294, 1.012e-5
-1.295, 1.032e-5
-1.296, 1.033e-5
-1.297, 1.012e-5
-1.298, 1.031e-5
-1.299, 1.052e-5
-1.300, 1.067e-5
-1.301, 1.066e-5
-1.302, 1.048e-5
-1.303, 1.076e-5
-1.304, 1.097e-5
-1.305, 1.118e-5
-1.306, 1.110e-5
-1.307, 1.104e-5
-1.308, 1.115e-5
-1.309, 1.137e-5
-1.310, 1.161e-5
-1.311, 1.165e-5
-1.312, 1.155e-5
-1.313, 1.167e-5
-1.314, 1.178e-5
-1.315, 1.205e-5
-1.316, 1.212e-5
-1.317, 1.198e-5
-1.318, 1.211e-5
-1.319, 1.235e-5
-1.320, 1.255e-5
-1.321, 1.263e-5
-1.322, 1.258e-5
-1.323, 1.268e-5
-1.324, 1.298e-5
-1.325, 1.316e-5
-1.326, 1.320e-5
-1.327, 1.313e-5
-1.328, 1.328e-5
-1.329, 1.357e-5
-1.330, 1.382e-5
-1.331, 1.385e-5
-1.332, 1.382e-5
-1.333, 1.392e-5
-1.334, 1.414e-5
-1.335, 1.444e-5
-1.336, 1.454e-5
-1.337, 1.444e-5
-1.338, 1.466e-5
-1.339, 1.492e-5
-1.340, 1.522e-5
-1.341, 1.523e-5
-1.342, 1.519e-5
-1.343, 1.534e-5
-1.344, 1.569e-5
-1.345, 1.597e-5
-1.346, 1.597e-5
-1.347, 1.598e-5
-1.348, 1.617e-5
-1.349, 1.646e-5
-1.350, 1.679e-5
-1.351, 1.692e-5
-1.352, 1.687e-5
-1.353, 1.705e-5
-1.354, 1.736e-5
-1.355, 1.767e-5
-1.356, 1.771e-5
-1.357, 1.774e-5
-1.358, 1.801e-5
-1.359, 1.829e-5
-1.360, 1.862e-5
-1.361, 1.873e-5
-1.362, 1.869e-5
-1.363, 1.893e-5
-1.364, 1.942e-5
-1.365, 1.964e-5
-1.366, 1.979e-5
-1.367, 1.979e-5
-1.368, 2.003e-5
-1.369, 2.044e-5
-1.370, 2.073e-5
-1.371, 2.086e-5
-1.372, 2.090e-5
-1.373, 2.117e-5
-1.374, 2.155e-5
-1.375, 2.185e-5
-1.376, 2.204e-5
-1.377, 2.214e-5
-1.378, 2.242e-5
-1.379, 2.285e-5
-1.380, 2.321e-5
-1.381, 2.329e-5
-1.382, 2.332e-5
-1.383, 2.361e-5
-1.384, 2.408e-5
-1.385, 2.451e-5
-1.386, 2.460e-5
-1.387, 2.469e-5
-1.388, 2.501e-5
-1.389, 2.538e-5
-1.390, 2.576e-5
-1.391, 2.600e-5
-1.392, 2.609e-5
-1.393, 2.639e-5
-1.394, 2.675e-5
-1.395, 2.710e-5
-1.396, 2.730e-5
-1.397, 2.746e-5
-1.398, 2.776e-5
-1.399, 2.823e-5
-1.400, 2.748e-5
-1.399, 2.647e-5
-1.398, 2.568e-5
-1.397, 2.513e-5
-1.396, 2.485e-5
-1.395, 2.449e-5
-1.394, 2.391e-5
-1.393, 2.329e-5
-1.392, 2.289e-5
-1.391, 2.263e-5
-1.390, 2.238e-5
-1.389, 2.187e-5
-1.388, 2.133e-5
-1.387, 2.095e-5
-1.386, 2.078e-5
-1.385, 2.048e-5
-1.384, 2.009e-5
-1.383, 1.959e-5
-1.382, 1.920e-5
-1.381, 1.918e-5
-1.380, 1.896e-5
-1.379, 1.854e-5
-1.378, 1.802e-5
-1.377, 1.777e-5
-1.376, 1.771e-5
-1.375, 1.755e-5
-1.374, 1.726e-5
-1.373, 1.680e-5
-1.372, 1.653e-5
-1.371, 1.648e-5
-1.370, 1.629e-5
-1.369, 1.594e-5
-1.368, 1.549e-5
-1.367, 1.525e-5
-1.366, 1.529e-5
-1.365, 1.521e-5
-1.364, 1.489e-5
-1.363, 1.454e-5
-1.362, 1.416e-5
-1.361, 1.423e-5
-1.360, 1.406e-5
-1.359, 1.392e-5
-1.358, 1.340e-5
-1.357, 1.325e-5
-1.356, 1.323e-5
-1.355, 1.314e-5
-1.354, 1.288e-5
-1.353, 1.254e-5
-1.352, 1.230e-5
-1.351, 1.236e-5
-1.350, 1.229e-5
-1.349, 1.202e-5
-1.348, 1.169e-5
-1.347, 1.144e-5
-1.346, 1.146e-5
-1.345, 1.149e-5
-1.344, 1.123e-5
-1.343, 1.095e-5
-1.342, 1.077e-5
-1.341, 1.081e-5
-1.340, 1.084e-5
-1.339, 1.056e-5
-1.338, 1.010e-5
-1.337, 9.978e-6
-1.336, 1.016e-5
-1.335, 1.007e-5
-1.334, 9.880e-6
-1.333, 9.606e-6
-1.332, 9.392e-6
-1.331, 9.405e-6
-1.330, 9.351e-6
-1.329, 9.212e-6
-1.328, 8.957e-6
-1.327, 8.771e-6
-1.326, 8.822e-6
-1.325, 8.825e-6
-1.324, 8.636e-6
-1.323, 8.308e-6
-1.322, 8.252e-6
-1.321, 8.249e-6
-1.320, 8.351e-6
-1.319, 8.078e-6
-1.318, 7.776e-6
-1.317, 7.700e-6
-1.316, 7.689e-6
-1.315, 7.755e-6
-1.314, 7.560e-6
-1.313, 7.297e-6
-1.312, 7.203e-6
-1.311, 7.252e-6
-1.310, 7.283e-6
-1.309, 7.048e-6
-1.308, 6.756e-6
-1.307, 6.683e-6
-1.306, 6.828e-6
-1.305, 6.861e-6
-1.304, 6.639e-6
-1.303, 6.376e-6
-1.302, 6.288e-6
-1.301, 6.341e-6
-1.300, 6.401e-6
-1.299, 6.262e-6
-1.298, 6.038e-6
-1.297, 5.833e-6
-1.296, 5.962e-6
-1.295, 5.957e-6
-1.294, 5.875e-6
-1.293, 5.595e-6
-1.292, 5.457e-6
-1.291, 5.629e-6
-1.290, 5.718e-6
-1.289, 5.516e-6
-1.288, 5.242e-6
-1.287, 5.092e-6
-1.286, 5.246e-6
-1.285, 5.300e-6
-1.284, 5.175e-6
-1.283, 4.901e-6
-1.282, 4.712e-6
-1.281, 4.822e-6
-1.280, 4.912e-6
-1.279, 4.832e-6
-1.278, 4.542e-6
-1.277, 4.426e-6
-1.276, 4.615e-6
-1.275, 4.638e-6
-1.274, 4.562e-6
-1.273, 4.242e-6
-1.272, 4.175e-6
-1.271, 4.315e-6
-1.270, 4.334e-6
-1.269, 4.252e-6
-1.268, 4.018e-6
-1.267, 3.918e-6
-1.266, 3.935e-6
-1.265, 4.035e-6
-1.264, 3.999e-6
-1.263, 3.734e-6
-1.262, 3.577e-6
-1.261, 3.779e-6
-1.260, 3.842e-6
-1.259, 3.685e-6
-1.258, 3.505e-6
-1.257, 3.315e-6
-1.256, 3.440e-6
-1.255, 3.592e-6
-1.254, 3.458e-6
-1.253, 3.293e-6
-1.252, 3.066e-6
-1.251, 3.266e-6
-1.250, 3.250e-6
-1.249, 3.224e-6
-1.248, 2.959e-6
-1.247, 2.910e-6
-1.246, 3.008e-6
-1.245, 3.087e-6
-1.244, 2.971e-6
-1.243, 2.750e-6
-1.242, 2.667e-6
-1.241, 2.798e-6
-1.240, 2.880e-6
-1.239, 2.801e-6
-1.238, 2.546e-6
-1.237, 2.432e-6
-1.236, 2.526e-6
-1.235, 2.626e-6
-1.234, 2.524e-6
-1.233, 2.325e-6
-1.232, 2.241e-6
-1.231, 2.336e-6
-1.230, 2.438e-6
-1.229, 2.326e-6
-1.228, 2.105e-6
-1.227, 1.996e-6
-1.226, 2.123e-6
-1.225, 2.192e-6
-1.224, 2.112e-6
-1.223, 1.930e-6
-1.222, 1.662e-6
-1.221, 1.853e-6
-1.220, 1.942e-6
-1.219, 1.938e-6
-1.218, 1.635e-6
-1.217, 1.667e-6
-1.216, 1.797e-6
-1.215, 1.842e-6
-1.214, 1.785e-6
-1.213, 1.530e-6
-1.212, 1.414e-6
-1.211, 1.611e-6
-1.210, 1.651e-6
-1.209, 1.542e-6
-1.208, 1.343e-6
-1.207, 1.263e-6
-1.206, 1.293e-6
-1.205, 1.417e-6
-1.204, 1.375e-6
-1.203, 1.074e-6
-1.202, 1.124e-6
-1.201, 1.188e-6
-1.200, 1.279e-6
-1.199, 1.160e-6
-1.198, 8.887e-7
-1.197, 7.832e-7
-1.196, 9.558e-7
-1.195, 1.083e-6
-1.194, 9.874e-7
-1.193, 8.798e-7
-1.192, 7.358e-7
-1.191, 7.634e-7
-1.190, 8.798e-7
-1.189, 8.759e-7
-1.188, 6.095e-7
-1.187, 5.809e-7
-1.186, 6.756e-7
-1.185, 7.230e-7
-1.184, 6.973e-7
-1.183, 4.596e-7
-1.182, 3.422e-7
-1.181, 4.132e-7
-1.180, 6.036e-7
-1.179, 5.257e-7
-1.178, 3.343e-7
-1.177, 2.249e-8
-1.176, 2.908e-7
-1.175, 4.122e-7
-1.174, 3.224e-7
-1.173, 8.958e-8
-1.172, 9.846e-8
-1.171, 8.169e-8
-1.170, 2.395e-7
-1.169, 1.803e-7
-1.168, 2.545e-8
-1.167, -1.087e-7
-1.166, -1.796e-8
-1.165, 1.024e-7
-1.164, -3.177e-8
-1.163, -1.176e-7
-1.162, -2.804e-7
-1.161, -3.001e-7
-1.160, -6.235e-8
-1.159, -1.354e-7
-1.158, -3.060e-7
-1.157, -4.008e-7
-1.156, -3.554e-7
-1.155, -2.478e-7
-1.154, -3.258e-7
-1.153, -5.251e-7
-1.152, -6.109e-7
-1.151, -4.876e-7
-1.150, -4.008e-7
-1.149, -4.471e-7
-1.148, -6.523e-7
-1.147, -7.599e-7
-1.146, -9.986e-7
-1.145, -6.168e-7
-1.144, -6.366e-7
-1.143, -7.668e-7
-1.142, -8.970e-7
-1.141, -8.339e-7
-1.140, -6.908e-7
-1.139, -8.122e-7
-1.138, -9.828e-7
-1.137, -1.072e-6
-1.136, -9.917e-7
-1.135, -8.053e-7
-1.134, -9.927e-7
-1.133, -1.116e-6
-1.132, -1.235e-6
-1.131, -1.181e-6
-1.130, -9.532e-7
-1.129, -1.147e-6
-1.128, -1.182e-6
-1.127, -1.401e-6
-1.126, -1.322e-6
-1.125, -1.180e-6
-1.124, -1.299e-6
-1.123, -1.365e-6
-1.122, -1.499e-6
-1.121, -1.398e-6
-1.120, -1.345e-6
-1.119, -1.473e-6
-1.118, -1.561e-6
-1.117, -1.746e-6
-1.116, -1.971e-6
-1.115, -1.532e-6
-1.114, -1.581e-6
-1.113, -1.648e-6
-1.112, -2.041e-6
-1.111, -1.876e-6
-1.110, -1.682e-6
-1.109, -1.799e-6
-1.108, -1.917e-6
-1.107, -1.987e-6
-1.106, -1.905e-6
-1.105, -1.785e-6
-1.104, -1.856e-6
-1.103, -2.119e-6
-1.102, -2.234e-6
-1.101, -2.064e-6
-1.100, -1.886e-6
-1.099, -2.083e-6
-1.098, -2.180e-6
-1.097, -2.346e-6
-1.096, -2.303e-6
-1.095, -2.115e-6
-1.094, -2.191e-6
-1.093, -2.356e-6
-1.092, -2.534e-6
-1.091, -2.482e-6
-1.090, -2.277e-6
-1.089, -2.407e-6
-1.088, -2.612e-6
-1.087, -2.682e-6
-1.086, -2.602e-6
-1.085, -2.452e-6
-1.084, -2.553e-6
-1.083, -2.665e-6
-1.082, -2.827e-6
-1.081, -2.779e-6
-1.080, -2.586e-6
-1.079, -2.693e-6
-1.078, -2.787e-6
-1.077, -2.992e-6
-1.076, -2.956e-6
-1.075, -2.832e-6
-1.074, -2.926e-6
-1.073, -3.017e-6
-1.072, -3.099e-6
-1.071, -3.087e-6
-1.070, -3.018e-6
-1.069, -3.025e-6
-1.068, -3.236e-6
-1.067, -3.316e-6
-1.066, -3.240e-6
-1.065, -3.106e-6
-1.064, -3.205e-6
-1.063, -3.428e-6
-1.062, -3.538e-6
-1.061, -3.489e-6
-1.060, -3.351e-6
-1.059, -3.338e-6
-1.058, -3.504e-6
-1.057, -3.662e-6
-1.056, -3.679e-6
-1.055, -3.529e-6
-1.054, -3.577e-6
-1.053, -3.758e-6
-1.052, -3.865e-6
-1.051, -3.839e-6
-1.050, -3.733e-6
-1.049, -3.748e-6
-1.048, -3.995e-6
-1.047, -4.057e-6
-1.046, -3.969e-6
-1.045, -3.898e-6
-1.044, -3.958e-6
-1.043, -4.114e-6
-1.042, -4.304e-6
-1.041, -4.208e-6
-1.040, -4.146e-6
-1.039, -4.075e-6
-1.038, -4.325e-6
-1.037, -4.434e-6
-1.036, -4.372e-6
-1.035, -4.284e-6
-1.034, -4.298e-6
-1.033, -4.509e-6
-1.032, -4.639e-6
-1.031, -4.550e-6
-1.030, -4.478e-6
-1.029, -4.395e-6
-1.028, -4.725e-6
-1.027, -4.870e-6
-1.026, -4.745e-6
-1.025, -4.672e-6
-1.024, -4.635e-6
-1.023, -4.857e-6
-1.022, -4.975e-6
-1.021, -5.000e-6
-1.020, -4.912e-6
-1.019, -4.872e-6
-1.018, -5.064e-6
-1.017, -5.186e-6
-1.016, -5.142e-6
-1.015, -5.090e-6
-1.014, -5.043e-6
-1.013, -5.310e-6
-1.012, -5.409e-6
-1.011, -5.392e-6
-1.010, -5.119e-6
-1.009, -5.109e-6
-1.008, -5.528e-6
-1.007, -5.554e-6
-1.006, -5.490e-6
-1.005, -5.459e-6
-1.004, -5.431e-6
-1.003, -5.584e-6
-1.002, -5.757e-6
-1.001, -5.750e-6
-1.000, -4.961e-6
-1.001, -4.454e-6
-1.002, -4.413e-6
-1.003, -4.311e-6
-1.004, -4.093e-6
-1.005, -3.747e-6
-1.006, -3.614e-6
-1.007, -3.687e-6
-1.008, -3.695e-6
-1.009, -3.535e-6
-1.010, -3.224e-6
-1.011, -3.096e-6
-1.012, -3.155e-6
-1.013, -3.229e-6
-1.014, -3.079e-6
-1.015, -2.789e-6
-1.016, -2.702e-6
-1.017, -2.731e-6
-1.018, -2.771e-6
-1.019, -2.699e-6
-1.020, -2.475e-6
-1.021, -2.380e-6
-1.022, -2.465e-6
-1.023, -2.476e-6
-1.024, -2.384e-6
-1.025, -2.170e-6
-1.026, -1.990e-6
-1.027, -2.153e-6
-1.028, -2.189e-6
-1.029, -2.080e-6
-1.030, -1.807e-6
-1.031, -1.698e-6
-1.032, -1.785e-6
-1.033, -1.909e-6
-1.034, -1.852e-6
-1.035, -1.663e-6
-1.036, -1.413e-6
-1.037, -1.528e-6
-1.038, -1.599e-6
-1.039, -1.520e-6
-1.040, -1.349e-6
-1.041, -1.285e-6
-1.042, -1.339e-6
-1.043, -1.351e-6
-1.044, -1.308e-6
-1.045, -1.070e-6
-1.046, -9.375e-7
-1.047, -1.058e-6
-1.048, -1.192e-6
-1.049, -1.104e-6
-1.050, -8.329e-7
-1.051, -7.017e-7
-1.052, -8.092e-7
-1.053, -9.582e-7
-1.054, -8.625e-7
-1.055, -6.573e-7
-1.056, -5.290e-7
-1.057, -6.178e-7
-1.058, -6.602e-7
-1.059, -6.543e-7
-1.060, -4.678e-7
-1.061, -3.307e-7
-1.062, -4.511e-7
-1.063, -4.432e-7
-1.064, -4.491e-7
-1.065, -1.196e-7
-1.066, -1.038e-7
-1.067, -2.695e-7
-1.068, -2.735e-7
-1.069, -1.896e-7
-1.070, 7.676e-8
-1.071, 1.162e-7
-1.072, -1.006e-8
-1.073, -9.195e-8
-1.074, -1.697e-8
-1.075, 2.800e-7
-1.076, 3.441e-7
-1.077, 3.175e-7
-1.078, 9.057e-8
-1.079, 1.991e-7
-1.080, 3.471e-7
-1.081, 4.951e-7
-1.082, 5.276e-7
-1.083, 3.806e-7
-1.084, 4.102e-7
-1.085, 5.779e-7
-1.086, 6.707e-7
-1.087, 6.727e-7
-1.088, 5.809e-7
-1.089, 6.273e-7
-1.090, 8.088e-7
-1.091, 9.390e-7
-1.092, 8.631e-7
-1.093, 6.954e-7
-1.094, 8.128e-7
-1.095, 9.686e-7
-1.096, 1.122e-6
-1.097, 1.028e-6
-1.098, 8.532e-7
-1.099, 1.013e-6
-1.100, 1.110e-6
-1.101, 1.324e-6
-1.102, 1.196e-6
-1.103, 1.072e-6
-1.104, 1.176e-6
-1.105, 1.250e-6
-1.106, 1.490e-6
-1.107, 1.448e-6
-1.108, 1.258e-6
-1.109, 1.348e-6
-1.110, 1.474e-6
-1.111, 1.650e-6
-1.112, 1.543e-6
-1.113, 1.405e-6
-1.114, 1.579e-6
-1.115, 1.739e-6
-1.116, 1.819e-6
-1.117, 1.667e-6
-1.118, 1.558e-6
-1.119, 1.727e-6
-1.120, 1.853e-6
-1.121, 2.078e-6
-1.122, 1.955e-6
-1.123, 1.727e-6
-1.124, 1.795e-6
-1.125, 1.976e-6
-1.126, 2.222e-6
-1.127, 2.158e-6
-1.128, 1.962e-6
-1.129, 2.007e-6
-1.130, 2.189e-6
-1.131, 2.388e-6
-1.132, 2.270e-6
-1.133, 2.177e-6
-1.134, 2.167e-6
-1.135, 2.370e-6
-1.136, 2.507e-6
-1.137, 2.414e-6
-1.138, 2.289e-6
-1.139, 2.356e-6
-1.140, 2.560e-6
-1.141, 2.682e-6
-1.142, 2.616e-6
-1.143, 2.448e-6
-1.144, 2.555e-6
-1.145, 2.756e-6
-1.146, 2.890e-6
-1.147, 2.799e-6
-1.148, 2.677e-6
-1.149, 2.745e-6
-1.150, 2.867e-6
-1.151, 3.027e-6
-1.152, 3.035e-6
-1.153, 2.888e-6
-1.154, 2.941e-6
-1.155, 3.100e-6
-1.156, 3.186e-6
-1.157, 3.130e-6
-1.158, 3.009e-6
-1.159, 3.014e-6
-1.160, 3.361e-6
-1.161, 3.409e-6
-1.162, 3.296e-6
-1.163, 3.165e-6
-1.164, 3.276e-6
-1.165, 3.432e-6
-1.166, 3.616e-6
-1.167, 3.531e-6
-1.168, 3.432e-6
-1.169, 3.409e-6
-1.170, 3.533e-6
-1.171, 3.736e-6
-1.172, 3.692e-6
-1.173, 3.645e-6
-1.174, 3.656e-6
-1.175, 3.828e-6
-1.176, 3.910e-6
-1.177, 3.891e-6
-1.178, 3.739e-6
-1.179, 3.645e-6
-1.180, 3.998e-6
-1.181, 4.159e-6
-1.182, 4.075e-6
-1.183, 3.934e-6
-1.184, 3.897e-6
-1.185, 4.173e-6
-1.186, 4.282e-6
-1.187, 4.282e-6
-1.188, 4.160e-6
-1.189, 4.088e-6
-1.190, 4.282e-6
-1.191, 4.433e-6
-1.192, 4.458e-6
-1.193, 4.311e-6
-1.194, 4.250e-6
-1.195, 4.514e-6
-1.196, 4.629e-6
-1.197, 4.535e-6
-1.198, 4.392e-6
-1.199, 4.372e-6
-1.200, 4.676e-6
-1.201, 4.883e-6
-1.202, 4.715e-6
-1.203, 4.634e-6
-1.204, 4.557e-6
-1.205, 4.866e-6
-1.206, 5.008e-6
-1.207, 4.944e-6
-1.208, 4.848e-6
-1.209, 4.792e-6
-1.210, 4.974e-6
-1.211, 5.122e-6
-1.212, 5.125e-6
-1.213, 4.943e-6
-1.214, 4.933e-6
-1.215, 5.224e-6
-1.216, 5.452e-6
-1.217, 5.313e-6
-1.218, 5.125e-6
-1.219, 5.108e-6
-1.220, 5.473e-6
-1.221, 5.586e-6
-1.222, 5.504e-6
-1.223, 5.374e-6
-1.224, 5.364e-6
-1.225, 5.597e-6
-1.226, 5.775e-6
-1.227, 5.670e-6
-1.228, 5.599e-6
-1.229, 5.552e-6
-1.230, 5.788e-6
-1.231, 5.940e-6
-1.232, 5.950e-6
-1.233, 5.791e-6
-1.234, 5.809e-6
-1.235, 6.041e-6
-1.236, 6.368e-6
-1.237, 6.178e-6
-1.238, 6.042e-6
-1.239, 6.013e-6
-1.240, 6.204e-6
-1.241, 6.401e-6
-1.242, 6.382e-6
-1.243, 6.171e-6
-1.244, 6.199e-6
-1.245, 6.441e-6
-1.246, 6.647e-6
-1.247, 6.570e-6
-1.248, 6.480e-6
-1.249, 6.495e-6
-1.250, 6.495e-6
-1.251, 6.768e-6
-1.252, 6.844e-6
-1.253, 6.671e-6
-1.254, 6.684e-6
-1.255, 6.786e-6
-1.256, 7.039e-6
-1.257, 7.037e-6
-1.258, 6.814e-6
-1.259, 6.917e-6
-1.260, 7.108e-6
-1.261, 7.285e-6
-1.262, 7.269e-6
-1.263, 7.165e-6
-1.264, 7.137e-6
-1.265, 7.249e-6
-1.266, 7.438e-6
-1.267, 7.472e-6
-1.268, 7.402e-6
-1.269, 7.351e-6
-1.270, 7.454e-6
-1.271, 7.715e-6
-1.272, 7.725e-6
-1.273, 7.654e-6
-1.274, 7.634e-6
-1.275, 7.757e-6
-1.276, 8.050e-6
-1.277, 8.008e-6
-1.278, 7.910e-6
-1.279, 7.899e-6
-1.280, 8.109e-6
-1.281, 8.298e-6
-1.282, 8.712e-6
-1.283, 8.274e-6
-1.284, 8.198e-6
-1.285, 8.398e-6
-1.286, 8.609e-6
-1.287, 8.603e-6
-1.288, 8.524e-6
-1.289, 8.476e-6
-1.290, 8.711e-6
-1.291, 8.960e-6
-1.292, 8.876e-6
-1.293, 8.854e-6
-1.294, 8.833e-6
-1.295, 9.018e-6
-1.296, 9.375e-6
-1.297, 9.282e-6
-1.298, 9.260e-6
-1.299, 9.151e-6
-1.300, 9.358e-6
-1.301, 9.684e-6
-1.302, 9.656e-6
-1.303, 9.691e-6
-1.304, 9.525e-6
-1.305, 9.708e-6
-1.306, 1.010e-5
-1.307, 1.006e-5
-1.308, 1.007e-5
-1.309, 1.001e-5
-1.310, 1.021e-5
-1.311, 1.048e-5
-1.312, 1.049e-5
-1.313, 1.035e-5
-1.314, 1.043e-5
-1.315, 1.065e-5
-1.316, 1.090e-5
-1.317, 1.096e-5
-1.318, 1.089e-5
-1.319, 1.087e-5
-1.320, 1.107e-5
-1.321, 1.132e-5
-1.322, 1.156e-5
-1.323, 1.231e-5
-1.324, 1.173e-5
-1.325, 1.173e-5
-1.326, 1.200e-5
-1.327, 1.200e-5
-1.328, 1.191e-5
-1.329, 1.191e-5
-1.330, 1.206e-5
-1.331, 1.236e-5
-1.332, 1.235e-5
-1.333, 1.237e-5
-1.334, 1.238e-5
-1.335, 1.264e-5
-1.336, 1.285e-5
-1.337, 1.302e-5
-1.338, 1.292e-5
-1.339, 1.289e-5
-1.340, 1.323e-5
-1.341, 1.346e-5
-1.342, 1.362e-5
-1.343, 1.355e-5
-1.344, 1.360e-5
-1.345, 1.376e-5
-1.346, 1.404e-5
-1.347, 1.426e-5
-1.348, 1.424e-5
-1.349, 1.430e-5
-1.350, 1.445e-5
-1.351, 1.471e-5
-1.352, 1.497e-5
-1.353, 1.499e-5
-1.354, 1.504e-5
-1.355, 1.517e-5
-1.356, 1.548e-5
-1.357, 1.573e-5
-1.358, 1.568e-5
-1.359, 1.570e-5
-1.360, 1.596e-5
-1.361, 1.634e-5
-1.362, 1.657e-5
-1.363, 1.643e-5
-1.364, 1.657e-5
-1.365, 1.679e-5
-1.366, 1.710e-5
-1.367, 1.738e-5
-1.368, 1.731e-5
-1.369, 1.740e-5
-1.370, 1.767e-5
-1.371, 1.819e-5
-1.372, 1.832e-5
-1.373, 1.917e-5
-1.374, 1.841e-5
-1.375, 1.860e-5
-1.376, 1.907e-5
-1.377, 1.926e-5
-1.378, 1.934e-5
-1.379, 1.924e-5
-1.380, 1.989e-5
-1.381, 2.010e-5
-1.382, 2.025e-5
-1.383, 2.022e-5
-1.384, 2.070e-5
-1.385, 2.108e-5
-1.386, 2.146e-5
-1.387, 2.156e-5
-1.388, 2.150e-5
-1.389, 2.164e-5
-1.390, 2.199e-5
-1.391, 2.246e-5
-1.392, 2.284e-5
-1.393, 2.293e-5
-1.394, 2.282e-5
-1.395, 2.321e-5
-1.396, 2.367e-5
-1.397, 2.396e-5
-1.398, 2.404e-5
-1.399, 2.417e-5
-1.400, 2.343e-5
-1.399, 2.279e-5
-1.398, 2.210e-5
-1.397, 2.187e-5
-1.396, 2.147e-5
-1.395, 2.098e-5
-1.394, 2.078e-5
-1.393, 2.026e-5
-1.392, 2.020e-5
-1.391, 1.961e-5
-1.390, 1.922e-5
-1.389, 1.928e-5
-1.388, 1.905e-5
-1.387, 1.847e-5
-1.386, 1.805e-5
-1.385, 1.784e-5
-1.384, 1.778e-5
-1.383, 1.757e-5
-1.382, 1.701e-5
-1.381, 1.669e-5
-1.380, 1.662e-5
-1.379, 1.646e-5
-1.378, 1.636e-5
-1.377, 1.594e-5
-1.376, 1.549e-5
-1.375, 1.519e-5
-1.374, 1.529e-5
-1.373, 1.526e-5
-1.372, 1.488e-5
-1.371, 1.454e-5
-1.370, 1.438e-5
-1.369, 1.431e-5
-1.368, 1.408e-5
-1.367, 1.378e-5
-1.366, 1.362e-5
-1.365, 1.328e-5
-1.364, 1.332e-5
-1.363, 1.336e-5
-1.362, 1.288e-5
-1.361, 1.261e-5
-1.360, 1.250e-5
-1.359, 1.243e-5
-1.358, 1.229e-5
-1.357, 1.221e-5
-1.356, 1.176e-5
-1.355, 1.166e-5
-1.354, 1.147e-5
-1.353, 1.162e-5
-1.352, 1.135e-5
-1.351, 1.099e-5
-1.350, 1.092e-5
-1.349, 1.087e-5
-1.348, 1.081e-5
-1.347, 1.058e-5
-1.346, 1.025e-5
-1.345, 1.018e-5
-1.344, 1.018e-5
-1.343, 1.011e-5
-1.342, 9.904e-6
-1.341, 9.581e-6
-1.340, 9.489e-6
-1.339, 9.582e-6
-1.338, 9.523e-6
-1.337, 9.273e-6
-1.336, 8.898e-6
-1.335, 8.867e-6
-1.334, 8.925e-6
-1.333, 8.972e-6
-1.332, 8.683e-6
-1.331, 8.359e-6
-1.330, 8.309e-6
-1.329, 8.277e-6
-1.328, 8.385e-6
-1.327, 8.204e-6
-1.326, 7.829e-6
-1.325, 7.821e-6
-1.324, 7.767e-6
-1.323, 7.857e-6
-1.322, 7.632e-6
-1.321, 7.339e-6
-1.320, 7.273e-6
-1.319, 7.363e-6
-1.318, 7.293e-6
-1.317, 7.159e-6
-1.316, 6.852e-6
-1.315, 6.818e-6
-1.314, 6.987e-6
-1.313, 6.924e-6
-1.312, 6.617e-6
-1.311, 6.472e-6
-1.310, 6.402e-6
-1.309, 6.468e-6
-1.308, 6.546e-6
-1.307, 6.285e-6
-1.306, 6.057e-6
-1.305, 5.981e-6
-1.304, 6.114e-6
-1.303, 6.067e-6
-1.302, 5.938e-6
-1.301, 5.688e-6
-1.300, 5.695e-6
-1.299, 5.653e-6
-1.298, 5.721e-6
-1.297, 5.515e-6
-1.296, 5.301e-6
-1.295, 5.255e-6
-1.294, 5.345e-6
-1.293, 5.416e-6
-1.292, 5.214e-6
-1.291, 4.951e-6
-1.290, 4.843e-6
-1.289, 5.107e-6
-1.288, 5.090e-6
-1.287, 4.896e-6
-1.286, 4.642e-6
-1.285, 4.500e-6
-1.284, 4.722e-6
-1.283, 4.784e-6
-1.282, 4.645e-6
-1.281, 4.411e-6
-1.280, 4.182e-6
-1.279, 4.368e-6
-1.278, 4.415e-6
-1.277, 4.271e-6
-1.276, 4.020e-6
-1.275, 3.885e-6
-1.274, 4.074e-6
-1.273, 4.061e-6
-1.272, 3.997e-6
-1.271, 3.819e-6
-1.270, 3.683e-6
-1.269, 3.798e-6
-1.268, 3.833e-6
-1.267, 3.634e-6
-1.266, 3.449e-6
-1.265, 3.373e-6
-1.264, 3.566e-6
-1.263, 3.640e-6
-1.262, 3.443e-6
-1.261, 3.191e-6
-1.260, 3.100e-6
-1.259, 3.187e-6
-1.258, 3.396e-6
-1.257, 3.237e-6
-1.256, 3.050e-6
-1.255, 2.851e-6
-1.254, 2.967e-6
-1.253, 3.108e-6
-1.252, 2.945e-6
-1.251, 2.807e-6
-1.250, 2.695e-6
-1.249, 2.792e-6
-1.248, 2.891e-6
-1.247, 2.748e-6
-1.246, 2.497e-6
-1.245, 2.434e-6
-1.244, 2.645e-6
-1.243, 2.672e-6
-1.242, 2.553e-6
-1.241, 2.260e-6
-1.240, 2.234e-6
-1.239, 2.347e-6
-1.238, 2.492e-6
-1.237, 2.381e-6
-1.236, 2.156e-6
-1.235, 2.039e-6
-1.234, 2.033e-6
-1.233, 2.243e-6
-1.232, 2.145e-6
-1.231, 1.972e-6
-1.230, 1.862e-6
-1.229, 1.926e-6
-1.228, 1.897e-6
-1.227, 1.922e-6
-1.226, 1.683e-6
-1.225, 1.596e-6
-1.224, 1.800e-6
-1.223, 1.845e-6
-1.222, 1.752e-6
-1.221, 1.521e-6
-1.220, 1.408e-6
-1.219, 1.566e-6
-1.218, 1.686e-6
-1.217, 1.561e-6
-1.216, 1.316e-6
-1.215, 1.248e-6
-1.214, 1.340e-6
-1.213, 1.419e-6
-1.212, 1.302e-6
-1.211, 1.163e-6
-1.210, 1.102e-6
-1.209, 1.097e-6
-1.208, 1.228e-6
-1.207, 1.145e-6
-1.206, 1.007e-6
-1.205, 8.956e-7
-1.204, 9.203e-7
-1.203, 1.016e-6
-1.202, 1.005e-6
-1.201, 7.970e-7
-1.200, 6.954e-7
-1.199, 7.467e-7
-1.198, 9.459e-7
-1.197, 8.552e-7
-1.196, 6.440e-7
-1.195, 5.355e-7
-1.194, 5.730e-7
-1.193, 7.940e-7
-1.192, 6.362e-7
-1.191, 5.701e-7
-1.190, 3.333e-7
-1.189, 3.994e-7
-1.188, 5.355e-7
-1.187, 4.043e-7
-1.186, 3.510e-7
-1.185, 2.336e-7
-1.184, 2.958e-7
-1.183, 3.974e-7
-1.182, 2.642e-7
-1.181, 2.070e-7
-1.180, 8.070e-8
-1.179, 1.330e-7
-1.178, 2.050e-7
-1.177, 1.656e-7
-1.176, 1.776e-9
-1.175, -1.926e-7
-1.174, -8.800e-8
-1.173, 9.254e-8
-1.172, 1.855e-8
-1.171, -2.399e-7
-1.170, -3.593e-7
-1.169, -2.370e-7
-1.168, -1.058e-7
-1.167, -1.955e-7
-1.166, -3.544e-7
-1.165, -4.787e-7
-1.164, -4.096e-7
-1.163, -2.301e-7
-1.162, -3.544e-7
-1.161, -3.790e-7
-1.160, -5.635e-7
-1.159, -5.339e-7
-1.158, -3.998e-7
-1.157, -5.251e-7
-1.156, -7.362e-7
-1.155, -8.053e-7
-1.154, -7.323e-7
-1.153, -5.862e-7
-1.152, -6.898e-7
-1.151, -8.901e-7
-1.150, -9.167e-7
-1.149, -8.053e-7
-1.148, -6.366e-7
-1.147, -7.697e-7
-1.146, -9.661e-7
-1.145, -1.109e-6
-1.144, -1.010e-6
-1.143, -8.871e-7
-1.142, -9.296e-7
-1.141, -1.138e-6
-1.140, -1.139e-6
-1.139, -1.222e-6
-1.138, -1.082e-6
-1.137, -1.155e-6
-1.136, -1.267e-6
-1.135, -1.357e-6
-1.134, -1.319e-6
-1.133, -1.224e-6
-1.132, -1.251e-6
-1.131, -1.494e-6
-1.130, -1.638e-6
-1.129, -1.481e-6
-1.128, -1.382e-6
-1.127, -1.450e-6
-1.126, -1.603e-6
-1.125, -1.795e-6
-1.124, -1.602e-6
-1.123, -1.568e-6
-1.122, -1.579e-6
-1.121, -1.751e-6
-1.120, -1.864e-6
-1.119, -1.841e-6
-1.118, -1.824e-6
-1.117, -1.653e-6
-1.116, -1.950e-6
-1.115, -2.021e-6
-1.114, -1.973e-6
-1.113, -1.890e-6
-1.112, -1.786e-6
-1.111, -2.180e-6
-1.110, -2.192e-6
-1.109, -2.165e-6
-1.108, -1.996e-6
-1.107, -1.978e-6
-1.106, -2.259e-6
-1.105, -2.380e-6
-1.104, -2.275e-6
-1.103, -2.176e-6
-1.102, -2.288e-6
-1.101, -2.397e-6
-1.100, -2.563e-6
-1.099, -2.455e-6
-1.098, -2.402e-6
-1.097, -2.288e-6
-1.096, -2.522e-6
-1.095, -2.722e-6
-1.094, -2.645e-6
-1.093, -2.513e-6
-1.092, -2.459e-6
-1.091, -2.663e-6
-1.090, -2.825e-6
-1.089, -2.814e-6
-1.088, -2.608e-6
-1.087, -2.665e-6
-1.086, -2.837e-6
-1.085, -2.994e-6
-1.084, -2.919e-6
-1.083, -2.837e-6
-1.082, -2.798e-6
-1.081, -3.073e-6
-1.080, -3.194e-6
-1.079, -3.194e-6
-1.078, -2.969e-6
-1.077, -2.959e-6
-1.076, -3.247e-6
-1.075, -3.351e-6
-1.074, -3.248e-6
-1.073, -3.150e-6
-1.072, -3.110e-6
-1.071, -3.324e-6
-1.070, -3.534e-6
-1.069, -3.500e-6
-1.068, -3.406e-6
-1.067, -3.301e-6
-1.066, -3.400e-6
-1.065, -3.631e-6
-1.064, -3.679e-6
-1.063, -3.498e-6
-1.062, -3.549e-6
-1.061, -3.772e-6
-1.060, -3.821e-6
-1.059, -3.893e-6
-1.058, -3.670e-6
-1.057, -3.656e-6
-1.056, -3.899e-6
-1.055, -4.046e-6
-1.054, -4.107e-6
-1.053, -3.833e-6
-1.052, -3.839e-6
-1.051, -4.065e-6
-1.050, -4.213e-6
-1.049, -4.284e-6
-1.048, -4.071e-6
-1.047, -4.038e-6
-1.046, -4.188e-6
-1.045, -4.338e-6
-1.044, -4.396e-6
-1.043, -4.254e-6
-1.042, -4.251e-6
-1.041, -4.348e-6
-1.040, -4.543e-6
-1.039, -4.643e-6
-1.038, -4.440e-6
-1.037, -4.338e-6
-1.036, -4.582e-6
-1.035, -4.752e-6
-1.034, -4.845e-6
-1.033, -4.777e-6
-1.032, -4.575e-6
-1.031, -4.701e-6
-1.030, -4.861e-6
-1.029, -4.987e-6
-1.028, -4.824e-6
-1.027, -4.737e-6
-1.026, -4.906e-6
-1.025, -5.081e-6
-1.024, -5.195e-6
-1.023, -5.018e-6
-1.022, -4.954e-6
-1.021, -5.120e-6
-1.020, -5.297e-6
-1.019, -5.332e-6
-1.018, -5.152e-6
-1.017, -5.126e-6
-1.016, -5.306e-6
-1.015, -5.493e-6
-1.014, -5.428e-6
-1.013, -5.424e-6
-1.012, -5.231e-6
-1.011, -5.504e-6
-1.010, -5.681e-6
-1.009, -5.692e-6
-1.008, -5.625e-6
-1.007, -5.510e-6
-1.006, -5.650e-6
-1.005, -5.838e-6
-1.004, -5.875e-6
-1.003, -5.825e-6
-1.002, -5.734e-6
-1.001, -5.893e-6
