Dec. 20, 2024   04:49:35
Linear Sweep Voltammetry
File: c:/users/guazh/data/banditlqround7_x0exp667_r5/2024-12-16-exp707\regeneratedgce-2024-12-20t04_44_58-lsvinkoh\regeneratedgce_lsv_50mvs_efin_-1900mv.bin
Data Source:  Experiment
Instrument Model:  CHI760E
Header: LSV ran at 50 mVs with Efin at -1900mV
Note: 

Init E (V) = -0.6
Final E (V) = -1.9
Scan Rate (V/s) = 0.05
Sample Interval (V) = 0.001
Quiet Time (sec) = 2
Sensitivity (A/V) = 1e-4
Comp R (ohm) = 1.3

Results:

Channel 1:

Potential/V, Current/A

-0.600, -7.181e-7
-0.601, -5.659e-7
-0.602, -5.194e-7
-0.603, -4.916e-7
-0.604, -4.628e-7
-0.605, -4.401e-7
-0.606, -4.113e-7
-0.607, -3.964e-7
-0.608, -3.755e-7
-0.609, -3.574e-7
-0.610, -3.387e-7
-0.611, -3.215e-7
-0.612, -3.087e-7
-0.613, -2.956e-7
-0.614, -2.775e-7
-0.615, -2.594e-7
-0.616, -2.480e-7
-0.617, -2.390e-7
-0.618, -2.282e-7
-0.619, -2.152e-7
-0.620, -2.035e-7
-0.621, -1.890e-7
-0.622, -1.852e-7
-0.623, -1.788e-7
-0.624, -1.605e-7
-0.625, -1.450e-7
-0.626, -1.344e-7
-0.627, -1.291e-7
-0.628, -1.196e-7
-0.629, -1.073e-7
-0.630, -9.602e-8
-0.631, -8.595e-8
-0.632, -7.796e-8
-0.633, -7.303e-8
-0.634, -6.287e-8
-0.635, -5.043e-8
-0.636, -3.978e-8
-0.637, -3.544e-8
-0.638, -2.656e-8
-0.639, -2.133e-8
-0.640, -1.255e-8
-0.641, 6.709e-10
-0.642, 6.393e-9
-0.643, 1.389e-8
-0.644, 2.395e-8
-0.645, 3.106e-8
-0.646, 3.806e-8
-0.647, 4.566e-8
-0.648, 5.178e-8
-0.649, 6.036e-8
-0.650, 6.835e-8
-0.651, 7.703e-8
-0.652, 8.206e-8
-0.653, 8.650e-8
-0.654, 9.499e-8
-0.655, 1.049e-7
-0.656, 1.090e-7
-0.657, 1.149e-7
-0.658, 1.202e-7
-0.659, 1.273e-7
-0.660, 1.376e-7
-0.661, 1.431e-7
-0.662, 1.481e-7
-0.663, 1.524e-7
-0.664, 1.607e-7
-0.665, 1.705e-7
-0.666, 1.788e-7
-0.667, 1.806e-7
-0.668, 1.879e-7
-0.669, 1.929e-7
-0.670, 2.025e-7
-0.671, 2.077e-7
-0.672, 2.112e-7
-0.673, 2.142e-7
-0.674, 2.210e-7
-0.675, 2.308e-7
-0.676, 2.375e-7
-0.677, 2.396e-7
-0.678, 2.458e-7
-0.679, 2.522e-7
-0.680, 2.592e-7
-0.681, 2.666e-7
-0.682, 2.672e-7
-0.683, 2.708e-7
-0.684, 2.784e-7
-0.685, 2.889e-7
-0.686, 2.946e-7
-0.687, 2.961e-7
-0.688, 3.001e-7
-0.689, 3.061e-7
-0.690, 3.139e-7
-0.691, 3.196e-7
-0.692, 3.226e-7
-0.693, 3.264e-7
-0.694, 3.330e-7
-0.695, 3.415e-7
-0.696, 3.454e-7
-0.697, 3.473e-7
-0.698, 3.516e-7
-0.699, 3.560e-7
-0.700, 3.646e-7
-0.701, 3.689e-7
-0.702, 3.726e-7
-0.703, 3.747e-7
-0.704, 3.806e-7
-0.705, 3.890e-7
-0.706, 3.916e-7
-0.707, 3.949e-7
-0.708, 4.005e-7
-0.709, 4.039e-7
-0.710, 4.123e-7
-0.711, 4.172e-7
-0.712, 4.172e-7
-0.713, 4.218e-7
-0.714, 4.268e-7
-0.715, 4.342e-7
-0.716, 4.382e-7
-0.717, 4.417e-7
-0.718, 4.473e-7
-0.719, 4.510e-7
-0.720, 4.574e-7
-0.721, 4.612e-7
-0.722, 4.622e-7
-0.723, 4.661e-7
-0.724, 4.726e-7
-0.725, 4.810e-7
-0.726, 4.854e-7
-0.727, 4.855e-7
-0.728, 4.902e-7
-0.729, 4.950e-7
-0.730, 5.015e-7
-0.731, 5.049e-7
-0.732, 5.066e-7
-0.733, 5.095e-7
-0.734, 5.150e-7
-0.735, 5.218e-7
-0.736, 5.256e-7
-0.737, 5.277e-7
-0.738, 5.314e-7
-0.739, 5.373e-7
-0.740, 5.421e-7
-0.741, 5.442e-7
-0.742, 5.477e-7
-0.743, 5.504e-7
-0.744, 5.559e-7
-0.745, 5.646e-7
-0.746, 5.644e-7
-0.747, 5.659e-7
-0.748, 5.702e-7
-0.749, 5.760e-7
-0.750, 5.829e-7
-0.751, 5.859e-7
-0.752, 5.871e-7
-0.753, 5.909e-7
-0.754, 5.938e-7
-0.755, 6.025e-7
-0.756, 6.054e-7
-0.757, 6.065e-7
-0.758, 6.088e-7
-0.759, 6.144e-7
-0.760, 6.200e-7
-0.761, 6.242e-7
-0.762, 6.259e-7
-0.763, 6.286e-7
-0.764, 6.325e-7
-0.765, 6.386e-7
-0.766, 6.429e-7
-0.767, 6.433e-7
-0.768, 6.482e-7
-0.769, 6.535e-7
-0.770, 6.586e-7
-0.771, 6.618e-7
-0.772, 6.622e-7
-0.773, 6.638e-7
-0.774, 6.714e-7
-0.775, 6.779e-7
-0.776, 6.792e-7
-0.777, 6.813e-7
-0.778, 6.813e-7
-0.779, 6.886e-7
-0.780, 6.957e-7
-0.781, 6.971e-7
-0.782, 6.994e-7
-0.783, 7.027e-7
-0.784, 7.074e-7
-0.785, 7.162e-7
-0.786, 7.180e-7
-0.787, 7.192e-7
-0.788, 7.218e-7
-0.789, 7.263e-7
-0.790, 7.329e-7
-0.791, 7.358e-7
-0.792, 7.367e-7
-0.793, 7.419e-7
-0.794, 7.475e-7
-0.795, 7.523e-7
-0.796, 7.557e-7
-0.797, 7.549e-7
-0.798, 7.592e-7
-0.799, 7.627e-7
-0.800, 7.711e-7
-0.801, 7.752e-7
-0.802, 7.752e-7
-0.803, 7.797e-7
-0.804, 7.854e-7
-0.805, 7.916e-7
-0.806, 7.946e-7
-0.807, 7.954e-7
-0.808, 7.991e-7
-0.809, 8.055e-7
-0.810, 8.116e-7
-0.811, 8.147e-7
-0.812, 8.176e-7
-0.813, 8.197e-7
-0.814, 8.250e-7
-0.815, 8.326e-7
-0.816, 8.355e-7
-0.817, 8.363e-7
-0.818, 8.401e-7
-0.819, 8.500e-7
-0.820, 8.555e-7
-0.821, 8.549e-7
-0.822, 8.560e-7
-0.823, 8.575e-7
-0.824, 8.643e-7
-0.825, 8.707e-7
-0.826, 8.722e-7
-0.827, 8.737e-7
-0.828, 8.748e-7
-0.829, 8.806e-7
-0.830, 8.890e-7
-0.831, 8.925e-7
-0.832, 8.932e-7
-0.833, 8.961e-7
-0.834, 9.008e-7
-0.835, 9.069e-7
-0.836, 9.095e-7
-0.837, 9.097e-7
-0.838, 9.123e-7
-0.839, 9.159e-7
-0.840, 9.214e-7
-0.841, 9.253e-7
-0.842, 9.273e-7
-0.843, 9.290e-7
-0.844, 9.357e-7
-0.845, 9.434e-7
-0.846, 9.458e-7
-0.847, 9.465e-7
-0.848, 9.495e-7
-0.849, 9.565e-7
-0.850, 9.575e-7
-0.851, 9.614e-7
-0.852, 9.631e-7
-0.853, 9.653e-7
-0.854, 9.705e-7
-0.855, 9.764e-7
-0.856, 9.782e-7
-0.857, 9.808e-7
-0.858, 9.838e-7
-0.859, 9.911e-7
-0.860, 1.006e-6
-0.861, 1.010e-6
-0.862, 1.016e-6
-0.863, 1.014e-6
-0.864, 1.018e-6
-0.865, 1.017e-6
-0.866, 1.016e-6
-0.867, 1.020e-6
-0.868, 1.022e-6
-0.869, 1.028e-6
-0.870, 1.036e-6
-0.871, 1.038e-6
-0.872, 1.040e-6
-0.873, 1.043e-6
-0.874, 1.049e-6
-0.875, 1.054e-6
-0.876, 1.056e-6
-0.877, 1.059e-6
-0.878, 1.062e-6
-0.879, 1.067e-6
-0.880, 1.073e-6
-0.881, 1.075e-6
-0.882, 1.077e-6
-0.883, 1.080e-6
-0.884, 1.086e-6
-0.885, 1.092e-6
-0.886, 1.095e-6
-0.887, 1.097e-6
-0.888, 1.099e-6
-0.889, 1.105e-6
-0.890, 1.111e-6
-0.891, 1.113e-6
-0.892, 1.115e-6
-0.893, 1.118e-6
-0.894, 1.125e-6
-0.895, 1.131e-6
-0.896, 1.134e-6
-0.897, 1.136e-6
-0.898, 1.139e-6
-0.899, 1.146e-6
-0.900, 1.154e-6
-0.901, 1.156e-6
-0.902, 1.159e-6
-0.903, 1.162e-6
-0.904, 1.167e-6
-0.905, 1.175e-6
-0.906, 1.176e-6
-0.907, 1.180e-6
-0.908, 1.183e-6
-0.909, 1.189e-6
-0.910, 1.194e-6
-0.911, 1.197e-6
-0.912, 1.198e-6
-0.913, 1.201e-6
-0.914, 1.207e-6
-0.915, 1.214e-6
-0.916, 1.215e-6
-0.917, 1.215e-6
-0.918, 1.221e-6
-0.919, 1.228e-6
-0.920, 1.234e-6
-0.921, 1.236e-6
-0.922, 1.238e-6
-0.923, 1.241e-6
-0.924, 1.247e-6
-0.925, 1.253e-6
-0.926, 1.255e-6
-0.927, 1.256e-6
-0.928, 1.261e-6
-0.929, 1.270e-6
-0.930, 1.277e-6
-0.931, 1.278e-6
-0.932, 1.281e-6
-0.933, 1.284e-6
-0.934, 1.293e-6
-0.935, 1.298e-6
-0.936, 1.301e-6
-0.937, 1.302e-6
-0.938, 1.308e-6
-0.939, 1.313e-6
-0.940, 1.319e-6
-0.941, 1.323e-6
-0.942, 1.328e-6
-0.943, 1.331e-6
-0.944, 1.340e-6
-0.945, 1.346e-6
-0.946, 1.351e-6
-0.947, 1.354e-6
-0.948, 1.355e-6
-0.949, 1.363e-6
-0.950, 1.371e-6
-0.951, 1.372e-6
-0.952, 1.373e-6
-0.953, 1.379e-6
-0.954, 1.383e-6
-0.955, 1.388e-6
-0.956, 1.390e-6
-0.957, 1.391e-6
-0.958, 1.395e-6
-0.959, 1.404e-6
-0.960, 1.412e-6
-0.961, 1.415e-6
-0.962, 1.416e-6
-0.963, 1.421e-6
-0.964, 1.426e-6
-0.965, 1.432e-6
-0.966, 1.436e-6
-0.967, 1.443e-6
-0.968, 1.446e-6
-0.969, 1.450e-6
-0.970, 1.456e-6
-0.971, 1.459e-6
-0.972, 1.463e-6
-0.973, 1.471e-6
-0.974, 1.477e-6
-0.975, 1.483e-6
-0.976, 1.490e-6
-0.977, 1.493e-6
-0.978, 1.498e-6
-0.979, 1.505e-6
-0.980, 1.511e-6
-0.981, 1.511e-6
-0.982, 1.516e-6
-0.983, 1.519e-6
-0.984, 1.524e-6
-0.985, 1.533e-6
-0.986, 1.536e-6
-0.987, 1.539e-6
-0.988, 1.543e-6
-0.989, 1.551e-6
-0.990, 1.557e-6
-0.991, 1.559e-6
-0.992, 1.564e-6
-0.993, 1.570e-6
-0.994, 1.575e-6
-0.995, 1.582e-6
-0.996, 1.589e-6
-0.997, 1.589e-6
-0.998, 1.594e-6
-0.999, 1.603e-6
-1.000, 1.609e-6
-1.001, 1.614e-6
-1.002, 1.617e-6
-1.003, 1.624e-6
-1.004, 1.633e-6
-1.005, 1.640e-6
-1.006, 1.648e-6
-1.007, 1.654e-6
-1.008, 1.657e-6
-1.009, 1.668e-6
-1.010, 1.675e-6
-1.011, 1.678e-6
-1.012, 1.683e-6
-1.013, 1.687e-6
-1.014, 1.699e-6
-1.015, 1.697e-6
-1.016, 1.702e-6
-1.017, 1.709e-6
-1.018, 1.714e-6
-1.019, 1.722e-6
-1.020, 1.731e-6
-1.021, 1.738e-6
-1.022, 1.742e-6
-1.023, 1.748e-6
-1.024, 1.759e-6
-1.025, 1.765e-6
-1.026, 1.769e-6
-1.027, 1.773e-6
-1.028, 1.776e-6
-1.029, 1.787e-6
-1.030, 1.794e-6
-1.031, 1.800e-6
-1.032, 1.802e-6
-1.033, 1.808e-6
-1.034, 1.816e-6
-1.035, 1.825e-6
-1.036, 1.828e-6
-1.037, 1.832e-6
-1.038, 1.838e-6
-1.039, 1.849e-6
-1.040, 1.854e-6
-1.041, 1.859e-6
-1.042, 1.861e-6
-1.043, 1.868e-6
-1.044, 1.878e-6
-1.045, 1.883e-6
-1.046, 1.888e-6
-1.047, 1.890e-6
-1.048, 1.897e-6
-1.049, 1.904e-6
-1.050, 1.913e-6
-1.051, 1.919e-6
-1.052, 1.926e-6
-1.053, 1.930e-6
-1.054, 1.938e-6
-1.055, 1.945e-6
-1.056, 1.947e-6
-1.057, 1.952e-6
-1.058, 1.957e-6
-1.059, 1.970e-6
-1.060, 1.976e-6
-1.061, 1.977e-6
-1.062, 1.982e-6
-1.063, 1.993e-6
-1.064, 2.003e-6
-1.065, 2.011e-6
-1.066, 2.011e-6
-1.067, 2.018e-6
-1.068, 2.025e-6
-1.069, 2.034e-6
-1.070, 2.044e-6
-1.071, 2.045e-6
-1.072, 2.050e-6
-1.073, 2.057e-6
-1.074, 2.066e-6
-1.075, 2.075e-6
-1.076, 2.080e-6
-1.077, 2.080e-6
-1.078, 2.085e-6
-1.079, 2.092e-6
-1.080, 2.096e-6
-1.081, 2.097e-6
-1.082, 2.098e-6
-1.083, 2.101e-6
-1.084, 2.113e-6
-1.085, 2.127e-6
-1.086, 2.136e-6
-1.087, 2.134e-6
-1.088, 2.145e-6
-1.089, 2.167e-6
-1.090, 2.174e-6
-1.091, 2.173e-6
-1.092, 2.179e-6
-1.093, 2.186e-6
-1.094, 2.200e-6
-1.095, 2.209e-6
-1.096, 2.208e-6
-1.097, 2.206e-6
-1.098, 2.209e-6
-1.099, 2.221e-6
-1.100, 2.226e-6
-1.101, 2.232e-6
-1.102, 2.239e-6
-1.103, 2.240e-6
-1.104, 2.244e-6
-1.105, 2.253e-6
-1.106, 2.257e-6
-1.107, 2.263e-6
-1.108, 2.271e-6
-1.109, 2.280e-6
-1.110, 2.287e-6
-1.111, 2.287e-6
-1.112, 2.294e-6
-1.113, 2.294e-6
-1.114, 2.299e-6
-1.115, 2.303e-6
-1.116, 2.307e-6
-1.117, 2.311e-6
-1.118, 2.320e-6
-1.119, 2.325e-6
-1.120, 2.331e-6
-1.121, 2.334e-6
-1.122, 2.334e-6
-1.123, 2.339e-6
-1.124, 2.356e-6
-1.125, 2.360e-6
-1.126, 2.361e-6
-1.127, 2.361e-6
-1.128, 2.364e-6
-1.129, 2.376e-6
-1.130, 2.385e-6
-1.131, 2.386e-6
-1.132, 2.394e-6
-1.133, 2.400e-6
-1.134, 2.407e-6
-1.135, 2.419e-6
-1.136, 2.416e-6
-1.137, 2.419e-6
-1.138, 2.430e-6
-1.139, 2.434e-6
-1.140, 2.435e-6
-1.141, 2.438e-6
-1.142, 2.449e-6
-1.143, 2.458e-6
-1.144, 2.464e-6
-1.145, 2.471e-6
-1.146, 2.477e-6
-1.147, 2.482e-6
-1.148, 2.487e-6
-1.149, 2.496e-6
-1.150, 2.504e-6
-1.151, 2.508e-6
-1.152, 2.517e-6
-1.153, 2.519e-6
-1.154, 2.520e-6
-1.155, 2.525e-6
-1.156, 2.527e-6
-1.157, 2.534e-6
-1.158, 2.542e-6
-1.159, 2.550e-6
-1.160, 2.556e-6
-1.161, 2.556e-6
-1.162, 2.555e-6
-1.163, 2.567e-6
-1.164, 2.580e-6
-1.165, 2.580e-6
-1.166, 2.582e-6
-1.167, 2.587e-6
-1.168, 2.587e-6
-1.169, 2.599e-6
-1.170, 2.607e-6
-1.171, 2.610e-6
-1.172, 2.614e-6
-1.173, 2.618e-6
-1.174, 2.629e-6
-1.175, 2.634e-6
-1.176, 2.636e-6
-1.177, 2.636e-6
-1.178, 2.645e-6
-1.179, 2.656e-6
-1.180, 2.660e-6
-1.181, 2.666e-6
-1.182, 2.672e-6
-1.183, 2.676e-6
-1.184, 2.687e-6
-1.185, 2.692e-6
-1.186, 2.692e-6
-1.187, 2.701e-6
-1.188, 2.708e-6
-1.189, 2.719e-6
-1.190, 2.723e-6
-1.191, 2.724e-6
-1.192, 2.725e-6
-1.193, 2.725e-6
-1.194, 2.733e-6
-1.195, 2.743e-6
-1.196, 2.750e-6
-1.197, 2.747e-6
-1.198, 2.754e-6
-1.199, 2.760e-6
-1.200, 2.765e-6
-1.201, 2.771e-6
-1.202, 2.779e-6
-1.203, 2.790e-6
-1.204, 2.799e-6
-1.205, 2.800e-6
-1.206, 2.803e-6
-1.207, 2.806e-6
-1.208, 2.813e-6
-1.209, 2.823e-6
-1.210, 2.832e-6
-1.211, 2.831e-6
-1.212, 2.832e-6
-1.213, 2.836e-6
-1.214, 2.841e-6
-1.215, 2.846e-6
-1.216, 2.849e-6
-1.217, 2.856e-6
-1.218, 2.862e-6
-1.219, 2.869e-6
-1.220, 2.874e-6
-1.221, 2.874e-6
-1.222, 2.877e-6
-1.223, 2.884e-6
-1.224, 2.892e-6
-1.225, 2.898e-6
-1.226, 2.897e-6
-1.227, 2.901e-6
-1.228, 2.903e-6
-1.229, 2.920e-6
-1.230, 2.924e-6
-1.231, 2.920e-6
-1.232, 2.924e-6
-1.233, 2.934e-6
-1.234, 2.939e-6
-1.235, 2.944e-6
-1.236, 2.945e-6
-1.237, 2.943e-6
-1.238, 2.948e-6
-1.239, 2.954e-6
-1.240, 2.957e-6
-1.241, 2.961e-6
-1.242, 2.964e-6
-1.243, 2.968e-6
-1.244, 2.976e-6
-1.245, 2.980e-6
-1.246, 2.982e-6
-1.247, 2.984e-6
-1.248, 2.991e-6
-1.249, 3.003e-6
-1.250, 3.001e-6
-1.251, 3.005e-6
-1.252, 3.007e-6
-1.253, 3.011e-6
-1.254, 3.017e-6
-1.255, 3.020e-6
-1.256, 3.019e-6
-1.257, 3.022e-6
-1.258, 3.020e-6
-1.259, 3.026e-6
-1.260, 3.028e-6
-1.261, 3.028e-6
-1.262, 3.033e-6
-1.263, 3.039e-6
-1.264, 3.044e-6
-1.265, 3.049e-6
-1.266, 3.048e-6
-1.267, 3.050e-6
-1.268, 3.054e-6
-1.269, 3.060e-6
-1.270, 3.064e-6
-1.271, 3.068e-6
-1.272, 3.070e-6
-1.273, 3.074e-6
-1.274, 3.080e-6
-1.275, 3.083e-6
-1.276, 3.074e-6
-1.277, 3.071e-6
-1.278, 3.079e-6
-1.279, 3.087e-6
-1.280, 3.091e-6
-1.281, 3.097e-6
-1.282, 3.094e-6
-1.283, 3.103e-6
-1.284, 3.108e-6
-1.285, 3.111e-6
-1.286, 3.111e-6
-1.287, 3.112e-6
-1.288, 3.111e-6
-1.289, 3.117e-6
-1.290, 3.114e-6
-1.291, 3.118e-6
-1.292, 3.121e-6
-1.293, 3.127e-6
-1.294, 3.132e-6
-1.295, 3.131e-6
-1.296, 3.132e-6
-1.297, 3.135e-6
-1.298, 3.138e-6
-1.299, 3.150e-6
-1.300, 3.149e-6
-1.301, 3.141e-6
-1.302, 3.141e-6
-1.303, 3.148e-6
-1.304, 3.157e-6
-1.305, 3.160e-6
-1.306, 3.157e-6
-1.307, 3.160e-6
-1.308, 3.165e-6
-1.309, 3.168e-6
-1.310, 3.173e-6
-1.311, 3.165e-6
-1.312, 3.168e-6
-1.313, 3.174e-6
-1.314, 3.183e-6
-1.315, 3.185e-6
-1.316, 3.183e-6
-1.317, 3.185e-6
-1.318, 3.191e-6
-1.319, 3.199e-6
-1.320, 3.202e-6
-1.321, 3.200e-6
-1.322, 3.194e-6
-1.323, 3.203e-6
-1.324, 3.208e-6
-1.325, 3.213e-6
-1.326, 3.208e-6
-1.327, 3.207e-6
-1.328, 3.209e-6
-1.329, 3.215e-6
-1.330, 3.220e-6
-1.331, 3.221e-6
-1.332, 3.217e-6
-1.333, 3.220e-6
-1.334, 3.224e-6
-1.335, 3.224e-6
-1.336, 3.223e-6
-1.337, 3.220e-6
-1.338, 3.223e-6
-1.339, 3.232e-6
-1.340, 3.238e-6
-1.341, 3.234e-6
-1.342, 3.235e-6
-1.343, 3.234e-6
-1.344, 3.242e-6
-1.345, 3.247e-6
-1.346, 3.245e-6
-1.347, 3.247e-6
-1.348, 3.258e-6
-1.349, 3.264e-6
-1.350, 3.265e-6
-1.351, 3.264e-6
-1.352, 3.263e-6
-1.353, 3.270e-6
-1.354, 3.276e-6
-1.355, 3.281e-6
-1.356, 3.277e-6
-1.357, 3.278e-6
-1.358, 3.279e-6
-1.359, 3.282e-6
-1.360, 3.295e-6
-1.361, 3.297e-6
-1.362, 3.295e-6
-1.363, 3.298e-6
-1.364, 3.303e-6
-1.365, 3.305e-6
-1.366, 3.308e-6
-1.367, 3.308e-6
-1.368, 3.315e-6
-1.369, 3.322e-6
-1.370, 3.328e-6
-1.371, 3.333e-6
-1.372, 3.337e-6
-1.373, 3.346e-6
-1.374, 3.354e-6
-1.375, 3.346e-6
-1.376, 3.343e-6
-1.377, 3.344e-6
-1.378, 3.350e-6
-1.379, 3.359e-6
-1.380, 3.369e-6
-1.381, 3.369e-6
-1.382, 3.373e-6
-1.383, 3.383e-6
-1.384, 3.390e-6
-1.385, 3.398e-6
-1.386, 3.401e-6
-1.387, 3.400e-6
-1.388, 3.406e-6
-1.389, 3.414e-6
-1.390, 3.422e-6
-1.391, 3.419e-6
-1.392, 3.424e-6
-1.393, 3.429e-6
-1.394, 3.438e-6
-1.395, 3.442e-6
-1.396, 3.438e-6
-1.397, 3.441e-6
-1.398, 3.447e-6
-1.399, 3.452e-6
-1.400, 3.459e-6
-1.401, 3.457e-6
-1.402, 3.457e-6
-1.403, 3.467e-6
-1.404, 3.478e-6
-1.405, 3.487e-6
-1.406, 3.495e-6
-1.407, 3.494e-6
-1.408, 3.506e-6
-1.409, 3.520e-6
-1.410, 3.524e-6
-1.411, 3.526e-6
-1.412, 3.528e-6
-1.413, 3.537e-6
-1.414, 3.559e-6
-1.415, 3.565e-6
-1.416, 3.569e-6
-1.417, 3.576e-6
-1.418, 3.578e-6
-1.419, 3.588e-6
-1.420, 3.593e-6
-1.421, 3.598e-6
-1.422, 3.612e-6
-1.423, 3.622e-6
-1.424, 3.639e-6
-1.425, 3.648e-6
-1.426, 3.661e-6
-1.427, 3.674e-6
-1.428, 3.681e-6
-1.429, 3.703e-6
-1.430, 3.730e-6
-1.431, 3.743e-6
-1.432, 3.743e-6
-1.433, 3.740e-6
-1.434, 3.740e-6
-1.435, 3.745e-6
-1.436, 3.756e-6
-1.437, 3.752e-6
-1.438, 3.775e-6
-1.439, 3.780e-6
-1.440, 3.770e-6
-1.441, 3.775e-6
-1.442, 3.774e-6
-1.443, 3.782e-6
-1.444, 3.804e-6
-1.445, 3.814e-6
-1.446, 3.832e-6
-1.447, 3.842e-6
-1.448, 3.830e-6
-1.449, 3.831e-6
-1.450, 3.830e-6
-1.451, 3.835e-6
-1.452, 3.860e-6
-1.453, 3.885e-6
-1.454, 3.906e-6
-1.455, 3.913e-6
-1.456, 3.916e-6
-1.457, 3.930e-6
-1.458, 3.951e-6
-1.459, 4.003e-6
-1.460, 4.026e-6
-1.461, 4.021e-6
-1.462, 4.022e-6
-1.463, 4.045e-6
-1.464, 4.088e-6
-1.465, 4.109e-6
-1.466, 4.110e-6
-1.467, 4.118e-6
-1.468, 4.135e-6
-1.469, 4.180e-6
-1.470, 4.201e-6
-1.471, 4.205e-6
-1.472, 4.239e-6
-1.473, 4.332e-6
-1.474, 4.366e-6
-1.475, 4.412e-6
-1.476, 4.464e-6
-1.477, 4.477e-6
-1.478, 4.473e-6
-1.479, 4.468e-6
-1.480, 4.491e-6
-1.481, 4.502e-6
-1.482, 4.529e-6
-1.483, 4.559e-6
-1.484, 4.539e-6
-1.485, 4.530e-6
-1.486, 4.512e-6
-1.487, 4.506e-6
-1.488, 4.514e-6
-1.489, 4.493e-6
-1.490, 4.466e-6
-1.491, 4.465e-6
-1.492, 4.481e-6
-1.493, 4.492e-6
-1.494, 4.505e-6
-1.495, 4.509e-6
-1.496, 4.515e-6
-1.497, 4.531e-6
-1.498, 4.547e-6
-1.499, 4.542e-6
-1.500, 4.542e-6
-1.501, 4.529e-6
-1.502, 4.524e-6
-1.503, 4.532e-6
-1.504, 4.542e-6
-1.505, 4.548e-6
-1.506, 4.556e-6
-1.507, 4.568e-6
-1.508, 4.576e-6
-1.509, 4.593e-6
-1.510, 4.591e-6
-1.511, 4.603e-6
-1.512, 4.617e-6
-1.513, 4.634e-6
-1.514, 4.641e-6
-1.515, 4.656e-6
-1.516, 4.663e-6
-1.517, 4.664e-6
-1.518, 4.683e-6
-1.519, 4.699e-6
-1.520, 4.703e-6
-1.521, 4.710e-6
-1.522, 4.718e-6
-1.523, 4.748e-6
-1.524, 4.770e-6
-1.525, 4.789e-6
-1.526, 4.803e-6
-1.527, 4.801e-6
-1.528, 4.817e-6
-1.529, 4.839e-6
-1.530, 4.847e-6
-1.531, 4.856e-6
-1.532, 4.868e-6
-1.533, 4.874e-6
-1.534, 4.890e-6
-1.535, 4.898e-6
-1.536, 4.910e-6
-1.537, 4.924e-6
-1.538, 4.927e-6
-1.539, 4.940e-6
-1.540, 4.943e-6
-1.541, 4.941e-6
-1.542, 4.954e-6
-1.543, 4.976e-6
-1.544, 4.996e-6
-1.545, 5.015e-6
-1.546, 5.028e-6
-1.547, 5.040e-6
-1.548, 5.057e-6
-1.549, 5.081e-6
-1.550, 5.102e-6
-1.551, 5.118e-6
-1.552, 5.126e-6
-1.553, 5.140e-6
-1.554, 5.154e-6
-1.555, 5.180e-6
-1.556, 5.185e-6
-1.557, 5.199e-6
-1.558, 5.230e-6
-1.559, 5.243e-6
-1.560, 5.248e-6
-1.561, 5.274e-6
-1.562, 5.301e-6
-1.563, 5.326e-6
-1.564, 5.334e-6
-1.565, 5.354e-6
-1.566, 5.377e-6
-1.567, 5.377e-6
-1.568, 5.397e-6
-1.569, 5.435e-6
-1.570, 5.454e-6
-1.571, 5.476e-6
-1.572, 5.512e-6
-1.573, 5.547e-6
-1.574, 5.583e-6
-1.575, 5.595e-6
-1.576, 5.607e-6
-1.577, 5.635e-6
-1.578, 5.682e-6
-1.579, 5.714e-6
-1.580, 5.720e-6
-1.581, 5.727e-6
-1.582, 5.751e-6
-1.583, 5.785e-6
-1.584, 5.821e-6
-1.585, 5.851e-6
-1.586, 5.889e-6
-1.587, 5.919e-6
-1.588, 5.961e-6
-1.589, 5.986e-6
-1.590, 6.007e-6
-1.591, 6.031e-6
-1.592, 6.058e-6
-1.593, 6.100e-6
-1.594, 6.147e-6
-1.595, 6.190e-6
-1.596, 6.212e-6
-1.597, 6.241e-6
-1.598, 6.281e-6
-1.599, 6.328e-6
-1.600, 6.367e-6
-1.601, 6.404e-6
-1.602, 6.446e-6
-1.603, 6.515e-6
-1.604, 6.563e-6
-1.605, 6.612e-6
-1.606, 6.653e-6
-1.607, 6.693e-6
-1.608, 6.750e-6
-1.609, 6.827e-6
-1.610, 6.906e-6
-1.611, 6.981e-6
-1.612, 6.994e-6
-1.613, 7.039e-6
-1.614, 7.110e-6
-1.615, 7.157e-6
-1.616, 7.232e-6
-1.617, 7.271e-6
-1.618, 7.309e-6
-1.619, 7.369e-6
-1.620, 7.417e-6
-1.621, 7.462e-6
-1.622, 7.503e-6
-1.623, 7.578e-6
-1.624, 7.630e-6
-1.625, 7.705e-6
-1.626, 7.766e-6
-1.627, 7.824e-6
-1.628, 7.895e-6
-1.629, 8.016e-6
-1.630, 8.074e-6
-1.631, 8.137e-6
-1.632, 8.204e-6
-1.633, 8.283e-6
-1.634, 8.359e-6
-1.635, 8.447e-6
-1.636, 8.530e-6
-1.637, 8.592e-6
-1.638, 8.670e-6
-1.639, 8.738e-6
-1.640, 8.779e-6
-1.641, 8.842e-6
-1.642, 8.913e-6
-1.643, 8.997e-6
-1.644, 9.053e-6
-1.645, 9.109e-6
-1.646, 9.187e-6
-1.647, 9.260e-6
-1.648, 9.381e-6
-1.649, 9.492e-6
-1.650, 9.559e-6
-1.651, 9.652e-6
-1.652, 9.761e-6
-1.653, 9.867e-6
-1.654, 9.982e-6
-1.655, 1.009e-5
-1.656, 1.017e-5
-1.657, 1.027e-5
-1.658, 1.038e-5
-1.659, 1.049e-5
-1.660, 1.060e-5
-1.661, 1.070e-5
-1.662, 1.081e-5
-1.663, 1.090e-5
-1.664, 1.105e-5
-1.665, 1.121e-5
-1.666, 1.134e-5
-1.667, 1.144e-5
-1.668, 1.154e-5
-1.669, 1.168e-5
-1.670, 1.182e-5
-1.671, 1.194e-5
-1.672, 1.205e-5
-1.673, 1.217e-5
-1.674, 1.230e-5
-1.675, 1.244e-5
-1.676, 1.258e-5
-1.677, 1.271e-5
-1.678, 1.291e-5
-1.679, 1.308e-5
-1.680, 1.323e-5
-1.681, 1.338e-5
-1.682, 1.356e-5
-1.683, 1.376e-5
-1.684, 1.394e-5
-1.685, 1.413e-5
-1.686, 1.434e-5
-1.687, 1.457e-5
-1.688, 1.479e-5
-1.689, 1.499e-5
-1.690, 1.519e-5
-1.691, 1.540e-5
-1.692, 1.563e-5
-1.693, 1.584e-5
-1.694, 1.608e-5
-1.695, 1.632e-5
-1.696, 1.658e-5
-1.697, 1.682e-5
-1.698, 1.704e-5
-1.699, 1.731e-5
-1.700, 1.758e-5
-1.701, 1.787e-5
-1.702, 1.816e-5
-1.703, 1.841e-5
-1.704, 1.868e-5
-1.705, 1.898e-5
-1.706, 1.928e-5
-1.707, 1.957e-5
-1.708, 1.987e-5
-1.709, 2.016e-5
-1.710, 2.048e-5
-1.711, 2.078e-5
-1.712, 2.114e-5
-1.713, 2.148e-5
-1.714, 2.184e-5
-1.715, 2.218e-5
-1.716, 2.256e-5
-1.717, 2.295e-5
-1.718, 2.335e-5
-1.719, 2.372e-5
-1.720, 2.413e-5
-1.721, 2.452e-5
-1.722, 2.495e-5
-1.723, 2.546e-5
-1.724, 2.589e-5
-1.725, 2.630e-5
-1.726, 2.665e-5
-1.727, 2.712e-5
-1.728, 2.761e-5
-1.729, 2.813e-5
-1.730, 2.862e-5
-1.731, 2.919e-5
-1.732, 2.986e-5
-1.733, 3.047e-5
-1.734, 3.109e-5
-1.735, 3.168e-5
-1.736, 3.233e-5
-1.737, 3.299e-5
-1.738, 3.364e-5
-1.739, 3.432e-5
-1.740, 3.494e-5
-1.741, 3.566e-5
-1.742, 3.644e-5
-1.743, 3.728e-5
-1.744, 3.812e-5
-1.745, 3.895e-5
-1.746, 3.974e-5
-1.747, 4.062e-5
-1.748, 4.156e-5
-1.749, 4.243e-5
-1.750, 4.339e-5
-1.751, 4.434e-5
-1.752, 4.544e-5
-1.753, 4.659e-5
-1.754, 4.766e-5
-1.755, 4.882e-5
-1.756, 5.015e-5
-1.757, 5.144e-5
-1.758, 5.273e-5
-1.759, 5.389e-5
-1.760, 5.505e-5
-1.761, 5.635e-5
-1.762, 5.770e-5
-1.763, 5.919e-5
-1.764, 6.085e-5
-1.765, 6.240e-5
-1.766, 6.403e-5
-1.767, 6.568e-5
-1.768, 6.726e-5
-1.769, 6.891e-5
-1.770, 7.064e-5
-1.771, 7.227e-5
-1.772, 7.393e-5
-1.773, 7.583e-5
-1.774, 7.783e-5
-1.775, 7.993e-5
-1.776, 8.202e-5
-1.777, 8.426e-5
-1.778, 8.670e-5
-1.779, 8.924e-5
-1.780, 9.175e-5
-1.781, 9.437e-5
-1.782, 9.707e-5
-1.783, 9.986e-5
-1.784, 1.028e-4
-1.785, 1.058e-4
-1.786, 1.088e-4
-1.787, 1.117e-4
-1.788, 1.150e-4
-1.789, 1.180e-4
-1.790, 1.207e-4
-1.791, 1.238e-4
-1.792, 1.270e-4
-1.793, 1.304e-4
-1.794, 1.339e-4
-1.795, 1.377e-4
-1.796, 1.416e-4
-1.797, 1.458e-4
-1.798, 1.499e-4
-1.799, 1.541e-4
-1.800, 1.585e-4
-1.801, 1.631e-4
-1.802, 1.680e-4
-1.803, 1.730e-4
-1.804, 1.781e-4
-1.805, 1.829e-4
-1.806, 1.878e-4
-1.807, 1.931e-4
-1.808, 1.984e-4
-1.809, 2.035e-4
-1.810, 2.090e-4
-1.811, 2.149e-4
-1.812, 2.210e-4
-1.813, 2.275e-4
-1.814, 2.340e-4
-1.815, 2.407e-4
-1.816, 2.479e-4
-1.817, 2.552e-4
-1.818, 2.625e-4
-1.819, 2.703e-4
-1.820, 2.787e-4
-1.821, 2.872e-4
-1.822, 2.954e-4
-1.823, 3.039e-4
-1.824, 3.127e-4
-1.825, 3.213e-4
-1.826, 3.306e-4
-1.827, 3.400e-4
-1.828, 3.495e-4
-1.829, 3.594e-4
-1.830, 3.696e-4
-1.831, 3.797e-4
-1.832, 3.901e-4
-1.833, 4.012e-4
-1.834, 4.126e-4
-1.835, 4.241e-4
-1.836, 4.357e-4
-1.837, 4.479e-4
-1.838, 4.602e-4
-1.839, 4.726e-4
-1.840, 4.854e-4
-1.841, 4.984e-4
-1.842, 5.119e-4
-1.843, 5.259e-4
-1.844, 5.403e-4
-1.845, 5.547e-4
-1.846, 5.696e-4
-1.847, 5.851e-4
-1.848, 6.006e-4
-1.849, 6.166e-4
-1.850, 6.332e-4
-1.851, 6.496e-4
-1.852, 6.664e-4
-1.853, 6.836e-4
-1.854, 7.014e-4
-1.855, 7.189e-4
-1.856, 7.372e-4
-1.857, 7.562e-4
-1.858, 7.749e-4
-1.859, 7.944e-4
-1.860, 8.140e-4
-1.861, 8.343e-4
-1.862, 8.549e-4
-1.863, 8.757e-4
-1.864, 8.962e-4
-1.865, 9.172e-4
-1.866, 9.390e-4
-1.867, 9.615e-4
-1.868, 9.841e-4
-1.869, 1.006e-3
-1.870, 1.011e-3
-1.871, 1.011e-3
-1.872, 1.011e-3
-1.873, 1.011e-3
-1.874, 1.011e-3
-1.875, 1.011e-3
-1.876, 1.011e-3
-1.877, 1.011e-3
-1.878, 1.011e-3
-1.879, 1.011e-3
-1.880, 1.011e-3
-1.881, 1.011e-3
-1.882, 1.011e-3
-1.883, 1.011e-3
-1.884, 1.011e-3
-1.885, 1.011e-3
-1.886, 1.011e-3
-1.887, 1.011e-3
-1.888, 1.011e-3
-1.889, 1.011e-3
-1.890, 1.011e-3
-1.891, 1.011e-3
-1.892, 1.011e-3
-1.893, 1.011e-3
-1.894, 1.011e-3
-1.895, 1.011e-3
-1.896, 1.011e-3
-1.897, 1.011e-3
-1.898, 1.011e-3
-1.899, 1.011e-3
