Potential V vs RHE, Current mA cm-2
0.013299999999999867,0.07656417554869578
0.012299999999999978,0.03441992592571634
0.011299999999999866,0.015675001202504608
0.010299999999999976,0.0016778476016399337
0.009299999999999864,-0.013410048411420683
0.008299999999999974,-0.02847813846628319
0.007299999999999862,-0.04013535957717109
0.006299999999999972,-0.04759088812745983
0.00529999999999986,-0.0540702658808417
0.0042999999999999705,-0.06301124129598873
0.0032999999999998586,-0.07540411228280645
0.0022999999999999687,-0.08372261472601288
0.0012999999999998568,-0.08868825138853914
0.00029999999999996696,-0.09283335549714371
-0.000700000000000145,-0.10060012053340277
-0.0017000000000000348,-0.11145095620336758
-0.0027000000000001467,-0.11785959839175622
-0.0037000000000000366,-0.12152370065840666
-0.0047000000000001485,-0.1256122163150166
-0.005700000000000038,-0.13146912109645786
-0.00670000000000015,-0.14161260111649018
-0.00770000000000004,-0.14797880196588284
-0.008700000000000152,-0.1506667534356264
-0.009700000000000042,-0.154203531685289
-0.010700000000000154,-0.16028679027470866
-0.011700000000000044,-0.16863358694391237
-0.012700000000000156,-0.17514125892329155
-0.013700000000000045,-0.17768773926304862
-0.014700000000000157,-0.18009274847281917
-0.015700000000000047,-0.1851857091523333
-0.01670000000000016,-0.193532505821537
-0.01770000000000005,-0.20004017780091618
-0.01870000000000016,-0.20202077362072723
-0.01970000000000005,-0.20513313848043033
-0.020700000000000163,-0.21065051254990397
-0.021700000000000053,-0.21871436695913468
-0.022700000000000164,-0.22578792345845985
-0.023700000000000054,-0.22635380797840585
-0.024700000000000166,-0.2284758749282034
-0.025700000000000056,-0.23484207577759608
-0.026700000000000168,-0.24078386323702924
-0.027700000000000058,-0.2477159486063679
-0.02870000000000017,-0.24969654442617895
-0.02970000000000006,-0.25139419798601703
-0.03070000000000017,-0.2581848122253692
-0.03170000000000006,-0.26455101307476186
-0.03270000000000017,-0.27105868505414105
-0.03370000000000006,-0.2733222231339251
-0.034700000000000175,-0.27572723234369567
-0.035700000000000065,-0.2816690198031288
-0.03670000000000018,-0.2894499319523865
-0.03770000000000007,-0.2946843637618871
-0.03870000000000018,-0.2973723152316307
-0.03970000000000007,-0.2992114399214552
-0.04070000000000018,-0.30571911190083445
-0.04170000000000007,-0.31350002405009214
-0.04270000000000018,-0.3184515135996197
-0.04370000000000007,-0.3205735805494173
-0.044700000000000184,-0.3231200608891744
-0.045700000000000074,-0.32764713704874243
-0.046700000000000186,-0.3350036358080407
-0.047700000000000076,-0.34009659648755486
-0.04870000000000019,-0.3417942500473929
-0.04970000000000008,-0.34391631699719044
-0.05070000000000019,-0.3509898734965156
-0.05170000000000008,-0.3580634299958408
-0.05270000000000019,-0.36541992875513896
-0.05370000000000008,-0.3658443421450985
-0.05470000000000019,-0.36810788022488256
-0.05570000000000008,-0.37617173463411324
-0.056700000000000195,-0.38536735808323597
-0.057700000000000085,-0.38565030034320896
-0.058700000000000196,-0.384518531303317
-0.059700000000000086,-0.38791383842299304
-0.0607000000000002,-0.39611916396221025
-0.06170000000000009,-0.4017780091616704
-0.0627000000000002,-0.40687096984118454
-0.06370000000000009,-0.406446556451225
-0.0647000000000002,-0.4082856811410496
-0.06570000000000009,-0.4121054016506852
-0.0667000000000002,-0.4187545447600509
-0.0677000000000001,-0.4251207456094435
-0.0687000000000002,-0.4248378033494705
-0.0697000000000001,-0.42596957238936256
-0.07070000000000021,-0.4307795908089037
-0.0717000000000001,-0.4375702050482558
-0.07270000000000021,-0.4436534636376755
-0.0737000000000001,-0.444926703807554
-0.07470000000000021,-0.44619994397743257
-0.0757000000000001,-0.45242467369683875
-0.07670000000000021,-0.4606299992360559
-0.0777000000000001,-0.462044710535921
-0.07870000000000021,-0.46317647957581304
-0.0797000000000001,-0.46388383522574556
-0.08070000000000022,-0.47010856494515163
-0.0817000000000001,-0.4776065348344364
-0.08270000000000022,-0.48284096664393705
-0.08370000000000011,-0.48340685116388304
-0.08470000000000022,-0.4838312645538425
-0.08570000000000011,-0.4890656963633432
-0.08670000000000022,-0.4965636662526278
-0.08770000000000011,-0.501656626932142
-0.08870000000000022,-0.5027883959720341
-0.08970000000000011,-0.504203107271899
-0.09070000000000022,-0.5059007608317371
-0.09170000000000011,-0.5129743173310622
-0.09270000000000023,-0.51792580688059
-0.09370000000000012,-0.518774633660509
-0.09470000000000023,-0.5180672780105765
-0.09570000000000012,-0.5203308160903605
-0.09670000000000023,-0.5252823056398881
-0.09770000000000012,-0.5305167374493888
-0.09870000000000023,-0.5313655642293078
-0.09970000000000012,-0.5312240930993213
-0.10070000000000023,-0.5353267558689299
-0.10170000000000012,-0.5435320814081471
-0.10270000000000024,-0.5470688596578097
-0.10370000000000013,-0.5489079843476343
-0.10470000000000024,-0.5521618203373237
-0.10570000000000013,-0.5498982822575398
-0.10670000000000024,-0.5545668295470944
-0.10770000000000013,-0.5579621366667705
-0.10870000000000024,-0.559235376836649
-0.10970000000000013,-0.5593768479666354
-0.11070000000000024,-0.5631965684762711
-0.11170000000000013,-0.5691383559357043
-0.11270000000000002,-0.5721092496654209
-0.11370000000000013,-0.5684310002857718
-0.11470000000000002,-0.5663089333359742
-0.11570000000000014,-0.5701286538456097
-0.11670000000000003,-0.578899863904773
-0.11770000000000014,-0.5831439978043682
-0.11870000000000003,-0.5832854689343547
-0.11970000000000014,-0.5838513534543007
-0.12070000000000003,-0.5880954873538957
-0.12170000000000014,-0.5933299191633964
-0.12270000000000003,-0.594886101593248
-0.12370000000000014,-0.5944616882032884
-0.12470000000000003,-0.598281408712924
-0.12570000000000014,-0.5960178706331399
-0.12670000000000003,-0.6011108313126541
-0.12770000000000015,-0.6052134940822627
-0.12870000000000004,-0.6042231961723572
-0.12970000000000015,-0.6054964363422356
-0.13070000000000004,-0.6071940899020738
-0.13170000000000015,-0.6131358773615069
-0.13270000000000004,-0.6131358773615069
-0.13370000000000015,-0.6132773484914934
-0.13470000000000004,-0.6134188196214798
-0.13570000000000015,-0.615965299961237
-0.13670000000000004,-0.6203509049908186
-0.13770000000000016,-0.6228973853305756
-0.13870000000000005,-0.6203509049908186
-0.13970000000000016,-0.620492376120805
-0.14070000000000005,-0.6243120966304406
-0.14170000000000016,-0.6281318171400763
-0.14270000000000005,-0.6316685953897389
-0.14370000000000016,-0.6308197686098198
-0.14470000000000005,-0.6306782974798333
-0.14570000000000016,-0.6332247778195904
-0.14670000000000005,-0.638176267369118
-0.14770000000000016,-0.6401568631889291
-0.14870000000000005,-0.6405812765788885
-0.14970000000000017,-0.639873920928956
-0.15070000000000006,-0.6424204012687131
-0.15170000000000017,-0.6475133619482272
-0.15270000000000006,-0.6490695443780788
-0.15370000000000017,-0.6486451309881194
-0.15470000000000006,-0.6487866021181058
-0.15570000000000017,-0.6526063226277414
-0.15670000000000006,-0.65670898539735
-0.15770000000000017,-0.659255465737107
-0.15870000000000006,-0.6601042925170262
-0.15970000000000018,-0.6582651678272016
-0.16070000000000007,-0.6603872347769991
-0.16170000000000018,-0.6674607912763243
-0.16270000000000007,-0.6708560983960004
-0.16370000000000018,-0.6711390406559734
-0.16470000000000007,-0.672129338565879
-0.16570000000000018,-0.6734025787357575
-0.16670000000000007,-0.6799102507151367
-0.16770000000000018,-0.6807590774950557
-0.16870000000000007,-0.6813249620150017
-0.16970000000000018,-0.6817493754049612
-0.17070000000000007,-0.6844373268747048
-0.17170000000000019,-0.6906620565941108
-0.17270000000000008,-0.6893888164242324
-0.1737000000000002,-0.6878326339943809
-0.17470000000000008,-0.6876911628643944
-0.1757000000000002,-0.6906620565941108
-0.17670000000000008,-0.6953306038836656
-0.1777000000000002,-0.6988673821333282
-0.17870000000000008,-0.6984429687433686
-0.1797000000000002,-0.6985844398733552
-0.18070000000000008,-0.7018382758630447
-0.1817000000000002,-0.7065068231525994
-0.18270000000000008,-0.7079215344524644
-0.1837000000000002,-0.7082044767124374
-0.1847000000000001,-0.7083459478424239
-0.1857000000000002,-0.7117412549621
-0.1867000000000001,-0.7154195043417491
-0.1877000000000002,-0.7205124650212632
-0.1887000000000001,-0.7210783495412092
-0.1897000000000002,-0.7251810123108178
-0.1907000000000001,-0.7250395411808312
-0.1917000000000001,-0.7282933771705209
-0.19269999999999998,-0.7306983863802915
-0.1937000000000001,-0.7318301554201835
-0.19469999999999998,-0.7323960399401295
-0.1957000000000001,-0.7342351646299541
-0.19669999999999999,-0.7386207696595357
-0.1977000000000001,-0.7418746056492252
-0.1987,-0.7451284416389149
-0.1997000000000001,-0.7437137303390498
-0.2007,-0.7459772684188338
-0.2017000000000001,-0.7509287579683614
-0.2027,-0.753899651698078
-0.2037000000000001,-0.7537581805680915
-0.2047,-0.75220199813824
-0.2057000000000001,-0.755597305257916
-0.2067,-0.7619635061073088
-0.2077000000000001,-0.7642270441870929
-0.2087,-0.7649343998370254
-0.2097000000000001,-0.7660661688769174
-0.2107,-0.7698858893865529
-0.2117000000000001,-0.7755447345860131
-0.2127,-0.7792229839656621
-0.2137000000000001,-0.7812035797854733
-0.2147,-0.7831841756052842
-0.2157000000000001,-0.7882771362847985
-0.2167,-0.7925212701843936
-0.21770000000000012,-0.7971898174739481
-0.2187,-0.8008680668535972
-0.21970000000000012,-0.8032730760633678
-0.2207,-0.8087904501328415
-0.22170000000000012,-0.8141663530723287
-0.2227,-0.8182690158419373
-0.22370000000000012,-0.8191178426218563
-0.2247,-0.8225131497415324
-0.22570000000000012,-0.8267572836411275
-0.2267,-0.8335478978804797
-0.22770000000000012,-0.8387823296899803
-0.22870000000000001,-0.8420361656796699
-0.22970000000000013,-0.8454314727993459
-0.23070000000000002,-0.8516562025187521
-0.23170000000000013,-0.8602859414479289
-0.23270000000000002,-0.8648130176074971
-0.23370000000000013,-0.8680668535971865
-0.23470000000000002,-0.8717451029768355
-0.23570000000000013,-0.8769795347863362
-0.23670000000000002,-0.884477504675621
-0.2376999999999999,-0.8907022343950269
-0.23870000000000002,-0.8955122528145681
-0.2396999999999999,-0.9006052134940823
-0.24070000000000003,-0.9085275967733266
-0.24169999999999991,-0.9195623449122737
-0.24270000000000003,-0.9250797189817473
-0.24369999999999992,-0.9301726796612616
-0.24470000000000003,-0.9363974093806677
-0.24569999999999992,-0.9433294947500065
-0.24670000000000003,-0.9530910027190752
-0.24769999999999992,-0.9610133859983194
-0.24870000000000003,-0.9672381157177256
-0.24969999999999992,-0.9728969609171857
-0.25070000000000003,-0.9798290462865243
-0.2516999999999999,-0.9918540923353774
-0.25270000000000004,-1.0013326580444728
-0.2536999999999999,-1.010103868103636
-0.25470000000000004,-1.0180262513828802
-0.2556999999999999,-1.0283536438718952
-0.25670000000000004,-1.039529863140829
-0.25769999999999993,-1.0511304957997225
-0.25870000000000004,-1.060043176988872
-0.25969999999999993,-1.0702290983479001
-0.26070000000000004,-1.0840932690865777
-0.26169999999999993,-1.0992306799951337
-0.26270000000000004,-1.1135192641237703
-0.26369999999999993,-1.1229978298328662
-0.26470000000000005,-1.1351643470117054
-0.26569999999999994,-1.149452931140342
-0.26670000000000005,-1.1668538801286823
-0.26769999999999994,-1.1819912910372383
-0.26870000000000005,-1.1954310483859558
-0.26969999999999994,-1.2087293346046872
-0.27070000000000005,-1.2274035237629057
-0.27169999999999994,-1.2452288861412053
-0.27270000000000005,-1.2622054217395857
-0.27369999999999994,-1.2776257749081146
-0.27470000000000006,-1.293470541466603
-0.27569999999999995,-1.3127106151447676
-0.27670000000000006,-1.3326580444728646
-0.27769999999999995,-1.3526054738009616
-0.27870000000000006,-1.3722699608690856
-0.27969999999999995,-1.386700016127709
-0.28070000000000006,-1.4041009651160488
-0.28169999999999995,-1.4246142789640919
-0.28270000000000006,-1.4472496597619326
-0.28369999999999995,-1.4684703292599082
-0.28470000000000006,-1.4840321535584236
-0.28569999999999995,-1.505252823056399
-0.28670000000000007,-1.5307176264539697
-0.28769999999999996,-1.55052358465208
-0.28870000000000007,-1.5689148315503256
-0.28969999999999996,-1.5887207897484361
-0.29070000000000007,-1.6085267479465466
-0.29169999999999996,-1.6339915513441174
-0.29270000000000007,-1.656626932141958
-0.29369999999999996,-1.6750181790402037
-0.2947000000000001,-1.693409425938449
-0.29569999999999996,-1.7132153841365596
-0.2967000000000001,-1.7358507649344
-0.29769999999999996,-1.7556567231325106
-0.2987000000000001,-1.769803836131161
-0.29969999999999997,-1.7881950830294064
-0.3007000000000001,-1.8051716186277869
-0.30169999999999997,-1.823562865526032
-0.3027000000000001,-1.8405394011244125
-0.30369999999999997,-1.8546865141230628
-0.3047000000000001,-1.8688336271217136
-0.30569999999999997,-1.884395451420229
-0.3067000000000001,-1.9042014096183393
-0.3077,-1.9197632339168547
-0.3087000000000001,-1.9296662130159101
-0.3097,-1.9395691921149654
-0.3107000000000001,-1.9537163051136157
-0.3117,-1.9692781294121309
-0.3127000000000001,-1.9820105311109162
-0.3137,-1.9904987989101068
-0.3147000000000001,-1.9989870667092968
-0.3157,-2.008890045808352
-0.3167000000000001,-2.0187930249074073
-0.3177,-2.0301107153063276
-0.3187000000000001,-2.038598983105518
-0.3197,-2.0414284057052483
-0.3207000000000001,-2.047087250904708
-0.3217,-2.0555755187038987
-0.3227000000000001,-2.0598196526034935
-0.3237,-2.0612343639033583
-0.3247000000000001,-2.0683079204026833
-0.3257,-2.073966765602144
-0.3267000000000001,-2.082455033401334
-0.3277,-2.0881138786007942
-0.3287000000000001,-2.0909433012005243
-0.3297,-2.0909433012005243
-0.3307000000000001,-2.0966021463999844
-0.3317,-2.10367570289931
-0.3327000000000001,-2.1093345480987695
-0.3337,-2.113578681998365
-0.3347000000000001,-2.113578681998365
-0.3357,-2.11782281589796
-0.3367000000000001,-2.12348166109742
-0.3377,-2.12914050629688
-0.3387000000000001,-2.13196992889661
-0.3397,-2.133384640196476
-0.3407000000000001,-2.13762877409607
-0.3417,-2.1461170418952604
-0.3427000000000001,-2.150361175794856
-0.3437,-2.1531905983945863
-0.3447000000000001,-2.1574347322941807
-0.3457,-2.161678866193776
-0.3467000000000001,-2.1645082887935065
-0.3477,-2.1758259791924264
-0.3487000000000001,-2.181484824391887
-0.3497,-2.1871436695913467
-0.3507000000000001,-2.1913878034909415
-0.3517,-2.204120205189727
-0.3527000000000001,-2.2126084729889177
-0.3537,-2.2182673181883774
-0.3547000000000001,-2.2196820294882422
-0.3557,-2.229585008587298
-0.35670000000000013,-2.238073276386488
-0.3577,-2.2437321215859485
-0.35870000000000013,-2.250805678085273
-0.3597,-2.257879234584599
-0.36070000000000013,-2.2691969249835187
-0.3617,-2.2776851927827093
-0.3626999999999999,-2.286173460581899
-0.3637,-2.296076439680954
-0.3646999999999999,-2.30314999618028
-0.3657,-2.3158823978790646
-0.3666999999999999,-2.3342736447773107
-0.3677,-2.349835469075826
-0.3686999999999999,-2.355494314275286
-0.36970000000000003,-2.3653972933743415
-0.3706999999999999,-2.3781296950731265
-0.37170000000000003,-2.396520941971372
-0.3726999999999999,-2.4134974775697526
-0.37370000000000003,-2.4234004566688077
-0.3746999999999999,-2.4347181470677284
-0.37570000000000003,-2.451694682666109
-0.3766999999999999,-2.472915352164084
-0.37770000000000004,-2.4927213103621946
-0.3786999999999999,-2.509697845960575
-0.37970000000000004,-2.5295038041586855
-0.3806999999999999,-2.554968607556256
-0.38170000000000004,-2.581848122253692
-0.38269999999999993,-2.6016540804518025
-0.38370000000000004,-2.631363017748968
-0.38469999999999993,-2.659657243746269
-0.38570000000000004,-2.69361031494303
-0.38669999999999993,-2.6440954194477535
-0.38570000000000004,-2.5648715866553116
-0.38469999999999993,-2.49696544426179
-0.38370000000000004,-2.436132858367593
-0.38269999999999993,-2.380959117672857
-0.38170000000000004,-2.3257853769781205
-0.3806999999999999,-2.2706116362833835
-0.37970000000000004,-2.2182673181883774
-0.3786999999999999,-2.1645082887935065
-0.37770000000000004,-2.1149933932982297
-0.3766999999999999,-2.072552054302279
-0.37570000000000003,-2.0286960040064623
-0.3746999999999999,-1.9834252424107812
-0.37370000000000003,-1.9381544808151003
-0.3726999999999999,-1.8985425644188794
-0.37170000000000003,-1.8589306480226582
-0.3706999999999999,-1.8193187316264372
-0.36970000000000003,-1.778292103930351
-0.3686999999999999,-1.7386801875341302
-0.3677,-1.7061418276372344
-0.3666999999999999,-1.6736034677403384
-0.3657,-1.6382356852437125
-0.3646999999999999,-1.6042826140469515
-0.3637,-1.5689148315503256
-0.3626999999999999,-1.5349617603535646
-0.3617,-1.506667534356264
-0.36070000000000013,-1.4783733083589634
-0.3597,-1.4486643710617975
-0.35870000000000013,-1.420370145064497
-0.3577,-1.3940565148870072
-0.35670000000000013,-1.3683087692294635
-0.3557,-1.340297485492136
-0.3547000000000001,-1.312569144014781
-0.3537,-1.2862555138372913
-0.3527000000000001,-1.2626298351295453
-0.3517,-1.2421165212815022
-0.3507000000000001,-1.219056727093702
-0.3497,-1.1921772123962666
-0.3487000000000001,-1.1679856491685743
-0.3477,-1.1452087972407472
-0.3467000000000001,-1.1266760792125152
-0.3457,-1.1051724674545669
-0.3447000000000001,-1.080273548576942
-0.3437,-1.0583455234290338
-0.3427000000000001,-1.0379736807109774
-0.3417,-1.0211386162425835
-0.3407000000000001,-1.0024644270843648
-0.3397,-0.9812437575863894
-0.3387000000000001,-0.9618622127782385
-0.3377,-0.943753908139966
-0.3367000000000001,-0.9290409106213695
-0.3357,-0.911781432763016
-0.3347000000000001,-0.8919754745649057
-0.3337,-0.8748574678365387
-0.3327000000000001,-0.8600029991879558
-0.3317,-0.8455729439293325
-0.3307000000000001,-0.8290208217209115
-0.3297,-0.8082245656128955
-0.3287000000000001,-0.7887015496747579
-0.3277,-0.774412965546121
-0.3267000000000001,-0.7629538040172142
-0.3257,-0.74937257553851
-0.3247000000000001,-0.734518106889927
-0.3237,-0.7190977537213982
-0.3227000000000001,-0.7041018139428288
-0.3217,-0.6922182390239625
-0.3207000000000001,-0.6790614239352176
-0.3197,-0.6642069552866348
-0.3187000000000001,-0.6493524866380518
-0.3177,-0.6363371426792934
-0.3167000000000001,-0.6251609234103597
-0.3157,-0.6127114639715473
-0.3147000000000001,-0.598281408712924
-0.3137,-0.5830025266743816
-0.3127000000000001,-0.5716848362754614
-0.3117,-0.5640453952561902
-0.3107000000000001,-0.5531521182472294
-0.3097,-0.539570889768525
-0.3087000000000001,-0.5269799591997262
-0.3077,-0.5153793265408328
-0.3067000000000001,-0.5067495876116561
-0.30569999999999997,-0.4958563106026953
-0.3047000000000001,-0.4818506687340315
-0.30369999999999997,-0.46954268042520564
-0.3027000000000001,-0.45907381680620446
-0.30169999999999997,-0.45086849126698714
-0.3007000000000001,-0.44039962764798596
-0.29969999999999997,-0.4280916393391601
-0.2987000000000001,-0.4150762953804018
-0.29769999999999996,-0.4071539121011576
-0.2967000000000001,-0.4010706535117379
-0.29569999999999996,-0.39343121249246665
-0.2947000000000001,-0.3802743974037219
-0.29369999999999996,-0.36810788022488256
-0.29270000000000007,-0.36018549694563834
-0.29169999999999996,-0.35537547852609724
-0.29070000000000007,-0.3480189797667991
-0.28969999999999996,-0.3352865780680137
-0.28870000000000007,-0.3218468207192958
-0.28769999999999996,-0.3125097261401866
-0.28670000000000007,-0.30529469851087493
-0.28569999999999995,-0.29680643071168467
-0.28470000000000006,-0.2869034516126294
-0.28369999999999995,-0.27572723234369567
-0.28270000000000006,-0.268795146974357
-0.28169999999999995,-0.26299483064491036
-0.28070000000000006,-0.2552139184956526
-0.27969999999999995,-0.24587682391654336
-0.27870000000000006,-0.23470060464760956
-0.27769999999999995,-0.2276270481482844
-0.27670000000000006,-0.22196820294882427
-0.27569999999999995,-0.21475317531951257
-0.27470000000000006,-0.20485019622045733
-0.27369999999999994,-0.19395691921149652
