Aug. 4, 2024   20:37:08
Cyclic Voltammetry
File: c:/users/guazh/data/20240802_batch_500/2024-08-02-exp19\exp19-2024-08-04t20_19_25-arkoh\exp19_cv_sr_100mvs_efin_-1700mv.bin
Data Source:  Experiment
Instrument Model:  CHI760E
Header: CV ran at 100 mVs
Note: 

Init E (V) = -1
High E (V) = -1
Low E (V) = -1.7
Final E (V) = -1
Init P/N = N
Scan Rate (V/s) = 0.1
Segment = 3
Sample Interval (V) = 0.001
Quiet Time (sec) = 2
Sensitivity (A/V) = 0.01
Comp R (ohm) = 2.0

Results:

Channel 1:
Segment 1:

Segment 2:

Segment 3:

Potential/V, Current/A

-1.000, 4.753e-6
-1.001, 5.444e-6
-1.002, 7.397e-6
-1.003, 7.940e-6
-1.004, 7.230e-6
-1.005, 9.469e-6
-1.006, 7.970e-6
-1.007, 9.351e-6
-1.008, 9.677e-6
-1.009, 8.631e-6
-1.010, 1.071e-5
-1.011, 9.104e-6
-1.012, 1.036e-5
-1.013, 1.065e-5
-1.014, 9.430e-6
-1.015, 1.151e-5
-1.016, 9.854e-6
-1.017, 1.082e-5
-1.018, 1.127e-5
-1.019, 9.973e-6
-1.020, 1.182e-5
-1.021, 1.026e-5
-1.022, 1.127e-5
-1.023, 1.163e-5
-1.024, 1.047e-5
-1.025, 1.242e-5
-1.026, 1.072e-5
-1.027, 1.178e-5
-1.028, 1.191e-5
-1.029, 1.067e-5
-1.030, 1.245e-5
-1.031, 1.093e-5
-1.032, 1.180e-5
-1.033, 1.213e-5
-1.034, 1.099e-5
-1.035, 1.265e-5
-1.036, 1.117e-5
-1.037, 1.214e-5
-1.038, 1.242e-5
-1.039, 1.097e-5
-1.040, 1.288e-5
-1.041, 1.127e-5
-1.042, 1.208e-5
-1.043, 1.234e-5
-1.044, 1.132e-5
-1.045, 1.295e-5
-1.046, 1.122e-5
-1.047, 1.224e-5
-1.048, 1.266e-5
-1.049, 1.135e-5
-1.050, 1.303e-5
-1.051, 1.154e-5
-1.052, 1.240e-5
-1.053, 1.264e-5
-1.054, 1.130e-5
-1.055, 1.313e-5
-1.056, 1.155e-5
-1.057, 1.240e-5
-1.058, 1.285e-5
-1.059, 1.151e-5
-1.060, 1.317e-5
-1.061, 1.162e-5
-1.062, 1.233e-5
-1.063, 1.283e-5
-1.064, 1.162e-5
-1.065, 1.335e-5
-1.066, 1.186e-5
-1.067, 1.268e-5
-1.068, 1.290e-5
-1.069, 1.168e-5
-1.070, 1.320e-5
-1.071, 1.195e-5
-1.072, 1.257e-5
-1.073, 1.287e-5
-1.074, 1.175e-5
-1.075, 1.348e-5
-1.076, 1.203e-5
-1.077, 1.284e-5
-1.078, 1.305e-5
-1.079, 1.198e-5
-1.080, 1.342e-5
-1.081, 1.207e-5
-1.082, 1.282e-5
-1.083, 1.319e-5
-1.084, 1.192e-5
-1.085, 1.361e-5
-1.086, 1.208e-5
-1.087, 1.288e-5
-1.088, 1.323e-5
-1.089, 1.216e-5
-1.090, 1.364e-5
-1.091, 1.233e-5
-1.092, 1.300e-5
-1.093, 1.334e-5
-1.094, 1.194e-5
-1.095, 1.383e-5
-1.096, 1.241e-5
-1.097, 1.294e-5
-1.098, 1.346e-5
-1.099, 1.210e-5
-1.100, 1.373e-5
-1.101, 1.251e-5
-1.102, 1.298e-5
-1.103, 1.350e-5
-1.104, 1.244e-5
-1.105, 1.394e-5
-1.106, 1.253e-5
-1.107, 1.322e-5
-1.108, 1.360e-5
-1.109, 1.236e-5
-1.110, 1.398e-5
-1.111, 1.263e-5
-1.112, 1.325e-5
-1.113, 1.349e-5
-1.114, 1.250e-5
-1.115, 1.395e-5
-1.116, 1.270e-5
-1.117, 1.323e-5
-1.118, 1.366e-5
-1.119, 1.258e-5
-1.120, 1.407e-5
-1.121, 1.274e-5
-1.122, 1.345e-5
-1.123, 1.382e-5
-1.124, 1.252e-5
-1.125, 1.415e-5
-1.126, 1.288e-5
-1.127, 1.345e-5
-1.128, 1.385e-5
-1.129, 1.258e-5
-1.130, 1.424e-5
-1.131, 1.288e-5
-1.132, 1.344e-5
-1.133, 1.392e-5
-1.134, 1.274e-5
-1.135, 1.433e-5
-1.136, 1.295e-5
-1.137, 1.353e-5
-1.138, 1.389e-5
-1.139, 1.277e-5
-1.140, 1.430e-5
-1.141, 1.310e-5
-1.142, 1.349e-5
-1.143, 1.401e-5
-1.144, 1.269e-5
-1.145, 1.427e-5
-1.146, 1.324e-5
-1.147, 1.359e-5
-1.148, 1.408e-5
-1.149, 1.281e-5
-1.150, 1.449e-5
-1.151, 1.333e-5
-1.152, 1.361e-5
-1.153, 1.422e-5
-1.154, 1.292e-5
-1.155, 1.454e-5
-1.156, 1.322e-5
-1.157, 1.381e-5
-1.158, 1.411e-5
-1.159, 1.312e-5
-1.160, 1.470e-5
-1.161, 1.350e-5
-1.162, 1.403e-5
-1.163, 1.443e-5
-1.164, 1.310e-5
-1.165, 1.476e-5
-1.166, 1.362e-5
-1.167, 1.411e-5
-1.168, 1.443e-5
-1.169, 1.324e-5
-1.170, 1.487e-5
-1.171, 1.367e-5
-1.172, 1.413e-5
-1.173, 1.453e-5
-1.174, 1.342e-5
-1.175, 1.486e-5
-1.176, 1.377e-5
-1.177, 1.427e-5
-1.178, 1.496e-5
-1.179, 1.350e-5
-1.180, 1.513e-5
-1.181, 1.411e-5
-1.182, 1.452e-5
-1.183, 1.506e-5
-1.184, 1.372e-5
-1.185, 1.541e-5
-1.186, 1.429e-5
-1.187, 1.463e-5
-1.188, 1.530e-5
-1.189, 1.388e-5
-1.190, 1.558e-5
-1.191, 1.455e-5
-1.192, 1.476e-5
-1.193, 1.532e-5
-1.194, 1.422e-5
-1.195, 1.577e-5
-1.196, 1.457e-5
-1.197, 1.515e-5
-1.198, 1.569e-5
-1.199, 1.444e-5
-1.200, 1.604e-5
-1.201, 1.489e-5
-1.202, 1.548e-5
-1.203, 1.607e-5
-1.204, 1.477e-5
-1.205, 1.640e-5
-1.206, 1.533e-5
-1.207, 1.586e-5
-1.208, 1.654e-5
-1.209, 1.526e-5
-1.210, 1.684e-5
-1.211, 1.582e-5
-1.212, 1.617e-5
-1.213, 1.690e-5
-1.214, 1.567e-5
-1.215, 1.729e-5
-1.216, 1.631e-5
-1.217, 1.662e-5
-1.218, 1.741e-5
-1.219, 1.617e-5
-1.220, 1.774e-5
-1.221, 1.680e-5
-1.222, 1.723e-5
-1.223, 1.810e-5
-1.224, 1.663e-5
-1.225, 1.829e-5
-1.226, 1.747e-5
-1.227, 1.783e-5
-1.228, 1.867e-5
-1.229, 1.758e-5
-1.230, 1.922e-5
-1.231, 1.828e-5
-1.232, 1.875e-5
-1.233, 1.949e-5
-1.234, 1.830e-5
-1.235, 1.995e-5
-1.236, 1.927e-5
-1.237, 1.956e-5
-1.238, 2.038e-5
-1.239, 1.926e-5
-1.240, 2.092e-5
-1.241, 2.002e-5
-1.242, 2.083e-5
-1.243, 2.147e-5
-1.244, 2.019e-5
-1.245, 2.214e-5
-1.246, 2.123e-5
-1.247, 2.186e-5
-1.248, 2.275e-5
-1.249, 2.154e-5
-1.250, 2.354e-5
-1.251, 2.255e-5
-1.252, 2.310e-5
-1.253, 2.413e-5
-1.254, 2.295e-5
-1.255, 2.491e-5
-1.256, 2.405e-5
-1.257, 2.468e-5
-1.258, 2.570e-5
-1.259, 2.458e-5
-1.260, 2.642e-5
-1.261, 2.598e-5
-1.262, 2.655e-5
-1.263, 2.762e-5
-1.264, 2.648e-5
-1.265, 2.856e-5
-1.266, 2.790e-5
-1.267, 2.850e-5
-1.268, 2.970e-5
-1.269, 2.879e-5
-1.270, 3.085e-5
-1.271, 3.035e-5
-1.272, 3.107e-5
-1.273, 3.230e-5
-1.274, 3.140e-5
-1.275, 3.343e-5
-1.276, 3.298e-5
-1.277, 3.367e-5
-1.278, 3.492e-5
-1.279, 3.425e-5
-1.280, 3.636e-5
-1.281, 3.584e-5
-1.282, 3.696e-5
-1.283, 3.820e-5
-1.284, 3.739e-5
-1.285, 3.975e-5
-1.286, 3.926e-5
-1.287, 4.040e-5
-1.288, 4.175e-5
-1.289, 4.104e-5
-1.290, 4.359e-5
-1.291, 4.314e-5
-1.292, 4.427e-5
-1.293, 4.579e-5
-1.294, 4.514e-5
-1.295, 4.769e-5
-1.296, 4.749e-5
-1.297, 4.858e-5
-1.298, 5.023e-5
-1.299, 4.994e-5
-1.300, 5.240e-5
-1.301, 5.248e-5
-1.302, 5.367e-5
-1.303, 5.566e-5
-1.304, 5.506e-5
-1.305, 5.779e-5
-1.306, 5.812e-5
-1.307, 5.946e-5
-1.308, 6.133e-5
-1.309, 6.097e-5
-1.310, 6.394e-5
-1.311, 6.412e-5
-1.312, 6.576e-5
-1.313, 6.786e-5
-1.314, 6.777e-5
-1.315, 7.071e-5
-1.316, 7.114e-5
-1.317, 7.283e-5
-1.318, 7.506e-5
-1.319, 7.534e-5
-1.320, 7.830e-5
-1.321, 7.901e-5
-1.322, 8.100e-5
-1.323, 8.333e-5
-1.324, 8.354e-5
-1.325, 8.705e-5
-1.326, 8.775e-5
-1.327, 8.984e-5
-1.328, 9.250e-5
-1.329, 9.295e-5
-1.330, 9.657e-5
-1.331, 9.749e-5
-1.332, 9.996e-5
-1.333, 1.027e-4
-1.334, 1.034e-4
-1.335, 1.070e-4
-1.336, 1.083e-4
-1.337, 1.109e-4
-1.338, 1.139e-4
-1.339, 1.149e-4
-1.340, 1.187e-4
-1.341, 1.200e-4
-1.342, 1.229e-4
-1.343, 1.261e-4
-1.344, 1.273e-4
-1.345, 1.315e-4
-1.346, 1.333e-4
-1.347, 1.363e-4
-1.348, 1.397e-4
-1.349, 1.413e-4
-1.350, 1.457e-4
-1.351, 1.477e-4
-1.352, 1.508e-4
-1.353, 1.547e-4
-1.354, 1.565e-4
-1.355, 1.612e-4
-1.356, 1.635e-4
-1.357, 1.669e-4
-1.358, 1.711e-4
-1.359, 1.730e-4
-1.360, 1.780e-4
-1.361, 1.806e-4
-1.362, 1.843e-4
-1.363, 1.885e-4
-1.364, 1.909e-4
-1.365, 1.961e-4
-1.366, 1.990e-4
-1.367, 2.031e-4
-1.368, 2.076e-4
-1.369, 2.102e-4
-1.370, 2.158e-4
-1.371, 2.187e-4
-1.372, 2.231e-4
-1.373, 2.280e-4
-1.374, 2.308e-4
-1.375, 2.367e-4
-1.376, 2.399e-4
-1.377, 2.446e-4
-1.378, 2.500e-4
-1.379, 2.531e-4
-1.380, 2.591e-4
-1.381, 2.629e-4
-1.382, 2.681e-4
-1.383, 2.737e-4
-1.384, 2.771e-4
-1.385, 2.838e-4
-1.386, 2.876e-4
-1.387, 2.930e-4
-1.388, 2.988e-4
-1.389, 3.028e-4
-1.390, 3.093e-4
-1.391, 3.137e-4
-1.392, 3.197e-4
-1.393, 3.259e-4
-1.394, 3.301e-4
-1.395, 3.373e-4
-1.396, 3.420e-4
-1.397, 3.480e-4
-1.398, 3.544e-4
-1.399, 3.589e-4
-1.400, 3.666e-4
-1.401, 3.716e-4
-1.402, 3.782e-4
-1.403, 3.848e-4
-1.404, 3.901e-4
-1.405, 3.980e-4
-1.406, 4.033e-4
-1.407, 4.101e-4
-1.408, 4.171e-4
-1.409, 4.225e-4
-1.410, 4.307e-4
-1.411, 4.363e-4
-1.412, 4.437e-4
-1.413, 4.512e-4
-1.414, 4.570e-4
-1.415, 4.659e-4
-1.416, 4.718e-4
-1.417, 4.795e-4
-1.418, 4.875e-4
-1.419, 4.938e-4
-1.420, 5.030e-4
-1.421, 5.096e-4
-1.422, 5.180e-4
-1.423, 5.261e-4
-1.424, 5.328e-4
-1.425, 5.421e-4
-1.426, 5.490e-4
-1.427, 5.580e-4
-1.428, 5.666e-4
-1.429, 5.736e-4
-1.430, 5.838e-4
-1.431, 5.910e-4
-1.432, 5.998e-4
-1.433, 6.087e-4
-1.434, 6.166e-4
-1.435, 6.265e-4
-1.436, 6.343e-4
-1.437, 6.444e-4
-1.438, 6.537e-4
-1.439, 6.617e-4
-1.440, 6.726e-4
-1.441, 6.805e-4
-1.442, 6.905e-4
-1.443, 7.003e-4
-1.444, 7.086e-4
-1.445, 7.200e-4
-1.446, 7.282e-4
-1.447, 7.386e-4
-1.448, 7.486e-4
-1.449, 7.575e-4
-1.450, 7.692e-4
-1.451, 7.776e-4
-1.452, 7.888e-4
-1.453, 7.992e-4
-1.454, 8.081e-4
-1.455, 8.206e-4
-1.456, 8.299e-4
-1.457, 8.413e-4
-1.458, 8.515e-4
-1.459, 8.614e-4
-1.460, 8.739e-4
-1.461, 8.830e-4
-1.462, 8.947e-4
-1.463, 9.056e-4
-1.464, 9.148e-4
-1.465, 9.281e-4
-1.466, 9.376e-4
-1.467, 9.490e-4
-1.468, 9.600e-4
-1.469, 9.699e-4
-1.470, 9.828e-4
-1.471, 9.926e-4
-1.472, 1.004e-3
-1.473, 1.016e-3
-1.474, 1.026e-3
-1.475, 1.039e-3
-1.476, 1.049e-3
-1.477, 1.061e-3
-1.478, 1.073e-3
-1.479, 1.084e-3
-1.480, 1.097e-3
-1.481, 1.106e-3
-1.482, 1.119e-3
-1.483, 1.131e-3
-1.484, 1.141e-3
-1.485, 1.155e-3
-1.486, 1.165e-3
-1.487, 1.178e-3
-1.488, 1.190e-3
-1.489, 1.201e-3
-1.490, 1.214e-3
-1.491, 1.224e-3
-1.492, 1.237e-3
-1.493, 1.249e-3
-1.494, 1.260e-3
-1.495, 1.274e-3
-1.496, 1.283e-3
-1.497, 1.296e-3
-1.498, 1.309e-3
-1.499, 1.320e-3
-1.500, 1.334e-3
-1.501, 1.345e-3
-1.502, 1.358e-3
-1.503, 1.371e-3
-1.504, 1.382e-3
-1.505, 1.397e-3
-1.506, 1.407e-3
-1.507, 1.420e-3
-1.508, 1.433e-3
-1.509, 1.445e-3
-1.510, 1.459e-3
-1.511, 1.470e-3
-1.512, 1.483e-3
-1.513, 1.497e-3
-1.514, 1.508e-3
-1.515, 1.522e-3
-1.516, 1.534e-3
-1.517, 1.548e-3
-1.518, 1.561e-3
-1.519, 1.573e-3
-1.520, 1.588e-3
-1.521, 1.599e-3
-1.522, 1.615e-3
-1.523, 1.627e-3
-1.524, 1.640e-3
-1.525, 1.656e-3
-1.526, 1.667e-3
-1.527, 1.682e-3
-1.528, 1.694e-3
-1.529, 1.708e-3
-1.530, 1.725e-3
-1.531, 1.737e-3
-1.532, 1.752e-3
-1.533, 1.766e-3
-1.534, 1.780e-3
-1.535, 1.796e-3
-1.536, 1.807e-3
-1.537, 1.823e-3
-1.538, 1.836e-3
-1.539, 1.850e-3
-1.540, 1.868e-3
-1.541, 1.880e-3
-1.542, 1.895e-3
-1.543, 1.911e-3
-1.544, 1.925e-3
-1.545, 1.944e-3
-1.546, 1.957e-3
-1.547, 1.973e-3
-1.548, 1.990e-3
-1.549, 2.005e-3
-1.550, 2.023e-3
-1.551, 2.036e-3
-1.552, 2.053e-3
-1.553, 2.070e-3
-1.554, 2.085e-3
-1.555, 2.104e-3
-1.556, 2.118e-3
-1.557, 2.138e-3
-1.558, 2.154e-3
-1.559, 2.171e-3
-1.560, 2.191e-3
-1.561, 2.205e-3
-1.562, 2.226e-3
-1.563, 2.242e-3
-1.564, 2.259e-3
-1.565, 2.280e-3
-1.566, 2.296e-3
-1.567, 2.319e-3
-1.568, 2.337e-3
-1.569, 2.356e-3
-1.570, 2.383e-3
-1.571, 2.397e-3
-1.572, 2.416e-3
-1.573, 2.434e-3
-1.574, 2.451e-3
-1.575, 2.472e-3
-1.576, 2.489e-3
-1.577, 2.511e-3
-1.578, 2.533e-3
-1.579, 2.556e-3
-1.580, 2.582e-3
-1.581, 2.600e-3
-1.582, 2.629e-3
-1.583, 2.651e-3
-1.584, 2.670e-3
-1.585, 2.696e-3
-1.586, 2.717e-3
-1.587, 2.743e-3
-1.588, 2.766e-3
-1.589, 2.788e-3
-1.590, 2.816e-3
-1.591, 2.838e-3
-1.592, 2.865e-3
-1.593, 2.890e-3
-1.594, 2.914e-3
-1.595, 2.946e-3
-1.596, 2.971e-3
-1.597, 2.999e-3
-1.598, 3.026e-3
-1.599, 3.053e-3
-1.600, 3.084e-3
-1.601, 3.109e-3
-1.602, 3.140e-3
-1.603, 3.170e-3
-1.604, 3.198e-3
-1.605, 3.233e-3
-1.606, 3.260e-3
-1.607, 3.290e-3
-1.608, 3.320e-3
-1.609, 3.351e-3
-1.610, 3.386e-3
-1.611, 3.415e-3
-1.612, 3.452e-3
-1.613, 3.483e-3
-1.614, 3.515e-3
-1.615, 3.551e-3
-1.616, 3.581e-3
-1.617, 3.620e-3
-1.618, 3.654e-3
-1.619, 3.688e-3
-1.620, 3.727e-3
-1.621, 3.759e-3
-1.622, 3.798e-3
-1.623, 3.840e-3
-1.624, 3.866e-3
-1.625, 3.905e-3
-1.626, 3.948e-3
-1.627, 4.001e-3
-1.628, 4.041e-3
-1.629, 4.077e-3
-1.630, 4.121e-3
-1.631, 4.156e-3
-1.632, 4.199e-3
-1.633, 4.240e-3
-1.634, 4.283e-3
-1.635, 4.327e-3
-1.636, 4.361e-3
-1.637, 4.411e-3
-1.638, 4.450e-3
-1.639, 4.493e-3
-1.640, 4.550e-3
-1.641, 4.586e-3
-1.642, 4.635e-3
-1.643, 4.685e-3
-1.644, 4.735e-3
-1.645, 4.793e-3
-1.646, 4.837e-3
-1.647, 4.889e-3
-1.648, 4.937e-3
-1.649, 4.980e-3
-1.650, 5.030e-3
-1.651, 5.077e-3
-1.652, 5.137e-3
-1.653, 5.187e-3
-1.654, 5.237e-3
-1.655, 5.295e-3
-1.656, 5.343e-3
-1.657, 5.400e-3
-1.658, 5.457e-3
-1.659, 5.512e-3
-1.660, 5.579e-3
-1.661, 5.630e-3
-1.662, 5.692e-3
-1.663, 5.751e-3
-1.664, 5.803e-3
-1.665, 5.864e-3
-1.666, 5.927e-3
-1.667, 5.984e-3
-1.668, 6.038e-3
-1.669, 6.100e-3
-1.670, 6.166e-3
-1.671, 6.219e-3
-1.672, 6.284e-3
-1.673, 6.358e-3
-1.674, 6.417e-3
-1.675, 6.472e-3
-1.676, 6.537e-3
-1.677, 6.601e-3
-1.678, 6.659e-3
-1.679, 6.730e-3
-1.680, 6.793e-3
-1.681, 6.843e-3
-1.682, 6.924e-3
-1.683, 6.999e-3
-1.684, 7.050e-3
-1.685, 7.095e-3
-1.686, 7.167e-3
-1.687, 7.239e-3
-1.688, 7.287e-3
-1.689, 7.346e-3
-1.690, 7.409e-3
-1.691, 7.482e-3
-1.692, 7.565e-3
-1.693, 7.634e-3
-1.694, 7.697e-3
-1.695, 7.760e-3
-1.696, 7.806e-3
-1.697, 7.871e-3
-1.698, 7.943e-3
-1.699, 8.003e-3
-1.700, 8.016e-3
-1.699, 7.946e-3
-1.698, 7.880e-3
-1.697, 7.796e-3
-1.696, 7.691e-3
-1.695, 7.609e-3
-1.694, 7.519e-3
-1.693, 7.431e-3
-1.692, 7.341e-3
-1.691, 7.253e-3
-1.690, 7.181e-3
-1.689, 7.102e-3
-1.688, 7.024e-3
-1.687, 6.946e-3
-1.686, 6.867e-3
-1.685, 6.796e-3
-1.684, 6.715e-3
-1.683, 6.644e-3
-1.682, 6.567e-3
-1.681, 6.487e-3
-1.680, 6.414e-3
-1.679, 6.330e-3
-1.678, 6.253e-3
-1.677, 6.171e-3
-1.676, 6.096e-3
-1.675, 6.021e-3
-1.674, 5.944e-3
-1.673, 5.886e-3
-1.672, 5.821e-3
-1.671, 5.750e-3
-1.670, 5.684e-3
-1.669, 5.606e-3
-1.668, 5.541e-3
-1.667, 5.476e-3
-1.666, 5.405e-3
-1.665, 5.338e-3
-1.664, 5.272e-3
-1.663, 5.214e-3
-1.662, 5.147e-3
-1.661, 5.082e-3
-1.660, 5.022e-3
-1.659, 4.956e-3
-1.658, 4.900e-3
-1.657, 4.838e-3
-1.656, 4.779e-3
-1.655, 4.725e-3
-1.654, 4.662e-3
-1.653, 4.603e-3
-1.652, 4.545e-3
-1.651, 4.486e-3
-1.650, 4.430e-3
-1.649, 4.369e-3
-1.648, 4.317e-3
-1.647, 4.260e-3
-1.646, 4.205e-3
-1.645, 4.149e-3
-1.644, 4.092e-3
-1.643, 4.047e-3
-1.642, 3.993e-3
-1.641, 3.940e-3
-1.640, 3.895e-3
-1.639, 3.840e-3
-1.638, 3.791e-3
-1.637, 3.742e-3
-1.636, 3.688e-3
-1.635, 3.641e-3
-1.634, 3.591e-3
-1.633, 3.544e-3
-1.632, 3.492e-3
-1.631, 3.441e-3
-1.630, 3.399e-3
-1.629, 3.351e-3
-1.628, 3.306e-3
-1.627, 3.264e-3
-1.626, 3.223e-3
-1.625, 3.184e-3
-1.624, 3.137e-3
-1.623, 3.098e-3
-1.622, 3.060e-3
-1.621, 3.017e-3
-1.620, 2.980e-3
-1.619, 2.937e-3
-1.618, 2.898e-3
-1.617, 2.858e-3
-1.616, 2.819e-3
-1.615, 2.784e-3
-1.614, 2.745e-3
-1.613, 2.709e-3
-1.612, 2.674e-3
-1.611, 2.636e-3
-1.610, 2.602e-3
-1.609, 2.562e-3
-1.608, 2.529e-3
-1.607, 2.493e-3
-1.606, 2.455e-3
-1.605, 2.423e-3
-1.604, 2.383e-3
-1.603, 2.352e-3
-1.602, 2.319e-3
-1.601, 2.286e-3
-1.600, 2.258e-3
-1.599, 2.224e-3
-1.598, 2.196e-3
-1.597, 2.169e-3
-1.596, 2.137e-3
-1.595, 2.110e-3
-1.594, 2.079e-3
-1.593, 2.052e-3
-1.592, 2.024e-3
-1.591, 1.994e-3
-1.590, 1.969e-3
-1.589, 1.939e-3
-1.588, 1.912e-3
-1.587, 1.886e-3
-1.586, 1.859e-3
-1.585, 1.835e-3
-1.584, 1.809e-3
-1.583, 1.785e-3
-1.582, 1.761e-3
-1.581, 1.737e-3
-1.580, 1.716e-3
-1.579, 1.689e-3
-1.578, 1.667e-3
-1.577, 1.644e-3
-1.576, 1.619e-3
-1.575, 1.599e-3
-1.574, 1.575e-3
-1.573, 1.554e-3
-1.572, 1.533e-3
-1.571, 1.510e-3
-1.570, 1.491e-3
-1.569, 1.469e-3
-1.568, 1.449e-3
-1.567, 1.430e-3
-1.566, 1.409e-3
-1.565, 1.392e-3
-1.564, 1.372e-3
-1.563, 1.352e-3
-1.562, 1.334e-3
-1.561, 1.314e-3
-1.560, 1.298e-3
-1.559, 1.279e-3
-1.558, 1.263e-3
-1.557, 1.246e-3
-1.556, 1.226e-3
-1.555, 1.212e-3
-1.554, 1.195e-3
-1.553, 1.179e-3
-1.552, 1.164e-3
-1.551, 1.147e-3
-1.550, 1.133e-3
-1.549, 1.116e-3
-1.548, 1.100e-3
-1.547, 1.087e-3
-1.546, 1.072e-3
-1.545, 1.059e-3
-1.544, 1.043e-3
-1.543, 1.029e-3
-1.542, 1.016e-3
-1.541, 1.001e-3
-1.540, 9.891e-4
-1.539, 9.749e-4
-1.538, 9.614e-4
-1.537, 9.496e-4
-1.536, 9.359e-4
-1.535, 9.251e-4
-1.534, 9.121e-4
-1.533, 8.996e-4
-1.532, 8.889e-4
-1.531, 8.755e-4
-1.530, 8.657e-4
-1.529, 8.530e-4
-1.528, 8.411e-4
-1.527, 8.309e-4
-1.526, 8.178e-4
-1.525, 8.082e-4
-1.524, 7.965e-4
-1.523, 7.856e-4
-1.522, 7.754e-4
-1.521, 7.633e-4
-1.520, 7.550e-4
-1.519, 7.442e-4
-1.518, 7.335e-4
-1.517, 7.249e-4
-1.516, 7.135e-4
-1.515, 7.050e-4
-1.514, 6.953e-4
-1.513, 6.862e-4
-1.512, 6.779e-4
-1.511, 6.668e-4
-1.510, 6.589e-4
-1.509, 6.492e-4
-1.508, 6.403e-4
-1.507, 6.327e-4
-1.506, 6.228e-4
-1.505, 6.157e-4
-1.504, 6.065e-4
-1.503, 5.980e-4
-1.502, 5.911e-4
-1.501, 5.815e-4
-1.500, 5.745e-4
-1.499, 5.661e-4
-1.498, 5.581e-4
-1.497, 5.513e-4
-1.496, 5.423e-4
-1.495, 5.360e-4
-1.494, 5.277e-4
-1.493, 5.200e-4
-1.492, 5.138e-4
-1.491, 5.048e-4
-1.490, 4.989e-4
-1.489, 4.911e-4
-1.488, 4.839e-4
-1.487, 4.783e-4
-1.486, 4.700e-4
-1.485, 4.642e-4
-1.484, 4.572e-4
-1.483, 4.502e-4
-1.482, 4.448e-4
-1.481, 4.370e-4
-1.480, 4.322e-4
-1.479, 4.256e-4
-1.478, 4.191e-4
-1.477, 4.144e-4
-1.476, 4.072e-4
-1.475, 4.024e-4
-1.474, 3.963e-4
-1.473, 3.900e-4
-1.472, 3.852e-4
-1.471, 3.778e-4
-1.470, 3.733e-4
-1.469, 3.673e-4
-1.468, 3.613e-4
-1.467, 3.569e-4
-1.466, 3.503e-4
-1.465, 3.461e-4
-1.464, 3.410e-4
-1.463, 3.350e-4
-1.462, 3.312e-4
-1.461, 3.247e-4
-1.460, 3.205e-4
-1.459, 3.154e-4
-1.458, 3.097e-4
-1.457, 3.054e-4
-1.456, 2.992e-4
-1.455, 2.955e-4
-1.454, 2.908e-4
-1.453, 2.856e-4
-1.452, 2.823e-4
-1.451, 2.765e-4
-1.450, 2.731e-4
-1.449, 2.684e-4
-1.448, 2.636e-4
-1.447, 2.604e-4
-1.446, 2.546e-4
-1.445, 2.514e-4
-1.444, 2.474e-4
-1.443, 2.430e-4
-1.442, 2.398e-4
-1.441, 2.347e-4
-1.440, 2.318e-4
-1.439, 2.279e-4
-1.438, 2.236e-4
-1.437, 2.216e-4
-1.436, 2.165e-4
-1.435, 2.135e-4
-1.434, 2.098e-4
-1.433, 2.054e-4
-1.432, 2.033e-4
-1.431, 1.985e-4
-1.430, 1.960e-4
-1.429, 1.926e-4
-1.428, 1.884e-4
-1.427, 1.863e-4
-1.426, 1.820e-4
-1.425, 1.795e-4
-1.424, 1.764e-4
-1.423, 1.724e-4
-1.422, 1.704e-4
-1.421, 1.662e-4
-1.420, 1.640e-4
-1.419, 1.611e-4
-1.418, 1.573e-4
-1.417, 1.556e-4
-1.416, 1.516e-4
-1.415, 1.496e-4
-1.414, 1.468e-4
-1.413, 1.433e-4
-1.412, 1.419e-4
-1.411, 1.379e-4
-1.410, 1.363e-4
-1.409, 1.341e-4
-1.408, 1.303e-4
-1.407, 1.294e-4
-1.406, 1.256e-4
-1.405, 1.239e-4
-1.404, 1.218e-4
-1.403, 1.185e-4
-1.402, 1.175e-4
-1.401, 1.140e-4
-1.400, 1.127e-4
-1.399, 1.107e-4
-1.398, 1.075e-4
-1.397, 1.067e-4
-1.396, 1.035e-4
-1.395, 1.020e-4
-1.394, 1.004e-4
-1.393, 9.734e-5
-1.392, 9.686e-5
-1.391, 9.356e-5
-1.390, 9.240e-5
-1.389, 9.080e-5
-1.388, 8.790e-5
-1.387, 8.745e-5
-1.386, 8.443e-5
-1.385, 8.329e-5
-1.384, 8.211e-5
-1.383, 7.912e-5
-1.382, 7.879e-5
-1.381, 7.600e-5
-1.380, 7.504e-5
-1.379, 7.370e-5
-1.378, 7.138e-5
-1.377, 7.095e-5
-1.376, 6.824e-5
-1.375, 6.757e-5
-1.374, 6.635e-5
-1.373, 6.412e-5
-1.372, 6.382e-5
-1.371, 6.126e-5
-1.370, 6.070e-5
-1.369, 5.949e-5
-1.368, 5.717e-5
-1.367, 5.748e-5
-1.366, 5.493e-5
-1.365, 5.431e-5
-1.364, 5.340e-5
-1.363, 5.103e-5
-1.362, 5.135e-5
-1.361, 4.888e-5
-1.360, 4.844e-5
-1.359, 4.754e-5
-1.358, 4.539e-5
-1.357, 4.565e-5
-1.356, 4.357e-5
-1.355, 4.306e-5
-1.354, 4.219e-5
-1.353, 4.009e-5
-1.352, 4.053e-5
-1.351, 3.840e-5
-1.350, 3.802e-5
-1.349, 3.737e-5
-1.348, 3.555e-5
-1.347, 3.595e-5
-1.346, 3.379e-5
-1.345, 3.353e-5
-1.344, 3.312e-5
-1.343, 3.113e-5
-1.342, 3.154e-5
-1.341, 2.964e-5
-1.340, 2.941e-5
-1.339, 2.882e-5
-1.338, 2.719e-5
-1.337, 2.759e-5
-1.336, 2.591e-5
-1.335, 2.552e-5
-1.334, 2.511e-5
-1.333, 2.340e-5
-1.332, 2.415e-5
-1.331, 2.202e-5
-1.330, 2.198e-5
-1.329, 2.171e-5
-1.328, 2.002e-5
-1.327, 2.080e-5
-1.326, 1.890e-5
-1.325, 1.903e-5
-1.324, 1.861e-5
-1.323, 1.700e-5
-1.322, 1.787e-5
-1.321, 1.605e-5
-1.320, 1.608e-5
-1.319, 1.602e-5
-1.318, 1.408e-5
-1.317, 1.521e-5
-1.316, 1.354e-5
-1.315, 1.335e-5
-1.314, 1.329e-5
-1.313, 1.177e-5
-1.312, 1.262e-5
-1.311, 1.101e-5
-1.310, 1.116e-5
-1.309, 1.107e-5
-1.308, 9.529e-6
-1.307, 1.047e-5
-1.306, 8.868e-6
-1.305, 8.877e-6
-1.304, 8.946e-6
-1.303, 7.388e-6
-1.302, 8.276e-6
-1.301, 6.993e-6
-1.300, 7.161e-6
-1.299, 6.973e-6
-1.298, 5.691e-6
-1.297, 6.638e-6
-1.296, 5.148e-6
-1.295, 5.227e-6
-1.294, 5.247e-6
-1.293, 3.777e-6
-1.292, 4.941e-6
-1.291, 3.481e-6
-1.290, 3.668e-6
-1.289, 3.589e-6
-1.288, 2.297e-6
-1.287, 3.441e-6
-1.286, 1.843e-6
-1.285, 2.198e-6
-1.284, 2.178e-6
-1.283, 6.886e-7
-1.282, 2.090e-6
-1.281, 7.182e-7
-1.280, 6.393e-7
-1.279, 9.156e-7
-1.278, -5.446e-7
-1.277, 6.788e-7
-1.276, -7.222e-7
-1.275, -6.038e-7
-1.274, -3.374e-7
-1.273, -1.561e-6
-1.272, -4.755e-7
-1.271, -1.729e-6
-1.270, -1.709e-6
-1.269, -1.442e-6
-1.268, -2.755e-6
-1.267, -1.571e-6
-1.266, -3.031e-6
-1.265, -2.784e-6
-1.264, -2.429e-6
-1.263, -3.692e-6
-1.262, -2.567e-6
-1.261, -3.860e-6
-1.260, -3.603e-6
-1.259, -3.455e-6
-1.258, -4.580e-6
-1.257, -3.445e-6
-1.256, -4.540e-6
-1.255, -4.363e-6
-1.254, -4.274e-6
-1.253, -5.557e-6
-1.252, -4.096e-6
-1.251, -5.507e-6
-1.250, -5.152e-6
-1.249, -4.945e-6
-1.248, -6.247e-6
-1.247, -4.994e-6
-1.246, -6.129e-6
-1.245, -5.833e-6
-1.244, -5.655e-6
-1.243, -6.819e-6
-1.242, -5.478e-6
-1.241, -6.918e-6
-1.240, -6.563e-6
-1.239, -6.287e-6
-1.238, -7.609e-6
-1.237, -6.198e-6
-1.236, -7.500e-6
-1.235, -7.401e-6
-1.234, -6.957e-6
-1.233, -8.319e-6
-1.232, -6.948e-6
-1.231, -8.053e-6
-1.230, -7.865e-6
-1.229, -7.628e-6
-1.228, -8.901e-6
-1.227, -7.530e-6
-1.226, -8.595e-6
-1.225, -8.497e-6
-1.224, -8.013e-6
-1.223, -9.355e-6
-1.222, -8.013e-6
-1.221, -9.237e-6
-1.220, -8.881e-6
-1.219, -8.536e-6
-1.218, -9.769e-6
-1.217, -8.526e-6
-1.216, -9.759e-6
-1.215, -9.424e-6
-1.214, -8.980e-6
-1.213, -1.025e-5
-1.212, -8.950e-6
-1.211, -9.986e-6
-1.210, -9.898e-6
-1.209, -9.552e-6
-1.208, -1.078e-5
-1.207, -9.296e-6
-1.206, -1.059e-5
-1.205, -1.030e-5
-1.204, -9.898e-6
-1.203, -1.132e-5
-1.202, -9.917e-6
-1.201, -1.115e-5
-1.200, -1.095e-5
-1.199, -1.028e-5
-1.198, -1.170e-5
-1.197, -1.034e-5
-1.196, -1.131e-5
-1.195, -1.112e-5
-1.194, -1.057e-5
-1.193, -1.223e-5
-1.192, -1.058e-5
-1.191, -1.179e-5
-1.190, -1.161e-5
-1.189, -1.096e-5
-1.188, -1.235e-5
-1.187, -1.101e-5
-1.186, -1.216e-5
-1.185, -1.200e-5
-1.184, -1.143e-5
-1.183, -1.296e-5
-1.182, -1.135e-5
-1.181, -1.246e-5
-1.180, -1.232e-5
-1.179, -1.183e-5
-1.178, -1.321e-5
-1.177, -1.191e-5
-1.176, -1.298e-5
-1.175, -1.279e-5
-1.174, -1.229e-5
-1.173, -1.348e-5
-1.172, -1.219e-5
-1.171, -1.340e-5
-1.170, -1.303e-5
-1.169, -1.262e-5
-1.168, -1.403e-5
-1.167, -1.245e-5
-1.166, -1.376e-5
-1.165, -1.333e-5
-1.164, -1.296e-5
-1.163, -1.451e-5
-1.162, -1.282e-5
-1.161, -1.409e-5
-1.160, -1.382e-5
-1.159, -1.327e-5
-1.158, -1.478e-5
-1.157, -1.331e-5
-1.156, -1.432e-5
-1.155, -1.425e-5
-1.154, -1.368e-5
-1.153, -1.512e-5
-1.152, -1.366e-5
-1.151, -1.482e-5
-1.150, -1.479e-5
-1.149, -1.387e-5
-1.148, -1.542e-5
-1.147, -1.396e-5
-1.146, -1.524e-5
-1.145, -1.495e-5
-1.144, -1.443e-5
-1.143, -1.590e-5
-1.142, -1.454e-5
-1.141, -1.565e-5
-1.140, -1.552e-5
-1.139, -1.495e-5
-1.138, -1.645e-5
-1.137, -1.486e-5
-1.136, -1.610e-5
-1.135, -1.590e-5
-1.134, -1.535e-5
-1.133, -1.674e-5
-1.132, -1.525e-5
-1.131, -1.649e-5
-1.130, -1.616e-5
-1.129, -1.578e-5
-1.128, -1.720e-5
-1.127, -1.576e-5
-1.126, -1.694e-5
-1.125, -1.669e-5
-1.124, -1.611e-5
-1.123, -1.767e-5
-1.122, -1.613e-5
-1.121, -1.731e-5
-1.120, -1.716e-5
-1.119, -1.642e-5
-1.118, -1.809e-5
-1.117, -1.653e-5
-1.116, -1.772e-5
-1.115, -1.761e-5
-1.114, -1.697e-5
-1.113, -1.853e-5
-1.112, -1.700e-5
-1.111, -1.817e-5
-1.110, -1.808e-5
-1.109, -1.737e-5
-1.108, -1.892e-5
-1.107, -1.744e-5
-1.106, -1.870e-5
-1.105, -1.858e-5
-1.104, -1.761e-5
-1.103, -1.947e-5
-1.102, -1.783e-5
-1.101, -1.907e-5
-1.100, -1.895e-5
-1.099, -1.821e-5
-1.098, -1.983e-5
-1.097, -1.832e-5
-1.096, -1.953e-5
-1.095, -1.928e-5
-1.094, -1.871e-5
-1.093, -2.019e-5
-1.092, -1.868e-5
-1.091, -2.013e-5
-1.090, -1.973e-5
-1.089, -1.905e-5
-1.088, -2.079e-5
-1.087, -1.910e-5
-1.086, -2.045e-5
-1.085, -2.025e-5
-1.084, -1.938e-5
-1.083, -2.131e-5
-1.082, -1.956e-5
-1.081, -2.095e-5
-1.080, -2.067e-5
-1.079, -1.979e-5
-1.078, -2.188e-5
-1.077, -2.014e-5
-1.076, -2.121e-5
-1.075, -2.131e-5
-1.074, -2.037e-5
-1.073, -2.222e-5
-1.072, -2.060e-5
-1.071, -2.174e-5
-1.070, -2.179e-5
-1.069, -2.093e-5
-1.068, -2.269e-5
-1.067, -2.115e-5
-1.066, -2.231e-5
-1.065, -2.234e-5
-1.064, -2.130e-5
-1.063, -2.320e-5
-1.062, -2.161e-5
-1.061, -2.279e-5
-1.060, -2.260e-5
-1.059, -2.195e-5
-1.058, -2.366e-5
-1.057, -2.199e-5
-1.056, -2.330e-5
-1.055, -2.313e-5
-1.054, -2.244e-5
-1.053, -2.419e-5
-1.052, -2.245e-5
-1.051, -2.388e-5
-1.050, -2.383e-5
-1.049, -2.304e-5
-1.048, -2.496e-5
-1.047, -2.315e-5
-1.046, -2.461e-5
-1.045, -2.450e-5
-1.044, -2.349e-5
-1.043, -2.568e-5
-1.042, -2.377e-5
-1.041, -2.521e-5
-1.040, -2.516e-5
-1.039, -2.418e-5
-1.038, -2.626e-5
-1.037, -2.450e-5
-1.036, -2.580e-5
-1.035, -2.586e-5
-1.034, -2.485e-5
-1.033, -2.705e-5
-1.032, -2.496e-5
-1.031, -2.649e-5
-1.030, -2.648e-5
-1.029, -2.551e-5
-1.028, -2.772e-5
-1.027, -2.578e-5
-1.026, -2.722e-5
-1.025, -2.730e-5
-1.024, -2.649e-5
-1.023, -2.865e-5
-1.022, -2.681e-5
-1.021, -2.825e-5
-1.020, -2.829e-5
-1.019, -2.754e-5
-1.018, -2.957e-5
-1.017, -2.786e-5
-1.016, -2.921e-5
-1.015, -2.918e-5
-1.014, -2.843e-5
-1.013, -3.040e-5
-1.012, -2.841e-5
-1.011, -3.010e-5
-1.010, -3.022e-5
-1.009, -2.916e-5
-1.008, -3.137e-5
-1.007, -2.932e-5
-1.006, -3.095e-5
-1.005, -3.100e-5
-1.004, -3.005e-5
-1.003, -3.234e-5
-1.002, -3.032e-5
-1.001, -3.195e-5
