Sept. 18, 2024   02:03:25
Cyclic Voltammetry
File: c:/users/guazh/data/20240903_batch_252_500/2024-09-03-exp384\exp384-2024-09-18t01_36_04-h2koh\exp384_cv_sr_300mvs_efin_-1900mv.bin
Data Source:  Experiment
Instrument Model:  CHI760E
Header: CV ran at 300 mVs
Note: 

Init E (V) = -1
High E (V) = -1
Low E (V) = -1.9
Final E (V) = -1
Init P/N = N
Scan Rate (V/s) = 0.3
Segment = 3
Sample Interval (V) = 0.001
Quiet Time (sec) = 2
Sensitivity (A/V) = 0.01
Comp R (ohm) = 2.0

Results:

Channel 1:
Segment 1:

Segment 2:

Segment 3:

Potential/V, Current/A

-1.000, 3.239e-6
-1.001, 3.239e-6
-1.002, 3.239e-6
-1.003, 3.239e-6
-1.004, 3.239e-6
-1.005, 3.239e-6
-1.006, 3.239e-6
-1.007, 3.239e-6
-1.008, 3.239e-6
-1.009, 3.239e-6
-1.010, 3.239e-6
-1.011, 3.239e-6
-1.012, 3.239e-6
-1.013, 3.239e-6
-1.014, 3.239e-6
-1.015, 3.239e-6
-1.016, 3.239e-6
-1.017, 3.239e-6
-1.018, 3.239e-6
-1.019, 3.239e-6
-1.020, 3.239e-6
-1.021, 3.239e-6
-1.022, 3.239e-6
-1.023, 3.239e-6
-1.024, 3.239e-6
-1.025, 3.239e-6
-1.026, 3.239e-6
-1.027, 3.239e-6
-1.028, 3.239e-6
-1.029, 3.239e-6
-1.030, 3.239e-6
-1.031, 3.239e-6
-1.032, 3.239e-6
-1.033, 3.239e-6
-1.034, 6.322e-6
-1.035, 3.239e-6
-1.036, 3.239e-6
-1.037, 3.239e-6
-1.038, 6.322e-6
-1.039, 6.322e-6
-1.040, 3.239e-6
-1.041, 6.322e-6
-1.042, 3.239e-6
-1.043, 6.322e-6
-1.044, 6.322e-6
-1.045, 6.322e-6
-1.046, 6.322e-6
-1.047, 6.322e-6
-1.048, 3.239e-6
-1.049, 6.322e-6
-1.050, 6.322e-6
-1.051, 3.239e-6
-1.052, 3.239e-6
-1.053, 6.322e-6
-1.054, 3.239e-6
-1.055, 6.322e-6
-1.056, 6.322e-6
-1.057, 6.322e-6
-1.058, 6.322e-6
-1.059, 3.239e-6
-1.060, 3.239e-6
-1.061, 6.322e-6
-1.062, 3.239e-6
-1.063, 6.322e-6
-1.064, 3.239e-6
-1.065, 6.322e-6
-1.066, 6.322e-6
-1.067, 6.322e-6
-1.068, 6.322e-6
-1.069, 6.322e-6
-1.070, 6.322e-6
-1.071, 6.322e-6
-1.072, 6.322e-6
-1.073, 6.322e-6
-1.074, 6.322e-6
-1.075, 6.322e-6
-1.076, 6.322e-6
-1.077, 6.322e-6
-1.078, 6.322e-6
-1.079, 6.322e-6
-1.080, 6.322e-6
-1.081, 6.322e-6
-1.082, 6.322e-6
-1.083, 6.322e-6
-1.084, 6.322e-6
-1.085, 6.322e-6
-1.086, 6.322e-6
-1.087, 6.322e-6
-1.088, 6.322e-6
-1.089, 6.322e-6
-1.090, 6.322e-6
-1.091, 6.322e-6
-1.092, 6.322e-6
-1.093, 6.322e-6
-1.094, 6.322e-6
-1.095, 3.239e-6
-1.096, 6.322e-6
-1.097, 6.322e-6
-1.098, 6.322e-6
-1.099, 6.322e-6
-1.100, 6.322e-6
-1.101, 6.322e-6
-1.102, 6.322e-6
-1.103, 6.322e-6
-1.104, 6.322e-6
-1.105, 6.322e-6
-1.106, 6.322e-6
-1.107, 6.322e-6
-1.108, 6.322e-6
-1.109, 6.322e-6
-1.110, 6.322e-6
-1.111, 6.322e-6
-1.112, 6.322e-6
-1.113, 6.322e-6
-1.114, 6.322e-6
-1.115, 6.322e-6
-1.116, 6.322e-6
-1.117, 6.322e-6
-1.118, 6.322e-6
-1.119, 6.322e-6
-1.120, 6.322e-6
-1.121, 6.322e-6
-1.122, 6.322e-6
-1.123, 6.322e-6
-1.124, 6.322e-6
-1.125, 6.322e-6
-1.126, 6.322e-6
-1.127, 6.322e-6
-1.128, 6.322e-6
-1.129, 6.322e-6
-1.130, 6.322e-6
-1.131, 6.322e-6
-1.132, 6.322e-6
-1.133, 6.322e-6
-1.134, 6.322e-6
-1.135, 6.322e-6
-1.136, 6.322e-6
-1.137, 6.322e-6
-1.138, 6.322e-6
-1.139, 6.322e-6
-1.140, 6.322e-6
-1.141, 6.322e-6
-1.142, 6.322e-6
-1.143, 6.322e-6
-1.144, 6.322e-6
-1.145, 6.322e-6
-1.146, 6.322e-6
-1.147, 6.322e-6
-1.148, 6.322e-6
-1.149, 6.322e-6
-1.150, 6.322e-6
-1.151, 6.322e-6
-1.152, 6.322e-6
-1.153, 6.322e-6
-1.154, 6.322e-6
-1.155, 6.322e-6
-1.156, 6.322e-6
-1.157, 6.322e-6
-1.158, 6.322e-6
-1.159, 6.322e-6
-1.160, 6.322e-6
-1.161, 6.322e-6
-1.162, 6.322e-6
-1.163, 6.322e-6
-1.164, 6.322e-6
-1.165, 6.322e-6
-1.166, 6.322e-6
-1.167, 6.322e-6
-1.168, 6.322e-6
-1.169, 6.322e-6
-1.170, 6.322e-6
-1.171, 6.322e-6
-1.172, 6.322e-6
-1.173, 6.322e-6
-1.174, 6.322e-6
-1.175, 6.322e-6
-1.176, 6.322e-6
-1.177, 6.322e-6
-1.178, 6.322e-6
-1.179, 6.322e-6
-1.180, 6.322e-6
-1.181, 6.322e-6
-1.182, 6.322e-6
-1.183, 6.322e-6
-1.184, 6.322e-6
-1.185, 6.322e-6
-1.186, 6.322e-6
-1.187, 6.322e-6
-1.188, 6.322e-6
-1.189, 6.322e-6
-1.190, 6.322e-6
-1.191, 6.322e-6
-1.192, 6.322e-6
-1.193, 6.322e-6
-1.194, 6.322e-6
-1.195, 6.322e-6
-1.196, 6.322e-6
-1.197, 6.322e-6
-1.198, 6.322e-6
-1.199, 6.322e-6
-1.200, 6.322e-6
-1.201, 6.322e-6
-1.202, 6.322e-6
-1.203, 6.322e-6
-1.204, 6.322e-6
-1.205, 6.322e-6
-1.206, 6.322e-6
-1.207, 6.322e-6
-1.208, 9.405e-6
-1.209, 6.322e-6
-1.210, 6.322e-6
-1.211, 6.322e-6
-1.212, 6.322e-6
-1.213, 9.405e-6
-1.214, 6.322e-6
-1.215, 6.322e-6
-1.216, 9.405e-6
-1.217, 9.405e-6
-1.218, 6.322e-6
-1.219, 6.322e-6
-1.220, 6.322e-6
-1.221, 9.405e-6
-1.222, 9.405e-6
-1.223, 9.405e-6
-1.224, 9.405e-6
-1.225, 9.405e-6
-1.226, 9.405e-6
-1.227, 9.405e-6
-1.228, 9.405e-6
-1.229, 9.405e-6
-1.230, 9.405e-6
-1.231, 9.405e-6
-1.232, 9.405e-6
-1.233, 9.405e-6
-1.234, 9.405e-6
-1.235, 9.405e-6
-1.236, 9.405e-6
-1.237, 6.322e-6
-1.238, 9.405e-6
-1.239, 9.405e-6
-1.240, 9.405e-6
-1.241, 9.405e-6
-1.242, 9.405e-6
-1.243, 9.405e-6
-1.244, 9.405e-6
-1.245, 9.405e-6
-1.246, 9.405e-6
-1.247, 9.405e-6
-1.248, 9.405e-6
-1.249, 9.405e-6
-1.250, 9.405e-6
-1.251, 9.405e-6
-1.252, 9.405e-6
-1.253, 9.405e-6
-1.254, 9.405e-6
-1.255, 9.405e-6
-1.256, 9.405e-6
-1.257, 9.405e-6
-1.258, 9.405e-6
-1.259, 9.405e-6
-1.260, 9.405e-6
-1.261, 9.405e-6
-1.262, 9.405e-6
-1.263, 9.405e-6
-1.264, 9.405e-6
-1.265, 9.405e-6
-1.266, 9.405e-6
-1.267, 9.405e-6
-1.268, 9.405e-6
-1.269, 1.249e-5
-1.270, 1.249e-5
-1.271, 1.249e-5
-1.272, 1.249e-5
-1.273, 9.405e-6
-1.274, 1.249e-5
-1.275, 9.405e-6
-1.276, 1.249e-5
-1.277, 1.249e-5
-1.278, 1.249e-5
-1.279, 1.249e-5
-1.280, 1.249e-5
-1.281, 1.249e-5
-1.282, 1.249e-5
-1.283, 1.249e-5
-1.284, 1.249e-5
-1.285, 1.249e-5
-1.286, 1.249e-5
-1.287, 1.249e-5
-1.288, 1.249e-5
-1.289, 1.249e-5
-1.290, 1.249e-5
-1.291, 1.249e-5
-1.292, 1.249e-5
-1.293, 1.249e-5
-1.294, 1.557e-5
-1.295, 1.249e-5
-1.296, 1.249e-5
-1.297, 1.249e-5
-1.298, 1.249e-5
-1.299, 1.557e-5
-1.300, 1.557e-5
-1.301, 1.557e-5
-1.302, 1.557e-5
-1.303, 1.557e-5
-1.304, 1.557e-5
-1.305, 1.557e-5
-1.306, 1.557e-5
-1.307, 1.557e-5
-1.308, 1.557e-5
-1.309, 1.557e-5
-1.310, 1.557e-5
-1.311, 1.557e-5
-1.312, 1.557e-5
-1.313, 1.557e-5
-1.314, 1.865e-5
-1.315, 1.557e-5
-1.316, 1.865e-5
-1.317, 1.865e-5
-1.318, 1.865e-5
-1.319, 1.865e-5
-1.320, 1.865e-5
-1.321, 1.865e-5
-1.322, 1.865e-5
-1.323, 1.865e-5
-1.324, 1.865e-5
-1.325, 1.865e-5
-1.326, 2.174e-5
-1.327, 2.174e-5
-1.328, 1.865e-5
-1.329, 2.174e-5
-1.330, 1.865e-5
-1.331, 2.174e-5
-1.332, 2.174e-5
-1.333, 2.174e-5
-1.334, 2.174e-5
-1.335, 2.174e-5
-1.336, 2.174e-5
-1.337, 2.174e-5
-1.338, 2.482e-5
-1.339, 2.482e-5
-1.340, 2.482e-5
-1.341, 2.482e-5
-1.342, 2.482e-5
-1.343, 2.482e-5
-1.344, 2.482e-5
-1.345, 2.482e-5
-1.346, 2.482e-5
-1.347, 2.482e-5
-1.348, 2.482e-5
-1.349, 2.482e-5
-1.350, 2.790e-5
-1.351, 2.790e-5
-1.352, 2.790e-5
-1.353, 2.790e-5
-1.354, 2.790e-5
-1.355, 2.790e-5
-1.356, 2.790e-5
-1.357, 2.790e-5
-1.358, 2.790e-5
-1.359, 3.099e-5
-1.360, 3.099e-5
-1.361, 3.099e-5
-1.362, 3.099e-5
-1.363, 3.099e-5
-1.364, 3.099e-5
-1.365, 3.099e-5
-1.366, 3.099e-5
-1.367, 3.407e-5
-1.368, 3.407e-5
-1.369, 3.407e-5
-1.370, 3.407e-5
-1.371, 3.407e-5
-1.372, 3.407e-5
-1.373, 3.407e-5
-1.374, 3.407e-5
-1.375, 3.715e-5
-1.376, 3.715e-5
-1.377, 3.715e-5
-1.378, 3.715e-5
-1.379, 3.715e-5
-1.380, 3.715e-5
-1.381, 3.715e-5
-1.382, 4.024e-5
-1.383, 4.024e-5
-1.384, 4.024e-5
-1.385, 4.024e-5
-1.386, 4.024e-5
-1.387, 4.024e-5
-1.388, 4.024e-5
-1.389, 4.024e-5
-1.390, 4.332e-5
-1.391, 4.332e-5
-1.392, 4.332e-5
-1.393, 4.332e-5
-1.394, 4.332e-5
-1.395, 4.332e-5
-1.396, 4.640e-5
-1.397, 4.640e-5
-1.398, 4.640e-5
-1.399, 4.640e-5
-1.400, 4.640e-5
-1.401, 4.640e-5
-1.402, 4.640e-5
-1.403, 4.949e-5
-1.404, 4.949e-5
-1.405, 4.949e-5
-1.406, 4.949e-5
-1.407, 4.949e-5
-1.408, 4.949e-5
-1.409, 4.949e-5
-1.410, 4.949e-5
-1.411, 5.257e-5
-1.412, 5.257e-5
-1.413, 5.257e-5
-1.414, 5.257e-5
-1.415, 5.257e-5
-1.416, 5.565e-5
-1.417, 5.257e-5
-1.418, 5.565e-5
-1.419, 5.565e-5
-1.420, 5.565e-5
-1.421, 5.565e-5
-1.422, 5.565e-5
-1.423, 5.565e-5
-1.424, 5.873e-5
-1.425, 5.873e-5
-1.426, 5.873e-5
-1.427, 5.873e-5
-1.428, 5.873e-5
-1.429, 5.873e-5
-1.430, 5.873e-5
-1.431, 6.182e-5
-1.432, 6.182e-5
-1.433, 6.182e-5
-1.434, 6.182e-5
-1.435, 6.182e-5
-1.436, 6.182e-5
-1.437, 6.490e-5
-1.438, 6.490e-5
-1.439, 6.490e-5
-1.440, 6.490e-5
-1.441, 6.798e-5
-1.442, 6.490e-5
-1.443, 6.490e-5
-1.444, 6.798e-5
-1.445, 6.798e-5
-1.446, 6.798e-5
-1.447, 6.798e-5
-1.448, 6.798e-5
-1.449, 7.107e-5
-1.450, 7.107e-5
-1.451, 7.107e-5
-1.452, 7.107e-5
-1.453, 7.107e-5
-1.454, 7.107e-5
-1.455, 7.415e-5
-1.456, 7.415e-5
-1.457, 7.415e-5
-1.458, 7.415e-5
-1.459, 7.415e-5
-1.460, 7.415e-5
-1.461, 7.415e-5
-1.462, 7.415e-5
-1.463, 7.415e-5
-1.464, 7.723e-5
-1.465, 7.723e-5
-1.466, 7.723e-5
-1.467, 7.723e-5
-1.468, 7.723e-5
-1.469, 7.723e-5
-1.470, 8.032e-5
-1.471, 8.032e-5
-1.472, 8.032e-5
-1.473, 8.032e-5
-1.474, 8.032e-5
-1.475, 8.032e-5
-1.476, 8.032e-5
-1.477, 8.340e-5
-1.478, 8.340e-5
-1.479, 8.340e-5
-1.480, 8.340e-5
-1.481, 8.340e-5
-1.482, 8.340e-5
-1.483, 8.340e-5
-1.484, 8.648e-5
-1.485, 8.648e-5
-1.486, 8.648e-5
-1.487, 8.648e-5
-1.488, 8.648e-5
-1.489, 8.648e-5
-1.490, 8.957e-5
-1.491, 8.957e-5
-1.492, 8.957e-5
-1.493, 8.957e-5
-1.494, 8.957e-5
-1.495, 8.957e-5
-1.496, 9.265e-5
-1.497, 9.265e-5
-1.498, 9.265e-5
-1.499, 9.265e-5
-1.500, 9.265e-5
-1.501, 9.265e-5
-1.502, 9.265e-5
-1.503, 9.573e-5
-1.504, 9.573e-5
-1.505, 9.573e-5
-1.506, 9.573e-5
-1.507, 9.882e-5
-1.508, 9.573e-5
-1.509, 9.882e-5
-1.510, 9.882e-5
-1.511, 9.882e-5
-1.512, 1.019e-4
-1.513, 9.882e-5
-1.514, 9.882e-5
-1.515, 1.019e-4
-1.516, 1.019e-4
-1.517, 1.019e-4
-1.518, 1.019e-4
-1.519, 1.050e-4
-1.520, 1.050e-4
-1.521, 1.050e-4
-1.522, 1.050e-4
-1.523, 1.050e-4
-1.524, 1.050e-4
-1.525, 1.050e-4
-1.526, 1.081e-4
-1.527, 1.081e-4
-1.528, 1.081e-4
-1.529, 1.081e-4
-1.530, 1.081e-4
-1.531, 1.111e-4
-1.532, 1.111e-4
-1.533, 1.111e-4
-1.534, 1.111e-4
-1.535, 1.111e-4
-1.536, 1.111e-4
-1.537, 1.111e-4
-1.538, 1.111e-4
-1.539, 1.142e-4
-1.540, 1.142e-4
-1.541, 1.142e-4
-1.542, 1.142e-4
-1.543, 1.142e-4
-1.544, 1.173e-4
-1.545, 1.173e-4
-1.546, 1.173e-4
-1.547, 1.173e-4
-1.548, 1.204e-4
-1.549, 1.204e-4
-1.550, 1.204e-4
-1.551, 1.204e-4
-1.552, 1.204e-4
-1.553, 1.204e-4
-1.554, 1.204e-4
-1.555, 1.235e-4
-1.556, 1.235e-4
-1.557, 1.235e-4
-1.558, 1.235e-4
-1.559, 1.235e-4
-1.560, 1.266e-4
-1.561, 1.266e-4
-1.562, 1.266e-4
-1.563, 1.266e-4
-1.564, 1.296e-4
-1.565, 1.296e-4
-1.566, 1.296e-4
-1.567, 1.296e-4
-1.568, 1.296e-4
-1.569, 1.296e-4
-1.570, 1.327e-4
-1.571, 1.327e-4
-1.572, 1.327e-4
-1.573, 1.327e-4
-1.574, 1.358e-4
-1.575, 1.358e-4
-1.576, 1.358e-4
-1.577, 1.389e-4
-1.578, 1.389e-4
-1.579, 1.389e-4
-1.580, 1.389e-4
-1.581, 1.420e-4
-1.582, 1.420e-4
-1.583, 1.420e-4
-1.584, 1.420e-4
-1.585, 1.420e-4
-1.586, 1.451e-4
-1.587, 1.451e-4
-1.588, 1.481e-4
-1.589, 1.481e-4
-1.590, 1.481e-4
-1.591, 1.481e-4
-1.592, 1.481e-4
-1.593, 1.481e-4
-1.594, 1.512e-4
-1.595, 1.512e-4
-1.596, 1.543e-4
-1.597, 1.543e-4
-1.598, 1.543e-4
-1.599, 1.543e-4
-1.600, 1.543e-4
-1.601, 1.543e-4
-1.602, 1.574e-4
-1.603, 1.574e-4
-1.604, 1.605e-4
-1.605, 1.574e-4
-1.606, 1.605e-4
-1.607, 1.605e-4
-1.608, 1.605e-4
-1.609, 1.636e-4
-1.610, 1.636e-4
-1.611, 1.636e-4
-1.612, 1.636e-4
-1.613, 1.666e-4
-1.614, 1.666e-4
-1.615, 1.697e-4
-1.616, 1.697e-4
-1.617, 1.728e-4
-1.618, 1.728e-4
-1.619, 1.728e-4
-1.620, 1.759e-4
-1.621, 1.759e-4
-1.622, 1.790e-4
-1.623, 1.790e-4
-1.624, 1.790e-4
-1.625, 1.821e-4
-1.626, 1.821e-4
-1.627, 1.821e-4
-1.628, 1.851e-4
-1.629, 1.851e-4
-1.630, 1.882e-4
-1.631, 1.882e-4
-1.632, 1.913e-4
-1.633, 1.913e-4
-1.634, 1.944e-4
-1.635, 1.944e-4
-1.636, 1.944e-4
-1.637, 1.975e-4
-1.638, 1.975e-4
-1.639, 2.006e-4
-1.640, 2.006e-4
-1.641, 2.036e-4
-1.642, 2.067e-4
-1.643, 2.067e-4
-1.644, 2.098e-4
-1.645, 2.098e-4
-1.646, 2.098e-4
-1.647, 2.129e-4
-1.648, 2.129e-4
-1.649, 2.160e-4
-1.650, 2.160e-4
-1.651, 2.191e-4
-1.652, 2.191e-4
-1.653, 2.221e-4
-1.654, 2.252e-4
-1.655, 2.252e-4
-1.656, 2.283e-4
-1.657, 2.283e-4
-1.658, 2.314e-4
-1.659, 2.345e-4
-1.660, 2.345e-4
-1.661, 2.376e-4
-1.662, 2.406e-4
-1.663, 2.406e-4
-1.664, 2.437e-4
-1.665, 2.468e-4
-1.666, 2.499e-4
-1.667, 2.499e-4
-1.668, 2.530e-4
-1.669, 2.561e-4
-1.670, 2.591e-4
-1.671, 2.622e-4
-1.672, 2.653e-4
-1.673, 2.684e-4
-1.674, 2.715e-4
-1.675, 2.746e-4
-1.676, 2.776e-4
-1.677, 2.807e-4
-1.678, 2.838e-4
-1.679, 2.838e-4
-1.680, 2.869e-4
-1.681, 2.900e-4
-1.682, 2.961e-4
-1.683, 2.992e-4
-1.684, 2.992e-4
-1.685, 3.054e-4
-1.686, 3.085e-4
-1.687, 3.115e-4
-1.688, 3.146e-4
-1.689, 3.177e-4
-1.690, 3.208e-4
-1.691, 3.270e-4
-1.692, 3.300e-4
-1.693, 3.331e-4
-1.694, 3.362e-4
-1.695, 3.393e-4
-1.696, 3.455e-4
-1.697, 3.485e-4
-1.698, 3.547e-4
-1.699, 3.578e-4
-1.700, 3.609e-4
-1.701, 3.670e-4
-1.702, 3.701e-4
-1.703, 3.763e-4
-1.704, 3.794e-4
-1.705, 3.855e-4
-1.706, 3.886e-4
-1.707, 3.948e-4
-1.708, 4.010e-4
-1.709, 4.071e-4
-1.710, 4.102e-4
-1.711, 4.164e-4
-1.712, 4.225e-4
-1.713, 4.256e-4
-1.714, 4.349e-4
-1.715, 4.380e-4
-1.716, 4.441e-4
-1.717, 4.503e-4
-1.718, 4.565e-4
-1.719, 4.626e-4
-1.720, 4.688e-4
-1.721, 4.750e-4
-1.722, 4.811e-4
-1.723, 4.904e-4
-1.724, 4.935e-4
-1.725, 5.027e-4
-1.726, 5.089e-4
-1.727, 5.181e-4
-1.728, 5.243e-4
-1.729, 5.335e-4
-1.730, 5.397e-4
-1.731, 5.489e-4
-1.732, 5.551e-4
-1.733, 5.644e-4
-1.734, 5.736e-4
-1.735, 5.798e-4
-1.736, 5.890e-4
-1.737, 5.983e-4
-1.738, 6.044e-4
-1.739, 6.137e-4
-1.740, 6.229e-4
-1.741, 6.322e-4
-1.742, 6.445e-4
-1.743, 6.507e-4
-1.744, 6.599e-4
-1.745, 6.692e-4
-1.746, 6.784e-4
-1.747, 6.877e-4
-1.748, 6.969e-4
-1.749, 7.093e-4
-1.750, 7.185e-4
-1.751, 7.278e-4
-1.752, 7.401e-4
-1.753, 7.494e-4
-1.754, 7.617e-4
-1.755, 7.740e-4
-1.756, 7.863e-4
-1.757, 7.956e-4
-1.758, 8.079e-4
-1.759, 8.172e-4
-1.760, 8.264e-4
-1.761, 8.418e-4
-1.762, 8.542e-4
-1.763, 8.665e-4
-1.764, 8.819e-4
-1.765, 8.943e-4
-1.766, 9.097e-4
-1.767, 9.220e-4
-1.768, 9.374e-4
-1.769, 9.528e-4
-1.770, 9.652e-4
-1.771, 9.806e-4
-1.772, 9.960e-4
-1.773, 1.008e-3
-1.774, 1.024e-3
-1.775, 1.036e-3
-1.776, 1.055e-3
-1.777, 1.070e-3
-1.778, 1.088e-3
-1.779, 1.107e-3
-1.780, 1.122e-3
-1.781, 1.144e-3
-1.782, 1.162e-3
-1.783, 1.181e-3
-1.784, 1.199e-3
-1.785, 1.215e-3
-1.786, 1.233e-3
-1.787, 1.252e-3
-1.788, 1.273e-3
-1.789, 1.292e-3
-1.790, 1.307e-3
-1.791, 1.332e-3
-1.792, 1.354e-3
-1.793, 1.378e-3
-1.794, 1.400e-3
-1.795, 1.418e-3
-1.796, 1.437e-3
-1.797, 1.462e-3
-1.798, 1.486e-3
-1.799, 1.508e-3
-1.800, 1.529e-3
-1.801, 1.554e-3
-1.802, 1.582e-3
-1.803, 1.597e-3
-1.804, 1.622e-3
-1.805, 1.650e-3
-1.806, 1.680e-3
-1.807, 1.699e-3
-1.808, 1.727e-3
-1.809, 1.754e-3
-1.810, 1.782e-3
-1.811, 1.813e-3
-1.812, 1.841e-3
-1.813, 1.872e-3
-1.814, 1.902e-3
-1.815, 1.924e-3
-1.816, 1.946e-3
-1.817, 1.976e-3
-1.818, 2.010e-3
-1.819, 2.041e-3
-1.820, 2.075e-3
-1.821, 2.106e-3
-1.822, 2.131e-3
-1.823, 2.161e-3
-1.824, 2.198e-3
-1.825, 2.226e-3
-1.826, 2.260e-3
-1.827, 2.291e-3
-1.828, 2.322e-3
-1.829, 2.359e-3
-1.830, 2.386e-3
-1.831, 2.420e-3
-1.832, 2.451e-3
-1.833, 2.485e-3
-1.834, 2.519e-3
-1.835, 2.556e-3
-1.836, 2.593e-3
-1.837, 2.630e-3
-1.838, 2.670e-3
-1.839, 2.710e-3
-1.840, 2.744e-3
-1.841, 2.781e-3
-1.842, 2.818e-3
-1.843, 2.858e-3
-1.844, 2.895e-3
-1.845, 2.926e-3
-1.846, 2.969e-3
-1.847, 3.009e-3
-1.848, 3.049e-3
-1.849, 3.089e-3
-1.850, 3.136e-3
-1.851, 3.182e-3
-1.852, 3.219e-3
-1.853, 3.259e-3
-1.854, 3.305e-3
-1.855, 3.351e-3
-1.856, 3.395e-3
-1.857, 3.438e-3
-1.858, 3.469e-3
-1.859, 3.512e-3
-1.860, 3.558e-3
-1.861, 3.601e-3
-1.862, 3.641e-3
-1.863, 3.681e-3
-1.864, 3.731e-3
-1.865, 3.771e-3
-1.866, 3.817e-3
-1.867, 3.857e-3
-1.868, 3.903e-3
-1.869, 3.953e-3
-1.870, 3.996e-3
-1.871, 4.039e-3
-1.872, 4.076e-3
-1.873, 4.113e-3
-1.874, 4.162e-3
-1.875, 4.206e-3
-1.876, 4.255e-3
-1.877, 4.310e-3
-1.878, 4.363e-3
-1.879, 4.406e-3
-1.880, 4.449e-3
-1.881, 4.495e-3
-1.882, 4.548e-3
-1.883, 4.594e-3
-1.884, 4.646e-3
-1.885, 4.690e-3
-1.886, 4.733e-3
-1.887, 4.779e-3
-1.888, 4.831e-3
-1.889, 4.881e-3
-1.890, 4.927e-3
-1.891, 4.973e-3
-1.892, 5.019e-3
-1.893, 5.075e-3
-1.894, 5.127e-3
-1.895, 5.174e-3
-1.896, 5.220e-3
-1.897, 5.266e-3
-1.898, 5.315e-3
-1.899, 5.368e-3
-1.900, 5.380e-3
-1.899, 5.349e-3
-1.898, 5.315e-3
-1.897, 5.275e-3
-1.896, 5.254e-3
-1.895, 5.226e-3
-1.894, 5.186e-3
-1.893, 5.158e-3
-1.892, 5.127e-3
-1.891, 5.097e-3
-1.890, 5.060e-3
-1.889, 5.019e-3
-1.888, 4.986e-3
-1.887, 4.955e-3
-1.886, 4.924e-3
-1.885, 4.899e-3
-1.884, 4.865e-3
-1.883, 4.834e-3
-1.882, 4.804e-3
-1.881, 4.770e-3
-1.880, 4.733e-3
-1.879, 4.690e-3
-1.878, 4.640e-3
-1.877, 4.597e-3
-1.876, 4.554e-3
-1.875, 4.505e-3
-1.874, 4.458e-3
-1.873, 4.418e-3
-1.872, 4.391e-3
-1.871, 4.357e-3
-1.870, 4.323e-3
-1.869, 4.289e-3
-1.868, 4.267e-3
-1.867, 4.243e-3
-1.866, 4.209e-3
-1.865, 4.172e-3
-1.864, 4.135e-3
-1.863, 4.098e-3
-1.862, 4.064e-3
-1.861, 4.027e-3
-1.860, 3.990e-3
-1.859, 3.953e-3
-1.858, 3.916e-3
-1.857, 3.882e-3
-1.856, 3.839e-3
-1.855, 3.802e-3
-1.854, 3.762e-3
-1.853, 3.725e-3
-1.852, 3.691e-3
-1.851, 3.651e-3
-1.850, 3.610e-3
-1.849, 3.573e-3
-1.848, 3.540e-3
-1.847, 3.515e-3
-1.846, 3.478e-3
-1.845, 3.441e-3
-1.844, 3.407e-3
-1.843, 3.379e-3
-1.842, 3.355e-3
-1.841, 3.324e-3
-1.840, 3.290e-3
-1.839, 3.262e-3
-1.838, 3.228e-3
-1.837, 3.197e-3
-1.836, 3.163e-3
-1.835, 3.133e-3
-1.834, 3.096e-3
-1.833, 3.059e-3
-1.832, 3.028e-3
-1.831, 3.000e-3
-1.830, 2.966e-3
-1.829, 2.941e-3
-1.828, 2.914e-3
-1.827, 2.886e-3
-1.826, 2.852e-3
-1.825, 2.821e-3
-1.824, 2.793e-3
-1.823, 2.756e-3
-1.822, 2.719e-3
-1.821, 2.692e-3
-1.820, 2.664e-3
-1.819, 2.633e-3
-1.818, 2.605e-3
-1.817, 2.584e-3
-1.816, 2.559e-3
-1.815, 2.528e-3
-1.814, 2.497e-3
-1.813, 2.467e-3
-1.812, 2.442e-3
-1.811, 2.417e-3
-1.810, 2.390e-3
-1.809, 2.356e-3
-1.808, 2.322e-3
-1.807, 2.297e-3
-1.806, 2.272e-3
-1.805, 2.248e-3
-1.804, 2.223e-3
-1.803, 2.198e-3
-1.802, 2.174e-3
-1.801, 2.146e-3
-1.800, 2.124e-3
-1.799, 2.100e-3
-1.798, 2.075e-3
-1.797, 2.054e-3
-1.796, 2.020e-3
-1.795, 1.992e-3
-1.794, 1.961e-3
-1.793, 1.930e-3
-1.792, 1.909e-3
-1.791, 1.884e-3
-1.790, 1.862e-3
-1.789, 1.838e-3
-1.788, 1.816e-3
-1.787, 1.798e-3
-1.786, 1.779e-3
-1.785, 1.758e-3
-1.784, 1.736e-3
-1.783, 1.714e-3
-1.782, 1.693e-3
-1.781, 1.671e-3
-1.780, 1.647e-3
-1.779, 1.628e-3
-1.778, 1.606e-3
-1.777, 1.588e-3
-1.776, 1.569e-3
-1.775, 1.545e-3
-1.774, 1.523e-3
-1.773, 1.505e-3
-1.772, 1.486e-3
-1.771, 1.465e-3
-1.770, 1.440e-3
-1.769, 1.421e-3
-1.768, 1.400e-3
-1.767, 1.378e-3
-1.766, 1.363e-3
-1.765, 1.341e-3
-1.764, 1.323e-3
-1.763, 1.304e-3
-1.762, 1.283e-3
-1.761, 1.267e-3
-1.760, 1.252e-3
-1.759, 1.236e-3
-1.758, 1.218e-3
-1.757, 1.203e-3
-1.756, 1.187e-3
-1.755, 1.169e-3
-1.754, 1.150e-3
-1.753, 1.135e-3
-1.752, 1.116e-3
-1.751, 1.101e-3
-1.750, 1.085e-3
-1.749, 1.070e-3
-1.748, 1.055e-3
-1.747, 1.039e-3
-1.746, 1.024e-3
-1.745, 1.011e-3
-1.744, 9.991e-4
-1.743, 9.806e-4
-1.742, 9.652e-4
-1.741, 9.528e-4
-1.740, 9.374e-4
-1.739, 9.220e-4
-1.738, 9.066e-4
-1.737, 8.943e-4
-1.736, 8.850e-4
-1.735, 8.696e-4
-1.734, 8.573e-4
-1.733, 8.449e-4
-1.732, 8.326e-4
-1.731, 8.203e-4
-1.730, 8.048e-4
-1.729, 7.956e-4
-1.728, 7.833e-4
-1.727, 7.709e-4
-1.726, 7.586e-4
-1.725, 7.463e-4
-1.724, 7.339e-4
-1.723, 7.216e-4
-1.722, 7.093e-4
-1.721, 7.031e-4
-1.720, 6.908e-4
-1.719, 6.815e-4
-1.718, 6.692e-4
-1.717, 6.569e-4
-1.716, 6.507e-4
-1.715, 6.384e-4
-1.714, 6.291e-4
-1.713, 6.199e-4
-1.712, 6.075e-4
-1.711, 5.983e-4
-1.710, 5.890e-4
-1.709, 5.798e-4
-1.708, 5.705e-4
-1.707, 5.613e-4
-1.706, 5.520e-4
-1.705, 5.459e-4
-1.704, 5.397e-4
-1.703, 5.274e-4
-1.702, 5.212e-4
-1.701, 5.120e-4
-1.700, 5.027e-4
-1.699, 4.965e-4
-1.698, 4.873e-4
-1.697, 4.780e-4
-1.696, 4.719e-4
-1.695, 4.657e-4
-1.694, 4.565e-4
-1.693, 4.503e-4
-1.692, 4.410e-4
-1.691, 4.349e-4
-1.690, 4.287e-4
-1.689, 4.225e-4
-1.688, 4.133e-4
-1.687, 4.102e-4
-1.686, 4.040e-4
-1.685, 3.979e-4
-1.684, 3.886e-4
-1.683, 3.825e-4
-1.682, 3.794e-4
-1.681, 3.701e-4
-1.680, 3.640e-4
-1.679, 3.609e-4
-1.678, 3.516e-4
-1.677, 3.455e-4
-1.676, 3.424e-4
-1.675, 3.362e-4
-1.674, 3.331e-4
-1.673, 3.270e-4
-1.672, 3.208e-4
-1.671, 3.177e-4
-1.670, 3.115e-4
-1.669, 3.054e-4
-1.668, 2.992e-4
-1.667, 2.961e-4
-1.666, 2.900e-4
-1.665, 2.869e-4
-1.664, 2.807e-4
-1.663, 2.776e-4
-1.662, 2.715e-4
-1.661, 2.684e-4
-1.660, 2.622e-4
-1.659, 2.591e-4
-1.658, 2.561e-4
-1.657, 2.530e-4
-1.656, 2.468e-4
-1.655, 2.437e-4
-1.654, 2.406e-4
-1.653, 2.376e-4
-1.652, 2.314e-4
-1.651, 2.283e-4
-1.650, 2.252e-4
-1.649, 2.221e-4
-1.648, 2.191e-4
-1.647, 2.129e-4
-1.646, 2.098e-4
-1.645, 2.067e-4
-1.644, 2.036e-4
-1.643, 2.006e-4
-1.642, 1.975e-4
-1.641, 1.944e-4
-1.640, 1.913e-4
-1.639, 1.882e-4
-1.638, 1.851e-4
-1.637, 1.821e-4
-1.636, 1.821e-4
-1.635, 1.790e-4
-1.634, 1.759e-4
-1.633, 1.728e-4
-1.632, 1.697e-4
-1.631, 1.666e-4
-1.630, 1.666e-4
-1.629, 1.636e-4
-1.628, 1.605e-4
-1.627, 1.574e-4
-1.626, 1.543e-4
-1.625, 1.543e-4
-1.624, 1.512e-4
-1.623, 1.481e-4
-1.622, 1.451e-4
-1.621, 1.451e-4
-1.620, 1.420e-4
-1.619, 1.389e-4
-1.618, 1.389e-4
-1.617, 1.358e-4
-1.616, 1.358e-4
-1.615, 1.327e-4
-1.614, 1.296e-4
-1.613, 1.266e-4
-1.612, 1.266e-4
-1.611, 1.266e-4
-1.610, 1.235e-4
-1.609, 1.204e-4
-1.608, 1.204e-4
-1.607, 1.173e-4
-1.606, 1.173e-4
-1.605, 1.142e-4
-1.604, 1.142e-4
-1.603, 1.111e-4
-1.602, 1.111e-4
-1.601, 1.081e-4
-1.600, 1.081e-4
-1.599, 1.050e-4
-1.598, 1.050e-4
-1.597, 1.050e-4
-1.596, 1.050e-4
-1.595, 1.019e-4
-1.594, 9.882e-5
-1.593, 9.882e-5
-1.592, 9.573e-5
-1.591, 9.573e-5
-1.590, 9.573e-5
-1.589, 9.265e-5
-1.588, 9.265e-5
-1.587, 9.265e-5
-1.586, 8.957e-5
-1.585, 8.957e-5
-1.584, 8.648e-5
-1.583, 8.648e-5
-1.582, 8.340e-5
-1.581, 8.340e-5
-1.580, 8.340e-5
-1.579, 8.340e-5
-1.578, 8.032e-5
-1.577, 8.032e-5
-1.576, 8.032e-5
-1.575, 7.723e-5
-1.574, 7.723e-5
-1.573, 7.723e-5
-1.572, 7.723e-5
-1.571, 7.723e-5
-1.570, 7.415e-5
-1.569, 7.415e-5
-1.568, 7.415e-5
-1.567, 7.107e-5
-1.566, 7.107e-5
-1.565, 7.107e-5
-1.564, 7.107e-5
-1.563, 6.798e-5
-1.562, 6.798e-5
-1.561, 6.490e-5
-1.560, 6.490e-5
-1.559, 6.490e-5
-1.558, 6.490e-5
-1.557, 6.490e-5
-1.556, 6.490e-5
-1.555, 6.490e-5
-1.554, 6.182e-5
-1.553, 6.182e-5
-1.552, 6.182e-5
-1.551, 6.182e-5
-1.550, 5.873e-5
-1.549, 5.873e-5
-1.548, 5.873e-5
-1.547, 5.873e-5
-1.546, 5.873e-5
-1.545, 5.565e-5
-1.544, 5.565e-5
-1.543, 5.565e-5
-1.542, 5.565e-5
-1.541, 5.565e-5
-1.540, 5.257e-5
-1.539, 5.257e-5
-1.538, 5.257e-5
-1.537, 5.257e-5
-1.536, 5.257e-5
-1.535, 5.257e-5
-1.534, 4.949e-5
-1.533, 4.949e-5
-1.532, 4.949e-5
-1.531, 4.949e-5
-1.530, 4.949e-5
-1.529, 4.949e-5
-1.528, 4.949e-5
-1.527, 4.640e-5
-1.526, 4.640e-5
-1.525, 4.640e-5
-1.524, 4.640e-5
-1.523, 4.640e-5
-1.522, 4.640e-5
-1.521, 4.640e-5
-1.520, 4.332e-5
-1.519, 4.332e-5
-1.518, 4.332e-5
-1.517, 4.332e-5
-1.516, 4.332e-5
-1.515, 4.332e-5
-1.514, 4.024e-5
-1.513, 4.332e-5
-1.512, 4.024e-5
-1.511, 4.024e-5
-1.510, 4.024e-5
-1.509, 4.024e-5
-1.508, 3.715e-5
-1.507, 3.715e-5
-1.506, 3.715e-5
-1.505, 3.715e-5
-1.504, 3.715e-5
-1.503, 3.715e-5
-1.502, 3.715e-5
-1.501, 3.715e-5
-1.500, 3.715e-5
-1.499, 3.715e-5
-1.498, 3.715e-5
-1.497, 3.407e-5
-1.496, 3.407e-5
-1.495, 3.407e-5
-1.494, 3.407e-5
-1.493, 3.407e-5
-1.492, 3.407e-5
-1.491, 3.407e-5
-1.490, 3.407e-5
-1.489, 3.099e-5
-1.488, 3.099e-5
-1.487, 3.099e-5
-1.486, 3.099e-5
-1.485, 3.099e-5
-1.484, 3.099e-5
-1.483, 3.099e-5
-1.482, 3.099e-5
-1.481, 3.099e-5
-1.480, 3.099e-5
-1.479, 2.790e-5
-1.478, 2.790e-5
-1.477, 2.790e-5
-1.476, 2.790e-5
-1.475, 2.790e-5
-1.474, 2.790e-5
-1.473, 2.790e-5
-1.472, 2.790e-5
-1.471, 2.790e-5
-1.470, 2.482e-5
-1.469, 2.790e-5
-1.468, 2.482e-5
-1.467, 2.482e-5
-1.466, 2.482e-5
-1.465, 2.482e-5
-1.464, 2.482e-5
-1.463, 2.482e-5
-1.462, 2.482e-5
-1.461, 2.482e-5
-1.460, 2.482e-5
-1.459, 2.482e-5
-1.458, 2.482e-5
-1.457, 2.174e-5
-1.456, 2.482e-5
-1.455, 2.174e-5
-1.454, 2.174e-5
-1.453, 2.174e-5
-1.452, 2.174e-5
-1.451, 2.174e-5
-1.450, 2.174e-5
-1.449, 2.174e-5
-1.448, 2.174e-5
-1.447, 2.174e-5
-1.446, 1.865e-5
-1.445, 1.865e-5
-1.444, 2.174e-5
-1.443, 1.865e-5
-1.442, 1.865e-5
-1.441, 1.865e-5
-1.440, 1.865e-5
-1.439, 1.865e-5
-1.438, 1.865e-5
-1.437, 1.865e-5
-1.436, 1.865e-5
-1.435, 1.865e-5
-1.434, 1.865e-5
-1.433, 1.865e-5
-1.432, 1.557e-5
-1.431, 1.865e-5
-1.430, 1.865e-5
-1.429, 1.557e-5
-1.428, 1.557e-5
-1.427, 1.557e-5
-1.426, 1.557e-5
-1.425, 1.557e-5
-1.424, 1.557e-5
-1.423, 1.557e-5
-1.422, 1.557e-5
-1.421, 1.557e-5
-1.420, 1.557e-5
-1.419, 1.557e-5
-1.418, 1.557e-5
-1.417, 1.249e-5
-1.416, 1.557e-5
-1.415, 1.249e-5
-1.414, 1.249e-5
-1.413, 1.249e-5
-1.412, 1.249e-5
-1.411, 1.249e-5
-1.410, 1.249e-5
-1.409, 1.249e-5
-1.408, 1.249e-5
-1.407, 1.249e-5
-1.406, 1.249e-5
-1.405, 1.249e-5
-1.404, 1.249e-5
-1.403, 1.249e-5
-1.402, 9.405e-6
-1.401, 1.249e-5
-1.400, 1.249e-5
-1.399, 9.405e-6
-1.398, 9.405e-6
-1.397, 1.249e-5
-1.396, 1.249e-5
-1.395, 9.405e-6
-1.394, 9.405e-6
-1.393, 9.405e-6
-1.392, 9.405e-6
-1.391, 9.405e-6
-1.390, 9.405e-6
-1.389, 9.405e-6
-1.388, 9.405e-6
-1.387, 9.405e-6
-1.386, 9.405e-6
-1.385, 9.405e-6
-1.384, 9.405e-6
-1.383, 9.405e-6
-1.382, 9.405e-6
-1.381, 9.405e-6
-1.380, 9.405e-6
-1.379, 9.405e-6
-1.378, 9.405e-6
-1.377, 6.322e-6
-1.376, 6.322e-6
-1.375, 6.322e-6
-1.374, 6.322e-6
-1.373, 9.405e-6
-1.372, 6.322e-6
-1.371, 6.322e-6
-1.370, 6.322e-6
-1.369, 6.322e-6
-1.368, 6.322e-6
-1.367, 6.322e-6
-1.366, 6.322e-6
-1.365, 6.322e-6
-1.364, 6.322e-6
-1.363, 6.322e-6
-1.362, 6.322e-6
-1.361, 6.322e-6
-1.360, 6.322e-6
-1.359, 6.322e-6
-1.358, 3.239e-6
-1.357, 6.322e-6
-1.356, 6.322e-6
-1.355, 6.322e-6
-1.354, 3.239e-6
-1.353, 3.239e-6
-1.352, 3.239e-6
-1.351, 3.239e-6
-1.350, 3.239e-6
-1.349, 3.239e-6
-1.348, 6.322e-6
-1.347, 3.239e-6
-1.346, 3.239e-6
-1.345, 3.239e-6
-1.344, 3.239e-6
-1.343, 3.239e-6
-1.342, 3.239e-6
-1.341, 3.239e-6
-1.340, 3.239e-6
-1.339, 3.239e-6
-1.338, 3.239e-6
-1.337, 3.239e-6
-1.336, 3.239e-6
-1.335, 3.239e-6
-1.334, 3.239e-6
-1.333, 3.239e-6
-1.332, 3.239e-6
-1.331, 3.239e-6
-1.330, 3.239e-6
-1.329, 3.239e-6
-1.328, 3.239e-6
-1.327, 3.239e-6
-1.326, 3.239e-6
-1.325, 1.559e-7
-1.324, 1.559e-7
-1.323, 3.239e-6
-1.322, 1.559e-7
-1.321, 3.239e-6
-1.320, 3.239e-6
-1.319, 1.559e-7
-1.318, 1.559e-7
-1.317, 3.239e-6
-1.316, 1.559e-7
-1.315, 1.559e-7
-1.314, 3.239e-6
-1.313, 3.239e-6
-1.312, 1.559e-7
-1.311, 3.239e-6
-1.310, 1.559e-7
-1.309, 1.559e-7
-1.308, 1.559e-7
-1.307, 1.559e-7
-1.306, 1.559e-7
-1.305, 1.559e-7
-1.304, 1.559e-7
-1.303, 1.559e-7
-1.302, 1.559e-7
-1.301, 1.559e-7
-1.300, 1.559e-7
-1.299, 1.559e-7
-1.298, 1.559e-7
-1.297, 1.559e-7
-1.296, 1.559e-7
-1.295, 1.559e-7
-1.294, 1.559e-7
-1.293, 1.559e-7
-1.292, 1.559e-7
-1.291, 1.559e-7
-1.290, 1.559e-7
-1.289, 1.559e-7
-1.288, 1.559e-7
-1.287, 1.559e-7
-1.286, 1.559e-7
-1.285, 1.559e-7
-1.284, 1.559e-7
-1.283, 1.559e-7
-1.282, 1.559e-7
-1.281, 1.559e-7
-1.280, 1.559e-7
-1.279, 1.559e-7
-1.278, -2.927e-6
-1.277, 1.559e-7
-1.276, 1.559e-7
-1.275, 1.559e-7
-1.274, 1.559e-7
-1.273, 1.559e-7
-1.272, 1.559e-7
-1.271, 1.559e-7
-1.270, 1.559e-7
-1.269, -2.927e-6
-1.268, 1.559e-7
-1.267, 1.559e-7
-1.266, 1.559e-7
-1.265, 1.559e-7
-1.264, 1.559e-7
-1.263, -2.927e-6
-1.262, -2.927e-6
-1.261, 1.559e-7
-1.260, 1.559e-7
-1.259, -2.927e-6
-1.258, 1.559e-7
-1.257, -2.927e-6
-1.256, 1.559e-7
-1.255, -2.927e-6
-1.254, -2.927e-6
-1.253, -2.927e-6
-1.252, 1.559e-7
-1.251, -2.927e-6
-1.250, -2.927e-6
-1.249, -2.927e-6
-1.248, 1.559e-7
-1.247, -2.927e-6
-1.246, 1.559e-7
-1.245, -2.927e-6
-1.244, -2.927e-6
-1.243, 1.559e-7
-1.242, -2.927e-6
-1.241, -2.927e-6
-1.240, 1.559e-7
-1.239, -2.927e-6
-1.238, -2.927e-6
-1.237, -2.927e-6
-1.236, -2.927e-6
-1.235, -2.927e-6
-1.234, -2.927e-6
-1.233, -2.927e-6
-1.232, -2.927e-6
-1.231, -2.927e-6
-1.230, -2.927e-6
-1.229, -2.927e-6
-1.228, -2.927e-6
-1.227, -2.927e-6
-1.226, -2.927e-6
-1.225, -2.927e-6
-1.224, -2.927e-6
-1.223, -2.927e-6
-1.222, -2.927e-6
-1.221, -2.927e-6
-1.220, -2.927e-6
-1.219, -2.927e-6
-1.218, -2.927e-6
-1.217, -2.927e-6
-1.216, -2.927e-6
-1.215, -2.927e-6
-1.214, -2.927e-6
-1.213, -2.927e-6
-1.212, -2.927e-6
-1.211, -2.927e-6
-1.210, -2.927e-6
-1.209, -2.927e-6
-1.208, -2.927e-6
-1.207, -2.927e-6
-1.206, -2.927e-6
-1.205, -2.927e-6
-1.204, -2.927e-6
-1.203, -2.927e-6
-1.202, -2.927e-6
-1.201, -2.927e-6
-1.200, -2.927e-6
-1.199, -2.927e-6
-1.198, -2.927e-6
-1.197, -2.927e-6
-1.196, -2.927e-6
-1.195, -2.927e-6
-1.194, -2.927e-6
-1.193, -2.927e-6
-1.192, -2.927e-6
-1.191, -2.927e-6
-1.190, -2.927e-6
-1.189, -2.927e-6
-1.188, -2.927e-6
-1.187, -2.927e-6
-1.186, -2.927e-6
-1.185, -2.927e-6
-1.184, -2.927e-6
-1.183, -2.927e-6
-1.182, -2.927e-6
-1.181, -2.927e-6
-1.180, -2.927e-6
-1.179, -2.927e-6
-1.178, -2.927e-6
-1.177, -2.927e-6
-1.176, -2.927e-6
-1.175, -2.927e-6
-1.174, -2.927e-6
-1.173, -2.927e-6
-1.172, -2.927e-6
-1.171, -2.927e-6
-1.170, -2.927e-6
-1.169, -2.927e-6
-1.168, -2.927e-6
-1.167, -2.927e-6
-1.166, -2.927e-6
-1.165, -2.927e-6
-1.164, -2.927e-6
-1.163, -2.927e-6
-1.162, -2.927e-6
-1.161, -2.927e-6
-1.160, -2.927e-6
-1.159, -2.927e-6
-1.158, -2.927e-6
-1.157, -2.927e-6
-1.156, -2.927e-6
-1.155, -2.927e-6
-1.154, -2.927e-6
-1.153, -2.927e-6
-1.152, -2.927e-6
-1.151, -2.927e-6
-1.150, -2.927e-6
-1.149, -2.927e-6
-1.148, -2.927e-6
-1.147, -2.927e-6
-1.146, -2.927e-6
-1.145, -2.927e-6
-1.144, -2.927e-6
-1.143, -2.927e-6
-1.142, -6.010e-6
-1.141, -2.927e-6
-1.140, -6.010e-6
-1.139, -6.010e-6
-1.138, -2.927e-6
-1.137, -2.927e-6
-1.136, -2.927e-6
-1.135, -2.927e-6
-1.134, -2.927e-6
-1.133, -2.927e-6
-1.132, -6.010e-6
-1.131, -2.927e-6
-1.130, -2.927e-6
-1.129, -2.927e-6
-1.128, -2.927e-6
-1.127, -6.010e-6
-1.126, -2.927e-6
-1.125, -2.927e-6
-1.124, -6.010e-6
-1.123, -6.010e-6
-1.122, -2.927e-6
-1.121, -6.010e-6
-1.120, -2.927e-6
-1.119, -6.010e-6
-1.118, -6.010e-6
-1.117, -6.010e-6
-1.116, -2.927e-6
-1.115, -6.010e-6
-1.114, -2.927e-6
-1.113, -6.010e-6
-1.112, -6.010e-6
-1.111, -2.927e-6
-1.110, -6.010e-6
-1.109, -6.010e-6
-1.108, -2.927e-6
-1.107, -2.927e-6
-1.106, -2.927e-6
-1.105, -6.010e-6
-1.104, -6.010e-6
-1.103, -6.010e-6
-1.102, -2.927e-6
-1.101, -6.010e-6
-1.100, -6.010e-6
-1.099, -2.927e-6
-1.098, -6.010e-6
-1.097, -6.010e-6
-1.096, -6.010e-6
-1.095, -6.010e-6
-1.094, -6.010e-6
-1.093, -6.010e-6
-1.092, -6.010e-6
-1.091, -6.010e-6
-1.090, -6.010e-6
-1.089, -6.010e-6
-1.088, -6.010e-6
-1.087, -6.010e-6
-1.086, -6.010e-6
-1.085, -6.010e-6
-1.084, -6.010e-6
-1.083, -6.010e-6
-1.082, -6.010e-6
-1.081, -6.010e-6
-1.080, -6.010e-6
-1.079, -6.010e-6
-1.078, -6.010e-6
-1.077, -6.010e-6
-1.076, -6.010e-6
-1.075, -6.010e-6
-1.074, -6.010e-6
-1.073, -6.010e-6
-1.072, -6.010e-6
-1.071, -6.010e-6
-1.070, -6.010e-6
-1.069, -6.010e-6
-1.068, -6.010e-6
-1.067, -6.010e-6
-1.066, -6.010e-6
-1.065, -6.010e-6
-1.064, -6.010e-6
-1.063, -6.010e-6
-1.062, -6.010e-6
-1.061, -6.010e-6
-1.060, -6.010e-6
-1.059, -6.010e-6
-1.058, -9.093e-6
-1.057, -6.010e-6
-1.056, -6.010e-6
-1.055, -6.010e-6
-1.054, -6.010e-6
-1.053, -6.010e-6
-1.052, -6.010e-6
-1.051, -6.010e-6
-1.050, -6.010e-6
-1.049, -6.010e-6
-1.048, -9.093e-6
-1.047, -9.093e-6
-1.046, -6.010e-6
-1.045, -9.093e-6
-1.044, -9.093e-6
-1.043, -9.093e-6
-1.042, -9.093e-6
-1.041, -9.093e-6
-1.040, -9.093e-6
-1.039, -9.093e-6
-1.038, -9.093e-6
-1.037, -9.093e-6
-1.036, -9.093e-6
-1.035, -9.093e-6
-1.034, -9.093e-6
-1.033, -9.093e-6
-1.032, -9.093e-6
-1.031, -9.093e-6
-1.030, -9.093e-6
-1.029, -9.093e-6
-1.028, -9.093e-6
-1.027, -9.093e-6
-1.026, -9.093e-6
-1.025, -9.093e-6
-1.024, -9.093e-6
-1.023, -9.093e-6
-1.022, -9.093e-6
-1.021, -9.093e-6
-1.020, -9.093e-6
-1.019, -9.093e-6
-1.018, -9.093e-6
-1.017, -9.093e-6
-1.016, -9.093e-6
-1.015, -9.093e-6
-1.014, -9.093e-6
-1.013, -9.093e-6
-1.012, -9.093e-6
-1.011, -9.093e-6
-1.010, -1.218e-5
-1.009, -9.093e-6
-1.008, -9.093e-6
-1.007, -9.093e-6
-1.006, -9.093e-6
-1.005, -1.218e-5
-1.004, -9.093e-6
-1.003, -1.218e-5
-1.002, -1.218e-5
-1.001, -9.093e-6
