Apr. 9, 2025   06:55:32
Cyclic Voltammetry
File: c:/users/guazh/data/banditlqround7_x0exp994_r5/2025-03-28-exp1026\exp1026-2025-04-09t06_50_39-h2koh\exp1026_cv_50mvs_efin_-1400mv.bin
Data Source:  Experiment
Instrument Model:  CHI760E
Header: CV ran at 50 mVs
Note: 

Init E (V) = -1
High E (V) = -1
Low E (V) = -1.4
Final E (V) = -1
Init P/N = N
Scan Rate (V/s) = 0.05
Segment = 7
Sample Interval (V) = 0.001
Quiet Time (sec) = 60
Sensitivity (A/V) = 0.001
Comp R (ohm) = 1.6

Results:

Channel 1:
Segment 1:
Ep = -1.266V
ip = 1.102e-3A
Ah = 1.540e-3C

Segment 2:

Segment 3:
Ep = -1.241V
ip = 2.684e-4A
Ah = 3.333e-4C

Segment 4:

Segment 5:
Ep = -1.233V
ip = 2.167e-4A
Ah = 2.467e-4C

Segment 6:

Segment 7:

Potential/V, Current/A

-1.000, 2.651e-5
-1.001, 7.032e-5
-1.002, 8.869e-5
-1.003, 9.982e-5
-1.004, 1.085e-4
-1.005, 1.154e-4
-1.006, 1.210e-4
-1.007, 1.249e-4
-1.008, 1.282e-4
-1.009, 1.324e-4
-1.010, 1.367e-4
-1.011, 1.396e-4
-1.012, 1.418e-4
-1.013, 1.437e-4
-1.014, 1.466e-4
-1.015, 1.501e-4
-1.016, 1.522e-4
-1.017, 1.537e-4
-1.018, 1.553e-4
-1.019, 1.574e-4
-1.020, 1.605e-4
-1.021, 1.618e-4
-1.022, 1.632e-4
-1.023, 1.649e-4
-1.024, 1.670e-4
-1.025, 1.695e-4
-1.026, 1.709e-4
-1.027, 1.716e-4
-1.028, 1.730e-4
-1.029, 1.747e-4
-1.030, 1.771e-4
-1.031, 1.791e-4
-1.032, 1.786e-4
-1.033, 1.803e-4
-1.034, 1.822e-4
-1.035, 1.849e-4
-1.036, 1.870e-4
-1.037, 1.869e-4
-1.038, 1.878e-4
-1.039, 1.900e-4
-1.040, 1.922e-4
-1.041, 1.940e-4
-1.042, 1.942e-4
-1.043, 1.949e-4
-1.044, 1.971e-4
-1.045, 1.992e-4
-1.046, 2.010e-4
-1.047, 2.015e-4
-1.048, 2.025e-4
-1.049, 2.046e-4
-1.050, 2.072e-4
-1.051, 2.088e-4
-1.052, 2.097e-4
-1.053, 2.101e-4
-1.054, 2.122e-4
-1.055, 2.147e-4
-1.056, 2.159e-4
-1.057, 2.171e-4
-1.058, 2.178e-4
-1.059, 2.195e-4
-1.060, 2.226e-4
-1.061, 2.244e-4
-1.062, 2.254e-4
-1.063, 2.267e-4
-1.064, 2.284e-4
-1.065, 2.300e-4
-1.066, 2.318e-4
-1.067, 2.333e-4
-1.068, 2.346e-4
-1.069, 2.368e-4
-1.070, 2.392e-4
-1.071, 2.416e-4
-1.072, 2.420e-4
-1.073, 2.434e-4
-1.074, 2.455e-4
-1.075, 2.488e-4
-1.076, 2.510e-4
-1.077, 2.513e-4
-1.078, 2.528e-4
-1.079, 2.555e-4
-1.080, 2.577e-4
-1.081, 2.607e-4
-1.082, 2.618e-4
-1.083, 2.622e-4
-1.084, 2.646e-4
-1.085, 2.678e-4
-1.086, 2.702e-4
-1.087, 2.716e-4
-1.088, 2.729e-4
-1.089, 2.755e-4
-1.090, 2.783e-4
-1.091, 2.807e-4
-1.092, 2.826e-4
-1.093, 2.843e-4
-1.094, 2.866e-4
-1.095, 2.903e-4
-1.096, 2.923e-4
-1.097, 2.945e-4
-1.098, 2.969e-4
-1.099, 2.994e-4
-1.100, 3.032e-4
-1.101, 3.056e-4
-1.102, 3.072e-4
-1.103, 3.096e-4
-1.104, 3.121e-4
-1.105, 3.160e-4
-1.106, 3.187e-4
-1.107, 3.213e-4
-1.108, 3.237e-4
-1.109, 3.264e-4
-1.110, 3.302e-4
-1.111, 3.335e-4
-1.112, 3.360e-4
-1.113, 3.395e-4
-1.114, 3.428e-4
-1.115, 3.466e-4
-1.116, 3.498e-4
-1.117, 3.522e-4
-1.118, 3.548e-4
-1.119, 3.584e-4
-1.120, 3.621e-4
-1.121, 3.668e-4
-1.122, 3.694e-4
-1.123, 3.715e-4
-1.124, 3.756e-4
-1.125, 3.802e-4
-1.126, 3.852e-4
-1.127, 3.886e-4
-1.128, 3.914e-4
-1.129, 3.960e-4
-1.130, 4.011e-4
-1.131, 4.056e-4
-1.132, 4.085e-4
-1.133, 4.115e-4
-1.134, 4.161e-4
-1.135, 4.215e-4
-1.136, 4.261e-4
-1.137, 4.305e-4
-1.138, 4.345e-4
-1.139, 4.396e-4
-1.140, 4.460e-4
-1.141, 4.508e-4
-1.142, 4.547e-4
-1.143, 4.592e-4
-1.144, 4.650e-4
-1.145, 4.712e-4
-1.146, 4.765e-4
-1.147, 4.811e-4
-1.148, 4.865e-4
-1.149, 4.916e-4
-1.150, 4.976e-4
-1.151, 5.051e-4
-1.152, 5.108e-4
-1.153, 5.160e-4
-1.154, 5.225e-4
-1.155, 5.289e-4
-1.156, 5.367e-4
-1.157, 5.429e-4
-1.158, 5.493e-4
-1.159, 5.560e-4
-1.160, 5.613e-4
-1.161, 5.694e-4
-1.162, 5.755e-4
-1.163, 5.819e-4
-1.164, 5.911e-4
-1.165, 5.992e-4
-1.166, 6.069e-4
-1.167, 6.134e-4
-1.168, 6.204e-4
-1.169, 6.286e-4
-1.170, 6.379e-4
-1.171, 6.480e-4
-1.172, 6.551e-4
-1.173, 6.626e-4
-1.174, 6.716e-4
-1.175, 6.814e-4
-1.176, 6.912e-4
-1.177, 7.000e-4
-1.178, 7.089e-4
-1.179, 7.182e-4
-1.180, 7.284e-4
-1.181, 7.382e-4
-1.182, 7.476e-4
-1.183, 7.574e-4
-1.184, 7.683e-4
-1.185, 7.792e-4
-1.186, 7.898e-4
-1.187, 7.994e-4
-1.188, 8.095e-4
-1.189, 8.228e-4
-1.190, 8.342e-4
-1.191, 8.443e-4
-1.192, 8.555e-4
-1.193, 8.665e-4
-1.194, 8.784e-4
-1.195, 8.899e-4
-1.196, 9.025e-4
-1.197, 9.139e-4
-1.198, 9.271e-4
-1.199, 9.401e-4
-1.200, 9.512e-4
-1.201, 9.640e-4
-1.202, 9.773e-4
-1.203, 9.899e-4
-1.204, 1.002e-3
-1.205, 1.015e-3
-1.206, 1.028e-3
-1.207, 1.041e-3
-1.208, 1.054e-3
-1.209, 1.068e-3
-1.210, 1.082e-3
-1.211, 1.096e-3
-1.212, 1.109e-3
-1.213, 1.122e-3
-1.214, 1.135e-3
-1.215, 1.152e-3
-1.216, 1.166e-3
-1.217, 1.176e-3
-1.218, 1.189e-3
-1.219, 1.204e-3
-1.220, 1.219e-3
-1.221, 1.232e-3
-1.222, 1.245e-3
-1.223, 1.259e-3
-1.224, 1.271e-3
-1.225, 1.286e-3
-1.226, 1.297e-3
-1.227, 1.310e-3
-1.228, 1.325e-3
-1.229, 1.338e-3
-1.230, 1.352e-3
-1.231, 1.366e-3
-1.232, 1.376e-3
-1.233, 1.386e-3
-1.234, 1.398e-3
-1.235, 1.410e-3
-1.236, 1.423e-3
-1.237, 1.434e-3
-1.238, 1.444e-3
-1.239, 1.454e-3
-1.240, 1.464e-3
-1.241, 1.476e-3
-1.242, 1.487e-3
-1.243, 1.499e-3
-1.244, 1.509e-3
-1.245, 1.515e-3
-1.246, 1.528e-3
-1.247, 1.534e-3
-1.248, 1.540e-3
-1.249, 1.546e-3
-1.250, 1.556e-3
-1.251, 1.562e-3
-1.252, 1.570e-3
-1.253, 1.579e-3
-1.254, 1.585e-3
-1.255, 1.591e-3
-1.256, 1.599e-3
-1.257, 1.605e-3
-1.258, 1.606e-3
-1.259, 1.610e-3
-1.260, 1.615e-3
-1.261, 1.620e-3
-1.262, 1.623e-3
-1.263, 1.625e-3
-1.264, 1.628e-3
-1.265, 1.631e-3
-1.266, 1.634e-3
-1.267, 1.632e-3
-1.268, 1.632e-3
-1.269, 1.628e-3
-1.270, 1.630e-3
-1.271, 1.630e-3
-1.272, 1.626e-3
-1.273, 1.625e-3
-1.274, 1.621e-3
-1.275, 1.617e-3
-1.276, 1.609e-3
-1.277, 1.599e-3
-1.278, 1.591e-3
-1.279, 1.587e-3
-1.280, 1.579e-3
-1.281, 1.572e-3
-1.282, 1.564e-3
-1.283, 1.552e-3
-1.284, 1.542e-3
-1.285, 1.529e-3
-1.286, 1.519e-3
-1.287, 1.507e-3
-1.288, 1.492e-3
-1.289, 1.480e-3
-1.290, 1.470e-3
-1.291, 1.460e-3
-1.292, 1.446e-3
-1.293, 1.433e-3
-1.294, 1.416e-3
-1.295, 1.403e-3
-1.296, 1.393e-3
-1.297, 1.377e-3
-1.298, 1.363e-3
-1.299, 1.350e-3
-1.300, 1.339e-3
-1.301, 1.326e-3
-1.302, 1.315e-3
-1.303, 1.298e-3
-1.304, 1.286e-3
-1.305, 1.274e-3
-1.306, 1.262e-3
-1.307, 1.248e-3
-1.308, 1.236e-3
-1.309, 1.225e-3
-1.310, 1.216e-3
-1.311, 1.209e-3
-1.312, 1.197e-3
-1.313, 1.185e-3
-1.314, 1.177e-3
-1.315, 1.169e-3
-1.316, 1.164e-3
-1.317, 1.157e-3
-1.318, 1.148e-3
-1.319, 1.142e-3
-1.320, 1.137e-3
-1.321, 1.137e-3
-1.322, 1.134e-3
-1.323, 1.131e-3
-1.324, 1.129e-3
-1.325, 1.128e-3
-1.326, 1.129e-3
-1.327, 1.128e-3
-1.328, 1.128e-3
-1.329, 1.130e-3
-1.330, 1.134e-3
-1.331, 1.140e-3
-1.332, 1.146e-3
-1.333, 1.151e-3
-1.334, 1.158e-3
-1.335, 1.168e-3
-1.336, 1.177e-3
-1.337, 1.188e-3
-1.338, 1.199e-3
-1.339, 1.212e-3
-1.340, 1.227e-3
-1.341, 1.247e-3
-1.342, 1.260e-3
-1.343, 1.272e-3
-1.344, 1.296e-3
-1.345, 1.314e-3
-1.346, 1.332e-3
-1.347, 1.353e-3
-1.348, 1.374e-3
-1.349, 1.396e-3
-1.350, 1.422e-3
-1.351, 1.448e-3
-1.352, 1.472e-3
-1.353, 1.498e-3
-1.354, 1.524e-3
-1.355, 1.553e-3
-1.356, 1.583e-3
-1.357, 1.612e-3
-1.358, 1.639e-3
-1.359, 1.670e-3
-1.360, 1.703e-3
-1.361, 1.736e-3
-1.362, 1.768e-3
-1.363, 1.803e-3
-1.364, 1.834e-3
-1.365, 1.866e-3
-1.366, 1.903e-3
-1.367, 1.939e-3
-1.368, 1.973e-3
-1.369, 2.010e-3
-1.370, 2.047e-3
-1.371, 2.087e-3
-1.372, 2.124e-3
-1.373, 2.157e-3
-1.374, 2.197e-3
-1.375, 2.237e-3
-1.376, 2.278e-3
-1.377, 2.317e-3
-1.378, 2.355e-3
-1.379, 2.398e-3
-1.380, 2.441e-3
-1.381, 2.483e-3
-1.382, 2.522e-3
-1.383, 2.566e-3
-1.384, 2.605e-3
-1.385, 2.650e-3
-1.386, 2.695e-3
-1.387, 2.733e-3
-1.388, 2.777e-3
-1.389, 2.820e-3
-1.390, 2.868e-3
-1.391, 2.917e-3
-1.392, 2.964e-3
-1.393, 3.008e-3
-1.394, 3.055e-3
-1.395, 3.105e-3
-1.396, 3.156e-3
-1.397, 3.197e-3
-1.398, 3.238e-3
-1.399, 3.287e-3
-1.400, 3.251e-3
-1.399, 3.166e-3
-1.398, 3.108e-3
-1.397, 3.057e-3
-1.396, 2.950e-3
-1.395, 2.798e-3
-1.394, 2.748e-3
-1.393, 2.708e-3
-1.392, 2.659e-3
-1.391, 2.610e-3
-1.390, 2.573e-3
-1.389, 2.534e-3
-1.388, 2.483e-3
-1.387, 2.443e-3
-1.386, 2.404e-3
-1.385, 2.365e-3
-1.384, 2.326e-3
-1.383, 2.291e-3
-1.382, 2.249e-3
-1.381, 2.209e-3
-1.380, 2.165e-3
-1.379, 2.130e-3
-1.378, 2.089e-3
-1.377, 2.052e-3
-1.376, 2.017e-3
-1.375, 1.983e-3
-1.374, 1.954e-3
-1.373, 1.926e-3
-1.372, 1.886e-3
-1.371, 1.856e-3
-1.370, 1.824e-3
-1.369, 1.788e-3
-1.368, 1.752e-3
-1.367, 1.718e-3
-1.366, 1.686e-3
-1.365, 1.657e-3
-1.364, 1.626e-3
-1.363, 1.593e-3
-1.362, 1.565e-3
-1.361, 1.532e-3
-1.360, 1.503e-3
-1.359, 1.474e-3
-1.358, 1.447e-3
-1.357, 1.417e-3
-1.356, 1.386e-3
-1.355, 1.360e-3
-1.354, 1.332e-3
-1.353, 1.307e-3
-1.352, 1.277e-3
-1.351, 1.250e-3
-1.350, 1.225e-3
-1.349, 1.201e-3
-1.348, 1.173e-3
-1.347, 1.150e-3
-1.346, 1.123e-3
-1.345, 1.098e-3
-1.344, 1.075e-3
-1.343, 1.052e-3
-1.342, 1.028e-3
-1.341, 1.005e-3
-1.340, 9.822e-4
-1.339, 9.598e-4
-1.338, 9.376e-4
-1.337, 9.144e-4
-1.336, 8.923e-4
-1.335, 8.738e-4
-1.334, 8.534e-4
-1.333, 8.330e-4
-1.332, 8.110e-4
-1.331, 7.910e-4
-1.330, 7.721e-4
-1.329, 7.556e-4
-1.328, 7.380e-4
-1.327, 7.186e-4
-1.326, 6.998e-4
-1.325, 6.800e-4
-1.324, 6.624e-4
-1.323, 6.469e-4
-1.322, 6.286e-4
-1.321, 6.092e-4
-1.320, 5.937e-4
-1.319, 5.782e-4
-1.318, 5.624e-4
-1.317, 5.467e-4
-1.316, 5.301e-4
-1.315, 5.142e-4
-1.314, 5.004e-4
-1.313, 4.862e-4
-1.312, 4.720e-4
-1.311, 4.566e-4
-1.310, 4.424e-4
-1.309, 4.286e-4
-1.308, 4.160e-4
-1.307, 4.043e-4
-1.306, 3.898e-4
-1.305, 3.766e-4
-1.304, 3.650e-4
-1.303, 3.521e-4
-1.302, 3.396e-4
-1.301, 3.284e-4
-1.300, 3.168e-4
-1.299, 3.062e-4
-1.298, 2.958e-4
-1.297, 2.829e-4
-1.296, 2.710e-4
-1.295, 2.621e-4
-1.294, 2.524e-4
-1.293, 2.422e-4
-1.292, 2.315e-4
-1.291, 2.223e-4
-1.290, 2.129e-4
-1.289, 2.038e-4
-1.288, 1.955e-4
-1.287, 1.859e-4
-1.286, 1.763e-4
-1.285, 1.679e-4
-1.284, 1.606e-4
-1.283, 1.526e-4
-1.282, 1.440e-4
-1.281, 1.355e-4
-1.280, 1.283e-4
-1.279, 1.214e-4
-1.278, 1.141e-4
-1.277, 1.067e-4
-1.276, 9.942e-5
-1.275, 9.289e-5
-1.274, 8.689e-5
-1.273, 7.983e-5
-1.272, 7.325e-5
-1.271, 6.651e-5
-1.270, 6.056e-5
-1.269, 5.584e-5
-1.268, 4.974e-5
-1.267, 4.326e-5
-1.266, 3.749e-5
-1.265, 3.240e-5
-1.264, 2.815e-5
-1.263, 2.301e-5
-1.262, 1.688e-5
-1.261, 1.189e-5
-1.260, 7.324e-6
-1.259, 3.624e-6
-1.258, -7.826e-7
-1.257, -6.598e-6
-1.256, -1.085e-5
-1.255, -1.462e-5
-1.254, -1.823e-5
-1.253, -2.200e-5
-1.252, -2.703e-5
-1.251, -3.140e-5
-1.250, -3.428e-5
-1.249, -3.712e-5
-1.248, -4.043e-5
-1.247, -4.468e-5
-1.246, -4.882e-5
-1.245, -5.116e-5
-1.244, -5.383e-5
-1.243, -5.720e-5
-1.242, -6.057e-5
-1.241, -6.463e-5
-1.240, -6.666e-5
-1.239, -6.882e-5
-1.238, -7.130e-5
-1.237, -7.447e-5
-1.236, -7.781e-5
-1.235, -8.002e-5
-1.234, -8.125e-5
-1.233, -8.437e-5
-1.232, -8.738e-5
-1.231, -9.020e-5
-1.230, -9.200e-5
-1.229, -9.422e-5
-1.228, -9.565e-5
-1.227, -9.837e-5
-1.226, -1.002e-4
-1.225, -1.026e-4
-1.224, -1.031e-4
-1.223, -1.051e-4
-1.222, -1.081e-4
-1.221, -1.097e-4
-1.220, -1.111e-4
-1.219, -1.118e-4
-1.218, -1.134e-4
-1.217, -1.158e-4
-1.216, -1.174e-4
-1.215, -1.191e-4
-1.214, -1.195e-4
-1.213, -1.204e-4
-1.212, -1.233e-4
-1.211, -1.251e-4
-1.210, -1.261e-4
-1.209, -1.266e-4
-1.208, -1.270e-4
-1.207, -1.294e-4
-1.206, -1.313e-4
-1.205, -1.317e-4
-1.204, -1.319e-4
-1.203, -1.333e-4
-1.202, -1.353e-4
-1.201, -1.376e-4
-1.200, -1.377e-4
-1.199, -1.378e-4
-1.198, -1.386e-4
-1.197, -1.402e-4
-1.196, -1.415e-4
-1.195, -1.419e-4
-1.194, -1.425e-4
-1.193, -1.435e-4
-1.192, -1.443e-4
-1.191, -1.465e-4
-1.190, -1.475e-4
-1.189, -1.469e-4
-1.188, -1.477e-4
-1.187, -1.490e-4
-1.186, -1.500e-4
-1.185, -1.508e-4
-1.184, -1.504e-4
-1.183, -1.515e-4
-1.182, -1.532e-4
-1.181, -1.541e-4
-1.180, -1.549e-4
-1.179, -1.548e-4
-1.178, -1.561e-4
-1.177, -1.579e-4
-1.176, -1.582e-4
-1.175, -1.587e-4
-1.174, -1.587e-4
-1.173, -1.589e-4
-1.172, -1.613e-4
-1.171, -1.623e-4
-1.170, -1.619e-4
-1.169, -1.624e-4
-1.168, -1.623e-4
-1.167, -1.642e-4
-1.166, -1.655e-4
-1.165, -1.654e-4
-1.164, -1.655e-4
-1.163, -1.661e-4
-1.162, -1.676e-4
-1.161, -1.691e-4
-1.160, -1.687e-4
-1.159, -1.682e-4
-1.158, -1.694e-4
-1.157, -1.707e-4
-1.156, -1.724e-4
-1.155, -1.728e-4
-1.154, -1.721e-4
-1.153, -1.728e-4
-1.152, -1.748e-4
-1.151, -1.761e-4
-1.150, -1.762e-4
-1.149, -1.754e-4
-1.148, -1.765e-4
-1.147, -1.776e-4
-1.146, -1.789e-4
-1.145, -1.796e-4
-1.144, -1.790e-4
-1.143, -1.799e-4
-1.142, -1.821e-4
-1.141, -1.831e-4
-1.140, -1.838e-4
-1.139, -1.829e-4
-1.138, -1.833e-4
-1.137, -1.860e-4
-1.136, -1.867e-4
-1.135, -1.875e-4
-1.134, -1.879e-4
-1.133, -1.883e-4
-1.132, -1.902e-4
-1.131, -1.917e-4
-1.130, -1.920e-4
-1.129, -1.927e-4
-1.128, -1.933e-4
-1.127, -1.956e-4
-1.126, -1.978e-4
-1.125, -1.987e-4
-1.124, -1.993e-4
-1.123, -2.003e-4
-1.122, -2.030e-4
-1.121, -2.064e-4
-1.120, -2.088e-4
-1.119, -2.098e-4
-1.118, -2.123e-4
-1.117, -2.160e-4
-1.116, -2.206e-4
-1.115, -2.246e-4
-1.114, -2.285e-4
-1.113, -2.341e-4
-1.112, -2.410e-4
-1.111, -2.496e-4
-1.110, -2.569e-4
-1.109, -2.631e-4
-1.108, -2.718e-4
-1.107, -2.813e-4
-1.106, -2.923e-4
-1.105, -3.031e-4
-1.104, -3.128e-4
-1.103, -3.250e-4
-1.102, -3.382e-4
-1.101, -3.517e-4
-1.100, -3.642e-4
-1.099, -3.756e-4
-1.098, -3.876e-4
-1.097, -4.032e-4
-1.096, -4.193e-4
-1.095, -4.353e-4
-1.094, -4.506e-4
-1.093, -4.647e-4
-1.092, -4.803e-4
-1.091, -4.969e-4
-1.090, -5.130e-4
-1.089, -5.287e-4
-1.088, -5.450e-4
-1.087, -5.628e-4
-1.086, -5.804e-4
-1.085, -5.961e-4
-1.084, -6.126e-4
-1.083, -6.282e-4
-1.082, -6.447e-4
-1.081, -6.620e-4
-1.080, -6.761e-4
-1.079, -6.892e-4
-1.078, -7.046e-4
-1.077, -7.183e-4
-1.076, -7.332e-4
-1.075, -7.464e-4
-1.074, -7.596e-4
-1.073, -7.736e-4
-1.072, -7.832e-4
-1.071, -7.922e-4
-1.070, -8.013e-4
-1.069, -8.105e-4
-1.068, -8.198e-4
-1.067, -8.292e-4
-1.066, -8.358e-4
-1.065, -8.495e-4
-1.064, -8.521e-4
-1.063, -8.595e-4
-1.062, -8.707e-4
-1.061, -8.778e-4
-1.060, -8.826e-4
-1.059, -8.863e-4
-1.058, -8.913e-4
-1.057, -9.011e-4
-1.056, -9.081e-4
-1.055, -9.151e-4
-1.054, -9.210e-4
-1.053, -9.266e-4
-1.052, -9.332e-4
-1.051, -9.384e-4
-1.050, -9.419e-4
-1.049, -9.452e-4
-1.048, -9.495e-4
-1.047, -9.566e-4
-1.046, -9.629e-4
-1.045, -9.670e-4
-1.044, -9.727e-4
-1.043, -9.766e-4
-1.042, -9.800e-4
-1.041, -9.852e-4
-1.040, -9.888e-4
-1.039, -9.922e-4
-1.038, -9.965e-4
-1.037, -1.002e-3
-1.036, -1.005e-3
-1.035, -1.009e-3
-1.034, -1.012e-3
-1.033, -1.017e-3
-1.032, -1.023e-3
-1.031, -1.028e-3
-1.030, -1.031e-3
-1.029, -1.030e-3
-1.028, -1.030e-3
-1.027, -1.035e-3
-1.026, -1.040e-3
-1.025, -1.045e-3
-1.024, -1.046e-3
-1.023, -1.049e-3
-1.022, -1.052e-3
-1.021, -1.056e-3
-1.020, -1.055e-3
-1.019, -1.055e-3
-1.018, -1.056e-3
-1.017, -1.057e-3
-1.016, -1.056e-3
-1.015, -1.059e-3
-1.014, -1.061e-3
-1.013, -1.065e-3
-1.012, -1.071e-3
-1.011, -1.072e-3
-1.010, -1.070e-3
-1.009, -1.070e-3
-1.008, -1.071e-3
-1.007, -1.074e-3
-1.006, -1.075e-3
-1.005, -1.076e-3
-1.004, -1.077e-3
-1.003, -1.080e-3
-1.002, -1.082e-3
-1.001, -1.083e-3
-1.000, -1.002e-3
-1.001, -8.905e-4
-1.002, -8.188e-4
-1.003, -7.628e-4
-1.004, -7.127e-4
-1.005, -6.664e-4
-1.006, -6.234e-4
-1.007, -5.844e-4
-1.008, -5.498e-4
-1.009, -5.166e-4
-1.010, -4.837e-4
-1.011, -4.515e-4
-1.012, -4.211e-4
-1.013, -3.950e-4
-1.014, -3.709e-4
-1.015, -3.471e-4
-1.016, -3.241e-4
-1.017, -3.024e-4
-1.018, -2.831e-4
-1.019, -2.642e-4
-1.020, -2.449e-4
-1.021, -2.264e-4
-1.022, -2.093e-4
-1.023, -1.936e-4
-1.024, -1.784e-4
-1.025, -1.637e-4
-1.026, -1.491e-4
-1.027, -1.362e-4
-1.028, -1.242e-4
-1.029, -1.127e-4
-1.030, -1.006e-4
-1.031, -8.839e-5
-1.032, -7.774e-5
-1.033, -6.788e-5
-1.034, -5.858e-5
-1.035, -4.887e-5
-1.036, -3.895e-5
-1.037, -3.014e-5
-1.038, -2.264e-5
-1.039, -1.458e-5
-1.040, -6.946e-6
-1.041, 1.463e-6
-1.042, 9.072e-6
-1.043, 1.519e-5
-1.044, 2.161e-5
-1.045, 2.792e-5
-1.046, 3.530e-5
-1.047, 4.169e-5
-1.048, 4.664e-5
-1.049, 5.204e-5
-1.050, 5.784e-5
-1.051, 6.379e-5
-1.052, 6.933e-5
-1.053, 7.325e-5
-1.054, 7.748e-5
-1.055, 8.300e-5
-1.056, 8.818e-5
-1.057, 9.296e-5
-1.058, 9.665e-5
-1.059, 1.000e-4
-1.060, 1.048e-4
-1.061, 1.094e-4
-1.062, 1.139e-4
-1.063, 1.172e-4
-1.064, 1.205e-4
-1.065, 1.241e-4
-1.066, 1.289e-4
-1.067, 1.322e-4
-1.068, 1.347e-4
-1.069, 1.375e-4
-1.070, 1.412e-4
-1.071, 1.452e-4
-1.072, 1.487e-4
-1.073, 1.513e-4
-1.074, 1.538e-4
-1.075, 1.577e-4
-1.076, 1.616e-4
-1.077, 1.645e-4
-1.078, 1.668e-4
-1.079, 1.694e-4
-1.080, 1.721e-4
-1.081, 1.759e-4
-1.082, 1.788e-4
-1.083, 1.809e-4
-1.084, 1.838e-4
-1.085, 1.864e-4
-1.086, 1.898e-4
-1.087, 1.931e-4
-1.088, 1.948e-4
-1.089, 1.972e-4
-1.090, 2.002e-4
-1.091, 2.036e-4
-1.092, 2.068e-4
-1.093, 2.086e-4
-1.094, 2.118e-4
-1.095, 2.151e-4
-1.096, 2.179e-4
-1.097, 2.205e-4
-1.098, 2.220e-4
-1.099, 2.244e-4
-1.100, 2.281e-4
-1.101, 2.318e-4
-1.102, 2.348e-4
-1.103, 2.375e-4
-1.104, 2.395e-4
-1.105, 2.424e-4
-1.106, 2.457e-4
-1.107, 2.483e-4
-1.108, 2.513e-4
-1.109, 2.531e-4
-1.110, 2.572e-4
-1.111, 2.613e-4
-1.112, 2.637e-4
-1.113, 2.657e-4
-1.114, 2.681e-4
-1.115, 2.711e-4
-1.116, 2.763e-4
-1.117, 2.801e-4
-1.118, 2.823e-4
-1.119, 2.846e-4
-1.120, 2.879e-4
-1.121, 2.919e-4
-1.122, 2.956e-4
-1.123, 2.981e-4
-1.124, 3.004e-4
-1.125, 3.042e-4
-1.126, 3.087e-4
-1.127, 3.133e-4
-1.128, 3.155e-4
-1.129, 3.193e-4
-1.130, 3.234e-4
-1.131, 3.271e-4
-1.132, 3.310e-4
-1.133, 3.341e-4
-1.134, 3.378e-4
-1.135, 3.419e-4
-1.136, 3.465e-4
-1.137, 3.511e-4
-1.138, 3.543e-4
-1.139, 3.583e-4
-1.140, 3.621e-4
-1.141, 3.665e-4
-1.142, 3.707e-4
-1.143, 3.747e-4
-1.144, 3.783e-4
-1.145, 3.833e-4
-1.146, 3.888e-4
-1.147, 3.936e-4
-1.148, 3.980e-4
-1.149, 4.023e-4
-1.150, 4.065e-4
-1.151, 4.125e-4
-1.152, 4.176e-4
-1.153, 4.211e-4
-1.154, 4.255e-4
-1.155, 4.316e-4
-1.156, 4.392e-4
-1.157, 4.446e-4
-1.158, 4.486e-4
-1.159, 4.528e-4
-1.160, 4.579e-4
-1.161, 4.622e-4
-1.162, 4.673e-4
-1.163, 4.725e-4
-1.164, 4.786e-4
-1.165, 4.850e-4
-1.166, 4.913e-4
-1.167, 4.981e-4
-1.168, 5.028e-4
-1.169, 5.087e-4
-1.170, 5.139e-4
-1.171, 5.196e-4
-1.172, 5.256e-4
-1.173, 5.306e-4
-1.174, 5.363e-4
-1.175, 5.437e-4
-1.176, 5.507e-4
-1.177, 5.576e-4
-1.178, 5.641e-4
-1.179, 5.696e-4
-1.180, 5.759e-4
-1.181, 5.821e-4
-1.182, 5.877e-4
-1.183, 5.942e-4
-1.184, 6.007e-4
-1.185, 6.072e-4
-1.186, 6.143e-4
-1.187, 6.213e-4
-1.188, 6.275e-4
-1.189, 6.341e-4
-1.190, 6.420e-4
-1.191, 6.499e-4
-1.192, 6.571e-4
-1.193, 6.608e-4
-1.194, 6.660e-4
-1.195, 6.757e-4
-1.196, 6.839e-4
-1.197, 6.895e-4
-1.198, 6.958e-4
-1.199, 7.011e-4
-1.200, 7.077e-4
-1.201, 7.158e-4
-1.202, 7.239e-4
-1.203, 7.294e-4
-1.204, 7.367e-4
-1.205, 7.432e-4
-1.206, 7.503e-4
-1.207, 7.578e-4
-1.208, 7.660e-4
-1.209, 7.732e-4
-1.210, 7.757e-4
-1.211, 7.830e-4
-1.212, 7.904e-4
-1.213, 7.957e-4
-1.214, 8.023e-4
-1.215, 8.097e-4
-1.216, 8.146e-4
-1.217, 8.190e-4
-1.218, 8.240e-4
-1.219, 8.291e-4
-1.220, 8.356e-4
-1.221, 8.421e-4
-1.222, 8.467e-4
-1.223, 8.515e-4
-1.224, 8.558e-4
-1.225, 8.603e-4
-1.226, 8.655e-4
-1.227, 8.691e-4
-1.228, 8.719e-4
-1.229, 8.753e-4
-1.230, 8.788e-4
-1.231, 8.828e-4
-1.232, 8.855e-4
-1.233, 8.866e-4
-1.234, 8.890e-4
-1.235, 8.901e-4
-1.236, 8.915e-4
-1.237, 8.927e-4
-1.238, 8.936e-4
-1.239, 8.935e-4
-1.240, 8.944e-4
-1.241, 8.944e-4
-1.242, 8.937e-4
-1.243, 8.914e-4
-1.244, 8.896e-4
-1.245, 8.882e-4
-1.246, 8.875e-4
-1.247, 8.846e-4
-1.248, 8.785e-4
-1.249, 8.738e-4
-1.250, 8.699e-4
-1.251, 8.665e-4
-1.252, 8.619e-4
-1.253, 8.547e-4
-1.254, 8.478e-4
-1.255, 8.420e-4
-1.256, 8.357e-4
-1.257, 8.285e-4
-1.258, 8.188e-4
-1.259, 8.096e-4
-1.260, 8.023e-4
-1.261, 7.958e-4
-1.262, 7.851e-4
-1.263, 7.753e-4
-1.264, 7.666e-4
-1.265, 7.554e-4
-1.266, 7.442e-4
-1.267, 7.330e-4
-1.268, 7.204e-4
-1.269, 7.070e-4
-1.270, 6.963e-4
-1.271, 6.867e-4
-1.272, 6.737e-4
-1.273, 6.609e-4
-1.274, 6.471e-4
-1.275, 6.346e-4
-1.276, 6.238e-4
-1.277, 6.109e-4
-1.278, 5.977e-4
-1.279, 5.852e-4
-1.280, 5.756e-4
-1.281, 5.654e-4
-1.282, 5.526e-4
-1.283, 5.408e-4
-1.284, 5.297e-4
-1.285, 5.203e-4
-1.286, 5.143e-4
-1.287, 5.066e-4
-1.288, 4.974e-4
-1.289, 4.909e-4
-1.290, 4.841e-4
-1.291, 4.803e-4
-1.292, 4.763e-4
-1.293, 4.704e-4
-1.294, 4.671e-4
-1.295, 4.652e-4
-1.296, 4.645e-4
-1.297, 4.652e-4
-1.298, 4.655e-4
-1.299, 4.654e-4
-1.300, 4.674e-4
-1.301, 4.698e-4
-1.302, 4.727e-4
-1.303, 4.762e-4
-1.304, 4.810e-4
-1.305, 4.862e-4
-1.306, 4.927e-4
-1.307, 4.989e-4
-1.308, 5.051e-4
-1.309, 5.116e-4
-1.310, 5.202e-4
-1.311, 5.285e-4
-1.312, 5.365e-4
-1.313, 5.448e-4
-1.314, 5.537e-4
-1.315, 5.636e-4
-1.316, 5.759e-4
-1.317, 5.861e-4
-1.318, 5.970e-4
-1.319, 6.093e-4
-1.320, 6.210e-4
-1.321, 6.328e-4
-1.322, 6.449e-4
-1.323, 6.576e-4
-1.324, 6.710e-4
-1.325, 6.839e-4
-1.326, 6.987e-4
-1.327, 7.128e-4
-1.328, 7.277e-4
-1.329, 7.430e-4
-1.330, 7.581e-4
-1.331, 7.746e-4
-1.332, 7.909e-4
-1.333, 8.061e-4
-1.334, 8.214e-4
-1.335, 8.402e-4
-1.336, 8.582e-4
-1.337, 8.755e-4
-1.338, 8.922e-4
-1.339, 9.114e-4
-1.340, 9.311e-4
-1.341, 9.511e-4
-1.342, 9.715e-4
-1.343, 9.912e-4
-1.344, 1.011e-3
-1.345, 1.033e-3
-1.346, 1.056e-3
-1.347, 1.076e-3
-1.348, 1.097e-3
-1.349, 1.118e-3
-1.350, 1.143e-3
-1.351, 1.168e-3
-1.352, 1.191e-3
-1.353, 1.215e-3
-1.354, 1.240e-3
-1.355, 1.266e-3
-1.356, 1.292e-3
-1.357, 1.318e-3
-1.358, 1.343e-3
-1.359, 1.368e-3
-1.360, 1.394e-3
-1.361, 1.425e-3
-1.362, 1.460e-3
-1.363, 1.481e-3
-1.364, 1.506e-3
-1.365, 1.537e-3
-1.366, 1.571e-3
-1.367, 1.601e-3
-1.368, 1.633e-3
-1.369, 1.664e-3
-1.370, 1.691e-3
-1.371, 1.718e-3
-1.372, 1.746e-3
-1.373, 1.783e-3
-1.374, 1.819e-3
-1.375, 1.853e-3
-1.376, 1.886e-3
-1.377, 1.926e-3
-1.378, 1.961e-3
-1.379, 1.987e-3
-1.380, 2.020e-3
-1.381, 2.060e-3
-1.382, 2.094e-3
-1.383, 2.129e-3
-1.384, 2.159e-3
-1.385, 2.199e-3
-1.386, 2.242e-3
-1.387, 2.272e-3
-1.388, 2.317e-3
-1.389, 2.364e-3
-1.390, 2.411e-3
-1.391, 2.449e-3
-1.392, 2.483e-3
-1.393, 2.517e-3
-1.394, 2.556e-3
-1.395, 2.602e-3
-1.396, 2.649e-3
-1.397, 2.686e-3
-1.398, 2.726e-3
-1.399, 2.768e-3
-1.400, 2.729e-3
-1.399, 2.661e-3
-1.398, 2.614e-3
-1.397, 2.568e-3
-1.396, 2.519e-3
-1.395, 2.474e-3
-1.394, 2.432e-3
-1.393, 2.393e-3
-1.392, 2.358e-3
-1.391, 2.320e-3
-1.390, 2.287e-3
-1.389, 2.253e-3
-1.388, 2.215e-3
-1.387, 2.174e-3
-1.386, 2.133e-3
-1.385, 2.093e-3
-1.384, 2.059e-3
-1.383, 2.025e-3
-1.382, 1.987e-3
-1.381, 1.955e-3
-1.380, 1.924e-3
-1.379, 1.895e-3
-1.378, 1.862e-3
-1.377, 1.827e-3
-1.376, 1.794e-3
-1.375, 1.761e-3
-1.374, 1.732e-3
-1.373, 1.698e-3
-1.372, 1.666e-3
-1.371, 1.638e-3
-1.370, 1.608e-3
-1.369, 1.576e-3
-1.368, 1.546e-3
-1.367, 1.516e-3
-1.366, 1.482e-3
-1.365, 1.453e-3
-1.364, 1.429e-3
-1.363, 1.398e-3
-1.362, 1.372e-3
-1.361, 1.346e-3
-1.360, 1.319e-3
-1.359, 1.295e-3
-1.358, 1.267e-3
-1.357, 1.238e-3
-1.356, 1.213e-3
-1.355, 1.188e-3
-1.354, 1.162e-3
-1.353, 1.140e-3
-1.352, 1.120e-3
-1.351, 1.093e-3
-1.350, 1.064e-3
-1.349, 1.048e-3
-1.348, 1.023e-3
-1.347, 1.001e-3
-1.346, 9.773e-4
-1.345, 9.556e-4
-1.344, 9.345e-4
-1.343, 9.105e-4
-1.342, 8.912e-4
-1.341, 8.692e-4
-1.340, 8.478e-4
-1.339, 8.294e-4
-1.338, 8.113e-4
-1.337, 7.900e-4
-1.336, 7.681e-4
-1.335, 7.482e-4
-1.334, 7.309e-4
-1.333, 7.139e-4
-1.332, 6.946e-4
-1.331, 6.759e-4
-1.330, 6.591e-4
-1.329, 6.431e-4
-1.328, 6.266e-4
-1.327, 6.090e-4
-1.326, 5.956e-4
-1.325, 5.811e-4
-1.324, 5.622e-4
-1.323, 5.460e-4
-1.322, 5.315e-4
-1.321, 5.161e-4
-1.320, 5.016e-4
-1.319, 4.878e-4
-1.318, 4.740e-4
-1.317, 4.588e-4
-1.316, 4.444e-4
-1.315, 4.316e-4
-1.314, 4.199e-4
-1.313, 4.059e-4
-1.312, 3.923e-4
-1.311, 3.798e-4
-1.310, 3.680e-4
-1.309, 3.574e-4
-1.308, 3.448e-4
-1.307, 3.325e-4
-1.306, 3.215e-4
-1.305, 3.102e-4
-1.304, 2.999e-4
-1.303, 2.894e-4
-1.302, 2.778e-4
-1.301, 2.673e-4
-1.300, 2.576e-4
-1.299, 2.486e-4
-1.298, 2.392e-4
-1.297, 2.299e-4
-1.296, 2.197e-4
-1.295, 2.102e-4
-1.294, 2.017e-4
-1.293, 1.938e-4
-1.292, 1.840e-4
-1.291, 1.751e-4
-1.290, 1.678e-4
-1.289, 1.602e-4
-1.288, 1.528e-4
-1.287, 1.444e-4
-1.286, 1.360e-4
-1.285, 1.293e-4
-1.284, 1.226e-4
-1.283, 1.159e-4
-1.282, 1.088e-4
-1.281, 1.011e-4
-1.280, 9.399e-5
-1.279, 8.876e-5
-1.278, 8.300e-5
-1.277, 7.672e-5
-1.276, 6.961e-5
-1.275, 6.449e-5
-1.274, 5.931e-5
-1.273, 5.389e-5
-1.272, 4.838e-5
-1.271, 4.197e-5
-1.270, 3.677e-5
-1.269, 3.291e-5
-1.268, 2.824e-5
-1.267, 2.261e-5
-1.266, 1.735e-5
-1.265, 1.265e-5
-1.264, 9.577e-6
-1.263, 5.334e-6
-1.262, -6.630e-8
-1.261, -4.602e-6
-1.260, -8.426e-6
-1.259, -1.152e-5
-1.258, -1.504e-5
-1.257, -1.989e-5
-1.256, -2.374e-5
-1.255, -2.758e-5
-1.254, -3.067e-5
-1.253, -3.281e-5
-1.252, -3.680e-5
-1.251, -4.038e-5
-1.250, -4.361e-5
-1.249, -4.677e-5
-1.248, -4.868e-5
-1.247, -5.244e-5
-1.246, -5.603e-5
-1.245, -5.809e-5
-1.244, -6.037e-5
-1.243, -6.262e-5
-1.242, -6.528e-5
-1.241, -6.889e-5
-1.240, -7.111e-5
-1.239, -7.260e-5
-1.238, -7.505e-5
-1.237, -7.720e-5
-1.236, -8.017e-5
-1.235, -8.252e-5
-1.234, -8.372e-5
-1.233, -8.560e-5
-1.232, -8.771e-5
-1.231, -9.058e-5
-1.230, -9.276e-5
-1.229, -9.487e-5
-1.228, -9.529e-5
-1.227, -9.718e-5
-1.226, -9.960e-5
-1.225, -1.011e-4
-1.224, -1.013e-4
-1.223, -1.026e-4
-1.222, -1.050e-4
-1.221, -1.069e-4
-1.220, -1.085e-4
-1.219, -1.090e-4
-1.218, -1.099e-4
-1.217, -1.122e-4
-1.216, -1.149e-4
-1.215, -1.149e-4
-1.214, -1.156e-4
-1.213, -1.165e-4
-1.212, -1.189e-4
-1.211, -1.204e-4
-1.210, -1.210e-4
-1.209, -1.213e-4
-1.208, -1.213e-4
-1.207, -1.232e-4
-1.206, -1.253e-4
-1.205, -1.257e-4
-1.204, -1.266e-4
-1.203, -1.273e-4
-1.202, -1.284e-4
-1.201, -1.301e-4
-1.200, -1.303e-4
-1.199, -1.303e-4
-1.198, -1.310e-4
-1.197, -1.323e-4
-1.196, -1.346e-4
-1.195, -1.353e-4
-1.194, -1.355e-4
-1.193, -1.357e-4
-1.192, -1.359e-4
-1.191, -1.375e-4
-1.190, -1.394e-4
-1.189, -1.389e-4
-1.188, -1.387e-4
-1.187, -1.398e-4
-1.186, -1.409e-4
-1.185, -1.421e-4
-1.184, -1.414e-4
-1.183, -1.420e-4
-1.182, -1.431e-4
-1.181, -1.444e-4
-1.180, -1.454e-4
-1.179, -1.450e-4
-1.178, -1.457e-4
-1.177, -1.471e-4
-1.176, -1.479e-4
-1.175, -1.487e-4
-1.174, -1.483e-4
-1.173, -1.480e-4
-1.172, -1.497e-4
-1.171, -1.508e-4
-1.170, -1.511e-4
-1.169, -1.512e-4
-1.168, -1.511e-4
-1.167, -1.526e-4
-1.166, -1.538e-4
-1.165, -1.539e-4
-1.164, -1.541e-4
-1.163, -1.541e-4
-1.162, -1.552e-4
-1.161, -1.567e-4
-1.160, -1.568e-4
-1.159, -1.569e-4
-1.158, -1.574e-4
-1.157, -1.578e-4
-1.156, -1.593e-4
-1.155, -1.597e-4
-1.154, -1.592e-4
-1.153, -1.598e-4
-1.152, -1.609e-4
-1.151, -1.624e-4
-1.150, -1.634e-4
-1.149, -1.630e-4
-1.148, -1.632e-4
-1.147, -1.641e-4
-1.146, -1.650e-4
-1.145, -1.666e-4
-1.144, -1.656e-4
-1.143, -1.658e-4
-1.142, -1.670e-4
-1.141, -1.681e-4
-1.140, -1.691e-4
-1.139, -1.695e-4
-1.138, -1.696e-4
-1.137, -1.704e-4
-1.136, -1.718e-4
-1.135, -1.728e-4
-1.134, -1.723e-4
-1.133, -1.722e-4
-1.132, -1.739e-4
-1.131, -1.756e-4
-1.130, -1.764e-4
-1.129, -1.769e-4
-1.128, -1.775e-4
-1.127, -1.789e-4
-1.126, -1.809e-4
-1.125, -1.817e-4
-1.124, -1.827e-4
-1.123, -1.834e-4
-1.122, -1.855e-4
-1.121, -1.880e-4
-1.120, -1.892e-4
-1.119, -1.910e-4
-1.118, -1.934e-4
-1.117, -1.956e-4
-1.116, -1.998e-4
-1.115, -2.029e-4
-1.114, -2.064e-4
-1.113, -2.098e-4
-1.112, -2.145e-4
-1.111, -2.208e-4
-1.110, -2.267e-4
-1.109, -2.318e-4
-1.108, -2.382e-4
-1.107, -2.463e-4
-1.106, -2.550e-4
-1.105, -2.643e-4
-1.104, -2.724e-4
-1.103, -2.816e-4
-1.102, -2.926e-4
-1.101, -3.031e-4
-1.100, -3.154e-4
-1.099, -3.262e-4
-1.098, -3.369e-4
-1.097, -3.499e-4
-1.096, -3.629e-4
-1.095, -3.765e-4
-1.094, -3.890e-4
-1.093, -4.019e-4
-1.092, -4.172e-4
-1.091, -4.296e-4
-1.090, -4.446e-4
-1.089, -4.590e-4
-1.088, -4.713e-4
-1.087, -4.858e-4
-1.086, -5.008e-4
-1.085, -5.154e-4
-1.084, -5.310e-4
-1.083, -5.462e-4
-1.082, -5.609e-4
-1.081, -5.758e-4
-1.080, -5.905e-4
-1.079, -6.039e-4
-1.078, -6.175e-4
-1.077, -6.316e-4
-1.076, -6.464e-4
-1.075, -6.589e-4
-1.074, -6.705e-4
-1.073, -6.816e-4
-1.072, -6.915e-4
-1.071, -7.022e-4
-1.070, -7.121e-4
-1.069, -7.198e-4
-1.068, -7.278e-4
-1.067, -7.361e-4
-1.066, -7.448e-4
-1.065, -7.524e-4
-1.064, -7.579e-4
-1.063, -7.634e-4
-1.062, -7.692e-4
-1.061, -7.750e-4
-1.060, -7.816e-4
-1.059, -7.866e-4
-1.058, -7.914e-4
-1.057, -7.974e-4
-1.056, -8.035e-4
-1.055, -8.084e-4
-1.054, -8.120e-4
-1.053, -8.175e-4
-1.052, -8.237e-4
-1.051, -8.287e-4
-1.050, -8.334e-4
-1.049, -8.384e-4
-1.048, -8.434e-4
-1.047, -8.489e-4
-1.046, -8.545e-4
-1.045, -8.587e-4
-1.044, -8.612e-4
-1.043, -8.638e-4
-1.042, -8.697e-4
-1.041, -8.751e-4
-1.040, -8.787e-4
-1.039, -8.819e-4
-1.038, -8.858e-4
-1.037, -8.909e-4
-1.036, -8.978e-4
-1.035, -9.013e-4
-1.034, -9.047e-4
-1.033, -9.087e-4
-1.032, -9.114e-4
-1.031, -9.139e-4
-1.030, -9.184e-4
-1.029, -9.231e-4
-1.028, -9.284e-4
-1.027, -9.328e-4
-1.026, -9.370e-4
-1.025, -9.385e-4
-1.024, -9.410e-4
-1.023, -9.456e-4
-1.022, -9.502e-4
-1.021, -9.537e-4
-1.020, -9.568e-4
-1.019, -9.615e-4
-1.018, -9.690e-4
-1.017, -9.724e-4
-1.016, -9.739e-4
-1.015, -9.752e-4
-1.014, -9.788e-4
-1.013, -9.811e-4
-1.012, -9.855e-4
-1.011, -9.907e-4
-1.010, -9.955e-4
-1.009, -1.001e-3
-1.008, -1.003e-3
-1.007, -1.011e-3
-1.006, -1.013e-3
-1.005, -1.009e-3
-1.004, -1.010e-3
-1.003, -1.016e-3
-1.002, -1.020e-3
-1.001, -1.026e-3
-1.000, -9.508e-4
-1.001, -8.442e-4
-1.002, -7.765e-4
-1.003, -7.218e-4
-1.004, -6.729e-4
-1.005, -6.271e-4
-1.006, -5.850e-4
-1.007, -5.460e-4
-1.008, -5.126e-4
-1.009, -4.795e-4
-1.010, -4.469e-4
-1.011, -4.173e-4
-1.012, -3.889e-4
-1.013, -3.638e-4
-1.014, -3.401e-4
-1.015, -3.170e-4
-1.016, -2.947e-4
-1.017, -2.731e-4
-1.018, -2.537e-4
-1.019, -2.356e-4
-1.020, -2.179e-4
-1.021, -2.008e-4
-1.022, -1.836e-4
-1.023, -1.686e-4
-1.024, -1.544e-4
-1.025, -1.406e-4
-1.026, -1.266e-4
-1.027, -1.134e-4
-1.028, -1.014e-4
-1.029, -9.091e-5
-1.030, -7.980e-5
-1.031, -6.826e-5
-1.032, -5.768e-5
-1.033, -4.816e-5
-1.034, -3.966e-5
-1.035, -3.085e-5
-1.036, -2.145e-5
-1.037, -1.254e-5
-1.038, -4.883e-6
-1.039, 2.007e-6
-1.040, 8.712e-6
-1.041, 1.671e-5
-1.042, 2.413e-5
-1.043, 3.043e-5
-1.044, 3.596e-5
-1.045, 4.159e-5
-1.046, 4.817e-5
-1.047, 5.463e-5
-1.048, 5.950e-5
-1.049, 6.441e-5
-1.050, 6.938e-5
-1.051, 7.476e-5
-1.052, 8.033e-5
-1.053, 8.408e-5
-1.054, 8.778e-5
-1.055, 9.230e-5
-1.056, 9.663e-5
-1.057, 1.018e-4
-1.058, 1.061e-4
-1.059, 1.087e-4
-1.060, 1.125e-4
-1.061, 1.165e-4
-1.062, 1.209e-4
-1.063, 1.240e-4
-1.064, 1.262e-4
-1.065, 1.298e-4
-1.066, 1.332e-4
-1.067, 1.370e-4
-1.068, 1.412e-4
-1.069, 1.428e-4
-1.070, 1.455e-4
-1.071, 1.491e-4
-1.072, 1.522e-4
-1.073, 1.550e-4
-1.074, 1.575e-4
-1.075, 1.604e-4
-1.076, 1.639e-4
-1.077, 1.674e-4
-1.078, 1.699e-4
-1.079, 1.718e-4
-1.080, 1.740e-4
-1.081, 1.768e-4
-1.082, 1.804e-4
-1.083, 1.828e-4
-1.084, 1.844e-4
-1.085, 1.863e-4
-1.086, 1.898e-4
-1.087, 1.931e-4
-1.088, 1.953e-4
-1.089, 1.974e-4
-1.090, 1.998e-4
-1.091, 2.024e-4
-1.092, 2.061e-4
-1.093, 2.083e-4
-1.094, 2.098e-4
-1.095, 2.121e-4
-1.096, 2.151e-4
-1.097, 2.187e-4
-1.098, 2.209e-4
-1.099, 2.232e-4
-1.100, 2.255e-4
-1.101, 2.283e-4
-1.102, 2.313e-4
-1.103, 2.337e-4
-1.104, 2.354e-4
-1.105, 2.378e-4
-1.106, 2.412e-4
-1.107, 2.449e-4
-1.108, 2.476e-4
-1.109, 2.491e-4
-1.110, 2.521e-4
-1.111, 2.552e-4
-1.112, 2.584e-4
-1.113, 2.616e-4
-1.114, 2.637e-4
-1.115, 2.667e-4
-1.116, 2.702e-4
-1.117, 2.735e-4
-1.118, 2.766e-4
-1.119, 2.789e-4
-1.120, 2.811e-4
-1.121, 2.843e-4
-1.122, 2.881e-4
-1.123, 2.906e-4
-1.124, 2.938e-4
-1.125, 2.975e-4
-1.126, 3.025e-4
-1.127, 3.067e-4
-1.128, 3.087e-4
-1.129, 3.109e-4
-1.130, 3.132e-4
-1.131, 3.164e-4
-1.132, 3.217e-4
-1.133, 3.249e-4
-1.134, 3.280e-4
-1.135, 3.319e-4
-1.136, 3.361e-4
-1.137, 3.415e-4
-1.138, 3.459e-4
-1.139, 3.478e-4
-1.140, 3.504e-4
-1.141, 3.536e-4
-1.142, 3.589e-4
-1.143, 3.631e-4
-1.144, 3.671e-4
-1.145, 3.705e-4
-1.146, 3.751e-4
-1.147, 3.800e-4
-1.148, 3.848e-4
-1.149, 3.878e-4
-1.150, 3.915e-4
-1.151, 3.967e-4
-1.152, 4.019e-4
-1.153, 4.064e-4
-1.154, 4.099e-4
-1.155, 4.143e-4
-1.156, 4.205e-4
-1.157, 4.254e-4
-1.158, 4.301e-4
-1.159, 4.333e-4
-1.160, 4.373e-4
-1.161, 4.431e-4
-1.162, 4.487e-4
-1.163, 4.537e-4
-1.164, 4.583e-4
-1.165, 4.622e-4
-1.166, 4.679e-4
-1.167, 4.735e-4
-1.168, 4.793e-4
-1.169, 4.842e-4
-1.170, 4.903e-4
-1.171, 4.967e-4
-1.172, 5.020e-4
-1.173, 5.036e-4
-1.174, 5.083e-4
-1.175, 5.143e-4
-1.176, 5.208e-4
-1.177, 5.292e-4
-1.178, 5.347e-4
-1.179, 5.388e-4
-1.180, 5.435e-4
-1.181, 5.491e-4
-1.182, 5.554e-4
-1.183, 5.604e-4
-1.184, 5.651e-4
-1.185, 5.710e-4
-1.186, 5.778e-4
-1.187, 5.817e-4
-1.188, 5.894e-4
-1.189, 5.943e-4
-1.190, 6.027e-4
-1.191, 6.103e-4
-1.192, 6.129e-4
-1.193, 6.180e-4
-1.194, 6.227e-4
-1.195, 6.261e-4
-1.196, 6.344e-4
-1.197, 6.396e-4
-1.198, 6.455e-4
-1.199, 6.526e-4
-1.200, 6.579e-4
-1.201, 6.639e-4
-1.202, 6.697e-4
-1.203, 6.745e-4
-1.204, 6.801e-4
-1.205, 6.846e-4
-1.206, 6.885e-4
-1.207, 6.954e-4
-1.208, 7.009e-4
-1.209, 7.052e-4
-1.210, 7.107e-4
-1.211, 7.163e-4
-1.212, 7.215e-4
-1.213, 7.267e-4
-1.214, 7.317e-4
-1.215, 7.361e-4
-1.216, 7.392e-4
-1.217, 7.440e-4
-1.218, 7.482e-4
-1.219, 7.513e-4
-1.220, 7.541e-4
-1.221, 7.577e-4
-1.222, 7.628e-4
-1.223, 7.690e-4
-1.224, 7.697e-4
-1.225, 7.716e-4
-1.226, 7.755e-4
-1.227, 7.779e-4
-1.228, 7.809e-4
-1.229, 7.835e-4
-1.230, 7.832e-4
-1.231, 7.859e-4
-1.232, 7.874e-4
-1.233, 7.883e-4
-1.234, 7.881e-4
-1.235, 7.873e-4
-1.236, 7.873e-4
-1.237, 7.874e-4
-1.238, 7.871e-4
-1.239, 7.860e-4
-1.240, 7.842e-4
-1.241, 7.827e-4
-1.242, 7.817e-4
-1.243, 7.791e-4
-1.244, 7.758e-4
-1.245, 7.727e-4
-1.246, 7.688e-4
-1.247, 7.665e-4
-1.248, 7.622e-4
-1.249, 7.571e-4
-1.250, 7.516e-4
-1.251, 7.472e-4
-1.252, 7.423e-4
-1.253, 7.357e-4
-1.254, 7.284e-4
-1.255, 7.213e-4
-1.256, 7.143e-4
-1.257, 7.070e-4
-1.258, 6.993e-4
-1.259, 6.900e-4
-1.260, 6.817e-4
-1.261, 6.732e-4
-1.262, 6.663e-4
-1.263, 6.581e-4
-1.264, 6.442e-4
-1.265, 6.324e-4
-1.266, 6.239e-4
-1.267, 6.138e-4
-1.268, 6.034e-4
-1.269, 5.916e-4
-1.270, 5.806e-4
-1.271, 5.716e-4
-1.272, 5.627e-4
-1.273, 5.519e-4
-1.274, 5.398e-4
-1.275, 5.285e-4
-1.276, 5.188e-4
-1.277, 5.080e-4
-1.278, 4.982e-4
-1.279, 4.891e-4
-1.280, 4.816e-4
-1.281, 4.735e-4
-1.282, 4.654e-4
-1.283, 4.556e-4
-1.284, 4.482e-4
-1.285, 4.422e-4
-1.286, 4.372e-4
-1.287, 4.331e-4
-1.288, 4.287e-4
-1.289, 4.246e-4
-1.290, 4.217e-4
-1.291, 4.187e-4
-1.292, 4.170e-4
-1.293, 4.164e-4
-1.294, 4.155e-4
-1.295, 4.161e-4
-1.296, 4.188e-4
-1.297, 4.219e-4
-1.298, 4.242e-4
-1.299, 4.263e-4
-1.300, 4.291e-4
-1.301, 4.329e-4
-1.302, 4.373e-4
-1.303, 4.432e-4
-1.304, 4.474e-4
-1.305, 4.538e-4
-1.306, 4.609e-4
-1.307, 4.685e-4
-1.308, 4.782e-4
-1.309, 4.848e-4
-1.310, 4.925e-4
-1.311, 5.011e-4
-1.312, 5.096e-4
-1.313, 5.191e-4
-1.314, 5.280e-4
-1.315, 5.363e-4
-1.316, 5.463e-4
-1.317, 5.579e-4
-1.318, 5.699e-4
-1.319, 5.817e-4
-1.320, 5.919e-4
-1.321, 6.042e-4
-1.322, 6.154e-4
-1.323, 6.282e-4
-1.324, 6.400e-4
-1.325, 6.527e-4
-1.326, 6.668e-4
-1.327, 6.818e-4
-1.328, 6.967e-4
-1.329, 7.096e-4
-1.330, 7.247e-4
-1.331, 7.415e-4
-1.332, 7.580e-4
-1.333, 7.714e-4
-1.334, 7.864e-4
-1.335, 8.025e-4
-1.336, 8.176e-4
-1.337, 8.359e-4
-1.338, 8.533e-4
-1.339, 8.704e-4
-1.340, 8.894e-4
-1.341, 9.092e-4
-1.342, 9.284e-4
-1.343, 9.496e-4
-1.344, 9.666e-4
-1.345, 9.838e-4
-1.346, 1.004e-3
-1.347, 1.028e-3
-1.348, 1.050e-3
-1.349, 1.070e-3
-1.350, 1.088e-3
-1.351, 1.113e-3
-1.352, 1.138e-3
-1.353, 1.159e-3
-1.354, 1.180e-3
-1.355, 1.204e-3
-1.356, 1.231e-3
-1.357, 1.255e-3
-1.358, 1.283e-3
-1.359, 1.306e-3
-1.360, 1.332e-3
-1.361, 1.356e-3
-1.362, 1.385e-3
-1.363, 1.411e-3
-1.364, 1.440e-3
-1.365, 1.467e-3
-1.366, 1.498e-3
-1.367, 1.527e-3
-1.368, 1.558e-3
-1.369, 1.587e-3
-1.370, 1.611e-3
-1.371, 1.640e-3
-1.372, 1.669e-3
-1.373, 1.701e-3
-1.374, 1.731e-3
-1.375, 1.763e-3
-1.376, 1.795e-3
-1.377, 1.827e-3
-1.378, 1.860e-3
-1.379, 1.892e-3
-1.380, 1.925e-3
-1.381, 1.960e-3
-1.382, 2.004e-3
-1.383, 2.030e-3
-1.384, 2.060e-3
-1.385, 2.098e-3
-1.386, 2.132e-3
-1.387, 2.171e-3
-1.388, 2.211e-3
-1.389, 2.241e-3
-1.390, 2.286e-3
-1.391, 2.324e-3
-1.392, 2.362e-3
-1.393, 2.405e-3
-1.394, 2.441e-3
-1.395, 2.474e-3
-1.396, 2.515e-3
-1.397, 2.544e-3
-1.398, 2.584e-3
-1.399, 2.629e-3
-1.400, 2.601e-3
-1.399, 2.529e-3
-1.398, 2.490e-3
-1.397, 2.439e-3
-1.396, 2.392e-3
-1.395, 2.353e-3
-1.394, 2.311e-3
-1.393, 2.271e-3
-1.392, 2.237e-3
-1.391, 2.206e-3
-1.390, 2.168e-3
-1.389, 2.129e-3
-1.388, 2.097e-3
-1.387, 2.064e-3
-1.386, 2.024e-3
-1.385, 1.986e-3
-1.384, 1.949e-3
-1.383, 1.921e-3
-1.382, 1.888e-3
-1.381, 1.854e-3
-1.380, 1.822e-3
-1.379, 1.794e-3
-1.378, 1.758e-3
-1.377, 1.728e-3
-1.376, 1.695e-3
-1.375, 1.660e-3
-1.374, 1.628e-3
-1.373, 1.601e-3
-1.372, 1.573e-3
-1.371, 1.542e-3
-1.370, 1.514e-3
-1.369, 1.488e-3
-1.368, 1.460e-3
-1.367, 1.432e-3
-1.366, 1.398e-3
-1.365, 1.373e-3
-1.364, 1.345e-3
-1.363, 1.321e-3
-1.362, 1.295e-3
-1.361, 1.270e-3
-1.360, 1.247e-3
-1.359, 1.217e-3
-1.358, 1.192e-3
-1.357, 1.168e-3
-1.356, 1.142e-3
-1.355, 1.116e-3
-1.354, 1.090e-3
-1.353, 1.066e-3
-1.352, 1.043e-3
-1.351, 1.026e-3
-1.350, 1.001e-3
-1.349, 9.796e-4
-1.348, 9.576e-4
-1.347, 9.335e-4
-1.346, 9.104e-4
-1.345, 8.890e-4
-1.344, 8.698e-4
-1.343, 8.501e-4
-1.342, 8.315e-4
-1.341, 8.121e-4
-1.340, 7.897e-4
-1.339, 7.749e-4
-1.338, 7.569e-4
-1.337, 7.373e-4
-1.336, 7.191e-4
-1.335, 6.992e-4
-1.334, 6.841e-4
-1.333, 6.678e-4
-1.332, 6.495e-4
-1.331, 6.315e-4
-1.330, 6.153e-4
-1.329, 5.987e-4
-1.328, 5.839e-4
-1.327, 5.687e-4
-1.326, 5.526e-4
-1.325, 5.371e-4
-1.324, 5.243e-4
-1.323, 5.085e-4
-1.322, 4.942e-4
-1.321, 4.795e-4
-1.320, 4.651e-4
-1.319, 4.507e-4
-1.318, 4.387e-4
-1.317, 4.263e-4
-1.316, 4.122e-4
-1.315, 3.993e-4
-1.314, 3.874e-4
-1.313, 3.752e-4
-1.312, 3.647e-4
-1.311, 3.516e-4
-1.310, 3.394e-4
-1.309, 3.290e-4
-1.308, 3.184e-4
-1.307, 3.081e-4
-1.306, 2.971e-4
-1.305, 2.849e-4
-1.304, 2.751e-4
-1.303, 2.655e-4
-1.302, 2.560e-4
-1.301, 2.460e-4
-1.300, 2.356e-4
-1.299, 2.267e-4
-1.298, 2.185e-4
-1.297, 2.120e-4
-1.296, 2.010e-4
-1.295, 1.914e-4
-1.294, 1.834e-4
-1.293, 1.767e-4
-1.292, 1.683e-4
-1.291, 1.600e-4
-1.290, 1.512e-4
-1.289, 1.433e-4
-1.288, 1.375e-4
-1.287, 1.308e-4
-1.286, 1.229e-4
-1.285, 1.156e-4
-1.284, 1.090e-4
-1.283, 1.033e-4
-1.282, 9.729e-5
-1.281, 8.989e-5
-1.280, 8.266e-5
-1.279, 7.734e-5
-1.278, 7.213e-5
-1.277, 6.704e-5
-1.276, 6.057e-5
-1.275, 5.457e-5
-1.274, 4.964e-5
-1.273, 4.472e-5
-1.272, 4.010e-5
-1.271, 3.421e-5
-1.270, 2.893e-5
-1.269, 2.462e-5
-1.268, 2.072e-5
-1.267, 1.639e-5
-1.266, 1.145e-5
-1.265, 6.320e-6
-1.264, 2.681e-6
-1.263, -8.092e-7
-1.262, -4.715e-6
-1.261, -9.079e-6
-1.260, -1.398e-5
-1.259, -1.756e-5
-1.258, -1.978e-5
-1.257, -2.343e-5
-1.256, -2.693e-5
-1.255, -3.063e-5
-1.254, -3.408e-5
-1.253, -3.644e-5
-1.252, -3.957e-5
-1.251, -4.358e-5
-1.250, -4.690e-5
-1.249, -4.993e-5
-1.248, -5.125e-5
-1.247, -5.378e-5
-1.246, -5.746e-5
-1.245, -6.027e-5
-1.244, -6.325e-5
-1.243, -6.459e-5
-1.242, -6.636e-5
-1.241, -6.956e-5
-1.240, -7.227e-5
-1.239, -7.445e-5
-1.238, -7.558e-5
-1.237, -7.741e-5
-1.236, -8.013e-5
-1.235, -8.306e-5
-1.234, -8.457e-5
-1.233, -8.609e-5
-1.232, -8.714e-5
-1.231, -8.964e-5
-1.230, -9.197e-5
-1.229, -9.452e-5
-1.228, -9.499e-5
-1.227, -9.610e-5
-1.226, -9.787e-5
-1.225, -1.003e-4
-1.224, -1.015e-4
-1.223, -1.023e-4
-1.222, -1.034e-4
-1.221, -1.048e-4
-1.220, -1.070e-4
-1.219, -1.082e-4
-1.218, -1.084e-4
-1.217, -1.098e-4
-1.216, -1.112e-4
-1.215, -1.134e-4
-1.214, -1.145e-4
-1.213, -1.146e-4
-1.212, -1.156e-4
-1.211, -1.178e-4
-1.210, -1.190e-4
-1.209, -1.199e-4
-1.208, -1.197e-4
-1.207, -1.205e-4
-1.206, -1.221e-4
-1.205, -1.238e-4
-1.204, -1.248e-4
-1.203, -1.250e-4
-1.202, -1.251e-4
-1.201, -1.268e-4
-1.200, -1.277e-4
-1.199, -1.290e-4
-1.198, -1.290e-4
-1.197, -1.286e-4
-1.196, -1.305e-4
-1.195, -1.321e-4
-1.194, -1.325e-4
-1.193, -1.327e-4
-1.192, -1.326e-4
-1.191, -1.348e-4
-1.190, -1.359e-4
-1.189, -1.363e-4
-1.188, -1.358e-4
-1.187, -1.362e-4
-1.186, -1.372e-4
-1.185, -1.387e-4
-1.184, -1.387e-4
-1.183, -1.388e-4
-1.182, -1.394e-4
-1.181, -1.402e-4
-1.180, -1.418e-4
-1.179, -1.427e-4
-1.178, -1.428e-4
-1.177, -1.426e-4
-1.176, -1.432e-4
-1.175, -1.444e-4
-1.174, -1.449e-4
-1.173, -1.446e-4
-1.172, -1.451e-4
-1.171, -1.464e-4
-1.170, -1.476e-4
-1.169, -1.484e-4
-1.168, -1.473e-4
-1.167, -1.476e-4
-1.166, -1.487e-4
-1.165, -1.496e-4
-1.164, -1.503e-4
-1.163, -1.500e-4
-1.162, -1.502e-4
-1.161, -1.519e-4
-1.160, -1.528e-4
-1.159, -1.533e-4
-1.158, -1.531e-4
-1.157, -1.526e-4
-1.156, -1.540e-4
-1.155, -1.555e-4
-1.154, -1.553e-4
-1.153, -1.552e-4
-1.152, -1.555e-4
-1.151, -1.573e-4
-1.150, -1.582e-4
-1.149, -1.583e-4
-1.148, -1.585e-4
-1.147, -1.590e-4
-1.146, -1.600e-4
-1.145, -1.618e-4
-1.144, -1.606e-4
-1.143, -1.606e-4
-1.142, -1.614e-4
-1.141, -1.624e-4
-1.140, -1.637e-4
-1.139, -1.642e-4
-1.138, -1.641e-4
-1.137, -1.648e-4
-1.136, -1.656e-4
-1.135, -1.670e-4
-1.134, -1.677e-4
-1.133, -1.676e-4
-1.132, -1.681e-4
-1.131, -1.701e-4
-1.130, -1.713e-4
-1.129, -1.720e-4
-1.128, -1.720e-4
-1.127, -1.729e-4
-1.126, -1.744e-4
-1.125, -1.756e-4
-1.124, -1.767e-4
-1.123, -1.774e-4
-1.122, -1.786e-4
-1.121, -1.810e-4
-1.120, -1.832e-4
-1.119, -1.856e-4
-1.118, -1.868e-4
-1.117, -1.886e-4
-1.116, -1.919e-4
-1.115, -1.952e-4
-1.114, -1.983e-4
-1.113, -2.013e-4
-1.112, -2.053e-4
-1.111, -2.106e-4
-1.110, -2.165e-4
-1.109, -2.212e-4
-1.108, -2.272e-4
-1.107, -2.328e-4
-1.106, -2.409e-4
-1.105, -2.500e-4
-1.104, -2.573e-4
-1.103, -2.658e-4
-1.102, -2.753e-4
-1.101, -2.870e-4
-1.100, -2.975e-4
-1.099, -3.079e-4
-1.098, -3.186e-4
-1.097, -3.315e-4
-1.096, -3.441e-4
-1.095, -3.571e-4
-1.094, -3.686e-4
-1.093, -3.797e-4
-1.092, -3.928e-4
-1.091, -4.075e-4
-1.090, -4.211e-4
-1.089, -4.346e-4
-1.088, -4.472e-4
-1.087, -4.608e-4
-1.086, -4.757e-4
-1.085, -4.905e-4
-1.084, -5.047e-4
-1.083, -5.178e-4
-1.082, -5.315e-4
-1.081, -5.459e-4
-1.080, -5.604e-4
-1.079, -5.746e-4
-1.078, -5.865e-4
-1.077, -5.989e-4
-1.076, -6.127e-4
-1.075, -6.263e-4
-1.074, -6.378e-4
-1.073, -6.478e-4
-1.072, -6.579e-4
-1.071, -6.674e-4
-1.070, -6.768e-4
-1.069, -6.846e-4
-1.068, -6.918e-4
-1.067, -6.989e-4
-1.066, -7.063e-4
-1.065, -7.136e-4
-1.064, -7.193e-4
-1.063, -7.261e-4
-1.062, -7.315e-4
-1.061, -7.363e-4
-1.060, -7.422e-4
-1.059, -7.475e-4
-1.058, -7.502e-4
-1.057, -7.546e-4
-1.056, -7.606e-4
-1.055, -7.665e-4
-1.054, -7.712e-4
-1.053, -7.751e-4
-1.052, -7.801e-4
-1.051, -7.865e-4
-1.050, -7.902e-4
-1.049, -7.932e-4
-1.048, -7.990e-4
-1.047, -8.046e-4
-1.046, -8.079e-4
-1.045, -8.086e-4
-1.044, -8.118e-4
-1.043, -8.157e-4
-1.042, -8.202e-4
-1.041, -8.259e-4
-1.040, -8.294e-4
-1.039, -8.327e-4
-1.038, -8.384e-4
-1.037, -8.402e-4
-1.036, -8.462e-4
-1.035, -8.510e-4
-1.034, -8.562e-4
-1.033, -8.572e-4
-1.032, -8.612e-4
-1.031, -8.636e-4
-1.030, -8.690e-4
-1.029, -8.723e-4
-1.028, -8.755e-4
-1.027, -8.807e-4
-1.026, -8.861e-4
-1.025, -8.916e-4
-1.024, -8.956e-4
-1.023, -8.960e-4
-1.022, -8.996e-4
-1.021, -9.047e-4
-1.020, -9.072e-4
-1.019, -9.114e-4
-1.018, -9.152e-4
-1.017, -9.196e-4
-1.016, -9.237e-4
-1.015, -9.284e-4
-1.014, -9.332e-4
-1.013, -9.379e-4
-1.012, -9.415e-4
-1.011, -9.478e-4
-1.010, -9.513e-4
-1.009, -9.524e-4
-1.008, -9.561e-4
-1.007, -9.617e-4
-1.006, -9.665e-4
-1.005, -9.713e-4
-1.004, -9.762e-4
-1.003, -9.813e-4
-1.002, -9.858e-4
-1.001, -9.898e-4
