Apr. 9, 2025   07:01:08
Cyclic Voltammetry
File: c:/users/guazh/data/banditlqround7_x0exp994_r5/2025-03-28-exp1026\exp1026-2025-04-09t06_50_39-h2koh\exp1026_cv_sr_300mvs_efin_-1500mv.bin
Data Source:  Experiment
Instrument Model:  CHI760E
Header: CV ran at 300 mVs
Note: 

Init E (V) = -1
High E (V) = -1
Low E (V) = -1.5
Final E (V) = -1
Init P/N = N
Scan Rate (V/s) = 0.3
Segment = 3
Sample Interval (V) = 0.001
Quiet Time (sec) = 2
Sensitivity (A/V) = 0.01
Comp R (ohm) = 1.6

Results:

Channel 1:
Segment 1:
Ep = -1.334V
ip = 2.565e-3A
Ah = 7.758e-4C

Segment 2:

Segment 3:

Potential/V, Current/A

-1.000, -2.866e-4
-1.001, -2.002e-4
-1.002, -1.201e-4
-1.003, -5.534e-5
-1.004, -2.927e-6
-1.005, 4.024e-5
-1.006, 8.648e-5
-1.007, 1.296e-4
-1.008, 1.666e-4
-1.009, 1.975e-4
-1.010, 2.252e-4
-1.011, 2.530e-4
-1.012, 2.838e-4
-1.013, 3.115e-4
-1.014, 3.331e-4
-1.015, 3.516e-4
-1.016, 3.732e-4
-1.017, 3.979e-4
-1.018, 4.195e-4
-1.019, 4.349e-4
-1.020, 4.503e-4
-1.021, 4.657e-4
-1.022, 4.873e-4
-1.023, 5.027e-4
-1.024, 5.181e-4
-1.025, 5.274e-4
-1.026, 5.428e-4
-1.027, 5.582e-4
-1.028, 5.767e-4
-1.029, 5.859e-4
-1.030, 5.952e-4
-1.031, 6.075e-4
-1.032, 6.229e-4
-1.033, 6.384e-4
-1.034, 6.445e-4
-1.035, 6.538e-4
-1.036, 6.630e-4
-1.037, 6.784e-4
-1.038, 6.877e-4
-1.039, 6.939e-4
-1.040, 6.969e-4
-1.041, 7.093e-4
-1.042, 7.216e-4
-1.043, 7.339e-4
-1.044, 7.401e-4
-1.045, 7.463e-4
-1.046, 7.555e-4
-1.047, 7.679e-4
-1.048, 7.802e-4
-1.049, 7.863e-4
-1.050, 7.863e-4
-1.051, 7.956e-4
-1.052, 8.079e-4
-1.053, 8.172e-4
-1.054, 8.203e-4
-1.055, 8.264e-4
-1.056, 8.357e-4
-1.057, 8.480e-4
-1.058, 8.573e-4
-1.059, 8.603e-4
-1.060, 8.634e-4
-1.061, 8.727e-4
-1.062, 8.850e-4
-1.063, 8.912e-4
-1.064, 8.973e-4
-1.065, 9.004e-4
-1.066, 9.097e-4
-1.067, 9.189e-4
-1.068, 9.282e-4
-1.069, 9.313e-4
-1.070, 9.343e-4
-1.071, 9.436e-4
-1.072, 9.528e-4
-1.073, 9.652e-4
-1.074, 9.713e-4
-1.075, 9.744e-4
-1.076, 9.837e-4
-1.077, 9.960e-4
-1.078, 1.005e-3
-1.079, 1.011e-3
-1.080, 1.014e-3
-1.081, 1.021e-3
-1.082, 1.030e-3
-1.083, 1.042e-3
-1.084, 1.048e-3
-1.085, 1.051e-3
-1.086, 1.064e-3
-1.087, 1.076e-3
-1.088, 1.085e-3
-1.089, 1.092e-3
-1.090, 1.095e-3
-1.091, 1.101e-3
-1.092, 1.113e-3
-1.093, 1.122e-3
-1.094, 1.132e-3
-1.095, 1.135e-3
-1.096, 1.141e-3
-1.097, 1.156e-3
-1.098, 1.166e-3
-1.099, 1.175e-3
-1.100, 1.181e-3
-1.101, 1.193e-3
-1.102, 1.206e-3
-1.103, 1.215e-3
-1.104, 1.218e-3
-1.105, 1.221e-3
-1.106, 1.230e-3
-1.107, 1.246e-3
-1.108, 1.261e-3
-1.109, 1.270e-3
-1.110, 1.280e-3
-1.111, 1.292e-3
-1.112, 1.304e-3
-1.113, 1.314e-3
-1.114, 1.323e-3
-1.115, 1.329e-3
-1.116, 1.341e-3
-1.117, 1.357e-3
-1.118, 1.369e-3
-1.119, 1.375e-3
-1.120, 1.378e-3
-1.121, 1.394e-3
-1.122, 1.409e-3
-1.123, 1.421e-3
-1.124, 1.428e-3
-1.125, 1.437e-3
-1.126, 1.449e-3
-1.127, 1.465e-3
-1.128, 1.477e-3
-1.129, 1.483e-3
-1.130, 1.489e-3
-1.131, 1.499e-3
-1.132, 1.514e-3
-1.133, 1.529e-3
-1.134, 1.539e-3
-1.135, 1.545e-3
-1.136, 1.554e-3
-1.137, 1.573e-3
-1.138, 1.585e-3
-1.139, 1.591e-3
-1.140, 1.600e-3
-1.141, 1.616e-3
-1.142, 1.634e-3
-1.143, 1.650e-3
-1.144, 1.659e-3
-1.145, 1.671e-3
-1.146, 1.684e-3
-1.147, 1.696e-3
-1.148, 1.711e-3
-1.149, 1.724e-3
-1.150, 1.733e-3
-1.151, 1.745e-3
-1.152, 1.761e-3
-1.153, 1.776e-3
-1.154, 1.785e-3
-1.155, 1.795e-3
-1.156, 1.807e-3
-1.157, 1.825e-3
-1.158, 1.844e-3
-1.159, 1.859e-3
-1.160, 1.869e-3
-1.161, 1.878e-3
-1.162, 1.893e-3
-1.163, 1.902e-3
-1.164, 1.912e-3
-1.165, 1.927e-3
-1.166, 1.943e-3
-1.167, 1.961e-3
-1.168, 1.980e-3
-1.169, 1.989e-3
-1.170, 2.001e-3
-1.171, 2.013e-3
-1.172, 2.032e-3
-1.173, 2.047e-3
-1.174, 2.057e-3
-1.175, 2.072e-3
-1.176, 2.094e-3
-1.177, 2.115e-3
-1.178, 2.128e-3
-1.179, 2.134e-3
-1.180, 2.140e-3
-1.181, 2.161e-3
-1.182, 2.186e-3
-1.183, 2.205e-3
-1.184, 2.220e-3
-1.185, 2.232e-3
-1.186, 2.251e-3
-1.187, 2.272e-3
-1.188, 2.294e-3
-1.189, 2.306e-3
-1.190, 2.319e-3
-1.191, 2.337e-3
-1.192, 2.359e-3
-1.193, 2.377e-3
-1.194, 2.393e-3
-1.195, 2.405e-3
-1.196, 2.420e-3
-1.197, 2.442e-3
-1.198, 2.457e-3
-1.199, 2.476e-3
-1.200, 2.491e-3
-1.201, 2.513e-3
-1.202, 2.534e-3
-1.203, 2.559e-3
-1.204, 2.578e-3
-1.205, 2.590e-3
-1.206, 2.602e-3
-1.207, 2.627e-3
-1.208, 2.652e-3
-1.209, 2.667e-3
-1.210, 2.686e-3
-1.211, 2.710e-3
-1.212, 2.735e-3
-1.213, 2.756e-3
-1.214, 2.769e-3
-1.215, 2.784e-3
-1.216, 2.803e-3
-1.217, 2.824e-3
-1.218, 2.852e-3
-1.219, 2.874e-3
-1.220, 2.895e-3
-1.221, 2.920e-3
-1.222, 2.941e-3
-1.223, 2.963e-3
-1.224, 2.982e-3
-1.225, 3.000e-3
-1.226, 3.031e-3
-1.227, 3.059e-3
-1.228, 3.083e-3
-1.229, 3.108e-3
-1.230, 3.117e-3
-1.231, 3.136e-3
-1.232, 3.160e-3
-1.233, 3.191e-3
-1.234, 3.222e-3
-1.235, 3.247e-3
-1.236, 3.274e-3
-1.237, 3.302e-3
-1.238, 3.324e-3
-1.239, 3.348e-3
-1.240, 3.370e-3
-1.241, 3.401e-3
-1.242, 3.429e-3
-1.243, 3.456e-3
-1.244, 3.481e-3
-1.245, 3.499e-3
-1.246, 3.524e-3
-1.247, 3.555e-3
-1.248, 3.586e-3
-1.249, 3.610e-3
-1.250, 3.635e-3
-1.251, 3.663e-3
-1.252, 3.694e-3
-1.253, 3.718e-3
-1.254, 3.743e-3
-1.255, 3.762e-3
-1.256, 3.786e-3
-1.257, 3.820e-3
-1.258, 3.854e-3
-1.259, 3.882e-3
-1.260, 3.903e-3
-1.261, 3.934e-3
-1.262, 3.971e-3
-1.263, 4.005e-3
-1.264, 4.036e-3
-1.265, 4.058e-3
-1.266, 4.085e-3
-1.267, 4.113e-3
-1.268, 4.147e-3
-1.269, 4.175e-3
-1.270, 4.193e-3
-1.271, 4.215e-3
-1.272, 4.243e-3
-1.273, 4.276e-3
-1.274, 4.317e-3
-1.275, 4.350e-3
-1.276, 4.369e-3
-1.277, 4.391e-3
-1.278, 4.421e-3
-1.279, 4.443e-3
-1.280, 4.464e-3
-1.281, 4.501e-3
-1.282, 4.535e-3
-1.283, 4.566e-3
-1.284, 4.588e-3
-1.285, 4.612e-3
-1.286, 4.646e-3
-1.287, 4.674e-3
-1.288, 4.708e-3
-1.289, 4.751e-3
-1.290, 4.788e-3
-1.291, 4.822e-3
-1.292, 4.856e-3
-1.293, 4.893e-3
-1.294, 4.927e-3
-1.295, 4.949e-3
-1.296, 4.979e-3
-1.297, 5.004e-3
-1.298, 5.029e-3
-1.299, 5.053e-3
-1.300, 5.078e-3
-1.301, 5.109e-3
-1.302, 5.143e-3
-1.303, 5.171e-3
-1.304, 5.192e-3
-1.305, 5.211e-3
-1.306, 5.226e-3
-1.307, 5.248e-3
-1.308, 5.269e-3
-1.309, 5.288e-3
-1.310, 5.309e-3
-1.311, 5.340e-3
-1.312, 5.371e-3
-1.313, 5.396e-3
-1.314, 5.411e-3
-1.315, 5.420e-3
-1.316, 5.436e-3
-1.317, 5.454e-3
-1.318, 5.485e-3
-1.319, 5.504e-3
-1.320, 5.519e-3
-1.321, 5.537e-3
-1.322, 5.553e-3
-1.323, 5.565e-3
-1.324, 5.571e-3
-1.325, 5.581e-3
-1.326, 5.590e-3
-1.327, 5.596e-3
-1.328, 5.605e-3
-1.329, 5.611e-3
-1.330, 5.618e-3
-1.331, 5.627e-3
-1.332, 5.642e-3
-1.333, 5.645e-3
-1.334, 5.648e-3
-1.335, 5.639e-3
-1.336, 5.636e-3
-1.337, 5.642e-3
-1.338, 5.642e-3
-1.339, 5.642e-3
-1.340, 5.633e-3
-1.341, 5.624e-3
-1.342, 5.618e-3
-1.343, 5.602e-3
-1.344, 5.581e-3
-1.345, 5.571e-3
-1.346, 5.578e-3
-1.347, 5.596e-3
-1.348, 5.614e-3
-1.349, 5.611e-3
-1.350, 5.587e-3
-1.351, 5.547e-3
-1.352, 5.513e-3
-1.353, 5.485e-3
-1.354, 5.448e-3
-1.355, 5.426e-3
-1.356, 5.423e-3
-1.357, 5.414e-3
-1.358, 5.396e-3
-1.359, 5.362e-3
-1.360, 5.328e-3
-1.361, 5.303e-3
-1.362, 5.278e-3
-1.363, 5.248e-3
-1.364, 5.214e-3
-1.365, 5.167e-3
-1.366, 5.130e-3
-1.367, 5.106e-3
-1.368, 5.072e-3
-1.369, 5.038e-3
-1.370, 5.001e-3
-1.371, 4.967e-3
-1.372, 4.933e-3
-1.373, 4.899e-3
-1.374, 4.862e-3
-1.375, 4.825e-3
-1.376, 4.785e-3
-1.377, 4.751e-3
-1.378, 4.714e-3
-1.379, 4.674e-3
-1.380, 4.637e-3
-1.381, 4.616e-3
-1.382, 4.591e-3
-1.383, 4.557e-3
-1.384, 4.517e-3
-1.385, 4.486e-3
-1.386, 4.455e-3
-1.387, 4.424e-3
-1.388, 4.397e-3
-1.389, 4.366e-3
-1.390, 4.338e-3
-1.391, 4.307e-3
-1.392, 4.283e-3
-1.393, 4.264e-3
-1.394, 4.236e-3
-1.395, 4.209e-3
-1.396, 4.181e-3
-1.397, 4.156e-3
-1.398, 4.132e-3
-1.399, 4.101e-3
-1.400, 4.076e-3
-1.401, 4.058e-3
-1.402, 4.045e-3
-1.403, 4.030e-3
-1.404, 4.014e-3
-1.405, 3.993e-3
-1.406, 3.980e-3
-1.407, 3.968e-3
-1.408, 3.956e-3
-1.409, 3.947e-3
-1.410, 3.940e-3
-1.411, 3.934e-3
-1.412, 3.940e-3
-1.413, 3.943e-3
-1.414, 3.943e-3
-1.415, 3.950e-3
-1.416, 3.959e-3
-1.417, 3.971e-3
-1.418, 3.984e-3
-1.419, 3.996e-3
-1.420, 4.014e-3
-1.421, 4.036e-3
-1.422, 4.067e-3
-1.423, 4.104e-3
-1.424, 4.125e-3
-1.425, 4.150e-3
-1.426, 4.187e-3
-1.427, 4.224e-3
-1.428, 4.276e-3
-1.429, 4.313e-3
-1.430, 4.332e-3
-1.431, 4.363e-3
-1.432, 4.394e-3
-1.433, 4.424e-3
-1.434, 4.455e-3
-1.435, 4.498e-3
-1.436, 4.551e-3
-1.437, 4.606e-3
-1.438, 4.665e-3
-1.439, 4.720e-3
-1.440, 4.767e-3
-1.441, 4.810e-3
-1.442, 4.856e-3
-1.443, 4.899e-3
-1.444, 4.939e-3
-1.445, 4.982e-3
-1.446, 5.032e-3
-1.447, 5.084e-3
-1.448, 5.140e-3
-1.449, 5.198e-3
-1.450, 5.254e-3
-1.451, 5.309e-3
-1.452, 5.365e-3
-1.453, 5.420e-3
-1.454, 5.467e-3
-1.455, 5.522e-3
-1.456, 5.578e-3
-1.457, 5.633e-3
-1.458, 5.688e-3
-1.459, 5.741e-3
-1.460, 5.793e-3
-1.461, 5.849e-3
-1.462, 5.910e-3
-1.463, 5.966e-3
-1.464, 6.012e-3
-1.465, 6.055e-3
-1.466, 6.114e-3
-1.467, 6.179e-3
-1.468, 6.243e-3
-1.469, 6.308e-3
-1.470, 6.361e-3
-1.471, 6.419e-3
-1.472, 6.478e-3
-1.473, 6.533e-3
-1.474, 6.586e-3
-1.475, 6.638e-3
-1.476, 6.697e-3
-1.477, 6.761e-3
-1.478, 6.820e-3
-1.479, 6.875e-3
-1.480, 6.934e-3
-1.481, 6.996e-3
-1.482, 7.067e-3
-1.483, 7.134e-3
-1.484, 7.190e-3
-1.485, 7.233e-3
-1.486, 7.295e-3
-1.487, 7.366e-3
-1.488, 7.427e-3
-1.489, 7.471e-3
-1.490, 7.514e-3
-1.491, 7.569e-3
-1.492, 7.625e-3
-1.493, 7.689e-3
-1.494, 7.754e-3
-1.495, 7.822e-3
-1.496, 7.887e-3
-1.497, 7.948e-3
-1.498, 8.007e-3
-1.499, 8.056e-3
-1.500, 8.038e-3
-1.499, 7.908e-3
-1.498, 7.804e-3
-1.497, 7.720e-3
-1.496, 7.646e-3
-1.495, 7.575e-3
-1.494, 7.508e-3
-1.493, 7.427e-3
-1.492, 7.350e-3
-1.491, 7.264e-3
-1.490, 7.199e-3
-1.489, 7.138e-3
-1.488, 7.067e-3
-1.487, 6.999e-3
-1.486, 6.925e-3
-1.485, 6.842e-3
-1.484, 6.780e-3
-1.483, 6.718e-3
-1.482, 6.654e-3
-1.481, 6.573e-3
-1.480, 6.496e-3
-1.479, 6.432e-3
-1.478, 6.358e-3
-1.477, 6.299e-3
-1.476, 6.231e-3
-1.475, 6.176e-3
-1.474, 6.117e-3
-1.473, 6.052e-3
-1.472, 5.997e-3
-1.471, 5.938e-3
-1.470, 5.870e-3
-1.469, 5.812e-3
-1.468, 5.744e-3
-1.467, 5.673e-3
-1.466, 5.614e-3
-1.465, 5.550e-3
-1.464, 5.494e-3
-1.463, 5.436e-3
-1.462, 5.377e-3
-1.461, 5.315e-3
-1.460, 5.257e-3
-1.459, 5.201e-3
-1.458, 5.143e-3
-1.457, 5.084e-3
-1.456, 5.016e-3
-1.455, 4.952e-3
-1.454, 4.896e-3
-1.453, 4.844e-3
-1.452, 4.788e-3
-1.451, 4.736e-3
-1.450, 4.690e-3
-1.449, 4.634e-3
-1.448, 4.585e-3
-1.447, 4.535e-3
-1.446, 4.477e-3
-1.445, 4.412e-3
-1.444, 4.357e-3
-1.443, 4.307e-3
-1.442, 4.264e-3
-1.441, 4.212e-3
-1.440, 4.147e-3
-1.439, 4.101e-3
-1.438, 4.064e-3
-1.437, 4.030e-3
-1.436, 3.984e-3
-1.435, 3.931e-3
-1.434, 3.873e-3
-1.433, 3.814e-3
-1.432, 3.762e-3
-1.431, 3.697e-3
-1.430, 3.641e-3
-1.429, 3.607e-3
-1.428, 3.573e-3
-1.427, 3.533e-3
-1.426, 3.484e-3
-1.425, 3.429e-3
-1.424, 3.388e-3
-1.423, 3.348e-3
-1.422, 3.305e-3
-1.421, 3.253e-3
-1.420, 3.207e-3
-1.419, 3.167e-3
-1.418, 3.123e-3
-1.417, 3.074e-3
-1.416, 3.015e-3
-1.415, 2.960e-3
-1.414, 2.920e-3
-1.413, 2.889e-3
-1.412, 2.852e-3
-1.411, 2.809e-3
-1.410, 2.760e-3
-1.409, 2.713e-3
-1.408, 2.670e-3
-1.407, 2.627e-3
-1.406, 2.581e-3
-1.405, 2.544e-3
-1.404, 2.510e-3
-1.403, 2.479e-3
-1.402, 2.439e-3
-1.401, 2.390e-3
-1.400, 2.346e-3
-1.399, 2.309e-3
-1.398, 2.269e-3
-1.397, 2.235e-3
-1.396, 2.192e-3
-1.395, 2.155e-3
-1.394, 2.118e-3
-1.393, 2.087e-3
-1.392, 2.044e-3
-1.391, 2.010e-3
-1.390, 1.976e-3
-1.389, 1.946e-3
-1.388, 1.912e-3
-1.387, 1.881e-3
-1.386, 1.838e-3
-1.385, 1.791e-3
-1.384, 1.754e-3
-1.383, 1.721e-3
-1.382, 1.684e-3
-1.381, 1.659e-3
-1.380, 1.628e-3
-1.379, 1.597e-3
-1.378, 1.573e-3
-1.377, 1.532e-3
-1.376, 1.495e-3
-1.375, 1.455e-3
-1.374, 1.428e-3
-1.373, 1.403e-3
-1.372, 1.375e-3
-1.371, 1.341e-3
-1.370, 1.307e-3
-1.369, 1.273e-3
-1.368, 1.246e-3
-1.367, 1.227e-3
-1.366, 1.193e-3
-1.365, 1.159e-3
-1.364, 1.132e-3
-1.363, 1.104e-3
-1.362, 1.076e-3
-1.361, 1.045e-3
-1.360, 1.014e-3
-1.359, 9.898e-4
-1.358, 9.652e-4
-1.357, 9.374e-4
-1.356, 9.097e-4
-1.355, 8.788e-4
-1.354, 8.542e-4
-1.353, 8.326e-4
-1.352, 8.079e-4
-1.351, 7.802e-4
-1.350, 7.524e-4
-1.349, 7.309e-4
-1.348, 7.124e-4
-1.347, 6.877e-4
-1.346, 6.599e-4
-1.345, 6.322e-4
-1.344, 6.106e-4
-1.343, 5.890e-4
-1.342, 5.674e-4
-1.341, 5.428e-4
-1.340, 5.181e-4
-1.339, 4.996e-4
-1.338, 4.811e-4
-1.337, 4.595e-4
-1.336, 4.380e-4
-1.335, 4.133e-4
-1.334, 3.948e-4
-1.333, 3.794e-4
-1.332, 3.609e-4
-1.331, 3.393e-4
-1.330, 3.146e-4
-1.329, 2.961e-4
-1.328, 2.838e-4
-1.327, 2.622e-4
-1.326, 2.437e-4
-1.325, 2.221e-4
-1.324, 2.036e-4
-1.323, 1.913e-4
-1.322, 1.759e-4
-1.321, 1.543e-4
-1.320, 1.358e-4
-1.319, 1.173e-4
-1.318, 1.050e-4
-1.317, 9.265e-5
-1.316, 7.107e-5
-1.315, 5.257e-5
-1.314, 3.715e-5
-1.313, 2.790e-5
-1.312, 1.249e-5
-1.311, -6.010e-6
-1.310, -2.451e-5
-1.309, -3.684e-5
-1.308, -4.609e-5
-1.307, -5.842e-5
-1.306, -7.692e-5
-1.305, -9.234e-5
-1.304, -1.047e-4
-1.303, -1.170e-4
-1.302, -1.263e-4
-1.301, -1.448e-4
-1.300, -1.602e-4
-1.299, -1.694e-4
-1.298, -1.756e-4
-1.297, -1.879e-4
-1.296, -2.002e-4
-1.295, -2.157e-4
-1.294, -2.249e-4
-1.293, -2.342e-4
-1.292, -2.434e-4
-1.291, -2.588e-4
-1.290, -2.712e-4
-1.289, -2.804e-4
-1.288, -2.866e-4
-1.287, -2.958e-4
-1.286, -3.082e-4
-1.285, -3.205e-4
-1.284, -3.328e-4
-1.283, -3.359e-4
-1.282, -3.452e-4
-1.281, -3.575e-4
-1.280, -3.698e-4
-1.279, -3.760e-4
-1.278, -3.821e-4
-1.277, -3.852e-4
-1.276, -3.976e-4
-1.275, -4.068e-4
-1.274, -4.130e-4
-1.273, -4.191e-4
-1.272, -4.253e-4
-1.271, -4.346e-4
-1.270, -4.469e-4
-1.269, -4.531e-4
-1.268, -4.561e-4
-1.267, -4.623e-4
-1.266, -4.716e-4
-1.265, -4.839e-4
-1.264, -4.870e-4
-1.263, -4.901e-4
-1.262, -4.962e-4
-1.261, -5.055e-4
-1.260, -5.147e-4
-1.259, -5.178e-4
-1.258, -5.209e-4
-1.257, -5.271e-4
-1.256, -5.332e-4
-1.255, -5.456e-4
-1.254, -5.517e-4
-1.253, -5.548e-4
-1.252, -5.610e-4
-1.251, -5.671e-4
-1.250, -5.764e-4
-1.249, -5.826e-4
-1.248, -5.795e-4
-1.247, -5.856e-4
-1.246, -5.918e-4
-1.245, -6.011e-4
-1.244, -6.041e-4
-1.243, -6.072e-4
-1.242, -6.134e-4
-1.241, -6.195e-4
-1.240, -6.257e-4
-1.239, -6.257e-4
-1.238, -6.257e-4
-1.237, -6.257e-4
-1.236, -6.350e-4
-1.235, -6.380e-4
-1.234, -6.411e-4
-1.233, -6.411e-4
-1.232, -6.473e-4
-1.231, -6.565e-4
-1.230, -6.658e-4
-1.229, -6.689e-4
-1.228, -6.689e-4
-1.227, -6.689e-4
-1.226, -6.750e-4
-1.225, -6.812e-4
-1.224, -6.843e-4
-1.223, -6.843e-4
-1.222, -6.874e-4
-1.221, -6.935e-4
-1.220, -7.028e-4
-1.219, -7.028e-4
-1.218, -7.028e-4
-1.217, -7.059e-4
-1.216, -7.120e-4
-1.215, -7.182e-4
-1.214, -7.244e-4
-1.213, -7.213e-4
-1.212, -7.244e-4
-1.211, -7.336e-4
-1.210, -7.398e-4
-1.209, -7.367e-4
-1.208, -7.336e-4
-1.207, -7.367e-4
-1.206, -7.460e-4
-1.205, -7.521e-4
-1.204, -7.552e-4
-1.203, -7.552e-4
-1.202, -7.552e-4
-1.201, -7.645e-4
-1.200, -7.675e-4
-1.199, -7.675e-4
-1.198, -7.675e-4
-1.197, -7.706e-4
-1.196, -7.768e-4
-1.195, -7.860e-4
-1.194, -7.922e-4
-1.193, -7.984e-4
-1.192, -8.015e-4
-1.191, -7.984e-4
-1.190, -8.015e-4
-1.189, -8.015e-4
-1.188, -8.045e-4
-1.187, -8.076e-4
-1.186, -8.107e-4
-1.185, -8.200e-4
-1.184, -8.200e-4
-1.183, -8.200e-4
-1.182, -8.230e-4
-1.181, -8.292e-4
-1.180, -8.354e-4
-1.179, -8.354e-4
-1.178, -8.385e-4
-1.177, -8.385e-4
-1.176, -8.446e-4
-1.175, -8.477e-4
-1.174, -8.477e-4
-1.173, -8.477e-4
-1.172, -8.477e-4
-1.171, -8.539e-4
-1.170, -8.631e-4
-1.169, -8.662e-4
-1.168, -8.631e-4
-1.167, -8.662e-4
-1.166, -8.724e-4
-1.165, -8.754e-4
-1.164, -8.785e-4
-1.163, -8.754e-4
-1.162, -8.785e-4
-1.161, -8.878e-4
-1.160, -8.939e-4
-1.159, -8.939e-4
-1.158, -8.909e-4
-1.157, -8.878e-4
-1.156, -9.001e-4
-1.155, -9.124e-4
-1.154, -9.186e-4
-1.153, -9.155e-4
-1.152, -9.155e-4
-1.151, -9.217e-4
-1.150, -9.279e-4
-1.149, -9.309e-4
-1.148, -9.309e-4
-1.147, -9.340e-4
-1.146, -9.402e-4
-1.145, -9.464e-4
-1.144, -9.494e-4
-1.143, -9.494e-4
-1.142, -9.494e-4
-1.141, -9.556e-4
-1.140, -9.618e-4
-1.139, -9.649e-4
-1.138, -9.649e-4
-1.137, -9.710e-4
-1.136, -9.803e-4
-1.135, -9.864e-4
-1.134, -9.864e-4
-1.133, -9.864e-4
-1.132, -9.895e-4
-1.131, -9.988e-4
-1.130, -1.008e-3
-1.129, -1.011e-3
-1.128, -1.011e-3
-1.127, -1.014e-3
-1.126, -1.020e-3
-1.125, -1.030e-3
-1.124, -1.033e-3
-1.123, -1.036e-3
-1.122, -1.042e-3
-1.121, -1.054e-3
-1.120, -1.060e-3
-1.119, -1.067e-3
-1.118, -1.070e-3
-1.117, -1.073e-3
-1.116, -1.082e-3
-1.115, -1.091e-3
-1.114, -1.094e-3
-1.113, -1.094e-3
-1.112, -1.101e-3
-1.111, -1.113e-3
-1.110, -1.122e-3
-1.109, -1.131e-3
-1.108, -1.138e-3
-1.107, -1.147e-3
-1.106, -1.171e-3
-1.105, -1.190e-3
-1.104, -1.199e-3
-1.103, -1.208e-3
-1.102, -1.221e-3
-1.101, -1.239e-3
-1.100, -1.261e-3
-1.099, -1.286e-3
-1.098, -1.307e-3
-1.097, -1.335e-3
-1.096, -1.369e-3
-1.095, -1.403e-3
-1.094, -1.437e-3
-1.093, -1.470e-3
-1.092, -1.511e-3
-1.091, -1.557e-3
-1.090, -1.606e-3
-1.089, -1.646e-3
-1.088, -1.686e-3
-1.087, -1.729e-3
-1.086, -1.776e-3
-1.085, -1.822e-3
-1.084, -1.865e-3
-1.083, -1.908e-3
-1.082, -1.951e-3
-1.081, -2.004e-3
-1.080, -2.056e-3
-1.079, -2.106e-3
-1.078, -2.152e-3
-1.077, -2.192e-3
-1.076, -2.232e-3
-1.075, -2.269e-3
-1.074, -2.303e-3
-1.073, -2.343e-3
-1.072, -2.383e-3
-1.071, -2.432e-3
-1.070, -2.472e-3
-1.069, -2.509e-3
-1.068, -2.537e-3
-1.067, -2.571e-3
-1.066, -2.608e-3
-1.065, -2.645e-3
-1.064, -2.676e-3
-1.063, -2.710e-3
-1.062, -2.741e-3
-1.061, -2.775e-3
-1.060, -2.809e-3
-1.059, -2.833e-3
-1.058, -2.858e-3
-1.057, -2.883e-3
-1.056, -2.916e-3
-1.055, -2.953e-3
-1.054, -2.978e-3
-1.053, -3.000e-3
-1.052, -3.027e-3
-1.051, -3.061e-3
-1.050, -3.095e-3
-1.049, -3.123e-3
-1.048, -3.142e-3
-1.047, -3.166e-3
-1.046, -3.194e-3
-1.045, -3.225e-3
-1.044, -3.249e-3
-1.043, -3.271e-3
-1.042, -3.296e-3
-1.041, -3.327e-3
-1.040, -3.351e-3
-1.039, -3.370e-3
-1.038, -3.385e-3
-1.037, -3.404e-3
-1.036, -3.425e-3
-1.035, -3.450e-3
-1.034, -3.478e-3
-1.033, -3.505e-3
-1.032, -3.527e-3
-1.031, -3.545e-3
-1.030, -3.561e-3
-1.029, -3.579e-3
-1.028, -3.592e-3
-1.027, -3.610e-3
-1.026, -3.647e-3
-1.025, -3.687e-3
-1.024, -3.715e-3
-1.023, -3.727e-3
-1.022, -3.737e-3
-1.021, -3.749e-3
-1.020, -3.767e-3
-1.019, -3.783e-3
-1.018, -3.804e-3
-1.017, -3.835e-3
-1.016, -3.866e-3
-1.015, -3.894e-3
-1.014, -3.909e-3
-1.013, -3.922e-3
-1.012, -3.940e-3
-1.011, -3.959e-3
-1.010, -3.980e-3
-1.009, -3.996e-3
-1.008, -4.011e-3
-1.007, -4.029e-3
-1.006, -4.045e-3
-1.005, -4.063e-3
-1.004, -4.082e-3
-1.003, -4.094e-3
-1.002, -4.113e-3
-1.001, -4.137e-3
