Potential V vs RHE, Current mA cm-2
0.013299999999999867,3.4674573959692045
0.012299999999999978,2.310223552679605
0.011299999999999866,1.328838323963229
0.010299999999999976,0.5514544646873913
0.009299999999999864,0.0012841334468874936
0.008299999999999974,-0.5674407023758662
0.007299999999999862,-1.1126704373438514
0.006299999999999972,-1.4826174422585585
0.00529999999999986,-1.8334658446250875
0.0042999999999999705,-2.2649527910839233
0.0032999999999998586,-2.5592127414558514
0.0022999999999999687,-2.798298951133043
0.0012999999999998568,-3.1406590857003813
0.00029999999999996696,-3.412283655274469
-0.000700000000000145,-3.5820490112582726
-0.0017000000000000348,-3.8395264678337093
-0.0027000000000001467,-4.111151037407797
-0.0037000000000000366,-4.2681839916928155
-0.0047000000000001485,-4.453511171975136
-0.005700000000000038,-4.719476896349762
-0.00670000000000015,-4.889242252333567
-0.00770000000000004,-5.001004445022905
-0.008700000000000152,-5.216040562602391
-0.009700000000000042,-5.39853832028498
-0.010700000000000154,-5.484835709576747
-0.011700000000000044,-5.657430488160282
-0.012700000000000156,-5.858319492741117
-0.013700000000000045,-5.947446304632614
-0.014700000000000157,-6.062037919921682
-0.015700000000000047,-6.257268079303058
-0.01670000000000016,-6.363371426792935
-0.01770000000000005,-6.411471610988346
-0.01870000000000016,-6.5840663895718805
-0.01970000000000005,-6.745343477756495
-0.020700000000000163,-6.770808281154065
-0.021700000000000053,-6.896717586842053
-0.022700000000000164,-7.074971210625048
-0.023700000000000054,-7.124486106120324
-0.024700000000000166,-7.2065393615124975
-0.025700000000000056,-7.376304717496302
-0.026700000000000168,-7.448454993789417
-0.027700000000000058,-7.479578642386449
-0.02870000000000017,-7.6337821740717375
-0.02970000000000006,-7.756862057159997
-0.03070000000000017,-7.787985705757026
-0.03170000000000006,-7.891259630647174
-0.03270000000000017,-8.036974894533273
-0.03370000000000006,-8.061024986630978
-0.034700000000000175,-8.11478401602585
-0.035700000000000065,-8.270402259011005
-0.03670000000000018,-8.35669964830277
-0.03770000000000007,-8.392067430799397
-0.03870000000000018,-8.549100385084417
-0.03970000000000007,-8.638227196975913
-0.04070000000000018,-8.564662209382933
-0.04170000000000007,-8.66793613427308
-0.04270000000000018,-8.89570465355135
-0.04370000000000007,-8.894289942251486
-0.044700000000000184,-8.90419292135054
-0.045700000000000074,-9.06688472083502
-0.046700000000000186,-9.10649663723124
-0.047700000000000076,-9.120643750229892
-0.04870000000000019,-9.283335549714371
-0.04970000000000008,-9.40075658760317
-0.05070000000000019,-9.405000721502764
-0.05170000000000008,-9.505445223793181
-0.05270000000000019,-9.632769240781036
-0.05370000000000008,-9.649745776379415
-0.05470000000000019,-9.738872588270914
-0.05570000000000008,-9.911467366854446
-0.056700000000000195,-9.982202931847699
-0.057700000000000085,-9.98503235444743
-0.058700000000000196,-10.085476856737847
-0.059700000000000086,-10.18733607032813
-0.0607000000000002,-10.21563029632543
-0.06170000000000009,-10.338710179413688
-0.0627000000000002,-10.48018130940019
-0.06370000000000009,-10.483010731999922
-0.0647000000000002,-10.53535505009493
-0.06570000000000009,-10.686729159180487
-0.0667000000000002,-10.74897645637455
-0.0677000000000001,-10.77444125977212
-0.0687000000000002,-10.917327101058488
-0.0697000000000001,-11.03050400504769
-0.07070000000000021,-11.040406984146745
-0.0717000000000001,-11.147925042936489
-0.07270000000000021,-11.300713863321914
-0.0737000000000001,-11.336081645818538
-0.07470000000000021,-11.388425963913546
-0.0757000000000001,-11.551117763398024
-0.07670000000000021,-11.620438617091411
-0.0777000000000001,-11.658635822187769
-0.07870000000000021,-11.819912910372382
-0.0797000000000001,-11.918942701362935
-0.08070000000000022,-11.93450452566145
-0.0817000000000001,-12.057584408749708
-0.08270000000000022,-12.210373229135131
-0.08370000000000011,-12.255643990730812
-0.08470000000000022,-12.33628253482312
-0.08570000000000011,-12.511706736006385
-0.08670000000000022,-12.581027589699772
-0.08770000000000011,-12.630542485195047
-0.08870000000000022,-12.805966686378312
-0.08970000000000011,-12.944608393765087
-0.09070000000000022,-12.970073197162657
-0.09170000000000011,-13.095982502850644
-0.09270000000000023,-13.251600745835798
-0.09370000000000012,-13.306774486530536
-0.09470000000000023,-13.404389566221221
-0.09570000000000012,-13.571325499605297
-0.09670000000000023,-13.65054933239774
-0.09770000000000012,-13.71562605219153
-0.09870000000000023,-13.896709098574254
-0.09970000000000012,-14.046668496359947
-0.10070000000000023,-14.074962722357249
-0.10170000000000012,-14.189554337646317
-0.10270000000000024,-14.359319693630123
-0.10370000000000013,-14.401761032626075
-0.10470000000000024,-14.529085049613924
-0.10570000000000013,-14.755438857592333
-0.10670000000000024,-14.840321535584234
-0.10770000000000013,-14.854468648582884
-0.10870000000000024,-14.995939778569388
-0.10970000000000013,-15.151558021554543
-0.11070000000000024,-15.250587812545096
-0.11170000000000013,-15.43450028152755
-0.11270000000000002,-15.632559863508657
-0.11370000000000013,-15.660854089505953
-0.11470000000000002,-15.731589654499205
-0.11570000000000014,-15.929649236480316
-0.11670000000000003,-16.085267479465468
-0.11770000000000014,-16.184297270456018
-0.11870000000000003,-16.368209739438473
-0.11970000000000014,-16.495533756426326
-0.12070000000000003,-16.53797509542228
-0.12170000000000014,-16.679446225408782
-0.12270000000000003,-16.863358694391238
-0.12370000000000014,-16.962388485381787
-0.12470000000000003,-17.061418276372343
-0.12570000000000014,-17.259477858353446
-0.12670000000000003,-17.358507649344002
-0.12770000000000015,-17.4150961013386
-0.12870000000000004,-17.627302796318357
-0.12970000000000015,-17.782921039303513
-0.13070000000000004,-17.825362378299463
-0.13170000000000015,-17.995127734283265
-0.13270000000000004,-18.207334429263025
-0.13370000000000015,-18.292217107254928
-0.13470000000000004,-18.40539401124413
-0.13570000000000015,-18.631747819222536
-0.13670000000000004,-18.730777610213085
-0.13770000000000016,-18.78736606220769
-0.13870000000000005,-18.985425644188794
-0.13970000000000016,-19.197632339168546
-0.14070000000000005,-19.2683679041618
-0.14170000000000016,-19.409839034148305
-0.14270000000000005,-19.622045729128057
-0.14370000000000016,-19.70692840711996
-0.14470000000000005,-19.848399537106463
-0.14570000000000016,-20.088900458083522
-0.14670000000000005,-20.286960040064624
-0.14770000000000016,-20.400136944053827
-0.14870000000000005,-20.598196526034933
-0.14970000000000017,-20.76796188201874
-0.15070000000000006,-20.824550334013338
-0.15170000000000017,-21.008462802995794
-0.15270000000000006,-21.2348166109742
-0.15370000000000017,-21.347993514963402
-0.15470000000000006,-21.531905983945855
-0.15570000000000017,-21.786554017921564
-0.15670000000000006,-21.99876071290132
-0.15770000000000017,-22.111937616890522
-0.15870000000000006,-22.33829142486893
-0.15970000000000018,-22.508056780852733
-0.16070000000000007,-22.607086571843286
-0.16170000000000018,-22.84758749282034
-0.16270000000000007,-23.102235526796047
-0.16370000000000018,-23.215412430785253
-0.16470000000000007,-23.356883560771752
-0.16570000000000018,-23.61153159474746
-0.16670000000000007,-23.795444063729917
-0.16770000000000018,-23.951062306715073
-0.16870000000000007,-24.23400456668808
-0.16970000000000018,-24.44621126166783
-0.17070000000000007,-24.559388165657033
-0.17170000000000019,-24.799889086634096
-0.17270000000000008,-25.06868423360845
-0.1737000000000002,-25.210155363594954
-0.17470000000000008,-25.37992071957876
-0.1757000000000002,-25.662862979551768
-0.17670000000000008,-25.875069674531517
-0.1777000000000002,-26.101423482509926
-0.17870000000000008,-26.412659968480234
-0.1797000000000002,-26.65316088945729
-0.18070000000000008,-26.738043567449193
-0.1817000000000002,-26.936103149430302
-0.18270000000000008,-27.233192522401957
-0.1837000000000002,-27.417104991384413
-0.1847000000000001,-27.671753025360115
-0.1857000000000002,-27.997136624329073
-0.1867000000000001,-28.18104909331153
-0.1877000000000002,-28.350814449295335
-0.1887000000000001,-28.633756709268344
-0.1897000000000002,-28.987434534234602
-0.1907000000000001,-29.18549411621571
-0.1917000000000001,-29.468436376188716
-0.19269999999999998,-29.878702653149578
-0.1937000000000001,-29.991879557138777
-0.19469999999999998,-30.10505646112798
-0.1957000000000001,-30.444587173095588
-0.19669999999999999,-30.7558236590659
-0.1977000000000001,-31.010471693041605
-0.1987,-31.30756106601326
-0.1997000000000001,-31.533914873991666
-0.2007,-31.731974455972775
-0.2017000000000001,-32.05735805494172
-0.2027,-32.39688876690934
-0.2037000000000001,-32.62324257488775
-0.2047,-32.8354492698675
-0.2057000000000001,-33.13253864283916
-0.2067,-33.373039563816214
-0.2077000000000001,-33.655981823789226
-0.2087,-34.12283655274469
-0.2097000000000001,-34.4906614907096
-0.2107,-34.6887210726907
-0.2117000000000001,-34.94336910666641
-0.2127,-35.41022383562187
-0.2137000000000001,-35.608283417602976
-0.2147,-35.89122567757598
-0.2157000000000001,-36.3439332935328
-0.2167,-36.5985813275085
-0.21770000000000012,-36.8532293614842
-0.2187,-37.235201412447765
-0.21970000000000012,-37.56058501141672
-0.2207,-37.77279170639648
-0.22170000000000012,-38.12646953136274
-0.2227,-38.522588695324956
-0.22370000000000012,-38.791383842299304
-0.2247,-39.046031876275016
-0.22570000000000012,-39.38556258824262
-0.2267,-39.66850484821563
-0.22770000000000012,-39.99388844718459
-0.22870000000000001,-40.43244895014274
-0.22970000000000013,-40.800273888107654
-0.23070000000000002,-41.04077480908471
-0.23170000000000013,-41.32371706905772
-0.23270000000000002,-41.649100668026676
-0.23370000000000013,-41.90374870200238
-0.23470000000000002,-42.28572075296594
-0.23570000000000013,-42.752575481921404
-0.23670000000000002,-43.106253306887666
-0.2376999999999999,-43.34675422786472
-0.23870000000000002,-43.68628493983233
-0.2396999999999999,-43.99752142580264
-0.24070000000000003,-44.2946107987743
-0.24169999999999991,-44.76146552772976
-0.24270000000000003,-45.18587891768927
-0.24369999999999992,-45.44052695166498
-0.24470000000000003,-45.72346921163799
-0.24569999999999992,-46.176176827594794
-0.24670000000000003,-46.529854652561056
-0.24769999999999992,-46.82694402553272
-0.24870000000000003,-47.26550452849088
-0.24969999999999992,-47.66162369245309
-0.25070000000000003,-47.972860178423396
-0.2516999999999999,-48.3406851163883
-0.25270000000000004,-48.69436294135456
-0.2536999999999999,-48.93486386233162
-0.25470000000000004,-49.28854168729788
-0.2556999999999999,-49.76954352925199
-0.25670000000000004,-50.0807800152223
-0.25769999999999993,-50.30713382320071
-0.25870000000000004,-50.70325298716291
-0.25969999999999993,-51.127666377122424
-0.26070000000000004,-51.410608637095436
-0.26169999999999993,-51.7642864620617
-0.26270000000000004,-52.16040562602391
-0.26369999999999993,-52.44334788599691
-0.26470000000000005,-52.75458437196722
-0.26569999999999994,-53.10826219693348
-0.26670000000000005,-53.33461600491189
-0.26769999999999994,-53.56096981289029
-0.26870000000000005,-53.971236089851146
-0.26969999999999994,-54.31076680181876
-0.27070000000000005,-54.508826383799864
-0.27169999999999994,-54.73518019177827
-0.27270000000000005,-55.07471090374588
-0.27369999999999994,-55.357653163718886
-0.27470000000000006,-55.73962521468245
-0.27569999999999995,-56.19233283063926
-0.27670000000000006,-56.30550973462846
-0.27769999999999995,-56.333803960625765
-0.27870000000000006,-56.84310002857717
-0.27969999999999995,-57.25336630553804
-0.28070000000000006,-57.408984548523186
-0.28169999999999995,-57.493867226515086
-0.28270000000000006,-57.6070441305043
-0.28369999999999995,-57.70607392149485
-0.28470000000000006,-57.93242772947325
-0.28569999999999995,-58.24366421544356
-0.28670000000000007,-58.498312249419264
-0.28769999999999996,-58.65393049240442
-0.28870000000000007,-58.86613718738417
-0.28969999999999996,-58.97931409137338
-0.29070000000000007,-59.035902543367975
-0.29169999999999996,-59.21981501235043
-0.29270000000000007,-59.403727481332886
-0.29369999999999996,-59.403727481332886
-0.2947000000000001,-59.432021707330186
-0.29569999999999996,-59.587639950315335
-0.2967000000000001,-59.68666974130589
-0.29769999999999996,-59.7149639673032
-0.2987000000000001,-59.78569953229645
-0.29969999999999997,-59.70081685430455
-0.3007000000000001,-59.417874594331536
-0.30169999999999997,-59.587639950315335
-0.3027000000000001,-59.9696120012789
-0.30369999999999997,-59.983759114277554
-0.3047000000000001,-59.72911108030185
-0.30569999999999997,-59.34713902933829
-0.3067000000000001,-59.07834388236393
-0.3077,-59.050049656366625
-0.3087000000000001,-59.02175543036933
-0.3097,-58.75296028339497
-0.3107000000000001,-58.30025266743816
-0.3117,-58.08804597245841
-0.3127000000000001,-58.116340198455696
-0.3137,-58.00316329446651
-0.3147000000000001,-57.66363258249889
-0.3157,-57.32410187053129
-0.3167000000000001,-56.942129819567725
-0.3177,-56.67333467259337
-0.3187000000000001,-56.489422203610914
-0.3197,-56.13574437864466
-0.3207000000000001,-55.612301197694585
-0.3217,-55.30106471172429
-0.3227000000000001,-55.018122451751275
-0.3237,-54.63615040078772
-0.3247000000000001,-54.25417834982416
-0.3257,-53.9287947508552
-0.3267000000000001,-53.32046889191324
-0.3277,-52.69799591997262
-0.3287000000000001,-52.33017098200771
-0.3297,-52.00478738303875
-0.3307000000000001,-51.55207976708194
-0.3317,-51.113519264123774
-0.3327000000000001,-50.59007608317371
-0.3337,-49.88272043324119
-0.3347000000000001,-49.31683591329518
-0.3357,-48.991452314326224
-0.3367000000000001,-48.43971490737886
-0.3377,-47.73235925744634
-0.3387000000000001,-47.19476896349763
-0.3397,-46.74206134754081
-0.3407000000000001,-46.33179507057995
-0.3417,-45.92152879361909
-0.3427000000000001,-45.35564427367308
-0.3437,-44.648288623740555
-0.3447000000000001,-44.223875233781044
-0.3457,-44.011668538801295
-0.3467000000000001,-43.50237247084988
-0.3477,-42.837458159913304
-0.3487000000000001,-42.214985187972694
-0.3497,-41.80471891101183
-0.3507000000000001,-41.47933531204288
-0.3517,-41.182245939071215
-0.3527000000000001,-40.743685436113054
-0.3537,-40.177800916167044
-0.3547000000000001,-39.76753463920618
-0.3557,-39.49873949223183
-0.35670000000000013,-39.145061667265566
-0.3577,-38.89041363328986
-0.35870000000000013,-38.83382518129526
-0.3597,-38.46600024333035
-0.36070000000000013,-37.92840994938163
-0.3617,-37.53229078541942
-0.3626999999999999,-37.27764275144372
-0.3637,-36.98055337847206
-0.3646999999999999,-36.78249379649095
-0.3657,-36.796640909489604
-0.3666999999999999,-36.725905344496354
-0.3677,-36.55613998851254
-0.3686999999999999,-36.5985813275085
-0.36970000000000003,-36.5985813275085
-0.3706999999999999,-36.40052174552739
-0.37170000000000003,-36.45711019752199
-0.3726999999999999,-36.669316892501755
-0.37370000000000003,-36.669316892501755
-0.3746999999999999,-36.69761111849905
-0.37570000000000003,-36.86737647448285
-0.3766999999999999,-37.00884760446935
-0.37770000000000004,-37.235201412447765
-0.3786999999999999,-37.673761915405926
-0.37970000000000004,-37.97085128837759
-0.3806999999999999,-38.12646953136274
-0.38170000000000004,-38.42355890433439
-0.38269999999999993,-38.97529631128177
-0.38370000000000004,-39.47044526623452
-0.38469999999999993,-39.92315288219133
-0.38570000000000004,-40.4183018371441
-0.38669999999999993,-40.78612677510901
-0.38770000000000004,-41.168098826072566
-0.38869999999999993,-41.69154200702263
-0.38970000000000005,-42.2715736399673
-0.39069999999999994,-42.681839916928155
-0.39170000000000005,-43.134547532884966
-0.39269999999999994,-43.643843600836384
-0.39370000000000005,-44.181433894785094
-0.39469999999999994,-44.78975975372706
-0.39570000000000005,-45.53955674265553
-0.39669999999999994,-46.119588375600195
-0.39770000000000005,-46.586443104555656
-0.39869999999999994,-47.15232762450167
-0.39970000000000006,-47.78894770944093
-0.40069999999999995,-48.43971490737886
-0.40170000000000006,-49.118776331314066
-0.40269999999999995,-49.72710219025603
-0.40370000000000006,-50.26469248420475
-0.40469999999999995,-50.92960679514132
-0.40570000000000006,-51.69355089706845
-0.40669999999999995,-52.31602386900906
-0.40770000000000006,-52.91020261495237
-0.40869999999999995,-53.603411151886235
-0.40970000000000006,-54.22588412382685
-0.41069999999999995,-54.80591575677152
-0.41170000000000007,-55.527418519702685
-0.41269999999999996,-56.26306839563251
-0.41370000000000007,-56.91383559357042
-0.41469999999999996,-57.550455678509685
-0.41570000000000007,-58.31439978043681
-0.41669999999999996,-58.93687275237743
-0.41770000000000007,-59.5734928373167
-0.41869999999999996,-60.40817250423707
-0.4197000000000001,-61.15796949316553
-0.42069999999999996,-61.75214823910885
-0.4217000000000001,-62.38876832404812
-0.42269999999999996,-63.12441819997794
-0.4237000000000001,-63.8459209629091
-0.42469999999999997,-64.66645351683083
-0.4257000000000001,-65.48698607075255
-0.42669999999999997,-66.12360615569182
-0.4277000000000001,-66.76022624063107
-0.42869999999999997,-67.6090530205501
-0.4297000000000001,-68.42958557447183
-0.43069999999999997,-69.20767678939758
-0.4317000000000001,-69.9716208913247
-0.4327,-70.84874189724104
-0.4337000000000001,-71.59853888616952
-0.4347,-72.33418876209933
-0.4357000000000001,-73.197162655017
-0.4367,-73.89037119195086
-0.4377000000000001,-74.56943261588609
-0.4387,-75.34752383081185
-0.4397000000000001,-76.13976215873627
-0.4407,-76.84711780866878
-0.4417000000000001,-77.68179747558916
-0.4427,-78.45988869051493
-0.4437000000000001,-79.13895011445015
-0.4447,-79.91704132937592
-0.4457000000000001,-80.8931921262828
-0.4467,-81.72787179320316
-0.4477000000000001,-82.44937455613434
-0.4487,-83.21331865806147
-0.4497000000000001,-83.75090895201016
-0.4507,-84.5148530539373
-0.4517000000000001,-85.32123849486035
-0.4527,-86.11347682278479
-0.4537000000000001,-86.60862577773754
-0.4547,-87.40086410566198
-0.4557000000000001,-88.7023985015378
-0.4567,-89.72099063744062
-0.4577000000000001,-90.85275967733266
-0.4587,-91.65914511825574
-0.4597000000000001,-92.19673541220443
-0.4607,-92.6635901411599
-0.4617000000000001,-93.52656403407757
-0.4627,-94.78565709095746
-0.4637000000000001,-95.84669056585624
-0.4647,-96.79454713676581
-0.4657000000000001,-97.50190278669832
-0.4667,-98.06778730664433
-0.4677000000000001,-98.95905542555931
-0.4687,-100.07667735245269
-0.4697000000000001,-100.92550413237171
-0.4707,-101.7318895732948
-0.4717000000000001,-102.67974614420436
-0.4727,-103.71248539310584
-0.4737000000000001,-104.36325259104376
-0.4747,-105.11304957997223
-0.4757000000000001,-106.0609061508818
-0.4767,-106.99461560879273
-0.4777000000000001,-107.44732322474954
-0.4787,-108.15467887468205
-0.4797000000000001,-108.87618163761321
-0.4807,-109.83818532152145
-0.48170000000000013,-111.04068992640673
-0.4827,-112.32807720928389
-0.48370000000000013,-112.62516658225556
-0.4847,-113.03543285921644
-0.48570000000000013,-114.0964663341152
-0.4867,-113.82767118714084
-0.48570000000000013,-112.11587051430415
-0.4847,-110.67286498844183
-0.48370000000000013,-109.21571234958083
-0.4827,-107.81514816271445
-0.48170000000000013,-106.71167334881972
-0.4807,-105.63649276092228
-0.4797000000000001,-104.95743133698709
-0.4787,-103.92469208808559
-0.4777000000000001,-102.76462882219626
-0.4767,-101.66115400830152
-0.4757000000000001,-100.23229559543785
-0.4747,-99.24199768553233
-0.4737000000000001,-98.86002563456876
-0.4727,-98.26584688862545
-0.4717000000000001,-97.37457876971048
-0.4707,-96.14377993882789
-0.4697000000000001,-94.96956955993991
-0.4687,-94.13488989301955
-0.4677000000000001,-93.59729959907082
-0.4667,-92.59285457616664
-0.4657000000000001,-91.68743934425302
-0.4647,-90.76787699934074
-0.4637000000000001,-89.91905021942173
