Potential V vs RHE, Current mA cm-2
0.013299999999999867,3.4434073038714996
0.012299999999999978,2.4403769922671885
0.011299999999999866,1.5675001202504606
0.010299999999999976,0.7393281253094681
0.009299999999999864,-0.04582249900262853
0.008299999999999974,-0.7437137303390498
0.007299999999999862,-1.4415908145624723
0.006299999999999972,-2.052746096104168
0.00529999999999986,-2.662486666345999
0.0042999999999999705,-3.2297858975918787
0.0032999999999998586,-3.7970851288377587
0.0022999999999999687,-4.3205283097878215
0.0012999999999998568,-4.887827541033701
0.00029999999999996696,-5.411270721983764
-0.000700000000000145,-5.9347139029338285
-0.0017000000000000348,-6.414301033588076
-0.0027000000000001467,-6.893888164242324
-0.0037000000000000366,-7.329619244600755
-0.0047000000000001485,-7.809206375255003
-0.005700000000000038,-8.202496116617484
-0.00670000000000015,-8.638227196975913
-0.00770000000000004,-9.031516938338395
-0.008700000000000152,-9.467248018696827
-0.009700000000000042,-9.81668170976349
-0.010700000000000154,-10.208556739826104
-0.011700000000000044,-10.601846481188586
-0.012700000000000156,-10.993721511251199
-0.013700000000000045,-11.385596541313816
-0.014700000000000157,-11.778886282676295
-0.015700000000000047,-12.12831997374296
-0.01670000000000016,-12.520195003805576
-0.01770000000000005,-12.869628694872238
-0.01870000000000016,-13.217647674639037
-0.01970000000000005,-13.523225315409885
-0.020700000000000163,-13.872659006476551
-0.021700000000000053,-14.175407224647667
-0.022700000000000164,-14.529085049613924
-0.023700000000000054,-14.826174422585586
-0.024700000000000166,-15.137410908555893
-0.025700000000000056,-15.491088733522153
-0.026700000000000168,-15.830619445489761
-0.027700000000000058,-16.141855931460068
-0.02870000000000017,-16.495533756426326
-0.02970000000000006,-16.835064468393938
-0.03070000000000017,-17.146300954364243
-0.03170000000000006,-17.4433903273359
-0.03270000000000017,-17.75462681330621
-0.03370000000000006,-18.06586329927652
-0.034700000000000175,-18.362952672248177
-0.035700000000000065,-18.674189158218486
-0.03670000000000018,-18.92883719219419
-0.03770000000000007,-19.2400736781645
-0.03870000000000018,-19.579604390132108
-0.03970000000000007,-19.890840876102416
-0.04070000000000018,-20.202077362072725
-0.04170000000000007,-20.541608074040333
-0.04270000000000018,-20.85284456001064
-0.04370000000000007,-21.149933932982297
-0.044700000000000184,-21.461170418952605
-0.045700000000000074,-21.772406904922917
-0.046700000000000186,-22.069496277894572
-0.047700000000000076,-22.38073276386488
-0.04870000000000019,-22.63538079784059
-0.04970000000000008,-22.989058622806844
-0.05070000000000019,-23.24370665678255
-0.05170000000000008,-23.597384481748815
-0.05270000000000019,-23.908620967719123
-0.05370000000000008,-24.24815167968673
-0.05470000000000019,-24.601829504652986
-0.05570000000000008,-24.9130659906233
-0.056700000000000195,-25.252596702590903
-0.057700000000000085,-25.563833188561212
-0.058700000000000196,-25.86092256153287
-0.059700000000000086,-26.17215904750318
-0.0607000000000002,-26.483395533473487
-0.06170000000000009,-26.780484906445146
-0.0627000000000002,-27.134162731411404
-0.06370000000000009,-27.43125210438306
-0.0647000000000002,-27.742488590353368
-0.06570000000000009,-28.09616641531963
-0.0667000000000002,-28.393255788291288
-0.0677000000000001,-28.746933613257543
-0.0687000000000002,-29.100611438223805
-0.0697000000000001,-29.39770081119546
-0.07070000000000021,-29.751378636161718
-0.0717000000000001,-30.04846800913338
-0.07270000000000021,-30.402145834099635
-0.0737000000000001,-30.71338232006995
-0.07470000000000021,-31.010471693041605
-0.0757000000000001,-31.36414951800786
-0.07670000000000021,-31.661238890979522
-0.0777000000000001,-31.972475376949827
-0.07870000000000021,-32.32615320191609
-0.0797000000000001,-32.66568391388369
-0.08070000000000022,-33.01936173884996
-0.0817000000000001,-33.373039563816214
-0.08270000000000022,-33.712570275783825
-0.08370000000000011,-34.06624810075008
-0.08470000000000022,-34.41992592571634
-0.08570000000000011,-34.75945663768395
-0.08670000000000022,-35.07069312365426
-0.08770000000000011,-35.42437094862052
-0.08870000000000022,-35.763901660588125
-0.08970000000000011,-36.07513814655844
-0.09070000000000022,-36.37222751953009
-0.09170000000000011,-36.725905344496354
-0.09270000000000023,-37.07958316946261
-0.09370000000000012,-37.41911388143023
-0.09470000000000023,-37.81523304539243
-0.09570000000000012,-38.16891087035869
-0.09670000000000023,-38.522588695324956
-0.09770000000000012,-38.90456074628851
-0.09870000000000023,-39.21579723225882
-0.09970000000000012,-39.51288660523048
-0.10070000000000023,-39.90900576919269
-0.10170000000000012,-40.220242255162994
-0.10270000000000024,-40.51733162813464
-0.10370000000000013,-40.87100945310091
-0.10470000000000024,-41.22468727806717
-0.10570000000000013,-41.56421799003478
-0.10670000000000024,-41.91789581500104
-0.10770000000000013,-42.31401497896325
-0.10870000000000024,-42.653545690930855
-0.10970000000000013,-42.96478217690117
-0.11070000000000024,-43.36090134086337
-0.11170000000000013,-43.70043205283099
-0.11270000000000002,-44.011668538801295
-0.11370000000000013,-44.36534636376755
-0.11470000000000002,-44.66243573673921
-0.11570000000000014,-45.01611356170547
-0.11670000000000003,-45.32735004767578
-0.11770000000000014,-45.666880759643384
-0.11870000000000003,-46.02055858460964
-0.11970000000000014,-46.37423640957591
-0.12070000000000003,-46.713767121543505
-0.12170000000000014,-47.067444946509774
-0.12270000000000003,-47.40697565847737
-0.12370000000000014,-47.76065348344364
-0.12470000000000003,-48.114331308409895
-0.12570000000000014,-48.45386202037751
-0.12670000000000003,-48.80753984534376
-0.12770000000000015,-49.118776331314066
-0.12870000000000004,-49.41586570428573
-0.12970000000000015,-49.76954352925199
-0.13070000000000004,-50.12322135421825
-0.13170000000000015,-50.46275206618586
-0.13270000000000004,-50.81642989115212
-0.13370000000000015,-51.17010771611838
-0.13470000000000004,-51.509638428085985
-0.13570000000000015,-51.86331625305225
-0.13670000000000004,-52.2169940780185
-0.13770000000000016,-52.55652478998611
-0.13870000000000005,-52.91020261495237
-0.13970000000000016,-53.22143910092268
-0.14070000000000005,-53.56096981289029
-0.14170000000000016,-53.872206298860604
-0.14270000000000005,-54.2117370108282
-0.14370000000000016,-54.52297349679851
-0.14470000000000005,-54.876651321764776
-0.14570000000000016,-55.21618203373238
-0.14670000000000005,-55.56985985869864
-0.14770000000000016,-55.9235376836649
-0.14870000000000005,-56.26306839563251
-0.14970000000000017,-56.65918755959472
-0.15070000000000006,-57.012865384560975
-0.15170000000000017,-57.30995475753264
-0.15270000000000006,-57.66363258249889
-0.15370000000000017,-57.974869068469204
-0.15470000000000006,-58.31439978043681
-0.15570000000000017,-58.62563626640712
-0.15670000000000006,-58.97931409137338
-0.15770000000000017,-59.27640346434504
-0.15870000000000006,-59.6300812893113
-0.15970000000000018,-59.9696120012789
-0.16070000000000007,-60.32328982624517
-0.16170000000000018,-60.67696765121143
-0.16270000000000007,-61.01649836317903
-0.16370000000000018,-61.37017618814529
-0.16470000000000007,-61.72385401311155
-0.16570000000000018,-62.02094338608321
-0.16670000000000007,-62.33217987205352
-0.16770000000000018,-62.68585769701977
-0.16870000000000007,-62.98294706999144
-0.16970000000000018,-63.29418355596174
-0.17070000000000007,-63.633714267929356
-0.17170000000000019,-63.944950753899654
-0.17270000000000008,-64.29862857886593
-0.1737000000000002,-64.63815929083353
-0.17470000000000008,-64.99183711579978
-0.1757000000000002,-65.34551494076604
-0.17670000000000008,-65.64260431373769
-0.1777000000000002,-65.99628213870396
-0.17870000000000008,-66.34995996367022
-0.1797000000000002,-66.64704933664189
-0.18070000000000008,-66.9582858226122
-0.1817000000000002,-67.25537519558385
-0.18270000000000008,-67.56661168155415
-0.1837000000000002,-67.86370105452582
-0.1847000000000001,-68.17493754049613
-0.1857000000000002,-68.52861536546239
-0.1867000000000001,-68.82570473843404
-0.1877000000000002,-69.1793825634003
-0.1887000000000001,-69.53306038836655
-0.1897000000000002,-69.8301497613382
-0.1907000000000001,-70.18382758630447
-0.1917000000000001,-70.48091695927613
-0.19269999999999998,-70.74971210625048
-0.1937000000000001,-71.06094859222078
-0.19469999999999998,-71.35803796519245
-0.1957000000000001,-71.6268331121668
-0.19669999999999999,-71.92392248513846
-0.1977000000000001,-72.19271763211282
-0.1987,-72.48980700508447
-0.1997000000000001,-72.80104349105478
-0.2007,-73.15472131602105
-0.2017000000000001,-73.45181068899271
-0.2027,-73.76304717496302
-0.2037000000000001,-74.06013654793468
-0.2047,-74.37137303390499
-0.2057000000000001,-74.66846240687663
-0.2067,-74.93725755385098
-0.2077000000000001,-75.2484940398213
-0.2087,-75.50314207379701
-0.2097000000000001,-75.77193722077136
-0.2107,-76.06902659374302
-0.2117000000000001,-76.38026307971333
-0.2127,-76.63491111368903
-0.2137000000000001,-76.94614759965934
-0.2147,-77.28567831162695
-0.2157000000000001,-77.59691479759726
-0.2167,-77.86570994457162
-0.21770000000000012,-78.16279931754329
-0.2187,-78.43159446451764
-0.21970000000000012,-78.72868383748929
-0.2207,-78.99747898446365
-0.22170000000000012,-79.20968567944341
-0.2227,-79.47848082641775
-0.22370000000000012,-79.73312886039348
-0.2247,-80.04436534636378
-0.22570000000000012,-80.29901338033947
-0.2267,-80.61024986630979
-0.22770000000000012,-80.90733923928146
-0.22870000000000001,-81.21857572525175
-0.22970000000000013,-81.51566509822342
-0.23070000000000002,-81.86934292318966
-0.23170000000000013,-82.18057940915998
-0.23270000000000002,-82.47766878213164
-0.23370000000000013,-82.8313466070979
-0.23470000000000002,-83.18502443206415
-0.23570000000000013,-83.43967246603985
-0.23670000000000002,-83.70846761301424
-0.2376999999999999,-83.96311564698992
-0.23870000000000002,-84.27435213296022
-0.2396999999999999,-84.52900016693594
-0.24070000000000003,-84.84023665290624
-0.24169999999999991,-85.09488468688197
-0.24270000000000003,-85.40612117285227
-0.24369999999999992,-85.66076920682796
-0.24470000000000003,-85.92956435380233
-0.24569999999999992,-86.14177104878208
-0.24670000000000003,-86.41056619575643
-0.24769999999999992,-86.66521422973216
-0.24870000000000003,-86.93400937670651
-0.24969999999999992,-87.18865741068221
-0.25070000000000003,-87.45745255765657
-0.2516999999999999,-87.75454193062824
-0.25270000000000004,-88.02333707760259
-0.2536999999999999,-88.27798511157829
-0.25470000000000004,-88.54678025855264
-0.2556999999999999,-88.80142829252836
-0.25670000000000004,-89.02778210050676
-0.25769999999999993,-89.28243013448247
-0.25870000000000004,-89.50878394246087
-0.25969999999999993,-89.76343197643658
-0.26070000000000004,-89.94734444541903
-0.26169999999999993,-90.15955114039879
-0.26270000000000004,-90.37175783537855
-0.26369999999999993,-90.59811164335694
-0.26470000000000005,-90.81031833833671
-0.26569999999999994,-91.12155482430701
-0.26670000000000005,-91.37620285828272
-0.26769999999999994,-91.64499800525708
-0.26870000000000005,-91.89964603923279
-0.26969999999999994,-92.16844118620713
-0.27070000000000005,-92.42308922018285
-0.27169999999999994,-92.6070016891653
-0.27270000000000005,-92.86164972314101
-0.27369999999999994,-93.08800353111941
-0.27470000000000006,-93.30021022609918
-0.27569999999999995,-93.51241692107894
-0.27670000000000006,-93.73877072905732
-0.27769999999999995,-93.99341876303303
-0.27870000000000006,-94.21977257101145
-0.27969999999999995,-94.47442060498715
-0.28070000000000006,-94.7432157519615
-0.28169999999999995,-94.99786378593721
-0.28270000000000006,-95.26665893291157
-0.28369999999999995,-95.47886562789132
-0.28470000000000006,-95.69107232287108
-0.28569999999999995,-95.87498479185354
-0.28670000000000007,-96.12963282582925
-0.28769999999999996,-96.35598663380765
-0.28870000000000007,-96.52575198979144
-0.28969999999999996,-96.73795868477121
-0.29070000000000007,-96.96431249274961
-0.29169999999999996,-97.21896052672531
-0.29270000000000007,-97.4877556736997
-0.29369999999999996,-97.74240370767538
-0.2947000000000001,-97.96875751565379
-0.29569999999999996,-98.18096421063355
-0.2967000000000001,-98.4497593576079
-0.29769999999999996,-98.66196605258766
-0.2987000000000001,-98.88831986056607
-0.29969999999999997,-99.10052655554581
-0.3007000000000001,-99.31273325052557
-0.30169999999999997,-99.49664571950804
-0.3027000000000001,-99.70885241448778
-0.30369999999999997,-99.87861777047159
-0.3047000000000001,-100.14741291744595
-0.30569999999999997,-100.31717827342976
-0.3067000000000001,-100.54353208140815
-0.3077,-100.79818011538387
-0.3087000000000001,-101.02453392336226
-0.3097,-101.23674061834203
-0.3107000000000001,-101.44894731332178
-0.3117,-101.6753011213002
-0.3127000000000001,-101.88750781627995
-0.3137,-102.07142028526239
-0.3147000000000001,-102.24118564124619
-0.3157,-102.45339233622596
-0.3167000000000001,-102.63730480520842
-0.3177,-102.84951150018817
-0.3187000000000001,-103.07586530816658
-0.3197,-103.28807200314633
-0.3207000000000001,-103.50027869812607
-0.3217,-103.76907384510045
-0.3227000000000001,-103.98128054008019
-0.3237,-104.2076343480586
-0.3247000000000001,-104.41984104303836
-0.3257,-104.64619485101677
-0.3267000000000001,-104.81596020700057
-0.3277,-105.02816690198033
-0.3287000000000001,-105.25452070995874
-0.3297,-105.46672740493848
-0.3307000000000001,-105.63649276092228
-0.3317,-105.90528790789664
-0.3327000000000001,-106.11749460287639
-0.3337,-106.34384841085482
-0.3347000000000001,-106.55605510583456
-0.3357,-106.82485025280893
-0.3367000000000001,-107.07949828678463
-0.3377,-107.30585209476303
-0.3387000000000001,-107.51805878974278
-0.3397,-107.73026548472255
-0.3407000000000001,-107.95661929270095
-0.3417,-108.43762113465506
-0.3427000000000001,-108.73471050762672
-0.3437,-108.96106431560513
-0.3447000000000001,-109.21571234958083
-0.3457,-109.44206615755924
-0.3467000000000001,-109.654272852539
-0.3477,-109.8806266605174
-0.3487000000000001,-110.09283335549715
-0.3497,-110.34748138947285
-0.3507000000000001,-110.57383519745127
-0.3517,-110.74360055343507
-0.3527000000000001,-110.96995436141347
-0.3537,-111.13971971739728
-0.3547000000000001,-111.3094850733811
-0.3557,-111.5358388813595
-0.35670000000000013,-111.74804557633925
-0.3577,-111.91781093232305
-0.35870000000000013,-112.14416474030146
-0.3597,-112.3563714352812
-0.36070000000000013,-112.58272524325962
-0.3617,-112.79493193823936
-0.3626999999999999,-112.96469729422319
-0.3637,-113.23349244119754
-0.3646999999999999,-113.40325779718134
-0.3657,-113.62961160515974
-0.3666999999999999,-113.79937696114357
-0.3677,-114.0115836561233
-0.3686999999999999,-114.19549612510575
-0.36970000000000003,-114.40770282008553
-0.3706999999999999,-114.63405662806393
-0.37170000000000003,-114.84626332304367
-0.3726999999999999,-115.05847001802343
-0.37370000000000003,-115.32726516499778
-0.3746999999999999,-115.53947185997755
-0.37570000000000003,-115.76582566795594
-0.3766999999999999,-116.02047370193165
-0.37770000000000004,-116.24682750991008
-0.3786999999999999,-116.41659286589388
-0.37970000000000004,-116.62879956087362
-0.3806999999999999,-116.85515336885203
-0.38170000000000004,-117.06736006383179
-0.38269999999999993,-117.29371387181018
-0.38370000000000004,-117.50592056678994
-0.38469999999999993,-117.67568592277377
-0.38570000000000004,-117.90203973075215
-0.38669999999999993,-118.15668776472786
-0.38770000000000004,-118.38304157270628
-0.38869999999999993,-118.63768960668197
-0.38970000000000005,-118.86404341466037
-0.39069999999999994,-119.1186914486361
-0.39170000000000005,-119.2884568046199
-0.39269999999999994,-119.51481061259831
-0.39370000000000005,-119.72701730757805
-0.39469999999999994,-119.95337111555646
-0.39570000000000005,-120.12313647154028
-0.39669999999999994,-120.33534316652002
-0.39770000000000005,-120.56169697449842
-0.39869999999999994,-120.77390366947817
-0.39970000000000006,-121.00025747745659
-0.40069999999999995,-121.21246417243634
-0.40170000000000006,-121.48125931941068
-0.40269999999999995,-121.69346601439047
-0.40370000000000006,-121.90567270937021
-0.40469999999999995,-122.08958517835266
-0.40570000000000006,-122.30179187333242
-0.40669999999999995,-122.52814568131083
-0.40770000000000006,-122.69791103729463
-0.40869999999999995,-122.91011773227437
-0.40970000000000006,-123.09403020125686
-0.41069999999999995,-123.26379555724066
-0.41170000000000007,-123.4760022522204
-0.41269999999999996,-123.70235606019881
-0.41370000000000007,-123.91456275517855
-0.41469999999999996,-124.14091656315696
-0.41570000000000007,-124.35312325813672
-0.41669999999999996,-124.57947706611512
-0.41770000000000007,-124.83412510009084
-0.41869999999999996,-125.00389045607463
-0.4197000000000001,-125.23024426405304
-0.42069999999999996,-125.40000962003687
-0.4217000000000001,-125.62636342801528
-0.42269999999999996,-125.79612878399907
-0.4237000000000001,-125.96589413998288
-0.42469999999999997,-126.14980660896532
-0.4257000000000001,-126.36201330394509
-0.42669999999999997,-126.57421999892482
-0.4277000000000001,-126.75813246790726
-0.42869999999999997,-126.97033916288706
-0.4297000000000001,-127.19669297086547
-0.43069999999999997,-127.4088996658452
-0.4317000000000001,-127.57866502182902
-0.4327,-127.76257749081147
-0.4337000000000001,-127.93234284679528
-0.4347,-128.05966686378312
-0.4357000000000001,-128.2294322197669
-0.4367,-128.41334468874936
-0.4377000000000001,-128.62555138372915
-0.4387,-128.752875400717
-0.4397000000000001,-128.9792292086954
-0.4407,-129.1489945646792
-0.4417000000000001,-129.3753483726576
-0.4427,-129.5451137286414
-0.4437000000000001,-129.75732042362114
-0.4447,-129.9412328926036
-0.4457000000000001,-130.11099824858744
-0.4467,-130.28076360457123
-0.4477000000000001,-130.42223473455772
-0.4487,-130.59200009054155
-0.4497000000000001,-130.7193241075294
-0.4507,-130.9456779155078
-0.4517000000000001,-131.07300193249566
-0.4527,-131.28520862747538
-0.4537000000000001,-131.4266797574619
-0.4547,-131.63888645244168
-0.4557000000000001,-131.80865180842545
-0.4567,-131.99256427740792
-0.4577000000000001,-132.16232963339172
-0.4587,-132.33209498937555
-0.4597000000000001,-132.516007458358
-0.4607,-132.64333147534586
-0.4617000000000001,-132.7706554923337
-0.4627,-132.9404208483175
-0.4637000000000001,-133.12433331729994
-0.4647,-133.29409867328377
-0.4657000000000001,-133.4214226902716
-0.4667,-133.64777649825
-0.4677000000000001,-133.81754185423384
-0.4687,-133.9873072102176
-0.4697000000000001,-134.21366101819604
-0.4707,-134.34098503518388
-0.4717000000000001,-134.56733884316228
-0.4727,-134.69466286015015
-0.4737000000000001,-134.86442821613394
-0.4747,-134.9917522331218
-0.4757000000000001,-135.1332233631083
-0.4767,-135.26054738009617
-0.4777000000000001,-135.34543005808808
-0.4787,-135.47275407507593
-0.4797000000000001,-135.5576367530678
-0.4807,-135.65666654405837
-0.48170000000000013,-135.78399056104624
-0.4827,-136.08107993401788
-0.48370000000000013,-139.9290946696508
-0.4847,-139.9290946696508
-0.48570000000000013,-139.97153600864672
-0.4867,-139.1792976807223
-0.48570000000000013,-137.04308361792607
-0.4847,-134.9917522331218
-0.48370000000000013,-133.08189197830401
-0.4827,-131.24276728847948
-0.48170000000000013,-129.50267238964545
-0.4807,-127.80501882980741
-0.4797000000000001,-126.14980660896532
-0.4787,-124.52288861412055
-0.4777000000000001,-122.91011773227437
-0.4767,-121.2549055114323
-0.4757000000000001,-119.68457596858211
-0.4747,-118.11424642573192
-0.4737000000000001,-116.54391688288172
-0.4727,-115.01602867902749
-0.4717000000000001,-113.48814047517324
-0.4707,-111.96025227131899
-0.4697000000000001,-110.48895251945936
-0.4687,-109.04594699359701
-0.4677000000000001,-107.6029414677347
-0.4667,-106.2589657328629
-0.4657000000000001,-104.90084288499246
-0.4647,-103.54272003712204
