Potential V vs RHE, Current mA cm-2
0.013299999999999867,3.381160006677438
0.012299999999999978,2.656827821146539
0.011299999999999866,2.1065051254990395
0.010299999999999976,1.5632559863508655
0.009299999999999864,1.078858837277077
0.008299999999999974,0.7063653520226129
0.007299999999999862,0.3004846800913338
0.006299999999999972,-0.11302128574621777
0.00529999999999986,-0.44733171301732455
0.0042999999999999705,-0.7662076400069039
0.0032999999999998586,-1.1214416474030147
0.0022999999999999687,-1.3967444663567505
0.0012999999999998568,-1.6410651078434426
0.00029999999999996696,-1.9126896774175295
-0.000700000000000145,-2.1630935774936413
-0.0017000000000000348,-2.3158823978790646
-0.0027000000000001467,-2.5563833188561214
-0.0037000000000000366,-2.8265931771303436
-0.0047000000000001485,-3.0189939139119883
-0.005700000000000038,-3.2212976297926885
-0.00670000000000015,-3.473116241168665
-0.00770000000000004,-3.66268755535058
-0.008700000000000152,-3.8366970452339793
-0.009700000000000042,-4.080027388810766
-0.010700000000000154,-4.295063506390251
-0.011700000000000044,-4.44643761547581
-0.012700000000000156,-4.64308248615705
-0.013700000000000045,-4.866606871535726
-0.014700000000000157,-5.002419156322769
-0.015700000000000047,-5.166525667107114
-0.01670000000000016,-5.3900500524857895
-0.01770000000000005,-5.562644831069325
-0.01870000000000016,-5.688554136757313
-0.01970000000000005,-5.893687275237743
-0.020700000000000163,-6.067696765121143
-0.021700000000000053,-6.1907766482094
-0.022700000000000164,-6.386006807590776
-0.023700000000000054,-6.581236966972151
-0.024700000000000166,-6.700072716160815
-0.025700000000000056,-6.848617402646643
-0.026700000000000168,-7.042432850728153
-0.027700000000000058,-7.222101185811012
-0.02870000000000017,-7.35932818189792
-0.02970000000000006,-7.580023144676867
-0.03070000000000017,-7.86155069335001
-0.03170000000000006,-7.978971731238807
-0.03270000000000017,-8.010095379835839
-0.03370000000000006,-8.198251982717888
-0.034700000000000175,-8.324161288405875
-0.035700000000000065,-8.48826779919022
-0.03670000000000018,-8.810821975559447
-0.03770000000000007,-8.966440218544603
-0.03870000000000018,-9.112155482430701
-0.03970000000000007,-9.32577688871032
-0.04070000000000018,-9.475736286496016
-0.04170000000000007,-9.444612637898985
-0.04270000000000018,-9.573351366186703
-0.04370000000000007,-9.784143349866595
-0.044700000000000184,-9.907223232954852
-0.045700000000000074,-10.0670856098396
-0.046700000000000186,-10.293439417818007
-0.047700000000000076,-10.450472372103025
-0.04870000000000019,-10.574966966491148
-0.04970000000000008,-10.77444125977212
-0.05070000000000019,-10.951280172255249
-0.05170000000000008,-11.075774766643372
-0.05270000000000019,-11.268175503425017
-0.05370000000000008,-11.450673261107607
-0.05470000000000019,-11.587900257194516
-0.05570000000000008,-11.727956675881154
-0.056700000000000195,-11.918942701362935
-0.057700000000000085,-12.063243253949167
-0.058700000000000196,-12.19905553873621
-0.059700000000000086,-12.414091656315696
-0.0607000000000002,-12.600833547897881
-0.06170000000000009,-12.708351606687625
-0.0627000000000002,-12.873872828771834
-0.06370000000000009,-13.081835389851994
-0.0647000000000002,-13.227550653738092
-0.06570000000000009,-13.359118804625542
-0.0667000000000002,-13.533128294508941
-0.0677000000000001,-13.680258269694905
-0.0687000000000002,-13.823144110981273
-0.0697000000000001,-14.031106672061432
-0.07070000000000021,-14.231995676642269
-0.0717000000000001,-14.30273124163552
-0.07270000000000021,-14.557379275611227
-0.0737000000000001,-14.911057100577487
-0.07470000000000021,-15.10911668255859
-0.0757000000000001,-15.250587812545096
-0.07670000000000021,-15.462794507524851
-0.0777000000000001,-15.632559863508657
-0.07870000000000021,-15.689148315503255
-0.0797000000000001,-15.717442541500558
-0.08070000000000022,-15.731589654499205
-0.0817000000000001,-15.74573676749786
-0.08270000000000022,-15.901355010483012
-0.08370000000000011,-16.11356170546277
-0.08470000000000022,-16.25503283544927
-0.08570000000000011,-16.424798191433077
-0.08670000000000022,-16.637004886412832
-0.08770000000000011,-16.750181790402035
-0.08870000000000022,-16.93409425938449
-0.08970000000000011,-17.570714344323754
-0.09070000000000022,-17.952686395287316
-0.09170000000000011,-18.03756907327922
-0.09270000000000023,-18.122451751271118
-0.09370000000000012,-18.06586329927652
-0.09470000000000023,-17.74047970030756
-0.09570000000000012,-17.980980621284615
-0.09670000000000023,-18.17904020326572
-0.09770000000000012,-18.263922881257624
-0.09870000000000023,-18.320511333252224
-0.09970000000000012,-18.47612957623738
-0.10070000000000023,-18.645894932221182
-0.10170000000000012,-18.94298430519284
-0.10270000000000024,-19.155191000172596
-0.10370000000000013,-19.126896774175293
-0.10470000000000024,-19.381544808151002
-0.10570000000000013,-19.537163051136158
-0.10670000000000024,-19.721075520118614
-0.10770000000000013,-19.862546650105116
-0.10870000000000024,-19.93328221509837
-0.10970000000000013,-20.06060623208622
-0.11070000000000024,-20.14548891007812
-0.11170000000000013,-20.202077362072725
-0.11270000000000002,-20.38598983105518
-0.11370000000000013,-20.584049413036283
-0.11470000000000002,-20.73966765602144
-0.11570000000000014,-20.90943301200524
-0.11670000000000003,-21.121639706984997
-0.11770000000000014,-21.22066949797555
-0.11870000000000003,-21.248963723972853
-0.11970000000000014,-21.362140627962056
-0.12070000000000003,-21.71581845292831
-0.12170000000000014,-22.126084729889175
-0.12270000000000003,-22.607086571843286
-0.12370000000000014,-22.932470170812245
-0.12470000000000003,-23.088088413797397
-0.12570000000000014,-23.257853769781203
-0.12670000000000003,-23.47006046476096
-0.12770000000000015,-23.597384481748815
-0.12870000000000004,-23.710561385738018
-0.12970000000000015,-23.83788540272587
-0.13070000000000004,-23.894473854720466
-0.13170000000000015,-23.83788540272587
-0.13270000000000004,-23.272000882779853
-0.13370000000000015,-23.272000882779853
-0.13470000000000004,-23.356883560771752
-0.13570000000000015,-23.328589334774456
-0.13670000000000004,-23.300295108777156
-0.13770000000000016,-23.300295108777156
-0.13870000000000005,-23.399324899767706
-0.13970000000000016,-23.61153159474746
-0.14070000000000005,-23.795444063729917
-0.14170000000000016,-23.93691519371642
-0.14270000000000005,-24.092533436701576
-0.14370000000000016,-24.16326900169483
-0.14470000000000005,-24.16326900169483
-0.14570000000000016,-24.24815167968673
-0.14670000000000005,-24.417917035670534
-0.14770000000000016,-24.516946826661083
-0.14870000000000005,-24.57353527865569
-0.14970000000000017,-24.884771764625995
-0.15070000000000006,-25.09697845960575
-0.15170000000000017,-25.351626493581456
-0.15270000000000006,-25.80433410953827
-0.15370000000000017,-26.058982143513976
-0.15470000000000006,-26.20045327350048
-0.15570000000000017,-26.32777729048833
-0.15670000000000006,-26.483395533473487
-0.15770000000000017,-26.34192440348698
-0.15870000000000006,-25.832628335535567
-0.15970000000000018,-25.91751101352747
-0.16070000000000007,-26.129717708507226
-0.16170000000000018,-26.27118883849373
-0.16270000000000007,-26.539983985468087
-0.16370000000000018,-26.766337793446493
-0.16470000000000007,-26.879514697435695
-0.16570000000000018,-26.95025026242895
-0.16670000000000007,-27.38881076538711
-0.16770000000000018,-27.501987669376312
-0.16870000000000007,-27.445399217381713
-0.16970000000000018,-27.134162731411404
-0.17070000000000007,-27.261486748399253
-0.17170000000000019,-27.36051653938981
-0.17270000000000008,-27.459546330380363
-0.1737000000000002,-27.530281895373616
-0.17470000000000008,-27.544429008372262
-0.1757000000000002,-27.700047251357418
-0.17670000000000008,-27.940548172334477
-0.1777000000000002,-28.05372507632368
-0.17870000000000008,-28.12446064131693
-0.1797000000000002,-28.237637545306132
-0.18070000000000008,-28.364961562293985
-0.1817000000000002,-28.421550014288584
-0.18270000000000008,-28.506432692280487
-0.1837000000000002,-28.619609596269694
-0.1847000000000001,-28.676198048264297
-0.1857000000000002,-28.775227839254843
-0.1867000000000001,-29.369406585198163
-0.1877000000000002,-29.892849766148224
-0.1887000000000001,-30.09090934812933
-0.1897000000000002,-30.21823336511718
-0.1907000000000001,-30.232380478115836
-0.1917000000000001,-30.17579202612123
-0.19269999999999998,-30.274821817111786
-0.1937000000000001,-30.51532273808884
-0.19469999999999998,-30.656793868075347
-0.1957000000000001,-30.8407063370578
-0.19669999999999999,-31.067060145036205
-0.1977000000000001,-31.12364859703081
-0.1987,-30.91144190205105
-0.1997000000000001,-30.55776407708479
-0.2007,-30.359704495103685
-0.2017000000000001,-30.260674704113132
-0.2027,-30.54361696408614
-0.2037000000000001,-30.79826499806185
-0.2047,-30.939736128048356
-0.2057000000000001,-31.067060145036205
-0.2067,-31.29341395301461
-0.2077000000000001,-31.40659085700382
-0.2087,-31.40659085700382
-0.2097000000000001,-31.533914873991666
-0.2107,-31.816857133964678
-0.2117000000000001,-32.07150516794038
-0.2127,-32.170534958930936
-0.2137000000000001,-32.12809361993498
-0.2147,-32.04321094194308
-0.2157000000000001,-32.07150516794038
-0.2167,-32.255417636922836
-0.21770000000000012,-32.42518299290664
-0.2187,-32.5525070098945
-0.21970000000000012,-32.764713704874254
-0.2207,-32.84959638286615
-0.22170000000000012,-32.892037721862096
-0.2227,-32.97692039985401
-0.22370000000000012,-33.13253864283916
-0.2247,-33.274009772825664
-0.22570000000000012,-33.61354048479327
-0.2267,-34.32089613472579
-0.22770000000000012,-34.47651437771095
-0.22870000000000001,-34.5755441687015
-0.22970000000000013,-34.9150748806691
-0.23070000000000002,-34.90092776767045
-0.23170000000000013,-34.75945663768395
-0.23270000000000002,-34.717015298688004
-0.23370000000000013,-34.773603750682604
-0.23470000000000002,-34.787750863681254
-0.23570000000000013,-34.85848642867451
-0.23670000000000002,-34.75945663768395
-0.2376999999999999,-34.56139705570285
-0.23870000000000002,-34.94336910666641
-0.2396999999999999,-35.169722914644815
-0.24070000000000003,-35.282899818634014
-0.24169999999999991,-35.014104671659666
-0.24270000000000003,-34.94336910666641
-0.24369999999999992,-35.226311366639415
-0.24470000000000003,-36.01854969456383
-0.24569999999999992,-36.08928525955708
-0.24670000000000003,-35.862931451578675
-0.24769999999999992,-35.89122567757598
-0.24870000000000003,-35.96196124256923
-0.24969999999999992,-36.10343237255574
-0.25070000000000003,-36.16002082455034
-0.2516999999999999,-36.11757948555439
-0.25270000000000004,-36.18831505054764
-0.2536999999999999,-36.37222751953009
-0.25470000000000004,-36.55613998851254
-0.2556999999999999,-36.64102266650445
-0.25670000000000004,-36.725905344496354
-0.25769999999999993,-36.768346683492304
-0.25870000000000004,-36.83908224848555
-0.25969999999999993,-37.00884760446935
-0.26070000000000004,-37.15031873445586
-0.26169999999999993,-37.48984944642347
-0.26270000000000004,-37.617173463411326
-0.26369999999999993,-37.801085932393775
-0.26470000000000005,-37.85767438438838
-0.26569999999999994,-37.92840994938163
-0.26670000000000005,-38.154763757360044
-0.26769999999999994,-38.267940661349236
-0.26870000000000005,-38.35282333934114
-0.26969999999999994,-38.63576559931415
-0.27070000000000005,-38.96114919828311
-0.27169999999999994,-38.8762665202912
-0.27270000000000005,-39.074326102272316
-0.27369999999999994,-39.328974136248014
-0.27470000000000006,-39.39970970124127
-0.27569999999999995,-39.45629815323587
-0.27670000000000006,-39.52703371822913
-0.27769999999999995,-39.54118083122778
-0.27870000000000006,-39.54118083122778
-0.27969999999999995,-39.21579723225882
-0.28070000000000006,-39.68265196121428
-0.28169999999999995,-39.640210622218326
-0.28270000000000006,-39.88071154319538
-0.28369999999999995,-40.02218267318189
-0.28470000000000006,-39.86656443019674
-0.28569999999999995,-39.86656443019674
-0.28670000000000007,-39.90900576919269
-0.28769999999999996,-39.88071154319538
-0.28870000000000007,-40.02218267318189
-0.28969999999999996,-40.20609514216434
-0.29070000000000007,-40.34756627215084
-0.29169999999999996,-40.4183018371441
-0.29270000000000007,-40.5880671931279
-0.29369999999999996,-40.800273888107654
-0.2947000000000001,-40.94174501809416
-0.29569999999999996,-41.02662769608606
-0.2967000000000001,-41.168098826072566
-0.29769999999999996,-41.30956995605907
-0.2987000000000001,-41.42274686004827
-0.29969999999999997,-41.52177665103883
-0.3007000000000001,-41.40859974704962
-0.30169999999999997,-41.90374870200238
-0.3027000000000001,-42.186690961975394
-0.30369999999999997,-42.42719188295245
-0.3047000000000001,-42.497927447945706
-0.30569999999999997,-42.45548610894975
-0.3067000000000001,-42.526221673943
-0.3077,-42.483780334947056
-0.3087000000000001,-42.229132300971344
-0.3097,-42.28572075296594
-0.3107000000000001,-42.582810125937606
-0.3117,-42.837458159913304
-0.3127000000000001,-43.106253306887666
-0.3137,-43.219430210876865
-0.3147000000000001,-43.106253306887666
-0.3157,-43.30431288886877
-0.3167000000000001,-43.672137826833676
-0.3177,-43.82775606981884
-0.3187000000000001,-43.82775606981884
-0.3197,-43.87019740881479
-0.3207000000000001,-43.84190318281749
-0.3217,-43.99752142580264
-0.3227000000000001,-44.36534636376755
-0.3237,-44.4077877027635
-0.3247000000000001,-44.54925883275
-0.3257,-44.76146552772976
-0.3267000000000001,-44.90293665771627
-0.3277,-44.86049531872031
-0.3287000000000001,-44.81805397972436
-0.3297,-44.88878954471762
-0.3307000000000001,-44.98781933570817
-0.3317,-45.044407787702774
-0.3327000000000001,-45.157584691691966
-0.3337,-45.42637983866633
-0.3347000000000001,-45.652733646644734
-0.3357,-45.75176343763528
-0.3367000000000001,-45.90738168062044
-0.3377,-46.006411471610996
-0.3387000000000001,-46.02055858460964
-0.3397,-46.10544126260155
-0.3407000000000001,-46.10544126260155
-0.3417,-46.02055858460964
-0.3427000000000001,-46.10544126260155
-0.3437,-46.2327652795894
-0.3447000000000001,-46.41667774857186
-0.3457,-46.586443104555656
-0.3467000000000001,-46.74206134754081
-0.3477,-46.72791423454216
-0.3487000000000001,-46.99670938151652
-0.3497,-47.27965164148953
-0.3507000000000001,-47.421122771476035
-0.3517,-47.49185833646928
-0.3527000000000001,-47.689917918450384
-0.3537,-47.85968327443419
-0.3547000000000001,-47.95871306542474
-0.3557,-48.01530151741934
-0.35670000000000013,-48.114331308409895
-0.3577,-48.21336109940045
-0.35870000000000013,-48.26994955139505
-0.3597,-48.41142068138156
-0.36070000000000013,-48.524597585370756
-0.3617,-48.581186037365356
-0.3626999999999999,-48.73680428035051
-0.3637,-48.82168695834242
-0.3646999999999999,-48.79339273234511
-0.3657,-48.86412829733837
-0.3666999999999999,-49.076334992318124
-0.3677,-49.20365900930597
-0.3686999999999999,-49.40171859128708
-0.36970000000000003,-49.571483947270885
-0.3706999999999999,-49.72710219025603
-0.37170000000000003,-49.81198486824794
-0.3726999999999999,-50.1373684672169
-0.37370000000000003,-50.12322135421825
-0.3746999999999999,-50.20810403221015
-0.37570000000000003,-50.20810403221015
-0.3766999999999999,-50.57592897017506
-0.37770000000000004,-49.98175022423175
-0.3786999999999999,-50.06663290222365
-0.37970000000000004,-49.925161772237146
-0.3806999999999999,-49.939308885235796
-0.38170000000000004,-49.995897337230396
-0.38269999999999993,-50.12322135421825
-0.38370000000000004,-50.23639825820745
-0.38469999999999993,-50.2788395972034
-0.38570000000000004,-50.32128093619935
-0.38669999999999993,-50.37786938819396
-0.38770000000000004,-50.46275206618586
-0.38869999999999993,-50.46275206618586
-0.38970000000000005,-50.61837030917101
-0.39069999999999994,-50.68910587416426
-0.39170000000000005,-50.71740010016157
-0.39269999999999994,-50.85887123014807
-0.39370000000000005,-50.915459682142675
-0.39469999999999994,-50.83057700415076
-0.39570000000000005,-50.83057700415076
-0.39669999999999994,-51.014489473133224
-0.39770000000000005,-51.15596060311972
-0.39869999999999994,-51.31157884610488
-0.39970000000000006,-51.46719708909004
-0.40069999999999995,-51.60866821907654
-0.40170000000000006,-51.495491315087335
-0.40269999999999995,-51.509638428085985
-0.40370000000000006,-51.594521106077885
-0.40469999999999995,-51.80672780105764
-0.40570000000000006,-52.061375835033346
-0.40669999999999995,-52.25943541701445
-0.40770000000000006,-52.25943541701445
-0.40869999999999995,-52.1886998520212
-0.40970000000000006,-52.30187675601041
-0.41069999999999995,-52.31602386900906
-0.41170000000000007,-52.28772964301176
-0.41269999999999996,-52.41505365999961
-0.41370000000000007,-52.62726035497937
-0.41469999999999996,-52.83946704995912
-0.41570000000000007,-53.17899776192673
-0.41669999999999996,-53.603411151886235
-0.41770000000000007,-53.9005005248579
-0.41869999999999996,-54.0419716548444
-0.4197000000000001,-54.08441299384035
-0.42069999999999996,-54.05611876784305
-0.4217000000000001,-54.0419716548444
-0.42269999999999996,-54.18344278483091
-0.4237000000000001,-54.324913914817415
-0.42469999999999997,-54.31076680181876
-0.4257000000000001,-54.35320814081471
-0.42669999999999997,-54.57956194879311
-0.4277000000000001,-54.70688596578097
-0.42869999999999997,-54.84835709576747
-0.4297000000000001,-54.961533999756675
-0.43069999999999997,-55.06056379074723
-0.4317000000000001,-55.13129935574048
-0.4327,-55.34350605072023
-0.4337000000000001,-55.59815408469595
-0.4347,-55.82450789267435
-0.4357000000000001,-56.093303039648696
-0.4367,-56.475275090612264
-0.4377000000000001,-56.71577601158933
-0.4387,-57.012865384560975
-0.4397000000000001,-57.380690322525886
-0.4407,-57.57874990450699
-0.4417000000000001,-57.6353383565016
-0.4427,-57.76266237348945
-0.4437000000000001,-58.05975174646111
-0.4447,-58.41342957142736
-0.4457000000000001,-58.85199007438552
-0.4467,-59.31884480334099
-0.4477000000000001,-59.70081685430455
-0.4487,-59.99790622727621
-0.4497000000000001,-60.32328982624517
-0.4507,-60.59208497321952
-0.4517000000000001,-60.87502723319253
-0.4527,-61.34188196214799
-0.4537000000000001,-61.780442465106155
-0.4547,-62.19070874206701
-0.4557000000000001,-62.65756347102247
-0.4567,-63.251742216965795
-0.4577000000000001,-63.77518539791585
-0.4587,-64.1288632228821
-0.4597000000000001,-64.51083527384567
-0.4607,-64.83621887281464
-0.4617000000000001,-65.0767197937917
-0.4627,-65.4728389577539
-0.4637000000000001,-65.8972523477134
-0.4647,-66.34995996367022
-0.4657000000000001,-66.85925603162164
-0.4667,-67.48172900356225
-0.4677000000000001,-68.01931929751096
-0.4687,-68.54276247846103
-0.4697000000000001,-69.26426524139221
-0.4707,-69.98576800432336
-0.4717000000000001,-70.56579963726803
-0.4727,-71.24486106120324
-0.4737000000000001,-71.9946580501317
-0.4747,-72.65957236106827
-0.4757000000000001,-73.35278089800215
-0.4767,-74.0176952089387
-0.4777000000000001,-74.65431529387797
-0.4787,-75.33337671781321
-0.4797000000000001,-76.35196885371603
-0.4807,-77.37056098961885
-0.48170000000000013,-78.27597622153247
-0.4827,-79.16724434044745
-0.48370000000000013,-80.11510091135703
-0.4847,-81.1761343862558
-0.48570000000000013,-82.26546208715187
-0.4867,-82.52011012112759
-0.48570000000000013,-81.57225355021802
-0.4847,-80.8366036742882
-0.48370000000000013,-80.39804317133003
-0.4827,-79.94533555537322
-0.48170000000000013,-79.39359814842585
-0.4807,-78.99747898446365
-0.4797000000000001,-78.67209538549469
-0.4787,-78.24768199553519
-0.4777000000000001,-77.8940041705689
-0.4767,-77.61106191059591
-0.4757000000000001,-77.1583542946391
-0.4747,-76.7339409046796
-0.4737000000000001,-76.55002843569714
-0.4727,-76.25293906272547
-0.4717000000000001,-75.7294958817754
-0.4707,-75.19190558782671
-0.4697000000000001,-74.55528550288744
-0.4687,-73.91866541794816
-0.4677000000000001,-73.38107512399945
-0.4667,-72.97080884703858
-0.4657000000000001,-72.64542524806963
-0.4647,-72.37663010109527
-0.4637000000000001,-71.9946580501317
-0.4627,-71.3721850781911
