Aug. 9, 2024   16:25:56
Cyclic Voltammetry
File: c:/users/guazh/data/20240802_batch_500/2024-08-02-exp65\exp65-2024-08-09t16_06_38-arkoh\exp65_cv_sr_300mvs_efin_-1800mv.bin
Data Source:  Experiment
Instrument Model:  CHI760E
Header: CV ran at 300 mVs
Note: 

Init E (V) = -1
High E (V) = -1
Low E (V) = -1.8
Final E (V) = -1
Init P/N = N
Scan Rate (V/s) = 0.3
Segment = 3
Sample Interval (V) = 0.001
Quiet Time (sec) = 2
Sensitivity (A/V) = 0.01
Comp R (ohm) = 2.2

Results:

Channel 1:
Segment 1:

Segment 2:

Segment 3:

Potential/V, Current/A

-1.000, 3.239e-6
-1.001, 6.322e-6
-1.002, 3.239e-6
-1.003, 3.239e-6
-1.004, 6.322e-6
-1.005, 6.322e-6
-1.006, 6.322e-6
-1.007, 6.322e-6
-1.008, 6.322e-6
-1.009, 6.322e-6
-1.010, 6.322e-6
-1.011, 6.322e-6
-1.012, 6.322e-6
-1.013, 6.322e-6
-1.014, 6.322e-6
-1.015, 6.322e-6
-1.016, 6.322e-6
-1.017, 6.322e-6
-1.018, 6.322e-6
-1.019, 9.405e-6
-1.020, 9.405e-6
-1.021, 6.322e-6
-1.022, 6.322e-6
-1.023, 6.322e-6
-1.024, 9.405e-6
-1.025, 9.405e-6
-1.026, 6.322e-6
-1.027, 6.322e-6
-1.028, 6.322e-6
-1.029, 9.405e-6
-1.030, 9.405e-6
-1.031, 9.405e-6
-1.032, 9.405e-6
-1.033, 6.322e-6
-1.034, 9.405e-6
-1.035, 9.405e-6
-1.036, 9.405e-6
-1.037, 9.405e-6
-1.038, 9.405e-6
-1.039, 9.405e-6
-1.040, 9.405e-6
-1.041, 9.405e-6
-1.042, 9.405e-6
-1.043, 9.405e-6
-1.044, 9.405e-6
-1.045, 9.405e-6
-1.046, 9.405e-6
-1.047, 9.405e-6
-1.048, 9.405e-6
-1.049, 9.405e-6
-1.050, 9.405e-6
-1.051, 9.405e-6
-1.052, 9.405e-6
-1.053, 9.405e-6
-1.054, 9.405e-6
-1.055, 9.405e-6
-1.056, 9.405e-6
-1.057, 9.405e-6
-1.058, 9.405e-6
-1.059, 9.405e-6
-1.060, 9.405e-6
-1.061, 9.405e-6
-1.062, 9.405e-6
-1.063, 9.405e-6
-1.064, 9.405e-6
-1.065, 9.405e-6
-1.066, 9.405e-6
-1.067, 9.405e-6
-1.068, 9.405e-6
-1.069, 1.249e-5
-1.070, 9.405e-6
-1.071, 9.405e-6
-1.072, 9.405e-6
-1.073, 9.405e-6
-1.074, 9.405e-6
-1.075, 9.405e-6
-1.076, 9.405e-6
-1.077, 9.405e-6
-1.078, 9.405e-6
-1.079, 9.405e-6
-1.080, 9.405e-6
-1.081, 9.405e-6
-1.082, 9.405e-6
-1.083, 9.405e-6
-1.084, 9.405e-6
-1.085, 9.405e-6
-1.086, 1.249e-5
-1.087, 9.405e-6
-1.088, 9.405e-6
-1.089, 9.405e-6
-1.090, 9.405e-6
-1.091, 9.405e-6
-1.092, 9.405e-6
-1.093, 9.405e-6
-1.094, 1.249e-5
-1.095, 1.249e-5
-1.096, 9.405e-6
-1.097, 9.405e-6
-1.098, 9.405e-6
-1.099, 1.249e-5
-1.100, 9.405e-6
-1.101, 9.405e-6
-1.102, 9.405e-6
-1.103, 9.405e-6
-1.104, 1.249e-5
-1.105, 9.405e-6
-1.106, 9.405e-6
-1.107, 9.405e-6
-1.108, 9.405e-6
-1.109, 9.405e-6
-1.110, 9.405e-6
-1.111, 9.405e-6
-1.112, 9.405e-6
-1.113, 9.405e-6
-1.114, 1.249e-5
-1.115, 9.405e-6
-1.116, 9.405e-6
-1.117, 9.405e-6
-1.118, 9.405e-6
-1.119, 1.249e-5
-1.120, 9.405e-6
-1.121, 9.405e-6
-1.122, 9.405e-6
-1.123, 9.405e-6
-1.124, 1.249e-5
-1.125, 9.405e-6
-1.126, 9.405e-6
-1.127, 9.405e-6
-1.128, 9.405e-6
-1.129, 9.405e-6
-1.130, 9.405e-6
-1.131, 9.405e-6
-1.132, 9.405e-6
-1.133, 9.405e-6
-1.134, 1.249e-5
-1.135, 9.405e-6
-1.136, 9.405e-6
-1.137, 9.405e-6
-1.138, 9.405e-6
-1.139, 1.249e-5
-1.140, 1.249e-5
-1.141, 9.405e-6
-1.142, 9.405e-6
-1.143, 9.405e-6
-1.144, 9.405e-6
-1.145, 9.405e-6
-1.146, 1.249e-5
-1.147, 9.405e-6
-1.148, 9.405e-6
-1.149, 9.405e-6
-1.150, 9.405e-6
-1.151, 9.405e-6
-1.152, 9.405e-6
-1.153, 9.405e-6
-1.154, 1.249e-5
-1.155, 9.405e-6
-1.156, 9.405e-6
-1.157, 9.405e-6
-1.158, 9.405e-6
-1.159, 1.249e-5
-1.160, 1.249e-5
-1.161, 1.249e-5
-1.162, 9.405e-6
-1.163, 9.405e-6
-1.164, 1.249e-5
-1.165, 9.405e-6
-1.166, 1.249e-5
-1.167, 9.405e-6
-1.168, 9.405e-6
-1.169, 1.249e-5
-1.170, 1.249e-5
-1.171, 9.405e-6
-1.172, 9.405e-6
-1.173, 9.405e-6
-1.174, 9.405e-6
-1.175, 1.249e-5
-1.176, 9.405e-6
-1.177, 9.405e-6
-1.178, 9.405e-6
-1.179, 9.405e-6
-1.180, 9.405e-6
-1.181, 1.249e-5
-1.182, 9.405e-6
-1.183, 9.405e-6
-1.184, 1.249e-5
-1.185, 1.249e-5
-1.186, 9.405e-6
-1.187, 9.405e-6
-1.188, 9.405e-6
-1.189, 1.249e-5
-1.190, 1.249e-5
-1.191, 9.405e-6
-1.192, 9.405e-6
-1.193, 9.405e-6
-1.194, 1.249e-5
-1.195, 1.249e-5
-1.196, 9.405e-6
-1.197, 9.405e-6
-1.198, 9.405e-6
-1.199, 1.249e-5
-1.200, 1.249e-5
-1.201, 9.405e-6
-1.202, 9.405e-6
-1.203, 9.405e-6
-1.204, 9.405e-6
-1.205, 9.405e-6
-1.206, 9.405e-6
-1.207, 9.405e-6
-1.208, 9.405e-6
-1.209, 1.249e-5
-1.210, 1.249e-5
-1.211, 9.405e-6
-1.212, 9.405e-6
-1.213, 9.405e-6
-1.214, 1.249e-5
-1.215, 1.249e-5
-1.216, 9.405e-6
-1.217, 9.405e-6
-1.218, 1.249e-5
-1.219, 1.249e-5
-1.220, 1.249e-5
-1.221, 9.405e-6
-1.222, 9.405e-6
-1.223, 9.405e-6
-1.224, 1.249e-5
-1.225, 1.249e-5
-1.226, 9.405e-6
-1.227, 9.405e-6
-1.228, 9.405e-6
-1.229, 1.249e-5
-1.230, 1.249e-5
-1.231, 1.249e-5
-1.232, 9.405e-6
-1.233, 9.405e-6
-1.234, 1.249e-5
-1.235, 1.249e-5
-1.236, 1.249e-5
-1.237, 1.249e-5
-1.238, 1.249e-5
-1.239, 1.249e-5
-1.240, 1.249e-5
-1.241, 1.249e-5
-1.242, 9.405e-6
-1.243, 9.405e-6
-1.244, 1.249e-5
-1.245, 1.249e-5
-1.246, 1.249e-5
-1.247, 1.249e-5
-1.248, 1.249e-5
-1.249, 1.249e-5
-1.250, 1.249e-5
-1.251, 1.249e-5
-1.252, 1.249e-5
-1.253, 1.249e-5
-1.254, 1.249e-5
-1.255, 1.249e-5
-1.256, 1.249e-5
-1.257, 1.249e-5
-1.258, 1.249e-5
-1.259, 1.249e-5
-1.260, 1.249e-5
-1.261, 1.249e-5
-1.262, 1.249e-5
-1.263, 1.249e-5
-1.264, 1.249e-5
-1.265, 1.249e-5
-1.266, 1.249e-5
-1.267, 1.249e-5
-1.268, 1.249e-5
-1.269, 1.249e-5
-1.270, 1.249e-5
-1.271, 1.249e-5
-1.272, 1.249e-5
-1.273, 1.249e-5
-1.274, 1.557e-5
-1.275, 1.249e-5
-1.276, 1.249e-5
-1.277, 1.249e-5
-1.278, 1.249e-5
-1.279, 1.557e-5
-1.280, 1.249e-5
-1.281, 1.249e-5
-1.282, 1.249e-5
-1.283, 1.249e-5
-1.284, 1.557e-5
-1.285, 1.249e-5
-1.286, 1.249e-5
-1.287, 1.249e-5
-1.288, 1.249e-5
-1.289, 1.557e-5
-1.290, 1.249e-5
-1.291, 1.249e-5
-1.292, 1.249e-5
-1.293, 1.249e-5
-1.294, 1.557e-5
-1.295, 1.557e-5
-1.296, 1.557e-5
-1.297, 1.249e-5
-1.298, 1.557e-5
-1.299, 1.557e-5
-1.300, 1.557e-5
-1.301, 1.249e-5
-1.302, 1.557e-5
-1.303, 1.557e-5
-1.304, 1.557e-5
-1.305, 1.557e-5
-1.306, 1.557e-5
-1.307, 1.557e-5
-1.308, 1.557e-5
-1.309, 1.557e-5
-1.310, 1.557e-5
-1.311, 1.557e-5
-1.312, 1.557e-5
-1.313, 1.557e-5
-1.314, 1.557e-5
-1.315, 1.557e-5
-1.316, 1.557e-5
-1.317, 1.557e-5
-1.318, 1.865e-5
-1.319, 1.865e-5
-1.320, 1.557e-5
-1.321, 1.557e-5
-1.322, 1.865e-5
-1.323, 1.865e-5
-1.324, 1.865e-5
-1.325, 1.865e-5
-1.326, 1.865e-5
-1.327, 1.865e-5
-1.328, 1.865e-5
-1.329, 2.174e-5
-1.330, 1.865e-5
-1.331, 1.865e-5
-1.332, 1.865e-5
-1.333, 1.865e-5
-1.334, 1.865e-5
-1.335, 2.174e-5
-1.336, 1.865e-5
-1.337, 2.174e-5
-1.338, 2.174e-5
-1.339, 2.174e-5
-1.340, 2.174e-5
-1.341, 2.174e-5
-1.342, 2.174e-5
-1.343, 2.174e-5
-1.344, 2.482e-5
-1.345, 2.174e-5
-1.346, 2.482e-5
-1.347, 2.174e-5
-1.348, 2.482e-5
-1.349, 2.482e-5
-1.350, 2.482e-5
-1.351, 2.482e-5
-1.352, 2.482e-5
-1.353, 2.482e-5
-1.354, 2.482e-5
-1.355, 2.790e-5
-1.356, 2.790e-5
-1.357, 2.790e-5
-1.358, 2.790e-5
-1.359, 2.790e-5
-1.360, 2.790e-5
-1.361, 2.790e-5
-1.362, 2.790e-5
-1.363, 3.099e-5
-1.364, 3.099e-5
-1.365, 3.099e-5
-1.366, 3.099e-5
-1.367, 3.099e-5
-1.368, 3.099e-5
-1.369, 3.407e-5
-1.370, 3.407e-5
-1.371, 3.407e-5
-1.372, 3.407e-5
-1.373, 3.407e-5
-1.374, 3.407e-5
-1.375, 3.715e-5
-1.376, 3.407e-5
-1.377, 3.715e-5
-1.378, 3.715e-5
-1.379, 4.024e-5
-1.380, 4.024e-5
-1.381, 4.024e-5
-1.382, 4.024e-5
-1.383, 4.024e-5
-1.384, 4.332e-5
-1.385, 4.332e-5
-1.386, 4.332e-5
-1.387, 4.332e-5
-1.388, 4.332e-5
-1.389, 4.640e-5
-1.390, 4.640e-5
-1.391, 4.640e-5
-1.392, 4.640e-5
-1.393, 4.640e-5
-1.394, 4.949e-5
-1.395, 4.949e-5
-1.396, 4.949e-5
-1.397, 4.949e-5
-1.398, 5.257e-5
-1.399, 5.257e-5
-1.400, 5.257e-5
-1.401, 5.565e-5
-1.402, 5.565e-5
-1.403, 5.565e-5
-1.404, 5.873e-5
-1.405, 5.873e-5
-1.406, 5.873e-5
-1.407, 5.873e-5
-1.408, 6.182e-5
-1.409, 6.182e-5
-1.410, 6.490e-5
-1.411, 6.490e-5
-1.412, 6.490e-5
-1.413, 6.490e-5
-1.414, 6.798e-5
-1.415, 6.798e-5
-1.416, 7.107e-5
-1.417, 7.107e-5
-1.418, 7.107e-5
-1.419, 7.415e-5
-1.420, 7.415e-5
-1.421, 7.415e-5
-1.422, 7.723e-5
-1.423, 7.723e-5
-1.424, 8.032e-5
-1.425, 8.032e-5
-1.426, 8.340e-5
-1.427, 8.340e-5
-1.428, 8.648e-5
-1.429, 8.648e-5
-1.430, 8.957e-5
-1.431, 8.957e-5
-1.432, 8.957e-5
-1.433, 9.265e-5
-1.434, 9.573e-5
-1.435, 9.573e-5
-1.436, 9.882e-5
-1.437, 9.882e-5
-1.438, 9.882e-5
-1.439, 1.019e-4
-1.440, 1.050e-4
-1.441, 1.081e-4
-1.442, 1.081e-4
-1.443, 1.111e-4
-1.444, 1.111e-4
-1.445, 1.142e-4
-1.446, 1.142e-4
-1.447, 1.173e-4
-1.448, 1.204e-4
-1.449, 1.235e-4
-1.450, 1.266e-4
-1.451, 1.266e-4
-1.452, 1.296e-4
-1.453, 1.296e-4
-1.454, 1.358e-4
-1.455, 1.358e-4
-1.456, 1.389e-4
-1.457, 1.420e-4
-1.458, 1.420e-4
-1.459, 1.451e-4
-1.460, 1.481e-4
-1.461, 1.512e-4
-1.462, 1.543e-4
-1.463, 1.574e-4
-1.464, 1.605e-4
-1.465, 1.636e-4
-1.466, 1.666e-4
-1.467, 1.697e-4
-1.468, 1.728e-4
-1.469, 1.759e-4
-1.470, 1.790e-4
-1.471, 1.821e-4
-1.472, 1.851e-4
-1.473, 1.882e-4
-1.474, 1.944e-4
-1.475, 1.975e-4
-1.476, 2.006e-4
-1.477, 2.067e-4
-1.478, 2.098e-4
-1.479, 2.160e-4
-1.480, 2.191e-4
-1.481, 2.221e-4
-1.482, 2.252e-4
-1.483, 2.314e-4
-1.484, 2.376e-4
-1.485, 2.406e-4
-1.486, 2.468e-4
-1.487, 2.499e-4
-1.488, 2.561e-4
-1.489, 2.622e-4
-1.490, 2.684e-4
-1.491, 2.746e-4
-1.492, 2.807e-4
-1.493, 2.869e-4
-1.494, 2.931e-4
-1.495, 2.992e-4
-1.496, 3.054e-4
-1.497, 3.146e-4
-1.498, 3.208e-4
-1.499, 3.300e-4
-1.500, 3.362e-4
-1.501, 3.455e-4
-1.502, 3.547e-4
-1.503, 3.609e-4
-1.504, 3.701e-4
-1.505, 3.825e-4
-1.506, 3.917e-4
-1.507, 4.010e-4
-1.508, 4.102e-4
-1.509, 4.225e-4
-1.510, 4.318e-4
-1.511, 4.441e-4
-1.512, 4.534e-4
-1.513, 4.657e-4
-1.514, 4.811e-4
-1.515, 4.935e-4
-1.516, 5.058e-4
-1.517, 5.212e-4
-1.518, 5.335e-4
-1.519, 5.489e-4
-1.520, 5.644e-4
-1.521, 5.829e-4
-1.522, 5.983e-4
-1.523, 6.106e-4
-1.524, 6.322e-4
-1.525, 6.476e-4
-1.526, 6.661e-4
-1.527, 6.815e-4
-1.528, 7.000e-4
-1.529, 7.216e-4
-1.530, 7.432e-4
-1.531, 7.617e-4
-1.532, 7.802e-4
-1.533, 7.987e-4
-1.534, 8.233e-4
-1.535, 8.449e-4
-1.536, 8.665e-4
-1.537, 8.850e-4
-1.538, 9.066e-4
-1.539, 9.313e-4
-1.540, 9.559e-4
-1.541, 9.775e-4
-1.542, 9.991e-4
-1.543, 1.024e-3
-1.544, 1.048e-3
-1.545, 1.073e-3
-1.546, 1.098e-3
-1.547, 1.119e-3
-1.548, 1.144e-3
-1.549, 1.172e-3
-1.550, 1.196e-3
-1.551, 1.221e-3
-1.552, 1.243e-3
-1.553, 1.270e-3
-1.554, 1.298e-3
-1.555, 1.326e-3
-1.556, 1.354e-3
-1.557, 1.375e-3
-1.558, 1.403e-3
-1.559, 1.434e-3
-1.560, 1.462e-3
-1.561, 1.489e-3
-1.562, 1.517e-3
-1.563, 1.542e-3
-1.564, 1.576e-3
-1.565, 1.603e-3
-1.566, 1.634e-3
-1.567, 1.659e-3
-1.568, 1.687e-3
-1.569, 1.721e-3
-1.570, 1.751e-3
-1.571, 1.782e-3
-1.572, 1.810e-3
-1.573, 1.838e-3
-1.574, 1.872e-3
-1.575, 1.906e-3
-1.576, 1.933e-3
-1.577, 1.961e-3
-1.578, 1.992e-3
-1.579, 2.023e-3
-1.580, 2.057e-3
-1.581, 2.087e-3
-1.582, 2.118e-3
-1.583, 2.149e-3
-1.584, 2.183e-3
-1.585, 2.217e-3
-1.586, 2.251e-3
-1.587, 2.279e-3
-1.588, 2.309e-3
-1.589, 2.346e-3
-1.590, 2.383e-3
-1.591, 2.414e-3
-1.592, 2.445e-3
-1.593, 2.479e-3
-1.594, 2.516e-3
-1.595, 2.550e-3
-1.596, 2.584e-3
-1.597, 2.612e-3
-1.598, 2.645e-3
-1.599, 2.682e-3
-1.600, 2.716e-3
-1.601, 2.753e-3
-1.602, 2.784e-3
-1.603, 2.818e-3
-1.604, 2.855e-3
-1.605, 2.892e-3
-1.606, 2.926e-3
-1.607, 2.954e-3
-1.608, 2.988e-3
-1.609, 3.025e-3
-1.610, 3.065e-3
-1.611, 3.099e-3
-1.612, 3.130e-3
-1.613, 3.163e-3
-1.614, 3.204e-3
-1.615, 3.241e-3
-1.616, 3.274e-3
-1.617, 3.305e-3
-1.618, 3.339e-3
-1.619, 3.379e-3
-1.620, 3.416e-3
-1.621, 3.453e-3
-1.622, 3.484e-3
-1.623, 3.518e-3
-1.624, 3.558e-3
-1.625, 3.595e-3
-1.626, 3.635e-3
-1.627, 3.666e-3
-1.628, 3.700e-3
-1.629, 3.743e-3
-1.630, 3.783e-3
-1.631, 3.820e-3
-1.632, 3.851e-3
-1.633, 3.888e-3
-1.634, 3.925e-3
-1.635, 3.965e-3
-1.636, 4.002e-3
-1.637, 4.036e-3
-1.638, 4.073e-3
-1.639, 4.116e-3
-1.640, 4.156e-3
-1.641, 4.193e-3
-1.642, 4.230e-3
-1.643, 4.267e-3
-1.644, 4.304e-3
-1.645, 4.341e-3
-1.646, 4.372e-3
-1.647, 4.403e-3
-1.648, 4.446e-3
-1.649, 4.489e-3
-1.650, 4.532e-3
-1.651, 4.572e-3
-1.652, 4.606e-3
-1.653, 4.640e-3
-1.654, 4.680e-3
-1.655, 4.717e-3
-1.656, 4.751e-3
-1.657, 4.782e-3
-1.658, 4.816e-3
-1.659, 4.856e-3
-1.660, 4.893e-3
-1.661, 4.930e-3
-1.662, 4.964e-3
-1.663, 5.001e-3
-1.664, 5.041e-3
-1.665, 5.081e-3
-1.666, 5.121e-3
-1.667, 5.152e-3
-1.668, 5.186e-3
-1.669, 5.226e-3
-1.670, 5.269e-3
-1.671, 5.303e-3
-1.672, 5.334e-3
-1.673, 5.368e-3
-1.674, 5.411e-3
-1.675, 5.448e-3
-1.676, 5.485e-3
-1.677, 5.519e-3
-1.678, 5.556e-3
-1.679, 5.596e-3
-1.680, 5.636e-3
-1.681, 5.667e-3
-1.682, 5.704e-3
-1.683, 5.738e-3
-1.684, 5.778e-3
-1.685, 5.818e-3
-1.686, 5.858e-3
-1.687, 5.895e-3
-1.688, 5.932e-3
-1.689, 5.981e-3
-1.690, 6.025e-3
-1.691, 6.058e-3
-1.692, 6.089e-3
-1.693, 6.129e-3
-1.694, 6.169e-3
-1.695, 6.222e-3
-1.696, 6.259e-3
-1.697, 6.293e-3
-1.698, 6.333e-3
-1.699, 6.376e-3
-1.700, 6.419e-3
-1.701, 6.456e-3
-1.702, 6.487e-3
-1.703, 6.527e-3
-1.704, 6.570e-3
-1.705, 6.623e-3
-1.706, 6.660e-3
-1.707, 6.691e-3
-1.708, 6.721e-3
-1.709, 6.761e-3
-1.710, 6.801e-3
-1.711, 6.835e-3
-1.712, 6.869e-3
-1.713, 6.906e-3
-1.714, 6.953e-3
-1.715, 6.986e-3
-1.716, 7.020e-3
-1.717, 7.051e-3
-1.718, 7.085e-3
-1.719, 7.128e-3
-1.720, 7.168e-3
-1.721, 7.212e-3
-1.722, 7.245e-3
-1.723, 7.282e-3
-1.724, 7.329e-3
-1.725, 7.369e-3
-1.726, 7.400e-3
-1.727, 7.437e-3
-1.728, 7.477e-3
-1.729, 7.529e-3
-1.730, 7.566e-3
-1.731, 7.603e-3
-1.732, 7.643e-3
-1.733, 7.680e-3
-1.734, 7.720e-3
-1.735, 7.776e-3
-1.736, 7.816e-3
-1.737, 7.856e-3
-1.738, 7.902e-3
-1.739, 7.951e-3
-1.740, 8.004e-3
-1.741, 8.041e-3
-1.742, 8.078e-3
-1.743, 8.115e-3
-1.744, 8.161e-3
-1.745, 8.201e-3
-1.746, 8.229e-3
-1.747, 8.269e-3
-1.748, 8.306e-3
-1.749, 8.352e-3
-1.750, 8.405e-3
-1.751, 8.454e-3
-1.752, 8.497e-3
-1.753, 8.543e-3
-1.754, 8.596e-3
-1.755, 8.633e-3
-1.756, 8.682e-3
-1.757, 8.725e-3
-1.758, 8.762e-3
-1.759, 8.815e-3
-1.760, 8.870e-3
-1.761, 8.910e-3
-1.762, 8.966e-3
-1.763, 9.000e-3
-1.764, 9.043e-3
-1.765, 9.080e-3
-1.766, 9.117e-3
-1.767, 9.148e-3
-1.768, 9.185e-3
-1.769, 9.231e-3
-1.770, 9.302e-3
-1.771, 9.348e-3
-1.772, 9.385e-3
-1.773, 9.422e-3
-1.774, 9.465e-3
-1.775, 9.524e-3
-1.776, 9.586e-3
-1.777, 9.619e-3
-1.778, 9.666e-3
-1.779, 9.706e-3
-1.780, 9.746e-3
-1.781, 9.820e-3
-1.782, 9.878e-3
-1.783, 9.912e-3
-1.784, 9.965e-3
-1.785, 1.005e-2
-1.786, 1.009e-2
-1.787, 1.011e-2
-1.788, 1.015e-2
-1.789, 1.020e-2
-1.790, 1.026e-2
-1.791, 1.030e-2
-1.792, 1.036e-2
-1.793, 1.042e-2
-1.794, 1.046e-2
-1.795, 1.053e-2
-1.796, 1.058e-2
-1.797, 1.062e-2
-1.798, 1.067e-2
-1.799, 1.070e-2
-1.800, 1.070e-2
-1.799, 1.063e-2
-1.798, 1.055e-2
-1.797, 1.047e-2
-1.796, 1.040e-2
-1.795, 1.033e-2
-1.794, 1.028e-2
-1.793, 1.021e-2
-1.792, 1.012e-2
-1.791, 1.005e-2
-1.790, 9.986e-3
-1.789, 9.909e-3
-1.788, 9.829e-3
-1.787, 9.761e-3
-1.786, 9.693e-3
-1.785, 9.638e-3
-1.784, 9.564e-3
-1.783, 9.487e-3
-1.782, 9.422e-3
-1.781, 9.364e-3
-1.780, 9.283e-3
-1.779, 9.200e-3
-1.778, 9.123e-3
-1.777, 9.064e-3
-1.776, 8.994e-3
-1.775, 8.935e-3
-1.774, 8.864e-3
-1.773, 8.796e-3
-1.772, 8.728e-3
-1.771, 8.661e-3
-1.770, 8.587e-3
-1.769, 8.510e-3
-1.768, 8.429e-3
-1.767, 8.362e-3
-1.766, 8.300e-3
-1.765, 8.272e-3
-1.764, 8.204e-3
-1.763, 8.143e-3
-1.762, 8.069e-3
-1.761, 7.995e-3
-1.760, 7.930e-3
-1.759, 7.862e-3
-1.758, 7.791e-3
-1.757, 7.726e-3
-1.756, 7.659e-3
-1.755, 7.603e-3
-1.754, 7.563e-3
-1.753, 7.504e-3
-1.752, 7.430e-3
-1.751, 7.366e-3
-1.750, 7.319e-3
-1.749, 7.267e-3
-1.748, 7.199e-3
-1.747, 7.138e-3
-1.746, 7.079e-3
-1.745, 7.020e-3
-1.744, 6.959e-3
-1.743, 6.891e-3
-1.742, 6.829e-3
-1.741, 6.789e-3
-1.740, 6.715e-3
-1.739, 6.650e-3
-1.738, 6.592e-3
-1.737, 6.536e-3
-1.736, 6.484e-3
-1.735, 6.496e-3
-1.734, 6.432e-3
-1.733, 6.345e-3
-1.732, 6.274e-3
-1.731, 6.219e-3
-1.730, 6.160e-3
-1.729, 6.099e-3
-1.728, 6.037e-3
-1.727, 5.981e-3
-1.726, 5.935e-3
-1.725, 5.880e-3
-1.724, 5.821e-3
-1.723, 5.766e-3
-1.722, 5.710e-3
-1.721, 5.661e-3
-1.720, 5.614e-3
-1.719, 5.556e-3
-1.718, 5.500e-3
-1.717, 5.448e-3
-1.716, 5.402e-3
-1.715, 5.349e-3
-1.714, 5.294e-3
-1.713, 5.238e-3
-1.712, 5.186e-3
-1.711, 5.140e-3
-1.710, 5.090e-3
-1.709, 5.038e-3
-1.708, 4.979e-3
-1.707, 4.933e-3
-1.706, 4.887e-3
-1.705, 4.844e-3
-1.704, 4.801e-3
-1.703, 4.742e-3
-1.702, 4.690e-3
-1.701, 4.659e-3
-1.700, 4.606e-3
-1.699, 4.557e-3
-1.698, 4.505e-3
-1.697, 4.452e-3
-1.696, 4.406e-3
-1.695, 4.363e-3
-1.694, 4.313e-3
-1.693, 4.261e-3
-1.692, 4.212e-3
-1.691, 4.169e-3
-1.690, 4.119e-3
-1.689, 4.070e-3
-1.688, 4.021e-3
-1.687, 3.971e-3
-1.686, 3.931e-3
-1.685, 3.888e-3
-1.684, 3.842e-3
-1.683, 3.792e-3
-1.682, 3.749e-3
-1.681, 3.712e-3
-1.680, 3.669e-3
-1.679, 3.623e-3
-1.678, 3.573e-3
-1.677, 3.533e-3
-1.676, 3.493e-3
-1.675, 3.450e-3
-1.674, 3.413e-3
-1.673, 3.367e-3
-1.672, 3.327e-3
-1.671, 3.287e-3
-1.670, 3.247e-3
-1.669, 3.204e-3
-1.668, 3.160e-3
-1.667, 3.120e-3
-1.666, 3.080e-3
-1.665, 3.040e-3
-1.664, 3.000e-3
-1.663, 2.957e-3
-1.662, 2.917e-3
-1.661, 2.886e-3
-1.660, 2.849e-3
-1.659, 2.806e-3
-1.658, 2.769e-3
-1.657, 2.729e-3
-1.656, 2.698e-3
-1.655, 2.664e-3
-1.654, 2.624e-3
-1.653, 2.584e-3
-1.652, 2.544e-3
-1.651, 2.510e-3
-1.650, 2.476e-3
-1.649, 2.442e-3
-1.648, 2.420e-3
-1.647, 2.383e-3
-1.646, 2.353e-3
-1.645, 2.319e-3
-1.644, 2.282e-3
-1.643, 2.245e-3
-1.642, 2.214e-3
-1.641, 2.183e-3
-1.640, 2.149e-3
-1.639, 2.118e-3
-1.638, 2.084e-3
-1.637, 2.050e-3
-1.636, 2.020e-3
-1.635, 1.989e-3
-1.634, 1.955e-3
-1.633, 1.921e-3
-1.632, 1.890e-3
-1.631, 1.859e-3
-1.630, 1.832e-3
-1.629, 1.801e-3
-1.628, 1.767e-3
-1.627, 1.739e-3
-1.626, 1.711e-3
-1.625, 1.684e-3
-1.624, 1.656e-3
-1.623, 1.625e-3
-1.622, 1.597e-3
-1.621, 1.569e-3
-1.620, 1.545e-3
-1.619, 1.517e-3
-1.618, 1.486e-3
-1.617, 1.458e-3
-1.616, 1.437e-3
-1.615, 1.412e-3
-1.614, 1.391e-3
-1.613, 1.360e-3
-1.612, 1.335e-3
-1.611, 1.314e-3
-1.610, 1.289e-3
-1.609, 1.264e-3
-1.608, 1.240e-3
-1.607, 1.215e-3
-1.606, 1.196e-3
-1.605, 1.175e-3
-1.604, 1.153e-3
-1.603, 1.129e-3
-1.602, 1.107e-3
-1.601, 1.085e-3
-1.600, 1.067e-3
-1.599, 1.045e-3
-1.598, 1.021e-3
-1.597, 1.002e-3
-1.596, 9.837e-4
-1.595, 9.652e-4
-1.594, 9.467e-4
-1.593, 9.251e-4
-1.592, 9.066e-4
-1.591, 8.912e-4
-1.590, 8.727e-4
-1.589, 8.542e-4
-1.588, 8.326e-4
-1.587, 8.172e-4
-1.586, 8.018e-4
-1.585, 7.863e-4
-1.584, 7.679e-4
-1.583, 7.494e-4
-1.582, 7.339e-4
-1.581, 7.185e-4
-1.580, 7.031e-4
-1.579, 6.877e-4
-1.578, 6.692e-4
-1.577, 6.538e-4
-1.576, 6.414e-4
-1.575, 6.291e-4
-1.574, 6.137e-4
-1.573, 5.983e-4
-1.572, 5.859e-4
-1.571, 5.736e-4
-1.570, 5.613e-4
-1.569, 5.489e-4
-1.568, 5.366e-4
-1.567, 5.243e-4
-1.566, 5.120e-4
-1.565, 5.027e-4
-1.564, 4.904e-4
-1.563, 4.780e-4
-1.562, 4.657e-4
-1.561, 4.565e-4
-1.560, 4.472e-4
-1.559, 4.380e-4
-1.558, 4.256e-4
-1.557, 4.164e-4
-1.556, 4.071e-4
-1.555, 4.010e-4
-1.554, 3.886e-4
-1.553, 3.794e-4
-1.552, 3.701e-4
-1.551, 3.640e-4
-1.550, 3.547e-4
-1.549, 3.455e-4
-1.548, 3.393e-4
-1.547, 3.300e-4
-1.546, 3.239e-4
-1.545, 3.177e-4
-1.544, 3.085e-4
-1.543, 2.992e-4
-1.542, 2.931e-4
-1.541, 2.869e-4
-1.540, 2.807e-4
-1.539, 2.746e-4
-1.538, 2.684e-4
-1.537, 2.622e-4
-1.536, 2.561e-4
-1.535, 2.499e-4
-1.534, 2.437e-4
-1.533, 2.376e-4
-1.532, 2.314e-4
-1.531, 2.283e-4
-1.530, 2.221e-4
-1.529, 2.191e-4
-1.528, 2.098e-4
-1.527, 2.067e-4
-1.526, 2.036e-4
-1.525, 1.975e-4
-1.524, 1.944e-4
-1.523, 1.882e-4
-1.522, 1.851e-4
-1.521, 1.790e-4
-1.520, 1.759e-4
-1.519, 1.728e-4
-1.518, 1.666e-4
-1.517, 1.636e-4
-1.516, 1.605e-4
-1.515, 1.574e-4
-1.514, 1.543e-4
-1.513, 1.512e-4
-1.512, 1.481e-4
-1.511, 1.451e-4
-1.510, 1.420e-4
-1.509, 1.358e-4
-1.508, 1.327e-4
-1.507, 1.327e-4
-1.506, 1.296e-4
-1.505, 1.266e-4
-1.504, 1.235e-4
-1.503, 1.204e-4
-1.502, 1.173e-4
-1.501, 1.173e-4
-1.500, 1.111e-4
-1.499, 1.111e-4
-1.498, 1.081e-4
-1.497, 1.050e-4
-1.496, 1.019e-4
-1.495, 1.019e-4
-1.494, 9.882e-5
-1.493, 9.573e-5
-1.492, 9.573e-5
-1.491, 9.265e-5
-1.490, 8.957e-5
-1.489, 8.957e-5
-1.488, 8.648e-5
-1.487, 8.648e-5
-1.486, 8.340e-5
-1.485, 8.340e-5
-1.484, 8.032e-5
-1.483, 7.723e-5
-1.482, 7.723e-5
-1.481, 7.415e-5
-1.480, 7.415e-5
-1.479, 7.107e-5
-1.478, 7.107e-5
-1.477, 6.798e-5
-1.476, 6.798e-5
-1.475, 6.490e-5
-1.474, 6.490e-5
-1.473, 6.182e-5
-1.472, 6.182e-5
-1.471, 6.182e-5
-1.470, 5.873e-5
-1.469, 5.873e-5
-1.468, 5.565e-5
-1.467, 5.565e-5
-1.466, 5.565e-5
-1.465, 5.257e-5
-1.464, 5.257e-5
-1.463, 4.949e-5
-1.462, 4.949e-5
-1.461, 4.949e-5
-1.460, 4.640e-5
-1.459, 4.640e-5
-1.458, 4.640e-5
-1.457, 4.332e-5
-1.456, 4.640e-5
-1.455, 4.332e-5
-1.454, 4.332e-5
-1.453, 4.024e-5
-1.452, 4.024e-5
-1.451, 4.024e-5
-1.450, 3.715e-5
-1.449, 3.715e-5
-1.448, 3.715e-5
-1.447, 3.715e-5
-1.446, 3.407e-5
-1.445, 3.407e-5
-1.444, 3.407e-5
-1.443, 3.407e-5
-1.442, 3.099e-5
-1.441, 3.099e-5
-1.440, 3.099e-5
-1.439, 2.790e-5
-1.438, 2.790e-5
-1.437, 2.790e-5
-1.436, 2.790e-5
-1.435, 2.790e-5
-1.434, 2.790e-5
-1.433, 2.790e-5
-1.432, 2.482e-5
-1.431, 2.482e-5
-1.430, 2.482e-5
-1.429, 2.482e-5
-1.428, 2.174e-5
-1.427, 2.174e-5
-1.426, 2.174e-5
-1.425, 2.174e-5
-1.424, 2.174e-5
-1.423, 2.174e-5
-1.422, 1.865e-5
-1.421, 2.174e-5
-1.420, 1.865e-5
-1.419, 1.865e-5
-1.418, 1.865e-5
-1.417, 1.865e-5
-1.416, 1.865e-5
-1.415, 1.865e-5
-1.414, 1.557e-5
-1.413, 1.557e-5
-1.412, 1.557e-5
-1.411, 1.557e-5
-1.410, 1.557e-5
-1.409, 1.557e-5
-1.408, 1.249e-5
-1.407, 1.249e-5
-1.406, 1.557e-5
-1.405, 1.557e-5
-1.404, 1.249e-5
-1.403, 1.249e-5
-1.402, 1.249e-5
-1.401, 1.249e-5
-1.400, 1.249e-5
-1.399, 1.249e-5
-1.398, 9.405e-6
-1.397, 1.249e-5
-1.396, 9.405e-6
-1.395, 9.405e-6
-1.394, 9.405e-6
-1.393, 9.405e-6
-1.392, 9.405e-6
-1.391, 9.405e-6
-1.390, 9.405e-6
-1.389, 9.405e-6
-1.388, 9.405e-6
-1.387, 9.405e-6
-1.386, 9.405e-6
-1.385, 9.405e-6
-1.384, 9.405e-6
-1.383, 6.322e-6
-1.382, 6.322e-6
-1.381, 6.322e-6
-1.380, 6.322e-6
-1.379, 6.322e-6
-1.378, 6.322e-6
-1.377, 6.322e-6
-1.376, 6.322e-6
-1.375, 6.322e-6
-1.374, 6.322e-6
-1.373, 6.322e-6
-1.372, 6.322e-6
-1.371, 6.322e-6
-1.370, 6.322e-6
-1.369, 3.239e-6
-1.368, 3.239e-6
-1.367, 6.322e-6
-1.366, 6.322e-6
-1.365, 3.239e-6
-1.364, 3.239e-6
-1.363, 3.239e-6
-1.362, 3.239e-6
-1.361, 3.239e-6
-1.360, 3.239e-6
-1.359, 3.239e-6
-1.358, 3.239e-6
-1.357, 3.239e-6
-1.356, 3.239e-6
-1.355, 3.239e-6
-1.354, 3.239e-6
-1.353, 3.239e-6
-1.352, 3.239e-6
-1.351, 3.239e-6
-1.350, 3.239e-6
-1.349, 3.239e-6
-1.348, 1.559e-7
-1.347, 1.559e-7
-1.346, 3.239e-6
-1.345, 1.559e-7
-1.344, 1.559e-7
-1.343, 1.559e-7
-1.342, 1.559e-7
-1.341, 3.239e-6
-1.340, 1.559e-7
-1.339, 1.559e-7
-1.338, 1.559e-7
-1.337, 1.559e-7
-1.336, 1.559e-7
-1.335, 1.559e-7
-1.334, 1.559e-7
-1.333, 1.559e-7
-1.332, 1.559e-7
-1.331, 1.559e-7
-1.330, 1.559e-7
-1.329, 1.559e-7
-1.328, 1.559e-7
-1.327, 1.559e-7
-1.326, 1.559e-7
-1.325, 1.559e-7
-1.324, -2.927e-6
-1.323, 1.559e-7
-1.322, 1.559e-7
-1.321, 1.559e-7
-1.320, 1.559e-7
-1.319, -2.927e-6
-1.318, 1.559e-7
-1.317, 1.559e-7
-1.316, 1.559e-7
-1.315, -2.927e-6
-1.314, 1.559e-7
-1.313, -2.927e-6
-1.312, -2.927e-6
-1.311, 1.559e-7
-1.310, 1.559e-7
-1.309, 1.559e-7
-1.308, -2.927e-6
-1.307, -2.927e-6
-1.306, 1.559e-7
-1.305, 1.559e-7
-1.304, -2.927e-6
-1.303, -2.927e-6
-1.302, 1.559e-7
-1.301, -2.927e-6
-1.300, -2.927e-6
-1.299, -2.927e-6
-1.298, -2.927e-6
-1.297, -2.927e-6
-1.296, -2.927e-6
-1.295, -2.927e-6
-1.294, -2.927e-6
-1.293, -2.927e-6
-1.292, -2.927e-6
-1.291, -2.927e-6
-1.290, -2.927e-6
-1.289, -2.927e-6
-1.288, -2.927e-6
-1.287, -2.927e-6
-1.286, -2.927e-6
-1.285, -2.927e-6
-1.284, -2.927e-6
-1.283, -2.927e-6
-1.282, -2.927e-6
-1.281, -2.927e-6
-1.280, -2.927e-6
-1.279, -2.927e-6
-1.278, -2.927e-6
-1.277, -2.927e-6
-1.276, -2.927e-6
-1.275, -2.927e-6
-1.274, -2.927e-6
-1.273, -2.927e-6
-1.272, -2.927e-6
-1.271, -2.927e-6
-1.270, -2.927e-6
-1.269, -2.927e-6
-1.268, -2.927e-6
-1.267, -2.927e-6
-1.266, -2.927e-6
-1.265, -2.927e-6
-1.264, -2.927e-6
-1.263, -2.927e-6
-1.262, -2.927e-6
-1.261, -2.927e-6
-1.260, -2.927e-6
-1.259, -2.927e-6
-1.258, -2.927e-6
-1.257, -2.927e-6
-1.256, -2.927e-6
-1.255, -2.927e-6
-1.254, -2.927e-6
-1.253, -6.010e-6
-1.252, -2.927e-6
-1.251, -2.927e-6
-1.250, -6.010e-6
-1.249, -2.927e-6
-1.248, -2.927e-6
-1.247, -2.927e-6
-1.246, -2.927e-6
-1.245, -6.010e-6
-1.244, -6.010e-6
-1.243, -2.927e-6
-1.242, -2.927e-6
-1.241, -6.010e-6
-1.240, -2.927e-6
-1.239, -2.927e-6
-1.238, -6.010e-6
-1.237, -2.927e-6
-1.236, -6.010e-6
-1.235, -6.010e-6
-1.234, -6.010e-6
-1.233, -6.010e-6
-1.232, -6.010e-6
-1.231, -2.927e-6
-1.230, -2.927e-6
-1.229, -6.010e-6
-1.228, -6.010e-6
-1.227, -6.010e-6
-1.226, -6.010e-6
-1.225, -6.010e-6
-1.224, -6.010e-6
-1.223, -6.010e-6
-1.222, -6.010e-6
-1.221, -6.010e-6
-1.220, -6.010e-6
-1.219, -6.010e-6
-1.218, -6.010e-6
-1.217, -6.010e-6
-1.216, -6.010e-6
-1.215, -6.010e-6
-1.214, -6.010e-6
-1.213, -6.010e-6
-1.212, -2.927e-6
-1.211, -2.927e-6
-1.210, -6.010e-6
-1.209, -6.010e-6
-1.208, -6.010e-6
-1.207, -6.010e-6
-1.206, -6.010e-6
-1.205, -6.010e-6
-1.204, -6.010e-6
-1.203, -6.010e-6
-1.202, -6.010e-6
-1.201, -6.010e-6
-1.200, -6.010e-6
-1.199, -6.010e-6
-1.198, -6.010e-6
-1.197, -6.010e-6
-1.196, -6.010e-6
-1.195, -6.010e-6
-1.194, -6.010e-6
-1.193, -6.010e-6
-1.192, -6.010e-6
-1.191, -6.010e-6
-1.190, -6.010e-6
-1.189, -6.010e-6
-1.188, -6.010e-6
-1.187, -6.010e-6
-1.186, -6.010e-6
-1.185, -6.010e-6
-1.184, -6.010e-6
-1.183, -6.010e-6
-1.182, -6.010e-6
-1.181, -6.010e-6
-1.180, -6.010e-6
-1.179, -6.010e-6
-1.178, -6.010e-6
-1.177, -6.010e-6
-1.176, -6.010e-6
-1.175, -6.010e-6
-1.174, -6.010e-6
-1.173, -6.010e-6
-1.172, -6.010e-6
-1.171, -6.010e-6
-1.170, -6.010e-6
-1.169, -6.010e-6
-1.168, -6.010e-6
-1.167, -6.010e-6
-1.166, -6.010e-6
-1.165, -6.010e-6
-1.164, -6.010e-6
-1.163, -6.010e-6
-1.162, -6.010e-6
-1.161, -6.010e-6
-1.160, -6.010e-6
-1.159, -6.010e-6
-1.158, -6.010e-6
-1.157, -6.010e-6
-1.156, -6.010e-6
-1.155, -6.010e-6
-1.154, -6.010e-6
-1.153, -6.010e-6
-1.152, -6.010e-6
-1.151, -9.093e-6
-1.150, -6.010e-6
-1.149, -6.010e-6
-1.148, -6.010e-6
-1.147, -6.010e-6
-1.146, -6.010e-6
-1.145, -9.093e-6
-1.144, -9.093e-6
-1.143, -9.093e-6
-1.142, -6.010e-6
-1.141, -6.010e-6
-1.140, -9.093e-6
-1.139, -9.093e-6
-1.138, -6.010e-6
-1.137, -9.093e-6
-1.136, -6.010e-6
-1.135, -9.093e-6
-1.134, -9.093e-6
-1.133, -9.093e-6
-1.132, -9.093e-6
-1.131, -6.010e-6
-1.130, -9.093e-6
-1.129, -9.093e-6
-1.128, -9.093e-6
-1.127, -9.093e-6
-1.126, -6.010e-6
-1.125, -9.093e-6
-1.124, -9.093e-6
-1.123, -9.093e-6
-1.122, -9.093e-6
-1.121, -9.093e-6
-1.120, -9.093e-6
-1.119, -9.093e-6
-1.118, -9.093e-6
-1.117, -9.093e-6
-1.116, -9.093e-6
-1.115, -9.093e-6
-1.114, -9.093e-6
-1.113, -9.093e-6
-1.112, -9.093e-6
-1.111, -9.093e-6
-1.110, -9.093e-6
-1.109, -9.093e-6
-1.108, -9.093e-6
-1.107, -9.093e-6
-1.106, -9.093e-6
-1.105, -9.093e-6
-1.104, -9.093e-6
-1.103, -9.093e-6
-1.102, -9.093e-6
-1.101, -9.093e-6
-1.100, -9.093e-6
-1.099, -9.093e-6
-1.098, -9.093e-6
-1.097, -9.093e-6
-1.096, -9.093e-6
-1.095, -9.093e-6
-1.094, -9.093e-6
-1.093, -9.093e-6
-1.092, -9.093e-6
-1.091, -9.093e-6
-1.090, -1.218e-5
-1.089, -9.093e-6
-1.088, -9.093e-6
-1.087, -9.093e-6
-1.086, -9.093e-6
-1.085, -1.218e-5
-1.084, -1.218e-5
-1.083, -1.218e-5
-1.082, -9.093e-6
-1.081, -1.218e-5
-1.080, -1.218e-5
-1.079, -1.218e-5
-1.078, -1.218e-5
-1.077, -1.218e-5
-1.076, -1.218e-5
-1.075, -1.218e-5
-1.074, -1.218e-5
-1.073, -1.218e-5
-1.072, -1.218e-5
-1.071, -1.218e-5
-1.070, -1.218e-5
-1.069, -1.218e-5
-1.068, -1.218e-5
-1.067, -1.218e-5
-1.066, -1.218e-5
-1.065, -1.526e-5
-1.064, -1.218e-5
-1.063, -1.218e-5
-1.062, -1.218e-5
-1.061, -1.218e-5
-1.060, -1.218e-5
-1.059, -1.526e-5
-1.058, -1.218e-5
-1.057, -1.526e-5
-1.056, -1.526e-5
-1.055, -1.526e-5
-1.054, -1.526e-5
-1.053, -1.526e-5
-1.052, -1.526e-5
-1.051, -1.526e-5
-1.050, -1.526e-5
-1.049, -1.526e-5
-1.048, -1.526e-5
-1.047, -1.526e-5
-1.046, -1.526e-5
-1.045, -1.526e-5
-1.044, -1.526e-5
-1.043, -1.526e-5
-1.042, -1.526e-5
-1.041, -1.526e-5
-1.040, -1.526e-5
-1.039, -1.526e-5
-1.038, -1.834e-5
-1.037, -1.526e-5
-1.036, -1.834e-5
-1.035, -1.834e-5
-1.034, -1.834e-5
-1.033, -1.834e-5
-1.032, -1.834e-5
-1.031, -1.834e-5
-1.030, -1.834e-5
-1.029, -1.834e-5
-1.028, -1.834e-5
-1.027, -1.834e-5
-1.026, -1.834e-5
-1.025, -1.834e-5
-1.024, -1.834e-5
-1.023, -2.143e-5
-1.022, -1.834e-5
-1.021, -1.834e-5
-1.020, -1.834e-5
-1.019, -2.143e-5
-1.018, -2.143e-5
-1.017, -2.143e-5
-1.016, -2.143e-5
-1.015, -2.143e-5
-1.014, -2.143e-5
-1.013, -2.143e-5
-1.012, -2.143e-5
-1.011, -2.143e-5
-1.010, -2.143e-5
-1.009, -2.143e-5
-1.008, -2.143e-5
-1.007, -2.143e-5
-1.006, -2.143e-5
-1.005, -2.143e-5
-1.004, -2.143e-5
-1.003, -2.143e-5
-1.002, -2.143e-5
-1.001, -2.143e-5
