Aug. 22, 2024   23:52:02
Cyclic Voltammetry
File: c:/users/guazh/data/20240813_batch_94_500/2024-08-15-exp164\exp164-2024-08-22t23_34_12-h2koh\exp164_cv_sr_100mvs_efin_-1700mv.bin
Data Source:  Experiment
Instrument Model:  CHI760E
Header: CV ran at 100 mVs
Note: 

Init E (V) = -1
High E (V) = -1
Low E (V) = -1.7
Final E (V) = -1
Init P/N = N
Scan Rate (V/s) = 0.1
Segment = 3
Sample Interval (V) = 0.001
Quiet Time (sec) = 2
Sensitivity (A/V) = 0.01
Comp R (ohm) = 2.0

Results:

Channel 1:
Segment 1:

Segment 2:

Segment 3:

Potential/V, Current/A

-1.000, -8.299e-6
-1.001, -2.171e-8
-1.002, 5.612e-6
-1.003, 9.094e-6
-1.004, 1.325e-5
-1.005, 1.644e-5
-1.006, 1.932e-5
-1.007, 2.300e-5
-1.008, 2.521e-5
-1.009, 2.840e-5
-1.010, 3.056e-5
-1.011, 3.253e-5
-1.012, 3.502e-5
-1.013, 3.657e-5
-1.014, 3.940e-5
-1.015, 4.142e-5
-1.016, 4.380e-5
-1.017, 4.701e-5
-1.018, 4.925e-5
-1.019, 5.196e-5
-1.020, 5.419e-5
-1.021, 5.576e-5
-1.022, 5.775e-5
-1.023, 5.865e-5
-1.024, 6.029e-5
-1.025, 6.117e-5
-1.026, 6.167e-5
-1.027, 6.275e-5
-1.028, 6.300e-5
-1.029, 6.430e-5
-1.030, 6.475e-5
-1.031, 6.542e-5
-1.032, 6.643e-5
-1.033, 6.637e-5
-1.034, 6.755e-5
-1.035, 6.793e-5
-1.036, 6.865e-5
-1.037, 7.040e-5
-1.038, 7.053e-5
-1.039, 7.200e-5
-1.040, 7.270e-5
-1.041, 7.342e-5
-1.042, 7.498e-5
-1.043, 7.509e-5
-1.044, 7.679e-5
-1.045, 7.742e-5
-1.046, 7.787e-5
-1.047, 7.896e-5
-1.048, 7.916e-5
-1.049, 8.069e-5
-1.050, 8.098e-5
-1.051, 8.159e-5
-1.052, 8.270e-5
-1.053, 8.218e-5
-1.054, 8.357e-5
-1.055, 8.376e-5
-1.056, 8.373e-5
-1.057, 8.442e-5
-1.058, 8.395e-5
-1.059, 8.462e-5
-1.060, 8.445e-5
-1.061, 8.419e-5
-1.062, 8.482e-5
-1.063, 8.412e-5
-1.064, 8.479e-5
-1.065, 8.486e-5
-1.066, 8.527e-5
-1.067, 8.588e-5
-1.068, 8.522e-5
-1.069, 8.558e-5
-1.070, 8.526e-5
-1.071, 8.493e-5
-1.072, 8.400e-5
-1.073, 8.466e-5
-1.074, 8.505e-5
-1.075, 8.467e-5
-1.076, 8.475e-5
-1.077, 8.513e-5
-1.078, 8.472e-5
-1.079, 8.483e-5
-1.080, 8.443e-5
-1.081, 8.396e-5
-1.082, 8.435e-5
-1.083, 8.347e-5
-1.084, 8.357e-5
-1.085, 8.293e-5
-1.086, 8.259e-5
-1.087, 8.295e-5
-1.088, 8.332e-5
-1.089, 8.471e-5
-1.090, 8.507e-5
-1.091, 8.478e-5
-1.092, 8.490e-5
-1.093, 8.416e-5
-1.094, 8.456e-5
-1.095, 8.433e-5
-1.096, 8.407e-5
-1.097, 8.419e-5
-1.098, 8.358e-5
-1.099, 8.375e-5
-1.100, 8.336e-5
-1.101, 8.307e-5
-1.102, 8.348e-5
-1.103, 8.281e-5
-1.104, 8.330e-5
-1.105, 8.345e-5
-1.106, 8.394e-5
-1.107, 8.452e-5
-1.108, 8.413e-5
-1.109, 8.439e-5
-1.110, 8.413e-5
-1.111, 8.423e-5
-1.112, 8.445e-5
-1.113, 8.380e-5
-1.114, 8.446e-5
-1.115, 8.416e-5
-1.116, 8.440e-5
-1.117, 8.487e-5
-1.118, 8.455e-5
-1.119, 8.523e-5
-1.120, 8.483e-5
-1.121, 8.463e-5
-1.122, 8.523e-5
-1.123, 8.438e-5
-1.124, 8.469e-5
-1.125, 8.431e-5
-1.126, 8.459e-5
-1.127, 8.569e-5
-1.128, 8.612e-5
-1.129, 8.677e-5
-1.130, 8.683e-5
-1.131, 8.658e-5
-1.132, 8.721e-5
-1.133, 8.687e-5
-1.134, 8.722e-5
-1.135, 8.707e-5
-1.136, 8.709e-5
-1.137, 8.752e-5
-1.138, 8.710e-5
-1.139, 8.754e-5
-1.140, 8.752e-5
-1.141, 8.805e-5
-1.142, 8.880e-5
-1.143, 8.854e-5
-1.144, 8.919e-5
-1.145, 8.918e-5
-1.146, 8.964e-5
-1.147, 9.016e-5
-1.148, 8.985e-5
-1.149, 9.036e-5
-1.150, 9.026e-5
-1.151, 9.066e-5
-1.152, 9.108e-5
-1.153, 9.082e-5
-1.154, 9.171e-5
-1.155, 9.149e-5
-1.156, 9.159e-5
-1.157, 9.194e-5
-1.158, 9.154e-5
-1.159, 9.256e-5
-1.160, 9.328e-5
-1.161, 9.400e-5
-1.162, 9.499e-5
-1.163, 9.465e-5
-1.164, 9.566e-5
-1.165, 9.572e-5
-1.166, 9.577e-5
-1.167, 9.615e-5
-1.168, 9.570e-5
-1.169, 9.654e-5
-1.170, 9.646e-5
-1.171, 9.702e-5
-1.172, 9.835e-5
-1.173, 9.817e-5
-1.174, 9.904e-5
-1.175, 9.921e-5
-1.176, 9.956e-5
-1.177, 1.004e-4
-1.178, 1.003e-4
-1.179, 1.009e-4
-1.180, 1.006e-4
-1.181, 1.008e-4
-1.182, 1.012e-4
-1.183, 9.990e-5
-1.184, 1.022e-4
-1.185, 1.028e-4
-1.186, 1.044e-4
-1.187, 1.051e-4
-1.188, 1.052e-4
-1.189, 1.062e-4
-1.190, 1.064e-4
-1.191, 1.066e-4
-1.192, 1.071e-4
-1.193, 1.069e-4
-1.194, 1.078e-4
-1.195, 1.080e-4
-1.196, 1.085e-4
-1.197, 1.093e-4
-1.198, 1.095e-4
-1.199, 1.104e-4
-1.200, 1.107e-4
-1.201, 1.110e-4
-1.202, 1.115e-4
-1.203, 1.113e-4
-1.204, 1.121e-4
-1.205, 1.119e-4
-1.206, 1.120e-4
-1.207, 1.130e-4
-1.208, 1.141e-4
-1.209, 1.164e-4
-1.210, 1.168e-4
-1.211, 1.173e-4
-1.212, 1.181e-4
-1.213, 1.178e-4
-1.214, 1.185e-4
-1.215, 1.187e-4
-1.216, 1.191e-4
-1.217, 1.197e-4
-1.218, 1.200e-4
-1.219, 1.209e-4
-1.220, 1.212e-4
-1.221, 1.217e-4
-1.222, 1.223e-4
-1.223, 1.224e-4
-1.224, 1.231e-4
-1.225, 1.231e-4
-1.226, 1.235e-4
-1.227, 1.236e-4
-1.228, 1.241e-4
-1.229, 1.263e-4
-1.230, 1.278e-4
-1.231, 1.285e-4
-1.232, 1.293e-4
-1.233, 1.293e-4
-1.234, 1.303e-4
-1.235, 1.305e-4
-1.236, 1.310e-4
-1.237, 1.313e-4
-1.238, 1.314e-4
-1.239, 1.324e-4
-1.240, 1.327e-4
-1.241, 1.335e-4
-1.242, 1.343e-4
-1.243, 1.340e-4
-1.244, 1.350e-4
-1.245, 1.351e-4
-1.246, 1.356e-4
-1.247, 1.360e-4
-1.248, 1.358e-4
-1.249, 1.370e-4
-1.250, 1.380e-4
-1.251, 1.394e-4
-1.252, 1.404e-4
-1.253, 1.405e-4
-1.254, 1.416e-4
-1.255, 1.419e-4
-1.256, 1.422e-4
-1.257, 1.430e-4
-1.258, 1.432e-4
-1.259, 1.438e-4
-1.260, 1.442e-4
-1.261, 1.445e-4
-1.262, 1.454e-4
-1.263, 1.454e-4
-1.264, 1.463e-4
-1.265, 1.465e-4
-1.266, 1.466e-4
-1.267, 1.471e-4
-1.268, 1.464e-4
-1.269, 1.465e-4
-1.270, 1.455e-4
-1.271, 1.458e-4
-1.272, 1.474e-4
-1.273, 1.498e-4
-1.274, 1.533e-4
-1.275, 1.543e-4
-1.276, 1.551e-4
-1.277, 1.559e-4
-1.278, 1.552e-4
-1.279, 1.559e-4
-1.280, 1.562e-4
-1.281, 1.565e-4
-1.282, 1.570e-4
-1.283, 1.566e-4
-1.284, 1.577e-4
-1.285, 1.577e-4
-1.286, 1.581e-4
-1.287, 1.588e-4
-1.288, 1.585e-4
-1.289, 1.589e-4
-1.290, 1.591e-4
-1.291, 1.591e-4
-1.292, 1.593e-4
-1.293, 1.583e-4
-1.294, 1.590e-4
-1.295, 1.600e-4
-1.296, 1.623e-4
-1.297, 1.643e-4
-1.298, 1.646e-4
-1.299, 1.655e-4
-1.300, 1.656e-4
-1.301, 1.659e-4
-1.302, 1.661e-4
-1.303, 1.656e-4
-1.304, 1.663e-4
-1.305, 1.662e-4
-1.306, 1.668e-4
-1.307, 1.681e-4
-1.308, 1.683e-4
-1.309, 1.692e-4
-1.310, 1.696e-4
-1.311, 1.703e-4
-1.312, 1.708e-4
-1.313, 1.706e-4
-1.314, 1.715e-4
-1.315, 1.718e-4
-1.316, 1.723e-4
-1.317, 1.729e-4
-1.318, 1.731e-4
-1.319, 1.743e-4
-1.320, 1.734e-4
-1.321, 1.751e-4
-1.322, 1.756e-4
-1.323, 1.752e-4
-1.324, 1.761e-4
-1.325, 1.760e-4
-1.326, 1.766e-4
-1.327, 1.771e-4
-1.328, 1.779e-4
-1.329, 1.800e-4
-1.330, 1.804e-4
-1.331, 1.812e-4
-1.332, 1.819e-4
-1.333, 1.820e-4
-1.334, 1.831e-4
-1.335, 1.832e-4
-1.336, 1.837e-4
-1.337, 1.842e-4
-1.338, 1.843e-4
-1.339, 1.861e-4
-1.340, 1.872e-4
-1.341, 1.883e-4
-1.342, 1.892e-4
-1.343, 1.894e-4
-1.344, 1.907e-4
-1.345, 1.912e-4
-1.346, 1.922e-4
-1.347, 1.930e-4
-1.348, 1.935e-4
-1.349, 1.948e-4
-1.350, 1.957e-4
-1.351, 1.970e-4
-1.352, 1.978e-4
-1.353, 1.984e-4
-1.354, 1.996e-4
-1.355, 2.002e-4
-1.356, 2.011e-4
-1.357, 2.021e-4
-1.358, 2.022e-4
-1.359, 2.032e-4
-1.360, 2.036e-4
-1.361, 2.057e-4
-1.362, 2.095e-4
-1.363, 2.110e-4
-1.364, 2.132e-4
-1.365, 2.140e-4
-1.366, 2.154e-4
-1.367, 2.165e-4
-1.368, 2.171e-4
-1.369, 2.189e-4
-1.370, 2.198e-4
-1.371, 2.211e-4
-1.372, 2.228e-4
-1.373, 2.251e-4
-1.374, 2.276e-4
-1.375, 2.291e-4
-1.376, 2.312e-4
-1.377, 2.331e-4
-1.378, 2.338e-4
-1.379, 2.361e-4
-1.380, 2.372e-4
-1.381, 2.389e-4
-1.382, 2.414e-4
-1.383, 2.435e-4
-1.384, 2.461e-4
-1.385, 2.480e-4
-1.386, 2.505e-4
-1.387, 2.527e-4
-1.388, 2.540e-4
-1.389, 2.560e-4
-1.390, 2.572e-4
-1.391, 2.590e-4
-1.392, 2.603e-4
-1.393, 2.616e-4
-1.394, 2.649e-4
-1.395, 2.688e-4
-1.396, 2.740e-4
-1.397, 2.767e-4
-1.398, 2.786e-4
-1.399, 2.814e-4
-1.400, 2.831e-4
-1.401, 2.854e-4
-1.402, 2.876e-4
-1.403, 2.893e-4
-1.404, 2.922e-4
-1.405, 2.952e-4
-1.406, 2.990e-4
-1.407, 3.023e-4
-1.408, 3.051e-4
-1.409, 3.084e-4
-1.410, 3.108e-4
-1.411, 3.133e-4
-1.412, 3.158e-4
-1.413, 3.174e-4
-1.414, 3.202e-4
-1.415, 3.225e-4
-1.416, 3.262e-4
-1.417, 3.314e-4
-1.418, 3.356e-4
-1.419, 3.399e-4
-1.420, 3.428e-4
-1.421, 3.459e-4
-1.422, 3.493e-4
-1.423, 3.515e-4
-1.424, 3.548e-4
-1.425, 3.574e-4
-1.426, 3.613e-4
-1.427, 3.654e-4
-1.428, 3.687e-4
-1.429, 3.730e-4
-1.430, 3.761e-4
-1.431, 3.801e-4
-1.432, 3.831e-4
-1.433, 3.859e-4
-1.434, 3.901e-4
-1.435, 3.924e-4
-1.436, 3.961e-4
-1.437, 4.000e-4
-1.438, 4.052e-4
-1.439, 4.123e-4
-1.440, 4.162e-4
-1.441, 4.209e-4
-1.442, 4.251e-4
-1.443, 4.279e-4
-1.444, 4.314e-4
-1.445, 4.342e-4
-1.446, 4.379e-4
-1.447, 4.409e-4
-1.448, 4.428e-4
-1.449, 4.487e-4
-1.450, 4.553e-4
-1.451, 4.659e-4
-1.452, 4.735e-4
-1.453, 4.775e-4
-1.454, 4.822e-4
-1.455, 4.861e-4
-1.456, 4.907e-4
-1.457, 4.964e-4
-1.458, 5.015e-4
-1.459, 5.071e-4
-1.460, 5.114e-4
-1.461, 5.158e-4
-1.462, 5.199e-4
-1.463, 5.241e-4
-1.464, 5.287e-4
-1.465, 5.340e-4
-1.466, 5.417e-4
-1.467, 5.508e-4
-1.468, 5.593e-4
-1.469, 5.662e-4
-1.470, 5.716e-4
-1.471, 5.780e-4
-1.472, 5.828e-4
-1.473, 5.872e-4
-1.474, 5.930e-4
-1.475, 5.975e-4
-1.476, 6.050e-4
-1.477, 6.132e-4
-1.478, 6.235e-4
-1.479, 6.332e-4
-1.480, 6.398e-4
-1.481, 6.474e-4
-1.482, 6.536e-4
-1.483, 6.601e-4
-1.484, 6.666e-4
-1.485, 6.712e-4
-1.486, 6.772e-4
-1.487, 6.830e-4
-1.488, 6.871e-4
-1.489, 6.973e-4
-1.490, 7.124e-4
-1.491, 7.330e-4
-1.492, 7.407e-4
-1.493, 7.498e-4
-1.494, 7.587e-4
-1.495, 7.658e-4
-1.496, 7.743e-4
-1.497, 7.865e-4
-1.498, 7.953e-4
-1.499, 8.053e-4
-1.500, 8.136e-4
-1.501, 8.221e-4
-1.502, 8.295e-4
-1.503, 8.449e-4
-1.504, 8.604e-4
-1.505, 8.690e-4
-1.506, 8.808e-4
-1.507, 8.924e-4
-1.508, 9.040e-4
-1.509, 9.164e-4
-1.510, 9.267e-4
-1.511, 9.379e-4
-1.512, 9.467e-4
-1.513, 9.562e-4
-1.514, 9.670e-4
-1.515, 9.759e-4
-1.516, 1.003e-3
-1.517, 1.025e-3
-1.518, 1.036e-3
-1.519, 1.051e-3
-1.520, 1.065e-3
-1.521, 1.080e-3
-1.522, 1.095e-3
-1.523, 1.109e-3
-1.524, 1.123e-3
-1.525, 1.134e-3
-1.526, 1.145e-3
-1.527, 1.152e-3
-1.528, 1.155e-3
-1.529, 1.159e-3
-1.530, 1.172e-3
-1.531, 1.199e-3
-1.532, 1.237e-3
-1.533, 1.291e-3
-1.534, 1.323e-3
-1.535, 1.331e-3
-1.536, 1.350e-3
-1.537, 1.368e-3
-1.538, 1.384e-3
-1.539, 1.400e-3
-1.540, 1.414e-3
-1.541, 1.430e-3
-1.542, 1.448e-3
-1.543, 1.470e-3
-1.544, 1.499e-3
-1.545, 1.527e-3
-1.546, 1.556e-3
-1.547, 1.582e-3
-1.548, 1.601e-3
-1.549, 1.623e-3
-1.550, 1.637e-3
-1.551, 1.653e-3
-1.552, 1.669e-3
-1.553, 1.682e-3
-1.554, 1.695e-3
-1.555, 1.716e-3
-1.556, 1.753e-3
-1.557, 1.808e-3
-1.558, 1.850e-3
-1.559, 1.880e-3
-1.560, 1.904e-3
-1.561, 1.930e-3
-1.562, 1.952e-3
-1.563, 1.973e-3
-1.564, 1.997e-3
-1.565, 2.025e-3
-1.566, 2.060e-3
-1.567, 2.095e-3
-1.568, 2.123e-3
-1.569, 2.149e-3
-1.570, 2.169e-3
-1.571, 2.185e-3
-1.572, 2.202e-3
-1.573, 2.216e-3
-1.574, 2.232e-3
-1.575, 2.243e-3
-1.576, 2.268e-3
-1.577, 2.325e-3
-1.578, 2.401e-3
-1.579, 2.454e-3
-1.580, 2.480e-3
-1.581, 2.512e-3
-1.582, 2.542e-3
-1.583, 2.573e-3
-1.584, 2.609e-3
-1.585, 2.637e-3
-1.586, 2.668e-3
-1.587, 2.700e-3
-1.588, 2.732e-3
-1.589, 2.761e-3
-1.590, 2.786e-3
-1.591, 2.807e-3
-1.592, 2.821e-3
-1.593, 2.836e-3
-1.594, 2.845e-3
-1.595, 2.850e-3
-1.596, 2.872e-3
-1.597, 2.927e-3
-1.598, 3.016e-3
-1.599, 3.090e-3
-1.600, 3.138e-3
-1.601, 3.185e-3
-1.602, 3.224e-3
-1.603, 3.250e-3
-1.604, 3.270e-3
-1.605, 3.282e-3
-1.606, 3.303e-3
-1.607, 3.330e-3
-1.608, 3.362e-3
-1.609, 3.415e-3
-1.610, 3.483e-3
-1.611, 3.542e-3
-1.612, 3.590e-3
-1.613, 3.628e-3
-1.614, 3.661e-3
-1.615, 3.680e-3
-1.616, 3.687e-3
-1.617, 3.691e-3
-1.618, 3.707e-3
-1.619, 3.722e-3
-1.620, 3.761e-3
-1.621, 3.834e-3
-1.622, 3.939e-3
-1.623, 4.027e-3
-1.624, 4.076e-3
-1.625, 4.109e-3
-1.626, 4.133e-3
-1.627, 4.144e-3
-1.628, 4.148e-3
-1.629, 4.158e-3
-1.630, 4.163e-3
-1.631, 4.181e-3
-1.632, 4.208e-3
-1.633, 4.276e-3
-1.634, 4.377e-3
-1.635, 4.454e-3
-1.636, 4.512e-3
-1.637, 4.546e-3
-1.638, 4.573e-3
-1.639, 4.582e-3
-1.640, 4.580e-3
-1.641, 4.573e-3
-1.642, 4.579e-3
-1.643, 4.596e-3
-1.644, 4.655e-3
-1.645, 4.750e-3
-1.646, 4.849e-3
-1.647, 4.917e-3
-1.648, 4.960e-3
-1.649, 4.992e-3
-1.650, 5.012e-3
-1.651, 5.029e-3
-1.652, 5.040e-3
-1.653, 5.057e-3
-1.654, 5.089e-3
-1.655, 5.140e-3
-1.656, 5.213e-3
-1.657, 5.282e-3
-1.658, 5.330e-3
-1.659, 5.365e-3
-1.660, 5.381e-3
-1.661, 5.364e-3
-1.662, 5.350e-3
-1.663, 5.419e-3
-1.664, 5.548e-3
-1.665, 5.583e-3
-1.666, 5.624e-3
-1.667, 5.658e-3
-1.668, 5.698e-3
-1.669, 5.740e-3
-1.670, 5.769e-3
-1.671, 5.794e-3
-1.672, 5.799e-3
-1.673, 5.786e-3
-1.674, 5.770e-3
-1.675, 5.760e-3
-1.676, 5.756e-3
-1.677, 5.763e-3
-1.678, 5.810e-3
-1.679, 5.920e-3
-1.680, 6.043e-3
-1.681, 6.128e-3
-1.682, 6.165e-3
-1.683, 6.187e-3
-1.684, 6.199e-3
-1.685, 6.196e-3
-1.686, 6.184e-3
-1.687, 6.187e-3
-1.688, 6.215e-3
-1.689, 6.281e-3
-1.690, 6.375e-3
-1.691, 6.460e-3
-1.692, 6.523e-3
-1.693, 6.561e-3
-1.694, 6.580e-3
-1.695, 6.582e-3
-1.696, 6.565e-3
-1.697, 6.546e-3
-1.698, 6.544e-3
-1.699, 6.549e-3
-1.700, 6.533e-3
-1.699, 6.538e-3
-1.698, 6.632e-3
-1.697, 6.717e-3
-1.696, 6.684e-3
-1.695, 6.647e-3
-1.694, 6.607e-3
-1.693, 6.551e-3
-1.692, 6.478e-3
-1.691, 6.383e-3
-1.690, 6.279e-3
-1.689, 6.182e-3
-1.688, 6.100e-3
-1.687, 6.030e-3
-1.686, 6.002e-3
-1.685, 6.052e-3
-1.684, 6.184e-3
-1.683, 6.144e-3
-1.682, 6.105e-3
-1.681, 6.066e-3
-1.680, 6.015e-3
-1.679, 5.952e-3
-1.678, 5.868e-3
-1.677, 5.770e-3
-1.676, 5.683e-3
-1.675, 5.581e-3
-1.674, 5.465e-3
-1.673, 5.379e-3
-1.672, 5.356e-3
-1.671, 5.435e-3
-1.670, 5.546e-3
-1.669, 5.591e-3
-1.668, 5.559e-3
-1.667, 5.515e-3
-1.666, 5.462e-3
-1.665, 5.381e-3
-1.664, 5.298e-3
-1.663, 5.223e-3
-1.662, 5.156e-3
-1.661, 5.111e-3
-1.660, 5.109e-3
-1.659, 5.145e-3
-1.658, 5.150e-3
-1.657, 5.133e-3
-1.656, 5.094e-3
-1.655, 5.044e-3
-1.654, 4.983e-3
-1.653, 4.916e-3
-1.652, 4.856e-3
-1.651, 4.824e-3
-1.650, 4.807e-3
-1.649, 4.802e-3
-1.648, 4.796e-3
-1.647, 4.771e-3
-1.646, 4.730e-3
-1.645, 4.673e-3
-1.644, 4.600e-3
-1.643, 4.528e-3
-1.642, 4.457e-3
-1.641, 4.398e-3
-1.640, 4.342e-3
-1.639, 4.311e-3
-1.638, 4.320e-3
-1.637, 4.361e-3
-1.636, 4.364e-3
-1.635, 4.342e-3
-1.634, 4.310e-3
-1.633, 4.266e-3
-1.632, 4.211e-3
-1.631, 4.149e-3
-1.630, 4.078e-3
-1.629, 4.019e-3
-1.628, 3.967e-3
-1.627, 3.948e-3
-1.626, 3.972e-3
-1.625, 4.002e-3
-1.624, 3.992e-3
-1.623, 3.962e-3
-1.622, 3.925e-3
-1.621, 3.882e-3
-1.620, 3.834e-3
-1.619, 3.782e-3
-1.618, 3.734e-3
-1.617, 3.702e-3
-1.616, 3.691e-3
-1.615, 3.680e-3
-1.614, 3.668e-3
-1.613, 3.641e-3
-1.612, 3.606e-3
-1.611, 3.565e-3
-1.610, 3.517e-3
-1.609, 3.474e-3
-1.608, 3.441e-3
-1.607, 3.416e-3
-1.606, 3.405e-3
-1.605, 3.409e-3
-1.604, 3.387e-3
-1.603, 3.361e-3
-1.602, 3.322e-3
-1.601, 3.278e-3
-1.600, 3.228e-3
-1.599, 3.172e-3
-1.598, 3.115e-3
-1.597, 3.057e-3
-1.596, 3.004e-3
-1.595, 2.949e-3
-1.594, 2.949e-3
-1.593, 3.034e-3
-1.592, 3.071e-3
-1.591, 3.048e-3
-1.590, 3.022e-3
-1.589, 2.994e-3
-1.588, 2.958e-3
-1.587, 2.920e-3
-1.586, 2.881e-3
-1.585, 2.844e-3
-1.584, 2.823e-3
-1.583, 2.809e-3
-1.582, 2.794e-3
-1.581, 2.777e-3
-1.580, 2.751e-3
-1.579, 2.727e-3
-1.578, 2.694e-3
-1.577, 2.659e-3
-1.576, 2.620e-3
-1.575, 2.583e-3
-1.574, 2.556e-3
-1.573, 2.539e-3
-1.572, 2.531e-3
-1.571, 2.522e-3
-1.570, 2.508e-3
-1.569, 2.489e-3
-1.568, 2.467e-3
-1.567, 2.440e-3
-1.566, 2.406e-3
-1.565, 2.367e-3
-1.564, 2.325e-3
-1.563, 2.284e-3
-1.562, 2.253e-3
-1.561, 2.249e-3
-1.560, 2.261e-3
-1.559, 2.262e-3
-1.558, 2.250e-3
-1.557, 2.231e-3
-1.556, 2.210e-3
-1.555, 2.185e-3
-1.554, 2.164e-3
-1.553, 2.146e-3
-1.552, 2.121e-3
-1.551, 2.095e-3
-1.550, 2.069e-3
-1.549, 2.039e-3
-1.548, 2.006e-3
-1.547, 1.974e-3
-1.546, 1.946e-3
-1.545, 1.926e-3
-1.544, 1.927e-3
-1.543, 1.929e-3
-1.542, 1.917e-3
-1.541, 1.904e-3
-1.540, 1.885e-3
-1.539, 1.865e-3
-1.538, 1.839e-3
-1.537, 1.811e-3
-1.536, 1.783e-3
-1.535, 1.757e-3
-1.534, 1.739e-3
-1.533, 1.730e-3
-1.532, 1.721e-3
-1.531, 1.710e-3
-1.530, 1.697e-3
-1.529, 1.680e-3
-1.528, 1.662e-3
-1.527, 1.639e-3
-1.526, 1.614e-3
-1.525, 1.587e-3
-1.524, 1.569e-3
-1.523, 1.549e-3
-1.522, 1.539e-3
-1.521, 1.528e-3
-1.520, 1.517e-3
-1.519, 1.506e-3
-1.518, 1.488e-3
-1.517, 1.470e-3
-1.516, 1.449e-3
-1.515, 1.426e-3
-1.514, 1.397e-3
-1.513, 1.370e-3
-1.512, 1.345e-3
-1.511, 1.334e-3
-1.510, 1.337e-3
-1.509, 1.337e-3
-1.508, 1.327e-3
-1.507, 1.316e-3
-1.506, 1.302e-3
-1.505, 1.286e-3
-1.504, 1.267e-3
-1.503, 1.244e-3
-1.502, 1.216e-3
-1.501, 1.190e-3
-1.500, 1.163e-3
-1.499, 1.141e-3
-1.498, 1.138e-3
-1.497, 1.176e-3
-1.496, 1.169e-3
-1.495, 1.157e-3
-1.494, 1.141e-3
-1.493, 1.125e-3
-1.492, 1.107e-3
-1.491, 1.092e-3
-1.490, 1.078e-3
-1.489, 1.063e-3
-1.488, 1.045e-3
-1.487, 1.021e-3
-1.486, 1.008e-3
-1.485, 9.949e-4
-1.484, 9.834e-4
-1.483, 9.731e-4
-1.482, 9.647e-4
-1.481, 9.591e-4
-1.480, 9.487e-4
-1.479, 9.391e-4
-1.478, 9.268e-4
-1.477, 9.108e-4
-1.476, 8.937e-4
-1.475, 8.872e-4
-1.474, 8.799e-4
-1.473, 8.735e-4
-1.472, 8.626e-4
-1.471, 8.502e-4
-1.470, 8.352e-4
-1.469, 8.233e-4
-1.468, 8.135e-4
-1.467, 8.019e-4
-1.466, 7.904e-4
-1.465, 7.730e-4
-1.464, 7.533e-4
-1.463, 7.326e-4
-1.462, 7.136e-4
-1.461, 7.057e-4
-1.460, 7.142e-4
-1.459, 7.230e-4
-1.458, 7.173e-4
-1.457, 7.111e-4
-1.456, 7.022e-4
-1.455, 6.910e-4
-1.454, 6.781e-4
-1.453, 6.655e-4
-1.452, 6.532e-4
-1.451, 6.428e-4
-1.450, 6.307e-4
-1.449, 6.218e-4
-1.448, 6.163e-4
-1.447, 6.062e-4
-1.446, 5.973e-4
-1.445, 5.862e-4
-1.444, 5.753e-4
-1.443, 5.623e-4
-1.442, 5.484e-4
-1.441, 5.373e-4
-1.440, 5.276e-4
-1.439, 5.230e-4
-1.438, 5.177e-4
-1.437, 5.089e-4
-1.436, 5.025e-4
-1.435, 4.940e-4
-1.434, 4.852e-4
-1.433, 4.757e-4
-1.432, 4.634e-4
-1.431, 4.532e-4
-1.430, 4.394e-4
-1.429, 4.282e-4
-1.428, 4.197e-4
-1.427, 4.157e-4
-1.426, 4.204e-4
-1.425, 4.168e-4
-1.424, 4.082e-4
-1.423, 3.999e-4
-1.422, 3.904e-4
-1.421, 3.823e-4
-1.420, 3.732e-4
-1.419, 3.652e-4
-1.418, 3.568e-4
-1.417, 3.473e-4
-1.416, 3.392e-4
-1.415, 3.300e-4
-1.414, 3.225e-4
-1.413, 3.182e-4
-1.412, 3.165e-4
-1.411, 3.117e-4
-1.410, 3.049e-4
-1.409, 2.989e-4
-1.408, 2.917e-4
-1.407, 2.848e-4
-1.406, 2.787e-4
-1.405, 2.720e-4
-1.404, 2.658e-4
-1.403, 2.601e-4
-1.402, 2.549e-4
-1.401, 2.502e-4
-1.400, 2.444e-4
-1.399, 2.403e-4
-1.398, 2.354e-4
-1.397, 2.295e-4
-1.396, 2.246e-4
-1.395, 2.188e-4
-1.394, 2.136e-4
-1.393, 2.083e-4
-1.392, 2.027e-4
-1.391, 1.986e-4
-1.390, 1.946e-4
-1.389, 1.924e-4
-1.388, 1.891e-4
-1.387, 1.849e-4
-1.386, 1.814e-4
-1.385, 1.768e-4
-1.384, 1.729e-4
-1.383, 1.680e-4
-1.382, 1.641e-4
-1.381, 1.608e-4
-1.380, 1.564e-4
-1.379, 1.529e-4
-1.378, 1.491e-4
-1.377, 1.445e-4
-1.376, 1.407e-4
-1.375, 1.371e-4
-1.374, 1.344e-4
-1.373, 1.333e-4
-1.372, 1.306e-4
-1.371, 1.285e-4
-1.370, 1.254e-4
-1.369, 1.227e-4
-1.368, 1.201e-4
-1.367, 1.168e-4
-1.366, 1.144e-4
-1.365, 1.114e-4
-1.364, 1.089e-4
-1.363, 1.066e-4
-1.362, 1.036e-4
-1.361, 1.014e-4
-1.360, 9.889e-5
-1.359, 9.667e-5
-1.358, 9.446e-5
-1.357, 9.174e-5
-1.356, 8.961e-5
-1.355, 8.698e-5
-1.354, 8.452e-5
-1.353, 8.252e-5
-1.352, 8.045e-5
-1.351, 7.905e-5
-1.350, 7.705e-5
-1.349, 7.515e-5
-1.348, 7.349e-5
-1.347, 7.118e-5
-1.346, 6.980e-5
-1.345, 6.765e-5
-1.344, 6.538e-5
-1.343, 6.394e-5
-1.342, 6.178e-5
-1.341, 6.099e-5
-1.340, 5.841e-5
-1.339, 5.667e-5
-1.338, 5.522e-5
-1.337, 5.319e-5
-1.336, 5.201e-5
-1.335, 4.985e-5
-1.334, 4.813e-5
-1.333, 4.669e-5
-1.332, 4.460e-5
-1.331, 4.326e-5
-1.330, 4.140e-5
-1.329, 3.978e-5
-1.328, 3.834e-5
-1.327, 3.617e-5
-1.326, 3.501e-5
-1.325, 3.336e-5
-1.324, 3.167e-5
-1.323, 3.023e-5
-1.322, 2.827e-5
-1.321, 2.725e-5
-1.320, 2.526e-5
-1.319, 2.397e-5
-1.318, 2.240e-5
-1.317, 2.074e-5
-1.316, 1.960e-5
-1.315, 1.710e-5
-1.314, 1.586e-5
-1.313, 1.445e-5
-1.312, 1.271e-5
-1.311, 1.171e-5
-1.310, 9.607e-6
-1.309, 8.354e-6
-1.308, 6.786e-6
-1.307, 4.990e-6
-1.306, 3.915e-6
-1.305, 1.626e-6
-1.304, 3.039e-7
-1.303, -1.314e-6
-1.302, -3.396e-6
-1.301, -4.619e-6
-1.300, -7.056e-6
-1.299, -8.575e-6
-1.298, -1.017e-5
-1.297, -1.222e-5
-1.296, -1.331e-5
-1.295, -1.590e-5
-1.294, -1.717e-5
-1.293, -1.859e-5
-1.292, -2.060e-5
-1.291, -2.177e-5
-1.290, -2.372e-5
-1.289, -2.475e-5
-1.288, -2.596e-5
-1.287, -2.760e-5
-1.286, -2.848e-5
-1.285, -2.990e-5
-1.284, -3.109e-5
-1.283, -3.221e-5
-1.282, -3.350e-5
-1.281, -3.436e-5
-1.280, -3.622e-5
-1.279, -3.718e-5
-1.278, -3.805e-5
-1.277, -3.934e-5
-1.276, -3.996e-5
-1.275, -4.123e-5
-1.274, -4.190e-5
-1.273, -4.294e-5
-1.272, -4.401e-5
-1.271, -4.451e-5
-1.270, -4.594e-5
-1.269, -4.635e-5
-1.268, -4.742e-5
-1.267, -4.879e-5
-1.266, -4.897e-5
-1.265, -5.029e-5
-1.264, -5.040e-5
-1.263, -5.086e-5
-1.262, -5.214e-5
-1.261, -5.210e-5
-1.260, -5.345e-5
-1.259, -5.369e-5
-1.258, -5.416e-5
-1.257, -5.509e-5
-1.256, -5.509e-5
-1.255, -5.584e-5
-1.254, -5.632e-5
-1.253, -5.672e-5
-1.252, -5.745e-5
-1.251, -5.777e-5
-1.250, -5.887e-5
-1.249, -5.962e-5
-1.248, -5.961e-5
-1.247, -6.028e-5
-1.246, -6.053e-5
-1.245, -6.125e-5
-1.244, -6.126e-5
-1.243, -6.140e-5
-1.242, -6.210e-5
-1.241, -6.196e-5
-1.240, -6.270e-5
-1.239, -6.247e-5
-1.238, -6.274e-5
-1.237, -6.312e-5
-1.236, -6.304e-5
-1.235, -6.414e-5
-1.234, -6.433e-5
-1.233, -6.469e-5
-1.232, -6.517e-5
-1.231, -6.498e-5
-1.230, -6.558e-5
-1.229, -6.577e-5
-1.228, -6.568e-5
-1.227, -6.609e-5
-1.226, -6.574e-5
-1.225, -6.639e-5
-1.224, -6.649e-5
-1.223, -6.639e-5
-1.222, -6.670e-5
-1.221, -6.609e-5
-1.220, -6.659e-5
-1.219, -6.629e-5
-1.218, -6.633e-5
-1.217, -6.669e-5
-1.216, -6.613e-5
-1.215, -6.634e-5
-1.214, -6.662e-5
-1.213, -6.702e-5
-1.212, -6.763e-5
-1.211, -6.683e-5
-1.210, -6.696e-5
-1.209, -6.670e-5
-1.208, -6.642e-5
-1.207, -6.676e-5
-1.206, -6.611e-5
-1.205, -6.624e-5
-1.204, -6.627e-5
-1.203, -6.620e-5
-1.202, -6.631e-5
-1.201, -6.591e-5
-1.200, -6.619e-5
-1.199, -6.581e-5
-1.198, -6.567e-5
-1.197, -6.572e-5
-1.196, -6.514e-5
-1.195, -6.543e-5
-1.194, -6.480e-5
-1.193, -6.486e-5
-1.192, -6.503e-5
-1.191, -6.481e-5
-1.190, -6.533e-5
-1.189, -6.510e-5
-1.188, -6.498e-5
-1.187, -6.495e-5
-1.186, -6.433e-5
-1.185, -6.459e-5
-1.184, -6.423e-5
-1.183, -6.381e-5
-1.182, -6.389e-5
-1.181, -6.330e-5
-1.180, -6.407e-5
-1.179, -6.409e-5
-1.178, -6.429e-5
-1.177, -6.469e-5
-1.176, -6.397e-5
-1.175, -6.443e-5
-1.174, -6.405e-5
-1.173, -6.393e-5
-1.172, -6.413e-5
-1.171, -6.379e-5
-1.170, -6.397e-5
-1.169, -6.393e-5
-1.168, -6.389e-5
-1.167, -6.449e-5
-1.166, -6.428e-5
-1.165, -6.467e-5
-1.164, -6.448e-5
-1.163, -6.444e-5
-1.162, -6.464e-5
-1.161, -6.430e-5
-1.160, -6.469e-5
-1.159, -6.484e-5
-1.158, -6.491e-5
-1.157, -6.525e-5
-1.156, -6.526e-5
-1.155, -6.580e-5
-1.154, -6.596e-5
-1.153, -6.608e-5
-1.152, -6.634e-5
-1.151, -6.628e-5
-1.150, -6.668e-5
-1.149, -6.665e-5
-1.148, -6.675e-5
-1.147, -6.715e-5
-1.146, -6.672e-5
-1.145, -6.767e-5
-1.144, -6.809e-5
-1.143, -6.874e-5
-1.142, -6.949e-5
-1.141, -6.903e-5
-1.140, -6.969e-5
-1.139, -6.991e-5
-1.138, -7.012e-5
-1.137, -7.071e-5
-1.136, -7.073e-5
-1.135, -7.144e-5
-1.134, -7.200e-5
-1.133, -7.250e-5
-1.132, -7.323e-5
-1.131, -7.324e-5
-1.130, -7.394e-5
-1.129, -7.430e-5
-1.128, -7.462e-5
-1.127, -7.578e-5
-1.126, -7.579e-5
-1.125, -7.686e-5
-1.124, -7.748e-5
-1.123, -7.831e-5
-1.122, -7.928e-5
-1.121, -7.957e-5
-1.120, -8.045e-5
-1.119, -8.061e-5
-1.118, -8.102e-5
-1.117, -8.195e-5
-1.116, -8.223e-5
-1.115, -8.350e-5
-1.114, -8.397e-5
-1.113, -8.478e-5
-1.112, -8.589e-5
-1.111, -8.612e-5
-1.110, -8.710e-5
-1.109, -8.756e-5
-1.108, -8.795e-5
-1.107, -8.857e-5
-1.106, -8.861e-5
-1.105, -8.987e-5
-1.104, -9.015e-5
-1.103, -9.137e-5
-1.102, -9.256e-5
-1.101, -9.290e-5
-1.100, -9.409e-5
-1.099, -9.448e-5
-1.098, -9.486e-5
-1.097, -9.574e-5
-1.096, -9.545e-5
-1.095, -9.645e-5
-1.094, -9.693e-5
-1.093, -9.759e-5
-1.092, -9.879e-5
-1.091, -9.953e-5
-1.090, -1.010e-4
-1.089, -1.013e-4
-1.088, -1.019e-4
-1.087, -1.029e-4
-1.086, -1.029e-4
-1.085, -1.039e-4
-1.084, -1.044e-4
-1.083, -1.051e-4
-1.082, -1.061e-4
-1.081, -1.067e-4
-1.080, -1.073e-4
-1.079, -1.074e-4
-1.078, -1.079e-4
-1.077, -1.086e-4
-1.076, -1.089e-4
-1.075, -1.103e-4
-1.074, -1.103e-4
-1.073, -1.113e-4
-1.072, -1.127e-4
-1.071, -1.139e-4
-1.070, -1.153e-4
-1.069, -1.157e-4
-1.068, -1.163e-4
-1.067, -1.171e-4
-1.066, -1.174e-4
-1.065, -1.184e-4
-1.064, -1.188e-4
-1.063, -1.196e-4
-1.062, -1.207e-4
-1.061, -1.208e-4
-1.060, -1.220e-4
-1.059, -1.226e-4
-1.058, -1.232e-4
-1.057, -1.246e-4
-1.056, -1.249e-4
-1.055, -1.261e-4
-1.054, -1.266e-4
-1.053, -1.272e-4
-1.052, -1.281e-4
-1.051, -1.285e-4
-1.050, -1.296e-4
-1.049, -1.299e-4
-1.048, -1.307e-4
-1.047, -1.330e-4
-1.046, -1.341e-4
-1.045, -1.348e-4
-1.044, -1.355e-4
-1.043, -1.364e-4
-1.042, -1.375e-4
-1.041, -1.380e-4
-1.040, -1.394e-4
-1.039, -1.396e-4
-1.038, -1.401e-4
-1.037, -1.410e-4
-1.036, -1.416e-4
-1.035, -1.428e-4
-1.034, -1.444e-4
-1.033, -1.469e-4
-1.032, -1.476e-4
-1.031, -1.478e-4
-1.030, -1.496e-4
-1.029, -1.500e-4
-1.028, -1.511e-4
-1.027, -1.523e-4
-1.026, -1.528e-4
-1.025, -1.544e-4
-1.024, -1.551e-4
-1.023, -1.561e-4
-1.022, -1.574e-4
-1.021, -1.576e-4
-1.020, -1.593e-4
-1.019, -1.596e-4
-1.018, -1.605e-4
-1.017, -1.616e-4
-1.016, -1.616e-4
-1.015, -1.630e-4
-1.014, -1.634e-4
-1.013, -1.638e-4
-1.012, -1.658e-4
-1.011, -1.682e-4
-1.010, -1.719e-4
-1.009, -1.729e-4
-1.008, -1.739e-4
-1.007, -1.750e-4
-1.006, -1.755e-4
-1.005, -1.771e-4
-1.004, -1.777e-4
-1.003, -1.792e-4
-1.002, -1.806e-4
-1.001, -1.816e-4
