Potential V vs RHE, Current mA cm-2
0.013299999999999867,-0.12820113799376964
0.012299999999999978,-0.2156020020994316
0.011299999999999866,-0.25634568753554465
0.010299999999999976,-0.28534726918277786
0.009299999999999864,-0.31180237049025405
0.008299999999999974,-0.3299106751285265
0.007299999999999862,-0.3492922199366776
0.006299999999999972,-0.36839082248485555
0.00529999999999986,-0.3904603187627501
0.0042999999999999705,-0.4126712861706312
0.0032999999999998586,-0.43007223515897114
0.0022999999999999687,-0.44662435736739203
0.0012999999999998568,-0.4671376712154351
0.00029999999999996696,-0.4829824377739235
-0.000700000000000145,-0.5063251742216967
-0.0017000000000000348,-0.519623460440428
-0.0027000000000001467,-0.5289605550195372
-0.0037000000000000366,-0.5407026588084171
-0.0047000000000001485,-0.5517374069473643
-0.005700000000000038,-0.5562644831069326
-0.00670000000000015,-0.5585280211867165
-0.00770000000000004,-0.5641868663861767
-0.008700000000000152,-0.578899863904773
-0.009700000000000042,-0.5842757668442602
-0.010700000000000154,-0.5883784296138688
-0.011700000000000044,-0.5844172379742467
-0.012700000000000156,-0.5837098823243142
-0.013700000000000045,-0.5784754505148135
-0.014700000000000157,-0.5875296028339497
-0.015700000000000047,-0.6016767158326001
-0.01670000000000016,-0.6016767158326001
-0.01770000000000005,-0.5998375911427756
-0.01870000000000016,-0.5999790622727621
-0.01970000000000005,-0.6036573116524112
-0.020700000000000163,-0.6070526187720873
-0.021700000000000053,-0.6070526187720873
-0.022700000000000164,-0.6064867342521413
-0.023700000000000054,-0.6093161568518712
-0.024700000000000166,-0.614267646401399
-0.025700000000000056,-0.6149750020513315
-0.026700000000000168,-0.6097405702418307
-0.027700000000000058,-0.6047890806923032
-0.02870000000000017,-0.6098820413718172
-0.02970000000000006,-0.6296879995699278
-0.03070000000000017,-0.6366200849392665
-0.03170000000000006,-0.6350639025094149
-0.03270000000000017,-0.6328003644296308
-0.03370000000000006,-0.6311027108697929
-0.034700000000000175,-0.6367615560692529
-0.035700000000000065,-0.6438351125685782
-0.03670000000000018,-0.6401568631889291
-0.03770000000000007,-0.6390250941490371
-0.03870000000000018,-0.637610382849172
-0.03970000000000007,-0.637044498329226
-0.04070000000000018,-0.6540210339276065
-0.04170000000000007,-0.6579822255672285
-0.04270000000000018,-0.658689581217161
-0.04370000000000007,-0.6608116481669587
-0.044700000000000184,-0.6663290222364323
-0.045700000000000074,-0.6656216665864998
-0.046700000000000186,-0.6683096180562434
-0.047700000000000076,-0.6660460799764593
-0.04870000000000019,-0.6673193201463378
-0.04970000000000008,-0.6763734724654741
-0.05070000000000019,-0.6813249620150017
-0.05170000000000008,-0.6833055578348128
-0.05270000000000019,-0.6854276247846103
-0.05370000000000008,-0.6868423360844753
-0.05470000000000019,-0.6927841235439085
-0.05570000000000008,-0.6957550172736251
-0.056700000000000195,-0.7033944582928963
-0.057700000000000085,-0.7066482942825859
-0.058700000000000196,-0.7097606591422889
-0.059700000000000086,-0.7141462641718705
-0.0607000000000002,-0.7186733403314387
-0.06170000000000009,-0.7182489269414791
-0.0627000000000002,-0.7220686474511148
-0.06370000000000009,-0.7277274926505749
-0.0647000000000002,-0.731688684290197
-0.06570000000000009,-0.7379134140096032
-0.0667000000000002,-0.7389037119195087
-0.0677000000000001,-0.7380548851395896
-0.0687000000000002,-0.7370645872296842
-0.0697000000000001,-0.7534752383081186
-0.07070000000000021,-0.7669149956568363
-0.0717000000000001,-0.7686126492166745
-0.07270000000000021,-0.7671979379168093
-0.0737000000000001,-0.7698858893865529
-0.07470000000000021,-0.7701688316465259
-0.0757000000000001,-0.7775253304058242
-0.07670000000000021,-0.7947848082641775
-0.0777000000000001,-0.7970483463439616
-0.07870000000000021,-0.8024242492834487
-0.0797000000000001,-0.806951325443017
-0.08070000000000022,-0.8150151798522477
-0.0817000000000001,-0.8164298911521127
-0.08270000000000022,-0.8195422560118159
-0.08370000000000011,-0.825766985731222
-0.08470000000000022,-0.8287378794609385
-0.08570000000000011,-0.8396311564698993
-0.08670000000000022,-0.8420361656796699
-0.08770000000000011,-0.8426020501996159
-0.08870000000000022,-0.8488267799190221
-0.08970000000000011,-0.8509488468688196
-0.09070000000000022,-0.8516562025187521
-0.09170000000000011,-0.850807375738833
-0.09270000000000023,-0.8703303916769705
-0.09370000000000012,-0.8909851766550001
-0.09470000000000023,-0.8973513775043926
-0.09570000000000012,-0.9001808001041228
-0.09670000000000023,-0.8996149155841769
-0.09770000000000012,-0.9011710980140284
-0.09870000000000023,-0.9025858093138934
-0.09970000000000012,-0.9099423080731914
-0.10070000000000023,-0.9212599984721118
-0.10170000000000012,-0.9266359014115991
-0.10270000000000024,-0.9287579683613965
-0.10370000000000013,-0.9307385641812077
-0.10470000000000024,-0.9369632939006136
-0.10570000000000013,-0.947149215259642
-0.10670000000000024,-0.9546471851489268
-0.10770000000000013,-0.9604475014783734
-0.10870000000000024,-0.9652575198979146
-0.10970000000000013,-0.9679454713676581
-0.11070000000000024,-0.9730384320471723
-0.11170000000000013,-0.977424037076754
-0.11270000000000002,-0.9829414111462275
-0.11370000000000013,-0.9949664571950803
-0.11470000000000002,-1.002181484824392
-0.11570000000000014,-1.0051523785541088
-0.11670000000000003,-1.0093965124537037
-0.11770000000000014,-1.010669752623582
-0.11870000000000003,-1.0146309442632042
-0.11970000000000014,-1.022128914152489
-0.12070000000000003,-1.0327392489014768
-0.12170000000000014,-1.0385395652309235
-0.12270000000000003,-1.0385395652309235
-0.12370000000000014,-1.042925170260505
-0.12470000000000003,-1.0430666413904914
-0.12570000000000014,-1.0466034196401541
-0.12670000000000003,-1.0686729159180488
-0.12770000000000015,-1.074331761117509
-0.12870000000000004,-1.0790003084070634
-0.12970000000000015,-1.0835273845666316
-0.13070000000000004,-1.0900350565460108
-0.13170000000000015,-1.0948450749655518
-0.13270000000000004,-1.0972500841753225
-0.13370000000000015,-1.101352746944931
-0.13470000000000004,-1.1095580724841483
-0.13570000000000015,-1.112811908473838
-0.13670000000000004,-1.1207342917530823
-0.13770000000000016,-1.1241295988727582
-0.13870000000000005,-1.1302128574621777
-0.13970000000000016,-1.136720529441557
-0.14070000000000005,-1.138984067521341
-0.14170000000000016,-1.1394084809113005
-0.14270000000000005,-1.1436526148108959
-0.14370000000000016,-1.159497381369384
-0.14470000000000005,-1.169824773858399
-0.14570000000000016,-1.1733615521080614
-0.14670000000000005,-1.175200676797886
-0.14770000000000016,-1.1821327621672248
-0.14870000000000005,-1.1858110115468736
-0.14970000000000017,-1.1907625010964016
-0.15070000000000006,-1.1972701730757807
-0.15170000000000017,-1.2006654801954568
-0.15270000000000006,-1.2029290182752408
-0.15370000000000017,-1.2104269881645253
-0.15470000000000006,-1.2101440459045523
-0.15570000000000017,-1.2170761312738911
-0.15670000000000006,-1.2305158886226089
-0.15770000000000017,-1.2384382719018532
-0.15870000000000006,-1.245087415011219
-0.15970000000000018,-1.2503218468207193
-0.16070000000000007,-1.2493315489108139
-0.16170000000000018,-1.2476338953509758
-0.16270000000000007,-1.2631957196494912
-0.16370000000000018,-1.280596668637831
-0.16470000000000007,-1.2885190519170753
-0.16570000000000018,-1.2903581766069
-0.16670000000000007,-1.293753483726576
-0.16770000000000018,-1.2907825899968595
-0.16870000000000007,-1.2924802435566976
-0.16970000000000018,-1.2987049732761036
-0.17070000000000007,-1.3204915272940252
-0.17170000000000019,-1.3268577281434177
-0.17270000000000008,-1.331950688822932
-0.1737000000000002,-1.3363362938525138
-0.17470000000000008,-1.344258677131758
-0.1757000000000002,-1.3483613399013663
-0.17670000000000008,-1.3526054738009616
-0.1777000000000002,-1.3523225315409886
-0.17870000000000008,-1.3543031273607997
-0.1797000000000002,-1.3762311525087079
-0.18070000000000008,-1.3930662169771015
-0.1817000000000002,-1.3991494755665215
-0.18270000000000008,-1.3988665333065484
-0.1837000000000002,-1.3991494755665215
-0.1847000000000001,-1.411174521615374
-0.1857000000000002,-1.426028990263957
-0.1867000000000001,-1.431687835463417
-0.1877000000000002,-1.4359319693630124
-0.1887000000000001,-1.4415908145624723
-0.1897000000000002,-1.4486643710617975
-0.1907000000000001,-1.4500790823616625
-0.1917000000000001,-1.4514937936615278
-0.19269999999999998,-1.4557379275611226
-0.1937000000000001,-1.4896909987578837
-0.19469999999999998,-1.506667534356264
-0.1957000000000001,-1.512326379555724
-0.19669999999999999,-1.512326379555724
-0.1977000000000001,-1.5165705134553193
-0.1987,-1.5250587812545096
-0.1997000000000001,-1.5377911829532949
-0.2007,-1.54486473945262
-0.2017000000000001,-1.5519382959519452
-0.2027,-1.5604265637511354
-0.2037000000000001,-1.5703295428501907
-0.2047,-1.584476655848841
-0.2057000000000001,-1.5915502123481662
-0.2067,-1.6014531914472214
-0.2077000000000001,-1.6071120366466816
-0.2087,-1.6113561705462767
-0.2097000000000001,-1.6240885722450622
-0.2107,-1.6311621287443874
-0.2117000000000001,-1.6382356852437125
-0.2127,-1.6495533756426328
-0.2137000000000001,-1.658041643441823
-0.2147,-1.6679446225408785
-0.2157000000000001,-1.6750181790402037
-0.2167,-1.6764328903400685
-0.21770000000000012,-1.6990682711379093
-0.2187,-1.7160448067362895
-0.21970000000000012,-1.7245330745354797
-0.2207,-1.7301919197349398
-0.22170000000000012,-1.7330213423346699
-0.2227,-1.7386801875341302
-0.22370000000000012,-1.7556567231325106
-0.2247,-1.771218547431026
-0.22570000000000012,-1.779706815230216
-0.2267,-1.7825362378299463
-0.22770000000000012,-1.776877392630486
-0.22870000000000001,-1.8094157525273817
-0.22970000000000013,-1.823562865526032
-0.23070000000000002,-1.8348805559249526
-0.23170000000000013,-1.8405394011244125
-0.23270000000000002,-1.8461982463238729
-0.23370000000000013,-1.8532718028231983
-0.23470000000000002,-1.8589306480226582
-0.23570000000000013,-1.8702483384215782
-0.23670000000000002,-1.884395451420229
-0.2376999999999999,-1.894298430519284
-0.23870000000000002,-1.9070308322180693
-0.2396999999999999,-1.9169338113171246
-0.24070000000000003,-1.9296662130159101
-0.24169999999999991,-1.9367397695152353
-0.24270000000000003,-1.9423986147146954
-0.24369999999999992,-1.9438133260145605
-0.24470000000000003,-1.9395691921149654
-0.24569999999999992,-1.9508868825138854
-0.24670000000000003,-2.001816489309027
-0.24769999999999992,-2.0216224475071374
-0.24870000000000003,-2.0272812927065975
-0.24969999999999992,-2.0272812927065975
-0.25070000000000003,-2.0329401379060577
-0.2516999999999999,-2.042843117005113
-0.25270000000000004,-2.051331384804303
-0.2536999999999999,-2.054160807404033
-0.25470000000000004,-2.0569902300037635
-0.2556999999999999,-2.0555755187038987
-0.25670000000000004,-2.0697226317025486
-0.25769999999999993,-2.102260991599445
-0.25870000000000004,-2.116408104598095
-0.25969999999999993,-2.12348166109742
-0.26070000000000004,-2.127725794997015
-0.26169999999999993,-2.1347993514963406
-0.26270000000000004,-2.1447023305953956
-0.26369999999999993,-2.1531905983945863
-0.26470000000000005,-2.161678866193776
-0.26569999999999994,-2.1673377113932366
-0.26670000000000005,-2.1758259791924264
-0.26769999999999994,-2.1913878034909415
-0.26870000000000005,-2.1984613599902674
-0.26969999999999994,-2.2111937616890525
-0.27070000000000005,-2.215437895588648
-0.27169999999999994,-2.2126084729889177
-0.27270000000000005,-2.2140231842887825
-0.27369999999999994,-2.2465615441856785
-0.27470000000000006,-2.263538079784059
-0.27569999999999995,-2.272026347583249
-0.27670000000000006,-2.2706116362833835
-0.27769999999999995,-2.273441058883114
-0.27870000000000006,-2.2875881718817643
-0.27969999999999995,-2.2974911509808194
-0.28070000000000006,-2.30597941878001
-0.28169999999999995,-2.310223552679605
-0.28270000000000006,-2.3201265317786604
-0.28369999999999995,-2.330029510877715
-0.28470000000000006,-2.3356883560771755
-0.28569999999999995,-2.3455913351762305
-0.28670000000000007,-2.355494314275286
-0.28769999999999996,-2.359738448174881
-0.28870000000000007,-2.3639825820744766
-0.28969999999999996,-2.3696414272739363
-0.29070000000000007,-2.380959117672857
-0.29169999999999996,-2.407838632370292
-0.29270000000000007,-2.4134974775697526
-0.29369999999999996,-2.424815167968673
-0.2947000000000001,-2.430474013168133
-0.29569999999999996,-2.4347181470677284
-0.2967000000000001,-2.438962280967323
-0.29769999999999996,-2.4488652600663787
-0.2987000000000001,-2.4743300634639493
-0.29969999999999997,-2.485647753862869
-0.3007000000000001,-2.4913065990623298
-0.30169999999999997,-2.4955507329619246
-0.3027000000000001,-2.49696544426179
-0.30369999999999997,-2.5167714024599
-0.3047000000000001,-2.5408214945576058
-0.30569999999999997,-2.5563833188561214
-0.3067000000000001,-2.5606274527557162
-0.3077,-2.5705304318547717
-0.3087000000000001,-2.583262833553557
-0.3097,-2.597409946552207
-0.3107000000000001,-2.610142348250993
-0.3117,-2.6129717708507227
-0.3127000000000001,-2.610142348250993
-0.3137,-2.621460038649913
-0.3147000000000001,-2.659657243746269
-0.3157,-2.6780484906445143
-0.3167000000000001,-2.6879514697435702
-0.3177,-2.6950250262428948
-0.3187000000000001,-2.7035132940420854
-0.3197,-2.7219045409403306
-0.3207000000000001,-2.743125210438306
-0.3217,-2.7586870347368215
-0.3227000000000001,-2.765760591236147
-0.3237,-2.768590013835877
-0.3247000000000001,-2.754442900837226
-0.3257,-2.772834147735472
-0.3267000000000001,-2.836496156229398
-0.3277,-2.867619804826429
-0.3287000000000001,-2.8845963404248094
-0.3297,-2.8959140308237297
-0.3307000000000001,-2.9100611438223805
-0.3317,-2.927037679420761
-0.3327000000000001,-2.9369406585198163
-0.3337,-2.9468436376188714
-0.3347000000000001,-2.949673060218602
-0.3357,-2.9553319054180616
-0.3367000000000001,-3.009090934812933
-0.3377,-3.047288139909289
-0.3387000000000001,-3.0713382320069944
-0.3397,-3.082655922405915
-0.3407000000000001,-3.0911441902051053
-0.3417,-3.0953883241047
-0.3427000000000001,-3.1067060145036205
-0.3437,-3.156220909998897
-0.3447000000000001,-3.1901739811956578
-0.3457,-3.211394650693633
-0.3467000000000001,-3.2241270523924186
-0.3477,-3.243933010590529
-0.3487000000000001,-3.27222723658783
-0.3497,-3.2991067512852656
-0.3507000000000001,-3.321742132083106
-0.3517,-3.3415480902812167
-0.3527000000000001,-3.358524625879597
-0.3537,-3.389648274476628
-0.3547000000000001,-3.4165277891740633
-0.3557,-3.440577881271769
-0.35670000000000013,-3.453310282970554
-0.3577,-3.4617985507697444
-0.35870000000000013,-3.4745309524685304
-0.3597,-3.555169496560837
-0.36070000000000013,-3.594781412957058
-0.3617,-3.623075638954359
-0.3626999999999999,-3.6386374632528744
-0.3637,-3.6556139988512544
-0.3646999999999999,-3.6683464005500404
-0.3657,-3.6655169779503103
-0.3666999999999999,-3.707958316946261
-0.3677,-3.801329262737354
-0.3686999999999999,-3.833867622634249
-0.36970000000000003,-3.852258869532495
-0.3706999999999999,-3.8649912712312804
-0.37170000000000003,-3.9003590537279056
-0.3726999999999999,-3.935726836224532
-0.37370000000000003,-3.9767534639206183
-0.3746999999999999,-4.003632978618054
-0.37570000000000003,-4.017780091616704
-0.3766999999999999,-4.0121212464172435
-0.37770000000000004,-4.017780091616704
-0.3786999999999999,-4.136615840805367
-0.37970000000000004,-4.217254384897673
-0.3806999999999999,-4.24979274479457
-0.38170000000000004,-4.283745815991331
-0.38269999999999993,-4.304966485489307
-0.38370000000000004,-4.3205283097878215
-0.38469999999999993,-4.3403342679859325
-0.38570000000000004,-4.388434452181344
-0.38669999999999993,-4.454925883275001
-0.38770000000000004,-4.488878954471762
-0.38869999999999993,-4.512929046569467
-0.38970000000000005,-4.524246736968387
-0.39069999999999994,-4.515758469169198
-0.39170000000000005,-4.582249900262854
-0.39269999999999994,-4.7208916076496275
-0.39370000000000005,-4.770406503144904
-0.39469999999999994,-4.802944863041799
-0.39570000000000005,-4.842556779438021
-0.39669999999999994,-4.875095139334916
-0.39770000000000005,-4.8977305201327574
-0.39869999999999994,-4.935927725229114
-0.39970000000000006,-5.001004445022905
-0.40069999999999995,-5.068910587416426
-0.40170000000000006,-5.087301834314672
-0.40269999999999995,-5.141060863709543
-0.40370000000000006,-5.191990470504685
-0.40469999999999995,-5.252823056398881
-0.40570000000000006,-5.313655642293078
-0.40669999999999995,-5.361755826488489
-0.40770000000000006,-5.384391207286329
-0.40869999999999995,-5.40136774288471
-0.40970000000000006,-5.414100144583495
-0.41069999999999995,-5.565474253669055
-0.41170000000000007,-5.685724714157582
-0.41269999999999996,-5.715433651454749
-0.41370000000000007,-5.736654320952724
-0.41469999999999996,-5.784754505148135
-0.41570000000000007,-5.854075358841522
-0.41669999999999996,-5.927640346434504
-0.41770000000000007,-5.970081685430455
-0.41869999999999996,-5.99696120012789
-0.4197000000000001,-5.989887643628566
-0.42069999999999996,-6.008278890526811
-0.4217000000000001,-6.231803275905486
-0.42269999999999996,-6.366200849392665
-0.4237000000000001,-6.40156863188929
-0.42469999999999997,-6.424204012687131
-0.4257000000000001,-6.4397658369856465
-0.42669999999999997,-6.521819092377819
-0.4277000000000001,-6.646313686765942
-0.42869999999999997,-6.724122808258519
-0.4297000000000001,-6.782125971552985
-0.43069999999999997,-6.828811444448532
-0.4317000000000001,-6.883985185143269
-0.4327,-6.987259110033416
-0.4337000000000001,-7.090533034923564
-0.4347,-7.155609754717355
-0.4357000000000001,-7.186733403314386
-0.4367,-7.3183015542018355
-0.4377000000000001,-7.413087211292793
-0.4387,-7.4824080649861795
-0.4397000000000001,-7.567290742978082
-0.4407,-7.656417554869579
-0.4417000000000001,-7.720079563363504
-0.4427,-7.752617923260401
-0.4437000000000001,-7.782326860557566
-0.4447,-8.055366141431518
-0.4457000000000001,-8.133175262924096
-0.4467,-8.24918158951303
-0.4477000000000001,-8.31425830930682
-0.4487,-8.392067430799397
-0.4497000000000001,-8.46846184099211
-0.4507,-8.51373260258779
-0.4517000000000001,-8.560418075483337
-0.4527,-8.658033155174026
-0.4537000000000001,-8.932487147347842
-0.4547,-9.059811164335693
-0.4557000000000001,-9.131961440628812
-0.4567,-9.192794026523009
-0.4577000000000001,-9.293238528813426
-0.4587,-9.438953792699524
-0.4597000000000001,-9.60871914868333
-0.4607,-9.695016537975096
-0.4617000000000001,-9.721896052672532
-0.4627,-9.91571150075404
-0.4637000000000001,-10.085476856737847
-0.4647,-10.190165492927859
-0.4657000000000001,-10.25241279012192
-0.4667,-10.420763434805862
-0.4677000000000001,-10.647117242784265
-0.4687,-10.74897645637455
-0.4697000000000001,-10.891862297660918
-0.4707,-10.997965645150796
-0.4717000000000001,-11.063042364944588
-0.4727,-11.099824858741078
-0.4737000000000001,-11.197439938431765
-0.4747,-11.58931496849438
-0.4757000000000001,-11.81142464257319
-0.4767,-11.901966165764554
-0.4777000000000001,-11.98260470985686
-0.4787,-12.063243253949167
-0.4797000000000001,-12.19905553873621
-0.4807,-12.506047890806924
-0.48170000000000013,-12.74654881178398
-0.4827,-12.859725715773182
-0.48370000000000013,-12.934705414666032
-0.4847,-13.070517699453074
-0.48570000000000013,-13.320921599529186
-0.4867,-13.601034436902461
-0.4876999999999999,-13.74674970078856
-0.4887,-13.926418035871421
-0.4896999999999999,-14.09193925795563
-0.4907,-14.189554337646317
-0.4916999999999999,-14.288584128636872
-0.4927,-14.486643710617974
-0.4936999999999999,-14.911057100577487
-0.49470000000000003,-15.179852247551842
-0.4956999999999999,-15.307176264539699
-0.49670000000000003,-15.37791182953295
-0.4976999999999999,-15.547677185516752
-0.49870000000000003,-15.858913671487063
-0.4996999999999999,-16.24088572245062
-0.5007,-16.438945304431726
-0.5016999999999999,-16.53797509542228
-0.5027,-16.651151999411482
-0.5036999999999999,-16.820917355395284
-0.5047,-17.34436053634535
