Potential V vs RHE, Current mA cm-2
0.013299999999999867,-0.12545659807203147
0.012299999999999978,-0.20612343639033584
0.011299999999999866,-0.24502799713662435
0.010299999999999976,-0.27120015618412757
0.009299999999999864,-0.2941184792419411
0.008299999999999974,-0.3146317930899841
0.007299999999999862,-0.33274009772825663
0.006299999999999972,-0.346321326206961
0.00529999999999986,-0.3637222751953009
0.0042999999999999705,-0.38664059825311453
0.0032999999999998586,-0.4031927204615355
0.0022999999999999687,-0.41550070877036127
0.0012999999999998568,-0.4269598702992681
0.00029999999999996696,-0.4384190318281749
-0.000700000000000145,-0.45313202934677127
-0.0017000000000000348,-0.4692597381652327
-0.0027000000000001467,-0.4750600544946793
-0.0037000000000000366,-0.4838312645538425
-0.0047000000000001485,-0.49189511896307325
-0.005700000000000038,-0.49882720433241184
-0.00670000000000015,-0.50335428049198
-0.00770000000000004,-0.5066081164816696
-0.008700000000000152,-0.5124084328111163
-0.009700000000000042,-0.5220284696501986
-0.010700000000000154,-0.5275458437196722
-0.011700000000000044,-0.5317899776192673
-0.012700000000000156,-0.5317899776192673
-0.013700000000000045,-0.5346194002189975
-0.014700000000000157,-0.5394294186385385
-0.015700000000000047,-0.5426832546282281
-0.01670000000000016,-0.5448053215780257
-0.01770000000000005,-0.5473518019177827
-0.01870000000000016,-0.5483420998276882
-0.01970000000000005,-0.5489079843476343
-0.020700000000000163,-0.5602256747465546
-0.021700000000000053,-0.5633380396062576
-0.022700000000000164,-0.5616403860464196
-0.023700000000000054,-0.5650356931660957
-0.024700000000000166,-0.5670162889859067
-0.025700000000000056,-0.5719677785354343
-0.026700000000000168,-0.576070441305043
-0.027700000000000058,-0.577768094864881
-0.02870000000000017,-0.5787583927747865
-0.02970000000000006,-0.578333979384827
-0.03070000000000017,-0.5825781132844221
-0.03170000000000006,-0.5927640346434504
-0.03270000000000017,-0.596866697413059
-0.03370000000000006,-0.600262004532735
-0.034700000000000175,-0.599130235492843
-0.035700000000000065,-0.6050720229522761
-0.03670000000000018,-0.6095990991118443
-0.03770000000000007,-0.6077599744220198
-0.03870000000000018,-0.6100235125018038
-0.03970000000000007,-0.6141261752714124
-0.04070000000000018,-0.621341202900724
-0.04170000000000007,-0.6270000481001843
-0.04270000000000018,-0.6261512213202652
-0.04370000000000007,-0.6296879995699278
-0.044700000000000184,-0.6335077200795635
-0.045700000000000074,-0.638742151889064
-0.046700000000000186,-0.6468060062982948
-0.047700000000000076,-0.6487866021181058
-0.04870000000000019,-0.6494939577680383
-0.04970000000000008,-0.653313678277674
-0.05070000000000019,-0.6596798791270665
-0.05170000000000008,-0.6717049251759195
-0.05270000000000019,-0.6779296548953256
-0.05370000000000008,-0.6810420197550288
-0.05470000000000019,-0.6825982021848802
-0.05570000000000008,-0.6881155762543539
-0.056700000000000195,-0.6967453151835306
-0.057700000000000085,-0.7036774005528693
-0.058700000000000196,-0.7083459478424239
-0.059700000000000086,-0.7141462641718705
-0.0607000000000002,-0.7199465805013172
-0.06170000000000009,-0.7264542524806964
-0.0627000000000002,-0.733952222369981
-0.06370000000000009,-0.7424404901691712
-0.0647000000000002,-0.7529093537881726
-0.06570000000000009,-0.7591340835075786
-0.0667000000000002,-0.7630952751472008
-0.0677000000000001,-0.7681882358267149
-0.0687000000000002,-0.7765350324959186
-0.0697000000000001,-0.7874283095048794
-0.07070000000000021,-0.7990289421637727
-0.0717000000000001,-0.8065269120530575
-0.07270000000000021,-0.811761343862558
-0.0737000000000001,-0.8178446024519777
-0.07470000000000021,-0.8290208217209115
-0.0757000000000001,-0.8424605790696293
-0.07670000000000021,-0.8520806159087115
-0.0777000000000001,-0.8578809322381583
-0.07870000000000021,-0.8619835950077669
-0.0797000000000001,-0.8723109874967817
-0.08070000000000022,-0.8926828302148382
-0.0817000000000001,-0.9090934812932725
-0.08270000000000022,-0.9170158645725168
-0.08370000000000011,-0.92578707463168
-0.08470000000000022,-0.9371047650306003
-0.08570000000000011,-0.9472906863896284
-0.08670000000000022,-0.960871914868333
-0.08770000000000011,-0.9682284136276312
-0.08870000000000022,-0.977424037076754
-0.08970000000000011,-0.9863367182659035
-0.09070000000000022,-0.9992105910946756
-0.09170000000000011,-1.0243924522322732
-0.09270000000000023,-1.039529863140829
-0.09370000000000012,-1.0504231401497897
-0.09470000000000023,-1.0638628974985076
-0.09570000000000012,-1.07631235693732
-0.09670000000000023,-1.0915912389758624
-0.09770000000000012,-1.108426303444256
-0.09870000000000023,-1.116490157853487
-0.09970000000000012,-1.1280907905123805
-0.10070000000000023,-1.142945259160963
-0.10170000000000012,-1.1586485545894651
-0.10270000000000024,-1.1834060023371034
-0.10370000000000013,-1.1981189998556998
-0.10470000000000024,-1.2155199488440396
-0.10570000000000013,-1.232213542182447
-0.10670000000000024,-1.244804472751246
-0.10770000000000013,-1.2525853849005035
-0.10870000000000024,-1.2723913430986138
-0.10970000000000013,-1.3026661649157256
-0.11070000000000024,-1.3255844879735392
-0.11170000000000013,-1.3404389566221222
-0.11270000000000002,-1.3545860696207725
-0.11370000000000013,-1.370147893919288
-0.11470000000000002,-1.389529438727439
-0.11570000000000014,-1.40891098353559
-0.11670000000000003,-1.4246142789640919
-0.11770000000000014,-1.4415908145624723
-0.11870000000000003,-1.4656409066601779
-0.11970000000000014,-1.4911057100577487
-0.12070000000000003,-1.512326379555724
-0.12170000000000014,-1.5293029151541047
-0.12270000000000003,-1.54486473945262
-0.12370000000000014,-1.5632559863508655
-0.12470000000000003,-1.5957943462477613
-0.12570000000000014,-1.626917994844792
-0.12670000000000003,-1.6509680869424979
-0.12770000000000015,-1.6651151999411482
-0.12870000000000004,-1.6820917355395286
-0.12970000000000015,-1.7075565389370995
-0.13070000000000004,-1.7400948988339953
-0.13170000000000015,-1.768389124831296
-0.13270000000000004,-1.7910245056291363
-0.13370000000000015,-1.813659886426977
-0.13470000000000004,-1.8419541124242775
-0.13570000000000015,-1.8674189158218486
-0.13670000000000004,-1.890054296619689
-0.13770000000000016,-1.9084455435179344
-0.13870000000000005,-1.922592656516585
-0.13970000000000016,-1.9579604390132106
-0.14070000000000005,-2.014548891007812
-0.14170000000000016,-2.048501962204573
-0.14270000000000005,-2.072552054302279
-0.14370000000000016,-2.0937727238002544
-0.14470000000000005,-2.122066949797555
-0.14570000000000016,-2.161678866193776
-0.14670000000000005,-2.1956319373905373
-0.14770000000000016,-2.2196820294882422
-0.14870000000000005,-2.2409026989862184
-0.14970000000000017,-2.272026347583249
-0.15070000000000006,-2.318711820478795
-0.15170000000000017,-2.3639825820744766
-0.15270000000000006,-2.396520941971372
-0.15370000000000017,-2.4234004566688077
-0.15470000000000006,-2.4531093939659736
-0.15570000000000017,-2.4955507329619246
-0.15670000000000006,-2.5379920719578757
-0.15770000000000017,-2.5776039883540967
-0.15870000000000006,-2.6058982143513973
-0.15970000000000018,-2.637021862948428
-0.16070000000000007,-2.6723896454450546
-0.16170000000000018,-2.720489829640466
-0.16270000000000007,-2.768590013835877
-0.16370000000000018,-2.8096166415319628
-0.16470000000000007,-2.844984424028589
-0.16570000000000018,-2.8761080726256196
-0.16670000000000007,-2.8987434534234597
-0.16770000000000018,-2.965234884517117
-0.16870000000000007,-3.0331410269106387
-0.16970000000000018,-3.074167654606725
-0.17070000000000007,-3.1151942823028107
-0.17170000000000019,-3.156220909998897
-0.17270000000000008,-3.1901739811956578
-0.1737000000000002,-3.2198829184928233
-0.17470000000000008,-3.2566654122893146
-0.1757000000000002,-3.310424441684186
-0.17670000000000008,-3.3854041405770325
-0.1777000000000002,-3.4419925925716344
-0.17870000000000008,-3.4787750863681253
-0.1797000000000002,-3.5169722914644814
-0.18070000000000008,-3.559413630460432
-0.1817000000000002,-3.6244903502542236
-0.18270000000000008,-3.6923964926477457
-0.1837000000000002,-3.747570233342482
-0.1847000000000001,-3.7900115723384333
-0.1857000000000002,-3.8282087774347895
-0.1867000000000001,-3.8734795390304706
-0.1877000000000002,-3.956947505722508
-0.1887000000000001,-4.029097782015624
-0.1897000000000002,-4.088515656609956
-0.1907000000000001,-4.132371706905772
-0.1917000000000001,-4.164910066802668
-0.19269999999999998,-4.200277849299294
-0.1937000000000001,-4.304966485489307
-0.19469999999999998,-4.396922719980535
-0.1957000000000001,-4.459170017174596
-0.19669999999999999,-4.501611356170546
-0.1977000000000001,-4.532735004767577
-0.1987,-4.592152879361908
-0.1997000000000001,-4.715232762450168
-0.2007,-4.7803094822439585
-0.2017000000000001,-4.849630335937346
-0.2027,-4.909048210531677
-0.2037000000000001,-4.968466085126009
-0.2047,-5.01939569192115
-0.2057000000000001,-5.060422319617237
-0.2067,-5.087301834314672
-0.2077000000000001,-5.109937215112512
-0.2087,-5.23018767560104
-0.2097000000000001,-5.37873236208687
-0.2107,-5.433906102781606
-0.2117000000000001,-5.470688596578097
-0.2127,-5.5003975338752635
-0.2137000000000001,-5.610745015264735
-0.2147,-5.692798270656908
-0.2157000000000001,-5.772022103449349
-0.2167,-5.839928245842872
-0.21770000000000012,-5.890857852638012
-0.2187,-5.919152078635313
-0.21970000000000012,-5.977155241929781
-0.2207,-6.062037919921682
-0.22170000000000012,-6.137017618814529
-0.2227,-6.180873669110345
-0.22370000000000012,-6.206338472507916
-0.2247,-6.217656162906836
-0.22570000000000012,-6.282732882700628
-0.2267,-6.425618723986997
-0.22770000000000012,-6.487866021181058
-0.22870000000000001,-6.511916113278764
-0.22970000000000013,-6.55577216357458
-0.23070000000000002,-6.6364107076668875
-0.23170000000000013,-6.660460799764593
-0.23270000000000002,-6.666119644964053
-0.23370000000000013,-6.687340314462029
-0.23470000000000002,-6.753831745555685
-0.23570000000000013,-6.811834908850152
-0.23670000000000002,-6.823152599249072
-0.2376999999999999,-6.809005486250422
-0.23870000000000002,-6.784955394152716
-0.2396999999999999,-6.756661168155415
-0.24070000000000003,-6.893888164242324
-0.24169999999999991,-6.984429687433686
-0.24270000000000003,-6.970282574435036
-0.24369999999999992,-6.941988348437734
-0.24470000000000003,-6.922182390239625
-0.24569999999999992,-6.941988348437734
-0.24670000000000003,-6.961794306635846
-0.24769999999999992,-6.941988348437734
-0.24870000000000003,-6.8853998964431335
-0.24969999999999992,-6.809005486250422
-0.25070000000000003,-6.711390406559734
-0.2516999999999999,-6.777881837653391
-0.25270000000000004,-6.898132298141919
-0.2536999999999999,-6.837299712247723
-0.25470000000000004,-6.766564147254471
-0.2556999999999999,-6.725537519558384
-0.25670000000000004,-6.6562166658649975
-0.25769999999999993,-6.557186874874445
-0.25870000000000004,-6.441180548285512
-0.25969999999999993,-6.337906623395364
-0.26070000000000004,-6.34780960249442
-0.26169999999999993,-6.305368263498468
-0.26270000000000004,-6.196435493408861
-0.26369999999999993,-6.054964363422357
-0.26470000000000005,-5.910663810836123
-0.26569999999999994,-5.7960721955470555
-0.26670000000000005,-5.77768094864881
-0.26769999999999994,-5.699871827156233
-0.26870000000000005,-5.564059542369189
-0.26969999999999994,-5.40419716548444
-0.27070000000000005,-5.2259435417014455
-0.27169999999999994,-5.087301834314672
-0.27270000000000005,-5.085887123014808
-0.27369999999999994,-5.070325298716291
-0.27470000000000006,-4.951489549527628
-0.27569999999999995,-4.836897934238561
-0.27670000000000006,-4.736453431948143
-0.27769999999999995,-4.66005902175543
-0.27870000000000006,-4.579420477663124
-0.27969999999999995,-4.4973672222709515
-0.28070000000000006,-4.408240410379454
-0.28169999999999995,-4.3205283097878215
-0.28270000000000006,-4.309210619388901
-0.28369999999999995,-4.385605029581614
-0.28470000000000006,-4.374287339182693
-0.28569999999999995,-4.344578401885528
-0.28670000000000007,-4.331846000186743
-0.28769999999999996,-4.338919556686067
-0.28870000000000007,-4.330431288886877
-0.28969999999999996,-4.326187154987283
-0.29070000000000007,-4.317698887188092
-0.29169999999999996,-4.338919556686067
-0.29270000000000007,-4.442193481576215
-0.29369999999999996,-4.508684912669872
-0.2947000000000001,-4.535564427367307
-0.29569999999999996,-4.5638586533646075
-0.2967000000000001,-4.607714703660425
-0.29769999999999996,-4.672791423454216
-0.2987000000000001,-4.744941699747333
-0.29969999999999997,-4.80860370824126
-0.3007000000000001,-4.84821562463748
-0.30169999999999997,-4.882168695834241
-0.3027000000000001,-4.909048210531677
-0.30369999999999997,-5.023639825820745
-0.3047000000000001,-5.2075522948032
-0.30569999999999997,-5.283946704995913
-0.3067000000000001,-5.339120445690648
-0.3077,-5.4027824541845755
-0.3087000000000001,-5.496153399975667
-0.3097,-5.612159726564601
-0.3107000000000001,-5.701286538456097
-0.3117,-5.781925082548405
-0.3127000000000001,-5.861148915340847
-0.3137,-5.981399375829374
-0.3147000000000001,-6.124285217115744
-0.3157,-6.250194522803732
-0.3167000000000001,-6.335077200795634
-0.3177,-6.408642188388616
-0.3187000000000001,-6.434106991786186
-0.3197,-6.589725234771341
-0.3207000000000001,-6.9250118128393545
-0.3217,-7.062238808926263
-0.3227000000000001,-7.1414626417187055
-0.3237,-7.209368784112227
-0.3247000000000001,-7.28576319430494
-0.3257,-7.49938460058456
-0.3267000000000001,-7.759691479759726
-0.3277,-7.911065588845285
-0.3287000000000001,-8.005851245936244
-0.3297,-8.124686995124907
-0.3307000000000001,-8.293037639808846
-0.3317,-8.503829623488736
-0.3327000000000001,-8.686327381171324
-0.3337,-8.812236686859313
-0.3347000000000001,-8.914095900449595
-0.3357,-9.01595511403988
-0.3367000000000001,-9.221088252520309
-0.3377,-9.586083767885489
-0.3387000000000001,-9.779899215967
-0.3397,-9.912882078154311
-0.3407000000000001,-10.031717827342977
-0.3417,-10.1562124217311
-0.3427000000000001,-10.437739970404241
-0.3437,-10.726341075576709
-0.3447000000000001,-10.918741812358354
-0.3457,-11.057383519745128
-0.3467000000000001,-11.214416474030147
-0.3477,-11.38701125261368
-0.3487000000000001,-11.709565428982907
-0.3497,-11.98260470985686
-0.3507000000000001,-12.15378477714053
-0.3517,-12.293841195827168
-0.3527000000000001,-12.626298351295452
-0.3537,-12.851237447973993
-0.3547000000000001,-13.023832226557529
-0.3557,-13.29404208483175
-0.35670000000000013,-13.511907625010965
-0.3577,-13.772214504186131
-0.35870000000000013,-13.992909466965077
-0.3597,-14.147112998650368
-0.36070000000000013,-14.26028990263957
-0.3617,-14.373466806628771
-0.3626999999999999,-14.783733083589633
-0.3637,-15.37791182953295
-0.3646999999999999,-15.632559863508657
-0.3657,-15.830619445489761
-0.3666999999999999,-16.127708818461418
-0.3677,-16.325768400442524
-0.3686999999999999,-16.495533756426326
-0.36970000000000003,-16.721887564404735
-0.3706999999999999,-17.118006728366943
-0.37170000000000003,-17.45753744033455
-0.3726999999999999,-17.641449909317007
-0.37370000000000003,-17.75462681330621
-0.3746999999999999,-17.938539282288666
-0.37570000000000003,-18.249775768258974
-0.3766999999999999,-18.829807401203638
-0.37770000000000004,-19.197632339168546
-0.3786999999999999,-19.367397695152352
-0.37970000000000004,-19.480574599141555
-0.3806999999999999,-19.904987989101066
-0.38170000000000004,-20.400136944053827
-0.38269999999999993,-20.640637865030882
-0.38370000000000004,-20.90943301200524
-0.38469999999999993,-21.107492593986347
-0.38570000000000004,-21.248963723972853
-0.38669999999999993,-21.47531753195126
-0.38770000000000004,-21.97046648690402
-0.38869999999999993,-22.479762554855434
-0.38970000000000005,-22.748557701829792
-0.39069999999999994,-22.87588171881764
-0.39170000000000005,-22.960764396809545
-0.39269999999999994,-23.102235526796047
-0.39370000000000005,-23.795444063729917
-0.39469999999999994,-24.36132858367593
-0.39570000000000005,-24.64427084364894
-0.39669999999999994,-24.771594860636792
-0.39770000000000005,-24.969654442617898
-0.39869999999999994,-25.337479380582806
-0.39970000000000006,-25.91751101352747
-0.40069999999999995,-26.20045327350048
-0.40170000000000006,-26.29948306449103
-0.40269999999999995,-26.27118883849373
-0.40370000000000006,-26.32777729048833
-0.40469999999999995,-27.120015618412754
-0.40570000000000006,-27.855665494342567
-0.40669999999999995,-28.12446064131693
-0.40770000000000006,-28.22349043230748
-0.40869999999999995,-28.308373110299385
-0.40970000000000006,-28.704492274261593
-0.41069999999999995,-29.31281813320356
-0.41170000000000007,-29.63820173217252
-0.41269999999999996,-29.73723152316307
-0.41370000000000007,-29.751378636161718
-0.41469999999999996,-29.96358533114148
-0.41570000000000007,-30.685088094072643
-0.41669999999999996,-31.250972614018657
-0.41770000000000007,-31.434885083001117
-0.41869999999999996,-31.392443744005163
-0.4197000000000001,-31.350002405009217
-0.42069999999999996,-31.661238890979522
-0.4217000000000001,-32.56665412289314
-0.42269999999999996,-32.97692039985401
-0.4237000000000001,-33.160832868836465
-0.42469999999999997,-33.41548090281216
-0.4257000000000001,-33.839894292771675
-0.42669999999999997,-33.924776970763574
-0.4277000000000001,-33.76915872777842
-0.42869999999999997,-33.50036358080407
-0.4297000000000001,-33.50036358080407
-0.43069999999999997,-34.5755441687015
-0.4317000000000001,-35.57998919160567
-0.4327,-35.778048773586775
-0.4337000000000001,-35.735607434590825
-0.4347,-35.735607434590825
-0.4357000000000001,-36.13172659855304
-0.4367,-36.64102266650445
-0.4377000000000001,-36.78249379649095
-0.4387,-36.655169779503105
-0.4397000000000001,-36.45711019752199
-0.4407,-36.78249379649095
-0.4417000000000001,-37.376672542434264
-0.4427,-37.57473212441538
-0.4437000000000001,-37.44740810742752
-0.4447,-37.32008409043967
-0.4457000000000001,-37.44740810742752
-0.4467,-37.92840994938163
-0.4477000000000001,-38.211352209354644
-0.4487,-37.99914551437489
-0.4497000000000001,-37.54643789841808
-0.4507,-37.093730282461266
-0.4517000000000001,-36.90981781347881
-0.4527,-37.92840994938163
-0.4537000000000001,-38.4518531303317
-0.4547,-38.32452911334384
-0.4557000000000001,-37.88596861038568
-0.4567,-37.34837831643697
-0.4577000000000001,-37.97085128837759
-0.4587,-38.05573396636949
-0.4597000000000001,-37.88596861038568
-0.4607,-37.673761915405926
-0.4617000000000001,-37.178612960453165
-0.4627,-36.570287101511205
-0.4637000000000001,-36.14587371155169
-0.4647,-36.55613998851254
-0.4657000000000001,-37.07958316946261
-0.4667,-36.90981781347881
-0.4677000000000001,-36.5136986495166
-0.4687,-36.06099103355979
-0.4697000000000001,-35.99025546856653
-0.4707,-36.28734484153819
-0.4717000000000001,-36.230756389543586
-0.4727,-35.778048773586775
-0.4737000000000001,-35.12728157564886
-0.4747,-34.34919036072309
-0.4757000000000001,-34.16527789174064
-0.4767,-35.12728157564886
-0.4777000000000001,-35.353635383627264
-0.4787,-35.098987349651566
-0.4797000000000001,-34.702868185689354
-0.4807,-34.47651437771095
-0.48170000000000013,-34.85848642867451
-0.4827,-34.75945663768395
-0.48370000000000013,-34.64627973369475
-0.4847,-34.731162411686654
-0.48570000000000013,-34.95751621966506
-0.4867,-34.36333747372174
-0.48570000000000013,-33.25986265982701
-0.4847,-32.6373896878864
-0.48370000000000013,-32.297858975918786
-0.4827,-32.12809361993498
-0.48170000000000013,-31.56220909998897
-0.4807,-30.727529433068593
-0.4797000000000001,-29.878702653149578
-0.4787,-29.213788342213007
-0.4777000000000001,-29.482583489187363
-0.4767,-29.581613280177915
-0.4757000000000001,-29.029875873230555
-0.4747,-28.350814449295335
-0.4737000000000001,-27.78492992934932
-0.4727,-27.516134782374962
-0.4717000000000001,-27.38881076538711
-0.4707,-26.89366181043435
-0.4697000000000001,-26.28533595149238
-0.4687,-25.691157205549064
-0.4677000000000001,-25.351626493581456
-0.4667,-25.521391849565262
-0.4657000000000001,-25.323332267584156
