Potential V vs RHE, Current mA cm-2
0.05339999999999995,-0.07669149956568365
0.05239999999999995,-0.07833256467352707
0.051399999999999946,-0.0791248030014515
0.050399999999999945,-0.07964824618240157
0.049399999999999944,-0.08014339513735433
0.04839999999999994,-0.08059610275331114
0.04739999999999994,-0.08104881036926795
0.04639999999999994,-0.0814873708722261
0.04539999999999994,-0.08191178426218561
0.04439999999999994,-0.08232205053914649
0.04339999999999994,-0.08271816970310869
0.04239999999999994,-0.08308599464107361
0.04139999999999994,-0.08343967246603987
0.040399999999999936,-0.08379335029100612
0.039399999999999935,-0.08416117522897103
0.038399999999999934,-0.08454314727993459
0.03739999999999993,-0.08489682510490085
0.03639999999999993,-0.08525050292986712
0.03539999999999993,-0.08559003364183472
0.03439999999999993,-0.08597200569279828
0.03339999999999993,-0.08631153640476588
0.03239999999999993,-0.08663692000373484
0.03139999999999993,-0.0869905978287011
0.030399999999999927,-0.08730183431467141
0.029399999999999926,-0.08762721791364038
0.028399999999999925,-0.08795260151260934
0.027399999999999924,-0.08823554377258234
0.026399999999999924,-0.0885609273715513
0.025399999999999923,-0.08888631097052026
0.024399999999999922,-0.08921169456948921
0.02339999999999992,-0.08955122528145683
0.02239999999999992,-0.08982002042843118
0.02139999999999992,-0.09015955114039878
0.020399999999999918,-0.09047078762636909
0.019399999999999917,-0.0907820241123394
0.018399999999999916,-0.09109326059830972
0.017399999999999916,-0.09139034997128137
0.016399999999999915,-0.09167329223125438
0.015399999999999914,-0.09195623449122738
0.014399999999999913,-0.0922674709771977
0.013399999999999912,-0.09257870746316801
0.012399999999999911,-0.09286164972314101
0.01139999999999991,-0.09314459198311402
0.01039999999999991,-0.09344168135608567
0.009399999999999908,-0.09372462361605868
0.008399999999999908,-0.09399341876303305
0.007399999999999907,-0.0942622139100074
0.006399999999999906,-0.09455930328297905
0.005399999999999905,-0.09481395131695476
0.004399999999999904,-0.09506859935093047
0.003399999999999903,-0.09532324738490616
0.002399999999999902,-0.09562033675787783
0.0013999999999999013,-0.09587498479185352
0.00039999999999990044,-0.09612963282582924
-0.0006000000000001005,-0.09641257508580224
-0.0016000000000001013,-0.09666722311977795
-0.0026000000000001022,-0.096907724040755
-0.003600000000000103,-0.09714822496173206
-0.004600000000000104,-0.09736043165671183
-0.005600000000000105,-0.09762922680368619
-0.006600000000000106,-0.0978838748376619
-0.007600000000000107,-0.098081934419643
-0.008600000000000108,-0.09835072956661735
-0.009600000000000108,-0.09856293626159711
-0.01060000000000011,-0.09880343718257417
-0.01160000000000011,-0.09902979099055256
-0.012600000000000111,-0.09927029191152963
-0.013600000000000112,-0.09949664571950805
-0.014600000000000113,-0.09969470530148912
-0.015600000000000114,-0.09993520622246618
-0.016600000000000115,-0.10014741291744596
-0.017600000000000116,-0.1003313253864284
-0.018600000000000116,-0.10055767919440682
-0.019600000000000117,-0.10076988588938657
-0.020600000000000118,-0.10095379835836901
-0.02160000000000012,-0.10116600505334877
-0.02260000000000012,-0.10134991752233123
-0.02360000000000012,-0.10154797710431233
-0.024600000000000122,-0.10174603668629344
-0.025600000000000123,-0.10194409626827454
-0.026600000000000124,-0.10211386162425835
-0.027600000000000124,-0.1022977740932408
-0.028600000000000125,-0.10246753944922461
-0.029600000000000126,-0.10265145191820706
-0.030600000000000127,-0.10282121727419087
-0.03160000000000013,-0.10299098263017467
-0.03260000000000013,-0.10314660087315983
-0.03360000000000013,-0.10331636622914364
-0.03460000000000002,-0.10347198447212877
-0.03560000000000002,-0.10365589694111124
-0.03660000000000002,-0.10379736807109774
-0.03760000000000002,-0.1039529863140829
-0.03860000000000002,-0.1041227516700667
-0.039600000000000024,-0.10423592857405589
-0.040600000000000025,-0.1044056939300397
-0.041600000000000026,-0.10453301794702756
-0.04260000000000003,-0.10466034196401541
-0.04360000000000003,-0.10481596020700056
-0.04460000000000003,-0.10494328422398842
-0.04560000000000003,-0.10508475535397492
-0.04660000000000003,-0.10521207937096277
-0.04760000000000003,-0.10531110916195333
-0.04860000000000003,-0.10545258029193984
-0.04960000000000003,-0.10556575719592905
-0.050600000000000034,-0.10570722832591554
-0.051600000000000035,-0.10582040522990475
-0.052600000000000036,-0.10591943502089529
-0.053600000000000037,-0.1060326119248845
-0.05460000000000004,-0.1061457888288737
-0.05560000000000004,-0.10624481861986426
-0.05660000000000004,-0.10634384841085481
-0.05760000000000004,-0.1064287310888467
-0.05860000000000004,-0.10652776087983726
-0.05960000000000004,-0.10661264355782916
-0.06060000000000004,-0.10669752623582107
-0.061600000000000044,-0.10681070313981027
-0.06260000000000004,-0.10686729159180487
-0.06360000000000005,-0.10698046849579408
-0.06460000000000005,-0.10706535117378597
-0.06560000000000005,-0.10713608673877922
-0.06660000000000005,-0.10719267519077383
-0.06760000000000005,-0.10726341075576709
-0.06860000000000005,-0.10733414632076034
-0.06960000000000005,-0.10741902899875223
-0.07060000000000005,-0.10748976456374548
-0.07160000000000005,-0.10751805878974278
-0.07260000000000005,-0.10758879435473605
-0.07360000000000005,-0.10764538280673064
-0.07460000000000006,-0.1076878241457266
-0.07560000000000006,-0.10775855971071985
-0.07660000000000006,-0.1078010010497158
-0.07760000000000006,-0.10784344238871174
-0.07860000000000006,-0.10791417795370499
-0.07960000000000006,-0.10792832506670365
-0.08060000000000006,-0.10797076640569962
-0.08160000000000006,-0.1079990606316969
-0.08260000000000006,-0.10804150197069286
-0.08360000000000006,-0.1080839433096888
-0.08460000000000006,-0.10809809042268745
-0.08560000000000006,-0.1081405317616834
-0.08660000000000007,-0.10815467887468207
-0.08760000000000007,-0.10816882598768068
-0.08860000000000007,-0.10821126732667666
-0.08960000000000007,-0.10823956155267396
-0.09060000000000007,-0.10826785577867125
-0.09160000000000007,-0.10826785577867125
-0.09260000000000007,-0.10828200289166989
-0.09360000000000007,-0.1083102971176672
-0.09460000000000007,-0.1083102971176672
-0.09560000000000007,-0.10833859134366451
-0.09660000000000007,-0.10833859134366451
-0.09760000000000008,-0.10832444423066585
-0.09860000000000008,-0.10833859134366451
-0.09960000000000008,-0.10835273845666317
-0.10060000000000008,-0.10833859134366451
-0.10160000000000008,-0.1083668855696618
-0.10260000000000008,-0.10833859134366451
-0.10360000000000008,-0.1083668855696618
-0.10460000000000008,-0.1083668855696618
-0.10560000000000008,-0.10835273845666317
-0.10660000000000008,-0.10835273845666317
-0.10760000000000008,-0.10835273845666317
-0.10860000000000009,-0.10835273845666317
-0.10960000000000009,-0.1083668855696618
-0.11060000000000009,-0.1083668855696618
-0.11160000000000009,-0.10832444423066585
-0.11260000000000009,-0.1083102971176672
-0.11360000000000009,-0.10832444423066585
-0.11460000000000009,-0.10835273845666317
-0.11560000000000009,-0.10835273845666317
-0.11660000000000009,-0.10832444423066585
-0.1176000000000001,-0.1083102971176672
-0.1186000000000001,-0.1083102971176672
-0.1196000000000001,-0.10829615000466856
-0.1206000000000001,-0.10832444423066585
-0.1216000000000001,-0.10829615000466856
-0.1226000000000001,-0.10829615000466856
-0.1236000000000001,-0.10832444423066585
-0.1246000000000001,-0.1083102971176672
-0.1256000000000001,-0.1083102971176672
-0.1266000000000001,-0.10832444423066585
-0.1276000000000001,-0.10832444423066585
-0.1286000000000001,-0.1083668855696618
-0.1296000000000001,-0.10835273845666317
-0.1306000000000001,-0.10838103268266046
-0.1316000000000001,-0.10840932690865775
-0.1326000000000001,-0.10840932690865775
-0.1336000000000001,-0.10845176824765372
-0.1346000000000001,-0.10848006247365101
-0.1356000000000001,-0.10850835669964831
-0.1366000000000001,-0.10852250381264696
-0.1376000000000001,-0.10852250381264696
-0.1386000000000001,-0.10857909226464157
-0.1396000000000001,-0.10860738649063886
-0.1406000000000001,-0.10866397494263345
-0.14160000000000011,-0.10872056339462807
-0.14260000000000012,-0.10874885762062536
-0.14360000000000012,-0.10879129895962131
-0.14460000000000012,-0.10883374029861728
-0.14560000000000012,-0.10887618163761323
-0.14660000000000012,-0.10893277008960783
-0.14760000000000012,-0.10897521142860378
-0.14860000000000012,-0.10903179988059837
-0.14960000000000012,-0.10908838833259296
-0.15060000000000012,-0.1091732710105849
-0.15160000000000012,-0.10921571234958084
-0.15260000000000012,-0.10930059502757274
-0.15360000000000013,-0.10935718347956734
-0.15460000000000013,-0.10941377193156195
-0.15560000000000013,-0.10949865460955385
-0.15660000000000013,-0.10955524306154844
-0.15760000000000013,-0.10961183151354303
-0.15860000000000013,-0.10971086130453359
-0.15960000000000002,-0.1097674497565282
-0.16060000000000002,-0.10988062666051741
-0.16160000000000002,-0.109937215112512
-0.16260000000000002,-0.11000795067750524
-0.16360000000000002,-0.11012112758149446
-0.16460000000000002,-0.11017771603348907
-0.16560000000000002,-0.11034748138947285
-0.16660000000000003,-0.11043236406746475
-0.16760000000000003,-0.11050309963245801
-0.16860000000000003,-0.1106162765364472
-0.16960000000000003,-0.11070115921443913
-0.17060000000000003,-0.11082848323142698
-0.17160000000000003,-0.11089921879642024
-0.17260000000000003,-0.11101239570040942
-0.17360000000000003,-0.11113971971739729
-0.17460000000000003,-0.11121045528239053
-0.17560000000000003,-0.11132363218637975
-0.17660000000000003,-0.11142266197737029
-0.17760000000000004,-0.11153583888135948
-0.17860000000000004,-0.11166316289834735
-0.17960000000000004,-0.11177633980233655
-0.18060000000000004,-0.1119319580453217
-0.18160000000000004,-0.1120168407233136
-0.18260000000000004,-0.11208757628830686
-0.18360000000000004,-0.1122149003052947
-0.18460000000000004,-0.11237051854827985
-0.18560000000000004,-0.11249784256526771
-0.18660000000000004,-0.11261101946925692
-0.18760000000000004,-0.11273834348624477
-0.18860000000000005,-0.11289396172922993
-0.18960000000000005,-0.11302128574621777
-0.19060000000000005,-0.11320519821520024
-0.19160000000000005,-0.1133325222321881
-0.19260000000000005,-0.1134456991361773
-0.19360000000000005,-0.1135871702661638
-0.19460000000000005,-0.11371449428315164
-0.19560000000000005,-0.11394084809113005
-0.19660000000000005,-0.11406817210811791
-0.19760000000000005,-0.11418134901210711
-0.19860000000000005,-0.11430867302909498
-0.19960000000000006,-0.11447843838507876
-0.20060000000000006,-0.1146623508540612
-0.20160000000000006,-0.11480382198404772
-0.20260000000000006,-0.11493114600103559
-0.20360000000000006,-0.1150726171310221
-0.20460000000000006,-0.11519994114800992
-0.20560000000000006,-0.11534141227799644
-0.20660000000000006,-0.11545458918198566
-0.20760000000000006,-0.1156102074249708
-0.20860000000000006,-0.11573753144195865
-0.20960000000000006,-0.11579411989395326
-0.21060000000000006,-0.11587900257194515
-0.21160000000000007,-0.1159780323629357
-0.21260000000000007,-0.11610535637992356
-0.21360000000000007,-0.11621853328391277
-0.21460000000000007,-0.11631756307490332
-0.21560000000000007,-0.11640244575289523
-0.21660000000000007,-0.11650147554388576
-0.21760000000000007,-0.11664294667387226
-0.21860000000000007,-0.11677027069086011
-0.21960000000000007,-0.11689759470784798
-0.22060000000000007,-0.11699662449883853
-0.22160000000000007,-0.11708150717683044
-0.22260000000000008,-0.11718053696782099
-0.22360000000000008,-0.11733615521080615
-0.22460000000000008,-0.11753421479278725
-0.22560000000000008,-0.11773227437476834
-0.22660000000000008,-0.11784545127875755
-0.22760000000000008,-0.11793033395674946
-0.22860000000000008,-0.1179727752957454
-0.22960000000000008,-0.1181142464257319
-0.23060000000000008,-0.11818498199072516
-0.23160000000000008,-0.11822742332972111
-0.23260000000000008,-0.11828401178171571
-0.23360000000000009,-0.11829815889471437
-0.2346000000000001,-0.11839718868570492
-0.2356000000000001,-0.11845377713769951
-0.2366000000000001,-0.11845377713769951
-0.2376000000000001,-0.11846792425069817
-0.2386000000000001,-0.11852451270269278
-0.2396000000000001,-0.11852451270269278
-0.2406000000000001,-0.11848207136369682
-0.2416000000000001,-0.11841133579870355
-0.2426000000000001,-0.11843963002470087
-0.2436000000000001,-0.11846792425069817
-0.2446000000000001,-0.11843963002470087
-0.2456000000000001,-0.11849621847669549
-0.2466000000000001,-0.11848207136369682
-0.2476000000000001,-0.11848207136369682
-0.2486000000000001,-0.11855280692869007
-0.2496000000000001,-0.11855280692869007
-0.2506000000000001,-0.11853865981569144
-0.2516000000000001,-0.11855280692869007
-0.2526000000000001,-0.11858110115468738
-0.2536000000000001,-0.11859524826768601
-0.2546000000000001,-0.11858110115468738
-0.2556000000000001,-0.11853865981569144
-0.2566000000000001,-0.11842548291170223
-0.2576000000000001,-0.11839718868570492
-0.2586000000000001,-0.11846792425069817
-0.2596000000000001,-0.11842548291170223
-0.2606000000000001,-0.11845377713769951
-0.2616000000000001,-0.11853865981569144
-0.2626000000000001,-0.11841133579870355
-0.2636000000000001,-0.11824157044271978
-0.2646000000000001,-0.1181708348777265
-0.2656000000000001,-0.11802936374774001
-0.2666000000000001,-0.11784545127875755
-0.2676000000000001,-0.11774642148776701
-0.2686000000000001,-0.11768983303577239
-0.2696000000000001,-0.11761909747077916
-0.2706000000000001,-0.11756250901878454
-0.2716000000000001,-0.11749177345379128
-0.2726000000000001,-0.11740689077579938
-0.2736000000000001,-0.11730786098480883
-0.2746000000000001,-0.1173220080978075
-0.2756000000000001,-0.1172371254198156
-0.2766000000000001,-0.11718053696782099
-0.2776000000000001,-0.11708150717683044
-0.2786000000000001,-0.11698247738583989
-0.2796000000000001,-0.11685515336885204
-0.2806000000000001,-0.11668538801286822
-0.28160000000000013,-0.11655806399588038
-0.28260000000000013,-0.11637415152689792
-0.28360000000000013,-0.116289268848906
-0.2846,-0.11614779771891949
-0.2856,-0.11603462081493031
-0.2866,-0.11596388524993705
-0.2876,-0.1159214439109411
-0.2886,-0.11587900257194515
-0.2896,-0.11585070834594786
-0.2906,-0.11587900257194515
-0.2916,-0.11582241411995055
-0.2926,-0.1157799727809546
-0.2936,-0.11582241411995055
-0.29460000000000003,-0.1157799727809546
-0.29560000000000003,-0.11580826700695189
-0.29660000000000003,-0.11573753144195865
-0.29760000000000003,-0.11568094298996405
-0.29860000000000003,-0.11562435453796945
-0.29960000000000003,-0.11545458918198566
-0.30060000000000003,-0.1153555593909951
-0.30160000000000003,-0.1152140882610086
-0.30260000000000004,-0.11519994114800992
-0.30360000000000004,-0.11525652960000454
-0.30460000000000004,-0.11528482382600183
-0.30560000000000004,-0.11522823537400724
-0.30660000000000004,-0.11519994114800992
-0.30760000000000004,-0.11528482382600183
-0.30860000000000004,-0.11531311805199915
-0.30960000000000004,-0.11536970650399375
-0.31060000000000004,-0.11542629495598833
-0.31160000000000004,-0.11539800072999104
-0.31260000000000004,-0.11531311805199915
-0.31360000000000005,-0.11525652960000454
-0.31460000000000005,-0.11532726516499778
-0.31560000000000005,-0.11539800072999104
-0.31660000000000005,-0.11539800072999104
-0.31760000000000005,-0.11548288340798295
-0.31860000000000005,-0.11553947185997754
-0.31960000000000005,-0.11559606031197216
-0.32060000000000005,-0.11565264876396675
-0.32160000000000005,-0.11580826700695189
-0.32260000000000005,-0.11575167855495731
-0.32360000000000005,-0.11573753144195865
-0.32460000000000006,-0.11570923721596137
-0.32560000000000006,-0.11568094298996405
-0.32660000000000006,-0.11568094298996405
-0.32760000000000006,-0.11565264876396675
-0.32860000000000006,-0.11568094298996405
-0.32960000000000006,-0.11570923721596137
-0.33060000000000006,-0.11575167855495731
-0.33160000000000006,-0.11579411989395326
-0.33260000000000006,-0.11572338432896
-0.33360000000000006,-0.11568094298996405
-0.33460000000000006,-0.1156950901029627
-0.33560000000000006,-0.11575167855495731
-0.33660000000000007,-0.11579411989395326
-0.33760000000000007,-0.11582241411995055
-0.33860000000000007,-0.1159214439109411
-0.33960000000000007,-0.11603462081493031
-0.34060000000000007,-0.11623268039691143
-0.34160000000000007,-0.11634585730090061
-0.34260000000000007,-0.11643073997889253
-0.34360000000000007,-0.11641659286589387
-0.3446000000000001,-0.11648732843088712
-0.3456000000000001,-0.11648732843088712
-0.3466000000000001,-0.11652976976988305
-0.34759999999999996,-0.11667124089986959
-0.3486000000000001,-0.11678441780385877
-0.34959999999999997,-0.11691174182084664
-0.3506000000000001,-0.11699662449883853
-0.35159999999999997,-0.11706736006383177
-0.3526000000000001,-0.11720883119381828
-0.35359999999999997,-0.11735030232380478
-0.3546000000000001,-0.11747762634079266
-0.35559999999999997,-0.11757665613178321
-0.3566000000000001,-0.1176615388097751
-0.3576,-0.11778886282676294
-0.3586000000000001,-0.11787374550475484
-0.3596,-0.11791618684375081
-0.3606000000000001,-0.11801521663474136
-0.3616,-0.11804351086073867
-0.3626000000000001,-0.11828401178171571
-0.3636,-0.11842548291170223
-0.3646000000000001,-0.11852451270269278
-0.3656,-0.11868013094567793
-0.3666000000000001,-0.11876501362366983
-0.3676,-0.11886404341466038
-0.3686000000000001,-0.11896307320565094
-0.3696,-0.11901966165764555
-0.3706000000000001,-0.1192318683526253
-0.3716,-0.11927430969162124
-0.3726000000000001,-0.11930260391761856
-0.3736,-0.11937333948261179
-0.3746000000000001,-0.11950066349959966
-0.3756,-0.11961384040358886
-0.3766000000000001,-0.11976945864657401
-0.3776,-0.1199958124545524
-0.3786000000000001,-0.1201372835845389
-0.3796,-0.12029290182752407
-0.3806000000000001,-0.12049096140950517
-0.3816,-0.12063243253949167
-0.3826000000000001,-0.12077390366947817
-0.3836,-0.120943669025462
-0.3846000000000001,-0.1210851401554485
-0.3856,-0.121226611285435
-0.3866000000000001,-0.12149540643240934
-0.3876,-0.1216227304493972
-0.3886000000000001,-0.12189152559637156
-0.3896,-0.12204714383935672
-0.3906000000000001,-0.12218861496934323
-0.3916,-0.12231593898633109
-0.3926000000000001,-0.12251399856831217
-0.3936,-0.12278279371528653
-0.3946000000000001,-0.12300914752326494
-0.3956,-0.12313647154025278
-0.3966000000000001,-0.1233062368962366
-0.3976,-0.1234760022522204
-0.3986000000000001,-0.12361747338220691
-0.3996,-0.12377309162519207
-0.4006000000000001,-0.1239004156421799
-0.4016,-0.12405603388516506
-0.4026000000000001,-0.12429653480614214
-0.4036,-0.12450874150112187
-0.4046000000000001,-0.12472094819610165
-0.4056,-0.12493315489108141
-0.40660000000000013,-0.12517365581205844
-0.4076,-0.1254424509590328
-0.40860000000000013,-0.125555627863022
-0.4096,-0.1256688047670112
-0.41060000000000013,-0.12582442300999636
-0.4116,-0.12602248259197746
-0.41260000000000013,-0.12616395372196398
-0.4136,-0.12637616041694374
-0.41460000000000014,-0.12651763154693024
-0.4156,-0.12667324978991537
-0.41660000000000014,-0.12685716225889784
-0.4176,-0.1270976631798749
-0.41860000000000014,-0.12732401698785328
-0.41960000000000003,-0.12753622368283307
-0.42060000000000014,-0.1277625774908115
-0.42160000000000003,-0.12801722552478714
-0.42260000000000014,-0.1283001677847602
-0.42360000000000003,-0.12849822736674127
-0.42460000000000014,-0.12863969849672777
-0.42560000000000003,-0.12885190519170753
-0.42660000000000015,-0.12914899456467918
-0.42760000000000004,-0.1294602310506495
-0.42860000000000015,-0.12965829063263062
-0.42960000000000004,-0.12984220310161304
-0.43060000000000015,-0.13004026268359417
-0.43160000000000004,-0.13028076360457122
-0.43260000000000015,-0.1304363818475564
-0.43360000000000004,-0.13067688276853343
-0.43460000000000015,-0.1308607952375159
-0.43560000000000004,-0.1311437374974889
-0.43660000000000015,-0.13135594419246865
-0.43760000000000004,-0.13161059222644436
