Mar. 30, 2025   06:44:02
Cyclic Voltammetry
File: c:/users/guazh/data/banditlqround7_x0exp518_r20/2025-03-28-exp987\exp987-2025-03-30t06_24_01-h2koh\exp987_cv_sr_700mvs_efin_-1700mv.bin
Data Source:  Experiment
Instrument Model:  CHI760E
Header: CV ran at 700 mVs
Note: 

Init E (V) = -1
High E (V) = -1
Low E (V) = -1.7
Final E (V) = -1
Init P/N = N
Scan Rate (V/s) = 0.7
Segment = 3
Sample Interval (V) = 0.001
Quiet Time (sec) = 2
Sensitivity (A/V) = 0.01
Comp R (ohm) = 2.0

Results:

Channel 1:
Segment 1:
Ep = -1.320V
ip = 1.198e-5A
Ah = 5.326e-7C

Segment 2:

Segment 3:

Potential/V, Current/A

-1.000, 1.249e-5
-1.001, 2.790e-5
-1.002, 3.407e-5
-1.003, 3.715e-5
-1.004, 4.024e-5
-1.005, 4.332e-5
-1.006, 4.640e-5
-1.007, 4.640e-5
-1.008, 4.640e-5
-1.009, 4.949e-5
-1.010, 4.949e-5
-1.011, 4.949e-5
-1.012, 4.949e-5
-1.013, 4.949e-5
-1.014, 4.949e-5
-1.015, 5.257e-5
-1.016, 5.257e-5
-1.017, 5.257e-5
-1.018, 5.257e-5
-1.019, 5.257e-5
-1.020, 5.257e-5
-1.021, 5.565e-5
-1.022, 5.565e-5
-1.023, 5.565e-5
-1.024, 5.873e-5
-1.025, 5.873e-5
-1.026, 5.873e-5
-1.027, 6.182e-5
-1.028, 6.490e-5
-1.029, 6.490e-5
-1.030, 6.490e-5
-1.031, 6.490e-5
-1.032, 6.490e-5
-1.033, 6.490e-5
-1.034, 6.798e-5
-1.035, 6.798e-5
-1.036, 6.798e-5
-1.037, 6.490e-5
-1.038, 6.798e-5
-1.039, 6.798e-5
-1.040, 6.798e-5
-1.041, 7.107e-5
-1.042, 6.798e-5
-1.043, 7.107e-5
-1.044, 6.798e-5
-1.045, 7.107e-5
-1.046, 7.107e-5
-1.047, 7.107e-5
-1.048, 7.107e-5
-1.049, 6.798e-5
-1.050, 7.107e-5
-1.051, 7.107e-5
-1.052, 7.107e-5
-1.053, 7.107e-5
-1.054, 7.107e-5
-1.055, 7.107e-5
-1.056, 7.107e-5
-1.057, 7.107e-5
-1.058, 7.107e-5
-1.059, 7.107e-5
-1.060, 7.107e-5
-1.061, 7.107e-5
-1.062, 7.415e-5
-1.063, 7.415e-5
-1.064, 7.415e-5
-1.065, 7.415e-5
-1.066, 7.415e-5
-1.067, 7.415e-5
-1.068, 7.415e-5
-1.069, 7.415e-5
-1.070, 7.723e-5
-1.071, 7.415e-5
-1.072, 7.723e-5
-1.073, 7.723e-5
-1.074, 7.723e-5
-1.075, 7.723e-5
-1.076, 7.723e-5
-1.077, 7.723e-5
-1.078, 7.723e-5
-1.079, 7.723e-5
-1.080, 7.723e-5
-1.081, 8.032e-5
-1.082, 7.723e-5
-1.083, 8.032e-5
-1.084, 7.723e-5
-1.085, 8.032e-5
-1.086, 8.032e-5
-1.087, 8.032e-5
-1.088, 8.032e-5
-1.089, 8.032e-5
-1.090, 8.032e-5
-1.091, 8.032e-5
-1.092, 8.032e-5
-1.093, 8.032e-5
-1.094, 8.032e-5
-1.095, 8.032e-5
-1.096, 7.723e-5
-1.097, 8.032e-5
-1.098, 8.032e-5
-1.099, 8.032e-5
-1.100, 8.032e-5
-1.101, 8.032e-5
-1.102, 8.032e-5
-1.103, 8.032e-5
-1.104, 8.032e-5
-1.105, 8.032e-5
-1.106, 8.032e-5
-1.107, 8.032e-5
-1.108, 8.340e-5
-1.109, 8.032e-5
-1.110, 8.340e-5
-1.111, 8.340e-5
-1.112, 8.340e-5
-1.113, 8.340e-5
-1.114, 8.340e-5
-1.115, 8.340e-5
-1.116, 8.340e-5
-1.117, 8.340e-5
-1.118, 8.032e-5
-1.119, 8.340e-5
-1.120, 8.340e-5
-1.121, 8.340e-5
-1.122, 8.340e-5
-1.123, 8.340e-5
-1.124, 8.340e-5
-1.125, 8.340e-5
-1.126, 8.648e-5
-1.127, 8.648e-5
-1.128, 8.648e-5
-1.129, 8.648e-5
-1.130, 8.648e-5
-1.131, 8.648e-5
-1.132, 8.957e-5
-1.133, 8.648e-5
-1.134, 8.957e-5
-1.135, 8.957e-5
-1.136, 8.648e-5
-1.137, 8.957e-5
-1.138, 8.648e-5
-1.139, 8.648e-5
-1.140, 8.648e-5
-1.141, 8.648e-5
-1.142, 8.648e-5
-1.143, 8.957e-5
-1.144, 8.957e-5
-1.145, 8.957e-5
-1.146, 8.957e-5
-1.147, 8.957e-5
-1.148, 8.957e-5
-1.149, 8.957e-5
-1.150, 8.957e-5
-1.151, 8.957e-5
-1.152, 9.265e-5
-1.153, 8.957e-5
-1.154, 8.957e-5
-1.155, 9.265e-5
-1.156, 8.957e-5
-1.157, 9.265e-5
-1.158, 9.265e-5
-1.159, 9.265e-5
-1.160, 9.265e-5
-1.161, 9.265e-5
-1.162, 9.265e-5
-1.163, 9.265e-5
-1.164, 9.265e-5
-1.165, 9.265e-5
-1.166, 9.265e-5
-1.167, 9.265e-5
-1.168, 9.265e-5
-1.169, 9.265e-5
-1.170, 9.265e-5
-1.171, 9.265e-5
-1.172, 9.265e-5
-1.173, 9.265e-5
-1.174, 9.265e-5
-1.175, 9.573e-5
-1.176, 9.265e-5
-1.177, 9.265e-5
-1.178, 9.265e-5
-1.179, 9.265e-5
-1.180, 9.573e-5
-1.181, 9.573e-5
-1.182, 9.573e-5
-1.183, 9.573e-5
-1.184, 9.573e-5
-1.185, 9.573e-5
-1.186, 9.573e-5
-1.187, 9.573e-5
-1.188, 9.573e-5
-1.189, 9.573e-5
-1.190, 9.882e-5
-1.191, 9.573e-5
-1.192, 9.882e-5
-1.193, 9.882e-5
-1.194, 9.882e-5
-1.195, 9.882e-5
-1.196, 9.882e-5
-1.197, 9.882e-5
-1.198, 9.882e-5
-1.199, 9.882e-5
-1.200, 9.882e-5
-1.201, 9.882e-5
-1.202, 9.882e-5
-1.203, 9.882e-5
-1.204, 9.882e-5
-1.205, 9.882e-5
-1.206, 1.019e-4
-1.207, 1.019e-4
-1.208, 1.019e-4
-1.209, 1.019e-4
-1.210, 1.019e-4
-1.211, 1.019e-4
-1.212, 1.019e-4
-1.213, 1.019e-4
-1.214, 1.019e-4
-1.215, 1.019e-4
-1.216, 1.019e-4
-1.217, 1.050e-4
-1.218, 1.019e-4
-1.219, 1.050e-4
-1.220, 1.019e-4
-1.221, 1.019e-4
-1.222, 1.019e-4
-1.223, 1.019e-4
-1.224, 1.019e-4
-1.225, 1.019e-4
-1.226, 1.019e-4
-1.227, 1.019e-4
-1.228, 1.019e-4
-1.229, 1.019e-4
-1.230, 1.019e-4
-1.231, 1.019e-4
-1.232, 1.019e-4
-1.233, 1.019e-4
-1.234, 1.019e-4
-1.235, 1.019e-4
-1.236, 1.019e-4
-1.237, 1.050e-4
-1.238, 1.050e-4
-1.239, 1.050e-4
-1.240, 1.050e-4
-1.241, 1.050e-4
-1.242, 1.050e-4
-1.243, 1.050e-4
-1.244, 1.050e-4
-1.245, 1.050e-4
-1.246, 1.081e-4
-1.247, 1.050e-4
-1.248, 1.050e-4
-1.249, 1.081e-4
-1.250, 1.081e-4
-1.251, 1.081e-4
-1.252, 1.081e-4
-1.253, 1.081e-4
-1.254, 1.081e-4
-1.255, 1.081e-4
-1.256, 1.050e-4
-1.257, 1.050e-4
-1.258, 1.050e-4
-1.259, 1.050e-4
-1.260, 1.081e-4
-1.261, 1.081e-4
-1.262, 1.081e-4
-1.263, 1.081e-4
-1.264, 1.081e-4
-1.265, 1.081e-4
-1.266, 1.081e-4
-1.267, 1.081e-4
-1.268, 1.081e-4
-1.269, 1.111e-4
-1.270, 1.081e-4
-1.271, 1.111e-4
-1.272, 1.111e-4
-1.273, 1.111e-4
-1.274, 1.111e-4
-1.275, 1.111e-4
-1.276, 1.111e-4
-1.277, 1.111e-4
-1.278, 1.111e-4
-1.279, 1.111e-4
-1.280, 1.111e-4
-1.281, 1.111e-4
-1.282, 1.111e-4
-1.283, 1.081e-4
-1.284, 1.111e-4
-1.285, 1.081e-4
-1.286, 1.111e-4
-1.287, 1.111e-4
-1.288, 1.081e-4
-1.289, 1.111e-4
-1.290, 1.081e-4
-1.291, 1.081e-4
-1.292, 1.081e-4
-1.293, 1.081e-4
-1.294, 1.081e-4
-1.295, 1.111e-4
-1.296, 1.111e-4
-1.297, 1.111e-4
-1.298, 1.111e-4
-1.299, 1.111e-4
-1.300, 1.111e-4
-1.301, 1.111e-4
-1.302, 1.111e-4
-1.303, 1.111e-4
-1.304, 1.111e-4
-1.305, 1.111e-4
-1.306, 1.111e-4
-1.307, 1.142e-4
-1.308, 1.142e-4
-1.309, 1.142e-4
-1.310, 1.142e-4
-1.311, 1.173e-4
-1.312, 1.173e-4
-1.313, 1.173e-4
-1.314, 1.173e-4
-1.315, 1.173e-4
-1.316, 1.173e-4
-1.317, 1.173e-4
-1.318, 1.173e-4
-1.319, 1.173e-4
-1.320, 1.204e-4
-1.321, 1.173e-4
-1.322, 1.204e-4
-1.323, 1.173e-4
-1.324, 1.173e-4
-1.325, 1.173e-4
-1.326, 1.173e-4
-1.327, 1.173e-4
-1.328, 1.173e-4
-1.329, 1.173e-4
-1.330, 1.173e-4
-1.331, 1.173e-4
-1.332, 1.204e-4
-1.333, 1.204e-4
-1.334, 1.173e-4
-1.335, 1.173e-4
-1.336, 1.173e-4
-1.337, 1.173e-4
-1.338, 1.173e-4
-1.339, 1.142e-4
-1.340, 1.173e-4
-1.341, 1.142e-4
-1.342, 1.142e-4
-1.343, 1.142e-4
-1.344, 1.142e-4
-1.345, 1.142e-4
-1.346, 1.142e-4
-1.347, 1.142e-4
-1.348, 1.111e-4
-1.349, 1.111e-4
-1.350, 1.111e-4
-1.351, 1.111e-4
-1.352, 1.111e-4
-1.353, 1.111e-4
-1.354, 1.111e-4
-1.355, 1.111e-4
-1.356, 1.111e-4
-1.357, 1.111e-4
-1.358, 1.081e-4
-1.359, 1.111e-4
-1.360, 1.111e-4
-1.361, 1.111e-4
-1.362, 1.111e-4
-1.363, 1.111e-4
-1.364, 1.111e-4
-1.365, 1.111e-4
-1.366, 1.111e-4
-1.367, 1.142e-4
-1.368, 1.111e-4
-1.369, 1.142e-4
-1.370, 1.142e-4
-1.371, 1.142e-4
-1.372, 1.142e-4
-1.373, 1.142e-4
-1.374, 1.142e-4
-1.375, 1.142e-4
-1.376, 1.173e-4
-1.377, 1.142e-4
-1.378, 1.173e-4
-1.379, 1.173e-4
-1.380, 1.173e-4
-1.381, 1.173e-4
-1.382, 1.173e-4
-1.383, 1.173e-4
-1.384, 1.173e-4
-1.385, 1.173e-4
-1.386, 1.173e-4
-1.387, 1.173e-4
-1.388, 1.173e-4
-1.389, 1.173e-4
-1.390, 1.173e-4
-1.391, 1.204e-4
-1.392, 1.173e-4
-1.393, 1.204e-4
-1.394, 1.204e-4
-1.395, 1.204e-4
-1.396, 1.204e-4
-1.397, 1.204e-4
-1.398, 1.235e-4
-1.399, 1.204e-4
-1.400, 1.235e-4
-1.401, 1.235e-4
-1.402, 1.235e-4
-1.403, 1.235e-4
-1.404, 1.235e-4
-1.405, 1.266e-4
-1.406, 1.235e-4
-1.407, 1.266e-4
-1.408, 1.266e-4
-1.409, 1.266e-4
-1.410, 1.266e-4
-1.411, 1.266e-4
-1.412, 1.296e-4
-1.413, 1.296e-4
-1.414, 1.296e-4
-1.415, 1.327e-4
-1.416, 1.327e-4
-1.417, 1.327e-4
-1.418, 1.327e-4
-1.419, 1.327e-4
-1.420, 1.327e-4
-1.421, 1.358e-4
-1.422, 1.358e-4
-1.423, 1.358e-4
-1.424, 1.358e-4
-1.425, 1.389e-4
-1.426, 1.389e-4
-1.427, 1.389e-4
-1.428, 1.420e-4
-1.429, 1.420e-4
-1.430, 1.420e-4
-1.431, 1.451e-4
-1.432, 1.451e-4
-1.433, 1.451e-4
-1.434, 1.481e-4
-1.435, 1.481e-4
-1.436, 1.512e-4
-1.437, 1.512e-4
-1.438, 1.543e-4
-1.439, 1.543e-4
-1.440, 1.574e-4
-1.441, 1.574e-4
-1.442, 1.574e-4
-1.443, 1.605e-4
-1.444, 1.636e-4
-1.445, 1.636e-4
-1.446, 1.666e-4
-1.447, 1.666e-4
-1.448, 1.697e-4
-1.449, 1.728e-4
-1.450, 1.759e-4
-1.451, 1.790e-4
-1.452, 1.821e-4
-1.453, 1.851e-4
-1.454, 1.851e-4
-1.455, 1.913e-4
-1.456, 1.944e-4
-1.457, 1.975e-4
-1.458, 2.006e-4
-1.459, 2.036e-4
-1.460, 2.067e-4
-1.461, 2.098e-4
-1.462, 2.129e-4
-1.463, 2.191e-4
-1.464, 2.221e-4
-1.465, 2.252e-4
-1.466, 2.314e-4
-1.467, 2.345e-4
-1.468, 2.376e-4
-1.469, 2.437e-4
-1.470, 2.499e-4
-1.471, 2.530e-4
-1.472, 2.591e-4
-1.473, 2.653e-4
-1.474, 2.684e-4
-1.475, 2.746e-4
-1.476, 2.807e-4
-1.477, 2.838e-4
-1.478, 2.900e-4
-1.479, 2.961e-4
-1.480, 2.992e-4
-1.481, 3.054e-4
-1.482, 3.115e-4
-1.483, 3.177e-4
-1.484, 3.208e-4
-1.485, 3.239e-4
-1.486, 3.300e-4
-1.487, 3.362e-4
-1.488, 3.424e-4
-1.489, 3.516e-4
-1.490, 3.578e-4
-1.491, 3.640e-4
-1.492, 3.701e-4
-1.493, 3.763e-4
-1.494, 3.855e-4
-1.495, 3.917e-4
-1.496, 4.010e-4
-1.497, 4.071e-4
-1.498, 4.195e-4
-1.499, 4.287e-4
-1.500, 4.441e-4
-1.501, 4.595e-4
-1.502, 4.750e-4
-1.503, 4.965e-4
-1.504, 5.120e-4
-1.505, 5.305e-4
-1.506, 5.489e-4
-1.507, 5.674e-4
-1.508, 5.859e-4
-1.509, 6.014e-4
-1.510, 6.168e-4
-1.511, 6.322e-4
-1.512, 6.445e-4
-1.513, 6.599e-4
-1.514, 6.723e-4
-1.515, 6.846e-4
-1.516, 6.969e-4
-1.517, 7.093e-4
-1.518, 7.185e-4
-1.519, 7.309e-4
-1.520, 7.370e-4
-1.521, 7.463e-4
-1.522, 7.524e-4
-1.523, 7.617e-4
-1.524, 7.679e-4
-1.525, 7.771e-4
-1.526, 7.863e-4
-1.527, 7.956e-4
-1.528, 8.079e-4
-1.529, 8.203e-4
-1.530, 8.326e-4
-1.531, 8.418e-4
-1.532, 8.542e-4
-1.533, 8.634e-4
-1.534, 8.788e-4
-1.535, 8.881e-4
-1.536, 9.035e-4
-1.537, 9.158e-4
-1.538, 9.313e-4
-1.539, 9.498e-4
-1.540, 9.683e-4
-1.541, 9.868e-4
-1.542, 1.008e-3
-1.543, 1.030e-3
-1.544, 1.055e-3
-1.545, 1.082e-3
-1.546, 1.110e-3
-1.547, 1.138e-3
-1.548, 1.166e-3
-1.549, 1.193e-3
-1.550, 1.218e-3
-1.551, 1.243e-3
-1.552, 1.270e-3
-1.553, 1.292e-3
-1.554, 1.317e-3
-1.555, 1.338e-3
-1.556, 1.360e-3
-1.557, 1.378e-3
-1.558, 1.397e-3
-1.559, 1.412e-3
-1.560, 1.431e-3
-1.561, 1.446e-3
-1.562, 1.465e-3
-1.563, 1.483e-3
-1.564, 1.502e-3
-1.565, 1.520e-3
-1.566, 1.539e-3
-1.567, 1.557e-3
-1.568, 1.579e-3
-1.569, 1.597e-3
-1.570, 1.616e-3
-1.571, 1.637e-3
-1.572, 1.659e-3
-1.573, 1.677e-3
-1.574, 1.702e-3
-1.575, 1.727e-3
-1.576, 1.754e-3
-1.577, 1.788e-3
-1.578, 1.819e-3
-1.579, 1.853e-3
-1.580, 1.884e-3
-1.581, 1.915e-3
-1.582, 1.943e-3
-1.583, 1.970e-3
-1.584, 1.998e-3
-1.585, 2.029e-3
-1.586, 2.063e-3
-1.587, 2.094e-3
-1.588, 2.131e-3
-1.589, 2.164e-3
-1.590, 2.198e-3
-1.591, 2.232e-3
-1.592, 2.266e-3
-1.593, 2.294e-3
-1.594, 2.325e-3
-1.595, 2.353e-3
-1.596, 2.383e-3
-1.597, 2.411e-3
-1.598, 2.436e-3
-1.599, 2.464e-3
-1.600, 2.491e-3
-1.601, 2.522e-3
-1.602, 2.553e-3
-1.603, 2.587e-3
-1.604, 2.615e-3
-1.605, 2.645e-3
-1.606, 2.673e-3
-1.607, 2.701e-3
-1.608, 2.729e-3
-1.609, 2.753e-3
-1.610, 2.781e-3
-1.611, 2.806e-3
-1.612, 2.834e-3
-1.613, 2.861e-3
-1.614, 2.886e-3
-1.615, 2.914e-3
-1.616, 2.938e-3
-1.617, 2.969e-3
-1.618, 2.997e-3
-1.619, 3.028e-3
-1.620, 3.062e-3
-1.621, 3.096e-3
-1.622, 3.126e-3
-1.623, 3.160e-3
-1.624, 3.197e-3
-1.625, 3.234e-3
-1.626, 3.274e-3
-1.627, 3.314e-3
-1.628, 3.351e-3
-1.629, 3.385e-3
-1.630, 3.416e-3
-1.631, 3.447e-3
-1.632, 3.481e-3
-1.633, 3.512e-3
-1.634, 3.543e-3
-1.635, 3.573e-3
-1.636, 3.601e-3
-1.637, 3.632e-3
-1.638, 3.663e-3
-1.639, 3.694e-3
-1.640, 3.721e-3
-1.641, 3.749e-3
-1.642, 3.780e-3
-1.643, 3.814e-3
-1.644, 3.851e-3
-1.645, 3.885e-3
-1.646, 3.922e-3
-1.647, 3.959e-3
-1.648, 3.999e-3
-1.649, 4.039e-3
-1.650, 4.079e-3
-1.651, 4.116e-3
-1.652, 4.150e-3
-1.653, 4.184e-3
-1.654, 4.224e-3
-1.655, 4.270e-3
-1.656, 4.317e-3
-1.657, 4.369e-3
-1.658, 4.418e-3
-1.659, 4.471e-3
-1.660, 4.520e-3
-1.661, 4.566e-3
-1.662, 4.609e-3
-1.663, 4.649e-3
-1.664, 4.686e-3
-1.665, 4.723e-3
-1.666, 4.760e-3
-1.667, 4.801e-3
-1.668, 4.844e-3
-1.669, 4.887e-3
-1.670, 4.933e-3
-1.671, 4.979e-3
-1.672, 5.032e-3
-1.673, 5.081e-3
-1.674, 5.127e-3
-1.675, 5.171e-3
-1.676, 5.208e-3
-1.677, 5.241e-3
-1.678, 5.272e-3
-1.679, 5.297e-3
-1.680, 5.325e-3
-1.681, 5.346e-3
-1.682, 5.368e-3
-1.683, 5.389e-3
-1.684, 5.411e-3
-1.685, 5.433e-3
-1.686, 5.457e-3
-1.687, 5.482e-3
-1.688, 5.510e-3
-1.689, 5.531e-3
-1.690, 5.550e-3
-1.691, 5.565e-3
-1.692, 5.578e-3
-1.693, 5.590e-3
-1.694, 5.599e-3
-1.695, 5.605e-3
-1.696, 5.602e-3
-1.697, 5.596e-3
-1.698, 5.587e-3
-1.699, 5.578e-3
-1.700, 5.544e-3
-1.699, 5.473e-3
-1.698, 5.405e-3
-1.697, 5.343e-3
-1.696, 5.285e-3
-1.695, 5.229e-3
-1.694, 5.183e-3
-1.693, 5.146e-3
-1.692, 5.109e-3
-1.691, 5.072e-3
-1.690, 5.035e-3
-1.689, 4.998e-3
-1.688, 4.967e-3
-1.687, 4.939e-3
-1.686, 4.915e-3
-1.685, 4.896e-3
-1.684, 4.884e-3
-1.683, 4.875e-3
-1.682, 4.868e-3
-1.681, 4.865e-3
-1.680, 4.859e-3
-1.679, 4.853e-3
-1.678, 4.844e-3
-1.677, 4.831e-3
-1.676, 4.816e-3
-1.675, 4.797e-3
-1.674, 4.779e-3
-1.673, 4.757e-3
-1.672, 4.736e-3
-1.671, 4.711e-3
-1.670, 4.690e-3
-1.669, 4.662e-3
-1.668, 4.631e-3
-1.667, 4.600e-3
-1.666, 4.560e-3
-1.665, 4.520e-3
-1.664, 4.480e-3
-1.663, 4.437e-3
-1.662, 4.400e-3
-1.661, 4.366e-3
-1.660, 4.335e-3
-1.659, 4.301e-3
-1.658, 4.267e-3
-1.657, 4.230e-3
-1.656, 4.190e-3
-1.655, 4.150e-3
-1.654, 4.107e-3
-1.653, 4.064e-3
-1.652, 4.017e-3
-1.651, 3.971e-3
-1.650, 3.928e-3
-1.649, 3.891e-3
-1.648, 3.860e-3
-1.647, 3.832e-3
-1.646, 3.805e-3
-1.645, 3.774e-3
-1.644, 3.734e-3
-1.643, 3.694e-3
-1.642, 3.651e-3
-1.641, 3.604e-3
-1.640, 3.558e-3
-1.639, 3.515e-3
-1.638, 3.472e-3
-1.637, 3.435e-3
-1.636, 3.401e-3
-1.635, 3.367e-3
-1.634, 3.333e-3
-1.633, 3.299e-3
-1.632, 3.265e-3
-1.631, 3.225e-3
-1.630, 3.185e-3
-1.629, 3.145e-3
-1.628, 3.105e-3
-1.627, 3.065e-3
-1.626, 3.025e-3
-1.625, 2.988e-3
-1.624, 2.948e-3
-1.623, 2.908e-3
-1.622, 2.867e-3
-1.621, 2.830e-3
-1.620, 2.797e-3
-1.619, 2.763e-3
-1.618, 2.732e-3
-1.617, 2.698e-3
-1.616, 2.670e-3
-1.615, 2.636e-3
-1.614, 2.602e-3
-1.613, 2.571e-3
-1.612, 2.541e-3
-1.611, 2.513e-3
-1.610, 2.488e-3
-1.609, 2.464e-3
-1.608, 2.445e-3
-1.607, 2.430e-3
-1.606, 2.417e-3
-1.605, 2.405e-3
-1.604, 2.390e-3
-1.603, 2.374e-3
-1.602, 2.359e-3
-1.601, 2.343e-3
-1.600, 2.325e-3
-1.599, 2.306e-3
-1.598, 2.288e-3
-1.597, 2.269e-3
-1.596, 2.251e-3
-1.595, 2.235e-3
-1.594, 2.223e-3
-1.593, 2.208e-3
-1.592, 2.195e-3
-1.591, 2.183e-3
-1.590, 2.168e-3
-1.589, 2.149e-3
-1.588, 2.128e-3
-1.587, 2.106e-3
-1.586, 2.078e-3
-1.585, 2.050e-3
-1.584, 2.020e-3
-1.583, 1.989e-3
-1.582, 1.958e-3
-1.581, 1.927e-3
-1.580, 1.899e-3
-1.579, 1.872e-3
-1.578, 1.847e-3
-1.577, 1.822e-3
-1.576, 1.798e-3
-1.575, 1.776e-3
-1.574, 1.751e-3
-1.573, 1.727e-3
-1.572, 1.702e-3
-1.571, 1.674e-3
-1.570, 1.647e-3
-1.569, 1.622e-3
-1.568, 1.597e-3
-1.567, 1.573e-3
-1.566, 1.551e-3
-1.565, 1.529e-3
-1.564, 1.505e-3
-1.563, 1.483e-3
-1.562, 1.458e-3
-1.561, 1.434e-3
-1.560, 1.409e-3
-1.559, 1.381e-3
-1.558, 1.357e-3
-1.557, 1.329e-3
-1.556, 1.301e-3
-1.555, 1.270e-3
-1.554, 1.246e-3
-1.553, 1.215e-3
-1.552, 1.193e-3
-1.551, 1.169e-3
-1.550, 1.144e-3
-1.549, 1.122e-3
-1.548, 1.101e-3
-1.547, 1.079e-3
-1.546, 1.058e-3
-1.545, 1.039e-3
-1.544, 1.021e-3
-1.543, 1.002e-3
-1.542, 9.837e-4
-1.541, 9.683e-4
-1.540, 9.528e-4
-1.539, 9.405e-4
-1.538, 9.251e-4
-1.537, 9.097e-4
-1.536, 8.973e-4
-1.535, 8.819e-4
-1.534, 8.696e-4
-1.533, 8.573e-4
-1.532, 8.418e-4
-1.531, 8.326e-4
-1.530, 8.172e-4
-1.529, 8.048e-4
-1.528, 7.956e-4
-1.527, 7.863e-4
-1.526, 7.740e-4
-1.525, 7.648e-4
-1.524, 7.555e-4
-1.523, 7.463e-4
-1.522, 7.370e-4
-1.521, 7.247e-4
-1.520, 7.154e-4
-1.519, 7.031e-4
-1.518, 6.939e-4
-1.517, 6.846e-4
-1.516, 6.723e-4
-1.515, 6.630e-4
-1.514, 6.507e-4
-1.513, 6.384e-4
-1.512, 6.291e-4
-1.511, 6.168e-4
-1.510, 6.075e-4
-1.509, 5.983e-4
-1.508, 5.890e-4
-1.507, 5.767e-4
-1.506, 5.644e-4
-1.505, 5.520e-4
-1.504, 5.428e-4
-1.503, 5.305e-4
-1.502, 5.181e-4
-1.501, 5.058e-4
-1.500, 4.965e-4
-1.499, 4.873e-4
-1.498, 4.780e-4
-1.497, 4.688e-4
-1.496, 4.626e-4
-1.495, 4.503e-4
-1.494, 4.410e-4
-1.493, 4.318e-4
-1.492, 4.225e-4
-1.491, 4.133e-4
-1.490, 4.040e-4
-1.489, 3.979e-4
-1.488, 3.886e-4
-1.487, 3.794e-4
-1.486, 3.701e-4
-1.485, 3.640e-4
-1.484, 3.578e-4
-1.483, 3.485e-4
-1.482, 3.424e-4
-1.481, 3.362e-4
-1.480, 3.270e-4
-1.479, 3.208e-4
-1.478, 3.146e-4
-1.477, 3.054e-4
-1.476, 2.992e-4
-1.475, 2.931e-4
-1.474, 2.869e-4
-1.473, 2.807e-4
-1.472, 2.746e-4
-1.471, 2.684e-4
-1.470, 2.622e-4
-1.469, 2.561e-4
-1.468, 2.499e-4
-1.467, 2.437e-4
-1.466, 2.376e-4
-1.465, 2.314e-4
-1.464, 2.252e-4
-1.463, 2.221e-4
-1.462, 2.160e-4
-1.461, 2.098e-4
-1.460, 2.067e-4
-1.459, 2.006e-4
-1.458, 1.975e-4
-1.457, 1.944e-4
-1.456, 1.882e-4
-1.455, 1.851e-4
-1.454, 1.821e-4
-1.453, 1.759e-4
-1.452, 1.728e-4
-1.451, 1.666e-4
-1.450, 1.636e-4
-1.449, 1.605e-4
-1.448, 1.574e-4
-1.447, 1.512e-4
-1.446, 1.481e-4
-1.445, 1.451e-4
-1.444, 1.420e-4
-1.443, 1.358e-4
-1.442, 1.327e-4
-1.441, 1.266e-4
-1.440, 1.235e-4
-1.439, 1.204e-4
-1.438, 1.173e-4
-1.437, 1.142e-4
-1.436, 1.111e-4
-1.435, 1.081e-4
-1.434, 1.050e-4
-1.433, 1.019e-4
-1.432, 9.882e-5
-1.431, 9.573e-5
-1.430, 9.265e-5
-1.429, 8.957e-5
-1.428, 8.648e-5
-1.427, 8.340e-5
-1.426, 8.340e-5
-1.425, 8.032e-5
-1.424, 7.723e-5
-1.423, 7.723e-5
-1.422, 7.415e-5
-1.421, 7.107e-5
-1.420, 7.107e-5
-1.419, 6.798e-5
-1.418, 6.490e-5
-1.417, 6.490e-5
-1.416, 6.182e-5
-1.415, 5.873e-5
-1.414, 5.873e-5
-1.413, 5.565e-5
-1.412, 5.257e-5
-1.411, 5.257e-5
-1.410, 4.949e-5
-1.409, 4.640e-5
-1.408, 4.640e-5
-1.407, 4.332e-5
-1.406, 4.332e-5
-1.405, 4.024e-5
-1.404, 3.715e-5
-1.403, 3.715e-5
-1.402, 3.407e-5
-1.401, 3.407e-5
-1.400, 3.099e-5
-1.399, 3.099e-5
-1.398, 2.790e-5
-1.397, 2.790e-5
-1.396, 2.482e-5
-1.395, 2.482e-5
-1.394, 2.174e-5
-1.393, 2.174e-5
-1.392, 1.865e-5
-1.391, 1.865e-5
-1.390, 1.557e-5
-1.389, 1.557e-5
-1.388, 1.249e-5
-1.387, 1.249e-5
-1.386, 1.249e-5
-1.385, 9.405e-6
-1.384, 9.405e-6
-1.383, 6.322e-6
-1.382, 6.322e-6
-1.381, 3.239e-6
-1.380, 3.239e-6
-1.379, 3.239e-6
-1.378, 1.559e-7
-1.377, 1.559e-7
-1.376, 1.559e-7
-1.375, -2.927e-6
-1.374, -2.927e-6
-1.373, -2.927e-6
-1.372, -6.010e-6
-1.371, -6.010e-6
-1.370, -9.093e-6
-1.369, -6.010e-6
-1.368, -9.093e-6
-1.367, -9.093e-6
-1.366, -1.218e-5
-1.365, -1.218e-5
-1.364, -1.218e-5
-1.363, -1.218e-5
-1.362, -1.526e-5
-1.361, -1.526e-5
-1.360, -1.526e-5
-1.359, -1.834e-5
-1.358, -1.834e-5
-1.357, -1.834e-5
-1.356, -1.834e-5
-1.355, -1.834e-5
-1.354, -2.143e-5
-1.353, -2.143e-5
-1.352, -2.143e-5
-1.351, -2.143e-5
-1.350, -2.451e-5
-1.349, -2.451e-5
-1.348, -2.451e-5
-1.347, -2.451e-5
-1.346, -2.451e-5
-1.345, -2.451e-5
-1.344, -2.451e-5
-1.343, -2.759e-5
-1.342, -2.759e-5
-1.341, -2.759e-5
-1.340, -2.759e-5
-1.339, -2.759e-5
-1.338, -3.068e-5
-1.337, -3.068e-5
-1.336, -3.068e-5
-1.335, -3.068e-5
-1.334, -3.068e-5
-1.333, -3.376e-5
-1.332, -3.376e-5
-1.331, -3.684e-5
-1.330, -3.684e-5
-1.329, -3.684e-5
-1.328, -3.684e-5
-1.327, -3.992e-5
-1.326, -3.992e-5
-1.325, -3.992e-5
-1.324, -3.992e-5
-1.323, -4.301e-5
-1.322, -4.301e-5
-1.321, -3.992e-5
-1.320, -4.301e-5
-1.319, -4.301e-5
-1.318, -4.301e-5
-1.317, -4.301e-5
-1.316, -4.609e-5
-1.315, -4.301e-5
-1.314, -4.609e-5
-1.313, -4.609e-5
-1.312, -4.609e-5
-1.311, -4.609e-5
-1.310, -4.609e-5
-1.309, -4.609e-5
-1.308, -4.609e-5
-1.307, -4.609e-5
-1.306, -4.609e-5
-1.305, -4.609e-5
-1.304, -4.609e-5
-1.303, -4.917e-5
-1.302, -4.609e-5
-1.301, -4.917e-5
-1.300, -4.609e-5
-1.299, -4.609e-5
-1.298, -4.609e-5
-1.297, -4.609e-5
-1.296, -4.609e-5
-1.295, -4.609e-5
-1.294, -4.609e-5
-1.293, -4.609e-5
-1.292, -4.609e-5
-1.291, -4.917e-5
-1.290, -4.609e-5
-1.289, -4.609e-5
-1.288, -4.609e-5
-1.287, -4.609e-5
-1.286, -4.609e-5
-1.285, -4.609e-5
-1.284, -4.917e-5
-1.283, -4.917e-5
-1.282, -4.917e-5
-1.281, -4.917e-5
-1.280, -4.917e-5
-1.279, -4.917e-5
-1.278, -4.917e-5
-1.277, -4.917e-5
-1.276, -4.917e-5
-1.275, -4.917e-5
-1.274, -4.917e-5
-1.273, -4.917e-5
-1.272, -4.917e-5
-1.271, -4.917e-5
-1.270, -5.226e-5
-1.269, -5.226e-5
-1.268, -5.226e-5
-1.267, -5.226e-5
-1.266, -5.534e-5
-1.265, -5.534e-5
-1.264, -5.534e-5
-1.263, -5.534e-5
-1.262, -5.534e-5
-1.261, -5.534e-5
-1.260, -5.534e-5
-1.259, -5.534e-5
-1.258, -5.842e-5
-1.257, -5.534e-5
-1.256, -5.534e-5
-1.255, -5.842e-5
-1.254, -5.842e-5
-1.253, -5.842e-5
-1.252, -5.842e-5
-1.251, -5.842e-5
-1.250, -5.842e-5
-1.249, -5.842e-5
-1.248, -5.842e-5
-1.247, -5.842e-5
-1.246, -5.842e-5
-1.245, -6.151e-5
-1.244, -6.151e-5
-1.243, -6.151e-5
-1.242, -6.151e-5
-1.241, -6.151e-5
-1.240, -6.151e-5
-1.239, -6.151e-5
-1.238, -6.151e-5
-1.237, -6.151e-5
-1.236, -6.151e-5
-1.235, -6.151e-5
-1.234, -6.459e-5
-1.233, -6.459e-5
-1.232, -6.151e-5
-1.231, -6.151e-5
-1.230, -6.151e-5
-1.229, -6.151e-5
-1.228, -6.151e-5
-1.227, -6.151e-5
-1.226, -6.151e-5
-1.225, -6.151e-5
-1.224, -6.151e-5
-1.223, -6.151e-5
-1.222, -6.151e-5
-1.221, -6.151e-5
-1.220, -6.151e-5
-1.219, -6.151e-5
-1.218, -6.151e-5
-1.217, -6.151e-5
-1.216, -6.151e-5
-1.215, -6.151e-5
-1.214, -6.151e-5
-1.213, -6.151e-5
-1.212, -6.459e-5
-1.211, -6.459e-5
-1.210, -6.459e-5
-1.209, -6.459e-5
-1.208, -6.459e-5
-1.207, -6.459e-5
-1.206, -6.459e-5
-1.205, -6.459e-5
-1.204, -6.459e-5
-1.203, -6.459e-5
-1.202, -6.459e-5
-1.201, -6.459e-5
-1.200, -6.767e-5
-1.199, -6.767e-5
-1.198, -6.767e-5
-1.197, -6.767e-5
-1.196, -6.767e-5
-1.195, -6.767e-5
-1.194, -6.767e-5
-1.193, -6.767e-5
-1.192, -6.767e-5
-1.191, -6.767e-5
-1.190, -6.767e-5
-1.189, -6.767e-5
-1.188, -7.076e-5
-1.187, -7.076e-5
-1.186, -7.076e-5
-1.185, -7.076e-5
-1.184, -7.076e-5
-1.183, -7.076e-5
-1.182, -7.076e-5
-1.181, -6.767e-5
-1.180, -7.076e-5
-1.179, -7.076e-5
-1.178, -7.076e-5
-1.177, -7.076e-5
-1.176, -7.076e-5
-1.175, -7.076e-5
-1.174, -7.076e-5
-1.173, -7.076e-5
-1.172, -7.076e-5
-1.171, -7.076e-5
-1.170, -7.076e-5
-1.169, -7.076e-5
-1.168, -7.076e-5
-1.167, -7.076e-5
-1.166, -7.076e-5
-1.165, -7.076e-5
-1.164, -7.076e-5
-1.163, -7.076e-5
-1.162, -7.076e-5
-1.161, -7.076e-5
-1.160, -7.076e-5
-1.159, -7.076e-5
-1.158, -7.076e-5
-1.157, -7.076e-5
-1.156, -7.384e-5
-1.155, -7.384e-5
-1.154, -7.384e-5
-1.153, -7.384e-5
-1.152, -7.384e-5
-1.151, -7.384e-5
-1.150, -7.384e-5
-1.149, -7.384e-5
-1.148, -7.384e-5
-1.147, -7.384e-5
-1.146, -7.384e-5
-1.145, -7.384e-5
-1.144, -7.384e-5
-1.143, -7.384e-5
-1.142, -7.384e-5
-1.141, -7.384e-5
-1.140, -7.692e-5
-1.139, -7.384e-5
-1.138, -7.692e-5
-1.137, -7.692e-5
-1.136, -7.692e-5
-1.135, -7.692e-5
-1.134, -7.692e-5
-1.133, -7.692e-5
-1.132, -7.692e-5
-1.131, -7.692e-5
-1.130, -7.692e-5
-1.129, -7.692e-5
-1.128, -7.692e-5
-1.127, -7.692e-5
-1.126, -8.000e-5
-1.125, -8.000e-5
-1.124, -8.000e-5
-1.123, -8.000e-5
-1.122, -8.000e-5
-1.121, -8.000e-5
-1.120, -8.000e-5
-1.119, -8.000e-5
-1.118, -8.000e-5
-1.117, -8.000e-5
-1.116, -8.000e-5
-1.115, -8.000e-5
-1.114, -8.000e-5
-1.113, -8.000e-5
-1.112, -8.000e-5
-1.111, -8.000e-5
-1.110, -8.000e-5
-1.109, -8.000e-5
-1.108, -8.000e-5
-1.107, -8.000e-5
-1.106, -8.000e-5
-1.105, -8.000e-5
-1.104, -8.000e-5
-1.103, -8.000e-5
-1.102, -8.000e-5
-1.101, -8.000e-5
-1.100, -8.309e-5
-1.099, -8.309e-5
-1.098, -8.309e-5
-1.097, -8.309e-5
-1.096, -8.309e-5
-1.095, -8.309e-5
-1.094, -8.617e-5
-1.093, -8.617e-5
-1.092, -8.617e-5
-1.091, -8.617e-5
-1.090, -8.617e-5
-1.089, -8.617e-5
-1.088, -8.617e-5
-1.087, -8.617e-5
-1.086, -8.617e-5
-1.085, -8.617e-5
-1.084, -8.617e-5
-1.083, -8.617e-5
-1.082, -8.617e-5
-1.081, -8.617e-5
-1.080, -8.617e-5
-1.079, -8.925e-5
-1.078, -8.925e-5
-1.077, -8.617e-5
-1.076, -8.617e-5
-1.075, -8.925e-5
-1.074, -8.617e-5
-1.073, -8.925e-5
-1.072, -8.925e-5
-1.071, -8.925e-5
-1.070, -8.925e-5
-1.069, -8.925e-5
-1.068, -8.925e-5
-1.067, -8.925e-5
-1.066, -8.925e-5
-1.065, -8.925e-5
-1.064, -8.925e-5
-1.063, -8.925e-5
-1.062, -8.925e-5
-1.061, -8.925e-5
-1.060, -8.925e-5
-1.059, -9.234e-5
-1.058, -9.234e-5
-1.057, -9.234e-5
-1.056, -9.234e-5
-1.055, -9.234e-5
-1.054, -9.234e-5
-1.053, -9.542e-5
-1.052, -9.542e-5
-1.051, -9.542e-5
-1.050, -9.542e-5
-1.049, -9.850e-5
-1.048, -9.850e-5
-1.047, -9.850e-5
-1.046, -9.850e-5
-1.045, -9.850e-5
-1.044, -9.850e-5
-1.043, -9.850e-5
-1.042, -9.542e-5
-1.041, -9.542e-5
-1.040, -9.542e-5
-1.039, -9.850e-5
-1.038, -9.850e-5
-1.037, -9.542e-5
-1.036, -9.850e-5
-1.035, -9.850e-5
-1.034, -9.850e-5
-1.033, -9.850e-5
-1.032, -1.016e-4
-1.031, -9.850e-5
-1.030, -9.850e-5
-1.029, -9.850e-5
-1.028, -1.016e-4
-1.027, -1.016e-4
-1.026, -1.016e-4
-1.025, -1.016e-4
-1.024, -1.047e-4
-1.023, -1.047e-4
-1.022, -1.078e-4
-1.021, -1.078e-4
-1.020, -1.078e-4
-1.019, -1.078e-4
-1.018, -1.078e-4
-1.017, -1.078e-4
-1.016, -1.078e-4
-1.015, -1.108e-4
-1.014, -1.108e-4
-1.013, -1.139e-4
-1.012, -1.108e-4
-1.011, -1.139e-4
-1.010, -1.139e-4
-1.009, -1.139e-4
-1.008, -1.139e-4
-1.007, -1.139e-4
-1.006, -1.170e-4
-1.005, -1.170e-4
-1.004, -1.170e-4
-1.003, -1.201e-4
-1.002, -1.170e-4
-1.001, -1.201e-4
