Potential V vs RHE, Current mA cm-2
0.013299999999999867,1.349917522331218
0.012299999999999978,0.3467457395969205
0.011299999999999866,-0.48199213986401795
0.010299999999999976,-1.1362961160515976
0.009299999999999864,-1.6594563547416883
0.008299999999999974,-2.1828995356917518
0.007299999999999862,-2.618630616050183
0.006299999999999972,-3.0119203574126634
0.00529999999999986,-3.447651437771094
0.0042999999999999705,-3.840941179133574
0.0032999999999998586,-4.276672259492005
0.0022999999999999687,-4.712403339850438
0.0012999999999998568,-5.149549131508733
0.00029999999999996696,-5.585280211867165
-0.000700000000000145,-6.064867342521412
-0.0017000000000000348,-6.500598422879844
-0.0027000000000001467,-6.893888164242324
-0.0037000000000000366,-7.28576319430494
-0.0047000000000001485,-7.635196885371603
-0.005700000000000038,-7.940774526142452
-0.00670000000000015,-8.246352166913299
-0.00770000000000004,-8.55051509638428
-0.008700000000000152,-8.85609273715513
-0.009700000000000042,-9.161670377925978
-0.010700000000000154,-9.511104068992642
-0.011700000000000044,-9.902979099055257
-0.012700000000000156,-10.25241279012192
-0.013700000000000045,-10.644287820184536
-0.014700000000000157,-11.081433611842833
-0.015700000000000047,-11.473308641905447
-0.01670000000000016,-11.86659838326793
-0.01770000000000005,-12.214617363034726
-0.01870000000000016,-12.56405105410139
-0.01970000000000005,-12.869628694872238
-0.020700000000000163,-13.087494235051453
-0.021700000000000053,-13.349215825526485
-0.022700000000000164,-13.567081365705702
-0.023700000000000054,-13.828802956180734
-0.024700000000000166,-14.090524546655764
-0.025700000000000056,-14.345172580631472
-0.026700000000000168,-14.69885040559773
-0.027700000000000058,-15.01008689156804
-0.02870000000000017,-15.307176264539699
-0.02970000000000006,-15.660854089505953
-0.03070000000000017,-16.014531914472215
-0.03170000000000006,-16.311621287443874
-0.03270000000000017,-16.622857773414182
-0.03370000000000006,-16.877505807389888
-0.034700000000000175,-17.103859615368293
-0.035700000000000065,-17.2736249713521
-0.03670000000000018,-17.4433903273359
-0.03770000000000007,-17.627302796318357
-0.03870000000000018,-17.75462681330621
-0.03970000000000007,-17.924392169290012
-0.04070000000000018,-18.15074597726842
-0.04170000000000007,-18.320511333252224
-0.04270000000000018,-18.49027668923603
-0.04370000000000007,-18.716630497214435
-0.044700000000000184,-18.843954514202288
-0.045700000000000074,-19.056161209182044
-0.046700000000000186,-19.155191000172596
-0.047700000000000076,-19.3249563561564
-0.04870000000000019,-19.367397695152352
-0.04970000000000008,-19.367397695152352
-0.05070000000000019,-19.367397695152352
-0.05170000000000008,-19.367397695152352
-0.05270000000000019,-19.28251501716045
-0.05370000000000008,-19.3249563561564
-0.05470000000000019,-19.3249563561564
-0.05570000000000008,-19.28251501716045
-0.056700000000000195,-19.2400736781645
-0.057700000000000085,-19.28251501716045
-0.058700000000000196,-19.367397695152352
-0.059700000000000086,-19.452280373144255
-0.0607000000000002,-19.579604390132108
-0.06170000000000009,-19.636192842126707
-0.0627000000000002,-19.678634181122664
-0.06370000000000009,-19.721075520118614
-0.0647000000000002,-19.636192842126707
-0.06570000000000009,-19.49472171214021
-0.0667000000000002,-19.452280373144255
-0.0677000000000001,-19.537163051136158
-0.0687000000000002,-19.537163051136158
-0.0697000000000001,-19.579604390132108
-0.07070000000000021,-19.636192842126707
-0.0717000000000001,-19.721075520118614
-0.07270000000000021,-19.890840876102416
-0.0737000000000001,-20.06060623208622
-0.07470000000000021,-20.10304757108217
-0.0757000000000001,-20.286960040064624
-0.07670000000000021,-20.371842718056527
-0.0777000000000001,-20.499166735044383
-0.07870000000000021,-20.683079204026836
-0.0797000000000001,-20.76796188201874
-0.08070000000000022,-20.810403221014692
-0.0817000000000001,-20.89528589900659
-0.08270000000000022,-20.89528589900659
-0.08370000000000011,-20.89528589900659
-0.08470000000000022,-20.980168576998494
-0.08570000000000011,-21.065051254990397
-0.08670000000000022,-21.149933932982297
-0.08770000000000011,-21.291405062968803
-0.08870000000000022,-21.461170418952605
-0.08970000000000011,-21.67337711393236
-0.09070000000000022,-21.899730921910766
-0.09170000000000011,-22.027054938898623
-0.09270000000000023,-22.15437895588647
-0.09370000000000012,-22.295850085872978
-0.09470000000000023,-22.38073276386488
-0.09570000000000012,-22.508056780852733
-0.09670000000000023,-22.592939458844636
-0.09770000000000012,-22.63538079784059
-0.09870000000000023,-22.72026347583249
-0.09970000000000012,-22.861734605818995
-0.10070000000000023,-22.946617283810895
-0.10170000000000012,-23.15882397879065
-0.10270000000000024,-23.300295108777156
-0.10370000000000013,-23.51250180375691
-0.10470000000000024,-23.724708498736668
-0.10570000000000013,-23.951062306715073
-0.10670000000000024,-24.120827662698876
-0.10770000000000013,-24.24815167968673
-0.10870000000000024,-24.516946826661083
-0.10970000000000013,-24.601829504652986
-0.11070000000000024,-24.686712182644893
-0.11170000000000013,-24.771594860636792
-0.11270000000000002,-24.9130659906233
-0.11370000000000013,-25.0828313466071
-0.11470000000000002,-25.210155363594954
-0.11570000000000014,-25.39406783257741
-0.11670000000000003,-25.60627452755716
-0.11770000000000014,-25.77603988354097
-0.11870000000000003,-26.002393691519377
-0.11970000000000014,-26.129717708507226
-0.12070000000000003,-26.34192440348698
-0.12170000000000014,-26.38436574248293
-0.12270000000000003,-26.525836872469437
-0.12370000000000014,-26.568278211465387
-0.12470000000000003,-26.65316088945729
-0.12570000000000014,-26.738043567449193
-0.12670000000000003,-26.780484906445146
-0.12770000000000015,-26.738043567449193
-0.12870000000000004,-26.69560222845324
-0.12970000000000015,-26.780484906445146
-0.13070000000000004,-26.822926245441096
-0.13170000000000015,-27.049280053419505
-0.13270000000000004,-27.219045409403304
-0.13370000000000015,-27.34636942639116
-0.13470000000000004,-27.43125210438306
-0.13570000000000015,-27.65760591236147
-0.13670000000000004,-27.78492992934932
-0.13770000000000016,-27.954695285333123
-0.13870000000000005,-28.05372507632368
-0.13970000000000016,-28.22349043230748
-0.14070000000000005,-28.350814449295335
-0.14170000000000016,-28.478138466283188
-0.14270000000000005,-28.577168257273744
-0.14370000000000016,-28.662050935265643
-0.14470000000000005,-28.831816291249446
-0.14570000000000016,-28.91669896924135
-0.14670000000000005,-29.100611438223805
-0.14770000000000016,-29.35525947219951
-0.14870000000000005,-29.581613280177915
-0.14970000000000017,-29.751378636161718
-0.15070000000000006,-29.96358533114148
-0.15170000000000017,-30.147497800123933
-0.15270000000000006,-30.232380478115836
-0.15370000000000017,-30.274821817111786
-0.15470000000000006,-30.529469851087494
-0.15570000000000017,-30.571911190083444
-0.15670000000000006,-30.7558236590659
-0.15770000000000017,-30.8407063370578
-0.15870000000000006,-31.052913032037555
-0.15970000000000018,-31.40659085700382
-0.16070000000000007,-31.717827342974125
-0.16170000000000018,-32.09979939393769
-0.16270000000000007,-32.49591855789989
-0.16370000000000018,-32.892037721862096
-0.16470000000000007,-33.330598224820264
-0.16570000000000018,-33.712570275783825
-0.16670000000000007,-34.06624810075008
-0.16770000000000018,-34.50480860370825
-0.16870000000000007,-34.98581044566235
-0.16970000000000018,-35.636577643600276
-0.17070000000000007,-36.11757948555439
-0.17170000000000019,-36.47125731052064
-0.17270000000000008,-36.64102266650445
-0.1737000000000002,-36.6834640055004
-0.17470000000000008,-36.95225915247476
-0.1757000000000002,-37.376672542434264
-0.17670000000000008,-37.687909028404576
-0.1777000000000002,-37.90011572338433
-0.17870000000000008,-38.211352209354644
-0.1797000000000002,-38.692354051308754
-0.18070000000000008,-38.90456074628851
-0.1817000000000002,-39.21579723225882
-0.18270000000000008,-39.47044526623452
-0.1837000000000002,-39.51288660523048
-0.1847000000000001,-39.56947505722508
-0.1857000000000002,-39.654357735216976
-0.1867000000000001,-39.739240413208876
-0.1877000000000002,-39.61191639622103
-0.1887000000000001,-39.696799074212926
-0.1897000000000002,-39.654357735216976
-0.1907000000000001,-39.78168175220483
-0.1917000000000001,-39.95144710818864
-0.19269999999999998,-40.220242255162994
-0.1937000000000001,-40.34756627215084
-0.19469999999999998,-40.3900076111468
-0.1957000000000001,-40.616361419125205
-0.19669999999999999,-40.65880275812115
-0.1977000000000001,-40.743685436113054
-0.1987,-40.743685436113054
-0.1997000000000001,-40.51733162813464
-0.2007,-40.4748902891387
-0.2017000000000001,-40.4748902891387
-0.2027,-40.4748902891387
-0.2037000000000001,-40.51733162813464
-0.2047,-40.3900076111468
-0.2057000000000001,-40.34756627215084
-0.2067,-40.30512493315489
-0.2077000000000001,-40.4748902891387
-0.2087,-40.43244895014274
-0.2097000000000001,-40.51733162813464
-0.2107,-40.51733162813464
-0.2117000000000001,-40.51733162813464
-0.2127,-40.616361419125205
-0.2137000000000001,-40.559772967130606
-0.2147,-40.616361419125205
-0.2157000000000001,-40.616361419125205
-0.2167,-40.51733162813464
-0.21770000000000012,-40.51733162813464
-0.2187,-40.559772967130606
-0.21970000000000012,-40.743685436113054
-0.2207,-40.743685436113054
-0.22170000000000012,-40.78612677510901
-0.2227,-40.701244097117105
-0.22370000000000012,-40.78612677510901
-0.2247,-40.743685436113054
-0.22570000000000012,-40.78612677510901
-0.2267,-40.743685436113054
-0.22770000000000012,-40.701244097117105
-0.22870000000000001,-40.87100945310091
-0.22970000000000013,-41.083216148080666
-0.23070000000000002,-41.083216148080666
-0.23170000000000013,-40.99833347008877
-0.23270000000000002,-40.99833347008877
-0.23370000000000013,-41.083216148080666
-0.23470000000000002,-41.267128617063115
-0.23570000000000013,-41.39445263405098
-0.23670000000000002,-41.74813045901723
-0.2376999999999999,-41.96033715399699
-0.23870000000000002,-42.229132300971344
-0.2396999999999999,-42.6111043519349
-0.24070000000000003,-43.134547532884966
-0.24169999999999991,-43.657990713835034
-0.24270000000000003,-44.181433894785094
-0.24369999999999992,-44.535111719751356
-0.24470000000000003,-44.80390686672572
-0.24569999999999992,-45.10099623969737
-0.24670000000000003,-45.581998081651484
-0.24769999999999992,-46.062999923605595
-0.24870000000000003,-46.67132578254756
-0.24969999999999992,-47.15232762450167
-0.25070000000000003,-47.590888127459834
-0.2516999999999999,-48.1992139864018
-0.25270000000000004,-48.55289181136806
-0.2536999999999999,-48.93486386233162
-0.25470000000000004,-49.24610034830193
-0.2556999999999999,-49.59977817326819
-0.25670000000000004,-49.81198486824794
-0.25769999999999993,-50.12322135421825
-0.25870000000000004,-50.335428049198
-0.25969999999999993,-50.547634744177756
-0.26070000000000004,-50.64666453516831
-0.26169999999999993,-50.77398855215617
-0.26270000000000004,-50.90131256914402
-0.26369999999999993,-51.17010771611838
-0.26470000000000005,-51.46719708909004
-0.26569999999999994,-51.86331625305225
-0.26670000000000005,-52.17455273902255
-0.26769999999999994,-52.30187675601041
-0.26870000000000005,-52.34431809500636
-0.26969999999999994,-52.64140746797801
-0.27070000000000005,-52.91020261495237
-0.27169999999999994,-53.03752663194023
-0.27270000000000005,-52.95264395394832
-0.27369999999999994,-52.95264395394832
-0.27470000000000006,-52.95264395394832
-0.27569999999999995,-52.95264395394832
-0.27670000000000006,-52.995085292944275
-0.27769999999999995,-52.95264395394832
-0.27870000000000006,-52.55652478998611
-0.27969999999999995,-52.471642111994214
-0.28070000000000006,-52.17455273902255
-0.28169999999999995,-51.948198931044146
-0.28270000000000006,-51.65110955807249
-0.28369999999999995,-51.38231441109813
-0.28470000000000006,-51.17010771611838
-0.28569999999999995,-51.127666377122424
-0.28670000000000007,-50.85887123014807
-0.28769999999999996,-50.547634744177756
-0.28870000000000007,-49.89686754623985
-0.28969999999999996,-49.24610034830193
-0.29070000000000007,-48.68021582835591
-0.29169999999999996,-48.114331308409895
-0.29270000000000007,-47.23721030249357
-0.29369999999999996,-46.75620846053947
-0.2947000000000001,-46.41667774857186
-0.29569999999999996,-45.93567590661774
-0.2967000000000001,-45.53955674265553
-0.29769999999999996,-45.01611356170547
-0.2987000000000001,-44.66243573673921
-0.29969999999999997,-44.28046368577565
-0.3007000000000001,-43.92678586080939
-0.30169999999999997,-43.61554937483908
-0.3027000000000001,-43.57310803584313
-0.30369999999999997,-43.48822535785123
-0.3047000000000001,-43.40334267985933
-0.30569999999999997,-43.31846000186743
-0.3067000000000001,-43.134547532884966
-0.3077,-42.87989949890926
-0.3087000000000001,-42.92234083790521
-0.3097,-42.837458159913304
-0.3107000000000001,-42.92234083790521
-0.3117,-42.71013414292546
-0.3127000000000001,-42.837458159913304
-0.3137,-42.837458159913304
-0.3147000000000001,-43.09210619388902
-0.3157,-43.53066669684718
-0.3167000000000001,-44.011668538801295
-0.3177,-44.138992555789144
-0.3187000000000001,-44.4926703807554
-0.3197,-44.66243573673921
-0.3207000000000001,-44.619994397743255
-0.3217,-44.93123088371356
-0.3227000000000001,-44.97367222270952
-0.3237,-44.97367222270952
-0.3247000000000001,-45.10099623969737
-0.3257,-45.22832025668522
-0.3267000000000001,-45.53955674265553
-0.3277,-45.79420477663124
-0.3287000000000001,-45.93567590661774
-0.3297,-46.19032394059345
-0.3307000000000001,-46.41667774857186
-0.3317,-46.586443104555656
-0.3327000000000001,-46.88353247752732
-0.3337,-47.02500360751382
-0.3347000000000001,-47.15232762450167
-0.3357,-47.27965164148953
-0.3367000000000001,-47.46356411047198
-0.3377,-47.27965164148953
-0.3387000000000001,-47.23721030249357
-0.3397,-47.15232762450167
-0.3407000000000001,-47.10988628550572
-0.3417,-46.75620846053947
-0.3427000000000001,-46.544001765559706
-0.3437,-46.27520661858535
-0.3447000000000001,-46.27520661858535
-0.3457,-46.147882601597495
-0.3467000000000001,-46.10544126260155
-0.3477,-46.147882601597495
-0.3487000000000001,-45.89323456762179
-0.3497,-45.22832025668522
-0.3507000000000001,-44.45022904175945
-0.3517,-43.75702050482558
-0.3527000000000001,-43.657990713835034
-0.3537,-43.17698887188092
-0.3547000000000001,-42.00277849299294
-0.3557,-41.56421799003478
-0.35670000000000013,-41.47933531204288
-0.3577,-41.43689397304693
-0.35870000000000013,-41.56421799003478
-0.3597,-41.87545447600508
-0.36070000000000013,-42.229132300971344
-0.3617,-42.130102509980794
-0.3626999999999999,-42.130102509980794
-0.3637,-42.3564563179592
-0.3646999999999999,-42.483780334947056
-0.3657,-42.31401497896325
-0.3666999999999999,-42.229132300971344
-0.3677,-42.4413389959511
-0.3686999999999999,-42.568663012938956
-0.36970000000000003,-42.6111043519349
-0.3706999999999999,-42.752575481921404
-0.37170000000000003,-42.92234083790521
-0.3726999999999999,-43.134547532884966
-0.37370000000000003,-43.31846000186743
-0.3746999999999999,-43.48822535785123
-0.37570000000000003,-43.70043205283099
-0.3766999999999999,-43.88434452181344
-0.37770000000000004,-44.096551216793195
-0.3786999999999999,-44.28046368577565
-0.37970000000000004,-44.4926703807554
-0.3806999999999999,-44.66243573673921
-0.38170000000000004,-44.88878954471762
-0.38269999999999993,-44.88878954471762
-0.38370000000000004,-44.74731841473111
-0.38469999999999993,-45.143437578693316
-0.38570000000000004,-45.497115403659585
-0.38669999999999993,-45.85079322862584
-0.38770000000000004,-46.586443104555656
-0.38869999999999993,-46.88353247752732
-0.38970000000000005,-47.40697565847737
-0.39069999999999994,-47.71821214444768
-0.39170000000000005,-48.029448630417996
-0.39269999999999994,-48.72265716735186
-0.39370000000000005,-49.28854168729788
-0.39469999999999994,-49.68466085126009
-0.39570000000000005,-50.2505453712061
-0.39669999999999994,-50.73154721316022
-0.39770000000000005,-51.17010771611838
-0.39869999999999994,-51.82087491405629
-0.39970000000000006,-52.30187675601041
-0.40069999999999995,-52.995085292944275
-0.40170000000000006,-53.9570889768525
-0.40269999999999995,-54.73518019177827
-0.40370000000000006,-55.13129935574048
-0.40469999999999995,-55.96597902266086
-0.40570000000000006,-56.786511576582576
-0.40669999999999995,-57.53630856551105
-0.40770000000000006,-57.974869068469204
-0.40869999999999995,-58.35684111943277
-0.40970000000000006,-58.66807760540307
-0.41069999999999995,-58.97931409137338
-0.41170000000000007,-59.6300812893113
-0.41269999999999996,-60.15352447026136
-0.41370000000000007,-60.71940899020737
-0.41469999999999996,-61.20041083216149
-0.41570000000000007,-61.53994154412909
-0.41669999999999996,-62.16241451606972
-0.41770000000000007,-63.06782974798333
-0.41869999999999996,-64.25618723986996
-0.4197000000000001,-65.4728389577539
-0.42069999999999996,-66.25093017267966
-0.4217000000000001,-66.87340314462028
-0.42269999999999996,-67.25537519558385
-0.4237000000000001,-67.693935698542
-0.42469999999999997,-67.96273084551636
-0.4257000000000001,-68.34470289647993
-0.42669999999999997,-68.74082206044213
-0.4277000000000001,-69.1793825634003
-0.42869999999999997,-69.70282574435035
-0.4297000000000001,-70.09894490831257
-0.43069999999999997,-70.31115160329232
-0.4317000000000001,-70.57994675026669
-0.4327,-70.91947746223428
-0.4337000000000001,-71.27315528720055
-0.4347,-71.96636382413442
-0.4357000000000001,-72.23515897110877
-0.4367,-72.67371947406694
-0.4377000000000001,-72.75860215205884
-0.4387,-72.8859261690467
-0.4397000000000001,-73.197162655017
-0.4407,-73.57913470598055
-0.4417000000000001,-73.57913470598055
-0.4427,-74.0176952089387
-0.4437000000000001,-74.54113838988879
-0.4447,-74.72505085887124
-0.4457000000000001,-74.97969889284694
-0.4467,-75.2484940398213
-0.4477000000000001,-75.2484940398213
-0.4487,-75.63046609078486
-0.4497000000000001,-76.23879194972683
-0.4507,-76.71979379168094
-0.4517000000000001,-77.28567831162695
-0.4527,-77.7242388145851
-0.4537000000000001,-78.24768199553519
-0.4547,-78.77112517648524
-0.4557000000000001,-79.25212701843935
-0.4567,-79.64824618240156
-0.4577000000000001,-79.90289421637728
-0.4587,-80.08680668535972
-0.4597000000000001,-80.46877873632329
-0.4607,-80.69513254430169
-0.4617000000000001,-81.1761343862558
-0.4627,-81.47322375922747
-0.4637000000000001,-81.78446024519776
-0.4647,-82.03910827917348
-0.4657000000000001,-81.74201890620182
-0.4667,-81.74201890620182
-0.4677000000000001,-81.65713622820991
-0.4687,-81.3458997422396
-0.4697000000000001,-81.3458997422396
-0.4707,-81.13369304725985
-0.4717000000000001,-80.86489790028548
-0.4727,-80.56780852731384
-0.4737000000000001,-80.21413070234757
-0.4747,-80.08680668535972
-0.4757000000000001,-79.7755701993894
-0.4767,-79.37945103542721
-0.4777000000000001,-79.08236166245555
-0.4787,-79.0399203234596
-0.4797000000000001,-78.77112517648524
-0.4807,-78.60135982050144
-0.48170000000000013,-78.60135982050144
-0.4827,-78.77112517648524
-0.48370000000000013,-78.8135665154812
-0.4847,-78.68624249849334
-0.48570000000000013,-78.77112517648524
-0.4867,-78.16279931754329
-0.48570000000000013,-76.50758709670117
-0.4847,-75.02214023184291
-0.48370000000000013,-73.62157604497652
-0.4827,-72.53224834408043
-0.48170000000000013,-71.66927445116276
-0.4807,-70.74971210625048
-0.4797000000000001,-69.95747377832606
-0.4787,-69.13694122440434
-0.4777000000000001,-68.13249620150016
-0.4767,-67.25537519558385
-0.4757000000000001,-66.47728398065809
-0.4747,-65.4728389577539
-0.4737000000000001,-64.68060062982947
-0.4727,-63.860068075907755
-0.4717000000000001,-62.98294706999144
-0.4707,-62.11997317707376
-0.4697000000000001,-61.20041083216149
-0.4687,-60.23840714825326
-0.4677000000000001,-59.10663810836124
-0.4667,-58.22951710244491
-0.4657000000000001,-57.408984548523186
-0.4647,-56.57430488160282
-0.4637000000000001,-55.9235376836649
-0.4627,-55.357653163718886
-0.4617000000000001,-54.65029751378637
