Potential V vs RHE, Current mA cm-2
0.013299999999999867,-0.3947044526623452
0.012299999999999978,-1.3980177065266295
0.011299999999999866,-2.008890045808352
0.010299999999999976,-2.4007650758709675
0.009299999999999864,-2.706342716641815
0.008299999999999974,-2.8803522065252145
0.007299999999999862,-3.0119203574126634
0.006299999999999972,-3.0996324580042955
0.00529999999999986,-3.1859298472960624
0.0042999999999999705,-3.2297858975918787
0.0032999999999998586,-3.273641947887695
0.0022999999999999687,-3.273641947887695
0.0012999999999998568,-3.273641947887695
0.00029999999999996696,-3.273641947887695
-0.000700000000000145,-3.273641947887695
-0.0017000000000000348,-3.273641947887695
-0.0027000000000001467,-3.273641947887695
-0.0037000000000000366,-3.273641947887695
-0.0047000000000001485,-3.317497998183511
-0.005700000000000038,-3.317497998183511
-0.00670000000000015,-3.361354048479327
-0.00770000000000004,-3.403795387475278
-0.008700000000000152,-3.403795387475278
-0.009700000000000042,-3.403795387475278
-0.010700000000000154,-3.447651437771094
-0.011700000000000044,-3.403795387475278
-0.012700000000000156,-3.403795387475278
-0.013700000000000045,-3.403795387475278
-0.014700000000000157,-3.361354048479327
-0.015700000000000047,-3.361354048479327
-0.01670000000000016,-3.361354048479327
-0.01770000000000005,-3.361354048479327
-0.01870000000000016,-3.361354048479327
-0.01970000000000005,-3.361354048479327
-0.020700000000000163,-3.403795387475278
-0.021700000000000053,-3.403795387475278
-0.022700000000000164,-3.447651437771094
-0.023700000000000054,-3.447651437771094
-0.024700000000000166,-3.447651437771094
-0.025700000000000056,-3.447651437771094
-0.026700000000000168,-3.447651437771094
-0.027700000000000058,-3.447651437771094
-0.02870000000000017,-3.403795387475278
-0.02970000000000006,-3.403795387475278
-0.03070000000000017,-3.403795387475278
-0.03170000000000006,-3.361354048479327
-0.03270000000000017,-3.361354048479327
-0.03370000000000006,-3.403795387475278
-0.034700000000000175,-3.403795387475278
-0.035700000000000065,-3.447651437771094
-0.03670000000000018,-3.447651437771094
-0.03770000000000007,-3.447651437771094
-0.03870000000000018,-3.4915074880669104
-0.03970000000000007,-3.4915074880669104
-0.04070000000000018,-3.4915074880669104
-0.04170000000000007,-3.4915074880669104
-0.04270000000000018,-3.447651437771094
-0.04370000000000007,-3.447651437771094
-0.044700000000000184,-3.403795387475278
-0.045700000000000074,-3.447651437771094
-0.046700000000000186,-3.403795387475278
-0.047700000000000076,-3.403795387475278
-0.04870000000000019,-3.447651437771094
-0.04970000000000008,-3.403795387475278
-0.05070000000000019,-3.447651437771094
-0.05170000000000008,-3.4915074880669104
-0.05270000000000019,-3.4915074880669104
-0.05370000000000008,-3.5353635383627267
-0.05470000000000019,-3.5353635383627267
-0.05570000000000008,-3.5353635383627267
-0.056700000000000195,-3.5353635383627267
-0.057700000000000085,-3.5353635383627267
-0.058700000000000196,-3.4915074880669104
-0.059700000000000086,-3.4915074880669104
-0.0607000000000002,-3.4915074880669104
-0.06170000000000009,-3.447651437771094
-0.0627000000000002,-3.447651437771094
-0.06370000000000009,-3.447651437771094
-0.0647000000000002,-3.4915074880669104
-0.06570000000000009,-3.4915074880669104
-0.0667000000000002,-3.5353635383627267
-0.0677000000000001,-3.5353635383627267
-0.0687000000000002,-3.579219588658543
-0.0697000000000001,-3.579219588658543
-0.07070000000000021,-3.579219588658543
-0.0717000000000001,-3.579219588658543
-0.07270000000000021,-3.579219588658543
-0.0737000000000001,-3.5353635383627267
-0.07470000000000021,-3.5353635383627267
-0.0757000000000001,-3.5353635383627267
-0.07670000000000021,-3.4915074880669104
-0.0777000000000001,-3.4915074880669104
-0.07870000000000021,-3.5353635383627267
-0.0797000000000001,-3.5353635383627267
-0.08070000000000022,-3.5353635383627267
-0.0817000000000001,-3.579219588658543
-0.08270000000000022,-3.623075638954359
-0.08370000000000011,-3.623075638954359
-0.08470000000000022,-3.623075638954359
-0.08570000000000011,-3.623075638954359
-0.08670000000000022,-3.623075638954359
-0.08770000000000011,-3.623075638954359
-0.08870000000000022,-3.623075638954359
-0.08970000000000011,-3.579219588658543
-0.09070000000000022,-3.579219588658543
-0.09170000000000011,-3.5353635383627267
-0.09270000000000023,-3.579219588658543
-0.09370000000000012,-3.579219588658543
-0.09470000000000023,-3.579219588658543
-0.09570000000000012,-3.623075638954359
-0.09670000000000023,-3.623075638954359
-0.09770000000000012,-3.6655169779503103
-0.09870000000000023,-3.7093730282461257
-0.09970000000000012,-3.6655169779503103
-0.10070000000000023,-3.6655169779503103
-0.10170000000000012,-3.7093730282461257
-0.10270000000000024,-3.6655169779503103
-0.10370000000000013,-3.623075638954359
-0.10470000000000024,-3.623075638954359
-0.10570000000000013,-3.6655169779503103
-0.10670000000000024,-3.623075638954359
-0.10770000000000013,-3.623075638954359
-0.10870000000000024,-3.623075638954359
-0.10970000000000013,-3.6655169779503103
-0.11070000000000024,-3.6655169779503103
-0.11170000000000013,-3.7093730282461257
-0.11270000000000002,-3.7093730282461257
-0.11370000000000013,-3.7532290785419424
-0.11470000000000002,-3.7532290785419424
-0.11570000000000014,-3.7532290785419424
-0.11670000000000003,-3.7532290785419424
-0.11770000000000014,-3.7532290785419424
-0.11870000000000003,-3.7093730282461257
-0.11970000000000014,-3.7093730282461257
-0.12070000000000003,-3.7093730282461257
-0.12170000000000014,-3.6655169779503103
-0.12270000000000003,-3.7093730282461257
-0.12370000000000014,-3.7093730282461257
-0.12470000000000003,-3.7093730282461257
-0.12570000000000014,-3.7093730282461257
-0.12670000000000003,-3.7532290785419424
-0.12770000000000015,-3.7970851288377587
-0.12870000000000004,-3.840941179133574
-0.12970000000000015,-3.7970851288377587
-0.13070000000000004,-3.840941179133574
-0.13170000000000015,-3.840941179133574
-0.13270000000000004,-3.7970851288377587
-0.13370000000000015,-3.7970851288377587
-0.13470000000000004,-3.7970851288377587
-0.13570000000000015,-3.7970851288377587
-0.13670000000000004,-3.7970851288377587
-0.13770000000000016,-3.7970851288377587
-0.13870000000000005,-3.7970851288377587
-0.13970000000000016,-3.840941179133574
-0.14070000000000005,-3.840941179133574
-0.14170000000000016,-3.840941179133574
-0.14270000000000005,-3.884797229429391
-0.14370000000000016,-3.884797229429391
-0.14470000000000005,-3.884797229429391
-0.14570000000000016,-3.927238568425342
-0.14670000000000005,-3.927238568425342
-0.14770000000000016,-3.927238568425342
-0.14870000000000005,-3.884797229429391
-0.14970000000000017,-3.884797229429391
-0.15070000000000006,-3.884797229429391
-0.15170000000000017,-3.840941179133574
-0.15270000000000006,-3.884797229429391
-0.15370000000000017,-3.884797229429391
-0.15470000000000006,-3.927238568425342
-0.15570000000000017,-3.927238568425342
-0.15670000000000006,-3.971094618721158
-0.15770000000000017,-3.971094618721158
-0.15870000000000006,-3.971094618721158
-0.15970000000000018,-4.014950669016974
-0.16070000000000007,-4.014950669016974
-0.16170000000000018,-4.014950669016974
-0.16270000000000007,-3.971094618721158
-0.16370000000000018,-4.014950669016974
-0.16470000000000007,-3.971094618721158
-0.16570000000000018,-3.971094618721158
-0.16670000000000007,-3.971094618721158
-0.16770000000000018,-3.971094618721158
-0.16870000000000007,-3.971094618721158
-0.16970000000000018,-4.014950669016974
-0.17070000000000007,-4.014950669016974
-0.17170000000000019,-4.0588067193127895
-0.17270000000000008,-4.0588067193127895
-0.1737000000000002,-4.102662769608606
-0.17470000000000008,-4.102662769608606
-0.1757000000000002,-4.102662769608606
-0.17670000000000008,-4.102662769608606
-0.1777000000000002,-4.102662769608606
-0.17870000000000008,-4.102662769608606
-0.1797000000000002,-4.102662769608606
-0.18070000000000008,-4.102662769608606
-0.1817000000000002,-4.0588067193127895
-0.18270000000000008,-4.102662769608606
-0.1837000000000002,-4.102662769608606
-0.1847000000000001,-4.102662769608606
-0.1857000000000002,-4.146518819904423
-0.1867000000000001,-4.146518819904423
-0.1877000000000002,-4.1889601589003735
-0.1887000000000001,-4.1889601589003735
-0.1897000000000002,-4.23281620919619
-0.1907000000000001,-4.23281620919619
-0.1917000000000001,-4.23281620919619
-0.19269999999999998,-4.23281620919619
-0.1937000000000001,-4.23281620919619
-0.19469999999999998,-4.1889601589003735
-0.1957000000000001,-4.1889601589003735
-0.19669999999999999,-4.1889601589003735
-0.1977000000000001,-4.1889601589003735
-0.1987,-4.1889601589003735
-0.1997000000000001,-4.23281620919619
-0.2007,-4.23281620919619
-0.2017000000000001,-4.276672259492005
-0.2027,-4.276672259492005
-0.2037000000000001,-4.3205283097878215
-0.2047,-4.364384360083638
-0.2057000000000001,-4.364384360083638
-0.2067,-4.364384360083638
-0.2077000000000001,-4.3205283097878215
-0.2087,-4.3205283097878215
-0.2097000000000001,-4.3205283097878215
-0.2107,-4.3205283097878215
-0.2117000000000001,-4.3205283097878215
-0.2127,-4.3205283097878215
-0.2137000000000001,-4.3205283097878215
-0.2147,-4.364384360083638
-0.2157000000000001,-4.406825699079589
-0.2167,-4.406825699079589
-0.21770000000000012,-4.450681749375406
-0.2187,-4.450681749375406
-0.21970000000000012,-4.450681749375406
-0.2207,-4.450681749375406
-0.22170000000000012,-4.494537799671222
-0.2227,-4.494537799671222
-0.22370000000000012,-4.450681749375406
-0.2247,-4.450681749375406
-0.22570000000000012,-4.450681749375406
-0.2267,-4.406825699079589
-0.22770000000000012,-4.450681749375406
-0.22870000000000001,-4.450681749375406
-0.22970000000000013,-4.450681749375406
-0.23070000000000002,-4.494537799671222
-0.23170000000000013,-4.538393849967037
-0.23270000000000002,-4.538393849967037
-0.23370000000000013,-4.582249900262854
-0.23470000000000002,-4.582249900262854
-0.23570000000000013,-4.582249900262854
-0.23670000000000002,-4.626105950558669
-0.2376999999999999,-4.582249900262854
-0.23870000000000002,-4.582249900262854
-0.2396999999999999,-4.538393849967037
-0.24070000000000003,-4.538393849967037
-0.24169999999999991,-4.538393849967037
-0.24270000000000003,-4.538393849967037
-0.24369999999999992,-4.582249900262854
-0.24470000000000003,-4.582249900262854
-0.24569999999999992,-4.626105950558669
-0.24670000000000003,-4.626105950558669
-0.24769999999999992,-4.626105950558669
-0.24870000000000003,-4.668547289554621
-0.24969999999999992,-4.668547289554621
-0.25070000000000003,-4.712403339850438
-0.2516999999999999,-4.712403339850438
-0.25270000000000004,-4.668547289554621
-0.2536999999999999,-4.668547289554621
-0.25470000000000004,-4.668547289554621
-0.2556999999999999,-4.668547289554621
-0.25670000000000004,-4.626105950558669
-0.25769999999999993,-4.668547289554621
-0.25870000000000004,-4.668547289554621
-0.25969999999999993,-4.712403339850438
-0.26070000000000004,-4.712403339850438
-0.26169999999999993,-4.712403339850438
-0.26270000000000004,-4.756259390146253
-0.26369999999999993,-4.756259390146253
-0.26470000000000005,-4.800115440442069
-0.26569999999999994,-4.800115440442069
-0.26670000000000005,-4.800115440442069
-0.26769999999999994,-4.800115440442069
-0.26870000000000005,-4.756259390146253
-0.26969999999999994,-4.756259390146253
-0.27070000000000005,-4.756259390146253
-0.27169999999999994,-4.756259390146253
-0.27270000000000005,-4.756259390146253
-0.27369999999999994,-4.756259390146253
-0.27470000000000006,-4.756259390146253
-0.27569999999999995,-4.800115440442069
-0.27670000000000006,-4.800115440442069
-0.27769999999999995,-4.843971490737885
-0.27870000000000006,-4.887827541033701
-0.27969999999999995,-4.887827541033701
-0.28070000000000006,-4.887827541033701
-0.28169999999999995,-4.887827541033701
-0.28270000000000006,-4.887827541033701
-0.28369999999999995,-4.887827541033701
-0.28470000000000006,-4.887827541033701
-0.28569999999999995,-4.887827541033701
-0.28670000000000007,-4.843971490737885
-0.28769999999999996,-4.887827541033701
-0.28870000000000007,-4.887827541033701
-0.28969999999999996,-4.887827541033701
-0.29070000000000007,-4.9302688800296535
-0.29169999999999996,-4.974124930325469
-0.29270000000000007,-4.974124930325469
-0.29369999999999996,-5.017980980621284
-0.2947000000000001,-5.0618370309171015
-0.29569999999999996,-5.017980980621284
-0.2967000000000001,-5.0618370309171015
-0.29769999999999996,-5.017980980621284
-0.2987000000000001,-5.017980980621284
-0.29969999999999997,-5.017980980621284
-0.3007000000000001,-5.017980980621284
-0.30169999999999997,-5.017980980621284
-0.3027000000000001,-5.0618370309171015
-0.30369999999999997,-5.0618370309171015
-0.3047000000000001,-5.105693081212917
-0.30569999999999997,-5.105693081212917
-0.3067000000000001,-5.149549131508733
-0.3077,-5.191990470504685
-0.3087000000000001,-5.235846520800501
-0.3097,-5.235846520800501
-0.3107000000000001,-5.279702571096316
-0.3117,-5.279702571096316
-0.3127000000000001,-5.279702571096316
-0.3137,-5.279702571096316
-0.3147000000000001,-5.279702571096316
-0.3157,-5.323558621392133
-0.3167000000000001,-5.323558621392133
-0.3177,-5.367414671687949
-0.3187000000000001,-5.411270721983764
-0.3197,-5.411270721983764
-0.3207000000000001,-5.497568111275533
-0.3217,-5.497568111275533
-0.3227000000000001,-5.585280211867165
-0.3237,-5.629136262162981
-0.3247000000000001,-5.672992312458796
-0.3257,-5.672992312458796
-0.3267000000000001,-5.759289701750564
-0.3277,-5.715433651454749
-0.3287000000000001,-5.759289701750564
-0.3297,-5.80314575204638
-0.3307000000000001,-5.847001802342197
-0.3317,-5.847001802342197
-0.3327000000000001,-5.9347139029338285
-0.3337,-5.977155241929781
-0.3347000000000001,-6.064867342521412
-0.3357,-6.108723392817228
-0.3367000000000001,-6.196435493408861
-0.3377,-6.282732882700628
-0.3387000000000001,-6.37044498329226
-0.3397,-6.414301033588076
-0.3407000000000001,-6.500598422879844
-0.3417,-6.588310523471475
-0.3427000000000001,-6.632166573767292
-0.3437,-6.719878674358924
-0.3447000000000001,-6.762320013354876
-0.3457,-6.893888164242324
-0.3467000000000001,-6.93774421453814
-0.3477,-7.024041603829907
-0.3487000000000001,-7.155609754717355
-0.3497,-7.28576319430494
-0.3507000000000001,-7.37347529489657
-0.3517,-7.5474847847799715
-0.3527000000000001,-7.679052935667419
-0.3537,-7.809206375255003
-0.3547000000000001,-7.940774526142452
-0.3557,-8.11478401602585
-0.35670000000000013,-8.246352166913299
-0.3577,-8.376505606500881
-0.35870000000000013,-8.55051509638428
-0.3597,-8.68208324727173
-0.36070000000000013,-8.85609273715513
-0.3617,-9.031516938338395
-0.3626999999999999,-9.24938247851761
-0.3637,-9.467248018696827
-0.3646999999999999,-9.685113558876042
-0.3657,-9.902979099055257
-0.3666999999999999,-10.208556739826104
-0.3677,-10.470278330301136
-0.3686999999999999,-10.731999920776168
-0.36970000000000003,-11.037577561547016
-0.3706999999999999,-11.343155202317865
-0.37170000000000003,-11.647318131788847
-0.3726999999999999,-11.952895772559694
-0.37370000000000003,-12.258473413330542
-0.3746999999999999,-12.607907104397206
-0.37570000000000003,-12.99978213445982
-0.3766999999999999,-13.3930718758223
-0.37770000000000004,-13.784946905884919
-0.3786999999999999,-14.217848563643619
-0.37970000000000004,-14.69885040559773
-0.3806999999999999,-15.179852247551842
-0.38170000000000004,-15.70329542850191
-0.38269999999999993,-16.269179948447924
-0.38370000000000004,-16.835064468393938
-0.38469999999999993,-17.4433903273359
-0.38570000000000004,-18.06586329927652
-0.38669999999999993,-18.716630497214435
-0.38770000000000004,-19.409839034148305
-0.38869999999999993,-20.10304757108217
-0.38970000000000005,-20.810403221014692
-0.39069999999999994,-21.63093577493641
-0.39170000000000005,-22.42317410286083
-0.39269999999999994,-23.300295108777156
-0.39370000000000005,-24.20571034069078
-0.39469999999999994,-25.167714024599
-0.39570000000000005,-26.129717708507226
-0.39669999999999994,-27.134162731411404
-0.39770000000000005,-28.22349043230748
-0.39869999999999994,-29.31281813320356
-0.39970000000000006,-30.444587173095588
-0.40069999999999995,-31.618797551983565
-0.40170000000000006,-32.84959638286615
-0.40269999999999995,-34.06624810075008
-0.40370000000000006,-35.32534115762997
-0.40469999999999995,-36.5985813275085
-0.40570000000000006,-37.90011572338433
-0.40669999999999995,-39.258238571254765
-0.40770000000000006,-40.616361419125205
-0.40869999999999995,-42.00277849299294
-0.40970000000000006,-43.40334267985933
-0.41069999999999995,-44.88878954471762
-0.41170000000000007,-46.3176479575813
-0.41269999999999996,-47.84553616143554
-0.41370000000000007,-49.33098302629383
-0.41469999999999996,-50.81642989115212
-0.41570000000000007,-52.34431809500636
-0.41669999999999996,-53.82976495986464
-0.41770000000000007,-55.31521182472294
-0.41869999999999996,-56.82895291557852
-0.4197000000000001,-58.31439978043681
-0.42069999999999996,-59.842287984291055
-0.4217000000000001,-61.327734849149344
-0.42269999999999996,-62.81318171400764
-0.4237000000000001,-64.34106991786187
-0.42469999999999997,-65.86895812171612
-0.4257000000000001,-67.39684632557035
-0.42669999999999997,-68.91058741642594
-0.4277000000000001,-70.43847562028017
-0.42869999999999997,-71.96636382413442
-0.4297000000000001,-73.45181068899271
-0.43069999999999997,-74.93725755385098
-0.4317000000000001,-76.38026307971333
-0.4327,-77.86570994457162
-0.4337000000000001,-79.2945683574353
-0.4347,-80.73757388329766
-0.4357000000000001,-82.18057940915998
-0.4367,-83.60943782202366
-0.4377000000000001,-85.01000200889004
-0.4387,-86.45300753475239
-0.4397000000000001,-87.85357172161878
-0.4407,-89.23998879548651
-0.4417000000000001,-90.68299432134886
-0.4427,-92.12599984721119
-0.4437000000000001,-93.55485826007487
-0.4447,-94.99786378593721
-0.4457000000000001,-96.4833106507955
-0.4467,-97.92631617665783
-0.4477000000000001,-99.35517458952152
-0.4487,-100.79818011538387
-0.4497000000000001,-102.28362698024215
-0.4507,-103.7266325061045
-0.4517000000000001,-105.16963803196683
-0.4527,-106.59849644483052
-0.4537000000000001,-108.04150197069285
-0.4547,-109.44206615755924
-0.4557000000000001,-110.82848323142699
-0.4567,-112.31393009628526
-0.4577000000000001,-113.71449428315165
-0.4587,-115.10091135701937
-0.4597000000000001,-116.50147554388576
-0.4607,-117.77471571376431
-0.4617000000000001,-119.1186914486361
-0.4627,-120.43437295751058
-0.4637000000000001,-121.65102467539451
-0.4647,-122.91011773227437
-0.4657000000000001,-124.14091656315696
-0.4667,-125.31512694204494
-0.4677000000000001,-126.5317786599289
-0.4687,-127.72013615181551
-0.4697000000000001,-128.89434653070347
-0.4707,-130.11099824858744
-0.4717000000000001,-131.46912109645783
-0.4727,-132.8555381703256
-0.4737000000000001,-134.29854369618792
-0.4747,-135.74154922205025
-0.4757000000000001,-137.1845547479126
-0.4767,-138.57097182178035
-0.4777000000000001,-139.8866533306548
-0.4787,-141.2306290655266
-0.4797000000000001,-142.4614278964092
-0.4807,-143.73466806628772
-0.48170000000000013,-145.00790823616626
-0.4827,-146.4226195360313
-0.48370000000000013,-147.83733083589632
-0.4847,-149.25204213576137
-0.48570000000000013,-150.8082245656129
-0.4867,-151.37410908555893
-0.48570000000000013,-150.5252823056399
-0.4847,-149.53498439573437
-0.48370000000000013,-148.40321535584232
-0.4827,-147.27144631595033
-0.48170000000000013,-146.1396772760583
-0.4807,-144.86643710617977
-0.4797000000000001,-143.4517258063147
-0.4787,-142.17848563643616
-0.4777000000000001,-140.9759810315509
-0.4767,-139.84421199165885
-0.4757000000000001,-138.8397669687547
-0.4747,-137.83532194585052
-0.4737000000000001,-136.91575960093826
-0.4727,-135.91131457803408
-0.4717000000000001,-134.94931089412586
-0.4707,-133.94486587122168
-0.4697000000000001,-132.89797950932152
-0.4687,-131.8510931474214
-0.4677000000000001,-130.84664812451723
-0.4667,-129.89879155360765
-0.4657000000000001,-128.85190519170752
-0.4647,-127.84746016880335
-0.4637000000000001,-126.80057380690324
-0.4627,-125.6688047670112
