Potential V vs RHE, Current mA cm-2
0.05339999999999995,0.5953105149832074
0.05239999999999995,0.5459370906179177
0.051399999999999946,0.5046275206618586
0.050399999999999945,0.4736453431948142
0.049399999999999944,0.44761465527729766
0.04839999999999994,0.423847505439565
0.04739999999999994,0.4014950669016974
0.04639999999999994,0.38041586853370835
0.04539999999999994,0.3600440258156518
0.04439999999999994,0.34136983665743337
0.04339999999999994,0.3234030031491474
0.04239999999999994,0.30571911190083445
0.04139999999999994,0.2886011051724675
0.040399999999999936,0.2723319252240196
0.039399999999999935,0.2564871586655311
0.038399999999999934,0.24120827662698877
0.03739999999999993,0.22649527910839237
0.03639999999999993,0.212065223849769
0.03539999999999993,0.19805958198110513
0.03439999999999993,0.1844783535024008
0.03339999999999993,0.17174595180361546
0.03239999999999993,0.1588720789748436
0.03139999999999993,0.14628114840604478
0.030399999999999927,0.13393071875822302
0.029399999999999926,0.12225935053433647
0.028399999999999925,0.11104068992640674
0.027399999999999924,0.09975129375348374
0.026399999999999924,0.08840530912856613
0.025399999999999923,0.07761106191059591
0.024399999999999922,0.06731196364757845
0.02339999999999992,0.05740898454852319
0.02239999999999992,0.04790212461343014
0.02139999999999992,0.03773035036740053
0.020399999999999918,0.027982989511330426
0.019399999999999917,0.01892883719219419
0.018399999999999916,0.010151968287831504
0.017399999999999916,0.0013472295708614743
0.016399999999999915,-0.007834671178652573
0.015399999999999914,-0.016721887564404736
0.014399999999999913,-0.024785741973635443
0.013399999999999912,-0.03267983102688235
0.012399999999999911,-0.040729538323114406
0.01139999999999991,-0.048807539845343764
0.01039999999999991,-0.056814805802579874
0.009399999999999908,-0.06417130456187807
0.008399999999999908,-0.07132974373919515
0.007399999999999907,-0.07862965404649873
0.006399999999999906,-0.08604274125779153
0.005399999999999905,-0.09325776888710322
0.004399999999999904,-0.10000594178745945
0.003399999999999903,-0.1064004368628494
0.002399999999999902,-0.11320519821520024
0.0013999999999999013,-0.12017972492353488
0.00039999999999990044,-0.1267581324679073
-0.0006000000000001005,-0.13315262754329726
-0.0016000000000001013,-0.13888220830775064
-0.0026000000000001022,-0.14514937936615277
-0.003600000000000103,-0.15165705134553195
-0.004600000000000104,-0.15759883880496509
-0.005600000000000105,-0.16354062626439822
-0.006600000000000106,-0.1689165292038854
-0.007600000000000107,-0.17443390327335903
-0.008600000000000108,-0.1806586329927652
-0.009600000000000108,-0.1861760070622388
-0.01060000000000011,-0.19169338113171247
-0.01160000000000011,-0.19678634181122662
-0.012600000000000111,-0.20258665814067325
-0.013600000000000112,-0.2082455033401334
-0.014600000000000113,-0.21347993514963404
-0.015600000000000114,-0.21828995356917516
-0.016600000000000115,-0.2232414431187028
-0.017600000000000116,-0.22833440379821693
-0.018600000000000116,-0.23371030673770407
-0.019600000000000117,-0.2389447385472047
-0.020600000000000118,-0.24347181470677282
-0.02160000000000012,-0.2482818331263139
-0.02260000000000012,-0.25295038041586854
-0.02360000000000012,-0.2581848122253692
-0.024600000000000122,-0.26327777290488336
-0.025600000000000123,-0.26752190680447846
-0.026600000000000124,-0.27204898296404656
-0.027600000000000124,-0.2767175302536012
-0.028600000000000125,-0.2815275486731423
-0.029600000000000126,-0.28633756709268343
-0.030600000000000127,-0.29058170099227854
-0.03160000000000013,-0.2949673060218601
-0.03260000000000013,-0.2996358533114148
-0.03360000000000013,-0.30430440060096936
-0.03460000000000002,-0.30883147676053746
-0.03560000000000002,-0.3130756106601326
-0.03660000000000002,-0.3171782734297412
-0.03760000000000002,-0.3218468207192958
-0.03860000000000002,-0.326373896878864
-0.039600000000000024,-0.3309009730384321
-0.040600000000000025,-0.3351451069380272
-0.041600000000000026,-0.3391062985776493
-0.04260000000000003,-0.34363337473721745
-0.04360000000000003,-0.34830192202677207
-0.04460000000000003,-0.35268752705635364
-0.04560000000000003,-0.35693166095594875
-0.04660000000000003,-0.36075138146558433
-0.04760000000000003,-0.36513698649516596
-0.04860000000000003,-0.3698055337847206
-0.04960000000000003,-0.37419113881430216
-0.050600000000000034,-0.3784352727138973
-0.051600000000000035,-0.3823964643535194
-0.052600000000000036,-0.38664059825311453
-0.053600000000000037,-0.3914506166726556
-0.05460000000000004,-0.39583622170223726
-0.05560000000000004,-0.39979741334185936
-0.05660000000000004,-0.40390007611146794
-0.05760000000000004,-0.4081442100110631
-0.05860000000000004,-0.4130956995605908
-0.05960000000000004,-0.4176227757201588
-0.06060000000000004,-0.42158396735978093
-0.061600000000000044,-0.42582810125937604
-0.06260000000000004,-0.4303551774189442
-0.06360000000000005,-0.43530666696847176
-0.06460000000000005,-0.4399752142580264
-0.06560000000000005,-0.44407787702763507
-0.06660000000000005,-0.4483220109272302
-0.06760000000000005,-0.45313202934677127
-0.06860000000000005,-0.45808351889629884
-0.06960000000000005,-0.4630350084458265
-0.07060000000000005,-0.4672791423454216
-0.07160000000000005,-0.47166474737500325
-0.07260000000000005,-0.47661623692453087
-0.07360000000000005,-0.48142625534407196
-0.07460000000000006,-0.48651921602358617
-0.07560000000000006,-0.4911877633131407
-0.07660000000000006,-0.4958563106026953
-0.07760000000000006,-0.5008078001522229
-0.07860000000000006,-0.5060422319617235
-0.07960000000000006,-0.5112766637712243
-0.08060000000000006,-0.5160866821907654
-0.08160000000000006,-0.52075522948032
-0.08260000000000006,-0.5261311324198072
-0.08360000000000006,-0.5317899776192673
-0.08460000000000006,-0.5370244094287681
-0.08560000000000006,-0.5422588412382686
-0.08660000000000007,-0.5472103307877962
-0.08760000000000007,-0.5528691759872564
-0.08860000000000007,-0.5588109634466895
-0.08960000000000007,-0.5643283375161632
-0.09060000000000007,-0.5699871827156233
-0.09160000000000007,-0.5752216145251239
-0.09260000000000007,-0.5808804597245841
-0.09360000000000007,-0.5872466605739768
-0.09460000000000007,-0.5930469769034233
-0.09560000000000007,-0.5988472932328701
-0.09660000000000007,-0.6045061384323301
-0.09760000000000008,-0.6105893970217499
-0.09860000000000008,-0.6169555978711424
-0.09960000000000008,-0.6230388564605621
-0.10060000000000008,-0.6291221150499817
-0.10160000000000008,-0.635346844769388
-0.10260000000000008,-0.6417130456187806
-0.10360000000000008,-0.6483621887281462
-0.10460000000000008,-0.6548698607075254
-0.10560000000000008,-0.6609531192969451
-0.10660000000000008,-0.6674607912763243
-0.10760000000000008,-0.674392876645663
-0.10860000000000009,-0.6814664331449882
-0.10960000000000009,-0.6883985185143269
-0.11060000000000009,-0.694906190493706
-0.11160000000000009,-0.7015553336030717
-0.11260000000000009,-0.7086288901023969
-0.11360000000000009,-0.7161268599916816
-0.11460000000000009,-0.7239077721409393
-0.11560000000000009,-0.7309813286402644
-0.11660000000000009,-0.7374890006196436
-0.1176000000000001,-0.7449869705089284
-0.1186000000000001,-0.752484940398213
-0.1196000000000001,-0.7599829102874976
-0.1206000000000001,-0.7674808801767823
-0.1216000000000001,-0.7745544366761076
-0.1226000000000001,-0.7820524065653922
-0.1236000000000001,-0.7903992032345959
-0.1246000000000001,-0.7980386442538671
-0.1256000000000001,-0.8056780852731383
-0.1266000000000001,-0.8130345840324366
-0.1276000000000001,-0.8210984384416673
-0.1286000000000001,-0.829445235110871
-0.1296000000000001,-0.8373676183901153
-0.1306000000000001,-0.8454314727993459
-0.1316000000000001,-0.8530709138186172
-0.1326000000000001,-0.8611347682278478
-0.1336000000000001,-0.869905978287011
-0.1346000000000001,-0.8779698326962417
-0.1356000000000001,-0.8860336871054725
-0.1366000000000001,-0.894380483774676
-0.1376000000000001,-0.9028687515738664
-0.1386000000000001,-0.9116399616330296
-0.1396000000000001,-0.9205526428221793
-0.1406000000000001,-0.9287579683613965
-0.14160000000000011,-0.9371047650306003
-0.14260000000000012,-0.9455930328297906
-0.14360000000000012,-0.9546471851489268
-0.14460000000000012,-0.9635598663380764
-0.14560000000000012,-0.9719066630072802
-0.14660000000000012,-0.980536401936457
-0.14760000000000012,-0.9894490831256065
-0.14860000000000012,-0.9985032354447428
-0.14960000000000012,-1.007840330023852
-0.15060000000000012,-1.0164700689530288
-0.15160000000000012,-1.0250998078822056
-0.15260000000000012,-1.0342954313313282
-0.15360000000000013,-1.0434910547804512
-0.15460000000000013,-1.0528281493595604
-0.15560000000000013,-1.0615993594187236
-0.15660000000000013,-1.0699461560879273
-0.15760000000000013,-1.079424721797023
-0.15860000000000013,-1.0887618163761321
-0.15960000000000002,-1.098240382085228
-0.16060000000000002,-1.1074360055343508
-0.16160000000000002,-1.1160657444635274
-0.16260000000000002,-1.1256857813026095
-0.16360000000000002,-1.1353058181416917
-0.16460000000000002,-1.1447843838507878
-0.16560000000000002,-1.1545458918198563
-0.16660000000000003,-1.1652976976988305
-0.16760000000000003,-1.174351850017967
-0.16860000000000003,-1.1836889445970762
-0.16960000000000003,-1.1930260391761855
-0.17060000000000003,-1.2023631337552947
-0.17160000000000003,-1.211417286074431
-0.17260000000000003,-1.2208958517835267
-0.17360000000000003,-1.230798830882582
-0.17460000000000003,-1.240418867721664
-0.17560000000000003,-1.2497559623007732
-0.17660000000000003,-1.2589515857498963
-0.17760000000000004,-1.2685716225889785
-0.17860000000000004,-1.27861607281802
-0.17960000000000004,-1.2882361096571022
-0.18060000000000004,-1.2974317331062253
-0.18160000000000004,-1.3070517699453075
-0.18260000000000004,-1.3166718067843897
-0.18360000000000004,-1.3264333147534584
-0.18460000000000004,-1.3363362938525138
-0.18560000000000004,-1.345673388431623
-0.18660000000000004,-1.3551519541407187
-0.18760000000000004,-1.3651964043697604
-0.18860000000000005,-1.3750993834688159
-0.18960000000000005,-1.385002362567871
-0.19060000000000005,-1.3941979860169935
-0.19160000000000005,-1.4039594939860625
-0.19260000000000005,-1.4137210019551312
-0.19360000000000005,-1.423199567664227
-0.19460000000000005,-1.433102546763282
-0.19560000000000005,-1.4430055258623373
-0.19660000000000005,-1.4529085049613928
-0.19760000000000005,-1.462811484060448
-0.19860000000000005,-1.472714463159503
-0.19960000000000006,-1.4826174422585585
-0.20060000000000006,-1.4925204213576138
-0.20160000000000006,-1.501008689156804
-0.20260000000000006,-1.510911668255859
-0.20360000000000006,-1.5222293586547795
-0.20460000000000006,-1.5321323377538347
-0.20560000000000006,-1.540620605553025
-0.20660000000000006,-1.55052358465208
-0.20760000000000006,-1.5604265637511354
-0.20860000000000006,-1.5703295428501907
-0.20960000000000006,-1.580232521949246
-0.21060000000000006,-1.5901355010483011
-0.21160000000000007,-1.6000384801473564
-0.21260000000000007,-1.6099414592464116
-0.21360000000000007,-1.6198444383454669
-0.21460000000000007,-1.6297474174445223
-0.21560000000000007,-1.6396503965435776
-0.21660000000000007,-1.6495533756426328
-0.21760000000000007,-1.660871066041553
-0.21860000000000007,-1.6707740451406083
-0.21960000000000007,-1.6806770242396636
-0.22060000000000007,-1.690580003338719
-0.22160000000000007,-1.6990682711379093
-0.22260000000000008,-1.7089712502369643
-0.22360000000000008,-1.7202889406358846
-0.22460000000000008,-1.7301919197349398
-0.22560000000000008,-1.7386801875341302
-0.22660000000000008,-1.7485831666331852
-0.22760000000000008,-1.7584861457322407
-0.22860000000000008,-1.769803836131161
-0.22960000000000008,-1.779706815230216
-0.23060000000000008,-1.7896097943292715
-0.23160000000000008,-1.7980980621284617
-0.23260000000000008,-1.8094157525273817
-0.23360000000000009,-1.8193187316264372
-0.2346000000000001,-1.8292217107254924
-0.2356000000000001,-1.8391246898245475
-0.2366000000000001,-1.849027668923603
-0.2376000000000001,-1.8589306480226582
-0.2386000000000001,-1.8688336271217136
-0.2396000000000001,-1.8787366062207687
-0.2406000000000001,-1.8886395853198237
-0.2416000000000001,-1.8985425644188794
-0.2426000000000001,-1.9084455435179344
-0.2436000000000001,-1.9197632339168547
-0.2446000000000001,-1.9296662130159101
-0.2456000000000001,-1.9395691921149654
-0.2466000000000001,-1.9494721712140204
-0.2476000000000001,-1.959375150313076
-0.2486000000000001,-1.9692781294121309
-0.2496000000000001,-1.9791811085111866
-0.2506000000000001,-1.9890840876102414
-0.2516000000000001,-1.9989870667092968
-0.2526000000000001,-2.008890045808352
-0.2536000000000001,-2.0187930249074073
-0.2546000000000001,-2.0301107153063276
-0.2556000000000001,-2.038598983105518
-0.2566000000000001,-2.048501962204573
-0.2576000000000001,-2.0584049413036287
-0.2586000000000001,-2.0697226317025486
-0.2596000000000001,-2.079625610801604
-0.2606000000000001,-2.0895285899006595
-0.2616000000000001,-2.0994315689997145
-0.2626000000000001,-2.1093345480987695
-0.2636000000000001,-2.1192375271978254
-0.2646000000000001,-2.12914050629688
-0.2656000000000001,-2.1390434853959355
-0.2666000000000001,-2.148946464494991
-0.2676000000000001,-2.158849443594046
-0.2686000000000001,-2.1687524226931014
-0.2696000000000001,-2.178655401792157
-0.2706000000000001,-2.1885583808912115
-0.2716000000000001,-2.1984613599902674
-0.2726000000000001,-2.208364339089322
-0.2736000000000001,-2.2182673181883774
-0.2746000000000001,-2.228170297287433
-0.2756000000000001,-2.238073276386488
-0.2766000000000001,-2.2479762554855434
-0.2776000000000001,-2.257879234584599
-0.2786000000000001,-2.2677822136836534
-0.2796000000000001,-2.2776851927827093
-0.2806000000000001,-2.2875881718817643
-0.28160000000000013,-2.2974911509808194
-0.28260000000000013,-2.307394130079875
-0.28360000000000013,-2.3172971091789303
-0.2846,-2.3272000882779853
-0.2856,-2.3371030673770408
-0.2866,-2.3455913351762305
-0.2876,-2.355494314275286
-0.2886,-2.3668120046742067
-0.2896,-2.3767149837732613
-0.2906,-2.385203251572452
-0.2916,-2.3951062306715074
-0.2926,-2.4050092097705624
-0.2936,-2.414912188869618
-0.29460000000000003,-2.424815167968673
-0.29560000000000003,-2.4347181470677284
-0.29660000000000003,-2.4432064148669186
-0.29760000000000003,-2.4531093939659736
-0.29860000000000003,-2.464427084364894
-0.29960000000000003,-2.4743300634639493
-0.30060000000000003,-2.4828183312631396
-0.30160000000000003,-2.4927213103621946
-0.30260000000000004,-2.50262428946125
-0.30360000000000004,-2.512527268560305
-0.30460000000000004,-2.5224302476593605
-0.30560000000000004,-2.532333226758415
-0.30660000000000004,-2.5408214945576058
-0.30760000000000004,-2.550724473656661
-0.30860000000000004,-2.5620421640555815
-0.30960000000000004,-2.5719451431546365
-0.31060000000000004,-2.5804334109538267
-0.31160000000000004,-2.590336390052882
-0.31260000000000004,-2.600239369151937
-0.31360000000000005,-2.610142348250993
-0.31460000000000005,-2.6200453273500477
-0.31560000000000005,-2.629948306449103
-0.31660000000000005,-2.6384365742482934
-0.31760000000000005,-2.6497542646472136
-0.31860000000000005,-2.659657243746269
-0.31960000000000005,-2.669560222845324
-0.32060000000000005,-2.6794632019443796
-0.32160000000000005,-2.6879514697435702
-0.32260000000000005,-2.697854448842625
-0.32360000000000005,-2.7077574279416803
-0.32460000000000006,-2.7176604070407357
-0.32560000000000006,-2.7275633861397908
-0.32660000000000006,-2.737466365238846
-0.32760000000000006,-2.7473693443379013
-0.32860000000000006,-2.7572723234369563
-0.32960000000000006,-2.767175302536012
-0.33060000000000006,-2.7770782816350668
-0.33160000000000006,-2.785566549434257
-0.33260000000000006,-2.795469528533313
-0.33360000000000006,-2.8053725076323675
-0.33460000000000006,-2.8152754867314234
-0.33560000000000006,-2.8251784658304784
-0.33660000000000007,-2.833666733629668
-0.33760000000000007,-2.843569712728724
-0.33860000000000007,-2.8534726918277786
-0.33960000000000007,-2.863375670926834
-0.34060000000000007,-2.8732786500258896
-0.34160000000000007,-2.8831816291249446
-0.34260000000000007,-2.8916698969241352
-0.34360000000000007,-2.9029875873230555
-0.3446000000000001,-2.91289056642211
-0.3456000000000001,-2.9213788342213007
-0.3466000000000001,-2.9312818133203558
-0.34759999999999996,-2.941184792419411
-0.3486000000000001,-2.9510877715184667
-0.34959999999999997,-2.9609907506175217
-0.3506000000000001,-2.970893729716577
-0.35159999999999997,-2.9793819975157674
-0.3526000000000001,-2.989284976614823
-0.35359999999999997,-2.999187955713878
-0.3546000000000001,-3.010505646112798
-0.35559999999999997,-3.0189939139119883
-0.3566000000000001,-3.028896893011044
-0.3576,-3.0387998721100984
-0.3586000000000001,-3.0487028512091543
-0.3596,-3.0586058303082093
-0.3606000000000001,-3.0685088094072643
-0.3616,-3.07841178850632
-0.3626000000000001,-3.0883147676053753
-0.3636,-3.0996324580042955
-0.3646000000000001,-3.1095354371033506
-0.3656,-3.119438416202406
-0.3666000000000001,-3.129341395301461
-0.3676,-3.1392443744005165
-0.3686000000000001,-3.150562064799437
-0.3696,-3.160465043898492
-0.3706000000000001,-3.1703680229975473
-0.3716,-3.1816857133964676
-0.3726000000000001,-3.1915886924955226
-0.3736,-3.202906382894443
-0.3746000000000001,-3.214224073293363
-0.3756,-3.2241270523924186
-0.3766000000000001,-3.235444742791339
-0.3776,-3.246762433190259
-0.3786000000000001,-3.2580801235891794
-0.3796,-3.2693978139880997
-0.3806000000000001,-3.28071550438702
-0.3816,-3.2920331947859403
-0.3826000000000001,-3.303350885184861
-0.3836,-3.316083286883646
-0.3846000000000001,-3.3274009772825663
-0.3856,-3.3401333789813514
-0.3866000000000001,-3.351451069380272
-0.3876,-3.3641834710790572
-0.3886000000000001,-3.3783305840777076
-0.3896,-3.3910629857764927
-0.3906000000000001,-3.402380676175413
-0.3916,-3.415113077874199
-0.3926000000000001,-3.4292601908728493
-0.3936,-3.4434073038714996
-0.3946000000000001,-3.4575544168701495
-0.3956,-3.4702868185689346
-0.3966000000000001,-3.4844339315675854
-0.3976,-3.4999957558661006
-0.3986000000000001,-3.5141428688647514
-0.3996,-3.5297046931632665
-0.4006000000000001,-3.543851806161917
-0.4016,-3.559413630460432
-0.4026000000000001,-3.5749754547589476
-0.4036,-3.591951990357328
-0.4046000000000001,-3.6075138146558436
-0.4056,-3.6244903502542236
-0.40660000000000013,-3.6400521745527397
-0.4076,-3.65702871015112
-0.40860000000000013,-3.6754199570493657
-0.4096,-3.6923964926477457
-0.41060000000000013,-3.710787739545991
-0.4116,-3.7291789864442366
-0.41260000000000013,-3.747570233342482
-0.4136,-3.765961480240728
-0.41460000000000014,-3.785767438438838
-0.4156,-3.8041586853370832
-0.41660000000000014,-3.823964643535194
-0.4176,-3.8437706017333046
-0.41860000000000014,-3.8649912712312804
-0.41960000000000003,-3.8862119407292557
-0.42060000000000014,-3.9074326102272314
-0.42160000000000003,-3.9286532797252063
-0.42260000000000014,-3.9512886605230477
-0.42360000000000003,-3.973924041320888
-0.42460000000000014,-3.9965594221187284
-0.42560000000000003,-4.019194802916569
-0.42660000000000015,-4.04183018371441
-0.42760000000000004,-4.065880275812115
-0.42860000000000015,-4.089930367909821
-0.42960000000000004,-4.113980460007527
-0.43060000000000015,-4.138030552105232
-0.43160000000000004,-4.163495355502803
-0.43260000000000015,-4.1889601589003735
-0.43360000000000004,-4.215839673597809
-0.43460000000000015,-4.2413044769953805
-0.43560000000000004,-4.2681839916928155
-0.43660000000000015,-4.295063506390251
-0.43760000000000004,-4.321943021087687
-0.43860000000000016,-4.350237247084988
-0.43960000000000005,-4.378531473082289
-0.44060000000000016,-4.406825699079589
-0.44160000000000005,-4.43511992507689
-0.44260000000000016,-4.4648288623740555
-0.44360000000000005,-4.494537799671222
-0.44460000000000016,-4.524246736968387
-0.44560000000000005,-4.553955674265553
-0.44660000000000016,-4.585079322862584
-0.44760000000000005,-4.6162029714596144
-0.44860000000000017,-4.6487413313565105
