Potential V vs RHE, Current mA cm-2
0.013299999999999867,15.830619445489761
0.012299999999999978,13.954712261868721
0.011299999999999866,12.036363739251732
0.010299999999999976,10.160456555630693
0.009299999999999864,8.198251982717888
0.008299999999999974,6.278488748801033
0.007299999999999862,4.490293665771627
0.006299999999999972,2.8761080726256196
0.00529999999999986,1.3063444142953748
0.0042999999999999705,-0.1766974413531431
0.0032999999999998586,-1.5293029151541047
0.0022999999999999687,-2.924208256821031
0.0012999999999998568,-4.450681749375406
0.00029999999999996696,-5.977155241929781
-0.000700000000000145,-7.5474847847799715
-0.0017000000000000348,-9.161670377925978
-0.0027000000000001467,-10.644287820184536
-0.0037000000000000366,-12.040607873151327
-0.0047000000000001485,-13.349215825526485
-0.005700000000000038,-14.529085049613924
-0.00670000000000015,-15.660854089505953
-0.00770000000000004,-16.835064468393938
-0.008700000000000152,-18.10830463827247
-0.009700000000000042,-19.409839034148305
-0.010700000000000154,-20.810403221014692
-0.011700000000000044,-22.196820294882425
-0.012700000000000156,-23.51250180375691
-0.013700000000000045,-24.729153521640843
-0.014700000000000157,-25.81848122253692
-0.015700000000000047,-26.86536758443705
-0.01670000000000016,-27.827371268345274
-0.01770000000000005,-28.8742576302454
-0.01870000000000016,-30.00602667013743
-0.01970000000000005,-31.23682550102001
-0.020700000000000163,-32.49591855789989
-0.021700000000000053,-33.81160006677438
-0.022700000000000164,-35.02825178465831
-0.023700000000000054,-36.11757948555439
-0.024700000000000166,-37.07958316946261
-0.025700000000000056,-37.99914551437489
-0.026700000000000168,-38.86211940729255
-0.027700000000000058,-39.739240413208876
-0.02870000000000017,-40.743685436113054
-0.02970000000000006,-41.83301313700913
-0.03070000000000017,-42.96478217690117
-0.03170000000000006,-44.181433894785094
-0.03270000000000017,-45.36979138667173
-0.03370000000000006,-46.41667774857186
-0.034700000000000175,-47.32209298048547
-0.035700000000000065,-48.24165532539775
-0.03670000000000018,-49.03389365332217
-0.03770000000000007,-49.89686754623985
-0.03870000000000018,-50.90131256914402
-0.03970000000000007,-51.90575759204819
-0.04070000000000018,-52.95264395394832
-0.04170000000000007,-54.0419716548444
-0.04270000000000018,-55.088858016744524
-0.04370000000000007,-56.008420361656796
-0.044700000000000184,-56.88554136757313
-0.045700000000000074,-57.66363258249889
-0.046700000000000186,-58.39928245842871
-0.047700000000000076,-59.27640346434504
-0.04870000000000019,-60.19596580925731
-0.04970000000000008,-61.15796949316553
-0.05070000000000019,-62.16241451606972
-0.05170000000000008,-63.251742216965795
-0.05270000000000019,-64.19959878787537
-0.05370000000000008,-65.11916113278764
-0.05470000000000019,-65.91139946071206
-0.05570000000000008,-66.60460799764593
-0.056700000000000195,-67.25537519558385
-0.057700000000000085,-68.04761352350828
-0.058700000000000196,-68.86814607742998
-0.059700000000000086,-69.8301497613382
-0.0607000000000002,-70.87703612323833
-0.06170000000000009,-71.96636382413442
-0.0627000000000002,-72.97080884703858
-0.06370000000000009,-73.8479298529549
-0.0647000000000002,-74.72505085887124
-0.06570000000000009,-75.46070073480107
-0.0667000000000002,-76.15390927173492
-0.0677000000000001,-76.9037062606634
-0.0687000000000002,-77.68179747558916
-0.0697000000000001,-78.64380115949739
-0.07070000000000021,-79.64824618240156
-0.0717000000000001,-80.65269120530574
-0.07270000000000021,-81.61469488921396
-0.0737000000000001,-82.47766878213164
-0.07470000000000021,-83.22746577106011
-0.0757000000000001,-83.92067430799398
-0.07670000000000021,-84.57144150593189
-0.0777000000000001,-85.36367983385631
-0.07870000000000021,-86.22665372677399
-0.0797000000000001,-87.18865741068221
-0.08070000000000022,-88.19310243358639
-0.0817000000000001,-89.23998879548651
-0.08270000000000022,-90.28687515738663
-0.08370000000000011,-91.12155482430701
-0.08470000000000022,-91.89964603923279
-0.08570000000000011,-92.64944302816124
-0.08670000000000022,-93.30021022609918
-0.08770000000000011,-93.99341876303303
-0.08870000000000022,-94.8280984299534
-0.08970000000000011,-95.79010211386164
-0.09070000000000022,-96.73795868477121
-0.09170000000000011,-97.84143349866595
-0.09270000000000023,-98.83173140857146
-0.09370000000000012,-99.75129375348374
-0.09470000000000023,-100.58597342040412
-0.09570000000000012,-101.3640646353299
-0.09670000000000023,-102.07142028526239
-0.09770000000000012,-102.89195283918411
-0.09870000000000023,-103.76907384510045
-0.09970000000000012,-104.68863619001272
-0.10070000000000023,-105.63649276092228
-0.10170000000000012,-106.64093778382647
-0.10270000000000024,-107.56050012873874
-0.10370000000000013,-108.39517979565912
-0.10470000000000024,-109.21571234958083
-0.10570000000000013,-109.9655093385093
-0.10670000000000024,-110.70115921443913
-0.10770000000000013,-111.49339754236355
-0.10870000000000024,-112.44125411327312
-0.10970000000000013,-113.40325779718134
-0.11070000000000024,-114.40770282008553
-0.11170000000000013,-115.45458918198564
-0.11270000000000002,-116.41659286589388
-0.11370000000000013,-117.25127253281424
-0.11470000000000002,-117.98692240874406
-0.11570000000000014,-118.63768960668197
-0.11670000000000003,-119.2884568046199
-0.11770000000000014,-119.95337111555646
-0.11870000000000003,-120.77390366947817
-0.11970000000000014,-121.69346601439047
-0.12070000000000003,-122.74035237629057
-0.12170000000000014,-123.91456275517855
-0.12270000000000003,-124.9614491170787
-0.12370000000000014,-125.96589413998288
-0.12470000000000003,-126.84301514589919
-0.12570000000000014,-127.62110636082497
-0.12670000000000003,-128.37090334975343
-0.12770000000000015,-129.0641118866873
-0.12870000000000004,-129.89879155360765
-0.12970000000000015,-130.84664812451723
-0.13070000000000004,-131.8510931474214
-0.13170000000000015,-132.8555381703256
-0.13270000000000004,-133.8599831932298
-0.13370000000000015,-134.73710419914607
-0.13470000000000004,-135.5576367530678
-0.13570000000000015,-136.34987508099226
-0.13670000000000004,-137.12796629591801
-0.13770000000000016,-137.9626459628384
-0.13870000000000005,-138.88220830775063
-0.13970000000000016,-139.9290946696508
-0.14070000000000005,-141.06086370954282
-0.14170000000000016,-142.17848563643616
-0.14270000000000005,-143.3102546763282
-0.14370000000000016,-144.15908145624724
-0.14470000000000005,-145.00790823616626
-0.14570000000000016,-145.85673501608528
-0.14670000000000005,-146.5640906660178
-0.14770000000000016,-147.4129174459368
-0.14870000000000005,-148.26174422585584
-0.14970000000000017,-149.25204213576137
-0.15070000000000006,-150.24234004566688
-0.15170000000000017,-151.37410908555893
-0.15270000000000006,-152.36440699546444
-0.15370000000000017,-153.21323377538346
-0.15470000000000006,-154.0620605553025
-0.15570000000000017,-154.9108873352215
-0.15670000000000006,-155.75971411514055
-0.15770000000000017,-156.46706976507306
-0.15870000000000006,-157.45736767497857
-0.15970000000000018,-158.4476655848841
-0.16070000000000007,-159.43796349478964
-0.16170000000000018,-160.42826140469515
-0.16270000000000007,-161.5600304445872
-0.16370000000000018,-162.40885722450622
-0.16470000000000007,-163.39915513441173
-0.16570000000000018,-164.24798191433075
-0.16670000000000007,-164.9553375642633
-0.16770000000000018,-165.94563547416882
-0.16870000000000007,-166.93593338407433
-0.16970000000000018,-167.92623129397984
-0.17070000000000007,-169.0580003338719
-0.17170000000000019,-170.33124050375042
-0.17270000000000008,-171.32153841365593
-0.1737000000000002,-172.31183632356147
-0.17470000000000008,-173.16066310348046
-0.1757000000000002,-173.86801875341303
-0.17670000000000008,-174.57537440334553
-0.1777000000000002,-175.56567231325104
-0.17870000000000008,-176.4144990931701
-0.1797000000000002,-177.4047970030756
-0.18070000000000008,-178.53656604296762
-0.1817000000000002,-179.66833508285964
-0.18270000000000008,-180.8001041227517
-0.1837000000000002,-181.79040203265723
-0.1847000000000001,-182.78069994256273
-0.1857000000000002,-183.48805559249527
-0.1867000000000001,-184.33688237241427
-0.1877000000000002,-185.1857091523333
-0.1887000000000001,-186.03453593225234
-0.1897000000000002,-187.02483384215788
-0.1907000000000001,-188.01513175206335
-0.1917000000000001,-189.1469007919554
-0.19269999999999998,-189.99572757187443
-0.1937000000000001,-190.84455435179345
-0.19469999999999998,-191.551910001726
-0.1957000000000001,-192.40073678164498
-0.19669999999999999,-193.249563561564
-0.1977000000000001,-193.9569192114965
-0.1987,-194.94721712140205
-0.1997000000000001,-196.0789861612941
-0.2007,-197.21075520118612
-0.2017000000000001,-198.3425242410781
-0.2027,-199.47429328097016
-0.2037000000000001,-200.4645911908757
-0.2047,-201.31341797079472
-0.2057000000000001,-202.02077362072723
-0.2067,-202.7281292706598
-0.2077000000000001,-203.57695605057876
-0.2087,-204.42578283049778
-0.2097000000000001,-205.55755187038983
-0.2107,-206.68932091028185
-0.2117000000000001,-207.8210899501739
-0.2127,-208.95285899006592
-0.2137000000000001,-209.94315689997146
-0.2147,-210.79198367989048
-0.2157000000000001,-211.64081045980947
-0.2167,-212.34816610974204
-0.21770000000000012,-213.19699288966103
-0.2187,-214.18729079956654
-0.21970000000000012,-215.17758870947208
-0.2207,-216.1678866193776
-0.22170000000000012,-217.29965565926966
-0.2227,-218.28995356917517
-0.22370000000000012,-219.13878034909416
-0.2247,-219.98760712901318
-0.22570000000000012,-220.6949627789457
-0.2267,-221.40231842887826
-0.22770000000000012,-222.25114520879725
-0.22870000000000001,-223.09997198871628
-0.22970000000000013,-224.09026989862178
-0.23070000000000002,-225.22203893851383
-0.23170000000000013,-226.35380797840588
-0.23270000000000002,-227.34410588831142
-0.23370000000000013,-228.33440379821695
-0.23470000000000002,-229.18323057813595
-0.23570000000000013,-230.03205735805497
-0.23670000000000002,-230.7394130079875
-0.2376999999999999,-231.5882397879065
-0.23870000000000002,-232.43706656782552
-0.2396999999999999,-233.4273644777311
-0.24070000000000003,-234.55913351762308
-0.24169999999999991,-235.69090255751513
-0.24270000000000003,-236.82267159740715
-0.24369999999999992,-237.9544406372992
-0.24470000000000003,-238.94473854720468
-0.24569999999999992,-239.7935653271237
-0.24670000000000003,-240.64239210704275
-0.24769999999999992,-241.49121888696175
-0.24870000000000003,-242.48151679686728
-0.24969999999999992,-243.3303435767863
-0.25070000000000003,-244.32064148669184
-0.2516999999999999,-245.45241052658386
-0.25270000000000004,-246.30123730650286
-0.2536999999999999,-247.1500640864219
-0.25470000000000004,-247.99889086634093
-0.2556999999999999,-248.70624651627344
-0.25670000000000004,-249.5550732961925
-0.25769999999999993,-250.4039000761115
-0.25870000000000004,-251.39419798601702
-0.25969999999999993,-252.52596702590907
-0.26070000000000004,-253.65773606580112
-0.26169999999999993,-254.78950510569314
-0.26270000000000004,-255.77980301559862
-0.26369999999999993,-256.62862979551767
-0.26470000000000005,-257.4774565754367
-0.26569999999999994,-258.18481222536917
-0.26670000000000005,-258.8921678753017
-0.26769999999999994,-259.59952352523425
-0.26870000000000005,-260.4483503051532
-0.26969999999999994,-261.4386482150588
-0.27070000000000005,-262.57041725495077
-0.27169999999999994,-263.7021862948428
-0.27270000000000005,-264.83395533473487
-0.27369999999999994,-265.9657243746269
-0.27470000000000006,-266.9560222845325
-0.27569999999999995,-267.80484906445145
-0.27670000000000006,-268.65367584437047
-0.27769999999999995,-269.5025026242895
-0.27870000000000006,-270.49280053419506
-0.27969999999999995,-271.62456957408705
-0.28070000000000006,-272.61486748399255
-0.28169999999999995,-273.60516539389806
-0.28270000000000006,-274.5954633038036
-0.28369999999999995,-275.44429008372265
-0.28470000000000006,-276.29311686364167
-0.28569999999999995,-277.1419436435607
-0.28670000000000007,-277.9907704234797
-0.28769999999999996,-278.8395972033987
-0.28870000000000007,-279.97136624329073
-0.28969999999999996,-280.9616641531963
-0.29070000000000007,-282.09343319308834
-0.29169999999999996,-283.22520223298034
-0.29270000000000007,-284.2155001428859
-0.29369999999999996,-285.0643269228049
-0.2947000000000001,-285.7716825727374
-0.29569999999999996,-286.47903822266994
-0.2967000000000001,-287.04492274261594
-0.29769999999999996,-287.7522783925485
-0.2987000000000001,-288.6011051724675
-0.29969999999999997,-289.73287421235955
-0.3007000000000001,-291.0061143822381
-0.30169999999999997,-292.1378834221301
-0.3027000000000001,-293.4111235920086
-0.30369999999999997,-294.4014215019141
-0.3047000000000001,-295.3917194118196
-0.30569999999999997,-296.0990750617522
-0.3067000000000001,-296.94790184167124
-0.3077,-297.79672862159026
-0.3087000000000001,-298.78702653149577
-0.3097,-299.7773244414013
-0.3107000000000001,-300.76762235130684
-0.3117,-301.8993913911989
-0.3127000000000001,-303.0311604310908
-0.3137,-304.0214583409964
-0.3147000000000001,-304.72881399092887
-0.3157,-305.71911190083443
-0.3167000000000001,-306.56793868075346
-0.3177,-307.55823659065896
-0.3187000000000001,-308.407063370578
-0.3197,-309.821774670443
-0.3207000000000001,-310.95354371033505
-0.3217,-312.0853127502271
-0.3227000000000001,-312.79266840015964
-0.3237,-313.35855292010564
-0.3247000000000001,-313.6414951800786
-0.3257,-313.78296631006515
-0.3267000000000001,-314.20737970002466
-0.3277,-314.77326421997066
-0.3287000000000001,-315.9050332598627
-0.3297,-317.1782734297412
-0.3307000000000001,-318.4515135996198
-0.3317,-319.8662248994848
-0.3327000000000001,-320.9979939393768
-0.3337,-321.8468207192958
-0.3347000000000001,-322.41270523924186
-0.3357,-322.83711862920137
-0.3367000000000001,-322.97858975918786
-0.3377,-322.97858975918786
-0.3387000000000001,-323.40300314914737
-0.3397,-324.1103587990799
-0.3407000000000001,-325.1006567089854
-0.3417,-326.373896878864
-0.3427000000000001,-327.6471370487425
-0.3437,-328.92037721862107
-0.3447000000000001,-329.76920399854004
-0.3457,-330.4765596484726
-0.3467000000000001,-330.9009730384321
-0.3477,-331.0424441684186
-0.3487000000000001,-331.4668575583781
-0.3497,-332.1742132083106
-0.3507000000000001,-333.1645111182162
-0.3517,-334.43775128809466
-0.3527000000000001,-335.5695203279867
-0.3537,-336.5598182378922
-0.3547000000000001,-337.26717388782475
-0.3557,-337.69158727778427
-0.35670000000000013,-337.9745295377573
-0.3577,-338.2574717977303
-0.35870000000000013,-338.8233563176763
-0.3597,-339.6721830975953
-0.36070000000000013,-340.80395213748733
-0.3617,-342.07719230736586
-0.3626999999999999,-343.3504324772444
-0.3637,-344.34073038714996
-0.3646999999999999,-345.1895571670689
-0.3657,-346.03838394698795
-0.3666999999999999,-346.7457395969205
-0.3677,-347.59456637683957
-0.3686999999999999,-348.301922026772
-0.36970000000000003,-349.15074880669107
-0.3706999999999999,-350.1410467165966
-0.37170000000000003,-350.8484023665291
-0.3726999999999999,-351.4142868864751
-0.37370000000000003,-351.8387002764346
-0.3746999999999999,-352.26311366639413
-0.37570000000000003,-352.8289981863402
-0.3766999999999999,-353.5363538362726
-0.37770000000000004,-354.5266517461782
-0.3786999999999999,-355.9413630460432
-0.37970000000000004,-357.63901660588124
-0.3806999999999999,-359.3366701657193
-0.38170000000000004,-361.17579485554387
-0.38269999999999993,-362.87344841538186
-0.38370000000000004,-364.4296308452335
-0.38469999999999993,-365.8443421450985
-0.38570000000000004,-366.97611118499054
-0.38669999999999993,-366.268755535058
-0.38570000000000004,-362.87344841538186
-0.38469999999999993,-359.4781412957058
-0.38370000000000004,-356.36577643600276
-0.38269999999999993,-353.3948827062862
-0.38170000000000004,-350.7069312365426
-0.3806999999999999,-348.018979766799
-0.37970000000000004,-345.33102829705547
-0.3786999999999999,-342.7845479572984
-0.37770000000000004,-340.0965964875548
-0.3766999999999999,-336.9842316278517
-0.37570000000000003,-334.01333789813515
-0.3746999999999999,-331.0424441684186
-0.37370000000000003,-328.071550438702
-0.3726999999999999,-325.24212783897195
-0.37170000000000003,-322.2712341092554
-0.3706999999999999,-319.30034037953874
-0.36970000000000003,-316.04650438984913
-0.3686999999999999,-312.79266840015964
-0.3677,-309.53883241047004
-0.3666999999999999,-306.28499642078043
-0.3657,-303.17263156107737
-0.3646999999999999,-300.3432089613473
-0.3637,-297.51378636161724
-0.3626999999999999,-294.8258348918736
-0.3617,-292.1378834221301
-0.36070000000000013,-289.4499319523865
-0.3597,-286.6205093526564
-0.35870000000000013,-283.64961562293985
-0.3577,-280.5372507632368
-0.35670000000000013,-277.56635703352015
-0.3557,-274.5954633038036
-0.3547000000000001,-271.9075118340601
-0.3537,-269.361031494303
-0.3527000000000001,-266.9560222845325
-0.3517,-264.55101307476184
-0.3507000000000001,-262.1460038649913
-0.3497,-259.59952352523425
-0.3487000000000001,-257.0530431854772
-0.3477,-254.2236205857471
-0.3467000000000001,-251.53566911600356
-0.3457,-248.9891887762465
-0.3447000000000001,-246.30123730650286
-0.3437,-243.8962280967323
-0.3427000000000001,-241.49121888696175
-0.3417,-239.0862096771912
-0.3407000000000001,-236.6812004674206
-0.3397,-234.13472012766357
-0.3387000000000001,-231.5882397879065
-0.3377,-228.90028831816295
-0.3367000000000001,-226.35380797840588
-0.3357,-223.9487987686353
-0.3347000000000001,-221.68526068885126
-0.3337,-219.42172260906716
-0.3327000000000001,-217.15818452928315
-0.3317,-215.03611757948556
-0.3307000000000001,-212.77257949970152
-0.3297,-210.36757028993094
-0.3287000000000001,-207.96256108016038
-0.3277,-205.41608074040332
-0.3267000000000001,-202.86960040064628
-0.3257,-200.4645911908757
-0.3247000000000001,-198.20105311109162
-0.3237,-195.93751503130758
-0.3227000000000001,-193.9569192114965
-0.3217,-191.9763233916855
-0.3207000000000001,-189.8542564418879
-0.3197,-187.73218949209036
-0.3187000000000001,-185.46865141230631
-0.3177,-183.20511333252225
-0.3167000000000001,-180.8001041227517
-0.3157,-178.53656604296762
-0.3147000000000001,-176.4144990931701
-0.3137,-174.2924321433725
-0.3127000000000001,-172.31183632356147
-0.3117,-170.33124050375042
-0.3107000000000001,-168.20917355395284
-0.3097,-166.0871066041553
-0.3087000000000001,-163.96503965435775
-0.3077,-161.70150157457368
-0.3067000000000001,-159.43796349478964
-0.30569999999999997,-157.31589654499206
-0.3047000000000001,-155.33530072518104
-0.30369999999999997,-153.35470490536997
-0.3027000000000001,-151.5155802155454
-0.30169999999999997,-149.8179266557074
-0.3007000000000001,-147.83733083589632
-0.29969999999999997,-145.85673501608528
-0.2987000000000001,-143.87613919627424
-0.29769999999999996,-141.61260111649017
-0.2967000000000001,-139.44809282769666
-0.29569999999999996,-137.31187876490046
-0.2947000000000001,-135.3029887190921
-0.29369999999999996,-133.37898135127566
-0.29270000000000007,-131.55400377444977
-0.29169999999999996,-129.7148790846252
-0.29070000000000007,-127.97478418579122
-0.28969999999999996,-126.00833547897882
-0.28870000000000007,-123.95700409417452
-0.28769999999999996,-121.82079003137831
-0.28670000000000007,-119.72701730757805
-0.28569999999999995,-117.63324458377778
-0.28470000000000006,-115.68094298996405
-0.28369999999999995,-113.84181830013951
-0.28270000000000006,-112.01684072331359
-0.28169999999999995,-110.22015737248502
-0.28070000000000006,-108.48006247365102
-0.27969999999999995,-106.55605510583456
-0.27870000000000006,-104.50472372103027
-0.27769999999999995,-102.4958336752219
-0.27670000000000006,-100.40206095142165
-0.27569999999999995,-98.364876679616
-0.27470000000000006,-96.52575198979144
-0.27369999999999994,-94.78565709095746
-0.27270000000000005,-93.08800353111941
-0.27169999999999994,-91.46108553627462
-0.27070000000000005,-89.76343197643658
-0.26969999999999994,-87.98089573860662
-0.26870000000000005,-86.09932970978613
-0.26769999999999994,-84.18946945496833
