Potential V vs RHE, Current mA cm-2
0.013299999999999867,14.57152638860988
0.012299999999999978,12.472094819610163
0.011299999999999866,10.422178146105725
0.010299999999999976,8.459973573192919
0.009299999999999864,6.671778490163514
0.008299999999999974,5.01373684672169
0.007299999999999862,3.3995512535756833
0.006299999999999972,1.8730777610213083
0.00529999999999986,0.3467457395969205
0.0042999999999999705,-1.2234423321232837
0.0032999999999998586,-2.794054817233447
0.0022999999999999687,-4.406825699079589
0.0012999999999998568,-6.021011292225596
0.00029999999999996696,-7.679052935667419
-0.000700000000000145,-9.293238528813426
-0.0017000000000000348,-10.819712021367803
-0.0027000000000001467,-12.258473413330542
-0.0037000000000000366,-13.610937416001518
-0.0047000000000001485,-14.868615761581536
-0.005700000000000038,-16.099414592464115
-0.00670000000000015,-17.40094898833995
-0.00770000000000004,-18.674189158218486
-0.008700000000000152,-20.01816489309027
-0.009700000000000042,-21.418729079956652
-0.010700000000000154,-22.904175944814945
-0.011700000000000044,-24.34718147067728
-0.012700000000000156,-25.648715866553115
-0.013700000000000045,-26.907808923433
-0.014700000000000157,-28.18104909331153
-0.015700000000000047,-29.31281813320356
-0.01670000000000016,-30.359704495103685
-0.01770000000000005,-31.449032195999767
-0.01870000000000016,-32.53835989689585
-0.01970000000000005,-33.712570275783825
-0.020700000000000163,-34.90092776767045
-0.021700000000000053,-36.16002082455034
-0.022700000000000164,-37.47570233342482
-0.023700000000000054,-38.734795390304704
-0.024700000000000166,-39.95144710818864
-0.025700000000000056,-41.04077480908471
-0.026700000000000168,-42.087661170984845
-0.027700000000000058,-43.09210619388902
-0.02870000000000017,-44.011668538801295
-0.02970000000000006,-44.97367222270952
-0.03070000000000017,-45.97811724561369
-0.03170000000000006,-47.02500360751382
-0.03270000000000017,-48.1992139864018
-0.03370000000000006,-49.33098302629383
-0.034700000000000175,-50.547634744177756
-0.035700000000000065,-51.69355089706845
-0.03670000000000018,-52.78287859796452
-0.03770000000000007,-53.7873236208687
-0.03870000000000018,-54.69273885278232
-0.03970000000000007,-55.56985985869864
-0.04070000000000018,-56.404539525619015
-0.04170000000000007,-57.30995475753264
-0.04270000000000018,-58.18707576344896
-0.04370000000000007,-59.19152078635314
-0.044700000000000184,-60.23840714825326
-0.045700000000000074,-61.327734849149344
-0.046700000000000186,-62.459503889041365
-0.047700000000000076,-63.5063902509415
-0.04870000000000019,-64.51083527384567
-0.04970000000000008,-65.43039761875795
-0.05070000000000019,-66.25093017267966
-0.05170000000000008,-67.128051178596
-0.05270000000000019,-67.9202895065204
-0.05370000000000008,-68.74082206044213
-0.05470000000000019,-69.70282574435035
-0.05570000000000008,-70.66482942825859
-0.056700000000000195,-71.66927445116276
-0.057700000000000085,-72.71616081306288
-0.058700000000000196,-73.72060583596706
-0.059700000000000086,-74.76749219786718
-0.0607000000000002,-75.63046609078486
-0.06170000000000009,-76.55002843569714
-0.0627000000000002,-77.38470810261751
-0.06370000000000009,-78.12035797854733
-0.0647000000000002,-78.9550376454677
-0.06570000000000009,-79.81801153838538
-0.0667000000000002,-80.73757388329766
-0.0677000000000001,-81.74201890620182
-0.0687000000000002,-82.746463929106
-0.0697000000000001,-83.79335029100612
-0.07070000000000021,-84.7977953139103
-0.0717000000000001,-85.75979899781852
-0.07270000000000021,-86.6227728907362
-0.0737000000000001,-87.45745255765657
-0.07470000000000021,-88.23554377258235
-0.0757000000000001,-88.9853407615108
-0.07670000000000021,-89.84831465442848
-0.0777000000000001,-90.7254356603448
-0.07870000000000021,-91.64499800525708
-0.0797000000000001,-92.64944302816124
-0.08070000000000022,-93.69632939006138
-0.0817000000000001,-94.78565709095746
-0.08270000000000022,-95.74766077486568
-0.08370000000000011,-96.69551734577524
-0.08470000000000022,-97.57263835169158
-0.08570000000000011,-98.364876679616
-0.08670000000000022,-99.10052655554581
-0.08770000000000011,-99.83617643147564
-0.08870000000000022,-100.62841475940007
-0.08970000000000011,-101.54797710431234
-0.09070000000000022,-102.41095099723
-0.09170000000000011,-103.45783735913014
-0.09270000000000023,-104.50472372103027
-0.09370000000000012,-105.46672740493848
-0.09470000000000023,-106.47117242784265
-0.09570000000000012,-107.34829343375898
-0.09670000000000023,-108.21126732667666
-0.09770000000000012,-109.00350565460108
-0.09870000000000023,-109.73915553053091
-0.09970000000000012,-110.53139385845533
-0.10070000000000023,-111.3094850733811
-0.10170000000000012,-112.18660607929739
-0.10270000000000024,-113.14860976320564
-0.10370000000000013,-114.11061344711386
-0.10470000000000024,-115.15749980901398
-0.10570000000000013,-116.10535637992358
-0.10670000000000024,-117.10980140282774
-0.10770000000000013,-117.98692240874406
-0.10870000000000024,-118.76501362366983
-0.10970000000000013,-119.55725195159425
-0.11070000000000024,-120.29290182752408
-0.11170000000000013,-121.17002283344038
-0.11270000000000002,-122.0471438393567
-0.11370000000000013,-122.95255907127036
-0.11470000000000002,-123.99944543317046
-0.11570000000000014,-125.00389045607463
-0.11670000000000003,-126.00833547897882
-0.11770000000000014,-127.05522184087894
-0.11870000000000003,-127.97478418579122
-0.11970000000000014,-128.85190519170752
-0.12070000000000003,-129.7148790846252
-0.12170000000000014,-130.5495587515456
-0.12270000000000003,-131.4266797574619
-0.12370000000000014,-132.33209498937555
-0.12470000000000003,-133.29409867328377
-0.12570000000000014,-134.38342637417986
-0.12670000000000003,-135.51519541407185
-0.12770000000000015,-136.66111156696255
-0.12870000000000004,-137.75043926785864
-0.12970000000000015,-138.8397669687547
-0.13070000000000004,-139.70274086167237
-0.13170000000000015,-140.5798618675887
-0.13270000000000004,-141.41454153450906
-0.13370000000000015,-142.17848563643616
-0.13470000000000004,-143.0273124163552
-0.13570000000000015,-143.87613919627424
-0.13670000000000004,-144.72496597619326
-0.13770000000000016,-145.85673501608528
-0.13870000000000005,-146.9885040559773
-0.13970000000000016,-148.12027309586935
-0.14070000000000005,-149.1105710057749
-0.14170000000000016,-150.24234004566688
-0.14270000000000005,-151.09116682558593
-0.14370000000000016,-151.93999360550492
-0.14470000000000005,-152.78882038542397
-0.14570000000000016,-153.63764716534297
-0.14670000000000005,-154.486473945262
-0.14770000000000016,-155.47677185516753
-0.14870000000000005,-156.60854089505958
-0.14970000000000017,-157.7403099349516
-0.15070000000000006,-158.73060784485713
-0.15170000000000017,-159.72090575476264
-0.15270000000000006,-160.71120366466818
-0.15370000000000017,-161.5600304445872
-0.15470000000000006,-162.40885722450622
-0.15570000000000017,-163.25768400442522
-0.15670000000000006,-164.10651078434424
-0.15770000000000017,-164.9553375642633
-0.15870000000000006,-165.8041643441823
-0.15970000000000018,-166.79446225408785
-0.16070000000000007,-167.78476016399335
-0.16170000000000018,-168.77505807389886
-0.16270000000000007,-169.9068271137909
-0.16370000000000018,-170.89712502369645
-0.16470000000000007,-171.88742293360195
-0.16570000000000018,-172.87772084350746
-0.16670000000000007,-173.72654762342648
-0.16770000000000018,-174.43390327335902
-0.16870000000000007,-175.28273005327804
-0.16970000000000018,-175.99008570321055
-0.17070000000000007,-176.55597022315658
-0.17170000000000019,-177.4047970030756
-0.17270000000000008,-178.53656604296762
-0.1737000000000002,-179.80980621284618
-0.17470000000000008,-180.94157525273818
-0.1757000000000002,-181.93187316264374
-0.17670000000000008,-183.34658446250873
-0.1777000000000002,-184.47835350240078
-0.17870000000000008,-185.3271802823198
-0.1797000000000002,-186.03453593225234
-0.18070000000000008,-186.88336271217133
-0.1817000000000002,-187.59071836210387
-0.18270000000000008,-188.29807401203638
-0.1837000000000002,-189.1469007919554
-0.1847000000000001,-190.27866983184742
-0.1857000000000002,-191.41043887173947
-0.1867000000000001,-192.54220791163152
-0.1877000000000002,-193.532505821537
-0.1887000000000001,-194.66427486142905
-0.1897000000000002,-195.65457277133459
-0.1907000000000001,-196.50339955125358
-0.1917000000000001,-197.35222633117263
-0.19269999999999998,-198.20105311109162
-0.1937000000000001,-199.04987989101065
-0.19469999999999998,-200.04017780091618
-0.1957000000000001,-201.03047571082172
-0.19669999999999999,-201.87930249074074
-0.1977000000000001,-203.01107153063276
-0.1987,-204.14284057052478
-0.1997000000000001,-205.13313848043032
-0.2007,-206.12343639033585
-0.2017000000000001,-206.97226317025488
-0.2027,-207.8210899501739
-0.2037000000000001,-208.52844560010638
-0.2047,-209.37727238002543
-0.2057000000000001,-210.22609915994445
-0.2067,-211.35786819983647
-0.2077000000000001,-212.48963723972852
-0.2087,-213.76287740960703
-0.2097000000000001,-215.03611757948556
-0.2107,-216.1678866193776
-0.2117000000000001,-217.29965565926966
-0.2127,-218.28995356917517
-0.2137000000000001,-219.13878034909416
-0.2147,-219.98760712901318
-0.2157000000000001,-220.83643390893224
-0.2167,-221.82673181883774
-0.21770000000000012,-222.81702972874328
-0.2187,-223.80732763864881
-0.21970000000000012,-224.93909667854084
-0.2207,-225.92939458844637
-0.22170000000000012,-227.2026347583249
-0.2227,-228.47587492820347
-0.22370000000000012,-229.74911509808197
-0.2247,-230.880884137974
-0.22570000000000012,-231.8711820478795
-0.2267,-232.86147995778504
-0.22770000000000012,-233.85177786769057
-0.22870000000000001,-234.9835469075826
-0.22970000000000013,-236.1153159474746
-0.23070000000000002,-237.10561385738015
-0.23170000000000013,-238.37885402725868
-0.23270000000000002,-239.5106230671507
-0.23370000000000013,-240.64239210704275
-0.23470000000000002,-241.6326900169483
-0.23570000000000013,-242.62298792685377
-0.23670000000000002,-243.6132858367593
-0.2376999999999999,-244.46211261667833
-0.23870000000000002,-245.31093939659738
-0.2396999999999999,-246.15976617651637
-0.24070000000000003,-247.0085929564354
-0.24169999999999991,-247.99889086634093
-0.24270000000000003,-248.9891887762465
-0.24369999999999992,-250.1209578161385
-0.24470000000000003,-251.67714024599002
-0.24569999999999992,-252.80890928588207
-0.24670000000000003,-253.79920719578757
-0.24769999999999992,-254.64803397570657
-0.24870000000000003,-255.49686075562562
-0.24969999999999992,-256.20421640555816
-0.25070000000000003,-257.0530431854772
-0.2516999999999999,-258.0433410953827
-0.25270000000000004,-258.8921678753017
-0.2536999999999999,-260.02393691519376
-0.25470000000000004,-261.1557059550858
-0.2556999999999999,-262.1460038649913
-0.25670000000000004,-263.13630177489676
-0.25769999999999993,-264.12659968480233
-0.25870000000000004,-265.11689759470784
-0.25969999999999993,-265.9657243746269
-0.26070000000000004,-266.8145511545459
-0.26169999999999993,-267.6633779344649
-0.26270000000000004,-268.512204714384
-0.26369999999999993,-269.361031494303
-0.26470000000000005,-270.20985827422203
-0.26569999999999994,-271.20015618412754
-0.26670000000000005,-272.1904540940331
-0.26769999999999994,-273.3222231339251
-0.26870000000000005,-274.4539921738171
-0.26969999999999994,-275.44429008372265
-0.27070000000000005,-276.29311686364167
-0.27169999999999994,-277.1419436435607
-0.27270000000000005,-277.9907704234797
-0.27369999999999994,-278.8395972033987
-0.27470000000000006,-279.6884239833177
-0.27569999999999995,-280.5372507632368
-0.27670000000000006,-281.52754867314235
-0.27769999999999995,-282.51784658304786
-0.27870000000000006,-283.5081444929533
-0.27969999999999995,-284.63991353284536
-0.28070000000000006,-285.6302114427509
-0.28169999999999995,-286.6205093526564
-0.28270000000000006,-287.610807262562
-0.28369999999999995,-288.45963404248096
-0.28470000000000006,-289.1669896924135
-0.28569999999999995,-289.87434534234603
-0.28670000000000007,-290.723172122265
-0.28769999999999996,-291.4305277721976
-0.28870000000000007,-292.56229681208964
-0.28969999999999996,-293.4111235920086
-0.29070000000000007,-294.4014215019141
-0.29169999999999996,-295.3917194118196
-0.29270000000000007,-296.3820173217252
-0.29369999999999996,-297.23084410164427
-0.2947000000000001,-298.2211420115498
-0.29569999999999996,-298.9284976614822
-0.2967000000000001,-299.6358533114148
-0.29769999999999996,-300.48468009133376
-0.2987000000000001,-301.33350687125284
-0.29969999999999997,-302.32380478115834
-0.3007000000000001,-303.31410269106385
-0.30169999999999997,-304.3044006009694
-0.3027000000000001,-305.57764077084795
-0.30369999999999997,-306.56793868075346
-0.3047000000000001,-307.69970772064545
-0.30569999999999997,-308.690005630551
-0.3067000000000001,-309.6803035404565
-0.3077,-310.52913032037554
-0.3087000000000001,-311.2364859703081
-0.3097,-312.2267838802136
-0.3107000000000001,-313.0756106601326
-0.3117,-313.9244374400517
-0.3127000000000001,-314.91473534995714
-0.3137,-315.9050332598627
-0.3147000000000001,-317.03680229975475
-0.3157,-318.02710020966026
-0.3167000000000001,-319.01739811956577
-0.3177,-319.8662248994848
-0.3187000000000001,-320.71505167940376
-0.3197,-321.7053495893094
-0.3207000000000001,-322.5541763692284
-0.3217,-323.5444742791339
-0.3227000000000001,-324.5347721890394
-0.3237,-325.5250700989449
-0.3247000000000001,-326.656839138837
-0.3257,-327.6471370487425
-0.3267000000000001,-328.7789060886345
-0.3277,-329.76920399854004
-0.3287000000000001,-330.618030778459
-0.3297,-331.4668575583781
-0.3307000000000001,-332.3156843382971
-0.3317,-333.02303998822964
-0.3327000000000001,-333.87186676814866
-0.3337,-334.7206935480677
-0.3347000000000001,-335.71099145797325
-0.3357,-336.84276049786524
-0.3367000000000001,-337.9745295377573
-0.3377,-339.2477697076358
-0.3387000000000001,-340.5210098775143
-0.3397,-341.65277891740635
-0.3407000000000001,-342.64307682731186
-0.3417,-343.49190360723094
-0.3427000000000001,-344.34073038714996
-0.3437,-345.1895571670689
-0.3447000000000001,-346.03838394698795
-0.3457,-346.88721072690697
-0.3467000000000001,-347.87750863681254
-0.3477,-349.0092776767046
-0.3487000000000001,-350.1410467165966
-0.3497,-351.2728157564886
-0.3507000000000001,-352.4045847963807
-0.3517,-353.5363538362726
-0.3527000000000001,-354.5266517461782
-0.3537,-355.3754785260972
-0.3547000000000001,-356.08283417602973
-0.3557,-356.93166095594876
-0.35670000000000013,-357.7804877358678
-0.3577,-358.7707856457733
-0.35870000000000013,-359.61961242569237
-0.3597,-360.75138146558436
-0.36070000000000013,-361.74167937548987
-0.3617,-362.73197728539543
-0.3626999999999999,-363.58080406531445
-0.3637,-364.57110197521996
-0.3646999999999999,-365.2784576251525
-0.3657,-365.985813275085
-0.3666999999999999,-366.69316892501746
-0.3677,-367.5419957049365
-0.3686999999999999,-368.2493513548691
-0.36970000000000003,-369.09817813478804
-0.3706999999999999,-370.0884760446936
-0.37170000000000003,-371.0787739545991
-0.3726999999999999,-372.0690718645047
-0.37370000000000003,-372.9178986444237
-0.3746999999999999,-373.90819655432915
-0.37570000000000003,-374.4740810742752
-0.3766999999999999,-375.18143672420774
-0.37770000000000004,-375.60585011416725
-0.3786999999999999,-376.31320576409973
-0.37970000000000004,-376.8790902840458
-0.3806999999999999,-377.58644593397827
-0.38170000000000004,-378.43527271389735
-0.38269999999999993,-379.42557062380286
-0.38370000000000004,-380.55733966369485
-0.38469999999999993,-381.5476375736004
-0.38570000000000004,-382.537935483506
-0.38669999999999993,-381.9720509635599
-0.38570000000000004,-378.5767438438838
-0.38469999999999993,-375.3229078541942
-0.38370000000000004,-371.92760073451814
-0.38269999999999993,-368.67376474482853
-0.38170000000000004,-365.56139988512547
-0.3806999999999999,-362.5905061554089
-0.37970000000000004,-359.61961242569237
-0.3786999999999999,-356.93166095594876
-0.37770000000000004,-354.10223835621866
-0.3766999999999999,-351.4142868864751
-0.37570000000000003,-348.72633541673156
-0.3746999999999999,-346.03838394698795
-0.37370000000000003,-343.06749021727137
-0.3726999999999999,-340.2380676175413
-0.37170000000000003,-337.26717388782475
-0.3706999999999999,-334.43775128809466
-0.36970000000000003,-331.6083286883646
-0.3686999999999999,-328.92037721862107
-0.3677,-326.23242574887746
-0.3666999999999999,-323.68594540912045
-0.3657,-321.2809361993498
-0.3646999999999999,-318.73445585959274
-0.3637,-316.04650438984913
-0.3626999999999999,-313.5000240500921
-0.3617,-310.6706014503621
-0.36070000000000013,-307.841178850632
-0.3597,-305.1532273808884
-0.35870000000000013,-302.4652759111449
-0.3577,-299.7773244414013
-0.35670000000000013,-297.3723152316307
-0.3557,-294.8258348918736
-0.3547000000000001,-292.4208256821031
-0.3537,-290.157287602319
-0.3527000000000001,-287.7522783925485
-0.3517,-285.2057980527914
-0.3507000000000001,-282.51784658304786
-0.3497,-279.82989511330425
-0.3487000000000001,-277.1419436435607
-0.3477,-274.4539921738171
-0.3467000000000001,-271.7660407040736
-0.3457,-269.361031494303
-0.3447000000000001,-266.8145511545459
-0.3437,-264.40954194477536
-0.3427000000000001,-262.1460038649913
-0.3417,-259.7409946552208
-0.3407000000000001,-257.33598544545015
-0.3397,-254.78950510569314
-0.3387000000000001,-252.10155363594956
-0.3377,-249.41360216620598
-0.3367000000000001,-246.5841795664759
-0.3357,-244.03769922671884
-0.3347000000000001,-241.49121888696175
-0.3337,-239.0862096771912
-0.3327000000000001,-236.82267159740715
-0.3317,-234.55913351762308
-0.3307000000000001,-232.43706656782552
-0.3297,-230.17352848804146
-0.3287000000000001,-228.0514615382439
-0.3277,-225.78792345845983
-0.3267000000000001,-223.2414431187028
-0.3257,-220.6949627789457
-0.3247000000000001,-218.28995356917517
-0.3237,-215.88494435940459
-0.3227000000000001,-213.47993514963403
-0.3217,-211.35786819983647
-0.3207000000000001,-209.23580125003892
-0.3197,-207.1137343002414
-0.3187000000000001,-204.9916673504438
-0.3177,-202.7281292706598
-0.3167000000000001,-200.6060623208622
-0.3157,-198.20105311109162
-0.3147000000000001,-195.93751503130758
-0.3137,-193.6739769515235
-0.3127000000000001,-191.268967741753
-0.3117,-189.0054296619689
-0.3107000000000001,-186.88336271217133
-0.3097,-184.7612957623738
-0.3087000000000001,-182.78069994256273
-0.3077,-180.65863299276518
-0.3067000000000001,-178.67803717295413
-0.30569999999999997,-176.6974413531431
-0.3047000000000001,-174.57537440334553
-0.30369999999999997,-172.31183632356147
-0.3027000000000001,-170.0482982437774
-0.30169999999999997,-167.78476016399335
-0.3007000000000001,-165.5212220842093
-0.29969999999999997,-163.25768400442522
-0.2987000000000001,-161.2770881846142
-0.29769999999999996,-159.29649236480313
-0.2967000000000001,-157.31589654499206
-0.29569999999999996,-155.47677185516753
-0.2947000000000001,-153.63764716534297
-0.29369999999999996,-151.65705134553193
-0.29270000000000007,-149.6764555257209
-0.29169999999999996,-147.4129174459368
-0.29070000000000007,-145.29085049613926
-0.28969999999999996,-142.8858412863687
-0.28870000000000007,-140.74962722357247
-0.28769999999999996,-138.6982958387682
-0.28670000000000007,-136.74599424495443
-0.28569999999999995,-134.86442821613394
-0.28470000000000006,-133.03945063930803
-0.28369999999999995,-131.32764996647134
-0.28270000000000006,-129.50267238964545
-0.28169999999999995,-127.57866502182902
-0.28070000000000006,-125.62636342801528
-0.27969999999999995,-123.532590704215
-0.27870000000000006,-121.33978818942418
-0.27769999999999995,-119.20357412662798
-0.27670000000000006,-117.06736006383179
-0.27569999999999995,-115.10091135701937
-0.27470000000000006,-113.19105110220158
-0.27369999999999994,-111.394367751373
-0.27270000000000005,-109.61183151354304
-0.27169999999999994,-107.87173661470905
-0.27070000000000005,-106.11749460287639
-0.26969999999999994,-104.33495836504645
-0.26870000000000005,-102.45339233622596
-0.26769999999999994,-100.5010907424122
