Jan. 12, 2025   07:34:51
Cyclic Voltammetry
File: c:/users/guazh/data/banditlqround7_x0exp772_r5/2025-01-10-exp821\exp821-2025-01-12t07_27_03-h2koh\exp821_cv_sr_600mvs_efin_-1400mv.bin
Data Source:  Experiment
Instrument Model:  CHI760E
Header: CV ran at 600 mVs
Note: 

Init E (V) = -1
High E (V) = -1
Low E (V) = -1.4
Final E (V) = -1
Init P/N = N
Scan Rate (V/s) = 0.6
Segment = 3
Sample Interval (V) = 0.001
Quiet Time (sec) = 2
Sensitivity (A/V) = 0.01
Comp R (ohm) = 1.4

Results:

Channel 1:
Segment 1:

Segment 2:

Segment 3:

Potential/V, Current/A

-1.000, -1.119e-3
-1.001, -9.864e-4
-1.002, -8.508e-4
-1.003, -7.182e-4
-1.004, -5.795e-4
-1.005, -4.438e-4
-1.006, -3.174e-4
-1.007, -2.033e-4
-1.008, -9.234e-5
-1.009, 1.249e-5
-1.010, 1.081e-4
-1.011, 2.067e-4
-1.012, 3.146e-4
-1.013, 4.225e-4
-1.014, 5.335e-4
-1.015, 6.476e-4
-1.016, 7.524e-4
-1.017, 8.511e-4
-1.018, 9.436e-4
-1.019, 1.027e-3
-1.020, 1.107e-3
-1.021, 1.190e-3
-1.022, 1.280e-3
-1.023, 1.372e-3
-1.024, 1.471e-3
-1.025, 1.569e-3
-1.026, 1.662e-3
-1.027, 1.748e-3
-1.028, 1.825e-3
-1.029, 1.899e-3
-1.030, 1.967e-3
-1.031, 2.041e-3
-1.032, 2.121e-3
-1.033, 2.208e-3
-1.034, 2.297e-3
-1.035, 2.390e-3
-1.036, 2.476e-3
-1.037, 2.553e-3
-1.038, 2.621e-3
-1.039, 2.686e-3
-1.040, 2.747e-3
-1.041, 2.809e-3
-1.042, 2.880e-3
-1.043, 2.957e-3
-1.044, 3.037e-3
-1.045, 3.123e-3
-1.046, 3.207e-3
-1.047, 3.281e-3
-1.048, 3.345e-3
-1.049, 3.410e-3
-1.050, 3.466e-3
-1.051, 3.527e-3
-1.052, 3.598e-3
-1.053, 3.669e-3
-1.054, 3.743e-3
-1.055, 3.820e-3
-1.056, 3.894e-3
-1.057, 3.959e-3
-1.058, 4.021e-3
-1.059, 4.076e-3
-1.060, 4.128e-3
-1.061, 4.190e-3
-1.062, 4.255e-3
-1.063, 4.323e-3
-1.064, 4.394e-3
-1.065, 4.471e-3
-1.066, 4.538e-3
-1.067, 4.603e-3
-1.068, 4.659e-3
-1.069, 4.708e-3
-1.070, 4.754e-3
-1.071, 4.810e-3
-1.072, 4.868e-3
-1.073, 4.936e-3
-1.074, 5.010e-3
-1.075, 5.087e-3
-1.076, 5.158e-3
-1.077, 5.220e-3
-1.078, 5.282e-3
-1.079, 5.334e-3
-1.080, 5.383e-3
-1.081, 5.436e-3
-1.082, 5.491e-3
-1.083, 5.559e-3
-1.084, 5.630e-3
-1.085, 5.701e-3
-1.086, 5.769e-3
-1.087, 5.830e-3
-1.088, 5.883e-3
-1.089, 5.932e-3
-1.090, 5.978e-3
-1.091, 6.034e-3
-1.092, 6.095e-3
-1.093, 6.163e-3
-1.094, 6.234e-3
-1.095, 6.308e-3
-1.096, 6.382e-3
-1.097, 6.441e-3
-1.098, 6.496e-3
-1.099, 6.549e-3
-1.100, 6.595e-3
-1.101, 6.644e-3
-1.102, 6.703e-3
-1.103, 6.771e-3
-1.104, 6.838e-3
-1.105, 6.916e-3
-1.106, 6.986e-3
-1.107, 7.051e-3
-1.108, 7.110e-3
-1.109, 7.165e-3
-1.110, 7.215e-3
-1.111, 7.273e-3
-1.112, 7.335e-3
-1.113, 7.400e-3
-1.114, 7.467e-3
-1.115, 7.538e-3
-1.116, 7.603e-3
-1.117, 7.662e-3
-1.118, 7.720e-3
-1.119, 7.773e-3
-1.120, 7.825e-3
-1.121, 7.881e-3
-1.122, 7.948e-3
-1.123, 8.016e-3
-1.124, 8.087e-3
-1.125, 8.161e-3
-1.126, 8.229e-3
-1.127, 8.288e-3
-1.128, 8.340e-3
-1.129, 8.386e-3
-1.130, 8.432e-3
-1.131, 8.479e-3
-1.132, 8.537e-3
-1.133, 8.602e-3
-1.134, 8.676e-3
-1.135, 8.759e-3
-1.136, 8.833e-3
-1.137, 8.904e-3
-1.138, 8.966e-3
-1.139, 9.021e-3
-1.140, 9.074e-3
-1.141, 9.123e-3
-1.142, 9.182e-3
-1.143, 9.249e-3
-1.144, 9.320e-3
-1.145, 9.391e-3
-1.146, 9.462e-3
-1.147, 9.524e-3
-1.148, 9.582e-3
-1.149, 9.638e-3
-1.150, 9.693e-3
-1.151, 9.752e-3
-1.152, 9.817e-3
-1.153, 9.891e-3
-1.154, 9.971e-3
-1.155, 1.005e-2
-1.156, 1.013e-2
-1.157, 1.019e-2
-1.158, 1.025e-2
-1.159, 1.031e-2
-1.160, 1.036e-2
-1.161, 1.042e-2
-1.162, 1.048e-2
-1.163, 1.055e-2
-1.164, 1.062e-2
-1.165, 1.070e-2
-1.166, 1.077e-2
-1.167, 1.083e-2
-1.168, 1.089e-2
-1.169, 1.095e-2
-1.170, 1.101e-2
-1.171, 1.106e-2
-1.172, 1.113e-2
-1.173, 1.120e-2
-1.174, 1.127e-2
-1.175, 1.134e-2
-1.176, 1.142e-2
-1.177, 1.148e-2
-1.178, 1.155e-2
-1.179, 1.161e-2
-1.180, 1.166e-2
-1.181, 1.173e-2
-1.182, 1.180e-2
-1.183, 1.187e-2
-1.184, 1.195e-2
-1.185, 1.204e-2
-1.186, 1.211e-2
-1.187, 1.218e-2
-1.188, 1.224e-2
-1.189, 1.229e-2
-1.190, 1.234e-2
-1.191, 1.241e-2
-1.192, 1.247e-2
-1.193, 1.254e-2
-1.194, 1.262e-2
-1.195, 1.270e-2
-1.196, 1.278e-2
-1.197, 1.285e-2
-1.198, 1.292e-2
-1.199, 1.297e-2
-1.200, 1.303e-2
-1.201, 1.309e-2
-1.202, 1.315e-2
-1.203, 1.322e-2
-1.204, 1.329e-2
-1.205, 1.337e-2
-1.206, 1.343e-2
-1.207, 1.349e-2
-1.208, 1.354e-2
-1.209, 1.360e-2
-1.210, 1.366e-2
-1.211, 1.371e-2
-1.212, 1.378e-2
-1.213, 1.386e-2
-1.214, 1.394e-2
-1.215, 1.402e-2
-1.216, 1.410e-2
-1.217, 1.417e-2
-1.218, 1.423e-2
-1.219, 1.428e-2
-1.220, 1.433e-2
-1.221, 1.439e-2
-1.222, 1.445e-2
-1.223, 1.453e-2
-1.224, 1.461e-2
-1.225, 1.469e-2
-1.226, 1.477e-2
-1.227, 1.484e-2
-1.228, 1.490e-2
-1.229, 1.496e-2
-1.230, 1.501e-2
-1.231, 1.507e-2
-1.232, 1.514e-2
-1.233, 1.521e-2
-1.234, 1.528e-2
-1.235, 1.536e-2
-1.236, 1.543e-2
-1.237, 1.549e-2
-1.238, 1.555e-2
-1.239, 1.560e-2
-1.240, 1.565e-2
-1.241, 1.571e-2
-1.242, 1.577e-2
-1.243, 1.584e-2
-1.244, 1.592e-2
-1.245, 1.600e-2
-1.246, 1.607e-2
-1.247, 1.614e-2
-1.248, 1.620e-2
-1.249, 1.626e-2
-1.250, 1.631e-2
-1.251, 1.637e-2
-1.252, 1.643e-2
-1.253, 1.650e-2
-1.254, 1.658e-2
-1.255, 1.666e-2
-1.256, 1.674e-2
-1.257, 1.682e-2
-1.258, 1.689e-2
-1.259, 1.695e-2
-1.260, 1.701e-2
-1.261, 1.707e-2
-1.262, 1.714e-2
-1.263, 1.720e-2
-1.264, 1.727e-2
-1.265, 1.735e-2
-1.266, 1.741e-2
-1.267, 1.747e-2
-1.268, 1.753e-2
-1.269, 1.758e-2
-1.270, 1.764e-2
-1.271, 1.770e-2
-1.272, 1.777e-2
-1.273, 1.785e-2
-1.274, 1.793e-2
-1.275, 1.801e-2
-1.276, 1.808e-2
-1.277, 1.814e-2
-1.278, 1.820e-2
-1.279, 1.825e-2
-1.280, 1.830e-2
-1.281, 1.835e-2
-1.282, 1.841e-2
-1.283, 1.848e-2
-1.284, 1.856e-2
-1.285, 1.864e-2
-1.286, 1.872e-2
-1.287, 1.880e-2
-1.288, 1.887e-2
-1.289, 1.893e-2
-1.290, 1.899e-2
-1.291, 1.905e-2
-1.292, 1.912e-2
-1.293, 1.920e-2
-1.294, 1.927e-2
-1.295, 1.934e-2
-1.296, 1.941e-2
-1.297, 1.947e-2
-1.298, 1.953e-2
-1.299, 1.959e-2
-1.300, 1.965e-2
-1.301, 1.971e-2
-1.302, 1.979e-2
-1.303, 1.986e-2
-1.304, 1.994e-2
-1.305, 2.002e-2
-1.306, 2.009e-2
-1.307, 2.015e-2
-1.308, 2.020e-2
-1.309, 2.025e-2
-1.310, 2.029e-2
-1.311, 2.034e-2
-1.312, 2.040e-2
-1.313, 2.048e-2
-1.314, 2.057e-2
-1.315, 2.065e-2
-1.316, 2.074e-2
-1.317, 2.081e-2
-1.318, 2.088e-2
-1.319, 2.093e-2
-1.320, 2.099e-2
-1.321, 2.105e-2
-1.322, 2.112e-2
-1.323, 2.119e-2
-1.324, 2.126e-2
-1.325, 2.134e-2
-1.326, 2.142e-2
-1.327, 2.149e-2
-1.328, 2.154e-2
-1.329, 2.161e-2
-1.330, 2.167e-2
-1.331, 2.174e-2
-1.332, 2.180e-2
-1.333, 2.190e-2
-1.334, 2.198e-2
-1.335, 2.206e-2
-1.336, 2.211e-2
-1.337, 2.215e-2
-1.338, 2.217e-2
-1.339, 2.218e-2
-1.340, 2.221e-2
-1.341, 2.225e-2
-1.342, 2.233e-2
-1.343, 2.242e-2
-1.344, 2.251e-2
-1.345, 2.261e-2
-1.346, 2.269e-2
-1.347, 2.275e-2
-1.348, 2.279e-2
-1.349, 2.282e-2
-1.350, 2.283e-2
-1.351, 2.283e-2
-1.352, 2.286e-2
-1.353, 2.291e-2
-1.354, 2.298e-2
-1.355, 2.307e-2
-1.356, 2.316e-2
-1.357, 2.325e-2
-1.358, 2.331e-2
-1.359, 2.336e-2
-1.360, 2.339e-2
-1.361, 2.340e-2
-1.362, 2.343e-2
-1.363, 2.348e-2
-1.364, 2.355e-2
-1.365, 2.364e-2
-1.366, 2.372e-2
-1.367, 2.379e-2
-1.368, 2.384e-2
-1.369, 2.387e-2
-1.370, 2.389e-2
-1.371, 2.391e-2
-1.372, 2.395e-2
-1.373, 2.401e-2
-1.374, 2.409e-2
-1.375, 2.418e-2
-1.376, 2.427e-2
-1.377, 2.434e-2
-1.378, 2.440e-2
-1.379, 2.446e-2
-1.380, 2.451e-2
-1.381, 2.457e-2
-1.382, 2.462e-2
-1.383, 2.468e-2
-1.384, 2.475e-2
-1.385, 2.480e-2
-1.386, 2.484e-2
-1.387, 2.487e-2
-1.388, 2.490e-2
-1.389, 2.494e-2
-1.390, 2.499e-2
-1.391, 2.506e-2
-1.392, 2.516e-2
-1.393, 2.528e-2
-1.394, 2.540e-2
-1.395, 2.553e-2
-1.396, 2.565e-2
-1.397, 2.576e-2
-1.398, 2.586e-2
-1.399, 2.594e-2
-1.400, 2.589e-2
-1.399, 2.565e-2
-1.398, 2.541e-2
-1.397, 2.519e-2
-1.396, 2.498e-2
-1.395, 2.479e-2
-1.394, 2.460e-2
-1.393, 2.441e-2
-1.392, 2.423e-2
-1.391, 2.404e-2
-1.390, 2.382e-2
-1.389, 2.361e-2
-1.388, 2.340e-2
-1.387, 2.319e-2
-1.386, 2.299e-2
-1.385, 2.278e-2
-1.384, 2.257e-2
-1.383, 2.234e-2
-1.382, 2.211e-2
-1.381, 2.188e-2
-1.380, 2.165e-2
-1.379, 2.143e-2
-1.378, 2.123e-2
-1.377, 2.103e-2
-1.376, 2.084e-2
-1.375, 2.065e-2
-1.374, 2.046e-2
-1.373, 2.026e-2
-1.372, 2.005e-2
-1.371, 1.983e-2
-1.370, 1.962e-2
-1.369, 1.941e-2
-1.368, 1.922e-2
-1.367, 1.904e-2
-1.366, 1.887e-2
-1.365, 1.870e-2
-1.364, 1.853e-2
-1.363, 1.835e-2
-1.362, 1.817e-2
-1.361, 1.797e-2
-1.360, 1.778e-2
-1.359, 1.760e-2
-1.358, 1.741e-2
-1.357, 1.724e-2
-1.356, 1.707e-2
-1.355, 1.690e-2
-1.354, 1.673e-2
-1.353, 1.655e-2
-1.352, 1.637e-2
-1.351, 1.618e-2
-1.350, 1.600e-2
-1.349, 1.583e-2
-1.348, 1.567e-2
-1.347, 1.551e-2
-1.346, 1.535e-2
-1.345, 1.520e-2
-1.344, 1.504e-2
-1.343, 1.487e-2
-1.342, 1.470e-2
-1.341, 1.452e-2
-1.340, 1.434e-2
-1.339, 1.417e-2
-1.338, 1.401e-2
-1.337, 1.385e-2
-1.336, 1.371e-2
-1.335, 1.357e-2
-1.334, 1.342e-2
-1.333, 1.327e-2
-1.332, 1.311e-2
-1.331, 1.295e-2
-1.330, 1.278e-2
-1.329, 1.262e-2
-1.328, 1.247e-2
-1.327, 1.232e-2
-1.326, 1.218e-2
-1.325, 1.204e-2
-1.324, 1.189e-2
-1.323, 1.174e-2
-1.322, 1.159e-2
-1.321, 1.143e-2
-1.320, 1.127e-2
-1.319, 1.112e-2
-1.318, 1.098e-2
-1.317, 1.084e-2
-1.316, 1.071e-2
-1.315, 1.059e-2
-1.314, 1.045e-2
-1.313, 1.031e-2
-1.312, 1.017e-2
-1.311, 1.001e-2
-1.310, 9.857e-3
-1.309, 9.706e-3
-1.308, 9.564e-3
-1.307, 9.428e-3
-1.306, 9.299e-3
-1.305, 9.169e-3
-1.304, 9.046e-3
-1.303, 8.907e-3
-1.302, 8.762e-3
-1.301, 8.611e-3
-1.300, 8.463e-3
-1.299, 8.315e-3
-1.298, 8.177e-3
-1.297, 8.047e-3
-1.296, 7.918e-3
-1.295, 7.791e-3
-1.294, 7.668e-3
-1.293, 7.532e-3
-1.292, 7.387e-3
-1.291, 7.245e-3
-1.290, 7.097e-3
-1.289, 6.953e-3
-1.288, 6.823e-3
-1.287, 6.700e-3
-1.286, 6.580e-3
-1.285, 6.465e-3
-1.284, 6.345e-3
-1.283, 6.219e-3
-1.282, 6.086e-3
-1.281, 5.951e-3
-1.280, 5.809e-3
-1.279, 5.673e-3
-1.278, 5.544e-3
-1.277, 5.426e-3
-1.276, 5.312e-3
-1.275, 5.201e-3
-1.274, 5.087e-3
-1.273, 4.961e-3
-1.272, 4.834e-3
-1.271, 4.705e-3
-1.270, 4.569e-3
-1.269, 4.440e-3
-1.268, 4.320e-3
-1.267, 4.206e-3
-1.266, 4.101e-3
-1.265, 3.996e-3
-1.264, 3.885e-3
-1.263, 3.771e-3
-1.262, 3.647e-3
-1.261, 3.521e-3
-1.260, 3.395e-3
-1.259, 3.274e-3
-1.258, 3.160e-3
-1.257, 3.049e-3
-1.256, 2.951e-3
-1.255, 2.846e-3
-1.254, 2.744e-3
-1.253, 2.633e-3
-1.252, 2.510e-3
-1.251, 2.386e-3
-1.250, 2.266e-3
-1.249, 2.146e-3
-1.248, 2.038e-3
-1.247, 1.936e-3
-1.246, 1.838e-3
-1.245, 1.739e-3
-1.244, 1.637e-3
-1.243, 1.532e-3
-1.242, 1.418e-3
-1.241, 1.301e-3
-1.240, 1.184e-3
-1.239, 1.070e-3
-1.238, 9.652e-4
-1.237, 8.696e-4
-1.236, 7.740e-4
-1.235, 6.846e-4
-1.234, 5.890e-4
-1.233, 4.873e-4
-1.232, 3.794e-4
-1.231, 2.684e-4
-1.230, 1.574e-4
-1.229, 4.024e-5
-1.228, -5.842e-5
-1.227, -1.509e-4
-1.226, -2.403e-4
-1.225, -3.267e-4
-1.224, -4.130e-4
-1.223, -5.147e-4
-1.222, -6.165e-4
-1.221, -7.244e-4
-1.220, -8.354e-4
-1.219, -9.402e-4
-1.218, -1.036e-3
-1.217, -1.125e-3
-1.216, -1.208e-3
-1.215, -1.292e-3
-1.214, -1.375e-3
-1.213, -1.470e-3
-1.212, -1.572e-3
-1.211, -1.671e-3
-1.210, -1.776e-3
-1.209, -1.877e-3
-1.208, -1.967e-3
-1.207, -2.053e-3
-1.206, -2.133e-3
-1.205, -2.210e-3
-1.204, -2.294e-3
-1.203, -2.380e-3
-1.202, -2.479e-3
-1.201, -2.577e-3
-1.200, -2.676e-3
-1.199, -2.772e-3
-1.198, -2.858e-3
-1.197, -2.935e-3
-1.196, -3.015e-3
-1.195, -3.089e-3
-1.194, -3.166e-3
-1.193, -3.253e-3
-1.192, -3.342e-3
-1.191, -3.441e-3
-1.190, -3.533e-3
-1.189, -3.622e-3
-1.188, -3.709e-3
-1.187, -3.783e-3
-1.186, -3.857e-3
-1.185, -3.925e-3
-1.184, -3.999e-3
-1.183, -4.082e-3
-1.182, -4.171e-3
-1.181, -4.264e-3
-1.180, -4.359e-3
-1.179, -4.449e-3
-1.178, -4.532e-3
-1.177, -4.606e-3
-1.176, -4.674e-3
-1.175, -4.745e-3
-1.174, -4.816e-3
-1.173, -4.893e-3
-1.172, -4.976e-3
-1.171, -5.062e-3
-1.170, -5.152e-3
-1.169, -5.241e-3
-1.168, -5.318e-3
-1.167, -5.386e-3
-1.166, -5.457e-3
-1.165, -5.522e-3
-1.164, -5.590e-3
-1.163, -5.667e-3
-1.162, -5.747e-3
-1.161, -5.833e-3
-1.160, -5.916e-3
-1.159, -6.000e-3
-1.158, -6.074e-3
-1.157, -6.141e-3
-1.156, -6.206e-3
-1.155, -6.268e-3
-1.154, -6.333e-3
-1.153, -6.410e-3
-1.152, -6.493e-3
-1.151, -6.576e-3
-1.150, -6.666e-3
-1.149, -6.746e-3
-1.148, -6.817e-3
-1.147, -6.881e-3
-1.146, -6.943e-3
-1.145, -7.002e-3
-1.144, -7.063e-3
-1.143, -7.134e-3
-1.142, -7.208e-3
-1.141, -7.288e-3
-1.140, -7.372e-3
-1.139, -7.452e-3
-1.138, -7.529e-3
-1.137, -7.603e-3
-1.136, -7.671e-3
-1.135, -7.738e-3
-1.134, -7.806e-3
-1.133, -7.880e-3
-1.132, -7.957e-3
-1.131, -8.038e-3
-1.130, -8.115e-3
-1.129, -8.186e-3
-1.128, -8.250e-3
-1.127, -8.312e-3
-1.126, -8.374e-3
-1.125, -8.435e-3
-1.124, -8.503e-3
-1.123, -8.574e-3
-1.122, -8.657e-3
-1.121, -8.737e-3
-1.120, -8.811e-3
-1.119, -8.882e-3
-1.118, -8.944e-3
-1.117, -8.996e-3
-1.116, -9.049e-3
-1.115, -9.095e-3
-1.114, -9.147e-3
-1.113, -9.212e-3
-1.112, -9.277e-3
-1.111, -9.348e-3
-1.110, -9.419e-3
-1.109, -9.487e-3
-1.108, -9.545e-3
-1.107, -9.604e-3
-1.106, -9.665e-3
-1.105, -9.724e-3
-1.104, -9.779e-3
-1.103, -9.841e-3
-1.102, -9.903e-3
-1.101, -9.964e-3
-1.100, -1.004e-2
-1.099, -1.011e-2
-1.098, -1.016e-2
-1.097, -1.023e-2
-1.096, -1.029e-2
-1.095, -1.035e-2
-1.094, -1.041e-2
-1.093, -1.048e-2
-1.092, -1.055e-2
-1.091, -1.062e-2
-1.090, -1.070e-2
-1.089, -1.077e-2
-1.088, -1.082e-2
-1.087, -1.088e-2
-1.086, -1.093e-2
-1.085, -1.097e-2
-1.084, -1.102e-2
-1.083, -1.108e-2
-1.082, -1.115e-2
-1.081, -1.123e-2
-1.080, -1.131e-2
-1.079, -1.139e-2
-1.078, -1.146e-2
-1.077, -1.152e-2
-1.076, -1.158e-2
-1.075, -1.164e-2
-1.074, -1.169e-2
-1.073, -1.176e-2
-1.072, -1.182e-2
-1.071, -1.190e-2
-1.070, -1.197e-2
-1.069, -1.203e-2
-1.068, -1.209e-2
-1.067, -1.215e-2
-1.066, -1.221e-2
-1.065, -1.226e-2
-1.064, -1.232e-2
-1.063, -1.238e-2
-1.062, -1.246e-2
-1.061, -1.253e-2
-1.060, -1.261e-2
-1.059, -1.267e-2
-1.058, -1.273e-2
-1.057, -1.278e-2
-1.056, -1.282e-2
-1.055, -1.286e-2
-1.054, -1.291e-2
-1.053, -1.296e-2
-1.052, -1.303e-2
-1.051, -1.309e-2
-1.050, -1.316e-2
-1.049, -1.323e-2
-1.048, -1.328e-2
-1.047, -1.333e-2
-1.046, -1.338e-2
-1.045, -1.343e-2
-1.044, -1.347e-2
-1.043, -1.353e-2
-1.042, -1.359e-2
-1.041, -1.366e-2
-1.040, -1.373e-2
-1.039, -1.379e-2
-1.038, -1.384e-2
-1.037, -1.390e-2
-1.036, -1.394e-2
-1.035, -1.398e-2
-1.034, -1.402e-2
-1.033, -1.407e-2
-1.032, -1.413e-2
-1.031, -1.420e-2
-1.030, -1.427e-2
-1.029, -1.434e-2
-1.028, -1.440e-2
-1.027, -1.444e-2
-1.026, -1.448e-2
-1.025, -1.452e-2
-1.024, -1.457e-2
-1.023, -1.463e-2
-1.022, -1.469e-2
-1.021, -1.476e-2
-1.020, -1.482e-2
-1.019, -1.488e-2
-1.018, -1.493e-2
-1.017, -1.498e-2
-1.016, -1.502e-2
-1.015, -1.506e-2
-1.014, -1.511e-2
-1.013, -1.516e-2
-1.012, -1.522e-2
-1.011, -1.529e-2
-1.010, -1.536e-2
-1.009, -1.542e-2
-1.008, -1.548e-2
-1.007, -1.553e-2
-1.006, -1.558e-2
-1.005, -1.562e-2
-1.004, -1.566e-2
-1.003, -1.571e-2
-1.002, -1.578e-2
-1.001, -1.584e-2
