Aug. 19, 2024   19:17:58
Cyclic Voltammetry
File: c:/users/guazh/data/20240813_batch_94_500/2024-08-15-exp134\exp134-2024-08-19t18_59_38-h2koh\exp134_cv_sr_200mvs_efin_-1700mv.bin
Data Source:  Experiment
Instrument Model:  CHI760E
Header: CV ran at 200 mVs
Note: 

Init E (V) = -1
High E (V) = -1
Low E (V) = -1.7
Final E (V) = -1
Init P/N = N
Scan Rate (V/s) = 0.2
Segment = 3
Sample Interval (V) = 0.001
Quiet Time (sec) = 2
Sensitivity (A/V) = 0.01
Comp R (ohm) = 1.4

Results:

Channel 1:
Segment 1:

Segment 2:

Segment 3:

Potential/V, Current/A

-1.000, 3.678e-6
-1.001, 6.549e-6
-1.002, 7.802e-6
-1.003, 7.989e-6
-1.004, 8.749e-6
-1.005, 9.124e-6
-1.006, 9.144e-6
-1.007, 9.716e-6
-1.008, 9.874e-6
-1.009, 9.775e-6
-1.010, 1.008e-5
-1.011, 1.025e-5
-1.012, 1.060e-5
-1.013, 1.046e-5
-1.014, 1.093e-5
-1.015, 1.101e-5
-1.016, 1.083e-5
-1.017, 1.123e-5
-1.018, 1.118e-5
-1.019, 1.137e-5
-1.020, 1.143e-5
-1.021, 1.173e-5
-1.022, 1.168e-5
-1.023, 1.174e-5
-1.024, 1.211e-5
-1.025, 1.208e-5
-1.026, 1.204e-5
-1.027, 1.224e-5
-1.028, 1.267e-5
-1.029, 1.227e-5
-1.030, 1.255e-5
-1.031, 1.274e-5
-1.032, 1.282e-5
-1.033, 1.273e-5
-1.034, 1.276e-5
-1.035, 1.311e-5
-1.036, 1.303e-5
-1.037, 1.332e-5
-1.038, 1.366e-5
-1.039, 1.316e-5
-1.040, 1.314e-5
-1.041, 1.329e-5
-1.042, 1.353e-5
-1.043, 1.360e-5
-1.044, 1.362e-5
-1.045, 1.384e-5
-1.046, 1.362e-5
-1.047, 1.385e-5
-1.048, 1.428e-5
-1.049, 1.408e-5
-1.050, 1.449e-5
-1.051, 1.422e-5
-1.052, 1.474e-5
-1.053, 1.441e-5
-1.054, 1.445e-5
-1.055, 1.485e-5
-1.056, 1.454e-5
-1.057, 1.498e-5
-1.058, 1.499e-5
-1.059, 1.459e-5
-1.060, 1.507e-5
-1.061, 1.489e-5
-1.062, 1.534e-5
-1.063, 1.540e-5
-1.064, 1.531e-5
-1.065, 1.564e-5
-1.066, 1.542e-5
-1.067, 1.568e-5
-1.068, 1.574e-5
-1.069, 1.565e-5
-1.070, 1.594e-5
-1.071, 1.617e-5
-1.072, 1.619e-5
-1.073, 1.606e-5
-1.074, 1.622e-5
-1.075, 1.635e-5
-1.076, 1.647e-5
-1.077, 1.654e-5
-1.078, 1.664e-5
-1.079, 1.664e-5
-1.080, 1.690e-5
-1.081, 1.706e-5
-1.082, 1.722e-5
-1.083, 1.716e-5
-1.084, 1.731e-5
-1.085, 1.696e-5
-1.086, 1.706e-5
-1.087, 1.754e-5
-1.088, 1.774e-5
-1.089, 1.743e-5
-1.090, 1.788e-5
-1.091, 1.782e-5
-1.092, 1.795e-5
-1.093, 1.794e-5
-1.094, 1.814e-5
-1.095, 1.822e-5
-1.096, 1.808e-5
-1.097, 1.825e-5
-1.098, 1.858e-5
-1.099, 1.854e-5
-1.100, 1.883e-5
-1.101, 1.901e-5
-1.102, 1.872e-5
-1.103, 1.917e-5
-1.104, 1.927e-5
-1.105, 1.925e-5
-1.106, 1.901e-5
-1.107, 1.946e-5
-1.108, 1.964e-5
-1.109, 1.932e-5
-1.110, 1.976e-5
-1.111, 1.989e-5
-1.112, 1.971e-5
-1.113, 1.980e-5
-1.114, 1.995e-5
-1.115, 2.009e-5
-1.116, 2.019e-5
-1.117, 2.037e-5
-1.118, 2.053e-5
-1.119, 2.033e-5
-1.120, 2.068e-5
-1.121, 2.064e-5
-1.122, 2.093e-5
-1.123, 2.070e-5
-1.124, 2.104e-5
-1.125, 2.121e-5
-1.126, 2.097e-5
-1.127, 2.140e-5
-1.128, 2.151e-5
-1.129, 2.132e-5
-1.130, 2.169e-5
-1.131, 2.161e-5
-1.132, 2.195e-5
-1.133, 2.193e-5
-1.134, 2.232e-5
-1.135, 2.244e-5
-1.136, 2.213e-5
-1.137, 2.206e-5
-1.138, 2.256e-5
-1.139, 2.240e-5
-1.140, 2.281e-5
-1.141, 2.294e-5
-1.142, 2.294e-5
-1.143, 2.285e-5
-1.144, 2.297e-5
-1.145, 2.324e-5
-1.146, 2.345e-5
-1.147, 2.343e-5
-1.148, 2.392e-5
-1.149, 2.314e-5
-1.150, 2.378e-5
-1.151, 2.382e-5
-1.152, 2.391e-5
-1.153, 2.433e-5
-1.154, 2.443e-5
-1.155, 2.430e-5
-1.156, 2.401e-5
-1.157, 2.449e-5
-1.158, 2.492e-5
-1.159, 2.448e-5
-1.160, 2.494e-5
-1.161, 2.494e-5
-1.162, 2.491e-5
-1.163, 2.473e-5
-1.164, 2.484e-5
-1.165, 2.537e-5
-1.166, 2.515e-5
-1.167, 2.542e-5
-1.168, 2.566e-5
-1.169, 2.522e-5
-1.170, 2.570e-5
-1.171, 2.544e-5
-1.172, 2.570e-5
-1.173, 2.577e-5
-1.174, 2.627e-5
-1.175, 2.616e-5
-1.176, 2.608e-5
-1.177, 2.635e-5
-1.178, 2.630e-5
-1.179, 2.621e-5
-1.180, 2.653e-5
-1.181, 2.665e-5
-1.182, 2.675e-5
-1.183, 2.662e-5
-1.184, 2.664e-5
-1.185, 2.672e-5
-1.186, 2.687e-5
-1.187, 2.709e-5
-1.188, 2.700e-5
-1.189, 2.697e-5
-1.190, 2.706e-5
-1.191, 2.722e-5
-1.192, 2.714e-5
-1.193, 2.718e-5
-1.194, 2.737e-5
-1.195, 2.744e-5
-1.196, 2.733e-5
-1.197, 2.754e-5
-1.198, 2.751e-5
-1.199, 2.742e-5
-1.200, 2.785e-5
-1.201, 2.778e-5
-1.202, 2.777e-5
-1.203, 2.771e-5
-1.204, 2.792e-5
-1.205, 2.767e-5
-1.206, 2.784e-5
-1.207, 2.799e-5
-1.208, 2.822e-5
-1.209, 2.787e-5
-1.210, 2.803e-5
-1.211, 2.799e-5
-1.212, 2.787e-5
-1.213, 2.786e-5
-1.214, 2.794e-5
-1.215, 2.819e-5
-1.216, 2.786e-5
-1.217, 2.807e-5
-1.218, 2.819e-5
-1.219, 2.787e-5
-1.220, 2.809e-5
-1.221, 2.802e-5
-1.222, 2.796e-5
-1.223, 2.794e-5
-1.224, 2.820e-5
-1.225, 2.814e-5
-1.226, 2.803e-5
-1.227, 2.838e-5
-1.228, 2.817e-5
-1.229, 2.823e-5
-1.230, 2.850e-5
-1.231, 2.815e-5
-1.232, 2.840e-5
-1.233, 2.789e-5
-1.234, 2.819e-5
-1.235, 2.832e-5
-1.236, 2.828e-5
-1.237, 2.839e-5
-1.238, 2.817e-5
-1.239, 2.781e-5
-1.240, 2.801e-5
-1.241, 2.824e-5
-1.242, 2.814e-5
-1.243, 2.815e-5
-1.244, 2.800e-5
-1.245, 2.822e-5
-1.246, 2.791e-5
-1.247, 2.799e-5
-1.248, 2.829e-5
-1.249, 2.767e-5
-1.250, 2.806e-5
-1.251, 2.828e-5
-1.252, 2.819e-5
-1.253, 2.809e-5
-1.254, 2.799e-5
-1.255, 2.829e-5
-1.256, 2.788e-5
-1.257, 2.807e-5
-1.258, 2.852e-5
-1.259, 2.786e-5
-1.260, 2.826e-5
-1.261, 2.820e-5
-1.262, 2.817e-5
-1.263, 2.816e-5
-1.264, 2.787e-5
-1.265, 2.830e-5
-1.266, 2.834e-5
-1.267, 2.829e-5
-1.268, 2.834e-5
-1.269, 2.809e-5
-1.270, 2.815e-5
-1.271, 2.813e-5
-1.272, 2.798e-5
-1.273, 2.849e-5
-1.274, 2.826e-5
-1.275, 2.864e-5
-1.276, 2.815e-5
-1.277, 2.850e-5
-1.278, 2.857e-5
-1.279, 2.834e-5
-1.280, 2.877e-5
-1.281, 2.874e-5
-1.282, 2.876e-5
-1.283, 2.872e-5
-1.284, 2.882e-5
-1.285, 2.894e-5
-1.286, 2.879e-5
-1.287, 2.890e-5
-1.288, 2.904e-5
-1.289, 2.912e-5
-1.290, 2.908e-5
-1.291, 2.916e-5
-1.292, 2.931e-5
-1.293, 2.947e-5
-1.294, 2.919e-5
-1.295, 2.983e-5
-1.296, 2.967e-5
-1.297, 2.972e-5
-1.298, 2.986e-5
-1.299, 2.993e-5
-1.300, 3.026e-5
-1.301, 3.029e-5
-1.302, 3.040e-5
-1.303, 3.052e-5
-1.304, 3.049e-5
-1.305, 3.069e-5
-1.306, 3.088e-5
-1.307, 3.082e-5
-1.308, 3.119e-5
-1.309, 3.119e-5
-1.310, 3.154e-5
-1.311, 3.161e-5
-1.312, 3.156e-5
-1.313, 3.191e-5
-1.314, 3.200e-5
-1.315, 3.223e-5
-1.316, 3.198e-5
-1.317, 3.250e-5
-1.318, 3.278e-5
-1.319, 3.260e-5
-1.320, 3.282e-5
-1.321, 3.290e-5
-1.322, 3.337e-5
-1.323, 3.371e-5
-1.324, 3.378e-5
-1.325, 3.413e-5
-1.326, 3.440e-5
-1.327, 3.465e-5
-1.328, 3.495e-5
-1.329, 3.481e-5
-1.330, 3.534e-5
-1.331, 3.568e-5
-1.332, 3.584e-5
-1.333, 3.630e-5
-1.334, 3.648e-5
-1.335, 3.657e-5
-1.336, 3.689e-5
-1.337, 3.708e-5
-1.338, 3.764e-5
-1.339, 3.753e-5
-1.340, 3.823e-5
-1.341, 3.833e-5
-1.342, 3.866e-5
-1.343, 3.922e-5
-1.344, 3.930e-5
-1.345, 4.003e-5
-1.346, 4.011e-5
-1.347, 4.043e-5
-1.348, 4.099e-5
-1.349, 4.124e-5
-1.350, 4.166e-5
-1.351, 4.221e-5
-1.352, 4.247e-5
-1.353, 4.307e-5
-1.354, 4.347e-5
-1.355, 4.417e-5
-1.356, 4.422e-5
-1.357, 4.482e-5
-1.358, 4.561e-5
-1.359, 4.580e-5
-1.360, 4.663e-5
-1.361, 4.723e-5
-1.362, 4.762e-5
-1.363, 4.828e-5
-1.364, 4.891e-5
-1.365, 4.951e-5
-1.366, 5.023e-5
-1.367, 5.094e-5
-1.368, 5.143e-5
-1.369, 5.174e-5
-1.370, 5.266e-5
-1.371, 5.343e-5
-1.372, 5.408e-5
-1.373, 5.471e-5
-1.374, 5.567e-5
-1.375, 5.673e-5
-1.376, 5.687e-5
-1.377, 5.796e-5
-1.378, 5.888e-5
-1.379, 5.947e-5
-1.380, 6.050e-5
-1.381, 6.139e-5
-1.382, 6.245e-5
-1.383, 6.364e-5
-1.384, 6.415e-5
-1.385, 6.552e-5
-1.386, 6.613e-5
-1.387, 6.718e-5
-1.388, 6.857e-5
-1.389, 6.942e-5
-1.390, 7.097e-5
-1.391, 7.194e-5
-1.392, 7.301e-5
-1.393, 7.425e-5
-1.394, 7.555e-5
-1.395, 7.680e-5
-1.396, 7.819e-5
-1.397, 7.962e-5
-1.398, 8.103e-5
-1.399, 8.217e-5
-1.400, 8.377e-5
-1.401, 8.520e-5
-1.402, 8.677e-5
-1.403, 8.837e-5
-1.404, 9.019e-5
-1.405, 9.201e-5
-1.406, 9.322e-5
-1.407, 9.490e-5
-1.408, 9.705e-5
-1.409, 9.864e-5
-1.410, 1.007e-4
-1.411, 1.032e-4
-1.412, 1.043e-4
-1.413, 1.063e-4
-1.414, 1.089e-4
-1.415, 1.113e-4
-1.416, 1.132e-4
-1.417, 1.154e-4
-1.418, 1.182e-4
-1.419, 1.205e-4
-1.420, 1.232e-4
-1.421, 1.258e-4
-1.422, 1.287e-4
-1.423, 1.315e-4
-1.424, 1.344e-4
-1.425, 1.378e-4
-1.426, 1.408e-4
-1.427, 1.444e-4
-1.428, 1.478e-4
-1.429, 1.509e-4
-1.430, 1.545e-4
-1.431, 1.582e-4
-1.432, 1.616e-4
-1.433, 1.653e-4
-1.434, 1.692e-4
-1.435, 1.733e-4
-1.436, 1.771e-4
-1.437, 1.812e-4
-1.438, 1.856e-4
-1.439, 1.894e-4
-1.440, 1.943e-4
-1.441, 1.986e-4
-1.442, 2.035e-4
-1.443, 2.084e-4
-1.444, 2.132e-4
-1.445, 2.185e-4
-1.446, 2.235e-4
-1.447, 2.289e-4
-1.448, 2.346e-4
-1.449, 2.396e-4
-1.450, 2.451e-4
-1.451, 2.502e-4
-1.452, 2.570e-4
-1.453, 2.618e-4
-1.454, 2.677e-4
-1.455, 2.740e-4
-1.456, 2.791e-4
-1.457, 2.855e-4
-1.458, 2.913e-4
-1.459, 2.970e-4
-1.460, 3.012e-4
-1.461, 3.075e-4
-1.462, 3.135e-4
-1.463, 3.195e-4
-1.464, 3.259e-4
-1.465, 3.319e-4
-1.466, 3.385e-4
-1.467, 3.455e-4
-1.468, 3.515e-4
-1.469, 3.571e-4
-1.470, 3.639e-4
-1.471, 3.707e-4
-1.472, 3.773e-4
-1.473, 3.850e-4
-1.474, 3.923e-4
-1.475, 3.986e-4
-1.476, 4.048e-4
-1.477, 4.125e-4
-1.478, 4.204e-4
-1.479, 4.270e-4
-1.480, 4.352e-4
-1.481, 4.423e-4
-1.482, 4.487e-4
-1.483, 4.567e-4
-1.484, 4.642e-4
-1.485, 4.726e-4
-1.486, 4.814e-4
-1.487, 4.893e-4
-1.488, 4.980e-4
-1.489, 5.065e-4
-1.490, 5.148e-4
-1.491, 5.236e-4
-1.492, 5.322e-4
-1.493, 5.418e-4
-1.494, 5.527e-4
-1.495, 5.624e-4
-1.496, 5.714e-4
-1.497, 5.806e-4
-1.498, 5.914e-4
-1.499, 6.000e-4
-1.500, 6.085e-4
-1.501, 6.180e-4
-1.502, 6.265e-4
-1.503, 6.336e-4
-1.504, 6.431e-4
-1.505, 6.511e-4
-1.506, 6.582e-4
-1.507, 6.681e-4
-1.508, 6.770e-4
-1.509, 6.857e-4
-1.510, 6.972e-4
-1.511, 7.081e-4
-1.512, 7.181e-4
-1.513, 7.288e-4
-1.514, 7.396e-4
-1.515, 7.498e-4
-1.516, 7.607e-4
-1.517, 7.728e-4
-1.518, 7.832e-4
-1.519, 7.931e-4
-1.520, 8.038e-4
-1.521, 8.148e-4
-1.522, 8.278e-4
-1.523, 8.399e-4
-1.524, 8.512e-4
-1.525, 8.615e-4
-1.526, 8.735e-4
-1.527, 8.830e-4
-1.528, 8.947e-4
-1.529, 9.080e-4
-1.530, 9.188e-4
-1.531, 9.290e-4
-1.532, 9.390e-4
-1.533, 9.494e-4
-1.534, 9.591e-4
-1.535, 9.741e-4
-1.536, 9.862e-4
-1.537, 9.961e-4
-1.538, 1.006e-3
-1.539, 1.017e-3
-1.540, 1.028e-3
-1.541, 1.040e-3
-1.542, 1.051e-3
-1.543, 1.069e-3
-1.544, 1.081e-3
-1.545, 1.092e-3
-1.546, 1.102e-3
-1.547, 1.115e-3
-1.548, 1.129e-3
-1.549, 1.140e-3
-1.550, 1.153e-3
-1.551, 1.176e-3
-1.552, 1.186e-3
-1.553, 1.196e-3
-1.554, 1.208e-3
-1.555, 1.223e-3
-1.556, 1.234e-3
-1.557, 1.246e-3
-1.558, 1.258e-3
-1.559, 1.276e-3
-1.560, 1.290e-3
-1.561, 1.303e-3
-1.562, 1.316e-3
-1.563, 1.329e-3
-1.564, 1.342e-3
-1.565, 1.357e-3
-1.566, 1.370e-3
-1.567, 1.386e-3
-1.568, 1.412e-3
-1.569, 1.425e-3
-1.570, 1.434e-3
-1.571, 1.448e-3
-1.572, 1.461e-3
-1.573, 1.470e-3
-1.574, 1.487e-3
-1.575, 1.501e-3
-1.576, 1.510e-3
-1.577, 1.539e-3
-1.578, 1.561e-3
-1.579, 1.574e-3
-1.580, 1.590e-3
-1.581, 1.602e-3
-1.582, 1.616e-3
-1.583, 1.629e-3
-1.584, 1.644e-3
-1.585, 1.661e-3
-1.586, 1.673e-3
-1.587, 1.703e-3
-1.588, 1.722e-3
-1.589, 1.734e-3
-1.590, 1.747e-3
-1.591, 1.755e-3
-1.592, 1.770e-3
-1.593, 1.790e-3
-1.594, 1.811e-3
-1.595, 1.829e-3
-1.596, 1.846e-3
-1.597, 1.862e-3
-1.598, 1.881e-3
-1.599, 1.895e-3
-1.600, 1.909e-3
-1.601, 1.928e-3
-1.602, 1.941e-3
-1.603, 1.959e-3
-1.604, 1.980e-3
-1.605, 1.996e-3
-1.606, 2.018e-3
-1.607, 2.036e-3
-1.608, 2.053e-3
-1.609, 2.077e-3
-1.610, 2.092e-3
-1.611, 2.115e-3
-1.612, 2.137e-3
-1.613, 2.159e-3
-1.614, 2.182e-3
-1.615, 2.207e-3
-1.616, 2.222e-3
-1.617, 2.240e-3
-1.618, 2.258e-3
-1.619, 2.284e-3
-1.620, 2.316e-3
-1.621, 2.339e-3
-1.622, 2.357e-3
-1.623, 2.373e-3
-1.624, 2.388e-3
-1.625, 2.406e-3
-1.626, 2.429e-3
-1.627, 2.453e-3
-1.628, 2.474e-3
-1.629, 2.494e-3
-1.630, 2.514e-3
-1.631, 2.535e-3
-1.632, 2.558e-3
-1.633, 2.592e-3
-1.634, 2.618e-3
-1.635, 2.632e-3
-1.636, 2.647e-3
-1.637, 2.687e-3
-1.638, 2.707e-3
-1.639, 2.722e-3
-1.640, 2.752e-3
-1.641, 2.773e-3
-1.642, 2.800e-3
-1.643, 2.826e-3
-1.644, 2.855e-3
-1.645, 2.881e-3
-1.646, 2.899e-3
-1.647, 2.915e-3
-1.648, 2.941e-3
-1.649, 2.976e-3
-1.650, 3.001e-3
-1.651, 3.027e-3
-1.652, 3.039e-3
-1.653, 3.064e-3
-1.654, 3.078e-3
-1.655, 3.101e-3
-1.656, 3.126e-3
-1.657, 3.159e-3
-1.658, 3.195e-3
-1.659, 3.241e-3
-1.660, 3.279e-3
-1.661, 3.332e-3
-1.662, 3.350e-3
-1.663, 3.371e-3
-1.664, 3.412e-3
-1.665, 3.441e-3
-1.666, 3.455e-3
-1.667, 3.477e-3
-1.668, 3.499e-3
-1.669, 3.544e-3
-1.670, 3.590e-3
-1.671, 3.619e-3
-1.672, 3.645e-3
-1.673, 3.669e-3
-1.674, 3.690e-3
-1.675, 3.726e-3
-1.676, 3.759e-3
-1.677, 3.798e-3
-1.678, 3.837e-3
-1.679, 3.869e-3
-1.680, 3.901e-3
-1.681, 3.931e-3
-1.682, 3.956e-3
-1.683, 3.981e-3
-1.684, 4.002e-3
-1.685, 4.039e-3
-1.686, 4.088e-3
-1.687, 4.105e-3
-1.688, 4.106e-3
-1.689, 4.134e-3
-1.690, 4.177e-3
-1.691, 4.208e-3
-1.692, 4.227e-3
-1.693, 4.274e-3
-1.694, 4.328e-3
-1.695, 4.365e-3
-1.696, 4.390e-3
-1.697, 4.427e-3
-1.698, 4.453e-3
-1.699, 4.496e-3
-1.700, 4.530e-3
-1.699, 4.521e-3
-1.698, 4.498e-3
-1.697, 4.481e-3
-1.696, 4.453e-3
-1.695, 4.436e-3
-1.694, 4.459e-3
-1.693, 4.430e-3
-1.692, 4.395e-3
-1.691, 4.353e-3
-1.690, 4.307e-3
-1.689, 4.265e-3
-1.688, 4.262e-3
-1.687, 4.254e-3
-1.686, 4.197e-3
-1.685, 4.149e-3
-1.684, 4.111e-3
-1.683, 4.071e-3
-1.682, 4.033e-3
-1.681, 4.006e-3
-1.680, 3.982e-3
-1.679, 3.954e-3
-1.678, 3.930e-3
-1.677, 3.892e-3
-1.676, 3.847e-3
-1.675, 3.837e-3
-1.674, 3.807e-3
-1.673, 3.778e-3
-1.672, 3.730e-3
-1.671, 3.699e-3
-1.670, 3.670e-3
-1.669, 3.633e-3
-1.668, 3.608e-3
-1.667, 3.599e-3
-1.666, 3.569e-3
-1.665, 3.541e-3
-1.664, 3.510e-3
-1.663, 3.469e-3
-1.662, 3.427e-3
-1.661, 3.395e-3
-1.660, 3.376e-3
-1.659, 3.376e-3
-1.658, 3.332e-3
-1.657, 3.286e-3
-1.656, 3.247e-3
-1.655, 3.206e-3
-1.654, 3.189e-3
-1.653, 3.185e-3
-1.652, 3.170e-3
-1.651, 3.134e-3
-1.650, 3.088e-3
-1.649, 3.059e-3
-1.648, 3.029e-3
-1.647, 3.002e-3
-1.646, 2.972e-3
-1.645, 2.940e-3
-1.644, 2.908e-3
-1.643, 2.879e-3
-1.642, 2.855e-3
-1.641, 2.836e-3
-1.640, 2.811e-3
-1.639, 2.782e-3
-1.638, 2.747e-3
-1.637, 2.718e-3
-1.636, 2.703e-3
-1.635, 2.658e-3
-1.634, 2.647e-3
-1.633, 2.642e-3
-1.632, 2.612e-3
-1.631, 2.575e-3
-1.630, 2.537e-3
-1.629, 2.502e-3
-1.628, 2.474e-3
-1.627, 2.450e-3
-1.626, 2.453e-3
-1.625, 2.437e-3
-1.624, 2.407e-3
-1.623, 2.374e-3
-1.622, 2.347e-3
-1.621, 2.318e-3
-1.620, 2.292e-3
-1.619, 2.266e-3
-1.618, 2.242e-3
-1.617, 2.223e-3
-1.616, 2.201e-3
-1.615, 2.177e-3
-1.614, 2.153e-3
-1.613, 2.130e-3
-1.612, 2.117e-3
-1.611, 2.090e-3
-1.610, 2.059e-3
-1.609, 2.043e-3
-1.608, 2.022e-3
-1.607, 1.997e-3
-1.606, 1.969e-3
-1.605, 1.941e-3
-1.604, 1.918e-3
-1.603, 1.899e-3
-1.602, 1.878e-3
-1.601, 1.847e-3
-1.600, 1.817e-3
-1.599, 1.792e-3
-1.598, 1.777e-3
-1.597, 1.753e-3
-1.596, 1.727e-3
-1.595, 1.707e-3
-1.594, 1.684e-3
-1.593, 1.660e-3
-1.592, 1.637e-3
-1.591, 1.619e-3
-1.590, 1.600e-3
-1.589, 1.579e-3
-1.588, 1.556e-3
-1.587, 1.534e-3
-1.586, 1.509e-3
-1.585, 1.495e-3
-1.584, 1.481e-3
-1.583, 1.460e-3
-1.582, 1.440e-3
-1.581, 1.422e-3
-1.580, 1.402e-3
-1.579, 1.380e-3
-1.578, 1.361e-3
-1.577, 1.349e-3
-1.576, 1.334e-3
-1.575, 1.312e-3
-1.574, 1.293e-3
-1.573, 1.274e-3
-1.572, 1.254e-3
-1.571, 1.239e-3
-1.570, 1.226e-3
-1.569, 1.218e-3
-1.568, 1.196e-3
-1.567, 1.174e-3
-1.566, 1.155e-3
-1.565, 1.134e-3
-1.564, 1.118e-3
-1.563, 1.104e-3
-1.562, 1.087e-3
-1.561, 1.067e-3
-1.560, 1.046e-3
-1.559, 1.027e-3
-1.558, 1.011e-3
-1.557, 9.978e-4
-1.556, 9.851e-4
-1.555, 9.696e-4
-1.554, 9.547e-4
-1.553, 9.385e-4
-1.552, 9.218e-4
-1.551, 9.075e-4
-1.550, 8.959e-4
-1.549, 8.832e-4
-1.548, 8.678e-4
-1.547, 8.535e-4
-1.546, 8.384e-4
-1.545, 8.241e-4
-1.544, 8.099e-4
-1.543, 7.978e-4
-1.542, 7.834e-4
-1.541, 7.683e-4
-1.540, 7.550e-4
-1.539, 7.416e-4
-1.538, 7.293e-4
-1.537, 7.199e-4
-1.536, 7.059e-4
-1.535, 6.924e-4
-1.534, 6.786e-4
-1.533, 6.686e-4
-1.532, 6.557e-4
-1.531, 6.442e-4
-1.530, 6.349e-4
-1.529, 6.229e-4
-1.528, 6.100e-4
-1.527, 5.986e-4
-1.526, 5.870e-4
-1.525, 5.757e-4
-1.524, 5.646e-4
-1.523, 5.548e-4
-1.522, 5.485e-4
-1.521, 5.370e-4
-1.520, 5.250e-4
-1.519, 5.142e-4
-1.518, 5.040e-4
-1.517, 4.949e-4
-1.516, 4.856e-4
-1.515, 4.763e-4
-1.514, 4.676e-4
-1.513, 4.586e-4
-1.512, 4.501e-4
-1.511, 4.411e-4
-1.510, 4.317e-4
-1.509, 4.238e-4
-1.508, 4.160e-4
-1.507, 4.070e-4
-1.506, 4.001e-4
-1.505, 3.916e-4
-1.504, 3.828e-4
-1.503, 3.749e-4
-1.502, 3.688e-4
-1.501, 3.611e-4
-1.500, 3.532e-4
-1.499, 3.468e-4
-1.498, 3.384e-4
-1.497, 3.310e-4
-1.496, 3.239e-4
-1.495, 3.166e-4
-1.494, 3.107e-4
-1.493, 3.029e-4
-1.492, 2.969e-4
-1.491, 2.900e-4
-1.490, 2.832e-4
-1.489, 2.767e-4
-1.488, 2.702e-4
-1.487, 2.649e-4
-1.486, 2.592e-4
-1.485, 2.537e-4
-1.484, 2.493e-4
-1.483, 2.431e-4
-1.482, 2.401e-4
-1.481, 2.330e-4
-1.480, 2.278e-4
-1.479, 2.230e-4
-1.478, 2.179e-4
-1.477, 2.134e-4
-1.476, 2.088e-4
-1.475, 2.046e-4
-1.474, 1.994e-4
-1.473, 1.956e-4
-1.472, 1.915e-4
-1.471, 1.867e-4
-1.470, 1.829e-4
-1.469, 1.787e-4
-1.468, 1.742e-4
-1.467, 1.703e-4
-1.466, 1.667e-4
-1.465, 1.657e-4
-1.464, 1.603e-4
-1.463, 1.551e-4
-1.462, 1.519e-4
-1.461, 1.480e-4
-1.460, 1.447e-4
-1.459, 1.420e-4
-1.458, 1.382e-4
-1.457, 1.357e-4
-1.456, 1.331e-4
-1.455, 1.294e-4
-1.454, 1.261e-4
-1.453, 1.231e-4
-1.452, 1.218e-4
-1.451, 1.188e-4
-1.450, 1.153e-4
-1.449, 1.124e-4
-1.448, 1.093e-4
-1.447, 1.070e-4
-1.446, 1.046e-4
-1.445, 1.025e-4
-1.444, 1.003e-4
-1.443, 9.788e-5
-1.442, 9.570e-5
-1.441, 9.356e-5
-1.440, 9.123e-5
-1.439, 8.922e-5
-1.438, 8.683e-5
-1.437, 8.572e-5
-1.436, 8.343e-5
-1.435, 8.136e-5
-1.434, 7.917e-5
-1.433, 7.729e-5
-1.432, 7.571e-5
-1.431, 7.404e-5
-1.430, 7.254e-5
-1.429, 7.094e-5
-1.428, 6.872e-5
-1.427, 6.750e-5
-1.426, 6.613e-5
-1.425, 6.411e-5
-1.424, 6.272e-5
-1.423, 6.164e-5
-1.422, 5.984e-5
-1.421, 5.818e-5
-1.420, 5.701e-5
-1.419, 5.595e-5
-1.418, 5.427e-5
-1.417, 5.341e-5
-1.416, 5.215e-5
-1.415, 5.066e-5
-1.414, 4.970e-5
-1.413, 4.851e-5
-1.412, 4.768e-5
-1.411, 4.576e-5
-1.410, 4.510e-5
-1.409, 4.426e-5
-1.408, 4.277e-5
-1.407, 4.209e-5
-1.406, 4.063e-5
-1.405, 3.989e-5
-1.404, 3.835e-5
-1.403, 3.776e-5
-1.402, 3.690e-5
-1.401, 3.604e-5
-1.400, 3.532e-5
-1.399, 3.435e-5
-1.398, 3.314e-5
-1.397, 3.285e-5
-1.396, 3.182e-5
-1.395, 3.103e-5
-1.394, 3.024e-5
-1.393, 2.924e-5
-1.392, 2.869e-5
-1.391, 2.782e-5
-1.390, 2.716e-5
-1.389, 2.661e-5
-1.388, 2.572e-5
-1.387, 2.489e-5
-1.386, 2.450e-5
-1.385, 2.369e-5
-1.384, 2.310e-5
-1.383, 2.217e-5
-1.382, 2.199e-5
-1.381, 2.105e-5
-1.380, 2.049e-5
-1.379, 2.021e-5
-1.378, 1.916e-5
-1.377, 1.926e-5
-1.376, 1.839e-5
-1.375, 1.796e-5
-1.374, 1.728e-5
-1.373, 1.692e-5
-1.372, 1.650e-5
-1.371, 1.590e-5
-1.370, 1.560e-5
-1.369, 1.529e-5
-1.368, 1.437e-5
-1.367, 1.424e-5
-1.366, 1.341e-5
-1.365, 1.313e-5
-1.364, 1.277e-5
-1.363, 1.227e-5
-1.362, 1.199e-5
-1.361, 1.121e-5
-1.360, 1.131e-5
-1.359, 1.098e-5
-1.358, 9.923e-6
-1.357, 1.000e-5
-1.356, 9.499e-6
-1.355, 9.242e-6
-1.354, 8.907e-6
-1.353, 8.473e-6
-1.352, 8.424e-6
-1.351, 8.128e-6
-1.350, 7.624e-6
-1.349, 7.309e-6
-1.348, 6.914e-6
-1.347, 6.766e-6
-1.346, 6.342e-6
-1.345, 6.006e-6
-1.344, 5.858e-6
-1.343, 5.414e-6
-1.342, 5.533e-6
-1.341, 4.921e-6
-1.340, 4.704e-6
-1.339, 4.901e-6
-1.338, 4.329e-6
-1.337, 3.935e-6
-1.336, 3.727e-6
-1.335, 3.589e-6
-1.334, 3.145e-6
-1.333, 3.017e-6
-1.332, 3.056e-6
-1.331, 2.613e-6
-1.330, 2.356e-6
-1.329, 2.474e-6
-1.328, 1.892e-6
-1.327, 1.744e-6
-1.326, 1.557e-6
-1.325, 1.488e-6
-1.324, 1.330e-6
-1.323, 8.564e-7
-1.322, 7.972e-7
-1.321, 4.617e-7
-1.320, 5.209e-7
-1.319, 4.321e-7
-1.318, -1.500e-7
-1.317, 1.362e-7
-1.316, -1.697e-7
-1.315, -4.854e-7
-1.314, -3.078e-7
-1.313, -6.433e-7
-1.312, -7.419e-7
-1.311, -1.038e-6
-1.310, -1.018e-6
-1.309, -1.008e-6
-1.308, -1.610e-6
-1.307, -1.502e-6
-1.306, -1.837e-6
-1.305, -1.600e-6
-1.304, -2.084e-6
-1.303, -2.103e-6
-1.302, -2.054e-6
-1.301, -2.350e-6
-1.300, -2.439e-6
-1.299, -2.459e-6
-1.298, -2.755e-6
-1.297, -2.912e-6
-1.296, -3.080e-6
-1.295, -3.159e-6
-1.294, -3.218e-6
-1.293, -3.238e-6
-1.292, -3.139e-6
-1.291, -3.652e-6
-1.290, -3.455e-6
-1.289, -3.741e-6
-1.288, -3.948e-6
-1.287, -3.938e-6
-1.286, -4.165e-6
-1.285, -4.165e-6
-1.284, -4.294e-6
-1.283, -4.550e-6
-1.282, -4.274e-6
-1.281, -4.728e-6
-1.280, -4.570e-6
-1.279, -4.491e-6
-1.278, -4.955e-6
-1.277, -4.787e-6
-1.276, -4.955e-6
-1.275, -5.241e-6
-1.274, -5.093e-6
-1.273, -5.241e-6
-1.272, -5.261e-6
-1.271, -5.280e-6
-1.270, -5.418e-6
-1.269, -5.399e-6
-1.268, -5.803e-6
-1.267, -5.764e-6
-1.266, -5.734e-6
-1.265, -5.941e-6
-1.264, -5.764e-6
-1.263, -5.981e-6
-1.262, -5.951e-6
-1.261, -6.129e-6
-1.260, -6.040e-6
-1.259, -6.208e-6
-1.258, -6.553e-6
-1.257, -6.208e-6
-1.256, -6.395e-6
-1.255, -6.543e-6
-1.254, -6.721e-6
-1.253, -6.701e-6
-1.252, -6.701e-6
-1.251, -6.938e-6
-1.250, -6.770e-6
-1.249, -6.839e-6
-1.248, -7.175e-6
-1.247, -6.800e-6
-1.246, -6.928e-6
-1.245, -7.066e-6
-1.244, -7.204e-6
-1.243, -7.175e-6
-1.242, -7.263e-6
-1.241, -7.431e-6
-1.240, -7.372e-6
-1.239, -7.441e-6
-1.238, -7.609e-6
-1.237, -7.490e-6
-1.236, -7.628e-6
-1.235, -7.737e-6
-1.234, -7.737e-6
-1.233, -8.023e-6
-1.232, -7.599e-6
-1.231, -7.766e-6
-1.230, -7.766e-6
-1.229, -8.132e-6
-1.228, -8.349e-6
-1.227, -8.062e-6
-1.226, -8.191e-6
-1.225, -8.349e-6
-1.224, -8.210e-6
-1.223, -8.289e-6
-1.222, -8.398e-6
-1.221, -8.536e-6
-1.220, -8.299e-6
-1.219, -8.467e-6
-1.218, -8.526e-6
-1.217, -8.546e-6
-1.216, -8.664e-6
-1.215, -8.694e-6
-1.214, -8.862e-6
-1.213, -8.714e-6
-1.212, -8.773e-6
-1.211, -8.881e-6
-1.210, -8.881e-6
-1.209, -8.931e-6
-1.208, -9.306e-6
-1.207, -9.167e-6
-1.206, -8.931e-6
-1.205, -9.266e-6
-1.204, -9.108e-6
-1.203, -9.562e-6
-1.202, -9.266e-6
-1.201, -9.355e-6
-1.200, -9.473e-6
-1.199, -9.384e-6
-1.198, -9.888e-6
-1.197, -9.493e-6
-1.196, -9.661e-6
-1.195, -9.740e-6
-1.194, -9.828e-6
-1.193, -9.779e-6
-1.192, -9.641e-6
-1.191, -1.005e-5
-1.190, -1.011e-5
-1.189, -9.828e-6
-1.188, -1.031e-5
-1.187, -9.957e-6
-1.186, -1.025e-5
-1.185, -1.025e-5
-1.184, -1.045e-5
-1.183, -1.057e-5
-1.182, -1.033e-5
-1.181, -1.029e-5
-1.180, -1.046e-5
-1.179, -1.069e-5
-1.178, -1.077e-5
-1.177, -1.090e-5
-1.176, -1.070e-5
-1.175, -1.075e-5
-1.174, -1.098e-5
-1.173, -1.082e-5
-1.172, -1.098e-5
-1.171, -1.117e-5
-1.170, -1.125e-5
-1.169, -1.111e-5
-1.168, -1.133e-5
-1.167, -1.142e-5
-1.166, -1.128e-5
-1.165, -1.146e-5
-1.164, -1.170e-5
-1.163, -1.186e-5
-1.162, -1.170e-5
-1.161, -1.178e-5
-1.160, -1.164e-5
-1.159, -1.160e-5
-1.158, -1.215e-5
-1.157, -1.184e-5
-1.156, -1.209e-5
-1.155, -1.232e-5
-1.154, -1.223e-5
-1.153, -1.247e-5
-1.152, -1.220e-5
-1.151, -1.260e-5
-1.150, -1.264e-5
-1.149, -1.253e-5
-1.148, -1.299e-5
-1.147, -1.257e-5
-1.146, -1.247e-5
-1.145, -1.292e-5
-1.144, -1.277e-5
-1.143, -1.306e-5
-1.142, -1.319e-5
-1.141, -1.306e-5
-1.140, -1.329e-5
-1.139, -1.327e-5
-1.138, -1.380e-5
-1.137, -1.338e-5
-1.136, -1.351e-5
-1.135, -1.369e-5
-1.134, -1.367e-5
-1.133, -1.383e-5
-1.132, -1.382e-5
-1.131, -1.402e-5
-1.130, -1.414e-5
-1.129, -1.433e-5
-1.128, -1.448e-5
-1.127, -1.455e-5
-1.126, -1.459e-5
-1.125, -1.470e-5
-1.124, -1.504e-5
-1.123, -1.494e-5
-1.122, -1.511e-5
-1.121, -1.511e-5
-1.120, -1.524e-5
-1.119, -1.527e-5
-1.118, -1.565e-5
-1.117, -1.552e-5
-1.116, -1.566e-5
-1.115, -1.584e-5
-1.114, -1.599e-5
-1.113, -1.596e-5
-1.112, -1.594e-5
-1.111, -1.599e-5
-1.110, -1.629e-5
-1.109, -1.614e-5
-1.108, -1.666e-5
-1.107, -1.634e-5
-1.106, -1.668e-5
-1.105, -1.680e-5
-1.104, -1.690e-5
-1.103, -1.695e-5
-1.102, -1.692e-5
-1.101, -1.735e-5
-1.100, -1.728e-5
-1.099, -1.730e-5
-1.098, -1.776e-5
-1.097, -1.788e-5
-1.096, -1.766e-5
-1.095, -1.810e-5
-1.094, -1.825e-5
-1.093, -1.830e-5
-1.092, -1.822e-5
-1.091, -1.862e-5
-1.090, -1.895e-5
-1.089, -1.895e-5
-1.088, -1.915e-5
-1.087, -1.926e-5
-1.086, -1.925e-5
-1.085, -1.965e-5
-1.084, -1.959e-5
-1.083, -2.000e-5
-1.082, -1.982e-5
-1.081, -2.026e-5
-1.080, -2.015e-5
-1.079, -2.022e-5
-1.078, -2.075e-5
-1.077, -2.050e-5
-1.076, -2.085e-5
-1.075, -2.120e-5
-1.074, -2.129e-5
-1.073, -2.146e-5
-1.072, -2.135e-5
-1.071, -2.173e-5
-1.070, -2.171e-5
-1.069, -2.187e-5
-1.068, -2.223e-5
-1.067, -2.235e-5
-1.066, -2.237e-5
-1.065, -2.263e-5
-1.064, -2.263e-5
-1.063, -2.319e-5
-1.062, -2.305e-5
-1.061, -2.349e-5
-1.060, -2.362e-5
-1.059, -2.375e-5
-1.058, -2.396e-5
-1.057, -2.399e-5
-1.056, -2.420e-5
-1.055, -2.424e-5
-1.054, -2.479e-5
-1.053, -2.509e-5
-1.052, -2.483e-5
-1.051, -2.510e-5
-1.050, -2.539e-5
-1.049, -2.554e-5
-1.048, -2.607e-5
-1.047, -2.629e-5
-1.046, -2.629e-5
-1.045, -2.657e-5
-1.044, -2.692e-5
-1.043, -2.708e-5
-1.042, -2.741e-5
-1.041, -2.791e-5
-1.040, -2.805e-5
-1.039, -2.774e-5
-1.038, -2.844e-5
-1.037, -2.833e-5
-1.036, -2.876e-5
-1.035, -2.915e-5
-1.034, -2.896e-5
-1.033, -2.935e-5
-1.032, -2.929e-5
-1.031, -2.979e-5
-1.030, -2.993e-5
-1.029, -2.989e-5
-1.028, -3.062e-5
-1.027, -3.073e-5
-1.026, -3.075e-5
-1.025, -3.099e-5
-1.024, -3.143e-5
-1.023, -3.145e-5
-1.022, -3.180e-5
-1.021, -3.209e-5
-1.020, -3.252e-5
-1.019, -3.248e-5
-1.018, -3.288e-5
-1.017, -3.279e-5
-1.016, -3.311e-5
-1.015, -3.336e-5
-1.014, -3.382e-5
-1.013, -3.427e-5
-1.012, -3.424e-5
-1.011, -3.465e-5
-1.010, -3.480e-5
-1.009, -3.502e-5
-1.008, -3.526e-5
-1.007, -3.547e-5
-1.006, -3.584e-5
-1.005, -3.630e-5
-1.004, -3.655e-5
-1.003, -3.670e-5
-1.002, -3.659e-5
-1.001, -3.731e-5
