Sept. 14, 2024   19:51:36
Cyclic Voltammetry
File: c:/users/guazh/data/20240903_batch_252_500/2024-09-03-exp354\exp354-2024-09-14t19_35_14-arkoh\exp354_cv_sr_800mvs_efin_-1600mv.bin
Data Source:  Experiment
Instrument Model:  CHI760E
Header: CV ran at 800 mVs
Note: 

Init E (V) = -1
High E (V) = -1
Low E (V) = -1.6
Final E (V) = -1
Init P/N = N
Scan Rate (V/s) = 0.8
Segment = 3
Sample Interval (V) = 0.001
Quiet Time (sec) = 2
Sensitivity (A/V) = 0.01
Comp R (ohm) = 2.0

Results:

Channel 1:
Segment 1:

Segment 2:

Segment 3:

Potential/V, Current/A

-1.000, 1.865e-5
-1.001, 7.415e-5
-1.002, 1.081e-4
-1.003, 1.296e-4
-1.004, 1.451e-4
-1.005, 1.574e-4
-1.006, 1.666e-4
-1.007, 1.697e-4
-1.008, 1.759e-4
-1.009, 1.790e-4
-1.010, 1.821e-4
-1.011, 1.821e-4
-1.012, 1.851e-4
-1.013, 1.882e-4
-1.014, 1.882e-4
-1.015, 1.913e-4
-1.016, 1.913e-4
-1.017, 1.944e-4
-1.018, 1.944e-4
-1.019, 1.944e-4
-1.020, 1.944e-4
-1.021, 1.944e-4
-1.022, 1.944e-4
-1.023, 1.975e-4
-1.024, 1.975e-4
-1.025, 1.975e-4
-1.026, 1.975e-4
-1.027, 1.975e-4
-1.028, 2.006e-4
-1.029, 2.006e-4
-1.030, 2.006e-4
-1.031, 2.006e-4
-1.032, 2.006e-4
-1.033, 2.006e-4
-1.034, 2.006e-4
-1.035, 2.036e-4
-1.036, 2.036e-4
-1.037, 2.036e-4
-1.038, 2.036e-4
-1.039, 2.036e-4
-1.040, 2.036e-4
-1.041, 2.067e-4
-1.042, 2.067e-4
-1.043, 2.067e-4
-1.044, 2.067e-4
-1.045, 2.036e-4
-1.046, 2.067e-4
-1.047, 2.067e-4
-1.048, 2.067e-4
-1.049, 2.067e-4
-1.050, 2.067e-4
-1.051, 2.067e-4
-1.052, 2.067e-4
-1.053, 2.067e-4
-1.054, 2.098e-4
-1.055, 2.067e-4
-1.056, 2.098e-4
-1.057, 2.098e-4
-1.058, 2.098e-4
-1.059, 2.067e-4
-1.060, 2.098e-4
-1.061, 2.098e-4
-1.062, 2.098e-4
-1.063, 2.098e-4
-1.064, 2.098e-4
-1.065, 2.098e-4
-1.066, 2.098e-4
-1.067, 2.098e-4
-1.068, 2.098e-4
-1.069, 2.098e-4
-1.070, 2.129e-4
-1.071, 2.098e-4
-1.072, 2.098e-4
-1.073, 2.129e-4
-1.074, 2.098e-4
-1.075, 2.129e-4
-1.076, 2.129e-4
-1.077, 2.098e-4
-1.078, 2.129e-4
-1.079, 2.129e-4
-1.080, 2.129e-4
-1.081, 2.129e-4
-1.082, 2.129e-4
-1.083, 2.129e-4
-1.084, 2.129e-4
-1.085, 2.129e-4
-1.086, 2.129e-4
-1.087, 2.129e-4
-1.088, 2.129e-4
-1.089, 2.129e-4
-1.090, 2.129e-4
-1.091, 2.129e-4
-1.092, 2.129e-4
-1.093, 2.129e-4
-1.094, 2.129e-4
-1.095, 2.129e-4
-1.096, 2.129e-4
-1.097, 2.160e-4
-1.098, 2.129e-4
-1.099, 2.129e-4
-1.100, 2.129e-4
-1.101, 2.129e-4
-1.102, 2.129e-4
-1.103, 2.129e-4
-1.104, 2.160e-4
-1.105, 2.160e-4
-1.106, 2.129e-4
-1.107, 2.160e-4
-1.108, 2.160e-4
-1.109, 2.160e-4
-1.110, 2.160e-4
-1.111, 2.160e-4
-1.112, 2.160e-4
-1.113, 2.160e-4
-1.114, 2.160e-4
-1.115, 2.160e-4
-1.116, 2.160e-4
-1.117, 2.160e-4
-1.118, 2.160e-4
-1.119, 2.160e-4
-1.120, 2.191e-4
-1.121, 2.160e-4
-1.122, 2.160e-4
-1.123, 2.160e-4
-1.124, 2.160e-4
-1.125, 2.160e-4
-1.126, 2.191e-4
-1.127, 2.160e-4
-1.128, 2.160e-4
-1.129, 2.160e-4
-1.130, 2.160e-4
-1.131, 2.160e-4
-1.132, 2.160e-4
-1.133, 2.191e-4
-1.134, 2.191e-4
-1.135, 2.191e-4
-1.136, 2.191e-4
-1.137, 2.191e-4
-1.138, 2.191e-4
-1.139, 2.191e-4
-1.140, 2.191e-4
-1.141, 2.191e-4
-1.142, 2.191e-4
-1.143, 2.191e-4
-1.144, 2.191e-4
-1.145, 2.191e-4
-1.146, 2.191e-4
-1.147, 2.221e-4
-1.148, 2.221e-4
-1.149, 2.191e-4
-1.150, 2.221e-4
-1.151, 2.221e-4
-1.152, 2.221e-4
-1.153, 2.221e-4
-1.154, 2.221e-4
-1.155, 2.221e-4
-1.156, 2.221e-4
-1.157, 2.221e-4
-1.158, 2.221e-4
-1.159, 2.221e-4
-1.160, 2.221e-4
-1.161, 2.252e-4
-1.162, 2.221e-4
-1.163, 2.252e-4
-1.164, 2.252e-4
-1.165, 2.252e-4
-1.166, 2.252e-4
-1.167, 2.252e-4
-1.168, 2.252e-4
-1.169, 2.252e-4
-1.170, 2.252e-4
-1.171, 2.283e-4
-1.172, 2.283e-4
-1.173, 2.283e-4
-1.174, 2.283e-4
-1.175, 2.283e-4
-1.176, 2.283e-4
-1.177, 2.314e-4
-1.178, 2.314e-4
-1.179, 2.314e-4
-1.180, 2.314e-4
-1.181, 2.314e-4
-1.182, 2.314e-4
-1.183, 2.314e-4
-1.184, 2.345e-4
-1.185, 2.345e-4
-1.186, 2.345e-4
-1.187, 2.345e-4
-1.188, 2.345e-4
-1.189, 2.345e-4
-1.190, 2.376e-4
-1.191, 2.345e-4
-1.192, 2.376e-4
-1.193, 2.376e-4
-1.194, 2.376e-4
-1.195, 2.376e-4
-1.196, 2.376e-4
-1.197, 2.406e-4
-1.198, 2.406e-4
-1.199, 2.406e-4
-1.200, 2.437e-4
-1.201, 2.437e-4
-1.202, 2.468e-4
-1.203, 2.437e-4
-1.204, 2.468e-4
-1.205, 2.468e-4
-1.206, 2.468e-4
-1.207, 2.499e-4
-1.208, 2.468e-4
-1.209, 2.499e-4
-1.210, 2.499e-4
-1.211, 2.530e-4
-1.212, 2.530e-4
-1.213, 2.530e-4
-1.214, 2.561e-4
-1.215, 2.561e-4
-1.216, 2.591e-4
-1.217, 2.591e-4
-1.218, 2.591e-4
-1.219, 2.622e-4
-1.220, 2.591e-4
-1.221, 2.622e-4
-1.222, 2.622e-4
-1.223, 2.653e-4
-1.224, 2.653e-4
-1.225, 2.684e-4
-1.226, 2.684e-4
-1.227, 2.715e-4
-1.228, 2.715e-4
-1.229, 2.746e-4
-1.230, 2.776e-4
-1.231, 2.776e-4
-1.232, 2.807e-4
-1.233, 2.807e-4
-1.234, 2.807e-4
-1.235, 2.838e-4
-1.236, 2.869e-4
-1.237, 2.838e-4
-1.238, 2.869e-4
-1.239, 2.900e-4
-1.240, 2.931e-4
-1.241, 2.961e-4
-1.242, 2.961e-4
-1.243, 2.992e-4
-1.244, 2.992e-4
-1.245, 3.023e-4
-1.246, 3.023e-4
-1.247, 3.054e-4
-1.248, 3.085e-4
-1.249, 3.085e-4
-1.250, 3.085e-4
-1.251, 3.146e-4
-1.252, 3.146e-4
-1.253, 3.177e-4
-1.254, 3.208e-4
-1.255, 3.239e-4
-1.256, 3.270e-4
-1.257, 3.300e-4
-1.258, 3.331e-4
-1.259, 3.331e-4
-1.260, 3.362e-4
-1.261, 3.393e-4
-1.262, 3.424e-4
-1.263, 3.455e-4
-1.264, 3.485e-4
-1.265, 3.516e-4
-1.266, 3.547e-4
-1.267, 3.578e-4
-1.268, 3.609e-4
-1.269, 3.640e-4
-1.270, 3.670e-4
-1.271, 3.701e-4
-1.272, 3.732e-4
-1.273, 3.763e-4
-1.274, 3.794e-4
-1.275, 3.825e-4
-1.276, 3.886e-4
-1.277, 3.886e-4
-1.278, 3.948e-4
-1.279, 4.010e-4
-1.280, 4.040e-4
-1.281, 4.071e-4
-1.282, 4.102e-4
-1.283, 4.133e-4
-1.284, 4.164e-4
-1.285, 4.225e-4
-1.286, 4.256e-4
-1.287, 4.318e-4
-1.288, 4.349e-4
-1.289, 4.410e-4
-1.290, 4.441e-4
-1.291, 4.503e-4
-1.292, 4.534e-4
-1.293, 4.595e-4
-1.294, 4.626e-4
-1.295, 4.688e-4
-1.296, 4.750e-4
-1.297, 4.780e-4
-1.298, 4.811e-4
-1.299, 4.873e-4
-1.300, 4.935e-4
-1.301, 4.996e-4
-1.302, 5.027e-4
-1.303, 5.120e-4
-1.304, 5.181e-4
-1.305, 5.212e-4
-1.306, 5.305e-4
-1.307, 5.335e-4
-1.308, 5.397e-4
-1.309, 5.489e-4
-1.310, 5.551e-4
-1.311, 5.613e-4
-1.312, 5.674e-4
-1.313, 5.705e-4
-1.314, 5.798e-4
-1.315, 5.859e-4
-1.316, 5.921e-4
-1.317, 5.983e-4
-1.318, 6.075e-4
-1.319, 6.137e-4
-1.320, 6.199e-4
-1.321, 6.291e-4
-1.322, 6.384e-4
-1.323, 6.414e-4
-1.324, 6.507e-4
-1.325, 6.599e-4
-1.326, 6.661e-4
-1.327, 6.754e-4
-1.328, 6.815e-4
-1.329, 6.908e-4
-1.330, 7.000e-4
-1.331, 7.062e-4
-1.332, 7.154e-4
-1.333, 7.247e-4
-1.334, 7.339e-4
-1.335, 7.432e-4
-1.336, 7.524e-4
-1.337, 7.617e-4
-1.338, 7.709e-4
-1.339, 7.802e-4
-1.340, 7.894e-4
-1.341, 7.987e-4
-1.342, 8.079e-4
-1.343, 8.203e-4
-1.344, 8.295e-4
-1.345, 8.418e-4
-1.346, 8.480e-4
-1.347, 8.603e-4
-1.348, 8.696e-4
-1.349, 8.819e-4
-1.350, 8.943e-4
-1.351, 9.035e-4
-1.352, 9.158e-4
-1.353, 9.251e-4
-1.354, 9.374e-4
-1.355, 9.498e-4
-1.356, 9.621e-4
-1.357, 9.713e-4
-1.358, 9.837e-4
-1.359, 9.960e-4
-1.360, 1.008e-3
-1.361, 1.018e-3
-1.362, 1.030e-3
-1.363, 1.042e-3
-1.364, 1.055e-3
-1.365, 1.064e-3
-1.366, 1.076e-3
-1.367, 1.092e-3
-1.368, 1.104e-3
-1.369, 1.116e-3
-1.370, 1.129e-3
-1.371, 1.144e-3
-1.372, 1.156e-3
-1.373, 1.172e-3
-1.374, 1.187e-3
-1.375, 1.199e-3
-1.376, 1.212e-3
-1.377, 1.227e-3
-1.378, 1.240e-3
-1.379, 1.255e-3
-1.380, 1.267e-3
-1.381, 1.283e-3
-1.382, 1.301e-3
-1.383, 1.314e-3
-1.384, 1.329e-3
-1.385, 1.344e-3
-1.386, 1.357e-3
-1.387, 1.369e-3
-1.388, 1.384e-3
-1.389, 1.400e-3
-1.390, 1.418e-3
-1.391, 1.431e-3
-1.392, 1.446e-3
-1.393, 1.465e-3
-1.394, 1.480e-3
-1.395, 1.495e-3
-1.396, 1.511e-3
-1.397, 1.529e-3
-1.398, 1.545e-3
-1.399, 1.563e-3
-1.400, 1.579e-3
-1.401, 1.594e-3
-1.402, 1.613e-3
-1.403, 1.628e-3
-1.404, 1.647e-3
-1.405, 1.662e-3
-1.406, 1.677e-3
-1.407, 1.696e-3
-1.408, 1.714e-3
-1.409, 1.730e-3
-1.410, 1.745e-3
-1.411, 1.764e-3
-1.412, 1.782e-3
-1.413, 1.801e-3
-1.414, 1.819e-3
-1.415, 1.838e-3
-1.416, 1.856e-3
-1.417, 1.875e-3
-1.418, 1.890e-3
-1.419, 1.912e-3
-1.420, 1.927e-3
-1.421, 1.946e-3
-1.422, 1.967e-3
-1.423, 1.986e-3
-1.424, 2.001e-3
-1.425, 2.020e-3
-1.426, 2.035e-3
-1.427, 2.050e-3
-1.428, 2.072e-3
-1.429, 2.091e-3
-1.430, 2.112e-3
-1.431, 2.131e-3
-1.432, 2.152e-3
-1.433, 2.174e-3
-1.434, 2.192e-3
-1.435, 2.214e-3
-1.436, 2.232e-3
-1.437, 2.251e-3
-1.438, 2.272e-3
-1.439, 2.291e-3
-1.440, 2.309e-3
-1.441, 2.331e-3
-1.442, 2.346e-3
-1.443, 2.365e-3
-1.444, 2.386e-3
-1.445, 2.408e-3
-1.446, 2.430e-3
-1.447, 2.451e-3
-1.448, 2.470e-3
-1.449, 2.488e-3
-1.450, 2.507e-3
-1.451, 2.528e-3
-1.452, 2.550e-3
-1.453, 2.571e-3
-1.454, 2.593e-3
-1.455, 2.615e-3
-1.456, 2.639e-3
-1.457, 2.661e-3
-1.458, 2.679e-3
-1.459, 2.698e-3
-1.460, 2.716e-3
-1.461, 2.738e-3
-1.462, 2.763e-3
-1.463, 2.784e-3
-1.464, 2.803e-3
-1.465, 2.824e-3
-1.466, 2.846e-3
-1.467, 2.867e-3
-1.468, 2.886e-3
-1.469, 2.911e-3
-1.470, 2.932e-3
-1.471, 2.957e-3
-1.472, 2.978e-3
-1.473, 3.000e-3
-1.474, 3.022e-3
-1.475, 3.043e-3
-1.476, 3.065e-3
-1.477, 3.083e-3
-1.478, 3.105e-3
-1.479, 3.126e-3
-1.480, 3.151e-3
-1.481, 3.173e-3
-1.482, 3.197e-3
-1.483, 3.222e-3
-1.484, 3.244e-3
-1.485, 3.268e-3
-1.486, 3.287e-3
-1.487, 3.311e-3
-1.488, 3.336e-3
-1.489, 3.361e-3
-1.490, 3.382e-3
-1.491, 3.410e-3
-1.492, 3.432e-3
-1.493, 3.456e-3
-1.494, 3.478e-3
-1.495, 3.499e-3
-1.496, 3.521e-3
-1.497, 3.546e-3
-1.498, 3.570e-3
-1.499, 3.595e-3
-1.500, 3.620e-3
-1.501, 3.641e-3
-1.502, 3.666e-3
-1.503, 3.688e-3
-1.504, 3.712e-3
-1.505, 3.734e-3
-1.506, 3.758e-3
-1.507, 3.783e-3
-1.508, 3.811e-3
-1.509, 3.839e-3
-1.510, 3.860e-3
-1.511, 3.885e-3
-1.512, 3.910e-3
-1.513, 3.934e-3
-1.514, 3.959e-3
-1.515, 3.984e-3
-1.516, 4.011e-3
-1.517, 4.036e-3
-1.518, 4.064e-3
-1.519, 4.088e-3
-1.520, 4.113e-3
-1.521, 4.138e-3
-1.522, 4.162e-3
-1.523, 4.187e-3
-1.524, 4.212e-3
-1.525, 4.236e-3
-1.526, 4.264e-3
-1.527, 4.289e-3
-1.528, 4.317e-3
-1.529, 4.344e-3
-1.530, 4.372e-3
-1.531, 4.403e-3
-1.532, 4.431e-3
-1.533, 4.458e-3
-1.534, 4.483e-3
-1.535, 4.508e-3
-1.536, 4.529e-3
-1.537, 4.557e-3
-1.538, 4.585e-3
-1.539, 4.612e-3
-1.540, 4.637e-3
-1.541, 4.665e-3
-1.542, 4.690e-3
-1.543, 4.714e-3
-1.544, 4.742e-3
-1.545, 4.770e-3
-1.546, 4.801e-3
-1.547, 4.831e-3
-1.548, 4.859e-3
-1.549, 4.887e-3
-1.550, 4.918e-3
-1.551, 4.949e-3
-1.552, 4.976e-3
-1.553, 5.007e-3
-1.554, 5.038e-3
-1.555, 5.069e-3
-1.556, 5.103e-3
-1.557, 5.130e-3
-1.558, 5.158e-3
-1.559, 5.183e-3
-1.560, 5.208e-3
-1.561, 5.235e-3
-1.562, 5.263e-3
-1.563, 5.291e-3
-1.564, 5.319e-3
-1.565, 5.346e-3
-1.566, 5.374e-3
-1.567, 5.399e-3
-1.568, 5.426e-3
-1.569, 5.454e-3
-1.570, 5.482e-3
-1.571, 5.516e-3
-1.572, 5.550e-3
-1.573, 5.581e-3
-1.574, 5.611e-3
-1.575, 5.642e-3
-1.576, 5.673e-3
-1.577, 5.707e-3
-1.578, 5.744e-3
-1.579, 5.778e-3
-1.580, 5.812e-3
-1.581, 5.849e-3
-1.582, 5.877e-3
-1.583, 5.904e-3
-1.584, 5.932e-3
-1.585, 5.960e-3
-1.586, 5.991e-3
-1.587, 6.021e-3
-1.588, 6.049e-3
-1.589, 6.086e-3
-1.590, 6.120e-3
-1.591, 6.157e-3
-1.592, 6.197e-3
-1.593, 6.237e-3
-1.594, 6.274e-3
-1.595, 6.311e-3
-1.596, 6.345e-3
-1.597, 6.379e-3
-1.598, 6.413e-3
-1.599, 6.444e-3
-1.600, 6.432e-3
-1.599, 6.348e-3
-1.598, 6.280e-3
-1.597, 6.219e-3
-1.596, 6.157e-3
-1.595, 6.099e-3
-1.594, 6.037e-3
-1.593, 5.978e-3
-1.592, 5.923e-3
-1.591, 5.870e-3
-1.590, 5.818e-3
-1.589, 5.769e-3
-1.588, 5.716e-3
-1.587, 5.667e-3
-1.586, 5.614e-3
-1.585, 5.565e-3
-1.584, 5.516e-3
-1.583, 5.470e-3
-1.582, 5.423e-3
-1.581, 5.380e-3
-1.580, 5.331e-3
-1.579, 5.282e-3
-1.578, 5.229e-3
-1.577, 5.177e-3
-1.576, 5.124e-3
-1.575, 5.072e-3
-1.574, 5.026e-3
-1.573, 4.979e-3
-1.572, 4.936e-3
-1.571, 4.893e-3
-1.570, 4.853e-3
-1.569, 4.810e-3
-1.568, 4.770e-3
-1.567, 4.727e-3
-1.566, 4.683e-3
-1.565, 4.640e-3
-1.564, 4.600e-3
-1.563, 4.557e-3
-1.562, 4.514e-3
-1.561, 4.471e-3
-1.560, 4.428e-3
-1.559, 4.384e-3
-1.558, 4.341e-3
-1.557, 4.298e-3
-1.556, 4.255e-3
-1.555, 4.212e-3
-1.554, 4.175e-3
-1.553, 4.138e-3
-1.552, 4.101e-3
-1.551, 4.061e-3
-1.550, 4.024e-3
-1.549, 3.984e-3
-1.548, 3.947e-3
-1.547, 3.910e-3
-1.546, 3.876e-3
-1.545, 3.839e-3
-1.544, 3.805e-3
-1.543, 3.768e-3
-1.542, 3.734e-3
-1.541, 3.700e-3
-1.540, 3.663e-3
-1.539, 3.623e-3
-1.538, 3.586e-3
-1.537, 3.549e-3
-1.536, 3.515e-3
-1.535, 3.478e-3
-1.534, 3.444e-3
-1.533, 3.410e-3
-1.532, 3.376e-3
-1.531, 3.345e-3
-1.530, 3.314e-3
-1.529, 3.281e-3
-1.528, 3.247e-3
-1.527, 3.210e-3
-1.526, 3.179e-3
-1.525, 3.145e-3
-1.524, 3.114e-3
-1.523, 3.080e-3
-1.522, 3.049e-3
-1.521, 3.022e-3
-1.520, 2.994e-3
-1.519, 2.963e-3
-1.518, 2.932e-3
-1.517, 2.904e-3
-1.516, 2.871e-3
-1.515, 2.843e-3
-1.514, 2.812e-3
-1.513, 2.781e-3
-1.512, 2.753e-3
-1.511, 2.723e-3
-1.510, 2.695e-3
-1.509, 2.667e-3
-1.508, 2.639e-3
-1.507, 2.612e-3
-1.506, 2.584e-3
-1.505, 2.556e-3
-1.504, 2.528e-3
-1.503, 2.501e-3
-1.502, 2.476e-3
-1.501, 2.448e-3
-1.500, 2.423e-3
-1.499, 2.396e-3
-1.498, 2.371e-3
-1.497, 2.343e-3
-1.496, 2.319e-3
-1.495, 2.294e-3
-1.494, 2.266e-3
-1.493, 2.242e-3
-1.492, 2.217e-3
-1.491, 2.192e-3
-1.490, 2.168e-3
-1.489, 2.146e-3
-1.488, 2.124e-3
-1.487, 2.100e-3
-1.486, 2.078e-3
-1.485, 2.057e-3
-1.484, 2.032e-3
-1.483, 2.010e-3
-1.482, 1.986e-3
-1.481, 1.961e-3
-1.480, 1.939e-3
-1.479, 1.915e-3
-1.478, 1.896e-3
-1.477, 1.872e-3
-1.476, 1.850e-3
-1.475, 1.832e-3
-1.474, 1.813e-3
-1.473, 1.791e-3
-1.472, 1.773e-3
-1.471, 1.751e-3
-1.470, 1.730e-3
-1.469, 1.711e-3
-1.468, 1.690e-3
-1.467, 1.671e-3
-1.466, 1.653e-3
-1.465, 1.637e-3
-1.464, 1.616e-3
-1.463, 1.597e-3
-1.462, 1.579e-3
-1.461, 1.560e-3
-1.460, 1.542e-3
-1.459, 1.520e-3
-1.458, 1.502e-3
-1.457, 1.483e-3
-1.456, 1.468e-3
-1.455, 1.449e-3
-1.454, 1.431e-3
-1.453, 1.412e-3
-1.452, 1.397e-3
-1.451, 1.381e-3
-1.450, 1.363e-3
-1.449, 1.344e-3
-1.448, 1.329e-3
-1.447, 1.314e-3
-1.446, 1.295e-3
-1.445, 1.280e-3
-1.444, 1.264e-3
-1.443, 1.249e-3
-1.442, 1.230e-3
-1.441, 1.215e-3
-1.440, 1.199e-3
-1.439, 1.184e-3
-1.438, 1.169e-3
-1.437, 1.153e-3
-1.436, 1.138e-3
-1.435, 1.125e-3
-1.434, 1.110e-3
-1.433, 1.095e-3
-1.432, 1.079e-3
-1.431, 1.067e-3
-1.430, 1.051e-3
-1.429, 1.036e-3
-1.428, 1.021e-3
-1.427, 1.008e-3
-1.426, 9.960e-4
-1.425, 9.806e-4
-1.424, 9.683e-4
-1.423, 9.528e-4
-1.422, 9.405e-4
-1.421, 9.282e-4
-1.420, 9.128e-4
-1.419, 8.973e-4
-1.418, 8.850e-4
-1.417, 8.696e-4
-1.416, 8.573e-4
-1.415, 8.449e-4
-1.414, 8.326e-4
-1.413, 8.203e-4
-1.412, 8.079e-4
-1.411, 7.956e-4
-1.410, 7.833e-4
-1.409, 7.709e-4
-1.408, 7.586e-4
-1.407, 7.432e-4
-1.406, 7.339e-4
-1.405, 7.216e-4
-1.404, 7.093e-4
-1.403, 7.000e-4
-1.402, 6.877e-4
-1.401, 6.754e-4
-1.400, 6.630e-4
-1.399, 6.538e-4
-1.398, 6.414e-4
-1.397, 6.322e-4
-1.396, 6.199e-4
-1.395, 6.106e-4
-1.394, 5.952e-4
-1.393, 5.859e-4
-1.392, 5.767e-4
-1.391, 5.644e-4
-1.390, 5.551e-4
-1.389, 5.459e-4
-1.388, 5.335e-4
-1.387, 5.243e-4
-1.386, 5.150e-4
-1.385, 5.027e-4
-1.384, 4.935e-4
-1.383, 4.811e-4
-1.382, 4.719e-4
-1.381, 4.626e-4
-1.380, 4.503e-4
-1.379, 4.410e-4
-1.378, 4.318e-4
-1.377, 4.225e-4
-1.376, 4.133e-4
-1.375, 4.040e-4
-1.374, 3.948e-4
-1.373, 3.855e-4
-1.372, 3.763e-4
-1.371, 3.670e-4
-1.370, 3.578e-4
-1.369, 3.485e-4
-1.368, 3.393e-4
-1.367, 3.300e-4
-1.366, 3.208e-4
-1.365, 3.115e-4
-1.364, 3.023e-4
-1.363, 2.961e-4
-1.362, 2.900e-4
-1.361, 2.776e-4
-1.360, 2.715e-4
-1.359, 2.622e-4
-1.358, 2.561e-4
-1.357, 2.468e-4
-1.356, 2.376e-4
-1.355, 2.314e-4
-1.354, 2.221e-4
-1.353, 2.129e-4
-1.352, 2.067e-4
-1.351, 1.975e-4
-1.350, 1.913e-4
-1.349, 1.851e-4
-1.348, 1.759e-4
-1.347, 1.666e-4
-1.346, 1.636e-4
-1.345, 1.543e-4
-1.344, 1.481e-4
-1.343, 1.389e-4
-1.342, 1.327e-4
-1.341, 1.266e-4
-1.340, 1.173e-4
-1.339, 1.111e-4
-1.338, 1.050e-4
-1.337, 9.882e-5
-1.336, 8.957e-5
-1.335, 8.340e-5
-1.334, 7.723e-5
-1.333, 7.107e-5
-1.332, 6.490e-5
-1.331, 5.873e-5
-1.330, 5.257e-5
-1.329, 4.640e-5
-1.328, 4.024e-5
-1.327, 3.407e-5
-1.326, 2.482e-5
-1.325, 2.174e-5
-1.324, 1.557e-5
-1.323, 9.405e-6
-1.322, 3.239e-6
-1.321, -2.927e-6
-1.320, -9.093e-6
-1.319, -1.526e-5
-1.318, -1.834e-5
-1.317, -2.451e-5
-1.316, -3.068e-5
-1.315, -3.376e-5
-1.314, -4.301e-5
-1.313, -4.609e-5
-1.312, -5.226e-5
-1.311, -5.534e-5
-1.310, -6.151e-5
-1.309, -6.767e-5
-1.308, -7.076e-5
-1.307, -7.692e-5
-1.306, -8.000e-5
-1.305, -8.617e-5
-1.304, -8.925e-5
-1.303, -9.234e-5
-1.302, -9.850e-5
-1.301, -1.047e-4
-1.300, -1.078e-4
-1.299, -1.139e-4
-1.298, -1.170e-4
-1.297, -1.232e-4
-1.296, -1.263e-4
-1.295, -1.293e-4
-1.294, -1.324e-4
-1.293, -1.386e-4
-1.292, -1.417e-4
-1.291, -1.448e-4
-1.290, -1.478e-4
-1.289, -1.509e-4
-1.288, -1.571e-4
-1.287, -1.602e-4
-1.286, -1.632e-4
-1.285, -1.694e-4
-1.284, -1.694e-4
-1.283, -1.756e-4
-1.282, -1.787e-4
-1.281, -1.817e-4
-1.280, -1.848e-4
-1.279, -1.879e-4
-1.278, -1.910e-4
-1.277, -1.910e-4
-1.276, -1.972e-4
-1.275, -2.002e-4
-1.274, -2.033e-4
-1.273, -2.064e-4
-1.272, -2.095e-4
-1.271, -2.126e-4
-1.270, -2.157e-4
-1.269, -2.157e-4
-1.268, -2.187e-4
-1.267, -2.218e-4
-1.266, -2.249e-4
-1.265, -2.280e-4
-1.264, -2.280e-4
-1.263, -2.311e-4
-1.262, -2.342e-4
-1.261, -2.372e-4
-1.260, -2.403e-4
-1.259, -2.403e-4
-1.258, -2.434e-4
-1.257, -2.465e-4
-1.256, -2.465e-4
-1.255, -2.465e-4
-1.254, -2.496e-4
-1.253, -2.527e-4
-1.252, -2.557e-4
-1.251, -2.557e-4
-1.250, -2.588e-4
-1.249, -2.588e-4
-1.248, -2.619e-4
-1.247, -2.650e-4
-1.246, -2.650e-4
-1.245, -2.681e-4
-1.244, -2.681e-4
-1.243, -2.712e-4
-1.242, -2.712e-4
-1.241, -2.742e-4
-1.240, -2.742e-4
-1.239, -2.742e-4
-1.238, -2.773e-4
-1.237, -2.773e-4
-1.236, -2.804e-4
-1.235, -2.804e-4
-1.234, -2.835e-4
-1.233, -2.835e-4
-1.232, -2.835e-4
-1.231, -2.866e-4
-1.230, -2.866e-4
-1.229, -2.897e-4
-1.228, -2.897e-4
-1.227, -2.897e-4
-1.226, -2.897e-4
-1.225, -2.897e-4
-1.224, -2.897e-4
-1.223, -2.927e-4
-1.222, -2.927e-4
-1.221, -2.927e-4
-1.220, -2.958e-4
-1.219, -2.958e-4
-1.218, -2.958e-4
-1.217, -2.958e-4
-1.216, -2.958e-4
-1.215, -2.989e-4
-1.214, -2.989e-4
-1.213, -2.989e-4
-1.212, -2.989e-4
-1.211, -2.989e-4
-1.210, -3.020e-4
-1.209, -3.020e-4
-1.208, -3.020e-4
-1.207, -3.020e-4
-1.206, -3.020e-4
-1.205, -3.020e-4
-1.204, -3.020e-4
-1.203, -3.051e-4
-1.202, -3.051e-4
-1.201, -3.051e-4
-1.200, -3.020e-4
-1.199, -3.051e-4
-1.198, -3.051e-4
-1.197, -3.051e-4
-1.196, -3.082e-4
-1.195, -3.051e-4
-1.194, -3.082e-4
-1.193, -3.082e-4
-1.192, -3.051e-4
-1.191, -3.051e-4
-1.190, -3.082e-4
-1.189, -3.051e-4
-1.188, -3.051e-4
-1.187, -3.051e-4
-1.186, -3.082e-4
-1.185, -3.051e-4
-1.184, -3.082e-4
-1.183, -3.082e-4
-1.182, -3.082e-4
-1.181, -3.082e-4
-1.180, -3.082e-4
-1.179, -3.082e-4
-1.178, -3.082e-4
-1.177, -3.082e-4
-1.176, -3.082e-4
-1.175, -3.082e-4
-1.174, -3.082e-4
-1.173, -3.082e-4
-1.172, -3.082e-4
-1.171, -3.082e-4
-1.170, -3.051e-4
-1.169, -3.082e-4
-1.168, -3.082e-4
-1.167, -3.082e-4
-1.166, -3.082e-4
-1.165, -3.082e-4
-1.164, -3.082e-4
-1.163, -3.082e-4
-1.162, -3.082e-4
-1.161, -3.082e-4
-1.160, -3.082e-4
-1.159, -3.082e-4
-1.158, -3.082e-4
-1.157, -3.051e-4
-1.156, -3.082e-4
-1.155, -3.082e-4
-1.154, -3.082e-4
-1.153, -3.082e-4
-1.152, -3.051e-4
-1.151, -3.082e-4
-1.150, -3.082e-4
-1.149, -3.082e-4
-1.148, -3.051e-4
-1.147, -3.051e-4
-1.146, -3.051e-4
-1.145, -3.051e-4
-1.144, -3.051e-4
-1.143, -3.082e-4
-1.142, -3.082e-4
-1.141, -3.051e-4
-1.140, -3.082e-4
-1.139, -3.051e-4
-1.138, -3.082e-4
-1.137, -3.082e-4
-1.136, -3.051e-4
-1.135, -3.051e-4
-1.134, -3.051e-4
-1.133, -3.051e-4
-1.132, -3.051e-4
-1.131, -3.051e-4
-1.130, -3.051e-4
-1.129, -3.051e-4
-1.128, -3.051e-4
-1.127, -3.051e-4
-1.126, -3.051e-4
-1.125, -3.082e-4
-1.124, -3.051e-4
-1.123, -3.051e-4
-1.122, -3.051e-4
-1.121, -3.051e-4
-1.120, -3.051e-4
-1.119, -3.051e-4
-1.118, -3.051e-4
-1.117, -3.051e-4
-1.116, -3.082e-4
-1.115, -3.051e-4
-1.114, -3.082e-4
-1.113, -3.051e-4
-1.112, -3.051e-4
-1.111, -3.051e-4
-1.110, -3.051e-4
-1.109, -3.082e-4
-1.108, -3.082e-4
-1.107, -3.051e-4
-1.106, -3.051e-4
-1.105, -3.051e-4
-1.104, -3.051e-4
-1.103, -3.051e-4
-1.102, -3.051e-4
-1.101, -3.082e-4
-1.100, -3.082e-4
-1.099, -3.082e-4
-1.098, -3.082e-4
-1.097, -3.082e-4
-1.096, -3.082e-4
-1.095, -3.082e-4
-1.094, -3.082e-4
-1.093, -3.051e-4
-1.092, -3.082e-4
-1.091, -3.082e-4
-1.090, -3.051e-4
-1.089, -3.082e-4
-1.088, -3.082e-4
-1.087, -3.082e-4
-1.086, -3.082e-4
-1.085, -3.082e-4
-1.084, -3.082e-4
-1.083, -3.082e-4
-1.082, -3.082e-4
-1.081, -3.082e-4
-1.080, -3.082e-4
-1.079, -3.082e-4
-1.078, -3.082e-4
-1.077, -3.082e-4
-1.076, -3.112e-4
-1.075, -3.112e-4
-1.074, -3.112e-4
-1.073, -3.112e-4
-1.072, -3.112e-4
-1.071, -3.112e-4
-1.070, -3.112e-4
-1.069, -3.112e-4
-1.068, -3.112e-4
-1.067, -3.112e-4
-1.066, -3.112e-4
-1.065, -3.112e-4
-1.064, -3.112e-4
-1.063, -3.112e-4
-1.062, -3.143e-4
-1.061, -3.143e-4
-1.060, -3.143e-4
-1.059, -3.143e-4
-1.058, -3.143e-4
-1.057, -3.143e-4
-1.056, -3.143e-4
-1.055, -3.143e-4
-1.054, -3.143e-4
-1.053, -3.143e-4
-1.052, -3.143e-4
-1.051, -3.143e-4
-1.050, -3.143e-4
-1.049, -3.174e-4
-1.048, -3.174e-4
-1.047, -3.174e-4
-1.046, -3.174e-4
-1.045, -3.174e-4
-1.044, -3.174e-4
-1.043, -3.205e-4
-1.042, -3.174e-4
-1.041, -3.205e-4
-1.040, -3.205e-4
-1.039, -3.205e-4
-1.038, -3.205e-4
-1.037, -3.205e-4
-1.036, -3.205e-4
-1.035, -3.205e-4
-1.034, -3.205e-4
-1.033, -3.236e-4
-1.032, -3.205e-4
-1.031, -3.236e-4
-1.030, -3.236e-4
-1.029, -3.236e-4
-1.028, -3.236e-4
-1.027, -3.236e-4
-1.026, -3.236e-4
-1.025, -3.267e-4
-1.024, -3.267e-4
-1.023, -3.267e-4
-1.022, -3.297e-4
-1.021, -3.297e-4
-1.020, -3.297e-4
-1.019, -3.297e-4
-1.018, -3.297e-4
-1.017, -3.297e-4
-1.016, -3.297e-4
-1.015, -3.297e-4
-1.014, -3.297e-4
-1.013, -3.297e-4
-1.012, -3.297e-4
-1.011, -3.328e-4
-1.010, -3.328e-4
-1.009, -3.359e-4
-1.008, -3.328e-4
-1.007, -3.359e-4
-1.006, -3.359e-4
-1.005, -3.359e-4
-1.004, -3.390e-4
-1.003, -3.390e-4
-1.002, -3.390e-4
-1.001, -3.390e-4
