Potential V vs RHE, Current mA cm-2
0.013299999999999867,0.5545668295470944
0.012299999999999978,-0.9721896052672533
0.011299999999999866,-2.2706116362833835
0.010299999999999976,-3.316083286883646
0.009299999999999864,-4.211595539698214
0.008299999999999974,-5.0618370309171015
0.007299999999999862,-5.767777969549755
0.006299999999999972,-6.3152712425975235
0.00529999999999986,-6.888229319042864
0.0042999999999999705,-7.458357972888473
0.0032999999999998586,-7.889844919347309
0.0022999999999999687,-8.312843598006955
0.0012999999999998568,-8.768380636563498
0.00029999999999996696,-9.025858093138934
-0.000700000000000145,-9.171573357025034
-0.0017000000000000348,-9.436124370099794
-0.0027000000000001467,-9.771410948167809
-0.0037000000000000366,-10.028888404743245
-0.0047000000000001485,-10.333051334214227
-0.005700000000000038,-10.509890246697358
-0.00670000000000015,-10.505646112797763
-0.00770000000000004,-10.654190799283592
-0.008700000000000152,-10.955524306154844
-0.009700000000000042,-11.177633980233654
-0.010700000000000154,-11.385596541313816
-0.011700000000000044,-11.614779771891952
-0.012700000000000156,-11.620438617091411
-0.013700000000000045,-11.579411989395325
-0.014700000000000157,-11.808595219973462
-0.015700000000000047,-12.071731521748358
-0.01670000000000016,-12.12549055114323
-0.01770000000000005,-12.18490842573756
-0.01870000000000016,-12.228764476033378
-0.01970000000000005,-12.131149396342689
-0.020700000000000163,-12.13963766414188
-0.021700000000000053,-12.365991472120287
-0.022700000000000164,-12.56970989930085
-0.023700000000000054,-12.561221631501661
-0.024700000000000166,-12.658836711192349
-0.025700000000000056,-12.699863338888433
-0.026700000000000168,-12.663080845091942
-0.027700000000000058,-12.781916594280606
-0.02870000000000017,-12.957340795463871
-0.02970000000000006,-12.921973012967245
-0.03070000000000017,-12.762110636082495
-0.03170000000000006,-12.745134100484115
-0.03270000000000017,-12.723913430986139
-0.03370000000000006,-12.723913430986139
-0.034700000000000175,-12.916314167767784
-0.035700000000000065,-13.040808762155907
-0.03670000000000018,-12.944608393765087
-0.03770000000000007,-12.978561464961846
-0.03870000000000018,-13.261503724934855
-0.03970000000000007,-13.223306519838497
-0.04070000000000018,-13.045052896055504
-0.04170000000000007,-13.052126452554827
-0.04270000000000018,-13.10022663675024
-0.04370000000000007,-13.175206335643086
-0.044700000000000184,-13.32516573342878
-0.045700000000000074,-13.361948227225271
-0.046700000000000186,-13.312433331729995
-0.047700000000000076,-13.46239272951569
-0.04870000000000019,-13.748164412088427
-0.04970000000000008,-13.828802956180734
-0.05070000000000019,-13.817485265781814
-0.05170000000000008,-13.803338152783162
-0.05270000000000019,-13.663281734096524
-0.05370000000000008,-13.632158085499492
-0.05470000000000019,-13.85568247087817
-0.05570000000000008,-13.960371107068182
-0.056700000000000195,-13.868414872576954
-0.057700000000000085,-13.70713778439234
-0.058700000000000196,-13.547275407507591
-0.059700000000000086,-13.458148595616095
-0.0607000000000002,-13.49917522331218
-0.06170000000000009,-13.685917114894366
-0.0627000000000002,-13.729773165190181
-0.06370000000000009,-13.67318471319558
-0.0647000000000002,-13.852853048278439
-0.06570000000000009,-13.941979860169937
-0.0667000000000002,-13.790605751084376
-0.0677000000000001,-13.753823257287888
-0.0687000000000002,-13.882561985575606
-0.0697000000000001,-13.927832747171284
-0.07070000000000021,-13.923588613271692
-0.0717000000000001,-13.992909466965077
-0.07270000000000021,-13.915100345472501
-0.0737000000000001,-13.885391408175334
-0.07470000000000021,-14.046668496359947
-0.0757000000000001,-14.189554337646317
-0.07670000000000021,-14.161260111649016
-0.0777000000000001,-14.147112998650368
-0.07870000000000021,-14.147112998650368
-0.0797000000000001,-14.046668496359947
-0.08070000000000022,-14.079206856256844
-0.0817000000000001,-14.26028990263957
-0.08270000000000022,-14.331025467632822
-0.08370000000000011,-14.331025467632822
-0.08470000000000022,-14.331025467632822
-0.08570000000000011,-14.24614278964092
-0.08670000000000022,-14.231995676642269
-0.08770000000000011,-14.387613919627421
-0.08870000000000022,-14.61396772760583
-0.08970000000000011,-14.67055617960043
-0.09070000000000022,-14.529085049613924
-0.09170000000000011,-14.401761032626075
-0.09270000000000023,-14.430055258623375
-0.09370000000000012,-14.529085049613924
-0.09470000000000023,-14.67055617960043
-0.09570000000000012,-14.599820614607177
-0.09670000000000023,-14.458349484620674
-0.09770000000000012,-14.557379275611227
-0.09870000000000023,-14.62811484060448
-0.09970000000000012,-14.557379275611227
-0.10070000000000023,-14.557379275611227
-0.10170000000000012,-14.741291744593681
-0.10270000000000024,-14.812027309586934
-0.10370000000000013,-14.69885040559773
-0.10470000000000024,-14.783733083589633
-0.10570000000000013,-14.769585970590983
-0.10670000000000024,-14.642261953603128
-0.10770000000000013,-14.727144631595033
-0.10870000000000024,-14.939351326574789
-0.10970000000000013,-15.01008689156804
-0.11070000000000024,-15.06667534356264
-0.11170000000000013,-15.151558021554543
-0.11270000000000002,-14.995939778569388
-0.11370000000000013,-14.840321535584234
-0.11470000000000002,-14.882762874580186
-0.11570000000000014,-15.01008689156804
-0.11670000000000003,-14.98179266557074
-0.11770000000000014,-14.98179266557074
-0.11870000000000003,-15.02423400456669
-0.11970000000000014,-14.953498439573437
-0.12070000000000003,-14.995939778569388
-0.12170000000000014,-15.208146473549144
-0.12270000000000003,-15.264734925543747
-0.12370000000000014,-15.264734925543747
-0.12470000000000003,-15.278882038542395
-0.12570000000000014,-15.179852247551842
-0.12670000000000003,-15.137410908555893
-0.12770000000000015,-15.307176264539699
-0.12870000000000004,-15.4769416205235
-0.12970000000000015,-15.448647394526201
-0.13070000000000004,-15.4203531685289
-0.13170000000000015,-15.43450028152755
-0.13270000000000004,-15.448647394526201
-0.13370000000000015,-15.533530072518102
-0.13470000000000004,-15.731589654499205
-0.13570000000000015,-15.830619445489761
-0.13670000000000004,-15.78817810649381
-0.13770000000000016,-15.660854089505953
-0.13870000000000005,-15.618412750510005
-0.13970000000000016,-15.646706976507305
-0.14070000000000005,-15.731589654499205
-0.14170000000000016,-15.78817810649381
-0.14270000000000005,-15.74573676749786
-0.14370000000000016,-15.717442541500558
-0.14470000000000005,-15.731589654499205
-0.14570000000000016,-15.77403099349516
-0.14670000000000005,-15.78817810649381
-0.14770000000000016,-15.957943462477614
-0.14870000000000005,-16.127708818461418
-0.14970000000000017,-16.000384801473565
-0.15070000000000006,-15.957943462477614
-0.15170000000000017,-15.986237688474914
-0.15270000000000006,-15.929649236480316
-0.15370000000000017,-16.000384801473565
-0.15470000000000006,-16.21259149645332
-0.15570000000000017,-16.368209739438473
-0.15670000000000006,-16.339915513441174
-0.15770000000000017,-16.368209739438473
-0.15870000000000006,-16.325768400442524
-0.15970000000000018,-16.269179948447924
-0.16070000000000007,-16.410651078434423
-0.16170000000000018,-16.622857773414182
-0.16270000000000007,-16.637004886412832
-0.16370000000000018,-16.56626932141958
-0.16470000000000007,-16.55212220842093
-0.16570000000000018,-16.60871066041553
-0.16670000000000007,-16.736034677403385
-0.16770000000000018,-16.891652920388537
-0.16870000000000007,-17.018976937376394
-0.16970000000000018,-17.103859615368293
-0.17070000000000007,-17.160448067362896
-0.17170000000000019,-17.089712502369647
-0.17270000000000008,-17.00482982437774
-0.1737000000000002,-17.018976937376394
-0.17470000000000008,-17.28777208435075
-0.1757000000000002,-17.45753744033455
-0.17670000000000008,-17.40094898833995
-0.1777000000000002,-17.386801875341302
-0.17870000000000008,-17.316066310348052
-0.1797000000000002,-17.37265476234265
-0.18070000000000008,-17.542420118326454
-0.1817000000000002,-17.81121526530081
-0.18270000000000008,-17.924392169290012
-0.1837000000000002,-17.853656604296763
-0.1847000000000001,-17.881950830294063
-0.1857000000000002,-17.910245056291366
-0.1867000000000001,-17.867803717295413
-0.1877000000000002,-17.980980621284615
-0.1887000000000001,-18.23562865526032
-0.1897000000000002,-18.348805559249524
-0.1907000000000001,-18.53271802823198
-0.1917000000000001,-18.617600706223882
-0.19269999999999998,-18.53271802823198
-0.1937000000000001,-18.631747819222536
-0.19469999999999998,-19.01371987018609
-0.1957000000000001,-19.367397695152352
-0.19669999999999999,-19.31080924315775
-0.1977000000000001,-19.31080924315775
-0.1987,-19.395691921149652
-0.1997000000000001,-19.423986147146955
-0.2007,-19.678634181122664
-0.2017000000000001,-19.98987066709297
-0.2027,-20.06060623208622
-0.2037000000000001,-20.03231200608892
-0.2047,-20.03231200608892
-0.2057000000000001,-20.088900458083522
-0.2067,-20.329401379060574
-0.2077000000000001,-20.711373430024135
-0.2087,-21.079198367989047
-0.2097000000000001,-21.2348166109742
-0.2107,-21.47531753195126
-0.2117000000000001,-21.560200209943158
-0.2127,-21.47531753195126
-0.2137000000000001,-21.51775887094721
-0.2147,-21.843142469916167
-0.2157000000000001,-22.15437895588647
-0.2167,-22.253408746877028
-0.21770000000000012,-22.508056780852733
-0.2187,-22.748557701829792
-0.21970000000000012,-22.932470170812245
-0.2207,-23.2012653177866
-0.22170000000000012,-23.56909025575151
-0.2227,-23.795444063729917
-0.22370000000000012,-23.92276808071777
-0.2247,-24.050092097705623
-0.22570000000000012,-24.27644590568403
-0.2267,-24.686712182644893
-0.22770000000000012,-25.167714024599
-0.22870000000000001,-25.535538962563912
-0.22970000000000013,-25.80433410953827
-0.23070000000000002,-26.087276369511276
-0.23170000000000013,-26.22874749949778
-0.23270000000000002,-26.38436574248293
-0.23370000000000013,-26.752190680447846
-0.23470000000000002,-27.31807520039386
-0.23570000000000013,-27.728341477354718
-0.23670000000000002,-28.05372507632368
-0.2376999999999999,-28.280078884302082
-0.23870000000000002,-28.44984424028589
-0.2396999999999999,-28.88840474324405
-0.24070000000000003,-29.59576039317657
-0.24169999999999991,-30.331410269106385
-0.24270000000000003,-30.741676546067247
-0.24369999999999992,-30.99632458004295
-0.24470000000000003,-31.08120725803486
-0.24569999999999992,-31.19438416202406
-0.24670000000000003,-31.816857133964678
-0.24769999999999992,-32.821302156868846
-0.24870000000000003,-33.54280491980002
-0.24969999999999992,-33.93892408376223
-0.25070000000000003,-34.207719230736586
-0.2516999999999999,-34.5755441687015
-0.25270000000000004,-35.21216425364076
-0.2536999999999999,-36.00440258156518
-0.25470000000000004,-36.89567070048016
-0.2556999999999999,-37.57473212441538
-0.25670000000000004,-37.687909028404576
-0.25769999999999993,-37.687909028404576
-0.25870000000000004,-38.22549932235329
-0.25969999999999993,-39.173355893262865
-0.26070000000000004,-40.135359577171094
-0.26169999999999993,-40.84271522710361
-0.26270000000000004,-41.56421799003478
-0.26369999999999993,-42.42719188295245
-0.26470000000000005,-43.077959080890366
-0.26569999999999994,-43.57310803584313
-0.26670000000000005,-44.4643761547581
-0.26769999999999994,-45.86494034162449
-0.26870000000000005,-46.99670938151652
-0.26969999999999994,-47.449416997473335
-0.27070000000000005,-47.40697565847737
-0.27169999999999994,-47.74650637044499
-0.27270000000000005,-49.005599427324874
-0.27369999999999994,-50.3637222751953
-0.27470000000000006,-51.46719708909004
-0.27569999999999995,-52.485789224992864
-0.27670000000000006,-53.405351569905136
-0.27769999999999995,-53.84391207286329
-0.27870000000000006,-54.409796592809315
-0.27969999999999995,-55.527418519702685
-0.28070000000000006,-57.097748062552874
-0.28169999999999995,-58.30025266743816
-0.28270000000000006,-59.20566789935179
-0.28369999999999995,-59.9696120012789
-0.28470000000000006,-60.54964363422357
-0.28569999999999995,-61.53994154412909
-0.28670000000000007,-62.799034601008984
-0.28769999999999996,-64.36936414385917
-0.28870000000000007,-65.7274869917296
-0.28969999999999996,-66.46313686765943
-0.29070000000000007,-67.0997569525987
-0.29169999999999996,-67.99102507151366
-0.29270000000000007,-69.6320901793571
-0.29369999999999996,-71.06094859222078
-0.2947000000000001,-72.20686474511147
-0.29569999999999996,-73.04154441203184
-0.2967000000000001,-74.11672499992927
-0.29769999999999996,-75.33337671781321
-0.2987000000000001,-76.55002843569714
-0.29969999999999997,-78.20524065653922
-0.3007000000000001,-80.35560183233409
-0.30169999999999997,-81.85519581019103
-0.3027000000000001,-82.46352166913299
-0.30369999999999997,-83.36893690104661
-0.3047000000000001,-84.41582326294673
-0.30569999999999997,-85.95785857979962
-0.3067000000000001,-88.02333707760259
-0.3077,-90.27272804438799
-0.3087000000000001,-91.98452871722468
-0.3097,-93.34265156509512
-0.3107000000000001,-95.21007048091697
-0.3117,-96.4267221988009
-0.3127000000000001,-97.51604989969698
-0.3137,-98.90246697356471
-0.3147000000000001,-100.75573877638791
-0.3157,-102.3543625452354
-0.3167000000000001,-104.0378689920748
-0.3177,-106.04675903788315
-0.3187000000000001,-107.12193962578058
-0.3197,-107.81514816271445
-0.3207000000000001,-109.18741812358353
-0.3217,-111.71975135034194
-0.3227000000000001,-114.3228201420936
-0.3237,-115.53947185997755
-0.3247000000000001,-113.75693562214758
-0.3257,-112.13001762730282
-0.3267000000000001,-115.12920558301667
-0.3277,-119.37333948261178
-0.3287000000000001,-120.77390366947817
-0.3297,-119.9392240025578
-0.3307000000000001,-120.56169697449842
-0.3317,-123.9852983201718
-0.3327000000000001,-126.34786619094643
-0.3337,-127.29572276185603
-0.3347000000000001,-127.33816410085197
-0.3357,-128.07381397678176
-0.3367000000000001,-130.40808762155908
-0.3377,-133.0535977523067
-0.3387000000000001,-134.2702494701906
-0.3397,-134.32683792218523
-0.3407000000000001,-136.51964043697603
-0.3417,-140.33936094661163
-0.3427000000000001,-144.01761032626072
-0.3437,-145.9982061460718
-0.3447000000000001,-145.9982061460718
-0.3457,-147.1299751859638
-0.3467000000000001,-150.24234004566688
-0.3477,-153.21323377538346
-0.3487000000000001,-154.6279450752485
-0.3497,-155.33530072518104
-0.3507000000000001,-158.1647233249111
-0.3517,-160.71120366466818
-0.3527000000000001,-160.8526747946547
-0.3537,-160.99414592464117
-0.3547000000000001,-163.25768400442522
-0.3557,-166.79446225408785
-0.35670000000000013,-168.91652920388537
-0.3577,-170.18976937376394
-0.35870000000000013,-171.60448067362896
-0.3597,-174.2924321433725
-0.36070000000000013,-177.2633258730891
-0.3617,-177.2633258730891
-0.3626999999999999,-176.6974413531431
-0.3637,-178.81950830294062
-0.3646999999999999,-182.21481542261674
-0.3657,-183.77099785246824
-0.3666999999999999,-183.91246898245475
-0.3677,-182.21481542261674
-0.3686999999999999,-181.64893090267074
-0.36970000000000003,-184.7612957623738
-0.3706999999999999,-188.8639585319824
-0.37170000000000003,-191.268967741753
-0.3726999999999999,-192.2592656516585
-0.37370000000000003,-194.2398614714695
-0.3746999999999999,-196.3619284212671
-0.37570000000000003,-196.50339955125358
-0.3766999999999999,-196.6448706812401
-0.37770000000000004,-199.04987989101065
-0.3786999999999999,-201.73783136075423
-0.37970000000000004,-202.30371588070025
-0.3806999999999999,-202.30371588070025
-0.38170000000000004,-204.42578283049778
-0.38269999999999993,-205.41608074040332
-0.38370000000000004,-206.26490752032234
-0.38469999999999993,-210.36757028993094
-0.38570000000000004,-215.88494435940459
-0.38669999999999993,-217.86554017921566
-0.38570000000000004,-216.73377113932364
-0.38469999999999993,-214.18729079956654
-0.38370000000000004,-211.21639706985
-0.38269999999999993,-209.94315689997146
-0.38170000000000004,-210.08462802995794
-0.3806999999999999,-209.8016857699849
-0.37970000000000004,-209.37727238002543
-0.3786999999999999,-207.25520543022787
-0.37770000000000004,-204.7087250904708
-0.3766999999999999,-203.71842718056527
-0.37570000000000003,-203.15254266061928
-0.3746999999999999,-202.02077362072723
-0.37370000000000003,-200.3231200608892
-0.3726999999999999,-199.89870667092967
-0.37170000000000003,-197.63516859114563
-0.3706999999999999,-194.94721712140205
-0.36970000000000003,-192.683679041618
-0.3686999999999999,-190.56161209182042
-0.3677,-188.58101627200938
-0.3666999999999999,-185.89306480226583
-0.3657,-184.47835350240078
-0.3646999999999999,-183.91246898245475
-0.3637,-182.92217107254925
-0.3626999999999999,-181.93187316264374
-0.3617,-181.64893090267074
-0.36070000000000013,-181.64893090267074
-0.3597,-180.09274847281918
-0.35870000000000013,-178.96097943292713
-0.3577,-176.8389124831296
-0.35670000000000013,-173.86801875341303
-0.3557,-171.46300954364247
-0.3547000000000001,-169.9068271137909
-0.3537,-169.9068271137909
-0.3527000000000001,-169.48241372383137
-0.3517,-168.49211581392586
-0.3507000000000001,-166.3700488641283
-0.3497,-163.54062626439824
-0.3487000000000001,-161.5600304445872
-0.3477,-160.00384801473567
-0.3467000000000001,-159.29649236480313
-0.3457,-158.87207897484362
-0.3447000000000001,-158.5891367148706
-0.3437,-157.7403099349516
-0.3427000000000001,-155.47677185516753
-0.3417,-153.21323377538346
-0.3407000000000001,-152.22293586547795
-0.3397,-152.0814647354914
-0.3387000000000001,-151.09116682558593
-0.3377,-149.8179266557074
-0.3367000000000001,-147.55438857592333
-0.3357,-145.00790823616626
-0.3347000000000001,-143.4517258063147
-0.3337,-142.8858412863687
-0.3327000000000001,-142.31995676642268
-0.3317,-140.46668496359948
-0.3307000000000001,-138.68414872576955
-0.3297,-136.7318471319558
-0.3287000000000001,-134.8502811031353
-0.3277,-133.83168896723245
-0.3267000000000001,-132.86968528332423
-0.3257,-132.03500561640385
-0.3247000000000001,-130.64858854253615
-0.3237,-128.85190519170752
-0.3227000000000001,-127.4937823438371
-0.3217,-125.89515857498962
-0.3207000000000001,-124.32482903213943
-0.3197,-123.1364715402528
-0.3187000000000001,-122.31593898633106
-0.3177,-121.49540643240935
-0.3167000000000001,-120.00995956755105
-0.3157,-117.8030099397616
-0.3147000000000001,-115.99217947593435
-0.3137,-115.11505847001803
-0.3127000000000001,-114.53502683707337
-0.3117,-113.50228758817191
-0.3107000000000001,-112.05928206230955
-0.3097,-110.99824858741079
-0.3087000000000001,-109.3147421405714
-0.3077,-107.41902899875224
-0.3067000000000001,-106.21652439386696
-0.30569999999999997,-105.891140794898
-0.3047000000000001,-105.28281493595603
-0.30369999999999997,-104.13689878306535
-0.3027000000000001,-102.66559903120572
-0.30169999999999997,-100.86891568037711
-0.3007000000000001,-99.59567551049858
-0.29969999999999997,-98.87417274756741
-0.2987000000000001,-98.20925843663085
-0.29769999999999996,-96.95016537975096
-0.2967000000000001,-95.81839633985894
-0.29569999999999996,-94.16318411901683
-0.2947000000000001,-92.2108825252031
-0.29369999999999996,-90.6971414343475
-0.29270000000000007,-89.62196084645008
-0.29169999999999996,-88.87216385752161
-0.29070000000000007,-87.62721791364037
-0.28969999999999996,-86.33983063076319
-0.28870000000000007,-85.50515096384281
-0.28769999999999996,-84.23191079396429
-0.28670000000000007,-82.47766878213164
-0.28569999999999995,-81.24686995124905
-0.28470000000000006,-80.49707296232059
-0.28369999999999995,-79.64824618240156
-0.28270000000000006,-78.58721270750279
-0.28169999999999995,-77.62520902359456
-0.28070000000000006,-76.26708617572413
-0.27969999999999995,-74.9089633278537
-0.27870000000000006,-73.62157604497652
-0.27769999999999995,-72.46151277908717
-0.27670000000000006,-71.93806959813712
-0.27569999999999995,-71.04680147922215
-0.27470000000000006,-69.16523545040164
-0.27369999999999994,-67.82125971552985
-0.27270000000000005,-67.35440498657438
-0.27169999999999994,-66.77437335362974
-0.27070000000000005,-65.57186874874445
-0.26969999999999994,-64.0439805448902
-0.26870000000000005,-63.11027108697928
