Mar. 8, 2025   11:28:39
Cyclic Voltammetry
File: c:/users/guazh/data/banditlqround7_x0exp169_r20_3/2025-03-03-exp908\exp908-2025-03-08t11_21_13-h2koh\exp908_cv_sr_500mvs_efin_-1400mv.bin
Data Source:  Experiment
Instrument Model:  CHI760E
Header: CV ran at 500 mVs
Note: 

Init E (V) = -1
High E (V) = -1
Low E (V) = -1.4
Final E (V) = -1
Init P/N = N
Scan Rate (V/s) = 0.5
Segment = 3
Sample Interval (V) = 0.001
Quiet Time (sec) = 2
Sensitivity (A/V) = 0.01
Comp R (ohm) = 1.3

Results:

Channel 1:
Segment 1:

Segment 2:

Segment 3:

Potential/V, Current/A

-1.000, -1.834e-5
-1.001, 1.019e-4
-1.002, 2.036e-4
-1.003, 2.961e-4
-1.004, 3.855e-4
-1.005, 4.688e-4
-1.006, 5.520e-4
-1.007, 6.291e-4
-1.008, 7.062e-4
-1.009, 7.771e-4
-1.010, 8.449e-4
-1.011, 9.066e-4
-1.012, 9.621e-4
-1.013, 1.008e-3
-1.014, 1.055e-3
-1.015, 1.098e-3
-1.016, 1.138e-3
-1.017, 1.181e-3
-1.018, 1.221e-3
-1.019, 1.264e-3
-1.020, 1.304e-3
-1.021, 1.344e-3
-1.022, 1.384e-3
-1.023, 1.425e-3
-1.024, 1.455e-3
-1.025, 1.483e-3
-1.026, 1.505e-3
-1.027, 1.523e-3
-1.028, 1.545e-3
-1.029, 1.563e-3
-1.030, 1.585e-3
-1.031, 1.610e-3
-1.032, 1.628e-3
-1.033, 1.647e-3
-1.034, 1.668e-3
-1.035, 1.687e-3
-1.036, 1.708e-3
-1.037, 1.730e-3
-1.038, 1.751e-3
-1.039, 1.773e-3
-1.040, 1.798e-3
-1.041, 1.819e-3
-1.042, 1.838e-3
-1.043, 1.856e-3
-1.044, 1.869e-3
-1.045, 1.878e-3
-1.046, 1.887e-3
-1.047, 1.899e-3
-1.048, 1.918e-3
-1.049, 1.933e-3
-1.050, 1.946e-3
-1.051, 1.949e-3
-1.052, 1.949e-3
-1.053, 1.949e-3
-1.054, 1.949e-3
-1.055, 1.955e-3
-1.056, 1.967e-3
-1.057, 1.986e-3
-1.058, 2.001e-3
-1.059, 2.017e-3
-1.060, 2.029e-3
-1.061, 2.041e-3
-1.062, 2.050e-3
-1.063, 2.060e-3
-1.064, 2.063e-3
-1.065, 2.066e-3
-1.066, 2.066e-3
-1.067, 2.060e-3
-1.068, 2.060e-3
-1.069, 2.063e-3
-1.070, 2.072e-3
-1.071, 2.084e-3
-1.072, 2.100e-3
-1.073, 2.115e-3
-1.074, 2.131e-3
-1.075, 2.143e-3
-1.076, 2.155e-3
-1.077, 2.158e-3
-1.078, 2.161e-3
-1.079, 2.155e-3
-1.080, 2.149e-3
-1.081, 2.143e-3
-1.082, 2.137e-3
-1.083, 2.137e-3
-1.084, 2.143e-3
-1.085, 2.155e-3
-1.086, 2.171e-3
-1.087, 2.186e-3
-1.088, 2.198e-3
-1.089, 2.211e-3
-1.090, 2.220e-3
-1.091, 2.232e-3
-1.092, 2.242e-3
-1.093, 2.248e-3
-1.094, 2.245e-3
-1.095, 2.235e-3
-1.096, 2.220e-3
-1.097, 2.211e-3
-1.098, 2.208e-3
-1.099, 2.211e-3
-1.100, 2.217e-3
-1.101, 2.229e-3
-1.102, 2.242e-3
-1.103, 2.254e-3
-1.104, 2.260e-3
-1.105, 2.266e-3
-1.106, 2.275e-3
-1.107, 2.285e-3
-1.108, 2.294e-3
-1.109, 2.294e-3
-1.110, 2.291e-3
-1.111, 2.279e-3
-1.112, 2.266e-3
-1.113, 2.260e-3
-1.114, 2.260e-3
-1.115, 2.269e-3
-1.116, 2.288e-3
-1.117, 2.306e-3
-1.118, 2.325e-3
-1.119, 2.340e-3
-1.120, 2.349e-3
-1.121, 2.356e-3
-1.122, 2.353e-3
-1.123, 2.353e-3
-1.124, 2.356e-3
-1.125, 2.362e-3
-1.126, 2.365e-3
-1.127, 2.362e-3
-1.128, 2.356e-3
-1.129, 2.346e-3
-1.130, 2.337e-3
-1.131, 2.331e-3
-1.132, 2.331e-3
-1.133, 2.334e-3
-1.134, 2.340e-3
-1.135, 2.349e-3
-1.136, 2.356e-3
-1.137, 2.365e-3
-1.138, 2.371e-3
-1.139, 2.380e-3
-1.140, 2.383e-3
-1.141, 2.383e-3
-1.142, 2.386e-3
-1.143, 2.386e-3
-1.144, 2.393e-3
-1.145, 2.396e-3
-1.146, 2.399e-3
-1.147, 2.399e-3
-1.148, 2.396e-3
-1.149, 2.390e-3
-1.150, 2.386e-3
-1.151, 2.386e-3
-1.152, 2.393e-3
-1.153, 2.399e-3
-1.154, 2.405e-3
-1.155, 2.417e-3
-1.156, 2.433e-3
-1.157, 2.442e-3
-1.158, 2.451e-3
-1.159, 2.454e-3
-1.160, 2.454e-3
-1.161, 2.457e-3
-1.162, 2.457e-3
-1.163, 2.460e-3
-1.164, 2.460e-3
-1.165, 2.460e-3
-1.166, 2.457e-3
-1.167, 2.451e-3
-1.168, 2.448e-3
-1.169, 2.448e-3
-1.170, 2.454e-3
-1.171, 2.464e-3
-1.172, 2.473e-3
-1.173, 2.488e-3
-1.174, 2.497e-3
-1.175, 2.507e-3
-1.176, 2.513e-3
-1.177, 2.522e-3
-1.178, 2.528e-3
-1.179, 2.531e-3
-1.180, 2.534e-3
-1.181, 2.531e-3
-1.182, 2.525e-3
-1.183, 2.522e-3
-1.184, 2.525e-3
-1.185, 2.531e-3
-1.186, 2.538e-3
-1.187, 2.547e-3
-1.188, 2.550e-3
-1.189, 2.559e-3
-1.190, 2.565e-3
-1.191, 2.568e-3
-1.192, 2.568e-3
-1.193, 2.571e-3
-1.194, 2.571e-3
-1.195, 2.575e-3
-1.196, 2.578e-3
-1.197, 2.581e-3
-1.198, 2.584e-3
-1.199, 2.584e-3
-1.200, 2.587e-3
-1.201, 2.593e-3
-1.202, 2.599e-3
-1.203, 2.612e-3
-1.204, 2.624e-3
-1.205, 2.636e-3
-1.206, 2.649e-3
-1.207, 2.661e-3
-1.208, 2.667e-3
-1.209, 2.676e-3
-1.210, 2.686e-3
-1.211, 2.695e-3
-1.212, 2.704e-3
-1.213, 2.710e-3
-1.214, 2.710e-3
-1.215, 2.707e-3
-1.216, 2.707e-3
-1.217, 2.704e-3
-1.218, 2.704e-3
-1.219, 2.707e-3
-1.220, 2.713e-3
-1.221, 2.723e-3
-1.222, 2.735e-3
-1.223, 2.753e-3
-1.224, 2.766e-3
-1.225, 2.775e-3
-1.226, 2.781e-3
-1.227, 2.787e-3
-1.228, 2.803e-3
-1.229, 2.815e-3
-1.230, 2.824e-3
-1.231, 2.827e-3
-1.232, 2.824e-3
-1.233, 2.821e-3
-1.234, 2.815e-3
-1.235, 2.812e-3
-1.236, 2.815e-3
-1.237, 2.821e-3
-1.238, 2.837e-3
-1.239, 2.858e-3
-1.240, 2.883e-3
-1.241, 2.904e-3
-1.242, 2.920e-3
-1.243, 2.926e-3
-1.244, 2.935e-3
-1.245, 2.945e-3
-1.246, 2.957e-3
-1.247, 2.966e-3
-1.248, 2.972e-3
-1.249, 2.972e-3
-1.250, 2.966e-3
-1.251, 2.963e-3
-1.252, 2.966e-3
-1.253, 2.975e-3
-1.254, 2.988e-3
-1.255, 3.006e-3
-1.256, 3.031e-3
-1.257, 3.059e-3
-1.258, 3.086e-3
-1.259, 3.108e-3
-1.260, 3.120e-3
-1.261, 3.130e-3
-1.262, 3.139e-3
-1.263, 3.154e-3
-1.264, 3.176e-3
-1.265, 3.204e-3
-1.266, 3.225e-3
-1.267, 3.237e-3
-1.268, 3.244e-3
-1.269, 3.247e-3
-1.270, 3.250e-3
-1.271, 3.262e-3
-1.272, 3.281e-3
-1.273, 3.305e-3
-1.274, 3.333e-3
-1.275, 3.364e-3
-1.276, 3.392e-3
-1.277, 3.419e-3
-1.278, 3.444e-3
-1.279, 3.472e-3
-1.280, 3.503e-3
-1.281, 3.530e-3
-1.282, 3.552e-3
-1.283, 3.570e-3
-1.284, 3.583e-3
-1.285, 3.589e-3
-1.286, 3.604e-3
-1.287, 3.629e-3
-1.288, 3.663e-3
-1.289, 3.709e-3
-1.290, 3.762e-3
-1.291, 3.814e-3
-1.292, 3.860e-3
-1.293, 3.903e-3
-1.294, 3.934e-3
-1.295, 3.962e-3
-1.296, 3.996e-3
-1.297, 4.033e-3
-1.298, 4.073e-3
-1.299, 4.107e-3
-1.300, 4.141e-3
-1.301, 4.162e-3
-1.302, 4.184e-3
-1.303, 4.212e-3
-1.304, 4.246e-3
-1.305, 4.289e-3
-1.306, 4.344e-3
-1.307, 4.406e-3
-1.308, 4.471e-3
-1.309, 4.535e-3
-1.310, 4.597e-3
-1.311, 4.649e-3
-1.312, 4.686e-3
-1.313, 4.714e-3
-1.314, 4.745e-3
-1.315, 4.794e-3
-1.316, 4.868e-3
-1.317, 4.955e-3
-1.318, 5.044e-3
-1.319, 5.118e-3
-1.320, 5.177e-3
-1.321, 5.229e-3
-1.322, 5.275e-3
-1.323, 5.319e-3
-1.324, 5.359e-3
-1.325, 5.399e-3
-1.326, 5.448e-3
-1.327, 5.510e-3
-1.328, 5.587e-3
-1.329, 5.667e-3
-1.330, 5.759e-3
-1.331, 5.858e-3
-1.332, 5.957e-3
-1.333, 6.046e-3
-1.334, 6.117e-3
-1.335, 6.166e-3
-1.336, 6.203e-3
-1.337, 6.240e-3
-1.338, 6.287e-3
-1.339, 6.364e-3
-1.340, 6.469e-3
-1.341, 6.598e-3
-1.342, 6.740e-3
-1.343, 6.885e-3
-1.344, 7.017e-3
-1.345, 7.134e-3
-1.346, 7.230e-3
-1.347, 7.319e-3
-1.348, 7.418e-3
-1.349, 7.520e-3
-1.350, 7.625e-3
-1.351, 7.720e-3
-1.352, 7.807e-3
-1.353, 7.887e-3
-1.354, 7.973e-3
-1.355, 8.066e-3
-1.356, 8.170e-3
-1.357, 8.288e-3
-1.358, 8.420e-3
-1.359, 8.559e-3
-1.360, 8.695e-3
-1.361, 8.830e-3
-1.362, 8.978e-3
-1.363, 9.129e-3
-1.364, 9.277e-3
-1.365, 9.404e-3
-1.366, 9.502e-3
-1.367, 9.570e-3
-1.368, 9.626e-3
-1.369, 9.681e-3
-1.370, 9.758e-3
-1.371, 9.863e-3
-1.372, 9.993e-3
-1.373, 1.014e-2
-1.374, 1.030e-2
-1.375, 1.046e-2
-1.376, 1.062e-2
-1.377, 1.077e-2
-1.378, 1.089e-2
-1.379, 1.099e-2
-1.380, 1.107e-2
-1.381, 1.119e-2
-1.382, 1.133e-2
-1.383, 1.149e-2
-1.384, 1.164e-2
-1.385, 1.177e-2
-1.386, 1.185e-2
-1.387, 1.192e-2
-1.388, 1.198e-2
-1.389, 1.205e-2
-1.390, 1.214e-2
-1.391, 1.227e-2
-1.392, 1.243e-2
-1.393, 1.261e-2
-1.394, 1.280e-2
-1.395, 1.300e-2
-1.396, 1.317e-2
-1.397, 1.333e-2
-1.398, 1.345e-2
-1.399, 1.355e-2
-1.400, 1.358e-2
-1.399, 1.348e-2
-1.398, 1.338e-2
-1.397, 1.329e-2
-1.396, 1.318e-2
-1.395, 1.305e-2
-1.394, 1.293e-2
-1.393, 1.281e-2
-1.392, 1.271e-2
-1.391, 1.264e-2
-1.390, 1.257e-2
-1.389, 1.251e-2
-1.388, 1.245e-2
-1.387, 1.238e-2
-1.386, 1.229e-2
-1.385, 1.219e-2
-1.384, 1.211e-2
-1.383, 1.204e-2
-1.382, 1.195e-2
-1.381, 1.183e-2
-1.380, 1.169e-2
-1.379, 1.154e-2
-1.378, 1.139e-2
-1.377, 1.125e-2
-1.376, 1.115e-2
-1.375, 1.107e-2
-1.374, 1.102e-2
-1.373, 1.097e-2
-1.372, 1.093e-2
-1.371, 1.087e-2
-1.370, 1.081e-2
-1.369, 1.076e-2
-1.368, 1.071e-2
-1.367, 1.065e-2
-1.366, 1.057e-2
-1.365, 1.047e-2
-1.364, 1.034e-2
-1.363, 1.020e-2
-1.362, 1.008e-2
-1.361, 9.974e-3
-1.360, 9.891e-3
-1.359, 9.820e-3
-1.358, 9.755e-3
-1.357, 9.681e-3
-1.356, 9.598e-3
-1.355, 9.505e-3
-1.354, 9.407e-3
-1.353, 9.293e-3
-1.352, 9.175e-3
-1.351, 9.074e-3
-1.350, 8.997e-3
-1.349, 8.935e-3
-1.348, 8.870e-3
-1.347, 8.799e-3
-1.346, 8.707e-3
-1.345, 8.596e-3
-1.344, 8.485e-3
-1.343, 8.374e-3
-1.342, 8.275e-3
-1.341, 8.195e-3
-1.340, 8.121e-3
-1.339, 8.056e-3
-1.338, 7.998e-3
-1.337, 7.936e-3
-1.336, 7.874e-3
-1.335, 7.804e-3
-1.334, 7.720e-3
-1.333, 7.628e-3
-1.332, 7.541e-3
-1.331, 7.458e-3
-1.330, 7.366e-3
-1.329, 7.270e-3
-1.328, 7.162e-3
-1.327, 7.048e-3
-1.326, 6.931e-3
-1.325, 6.814e-3
-1.324, 6.706e-3
-1.323, 6.610e-3
-1.322, 6.533e-3
-1.321, 6.469e-3
-1.320, 6.413e-3
-1.319, 6.364e-3
-1.318, 6.302e-3
-1.317, 6.237e-3
-1.316, 6.173e-3
-1.315, 6.114e-3
-1.314, 6.049e-3
-1.313, 5.972e-3
-1.312, 5.883e-3
-1.311, 5.778e-3
-1.310, 5.667e-3
-1.309, 5.562e-3
-1.308, 5.463e-3
-1.307, 5.380e-3
-1.306, 5.303e-3
-1.305, 5.235e-3
-1.304, 5.174e-3
-1.303, 5.112e-3
-1.302, 5.047e-3
-1.301, 4.976e-3
-1.300, 4.899e-3
-1.299, 4.828e-3
-1.298, 4.757e-3
-1.297, 4.686e-3
-1.296, 4.612e-3
-1.295, 4.526e-3
-1.294, 4.437e-3
-1.293, 4.347e-3
-1.292, 4.261e-3
-1.291, 4.187e-3
-1.290, 4.122e-3
-1.289, 4.054e-3
-1.288, 3.993e-3
-1.287, 3.928e-3
-1.286, 3.869e-3
-1.285, 3.811e-3
-1.284, 3.746e-3
-1.283, 3.681e-3
-1.282, 3.620e-3
-1.281, 3.552e-3
-1.280, 3.478e-3
-1.279, 3.407e-3
-1.278, 3.330e-3
-1.277, 3.253e-3
-1.276, 3.179e-3
-1.275, 3.111e-3
-1.274, 3.043e-3
-1.273, 2.975e-3
-1.272, 2.904e-3
-1.271, 2.830e-3
-1.270, 2.763e-3
-1.269, 2.698e-3
-1.268, 2.636e-3
-1.267, 2.578e-3
-1.266, 2.516e-3
-1.265, 2.454e-3
-1.264, 2.396e-3
-1.263, 2.343e-3
-1.262, 2.294e-3
-1.261, 2.245e-3
-1.260, 2.186e-3
-1.259, 2.124e-3
-1.258, 2.054e-3
-1.257, 1.980e-3
-1.256, 1.909e-3
-1.255, 1.841e-3
-1.254, 1.782e-3
-1.253, 1.730e-3
-1.252, 1.684e-3
-1.251, 1.640e-3
-1.250, 1.594e-3
-1.249, 1.548e-3
-1.248, 1.499e-3
-1.247, 1.446e-3
-1.246, 1.394e-3
-1.245, 1.338e-3
-1.244, 1.283e-3
-1.243, 1.224e-3
-1.242, 1.169e-3
-1.241, 1.110e-3
-1.240, 1.058e-3
-1.239, 1.002e-3
-1.238, 9.528e-4
-1.237, 9.066e-4
-1.236, 8.603e-4
-1.235, 8.203e-4
-1.234, 7.802e-4
-1.233, 7.339e-4
-1.232, 6.908e-4
-1.231, 6.445e-4
-1.230, 5.952e-4
-1.229, 5.459e-4
-1.228, 4.996e-4
-1.227, 4.565e-4
-1.226, 4.133e-4
-1.225, 3.701e-4
-1.224, 3.300e-4
-1.223, 2.869e-4
-1.222, 2.437e-4
-1.221, 2.006e-4
-1.220, 1.605e-4
-1.219, 1.204e-4
-1.218, 8.340e-5
-1.217, 4.640e-5
-1.216, 9.405e-6
-1.215, -2.759e-5
-1.214, -6.767e-5
-1.213, -1.078e-4
-1.212, -1.448e-4
-1.211, -1.817e-4
-1.210, -2.157e-4
-1.209, -2.465e-4
-1.208, -2.804e-4
-1.207, -3.143e-4
-1.206, -3.482e-4
-1.205, -3.821e-4
-1.204, -4.161e-4
-1.203, -4.500e-4
-1.202, -4.808e-4
-1.201, -5.116e-4
-1.200, -5.425e-4
-1.199, -5.733e-4
-1.198, -6.072e-4
-1.197, -6.411e-4
-1.196, -6.720e-4
-1.195, -6.997e-4
-1.194, -7.244e-4
-1.193, -7.490e-4
-1.192, -7.706e-4
-1.191, -7.984e-4
-1.190, -8.261e-4
-1.189, -8.569e-4
-1.188, -8.878e-4
-1.187, -9.155e-4
-1.186, -9.433e-4
-1.185, -9.679e-4
-1.184, -9.926e-4
-1.183, -1.014e-3
-1.182, -1.042e-3
-1.181, -1.070e-3
-1.180, -1.101e-3
-1.179, -1.128e-3
-1.178, -1.153e-3
-1.177, -1.171e-3
-1.176, -1.187e-3
-1.175, -1.205e-3
-1.174, -1.221e-3
-1.173, -1.249e-3
-1.172, -1.276e-3
-1.171, -1.304e-3
-1.170, -1.335e-3
-1.169, -1.363e-3
-1.168, -1.387e-3
-1.167, -1.409e-3
-1.166, -1.427e-3
-1.165, -1.449e-3
-1.164, -1.470e-3
-1.163, -1.495e-3
-1.162, -1.520e-3
-1.161, -1.541e-3
-1.160, -1.557e-3
-1.159, -1.569e-3
-1.158, -1.578e-3
-1.157, -1.588e-3
-1.156, -1.600e-3
-1.155, -1.612e-3
-1.154, -1.628e-3
-1.153, -1.643e-3
-1.152, -1.662e-3
-1.151, -1.677e-3
-1.150, -1.699e-3
-1.149, -1.717e-3
-1.148, -1.739e-3
-1.147, -1.754e-3
-1.146, -1.766e-3
-1.145, -1.773e-3
-1.144, -1.779e-3
-1.143, -1.788e-3
-1.142, -1.797e-3
-1.141, -1.810e-3
-1.140, -1.819e-3
-1.139, -1.822e-3
-1.138, -1.825e-3
-1.137, -1.825e-3
-1.136, -1.825e-3
-1.135, -1.831e-3
-1.134, -1.837e-3
-1.133, -1.847e-3
-1.132, -1.853e-3
-1.131, -1.862e-3
-1.130, -1.868e-3
-1.129, -1.868e-3
-1.128, -1.868e-3
-1.127, -1.868e-3
-1.126, -1.868e-3
-1.125, -1.877e-3
-1.124, -1.899e-3
-1.123, -1.924e-3
-1.122, -1.945e-3
-1.121, -1.967e-3
-1.120, -1.982e-3
-1.119, -1.995e-3
-1.118, -2.007e-3
-1.117, -2.013e-3
-1.116, -2.019e-3
-1.115, -2.029e-3
-1.114, -2.041e-3
-1.113, -2.062e-3
-1.112, -2.084e-3
-1.111, -2.103e-3
-1.110, -2.121e-3
-1.109, -2.130e-3
-1.108, -2.136e-3
-1.107, -2.130e-3
-1.106, -2.124e-3
-1.105, -2.115e-3
-1.104, -2.106e-3
-1.103, -2.103e-3
-1.102, -2.103e-3
-1.101, -2.112e-3
-1.100, -2.130e-3
-1.099, -2.152e-3
-1.098, -2.180e-3
-1.097, -2.201e-3
-1.096, -2.217e-3
-1.095, -2.232e-3
-1.094, -2.241e-3
-1.093, -2.241e-3
-1.092, -2.232e-3
-1.091, -2.223e-3
-1.090, -2.214e-3
-1.089, -2.204e-3
-1.088, -2.207e-3
-1.087, -2.220e-3
-1.086, -2.235e-3
-1.085, -2.257e-3
-1.084, -2.275e-3
-1.083, -2.297e-3
-1.082, -2.318e-3
-1.081, -2.340e-3
-1.080, -2.352e-3
-1.079, -2.355e-3
-1.078, -2.358e-3
-1.077, -2.358e-3
-1.076, -2.368e-3
-1.075, -2.377e-3
-1.074, -2.386e-3
-1.073, -2.395e-3
-1.072, -2.402e-3
-1.071, -2.408e-3
-1.070, -2.414e-3
-1.069, -2.420e-3
-1.068, -2.426e-3
-1.067, -2.429e-3
-1.066, -2.439e-3
-1.065, -2.451e-3
-1.064, -2.466e-3
-1.063, -2.482e-3
-1.062, -2.488e-3
-1.061, -2.488e-3
-1.060, -2.488e-3
-1.059, -2.488e-3
-1.058, -2.494e-3
-1.057, -2.494e-3
-1.056, -2.491e-3
-1.055, -2.488e-3
-1.054, -2.482e-3
-1.053, -2.476e-3
-1.052, -2.466e-3
-1.051, -2.460e-3
-1.050, -2.457e-3
-1.049, -2.451e-3
-1.048, -2.448e-3
-1.047, -2.448e-3
-1.046, -2.445e-3
-1.045, -2.448e-3
-1.044, -2.454e-3
-1.043, -2.457e-3
-1.042, -2.476e-3
-1.041, -2.497e-3
-1.040, -2.522e-3
-1.039, -2.546e-3
-1.038, -2.565e-3
-1.037, -2.571e-3
-1.036, -2.574e-3
-1.035, -2.571e-3
-1.034, -2.571e-3
-1.033, -2.571e-3
-1.032, -2.580e-3
-1.031, -2.593e-3
-1.030, -2.611e-3
-1.029, -2.627e-3
-1.028, -2.642e-3
-1.027, -2.648e-3
-1.026, -2.651e-3
-1.025, -2.648e-3
-1.024, -2.645e-3
-1.023, -2.645e-3
-1.022, -2.648e-3
-1.021, -2.651e-3
-1.020, -2.654e-3
-1.019, -2.654e-3
-1.018, -2.651e-3
-1.017, -2.645e-3
-1.016, -2.645e-3
-1.015, -2.651e-3
-1.014, -2.661e-3
-1.013, -2.679e-3
-1.012, -2.701e-3
-1.011, -2.722e-3
-1.010, -2.744e-3
-1.009, -2.759e-3
-1.008, -2.778e-3
-1.007, -2.793e-3
-1.006, -2.809e-3
-1.005, -2.821e-3
-1.004, -2.821e-3
-1.003, -2.812e-3
-1.002, -2.799e-3
-1.001, -2.787e-3
