Apr. 18, 2025   17:10:13
Linear Sweep Voltammetry
File: c:/users/guazh/data/banditlqround7_x0exp590_r20/2025-04-16-exp1119\1acid_1ac-2025-04-18t17_07_01-lsvinphos\1acid_1ac_lsv_50mvs_efin_-2100mv.bin
Data Source:  Experiment
Instrument Model:  CHI760E
Header: LSV ran at 50 mVs with Efin at -2100mV
Note: 

Init E (V) = -0.6
Final E (V) = -2.1
Scan Rate (V/s) = 0.05
Sample Interval (V) = 0.001
Quiet Time (sec) = 2
Sensitivity (A/V) = 1e-4
Comp R (ohm) = 9.2

Results:

Channel 1:
Ep = -1.807V
ip = 4.762e-4A
Ah = 6.447e-4C

Potential/V, Current/A

-0.600, 2.112e-5
-0.601, 2.167e-5
-0.602, 2.190e-5
-0.603, 2.197e-5
-0.604, 2.202e-5
-0.605, 2.205e-5
-0.606, 2.212e-5
-0.607, 2.215e-5
-0.608, 2.215e-5
-0.609, 2.217e-5
-0.610, 2.220e-5
-0.611, 2.224e-5
-0.612, 2.225e-5
-0.613, 2.226e-5
-0.614, 2.226e-5
-0.615, 2.228e-5
-0.616, 2.231e-5
-0.617, 2.233e-5
-0.618, 2.234e-5
-0.619, 2.231e-5
-0.620, 2.235e-5
-0.621, 2.237e-5
-0.622, 2.238e-5
-0.623, 2.238e-5
-0.624, 2.239e-5
-0.625, 2.241e-5
-0.626, 2.242e-5
-0.627, 2.244e-5
-0.628, 2.243e-5
-0.629, 2.241e-5
-0.630, 2.243e-5
-0.631, 2.246e-5
-0.632, 2.247e-5
-0.633, 2.245e-5
-0.634, 2.246e-5
-0.635, 2.247e-5
-0.636, 2.250e-5
-0.637, 2.248e-5
-0.638, 2.248e-5
-0.639, 2.248e-5
-0.640, 2.248e-5
-0.641, 2.252e-5
-0.642, 2.253e-5
-0.643, 2.250e-5
-0.644, 2.249e-5
-0.645, 2.252e-5
-0.646, 2.254e-5
-0.647, 2.253e-5
-0.648, 2.253e-5
-0.649, 2.252e-5
-0.650, 2.252e-5
-0.651, 2.255e-5
-0.652, 2.255e-5
-0.653, 2.254e-5
-0.654, 2.254e-5
-0.655, 2.256e-5
-0.656, 2.257e-5
-0.657, 2.256e-5
-0.658, 2.255e-5
-0.659, 2.255e-5
-0.660, 2.255e-5
-0.661, 2.257e-5
-0.662, 2.258e-5
-0.663, 2.256e-5
-0.664, 2.256e-5
-0.665, 2.258e-5
-0.666, 2.259e-5
-0.667, 2.259e-5
-0.668, 2.258e-5
-0.669, 2.256e-5
-0.670, 2.257e-5
-0.671, 2.259e-5
-0.672, 2.258e-5
-0.673, 2.257e-5
-0.674, 2.255e-5
-0.675, 2.257e-5
-0.676, 2.258e-5
-0.677, 2.259e-5
-0.678, 2.257e-5
-0.679, 2.255e-5
-0.680, 2.256e-5
-0.681, 2.258e-5
-0.682, 2.258e-5
-0.683, 2.255e-5
-0.684, 2.255e-5
-0.685, 2.256e-5
-0.686, 2.257e-5
-0.687, 2.257e-5
-0.688, 2.254e-5
-0.689, 2.254e-5
-0.690, 2.253e-5
-0.691, 2.255e-5
-0.692, 2.256e-5
-0.693, 2.253e-5
-0.694, 2.253e-5
-0.695, 2.253e-5
-0.696, 2.255e-5
-0.697, 2.255e-5
-0.698, 2.252e-5
-0.699, 2.250e-5
-0.700, 2.252e-5
-0.701, 2.253e-5
-0.702, 2.253e-5
-0.703, 2.250e-5
-0.704, 2.249e-5
-0.705, 2.251e-5
-0.706, 2.251e-5
-0.707, 2.251e-5
-0.708, 2.247e-5
-0.709, 2.247e-5
-0.710, 2.248e-5
-0.711, 2.251e-5
-0.712, 2.250e-5
-0.713, 2.247e-5
-0.714, 2.246e-5
-0.715, 2.244e-5
-0.716, 2.246e-5
-0.717, 2.246e-5
-0.718, 2.244e-5
-0.719, 2.242e-5
-0.720, 2.243e-5
-0.721, 2.245e-5
-0.722, 2.244e-5
-0.723, 2.242e-5
-0.724, 2.241e-5
-0.725, 2.241e-5
-0.726, 2.242e-5
-0.727, 2.241e-5
-0.728, 2.239e-5
-0.729, 2.237e-5
-0.730, 2.238e-5
-0.731, 2.239e-5
-0.732, 2.239e-5
-0.733, 2.237e-5
-0.734, 2.236e-5
-0.735, 2.236e-5
-0.736, 2.239e-5
-0.737, 2.237e-5
-0.738, 2.234e-5
-0.739, 2.233e-5
-0.740, 2.233e-5
-0.741, 2.235e-5
-0.742, 2.234e-5
-0.743, 2.232e-5
-0.744, 2.231e-5
-0.745, 2.233e-5
-0.746, 2.234e-5
-0.747, 2.233e-5
-0.748, 2.230e-5
-0.749, 2.228e-5
-0.750, 2.230e-5
-0.751, 2.229e-5
-0.752, 2.230e-5
-0.753, 2.227e-5
-0.754, 2.227e-5
-0.755, 2.227e-5
-0.756, 2.229e-5
-0.757, 2.227e-5
-0.758, 2.226e-5
-0.759, 2.223e-5
-0.760, 2.224e-5
-0.761, 2.226e-5
-0.762, 2.226e-5
-0.763, 2.224e-5
-0.764, 2.223e-5
-0.765, 2.221e-5
-0.766, 2.223e-5
-0.767, 2.226e-5
-0.768, 2.222e-5
-0.769, 2.220e-5
-0.770, 2.220e-5
-0.771, 2.221e-5
-0.772, 2.222e-5
-0.773, 2.219e-5
-0.774, 2.217e-5
-0.775, 2.217e-5
-0.776, 2.220e-5
-0.777, 2.221e-5
-0.778, 2.218e-5
-0.779, 2.215e-5
-0.780, 2.216e-5
-0.781, 2.216e-5
-0.782, 2.216e-5
-0.783, 2.214e-5
-0.784, 2.211e-5
-0.785, 2.212e-5
-0.786, 2.214e-5
-0.787, 2.214e-5
-0.788, 2.212e-5
-0.789, 2.209e-5
-0.790, 2.208e-5
-0.791, 2.210e-5
-0.792, 2.210e-5
-0.793, 2.207e-5
-0.794, 2.206e-5
-0.795, 2.206e-5
-0.796, 2.208e-5
-0.797, 2.206e-5
-0.798, 2.204e-5
-0.799, 2.201e-5
-0.800, 2.200e-5
-0.801, 2.202e-5
-0.802, 2.202e-5
-0.803, 2.200e-5
-0.804, 2.197e-5
-0.805, 2.197e-5
-0.806, 2.198e-5
-0.807, 2.198e-5
-0.808, 2.195e-5
-0.809, 2.192e-5
-0.810, 2.194e-5
-0.811, 2.195e-5
-0.812, 2.193e-5
-0.813, 2.192e-5
-0.814, 2.190e-5
-0.815, 2.189e-5
-0.816, 2.190e-5
-0.817, 2.191e-5
-0.818, 2.188e-5
-0.819, 2.185e-5
-0.820, 2.185e-5
-0.821, 2.187e-5
-0.822, 2.185e-5
-0.823, 2.183e-5
-0.824, 2.180e-5
-0.825, 2.182e-5
-0.826, 2.185e-5
-0.827, 2.187e-5
-0.828, 2.183e-5
-0.829, 2.176e-5
-0.830, 2.178e-5
-0.831, 2.179e-5
-0.832, 2.179e-5
-0.833, 2.174e-5
-0.834, 2.172e-5
-0.835, 2.173e-5
-0.836, 2.174e-5
-0.837, 2.173e-5
-0.838, 2.172e-5
-0.839, 2.169e-5
-0.840, 2.170e-5
-0.841, 2.171e-5
-0.842, 2.172e-5
-0.843, 2.170e-5
-0.844, 2.166e-5
-0.845, 2.168e-5
-0.846, 2.169e-5
-0.847, 2.169e-5
-0.848, 2.168e-5
-0.849, 2.165e-5
-0.850, 2.164e-5
-0.851, 2.165e-5
-0.852, 2.166e-5
-0.853, 2.163e-5
-0.854, 2.161e-5
-0.855, 2.162e-5
-0.856, 2.164e-5
-0.857, 2.163e-5
-0.858, 2.163e-5
-0.859, 2.162e-5
-0.860, 2.160e-5
-0.861, 2.162e-5
-0.862, 2.164e-5
-0.863, 2.161e-5
-0.864, 2.158e-5
-0.865, 2.159e-5
-0.866, 2.160e-5
-0.867, 2.161e-5
-0.868, 2.160e-5
-0.869, 2.159e-5
-0.870, 2.159e-5
-0.871, 2.161e-5
-0.872, 2.160e-5
-0.873, 2.159e-5
-0.874, 2.158e-5
-0.875, 2.158e-5
-0.876, 2.160e-5
-0.877, 2.160e-5
-0.878, 2.158e-5
-0.879, 2.156e-5
-0.880, 2.157e-5
-0.881, 2.158e-5
-0.882, 2.161e-5
-0.883, 2.159e-5
-0.884, 2.155e-5
-0.885, 2.154e-5
-0.886, 2.159e-5
-0.887, 2.159e-5
-0.888, 2.154e-5
-0.889, 2.153e-5
-0.890, 2.153e-5
-0.891, 2.155e-5
-0.892, 2.155e-5
-0.893, 2.152e-5
-0.894, 2.151e-5
-0.895, 2.152e-5
-0.896, 2.154e-5
-0.897, 2.155e-5
-0.898, 2.152e-5
-0.899, 2.151e-5
-0.900, 2.148e-5
-0.901, 2.149e-5
-0.902, 2.151e-5
-0.903, 2.149e-5
-0.904, 2.147e-5
-0.905, 2.149e-5
-0.906, 2.150e-5
-0.907, 2.151e-5
-0.908, 2.148e-5
-0.909, 2.147e-5
-0.910, 2.148e-5
-0.911, 2.149e-5
-0.912, 2.149e-5
-0.913, 2.147e-5
-0.914, 2.143e-5
-0.915, 2.145e-5
-0.916, 2.148e-5
-0.917, 2.147e-5
-0.918, 2.144e-5
-0.919, 2.143e-5
-0.920, 2.143e-5
-0.921, 2.144e-5
-0.922, 2.146e-5
-0.923, 2.144e-5
-0.924, 2.143e-5
-0.925, 2.143e-5
-0.926, 2.145e-5
-0.927, 2.146e-5
-0.928, 2.144e-5
-0.929, 2.142e-5
-0.930, 2.142e-5
-0.931, 2.145e-5
-0.932, 2.146e-5
-0.933, 2.144e-5
-0.934, 2.142e-5
-0.935, 2.143e-5
-0.936, 2.146e-5
-0.937, 2.146e-5
-0.938, 2.143e-5
-0.939, 2.141e-5
-0.940, 2.143e-5
-0.941, 2.146e-5
-0.942, 2.148e-5
-0.943, 2.146e-5
-0.944, 2.144e-5
-0.945, 2.145e-5
-0.946, 2.147e-5
-0.947, 2.149e-5
-0.948, 2.148e-5
-0.949, 2.147e-5
-0.950, 2.150e-5
-0.951, 2.154e-5
-0.952, 2.156e-5
-0.953, 2.156e-5
-0.954, 2.157e-5
-0.955, 2.159e-5
-0.956, 2.163e-5
-0.957, 2.165e-5
-0.958, 2.167e-5
-0.959, 2.164e-5
-0.960, 2.166e-5
-0.961, 2.172e-5
-0.962, 2.175e-5
-0.963, 2.176e-5
-0.964, 2.176e-5
-0.965, 2.179e-5
-0.966, 2.184e-5
-0.967, 2.188e-5
-0.968, 2.190e-5
-0.969, 2.191e-5
-0.970, 2.196e-5
-0.971, 2.201e-5
-0.972, 2.205e-5
-0.973, 2.209e-5
-0.974, 2.210e-5
-0.975, 2.216e-5
-0.976, 2.226e-5
-0.977, 2.230e-5
-0.978, 2.234e-5
-0.979, 2.235e-5
-0.980, 2.241e-5
-0.981, 2.248e-5
-0.982, 2.254e-5
-0.983, 2.258e-5
-0.984, 2.259e-5
-0.985, 2.264e-5
-0.986, 2.272e-5
-0.987, 2.279e-5
-0.988, 2.282e-5
-0.989, 2.285e-5
-0.990, 2.292e-5
-0.991, 2.300e-5
-0.992, 2.307e-5
-0.993, 2.311e-5
-0.994, 2.313e-5
-0.995, 2.320e-5
-0.996, 2.330e-5
-0.997, 2.336e-5
-0.998, 2.340e-5
-0.999, 2.343e-5
-1.000, 2.349e-5
-1.001, 2.358e-5
-1.002, 2.364e-5
-1.003, 2.369e-5
-1.004, 2.373e-5
-1.005, 2.381e-5
-1.006, 2.392e-5
-1.007, 2.398e-5
-1.008, 2.400e-5
-1.009, 2.403e-5
-1.010, 2.409e-5
-1.011, 2.418e-5
-1.012, 2.427e-5
-1.013, 2.430e-5
-1.014, 2.433e-5
-1.015, 2.439e-5
-1.016, 2.448e-5
-1.017, 2.455e-5
-1.018, 2.459e-5
-1.019, 2.463e-5
-1.020, 2.469e-5
-1.021, 2.476e-5
-1.022, 2.485e-5
-1.023, 2.488e-5
-1.024, 2.491e-5
-1.025, 2.496e-5
-1.026, 2.504e-5
-1.027, 2.510e-5
-1.028, 2.514e-5
-1.029, 2.517e-5
-1.030, 2.523e-5
-1.031, 2.532e-5
-1.032, 2.539e-5
-1.033, 2.543e-5
-1.034, 2.545e-5
-1.035, 2.551e-5
-1.036, 2.561e-5
-1.037, 2.568e-5
-1.038, 2.572e-5
-1.039, 2.577e-5
-1.040, 2.583e-5
-1.041, 2.592e-5
-1.042, 2.599e-5
-1.043, 2.605e-5
-1.044, 2.607e-5
-1.045, 2.613e-5
-1.046, 2.622e-5
-1.047, 2.630e-5
-1.048, 2.635e-5
-1.049, 2.639e-5
-1.050, 2.646e-5
-1.051, 2.657e-5
-1.052, 2.665e-5
-1.053, 2.670e-5
-1.054, 2.675e-5
-1.055, 2.681e-5
-1.056, 2.691e-5
-1.057, 2.701e-5
-1.058, 2.706e-5
-1.059, 2.711e-5
-1.060, 2.719e-5
-1.061, 2.730e-5
-1.062, 2.739e-5
-1.063, 2.746e-5
-1.064, 2.751e-5
-1.065, 2.760e-5
-1.066, 2.771e-5
-1.067, 2.782e-5
-1.068, 2.789e-5
-1.069, 2.797e-5
-1.070, 2.807e-5
-1.071, 2.818e-5
-1.072, 2.830e-5
-1.073, 2.839e-5
-1.074, 2.846e-5
-1.075, 2.857e-5
-1.076, 2.872e-5
-1.077, 2.882e-5
-1.078, 2.891e-5
-1.079, 2.899e-5
-1.080, 2.911e-5
-1.081, 2.927e-5
-1.082, 2.941e-5
-1.083, 2.951e-5
-1.084, 2.960e-5
-1.085, 2.973e-5
-1.086, 2.989e-5
-1.087, 3.002e-5
-1.088, 3.014e-5
-1.089, 3.026e-5
-1.090, 3.040e-5
-1.091, 3.057e-5
-1.092, 3.070e-5
-1.093, 3.079e-5
-1.094, 3.093e-5
-1.095, 3.109e-5
-1.096, 3.129e-5
-1.097, 3.146e-5
-1.098, 3.160e-5
-1.099, 3.175e-5
-1.100, 3.194e-5
-1.101, 3.216e-5
-1.102, 3.239e-5
-1.103, 3.259e-5
-1.104, 3.278e-5
-1.105, 3.297e-5
-1.106, 3.318e-5
-1.107, 3.344e-5
-1.108, 3.366e-5
-1.109, 3.383e-5
-1.110, 3.405e-5
-1.111, 3.431e-5
-1.112, 3.456e-5
-1.113, 3.477e-5
-1.114, 3.500e-5
-1.115, 3.528e-5
-1.116, 3.558e-5
-1.117, 3.585e-5
-1.118, 3.611e-5
-1.119, 3.636e-5
-1.120, 3.665e-5
-1.121, 3.699e-5
-1.122, 3.732e-5
-1.123, 3.762e-5
-1.124, 3.791e-5
-1.125, 3.826e-5
-1.126, 3.862e-5
-1.127, 3.900e-5
-1.128, 3.937e-5
-1.129, 3.974e-5
-1.130, 4.011e-5
-1.131, 4.053e-5
-1.132, 4.093e-5
-1.133, 4.131e-5
-1.134, 4.222e-5
-1.135, 4.241e-5
-1.136, 4.273e-5
-1.137, 4.318e-5
-1.138, 4.359e-5
-1.139, 4.399e-5
-1.140, 4.446e-5
-1.141, 4.498e-5
-1.142, 4.551e-5
-1.143, 4.603e-5
-1.144, 4.651e-5
-1.145, 4.701e-5
-1.146, 4.757e-5
-1.147, 4.816e-5
-1.148, 4.871e-5
-1.149, 4.924e-5
-1.150, 4.981e-5
-1.151, 5.044e-5
-1.152, 5.104e-5
-1.153, 5.164e-5
-1.154, 5.217e-5
-1.155, 5.278e-5
-1.156, 5.343e-5
-1.157, 5.407e-5
-1.158, 5.466e-5
-1.159, 5.523e-5
-1.160, 5.586e-5
-1.161, 5.653e-5
-1.162, 5.714e-5
-1.163, 5.774e-5
-1.164, 5.833e-5
-1.165, 5.895e-5
-1.166, 5.959e-5
-1.167, 6.021e-5
-1.168, 6.081e-5
-1.169, 6.141e-5
-1.170, 6.200e-5
-1.171, 6.263e-5
-1.172, 6.325e-5
-1.173, 6.380e-5
-1.174, 6.435e-5
-1.175, 6.494e-5
-1.176, 6.552e-5
-1.177, 6.609e-5
-1.178, 6.663e-5
-1.179, 6.712e-5
-1.180, 6.766e-5
-1.181, 6.819e-5
-1.182, 6.872e-5
-1.183, 6.917e-5
-1.184, 6.961e-5
-1.185, 7.005e-5
-1.186, 7.052e-5
-1.187, 7.100e-5
-1.188, 7.142e-5
-1.189, 7.178e-5
-1.190, 7.218e-5
-1.191, 7.261e-5
-1.192, 7.301e-5
-1.193, 7.336e-5
-1.194, 7.366e-5
-1.195, 7.397e-5
-1.196, 7.434e-5
-1.197, 7.469e-5
-1.198, 7.495e-5
-1.199, 7.522e-5
-1.200, 7.551e-5
-1.201, 7.581e-5
-1.202, 7.611e-5
-1.203, 7.641e-5
-1.204, 7.668e-5
-1.205, 7.692e-5
-1.206, 7.722e-5
-1.207, 7.749e-5
-1.208, 7.776e-5
-1.209, 7.802e-5
-1.210, 7.825e-5
-1.211, 7.853e-5
-1.212, 7.881e-5
-1.213, 7.904e-5
-1.214, 7.923e-5
-1.215, 7.951e-5
-1.216, 7.980e-5
-1.217, 8.006e-5
-1.218, 8.027e-5
-1.219, 8.045e-5
-1.220, 8.065e-5
-1.221, 8.091e-5
-1.222, 8.117e-5
-1.223, 8.141e-5
-1.224, 8.163e-5
-1.225, 8.190e-5
-1.226, 8.219e-5
-1.227, 8.251e-5
-1.228, 8.274e-5
-1.229, 8.298e-5
-1.230, 8.322e-5
-1.231, 8.349e-5
-1.232, 8.374e-5
-1.233, 8.396e-5
-1.234, 8.417e-5
-1.235, 8.436e-5
-1.236, 8.463e-5
-1.237, 8.499e-5
-1.238, 8.525e-5
-1.239, 8.541e-5
-1.240, 8.565e-5
-1.241, 8.594e-5
-1.242, 8.620e-5
-1.243, 8.638e-5
-1.244, 8.655e-5
-1.245, 8.673e-5
-1.246, 8.697e-5
-1.247, 8.715e-5
-1.248, 8.731e-5
-1.249, 8.754e-5
-1.250, 8.771e-5
-1.251, 8.791e-5
-1.252, 8.806e-5
-1.253, 8.824e-5
-1.254, 8.836e-5
-1.255, 8.854e-5
-1.256, 8.877e-5
-1.257, 8.899e-5
-1.258, 8.917e-5
-1.259, 8.933e-5
-1.260, 8.954e-5
-1.261, 8.991e-5
-1.262, 8.999e-5
-1.263, 9.011e-5
-1.264, 9.023e-5
-1.265, 9.048e-5
-1.266, 9.067e-5
-1.267, 9.086e-5
-1.268, 9.092e-5
-1.269, 9.106e-5
-1.270, 9.126e-5
-1.271, 9.153e-5
-1.272, 9.175e-5
-1.273, 9.197e-5
-1.274, 9.207e-5
-1.275, 9.213e-5
-1.276, 9.225e-5
-1.277, 9.237e-5
-1.278, 9.245e-5
-1.279, 9.256e-5
-1.280, 9.297e-5
-1.281, 9.323e-5
-1.282, 9.324e-5
-1.283, 9.339e-5
-1.284, 9.348e-5
-1.285, 9.368e-5
-1.286, 9.384e-5
-1.287, 9.398e-5
-1.288, 9.413e-5
-1.289, 9.430e-5
-1.290, 9.453e-5
-1.291, 9.471e-5
-1.292, 9.508e-5
-1.293, 9.541e-5
-1.294, 9.566e-5
-1.295, 9.575e-5
-1.296, 9.596e-5
-1.297, 9.620e-5
-1.298, 9.633e-5
-1.299, 9.644e-5
-1.300, 9.647e-5
-1.301, 9.697e-5
-1.302, 9.740e-5
-1.303, 9.767e-5
-1.304, 9.780e-5
-1.305, 9.797e-5
-1.306, 9.852e-5
-1.307, 9.889e-5
-1.308, 9.911e-5
-1.309, 9.922e-5
-1.310, 9.941e-5
-1.311, 9.964e-5
-1.312, 9.993e-5
-1.313, 1.003e-4
-1.314, 1.004e-4
-1.315, 1.003e-4
-1.316, 1.004e-4
-1.317, 1.006e-4
-1.318, 1.009e-4
-1.319, 1.011e-4
-1.320, 1.014e-4
-1.321, 1.020e-4
-1.322, 1.025e-4
-1.323, 1.026e-4
-1.324, 1.027e-4
-1.325, 1.032e-4
-1.326, 1.035e-4
-1.327, 1.037e-4
-1.328, 1.039e-4
-1.329, 1.039e-4
-1.330, 1.041e-4
-1.331, 1.043e-4
-1.332, 1.044e-4
-1.333, 1.048e-4
-1.334, 1.051e-4
-1.335, 1.049e-4
-1.336, 1.051e-4
-1.337, 1.051e-4
-1.338, 1.053e-4
-1.339, 1.058e-4
-1.340, 1.057e-4
-1.341, 1.056e-4
-1.342, 1.059e-4
-1.343, 1.060e-4
-1.344, 1.060e-4
-1.345, 1.062e-4
-1.346, 1.058e-4
-1.347, 1.055e-4
-1.348, 1.055e-4
-1.349, 1.059e-4
-1.350, 1.061e-4
-1.351, 1.062e-4
-1.352, 1.065e-4
-1.353, 1.070e-4
-1.354, 1.070e-4
-1.355, 1.065e-4
-1.356, 1.065e-4
-1.357, 1.071e-4
-1.358, 1.068e-4
-1.359, 1.064e-4
-1.360, 1.063e-4
-1.361, 1.063e-4
-1.362, 1.073e-4
-1.363, 1.074e-4
-1.364, 1.065e-4
-1.365, 1.065e-4
-1.366, 1.069e-4
-1.367, 1.071e-4
-1.368, 1.067e-4
-1.369, 1.069e-4
-1.370, 1.069e-4
-1.371, 1.067e-4
-1.372, 1.063e-4
-1.373, 1.064e-4
-1.374, 1.063e-4
-1.375, 1.059e-4
-1.376, 1.058e-4
-1.377, 1.060e-4
-1.378, 1.057e-4
-1.379, 1.057e-4
-1.380, 1.055e-4
-1.381, 1.057e-4
-1.382, 1.059e-4
-1.383, 1.058e-4
-1.384, 1.060e-4
-1.385, 1.057e-4
-1.386, 1.057e-4
-1.387, 1.057e-4
-1.388, 1.051e-4
-1.389, 1.052e-4
-1.390, 1.054e-4
-1.391, 1.058e-4
-1.392, 1.058e-4
-1.393, 1.060e-4
-1.394, 1.057e-4
-1.395, 1.054e-4
-1.396, 1.050e-4
-1.397, 1.053e-4
-1.398, 1.053e-4
-1.399, 1.051e-4
-1.400, 1.049e-4
-1.401, 1.048e-4
-1.402, 1.049e-4
-1.403, 1.053e-4
-1.404, 1.052e-4
-1.405, 1.049e-4
-1.406, 1.048e-4
-1.407, 1.052e-4
-1.408, 1.051e-4
-1.409, 1.052e-4
-1.410, 1.051e-4
-1.411, 1.050e-4
-1.412, 1.049e-4
-1.413, 1.049e-4
-1.414, 1.047e-4
-1.415, 1.046e-4
-1.416, 1.043e-4
-1.417, 1.043e-4
-1.418, 1.041e-4
-1.419, 1.042e-4
-1.420, 1.043e-4
-1.421, 1.041e-4
-1.422, 1.040e-4
-1.423, 1.039e-4
-1.424, 1.039e-4
-1.425, 1.037e-4
-1.426, 1.040e-4
-1.427, 1.042e-4
-1.428, 1.041e-4
-1.429, 1.038e-4
-1.430, 1.036e-4
-1.431, 1.037e-4
-1.432, 1.040e-4
-1.433, 1.034e-4
-1.434, 1.030e-4
-1.435, 1.029e-4
-1.436, 1.031e-4
-1.437, 1.032e-4
-1.438, 1.032e-4
-1.439, 1.033e-4
-1.440, 1.032e-4
-1.441, 1.029e-4
-1.442, 1.030e-4
-1.443, 1.029e-4
-1.444, 1.023e-4
-1.445, 1.019e-4
-1.446, 1.021e-4
-1.447, 1.022e-4
-1.448, 1.023e-4
-1.449, 1.022e-4
-1.450, 1.022e-4
-1.451, 1.021e-4
-1.452, 1.022e-4
-1.453, 1.023e-4
-1.454, 1.022e-4
-1.455, 1.021e-4
-1.456, 1.020e-4
-1.457, 1.019e-4
-1.458, 1.019e-4
-1.459, 1.019e-4
-1.460, 1.019e-4
-1.461, 1.021e-4
-1.462, 1.023e-4
-1.463, 1.022e-4
-1.464, 1.022e-4
-1.465, 1.026e-4
-1.466, 1.026e-4
-1.467, 1.026e-4
-1.468, 1.028e-4
-1.469, 1.031e-4
-1.470, 1.033e-4
-1.471, 1.035e-4
-1.472, 1.037e-4
-1.473, 1.040e-4
-1.474, 1.043e-4
-1.475, 1.045e-4
-1.476, 1.047e-4
-1.477, 1.049e-4
-1.478, 1.050e-4
-1.479, 1.053e-4
-1.480, 1.055e-4
-1.481, 1.057e-4
-1.482, 1.062e-4
-1.483, 1.066e-4
-1.484, 1.066e-4
-1.485, 1.072e-4
-1.486, 1.079e-4
-1.487, 1.082e-4
-1.488, 1.086e-4
-1.489, 1.089e-4
-1.490, 1.091e-4
-1.491, 1.095e-4
-1.492, 1.097e-4
-1.493, 1.101e-4
-1.494, 1.111e-4
-1.495, 1.115e-4
-1.496, 1.115e-4
-1.497, 1.116e-4
-1.498, 1.119e-4
-1.499, 1.122e-4
-1.500, 1.127e-4
-1.501, 1.131e-4
-1.502, 1.133e-4
-1.503, 1.139e-4
-1.504, 1.143e-4
-1.505, 1.151e-4
-1.506, 1.157e-4
-1.507, 1.164e-4
-1.508, 1.171e-4
-1.509, 1.179e-4
-1.510, 1.188e-4
-1.511, 1.196e-4
-1.512, 1.203e-4
-1.513, 1.206e-4
-1.514, 1.211e-4
-1.515, 1.217e-4
-1.516, 1.226e-4
-1.517, 1.229e-4
-1.518, 1.232e-4
-1.519, 1.235e-4
-1.520, 1.242e-4
-1.521, 1.248e-4
-1.522, 1.255e-4
-1.523, 1.261e-4
-1.524, 1.267e-4
-1.525, 1.276e-4
-1.526, 1.284e-4
-1.527, 1.293e-4
-1.528, 1.301e-4
-1.529, 1.310e-4
-1.530, 1.320e-4
-1.531, 1.329e-4
-1.532, 1.335e-4
-1.533, 1.342e-4
-1.534, 1.352e-4
-1.535, 1.361e-4
-1.536, 1.372e-4
-1.537, 1.387e-4
-1.538, 1.395e-4
-1.539, 1.404e-4
-1.540, 1.413e-4
-1.541, 1.422e-4
-1.542, 1.434e-4
-1.543, 1.444e-4
-1.544, 1.453e-4
-1.545, 1.465e-4
-1.546, 1.473e-4
-1.547, 1.481e-4
-1.548, 1.495e-4
-1.549, 1.508e-4
-1.550, 1.520e-4
-1.551, 1.533e-4
-1.552, 1.550e-4
-1.553, 1.565e-4
-1.554, 1.578e-4
-1.555, 1.589e-4
-1.556, 1.605e-4
-1.557, 1.616e-4
-1.558, 1.631e-4
-1.559, 1.642e-4
-1.560, 1.651e-4
-1.561, 1.668e-4
-1.562, 1.686e-4
-1.563, 1.701e-4
-1.564, 1.716e-4
-1.565, 1.729e-4
-1.566, 1.742e-4
-1.567, 1.752e-4
-1.568, 1.767e-4
-1.569, 1.784e-4
-1.570, 1.798e-4
-1.571, 1.813e-4
-1.572, 1.828e-4
-1.573, 1.842e-4
-1.574, 1.860e-4
-1.575, 1.872e-4
-1.576, 1.881e-4
-1.577, 1.897e-4
-1.578, 1.914e-4
-1.579, 1.929e-4
-1.580, 1.944e-4
-1.581, 1.958e-4
-1.582, 1.970e-4
-1.583, 1.984e-4
-1.584, 2.002e-4
-1.585, 2.020e-4
-1.586, 2.034e-4
-1.587, 2.052e-4
-1.588, 2.071e-4
-1.589, 2.092e-4
-1.590, 2.106e-4
-1.591, 2.123e-4
-1.592, 2.143e-4
-1.593, 2.158e-4
-1.594, 2.175e-4
-1.595, 2.189e-4
-1.596, 2.212e-4
-1.597, 2.230e-4
-1.598, 2.252e-4
-1.599, 2.266e-4
-1.600, 2.286e-4
-1.601, 2.303e-4
-1.602, 2.316e-4
-1.603, 2.336e-4
-1.604, 2.358e-4
-1.605, 2.375e-4
-1.606, 2.399e-4
-1.607, 2.415e-4
-1.608, 2.428e-4
-1.609, 2.455e-4
-1.610, 2.469e-4
-1.611, 2.483e-4
-1.612, 2.505e-4
-1.613, 2.524e-4
-1.614, 2.547e-4
-1.615, 2.559e-4
-1.616, 2.581e-4
-1.617, 2.604e-4
-1.618, 2.629e-4
-1.619, 2.652e-4
-1.620, 2.673e-4
-1.621, 2.695e-4
-1.622, 2.711e-4
-1.623, 2.725e-4
-1.624, 2.748e-4
-1.625, 2.776e-4
-1.626, 2.803e-4
-1.627, 2.826e-4
-1.628, 2.842e-4
-1.629, 2.867e-4
-1.630, 2.895e-4
-1.631, 2.910e-4
-1.632, 2.931e-4
-1.633, 2.966e-4
-1.634, 2.995e-4
-1.635, 3.011e-4
-1.636, 3.030e-4
-1.637, 3.060e-4
-1.638, 3.082e-4
-1.639, 3.093e-4
-1.640, 3.108e-4
-1.641, 3.141e-4
-1.642, 3.166e-4
-1.643, 3.186e-4
-1.644, 3.215e-4
-1.645, 3.246e-4
-1.646, 3.276e-4
-1.647, 3.304e-4
-1.648, 3.321e-4
-1.649, 3.341e-4
-1.650, 3.368e-4
-1.651, 3.394e-4
-1.652, 3.414e-4
-1.653, 3.432e-4
-1.654, 3.461e-4
-1.655, 3.486e-4
-1.656, 3.498e-4
-1.657, 3.530e-4
-1.658, 3.561e-4
-1.659, 3.595e-4
-1.660, 3.619e-4
-1.661, 3.642e-4
-1.662, 3.672e-4
-1.663, 3.700e-4
-1.664, 3.726e-4
-1.665, 3.762e-4
-1.666, 3.797e-4
-1.667, 3.834e-4
-1.668, 3.875e-4
-1.669, 3.905e-4
-1.670, 3.938e-4
-1.671, 3.960e-4
-1.672, 3.985e-4
-1.673, 4.014e-4
-1.674, 4.037e-4
-1.675, 4.063e-4
-1.676, 4.097e-4
-1.677, 4.126e-4
-1.678, 4.149e-4
-1.679, 4.173e-4
-1.680, 4.203e-4
-1.681, 4.232e-4
-1.682, 4.253e-4
-1.683, 4.286e-4
-1.684, 4.319e-4
-1.685, 4.347e-4
-1.686, 4.372e-4
-1.687, 4.415e-4
-1.688, 4.448e-4
-1.689, 4.483e-4
-1.690, 4.507e-4
-1.691, 4.536e-4
-1.692, 4.559e-4
-1.693, 4.586e-4
-1.694, 4.617e-4
-1.695, 4.646e-4
-1.696, 4.665e-4
-1.697, 4.693e-4
-1.698, 4.731e-4
-1.699, 4.769e-4
-1.700, 4.802e-4
-1.701, 4.847e-4
-1.702, 4.882e-4
-1.703, 4.909e-4
-1.704, 4.948e-4
-1.705, 4.984e-4
-1.706, 5.011e-4
-1.707, 5.048e-4
-1.708, 5.088e-4
-1.709, 5.124e-4
-1.710, 5.153e-4
-1.711, 5.184e-4
-1.712, 5.223e-4
-1.713, 5.267e-4
-1.714, 5.313e-4
-1.715, 5.345e-4
-1.716, 5.383e-4
-1.717, 5.413e-4
-1.718, 5.444e-4
-1.719, 5.481e-4
-1.720, 5.518e-4
-1.721, 5.550e-4
-1.722, 5.585e-4
-1.723, 5.624e-4
-1.724, 5.666e-4
-1.725, 5.707e-4
-1.726, 5.740e-4
-1.727, 5.771e-4
-1.728, 5.811e-4
-1.729, 5.852e-4
-1.730, 5.891e-4
-1.731, 5.935e-4
-1.732, 5.977e-4
-1.733, 6.015e-4
-1.734, 6.055e-4
-1.735, 6.099e-4
-1.736, 6.138e-4
-1.737, 6.177e-4
-1.738, 6.220e-4
-1.739, 6.265e-4
-1.740, 6.317e-4
-1.741, 6.354e-4
-1.742, 6.401e-4
-1.743, 6.452e-4
-1.744, 6.493e-4
-1.745, 6.535e-4
-1.746, 6.576e-4
-1.747, 6.628e-4
-1.748, 6.675e-4
-1.749, 6.724e-4
-1.750, 6.772e-4
-1.751, 6.817e-4
-1.752, 6.867e-4
-1.753, 6.911e-4
-1.754, 6.955e-4
-1.755, 7.001e-4
-1.756, 7.048e-4
-1.757, 7.097e-4
-1.758, 7.153e-4
-1.759, 7.208e-4
-1.760, 7.261e-4
-1.761, 7.310e-4
-1.762, 7.357e-4
-1.763, 7.413e-4
-1.764, 7.468e-4
-1.765, 7.521e-4
-1.766, 7.573e-4
-1.767, 7.625e-4
-1.768, 7.677e-4
-1.769, 7.735e-4
-1.770, 7.791e-4
-1.771, 7.848e-4
-1.772, 7.908e-4
-1.773, 7.969e-4
-1.774, 8.022e-4
-1.775, 8.078e-4
-1.776, 8.137e-4
-1.777, 8.194e-4
-1.778, 8.249e-4
-1.779, 8.308e-4
-1.780, 8.366e-4
-1.781, 8.430e-4
-1.782, 8.494e-4
-1.783, 8.557e-4
-1.784, 8.621e-4
-1.785, 8.680e-4
-1.786, 8.742e-4
-1.787, 8.806e-4
-1.788, 8.872e-4
-1.789, 8.939e-4
-1.790, 8.997e-4
-1.791, 9.063e-4
-1.792, 9.127e-4
-1.793, 9.192e-4
-1.794, 9.260e-4
-1.795, 9.327e-4
-1.796, 9.395e-4
-1.797, 9.457e-4
-1.798, 9.523e-4
-1.799, 9.596e-4
-1.800, 9.662e-4
-1.801, 9.729e-4
-1.802, 9.798e-4
-1.803, 9.870e-4
-1.804, 9.943e-4
-1.805, 1.001e-3
-1.806, 1.008e-3
-1.807, 1.011e-3
-1.808, 1.011e-3
-1.809, 1.011e-3
-1.810, 1.011e-3
-1.811, 1.011e-3
-1.812, 1.011e-3
-1.813, 1.011e-3
-1.814, 1.011e-3
-1.815, 1.011e-3
-1.816, 1.011e-3
-1.817, 1.011e-3
-1.818, 1.011e-3
-1.819, 1.011e-3
-1.820, 1.011e-3
-1.821, 1.011e-3
-1.822, 1.011e-3
-1.823, 1.011e-3
-1.824, 1.011e-3
-1.825, 1.011e-3
-1.826, 1.011e-3
-1.827, 1.011e-3
-1.828, 1.011e-3
-1.829, 1.011e-3
-1.830, 1.011e-3
-1.831, 1.011e-3
-1.832, 1.011e-3
-1.833, 1.011e-3
-1.834, 1.011e-3
-1.835, 1.011e-3
-1.836, 1.011e-3
-1.837, 1.011e-3
-1.838, 1.011e-3
-1.839, 1.011e-3
-1.840, 1.011e-3
-1.841, 1.011e-3
-1.842, 1.011e-3
-1.843, 1.011e-3
-1.844, 1.011e-3
-1.845, 1.011e-3
-1.846, 1.011e-3
-1.847, 1.011e-3
-1.848, 1.011e-3
-1.849, 1.011e-3
-1.850, 1.011e-3
-1.851, 1.011e-3
-1.852, 1.011e-3
-1.853, 1.011e-3
-1.854, 1.011e-3
-1.855, 1.011e-3
-1.856, 1.011e-3
-1.857, 1.011e-3
-1.858, 1.011e-3
-1.859, 1.011e-3
-1.860, 1.011e-3
-1.861, 1.011e-3
-1.862, 1.011e-3
-1.863, 1.011e-3
-1.864, 1.011e-3
-1.865, 1.011e-3
-1.866, 1.011e-3
-1.867, 1.011e-3
-1.868, 1.011e-3
-1.869, 1.011e-3
-1.870, 1.011e-3
-1.871, 1.011e-3
-1.872, 1.011e-3
-1.873, 1.011e-3
-1.874, 1.011e-3
-1.875, 1.011e-3
-1.876, 1.011e-3
-1.877, 1.011e-3
-1.878, 1.011e-3
-1.879, 1.011e-3
-1.880, 1.011e-3
-1.881, 1.011e-3
-1.882, 1.011e-3
-1.883, 1.011e-3
-1.884, 1.011e-3
-1.885, 1.011e-3
-1.886, 1.011e-3
-1.887, 1.011e-3
-1.888, 1.011e-3
-1.889, 1.011e-3
-1.890, 1.011e-3
-1.891, 1.011e-3
-1.892, 1.011e-3
-1.893, 1.011e-3
-1.894, 1.011e-3
-1.895, 1.011e-3
-1.896, 1.011e-3
-1.897, 1.011e-3
-1.898, 1.011e-3
-1.899, 1.011e-3
-1.900, 1.011e-3
-1.901, 1.011e-3
-1.902, 1.011e-3
-1.903, 1.011e-3
-1.904, 1.011e-3
-1.905, 1.011e-3
-1.906, 1.011e-3
-1.907, 1.011e-3
-1.908, 1.011e-3
-1.909, 1.011e-3
-1.910, 1.011e-3
-1.911, 1.011e-3
-1.912, 1.011e-3
-1.913, 1.011e-3
-1.914, 1.011e-3
-1.915, 1.011e-3
-1.916, 1.011e-3
-1.917, 1.011e-3
-1.918, 1.011e-3
-1.919, 1.011e-3
-1.920, 1.011e-3
-1.921, 1.011e-3
-1.922, 1.011e-3
-1.923, 1.011e-3
-1.924, 1.011e-3
-1.925, 1.011e-3
-1.926, 1.011e-3
-1.927, 1.011e-3
-1.928, 1.011e-3
-1.929, 1.011e-3
-1.930, 1.011e-3
-1.931, 1.011e-3
-1.932, 1.011e-3
-1.933, 1.011e-3
-1.934, 1.011e-3
-1.935, 1.011e-3
-1.936, 1.011e-3
-1.937, 1.011e-3
-1.938, 1.011e-3
-1.939, 1.011e-3
-1.940, 1.011e-3
-1.941, 1.011e-3
-1.942, 1.011e-3
-1.943, 1.011e-3
-1.944, 1.011e-3
-1.945, 1.011e-3
-1.946, 1.011e-3
-1.947, 1.011e-3
-1.948, 1.011e-3
-1.949, 1.011e-3
-1.950, 1.011e-3
-1.951, 1.011e-3
-1.952, 1.011e-3
-1.953, 1.011e-3
-1.954, 1.011e-3
-1.955, 1.011e-3
-1.956, 1.011e-3
-1.957, 1.011e-3
-1.958, 1.011e-3
-1.959, 1.011e-3
-1.960, 1.011e-3
-1.961, 1.011e-3
-1.962, 1.011e-3
-1.963, 1.011e-3
-1.964, 1.011e-3
-1.965, 1.011e-3
-1.966, 1.011e-3
-1.967, 1.011e-3
-1.968, 1.011e-3
-1.969, 1.011e-3
-1.970, 1.011e-3
-1.971, 1.011e-3
-1.972, 1.011e-3
-1.973, 1.011e-3
-1.974, 1.011e-3
-1.975, 1.011e-3
-1.976, 1.011e-3
-1.977, 1.011e-3
-1.978, 1.011e-3
-1.979, 1.011e-3
-1.980, 1.011e-3
-1.981, 1.011e-3
-1.982, 1.011e-3
-1.983, 1.011e-3
-1.984, 1.011e-3
-1.985, 1.011e-3
-1.986, 1.011e-3
-1.987, 1.011e-3
-1.988, 1.011e-3
-1.989, 1.011e-3
-1.990, 1.011e-3
-1.991, 1.011e-3
-1.992, 1.011e-3
-1.993, 1.011e-3
-1.994, 1.011e-3
-1.995, 1.011e-3
-1.996, 1.011e-3
-1.997, 1.011e-3
-1.998, 1.011e-3
-1.999, 1.011e-3
-2.000, 1.011e-3
-2.001, 1.011e-3
-2.002, 1.011e-3
-2.003, 1.011e-3
-2.004, 1.011e-3
-2.005, 1.011e-3
-2.006, 1.011e-3
-2.007, 1.011e-3
-2.008, 1.011e-3
-2.009, 1.011e-3
-2.010, 1.011e-3
-2.011, 1.011e-3
-2.012, 1.011e-3
-2.013, 1.011e-3
-2.014, 1.011e-3
-2.015, 1.011e-3
-2.016, 1.011e-3
-2.017, 1.011e-3
-2.018, 1.011e-3
-2.019, 1.011e-3
-2.020, 1.011e-3
-2.021, 1.011e-3
-2.022, 1.011e-3
-2.023, 1.011e-3
-2.024, 1.011e-3
-2.025, 1.011e-3
-2.026, 1.011e-3
-2.027, 1.011e-3
-2.028, 1.011e-3
-2.029, 1.011e-3
-2.030, 1.011e-3
-2.031, 1.011e-3
-2.032, 1.011e-3
-2.033, 1.011e-3
-2.034, 1.011e-3
-2.035, 1.011e-3
-2.036, 1.011e-3
-2.037, 1.011e-3
-2.038, 1.011e-3
-2.039, 1.011e-3
-2.040, 1.011e-3
-2.041, 1.011e-3
-2.042, 1.011e-3
-2.043, 1.011e-3
-2.044, 1.011e-3
-2.045, 1.011e-3
-2.046, 1.011e-3
-2.047, 1.011e-3
-2.048, 1.011e-3
-2.049, 1.011e-3
-2.050, 1.011e-3
-2.051, 1.011e-3
-2.052, 1.011e-3
-2.053, 1.011e-3
-2.054, 1.011e-3
-2.055, 1.011e-3
-2.056, 1.011e-3
-2.057, 1.011e-3
-2.058, 1.011e-3
-2.059, 1.011e-3
-2.060, 1.011e-3
-2.061, 1.011e-3
-2.062, 1.011e-3
-2.063, 1.011e-3
-2.064, 1.011e-3
-2.065, 1.011e-3
-2.066, 1.011e-3
-2.067, 1.011e-3
-2.068, 1.011e-3
-2.069, 1.011e-3
-2.070, 1.011e-3
-2.071, 1.011e-3
-2.072, 1.011e-3
-2.073, 1.011e-3
-2.074, 1.011e-3
-2.075, 1.011e-3
-2.076, 1.011e-3
-2.077, 1.011e-3
-2.078, 1.011e-3
-2.079, 1.011e-3
-2.080, 1.011e-3
-2.081, 1.011e-3
-2.082, 1.011e-3
-2.083, 1.011e-3
-2.084, 1.011e-3
-2.085, 1.011e-3
-2.086, 1.011e-3
-2.087, 1.011e-3
-2.088, 1.011e-3
-2.089, 1.011e-3
-2.090, 1.011e-3
-2.091, 1.011e-3
-2.092, 1.011e-3
-2.093, 1.011e-3
-2.094, 1.011e-3
-2.095, 1.011e-3
-2.096, 1.011e-3
-2.097, 1.011e-3
-2.098, 1.011e-3
-2.099, 1.011e-3
