Potential V vs RHE, Current mA cm-2
0.05339999999999995,-0.030430440060096934
0.05239999999999995,-0.03174612156897143
0.051399999999999946,-0.03228371186292014
0.050399999999999945,-0.032693978139880994
0.049399999999999944,-0.033104244416841865
0.04839999999999994,-0.03348621646780542
0.04739999999999994,-0.033825747179773026
0.04639999999999994,-0.034193572117737936
0.04539999999999994,-0.034547249942704195
0.04439999999999994,-0.03490092776767045
0.04339999999999994,-0.03524045847963807
0.04239999999999994,-0.035565842078607024
0.04139999999999994,-0.03593366701657193
0.040399999999999936,-0.03628734484153819
0.039399999999999935,-0.0366834640055004
0.038399999999999934,-0.03703714183046666
0.03739999999999993,-0.03736252542943562
0.03639999999999993,-0.03773035036740053
0.03539999999999993,-0.038055733966369486
0.03439999999999993,-0.038423558904334396
0.03339999999999993,-0.03880553095529796
0.03239999999999993,-0.039145061667265564
0.03139999999999993,-0.03951288660523048
0.030399999999999927,-0.03986656443019673
0.029399999999999926,-0.04023438936816164
0.028399999999999925,-0.0406163614191252
0.027399999999999924,-0.04097003924409146
0.026399999999999924,-0.04135201129505502
0.025399999999999923,-0.04171983623301993
0.024399999999999922,-0.042130102509980796
0.02339999999999992,-0.0424979274479457
0.02239999999999992,-0.042851605272911965
0.02139999999999992,-0.04324772443687417
0.020399999999999918,-0.04360140226184043
0.019399999999999917,-0.044025815651799936
0.018399999999999916,-0.044393640589764846
0.017399999999999916,-0.044775612640728414
0.016399999999999915,-0.04515758469169197
0.015399999999999914,-0.04555370385565418
0.014399999999999913,-0.04594982301961639
0.013399999999999912,-0.0463742364095759
0.012399999999999911,-0.04675620846053946
0.01139999999999991,-0.04713818051150302
0.01039999999999991,-0.04756259390146254
0.009399999999999908,-0.048001154404420696
0.008399999999999908,-0.04841142068138156
0.007399999999999907,-0.048807539845343764
0.006399999999999906,-0.04921780612230463
0.005399999999999905,-0.04962807239926549
0.004399999999999904,-0.05006663290222365
0.003399999999999903,-0.050476899179184506
0.002399999999999902,-0.05088716545614537
0.0013999999999999013,-0.051297431733106226
0.00039999999999990044,-0.051735992236064385
-0.0006000000000001005,-0.05218869985202121
-0.0016000000000001013,-0.05259896612898206
-0.0026000000000001022,-0.05302337951894157
-0.003600000000000103,-0.05344779290890109
-0.004600000000000104,-0.053886353411859246
-0.005600000000000105,-0.05435320814081471
-0.006600000000000106,-0.054820062869770175
-0.007600000000000107,-0.055216182033732374
-0.008600000000000108,-0.055668889649689184
-0.009600000000000108,-0.05607915592665005
-0.01060000000000011,-0.056560157768604166
-0.01160000000000011,-0.056998718271562325
-0.012600000000000111,-0.057451425887519135
-0.013600000000000112,-0.0578899863904773
-0.014600000000000113,-0.058328546893435466
-0.015600000000000114,-0.05879540162239092
-0.016600000000000115,-0.059233962125349086
-0.017600000000000116,-0.05964422840230994
-0.018600000000000116,-0.06008278890526811
-0.019600000000000117,-0.06056379074722222
-0.020600000000000118,-0.06101649836317903
-0.02160000000000012,-0.061483353092134506
-0.02260000000000012,-0.06192191359509265
-0.02360000000000012,-0.06237462121104946
-0.024600000000000122,-0.06286977016600223
-0.025600000000000123,-0.06336491912095499
-0.026600000000000124,-0.06384592096290911
-0.027600000000000124,-0.06429862857886592
-0.028600000000000125,-0.06475133619482273
-0.029600000000000126,-0.06523233803677685
-0.030600000000000127,-0.06571333987873097
-0.03160000000000013,-0.06620848883368373
-0.03260000000000013,-0.06663290222364322
-0.03360000000000013,-0.06709975695259869
-0.03460000000000002,-0.0675807587945528
-0.03560000000000002,-0.06807590774950557
-0.03660000000000002,-0.06852861536546237
-0.03760000000000002,-0.06899547009441785
-0.03860000000000002,-0.06946232482337329
-0.039600000000000024,-0.06990088532633146
-0.040600000000000025,-0.07041018139428289
-0.041600000000000026,-0.07089118323623698
-0.04260000000000003,-0.07135803796519245
-0.04360000000000003,-0.07182489269414791
-0.04460000000000003,-0.07229174742310338
-0.04560000000000003,-0.0727727492650575
-0.04660000000000003,-0.0732537511070116
-0.04760000000000003,-0.07369231160996977
-0.04860000000000003,-0.07415916633892522
-0.04960000000000003,-0.07464016818087933
-0.050600000000000034,-0.07512117002283344
-0.051600000000000035,-0.07560217186478757
-0.052600000000000036,-0.07601243814174842
-0.053600000000000037,-0.07649343998370253
-0.05460000000000004,-0.0769320004866607
-0.05560000000000004,-0.07741300232861481
-0.05660000000000004,-0.07789400417056892
-0.05760000000000004,-0.07831841756052843
-0.05860000000000004,-0.0787852722894839
-0.05960000000000004,-0.07925212701843935
-0.06060000000000004,-0.07970483463439616
-0.061600000000000044,-0.08014339513735433
-0.06260000000000004,-0.08056780852731382
-0.06360000000000005,-0.081006369030272
-0.06460000000000005,-0.08147322375922747
-0.06560000000000005,-0.08192593137518428
-0.06660000000000005,-0.08236449187814243
-0.06760000000000005,-0.08277475815510331
-0.06860000000000005,-0.08318502443206416
-0.06960000000000005,-0.08358114359602638
-0.07060000000000005,-0.08401970409898453
-0.07160000000000005,-0.08440167614994809
-0.07260000000000005,-0.08481194242690895
-0.07360000000000005,-0.08522220870386982
-0.07460000000000006,-0.08563247498083068
-0.07560000000000006,-0.08607103548378882
-0.07660000000000006,-0.08645300753475238
-0.07760000000000006,-0.08683497958571595
-0.07860000000000006,-0.08721695163667952
-0.07960000000000006,-0.08757062946164577
-0.08060000000000006,-0.08796674862560798
-0.08160000000000006,-0.08832042645057424
-0.08260000000000006,-0.08868825138853914
-0.08360000000000006,-0.0890419292135054
-0.08460000000000006,-0.08940975415147032
-0.08560000000000006,-0.08979172620243389
-0.08660000000000007,-0.09013125691440148
-0.08760000000000007,-0.09047078762636909
-0.08860000000000007,-0.09082446545133536
-0.08960000000000007,-0.09116399616330297
-0.09060000000000007,-0.09151767398826924
-0.09160000000000007,-0.09185720470023684
-0.09260000000000007,-0.09214014696020983
-0.09360000000000007,-0.09245138344618015
-0.09460000000000007,-0.09279091415814776
-0.09560000000000007,-0.09310215064411806
-0.09660000000000007,-0.09341338713008837
-0.09760000000000008,-0.09368218227706274
-0.09860000000000008,-0.09396512453703573
-0.09960000000000008,-0.09424806679700874
-0.10060000000000008,-0.0945451561699804
-0.10160000000000008,-0.09479980420395612
-0.10260000000000008,-0.09504030512493315
-0.10360000000000008,-0.09529495315890889
-0.10460000000000008,-0.09556374830588323
-0.10560000000000008,-0.09581839633985893
-0.10660000000000008,-0.096058897260836
-0.10760000000000008,-0.09627110395581574
-0.10860000000000009,-0.0965116048767928
-0.10960000000000009,-0.09673795868477121
-0.11060000000000009,-0.09696431249274962
-0.11160000000000009,-0.09714822496173206
-0.11260000000000009,-0.09734628454371318
-0.11360000000000009,-0.09751604989969698
-0.11460000000000009,-0.09771410948167808
-0.11560000000000009,-0.09794046328965648
-0.11660000000000009,-0.098081934419643
-0.1176000000000001,-0.09823755266262815
-0.1186000000000001,-0.09840731801861195
-0.1196000000000001,-0.0985346420355998
-0.1206000000000001,-0.09871855450458226
-0.1216000000000001,-0.09884587852157012
-0.1226000000000001,-0.09894490831256067
-0.1236000000000001,-0.09910052655554581
-0.1246000000000001,-0.09918540923353773
-0.1256000000000001,-0.09934102747652288
-0.1266000000000001,-0.09944005726751343
-0.1276000000000001,-0.09952493994550533
-0.1286000000000001,-0.09962396973649587
-0.1296000000000001,-0.09969470530148912
-0.1306000000000001,-0.09980788220547833
-0.1316000000000001,-0.09989276488347024
-0.1326000000000001,-0.09993520622246618
-0.1336000000000001,-0.10000594178745945
-0.1346000000000001,-0.10004838312645539
-0.1356000000000001,-0.1001332658044473
-0.1366000000000001,-0.10017570714344325
-0.1376000000000001,-0.10017570714344325
-0.1386000000000001,-0.1002181484824392
-0.1396000000000001,-0.1002464427084365
-0.1406000000000001,-0.10030303116043109
-0.14160000000000011,-0.10031717827342976
-0.14260000000000012,-0.10030303116043109
-0.14360000000000012,-0.10028888404743246
-0.14460000000000012,-0.1003313253864284
-0.14560000000000012,-0.1003313253864284
-0.14660000000000012,-0.10031717827342976
-0.14760000000000012,-0.10028888404743246
-0.14860000000000012,-0.10026058982143515
-0.14960000000000012,-0.1002464427084365
-0.15060000000000012,-0.10023229559543784
-0.15160000000000012,-0.10017570714344325
-0.15260000000000012,-0.10014741291744596
-0.15360000000000013,-0.10009082446545134
-0.15460000000000013,-0.10003423601345675
-0.15560000000000013,-0.10002008890045809
-0.15660000000000013,-0.09993520622246618
-0.15760000000000013,-0.09989276488347024
-0.15860000000000013,-0.09980788220547833
-0.15960000000000002,-0.09975129375348374
-0.16060000000000002,-0.09969470530148912
-0.16160000000000002,-0.09960982262349724
-0.16260000000000002,-0.09952493994550533
-0.16360000000000002,-0.09941176304151612
-0.16460000000000002,-0.09932688036352423
-0.16560000000000002,-0.09932688036352423
-0.16660000000000003,-0.09924199768553231
-0.16760000000000003,-0.09910052655554581
-0.16860000000000003,-0.09900149676455527
-0.16960000000000003,-0.09888831986056607
-0.17060000000000003,-0.0988175842955728
-0.17160000000000003,-0.09869026027858496
-0.17260000000000003,-0.09854878914859845
-0.17360000000000003,-0.0984214651316106
-0.17460000000000003,-0.09832243534062005
-0.17560000000000003,-0.0982234055496295
-0.17660000000000003,-0.098081934419643
-0.17760000000000004,-0.09795461040265514
-0.17860000000000004,-0.09781313927266864
-0.17960000000000004,-0.09769996236867944
-0.18060000000000004,-0.09758678546469024
-0.18160000000000004,-0.09745946144770237
-0.18260000000000004,-0.09728969609171857
-0.18360000000000004,-0.09716237207473072
-0.18460000000000004,-0.09703504805774286
-0.18560000000000004,-0.09692187115375367
-0.18660000000000004,-0.0967662529107685
-0.18760000000000004,-0.09661063466778336
-0.18860000000000005,-0.09644086931179956
-0.18960000000000005,-0.09631354529481169
-0.19060000000000005,-0.09618622127782384
-0.19160000000000005,-0.09603060303483868
-0.19260000000000005,-0.09587498479185352
-0.19360000000000005,-0.09569107232287108
-0.19460000000000005,-0.09553545407988592
-0.19560000000000005,-0.09542227717589671
-0.19660000000000005,-0.09526665893291157
-0.19760000000000005,-0.09509689357692777
-0.19860000000000005,-0.09492712822094396
-0.19960000000000006,-0.0947715099779588
-0.20060000000000006,-0.0946583330739696
-0.20160000000000006,-0.09447442060498715
-0.20260000000000006,-0.09430465524900335
-0.20360000000000006,-0.09414903700601819
-0.20460000000000006,-0.09399341876303305
-0.20560000000000006,-0.09386609474604518
-0.20660000000000006,-0.09369632939006138
-0.20760000000000006,-0.09352656403407757
-0.20860000000000006,-0.09337094579109242
-0.20960000000000006,-0.09318703332210997
-0.21060000000000006,-0.09305970930512211
-0.21160000000000007,-0.09288994394913831
-0.21260000000000007,-0.09270603148015585
-0.21360000000000007,-0.09256456035016934
-0.21460000000000007,-0.0924089421071842
-0.21560000000000007,-0.0922674709771977
-0.21660000000000007,-0.09209770562121389
-0.21760000000000007,-0.09194208737822873
-0.21860000000000007,-0.09177232202224493
-0.21960000000000007,-0.09161670377925978
-0.22060000000000007,-0.09148937976227192
-0.22160000000000007,-0.09131961440628812
-0.22260000000000008,-0.09113570193730568
-0.22360000000000008,-0.09098008369432051
-0.22460000000000008,-0.09085275967733265
-0.22560000000000008,-0.0906971414343475
-0.22660000000000008,-0.09054152319136234
-0.22760000000000008,-0.09037175783537854
-0.22860000000000008,-0.09020199247939473
-0.22960000000000008,-0.09007466846240689
-0.23060000000000008,-0.08996149155841768
-0.23160000000000008,-0.08976343197643659
-0.23260000000000008,-0.08962196084645008
-0.23360000000000009,-0.08945219549046628
-0.2346000000000001,-0.08931072436047977
-0.2356000000000001,-0.08918340034349191
-0.2366000000000001,-0.08899948787450947
-0.2376000000000001,-0.08884386963152431
-0.2386000000000001,-0.08868825138853914
-0.2396000000000001,-0.0885609273715513
-0.2406000000000001,-0.08843360335456343
-0.2416000000000001,-0.08827798511157829
-0.2426000000000001,-0.08813651398159178
-0.2436000000000001,-0.08799504285160528
-0.2446000000000001,-0.08786771883461743
-0.2456000000000001,-0.08775454193062822
-0.2466000000000001,-0.08759892368764308
-0.2476000000000001,-0.08745745255765658
-0.2486000000000001,-0.08734427565366736
-0.2496000000000001,-0.08720280452368086
-0.2506000000000001,-0.08708962761969166
-0.2516000000000001,-0.08694815648970515
-0.2526000000000001,-0.08680668535971865
-0.2536000000000001,-0.08666521422973215
-0.2546000000000001,-0.08655203732574294
-0.2556000000000001,-0.08645300753475238
-0.2566000000000001,-0.08631153640476588
-0.2576000000000001,-0.08614177104878207
-0.2586000000000001,-0.08601444703179424
-0.2596000000000001,-0.08591541724080368
-0.2606000000000001,-0.08577394611081718
-0.2616000000000001,-0.08564662209382931
-0.2626000000000001,-0.08550515096384281
-0.2636000000000001,-0.08537782694685496
-0.2646000000000001,-0.08527879715586441
-0.2656000000000001,-0.08515147313887655
-0.2666000000000001,-0.08502414912188871
-0.2676000000000001,-0.08489682510490085
-0.2686000000000001,-0.08475535397491435
-0.2696000000000001,-0.08464217707092515
-0.2706000000000001,-0.08455729439293323
-0.2716000000000001,-0.08442997037594539
-0.2726000000000001,-0.08430264635895754
-0.2736000000000001,-0.08416117522897103
-0.2746000000000001,-0.08407629255097913
-0.2756000000000001,-0.08397726275998857
-0.2766000000000001,-0.08384993874300072
-0.2776000000000001,-0.08375090895201018
-0.2786000000000001,-0.08365187916101963
-0.2796000000000001,-0.08353870225703043
-0.2806000000000001,-0.08348211380503581
-0.28160000000000013,-0.08335478978804794
-0.28260000000000013,-0.08324161288405875
-0.28360000000000013,-0.0831425830930682
-0.2846,-0.083029406189079
-0.2856,-0.08295867062408575
-0.2866,-0.0828313466070979
-0.2876,-0.08273231681610735
-0.2886,-0.08263328702511678
-0.2896,-0.08253425723412625
-0.2906,-0.08244937455613434
-0.2916,-0.08233619765214513
-0.2926,-0.08220887363515728
-0.2936,-0.08212399095716538
-0.29460000000000003,-0.08202496116617483
-0.29560000000000003,-0.08195422560118158
-0.29660000000000003,-0.08182690158419371
-0.29760000000000003,-0.08172787179320316
-0.29860000000000003,-0.08162884200221261
-0.29960000000000003,-0.08155810643721936
-0.30060000000000003,-0.08147322375922747
-0.30160000000000003,-0.0813458997422396
-0.30260000000000004,-0.08124686995124906
-0.30360000000000004,-0.08116198727325716
-0.30460000000000004,-0.08109125170826391
-0.30560000000000004,-0.081006369030272
-0.30660000000000004,-0.08090733923928145
-0.30760000000000004,-0.08080830944829089
-0.30860000000000004,-0.08069513254430169
-0.30960000000000004,-0.08063854409230709
-0.31060000000000004,-0.08056780852731382
-0.31160000000000004,-0.08048292584932194
-0.31260000000000004,-0.08038389605833138
-0.31360000000000005,-0.08031316049333813
-0.31460000000000005,-0.08024242492834488
-0.31560000000000005,-0.08017168936335163
-0.31660000000000005,-0.08007265957236107
-0.31760000000000005,-0.08000192400736782
-0.31860000000000005,-0.07991704132937592
-0.31960000000000005,-0.07987459999037998
-0.32060000000000005,-0.07981801153838537
-0.32160000000000005,-0.07970483463439616
-0.32260000000000005,-0.07960580484340561
-0.32360000000000005,-0.079549216391411
-0.32460000000000006,-0.0794643337134191
-0.32560000000000006,-0.07942189237442315
-0.32660000000000006,-0.0793228625834326
-0.32760000000000006,-0.07922383279244205
-0.32860000000000006,-0.0791530972274488
-0.32960000000000006,-0.07909650877545421
-0.33060000000000006,-0.07903992032345959
-0.33160000000000006,-0.0789550376454677
-0.33260000000000006,-0.07885600785447715
-0.33360000000000006,-0.0787852722894839
-0.33460000000000006,-0.07874283095048794
-0.33560000000000006,-0.07867209538549469
-0.33660000000000007,-0.07860135982050144
-0.33760000000000007,-0.07850233002951089
-0.33860000000000007,-0.07844574157751628
-0.33960000000000007,-0.0783891531255217
-0.34060000000000007,-0.07831841756052843
-0.34160000000000007,-0.07824768199553518
-0.34260000000000007,-0.07817694643054193
-0.34360000000000007,-0.07810621086554868
-0.3446000000000001,-0.07806376952655272
-0.3456000000000001,-0.07802132818755676
-0.3466000000000001,-0.07793644550956487
-0.34759999999999996,-0.07786570994457162
-0.3486000000000001,-0.0777808272665797
-0.34959999999999997,-0.07775253304058242
-0.3506000000000001,-0.07769594458858782
-0.35159999999999997,-0.07759691479759726
-0.3526000000000001,-0.07755447345860131
-0.35359999999999997,-0.07746959078060942
-0.3546000000000001,-0.07742714944161345
-0.35559999999999997,-0.07739885521561615
-0.3566000000000001,-0.0772998254246256
-0.3576,-0.07724323697263101
-0.3586000000000001,-0.07717250140763775
-0.3596,-0.0771300600686418
-0.3606000000000001,-0.0771017658426445
-0.3616,-0.07700273605165395
-0.3626000000000001,-0.07694614759965934
-0.3636,-0.07688955914766474
-0.3646000000000001,-0.07686126492166745
-0.3656,-0.07681882358267149
-0.3666000000000001,-0.0767622351306769
-0.3676,-0.0767056466786823
-0.3686000000000001,-0.07663491111368903
-0.3696,-0.0765924697746931
-0.3706000000000001,-0.0765924697746931
-0.3716,-0.07652173420969983
-0.3726000000000001,-0.07643685153170793
-0.3736,-0.07639441019271198
-0.3746000000000001,-0.07635196885371603
-0.3756,-0.07630952751472009
-0.3766000000000001,-0.07625293906272547
-0.3776,-0.07618220349773222
-0.3786000000000001,-0.07613976215873627
-0.3796,-0.07611146793273897
-0.3806000000000001,-0.07606902659374302
-0.3816,-0.07601243814174842
-0.3826000000000001,-0.07596999680275247
-0.3836,-0.07589926123775922
-0.3846000000000001,-0.07588511412476057
-0.3856,-0.07584267278576462
-0.3866000000000001,-0.07577193722077137
-0.3876,-0.07574364299477407
-0.3886000000000001,-0.07565876031678216
-0.3896,-0.07565876031678216
-0.3906000000000001,-0.0756163189777862
-0.3916,-0.07555973052579161
-0.3926000000000001,-0.075503142073797
-0.3936,-0.0754465536218024
-0.3946000000000001,-0.07543240650880376
-0.3956,-0.07540411228280645
-0.3966000000000001,-0.0753333767178132
-0.3976,-0.07529093537881726
-0.3986000000000001,-0.07524849403982131
-0.3996,-0.07520605270082535
-0.4006000000000001,-0.0751919055878267
-0.4016,-0.07512117002283344
-0.4026000000000001,-0.0750787286838375
-0.4036,-0.07503628734484155
-0.4046000000000001,-0.07500799311884425
-0.4056,-0.07497969889284695
-0.40660000000000013,-0.074937257553851
-0.4076,-0.07488066910185638
-0.40860000000000013,-0.07483822776286045
-0.4096,-0.07482408064986179
-0.41060000000000013,-0.0747957864238645
-0.4116,-0.07473919797186988
-0.41260000000000013,-0.07469675663287394
-0.4136,-0.07465431529387798
-0.41460000000000014,-0.07464016818087933
-0.4156,-0.07461187395488203
-0.41660000000000014,-0.07454113838988878
-0.4176,-0.07448454993789419
-0.41860000000000014,-0.07444210859889823
-0.41960000000000003,-0.07444210859889823
-0.42060000000000014,-0.07439966725990228
-0.42160000000000003,-0.07437137303390498
-0.42260000000000014,-0.07435722592090632
-0.42360000000000003,-0.07430063746891173
-0.42460000000000014,-0.07428649035591307
-0.42560000000000003,-0.07425819612991578
-0.42660000000000015,-0.07420160767792117
-0.42760000000000004,-0.07418746056492254
-0.42860000000000015,-0.07414501922592658
-0.42960000000000004,-0.07411672499992927
-0.43060000000000015,-0.07411672499992927
-0.43160000000000004,-0.07406013654793467
-0.43260000000000015,-0.07401769520893872
-0.43360000000000004,-0.07398940098294142
-0.43460000000000015,-0.07397525386994278
-0.43560000000000004,-0.07396110675694412
-0.43660000000000015,-0.07389037119195085
