Jan. 8, 2025   19:16:18
Cyclic Voltammetry
File: c:/users/guazh/data/banditlqround7_x0exp772_r5/2025-01-08-exp801\exp801-2025-01-08t19_02_19-arkoh\exp801_cv_sr_200mvs_efin_-1600mv.bin
Data Source:  Experiment
Instrument Model:  CHI760E
Header: CV ran at 200 mVs
Note: 

Init E (V) = -1
High E (V) = -1
Low E (V) = -1.6
Final E (V) = -1
Init P/N = N
Scan Rate (V/s) = 0.2
Segment = 3
Sample Interval (V) = 0.001
Quiet Time (sec) = 2
Sensitivity (A/V) = 0.01
Comp R (ohm) = 1.5

Results:

Channel 1:
Segment 1:

Segment 2:

Segment 3:

Potential/V, Current/A

-1.000, 1.273e-5
-1.001, 1.706e-5
-1.002, 8.887e-6
-1.003, 1.446e-5
-1.004, 2.185e-5
-1.005, 1.330e-5
-1.006, 1.309e-5
-1.007, 2.285e-5
-1.008, 1.804e-5
-1.009, 1.206e-5
-1.010, 2.177e-5
-1.011, 2.226e-5
-1.012, 1.429e-5
-1.013, 1.867e-5
-1.014, 2.607e-5
-1.015, 1.641e-5
-1.016, 1.706e-5
-1.017, 2.532e-5
-1.018, 2.140e-5
-1.019, 1.520e-5
-1.020, 2.468e-5
-1.021, 2.511e-5
-1.022, 1.582e-5
-1.023, 2.153e-5
-1.024, 2.813e-5
-1.025, 1.850e-5
-1.026, 1.874e-5
-1.027, 2.800e-5
-1.028, 2.328e-5
-1.029, 1.741e-5
-1.030, 2.627e-5
-1.031, 2.723e-5
-1.032, 1.806e-5
-1.033, 2.299e-5
-1.034, 2.952e-5
-1.035, 2.015e-5
-1.036, 2.038e-5
-1.037, 2.926e-5
-1.038, 2.442e-5
-1.039, 1.818e-5
-1.040, 2.787e-5
-1.041, 2.808e-5
-1.042, 1.920e-5
-1.043, 2.378e-5
-1.044, 3.128e-5
-1.045, 2.119e-5
-1.046, 2.131e-5
-1.047, 3.028e-5
-1.048, 2.525e-5
-1.049, 1.908e-5
-1.050, 2.881e-5
-1.051, 2.882e-5
-1.052, 2.021e-5
-1.053, 2.473e-5
-1.054, 3.113e-5
-1.055, 2.208e-5
-1.056, 2.220e-5
-1.057, 3.129e-5
-1.058, 2.598e-5
-1.059, 2.032e-5
-1.060, 2.942e-5
-1.061, 2.962e-5
-1.062, 2.059e-5
-1.063, 2.537e-5
-1.064, 3.253e-5
-1.065, 2.247e-5
-1.066, 2.296e-5
-1.067, 3.142e-5
-1.068, 2.696e-5
-1.069, 2.067e-5
-1.070, 2.996e-5
-1.071, 3.027e-5
-1.072, 2.150e-5
-1.073, 2.596e-5
-1.074, 3.336e-5
-1.075, 2.307e-5
-1.076, 2.325e-5
-1.077, 3.250e-5
-1.078, 2.725e-5
-1.079, 2.119e-5
-1.080, 3.050e-5
-1.081, 3.085e-5
-1.082, 2.161e-5
-1.083, 2.647e-5
-1.084, 3.325e-5
-1.085, 2.377e-5
-1.086, 2.374e-5
-1.087, 3.316e-5
-1.088, 2.761e-5
-1.089, 2.165e-5
-1.090, 3.135e-5
-1.091, 3.134e-5
-1.092, 2.240e-5
-1.093, 2.690e-5
-1.094, 3.430e-5
-1.095, 2.410e-5
-1.096, 2.441e-5
-1.097, 3.297e-5
-1.098, 2.778e-5
-1.099, 2.176e-5
-1.100, 3.164e-5
-1.101, 3.156e-5
-1.102, 2.296e-5
-1.103, 2.732e-5
-1.104, 3.469e-5
-1.105, 2.436e-5
-1.106, 2.451e-5
-1.107, 3.377e-5
-1.108, 2.872e-5
-1.109, 2.250e-5
-1.110, 3.185e-5
-1.111, 3.224e-5
-1.112, 2.283e-5
-1.113, 2.767e-5
-1.114, 3.475e-5
-1.115, 2.501e-5
-1.116, 2.508e-5
-1.117, 3.473e-5
-1.118, 2.897e-5
-1.119, 2.303e-5
-1.120, 3.218e-5
-1.121, 3.225e-5
-1.122, 2.360e-5
-1.123, 2.821e-5
-1.124, 3.514e-5
-1.125, 2.500e-5
-1.126, 2.495e-5
-1.127, 3.440e-5
-1.128, 2.925e-5
-1.129, 2.309e-5
-1.130, 3.290e-5
-1.131, 3.235e-5
-1.132, 2.411e-5
-1.133, 2.862e-5
-1.134, 3.511e-5
-1.135, 2.570e-5
-1.136, 2.529e-5
-1.137, 3.464e-5
-1.138, 2.960e-5
-1.139, 2.350e-5
-1.140, 3.268e-5
-1.141, 3.261e-5
-1.142, 2.386e-5
-1.143, 2.880e-5
-1.144, 3.563e-5
-1.145, 2.621e-5
-1.146, 2.573e-5
-1.147, 3.540e-5
-1.148, 2.963e-5
-1.149, 2.368e-5
-1.150, 3.296e-5
-1.151, 3.312e-5
-1.152, 2.397e-5
-1.153, 2.902e-5
-1.154, 3.613e-5
-1.155, 2.598e-5
-1.156, 2.601e-5
-1.157, 3.532e-5
-1.158, 2.989e-5
-1.159, 2.376e-5
-1.160, 3.367e-5
-1.161, 3.337e-5
-1.162, 2.476e-5
-1.163, 2.880e-5
-1.164, 3.578e-5
-1.165, 2.623e-5
-1.166, 2.620e-5
-1.167, 3.516e-5
-1.168, 2.976e-5
-1.169, 2.362e-5
-1.170, 3.340e-5
-1.171, 3.326e-5
-1.172, 2.457e-5
-1.173, 2.960e-5
-1.174, 3.584e-5
-1.175, 2.664e-5
-1.176, 2.597e-5
-1.177, 3.546e-5
-1.178, 3.016e-5
-1.179, 2.391e-5
-1.180, 3.372e-5
-1.181, 3.280e-5
-1.182, 2.507e-5
-1.183, 2.910e-5
-1.184, 3.617e-5
-1.185, 2.630e-5
-1.186, 2.614e-5
-1.187, 3.543e-5
-1.188, 3.015e-5
-1.189, 2.382e-5
-1.190, 3.398e-5
-1.191, 3.337e-5
-1.192, 2.477e-5
-1.193, 2.902e-5
-1.194, 3.577e-5
-1.195, 2.616e-5
-1.196, 2.612e-5
-1.197, 3.503e-5
-1.198, 3.006e-5
-1.199, 2.386e-5
-1.200, 3.327e-5
-1.201, 3.268e-5
-1.202, 2.486e-5
-1.203, 2.931e-5
-1.204, 3.597e-5
-1.205, 2.653e-5
-1.206, 2.636e-5
-1.207, 3.557e-5
-1.208, 2.963e-5
-1.209, 2.396e-5
-1.210, 3.371e-5
-1.211, 3.300e-5
-1.212, 2.482e-5
-1.213, 2.909e-5
-1.214, 3.593e-5
-1.215, 2.639e-5
-1.216, 2.618e-5
-1.217, 3.525e-5
-1.218, 3.030e-5
-1.219, 2.365e-5
-1.220, 3.439e-5
-1.221, 3.278e-5
-1.222, 2.491e-5
-1.223, 2.943e-5
-1.224, 3.549e-5
-1.225, 2.584e-5
-1.226, 2.642e-5
-1.227, 3.540e-5
-1.228, 3.025e-5
-1.229, 2.439e-5
-1.230, 3.334e-5
-1.231, 3.316e-5
-1.232, 2.455e-5
-1.233, 2.961e-5
-1.234, 3.573e-5
-1.235, 2.688e-5
-1.236, 2.647e-5
-1.237, 3.515e-5
-1.238, 2.981e-5
-1.239, 2.424e-5
-1.240, 3.370e-5
-1.241, 3.275e-5
-1.242, 2.511e-5
-1.243, 2.928e-5
-1.244, 3.609e-5
-1.245, 2.633e-5
-1.246, 2.665e-5
-1.247, 3.540e-5
-1.248, 3.026e-5
-1.249, 2.430e-5
-1.250, 3.436e-5
-1.251, 3.260e-5
-1.252, 2.537e-5
-1.253, 2.970e-5
-1.254, 3.643e-5
-1.255, 2.674e-5
-1.256, 2.699e-5
-1.257, 3.549e-5
-1.258, 3.067e-5
-1.259, 2.473e-5
-1.260, 3.393e-5
-1.261, 3.334e-5
-1.262, 2.564e-5
-1.263, 3.048e-5
-1.264, 3.634e-5
-1.265, 2.747e-5
-1.266, 2.724e-5
-1.267, 3.631e-5
-1.268, 3.080e-5
-1.269, 2.563e-5
-1.270, 3.502e-5
-1.271, 3.405e-5
-1.272, 2.613e-5
-1.273, 3.064e-5
-1.274, 3.742e-5
-1.275, 2.745e-5
-1.276, 2.823e-5
-1.277, 3.701e-5
-1.278, 3.166e-5
-1.279, 2.620e-5
-1.280, 3.626e-5
-1.281, 3.468e-5
-1.282, 2.723e-5
-1.283, 3.189e-5
-1.284, 3.825e-5
-1.285, 2.895e-5
-1.286, 2.945e-5
-1.287, 3.812e-5
-1.288, 3.268e-5
-1.289, 2.760e-5
-1.290, 3.660e-5
-1.291, 3.580e-5
-1.292, 2.860e-5
-1.293, 3.334e-5
-1.294, 3.921e-5
-1.295, 3.081e-5
-1.296, 3.091e-5
-1.297, 3.942e-5
-1.298, 3.447e-5
-1.299, 2.903e-5
-1.300, 3.851e-5
-1.301, 3.741e-5
-1.302, 3.031e-5
-1.303, 3.519e-5
-1.304, 4.135e-5
-1.305, 3.209e-5
-1.306, 3.298e-5
-1.307, 4.159e-5
-1.308, 3.696e-5
-1.309, 3.123e-5
-1.310, 4.100e-5
-1.311, 4.034e-5
-1.312, 3.282e-5
-1.313, 3.776e-5
-1.314, 4.386e-5
-1.315, 3.530e-5
-1.316, 3.601e-5
-1.317, 4.464e-5
-1.318, 3.995e-5
-1.319, 3.471e-5
-1.320, 4.391e-5
-1.321, 4.362e-5
-1.322, 3.659e-5
-1.323, 4.172e-5
-1.324, 4.746e-5
-1.325, 4.008e-5
-1.326, 3.999e-5
-1.327, 4.875e-5
-1.328, 4.431e-5
-1.329, 3.923e-5
-1.330, 4.901e-5
-1.331, 4.811e-5
-1.332, 4.180e-5
-1.333, 4.605e-5
-1.334, 5.291e-5
-1.335, 4.532e-5
-1.336, 4.616e-5
-1.337, 5.404e-5
-1.338, 5.051e-5
-1.339, 4.559e-5
-1.340, 5.541e-5
-1.341, 5.451e-5
-1.342, 4.811e-5
-1.343, 5.317e-5
-1.344, 5.981e-5
-1.345, 5.204e-5
-1.346, 5.364e-5
-1.347, 6.238e-5
-1.348, 5.787e-5
-1.349, 5.384e-5
-1.350, 6.358e-5
-1.351, 6.382e-5
-1.352, 5.731e-5
-1.353, 6.241e-5
-1.354, 6.977e-5
-1.355, 6.255e-5
-1.356, 6.377e-5
-1.357, 7.280e-5
-1.358, 6.970e-5
-1.359, 6.536e-5
-1.360, 7.544e-5
-1.361, 7.577e-5
-1.362, 7.005e-5
-1.363, 7.517e-5
-1.364, 8.272e-5
-1.365, 7.598e-5
-1.366, 7.761e-5
-1.367, 8.701e-5
-1.368, 8.437e-5
-1.369, 8.016e-5
-1.370, 9.124e-5
-1.371, 9.232e-5
-1.372, 8.701e-5
-1.373, 9.271e-5
-1.374, 1.002e-4
-1.375, 9.472e-5
-1.376, 9.620e-5
-1.377, 1.063e-4
-1.378, 1.044e-4
-1.379, 1.009e-4
-1.380, 1.120e-4
-1.381, 1.140e-4
-1.382, 1.095e-4
-1.383, 1.158e-4
-1.384, 1.242e-4
-1.385, 1.192e-4
-1.386, 1.217e-4
-1.387, 1.323e-4
-1.388, 1.312e-4
-1.389, 1.288e-4
-1.390, 1.401e-4
-1.391, 1.434e-4
-1.392, 1.400e-4
-1.393, 1.466e-4
-1.394, 1.567e-4
-1.395, 1.523e-4
-1.396, 1.559e-4
-1.397, 1.681e-4
-1.398, 1.684e-4
-1.399, 1.666e-4
-1.400, 1.789e-4
-1.401, 1.832e-4
-1.402, 1.809e-4
-1.403, 1.883e-4
-1.404, 2.001e-4
-1.405, 1.975e-4
-1.406, 2.013e-4
-1.407, 2.147e-4
-1.408, 2.164e-4
-1.409, 2.163e-4
-1.410, 2.295e-4
-1.411, 2.363e-4
-1.412, 2.351e-4
-1.413, 2.438e-4
-1.414, 2.570e-4
-1.415, 2.565e-4
-1.416, 2.613e-4
-1.417, 2.762e-4
-1.418, 2.808e-4
-1.419, 2.809e-4
-1.420, 2.967e-4
-1.421, 3.060e-4
-1.422, 3.063e-4
-1.423, 3.167e-4
-1.424, 3.324e-4
-1.425, 3.338e-4
-1.426, 3.404e-4
-1.427, 3.574e-4
-1.428, 3.652e-4
-1.429, 3.668e-4
-1.430, 3.838e-4
-1.431, 3.958e-4
-1.432, 3.988e-4
-1.433, 4.106e-4
-1.434, 4.293e-4
-1.435, 4.341e-4
-1.436, 4.422e-4
-1.437, 4.616e-4
-1.438, 4.720e-4
-1.439, 4.764e-4
-1.440, 4.955e-4
-1.441, 5.116e-4
-1.442, 5.174e-4
-1.443, 5.308e-4
-1.444, 5.533e-4
-1.445, 5.613e-4
-1.446, 5.710e-4
-1.447, 5.935e-4
-1.448, 6.086e-4
-1.449, 6.146e-4
-1.450, 6.371e-4
-1.451, 6.571e-4
-1.452, 6.654e-4
-1.453, 6.814e-4
-1.454, 7.080e-4
-1.455, 7.197e-4
-1.456, 7.315e-4
-1.457, 7.588e-4
-1.458, 7.786e-4
-1.459, 7.875e-4
-1.460, 8.132e-4
-1.461, 8.385e-4
-1.462, 8.502e-4
-1.463, 8.691e-4
-1.464, 8.999e-4
-1.465, 9.167e-4
-1.466, 9.317e-4
-1.467, 9.632e-4
-1.468, 9.877e-4
-1.469, 9.993e-4
-1.470, 1.027e-3
-1.471, 1.058e-3
-1.472, 1.073e-3
-1.473, 1.095e-3
-1.474, 1.132e-3
-1.475, 1.153e-3
-1.476, 1.170e-3
-1.477, 1.206e-3
-1.478, 1.236e-3
-1.479, 1.251e-3
-1.480, 1.283e-3
-1.481, 1.321e-3
-1.482, 1.340e-3
-1.483, 1.365e-3
-1.484, 1.407e-3
-1.485, 1.433e-3
-1.486, 1.452e-3
-1.487, 1.494e-3
-1.488, 1.530e-3
-1.489, 1.548e-3
-1.490, 1.587e-3
-1.491, 1.631e-3
-1.492, 1.655e-3
-1.493, 1.683e-3
-1.494, 1.731e-3
-1.495, 1.764e-3
-1.496, 1.785e-3
-1.497, 1.831e-3
-1.498, 1.874e-3
-1.499, 1.895e-3
-1.500, 1.935e-3
-1.501, 1.986e-3
-1.502, 2.013e-3
-1.503, 2.043e-3
-1.504, 2.098e-3
-1.505, 2.136e-3
-1.506, 2.162e-3
-1.507, 2.213e-3
-1.508, 2.264e-3
-1.509, 2.288e-3
-1.510, 2.333e-3
-1.511, 2.390e-3
-1.512, 2.423e-3
-1.513, 2.457e-3
-1.514, 2.519e-3
-1.515, 2.562e-3
-1.516, 2.592e-3
-1.517, 2.650e-3
-1.518, 2.707e-3
-1.519, 2.735e-3
-1.520, 2.782e-3
-1.521, 2.846e-3
-1.522, 2.883e-3
-1.523, 2.922e-3
-1.524, 2.990e-3
-1.525, 3.040e-3
-1.526, 3.071e-3
-1.527, 3.136e-3
-1.528, 3.199e-3
-1.529, 3.231e-3
-1.530, 3.284e-3
-1.531, 3.355e-3
-1.532, 3.395e-3
-1.533, 3.436e-3
-1.534, 3.511e-3
-1.535, 3.566e-3
-1.536, 3.600e-3
-1.537, 3.669e-3
-1.538, 3.740e-3
-1.539, 3.773e-3
-1.540, 3.830e-3
-1.541, 3.906e-3
-1.542, 3.949e-3
-1.543, 3.992e-3
-1.544, 4.074e-3
-1.545, 4.133e-3
-1.546, 4.170e-3
-1.547, 4.242e-3
-1.548, 4.318e-3
-1.549, 4.353e-3
-1.550, 4.412e-3
-1.551, 4.497e-3
-1.552, 4.545e-3
-1.553, 4.595e-3
-1.554, 4.685e-3
-1.555, 4.753e-3
-1.556, 4.794e-3
-1.557, 4.876e-3
-1.558, 4.958e-3
-1.559, 5.000e-3
-1.560, 5.066e-3
-1.561, 5.156e-3
-1.562, 5.208e-3
-1.563, 5.258e-3
-1.564, 5.350e-3
-1.565, 5.419e-3
-1.566, 5.464e-3
-1.567, 5.547e-3
-1.568, 5.634e-3
-1.569, 5.679e-3
-1.570, 5.749e-3
-1.571, 5.848e-3
-1.572, 5.905e-3
-1.573, 5.955e-3
-1.574, 6.054e-3
-1.575, 6.130e-3
-1.576, 6.179e-3
-1.577, 6.272e-3
-1.578, 6.367e-3
-1.579, 6.414e-3
-1.580, 6.484e-3
-1.581, 6.586e-3
-1.582, 6.644e-3
-1.583, 6.697e-3
-1.584, 6.796e-3
-1.585, 6.873e-3
-1.586, 6.919e-3
-1.587, 7.017e-3
-1.588, 7.123e-3
-1.589, 7.179e-3
-1.590, 7.259e-3
-1.591, 7.360e-3
-1.592, 7.410e-3
-1.593, 7.460e-3
-1.594, 7.563e-3
-1.595, 7.649e-3
-1.596, 7.706e-3
-1.597, 7.804e-3
-1.598, 7.910e-3
-1.599, 7.964e-3
-1.600, 7.969e-3
-1.599, 7.917e-3
-1.598, 7.812e-3
-1.597, 7.706e-3
-1.596, 7.651e-3
-1.595, 7.570e-3
-1.594, 7.464e-3
-1.593, 7.399e-3
-1.592, 7.339e-3
-1.591, 7.228e-3
-1.590, 7.145e-3
-1.589, 7.094e-3
-1.588, 7.001e-3
-1.587, 6.906e-3
-1.586, 6.856e-3
-1.585, 6.781e-3
-1.584, 6.673e-3
-1.583, 6.608e-3
-1.582, 6.546e-3
-1.581, 6.436e-3
-1.580, 6.351e-3
-1.579, 6.298e-3
-1.578, 6.203e-3
-1.577, 6.105e-3
-1.576, 6.053e-3
-1.575, 5.975e-3
-1.574, 5.875e-3
-1.573, 5.819e-3
-1.572, 5.767e-3
-1.571, 5.670e-3
-1.570, 5.598e-3
-1.569, 5.551e-3
-1.568, 5.463e-3
-1.567, 5.369e-3
-1.566, 5.317e-3
-1.565, 5.242e-3
-1.564, 5.145e-3
-1.563, 5.088e-3
-1.562, 5.035e-3
-1.561, 4.940e-3
-1.560, 4.869e-3
-1.559, 4.823e-3
-1.558, 4.741e-3
-1.557, 4.662e-3
-1.556, 4.619e-3
-1.555, 4.554e-3
-1.554, 4.466e-3
-1.553, 4.414e-3
-1.552, 4.365e-3
-1.551, 4.280e-3
-1.550, 4.218e-3
-1.549, 4.175e-3
-1.548, 4.098e-3
-1.547, 4.021e-3
-1.546, 3.980e-3
-1.545, 3.919e-3
-1.544, 3.842e-3
-1.543, 3.798e-3
-1.542, 3.756e-3
-1.541, 3.680e-3
-1.540, 3.624e-3
-1.539, 3.586e-3
-1.538, 3.518e-3
-1.537, 3.449e-3
-1.536, 3.412e-3
-1.535, 3.353e-3
-1.534, 3.280e-3
-1.533, 3.247e-3
-1.532, 3.213e-3
-1.531, 3.144e-3
-1.530, 3.094e-3
-1.529, 3.058e-3
-1.528, 2.995e-3
-1.527, 2.935e-3
-1.526, 2.906e-3
-1.525, 2.857e-3
-1.524, 2.794e-3
-1.523, 2.759e-3
-1.522, 2.721e-3
-1.521, 2.658e-3
-1.520, 2.614e-3
-1.519, 2.584e-3
-1.518, 2.528e-3
-1.517, 2.474e-3
-1.516, 2.447e-3
-1.515, 2.401e-3
-1.514, 2.343e-3
-1.513, 2.312e-3
-1.512, 2.278e-3
-1.511, 2.221e-3
-1.510, 2.183e-3
-1.509, 2.157e-3
-1.508, 2.107e-3
-1.507, 2.060e-3
-1.506, 2.036e-3
-1.505, 1.995e-3
-1.504, 1.945e-3
-1.503, 1.920e-3
-1.502, 1.890e-3
-1.501, 1.841e-3
-1.500, 1.809e-3
-1.499, 1.787e-3
-1.498, 1.744e-3
-1.497, 1.705e-3
-1.496, 1.686e-3
-1.495, 1.650e-3
-1.494, 1.607e-3
-1.493, 1.586e-3
-1.492, 1.558e-3
-1.491, 1.515e-3
-1.490, 1.489e-3
-1.489, 1.469e-3
-1.488, 1.431e-3
-1.487, 1.399e-3
-1.486, 1.384e-3
-1.485, 1.351e-3
-1.484, 1.315e-3
-1.483, 1.297e-3
-1.482, 1.274e-3
-1.481, 1.237e-3
-1.480, 1.217e-3
-1.479, 1.200e-3
-1.478, 1.167e-3
-1.477, 1.140e-3
-1.476, 1.127e-3
-1.475, 1.099e-3
-1.474, 1.069e-3
-1.473, 1.055e-3
-1.472, 1.036e-3
-1.471, 1.004e-3
-1.470, 9.872e-4
-1.469, 9.728e-4
-1.468, 9.441e-4
-1.467, 9.220e-4
-1.466, 9.128e-4
-1.465, 8.878e-4
-1.464, 8.626e-4
-1.463, 8.531e-4
-1.462, 8.351e-4
-1.461, 8.077e-4
-1.460, 7.953e-4
-1.459, 7.826e-4
-1.458, 7.580e-4
-1.457, 7.399e-4
-1.456, 7.339e-4
-1.455, 7.116e-4
-1.454, 6.913e-4
-1.453, 6.846e-4
-1.452, 6.694e-4
-1.451, 6.461e-4
-1.450, 6.380e-4
-1.449, 6.275e-4
-1.448, 6.063e-4
-1.447, 5.923e-4
-1.446, 5.872e-4
-1.445, 5.688e-4
-1.444, 5.513e-4
-1.443, 5.467e-4
-1.442, 5.334e-4
-1.441, 5.137e-4
-1.440, 5.076e-4
-1.439, 4.994e-4
-1.438, 4.805e-4
-1.437, 4.706e-4
-1.436, 4.675e-4
-1.435, 4.505e-4
-1.434, 4.367e-4
-1.433, 4.344e-4
-1.432, 4.224e-4
-1.431, 4.057e-4
-1.430, 4.033e-4
-1.429, 3.961e-4
-1.428, 3.802e-4
-1.427, 3.720e-4
-1.426, 3.711e-4
-1.425, 3.552e-4
-1.424, 3.452e-4
-1.423, 3.446e-4
-1.422, 3.341e-4
-1.421, 3.193e-4
-1.420, 3.191e-4
-1.419, 3.121e-4
-1.418, 2.983e-4
-1.417, 2.931e-4
-1.416, 2.928e-4
-1.415, 2.791e-4
-1.414, 2.704e-4
-1.413, 2.715e-4
-1.412, 2.619e-4
-1.411, 2.496e-4
-1.410, 2.503e-4
-1.409, 2.457e-4
-1.408, 2.328e-4
-1.407, 2.296e-4
-1.406, 2.303e-4
-1.405, 2.180e-4
-1.404, 2.110e-4
-1.403, 2.137e-4
-1.402, 2.052e-4
-1.401, 1.939e-4
-1.400, 1.963e-4
-1.399, 1.926e-4
-1.398, 1.808e-4
-1.397, 1.789e-4
-1.396, 1.806e-4
-1.395, 1.685e-4
-1.394, 1.637e-4
-1.393, 1.665e-4
-1.392, 1.596e-4
-1.391, 1.491e-4
-1.390, 1.535e-4
-1.389, 1.493e-4
-1.388, 1.387e-4
-1.387, 1.380e-4
-1.386, 1.405e-4
-1.385, 1.298e-4
-1.384, 1.255e-4
-1.383, 1.294e-4
-1.382, 1.223e-4
-1.381, 1.136e-4
-1.380, 1.185e-4
-1.379, 1.151e-4
-1.378, 1.058e-4
-1.377, 1.056e-4
-1.376, 1.088e-4
-1.375, 9.876e-5
-1.374, 9.487e-5
-1.373, 9.992e-5
-1.372, 9.334e-5
-1.371, 8.558e-5
-1.370, 9.104e-5
-1.369, 8.808e-5
-1.368, 7.909e-5
-1.367, 7.992e-5
-1.366, 8.359e-5
-1.365, 7.367e-5
-1.364, 7.130e-5
-1.363, 7.630e-5
-1.362, 7.060e-5
-1.361, 6.302e-5
-1.360, 6.936e-5
-1.359, 6.666e-5
-1.358, 5.806e-5
-1.357, 5.986e-5
-1.356, 6.363e-5
-1.355, 5.416e-5
-1.354, 5.235e-5
-1.353, 5.778e-5
-1.352, 5.230e-5
-1.351, 4.517e-5
-1.350, 5.167e-5
-1.349, 4.940e-5
-1.348, 4.133e-5
-1.347, 4.409e-5
-1.346, 4.762e-5
-1.345, 3.881e-5
-1.344, 3.712e-5
-1.343, 4.337e-5
-1.342, 3.756e-5
-1.341, 3.108e-5
-1.340, 3.800e-5
-1.339, 3.618e-5
-1.338, 2.813e-5
-1.337, 3.045e-5
-1.336, 3.511e-5
-1.335, 2.615e-5
-1.334, 2.514e-5
-1.333, 3.146e-5
-1.332, 2.673e-5
-1.331, 1.935e-5
-1.330, 2.722e-5
-1.329, 2.529e-5
-1.328, 1.786e-5
-1.327, 2.083e-5
-1.326, 2.519e-5
-1.325, 1.642e-5
-1.324, 1.544e-5
-1.323, 2.215e-5
-1.322, 1.720e-5
-1.321, 1.083e-5
-1.320, 1.844e-5
-1.319, 1.732e-5
-1.318, 9.035e-6
-1.317, 1.314e-5
-1.316, 1.710e-5
-1.315, 8.522e-6
-1.314, 8.414e-6
-1.313, 1.465e-5
-1.312, 9.825e-6
-1.311, 3.757e-6
-1.310, 1.135e-5
-1.309, 1.009e-5
-1.308, 2.711e-6
-1.307, 5.947e-6
-1.306, 1.091e-5
-1.305, 2.543e-6
-1.304, 2.662e-6
-1.303, 8.660e-6
-1.302, 4.171e-6
-1.301, -1.798e-6
-1.300, 6.559e-6
-1.299, 4.576e-6
-1.298, -2.439e-6
-1.297, 1.172e-6
-1.296, 5.997e-6
-1.295, -2.468e-6
-1.294, -2.419e-6
-1.293, 4.290e-6
-1.292, -6.038e-7
-1.291, -6.277e-6
-1.290, 2.040e-6
-1.289, 5.703e-7
-1.288, -6.642e-6
-1.287, -2.399e-6
-1.286, 1.626e-6
-1.285, -6.178e-6
-1.284, -6.089e-6
-1.283, 3.828e-7
-1.282, -3.662e-6
-1.281, -9.759e-6
-1.280, -1.669e-6
-1.279, -2.873e-6
-1.278, -1.028e-5
-1.277, -6.050e-6
-1.276, -1.097e-6
-1.275, -9.542e-6
-1.274, -8.960e-6
-1.273, -2.538e-6
-1.272, -6.632e-6
-1.271, -1.273e-5
-1.270, -4.432e-6
-1.269, -5.783e-6
-1.268, -1.276e-5
-1.267, -8.832e-6
-1.266, -3.958e-6
-1.265, -1.243e-5
-1.264, -1.201e-5
-1.263, -5.261e-6
-1.262, -9.779e-6
-1.261, -1.456e-5
-1.260, -6.504e-6
-1.259, -7.905e-6
-1.258, -1.509e-5
-1.257, -1.097e-5
-1.256, -6.070e-6
-1.255, -1.441e-5
-1.254, -1.399e-5
-1.253, -7.165e-6
-1.252, -1.146e-5
-1.251, -1.722e-5
-1.250, -8.714e-6
-1.249, -1.007e-5
-1.248, -1.685e-5
-1.247, -1.275e-5
-1.246, -7.618e-6
-1.245, -1.614e-5
-1.244, -1.532e-5
-1.243, -9.167e-6
-1.242, -1.291e-5
-1.241, -1.859e-5
-1.240, -1.040e-5
-1.239, -1.092e-5
-1.238, -1.884e-5
-1.237, -1.423e-5
-1.236, -9.187e-6
-1.235, -1.775e-5
-1.234, -1.702e-5
-1.233, -1.026e-5
-1.232, -1.461e-5
-1.231, -1.970e-5
-1.230, -1.191e-5
-1.229, -1.247e-5
-1.228, -1.981e-5
-1.227, -1.588e-5
-1.226, -1.058e-5
-1.225, -1.943e-5
-1.224, -1.854e-5
-1.223, -1.150e-5
-1.222, -1.631e-5
-1.221, -2.153e-5
-1.220, -1.307e-5
-1.219, -1.420e-5
-1.218, -2.121e-5
-1.217, -1.732e-5
-1.216, -1.171e-5
-1.215, -2.007e-5
-1.214, -1.934e-5
-1.213, -1.257e-5
-1.212, -1.716e-5
-1.211, -2.244e-5
-1.210, -1.424e-5
-1.209, -1.485e-5
-1.208, -2.253e-5
-1.207, -1.784e-5
-1.206, -1.290e-5
-1.205, -2.139e-5
-1.204, -2.073e-5
-1.203, -1.358e-5
-1.202, -1.813e-5
-1.201, -2.320e-5
-1.200, -1.517e-5
-1.199, -1.521e-5
-1.198, -2.348e-5
-1.197, -1.890e-5
-1.196, -1.373e-5
-1.195, -2.238e-5
-1.194, -2.165e-5
-1.193, -1.469e-5
-1.192, -1.881e-5
-1.191, -2.442e-5
-1.190, -1.609e-5
-1.189, -1.666e-5
-1.188, -2.381e-5
-1.187, -1.994e-5
-1.186, -1.410e-5
-1.185, -2.325e-5
-1.184, -2.247e-5
-1.183, -1.494e-5
-1.182, -1.980e-5
-1.181, -2.491e-5
-1.180, -1.691e-5
-1.179, -1.770e-5
-1.178, -2.492e-5
-1.177, -2.065e-5
-1.176, -1.501e-5
-1.175, -2.363e-5
-1.174, -2.332e-5
-1.173, -1.591e-5
-1.172, -2.044e-5
-1.171, -2.553e-5
-1.170, -1.777e-5
-1.169, -1.808e-5
-1.168, -2.551e-5
-1.167, -2.156e-5
-1.166, -1.597e-5
-1.165, -2.444e-5
-1.164, -2.410e-5
-1.163, -1.661e-5
-1.162, -2.126e-5
-1.161, -2.695e-5
-1.160, -1.838e-5
-1.159, -1.891e-5
-1.158, -2.635e-5
-1.157, -2.225e-5
-1.156, -1.606e-5
-1.155, -2.567e-5
-1.154, -2.491e-5
-1.153, -1.739e-5
-1.152, -2.175e-5
-1.151, -2.749e-5
-1.150, -1.941e-5
-1.149, -1.961e-5
-1.148, -2.736e-5
-1.147, -2.345e-5
-1.146, -1.734e-5
-1.145, -2.606e-5
-1.144, -2.594e-5
-1.143, -1.769e-5
-1.142, -2.284e-5
-1.141, -2.853e-5
-1.140, -2.007e-5
-1.139, -2.043e-5
-1.138, -2.780e-5
-1.137, -2.420e-5
-1.136, -1.782e-5
-1.135, -2.665e-5
-1.134, -2.674e-5
-1.133, -1.879e-5
-1.132, -2.369e-5
-1.131, -2.922e-5
-1.130, -2.091e-5
-1.129, -2.142e-5
-1.128, -2.848e-5
-1.127, -2.487e-5
-1.126, -1.912e-5
-1.125, -2.782e-5
-1.124, -2.766e-5
-1.123, -1.988e-5
-1.122, -2.435e-5
-1.121, -3.051e-5
-1.120, -2.159e-5
-1.119, -2.200e-5
-1.118, -2.991e-5
-1.117, -2.584e-5
-1.116, -1.972e-5
-1.115, -2.874e-5
-1.114, -2.879e-5
-1.113, -2.084e-5
-1.112, -2.543e-5
-1.111, -3.111e-5
-1.110, -2.296e-5
-1.109, -2.346e-5
-1.108, -3.091e-5
-1.107, -2.681e-5
-1.106, -2.069e-5
-1.105, -3.007e-5
-1.104, -2.945e-5
-1.103, -2.185e-5
-1.102, -2.668e-5
-1.101, -3.260e-5
-1.100, -2.369e-5
-1.099, -2.467e-5
-1.098, -3.163e-5
-1.097, -2.845e-5
-1.096, -2.176e-5
-1.095, -3.113e-5
-1.094, -3.121e-5
-1.093, -2.285e-5
-1.092, -2.762e-5
-1.091, -3.370e-5
-1.090, -2.529e-5
-1.089, -2.544e-5
-1.088, -3.352e-5
-1.087, -2.948e-5
-1.086, -2.323e-5
-1.085, -3.205e-5
-1.084, -3.242e-5
-1.083, -2.403e-5
-1.082, -2.928e-5
-1.081, -3.511e-5
-1.080, -2.656e-5
-1.079, -2.657e-5
-1.078, -3.501e-5
-1.077, -3.081e-5
-1.076, -2.462e-5
-1.075, -3.399e-5
-1.074, -3.389e-5
-1.073, -2.641e-5
-1.072, -3.073e-5
-1.071, -3.706e-5
-1.070, -2.827e-5
-1.069, -2.838e-5
-1.068, -3.638e-5
-1.067, -3.320e-5
-1.066, -2.600e-5
-1.065, -3.567e-5
-1.064, -3.604e-5
-1.063, -2.754e-5
-1.062, -3.266e-5
-1.061, -3.863e-5
-1.060, -3.010e-5
-1.059, -3.031e-5
-1.058, -3.902e-5
-1.057, -3.510e-5
-1.056, -2.837e-5
-1.055, -3.758e-5
-1.054, -3.870e-5
-1.053, -2.943e-5
-1.052, -3.480e-5
-1.051, -4.115e-5
-1.050, -3.270e-5
-1.049, -3.287e-5
-1.048, -4.119e-5
-1.047, -3.751e-5
-1.046, -3.085e-5
-1.045, -4.068e-5
-1.044, -4.104e-5
-1.043, -3.296e-5
-1.042, -3.764e-5
-1.041, -4.427e-5
-1.040, -3.491e-5
-1.039, -3.551e-5
-1.038, -4.405e-5
-1.037, -4.079e-5
-1.036, -3.348e-5
-1.035, -4.375e-5
-1.034, -4.401e-5
-1.033, -3.604e-5
-1.032, -4.068e-5
-1.031, -4.755e-5
-1.030, -3.890e-5
-1.029, -3.861e-5
-1.028, -4.766e-5
-1.027, -4.468e-5
-1.026, -3.713e-5
-1.025, -4.664e-5
-1.024, -4.839e-5
-1.023, -3.895e-5
-1.022, -4.429e-5
-1.021, -5.124e-5
-1.020, -4.262e-5
-1.019, -4.267e-5
-1.018, -5.137e-5
-1.017, -4.882e-5
-1.016, -4.070e-5
-1.015, -5.096e-5
-1.014, -5.252e-5
-1.013, -4.351e-5
-1.012, -4.804e-5
-1.011, -5.590e-5
-1.010, -4.672e-5
-1.009, -4.648e-5
-1.008, -5.558e-5
-1.007, -5.291e-5
-1.006, -4.517e-5
-1.005, -5.538e-5
-1.004, -5.699e-5
-1.003, -4.744e-5
-1.002, -5.254e-5
-1.001, -6.045e-5
