Potential V vs RHE, Current mA cm-2
0.013299999999999867,9.375291784205599
0.012299999999999978,7.630952751472008
0.011299999999999866,6.1044792589176335
0.010299999999999976,4.6218618166590755
0.009299999999999864,3.2693978139880997
0.008299999999999974,2.004645911908757
0.007299999999999862,0.8264743413811545
0.006299999999999972,-0.26384365742482935
0.00529999999999986,-1.3543031273607997
0.0042999999999999705,-2.3144676865791998
0.0032999999999998586,-3.273641947887695
0.0022999999999999687,-4.1889601589003735
0.0012999999999998568,-5.105693081212917
0.00029999999999996696,-5.977155241929781
-0.000700000000000145,-6.850032113946507
-0.0017000000000000348,-7.679052935667419
-0.0027000000000001467,-8.464217707092514
-0.0037000000000000366,-9.205526428221793
-0.0047000000000001485,-9.946835149351072
-0.005700000000000038,-10.644287820184536
-0.00670000000000015,-11.299299152022046
-0.00770000000000004,-11.952895772559694
-0.008700000000000152,-12.607907104397206
-0.009700000000000042,-13.217647674639037
-0.010700000000000154,-13.872659006476551
-0.011700000000000044,-14.529085049613924
-0.012700000000000156,-15.137410908555893
-0.013700000000000045,-15.74573676749786
-0.014700000000000157,-16.311621287443874
-0.015700000000000047,-16.877505807389888
-0.01670000000000016,-17.40094898833995
-0.01770000000000005,-17.881950830294063
-0.01870000000000016,-18.362952672248177
-0.01970000000000005,-18.843954514202288
-0.020700000000000163,-19.367397695152352
-0.021700000000000053,-19.890840876102416
-0.022700000000000164,-20.371842718056527
-0.023700000000000054,-20.85284456001064
-0.024700000000000166,-21.376287740960702
-0.025700000000000056,-21.857289582914817
-0.026700000000000168,-22.295850085872978
-0.027700000000000058,-22.776851927827092
-0.02870000000000017,-23.2012653177866
-0.02970000000000006,-23.597384481748815
-0.03070000000000017,-23.993503645711023
-0.03170000000000006,-24.432064148669184
-0.03270000000000017,-24.814036199632742
-0.03370000000000006,-25.252596702590903
-0.034700000000000175,-25.691157205549064
-0.035700000000000065,-26.129717708507226
-0.03670000000000018,-26.568278211465387
-0.03770000000000007,-26.9643973754276
-0.03870000000000018,-27.38881076538711
-0.03970000000000007,-27.742488590353368
-0.04070000000000018,-28.09616641531963
-0.04170000000000007,-28.435697127287238
-0.04270000000000018,-28.746933613257543
-0.04370000000000007,-29.14305277721976
-0.044700000000000184,-29.440142150191413
-0.045700000000000074,-29.836261314153624
-0.046700000000000186,-30.232380478115836
-0.047700000000000076,-30.571911190083444
-0.04870000000000019,-30.925589015049702
-0.04970000000000008,-31.27926684001596
-0.05070000000000019,-31.618797551983565
-0.05170000000000008,-31.972475376949827
-0.05270000000000019,-32.283711862920136
-0.05370000000000008,-32.62324257488775
-0.05470000000000019,-32.93447906085806
-0.05570000000000008,-33.231568433829715
-0.056700000000000195,-33.54280491980002
-0.057700000000000085,-33.89648274476628
-0.058700000000000196,-34.193572117737936
-0.059700000000000086,-34.50480860370825
-0.0607000000000002,-34.85848642867451
-0.06170000000000009,-35.198017140642115
-0.0627000000000002,-35.55169496560837
-0.06370000000000009,-35.90537279057463
-0.0647000000000002,-36.16002082455034
-0.06570000000000009,-36.4288159715247
-0.0667000000000002,-36.6834640055004
-0.0677000000000001,-36.99470049147071
-0.0687000000000002,-37.291789864442364
-0.0697000000000001,-37.645467689408626
-0.07070000000000021,-37.99914551437489
-0.0717000000000001,-38.33867622634249
-0.07270000000000021,-38.6499127123128
-0.0737000000000001,-38.94700208528445
-0.07470000000000021,-39.258238571254765
-0.0757000000000001,-39.56947505722508
-0.07670000000000021,-39.86656443019674
-0.0777000000000001,-40.177800916167044
-0.07870000000000021,-40.4748902891387
-0.0797000000000001,-40.743685436113054
-0.08070000000000022,-41.083216148080666
-0.0817000000000001,-41.39445263405098
-0.08270000000000022,-41.74813045901723
-0.08370000000000011,-42.130102509980794
-0.08470000000000022,-42.4413389959511
-0.08570000000000011,-42.752575481921404
-0.08670000000000022,-43.09210619388902
-0.08770000000000011,-43.36090134086337
-0.08870000000000022,-43.657990713835034
-0.08970000000000011,-43.96922719980534
-0.09070000000000022,-44.3229050247716
-0.09170000000000011,-44.66243573673921
-0.09270000000000023,-45.01611356170547
-0.09370000000000012,-45.32735004767578
-0.09470000000000023,-45.624439420647434
-0.09570000000000012,-45.97811724561369
-0.09670000000000023,-46.3176479575813
-0.09770000000000012,-46.67132578254756
-0.09870000000000023,-46.982562268517874
-0.09970000000000012,-47.32209298048547
-0.10070000000000023,-47.590888127459834
-0.10170000000000012,-47.8879775004315
-0.10270000000000024,-48.1992139864018
-0.10370000000000013,-48.51045047237211
-0.10470000000000024,-48.84998118433972
-0.10570000000000013,-49.20365900930597
-0.10670000000000024,-49.557336834272235
-0.10770000000000013,-49.89686754623985
-0.10870000000000024,-50.20810403221015
-0.10970000000000013,-50.547634744177756
-0.11070000000000024,-50.85887123014807
-0.11170000000000013,-51.127666377122424
-0.11270000000000002,-51.424755750094086
-0.11370000000000013,-51.77843357506035
-0.11470000000000002,-52.033081609036046
-0.11570000000000014,-52.386759434002315
-0.11670000000000003,-52.74043725896857
-0.11770000000000014,-53.12240930993213
-0.11870000000000003,-53.518528473894335
-0.11970000000000014,-53.82976495986464
-0.12070000000000003,-54.08441299384035
-0.12170000000000014,-54.39564947981066
-0.12270000000000003,-54.65029751378637
-0.12370000000000014,-55.003975338752625
-0.12470000000000003,-55.31521182472294
-0.12570000000000014,-55.65474253669055
-0.12670000000000003,-55.96597902266086
-0.12770000000000015,-56.30550973462846
-0.12870000000000004,-56.70162889859067
-0.12970000000000015,-57.05530672355693
-0.13070000000000004,-57.408984548523186
-0.13170000000000015,-57.79095659948675
-0.13270000000000004,-58.14463442445301
-0.13370000000000015,-58.45587091042332
-0.13470000000000004,-58.75296028339497
-0.13570000000000015,-59.06419676936528
-0.13670000000000004,-59.36128614233694
-0.13770000000000016,-59.67252262830725
-0.13870000000000005,-60.06864179226946
-0.13970000000000016,-60.49305518222897
-0.14070000000000005,-60.889174346191176
-0.14170000000000016,-61.242852171157445
-0.14270000000000005,-61.5965299961237
-0.14370000000000016,-61.89361936909536
-0.14470000000000005,-62.20485585506566
-0.14570000000000016,-62.544386567033264
-0.14670000000000005,-62.89806439199953
-0.14770000000000016,-63.251742216965795
-0.14870000000000005,-63.54883158993744
-0.14970000000000017,-63.902509414903705
-0.15070000000000006,-64.25618723986996
-0.15170000000000017,-64.59571795183757
-0.15270000000000006,-64.99183711579978
-0.15370000000000017,-65.38795627976201
-0.15470000000000006,-65.7274869917296
-0.15570000000000017,-66.12360615569182
-0.15670000000000006,-66.47728398065809
-0.15770000000000017,-66.81681469262568
-0.15870000000000006,-67.21293385658788
-0.15970000000000018,-67.56661168155415
-0.16070000000000007,-67.9202895065204
-0.16170000000000018,-68.30226155748396
-0.16270000000000007,-68.65593938245023
-0.16370000000000018,-69.05205854641244
-0.16470000000000007,-69.4906190493706
-0.16570000000000018,-69.95747377832606
-0.16670000000000007,-70.35359294228827
-0.16770000000000018,-70.70727076725453
-0.16870000000000007,-71.0043601402262
-0.16970000000000018,-71.31559662619651
-0.17070000000000007,-71.7117157901587
-0.17170000000000019,-72.10783495412092
-0.17270000000000008,-72.44736566608852
-0.1737000000000002,-72.8859261690467
-0.17470000000000008,-73.2820453330089
-0.1757000000000002,-73.62157604497652
-0.17670000000000008,-74.06013654793468
-0.1777000000000002,-74.45625571189689
-0.17870000000000008,-74.89481621485504
-0.1797000000000002,-75.29093537881725
-0.18070000000000008,-75.63046609078486
-0.1817000000000002,-76.02658525474708
-0.18270000000000008,-76.38026307971333
-0.1837000000000002,-76.7622351306769
-0.1847000000000001,-77.1583542946391
-0.1857000000000002,-77.59691479759726
-0.1867000000000001,-78.03547530055542
-0.1877000000000002,-78.51647714250953
-0.1887000000000001,-78.9550376454677
-0.1897000000000002,-79.37945103542721
-0.1907000000000001,-79.90289421637728
-0.1917000000000001,-80.38389605833139
-0.19269999999999998,-80.7800152222936
-0.1937000000000001,-81.13369304725985
-0.19469999999999998,-81.47322375922747
-0.1957000000000001,-81.86934292318966
-0.19669999999999999,-82.30790342614785
-0.1977000000000001,-82.78890526810196
-0.1987,-83.26990711005605
-0.1997000000000001,-83.75090895201016
-0.2007,-84.18946945496833
-0.2017000000000001,-84.61388284492786
-0.2027,-85.052443347886
-0.2037000000000001,-85.53344518984011
-0.2047,-85.97200569279828
-0.2057000000000001,-86.41056619575643
-0.2067,-86.84912669871461
-0.2077000000000001,-87.27354008867411
-0.2087,-87.71210059163228
-0.2097000000000001,-88.23554377258235
-0.2107,-88.71654561453644
-0.2117000000000001,-89.19754745649055
-0.2127,-89.67854929844468
-0.2137000000000001,-90.15955114039879
-0.2147,-90.6405529823529
-0.2157000000000001,-91.16399616330297
-0.2167,-91.64499800525708
-0.21770000000000012,-92.12599984721119
-0.2187,-92.6070016891653
-0.21970000000000012,-93.03141507912481
-0.2207,-93.55485826007487
-0.22170000000000012,-94.07830144102493
-0.2227,-94.70077441296557
-0.22370000000000012,-95.22421759391563
-0.2247,-95.74766077486568
-0.22570000000000012,-96.27110395581576
-0.2267,-96.73795868477121
-0.22770000000000012,-97.26140186572127
-0.22870000000000001,-97.78484504667132
-0.22970000000000013,-98.3082882276214
-0.23070000000000002,-98.83173140857146
-0.23170000000000013,-99.35517458952152
-0.23270000000000002,-99.87861777047159
-0.23370000000000013,-100.5010907424122
-0.23470000000000002,-101.06697526235823
-0.23570000000000013,-101.6753011213002
-0.23670000000000002,-102.19874430225026
-0.2376999999999999,-102.76462882219626
-0.23870000000000002,-103.28807200314633
-0.2396999999999999,-103.81151518409638
-0.24070000000000003,-104.41984104303836
-0.24169999999999991,-105.02816690198033
-0.24270000000000003,-105.59405142192634
-0.24369999999999992,-106.15993594187235
-0.24470000000000003,-106.68337912282242
-0.24569999999999992,-107.26341075576708
-0.24670000000000003,-107.87173661470905
-0.24769999999999992,-108.48006247365102
-0.24870000000000003,-109.13082967158894
-0.24969999999999992,-109.73915553053091
-0.25070000000000003,-110.3050400504769
-0.2516999999999999,-110.87092457042293
-0.25270000000000004,-111.4509562033676
-0.2536999999999999,-112.05928206230955
-0.25470000000000004,-112.71004926024747
-0.2556999999999999,-113.31837511918944
-0.25670000000000004,-113.96914231712736
-0.25769999999999993,-114.63405662806393
-0.25870000000000004,-115.28482382600184
-0.25969999999999993,-115.85070834594785
-0.26070000000000004,-116.45903420488982
-0.26169999999999993,-117.15224274182368
-0.26270000000000004,-117.90203973075215
-0.26369999999999993,-118.59524826768603
-0.26470000000000005,-119.20357412662798
-0.26569999999999994,-119.81189998556997
-0.26670000000000005,-120.43437295751058
-0.26769999999999994,-121.0851401554485
-0.26870000000000005,-121.77834869238235
-0.26969999999999994,-122.52814568131083
-0.27070000000000005,-123.26379555724066
-0.27169999999999994,-123.95700409417452
-0.27270000000000005,-124.62191840511109
-0.27369999999999994,-125.272685603049
-0.27470000000000006,-125.96589413998288
-0.27569999999999995,-126.6732497899154
-0.27670000000000006,-127.36645832684925
-0.27769999999999995,-128.05966686378312
-0.27870000000000006,-128.71043406172103
-0.27969999999999995,-129.3753483726576
-0.28070000000000006,-130.11099824858744
-0.28169999999999995,-130.8042067855213
-0.28270000000000006,-131.55400377444977
-0.28369999999999995,-132.2896536503796
-0.28470000000000006,-132.99700930031207
-0.28569999999999995,-133.69021783724597
-0.28670000000000007,-134.38342637417986
-0.28769999999999996,-135.09078202411234
-0.28870000000000007,-135.78399056104624
-0.28969999999999996,-136.43475775898415
-0.29070000000000007,-137.12796629591801
-0.29169999999999996,-137.9626459628384
-0.29270000000000007,-138.79732562975875
-0.29369999999999996,-139.61785818368048
-0.2947000000000001,-140.36765517260895
-0.29569999999999996,-141.01842237054686
-0.2967000000000001,-141.75407224647665
-0.29769999999999996,-142.4614278964092
-0.2987000000000001,-143.3102546763282
-0.29969999999999997,-144.01761032626072
-0.3007000000000001,-144.86643710617977
-0.30169999999999997,-145.57379275611228
-0.3027000000000001,-146.4226195360313
-0.30369999999999997,-147.1299751859638
-0.3047000000000001,-147.97880196588284
-0.30569999999999997,-148.82762874580186
-0.3067000000000001,-149.6764555257209
-0.3077,-150.5252823056399
-0.3087000000000001,-151.37410908555893
-0.3097,-152.0814647354914
-0.3107000000000001,-152.93029151541046
-0.3117,-153.63764716534297
-0.3127000000000001,-154.3450028152755
-0.3137,-155.19382959519453
-0.3147000000000001,-156.04265637511355
-0.3157,-156.75001202504606
-0.3167000000000001,-157.59883880496508
-0.3177,-158.4476655848841
-0.3187000000000001,-159.29649236480313
-0.3197,-160.14531914472215
-0.3207000000000001,-160.8526747946547
-0.3217,-161.5600304445872
-0.3227000000000001,-162.2673860945197
-0.3237,-163.11621287443873
-0.3247000000000001,-163.96503965435775
-0.3257,-164.9553375642633
-0.3267000000000001,-165.8041643441823
-0.3277,-166.65299112410133
-0.3287000000000001,-167.50181790402033
-0.3297,-168.35064468393938
-0.3307000000000001,-169.19947146385837
-0.3317,-170.0482982437774
-0.3327000000000001,-170.75565389370993
-0.3337,-171.60448067362896
-0.3347000000000001,-172.31183632356147
-0.3357,-173.16066310348046
-0.3367000000000001,-174.0094898833995
-0.3377,-174.85831666331853
-0.3387000000000001,-175.70714344323756
-0.3397,-176.55597022315658
-0.3407000000000001,-177.6877392630486
-0.3417,-178.67803717295413
-0.3427000000000001,-179.66833508285964
-0.3437,-180.5171618627787
-0.3447000000000001,-181.36598864269772
-0.3457,-182.07334429263022
-0.3467000000000001,-182.92217107254925
-0.3477,-183.91246898245475
-0.3487000000000001,-184.9027668923603
-0.3497,-185.89306480226583
-0.3507000000000001,-186.88336271217133
-0.3517,-187.73218949209036
-0.3527000000000001,-188.58101627200938
-0.3537,-189.57131418191491
-0.3547000000000001,-190.56161209182042
-0.3557,-191.551910001726
-0.35670000000000013,-192.40073678164498
-0.3577,-193.249563561564
-0.35870000000000013,-194.09839034148303
-0.3597,-194.94721712140205
-0.36070000000000013,-195.93751503130758
-0.3617,-196.7863418112266
-0.3626999999999999,-197.77663972113214
-0.3637,-198.76693763103765
-0.3646999999999999,-199.61576441095667
-0.3657,-200.4645911908757
-0.3666999999999999,-201.31341797079472
-0.3677,-202.02077362072723
-0.3686999999999999,-203.01107153063276
-0.36970000000000003,-204.0013694405383
-0.3706999999999999,-204.8501962204573
-0.37170000000000003,-205.84049413036286
-0.3726999999999999,-206.54784978029537
-0.37370000000000003,-207.3966765602144
-0.3746999999999999,-208.24550334013338
-0.37570000000000003,-209.0943301200524
-0.3766999999999999,-209.94315689997146
-0.37770000000000004,-210.93345480987696
-0.3786999999999999,-211.782281589796
-0.37970000000000004,-212.48963723972852
-0.3806999999999999,-213.33846401964755
-0.38170000000000004,-214.18729079956654
-0.38269999999999993,-215.03611757948556
-0.38370000000000004,-215.88494435940459
-0.38469999999999993,-216.73377113932364
-0.38570000000000004,-217.58259791924263
-0.38669999999999993,-217.15818452928315
-0.38570000000000004,-214.18729079956654
-0.38469999999999993,-211.499339329823
-0.38370000000000004,-208.95285899006592
-0.38269999999999993,-206.54784978029537
-0.38170000000000004,-204.0013694405383
-0.3806999999999999,-201.59636023076774
-0.37970000000000004,-199.47429328097016
-0.3786999999999999,-197.49369746115914
-0.37770000000000004,-195.37163051136156
-0.3766999999999999,-193.10809243157752
-0.37570000000000003,-190.84455435179345
-0.3746999999999999,-188.58101627200938
-0.37370000000000003,-186.45894932221185
-0.3726999999999999,-184.47835350240078
-0.37170000000000003,-182.35628655260325
-0.3706999999999999,-180.37569073279218
-0.36970000000000003,-178.25362378299462
-0.3686999999999999,-176.13155683319707
-0.3677,-174.0094898833995
-0.3666999999999999,-172.17036519357498
-0.3657,-170.18976937376394
-0.3646999999999999,-168.20917355395284
-0.3637,-166.22857773414182
-0.3626999999999999,-164.24798191433075
-0.3617,-162.2673860945197
-0.36070000000000013,-160.28679027470866
-0.3597,-158.3061944548976
-0.35870000000000013,-156.32559863508658
-0.3577,-154.3450028152755
-0.35670000000000013,-152.36440699546444
-0.3557,-150.5252823056399
-0.3547000000000001,-148.54468648582886
-0.3537,-146.7055617960043
-0.3527000000000001,-144.72496597619326
-0.3517,-143.0273124163552
-0.3507000000000001,-141.18818772653066
-0.3497,-139.4056514887007
-0.3487000000000001,-137.52408545988024
-0.3477,-135.5576367530678
-0.3467000000000001,-133.64777649825
-0.3457,-131.76621046942952
-0.3447000000000001,-130.02611557059552
-0.3437,-128.28602067176152
-0.3427000000000001,-126.57421999892482
-0.3417,-124.87656643908679
-0.3407000000000001,-123.1364715402528
-0.3397,-121.43881798041474
-0.3387000000000001,-119.769458646574
-0.3377,-118.11424642573192
-0.3367000000000001,-116.45903420488982
-0.3357,-114.80382198404773
-0.3347000000000001,-113.10616842420968
-0.3337,-111.394367751373
-0.3327000000000001,-109.73915553053091
-0.3317,-108.12638464868475
-0.3307000000000001,-106.51361376683862
-0.3297,-104.98572556298437
-0.3287000000000001,-103.50027869812607
-0.3277,-101.97239049427183
-0.3267000000000001,-100.35961961242569
-0.3257,-98.7892900695755
-0.3247000000000001,-97.17651918772938
-0.3237,-95.56374830588322
-0.3227000000000001,-93.99341876303303
-0.3217,-92.4655305591788
-0.3207000000000001,-90.93764235532454
-0.3197,-89.46634260346492
-0.3187000000000001,-87.93845439961068
-0.3177,-86.49544887374834
-0.3167000000000001,-85.01000200889004
-0.3157,-83.60943782202366
-0.3147000000000001,-82.22302074815593
-0.3137,-80.7800152222936
-0.3127000000000001,-79.33700969643127
-0.3117,-77.86570994457162
-0.3107000000000001,-76.42270441870929
-0.3097,-75.02214023184291
-0.3087000000000001,-73.57913470598055
-0.3077,-72.27760031010472
-0.3067000000000001,-70.96191880123024
-0.30569999999999997,-69.6603844053544
-0.3047000000000001,-68.34470289647993
-0.30369999999999997,-66.9582858226122
-0.3027000000000001,-65.5577216357458
-0.30169999999999997,-64.25618723986996
-0.3007000000000001,-62.89806439199953
-0.29969999999999997,-61.63897133511965
-0.2987000000000001,-60.32328982624517
-0.29769999999999996,-59.06419676936528
-0.2967000000000001,-57.7485152604908
-0.29569999999999996,-56.53186354260687
-0.2947000000000001,-55.25862337272834
-0.29369999999999996,-54.08441299384035
-0.29270000000000007,-52.86776127595642
-0.29169999999999996,-51.69355089706845
-0.29070000000000007,-50.46275206618586
-0.28969999999999996,-49.24610034830193
-0.28870000000000007,-48.071889969413945
-0.28769999999999996,-46.88353247752732
-0.28670000000000007,-45.666880759643384
-0.28569999999999995,-44.4926703807554
-0.28470000000000006,-43.36090134086337
-0.28369999999999995,-42.229132300971344
-0.28270000000000006,-41.139804600075266
-0.28169999999999995,-40.03632978618054
-0.28070000000000006,-38.98944342428042
-0.27969999999999995,-37.90011572338433
-0.27870000000000006,-36.768346683492304
-0.27769999999999995,-35.679018982596226
-0.27670000000000006,-34.58969128170015
-0.27569999999999995,-33.45792224180811
-0.27470000000000006,-32.45347721890394
-0.27369999999999994,-31.36414951800786
-0.27270000000000005,-30.359704495103685
-0.27169999999999994,-29.31281813320356
-0.27070000000000005,-28.308373110299385
-0.26969999999999994,-27.303928087395207
-0.26870000000000005,-26.29948306449103
-0.26769999999999994,-25.295038041586857
-0.26670000000000005,-24.24815167968673
