Potential V vs RHE, Current mA cm-2
0.013299999999999867,13.169547490443627
0.012299999999999978,11.556776608597485
0.011299999999999866,10.160456555630693
0.010299999999999976,8.89570465355135
0.009299999999999864,7.761106191059591
0.008299999999999974,6.627922439867697
0.007299999999999862,5.581036077967569
0.006299999999999972,4.6218618166590755
0.00529999999999986,3.748984944642347
0.0042999999999999705,2.963820173217252
0.0032999999999998586,2.178655401792157
0.0022999999999999687,1.3934906303670611
0.0012999999999998568,0.6520404381077953
0.00029999999999996696,-0.08943804837746762
-0.000700000000000145,-0.7872868383748929
-0.0017000000000000348,-1.3980177065266295
-0.0027000000000001467,-1.9650339955125358
-0.0037000000000000366,-2.576189277054232
-0.0047000000000001485,-3.1859298472960624
-0.005700000000000038,-3.7532290785419424
-0.00670000000000015,-4.3205283097878215
-0.00770000000000004,-4.843971490737885
-0.008700000000000152,-5.323558621392133
-0.009700000000000042,-5.759289701750564
-0.010700000000000154,-6.238876832404812
-0.011700000000000044,-6.762320013354876
-0.012700000000000156,-7.243321855308987
-0.013700000000000045,-7.679052935667419
-0.014700000000000157,-8.070927965730034
-0.015700000000000047,-8.464217707092514
-0.01670000000000016,-8.85609273715513
-0.01770000000000005,-9.24938247851761
-0.01870000000000016,-9.685113558876042
-0.01970000000000005,-10.120844639234473
-0.020700000000000163,-10.514134380596953
-0.021700000000000053,-10.819712021367803
-0.022700000000000164,-11.1677310011346
-0.023700000000000054,-11.517164692201263
-0.024700000000000166,-11.909039722263879
-0.025700000000000056,-12.302329463626359
-0.026700000000000168,-12.694204493688973
-0.027700000000000058,-12.99978213445982
-0.02870000000000017,-13.30535977523067
-0.02970000000000006,-13.610937416001518
-0.03070000000000017,-13.916515056772363
-0.03170000000000006,-14.26028990263957
-0.03270000000000017,-14.61396772760583
-0.03370000000000006,-14.967645552572087
-0.034700000000000175,-15.222293586547794
-0.035700000000000065,-15.491088733522153
-0.03670000000000018,-15.74573676749786
-0.03770000000000007,-16.056973253468165
-0.03870000000000018,-16.354062626439823
-0.03970000000000007,-16.665299112410132
-0.04070000000000018,-16.962388485381787
-0.04170000000000007,-17.188742293360193
-0.04270000000000018,-17.40094898833995
-0.04370000000000007,-17.71218547431026
-0.044700000000000184,-17.966833508285966
-0.045700000000000074,-18.27806999425627
-0.046700000000000186,-18.589306480226583
-0.047700000000000076,-18.88639585319824
-0.04870000000000019,-19.155191000172596
-0.04970000000000008,-19.367397695152352
-0.05070000000000019,-19.636192842126707
-0.05170000000000008,-19.93328221509837
-0.05270000000000019,-20.244518701068674
-0.05370000000000008,-20.541608074040333
-0.05470000000000019,-20.810403221014692
-0.05570000000000008,-21.022609915994444
-0.056700000000000195,-21.291405062968803
-0.057700000000000085,-21.54605309694451
-0.058700000000000196,-21.857289582914817
-0.059700000000000086,-22.15437895588647
-0.0607000000000002,-22.42317410286083
-0.06170000000000009,-22.67782213683654
-0.0627000000000002,-22.904175944814945
-0.06370000000000009,-23.15882397879065
-0.0647000000000002,-23.427619125765005
-0.06570000000000009,-23.724708498736668
-0.0667000000000002,-23.993503645711023
-0.0677000000000001,-24.24815167968673
-0.0687000000000002,-24.474505487665134
-0.0697000000000001,-24.686712182644893
-0.07070000000000021,-24.997948668615198
-0.0717000000000001,-25.252596702590903
-0.07270000000000021,-25.521391849565262
-0.0737000000000001,-25.81848122253692
-0.07470000000000021,-26.087276369511276
-0.0757000000000001,-26.29948306449103
-0.07670000000000021,-26.568278211465387
-0.0777000000000001,-26.822926245441096
-0.07870000000000021,-27.134162731411404
-0.0797000000000001,-27.43125210438306
-0.08070000000000022,-27.742488590353368
-0.0817000000000001,-27.954695285333123
-0.08270000000000022,-28.18104909331153
-0.08370000000000011,-28.478138466283188
-0.08470000000000022,-28.746933613257543
-0.08570000000000011,-29.001581647233255
-0.08670000000000022,-29.31281813320356
-0.08770000000000011,-29.581613280177915
-0.08870000000000022,-29.836261314153624
-0.08970000000000011,-30.04846800913338
-0.09070000000000022,-30.274821817111786
-0.09170000000000011,-30.571911190083444
-0.09270000000000023,-30.88314767605375
-0.09370000000000012,-31.137795710029454
-0.09470000000000023,-31.36414951800786
-0.09570000000000012,-31.57635621298762
-0.09670000000000023,-31.802710020966025
-0.09770000000000012,-32.09979939393769
-0.09870000000000023,-32.368594540912035
-0.09970000000000012,-32.70812525287965
-0.10070000000000023,-32.97692039985401
-0.10170000000000012,-33.18912709483376
-0.10270000000000024,-33.41548090281216
-0.10370000000000013,-33.670128936787876
-0.10470000000000024,-33.98136542275818
-0.10570000000000013,-34.33504324772444
-0.10670000000000024,-34.632132620696105
-0.10770000000000013,-34.94336910666641
-0.10870000000000024,-35.15557580164616
-0.10970000000000013,-35.38192960962457
-0.11070000000000024,-35.679018982596226
-0.11170000000000013,-35.99025546856653
-0.11270000000000002,-36.329786180534136
-0.11370000000000013,-36.5985813275085
-0.11470000000000002,-36.8532293614842
-0.11570000000000014,-37.122024508458566
-0.11670000000000003,-37.376672542434264
-0.11770000000000014,-37.645467689408626
-0.11870000000000003,-37.99914551437489
-0.11970000000000014,-38.29623488734655
-0.12070000000000003,-38.607471373316855
-0.12170000000000014,-38.81967806829661
-0.12270000000000003,-39.08847321527096
-0.12370000000000014,-39.30067991025072
-0.12470000000000003,-39.61191639622103
-0.12570000000000014,-39.95144710818864
-0.12670000000000003,-40.34756627215084
-0.12770000000000015,-40.616361419125205
-0.12870000000000004,-40.87100945310091
-0.12970000000000015,-41.139804600075266
-0.13070000000000004,-41.43689397304693
-0.13170000000000015,-41.79057179801318
-0.13270000000000004,-42.130102509980794
-0.13370000000000015,-42.483780334947056
-0.13470000000000004,-42.79501682091736
-0.13570000000000015,-43.007223515897124
-0.13670000000000004,-43.27601866287147
-0.13770000000000016,-43.57310803584313
-0.13870000000000005,-43.92678586080939
-0.13970000000000016,-44.28046368577565
-0.14070000000000005,-44.66243573673921
-0.14170000000000016,-44.88878954471762
-0.14270000000000005,-45.10099623969737
-0.14370000000000016,-45.412232725667685
-0.14470000000000005,-45.75176343763528
-0.14570000000000016,-46.10544126260155
-0.14670000000000005,-46.41667774857186
-0.14770000000000016,-46.75620846053947
-0.14870000000000005,-47.067444946509774
-0.14970000000000017,-47.32209298048547
-0.15070000000000006,-47.633329466455784
-0.15170000000000017,-47.987007291422046
-0.15270000000000006,-48.36897934238561
-0.15370000000000017,-48.76509850634781
-0.15470000000000006,-49.076334992318124
-0.15570000000000017,-49.458307043281685
-0.15670000000000006,-49.76954352925199
-0.15770000000000017,-50.024191563227696
-0.15870000000000006,-50.42031072718991
-0.15970000000000018,-50.81642989115212
-0.16070000000000007,-51.21254905511432
-0.16170000000000018,-51.509638428085985
-0.16270000000000007,-51.82087491405629
-0.16370000000000018,-52.17455273902255
-0.16470000000000007,-52.55652478998611
-0.16570000000000018,-52.91020261495237
-0.16670000000000007,-53.30632177891458
-0.16770000000000018,-53.64585249088219
-0.16870000000000007,-53.999530315848446
-0.16970000000000018,-54.35320814081471
-0.17070000000000007,-54.69273885278232
-0.17170000000000019,-55.046416677748574
-0.17270000000000008,-55.442535841710786
-0.1737000000000002,-55.838655005673
-0.17470000000000008,-56.1781857176406
-0.1757000000000002,-56.489422203610914
-0.17670000000000008,-56.82895291557852
-0.1777000000000002,-57.22507207954074
-0.17870000000000008,-57.57874990450699
-0.1797000000000002,-57.974869068469204
-0.18070000000000008,-58.35684111943277
-0.1817000000000002,-58.75296028339497
-0.18270000000000008,-59.10663810836124
-0.1837000000000002,-59.403727481332886
-0.1847000000000001,-59.7998466452951
-0.1857000000000002,-60.28084848724921
-0.1867000000000001,-60.71940899020737
-0.1877000000000002,-61.11552815416958
-0.1887000000000001,-61.49750020513315
-0.1897000000000002,-61.851178030099405
-0.1907000000000001,-62.24729719406162
-0.1917000000000001,-62.68585769701977
-0.19269999999999998,-63.11027108697928
-0.1937000000000001,-63.54883158993744
-0.19469999999999998,-63.98739209289561
-0.1957000000000001,-64.42595259585376
-0.19669999999999999,-64.82207175981598
-0.1977000000000001,-65.16160247178358
-0.1987,-65.64260431373769
-0.1997000000000001,-66.12360615569182
-0.2007,-66.60460799764593
-0.2017000000000001,-67.04316850060408
-0.2027,-67.48172900356225
-0.2037000000000001,-67.9202895065204
-0.2047,-68.34470289647993
-0.2057000000000001,-68.82570473843404
-0.2067,-69.3491479193841
-0.2077000000000001,-69.78770842234226
-0.2087,-70.22626892530042
-0.2097000000000001,-70.74971210625048
-0.2107,-71.1458312702127
-0.2117000000000001,-71.58439177317086
-0.2127,-72.10783495412092
-0.2137000000000001,-72.63127813507097
-0.2147,-73.15472131602105
-0.2157000000000001,-73.62157604497652
-0.2167,-74.10257788693062
-0.21770000000000012,-74.62602106788069
-0.2187,-75.14946424883075
-0.21970000000000012,-75.71534876877676
-0.2207,-76.23879194972683
-0.22170000000000012,-76.71979379168094
-0.2227,-77.20079563363505
-0.22370000000000012,-77.76668015358106
-0.2247,-78.33256467352709
-0.22570000000000012,-78.8135665154812
-0.2267,-79.33700969643127
-0.22770000000000012,-79.94533555537322
-0.22870000000000001,-80.46877873632329
-0.22970000000000013,-80.9497805782774
-0.23070000000000002,-81.47322375922747
-0.23170000000000013,-82.09569673116808
-0.23270000000000002,-82.70402259011003
-0.23370000000000013,-83.22746577106011
-0.23470000000000002,-83.75090895201016
-0.23570000000000013,-84.27435213296022
-0.23670000000000002,-84.7977953139103
-0.2376999999999999,-85.40612117285227
-0.23870000000000002,-86.09932970978613
-0.2396999999999999,-86.66521422973216
-0.24070000000000003,-87.14621607168625
-0.24169999999999991,-87.71210059163228
-0.24270000000000003,-88.32042645057423
-0.24369999999999992,-88.94289942251486
-0.24470000000000003,-89.50878394246087
-0.24569999999999992,-90.24443381839069
-0.24670000000000003,-90.93764235532454
-0.24769999999999992,-91.56011532726518
-0.24870000000000003,-92.12599984721119
-0.24969999999999992,-92.73432570615316
-0.25070000000000003,-93.34265156509512
-0.2516999999999999,-94.07830144102493
-0.25270000000000004,-94.78565709095746
-0.2536999999999999,-95.43642428889537
-0.25470000000000004,-96.12963282582925
-0.2556999999999999,-96.79454713676581
-0.25670000000000004,-97.40287299570777
-0.25769999999999993,-98.01119885464975
-0.25870000000000004,-98.6195247135917
-0.25969999999999993,-99.22785057253368
-0.26070000000000004,-99.83617643147564
-0.26169999999999993,-100.35961961242569
-0.26270000000000004,-100.92550413237171
-0.26369999999999993,-101.54797710431234
-0.26470000000000005,-102.24118564124619
-0.26569999999999994,-102.93439417818009
-0.26670000000000005,-103.59930848911664
-0.26769999999999994,-104.25007568705455
-0.26870000000000005,-104.90084288499246
-0.26969999999999994,-105.63649276092228
-0.27070000000000005,-106.30140707185885
-0.27169999999999994,-106.95217426979677
-0.27270000000000005,-107.68782414572658
-0.27369999999999994,-108.48006247365102
-0.27470000000000006,-109.17327101058488
-0.27569999999999995,-109.8806266605174
-0.27670000000000006,-110.6162765364472
-0.27769999999999995,-111.394367751373
-0.27870000000000006,-112.22904741829338
-0.27969999999999995,-113.10616842420968
-0.28070000000000006,-113.92670097813141
-0.28169999999999995,-114.76138064505177
-0.28270000000000006,-115.62435453796945
-0.28369999999999995,-116.41659286589388
-0.28470000000000006,-117.10980140282774
-0.28569999999999995,-117.90203973075215
-0.28670000000000007,-118.76501362366983
-0.28769999999999996,-119.55725195159425
-0.28870000000000007,-120.33534316652002
-0.28969999999999996,-121.12758149444444
-0.29070000000000007,-122.00470250036076
-0.29169999999999996,-122.78279371528653
-0.29270000000000007,-123.6174733822069
-0.29369999999999996,-124.35312325813672
-0.2947000000000001,-125.272685603049
-0.29569999999999996,-126.14980660896532
-0.2967000000000001,-126.84301514589919
-0.29769999999999996,-127.57866502182902
-0.2987000000000001,-128.4982273667413
-0.29969999999999997,-129.3753483726576
-0.3007000000000001,-130.19588092657932
-0.30169999999999997,-131.03056059349967
-0.3027000000000001,-131.89353448641737
-0.30369999999999997,-132.72821415333775
-0.3047000000000001,-133.46386402926754
-0.30569999999999997,-134.29854369618792
-0.3067000000000001,-135.17566470210423
-0.3077,-135.91131457803408
-0.3087000000000001,-136.7884355839504
-0.3097,-137.6089681378721
-0.3107000000000001,-138.27388244880868
-0.3117,-138.96709098574257
-0.3127000000000001,-139.8866533306548
-0.3137,-140.79206856256846
-0.3147000000000001,-141.61260111649017
-0.3157,-142.31995676642268
-0.3167000000000001,-143.16878354634173
-0.3177,-144.01761032626072
-0.3187000000000001,-145.00790823616626
-0.3197,-145.85673501608528
-0.3207000000000001,-146.8470329259908
-0.3217,-147.6958597059098
-0.3227000000000001,-148.54468648582886
-0.3237,-149.53498439573437
-0.3247000000000001,-150.66675343562642
-0.3257,-151.5155802155454
-0.3267000000000001,-152.50587812545095
-0.3277,-153.49617603535648
-0.3287000000000001,-154.486473945262
-0.3297,-155.33530072518104
-0.3307000000000001,-156.32559863508658
-0.3317,-157.31589654499206
-0.3327000000000001,-158.4476655848841
-0.3337,-159.43796349478964
-0.3347000000000001,-160.28679027470866
-0.3357,-161.1356170546277
-0.3367000000000001,-161.9844438345467
-0.3377,-163.11621287443873
-0.3387000000000001,-163.96503965435775
-0.3397,-164.67239530429026
-0.3407000000000001,-165.2382798242363
-0.3417,-166.0871066041553
-0.3427000000000001,-166.65299112410133
-0.3437,-167.36034677403384
-0.3447000000000001,-168.20917355395284
-0.3457,-168.91652920388537
-0.3467000000000001,-169.6238848538179
-0.3477,-170.33124050375042
-0.3487000000000001,-171.03859615368293
-0.3497,-171.74595180361547
-0.3507000000000001,-172.87772084350746
-0.3517,-173.58507649344
-0.3527000000000001,-174.2924321433725
-0.3537,-175.28273005327804
-0.3547000000000001,-176.13155683319707
-0.3557,-176.98038361311612
-0.35670000000000013,-177.82921039303508
-0.3577,-178.81950830294062
-0.35870000000000013,-179.80980621284618
-0.3597,-180.65863299276518
-0.36070000000000013,-181.64893090267074
-0.3617,-182.49775768258974
-0.3626999999999999,-183.34658446250873
-0.3637,-184.33688237241427
-0.3646999999999999,-185.1857091523333
-0.3657,-186.31747819222534
-0.3666999999999999,-187.16630497214436
-0.3677,-187.73218949209036
-0.3686999999999999,-188.4395451420229
-0.36970000000000003,-189.1469007919554
-0.3706999999999999,-189.99572757187443
-0.37170000000000003,-190.70308322180696
-0.3726999999999999,-191.41043887173947
-0.37370000000000003,-192.11779452167198
-0.3746999999999999,-192.683679041618
-0.37570000000000003,-193.10809243157752
-0.3766999999999999,-193.532505821537
-0.37770000000000004,-194.09839034148303
-0.3786999999999999,-194.94721712140205
-0.37970000000000004,-195.79604390132107
-0.3806999999999999,-196.0789861612941
-0.38170000000000004,-196.6448706812401
-0.38269999999999993,-197.21075520118612
-0.38370000000000004,-197.91811085111863
-0.38469999999999993,-198.48399537106465
-0.38570000000000004,-199.19135102099716
-0.38669999999999993,-198.62546650105114
-0.38570000000000004,-195.65457277133459
-0.38469999999999993,-192.82515017160452
-0.38370000000000004,-190.27866983184742
-0.38269999999999993,-187.87366062207687
-0.38170000000000004,-185.6101225422928
-0.3806999999999999,-183.48805559249527
-0.37970000000000004,-181.2245175127112
-0.3786999999999999,-178.67803717295413
-0.37770000000000004,-176.4144990931701
-0.3766999999999999,-174.150961013386
-0.37570000000000003,-172.0288940635885
-0.3746999999999999,-169.7653559838044
-0.37370000000000003,-167.6432890340068
-0.3726999999999999,-165.3797509542228
-0.37170000000000003,-162.97474174445222
-0.3706999999999999,-160.71120366466818
-0.36970000000000003,-158.3061944548976
-0.3686999999999999,-156.04265637511355
-0.3677,-153.920589425316
-0.3666999999999999,-151.93999360550492
-0.3657,-149.95939778569388
-0.3646999999999999,-147.55438857592333
-0.3637,-145.43232162612577
-0.3626999999999999,-143.4517258063147
-0.3617,-141.47112998650366
-0.36070000000000013,-139.61785818368048
-0.3597,-137.70799792886265
-0.35870000000000013,-135.78399056104624
-0.3577,-133.8599831932298
-0.35670000000000013,-131.95012293841197
-0.3557,-130.06855690959148
-0.3547000000000001,-128.32846201075745
-0.3537,-126.75813246790726
-0.3527000000000001,-125.04633179507057
-0.3517,-123.1364715402528
-0.3507000000000001,-121.2549055114323
-0.3497,-119.5996932905902
-0.3487000000000001,-117.94448106974811
-0.3477,-116.28926884890602
-0.3467000000000001,-114.67649796705987
-0.3457,-113.00713863321914
-0.3447000000000001,-111.3094850733811
-0.3437,-109.52694883555114
-0.3427000000000001,-107.8292952757131
-0.3417,-106.21652439386696
-0.3407000000000001,-104.58960639902216
-0.3397,-102.89195283918411
-0.3387000000000001,-101.3640646353299
-0.3377,-99.70885241448778
-0.3367000000000001,-97.88387483766188
-0.3357,-96.17207416482519
-0.3347000000000001,-94.6583330739696
-0.3337,-93.17288620911131
-0.3327000000000001,-91.60255666626112
-0.3317,-90.03222712341093
-0.3307000000000001,-88.46189758056073
-0.3297,-86.93400937670651
-0.3287000000000001,-85.44856251184822
-0.3277,-84.00555698598588
-0.3267000000000001,-82.56255146012353
-0.3257,-81.13369304725985
-0.3247000000000001,-79.86045287738132
-0.3237,-78.38915312552167
-0.3227000000000001,-76.86126492166746
-0.3217,-75.46070073480107
-0.3207000000000001,-74.20160767792116
-0.3197,-72.92836750804264
-0.3187000000000001,-71.48536198218031
-0.3177,-70.14138624730852
-0.3167000000000001,-68.78326339943808
-0.3157,-67.48172900356225
-0.3147000000000001,-66.16604749468777
-0.3137,-64.90695443780788
-0.3127000000000001,-63.59127292893339
-0.3117,-62.33217987205352
-0.3107000000000001,-61.11552815416958
-0.3097,-59.7998466452951
-0.3087000000000001,-58.45587091042332
-0.3077,-57.22507207954074
-0.3067000000000001,-56.05086170065276
-0.30569999999999997,-54.876651321764776
-0.3047000000000001,-53.56096981289029
-0.30369999999999997,-52.34431809500636
-0.3027000000000001,-51.17010771611838
-0.30169999999999997,-50.024191563227696
-0.3007000000000001,-48.89242252333566
-0.29969999999999997,-47.76065348344364
-0.2987000000000001,-46.628884443551605
-0.29769999999999996,-45.45467406466363
-0.2967000000000001,-44.36534636376755
-0.29569999999999996,-43.27601866287147
-0.2947000000000001,-42.186690961975394
-0.29369999999999996,-41.139804600075266
-0.29270000000000007,-40.092918238175145
-0.29169999999999996,-39.046031876275016
-0.29070000000000007,-37.94255706238028
-0.28969999999999996,-36.89567070048016
-0.28870000000000007,-35.94781412957058
-0.28769999999999996,-34.98581044566235
-0.28670000000000007,-33.98136542275818
-0.28569999999999995,-32.93447906085806
-0.28470000000000006,-31.972475376949827
-0.28369999999999995,-31.010471693041605
-0.28270000000000006,-30.00602667013743
-0.28169999999999995,-29.058170099227848
-0.28070000000000006,-28.13860775431558
-0.27969999999999995,-27.261486748399253
-0.27870000000000006,-26.29948306449103
-0.27769999999999995,-25.337479380582806
-0.27670000000000006,-24.432064148669184
-0.27569999999999995,-23.51250180375691
-0.27470000000000006,-22.67782213683654
-0.27369999999999994,-21.857289582914817
-0.27270000000000005,-20.980168576998494
-0.27169999999999994,-20.10304757108217
-0.27070000000000005,-19.28251501716045
-0.26969999999999994,-18.40539401124413
-0.26870000000000005,-17.542420118326454
-0.26769999999999994,-16.792623129397985
-0.26670000000000005,-16.014531914472215
