Mar. 6, 2025   18:10:20
Cyclic Voltammetry
File: c:/users/guazh/data/banditlqround7_x0exp169_r20_3/2025-03-03-exp890\exp890-2025-03-06t18_02_47-h2koh\exp890_cv_sr_600mvs_efin_-1400mv.bin
Data Source:  Experiment
Instrument Model:  CHI760E
Header: CV ran at 600 mVs
Note: 

Init E (V) = -1
High E (V) = -1
Low E (V) = -1.4
Final E (V) = -1
Init P/N = N
Scan Rate (V/s) = 0.6
Segment = 3
Sample Interval (V) = 0.001
Quiet Time (sec) = 2
Sensitivity (A/V) = 0.01
Comp R (ohm) = 1.3

Results:

Channel 1:
Segment 1:

Segment 2:

Segment 3:

Potential/V, Current/A

-1.000, -7.398e-4
-1.001, -6.226e-4
-1.002, -5.147e-4
-1.003, -4.130e-4
-1.004, -3.205e-4
-1.005, -2.372e-4
-1.006, -1.540e-4
-1.007, -8.000e-5
-1.008, -9.093e-6
-1.009, 5.873e-5
-1.010, 1.235e-4
-1.011, 1.851e-4
-1.012, 2.468e-4
-1.013, 3.054e-4
-1.014, 3.640e-4
-1.015, 4.195e-4
-1.016, 4.719e-4
-1.017, 5.212e-4
-1.018, 5.705e-4
-1.019, 6.168e-4
-1.020, 6.599e-4
-1.021, 7.031e-4
-1.022, 7.494e-4
-1.023, 7.925e-4
-1.024, 8.388e-4
-1.025, 8.788e-4
-1.026, 9.189e-4
-1.027, 9.559e-4
-1.028, 9.929e-4
-1.029, 1.024e-3
-1.030, 1.058e-3
-1.031, 1.092e-3
-1.032, 1.129e-3
-1.033, 1.162e-3
-1.034, 1.196e-3
-1.035, 1.227e-3
-1.036, 1.261e-3
-1.037, 1.292e-3
-1.038, 1.320e-3
-1.039, 1.351e-3
-1.040, 1.375e-3
-1.041, 1.406e-3
-1.042, 1.434e-3
-1.043, 1.465e-3
-1.044, 1.492e-3
-1.045, 1.520e-3
-1.046, 1.551e-3
-1.047, 1.576e-3
-1.048, 1.600e-3
-1.049, 1.625e-3
-1.050, 1.650e-3
-1.051, 1.674e-3
-1.052, 1.699e-3
-1.053, 1.724e-3
-1.054, 1.751e-3
-1.055, 1.776e-3
-1.056, 1.801e-3
-1.057, 1.822e-3
-1.058, 1.844e-3
-1.059, 1.865e-3
-1.060, 1.890e-3
-1.061, 1.912e-3
-1.062, 1.936e-3
-1.063, 1.958e-3
-1.064, 1.983e-3
-1.065, 2.004e-3
-1.066, 2.029e-3
-1.067, 2.050e-3
-1.068, 2.072e-3
-1.069, 2.091e-3
-1.070, 2.112e-3
-1.071, 2.134e-3
-1.072, 2.155e-3
-1.073, 2.177e-3
-1.074, 2.201e-3
-1.075, 2.223e-3
-1.076, 2.248e-3
-1.077, 2.269e-3
-1.078, 2.291e-3
-1.079, 2.306e-3
-1.080, 2.325e-3
-1.081, 2.349e-3
-1.082, 2.371e-3
-1.083, 2.399e-3
-1.084, 2.427e-3
-1.085, 2.448e-3
-1.086, 2.467e-3
-1.087, 2.485e-3
-1.088, 2.507e-3
-1.089, 2.525e-3
-1.090, 2.547e-3
-1.091, 2.568e-3
-1.092, 2.587e-3
-1.093, 2.608e-3
-1.094, 2.633e-3
-1.095, 2.655e-3
-1.096, 2.676e-3
-1.097, 2.695e-3
-1.098, 2.716e-3
-1.099, 2.735e-3
-1.100, 2.753e-3
-1.101, 2.772e-3
-1.102, 2.790e-3
-1.103, 2.815e-3
-1.104, 2.840e-3
-1.105, 2.861e-3
-1.106, 2.883e-3
-1.107, 2.908e-3
-1.108, 2.926e-3
-1.109, 2.945e-3
-1.110, 2.963e-3
-1.111, 2.982e-3
-1.112, 3.003e-3
-1.113, 3.025e-3
-1.114, 3.049e-3
-1.115, 3.071e-3
-1.116, 3.093e-3
-1.117, 3.108e-3
-1.118, 3.126e-3
-1.119, 3.145e-3
-1.120, 3.167e-3
-1.121, 3.191e-3
-1.122, 3.210e-3
-1.123, 3.234e-3
-1.124, 3.262e-3
-1.125, 3.284e-3
-1.126, 3.308e-3
-1.127, 3.327e-3
-1.128, 3.348e-3
-1.129, 3.370e-3
-1.130, 3.388e-3
-1.131, 3.410e-3
-1.132, 3.432e-3
-1.133, 3.453e-3
-1.134, 3.478e-3
-1.135, 3.503e-3
-1.136, 3.524e-3
-1.137, 3.546e-3
-1.138, 3.567e-3
-1.139, 3.589e-3
-1.140, 3.607e-3
-1.141, 3.632e-3
-1.142, 3.657e-3
-1.143, 3.681e-3
-1.144, 3.706e-3
-1.145, 3.731e-3
-1.146, 3.755e-3
-1.147, 3.777e-3
-1.148, 3.802e-3
-1.149, 3.826e-3
-1.150, 3.848e-3
-1.151, 3.869e-3
-1.152, 3.891e-3
-1.153, 3.916e-3
-1.154, 3.947e-3
-1.155, 3.971e-3
-1.156, 3.999e-3
-1.157, 4.024e-3
-1.158, 4.048e-3
-1.159, 4.073e-3
-1.160, 4.101e-3
-1.161, 4.125e-3
-1.162, 4.147e-3
-1.163, 4.172e-3
-1.164, 4.196e-3
-1.165, 4.218e-3
-1.166, 4.243e-3
-1.167, 4.264e-3
-1.168, 4.286e-3
-1.169, 4.304e-3
-1.170, 4.329e-3
-1.171, 4.347e-3
-1.172, 4.372e-3
-1.173, 4.397e-3
-1.174, 4.428e-3
-1.175, 4.455e-3
-1.176, 4.480e-3
-1.177, 4.501e-3
-1.178, 4.526e-3
-1.179, 4.551e-3
-1.180, 4.579e-3
-1.181, 4.603e-3
-1.182, 4.634e-3
-1.183, 4.659e-3
-1.184, 4.690e-3
-1.185, 4.717e-3
-1.186, 4.748e-3
-1.187, 4.773e-3
-1.188, 4.801e-3
-1.189, 4.825e-3
-1.190, 4.853e-3
-1.191, 4.881e-3
-1.192, 4.908e-3
-1.193, 4.939e-3
-1.194, 4.970e-3
-1.195, 5.007e-3
-1.196, 5.041e-3
-1.197, 5.072e-3
-1.198, 5.097e-3
-1.199, 5.124e-3
-1.200, 5.152e-3
-1.201, 5.180e-3
-1.202, 5.214e-3
-1.203, 5.245e-3
-1.204, 5.278e-3
-1.205, 5.309e-3
-1.206, 5.340e-3
-1.207, 5.371e-3
-1.208, 5.402e-3
-1.209, 5.430e-3
-1.210, 5.460e-3
-1.211, 5.491e-3
-1.212, 5.522e-3
-1.213, 5.553e-3
-1.214, 5.587e-3
-1.215, 5.618e-3
-1.216, 5.655e-3
-1.217, 5.688e-3
-1.218, 5.719e-3
-1.219, 5.744e-3
-1.220, 5.772e-3
-1.221, 5.803e-3
-1.222, 5.840e-3
-1.223, 5.877e-3
-1.224, 5.914e-3
-1.225, 5.944e-3
-1.226, 5.978e-3
-1.227, 6.012e-3
-1.228, 6.046e-3
-1.229, 6.080e-3
-1.230, 6.114e-3
-1.231, 6.148e-3
-1.232, 6.182e-3
-1.233, 6.219e-3
-1.234, 6.256e-3
-1.235, 6.293e-3
-1.236, 6.330e-3
-1.237, 6.361e-3
-1.238, 6.401e-3
-1.239, 6.441e-3
-1.240, 6.478e-3
-1.241, 6.512e-3
-1.242, 6.546e-3
-1.243, 6.583e-3
-1.244, 6.623e-3
-1.245, 6.663e-3
-1.246, 6.706e-3
-1.247, 6.740e-3
-1.248, 6.777e-3
-1.249, 6.814e-3
-1.250, 6.854e-3
-1.251, 6.894e-3
-1.252, 6.934e-3
-1.253, 6.974e-3
-1.254, 7.017e-3
-1.255, 7.060e-3
-1.256, 7.101e-3
-1.257, 7.138e-3
-1.258, 7.184e-3
-1.259, 7.233e-3
-1.260, 7.276e-3
-1.261, 7.313e-3
-1.262, 7.350e-3
-1.263, 7.393e-3
-1.264, 7.440e-3
-1.265, 7.486e-3
-1.266, 7.532e-3
-1.267, 7.572e-3
-1.268, 7.615e-3
-1.269, 7.656e-3
-1.270, 7.696e-3
-1.271, 7.736e-3
-1.272, 7.779e-3
-1.273, 7.822e-3
-1.274, 7.868e-3
-1.275, 7.911e-3
-1.276, 7.958e-3
-1.277, 8.004e-3
-1.278, 8.047e-3
-1.279, 8.090e-3
-1.280, 8.133e-3
-1.281, 8.186e-3
-1.282, 8.241e-3
-1.283, 8.291e-3
-1.284, 8.337e-3
-1.285, 8.380e-3
-1.286, 8.426e-3
-1.287, 8.479e-3
-1.288, 8.531e-3
-1.289, 8.580e-3
-1.290, 8.627e-3
-1.291, 8.673e-3
-1.292, 8.725e-3
-1.293, 8.778e-3
-1.294, 8.833e-3
-1.295, 8.886e-3
-1.296, 8.935e-3
-1.297, 8.987e-3
-1.298, 9.037e-3
-1.299, 9.083e-3
-1.300, 9.135e-3
-1.301, 9.182e-3
-1.302, 9.234e-3
-1.303, 9.293e-3
-1.304, 9.351e-3
-1.305, 9.407e-3
-1.306, 9.453e-3
-1.307, 9.499e-3
-1.308, 9.549e-3
-1.309, 9.601e-3
-1.310, 9.660e-3
-1.311, 9.712e-3
-1.312, 9.764e-3
-1.313, 9.817e-3
-1.314, 9.872e-3
-1.315, 9.925e-3
-1.316, 9.983e-3
-1.317, 1.004e-2
-1.318, 1.009e-2
-1.319, 1.014e-2
-1.320, 1.020e-2
-1.321, 1.025e-2
-1.322, 1.031e-2
-1.323, 1.037e-2
-1.324, 1.044e-2
-1.325, 1.051e-2
-1.326, 1.057e-2
-1.327, 1.062e-2
-1.328, 1.068e-2
-1.329, 1.074e-2
-1.330, 1.080e-2
-1.331, 1.086e-2
-1.332, 1.093e-2
-1.333, 1.099e-2
-1.334, 1.105e-2
-1.335, 1.112e-2
-1.336, 1.119e-2
-1.337, 1.125e-2
-1.338, 1.131e-2
-1.339, 1.136e-2
-1.340, 1.142e-2
-1.341, 1.148e-2
-1.342, 1.156e-2
-1.343, 1.163e-2
-1.344, 1.170e-2
-1.345, 1.176e-2
-1.346, 1.182e-2
-1.347, 1.188e-2
-1.348, 1.195e-2
-1.349, 1.202e-2
-1.350, 1.209e-2
-1.351, 1.215e-2
-1.352, 1.222e-2
-1.353, 1.228e-2
-1.354, 1.235e-2
-1.355, 1.242e-2
-1.356, 1.248e-2
-1.357, 1.254e-2
-1.358, 1.260e-2
-1.359, 1.265e-2
-1.360, 1.271e-2
-1.361, 1.278e-2
-1.362, 1.286e-2
-1.363, 1.292e-2
-1.364, 1.298e-2
-1.365, 1.304e-2
-1.366, 1.309e-2
-1.367, 1.316e-2
-1.368, 1.322e-2
-1.369, 1.329e-2
-1.370, 1.335e-2
-1.371, 1.341e-2
-1.372, 1.347e-2
-1.373, 1.354e-2
-1.374, 1.361e-2
-1.375, 1.367e-2
-1.376, 1.373e-2
-1.377, 1.379e-2
-1.378, 1.385e-2
-1.379, 1.391e-2
-1.380, 1.397e-2
-1.381, 1.403e-2
-1.382, 1.409e-2
-1.383, 1.415e-2
-1.384, 1.422e-2
-1.385, 1.430e-2
-1.386, 1.436e-2
-1.387, 1.442e-2
-1.388, 1.447e-2
-1.389, 1.452e-2
-1.390, 1.459e-2
-1.391, 1.465e-2
-1.392, 1.472e-2
-1.393, 1.478e-2
-1.394, 1.483e-2
-1.395, 1.489e-2
-1.396, 1.495e-2
-1.397, 1.501e-2
-1.398, 1.507e-2
-1.399, 1.512e-2
-1.400, 1.507e-2
-1.399, 1.487e-2
-1.398, 1.468e-2
-1.397, 1.450e-2
-1.396, 1.433e-2
-1.395, 1.417e-2
-1.394, 1.401e-2
-1.393, 1.384e-2
-1.392, 1.367e-2
-1.391, 1.351e-2
-1.390, 1.335e-2
-1.389, 1.320e-2
-1.388, 1.304e-2
-1.387, 1.289e-2
-1.386, 1.274e-2
-1.385, 1.259e-2
-1.384, 1.243e-2
-1.383, 1.228e-2
-1.382, 1.213e-2
-1.381, 1.199e-2
-1.380, 1.185e-2
-1.379, 1.171e-2
-1.378, 1.157e-2
-1.377, 1.144e-2
-1.376, 1.131e-2
-1.375, 1.116e-2
-1.374, 1.103e-2
-1.373, 1.089e-2
-1.372, 1.075e-2
-1.371, 1.062e-2
-1.370, 1.048e-2
-1.369, 1.034e-2
-1.368, 1.021e-2
-1.367, 1.008e-2
-1.366, 9.943e-3
-1.365, 9.811e-3
-1.364, 9.675e-3
-1.363, 9.542e-3
-1.362, 9.407e-3
-1.361, 9.271e-3
-1.360, 9.145e-3
-1.359, 9.028e-3
-1.358, 8.904e-3
-1.357, 8.775e-3
-1.356, 8.648e-3
-1.355, 8.525e-3
-1.354, 8.405e-3
-1.353, 8.288e-3
-1.352, 8.167e-3
-1.351, 8.044e-3
-1.350, 7.924e-3
-1.349, 7.804e-3
-1.348, 7.689e-3
-1.347, 7.578e-3
-1.346, 7.467e-3
-1.345, 7.353e-3
-1.344, 7.242e-3
-1.343, 7.125e-3
-1.342, 7.014e-3
-1.341, 6.903e-3
-1.340, 6.792e-3
-1.339, 6.691e-3
-1.338, 6.589e-3
-1.337, 6.484e-3
-1.336, 6.376e-3
-1.335, 6.271e-3
-1.334, 6.166e-3
-1.333, 6.065e-3
-1.332, 5.963e-3
-1.331, 5.861e-3
-1.330, 5.756e-3
-1.329, 5.658e-3
-1.328, 5.559e-3
-1.327, 5.463e-3
-1.326, 5.371e-3
-1.325, 5.272e-3
-1.324, 5.174e-3
-1.323, 5.078e-3
-1.322, 4.982e-3
-1.321, 4.887e-3
-1.320, 4.797e-3
-1.319, 4.702e-3
-1.318, 4.609e-3
-1.317, 4.517e-3
-1.316, 4.428e-3
-1.315, 4.341e-3
-1.314, 4.252e-3
-1.313, 4.162e-3
-1.312, 4.073e-3
-1.311, 3.980e-3
-1.310, 3.894e-3
-1.309, 3.805e-3
-1.308, 3.718e-3
-1.307, 3.635e-3
-1.306, 3.552e-3
-1.305, 3.469e-3
-1.304, 3.382e-3
-1.303, 3.299e-3
-1.302, 3.216e-3
-1.301, 3.133e-3
-1.300, 3.052e-3
-1.299, 2.972e-3
-1.298, 2.889e-3
-1.297, 2.812e-3
-1.296, 2.738e-3
-1.295, 2.664e-3
-1.294, 2.590e-3
-1.293, 2.513e-3
-1.292, 2.433e-3
-1.291, 2.359e-3
-1.290, 2.285e-3
-1.289, 2.208e-3
-1.288, 2.137e-3
-1.287, 2.069e-3
-1.286, 1.998e-3
-1.285, 1.930e-3
-1.284, 1.859e-3
-1.283, 1.788e-3
-1.282, 1.717e-3
-1.281, 1.647e-3
-1.280, 1.576e-3
-1.279, 1.508e-3
-1.278, 1.443e-3
-1.277, 1.378e-3
-1.276, 1.314e-3
-1.275, 1.249e-3
-1.274, 1.187e-3
-1.273, 1.122e-3
-1.272, 1.055e-3
-1.271, 9.898e-4
-1.270, 9.251e-4
-1.269, 8.634e-4
-1.268, 8.018e-4
-1.267, 7.432e-4
-1.266, 6.877e-4
-1.265, 6.260e-4
-1.264, 5.674e-4
-1.263, 5.058e-4
-1.262, 4.472e-4
-1.261, 3.855e-4
-1.260, 3.270e-4
-1.259, 2.684e-4
-1.258, 2.160e-4
-1.257, 1.605e-4
-1.256, 1.081e-4
-1.255, 5.257e-5
-1.254, 1.559e-7
-1.253, -5.534e-5
-1.252, -1.108e-4
-1.251, -1.663e-4
-1.250, -2.218e-4
-1.249, -2.742e-4
-1.248, -3.267e-4
-1.247, -3.760e-4
-1.246, -4.222e-4
-1.245, -4.716e-4
-1.244, -5.240e-4
-1.243, -5.733e-4
-1.242, -6.226e-4
-1.241, -6.750e-4
-1.240, -7.244e-4
-1.239, -7.737e-4
-1.238, -8.200e-4
-1.237, -8.631e-4
-1.236, -9.094e-4
-1.235, -9.525e-4
-1.234, -9.988e-4
-1.233, -1.045e-3
-1.232, -1.088e-3
-1.231, -1.134e-3
-1.230, -1.181e-3
-1.229, -1.227e-3
-1.228, -1.270e-3
-1.227, -1.310e-3
-1.226, -1.350e-3
-1.225, -1.390e-3
-1.224, -1.430e-3
-1.223, -1.474e-3
-1.222, -1.514e-3
-1.221, -1.557e-3
-1.220, -1.600e-3
-1.219, -1.640e-3
-1.218, -1.677e-3
-1.217, -1.717e-3
-1.216, -1.751e-3
-1.215, -1.791e-3
-1.214, -1.828e-3
-1.213, -1.868e-3
-1.212, -1.908e-3
-1.211, -1.945e-3
-1.210, -1.982e-3
-1.209, -2.019e-3
-1.208, -2.053e-3
-1.207, -2.090e-3
-1.206, -2.124e-3
-1.205, -2.158e-3
-1.204, -2.195e-3
-1.203, -2.232e-3
-1.202, -2.269e-3
-1.201, -2.306e-3
-1.200, -2.343e-3
-1.199, -2.377e-3
-1.198, -2.411e-3
-1.197, -2.445e-3
-1.196, -2.476e-3
-1.195, -2.509e-3
-1.194, -2.543e-3
-1.193, -2.577e-3
-1.192, -2.611e-3
-1.191, -2.648e-3
-1.190, -2.679e-3
-1.189, -2.713e-3
-1.188, -2.744e-3
-1.187, -2.772e-3
-1.186, -2.802e-3
-1.185, -2.830e-3
-1.184, -2.861e-3
-1.183, -2.895e-3
-1.182, -2.929e-3
-1.181, -2.963e-3
-1.180, -2.994e-3
-1.179, -3.024e-3
-1.178, -3.055e-3
-1.177, -3.086e-3
-1.176, -3.114e-3
-1.175, -3.142e-3
-1.174, -3.166e-3
-1.173, -3.194e-3
-1.172, -3.228e-3
-1.171, -3.259e-3
-1.170, -3.283e-3
-1.169, -3.305e-3
-1.168, -3.336e-3
-1.167, -3.373e-3
-1.166, -3.401e-3
-1.165, -3.425e-3
-1.164, -3.450e-3
-1.163, -3.475e-3
-1.162, -3.505e-3
-1.161, -3.536e-3
-1.160, -3.567e-3
-1.159, -3.595e-3
-1.158, -3.619e-3
-1.157, -3.644e-3
-1.156, -3.672e-3
-1.155, -3.700e-3
-1.154, -3.727e-3
-1.153, -3.755e-3
-1.152, -3.783e-3
-1.151, -3.817e-3
-1.150, -3.848e-3
-1.149, -3.875e-3
-1.148, -3.903e-3
-1.147, -3.931e-3
-1.146, -3.959e-3
-1.145, -3.986e-3
-1.144, -4.011e-3
-1.143, -4.036e-3
-1.142, -4.063e-3
-1.141, -4.094e-3
-1.140, -4.122e-3
-1.139, -4.153e-3
-1.138, -4.177e-3
-1.137, -4.202e-3
-1.136, -4.227e-3
-1.135, -4.255e-3
-1.134, -4.282e-3
-1.133, -4.313e-3
-1.132, -4.341e-3
-1.131, -4.372e-3
-1.130, -4.396e-3
-1.129, -4.424e-3
-1.128, -4.446e-3
-1.127, -4.473e-3
-1.126, -4.498e-3
-1.125, -4.526e-3
-1.124, -4.551e-3
-1.123, -4.572e-3
-1.122, -4.597e-3
-1.121, -4.625e-3
-1.120, -4.652e-3
-1.119, -4.683e-3
-1.118, -4.708e-3
-1.117, -4.729e-3
-1.116, -4.757e-3
-1.115, -4.782e-3
-1.114, -4.806e-3
-1.113, -4.834e-3
-1.112, -4.862e-3
-1.111, -4.890e-3
-1.110, -4.917e-3
-1.109, -4.942e-3
-1.108, -4.967e-3
-1.107, -4.991e-3
-1.106, -5.019e-3
-1.105, -5.050e-3
-1.104, -5.075e-3
-1.103, -5.102e-3
-1.102, -5.124e-3
-1.101, -5.155e-3
-1.100, -5.186e-3
-1.099, -5.216e-3
-1.098, -5.241e-3
-1.097, -5.269e-3
-1.096, -5.294e-3
-1.095, -5.318e-3
-1.094, -5.346e-3
-1.093, -5.377e-3
-1.092, -5.405e-3
-1.091, -5.435e-3
-1.090, -5.463e-3
-1.089, -5.491e-3
-1.088, -5.519e-3
-1.087, -5.546e-3
-1.086, -5.568e-3
-1.085, -5.599e-3
-1.084, -5.633e-3
-1.083, -5.664e-3
-1.082, -5.691e-3
-1.081, -5.719e-3
-1.080, -5.747e-3
-1.079, -5.778e-3
-1.078, -5.805e-3
-1.077, -5.836e-3
-1.076, -5.861e-3
-1.075, -5.889e-3
-1.074, -5.916e-3
-1.073, -5.950e-3
-1.072, -5.981e-3
-1.071, -6.015e-3
-1.070, -6.043e-3
-1.069, -6.074e-3
-1.068, -6.104e-3
-1.067, -6.135e-3
-1.066, -6.163e-3
-1.065, -6.194e-3
-1.064, -6.225e-3
-1.063, -6.259e-3
-1.062, -6.296e-3
-1.061, -6.336e-3
-1.060, -6.370e-3
-1.059, -6.397e-3
-1.058, -6.422e-3
-1.057, -6.450e-3
-1.056, -6.477e-3
-1.055, -6.508e-3
-1.054, -6.536e-3
-1.053, -6.567e-3
-1.052, -6.598e-3
-1.051, -6.632e-3
-1.050, -6.662e-3
-1.049, -6.696e-3
-1.048, -6.724e-3
-1.047, -6.755e-3
-1.046, -6.783e-3
-1.045, -6.810e-3
-1.044, -6.844e-3
-1.043, -6.875e-3
-1.042, -6.909e-3
-1.041, -6.949e-3
-1.040, -6.980e-3
-1.039, -7.011e-3
-1.038, -7.036e-3
-1.037, -7.063e-3
-1.036, -7.094e-3
-1.035, -7.125e-3
-1.034, -7.156e-3
-1.033, -7.190e-3
-1.032, -7.220e-3
-1.031, -7.251e-3
-1.030, -7.282e-3
-1.029, -7.316e-3
-1.028, -7.344e-3
-1.027, -7.372e-3
-1.026, -7.396e-3
-1.025, -7.424e-3
-1.024, -7.458e-3
-1.023, -7.498e-3
-1.022, -7.535e-3
-1.021, -7.566e-3
-1.020, -7.594e-3
-1.019, -7.621e-3
-1.018, -7.655e-3
-1.017, -7.686e-3
-1.016, -7.717e-3
-1.015, -7.748e-3
-1.014, -7.779e-3
-1.013, -7.809e-3
-1.012, -7.846e-3
-1.011, -7.880e-3
-1.010, -7.911e-3
-1.009, -7.942e-3
-1.008, -7.970e-3
-1.007, -8.001e-3
-1.006, -8.028e-3
-1.005, -8.059e-3
-1.004, -8.090e-3
-1.003, -8.121e-3
-1.002, -8.152e-3
-1.001, -8.182e-3
