Potential V vs RHE, Current mA cm-2
0.4132999999999999,0.0004469072996273651
0.4122999999999999,-0.0012251399856831218
0.4112999999999999,-0.0016792623129397986
0.4102999999999999,-0.00192117794521672
0.4092999999999999,-0.002122066949797555
0.4082999999999999,-0.002287588171881764
0.4072999999999999,-0.002433303435767863
0.4062999999999999,-0.0025535538962563912
0.4052999999999999,-0.002666730800245594
0.4042999999999999,-0.002809616641531963
0.4032999999999999,-0.0029185494116215705
0.4022999999999999,-0.0030246527591114482
0.4012999999999999,-0.0031180237049025406
0.4002999999999999,-0.003217053495893093
0.3992999999999999,-0.003351451069380272
0.3982999999999999,-0.0034717015298688
0.3972999999999999,-0.003521216425364076
0.3962999999999999,-0.0036174167937548986
0.3952999999999999,-0.003683908224848555
0.3942999999999999,-0.0037900115723384334
0.39329999999999987,-0.003890456074628851
0.39229999999999987,-0.003955532794422643
0.39129999999999987,-0.004034756627215085
0.39029999999999987,-0.004108321614808067
0.38929999999999987,-0.00421018082839835
0.38829999999999987,-0.004303551774189441
0.38729999999999987,-0.004365799071383503
0.38629999999999987,-0.0044436081928760805
0.38529999999999986,-0.004505855490070141
0.38429999999999986,-0.004569517498564069
0.38329999999999986,-0.0046742061347540805
0.38229999999999986,-0.004726550452849088
0.38129999999999986,-0.004770406503144903
0.38029999999999986,-0.004858118603736536
0.37929999999999986,-0.0049147070557311375
0.37829999999999986,-0.004992516177223715
0.37729999999999986,-0.005061837030917102
0.37629999999999986,-0.005097204813413728
0.37529999999999986,-0.005163696244507384
0.37429999999999986,-0.005220284696501985
0.37329999999999985,-0.005319314487492538
0.37229999999999985,-0.005361755826488489
0.37129999999999985,-0.005405611876784306
0.37029999999999985,-0.005445223793180526
0.36929999999999985,-0.005517374069473643
0.36829999999999985,-0.00559518319096622
0.36729999999999985,-0.005653186354260687
0.36629999999999985,-0.005687139425457448
0.36529999999999985,-0.005735239609652859
0.36429999999999985,-0.005813048731145435
0.36329999999999985,-0.0058866137187384175
0.36229999999999984,-0.005940372748133289
0.36129999999999984,-0.00597432581933005
0.36029999999999984,-0.006035158405224247
0.35929999999999984,-0.006088917434619118
0.35829999999999984,-0.006156823577012639
0.35729999999999984,-0.006211997317707376
0.35629999999999984,-0.006265756347102247
0.35529999999999984,-0.006289806439199953
0.35429999999999984,-0.006356297870293609
0.35329999999999984,-0.006434106991786186
0.35229999999999984,-0.006475133619482273
0.35129999999999983,-0.00651333082457863
0.35029999999999983,-0.00654728389577539
0.34929999999999983,-0.006608116481669587
0.34829999999999983,-0.006695828582261218
0.34729999999999983,-0.00676373472465474
0.34629999999999983,-0.00677505241505366
0.34529999999999983,-0.0067991025071513665
0.34429999999999983,-0.006867008649544888
0.3432999999999998,-0.0069448177710374655
0.3422999999999998,-0.006966038440535441
0.3412999999999998,-0.007015553336030716
0.3402999999999998,-0.007059409386326533
0.3392999999999998,-0.00710043601402262
0.3382999999999998,-0.007169756867716005
0.3372999999999998,-0.007220686474511147
0.3362999999999998,-0.007240492432709258
0.3352999999999998,-0.00729708088470386
0.3342999999999998,-0.00733669280110008
0.3332999999999998,-0.007417331345192387
0.3322999999999998,-0.007451284416389148
0.3312999999999998,-0.0074710903745872585
0.3302999999999998,-0.007531922960481456
0.3292999999999998,-0.007598414391575112
0.3282999999999998,-0.007645099864470658
0.3272999999999998,-0.007683297069567014
0.3262999999999998,-0.007705932450364854
0.3252999999999999,-0.007742714944161346
0.3242999999999999,-0.007834671178652573
0.3232999999999999,-0.007891259630647175
0.3222999999999999,-0.007945018660042047
0.3212999999999999,-0.007980386442538673
0.3202999999999999,-0.008011510091135703
0.3192999999999999,-0.0080723426770299
0.3182999999999999,-0.008121857572525176
0.3172999999999999,-0.008152981221122206
0.3162999999999999,-0.008179860735819642
0.3152999999999999,-0.008199666694017753
0.3142999999999999,-0.008273231681610736
0.3132999999999999,-0.008339723112704391
0.3122999999999999,-0.008352455514403176
0.3112999999999999,-0.008394896853399128
0.3102999999999999,-0.008440167614994809
0.3092999999999999,-0.008498170778289274
0.3082999999999999,-0.008568906343282527
0.3072999999999999,-0.008567491631982662
0.3062999999999999,-0.008605688837079017
0.3052999999999999,-0.008646715464775103
0.3042999999999999,-0.00869340093767065
0.3032999999999999,-0.008759892368764309
0.3022999999999999,-0.008793845439961067
0.3012999999999999,-0.008810821975559447
0.3002999999999999,-0.008857507448454996
0.2992999999999999,-0.008898534076151082
0.2982999999999999,-0.008959366662045278
0.2972999999999999,-0.009011710980140282
0.2962999999999999,-0.009030102227038529
0.2952999999999999,-0.009093764235532455
0.2942999999999999,-0.009151767398826923
0.2932999999999999,-0.009211185273421255
0.2922999999999999,-0.00923523536551896
0.2912999999999999,-0.009250797189817474
0.2902999999999999,-0.009303141507912482
0.2892999999999999,-0.009356900537307353
0.2882999999999999,-0.009400756587603169
0.2872999999999999,-0.009444612637898985
0.2862999999999999,-0.009450271483098446
0.2852999999999999,-0.00950261580119345
0.2842999999999999,-0.009569107232287107
0.2832999999999999,-0.00961154857128306
0.2822999999999999,-0.00963701337468063
0.2812999999999999,-0.009672381157177255
0.2802999999999999,-0.009696431249274962
0.2792999999999999,-0.009764337391668482
0.2782999999999999,-0.009802534596764839
0.2772999999999999,-0.00982234055496295
0.2762999999999999,-0.009869026027858496
0.2752999999999999,-0.009884587852157012
0.2742999999999999,-0.009952493994550532
0.2732999999999999,-0.010000594178745943
0.2722999999999999,-0.010014741291744594
0.2712999999999999,-0.010054353208140816
0.2702999999999999,-0.010093965124537039
0.2692999999999999,-0.010139235886132717
0.26829999999999987,-0.010222703852824755
0.26729999999999987,-0.010228362698024214
0.26629999999999987,-0.010259486346621246
0.26529999999999987,-0.010300512974317333
0.26429999999999987,-0.010348613158512742
0.26329999999999987,-0.01042359285740559
0.26229999999999987,-0.01043491054780451
0.26129999999999987,-0.01046320477380181
0.26029999999999986,-0.010495743133698707
0.25929999999999986,-0.010538184472694657
0.25829999999999986,-0.010591943502089531
0.25729999999999986,-0.010634384841085481
0.25629999999999986,-0.010658434933183185
0.25529999999999986,-0.01069946156087927
0.25429999999999986,-0.010750391167674414
0.25329999999999986,-0.01081688259876807
0.25229999999999986,-0.010842347402165642
0.25129999999999986,-0.010864982782963481
0.25029999999999986,-0.010884788741161593
0.24929999999999986,-0.01094562132705579
0.24829999999999985,-0.010989477377351606
0.24729999999999985,-0.011030504005047691
0.24629999999999985,-0.011055968808445261
0.24529999999999985,-0.01113377792993784
0.24429999999999985,-0.01119036638193244
0.24329999999999985,-0.011232807720928393
0.24229999999999985,-0.011276663771224207
0.24129999999999985,-0.01132476395541962
0.24029999999999985,-0.011314860976320562
0.23929999999999985,-0.01137286413961503
0.23829999999999985,-0.011450673261107608
0.23729999999999984,-0.011473308641905449
0.23629999999999984,-0.01151009113570194
0.23529999999999984,-0.011528482382600184
0.23429999999999984,-0.011585070834594785
0.23329999999999984,-0.011647318131788847
0.23229999999999984,-0.011652976976988307
0.23129999999999984,-0.011708150717683045
0.23029999999999984,-0.01173220080978075
0.22929999999999984,-0.01176332445837778
0.22829999999999984,-0.011831230600771302
0.22729999999999984,-0.011836889445970762
0.22629999999999983,-0.011887819052765904
0.22529999999999983,-0.011924601546562394
0.22429999999999983,-0.011967042885558346
0.22329999999999983,-0.012023631337552947
0.22229999999999983,-0.012063243253949167
0.22129999999999983,-0.012081634500847413
0.22029999999999983,-0.012122661128543499
0.21929999999999983,-0.01218207900313783
0.21829999999999983,-0.012244326300331893
0.21729999999999983,-0.012266961681129732
0.21629999999999983,-0.012285352928027979
0.21529999999999982,-0.012337697246122985
0.21429999999999982,-0.012390041564217991
0.21329999999999982,-0.012431068191914077
0.21229999999999982,-0.012465021263110838
0.21129999999999982,-0.012483412510009085
0.21029999999999982,-0.012520195003805573
0.20929999999999982,-0.012571124610600715
0.20829999999999982,-0.012641860175593968
0.20729999999999982,-0.01268430151458992
0.20629999999999982,-0.012733816410085195
0.20529999999999982,-0.012779087171680878
0.20429999999999982,-0.012830016778476018
0.20329999999999981,-0.012883775807870888
0.2022999999999998,-0.012924802435566976
0.2012999999999998,-0.012933290703366164
0.20029999999999992,-0.012953096661564276
0.19929999999999992,-0.013025246937857393
0.19829999999999992,-0.013084664812451725
0.19729999999999992,-0.01310871490454943
0.19629999999999992,-0.013159644511344572
0.19529999999999992,-0.0131907681599416
0.19429999999999992,-0.013286968528332426
0.19329999999999992,-0.013367607072424731
0.19229999999999992,-0.013347801114226622
0.19129999999999991,-0.013378924762823652
0.1902999999999999,-0.013400145432321627
0.1892999999999999,-0.013439757348717848
0.1882999999999999,-0.01351898118151029
0.1872999999999999,-0.013543031273607994
0.1862999999999999,-0.013582643190004217
0.1852999999999999,-0.013606693282101923
0.1842999999999999,-0.013654793466297336
0.1832999999999999,-0.01372128489739099
0.1822999999999999,-0.0137410908555891
0.1812999999999999,-0.013789191039784512
0.1802999999999999,-0.013830217667480599
0.1792999999999999,-0.013874073717776415
0.1782999999999999,-0.01394622399406953
0.1772999999999999,-0.013974518220066835
0.1762999999999999,-0.013992909466965077
0.1752999999999999,-0.014048083207659816
0.1742999999999999,-0.01407496272235725
0.1732999999999999,-0.014144283576050635
0.1722999999999999,-0.014189554337646317
0.1712999999999999,-0.014203701450644968
0.1702999999999999,-0.01426028990263957
0.1692999999999999,-0.014316878354634173
0.1682999999999999,-0.014373466806628774
0.1672999999999999,-0.014415908145624722
0.1662999999999999,-0.014444202371622025
0.1652999999999999,-0.014472496597619325
0.1642999999999999,-0.014543232162612576
0.1632999999999999,-0.014599820614607179
0.1622999999999999,-0.014670556179600431
0.1612999999999999,-0.01469885040559773
0.1602999999999999,-0.014727144631595034
0.1592999999999999,-0.014797880196588285
0.15829999999999989,-0.014840321535584235
0.15729999999999988,-0.014854468648582884
0.15629999999999988,-0.014896909987578835
0.15529999999999988,-0.014925204213576137
0.15429999999999988,-0.014995939778569388
0.15329999999999988,-0.015066675343562642
0.15229999999999988,-0.01509496956955994
0.15129999999999988,-0.015137410908555892
0.15029999999999988,-0.015165705134553195
0.14929999999999988,-0.015222293586547794
0.14829999999999988,-0.015278882038542396
0.14729999999999988,-0.015293029151541045
0.14629999999999987,-0.015349617603535646
0.14529999999999987,-0.015392058942531598
0.14429999999999987,-0.015448647394526203
0.14329999999999987,-0.015505235846520802
0.14229999999999987,-0.015561824298515404
0.14129999999999987,-0.015561824298515404
0.14029999999999987,-0.015604265637511355
0.13929999999999987,-0.015660854089505957
0.13829999999999987,-0.01573158965449921
0.13729999999999987,-0.015774030993495156
0.13629999999999987,-0.01580232521949246
0.13529999999999986,-0.01584476655848841
0.13429999999999986,-0.01588720789748436
0.13329999999999986,-0.015943796349478963
0.13229999999999986,-0.015986237688474913
0.13129999999999986,-0.016028679027470863
0.13029999999999986,-0.016071120366466816
0.12929999999999986,-0.01614185593146007
0.12829999999999986,-0.01618429727045602
0.12729999999999986,-0.016226738609451972
0.12629999999999986,-0.016269179948447923
0.12529999999999986,-0.01629747417444522
0.12429999999999986,-0.016354062626439823
0.12329999999999985,-0.016410651078434424
0.12229999999999985,-0.01646723953042903
0.12129999999999985,-0.01652382798242363
0.12029999999999985,-0.016552122208420932
0.11929999999999985,-0.01660871066041553
0.11829999999999985,-0.016679446225408782
0.11729999999999985,-0.01670774045140608
0.11629999999999985,-0.016778476016399334
0.11529999999999985,-0.016792623129397985
0.11429999999999985,-0.016849211581392583
0.11329999999999985,-0.01693409425938449
0.11229999999999984,-0.016962388485381792
0.11129999999999984,-0.017018976937376393
0.11029999999999984,-0.01703312405037504
0.10929999999999984,-0.017118006728366945
0.10829999999999984,-0.017202889406358845
0.10729999999999984,-0.017217036519357496
0.10629999999999984,-0.017273624971352097
0.10529999999999984,-0.0173019191973494
0.10429999999999984,-0.017372654762342652
0.10329999999999984,-0.017457537440334552
0.10229999999999984,-0.017471684553333203
0.10129999999999983,-0.017499978779330502
0.10029999999999983,-0.017556567231325104
0.09929999999999983,-0.017613155683319705
0.09829999999999983,-0.01768389124831296
0.09729999999999983,-0.01774047970030756
0.09629999999999983,-0.01776877392630486
0.09529999999999983,-0.01781121526530081
0.09429999999999983,-0.017881950830294063
0.09329999999999983,-0.017938539282288665
0.09229999999999983,-0.017995127734283266
0.09129999999999983,-0.018023421960280565
0.09029999999999982,-0.018080010412275173
0.08929999999999982,-0.01813659886426977
0.08829999999999982,-0.018193187316264375
0.08729999999999982,-0.018235628655260322
0.08629999999999982,-0.018292217107254923
0.08529999999999982,-0.018348805559249524
0.08429999999999982,-0.018405394011244126
0.08329999999999982,-0.018461982463238727
0.08229999999999982,-0.01853271802823198
0.08129999999999982,-0.018575159367227933
0.08029999999999982,-0.018603453593225232
0.07929999999999982,-0.018674189158218484
0.07829999999999981,-0.018759071836210388
0.07729999999999981,-0.018801513175206338
0.07629999999999981,-0.018886395853198238
0.07529999999999992,-0.01891469007919554
0.07429999999999992,-0.018985425644188793
0.07329999999999992,-0.019056161209182042
0.07229999999999992,-0.019084455435179344
0.07129999999999992,-0.019141043887173945
0.07029999999999992,-0.0191834852261699
0.06929999999999992,-0.019254220791163148
0.06829999999999992,-0.01933910346915505
0.06729999999999992,-0.019381544808151
0.06629999999999991,-0.019452280373144254
0.06529999999999991,-0.01950886882513886
0.06429999999999991,-0.019551310164134805
0.06329999999999991,-0.019622045729128058
0.06229999999999991,-0.019664487068124008
0.06129999999999991,-0.01973522263311726
0.06029999999999991,-0.019777663972113214
0.05929999999999991,-0.019834252424107815
0.05829999999999991,-0.019904987989101064
0.05729999999999991,-0.019947429328097017
0.056299999999999906,-0.019989870667092968
0.055299999999999905,-0.02004645911908757
0.054299999999999904,-0.02011719468408082
0.0532999999999999,-0.02020207736207272
0.0522999999999999,-0.020258665814067326
0.0512999999999999,-0.020315254266061927
0.0502999999999999,-0.020371842718056525
0.0492999999999999,-0.020442578283049778
0.0482999999999999,-0.020499166735044382
0.0472999999999999,-0.02055575518703898
0.0462999999999999,-0.020612343639033585
0.045299999999999896,-0.020668932091028186
0.044299999999999895,-0.02075381476902009
0.043299999999999894,-0.02079625610801604
0.04229999999999989,-0.02085284456001064
0.04129999999999989,-0.020923580125003893
0.04029999999999989,-0.021008462802995797
0.03929999999999989,-0.021079198367989046
0.03829999999999989,-0.021149933932982302
0.03729999999999989,-0.0211782281589796
0.03629999999999989,-0.0212348166109742
0.03529999999999989,-0.021277257949970152
0.034299999999999886,-0.021376287740960703
0.033299999999999885,-0.021447023305953956
0.032299999999999884,-0.02150361175794856
0.031299999999999883,-0.021560200209943158
0.030299999999999883,-0.02161678866193776
0.02929999999999988,-0.021687524226931015
0.02829999999999988,-0.021786554017921567
0.02729999999999988,-0.021843142469916164
0.02629999999999988,-0.02189973092191077
0.025299999999999878,-0.021956319373905367
0.024299999999999877,-0.022027054938898623
0.023299999999999876,-0.022126084729889174
0.022299999999999875,-0.022154378955886473
0.021299999999999875,-0.022210967407881078
0.020299999999999874,-0.022281702972874327
0.019299999999999873,-0.02235243853786758
0.018299999999999872,-0.022465615441856785
0.01729999999999987,-0.022493909667854084
0.01629999999999987,-0.022550498119848682
0.01529999999999987,-0.022621233684841938
0.014299999999999868,-0.02270611636283384
0.013299999999999867,-0.02279099904082574
0.012299999999999978,-0.022847587492820343
0.011299999999999866,-0.022904175944814944
0.010299999999999976,-0.022974911509808196
0.009299999999999864,-0.023045647074801445
0.008299999999999974,-0.02313052975279335
0.007299999999999862,-0.02318711820478795
0.006299999999999972,-0.0232295595437839
0.00529999999999986,-0.023300295108777156
0.0042999999999999705,-0.02338517778676906
0.0032999999999998586,-0.02345591335176231
0.0022999999999999687,-0.02354079602975421
0.0012999999999998568,-0.023611531594747465
0.00029999999999996696,-0.02365397293374341
-0.000700000000000145,-0.023753002724733966
-0.0017000000000000348,-0.023837885402725866
-0.0027000000000001467,-0.02388032674172182
-0.0037000000000000366,-0.023965209419713723
-0.0047000000000001485,-0.024021797871708325
-0.005700000000000038,-0.024120827662698876
-0.00670000000000015,-0.024219857453689427
-0.00770000000000004,-0.02427644590568403
-0.008700000000000152,-0.02433303435767863
-0.009700000000000042,-0.024403769922671882
-0.010700000000000154,-0.024516946826661085
-0.011700000000000044,-0.024601829504652988
-0.012700000000000156,-0.024644270843648942
-0.013700000000000045,-0.02474330063463949
-0.014700000000000157,-0.02479988908663409
-0.015700000000000047,-0.024870624651627343
-0.01670000000000016,-0.024969654442617898
-0.01770000000000005,-0.025012095781613848
-0.01870000000000016,-0.02509697845960575
-0.01970000000000005,-0.025167714024599004
-0.020700000000000163,-0.025238449589592253
-0.021700000000000053,-0.02535162649358146
-0.022700000000000164,-0.025422362058574708
-0.023700000000000054,-0.025493097623567964
-0.024700000000000166,-0.025577980301559864
-0.025700000000000056,-0.025648715866553113
-0.026700000000000168,-0.02573359854454502
-0.027700000000000058,-0.025818481222536924
-0.02870000000000017,-0.025860922561532867
-0.02970000000000006,-0.025959952352523425
-0.03070000000000017,-0.026030687917516674
-0.03170000000000006,-0.026115570595508578
-0.03270000000000017,-0.026158011934504528
-0.03370000000000006,-0.026257041725495082
-0.034700000000000175,-0.02632777729048833
-0.035700000000000065,-0.026412659968480235
-0.03670000000000018,-0.02649754264647214
-0.03770000000000007,-0.02661071955046134
-0.03870000000000018,-0.02665316088945729
-0.03970000000000007,-0.026709749341451892
-0.04070000000000018,-0.026808779132442447
-0.04170000000000007,-0.026879514697435696
-0.04270000000000018,-0.02695025026242895
-0.04370000000000007,-0.027049280053419503
-0.044700000000000184,-0.02709172139241545
-0.045700000000000074,-0.027176604070407354
-0.046700000000000186,-0.02727563386139791
-0.047700000000000076,-0.02734636942639116
-0.04870000000000019,-0.02740295787838576
-0.04970000000000008,-0.027473693443379014
-0.05070000000000019,-0.02755857612137091
-0.05170000000000008,-0.027657605912361466
-0.05270000000000019,-0.027714194364356067
-0.05370000000000008,-0.027784929929349323
-0.05470000000000019,-0.027841518381343924
-0.05570000000000008,-0.027940548172334476
-0.056700000000000195,-0.02806787218932233
-0.057700000000000085,-0.02811031352831828
-0.058700000000000196,-0.028166901980312884
-0.059700000000000086,-0.028237637545306133
-0.0607000000000002,-0.028336667336296688
-0.06170000000000009,-0.028463991353284535
-0.0627000000000002,-0.02852057980527914
