June 29, 2026   15:00:59
Cyclic Voltammetry
File: c:/users/guazh/data/20260623_doe_duplica2/2026-06-24-exp42\exp42-2026-06-29t14_38_07-arkoh\exp42_cv_sr_100mvs_efin_-1900mv.bin
Data Source:  Experiment
Instrument Model:  CHI760E
Header: CV ran at 100 mVs
Note: 

Init E (V) = -1
High E (V) = -1
Low E (V) = -1.9
Final E (V) = -1
Init P/N = N
Scan Rate (V/s) = 0.1
Segment = 3
Sample Interval (V) = 0.001
Quiet Time (sec) = 2
Sensitivity (A/V) = 0.01
Comp R (ohm) = 2.5

Results:

Channel 1:
Segment 1:

Segment 2:

Segment 3:

Potential/V, Current/A

-1.000, -2.261e-6
-1.001, -2.074e-6
-1.002, -1.985e-6
-1.003, -1.946e-6
-1.004, -1.916e-6
-1.005, -1.738e-6
-1.006, -1.827e-6
-1.007, -1.758e-6
-1.008, -1.817e-6
-1.009, -1.581e-6
-1.010, -1.709e-6
-1.011, -1.699e-6
-1.012, -1.600e-6
-1.013, -1.689e-6
-1.014, -1.492e-6
-1.015, -1.571e-6
-1.016, -1.541e-6
-1.017, -1.640e-6
-1.018, -1.472e-6
-1.019, -1.502e-6
-1.020, -1.423e-6
-1.021, -1.521e-6
-1.022, -1.433e-6
-1.023, -1.423e-6
-1.024, -1.245e-6
-1.025, -1.344e-6
-1.026, -1.393e-6
-1.027, -1.314e-6
-1.028, -1.304e-6
-1.029, -1.235e-6
-1.030, -1.166e-6
-1.031, -1.206e-6
-1.032, -1.265e-6
-1.033, -1.156e-6
-1.034, -1.107e-6
-1.035, -1.117e-6
-1.036, -1.038e-6
-1.037, -1.087e-6
-1.038, -1.097e-6
-1.039, -1.018e-6
-1.040, -1.107e-6
-1.041, -1.137e-6
-1.042, -1.097e-6
-1.043, -1.196e-6
-1.044, -1.008e-6
-1.045, -1.077e-6
-1.046, -9.688e-7
-1.047, -1.067e-6
-1.048, -1.028e-6
-1.049, -1.008e-6
-1.050, -9.096e-7
-1.051, -8.998e-7
-1.052, -1.008e-6
-1.053, -9.787e-7
-1.054, -8.504e-7
-1.055, -8.800e-7
-1.056, -9.195e-7
-1.057, -9.491e-7
-1.058, -9.195e-7
-1.059, -8.603e-7
-1.060, -7.518e-7
-1.061, -8.702e-7
-1.062, -8.110e-7
-1.063, -8.406e-7
-1.064, -6.729e-7
-1.065, -7.715e-7
-1.066, -7.617e-7
-1.067, -7.518e-7
-1.068, -7.912e-7
-1.069, -6.729e-7
-1.070, -7.912e-7
-1.071, -8.702e-7
-1.072, -5.939e-7
-1.073, -6.334e-7
-1.074, -6.433e-7
-1.075, -6.433e-7
-1.076, -6.926e-7
-1.077, -6.038e-7
-1.078, -7.321e-7
-1.079, -6.630e-7
-1.080, -5.051e-7
-1.081, -5.051e-7
-1.082, -6.137e-7
-1.083, -5.742e-7
-1.084, -4.953e-7
-1.085, -5.643e-7
-1.086, -6.038e-7
-1.087, -6.926e-7
-1.088, -6.433e-7
-1.089, -4.755e-7
-1.090, -5.051e-7
-1.091, -5.051e-7
-1.092, -5.051e-7
-1.093, -5.446e-7
-1.094, -4.361e-7
-1.095, -5.643e-7
-1.096, -5.446e-7
-1.097, -5.841e-7
-1.098, -4.755e-7
-1.099, -5.051e-7
-1.100, -4.854e-7
-1.101, -4.065e-7
-1.102, -3.473e-7
-1.103, -5.249e-7
-1.104, -4.065e-7
-1.105, -4.459e-7
-1.106, -3.966e-7
-1.107, -4.361e-7
-1.108, -4.065e-7
-1.109, -3.670e-7
-1.110, -3.769e-7
-1.111, -3.769e-7
-1.112, -5.051e-7
-1.113, -4.459e-7
-1.114, -2.684e-7
-1.115, -2.782e-7
-1.116, -3.966e-7
-1.117, -2.585e-7
-1.118, -3.374e-7
-1.119, -1.993e-7
-1.120, -2.585e-7
-1.121, -2.980e-7
-1.122, -3.078e-7
-1.123, -2.881e-7
-1.124, -2.684e-7
-1.125, -3.078e-7
-1.126, -1.894e-7
-1.127, -1.401e-7
-1.128, -2.486e-7
-1.129, -1.697e-7
-1.130, -1.401e-7
-1.131, -1.598e-7
-1.132, -2.092e-7
-1.133, -2.190e-7
-1.134, -1.006e-7
-1.135, -1.697e-7
-1.136, -2.980e-7
-1.137, -2.486e-7
-1.138, -2.388e-7
-1.139, -1.302e-7
-1.140, -1.302e-7
-1.141, -2.486e-7
-1.142, -1.006e-7
-1.143, -7.103e-8
-1.144, -1.105e-7
-1.145, -1.894e-7
-1.146, -1.105e-7
-1.147, -1.006e-7
-1.148, -1.598e-7
-1.149, -4.144e-8
-1.150, -4.144e-8
-1.151, -1.401e-7
-1.152, -1.184e-8
-1.153, -6.117e-8
-1.154, -8.090e-8
-1.155, -1.401e-7
-1.156, -1.006e-7
-1.157, -1.006e-7
-1.158, -2.171e-8
-1.159, 9.669e-8
-1.160, -1.006e-7
-1.161, -6.117e-8
-1.162, 2.762e-8
-1.163, -9.077e-8
-1.164, 1.776e-8
-1.165, 2.762e-8
-1.166, 1.263e-7
-1.167, -1.184e-8
-1.168, -1.184e-8
-1.169, 1.460e-7
-1.170, 9.669e-8
-1.171, 1.066e-7
-1.172, 1.263e-7
-1.173, 5.722e-8
-1.174, 1.164e-7
-1.175, 1.559e-7
-1.176, 4.736e-8
-1.177, 7.695e-8
-1.178, 1.362e-7
-1.179, 1.953e-7
-1.180, 1.855e-7
-1.181, 1.362e-7
-1.182, 1.164e-7
-1.183, 1.953e-7
-1.184, 1.164e-7
-1.185, 2.348e-7
-1.186, 2.447e-7
-1.187, 2.545e-7
-1.188, 1.164e-7
-1.189, 2.052e-7
-1.190, 1.657e-7
-1.191, 3.039e-7
-1.192, 3.631e-7
-1.193, 3.335e-7
-1.194, 4.519e-7
-1.195, 3.631e-7
-1.196, 3.828e-7
-1.197, 3.828e-7
-1.198, 2.940e-7
-1.199, 3.236e-7
-1.200, 3.137e-7
-1.201, 3.631e-7
-1.202, 2.940e-7
-1.203, 4.223e-7
-1.204, 4.420e-7
-1.205, 2.940e-7
-1.206, 2.940e-7
-1.207, 4.223e-7
-1.208, 3.137e-7
-1.209, 3.729e-7
-1.210, 3.927e-7
-1.211, 3.335e-7
-1.212, 4.223e-7
-1.213, 4.124e-7
-1.214, 4.913e-7
-1.215, 3.729e-7
-1.216, 3.927e-7
-1.217, 5.407e-7
-1.218, 5.703e-7
-1.219, 5.111e-7
-1.220, 5.111e-7
-1.221, 4.321e-7
-1.222, 5.308e-7
-1.223, 5.209e-7
-1.224, 5.703e-7
-1.225, 5.505e-7
-1.226, 5.407e-7
-1.227, 5.505e-7
-1.228, 7.084e-7
-1.229, 7.972e-7
-1.230, 7.676e-7
-1.231, 7.380e-7
-1.232, 6.788e-7
-1.233, 7.182e-7
-1.234, 7.182e-7
-1.235, 8.366e-7
-1.236, 7.577e-7
-1.237, 7.873e-7
-1.238, 8.761e-7
-1.239, 8.465e-7
-1.240, 9.254e-7
-1.241, 8.366e-7
-1.242, 8.958e-7
-1.243, 8.761e-7
-1.244, 9.550e-7
-1.245, 8.958e-7
-1.246, 9.057e-7
-1.247, 9.649e-7
-1.248, 8.268e-7
-1.249, 9.057e-7
-1.250, 9.550e-7
-1.251, 8.860e-7
-1.252, 9.550e-7
-1.253, 8.761e-7
-1.254, 1.142e-6
-1.255, 1.044e-6
-1.256, 1.142e-6
-1.257, 1.044e-6
-1.258, 1.034e-6
-1.259, 1.113e-6
-1.260, 1.212e-6
-1.261, 1.192e-6
-1.262, 1.202e-6
-1.263, 1.212e-6
-1.264, 1.221e-6
-1.265, 1.172e-6
-1.266, 1.123e-6
-1.267, 1.241e-6
-1.268, 1.251e-6
-1.269, 1.458e-6
-1.270, 1.241e-6
-1.271, 1.360e-6
-1.272, 1.419e-6
-1.273, 1.271e-6
-1.274, 1.429e-6
-1.275, 1.458e-6
-1.276, 1.369e-6
-1.277, 1.517e-6
-1.278, 1.498e-6
-1.279, 1.527e-6
-1.280, 1.754e-6
-1.281, 1.626e-6
-1.282, 1.616e-6
-1.283, 1.626e-6
-1.284, 1.656e-6
-1.285, 1.774e-6
-1.286, 1.715e-6
-1.287, 1.754e-6
-1.288, 1.744e-6
-1.289, 1.912e-6
-1.290, 1.902e-6
-1.291, 1.784e-6
-1.292, 1.744e-6
-1.293, 1.942e-6
-1.294, 2.001e-6
-1.295, 2.021e-6
-1.296, 1.951e-6
-1.297, 1.932e-6
-1.298, 2.050e-6
-1.299, 2.129e-6
-1.300, 1.971e-6
-1.301, 2.149e-6
-1.302, 2.198e-6
-1.303, 2.119e-6
-1.304, 2.257e-6
-1.305, 2.247e-6
-1.306, 2.198e-6
-1.307, 2.257e-6
-1.308, 2.247e-6
-1.309, 2.504e-6
-1.310, 2.376e-6
-1.311, 2.524e-6
-1.312, 2.583e-6
-1.313, 2.593e-6
-1.314, 2.632e-6
-1.315, 2.494e-6
-1.316, 2.583e-6
-1.317, 2.652e-6
-1.318, 2.622e-6
-1.319, 2.889e-6
-1.320, 2.800e-6
-1.321, 2.691e-6
-1.322, 2.869e-6
-1.323, 2.800e-6
-1.324, 3.017e-6
-1.325, 2.899e-6
-1.326, 3.037e-6
-1.327, 2.968e-6
-1.328, 3.126e-6
-1.329, 3.254e-6
-1.330, 3.066e-6
-1.331, 3.204e-6
-1.332, 3.412e-6
-1.333, 3.402e-6
-1.334, 3.471e-6
-1.335, 3.461e-6
-1.336, 3.550e-6
-1.337, 3.619e-6
-1.338, 3.658e-6
-1.339, 3.708e-6
-1.340, 3.796e-6
-1.341, 3.708e-6
-1.342, 3.796e-6
-1.343, 3.885e-6
-1.344, 4.004e-6
-1.345, 3.935e-6
-1.346, 4.033e-6
-1.347, 4.004e-6
-1.348, 4.191e-6
-1.349, 4.181e-6
-1.350, 4.152e-6
-1.351, 4.280e-6
-1.352, 4.329e-6
-1.353, 4.309e-6
-1.354, 4.536e-6
-1.355, 4.497e-6
-1.356, 4.507e-6
-1.357, 4.645e-6
-1.358, 4.724e-6
-1.359, 4.773e-6
-1.360, 4.911e-6
-1.361, 4.872e-6
-1.362, 4.872e-6
-1.363, 5.069e-6
-1.364, 5.010e-6
-1.365, 5.109e-6
-1.366, 5.247e-6
-1.367, 5.257e-6
-1.368, 5.276e-6
-1.369, 5.424e-6
-1.370, 5.553e-6
-1.371, 5.483e-6
-1.372, 5.622e-6
-1.373, 5.809e-6
-1.374, 5.819e-6
-1.375, 5.888e-6
-1.376, 5.997e-6
-1.377, 5.977e-6
-1.378, 6.115e-6
-1.379, 6.243e-6
-1.380, 6.302e-6
-1.381, 6.095e-6
-1.382, 6.431e-6
-1.383, 6.500e-6
-1.384, 6.756e-6
-1.385, 6.588e-6
-1.386, 6.865e-6
-1.387, 6.894e-6
-1.388, 6.845e-6
-1.389, 7.003e-6
-1.390, 6.924e-6
-1.391, 7.180e-6
-1.392, 7.200e-6
-1.393, 7.161e-6
-1.394, 7.496e-6
-1.395, 7.516e-6
-1.396, 7.634e-6
-1.397, 7.565e-6
-1.398, 7.713e-6
-1.399, 8.039e-6
-1.400, 8.009e-6
-1.401, 8.118e-6
-1.402, 8.157e-6
-1.403, 8.226e-6
-1.404, 8.473e-6
-1.405, 8.433e-6
-1.406, 8.621e-6
-1.407, 8.542e-6
-1.408, 8.621e-6
-1.409, 8.986e-6
-1.410, 8.868e-6
-1.411, 8.779e-6
-1.412, 9.134e-6
-1.413, 9.242e-6
-1.414, 9.548e-6
-1.415, 9.440e-6
-1.416, 9.578e-6
-1.417, 9.667e-6
-1.418, 9.716e-6
-1.419, 9.923e-6
-1.420, 9.884e-6
-1.421, 1.010e-5
-1.422, 1.043e-5
-1.423, 1.065e-5
-1.424, 1.082e-5
-1.425, 1.080e-5
-1.426, 1.104e-5
-1.427, 1.125e-5
-1.428, 1.141e-5
-1.429, 1.167e-5
-1.430, 1.167e-5
-1.431, 1.189e-5
-1.432, 1.182e-5
-1.433, 1.204e-5
-1.434, 1.248e-5
-1.435, 1.239e-5
-1.436, 1.265e-5
-1.437, 1.241e-5
-1.438, 1.242e-5
-1.439, 1.287e-5
-1.440, 1.292e-5
-1.441, 1.293e-5
-1.442, 1.326e-5
-1.443, 1.358e-5
-1.444, 1.383e-5
-1.445, 1.379e-5
-1.446, 1.402e-5
-1.447, 1.432e-5
-1.448, 1.464e-5
-1.449, 1.487e-5
-1.450, 1.497e-5
-1.451, 1.513e-5
-1.452, 1.531e-5
-1.453, 1.557e-5
-1.454, 1.574e-5
-1.455, 1.552e-5
-1.456, 1.561e-5
-1.457, 1.610e-5
-1.458, 1.603e-5
-1.459, 1.629e-5
-1.460, 1.646e-5
-1.461, 1.672e-5
-1.462, 1.699e-5
-1.463, 1.728e-5
-1.464, 1.750e-5
-1.465, 1.768e-5
-1.466, 1.801e-5
-1.467, 1.818e-5
-1.468, 1.826e-5
-1.469, 1.862e-5
-1.470, 1.881e-5
-1.471, 1.893e-5
-1.472, 1.917e-5
-1.473, 1.946e-5
-1.474, 2.001e-5
-1.475, 2.034e-5
-1.476, 2.071e-5
-1.477, 2.098e-5
-1.478, 2.070e-5
-1.479, 2.106e-5
-1.480, 2.121e-5
-1.481, 2.146e-5
-1.482, 2.183e-5
-1.483, 2.218e-5
-1.484, 2.291e-5
-1.485, 2.323e-5
-1.486, 2.363e-5
-1.487, 2.392e-5
-1.488, 2.420e-5
-1.489, 2.457e-5
-1.490, 2.450e-5
-1.491, 2.451e-5
-1.492, 2.429e-5
-1.493, 2.467e-5
-1.494, 2.496e-5
-1.495, 2.534e-5
-1.496, 2.569e-5
-1.497, 2.608e-5
-1.498, 2.649e-5
-1.499, 2.682e-5
-1.500, 2.693e-5
-1.501, 2.738e-5
-1.502, 2.771e-5
-1.503, 2.828e-5
-1.504, 2.898e-5
-1.505, 2.903e-5
-1.506, 2.958e-5
-1.507, 2.994e-5
-1.508, 3.037e-5
-1.509, 3.049e-5
-1.510, 3.088e-5
-1.511, 3.137e-5
-1.512, 3.238e-5
-1.513, 3.301e-5
-1.514, 3.312e-5
-1.515, 3.338e-5
-1.516, 3.360e-5
-1.517, 3.354e-5
-1.518, 3.349e-5
-1.519, 3.397e-5
-1.520, 3.432e-5
-1.521, 3.460e-5
-1.522, 3.516e-5
-1.523, 3.560e-5
-1.524, 3.621e-5
-1.525, 3.707e-5
-1.526, 3.740e-5
-1.527, 3.737e-5
-1.528, 3.786e-5
-1.529, 3.845e-5
-1.530, 3.890e-5
-1.531, 3.923e-5
-1.532, 3.996e-5
-1.533, 4.068e-5
-1.534, 4.192e-5
-1.535, 4.269e-5
-1.536, 4.244e-5
-1.537, 4.291e-5
-1.538, 4.320e-5
-1.539, 4.339e-5
-1.540, 4.389e-5
-1.541, 4.429e-5
-1.542, 4.518e-5
-1.543, 4.652e-5
-1.544, 4.698e-5
-1.545, 4.675e-5
-1.546, 4.764e-5
-1.547, 4.844e-5
-1.548, 4.910e-5
-1.549, 4.969e-5
-1.550, 5.046e-5
-1.551, 5.027e-5
-1.552, 5.131e-5
-1.553, 5.198e-5
-1.554, 5.286e-5
-1.555, 5.286e-5
-1.556, 5.343e-5
-1.557, 5.423e-5
-1.558, 5.565e-5
-1.559, 5.689e-5
-1.560, 5.741e-5
-1.561, 5.786e-5
-1.562, 5.777e-5
-1.563, 5.860e-5
-1.564, 5.963e-5
-1.565, 6.066e-5
-1.566, 6.070e-5
-1.567, 6.100e-5
-1.568, 6.250e-5
-1.569, 6.409e-5
-1.570, 6.563e-5
-1.571, 6.641e-5
-1.572, 6.580e-5
-1.573, 6.671e-5
-1.574, 6.757e-5
-1.575, 6.852e-5
-1.576, 7.058e-5
-1.577, 7.142e-5
-1.578, 7.178e-5
-1.579, 7.248e-5
-1.580, 7.301e-5
-1.581, 7.481e-5
-1.582, 7.607e-5
-1.583, 7.523e-5
-1.584, 7.676e-5
-1.585, 7.826e-5
-1.586, 7.892e-5
-1.587, 8.045e-5
-1.588, 8.082e-5
-1.589, 8.126e-5
-1.590, 8.314e-5
-1.591, 8.494e-5
-1.592, 8.629e-5
-1.593, 8.745e-5
-1.594, 8.751e-5
-1.595, 8.866e-5
-1.596, 9.031e-5
-1.597, 9.308e-5
-1.598, 9.377e-5
-1.599, 9.307e-5
-1.600, 9.393e-5
-1.601, 9.580e-5
-1.602, 9.815e-5
-1.603, 1.015e-4
-1.604, 1.005e-4
-1.605, 1.018e-4
-1.606, 1.055e-4
-1.607, 1.073e-4
-1.608, 1.072e-4
-1.609, 1.084e-4
-1.610, 1.112e-4
-1.611, 1.124e-4
-1.612, 1.127e-4
-1.613, 1.140e-4
-1.614, 1.181e-4
-1.615, 1.188e-4
-1.616, 1.200e-4
-1.617, 1.230e-4
-1.618, 1.257e-4
-1.619, 1.261e-4
-1.620, 1.264e-4
-1.621, 1.301e-4
-1.622, 1.306e-4
-1.623, 1.327e-4
-1.624, 1.340e-4
-1.625, 1.352e-4
-1.626, 1.393e-4
-1.627, 1.391e-4
-1.628, 1.419e-4
-1.629, 1.441e-4
-1.630, 1.456e-4
-1.631, 1.470e-4
-1.632, 1.531e-4
-1.633, 1.514e-4
-1.634, 1.553e-4
-1.635, 1.592e-4
-1.636, 1.606e-4
-1.637, 1.636e-4
-1.638, 1.672e-4
-1.639, 1.655e-4
-1.640, 1.703e-4
-1.641, 1.706e-4
-1.642, 1.734e-4
-1.643, 1.774e-4
-1.644, 1.778e-4
-1.645, 1.824e-4
-1.646, 1.837e-4
-1.647, 1.880e-4
-1.648, 1.920e-4
-1.649, 1.929e-4
-1.650, 1.982e-4
-1.651, 1.962e-4
-1.652, 1.995e-4
-1.653, 2.043e-4
-1.654, 2.046e-4
-1.655, 2.107e-4
-1.656, 2.136e-4
-1.657, 2.205e-4
-1.658, 2.194e-4
-1.659, 2.250e-4
-1.660, 2.256e-4
-1.661, 2.301e-4
-1.662, 2.326e-4
-1.663, 2.391e-4
-1.664, 2.386e-4
-1.665, 2.453e-4
-1.666, 2.486e-4
-1.667, 2.519e-4
-1.668, 2.576e-4
-1.669, 2.580e-4
-1.670, 2.615e-4
-1.671, 2.658e-4
-1.672, 2.717e-4
-1.673, 2.794e-4
-1.674, 2.824e-4
-1.675, 2.856e-4
-1.676, 2.915e-4
-1.677, 2.943e-4
-1.678, 2.960e-4
-1.679, 3.016e-4
-1.680, 3.048e-4
-1.681, 3.115e-4
-1.682, 3.177e-4
-1.683, 3.208e-4
-1.684, 3.308e-4
-1.685, 3.316e-4
-1.686, 3.366e-4
-1.687, 3.488e-4
-1.688, 3.492e-4
-1.689, 3.507e-4
-1.690, 3.585e-4
-1.691, 3.661e-4
-1.692, 3.713e-4
-1.693, 3.761e-4
-1.694, 3.826e-4
-1.695, 3.839e-4
-1.696, 3.935e-4
-1.697, 3.982e-4
-1.698, 4.075e-4
-1.699, 4.096e-4
-1.700, 4.145e-4
-1.701, 4.249e-4
-1.702, 4.324e-4
-1.703, 4.375e-4
-1.704, 4.396e-4
-1.705, 4.481e-4
-1.706, 4.540e-4
-1.707, 4.656e-4
-1.708, 4.712e-4
-1.709, 4.748e-4
-1.710, 4.836e-4
-1.711, 4.880e-4
-1.712, 4.949e-4
-1.713, 5.096e-4
-1.714, 5.164e-4
-1.715, 5.271e-4
-1.716, 5.321e-4
-1.717, 5.478e-4
-1.718, 5.517e-4
-1.719, 5.598e-4
-1.720, 5.695e-4
-1.721, 5.819e-4
-1.722, 5.882e-4
-1.723, 6.021e-4
-1.724, 6.057e-4
-1.725, 6.198e-4
-1.726, 6.302e-4
-1.727, 6.388e-4
-1.728, 6.477e-4
-1.729, 6.578e-4
-1.730, 6.662e-4
-1.731, 6.782e-4
-1.732, 6.921e-4
-1.733, 7.001e-4
-1.734, 7.079e-4
-1.735, 7.184e-4
-1.736, 7.297e-4
-1.737, 7.421e-4
-1.738, 7.586e-4
-1.739, 7.658e-4
-1.740, 7.766e-4
-1.741, 7.855e-4
-1.742, 8.052e-4
-1.743, 8.115e-4
-1.744, 8.255e-4
-1.745, 8.424e-4
-1.746, 8.520e-4
-1.747, 8.710e-4
-1.748, 8.840e-4
-1.749, 8.997e-4
-1.750, 9.184e-4
-1.751, 9.331e-4
-1.752, 9.533e-4
-1.753, 9.664e-4
-1.754, 9.794e-4
-1.755, 9.999e-4
-1.756, 1.012e-3
-1.757, 1.026e-3
-1.758, 1.042e-3
-1.759, 1.068e-3
-1.760, 1.085e-3
-1.761, 1.100e-3
-1.762, 1.119e-3
-1.763, 1.136e-3
-1.764, 1.156e-3
-1.765, 1.176e-3
-1.766, 1.197e-3
-1.767, 1.212e-3
-1.768, 1.230e-3
-1.769, 1.249e-3
-1.770, 1.273e-3
-1.771, 1.291e-3
-1.772, 1.309e-3
-1.773, 1.333e-3
-1.774, 1.358e-3
-1.775, 1.386e-3
-1.776, 1.404e-3
-1.777, 1.428e-3
-1.778, 1.454e-3
-1.779, 1.473e-3
-1.780, 1.502e-3
-1.781, 1.518e-3
-1.782, 1.552e-3
-1.783, 1.581e-3
-1.784, 1.608e-3
-1.785, 1.643e-3
-1.786, 1.665e-3
-1.787, 1.696e-3
-1.788, 1.733e-3
-1.789, 1.755e-3
-1.790, 1.788e-3
-1.791, 1.811e-3
-1.792, 1.855e-3
-1.793, 1.884e-3
-1.794, 1.914e-3
-1.795, 1.961e-3
-1.796, 1.988e-3
-1.797, 2.027e-3
-1.798, 2.063e-3
-1.799, 2.099e-3
-1.800, 2.144e-3
-1.801, 2.177e-3
-1.802, 2.219e-3
-1.803, 2.253e-3
-1.804, 2.301e-3
-1.805, 2.341e-3
-1.806, 2.377e-3
-1.807, 2.425e-3
-1.808, 2.477e-3
-1.809, 2.510e-3
-1.810, 2.564e-3
-1.811, 2.615e-3
-1.812, 2.652e-3
-1.813, 2.698e-3
-1.814, 2.742e-3
-1.815, 2.792e-3
-1.816, 2.847e-3
-1.817, 2.888e-3
-1.818, 2.943e-3
-1.819, 2.995e-3
-1.820, 3.038e-3
-1.821, 3.104e-3
-1.822, 3.158e-3
-1.823, 3.216e-3
-1.824, 3.264e-3
-1.825, 3.318e-3
-1.826, 3.382e-3
-1.827, 3.427e-3
-1.828, 3.490e-3
-1.829, 3.552e-3
-1.830, 3.623e-3
-1.831, 3.676e-3
-1.832, 3.730e-3
-1.833, 3.800e-3
-1.834, 3.861e-3
-1.835, 3.922e-3
-1.836, 3.980e-3
-1.837, 4.043e-3
-1.838, 4.113e-3
-1.839, 4.180e-3
-1.840, 4.238e-3
-1.841, 4.306e-3
-1.842, 4.379e-3
-1.843, 4.445e-3
-1.844, 4.518e-3
-1.845, 4.594e-3
-1.846, 4.663e-3
-1.847, 4.733e-3
-1.848, 4.795e-3
-1.849, 4.873e-3
-1.850, 4.932e-3
-1.851, 4.994e-3
-1.852, 5.067e-3
-1.853, 5.140e-3
-1.854, 5.203e-3
-1.855, 5.282e-3
-1.856, 5.355e-3
-1.857, 5.439e-3
-1.858, 5.496e-3
-1.859, 5.562e-3
-1.860, 5.647e-3
-1.861, 5.713e-3
-1.862, 5.786e-3
-1.863, 5.859e-3
-1.864, 5.925e-3
-1.865, 5.992e-3
-1.866, 6.065e-3
-1.867, 6.145e-3
-1.868, 6.210e-3
-1.869, 6.280e-3
-1.870, 6.348e-3
-1.871, 6.422e-3
-1.872, 6.502e-3
-1.873, 6.566e-3
-1.874, 6.637e-3
-1.875, 6.728e-3
-1.876, 6.801e-3
-1.877, 6.864e-3
-1.878, 6.936e-3
-1.879, 7.007e-3
-1.880, 7.102e-3
-1.881, 7.178e-3
-1.882, 7.245e-3
-1.883, 7.324e-3
-1.884, 7.398e-3
-1.885, 7.465e-3
-1.886, 7.549e-3
-1.887, 7.623e-3
-1.888, 7.688e-3
-1.889, 7.757e-3
-1.890, 7.835e-3
-1.891, 7.901e-3
-1.892, 7.967e-3
-1.893, 8.057e-3
-1.894, 8.128e-3
-1.895, 8.199e-3
-1.896, 8.272e-3
-1.897, 8.340e-3
-1.898, 8.406e-3
-1.899, 8.481e-3
-1.900, 8.512e-3
-1.899, 8.471e-3
-1.898, 8.416e-3
-1.897, 8.370e-3
-1.896, 8.319e-3
-1.895, 8.260e-3
-1.894, 8.210e-3
-1.893, 8.132e-3
-1.892, 8.064e-3
-1.891, 8.020e-3
-1.890, 7.956e-3
-1.889, 7.888e-3
-1.888, 7.836e-3
-1.887, 7.790e-3
-1.886, 7.734e-3
-1.885, 7.674e-3
-1.884, 7.615e-3
-1.883, 7.555e-3
-1.882, 7.502e-3
-1.881, 7.442e-3
-1.880, 7.367e-3
-1.879, 7.320e-3
-1.878, 7.264e-3
-1.877, 7.200e-3
-1.876, 7.133e-3
-1.875, 7.072e-3
-1.874, 7.011e-3
-1.873, 6.965e-3
-1.872, 6.911e-3
-1.871, 6.847e-3
-1.870, 6.790e-3
-1.869, 6.723e-3
-1.868, 6.667e-3
-1.867, 6.612e-3
-1.866, 6.559e-3
-1.865, 6.504e-3
-1.864, 6.444e-3
-1.863, 6.386e-3
-1.862, 6.323e-3
-1.861, 6.275e-3
-1.860, 6.226e-3
-1.859, 6.156e-3
-1.858, 6.110e-3
-1.857, 6.056e-3
-1.856, 5.998e-3
-1.855, 5.950e-3
-1.854, 5.892e-3
-1.853, 5.847e-3
-1.852, 5.780e-3
-1.851, 5.733e-3
-1.850, 5.684e-3
-1.849, 5.635e-3
-1.848, 5.576e-3
-1.847, 5.531e-3
-1.846, 5.495e-3
-1.845, 5.443e-3
-1.844, 5.387e-3
-1.843, 5.339e-3
-1.842, 5.294e-3
-1.841, 5.239e-3
-1.840, 5.170e-3
-1.839, 5.129e-3
-1.838, 5.074e-3
-1.837, 5.020e-3
-1.836, 4.965e-3
-1.835, 4.929e-3
-1.834, 4.875e-3
-1.833, 4.838e-3
-1.832, 4.797e-3
-1.831, 4.763e-3
-1.830, 4.697e-3
-1.829, 4.667e-3
-1.828, 4.601e-3
-1.827, 4.561e-3
-1.826, 4.506e-3
-1.825, 4.458e-3
-1.824, 4.416e-3
-1.823, 4.374e-3
-1.822, 4.335e-3
-1.821, 4.289e-3
-1.820, 4.238e-3
-1.819, 4.208e-3
-1.818, 4.168e-3
-1.817, 4.110e-3
-1.816, 4.078e-3
-1.815, 4.035e-3
-1.814, 3.991e-3
-1.813, 3.933e-3
-1.812, 3.887e-3
-1.811, 3.852e-3
-1.810, 3.803e-3
-1.809, 3.772e-3
-1.808, 3.733e-3
-1.807, 3.684e-3
-1.806, 3.644e-3
-1.805, 3.613e-3
-1.804, 3.571e-3
-1.803, 3.536e-3
-1.802, 3.496e-3
-1.801, 3.465e-3
-1.800, 3.423e-3
-1.799, 3.390e-3
-1.798, 3.339e-3
-1.797, 3.311e-3
-1.796, 3.266e-3
-1.795, 3.224e-3
-1.794, 3.185e-3
-1.793, 3.157e-3
-1.792, 3.106e-3
-1.791, 3.070e-3
-1.790, 3.037e-3
-1.789, 2.998e-3
-1.788, 2.962e-3
-1.787, 2.933e-3
-1.786, 2.894e-3
-1.785, 2.863e-3
-1.784, 2.823e-3
-1.783, 2.788e-3
-1.782, 2.760e-3
-1.781, 2.728e-3
-1.780, 2.696e-3
-1.779, 2.666e-3
-1.778, 2.639e-3
-1.777, 2.605e-3
-1.776, 2.567e-3
-1.775, 2.531e-3
-1.774, 2.496e-3
-1.773, 2.468e-3
-1.772, 2.430e-3
-1.771, 2.400e-3
-1.770, 2.375e-3
-1.769, 2.341e-3
-1.768, 2.306e-3
-1.767, 2.278e-3
-1.766, 2.253e-3
-1.765, 2.216e-3
-1.764, 2.183e-3
-1.763, 2.156e-3
-1.762, 2.131e-3
-1.761, 2.101e-3
-1.760, 2.068e-3
-1.759, 2.040e-3
-1.758, 2.014e-3
-1.757, 1.987e-3
-1.756, 1.963e-3
-1.755, 1.940e-3
-1.754, 1.918e-3
-1.753, 1.888e-3
-1.752, 1.859e-3
-1.751, 1.839e-3
-1.750, 1.821e-3
-1.749, 1.797e-3
-1.748, 1.762e-3
-1.747, 1.738e-3
-1.746, 1.714e-3
-1.745, 1.695e-3
-1.744, 1.666e-3
-1.743, 1.642e-3
-1.742, 1.618e-3
-1.741, 1.596e-3
-1.740, 1.572e-3
-1.739, 1.553e-3
-1.738, 1.531e-3
-1.737, 1.513e-3
-1.736, 1.485e-3
-1.735, 1.468e-3
-1.734, 1.449e-3
-1.733, 1.424e-3
-1.732, 1.405e-3
-1.731, 1.386e-3
-1.730, 1.363e-3
-1.729, 1.346e-3
-1.728, 1.324e-3
-1.727, 1.302e-3
-1.726, 1.287e-3
-1.725, 1.264e-3
-1.724, 1.248e-3
-1.723, 1.227e-3
-1.722, 1.212e-3
-1.721, 1.191e-3
-1.720, 1.173e-3
-1.719, 1.158e-3
-1.718, 1.140e-3
-1.717, 1.126e-3
-1.716, 1.108e-3
-1.715, 1.090e-3
-1.714, 1.077e-3
-1.713, 1.057e-3
-1.712, 1.041e-3
-1.711, 1.024e-3
-1.710, 1.014e-3
-1.709, 9.982e-4
-1.708, 9.796e-4
-1.707, 9.641e-4
-1.706, 9.494e-4
-1.705, 9.355e-4
-1.704, 9.202e-4
-1.703, 9.045e-4
-1.702, 8.905e-4
-1.701, 8.830e-4
-1.700, 8.648e-4
-1.699, 8.505e-4
-1.698, 8.324e-4
-1.697, 8.198e-4
-1.696, 8.069e-4
-1.695, 7.947e-4
-1.694, 7.820e-4
-1.693, 7.697e-4
-1.692, 7.590e-4
-1.691, 7.436e-4
-1.690, 7.316e-4
-1.689, 7.213e-4
-1.688, 7.130e-4
-1.687, 6.978e-4
-1.686, 6.867e-4
-1.685, 6.746e-4
-1.684, 6.658e-4
-1.683, 6.565e-4
-1.682, 6.446e-4
-1.681, 6.308e-4
-1.680, 6.207e-4
-1.679, 6.137e-4
-1.678, 6.018e-4
-1.677, 5.926e-4
-1.676, 5.829e-4
-1.675, 5.679e-4
-1.674, 5.632e-4
-1.673, 5.532e-4
-1.672, 5.463e-4
-1.671, 5.358e-4
-1.670, 5.284e-4
-1.669, 5.211e-4
-1.668, 5.028e-4
-1.667, 5.013e-4
-1.666, 4.960e-4
-1.665, 4.815e-4
-1.664, 4.756e-4
-1.663, 4.659e-4
-1.662, 4.572e-4
-1.661, 4.515e-4
-1.660, 4.394e-4
-1.659, 4.396e-4
-1.658, 4.305e-4
-1.657, 4.192e-4
-1.656, 4.143e-4
-1.655, 4.068e-4
-1.654, 3.979e-4
-1.653, 3.913e-4
-1.652, 3.810e-4
-1.651, 3.781e-4
-1.650, 3.687e-4
-1.649, 3.632e-4
-1.648, 3.565e-4
-1.647, 3.504e-4
-1.646, 3.443e-4
-1.645, 3.372e-4
-1.644, 3.339e-4
-1.643, 3.273e-4
-1.642, 3.234e-4
-1.641, 3.132e-4
-1.640, 3.145e-4
-1.639, 3.020e-4
-1.638, 3.016e-4
-1.637, 2.909e-4
-1.636, 2.898e-4
-1.635, 2.804e-4
-1.634, 2.762e-4
-1.633, 2.748e-4
-1.632, 2.660e-4
-1.631, 2.644e-4
-1.630, 2.566e-4
-1.629, 2.547e-4
-1.628, 2.508e-4
-1.627, 2.434e-4
-1.626, 2.427e-4
-1.625, 2.323e-4
-1.624, 2.308e-4
-1.623, 2.276e-4
-1.622, 2.200e-4
-1.621, 2.206e-4
-1.620, 2.125e-4
-1.619, 2.102e-4
-1.618, 2.081e-4
-1.617, 2.016e-4
-1.616, 1.996e-4
-1.615, 1.956e-4
-1.614, 1.892e-4
-1.613, 1.888e-4
-1.612, 1.838e-4
-1.611, 1.786e-4
-1.610, 1.777e-4
-1.609, 1.737e-4
-1.608, 1.701e-4
-1.607, 1.683e-4
-1.606, 1.638e-4
-1.605, 1.592e-4
-1.604, 1.579e-4
-1.603, 1.557e-4
-1.602, 1.500e-4
-1.601, 1.508e-4
-1.600, 1.474e-4
-1.599, 1.416e-4
-1.598, 1.401e-4
-1.597, 1.380e-4
-1.596, 1.330e-4
-1.595, 1.295e-4
-1.594, 1.316e-4
-1.593, 1.281e-4
-1.592, 1.237e-4
-1.591, 1.218e-4
-1.590, 1.197e-4
-1.589, 1.167e-4
-1.588, 1.127e-4
-1.587, 1.137e-4
-1.586, 1.111e-4
-1.585, 1.082e-4
-1.584, 1.048e-4
-1.583, 1.032e-4
-1.582, 1.039e-4
-1.581, 9.910e-5
-1.580, 9.717e-5
-1.579, 9.505e-5
-1.578, 9.219e-5
-1.577, 9.187e-5
-1.576, 9.144e-5
-1.575, 8.743e-5
-1.574, 8.520e-5
-1.573, 8.412e-5
-1.572, 8.309e-5
-1.571, 8.199e-5
-1.570, 7.914e-5
-1.569, 7.533e-5
-1.568, 7.493e-5
-1.567, 7.533e-5
-1.566, 7.359e-5
-1.565, 7.008e-5
-1.564, 6.981e-5
-1.563, 6.702e-5
-1.562, 6.543e-5
-1.561, 6.549e-5
-1.560, 6.511e-5
-1.559, 6.273e-5
-1.558, 6.029e-5
-1.557, 5.956e-5
-1.556, 5.875e-5
-1.555, 5.847e-5
-1.554, 5.661e-5
-1.553, 5.430e-5
-1.552, 5.347e-5
-1.551, 5.229e-5
-1.550, 5.086e-5
-1.549, 5.037e-5
-1.548, 5.015e-5
-1.547, 4.934e-5
-1.546, 4.681e-5
-1.545, 4.573e-5
-1.544, 4.497e-5
-1.543, 4.439e-5
-1.542, 4.364e-5
-1.541, 4.293e-5
-1.540, 4.247e-5
-1.539, 4.079e-5
-1.538, 3.976e-5
-1.537, 3.896e-5
-1.536, 3.790e-5
-1.535, 3.679e-5
-1.534, 3.599e-5
-1.533, 3.604e-5
-1.532, 3.547e-5
-1.531, 3.429e-5
-1.530, 3.290e-5
-1.529, 3.168e-5
-1.528, 3.100e-5
-1.527, 3.049e-5
-1.526, 2.982e-5
-1.525, 2.948e-5
-1.524, 2.906e-5
-1.523, 2.836e-5
-1.522, 2.778e-5
-1.521, 2.650e-5
-1.520, 2.550e-5
-1.519, 2.531e-5
-1.518, 2.489e-5
-1.517, 2.429e-5
-1.516, 2.379e-5
-1.515, 2.327e-5
-1.514, 2.293e-5
-1.513, 2.207e-5
-1.512, 2.141e-5
-1.511, 2.105e-5
-1.510, 2.030e-5
-1.509, 1.974e-5
-1.508, 1.954e-5
-1.507, 1.882e-5
-1.506, 1.836e-5
-1.505, 1.797e-5
-1.504, 1.750e-5
-1.503, 1.672e-5
-1.502, 1.633e-5
-1.501, 1.647e-5
-1.500, 1.587e-5
-1.499, 1.563e-5
-1.498, 1.499e-5
-1.497, 1.451e-5
-1.496, 1.432e-5
-1.495, 1.374e-5
-1.494, 1.308e-5
-1.493, 1.303e-5
-1.492, 1.264e-5
-1.491, 1.251e-5
-1.490, 1.217e-5
-1.489, 1.174e-5
-1.488, 1.155e-5
-1.487, 1.131e-5
-1.486, 1.074e-5
-1.485, 1.048e-5
-1.484, 1.029e-5
-1.483, 9.844e-6
-1.482, 9.499e-6
-1.481, 9.351e-6
-1.480, 8.897e-6
-1.479, 8.650e-6
-1.478, 8.512e-6
-1.477, 8.216e-6
-1.476, 8.137e-6
-1.475, 7.684e-6
-1.474, 7.486e-6
-1.473, 7.013e-6
-1.472, 6.914e-6
-1.471, 6.579e-6
-1.470, 6.519e-6
-1.469, 6.293e-6
-1.468, 6.194e-6
-1.467, 6.085e-6
-1.466, 5.908e-6
-1.465, 5.553e-6
-1.464, 5.345e-6
-1.463, 5.049e-6
-1.462, 4.813e-6
-1.461, 4.704e-6
-1.460, 4.517e-6
-1.459, 4.300e-6
-1.458, 4.191e-6
-1.457, 4.043e-6
-1.456, 3.885e-6
-1.455, 3.727e-6
-1.454, 3.520e-6
-1.453, 3.530e-6
-1.452, 3.303e-6
-1.451, 3.244e-6
-1.450, 3.037e-6
-1.449, 2.928e-6
-1.448, 2.849e-6
-1.447, 2.672e-6
-1.446, 2.405e-6
-1.445, 2.336e-6
-1.444, 2.317e-6
-1.443, 2.159e-6
-1.442, 1.912e-6
-1.441, 1.912e-6
-1.440, 1.675e-6
-1.439, 1.547e-6
-1.438, 1.399e-6
-1.437, 1.399e-6
-1.436, 1.261e-6
-1.435, 1.093e-6
-1.434, 9.550e-7
-1.433, 7.577e-7
-1.432, 7.972e-7
-1.431, 5.012e-7
-1.430, 4.321e-7
-1.429, 4.815e-7
-1.428, 3.039e-7
-1.427, 2.151e-7
-1.426, 2.151e-7
-1.425, 5.722e-8
-1.424, -1.006e-7
-1.423, -1.500e-7
-1.422, -1.598e-7
-1.421, -1.598e-7
-1.420, -3.966e-7
-1.419, -3.867e-7
-1.418, -4.361e-7
-1.417, -4.065e-7
-1.416, -6.531e-7
-1.415, -7.123e-7
-1.414, -7.222e-7
-1.413, -8.998e-7
-1.412, -9.392e-7
-1.411, -1.008e-6
-1.410, -9.787e-7
-1.409, -1.087e-6
-1.408, -1.215e-6
-1.407, -1.176e-6
-1.406, -1.215e-6
-1.405, -1.423e-6
-1.404, -1.413e-6
-1.403, -1.433e-6
-1.402, -1.521e-6
-1.401, -1.600e-6
-1.400, -1.551e-6
-1.399, -1.699e-6
-1.398, -1.669e-6
-1.397, -1.659e-6
-1.396, -1.748e-6
-1.395, -1.965e-6
-1.394, -1.965e-6
-1.393, -1.896e-6
-1.392, -1.896e-6
-1.391, -1.955e-6
-1.390, -1.965e-6
-1.389, -2.094e-6
-1.388, -2.103e-6
-1.387, -2.192e-6
-1.386, -2.064e-6
-1.385, -2.232e-6
-1.384, -2.281e-6
-1.383, -2.409e-6
-1.382, -2.459e-6
-1.381, -2.340e-6
-1.380, -2.478e-6
-1.379, -2.557e-6
-1.378, -2.429e-6
-1.377, -2.429e-6
-1.376, -2.538e-6
-1.375, -2.636e-6
-1.374, -2.784e-6
-1.373, -2.656e-6
-1.372, -2.567e-6
-1.371, -2.587e-6
-1.370, -2.636e-6
-1.369, -2.755e-6
-1.368, -2.804e-6
-1.367, -2.735e-6
-1.366, -2.745e-6
-1.365, -2.853e-6
-1.364, -2.883e-6
-1.363, -2.893e-6
-1.362, -2.972e-6
-1.361, -2.824e-6
-1.360, -2.912e-6
-1.359, -2.981e-6
-1.358, -3.021e-6
-1.357, -3.041e-6
-1.356, -2.972e-6
-1.355, -3.090e-6
-1.354, -3.090e-6
-1.353, -3.080e-6
-1.352, -3.139e-6
-1.351, -3.080e-6
-1.350, -3.041e-6
-1.349, -3.208e-6
-1.348, -3.268e-6
-1.347, -3.238e-6
-1.346, -3.159e-6
-1.345, -3.238e-6
-1.344, -3.277e-6
-1.343, -3.366e-6
-1.342, -3.287e-6
-1.341, -3.179e-6
-1.340, -3.366e-6
-1.339, -3.386e-6
-1.338, -3.327e-6
-1.337, -3.514e-6
-1.336, -3.327e-6
-1.335, -3.386e-6
-1.334, -3.376e-6
-1.333, -3.445e-6
-1.332, -3.307e-6
-1.331, -3.376e-6
-1.330, -3.455e-6
-1.329, -3.445e-6
-1.328, -3.603e-6
-1.327, -3.524e-6
-1.326, -3.534e-6
-1.325, -3.544e-6
-1.324, -3.643e-6
-1.323, -3.583e-6
-1.322, -3.662e-6
-1.321, -3.623e-6
-1.320, -3.662e-6
-1.319, -3.544e-6
-1.318, -3.672e-6
-1.317, -3.573e-6
-1.316, -3.564e-6
-1.315, -3.771e-6
-1.314, -3.652e-6
-1.313, -3.593e-6
-1.312, -3.495e-6
-1.311, -3.682e-6
-1.310, -3.712e-6
-1.309, -3.583e-6
-1.308, -3.800e-6
-1.307, -3.702e-6
-1.306, -3.633e-6
-1.305, -3.899e-6
-1.304, -3.712e-6
-1.303, -3.682e-6
-1.302, -3.702e-6
-1.301, -3.643e-6
-1.300, -3.840e-6
-1.299, -3.879e-6
-1.298, -3.761e-6
-1.297, -3.850e-6
-1.296, -3.830e-6
-1.295, -3.889e-6
-1.294, -3.840e-6
-1.293, -3.741e-6
-1.292, -3.682e-6
-1.291, -3.869e-6
-1.290, -3.869e-6
-1.289, -3.869e-6
-1.288, -3.830e-6
-1.287, -3.820e-6
-1.286, -3.860e-6
-1.285, -3.860e-6
-1.284, -3.938e-6
-1.283, -3.998e-6
-1.282, -3.909e-6
-1.281, -3.909e-6
-1.280, -3.978e-6
-1.279, -4.008e-6
-1.278, -4.096e-6
-1.277, -3.958e-6
-1.276, -3.929e-6
-1.275, -4.008e-6
-1.274, -3.958e-6
-1.273, -4.037e-6
-1.272, -4.027e-6
-1.271, -4.037e-6
-1.270, -4.037e-6
-1.269, -4.017e-6
-1.268, -4.096e-6
-1.267, -4.086e-6
-1.266, -4.008e-6
-1.265, -3.988e-6
-1.264, -4.146e-6
-1.263, -4.096e-6
-1.262, -3.978e-6
-1.261, -4.047e-6
-1.260, -3.978e-6
-1.259, -4.146e-6
-1.258, -4.067e-6
-1.257, -3.968e-6
-1.256, -4.057e-6
-1.255, -4.146e-6
-1.254, -4.116e-6
-1.253, -4.215e-6
-1.252, -4.175e-6
-1.251, -4.126e-6
-1.250, -4.195e-6
-1.249, -4.096e-6
-1.248, -4.106e-6
-1.247, -4.156e-6
-1.246, -4.067e-6
-1.245, -4.077e-6
-1.244, -4.096e-6
-1.243, -4.234e-6
-1.242, -4.116e-6
-1.241, -4.086e-6
-1.240, -4.156e-6
-1.239, -4.175e-6
-1.238, -4.086e-6
-1.237, -4.225e-6
-1.236, -4.067e-6
-1.235, -4.254e-6
-1.234, -4.195e-6
-1.233, -4.126e-6
-1.232, -4.136e-6
-1.231, -4.165e-6
-1.230, -4.185e-6
-1.229, -4.412e-6
-1.228, -4.313e-6
-1.227, -4.244e-6
-1.226, -4.254e-6
-1.225, -4.382e-6
-1.224, -4.343e-6
-1.223, -4.304e-6
-1.222, -4.284e-6
-1.221, -4.254e-6
-1.220, -4.304e-6
-1.219, -4.373e-6
-1.218, -4.323e-6
-1.217, -4.254e-6
-1.216, -4.313e-6
-1.215, -4.382e-6
-1.214, -4.382e-6
-1.213, -4.343e-6
-1.212, -4.343e-6
-1.211, -4.353e-6
-1.210, -4.412e-6
-1.209, -4.412e-6
-1.208, -4.373e-6
-1.207, -4.343e-6
-1.206, -4.353e-6
-1.205, -4.491e-6
-1.204, -4.323e-6
-1.203, -4.481e-6
-1.202, -4.333e-6
-1.201, -4.363e-6
-1.200, -4.481e-6
-1.199, -4.481e-6
-1.198, -4.382e-6
-1.197, -4.570e-6
-1.196, -4.412e-6
-1.195, -4.412e-6
-1.194, -4.491e-6
-1.193, -4.452e-6
-1.192, -4.392e-6
-1.191, -4.412e-6
-1.190, -4.442e-6
-1.189, -4.402e-6
-1.188, -4.540e-6
-1.187, -4.333e-6
-1.186, -4.422e-6
-1.185, -4.442e-6
-1.184, -4.550e-6
-1.183, -4.461e-6
-1.182, -4.373e-6
-1.181, -4.412e-6
-1.180, -4.530e-6
-1.179, -4.442e-6
-1.178, -4.580e-6
-1.177, -4.461e-6
-1.176, -4.600e-6
-1.175, -4.481e-6
-1.174, -4.669e-6
-1.173, -4.511e-6
-1.172, -4.570e-6
-1.171, -4.560e-6
-1.170, -4.550e-6
-1.169, -4.570e-6
-1.168, -4.521e-6
-1.167, -4.540e-6
-1.166, -4.521e-6
-1.165, -4.501e-6
-1.164, -4.688e-6
-1.163, -4.521e-6
-1.162, -4.590e-6
-1.161, -4.590e-6
-1.160, -4.738e-6
-1.159, -4.688e-6
-1.158, -4.629e-6
-1.157, -4.491e-6
-1.156, -4.501e-6
-1.155, -4.609e-6
-1.154, -4.609e-6
-1.153, -4.639e-6
-1.152, -4.609e-6
-1.151, -4.600e-6
-1.150, -4.609e-6
-1.149, -4.688e-6
-1.148, -4.511e-6
-1.147, -4.639e-6
-1.146, -4.600e-6
-1.145, -4.678e-6
-1.144, -4.817e-6
-1.143, -4.747e-6
-1.142, -4.590e-6
-1.141, -4.649e-6
-1.140, -4.678e-6
-1.139, -4.846e-6
-1.138, -4.698e-6
-1.137, -4.718e-6
-1.136, -4.688e-6
-1.135, -4.767e-6
-1.134, -4.767e-6
-1.133, -4.698e-6
-1.132, -4.718e-6
-1.131, -4.747e-6
-1.130, -4.836e-6
-1.129, -4.688e-6
-1.128, -4.757e-6
-1.127, -4.817e-6
-1.126, -4.738e-6
-1.125, -4.905e-6
-1.124, -4.836e-6
-1.123, -4.895e-6
-1.122, -4.747e-6
-1.121, -4.718e-6
-1.120, -4.846e-6
-1.119, -4.856e-6
-1.118, -4.876e-6
-1.117, -4.846e-6
-1.116, -4.787e-6
-1.115, -4.895e-6
-1.114, -4.876e-6
-1.113, -4.974e-6
-1.112, -4.984e-6
-1.111, -4.974e-6
-1.110, -4.965e-6
-1.109, -4.866e-6
-1.108, -4.905e-6
-1.107, -4.826e-6
-1.106, -4.826e-6
-1.105, -4.886e-6
-1.104, -4.965e-6
-1.103, -4.965e-6
-1.102, -4.905e-6
-1.101, -4.984e-6
-1.100, -5.043e-6
-1.099, -4.994e-6
-1.098, -4.984e-6
-1.097, -4.955e-6
-1.096, -5.004e-6
-1.095, -5.024e-6
-1.094, -5.172e-6
-1.093, -5.053e-6
-1.092, -4.984e-6
-1.091, -4.935e-6
-1.090, -5.132e-6
-1.089, -4.935e-6
-1.088, -5.132e-6
-1.087, -5.024e-6
-1.086, -4.984e-6
-1.085, -5.093e-6
-1.084, -5.162e-6
-1.083, -5.063e-6
-1.082, -5.073e-6
-1.081, -5.083e-6
-1.080, -5.221e-6
-1.079, -5.063e-6
-1.078, -5.152e-6
-1.077, -5.034e-6
-1.076, -5.093e-6
-1.075, -5.270e-6
-1.074, -5.280e-6
-1.073, -5.261e-6
-1.072, -5.182e-6
-1.071, -5.152e-6
-1.070, -5.251e-6
-1.069, -5.300e-6
-1.068, -5.310e-6
-1.067, -5.280e-6
-1.066, -5.270e-6
-1.065, -5.379e-6
-1.064, -5.241e-6
-1.063, -5.339e-6
-1.062, -5.399e-6
-1.061, -5.330e-6
-1.060, -5.458e-6
-1.059, -5.349e-6
-1.058, -5.389e-6
-1.057, -5.320e-6
-1.056, -5.399e-6
-1.055, -5.330e-6
-1.054, -5.379e-6
-1.053, -5.428e-6
-1.052, -5.379e-6
-1.051, -5.458e-6
-1.050, -5.409e-6
-1.049, -5.665e-6
-1.048, -5.527e-6
-1.047, -5.497e-6
-1.046, -5.487e-6
-1.045, -5.566e-6
-1.044, -5.635e-6
-1.043, -5.478e-6
-1.042, -5.547e-6
-1.041, -5.537e-6
-1.040, -5.576e-6
-1.039, -5.685e-6
-1.038, -5.497e-6
-1.037, -5.557e-6
-1.036, -5.655e-6
-1.035, -5.655e-6
-1.034, -5.675e-6
-1.033, -5.675e-6
-1.032, -5.626e-6
-1.031, -5.685e-6
-1.030, -5.793e-6
-1.029, -5.764e-6
-1.028, -5.645e-6
-1.027, -5.744e-6
-1.026, -5.704e-6
-1.025, -5.862e-6
-1.024, -5.823e-6
-1.023, -5.912e-6
-1.022, -5.813e-6
-1.021, -5.872e-6
-1.020, -5.882e-6
-1.019, -5.852e-6
-1.018, -5.912e-6
-1.017, -5.823e-6
-1.016, -5.961e-6
-1.015, -5.971e-6
-1.014, -5.843e-6
-1.013, -6.020e-6
-1.012, -5.971e-6
-1.011, -5.902e-6
-1.010, -6.079e-6
-1.009, -6.178e-6
-1.008, -6.129e-6
-1.007, -6.020e-6
-1.006, -6.040e-6
-1.005, -6.040e-6
-1.004, -6.178e-6
-1.003, -6.099e-6
-1.002, -6.148e-6
-1.001, -6.168e-6
