Potential V vs RHE, Current mA cm-2
0.013299999999999867,-0.03518387002764346
0.012299999999999978,-0.20598196526034934
0.011299999999999866,-0.29539171941181963
0.010299999999999976,-0.3434919036072309
0.009299999999999864,-0.3717861296045316
0.008299999999999974,-0.39696799074212924
0.007299999999999862,-0.4231401497896325
0.006299999999999972,-0.4447852326775675
0.00529999999999986,-0.45327350047675774
0.0042999999999999705,-0.4586494034162448
0.0032999999999998586,-0.46954268042520564
0.0022999999999999687,-0.4858118603736536
0.0012999999999998568,-0.5002419156322769
0.00029999999999996696,-0.504486049531872
-0.000700000000000145,-0.5049104629218315
-0.0017000000000000348,-0.5129743173310622
-0.0027000000000001467,-0.5259896612898207
-0.0037000000000000366,-0.5388635341185926
-0.0047000000000001485,-0.5407026588084171
-0.005700000000000038,-0.539853832028498
-0.00670000000000015,-0.5480591575677152
-0.00770000000000004,-0.559801261356595
-0.008700000000000152,-0.5704115961055828
-0.009700000000000042,-0.5735239609652859
-0.010700000000000154,-0.5729580764453399
-0.011700000000000044,-0.5796072195547056
-0.012700000000000156,-0.5914907944735719
-0.013700000000000045,-0.6005449467927081
-0.014700000000000157,-0.6033743693924382
-0.015700000000000047,-0.6012523024426406
-0.01670000000000016,-0.6073355610320602
-0.01770000000000005,-0.6209167895107646
-0.01870000000000016,-0.6298294706999144
-0.01970000000000005,-0.6323759510396714
-0.020700000000000163,-0.6315271242597523
-0.021700000000000053,-0.6366200849392665
-0.022700000000000164,-0.6499183711579978
-0.023700000000000054,-0.6608116481669587
-0.024700000000000166,-0.6620848883368372
-0.025700000000000056,-0.6610945904269316
-0.026700000000000168,-0.6676022624063108
-0.027700000000000058,-0.6820323176649342
-0.02870000000000017,-0.692076767893976
-0.02970000000000006,-0.6941988348437735
-0.03070000000000017,-0.6939158925838005
-0.03170000000000006,-0.6999991511732202
-0.03270000000000017,-0.712024197222073
-0.03370000000000006,-0.7247565989208583
-0.034700000000000175,-0.7264542524806964
-0.035700000000000065,-0.7285763194304938
-0.03670000000000018,-0.7355084047998326
-0.03770000000000007,-0.7489481621485504
-0.03870000000000018,-0.7602658525474707
-0.03970000000000007,-0.7632367462771872
-0.04070000000000018,-0.7647929287070389
-0.04170000000000007,-0.7720079563363506
-0.04270000000000018,-0.7864380115949738
-0.04370000000000007,-0.7993118844237457
-0.044700000000000184,-0.8038389605833138
-0.045700000000000074,-0.8048292584932193
-0.046700000000000186,-0.8140248819423421
-0.047700000000000076,-0.828313466070979
-0.04870000000000019,-0.8418946945496834
-0.04970000000000008,-0.8461388284492785
-0.05070000000000019,-0.8475535397491435
-0.05170000000000008,-0.8577394611081718
-0.05270000000000019,-0.8724524586267681
-0.05370000000000008,-0.88532633145554
-0.05470000000000019,-0.8921169456948921
-0.05570000000000008,-0.8942390126446896
-0.056700000000000195,-0.9051322896536503
-0.057700000000000085,-0.9219673541220444
-0.058700000000000196,-0.9362559382506813
-0.059700000000000086,-0.9424806679700873
-0.0607000000000002,-0.9484224554295205
-0.06170000000000009,-0.9598816169584273
-0.0627000000000002,-0.9785558061166459
-0.06370000000000009,-0.9918540923353774
-0.0647000000000002,-0.9985032354447428
-0.06570000000000009,-1.0040206095142166
-0.0667000000000002,-1.0132162329633392
-0.0677000000000001,-1.0323148355115173
-0.0687000000000002,-1.0475937175500596
-0.0697000000000001,-1.0565063987392094
-0.07070000000000021,-1.0638628974985076
-0.0717000000000001,-1.0747561745074685
-0.07270000000000021,-1.0948450749655518
-0.0737000000000001,-1.1126704373438514
-0.07470000000000021,-1.1217245896629875
-0.0757000000000001,-1.1286566750323264
-0.07670000000000021,-1.1435111436809091
-0.0777000000000001,-1.1624682750991004
-0.07870000000000021,-1.180576579737373
-0.0797000000000001,-1.1907625010964016
-0.08070000000000022,-1.1984019421156726
-0.0817000000000001,-1.2138222952842015
-0.08270000000000022,-1.236457676082042
-0.08370000000000011,-1.256688047670112
-0.08470000000000022,-1.2656007288592617
-0.08570000000000011,-1.274654881178398
-0.08670000000000022,-1.2903581766069
-0.08770000000000011,-1.3108714904549428
-0.08870000000000022,-1.332233631082905
-0.08970000000000011,-1.3455319173016365
-0.09070000000000022,-1.3535957717108673
-0.09170000000000011,-1.3711381918291936
-0.09270000000000023,-1.3941979860169935
-0.09370000000000012,-1.4147112998650369
-0.09470000000000023,-1.4288584128636872
-0.09570000000000012,-1.4387613919627424
-0.09670000000000023,-1.4571526388609877
-0.09770000000000012,-1.4812027309586933
-0.09870000000000023,-1.502423400456669
-0.09970000000000012,-1.5179852247551844
-0.10070000000000023,-1.5293029151541047
-0.10170000000000012,-1.55052358465208
-0.10270000000000024,-1.5759883880496508
-0.10370000000000013,-1.6000384801473564
-0.10470000000000024,-1.6156003044458718
-0.10570000000000013,-1.6283327061446573
-0.10670000000000024,-1.6481386643427678
-0.10770000000000013,-1.6736034677403384
-0.10870000000000024,-1.700482982437774
-0.10970000000000013,-1.7160448067362895
-0.11070000000000024,-1.7330213423346699
-0.11170000000000013,-1.7542420118326456
-0.11270000000000002,-1.7825362378299463
-0.11370000000000013,-1.8065863299276517
-0.11470000000000002,-1.823562865526032
-0.11570000000000014,-1.8391246898245475
-0.11670000000000003,-1.8645894932221183
-0.11770000000000014,-1.892883719219419
-0.11870000000000003,-1.9197632339168547
-0.11970000000000014,-1.9367397695152353
-0.12070000000000003,-1.9551310164134805
-0.12170000000000014,-1.9820105311109162
-0.12270000000000003,-2.013134179707947
-0.12370000000000014,-2.040013694405383
-0.12470000000000003,-2.0569902300037635
-0.12570000000000014,-2.076796188201874
-0.12670000000000003,-2.102260991599445
-0.12770000000000015,-2.13196992889661
-0.12870000000000004,-2.1630935774936413
-0.12970000000000015,-2.1871436695913467
-0.13070000000000004,-2.206949627789457
-0.13170000000000015,-2.235243853786758
-0.13270000000000004,-2.2663675023837886
-0.13370000000000015,-2.296076439680954
-0.13470000000000004,-2.3201265317786604
-0.13570000000000015,-2.3427619125765005
-0.13670000000000004,-2.3696414272739363
-0.13770000000000016,-2.4050092097705624
-0.13870000000000005,-2.438962280967323
-0.13970000000000016,-2.463012373065029
-0.14070000000000005,-2.4870624651627344
-0.14170000000000016,-2.5139419798601703
-0.14270000000000005,-2.549309762356796
-0.14370000000000016,-2.583262833553557
-0.14470000000000005,-2.6087276369511274
-0.14570000000000016,-2.6356071516485633
-0.14670000000000005,-2.6653160889457292
-0.14770000000000016,-2.7035132940420854
-0.14870000000000005,-2.737466365238846
-0.14970000000000017,-2.767175302536012
-0.15070000000000006,-2.794054817233447
-0.15170000000000017,-2.8251784658304784
-0.15270000000000006,-2.866205093526564
-0.15370000000000017,-2.9058170099227856
-0.15470000000000006,-2.9298671020204905
-0.15570000000000017,-2.9581613280177916
-0.15670000000000006,-2.990699687914687
-0.15770000000000017,-3.031726315610774
-0.15870000000000006,-3.0713382320069944
-0.15970000000000018,-3.0996324580042955
-0.16070000000000007,-3.1279266840015962
-0.16170000000000018,-3.166123889097952
-0.16270000000000007,-3.208565228093903
-0.16370000000000018,-3.2524212783897193
-0.16470000000000007,-3.2849596382866153
-0.16570000000000018,-3.317497998183511
-0.16670000000000007,-3.355695203279867
-0.16770000000000018,-3.3967218309759533
-0.16870000000000007,-3.440577881271769
-0.16970000000000018,-3.473116241168665
-0.17070000000000007,-3.505654601065561
-0.17170000000000019,-3.545266517461782
-0.17270000000000008,-3.590537279057463
-0.1737000000000002,-3.6343933293532795
-0.17470000000000008,-3.669761111849905
-0.1757000000000002,-3.699470049147071
-0.17670000000000008,-3.7376672542434273
-0.1777000000000002,-3.785767438438838
-0.17870000000000008,-3.8267940661349247
-0.1797000000000002,-3.8635765599314156
-0.18070000000000008,-3.8947002085284463
-0.1817000000000002,-3.9371415475243974
-0.18270000000000008,-3.982412309120079
-0.1837000000000002,-4.029097782015624
-0.1847000000000001,-4.065880275812115
-0.1857000000000002,-4.108321614808066
-0.1867000000000001,-4.146518819904423
-0.1877000000000002,-4.190374870200238
-0.1887000000000001,-4.238475054395651
-0.1897000000000002,-4.279501682091736
-0.1907000000000001,-4.313454753288497
-0.1917000000000001,-4.350237247084988
-0.19269999999999998,-4.395508008680669
-0.1937000000000001,-4.4393640589764845
-0.19469999999999998,-4.476146552772976
-0.1957000000000001,-4.512929046569467
-0.19669999999999999,-4.5497115403659585
-0.1977000000000001,-4.599226435861234
-0.1987,-4.644497197456915
-0.1997000000000001,-4.677035557353811
-0.2007,-4.710988628550572
-0.2017000000000001,-4.753429967546523
-0.2027,-4.802944863041799
-0.2037000000000001,-4.846800913337615
-0.2047,-4.875095139334916
-0.2057000000000001,-4.913292344431272
-0.2067,-4.951489549527628
-0.2077000000000001,-4.995345599823445
-0.2087,-5.0420310727189905
-0.2097000000000001,-5.078813566515482
-0.2107,-5.105693081212917
-0.2117000000000001,-5.142475575009408
-0.2127,-5.1792580688059
-0.2137000000000001,-5.217455273902255
-0.2147,-5.254237767698746
-0.2157000000000001,-5.282531993696048
-0.2167,-5.313655642293078
-0.21770000000000012,-5.356096981289029
-0.2187,-5.38722062988606
-0.21970000000000012,-5.409856010683901
-0.2207,-5.432491391481741
-0.22170000000000012,-5.456541483579446
-0.2227,-5.490494554776207
-0.22370000000000012,-5.5145446468739125
-0.2247,-5.528691759872564
-0.22570000000000012,-5.540009450271484
-0.2267,-5.555571274569999
-0.22770000000000012,-5.5838655005673
-0.22870000000000001,-5.596597902266086
-0.22970000000000013,-5.6065008813651405
-0.23070000000000002,-5.609330303964871
-0.23170000000000013,-5.622062705663656
-0.23270000000000002,-5.636209818662306
-0.23370000000000013,-5.637624529962172
-0.23470000000000002,-5.636209818662306
-0.23570000000000013,-5.6263068395632505
-0.23670000000000002,-5.624892128263387
-0.2376999999999999,-5.629136262162981
-0.23870000000000002,-5.623477416963521
-0.2396999999999999,-5.6065008813651405
-0.24070000000000003,-5.58952434576676
-0.24169999999999991,-5.5739625214682444
-0.24270000000000003,-5.5598154084695945
-0.24369999999999992,-5.540009450271484
-0.24470000000000003,-5.5145446468739125
-0.24569999999999992,-5.480591575677152
-0.24670000000000003,-5.453712060979717
-0.24769999999999992,-5.428247257582146
-0.24870000000000003,-5.39287947508552
-0.24969999999999992,-5.349023424789703
-0.25070000000000003,-5.302337951894157
-0.2516999999999999,-5.259896612898206
-0.25270000000000004,-5.217455273902255
-0.2536999999999999,-5.166525667107114
-0.25470000000000004,-5.109937215112512
-0.2556999999999999,-5.0420310727189905
-0.25670000000000004,-4.978369064225063
-0.25769999999999993,-4.921780612230462
-0.25870000000000004,-4.85387446983694
-0.25969999999999993,-4.778894770944094
-0.26070000000000004,-4.699670938151652
-0.26169999999999993,-4.627520661858535
-0.26270000000000004,-4.559614519465013
-0.26369999999999993,-4.480390686672571
-0.26470000000000005,-4.3926785860809385
-0.26569999999999994,-4.304966485489307
-0.26670000000000005,-4.225742652696865
-0.26769999999999994,-4.146518819904423
-0.26870000000000005,-4.068709698411845
-0.26969999999999994,-3.9809975978202137
-0.27070000000000005,-3.8904560746288515
-0.27169999999999994,-3.8098175305365434
-0.27270000000000005,-3.7320084090439667
-0.27369999999999994,-3.6541992875513896
-0.27470000000000006,-3.573560743459083
-0.27569999999999995,-3.492922199366775
-0.27670000000000006,-3.4165277891740633
-0.27769999999999995,-3.3429628015810815
-0.27870000000000006,-3.276471370487425
-0.27969999999999995,-3.204321094194308
-0.28070000000000006,-3.1279266840015962
-0.28169999999999995,-3.0656793868075347
-0.28270000000000006,-3.010505646112798
-0.28369999999999995,-2.956746616717927
-0.28470000000000006,-2.8987434534234597
-0.28569999999999995,-2.836496156229398
-0.28670000000000007,-2.788395972033987
-0.28769999999999996,-2.7501987669376318
-0.28870000000000007,-2.7077574279416803
-0.28969999999999996,-2.666730800245594
-0.29070000000000007,-2.6257041725495083
-0.29169999999999996,-2.5931658126526123
-0.29270000000000007,-2.5648715866553116
-0.29369999999999996,-2.539406783257741
-0.2947000000000001,-2.509697845960575
-0.29569999999999996,-2.4828183312631396
-0.2967000000000001,-2.464427084364894
-0.29769999999999996,-2.4531093939659736
-0.2987000000000001,-2.437547569667458
-0.29969999999999997,-2.4219857453689424
-0.3007000000000001,-2.4035944984706976
-0.30169999999999997,-2.396520941971372
-0.3027000000000001,-2.396520941971372
-0.30369999999999997,-2.392276808071777
-0.3047000000000001,-2.383788540272587
-0.30569999999999997,-2.379544406372992
-0.3067000000000001,-2.3781296950731265
-0.3077,-2.386617962872317
-0.3087000000000001,-2.392276808071777
-0.3097,-2.392276808071777
-0.3107000000000001,-2.3979356532712375
-0.3117,-2.407838632370292
-0.3127000000000001,-2.4191563227692128
-0.3137,-2.430474013168133
-0.3147000000000001,-2.4403769922671885
-0.3157,-2.4460358374666487
-0.3167000000000001,-2.465841795664759
-0.3177,-2.4884771764625997
-0.3187000000000001,-2.50545371206098
-0.3197,-2.5210155363594953
-0.3207000000000001,-2.5351626493581456
-0.3217,-2.5592127414558514
-0.3227000000000001,-2.587506967453152
-0.3237,-2.610142348250993
-0.3247000000000001,-2.629948306449103
-0.3257,-2.6511689759470785
-0.3267000000000001,-2.6808779132442444
-0.3277,-2.709172139241545
-0.3287000000000001,-2.737466365238846
-0.3297,-2.7629311686364164
-0.3307000000000001,-2.7869812607341222
-0.3317,-2.818104909331153
-0.3327000000000001,-2.852057980527914
-0.3337,-2.88742576302454
-0.3347000000000001,-2.9185494116215707
-0.3357,-2.9440142150191413
-0.3367000000000001,-2.9822114201154974
-0.3377,-3.0260674704113137
-0.3387000000000001,-3.0628499642078046
-0.3397,-3.0968030354045655
-0.3407000000000001,-3.1321708179011907
-0.3417,-3.168953311697682
-0.3427000000000001,-3.211394650693633
-0.3437,-3.253835989689584
-0.3447000000000001,-3.2892037721862106
-0.3457,-3.3302303998822964
-0.3467000000000001,-3.3740864501781123
-0.3477,-3.4236013456733887
-0.3487000000000001,-3.4674573959692045
-0.3497,-3.505654601065561
-0.3507000000000001,-3.543851806161917
-0.3517,-3.591951990357328
-0.3527000000000001,-3.6485404423519294
-0.3537,-3.700884760446936
-0.3547000000000001,-3.7419113881430217
-0.3557,-3.788596861038568
-0.35670000000000013,-3.840941179133574
-0.3577,-3.896114919828311
-0.35870000000000013,-3.9484592379233177
-0.3597,-3.995144710818863
-0.36070000000000013,-4.043244895014275
-0.3617,-4.102662769608606
-0.3626999999999999,-4.160665932903073
-0.3637,-4.225742652696865
-0.3646999999999999,-4.276672259492005
-0.3657,-4.327601866287147
-0.3666999999999999,-4.385605029581614
-0.3677,-4.449267038075541
-0.3686999999999999,-4.515758469169198
-0.36970000000000003,-4.573761632463664
-0.3706999999999999,-4.6289353731583995
-0.37170000000000003,-4.691182670352461
-0.3726999999999999,-4.760503524045848
-0.37370000000000003,-4.82275082123991
-0.3746999999999999,-4.883583407134107
-0.37570000000000003,-4.940171859128707
-0.3766999999999999,-5.002419156322769
-0.37770000000000004,-5.0745694326158866
-0.3786999999999999,-5.143890286309273
-0.37970000000000004,-5.2061375835033346
-0.3806999999999999,-5.266970169397532
-0.38170000000000004,-5.337705734390783
-0.38269999999999993,-5.414100144583495
-0.38370000000000004,-5.486250420876612
-0.38469999999999993,-5.558400697169729
-0.38570000000000004,-5.622062705663656
-0.38669999999999993,-5.487665132176478
-0.38570000000000004,-5.261311324198071
-0.38469999999999993,-5.122669616811298
-0.38370000000000004,-5.0052485789225
-0.38269999999999993,-4.894901097533027
-0.38170000000000004,-4.804359574341665
-0.3806999999999999,-4.7208916076496275
-0.37970000000000004,-4.630350084458265
-0.3786999999999999,-4.542637983866633
-0.37770000000000004,-4.450681749375406
-0.3766999999999999,-4.364384360083638
-0.37570000000000003,-4.289404661190791
-0.3746999999999999,-4.21018082839835
-0.37370000000000003,-4.1295422843060425
-0.3726999999999999,-4.0446596063141405
-0.37170000000000003,-3.973924041320888
-0.3706999999999999,-3.9046031876275014
-0.36970000000000003,-3.8267940661349247
-0.3686999999999999,-3.7503996559422124
-0.3677,-3.67683466834923
-0.3666999999999999,-3.6046843920561136
-0.3657,-3.542437094862052
-0.3646999999999999,-3.4801897976679905
-0.3637,-3.4136983665743337
-0.3626999999999999,-3.3457922241808116
-0.3617,-3.279300793087155
-0.36070000000000013,-3.2212976297926885
-0.3597,-3.160465043898492
-0.35870000000000013,-3.0939736128048354
-0.3577,-3.028896893011044
-0.35670000000000013,-2.973723152316307
-0.3557,-2.919964122921436
-0.3547000000000001,-2.863375670926834
-0.3537,-2.7997136624329078
-0.3527000000000001,-2.737466365238846
-0.3517,-2.689366181043435
-0.3507000000000001,-2.6440954194477535
-0.3497,-2.588921678753017
-0.3487000000000001,-2.532333226758415
-0.3477,-2.472915352164084
-0.3467000000000001,-2.4234004566688077
-0.3457,-2.382373828972722
-0.3447000000000001,-2.33144422217758
-0.3437,-2.2776851927827093
-0.3427000000000001,-2.2225114520879723
-0.3417,-2.1800701130920217
-0.3407000000000001,-2.1390434853959355
-0.3397,-2.092358012500389
-0.3387000000000001,-2.040013694405383
-0.3377,-1.9904987989101068
-0.3367000000000001,-1.9480574599141556
-0.3357,-1.9155191000172598
-0.3347000000000001,-1.8730777610213083
-0.3337,-1.8263922881257622
-0.3327000000000001,-1.779706815230216
-0.3317,-1.7429243214337253
-0.3307000000000001,-1.7061418276372344
-0.3297,-1.6665299112410132
-0.3287000000000001,-1.6212591496453321
-0.3277,-1.5788178106493809
-0.3267000000000001,-1.546279450752485
-0.3257,-1.5137410908555893
-0.3247000000000001,-1.4769585970590984
-0.3237,-1.4345172580631471
-0.3227000000000001,-1.3947638705369396
-0.3217,-1.365054933239774
-0.3207000000000001,-1.3373265917624193
-0.3197,-1.3040808762155907
-0.3187000000000001,-1.2641860175593966
-0.3177,-1.2276864660228788
-0.3167000000000001,-1.1978360575957268
-0.3157,-1.1694003604684393
-0.3147000000000001,-1.1425208457710037
-0.3137,-1.1061627653644721
-0.3127000000000001,-1.0709364539978328
-0.3117,-1.0440569393003971
-0.3107000000000001,-1.019582433812732
-0.3097,-0.9914296789454178
-0.3087000000000001,-0.9577595500086299
-0.3077,-0.922674709771977
-0.3067000000000001,-0.8998978578441498
-0.30569999999999997,-0.8766965925263633
-0.3047000000000001,-0.8493926644389681
-0.30369999999999997,-0.8209569673116808
-0.3027000000000001,-0.791530972274488
-0.30169999999999997,-0.7686126492166745
-0.3007000000000001,-0.7506458157083884
-0.29969999999999997,-0.7264542524806964
-0.2987000000000001,-0.6971697285734901
-0.29769999999999996,-0.6690169737061759
-0.2967000000000001,-0.6476548330782137
-0.29569999999999996,-0.6305368263498469
-0.2947000000000001,-0.6091746857218847
-0.29369999999999996,-0.582295171024449
-0.29270000000000007,-0.5551327140670403
-0.29169999999999996,-0.535892640388876
-0.29070000000000007,-0.5218869985202121
-0.28969999999999996,-0.5017980980621284
-0.28870000000000007,-0.4757674101446118
-0.28769999999999996,-0.4515758469169197
-0.28670000000000007,-0.4336090134086337
-0.28569999999999995,-0.42031072718990237
-0.28470000000000006,-0.4022024225516299
-0.28369999999999995,-0.3790011572338433
-0.28270000000000006,-0.35763901660588127
-0.28169999999999995,-0.34136983665743337
-0.28070000000000006,-0.32764713704874243
-0.27969999999999995,-0.3125097261401866
-0.27870000000000006,-0.289025518562427
-0.27769999999999995,-0.26851220471438403
-0.27670000000000006,-0.25691157205549064
-0.27569999999999995,-0.24672565069646235
-0.27470000000000006,-0.23272000882779853
-0.27369999999999994,-0.21093345480987696
-0.27270000000000005,-0.19112749661176645
-0.27169999999999994,-0.17853656604296764
-0.27070000000000005,-0.16919947146385841
-0.26969999999999994,-0.155052358465208
-0.26870000000000005,-0.1368733182619423
