Apr. 3, 2025   08:47:23
Cyclic Voltammetry
File: c:/users/guazh/data/banditlqround7_x0exp518_r20/2025-03-28-exp1028\exp1028-2025-04-03t08_37_04-arkoh\exp1028_cv_sr_300mvs_efin_-1500mv.bin
Data Source:  Experiment
Instrument Model:  CHI760E
Header: CV ran at 300 mVs
Note: 

Init E (V) = -1
High E (V) = -1
Low E (V) = -1.5
Final E (V) = -1
Init P/N = N
Scan Rate (V/s) = 0.3
Segment = 3
Sample Interval (V) = 0.001
Quiet Time (sec) = 2
Sensitivity (A/V) = 0.01
Comp R (ohm) = 1.7

Results:

Channel 1:
Segment 1:

Segment 2:

Segment 3:

Potential/V, Current/A

-1.000, 2.482e-5
-1.001, 1.266e-4
-1.002, 2.006e-4
-1.003, 2.499e-4
-1.004, 2.807e-4
-1.005, 3.054e-4
-1.006, 3.270e-4
-1.007, 3.455e-4
-1.008, 3.547e-4
-1.009, 3.609e-4
-1.010, 3.640e-4
-1.011, 3.732e-4
-1.012, 3.825e-4
-1.013, 3.855e-4
-1.014, 3.855e-4
-1.015, 3.855e-4
-1.016, 3.917e-4
-1.017, 3.979e-4
-1.018, 3.979e-4
-1.019, 3.948e-4
-1.020, 3.948e-4
-1.021, 4.010e-4
-1.022, 4.071e-4
-1.023, 4.040e-4
-1.024, 4.040e-4
-1.025, 4.040e-4
-1.026, 4.071e-4
-1.027, 4.133e-4
-1.028, 4.133e-4
-1.029, 4.102e-4
-1.030, 4.102e-4
-1.031, 4.133e-4
-1.032, 4.164e-4
-1.033, 4.164e-4
-1.034, 4.102e-4
-1.035, 4.071e-4
-1.036, 4.133e-4
-1.037, 4.164e-4
-1.038, 4.164e-4
-1.039, 4.133e-4
-1.040, 4.133e-4
-1.041, 4.164e-4
-1.042, 4.195e-4
-1.043, 4.195e-4
-1.044, 4.164e-4
-1.045, 4.133e-4
-1.046, 4.164e-4
-1.047, 4.225e-4
-1.048, 4.225e-4
-1.049, 4.195e-4
-1.050, 4.195e-4
-1.051, 4.225e-4
-1.052, 4.256e-4
-1.053, 4.225e-4
-1.054, 4.225e-4
-1.055, 4.195e-4
-1.056, 4.225e-4
-1.057, 4.256e-4
-1.058, 4.256e-4
-1.059, 4.195e-4
-1.060, 4.195e-4
-1.061, 4.225e-4
-1.062, 4.256e-4
-1.063, 4.256e-4
-1.064, 4.225e-4
-1.065, 4.225e-4
-1.066, 4.256e-4
-1.067, 4.318e-4
-1.068, 4.287e-4
-1.069, 4.256e-4
-1.070, 4.225e-4
-1.071, 4.256e-4
-1.072, 4.287e-4
-1.073, 4.287e-4
-1.074, 4.256e-4
-1.075, 4.256e-4
-1.076, 4.287e-4
-1.077, 4.287e-4
-1.078, 4.256e-4
-1.079, 4.225e-4
-1.080, 4.225e-4
-1.081, 4.256e-4
-1.082, 4.287e-4
-1.083, 4.287e-4
-1.084, 4.256e-4
-1.085, 4.256e-4
-1.086, 4.287e-4
-1.087, 4.349e-4
-1.088, 4.318e-4
-1.089, 4.287e-4
-1.090, 4.256e-4
-1.091, 4.287e-4
-1.092, 4.318e-4
-1.093, 4.287e-4
-1.094, 4.256e-4
-1.095, 4.256e-4
-1.096, 4.256e-4
-1.097, 4.318e-4
-1.098, 4.318e-4
-1.099, 4.287e-4
-1.100, 4.287e-4
-1.101, 4.349e-4
-1.102, 4.380e-4
-1.103, 4.380e-4
-1.104, 4.318e-4
-1.105, 4.287e-4
-1.106, 4.318e-4
-1.107, 4.349e-4
-1.108, 4.349e-4
-1.109, 4.318e-4
-1.110, 4.318e-4
-1.111, 4.318e-4
-1.112, 4.349e-4
-1.113, 4.349e-4
-1.114, 4.287e-4
-1.115, 4.287e-4
-1.116, 4.349e-4
-1.117, 4.380e-4
-1.118, 4.380e-4
-1.119, 4.349e-4
-1.120, 4.349e-4
-1.121, 4.380e-4
-1.122, 4.410e-4
-1.123, 4.380e-4
-1.124, 4.318e-4
-1.125, 4.287e-4
-1.126, 4.349e-4
-1.127, 4.410e-4
-1.128, 4.380e-4
-1.129, 4.349e-4
-1.130, 4.349e-4
-1.131, 4.349e-4
-1.132, 4.410e-4
-1.133, 4.380e-4
-1.134, 4.349e-4
-1.135, 4.349e-4
-1.136, 4.380e-4
-1.137, 4.441e-4
-1.138, 4.410e-4
-1.139, 4.380e-4
-1.140, 4.349e-4
-1.141, 4.380e-4
-1.142, 4.410e-4
-1.143, 4.410e-4
-1.144, 4.410e-4
-1.145, 4.410e-4
-1.146, 4.441e-4
-1.147, 4.472e-4
-1.148, 4.472e-4
-1.149, 4.441e-4
-1.150, 4.441e-4
-1.151, 4.472e-4
-1.152, 4.503e-4
-1.153, 4.503e-4
-1.154, 4.441e-4
-1.155, 4.441e-4
-1.156, 4.472e-4
-1.157, 4.503e-4
-1.158, 4.534e-4
-1.159, 4.472e-4
-1.160, 4.472e-4
-1.161, 4.503e-4
-1.162, 4.534e-4
-1.163, 4.534e-4
-1.164, 4.503e-4
-1.165, 4.472e-4
-1.166, 4.472e-4
-1.167, 4.534e-4
-1.168, 4.503e-4
-1.169, 4.503e-4
-1.170, 4.503e-4
-1.171, 4.534e-4
-1.172, 4.595e-4
-1.173, 4.565e-4
-1.174, 4.534e-4
-1.175, 4.534e-4
-1.176, 4.565e-4
-1.177, 4.626e-4
-1.178, 4.657e-4
-1.179, 4.626e-4
-1.180, 4.595e-4
-1.181, 4.626e-4
-1.182, 4.657e-4
-1.183, 4.626e-4
-1.184, 4.595e-4
-1.185, 4.565e-4
-1.186, 4.595e-4
-1.187, 4.657e-4
-1.188, 4.657e-4
-1.189, 4.626e-4
-1.190, 4.626e-4
-1.191, 4.657e-4
-1.192, 4.688e-4
-1.193, 4.688e-4
-1.194, 4.626e-4
-1.195, 4.626e-4
-1.196, 4.688e-4
-1.197, 4.750e-4
-1.198, 4.780e-4
-1.199, 4.750e-4
-1.200, 4.750e-4
-1.201, 4.780e-4
-1.202, 4.811e-4
-1.203, 4.780e-4
-1.204, 4.750e-4
-1.205, 4.719e-4
-1.206, 4.780e-4
-1.207, 4.811e-4
-1.208, 4.811e-4
-1.209, 4.811e-4
-1.210, 4.811e-4
-1.211, 4.842e-4
-1.212, 4.873e-4
-1.213, 4.873e-4
-1.214, 4.842e-4
-1.215, 4.842e-4
-1.216, 4.904e-4
-1.217, 4.965e-4
-1.218, 4.965e-4
-1.219, 4.935e-4
-1.220, 4.935e-4
-1.221, 4.965e-4
-1.222, 5.027e-4
-1.223, 4.996e-4
-1.224, 4.965e-4
-1.225, 4.965e-4
-1.226, 5.027e-4
-1.227, 5.089e-4
-1.228, 5.089e-4
-1.229, 5.120e-4
-1.230, 5.089e-4
-1.231, 5.150e-4
-1.232, 5.181e-4
-1.233, 5.212e-4
-1.234, 5.181e-4
-1.235, 5.181e-4
-1.236, 5.243e-4
-1.237, 5.274e-4
-1.238, 5.274e-4
-1.239, 5.243e-4
-1.240, 5.243e-4
-1.241, 5.335e-4
-1.242, 5.397e-4
-1.243, 5.397e-4
-1.244, 5.366e-4
-1.245, 5.366e-4
-1.246, 5.428e-4
-1.247, 5.520e-4
-1.248, 5.551e-4
-1.249, 5.520e-4
-1.250, 5.551e-4
-1.251, 5.613e-4
-1.252, 5.705e-4
-1.253, 5.705e-4
-1.254, 5.674e-4
-1.255, 5.705e-4
-1.256, 5.736e-4
-1.257, 5.798e-4
-1.258, 5.859e-4
-1.259, 5.829e-4
-1.260, 5.859e-4
-1.261, 5.921e-4
-1.262, 6.014e-4
-1.263, 6.044e-4
-1.264, 6.014e-4
-1.265, 6.044e-4
-1.266, 6.106e-4
-1.267, 6.168e-4
-1.268, 6.199e-4
-1.269, 6.199e-4
-1.270, 6.229e-4
-1.271, 6.322e-4
-1.272, 6.414e-4
-1.273, 6.476e-4
-1.274, 6.476e-4
-1.275, 6.507e-4
-1.276, 6.599e-4
-1.277, 6.692e-4
-1.278, 6.723e-4
-1.279, 6.723e-4
-1.280, 6.784e-4
-1.281, 6.877e-4
-1.282, 6.969e-4
-1.283, 7.000e-4
-1.284, 7.031e-4
-1.285, 7.093e-4
-1.286, 7.154e-4
-1.287, 7.247e-4
-1.288, 7.309e-4
-1.289, 7.339e-4
-1.290, 7.401e-4
-1.291, 7.524e-4
-1.292, 7.617e-4
-1.293, 7.679e-4
-1.294, 7.709e-4
-1.295, 7.771e-4
-1.296, 7.863e-4
-1.297, 8.018e-4
-1.298, 8.079e-4
-1.299, 8.141e-4
-1.300, 8.233e-4
-1.301, 8.357e-4
-1.302, 8.480e-4
-1.303, 8.573e-4
-1.304, 8.603e-4
-1.305, 8.665e-4
-1.306, 8.788e-4
-1.307, 8.912e-4
-1.308, 9.004e-4
-1.309, 9.066e-4
-1.310, 9.189e-4
-1.311, 9.374e-4
-1.312, 9.528e-4
-1.313, 9.652e-4
-1.314, 9.713e-4
-1.315, 9.837e-4
-1.316, 9.960e-4
-1.317, 1.011e-3
-1.318, 1.024e-3
-1.319, 1.033e-3
-1.320, 1.045e-3
-1.321, 1.064e-3
-1.322, 1.082e-3
-1.323, 1.092e-3
-1.324, 1.101e-3
-1.325, 1.107e-3
-1.326, 1.125e-3
-1.327, 1.141e-3
-1.328, 1.156e-3
-1.329, 1.169e-3
-1.330, 1.184e-3
-1.331, 1.203e-3
-1.332, 1.221e-3
-1.333, 1.233e-3
-1.334, 1.246e-3
-1.335, 1.261e-3
-1.336, 1.283e-3
-1.337, 1.307e-3
-1.338, 1.326e-3
-1.339, 1.341e-3
-1.340, 1.363e-3
-1.341, 1.384e-3
-1.342, 1.409e-3
-1.343, 1.428e-3
-1.344, 1.440e-3
-1.345, 1.458e-3
-1.346, 1.480e-3
-1.347, 1.502e-3
-1.348, 1.523e-3
-1.349, 1.536e-3
-1.350, 1.551e-3
-1.351, 1.573e-3
-1.352, 1.594e-3
-1.353, 1.619e-3
-1.354, 1.647e-3
-1.355, 1.674e-3
-1.356, 1.702e-3
-1.357, 1.733e-3
-1.358, 1.758e-3
-1.359, 1.776e-3
-1.360, 1.798e-3
-1.361, 1.825e-3
-1.362, 1.850e-3
-1.363, 1.875e-3
-1.364, 1.899e-3
-1.365, 1.924e-3
-1.366, 1.958e-3
-1.367, 1.989e-3
-1.368, 2.017e-3
-1.369, 2.044e-3
-1.370, 2.075e-3
-1.371, 2.112e-3
-1.372, 2.149e-3
-1.373, 2.177e-3
-1.374, 2.201e-3
-1.375, 2.232e-3
-1.376, 2.263e-3
-1.377, 2.294e-3
-1.378, 2.322e-3
-1.379, 2.349e-3
-1.380, 2.374e-3
-1.381, 2.405e-3
-1.382, 2.442e-3
-1.383, 2.476e-3
-1.384, 2.510e-3
-1.385, 2.547e-3
-1.386, 2.590e-3
-1.387, 2.633e-3
-1.388, 2.670e-3
-1.389, 2.701e-3
-1.390, 2.732e-3
-1.391, 2.769e-3
-1.392, 2.809e-3
-1.393, 2.852e-3
-1.394, 2.886e-3
-1.395, 2.920e-3
-1.396, 2.960e-3
-1.397, 3.000e-3
-1.398, 3.037e-3
-1.399, 3.074e-3
-1.400, 3.114e-3
-1.401, 3.157e-3
-1.402, 3.197e-3
-1.403, 3.237e-3
-1.404, 3.271e-3
-1.405, 3.305e-3
-1.406, 3.348e-3
-1.407, 3.392e-3
-1.408, 3.438e-3
-1.409, 3.484e-3
-1.410, 3.533e-3
-1.411, 3.583e-3
-1.412, 3.641e-3
-1.413, 3.691e-3
-1.414, 3.737e-3
-1.415, 3.789e-3
-1.416, 3.839e-3
-1.417, 3.879e-3
-1.418, 3.916e-3
-1.419, 3.947e-3
-1.420, 3.980e-3
-1.421, 4.024e-3
-1.422, 4.082e-3
-1.423, 4.141e-3
-1.424, 4.190e-3
-1.425, 4.249e-3
-1.426, 4.307e-3
-1.427, 4.363e-3
-1.428, 4.406e-3
-1.429, 4.446e-3
-1.430, 4.489e-3
-1.431, 4.535e-3
-1.432, 4.582e-3
-1.433, 4.640e-3
-1.434, 4.696e-3
-1.435, 4.748e-3
-1.436, 4.797e-3
-1.437, 4.853e-3
-1.438, 4.905e-3
-1.439, 4.952e-3
-1.440, 5.001e-3
-1.441, 5.056e-3
-1.442, 5.106e-3
-1.443, 5.149e-3
-1.444, 5.195e-3
-1.445, 5.251e-3
-1.446, 5.322e-3
-1.447, 5.393e-3
-1.448, 5.451e-3
-1.449, 5.507e-3
-1.450, 5.565e-3
-1.451, 5.621e-3
-1.452, 5.685e-3
-1.453, 5.747e-3
-1.454, 5.803e-3
-1.455, 5.852e-3
-1.456, 5.917e-3
-1.457, 5.981e-3
-1.458, 6.031e-3
-1.459, 6.074e-3
-1.460, 6.117e-3
-1.461, 6.166e-3
-1.462, 6.216e-3
-1.463, 6.274e-3
-1.464, 6.354e-3
-1.465, 6.432e-3
-1.466, 6.499e-3
-1.467, 6.564e-3
-1.468, 6.620e-3
-1.469, 6.678e-3
-1.470, 6.746e-3
-1.471, 6.829e-3
-1.472, 6.906e-3
-1.473, 6.977e-3
-1.474, 7.051e-3
-1.475, 7.147e-3
-1.476, 7.233e-3
-1.477, 7.298e-3
-1.478, 7.341e-3
-1.479, 7.390e-3
-1.480, 7.427e-3
-1.481, 7.477e-3
-1.482, 7.535e-3
-1.483, 7.600e-3
-1.484, 7.668e-3
-1.485, 7.730e-3
-1.486, 7.810e-3
-1.487, 7.890e-3
-1.488, 7.951e-3
-1.489, 7.998e-3
-1.490, 8.044e-3
-1.491, 8.096e-3
-1.492, 8.161e-3
-1.493, 8.232e-3
-1.494, 8.303e-3
-1.495, 8.380e-3
-1.496, 8.451e-3
-1.497, 8.513e-3
-1.498, 8.574e-3
-1.499, 8.633e-3
-1.500, 8.614e-3
-1.499, 8.479e-3
-1.498, 8.386e-3
-1.497, 8.297e-3
-1.496, 8.201e-3
-1.495, 8.099e-3
-1.494, 8.001e-3
-1.493, 7.902e-3
-1.492, 7.819e-3
-1.491, 7.751e-3
-1.490, 7.668e-3
-1.489, 7.569e-3
-1.488, 7.492e-3
-1.487, 7.400e-3
-1.486, 7.301e-3
-1.485, 7.227e-3
-1.484, 7.171e-3
-1.483, 7.104e-3
-1.482, 7.027e-3
-1.481, 6.937e-3
-1.480, 6.832e-3
-1.479, 6.749e-3
-1.478, 6.681e-3
-1.477, 6.620e-3
-1.476, 6.555e-3
-1.475, 6.499e-3
-1.474, 6.425e-3
-1.473, 6.351e-3
-1.472, 6.271e-3
-1.471, 6.191e-3
-1.470, 6.120e-3
-1.469, 6.046e-3
-1.468, 5.978e-3
-1.467, 5.917e-3
-1.466, 5.849e-3
-1.465, 5.781e-3
-1.464, 5.719e-3
-1.463, 5.658e-3
-1.462, 5.584e-3
-1.461, 5.504e-3
-1.460, 5.426e-3
-1.459, 5.371e-3
-1.458, 5.315e-3
-1.457, 5.254e-3
-1.456, 5.192e-3
-1.455, 5.124e-3
-1.454, 5.044e-3
-1.453, 4.964e-3
-1.452, 4.878e-3
-1.451, 4.788e-3
-1.450, 4.720e-3
-1.449, 4.668e-3
-1.448, 4.622e-3
-1.447, 4.575e-3
-1.446, 4.523e-3
-1.445, 4.464e-3
-1.444, 4.403e-3
-1.443, 4.338e-3
-1.442, 4.267e-3
-1.441, 4.202e-3
-1.440, 4.147e-3
-1.439, 4.095e-3
-1.438, 4.033e-3
-1.437, 3.965e-3
-1.436, 3.897e-3
-1.435, 3.839e-3
-1.434, 3.780e-3
-1.433, 3.731e-3
-1.432, 3.684e-3
-1.431, 3.629e-3
-1.430, 3.573e-3
-1.429, 3.530e-3
-1.428, 3.481e-3
-1.427, 3.419e-3
-1.426, 3.355e-3
-1.425, 3.302e-3
-1.424, 3.259e-3
-1.423, 3.225e-3
-1.422, 3.191e-3
-1.421, 3.145e-3
-1.420, 3.099e-3
-1.419, 3.052e-3
-1.418, 3.009e-3
-1.417, 2.963e-3
-1.416, 2.917e-3
-1.415, 2.867e-3
-1.414, 2.818e-3
-1.413, 2.772e-3
-1.412, 2.719e-3
-1.411, 2.664e-3
-1.410, 2.612e-3
-1.409, 2.565e-3
-1.408, 2.525e-3
-1.407, 2.482e-3
-1.406, 2.436e-3
-1.405, 2.396e-3
-1.404, 2.365e-3
-1.403, 2.334e-3
-1.402, 2.288e-3
-1.401, 2.238e-3
-1.400, 2.198e-3
-1.399, 2.164e-3
-1.398, 2.131e-3
-1.397, 2.094e-3
-1.396, 2.050e-3
-1.395, 2.010e-3
-1.394, 1.973e-3
-1.393, 1.939e-3
-1.392, 1.899e-3
-1.391, 1.853e-3
-1.390, 1.813e-3
-1.389, 1.779e-3
-1.388, 1.745e-3
-1.387, 1.705e-3
-1.386, 1.662e-3
-1.385, 1.622e-3
-1.384, 1.594e-3
-1.383, 1.566e-3
-1.382, 1.539e-3
-1.381, 1.505e-3
-1.380, 1.468e-3
-1.379, 1.440e-3
-1.378, 1.409e-3
-1.377, 1.375e-3
-1.376, 1.341e-3
-1.375, 1.304e-3
-1.374, 1.280e-3
-1.373, 1.252e-3
-1.372, 1.224e-3
-1.371, 1.190e-3
-1.370, 1.156e-3
-1.369, 1.129e-3
-1.368, 1.107e-3
-1.367, 1.076e-3
-1.366, 1.045e-3
-1.365, 1.021e-3
-1.364, 1.002e-3
-1.363, 9.806e-4
-1.362, 9.528e-4
-1.361, 9.220e-4
-1.360, 8.943e-4
-1.359, 8.758e-4
-1.358, 8.573e-4
-1.357, 8.357e-4
-1.356, 8.048e-4
-1.355, 7.833e-4
-1.354, 7.617e-4
-1.353, 7.432e-4
-1.352, 7.185e-4
-1.351, 6.908e-4
-1.350, 6.692e-4
-1.349, 6.507e-4
-1.348, 6.322e-4
-1.347, 6.106e-4
-1.346, 5.859e-4
-1.345, 5.613e-4
-1.344, 5.428e-4
-1.343, 5.243e-4
-1.342, 5.027e-4
-1.341, 4.811e-4
-1.340, 4.595e-4
-1.339, 4.441e-4
-1.338, 4.318e-4
-1.337, 4.102e-4
-1.336, 3.886e-4
-1.335, 3.670e-4
-1.334, 3.547e-4
-1.333, 3.393e-4
-1.332, 3.208e-4
-1.331, 3.023e-4
-1.330, 2.838e-4
-1.329, 2.715e-4
-1.328, 2.591e-4
-1.327, 2.406e-4
-1.326, 2.221e-4
-1.325, 2.036e-4
-1.324, 1.913e-4
-1.323, 1.821e-4
-1.322, 1.666e-4
-1.321, 1.512e-4
-1.320, 1.358e-4
-1.319, 1.235e-4
-1.318, 1.142e-4
-1.317, 9.882e-5
-1.316, 8.340e-5
-1.315, 6.798e-5
-1.314, 5.873e-5
-1.313, 4.949e-5
-1.312, 3.715e-5
-1.311, 2.174e-5
-1.310, 6.322e-6
-1.309, -2.927e-6
-1.308, -9.093e-6
-1.307, -2.143e-5
-1.306, -3.684e-5
-1.305, -4.917e-5
-1.304, -5.534e-5
-1.303, -6.151e-5
-1.302, -7.384e-5
-1.301, -8.925e-5
-1.300, -9.850e-5
-1.299, -1.047e-4
-1.298, -1.108e-4
-1.297, -1.232e-4
-1.296, -1.355e-4
-1.295, -1.448e-4
-1.294, -1.509e-4
-1.293, -1.571e-4
-1.292, -1.663e-4
-1.291, -1.787e-4
-1.290, -1.879e-4
-1.289, -1.910e-4
-1.288, -1.941e-4
-1.287, -2.033e-4
-1.286, -2.157e-4
-1.285, -2.249e-4
-1.284, -2.311e-4
-1.283, -2.342e-4
-1.282, -2.434e-4
-1.281, -2.527e-4
-1.280, -2.619e-4
-1.279, -2.650e-4
-1.278, -2.650e-4
-1.277, -2.712e-4
-1.276, -2.835e-4
-1.275, -2.897e-4
-1.274, -2.927e-4
-1.273, -2.958e-4
-1.272, -3.020e-4
-1.271, -3.112e-4
-1.270, -3.174e-4
-1.269, -3.205e-4
-1.268, -3.236e-4
-1.267, -3.267e-4
-1.266, -3.359e-4
-1.265, -3.421e-4
-1.264, -3.452e-4
-1.263, -3.452e-4
-1.262, -3.513e-4
-1.261, -3.606e-4
-1.260, -3.667e-4
-1.259, -3.667e-4
-1.258, -3.667e-4
-1.257, -3.698e-4
-1.256, -3.760e-4
-1.255, -3.821e-4
-1.254, -3.821e-4
-1.253, -3.821e-4
-1.252, -3.852e-4
-1.251, -3.914e-4
-1.250, -3.976e-4
-1.249, -3.976e-4
-1.248, -3.976e-4
-1.247, -4.037e-4
-1.246, -4.099e-4
-1.245, -4.161e-4
-1.244, -4.161e-4
-1.243, -4.161e-4
-1.242, -4.191e-4
-1.241, -4.253e-4
-1.240, -4.284e-4
-1.239, -4.253e-4
-1.238, -4.253e-4
-1.237, -4.284e-4
-1.236, -4.376e-4
-1.235, -4.407e-4
-1.234, -4.407e-4
-1.233, -4.407e-4
-1.232, -4.407e-4
-1.231, -4.469e-4
-1.230, -4.469e-4
-1.229, -4.500e-4
-1.228, -4.469e-4
-1.227, -4.500e-4
-1.226, -4.561e-4
-1.225, -4.592e-4
-1.224, -4.592e-4
-1.223, -4.592e-4
-1.222, -4.623e-4
-1.221, -4.654e-4
-1.220, -4.654e-4
-1.219, -4.654e-4
-1.218, -4.592e-4
-1.217, -4.623e-4
-1.216, -4.654e-4
-1.215, -4.685e-4
-1.214, -4.685e-4
-1.213, -4.654e-4
-1.212, -4.685e-4
-1.211, -4.746e-4
-1.210, -4.777e-4
-1.209, -4.777e-4
-1.208, -4.716e-4
-1.207, -4.746e-4
-1.206, -4.808e-4
-1.205, -4.839e-4
-1.204, -4.808e-4
-1.203, -4.746e-4
-1.202, -4.777e-4
-1.201, -4.808e-4
-1.200, -4.839e-4
-1.199, -4.839e-4
-1.198, -4.808e-4
-1.197, -4.808e-4
-1.196, -4.870e-4
-1.195, -4.870e-4
-1.194, -4.870e-4
-1.193, -4.839e-4
-1.192, -4.870e-4
-1.191, -4.901e-4
-1.190, -4.962e-4
-1.189, -4.931e-4
-1.188, -4.901e-4
-1.187, -4.901e-4
-1.186, -4.962e-4
-1.185, -4.993e-4
-1.184, -4.931e-4
-1.183, -4.870e-4
-1.182, -4.870e-4
-1.181, -4.931e-4
-1.180, -4.962e-4
-1.179, -4.931e-4
-1.178, -4.901e-4
-1.177, -4.901e-4
-1.176, -4.931e-4
-1.175, -4.962e-4
-1.174, -4.931e-4
-1.173, -4.901e-4
-1.172, -4.901e-4
-1.171, -4.962e-4
-1.170, -4.993e-4
-1.169, -4.962e-4
-1.168, -4.931e-4
-1.167, -4.962e-4
-1.166, -4.993e-4
-1.165, -5.024e-4
-1.164, -4.993e-4
-1.163, -4.931e-4
-1.162, -4.931e-4
-1.161, -4.962e-4
-1.160, -4.993e-4
-1.159, -4.962e-4
-1.158, -4.931e-4
-1.157, -4.962e-4
-1.156, -4.993e-4
-1.155, -5.024e-4
-1.154, -4.993e-4
-1.153, -4.962e-4
-1.152, -4.993e-4
-1.151, -5.055e-4
-1.150, -5.086e-4
-1.149, -5.055e-4
-1.148, -5.024e-4
-1.147, -5.024e-4
-1.146, -5.055e-4
-1.145, -5.055e-4
-1.144, -5.024e-4
-1.143, -4.993e-4
-1.142, -4.993e-4
-1.141, -5.055e-4
-1.140, -5.055e-4
-1.139, -5.024e-4
-1.138, -4.993e-4
-1.137, -4.962e-4
-1.136, -4.993e-4
-1.135, -5.024e-4
-1.134, -4.993e-4
-1.133, -4.962e-4
-1.132, -4.993e-4
-1.131, -5.024e-4
-1.130, -5.055e-4
-1.129, -5.024e-4
-1.128, -4.993e-4
-1.127, -5.024e-4
-1.126, -5.086e-4
-1.125, -5.116e-4
-1.124, -5.086e-4
-1.123, -5.086e-4
-1.122, -5.086e-4
-1.121, -5.116e-4
-1.120, -5.116e-4
-1.119, -5.086e-4
-1.118, -5.024e-4
-1.117, -5.024e-4
-1.116, -5.086e-4
-1.115, -5.086e-4
-1.114, -5.055e-4
-1.113, -5.024e-4
-1.112, -5.024e-4
-1.111, -5.086e-4
-1.110, -5.086e-4
-1.109, -5.055e-4
-1.108, -5.024e-4
-1.107, -5.024e-4
-1.106, -5.086e-4
-1.105, -5.116e-4
-1.104, -5.086e-4
-1.103, -5.055e-4
-1.102, -5.086e-4
-1.101, -5.116e-4
-1.100, -5.147e-4
-1.099, -5.116e-4
-1.098, -5.086e-4
-1.097, -5.116e-4
-1.096, -5.147e-4
-1.095, -5.178e-4
-1.094, -5.147e-4
-1.093, -5.086e-4
-1.092, -5.116e-4
-1.091, -5.178e-4
-1.090, -5.178e-4
-1.089, -5.147e-4
-1.088, -5.086e-4
-1.087, -5.116e-4
-1.086, -5.178e-4
-1.085, -5.178e-4
-1.084, -5.178e-4
-1.083, -5.116e-4
-1.082, -5.147e-4
-1.081, -5.178e-4
-1.080, -5.209e-4
-1.079, -5.209e-4
-1.078, -5.147e-4
-1.077, -5.147e-4
-1.076, -5.178e-4
-1.075, -5.209e-4
-1.074, -5.178e-4
-1.073, -5.147e-4
-1.072, -5.147e-4
-1.071, -5.209e-4
-1.070, -5.240e-4
-1.069, -5.240e-4
-1.068, -5.178e-4
-1.067, -5.209e-4
-1.066, -5.240e-4
-1.065, -5.240e-4
-1.064, -5.209e-4
-1.063, -5.178e-4
-1.062, -5.209e-4
-1.061, -5.271e-4
-1.060, -5.271e-4
-1.059, -5.240e-4
-1.058, -5.209e-4
-1.057, -5.209e-4
-1.056, -5.271e-4
-1.055, -5.301e-4
-1.054, -5.301e-4
-1.053, -5.271e-4
-1.052, -5.301e-4
-1.051, -5.332e-4
-1.050, -5.363e-4
-1.049, -5.363e-4
-1.048, -5.301e-4
-1.047, -5.332e-4
-1.046, -5.363e-4
-1.045, -5.394e-4
-1.044, -5.363e-4
-1.043, -5.301e-4
-1.042, -5.332e-4
-1.041, -5.394e-4
-1.040, -5.425e-4
-1.039, -5.425e-4
-1.038, -5.394e-4
-1.037, -5.394e-4
-1.036, -5.425e-4
-1.035, -5.456e-4
-1.034, -5.456e-4
-1.033, -5.425e-4
-1.032, -5.425e-4
-1.031, -5.456e-4
-1.030, -5.486e-4
-1.029, -5.486e-4
-1.028, -5.456e-4
-1.027, -5.486e-4
-1.026, -5.548e-4
-1.025, -5.579e-4
-1.024, -5.548e-4
-1.023, -5.517e-4
-1.022, -5.548e-4
-1.021, -5.579e-4
-1.020, -5.610e-4
-1.019, -5.610e-4
-1.018, -5.579e-4
-1.017, -5.610e-4
-1.016, -5.671e-4
-1.015, -5.733e-4
-1.014, -5.702e-4
-1.013, -5.671e-4
-1.012, -5.671e-4
-1.011, -5.702e-4
-1.010, -5.702e-4
-1.009, -5.702e-4
-1.008, -5.671e-4
-1.007, -5.702e-4
-1.006, -5.795e-4
-1.005, -5.826e-4
-1.004, -5.826e-4
-1.003, -5.826e-4
-1.002, -5.826e-4
-1.001, -5.887e-4
