Potential V vs RHE, Current mA cm-2
0.013299999999999867,-0.3947044526623452
0.012299999999999978,-2.1390434853959355
0.011299999999999866,-3.579219588658543
0.010299999999999976,-4.843971490737885
0.009299999999999864,-5.890857852638012
0.008299999999999974,-6.806176063650692
0.007299999999999862,-7.591340835075788
0.006299999999999972,-8.246352166913299
0.00529999999999986,-8.812236686859313
0.0042999999999999705,-9.293238528813426
0.0032999999999998586,-9.685113558876042
0.0022999999999999687,-10.034547249942705
0.0012999999999998568,-10.340124890713554
0.00029999999999996696,-10.644287820184536
-0.000700000000000145,-10.906009410659568
-0.0017000000000000348,-11.1677310011346
-0.0027000000000001467,-11.385596541313816
-0.0037000000000000366,-11.604876792792895
-0.0047000000000001485,-11.778886282676295
-0.005700000000000038,-11.909039722263879
-0.00670000000000015,-12.040607873151327
-0.00770000000000004,-12.12831997374296
-0.008700000000000152,-12.170761312738911
-0.009700000000000042,-12.302329463626359
-0.010700000000000154,-12.390041564217992
-0.011700000000000044,-12.476338953509758
-0.012700000000000156,-12.607907104397206
-0.013700000000000045,-12.694204493688973
-0.014700000000000157,-12.781916594280606
-0.015700000000000047,-12.825772644576423
-0.01670000000000016,-12.913484745168056
-0.01770000000000005,-12.913484745168056
-0.01870000000000016,-12.913484745168056
-0.01970000000000005,-12.955926084164007
-0.020700000000000163,-12.955926084164007
-0.021700000000000053,-12.955926084164007
-0.022700000000000164,-12.99978213445982
-0.023700000000000054,-13.043638184755638
-0.024700000000000166,-13.087494235051453
-0.025700000000000056,-13.13135028534727
-0.026700000000000168,-13.175206335643086
-0.027700000000000058,-13.217647674639037
-0.02870000000000017,-13.217647674639037
-0.02970000000000006,-13.261503724934855
-0.03070000000000017,-13.261503724934855
-0.03170000000000006,-13.217647674639037
-0.03270000000000017,-13.175206335643086
-0.03370000000000006,-13.13135028534727
-0.034700000000000175,-13.13135028534727
-0.035700000000000065,-13.175206335643086
-0.03670000000000018,-13.175206335643086
-0.03770000000000007,-13.175206335643086
-0.03870000000000018,-13.217647674639037
-0.03970000000000007,-13.217647674639037
-0.04070000000000018,-13.175206335643086
-0.04170000000000007,-13.175206335643086
-0.04270000000000018,-13.175206335643086
-0.04370000000000007,-13.13135028534727
-0.044700000000000184,-13.13135028534727
-0.045700000000000074,-13.13135028534727
-0.046700000000000186,-13.13135028534727
-0.047700000000000076,-13.13135028534727
-0.04870000000000019,-13.175206335643086
-0.04970000000000008,-13.217647674639037
-0.05070000000000019,-13.261503724934855
-0.05170000000000008,-13.30535977523067
-0.05270000000000019,-13.30535977523067
-0.05370000000000008,-13.30535977523067
-0.05470000000000019,-13.30535977523067
-0.05570000000000008,-13.261503724934855
-0.056700000000000195,-13.30535977523067
-0.057700000000000085,-13.349215825526485
-0.058700000000000196,-13.349215825526485
-0.059700000000000086,-13.436927926118118
-0.0607000000000002,-13.47936926511407
-0.06170000000000009,-13.567081365705702
-0.0627000000000002,-13.610937416001518
-0.06370000000000009,-13.610937416001518
-0.0647000000000002,-13.610937416001518
-0.06570000000000009,-13.567081365705702
-0.0667000000000002,-13.567081365705702
-0.0677000000000001,-13.523225315409885
-0.0687000000000002,-13.47936926511407
-0.0697000000000001,-13.47936926511407
-0.07070000000000021,-13.523225315409885
-0.0717000000000001,-13.523225315409885
-0.07270000000000021,-13.523225315409885
-0.0737000000000001,-13.567081365705702
-0.07470000000000021,-13.567081365705702
-0.0757000000000001,-13.567081365705702
-0.07670000000000021,-13.523225315409885
-0.0777000000000001,-13.523225315409885
-0.07870000000000021,-13.47936926511407
-0.0797000000000001,-13.436927926118118
-0.08070000000000022,-13.436927926118118
-0.0817000000000001,-13.436927926118118
-0.08270000000000022,-13.47936926511407
-0.08370000000000011,-13.523225315409885
-0.08470000000000022,-13.567081365705702
-0.08570000000000011,-13.567081365705702
-0.08670000000000022,-13.567081365705702
-0.08770000000000011,-13.523225315409885
-0.08870000000000022,-13.523225315409885
-0.08970000000000011,-13.47936926511407
-0.09070000000000022,-13.47936926511407
-0.09170000000000011,-13.47936926511407
-0.09270000000000023,-13.436927926118118
-0.09370000000000012,-13.47936926511407
-0.09470000000000023,-13.47936926511407
-0.09570000000000012,-13.523225315409885
-0.09670000000000023,-13.567081365705702
-0.09770000000000012,-13.610937416001518
-0.09870000000000023,-13.610937416001518
-0.09970000000000012,-13.610937416001518
-0.10070000000000023,-13.567081365705702
-0.10170000000000012,-13.567081365705702
-0.10270000000000024,-13.567081365705702
-0.10370000000000013,-13.567081365705702
-0.10470000000000024,-13.567081365705702
-0.10570000000000013,-13.610937416001518
-0.10670000000000024,-13.654793466297335
-0.10770000000000013,-13.698649516593148
-0.10870000000000024,-13.741090855589102
-0.10970000000000013,-13.741090855589102
-0.11070000000000024,-13.784946905884919
-0.11170000000000013,-13.741090855589102
-0.11270000000000002,-13.741090855589102
-0.11370000000000013,-13.698649516593148
-0.11470000000000002,-13.654793466297335
-0.11570000000000014,-13.654793466297335
-0.11670000000000003,-13.698649516593148
-0.11770000000000014,-13.698649516593148
-0.11870000000000003,-13.741090855589102
-0.11970000000000014,-13.784946905884919
-0.12070000000000003,-13.784946905884919
-0.12170000000000014,-13.784946905884919
-0.12270000000000003,-13.784946905884919
-0.12370000000000014,-13.784946905884919
-0.12470000000000003,-13.741090855589102
-0.12570000000000014,-13.741090855589102
-0.12670000000000003,-13.741090855589102
-0.12770000000000015,-13.698649516593148
-0.12870000000000004,-13.741090855589102
-0.12970000000000015,-13.784946905884919
-0.13070000000000004,-13.828802956180734
-0.13170000000000015,-13.872659006476551
-0.13270000000000004,-13.872659006476551
-0.13370000000000015,-13.916515056772363
-0.13470000000000004,-13.916515056772363
-0.13570000000000015,-13.916515056772363
-0.13670000000000004,-13.872659006476551
-0.13770000000000016,-13.872659006476551
-0.13870000000000005,-13.872659006476551
-0.13970000000000016,-13.916515056772363
-0.14070000000000005,-13.916515056772363
-0.14170000000000016,-13.960371107068182
-0.14270000000000005,-14.002812446064135
-0.14370000000000016,-14.002812446064135
-0.14470000000000005,-14.046668496359947
-0.14570000000000016,-14.046668496359947
-0.14670000000000005,-14.002812446064135
-0.14770000000000016,-14.002812446064135
-0.14870000000000005,-14.002812446064135
-0.14970000000000017,-14.002812446064135
-0.15070000000000006,-14.002812446064135
-0.15170000000000017,-14.002812446064135
-0.15270000000000006,-14.090524546655764
-0.15370000000000017,-14.13438059695158
-0.15470000000000006,-14.175407224647667
-0.15570000000000017,-14.175407224647667
-0.15670000000000006,-14.217848563643619
-0.15770000000000017,-14.175407224647667
-0.15870000000000006,-14.175407224647667
-0.15970000000000018,-14.13438059695158
-0.16070000000000007,-14.13438059695158
-0.16170000000000018,-14.13438059695158
-0.16270000000000007,-14.13438059695158
-0.16370000000000018,-14.175407224647667
-0.16470000000000007,-14.175407224647667
-0.16570000000000018,-14.217848563643619
-0.16670000000000007,-14.26028990263957
-0.16770000000000018,-14.26028990263957
-0.16870000000000007,-14.30273124163552
-0.16970000000000018,-14.30273124163552
-0.17070000000000007,-14.26028990263957
-0.17170000000000019,-14.26028990263957
-0.17270000000000008,-14.217848563643619
-0.1737000000000002,-14.217848563643619
-0.17470000000000008,-14.26028990263957
-0.1757000000000002,-14.26028990263957
-0.17670000000000008,-14.30273124163552
-0.1777000000000002,-14.345172580631472
-0.17870000000000008,-14.401761032626075
-0.1797000000000002,-14.401761032626075
-0.18070000000000008,-14.444202371622024
-0.1817000000000002,-14.444202371622024
-0.18270000000000008,-14.486643710617974
-0.1837000000000002,-14.444202371622024
-0.1847000000000001,-14.486643710617974
-0.1857000000000002,-14.486643710617974
-0.1867000000000001,-14.529085049613924
-0.1877000000000002,-14.57152638860988
-0.1887000000000001,-14.61396772760583
-0.1897000000000002,-14.65640906660178
-0.1907000000000001,-14.69885040559773
-0.1917000000000001,-14.741291744593681
-0.19269999999999998,-14.741291744593681
-0.1937000000000001,-14.741291744593681
-0.19469999999999998,-14.69885040559773
-0.1957000000000001,-14.69885040559773
-0.19669999999999999,-14.69885040559773
-0.1977000000000001,-14.69885040559773
-0.1987,-14.741291744593681
-0.1997000000000001,-14.783733083589633
-0.2007,-14.826174422585586
-0.2017000000000001,-14.868615761581536
-0.2027,-14.868615761581536
-0.2037000000000001,-14.925204213576137
-0.2047,-14.925204213576137
-0.2057000000000001,-14.925204213576137
-0.2067,-14.925204213576137
-0.2077000000000001,-14.925204213576137
-0.2087,-14.967645552572087
-0.2097000000000001,-15.01008689156804
-0.2107,-15.094969569559943
-0.2117000000000001,-15.137410908555893
-0.2127,-15.222293586547794
-0.2137000000000001,-15.307176264539699
-0.2147,-15.349617603535648
-0.2157000000000001,-15.448647394526201
-0.2167,-15.448647394526201
-0.21770000000000012,-15.448647394526201
-0.2187,-15.448647394526201
-0.21970000000000012,-15.448647394526201
-0.2207,-15.448647394526201
-0.22170000000000012,-15.491088733522153
-0.2227,-15.533530072518102
-0.22370000000000012,-15.533530072518102
-0.2247,-15.618412750510005
-0.22570000000000012,-15.660854089505953
-0.2267,-15.660854089505953
-0.22770000000000012,-15.70329542850191
-0.22870000000000001,-15.70329542850191
-0.22970000000000013,-15.660854089505953
-0.23070000000000002,-15.70329542850191
-0.23170000000000013,-15.70329542850191
-0.23270000000000002,-15.70329542850191
-0.23370000000000013,-15.78817810649381
-0.23470000000000002,-15.87306078448571
-0.23570000000000013,-15.972090575476265
-0.23670000000000002,-16.056973253468165
-0.2376999999999999,-16.141855931460068
-0.23870000000000002,-16.184297270456018
-0.2396999999999999,-16.22673860945197
-0.24070000000000003,-16.22673860945197
-0.24169999999999991,-16.269179948447924
-0.24270000000000003,-16.269179948447924
-0.24369999999999992,-16.311621287443874
-0.24470000000000003,-16.354062626439823
-0.24569999999999992,-16.438945304431726
-0.24670000000000003,-16.495533756426326
-0.24769999999999992,-16.580416434418233
-0.24870000000000003,-16.70774045140608
-0.24969999999999992,-16.792623129397985
-0.25070000000000003,-16.835064468393938
-0.2516999999999999,-16.962388485381787
-0.25270000000000004,-17.018976937376394
-0.2536999999999999,-17.061418276372343
-0.25470000000000004,-17.146300954364243
-0.2556999999999999,-17.188742293360193
-0.25670000000000004,-17.2736249713521
-0.25769999999999993,-17.358507649344002
-0.25870000000000004,-17.40094898833995
-0.25969999999999993,-17.542420118326454
-0.26070000000000004,-17.584861457322408
-0.26169999999999993,-17.627302796318357
-0.26270000000000004,-17.71218547431026
-0.26369999999999993,-17.75462681330621
-0.26470000000000005,-17.839509491298113
-0.26569999999999994,-17.881950830294063
-0.26670000000000005,-18.009274847281915
-0.26769999999999994,-18.19318731626437
-0.26870000000000005,-18.320511333252224
-0.26969999999999994,-18.49027668923603
-0.27070000000000005,-18.589306480226583
-0.27169999999999994,-18.716630497214435
-0.27270000000000005,-18.843954514202288
-0.27369999999999994,-18.88639585319824
-0.27470000000000006,-18.97127853119014
-0.27569999999999995,-19.01371987018609
-0.27670000000000006,-19.056161209182044
-0.27769999999999995,-19.056161209182044
-0.27870000000000006,-19.155191000172596
-0.27969999999999995,-19.197632339168546
-0.28070000000000006,-19.3249563561564
-0.28169999999999995,-19.409839034148305
-0.28270000000000006,-19.537163051136158
-0.28369999999999995,-19.678634181122664
-0.28470000000000006,-19.805958198110513
-0.28569999999999995,-19.93328221509837
-0.28670000000000007,-20.01816489309027
-0.28769999999999996,-20.159636023076775
-0.28870000000000007,-20.286960040064624
-0.28969999999999996,-20.456725396048434
-0.29070000000000007,-20.584049413036283
-0.29169999999999996,-20.810403221014692
-0.29270000000000007,-20.93772723800254
-0.29369999999999996,-21.107492593986347
-0.2947000000000001,-21.333846401964752
-0.29569999999999996,-21.461170418952605
-0.2967000000000001,-21.58849443594046
-0.29769999999999996,-21.729965565926964
-0.2987000000000001,-21.857289582914817
-0.29969999999999997,-21.94217226090672
-0.3007000000000001,-22.027054938898623
-0.30169999999999997,-22.15437895588647
-0.3027000000000001,-22.295850085872978
-0.30369999999999997,-22.46561544185678
-0.3047000000000001,-22.63538079784059
-0.30569999999999997,-22.861734605818995
-0.3067000000000001,-23.073941300798747
-0.3077,-23.300295108777156
-0.3087000000000001,-23.51250180375691
-0.3097,-23.767149837732617
-0.3107000000000001,-23.993503645711023
-0.3117,-24.20571034069078
-0.3127000000000001,-24.389622809673234
-0.3137,-24.601829504652986
-0.3147000000000001,-24.870624651627345
-0.3157,-25.12527268560305
-0.3167000000000001,-25.39406783257741
-0.3177,-25.60627452755716
-0.3187000000000001,-25.86092256153287
-0.3197,-26.087276369511276
-0.3207000000000001,-26.257041725495082
-0.3217,-26.440954194477534
-0.3227000000000001,-26.61071955046134
-0.3237,-26.822926245441096
-0.3247000000000001,-27.00683871442355
-0.3257,-27.261486748399253
-0.3267000000000001,-27.530281895373616
-0.3277,-27.78492992934932
-0.3287000000000001,-28.09616641531963
-0.3297,-28.350814449295335
-0.3307000000000001,-28.662050935265643
-0.3317,-28.959140308237306
-0.3327000000000001,-29.27037679420761
-0.3337,-29.525024828183312
-0.3347000000000001,-29.836261314153624
-0.3357,-30.10505646112798
-0.3367000000000001,-30.402145834099635
-0.3377,-30.670940981073993
-0.3387000000000001,-30.968030354045652
-0.3397,-31.27926684001596
-0.3407000000000001,-31.57635621298762
-0.3417,-31.930034037953877
-0.3427000000000001,-32.24127052392419
-0.3437,-32.58080123589179
-0.3447000000000001,-32.892037721862096
-0.3457,-33.18912709483376
-0.3467000000000001,-33.54280491980002
-0.3477,-33.85404140577033
-0.3487000000000001,-34.193572117737936
-0.3497,-34.5472499427042
-0.3507000000000001,-34.98581044566235
-0.3517,-35.32534115762997
-0.3527000000000001,-35.763901660588125
-0.3537,-36.16002082455034
-0.3547000000000001,-36.55613998851254
-0.3557,-36.95225915247476
-0.35670000000000013,-37.291789864442364
-0.3577,-37.687909028404576
-0.35870000000000013,-38.04158685337084
-0.3597,-38.42355890433439
-0.36070000000000013,-38.81967806829661
-0.3617,-39.258238571254765
-0.3626999999999999,-39.654357735216976
-0.3637,-40.092918238175145
-0.3646999999999999,-40.559772967130606
-0.3657,-40.95589213109281
-0.3666999999999999,-41.43689397304693
-0.3677,-41.83301313700913
-0.3686999999999999,-42.31401497896325
-0.36970000000000003,-42.79501682091736
-0.3706999999999999,-43.23357732387552
-0.37170000000000003,-43.657990713835034
-0.3726999999999999,-44.138992555789144
-0.37370000000000003,-44.577553058747306
-0.3746999999999999,-45.10099623969737
-0.37570000000000003,-45.581998081651484
-0.3766999999999999,-46.10544126260155
-0.37770000000000004,-46.586443104555656
-0.3786999999999999,-47.10988628550572
-0.37970000000000004,-47.633329466455784
-0.3806999999999999,-48.114331308409895
-0.38170000000000004,-48.59533315036401
-0.38269999999999993,-49.076334992318124
-0.38370000000000004,-49.59977817326819
-0.38469999999999993,-50.12322135421825
-0.38570000000000004,-50.64666453516831
-0.38669999999999993,-51.21254905511432
-0.38770000000000004,-51.82087491405629
-0.38869999999999993,-52.471642111994214
-0.38970000000000005,-53.079967970936174
-0.39069999999999994,-53.68829382987814
-0.39170000000000005,-54.2117370108282
-0.39269999999999994,-54.791768643772876
-0.39370000000000005,-55.357653163718886
-0.39469999999999994,-55.881096344668954
-0.39570000000000005,-56.44698086461496
-0.39669999999999994,-56.97042404556503
-0.39770000000000005,-57.53630856551105
-0.39869999999999994,-58.10219308545706
-0.39970000000000006,-58.66807760540307
-0.40069999999999995,-59.27640346434504
-0.40170000000000006,-59.884729323287
-0.40269999999999995,-60.54964363422357
-0.40370000000000006,-61.20041083216149
-0.40469999999999995,-61.851178030099405
-0.40570000000000006,-62.58682790602922
-0.40669999999999995,-63.37906623395363
-0.40770000000000006,-64.15715744887942
-0.40869999999999995,-64.94939577680383
-0.40970000000000006,-65.7274869917296
-0.41069999999999995,-66.56216665864997
-0.41170000000000007,-67.39684632557035
-0.41269999999999996,-68.17493754049613
-0.41370000000000007,-68.91058741642594
-0.41469999999999996,-69.53306038836655
-0.41570000000000007,-70.22626892530042
-0.41669999999999996,-70.87703612323833
-0.41770000000000007,-71.48536198218031
-0.41869999999999996,-72.15027629311687
-0.4197000000000001,-72.80104349105478
-0.42069999999999996,-73.49425202798865
-0.4217000000000001,-74.24404901691713
-0.42269999999999996,-74.93725755385098
-0.4237000000000001,-75.6729074297808
-0.42469999999999997,-76.42270441870929
-0.4257000000000001,-77.20079563363505
-0.42669999999999997,-77.90815128356756
-0.4277000000000001,-78.64380115949739
-0.42869999999999997,-79.42189237442317
-0.4297000000000001,-80.17168936335163
-0.43069999999999997,-80.99222191727335
-0.4317000000000001,-81.82690158419373
-0.4327,-82.746463929106
-0.4337000000000001,-83.60943782202366
-0.4347,-84.44411748894404
-0.4357000000000001,-85.36367983385631
-0.4367,-86.18421238777805
-0.4377000000000001,-86.93400937670651
-0.4387,-87.71210059163228
-0.4397000000000001,-88.46189758056073
-0.4407,-89.28243013448247
-0.4417000000000001,-90.11710980140283
-0.4427,-90.93764235532454
-0.4437000000000001,-91.81476336124088
-0.4447,-92.6918843671572
-0.4457000000000001,-93.55485826007487
-0.4467,-94.4319792659912
-0.4477000000000001,-95.26665893291157
-0.4487,-96.04475014783733
-0.4497000000000001,-96.79454713676581
-0.4507,-97.53019701269562
-0.4517000000000001,-98.364876679616
-0.4527,-99.18540923353773
-0.4537000000000001,-100.02008890045809
-0.4547,-100.88306279337576
-0.4557000000000001,-101.84506647728399
-0.4567,-102.72218748320032
-0.4577000000000001,-103.64174982811258
-0.4587,-104.58960639902216
-0.4597000000000001,-105.59405142192634
-0.4607,-106.55605510583456
-0.4617000000000001,-107.56050012873874
-0.4627,-108.52250381264696
-0.4637000000000001,-109.4845074965552
-0.4647,-110.4465111804634
-0.4657000000000001,-111.35192641237703
-0.4667,-112.27148875728932
-0.4677000000000001,-113.14860976320564
-0.4687,-114.0115836561233
-0.4697000000000001,-114.97358734003153
-0.4707,-115.97803236293572
-0.4717000000000001,-117.02491872483584
-0.4727,-117.98692240874406
-0.4737000000000001,-118.94892609265229
-0.4747,-119.9109297765605
-0.4757000000000001,-120.81634500847414
-0.4767,-121.77834869238235
-0.4777000000000001,-122.78279371528653
-0.4787,-123.82968007718667
-0.4797000000000001,-124.87656643908679
-0.4807,-126.00833547897882
-0.48170000000000013,-127.09766317987489
-0.4827,-128.18699088077096
-0.48370000000000013,-129.19143590367514
-0.4847,-130.19588092657932
-0.48570000000000013,-131.24276728847948
-0.4867,-130.9456779155078
-0.48570000000000013,-128.54066870573723
-0.4847,-126.5317786599289
-0.48370000000000013,-124.70680108310299
-0.4827,-123.05158886226087
-0.48170000000000013,-121.43881798041474
-0.4807,-119.9109297765605
-0.4797000000000001,-118.46792425069816
-0.4787,-117.02491872483584
-0.4777000000000001,-115.68094298996405
-0.4767,-114.40770282008553
-0.4757000000000001,-113.10616842420968
-0.4747,-111.91781093232305
-0.4737000000000001,-110.74360055343507
-0.4727,-109.56939017454708
-0.4717000000000001,-108.48006247365102
-0.4707,-107.4331761117509
-0.4697000000000001,-106.4287310888467
-0.4687,-105.42428606594254
-0.4677000000000001,-104.41984104303836
