Apr. 7, 2025   15:34:32
Cyclic Voltammetry
File: c:/users/guazh/data/banditlqround7_x0exp994_r5/2025-03-28-exp1010\exp1010-2025-04-07t15_20_17-h2koh\exp1010_cv_sr_300mvs_efin_-1600mv.bin
Data Source:  Experiment
Instrument Model:  CHI760E
Header: CV ran at 300 mVs
Note: 

Init E (V) = -1
High E (V) = -1
Low E (V) = -1.6
Final E (V) = -1
Init P/N = N
Scan Rate (V/s) = 0.3
Segment = 3
Sample Interval (V) = 0.001
Quiet Time (sec) = 2
Sensitivity (A/V) = 0.01
Comp R (ohm) = 2.0

Results:

Channel 1:
Segment 1:
Ep = -1.280V
ip = 8.393e-6A
Ah = 2.304e-6C

Segment 2:

Segment 3:

Potential/V, Current/A

-1.000, 3.239e-6
-1.001, 3.239e-6
-1.002, 3.239e-6
-1.003, 3.239e-6
-1.004, 3.239e-6
-1.005, 3.239e-6
-1.006, 3.239e-6
-1.007, 3.239e-6
-1.008, 3.239e-6
-1.009, 3.239e-6
-1.010, 3.239e-6
-1.011, 3.239e-6
-1.012, 3.239e-6
-1.013, 3.239e-6
-1.014, 3.239e-6
-1.015, 3.239e-6
-1.016, 3.239e-6
-1.017, 3.239e-6
-1.018, 3.239e-6
-1.019, 3.239e-6
-1.020, 3.239e-6
-1.021, 6.322e-6
-1.022, 3.239e-6
-1.023, 3.239e-6
-1.024, 6.322e-6
-1.025, 3.239e-6
-1.026, 3.239e-6
-1.027, 3.239e-6
-1.028, 6.322e-6
-1.029, 6.322e-6
-1.030, 6.322e-6
-1.031, 3.239e-6
-1.032, 3.239e-6
-1.033, 6.322e-6
-1.034, 6.322e-6
-1.035, 6.322e-6
-1.036, 6.322e-6
-1.037, 6.322e-6
-1.038, 6.322e-6
-1.039, 3.239e-6
-1.040, 6.322e-6
-1.041, 6.322e-6
-1.042, 6.322e-6
-1.043, 6.322e-6
-1.044, 6.322e-6
-1.045, 6.322e-6
-1.046, 6.322e-6
-1.047, 6.322e-6
-1.048, 6.322e-6
-1.049, 6.322e-6
-1.050, 6.322e-6
-1.051, 6.322e-6
-1.052, 6.322e-6
-1.053, 6.322e-6
-1.054, 6.322e-6
-1.055, 6.322e-6
-1.056, 6.322e-6
-1.057, 6.322e-6
-1.058, 6.322e-6
-1.059, 6.322e-6
-1.060, 6.322e-6
-1.061, 6.322e-6
-1.062, 6.322e-6
-1.063, 6.322e-6
-1.064, 6.322e-6
-1.065, 6.322e-6
-1.066, 6.322e-6
-1.067, 6.322e-6
-1.068, 9.405e-6
-1.069, 6.322e-6
-1.070, 6.322e-6
-1.071, 6.322e-6
-1.072, 6.322e-6
-1.073, 6.322e-6
-1.074, 6.322e-6
-1.075, 6.322e-6
-1.076, 6.322e-6
-1.077, 6.322e-6
-1.078, 6.322e-6
-1.079, 6.322e-6
-1.080, 6.322e-6
-1.081, 6.322e-6
-1.082, 6.322e-6
-1.083, 6.322e-6
-1.084, 6.322e-6
-1.085, 6.322e-6
-1.086, 6.322e-6
-1.087, 6.322e-6
-1.088, 9.405e-6
-1.089, 6.322e-6
-1.090, 6.322e-6
-1.091, 6.322e-6
-1.092, 6.322e-6
-1.093, 6.322e-6
-1.094, 6.322e-6
-1.095, 6.322e-6
-1.096, 6.322e-6
-1.097, 6.322e-6
-1.098, 6.322e-6
-1.099, 6.322e-6
-1.100, 6.322e-6
-1.101, 6.322e-6
-1.102, 6.322e-6
-1.103, 9.405e-6
-1.104, 9.405e-6
-1.105, 6.322e-6
-1.106, 6.322e-6
-1.107, 6.322e-6
-1.108, 9.405e-6
-1.109, 6.322e-6
-1.110, 9.405e-6
-1.111, 9.405e-6
-1.112, 9.405e-6
-1.113, 9.405e-6
-1.114, 9.405e-6
-1.115, 6.322e-6
-1.116, 9.405e-6
-1.117, 6.322e-6
-1.118, 9.405e-6
-1.119, 9.405e-6
-1.120, 9.405e-6
-1.121, 9.405e-6
-1.122, 9.405e-6
-1.123, 9.405e-6
-1.124, 9.405e-6
-1.125, 6.322e-6
-1.126, 9.405e-6
-1.127, 9.405e-6
-1.128, 9.405e-6
-1.129, 9.405e-6
-1.130, 9.405e-6
-1.131, 9.405e-6
-1.132, 9.405e-6
-1.133, 9.405e-6
-1.134, 9.405e-6
-1.135, 9.405e-6
-1.136, 9.405e-6
-1.137, 9.405e-6
-1.138, 9.405e-6
-1.139, 9.405e-6
-1.140, 9.405e-6
-1.141, 9.405e-6
-1.142, 9.405e-6
-1.143, 9.405e-6
-1.144, 9.405e-6
-1.145, 9.405e-6
-1.146, 9.405e-6
-1.147, 9.405e-6
-1.148, 9.405e-6
-1.149, 9.405e-6
-1.150, 9.405e-6
-1.151, 9.405e-6
-1.152, 9.405e-6
-1.153, 9.405e-6
-1.154, 9.405e-6
-1.155, 9.405e-6
-1.156, 9.405e-6
-1.157, 9.405e-6
-1.158, 9.405e-6
-1.159, 9.405e-6
-1.160, 9.405e-6
-1.161, 9.405e-6
-1.162, 9.405e-6
-1.163, 9.405e-6
-1.164, 9.405e-6
-1.165, 9.405e-6
-1.166, 9.405e-6
-1.167, 9.405e-6
-1.168, 9.405e-6
-1.169, 9.405e-6
-1.170, 9.405e-6
-1.171, 9.405e-6
-1.172, 9.405e-6
-1.173, 9.405e-6
-1.174, 9.405e-6
-1.175, 9.405e-6
-1.176, 9.405e-6
-1.177, 9.405e-6
-1.178, 1.249e-5
-1.179, 9.405e-6
-1.180, 9.405e-6
-1.181, 9.405e-6
-1.182, 9.405e-6
-1.183, 9.405e-6
-1.184, 9.405e-6
-1.185, 9.405e-6
-1.186, 9.405e-6
-1.187, 9.405e-6
-1.188, 1.249e-5
-1.189, 9.405e-6
-1.190, 9.405e-6
-1.191, 9.405e-6
-1.192, 1.249e-5
-1.193, 9.405e-6
-1.194, 9.405e-6
-1.195, 9.405e-6
-1.196, 9.405e-6
-1.197, 9.405e-6
-1.198, 9.405e-6
-1.199, 9.405e-6
-1.200, 1.249e-5
-1.201, 9.405e-6
-1.202, 9.405e-6
-1.203, 1.249e-5
-1.204, 1.249e-5
-1.205, 9.405e-6
-1.206, 9.405e-6
-1.207, 9.405e-6
-1.208, 1.249e-5
-1.209, 1.249e-5
-1.210, 1.249e-5
-1.211, 1.249e-5
-1.212, 1.249e-5
-1.213, 1.249e-5
-1.214, 1.249e-5
-1.215, 9.405e-6
-1.216, 1.249e-5
-1.217, 1.249e-5
-1.218, 1.249e-5
-1.219, 1.249e-5
-1.220, 1.249e-5
-1.221, 1.249e-5
-1.222, 1.249e-5
-1.223, 1.249e-5
-1.224, 1.249e-5
-1.225, 1.249e-5
-1.226, 1.249e-5
-1.227, 1.249e-5
-1.228, 1.249e-5
-1.229, 1.249e-5
-1.230, 1.249e-5
-1.231, 1.249e-5
-1.232, 1.249e-5
-1.233, 1.249e-5
-1.234, 1.249e-5
-1.235, 1.249e-5
-1.236, 1.249e-5
-1.237, 1.249e-5
-1.238, 1.249e-5
-1.239, 1.249e-5
-1.240, 1.249e-5
-1.241, 1.249e-5
-1.242, 1.249e-5
-1.243, 1.249e-5
-1.244, 1.249e-5
-1.245, 1.249e-5
-1.246, 1.249e-5
-1.247, 1.249e-5
-1.248, 1.249e-5
-1.249, 1.249e-5
-1.250, 1.249e-5
-1.251, 1.249e-5
-1.252, 1.249e-5
-1.253, 1.249e-5
-1.254, 1.249e-5
-1.255, 1.249e-5
-1.256, 1.249e-5
-1.257, 1.249e-5
-1.258, 1.249e-5
-1.259, 1.249e-5
-1.260, 1.249e-5
-1.261, 1.249e-5
-1.262, 1.249e-5
-1.263, 1.249e-5
-1.264, 1.249e-5
-1.265, 1.249e-5
-1.266, 1.249e-5
-1.267, 1.249e-5
-1.268, 1.249e-5
-1.269, 1.249e-5
-1.270, 1.249e-5
-1.271, 1.249e-5
-1.272, 1.249e-5
-1.273, 1.249e-5
-1.274, 1.249e-5
-1.275, 1.249e-5
-1.276, 1.249e-5
-1.277, 1.249e-5
-1.278, 1.249e-5
-1.279, 1.249e-5
-1.280, 1.557e-5
-1.281, 1.249e-5
-1.282, 1.249e-5
-1.283, 1.249e-5
-1.284, 1.557e-5
-1.285, 1.557e-5
-1.286, 1.557e-5
-1.287, 1.557e-5
-1.288, 1.557e-5
-1.289, 1.557e-5
-1.290, 1.557e-5
-1.291, 1.557e-5
-1.292, 1.557e-5
-1.293, 1.557e-5
-1.294, 1.557e-5
-1.295, 1.557e-5
-1.296, 1.557e-5
-1.297, 1.557e-5
-1.298, 1.557e-5
-1.299, 1.557e-5
-1.300, 1.557e-5
-1.301, 1.557e-5
-1.302, 1.557e-5
-1.303, 1.865e-5
-1.304, 1.865e-5
-1.305, 1.865e-5
-1.306, 1.865e-5
-1.307, 1.865e-5
-1.308, 1.865e-5
-1.309, 1.865e-5
-1.310, 1.865e-5
-1.311, 1.865e-5
-1.312, 1.865e-5
-1.313, 1.865e-5
-1.314, 2.174e-5
-1.315, 2.174e-5
-1.316, 1.865e-5
-1.317, 2.174e-5
-1.318, 2.174e-5
-1.319, 2.174e-5
-1.320, 2.174e-5
-1.321, 2.174e-5
-1.322, 2.174e-5
-1.323, 2.482e-5
-1.324, 2.482e-5
-1.325, 2.482e-5
-1.326, 2.482e-5
-1.327, 2.482e-5
-1.328, 2.482e-5
-1.329, 2.482e-5
-1.330, 2.790e-5
-1.331, 2.790e-5
-1.332, 2.790e-5
-1.333, 3.099e-5
-1.334, 3.099e-5
-1.335, 3.099e-5
-1.336, 3.099e-5
-1.337, 3.099e-5
-1.338, 3.407e-5
-1.339, 3.407e-5
-1.340, 3.407e-5
-1.341, 3.407e-5
-1.342, 3.715e-5
-1.343, 3.715e-5
-1.344, 3.715e-5
-1.345, 4.024e-5
-1.346, 4.024e-5
-1.347, 4.024e-5
-1.348, 4.332e-5
-1.349, 4.332e-5
-1.350, 4.640e-5
-1.351, 4.640e-5
-1.352, 4.949e-5
-1.353, 4.949e-5
-1.354, 5.257e-5
-1.355, 5.257e-5
-1.356, 5.257e-5
-1.357, 5.565e-5
-1.358, 5.873e-5
-1.359, 5.873e-5
-1.360, 6.182e-5
-1.361, 6.182e-5
-1.362, 6.490e-5
-1.363, 6.798e-5
-1.364, 7.107e-5
-1.365, 7.107e-5
-1.366, 7.415e-5
-1.367, 7.723e-5
-1.368, 8.032e-5
-1.369, 8.340e-5
-1.370, 8.648e-5
-1.371, 8.648e-5
-1.372, 8.957e-5
-1.373, 9.573e-5
-1.374, 9.882e-5
-1.375, 1.019e-4
-1.376, 1.050e-4
-1.377, 1.081e-4
-1.378, 1.111e-4
-1.379, 1.173e-4
-1.380, 1.204e-4
-1.381, 1.235e-4
-1.382, 1.296e-4
-1.383, 1.327e-4
-1.384, 1.389e-4
-1.385, 1.420e-4
-1.386, 1.481e-4
-1.387, 1.543e-4
-1.388, 1.574e-4
-1.389, 1.636e-4
-1.390, 1.697e-4
-1.391, 1.759e-4
-1.392, 1.821e-4
-1.393, 1.882e-4
-1.394, 1.975e-4
-1.395, 2.036e-4
-1.396, 2.098e-4
-1.397, 2.160e-4
-1.398, 2.252e-4
-1.399, 2.314e-4
-1.400, 2.406e-4
-1.401, 2.499e-4
-1.402, 2.591e-4
-1.403, 2.684e-4
-1.404, 2.776e-4
-1.405, 2.869e-4
-1.406, 2.961e-4
-1.407, 3.085e-4
-1.408, 3.177e-4
-1.409, 3.300e-4
-1.410, 3.393e-4
-1.411, 3.516e-4
-1.412, 3.640e-4
-1.413, 3.763e-4
-1.414, 3.886e-4
-1.415, 4.040e-4
-1.416, 4.164e-4
-1.417, 4.287e-4
-1.418, 4.441e-4
-1.419, 4.565e-4
-1.420, 4.719e-4
-1.421, 4.873e-4
-1.422, 5.027e-4
-1.423, 5.212e-4
-1.424, 5.366e-4
-1.425, 5.551e-4
-1.426, 5.705e-4
-1.427, 5.890e-4
-1.428, 6.075e-4
-1.429, 6.260e-4
-1.430, 6.476e-4
-1.431, 6.661e-4
-1.432, 6.846e-4
-1.433, 7.093e-4
-1.434, 7.278e-4
-1.435, 7.524e-4
-1.436, 7.740e-4
-1.437, 7.956e-4
-1.438, 8.203e-4
-1.439, 8.418e-4
-1.440, 8.665e-4
-1.441, 8.912e-4
-1.442, 9.158e-4
-1.443, 9.436e-4
-1.444, 9.683e-4
-1.445, 9.960e-4
-1.446, 1.024e-3
-1.447, 1.051e-3
-1.448, 1.079e-3
-1.449, 1.110e-3
-1.450, 1.138e-3
-1.451, 1.169e-3
-1.452, 1.199e-3
-1.453, 1.230e-3
-1.454, 1.261e-3
-1.455, 1.295e-3
-1.456, 1.326e-3
-1.457, 1.357e-3
-1.458, 1.394e-3
-1.459, 1.428e-3
-1.460, 1.462e-3
-1.461, 1.495e-3
-1.462, 1.529e-3
-1.463, 1.566e-3
-1.464, 1.603e-3
-1.465, 1.643e-3
-1.466, 1.677e-3
-1.467, 1.714e-3
-1.468, 1.758e-3
-1.469, 1.798e-3
-1.470, 1.838e-3
-1.471, 1.878e-3
-1.472, 1.921e-3
-1.473, 1.964e-3
-1.474, 2.007e-3
-1.475, 2.050e-3
-1.476, 2.094e-3
-1.477, 2.137e-3
-1.478, 2.186e-3
-1.479, 2.232e-3
-1.480, 2.279e-3
-1.481, 2.328e-3
-1.482, 2.374e-3
-1.483, 2.423e-3
-1.484, 2.470e-3
-1.485, 2.516e-3
-1.486, 2.562e-3
-1.487, 2.612e-3
-1.488, 2.661e-3
-1.489, 2.713e-3
-1.490, 2.766e-3
-1.491, 2.812e-3
-1.492, 2.861e-3
-1.493, 2.914e-3
-1.494, 2.966e-3
-1.495, 3.015e-3
-1.496, 3.065e-3
-1.497, 3.117e-3
-1.498, 3.170e-3
-1.499, 3.225e-3
-1.500, 3.281e-3
-1.501, 3.336e-3
-1.502, 3.395e-3
-1.503, 3.453e-3
-1.504, 3.512e-3
-1.505, 3.567e-3
-1.506, 3.620e-3
-1.507, 3.675e-3
-1.508, 3.734e-3
-1.509, 3.799e-3
-1.510, 3.860e-3
-1.511, 3.922e-3
-1.512, 3.987e-3
-1.513, 4.058e-3
-1.514, 4.122e-3
-1.515, 4.184e-3
-1.516, 4.249e-3
-1.517, 4.310e-3
-1.518, 4.375e-3
-1.519, 4.440e-3
-1.520, 4.498e-3
-1.521, 4.557e-3
-1.522, 4.612e-3
-1.523, 4.677e-3
-1.524, 4.742e-3
-1.525, 4.810e-3
-1.526, 4.875e-3
-1.527, 4.933e-3
-1.528, 4.995e-3
-1.529, 5.063e-3
-1.530, 5.124e-3
-1.531, 5.192e-3
-1.532, 5.266e-3
-1.533, 5.343e-3
-1.534, 5.423e-3
-1.535, 5.497e-3
-1.536, 5.571e-3
-1.537, 5.642e-3
-1.538, 5.719e-3
-1.539, 5.796e-3
-1.540, 5.867e-3
-1.541, 5.938e-3
-1.542, 6.012e-3
-1.543, 6.089e-3
-1.544, 6.169e-3
-1.545, 6.247e-3
-1.546, 6.317e-3
-1.547, 6.395e-3
-1.548, 6.469e-3
-1.549, 6.539e-3
-1.550, 6.607e-3
-1.551, 6.672e-3
-1.552, 6.743e-3
-1.553, 6.820e-3
-1.554, 6.897e-3
-1.555, 6.974e-3
-1.556, 7.045e-3
-1.557, 7.116e-3
-1.558, 7.187e-3
-1.559, 7.264e-3
-1.560, 7.335e-3
-1.561, 7.400e-3
-1.562, 7.458e-3
-1.563, 7.523e-3
-1.564, 7.594e-3
-1.565, 7.680e-3
-1.566, 7.763e-3
-1.567, 7.853e-3
-1.568, 7.939e-3
-1.569, 8.032e-3
-1.570, 8.115e-3
-1.571, 8.201e-3
-1.572, 8.294e-3
-1.573, 8.386e-3
-1.574, 8.482e-3
-1.575, 8.574e-3
-1.576, 8.658e-3
-1.577, 8.741e-3
-1.578, 8.827e-3
-1.579, 8.910e-3
-1.580, 8.997e-3
-1.581, 9.080e-3
-1.582, 9.163e-3
-1.583, 9.249e-3
-1.584, 9.330e-3
-1.585, 9.394e-3
-1.586, 9.453e-3
-1.587, 9.512e-3
-1.588, 9.582e-3
-1.589, 9.653e-3
-1.590, 9.727e-3
-1.591, 9.804e-3
-1.592, 9.891e-3
-1.593, 9.986e-3
-1.594, 1.009e-2
-1.595, 1.019e-2
-1.596, 1.028e-2
-1.597, 1.037e-2
-1.598, 1.045e-2
-1.599, 1.054e-2
-1.600, 1.057e-2
-1.599, 1.048e-2
-1.598, 1.040e-2
-1.597, 1.033e-2
-1.596, 1.026e-2
-1.595, 1.018e-2
-1.594, 1.010e-2
-1.593, 1.002e-2
-1.592, 9.928e-3
-1.591, 9.832e-3
-1.590, 9.734e-3
-1.589, 9.638e-3
-1.588, 9.552e-3
-1.587, 9.462e-3
-1.586, 9.379e-3
-1.585, 9.296e-3
-1.584, 9.216e-3
-1.583, 9.132e-3
-1.582, 9.055e-3
-1.581, 8.972e-3
-1.580, 8.883e-3
-1.579, 8.793e-3
-1.578, 8.701e-3
-1.577, 8.611e-3
-1.576, 8.525e-3
-1.575, 8.432e-3
-1.574, 8.340e-3
-1.573, 8.257e-3
-1.572, 8.180e-3
-1.571, 8.106e-3
-1.570, 8.032e-3
-1.569, 7.948e-3
-1.568, 7.862e-3
-1.567, 7.785e-3
-1.566, 7.702e-3
-1.565, 7.625e-3
-1.564, 7.538e-3
-1.563, 7.452e-3
-1.562, 7.372e-3
-1.561, 7.292e-3
-1.560, 7.215e-3
-1.559, 7.141e-3
-1.558, 7.064e-3
-1.557, 6.990e-3
-1.556, 6.922e-3
-1.555, 6.848e-3
-1.554, 6.771e-3
-1.553, 6.694e-3
-1.552, 6.617e-3
-1.551, 6.536e-3
-1.550, 6.462e-3
-1.549, 6.401e-3
-1.548, 6.327e-3
-1.547, 6.231e-3
-1.546, 6.148e-3
-1.545, 6.083e-3
-1.544, 6.028e-3
-1.543, 5.969e-3
-1.542, 5.914e-3
-1.541, 5.846e-3
-1.540, 5.778e-3
-1.539, 5.701e-3
-1.538, 5.627e-3
-1.537, 5.559e-3
-1.536, 5.491e-3
-1.535, 5.430e-3
-1.534, 5.371e-3
-1.533, 5.315e-3
-1.532, 5.254e-3
-1.531, 5.195e-3
-1.530, 5.127e-3
-1.529, 5.056e-3
-1.528, 4.982e-3
-1.527, 4.912e-3
-1.526, 4.844e-3
-1.525, 4.773e-3
-1.524, 4.702e-3
-1.523, 4.634e-3
-1.522, 4.575e-3
-1.521, 4.511e-3
-1.520, 4.452e-3
-1.519, 4.387e-3
-1.518, 4.329e-3
-1.517, 4.264e-3
-1.516, 4.199e-3
-1.515, 4.135e-3
-1.514, 4.070e-3
-1.513, 4.008e-3
-1.512, 3.950e-3
-1.511, 3.894e-3
-1.510, 3.839e-3
-1.509, 3.777e-3
-1.508, 3.718e-3
-1.507, 3.663e-3
-1.506, 3.604e-3
-1.505, 3.549e-3
-1.504, 3.493e-3
-1.503, 3.438e-3
-1.502, 3.388e-3
-1.501, 3.342e-3
-1.500, 3.293e-3
-1.499, 3.241e-3
-1.498, 3.185e-3
-1.497, 3.133e-3
-1.496, 3.083e-3
-1.495, 3.031e-3
-1.494, 2.982e-3
-1.493, 2.932e-3
-1.492, 2.889e-3
-1.491, 2.846e-3
-1.490, 2.797e-3
-1.489, 2.747e-3
-1.488, 2.698e-3
-1.487, 2.652e-3
-1.486, 2.605e-3
-1.485, 2.559e-3
-1.484, 2.513e-3
-1.483, 2.470e-3
-1.482, 2.427e-3
-1.481, 2.383e-3
-1.480, 2.337e-3
-1.479, 2.291e-3
-1.478, 2.245e-3
-1.477, 2.201e-3
-1.476, 2.161e-3
-1.475, 2.121e-3
-1.474, 2.078e-3
-1.473, 2.038e-3
-1.472, 2.001e-3
-1.471, 1.961e-3
-1.470, 1.921e-3
-1.469, 1.881e-3
-1.468, 1.844e-3
-1.467, 1.810e-3
-1.466, 1.776e-3
-1.465, 1.739e-3
-1.464, 1.702e-3
-1.463, 1.665e-3
-1.462, 1.631e-3
-1.461, 1.600e-3
-1.460, 1.566e-3
-1.459, 1.532e-3
-1.458, 1.499e-3
-1.457, 1.471e-3
-1.456, 1.440e-3
-1.455, 1.412e-3
-1.454, 1.381e-3
-1.453, 1.351e-3
-1.452, 1.323e-3
-1.451, 1.295e-3
-1.450, 1.267e-3
-1.449, 1.236e-3
-1.448, 1.209e-3
-1.447, 1.184e-3
-1.446, 1.156e-3
-1.445, 1.129e-3
-1.444, 1.104e-3
-1.443, 1.079e-3
-1.442, 1.055e-3
-1.441, 1.030e-3
-1.440, 1.005e-3
-1.439, 9.806e-4
-1.438, 9.590e-4
-1.437, 9.374e-4
-1.436, 9.158e-4
-1.435, 8.943e-4
-1.434, 8.696e-4
-1.433, 8.480e-4
-1.432, 8.295e-4
-1.431, 8.079e-4
-1.430, 7.894e-4
-1.429, 7.679e-4
-1.428, 7.494e-4
-1.427, 7.339e-4
-1.426, 7.154e-4
-1.425, 6.969e-4
-1.424, 6.784e-4
-1.423, 6.599e-4
-1.422, 6.445e-4
-1.421, 6.291e-4
-1.420, 6.137e-4
-1.419, 5.983e-4
-1.418, 5.829e-4
-1.417, 5.674e-4
-1.416, 5.520e-4
-1.415, 5.366e-4
-1.414, 5.243e-4
-1.413, 5.089e-4
-1.412, 4.965e-4
-1.411, 4.842e-4
-1.410, 4.719e-4
-1.409, 4.595e-4
-1.408, 4.472e-4
-1.407, 4.349e-4
-1.406, 4.256e-4
-1.405, 4.133e-4
-1.404, 4.010e-4
-1.403, 3.886e-4
-1.402, 3.794e-4
-1.401, 3.701e-4
-1.400, 3.578e-4
-1.399, 3.485e-4
-1.398, 3.393e-4
-1.397, 3.300e-4
-1.396, 3.208e-4
-1.395, 3.115e-4
-1.394, 3.023e-4
-1.393, 2.961e-4
-1.392, 2.869e-4
-1.391, 2.807e-4
-1.390, 2.715e-4
-1.389, 2.622e-4
-1.388, 2.561e-4
-1.387, 2.499e-4
-1.386, 2.406e-4
-1.385, 2.345e-4
-1.384, 2.283e-4
-1.383, 2.221e-4
-1.382, 2.160e-4
-1.381, 2.098e-4
-1.380, 2.036e-4
-1.379, 1.975e-4
-1.378, 1.913e-4
-1.377, 1.882e-4
-1.376, 1.821e-4
-1.375, 1.759e-4
-1.374, 1.728e-4
-1.373, 1.666e-4
-1.372, 1.636e-4
-1.371, 1.574e-4
-1.370, 1.512e-4
-1.369, 1.481e-4
-1.368, 1.451e-4
-1.367, 1.389e-4
-1.366, 1.358e-4
-1.365, 1.296e-4
-1.364, 1.266e-4
-1.363, 1.235e-4
-1.362, 1.204e-4
-1.361, 1.173e-4
-1.360, 1.142e-4
-1.359, 1.111e-4
-1.358, 1.081e-4
-1.357, 1.050e-4
-1.356, 1.019e-4
-1.355, 9.882e-5
-1.354, 9.573e-5
-1.353, 9.265e-5
-1.352, 8.957e-5
-1.351, 8.648e-5
-1.350, 8.340e-5
-1.349, 8.032e-5
-1.348, 8.032e-5
-1.347, 7.723e-5
-1.346, 7.415e-5
-1.345, 7.415e-5
-1.344, 6.798e-5
-1.343, 6.798e-5
-1.342, 6.490e-5
-1.341, 6.490e-5
-1.340, 6.182e-5
-1.339, 6.182e-5
-1.338, 5.873e-5
-1.337, 5.565e-5
-1.336, 5.565e-5
-1.335, 5.257e-5
-1.334, 5.257e-5
-1.333, 4.949e-5
-1.332, 4.949e-5
-1.331, 4.640e-5
-1.330, 4.640e-5
-1.329, 4.332e-5
-1.328, 4.332e-5
-1.327, 4.332e-5
-1.326, 4.024e-5
-1.325, 3.715e-5
-1.324, 3.715e-5
-1.323, 3.715e-5
-1.322, 3.407e-5
-1.321, 3.407e-5
-1.320, 3.407e-5
-1.319, 3.099e-5
-1.318, 3.099e-5
-1.317, 3.099e-5
-1.316, 2.790e-5
-1.315, 2.790e-5
-1.314, 2.790e-5
-1.313, 2.482e-5
-1.312, 2.482e-5
-1.311, 2.482e-5
-1.310, 2.482e-5
-1.309, 2.174e-5
-1.308, 2.174e-5
-1.307, 2.174e-5
-1.306, 2.174e-5
-1.305, 2.174e-5
-1.304, 1.865e-5
-1.303, 1.865e-5
-1.302, 1.865e-5
-1.301, 1.865e-5
-1.300, 1.865e-5
-1.299, 1.557e-5
-1.298, 1.557e-5
-1.297, 1.557e-5
-1.296, 1.557e-5
-1.295, 1.557e-5
-1.294, 1.557e-5
-1.293, 1.557e-5
-1.292, 1.249e-5
-1.291, 1.249e-5
-1.290, 1.249e-5
-1.289, 1.249e-5
-1.288, 1.249e-5
-1.287, 1.249e-5
-1.286, 9.405e-6
-1.285, 9.405e-6
-1.284, 9.405e-6
-1.283, 1.249e-5
-1.282, 9.405e-6
-1.281, 9.405e-6
-1.280, 9.405e-6
-1.279, 9.405e-6
-1.278, 9.405e-6
-1.277, 9.405e-6
-1.276, 9.405e-6
-1.275, 6.322e-6
-1.274, 6.322e-6
-1.273, 6.322e-6
-1.272, 6.322e-6
-1.271, 6.322e-6
-1.270, 6.322e-6
-1.269, 6.322e-6
-1.268, 6.322e-6
-1.267, 6.322e-6
-1.266, 6.322e-6
-1.265, 6.322e-6
-1.264, 6.322e-6
-1.263, 3.239e-6
-1.262, 6.322e-6
-1.261, 3.239e-6
-1.260, 3.239e-6
-1.259, 3.239e-6
-1.258, 3.239e-6
-1.257, 3.239e-6
-1.256, 3.239e-6
-1.255, 3.239e-6
-1.254, 3.239e-6
-1.253, 3.239e-6
-1.252, 3.239e-6
-1.251, 3.239e-6
-1.250, 3.239e-6
-1.249, 3.239e-6
-1.248, 3.239e-6
-1.247, 3.239e-6
-1.246, 3.239e-6
-1.245, 3.239e-6
-1.244, 3.239e-6
-1.243, 3.239e-6
-1.242, 1.559e-7
-1.241, 1.559e-7
-1.240, 1.559e-7
-1.239, 1.559e-7
-1.238, 1.559e-7
-1.237, 3.239e-6
-1.236, 1.559e-7
-1.235, 1.559e-7
-1.234, 1.559e-7
-1.233, 1.559e-7
-1.232, 1.559e-7
-1.231, 1.559e-7
-1.230, 1.559e-7
-1.229, 1.559e-7
-1.228, 1.559e-7
-1.227, 1.559e-7
-1.226, 1.559e-7
-1.225, 1.559e-7
-1.224, 1.559e-7
-1.223, 1.559e-7
-1.222, 1.559e-7
-1.221, 1.559e-7
-1.220, 1.559e-7
-1.219, 1.559e-7
-1.218, 1.559e-7
-1.217, 1.559e-7
-1.216, 1.559e-7
-1.215, 1.559e-7
-1.214, 1.559e-7
-1.213, 1.559e-7
-1.212, 1.559e-7
-1.211, 1.559e-7
-1.210, 1.559e-7
-1.209, 1.559e-7
-1.208, 1.559e-7
-1.207, 1.559e-7
-1.206, 1.559e-7
-1.205, 1.559e-7
-1.204, 1.559e-7
-1.203, -2.927e-6
-1.202, -2.927e-6
-1.201, -2.927e-6
-1.200, -2.927e-6
-1.199, -2.927e-6
-1.198, -2.927e-6
-1.197, 1.559e-7
-1.196, -2.927e-6
-1.195, -2.927e-6
-1.194, -2.927e-6
-1.193, -2.927e-6
-1.192, -2.927e-6
-1.191, -2.927e-6
-1.190, -2.927e-6
-1.189, -2.927e-6
-1.188, -2.927e-6
-1.187, 1.559e-7
-1.186, -2.927e-6
-1.185, -2.927e-6
-1.184, -2.927e-6
-1.183, -2.927e-6
-1.182, -2.927e-6
-1.181, -2.927e-6
-1.180, -2.927e-6
-1.179, -2.927e-6
-1.178, -2.927e-6
-1.177, -2.927e-6
-1.176, -2.927e-6
-1.175, -2.927e-6
-1.174, -2.927e-6
-1.173, -2.927e-6
-1.172, -2.927e-6
-1.171, -2.927e-6
-1.170, -2.927e-6
-1.169, -2.927e-6
-1.168, -2.927e-6
-1.167, -2.927e-6
-1.166, -2.927e-6
-1.165, -2.927e-6
-1.164, -2.927e-6
-1.163, -2.927e-6
-1.162, -2.927e-6
-1.161, -2.927e-6
-1.160, -2.927e-6
-1.159, -2.927e-6
-1.158, -2.927e-6
-1.157, -2.927e-6
-1.156, -2.927e-6
-1.155, -2.927e-6
-1.154, -2.927e-6
-1.153, -2.927e-6
-1.152, -2.927e-6
-1.151, -2.927e-6
-1.150, -2.927e-6
-1.149, -2.927e-6
-1.148, -2.927e-6
-1.147, -2.927e-6
-1.146, -2.927e-6
-1.145, -2.927e-6
-1.144, -2.927e-6
-1.143, -2.927e-6
-1.142, -2.927e-6
-1.141, -2.927e-6
-1.140, -2.927e-6
-1.139, -2.927e-6
-1.138, -6.010e-6
-1.137, -2.927e-6
-1.136, -6.010e-6
-1.135, -6.010e-6
-1.134, -2.927e-6
-1.133, -6.010e-6
-1.132, -2.927e-6
-1.131, -6.010e-6
-1.130, -2.927e-6
-1.129, -6.010e-6
-1.128, -6.010e-6
-1.127, -2.927e-6
-1.126, -6.010e-6
-1.125, -6.010e-6
-1.124, -6.010e-6
-1.123, -6.010e-6
-1.122, -6.010e-6
-1.121, -6.010e-6
-1.120, -6.010e-6
-1.119, -6.010e-6
-1.118, -6.010e-6
-1.117, -6.010e-6
-1.116, -6.010e-6
-1.115, -6.010e-6
-1.114, -6.010e-6
-1.113, -6.010e-6
-1.112, -6.010e-6
-1.111, -6.010e-6
-1.110, -6.010e-6
-1.109, -6.010e-6
-1.108, -6.010e-6
-1.107, -6.010e-6
-1.106, -6.010e-6
-1.105, -6.010e-6
-1.104, -6.010e-6
-1.103, -6.010e-6
-1.102, -6.010e-6
-1.101, -6.010e-6
-1.100, -6.010e-6
-1.099, -6.010e-6
-1.098, -6.010e-6
-1.097, -6.010e-6
-1.096, -6.010e-6
-1.095, -6.010e-6
-1.094, -6.010e-6
-1.093, -6.010e-6
-1.092, -6.010e-6
-1.091, -6.010e-6
-1.090, -6.010e-6
-1.089, -6.010e-6
-1.088, -6.010e-6
-1.087, -6.010e-6
-1.086, -6.010e-6
-1.085, -9.093e-6
-1.084, -9.093e-6
-1.083, -9.093e-6
-1.082, -6.010e-6
-1.081, -6.010e-6
-1.080, -6.010e-6
-1.079, -9.093e-6
-1.078, -9.093e-6
-1.077, -6.010e-6
-1.076, -9.093e-6
-1.075, -9.093e-6
-1.074, -9.093e-6
-1.073, -9.093e-6
-1.072, -9.093e-6
-1.071, -9.093e-6
-1.070, -9.093e-6
-1.069, -9.093e-6
-1.068, -9.093e-6
-1.067, -9.093e-6
-1.066, -9.093e-6
-1.065, -9.093e-6
-1.064, -9.093e-6
-1.063, -9.093e-6
-1.062, -9.093e-6
-1.061, -9.093e-6
-1.060, -9.093e-6
-1.059, -9.093e-6
-1.058, -9.093e-6
-1.057, -9.093e-6
-1.056, -9.093e-6
-1.055, -9.093e-6
-1.054, -9.093e-6
-1.053, -9.093e-6
-1.052, -9.093e-6
-1.051, -9.093e-6
-1.050, -9.093e-6
-1.049, -9.093e-6
-1.048, -9.093e-6
-1.047, -9.093e-6
-1.046, -1.218e-5
-1.045, -1.218e-5
-1.044, -1.218e-5
-1.043, -1.218e-5
-1.042, -9.093e-6
-1.041, -1.218e-5
-1.040, -1.218e-5
-1.039, -1.218e-5
-1.038, -1.218e-5
-1.037, -1.218e-5
-1.036, -1.218e-5
-1.035, -1.218e-5
-1.034, -1.218e-5
-1.033, -1.218e-5
-1.032, -1.218e-5
-1.031, -1.218e-5
-1.030, -1.218e-5
-1.029, -1.218e-5
-1.028, -1.218e-5
-1.027, -1.218e-5
-1.026, -1.218e-5
-1.025, -1.218e-5
-1.024, -1.218e-5
-1.023, -1.526e-5
-1.022, -1.218e-5
-1.021, -1.218e-5
-1.020, -1.526e-5
-1.019, -1.526e-5
-1.018, -1.526e-5
-1.017, -1.218e-5
-1.016, -1.526e-5
-1.015, -1.526e-5
-1.014, -1.526e-5
-1.013, -1.526e-5
-1.012, -1.526e-5
-1.011, -1.526e-5
-1.010, -1.526e-5
-1.009, -1.526e-5
-1.008, -1.526e-5
-1.007, -1.526e-5
-1.006, -1.526e-5
-1.005, -1.526e-5
-1.004, -1.526e-5
-1.003, -1.526e-5
-1.002, -1.526e-5
-1.001, -1.526e-5
