Potential V vs RHE, Current mA cm-2
0.4132999999999999,-0.0085335385607859
0.4122999999999999,-0.010968256707853629
0.4112999999999999,-0.011733615521080614
0.4102999999999999,-0.012061828542649302
0.4092999999999999,-0.012285352928027979
0.4082999999999999,-0.012455118284011784
0.4072999999999999,-0.012641860175593968
0.4062999999999999,-0.012762110636082496
0.4052999999999999,-0.012897922920869538
0.4042999999999999,-0.013001196845759686
0.4032999999999999,-0.013095982502850644
0.4022999999999999,-0.013234624210237416
0.4012999999999999,-0.013315262754329725
0.4002999999999999,-0.013397316009721896
0.3992999999999999,-0.013494931089412587
0.3982999999999999,-0.013574154922205027
0.3972999999999999,-0.013612352127301384
0.3962999999999999,-0.013677428847095174
0.3952999999999999,-0.013722699608690856
0.3942999999999999,-0.01378070277198532
0.39329999999999987,-0.013851438336978574
0.39229999999999987,-0.013933491592370747
0.39129999999999987,-0.013991494755665213
0.39029999999999987,-0.014048083207659816
0.38929999999999987,-0.014115989350053336
0.38829999999999987,-0.014161260111649017
0.38729999999999987,-0.014203701450644968
0.38629999999999987,-0.014288584128636872
0.38529999999999986,-0.014316878354634173
0.38429999999999986,-0.014359319693630123
0.38329999999999986,-0.014401761032626074
0.38229999999999986,-0.014458349484620674
0.38129999999999986,-0.014486643710617976
0.38029999999999986,-0.014557379275611227
0.37929999999999986,-0.014585673501608528
0.37829999999999986,-0.014642261953603129
0.37729999999999986,-0.014684703292599082
0.37629999999999986,-0.01469885040559773
0.37529999999999986,-0.014769585970590984
0.37429999999999986,-0.014826174422585584
0.37329999999999985,-0.014882762874580187
0.37229999999999985,-0.014967645552572089
0.37129999999999985,-0.014981792665570736
0.37029999999999985,-0.01505252823056399
0.36929999999999985,-0.015080822456561293
0.36829999999999985,-0.01509496956955994
0.36729999999999985,-0.015165705134553195
0.36629999999999985,-0.015179852247551842
0.36529999999999985,-0.015222293586547794
0.36429999999999985,-0.015264734925543746
0.36329999999999985,-0.015278882038542396
0.36229999999999984,-0.0153637647165343
0.36129999999999984,-0.015420353168528897
0.36029999999999984,-0.015476941620523503
0.35929999999999984,-0.015505235846520802
0.35829999999999984,-0.015519382959519455
0.35729999999999984,-0.015561824298515404
0.35629999999999984,-0.015575971411514053
0.35529999999999984,-0.015604265637511355
0.35429999999999984,-0.015646706976507305
0.35329999999999984,-0.01568914831550326
0.35229999999999984,-0.015717442541500558
0.35129999999999983,-0.01578817810649381
0.35029999999999983,-0.01581647233249111
0.34929999999999983,-0.01584476655848841
0.34829999999999983,-0.015873060784485714
0.34729999999999983,-0.015943796349478963
0.34629999999999983,-0.015957943462477614
0.34529999999999983,-0.016000384801473564
0.34429999999999983,-0.016042826140469518
0.3432999999999998,-0.016099414592464115
0.3422999999999998,-0.01615600304445872
0.3412999999999998,-0.01618429727045602
0.3402999999999998,-0.01624088572245062
0.3392999999999998,-0.016226738609451972
0.3382999999999998,-0.016283327061446574
0.3372999999999998,-0.01629747417444522
0.3362999999999998,-0.016325768400442524
0.3352999999999998,-0.016396503965435776
0.3342999999999998,-0.016424798191433075
0.3332999999999998,-0.016453092417430374
0.3322999999999998,-0.01652382798242363
0.3312999999999998,-0.01650968086942498
0.3302999999999998,-0.01658041643441823
0.3292999999999998,-0.01662285777341418
0.3282999999999998,-0.01665115199941148
0.3272999999999998,-0.016721887564404736
0.3262999999999998,-0.016721887564404736
0.3252999999999999,-0.016778476016399334
0.3242999999999999,-0.016778476016399334
0.3232999999999999,-0.016792623129397985
0.3222999999999999,-0.01683506446839394
0.3212999999999999,-0.01687750580738989
0.3202999999999999,-0.016891652920388536
0.3192999999999999,-0.016948241372383138
0.3182999999999999,-0.016962388485381792
0.3172999999999999,-0.017018976937376393
0.3162999999999999,-0.017047271163373692
0.3152999999999999,-0.017047271163373692
0.3142999999999999,-0.017118006728366945
0.3132999999999999,-0.017132153841365592
0.3122999999999999,-0.017160448067362895
0.3112999999999999,-0.017174595180361543
0.3102999999999999,-0.017188742293360197
0.3092999999999999,-0.017217036519357496
0.3082999999999999,-0.017259477858353446
0.3072999999999999,-0.017273624971352097
0.3062999999999999,-0.0173302134233467
0.3052999999999999,-0.01734436053634535
0.3042999999999999,-0.017372654762342652
0.3032999999999999,-0.0174150961013386
0.3022999999999999,-0.017429243214337253
0.3012999999999999,-0.017499978779330502
0.3002999999999999,-0.017542420118326456
0.2992999999999999,-0.017556567231325104
0.2982999999999999,-0.017599008570321057
0.2972999999999999,-0.017613155683319705
0.2962999999999999,-0.017641449909317007
0.2952999999999999,-0.01766974413531431
0.2942999999999999,-0.01766974413531431
0.2932999999999999,-0.01769803836131161
0.2922999999999999,-0.01774047970030756
0.2912999999999999,-0.01776877392630486
0.2902999999999999,-0.017825362378299462
0.2892999999999999,-0.017867803717295416
0.2882999999999999,-0.01785365660429676
0.2872999999999999,-0.017910245056291362
0.2862999999999999,-0.017938539282288665
0.2852999999999999,-0.017980980621284618
0.2842999999999999,-0.018023421960280565
0.2832999999999999,-0.01803756907327922
0.2822999999999999,-0.018051716186277867
0.2812999999999999,-0.018080010412275173
0.2802999999999999,-0.018094157525273817
0.2792999999999999,-0.01812245175127112
0.2782999999999999,-0.018150745977268422
0.2772999999999999,-0.01820733442926302
0.2762999999999999,-0.018221481542261674
0.2752999999999999,-0.018235628655260322
0.2742999999999999,-0.018263922881257624
0.2732999999999999,-0.018334658446250877
0.2722999999999999,-0.018377099785246823
0.2712999999999999,-0.018419541124242777
0.2702999999999999,-0.018433688237241428
0.2692999999999999,-0.018461982463238727
0.26829999999999987,-0.01850442380223468
0.26729999999999987,-0.01851857091523333
0.26629999999999987,-0.018546865141230634
0.26529999999999987,-0.018575159367227933
0.26429999999999987,-0.018575159367227933
0.26329999999999987,-0.018645894932221182
0.26229999999999987,-0.018674189158218484
0.26129999999999987,-0.018674189158218484
0.26029999999999986,-0.018716630497214438
0.25929999999999986,-0.018759071836210388
0.25829999999999986,-0.018801513175206338
0.25729999999999986,-0.01885810162720094
0.25629999999999986,-0.01887224874019959
0.25529999999999986,-0.018942984305192843
0.25429999999999986,-0.018942984305192843
0.25329999999999986,-0.018985425644188793
0.25229999999999986,-0.019042014096183394
0.25129999999999986,-0.019027866983184743
0.25029999999999986,-0.019070308322180696
0.24929999999999986,-0.019070308322180696
0.24829999999999985,-0.019084455435179344
0.24729999999999985,-0.0191551910001726
0.24629999999999985,-0.0191551910001726
0.24529999999999985,-0.019240073678164497
0.24429999999999985,-0.019254220791163148
0.24329999999999985,-0.019254220791163148
0.24229999999999985,-0.0193249563561564
0.24129999999999985,-0.019353250582153703
0.24029999999999985,-0.019381544808151
0.23929999999999985,-0.019452280373144254
0.23829999999999985,-0.019466427486142905
0.23729999999999984,-0.01950886882513886
0.23629999999999984,-0.019523015938137503
0.23529999999999984,-0.019523015938137503
0.23429999999999984,-0.019565457277133456
0.23329999999999984,-0.019607898616129407
0.23229999999999984,-0.01965033995512536
0.23129999999999984,-0.01967863418112266
0.23029999999999984,-0.01969278129412131
0.22929999999999984,-0.019721075520118612
0.22829999999999984,-0.019763516859114563
0.22729999999999984,-0.019777663972113214
0.22629999999999983,-0.019834252424107815
0.22529999999999983,-0.019904987989101064
0.22429999999999983,-0.019933282215098366
0.22329999999999983,-0.019989870667092968
0.22229999999999983,-0.02000401778009162
0.22129999999999983,-0.02003231200608892
0.22029999999999983,-0.02007475334508487
0.21929999999999983,-0.02011719468408082
0.21829999999999983,-0.020145488910078124
0.21729999999999983,-0.020173783136075422
0.21629999999999983,-0.020173783136075422
0.21529999999999982,-0.020244518701068675
0.21429999999999982,-0.020258665814067326
0.21329999999999982,-0.020301107153063276
0.21229999999999982,-0.020371842718056525
0.21129999999999982,-0.020371842718056525
0.21029999999999982,-0.020442578283049778
0.20929999999999982,-0.02048501962204573
0.20829999999999982,-0.020499166735044382
0.20729999999999982,-0.020541608074040336
0.20629999999999982,-0.020569902300037635
0.20529999999999982,-0.020640637865030884
0.20429999999999982,-0.020697226317025485
0.20329999999999981,-0.020697226317025485
0.2022999999999998,-0.020767961882018737
0.2012999999999998,-0.02079625610801604
0.20029999999999992,-0.02079625610801604
0.19929999999999992,-0.02085284456001064
0.19829999999999992,-0.02086699167300929
0.19729999999999992,-0.020895285899006594
0.19629999999999992,-0.020966021463999843
0.19529999999999992,-0.021022609915994445
0.19429999999999992,-0.02119237527197825
0.19329999999999992,-0.021319699288966102
0.19229999999999992,-0.02124896372397285
0.19129999999999991,-0.021277257949970152
0.1902999999999999,-0.0212631108369715
0.1892999999999999,-0.021277257949970152
0.1882999999999999,-0.021347993514963404
0.1872999999999999,-0.021376287740960703
0.1862999999999999,-0.021404581966958002
0.1852999999999999,-0.021447023305953956
0.1842999999999999,-0.021489464644949906
0.1832999999999999,-0.021546053096944507
0.1822999999999999,-0.02157434732294181
0.1812999999999999,-0.021602641548939108
0.1802999999999999,-0.02165923000093371
0.1792999999999999,-0.021687524226931015
0.1782999999999999,-0.021744112678925617
0.1772999999999999,-0.021786554017921567
0.1762999999999999,-0.021772406904922915
0.1752999999999999,-0.021843142469916164
0.1742999999999999,-0.02185728958291482
0.1732999999999999,-0.021885583808912118
0.1722999999999999,-0.021956319373905367
0.1712999999999999,-0.02194217226090672
0.1702999999999999,-0.022012907825899968
0.1692999999999999,-0.02205534916489592
0.1682999999999999,-0.02208364339089322
0.1672999999999999,-0.022168526068885124
0.1662999999999999,-0.02218267318188378
0.1652999999999999,-0.022253408746877028
0.1642999999999999,-0.02230999719887163
0.1632999999999999,-0.022338291424868928
0.1622999999999999,-0.02242317410286083
0.1612999999999999,-0.022437321215859483
0.1602999999999999,-0.02245146832885813
0.1592999999999999,-0.022522203893851383
0.15829999999999989,-0.022522203893851383
0.15729999999999988,-0.022578792345845984
0.15629999999999988,-0.022635380797840585
0.15529999999999988,-0.022663675023837888
0.15429999999999988,-0.02272026347583249
0.15329999999999988,-0.02277685192782709
0.15229999999999988,-0.02280514615382439
0.15129999999999988,-0.02287588171881764
0.15029999999999988,-0.022918323057813595
0.14929999999999988,-0.022960764396809545
0.14829999999999988,-0.022989058622806844
0.14729999999999988,-0.023045647074801445
0.14629999999999987,-0.023073941300798748
0.14529999999999987,-0.023158823978790648
0.14429999999999987,-0.023215412430785252
0.14329999999999987,-0.023286147995778505
0.14229999999999987,-0.023328589334774455
0.14129999999999987,-0.02338517778676906
0.14029999999999987,-0.023441766238763657
0.13929999999999987,-0.02345591335176231
0.13829999999999987,-0.023512501803756906
0.13729999999999987,-0.02354079602975421
0.13629999999999987,-0.023583237368750162
0.13529999999999986,-0.023639825820744764
0.13429999999999986,-0.023682267159740714
0.13329999999999986,-0.023753002724733966
0.13229999999999986,-0.023823738289727222
0.13129999999999986,-0.02385203251572452
0.13029999999999986,-0.02390862096771912
0.12929999999999986,-0.02395106230671507
0.12829999999999986,-0.023993503645711022
0.12729999999999986,-0.024050092097705623
0.12629999999999986,-0.024050092097705623
0.12529999999999986,-0.024092533436701577
0.12429999999999986,-0.02417741611469348
0.12329999999999985,-0.024219857453689427
0.12229999999999985,-0.02429059301868268
0.12129999999999985,-0.02433303435767863
0.12029999999999985,-0.024375475696674583
0.11929999999999985,-0.024446211261667832
0.11829999999999985,-0.024516946826661085
0.11729999999999985,-0.02461597661765164
0.11629999999999985,-0.024644270843648942
0.11529999999999985,-0.02465841795664759
0.11429999999999985,-0.024729153521640842
0.11329999999999985,-0.024785741973635443
0.11229999999999984,-0.024814036199632745
0.11129999999999984,-0.024884771764625994
0.11029999999999984,-0.0249413602166206
0.10929999999999984,-0.025012095781613848
0.10829999999999984,-0.02506868423360845
0.10729999999999984,-0.0251111255726044
0.10629999999999984,-0.025139419798601705
0.10529999999999984,-0.025210155363594954
0.10429999999999984,-0.025309185154585506
0.10329999999999984,-0.02537992071957876
0.10229999999999984,-0.02545065628457201
0.10129999999999983,-0.025493097623567964
0.10029999999999983,-0.02554968607556256
0.09929999999999983,-0.025577980301559864
0.09829999999999983,-0.025662862979551764
0.09729999999999983,-0.025691157205549067
0.09629999999999983,-0.025719451431546365
0.09529999999999983,-0.025790186996539618
0.09429999999999983,-0.025818481222536924
0.09329999999999983,-0.02590336390052882
0.09229999999999983,-0.025988246578520724
0.09129999999999983,-0.02600239369151937
0.09029999999999982,-0.026087276369511275
0.08929999999999982,-0.02614386482150588
0.08829999999999982,-0.02620045327350048
0.08729999999999982,-0.02629948306449103
0.08629999999999982,-0.026341924403486983
0.08529999999999982,-0.026426807081478886
0.08429999999999982,-0.026539983985468085
0.08329999999999982,-0.02655413109846674
0.08229999999999982,-0.02665316088945729
0.08129999999999982,-0.026667308002455942
0.08029999999999982,-0.026695602228453245
0.07929999999999982,-0.026766337793446494
0.07829999999999981,-0.02682292624544109
0.07729999999999981,-0.026893661810434347
0.07629999999999981,-0.026992691601424906
0.07529999999999992,-0.027063427166418155
0.07429999999999992,-0.027134162731411407
0.07329999999999992,-0.027176604070407354
0.07229999999999992,-0.027247339635400606
0.07129999999999992,-0.02731807520039386
0.07029999999999992,-0.02734636942639116
0.06929999999999992,-0.02740295787838576
0.06829999999999992,-0.02750198766937631
0.06729999999999992,-0.02755857612137091
0.06629999999999991,-0.02762931168636417
0.06529999999999991,-0.027671753025360117
0.06429999999999991,-0.02772834147735472
0.06329999999999991,-0.027799077042347967
0.06229999999999991,-0.027841518381343924
0.06129999999999991,-0.027912253946337173
0.06029999999999991,-0.027982989511330426
0.05929999999999991,-0.028053725076323675
0.05829999999999991,-0.02813860775431558
0.05729999999999991,-0.02820934331930883
0.056299999999999906,-0.028265931771303435
0.055299999999999905,-0.028393255788291286
0.054299999999999904,-0.028449844240285887
0.0532999999999999,-0.02852057980527914
0.0522999999999999,-0.02860546248327104
0.0512999999999999,-0.028633756709268345
0.0502999999999999,-0.028718639387260245
0.0492999999999999,-0.028761080726256192
0.0482999999999999,-0.02880352206525215
0.0472999999999999,-0.028916698969241348
0.0462999999999999,-0.0289591403082373
0.045299999999999896,-0.029058170099227856
0.044299999999999895,-0.029143052777219756
0.043299999999999894,-0.029199641229214358
0.04229999999999989,-0.029341112359200863
0.04129999999999989,-0.02939770081119546
0.04029999999999989,-0.029482583489187364
0.03929999999999989,-0.029525024828183317
0.03829999999999989,-0.029567466167179264
0.03729999999999989,-0.02968064307116847
0.03629999999999989,-0.029765525749160374
0.03529999999999989,-0.029751378636161722
0.034299999999999886,-0.029850408427152274
0.033299999999999885,-0.029921143992145526
0.032299999999999884,-0.029991879557138775
0.031299999999999883,-0.03006261512213203
0.030299999999999883,-0.03007676223513068
0.02929999999999988,-0.030175792026121234
0.02829999999999988,-0.030274821817111785
0.02729999999999988,-0.030345557382105034
0.02629999999999988,-0.03044458717309559
0.025299999999999878,-0.03051532273808884
0.024299999999999877,-0.030571911190083446
0.023299999999999876,-0.03065679386807535
0.022299999999999875,-0.030699235207071292
0.021299999999999875,-0.030741676546067253
0.020299999999999874,-0.03079826499806185
0.019299999999999873,-0.03085485345005645
0.018299999999999872,-0.030968030354045658
0.01729999999999987,-0.03103876591903891
0.01629999999999987,-0.031067060145036202
0.01529999999999987,-0.031166089936026757
0.014299999999999868,-0.03123682550102001
0.013299999999999867,-0.03129341395301461
0.012299999999999978,-0.03139244374400516
0.011299999999999866,-0.03147732642199706
0.010299999999999976,-0.03154806198699031
0.009299999999999864,-0.03163294466498222
0.008299999999999974,-0.03168953311697682
0.007299999999999862,-0.03176026868197007
0.006299999999999972,-0.03181685713396468
0.00529999999999986,-0.03185929847296063
0.0042999999999999705,-0.03194418115095252
0.0032999999999998586,-0.03198662248994848
0.0022999999999999687,-0.032071505167940384
0.0012999999999998568,-0.032156387845932284
0.00029999999999996696,-0.03221297629792688
-0.000700000000000145,-0.03228371186292014
-0.0017000000000000348,-0.03235444742791339
-0.0027000000000001467,-0.032453477218903945
-0.0037000000000000366,-0.032524212783897194
-0.0047000000000001485,-0.03256665412289315
-0.005700000000000038,-0.032623242574887745
-0.00670000000000015,-0.03265153680088505
-0.00770000000000004,-0.032693978139880994
-0.008700000000000152,-0.03279300793087155
-0.009700000000000042,-0.0328354492698675
-0.010700000000000154,-0.032976920399854
-0.011700000000000044,-0.033005214625851306
-0.012700000000000156,-0.03304765596484726
-0.013700000000000045,-0.033090097303843206
-0.014700000000000157,-0.03316083286883646
-0.015700000000000047,-0.03324571554682836
-0.01670000000000016,-0.03333059822482026
-0.01770000000000005,-0.03341548090281216
-0.01870000000000016,-0.033457922241808116
-0.01970000000000005,-0.03352865780680137
-0.020700000000000163,-0.03355695203279867
-0.021700000000000053,-0.03359939337179463
-0.022700000000000164,-0.033655981823789226
-0.023700000000000054,-0.033712570275783824
-0.024700000000000166,-0.03375501161477978
-0.025700000000000056,-0.03381160006677438
-0.026700000000000168,-0.03386818851876898
-0.027700000000000058,-0.03395307119676088
-0.02870000000000017,-0.033967218309759524
-0.02970000000000006,-0.03405210098775143
-0.03070000000000017,-0.03413698366574334
-0.03170000000000006,-0.034179425004739285
-0.03270000000000017,-0.03429260190872849
-0.03370000000000006,-0.034306749021727145
-0.034700000000000175,-0.034349190360723085
-0.035700000000000065,-0.03440577881271769
-0.03670000000000018,-0.03444822015171364
-0.03770000000000007,-0.03450480860370824
-0.03870000000000018,-0.03453310282970555
-0.03970000000000007,-0.034561397055702846
-0.04070000000000018,-0.0346321326206961
-0.04170000000000007,-0.03464627973369475
-0.04270000000000018,-0.034731162411686646
-0.04370000000000007,-0.03478775086368125
-0.044700000000000184,-0.03481604508967855
-0.045700000000000074,-0.034915074880669104
-0.046700000000000186,-0.03494336910666641
-0.047700000000000076,-0.034999957558661005
-0.04870000000000019,-0.03504239889765696
-0.04970000000000008,-0.03507069312365426
-0.05070000000000019,-0.03514142868864751
-0.05170000000000008,-0.03521216425364076
-0.05270000000000019,-0.03525460559263671
-0.05370000000000008,-0.035297046931632665
-0.05470000000000019,-0.03531119404463132
-0.05570000000000008,-0.03533948827062862
-0.056700000000000195,-0.03539607672262322
-0.057700000000000085,-0.03543851806161917
-0.058700000000000196,-0.03549510651361377
-0.059700000000000086,-0.03552340073961108
-0.0607000000000002,-0.035579989191605675
-0.06170000000000009,-0.03569316609559487
-0.0627000000000002,-0.03577804877358678
-0.06370000000000009,-0.03579219588658543
-0.0647000000000002,-0.03584878433858003
