Aug. 10, 2024   20:08:20
Cyclic Voltammetry
File: c:/users/guazh/data/20240802_batch_500/2024-08-02-exp76\exp76-2024-08-10t19_46_07-h2koh\exp76_cv_sr_50mvs_efin_-1900mv.bin
Data Source:  Experiment
Instrument Model:  CHI760E
Header: CV ran at 50 mVs
Note: 

Init E (V) = -1
High E (V) = -1
Low E (V) = -1.9
Final E (V) = -1
Init P/N = N
Scan Rate (V/s) = 0.05
Segment = 3
Sample Interval (V) = 0.001
Quiet Time (sec) = 2
Sensitivity (A/V) = 0.01
Comp R (ohm) = 2.1

Results:

Channel 1:
Segment 1:

Segment 2:

Segment 3:

Potential/V, Current/A

-1.000, -6.375e-6
-1.001, -5.793e-6
-1.002, -5.182e-6
-1.003, -4.807e-6
-1.004, -4.432e-6
-1.005, -4.047e-6
-1.006, -3.692e-6
-1.007, -3.327e-6
-1.008, -3.100e-6
-1.009, -2.764e-6
-1.010, -2.518e-6
-1.011, -2.192e-6
-1.012, -1.877e-6
-1.013, -1.679e-6
-1.014, -1.472e-6
-1.015, -1.265e-6
-1.016, -1.077e-6
-1.017, -8.702e-7
-1.018, -6.137e-7
-1.019, -5.150e-7
-1.020, -2.782e-7
-1.021, -7.103e-8
-1.022, 1.164e-7
-1.023, 2.545e-7
-1.024, 5.407e-7
-1.025, 6.689e-7
-1.026, 7.972e-7
-1.027, 9.846e-7
-1.028, 1.133e-6
-1.029, 1.251e-6
-1.030, 1.429e-6
-1.031, 1.577e-6
-1.032, 1.695e-6
-1.033, 1.734e-6
-1.034, 1.902e-6
-1.035, 2.021e-6
-1.036, 2.139e-6
-1.037, 2.336e-6
-1.038, 2.504e-6
-1.039, 2.534e-6
-1.040, 2.721e-6
-1.041, 2.711e-6
-1.042, 2.899e-6
-1.043, 2.997e-6
-1.044, 3.175e-6
-1.045, 3.175e-6
-1.046, 3.254e-6
-1.047, 3.382e-6
-1.048, 3.402e-6
-1.049, 3.570e-6
-1.050, 3.796e-6
-1.051, 3.865e-6
-1.052, 3.915e-6
-1.053, 3.974e-6
-1.054, 4.053e-6
-1.055, 4.201e-6
-1.056, 4.201e-6
-1.057, 4.211e-6
-1.058, 4.349e-6
-1.059, 4.467e-6
-1.060, 4.625e-6
-1.061, 4.467e-6
-1.062, 4.744e-6
-1.063, 4.813e-6
-1.064, 4.783e-6
-1.065, 4.970e-6
-1.066, 4.980e-6
-1.067, 5.030e-6
-1.068, 5.099e-6
-1.069, 5.257e-6
-1.070, 5.296e-6
-1.071, 5.197e-6
-1.072, 5.365e-6
-1.073, 5.444e-6
-1.074, 5.355e-6
-1.075, 5.533e-6
-1.076, 5.651e-6
-1.077, 5.730e-6
-1.078, 5.789e-6
-1.079, 5.809e-6
-1.080, 5.888e-6
-1.081, 5.878e-6
-1.082, 6.026e-6
-1.083, 5.987e-6
-1.084, 6.016e-6
-1.085, 6.046e-6
-1.086, 6.154e-6
-1.087, 6.283e-6
-1.088, 6.253e-6
-1.089, 6.253e-6
-1.090, 6.391e-6
-1.091, 6.381e-6
-1.092, 6.470e-6
-1.093, 6.470e-6
-1.094, 6.529e-6
-1.095, 6.677e-6
-1.096, 6.628e-6
-1.097, 6.707e-6
-1.098, 6.648e-6
-1.099, 6.667e-6
-1.100, 6.806e-6
-1.101, 6.875e-6
-1.102, 6.954e-6
-1.103, 6.894e-6
-1.104, 6.954e-6
-1.105, 7.052e-6
-1.106, 6.963e-6
-1.107, 7.141e-6
-1.108, 7.111e-6
-1.109, 7.111e-6
-1.110, 7.230e-6
-1.111, 7.210e-6
-1.112, 7.259e-6
-1.113, 7.210e-6
-1.114, 7.289e-6
-1.115, 7.358e-6
-1.116, 7.250e-6
-1.117, 7.417e-6
-1.118, 7.378e-6
-1.119, 7.417e-6
-1.120, 7.417e-6
-1.121, 7.378e-6
-1.122, 7.585e-6
-1.123, 7.486e-6
-1.124, 7.486e-6
-1.125, 7.536e-6
-1.126, 7.516e-6
-1.127, 7.723e-6
-1.128, 7.654e-6
-1.129, 7.654e-6
-1.130, 7.723e-6
-1.131, 7.654e-6
-1.132, 7.772e-6
-1.133, 7.802e-6
-1.134, 7.802e-6
-1.135, 7.782e-6
-1.136, 7.822e-6
-1.137, 7.901e-6
-1.138, 7.812e-6
-1.139, 7.832e-6
-1.140, 7.851e-6
-1.141, 7.871e-6
-1.142, 7.960e-6
-1.143, 7.970e-6
-1.144, 7.881e-6
-1.145, 8.029e-6
-1.146, 7.999e-6
-1.147, 7.960e-6
-1.148, 7.901e-6
-1.149, 7.920e-6
-1.150, 8.078e-6
-1.151, 7.989e-6
-1.152, 8.157e-6
-1.153, 8.039e-6
-1.154, 7.999e-6
-1.155, 8.039e-6
-1.156, 7.970e-6
-1.157, 8.108e-6
-1.158, 8.059e-6
-1.159, 8.118e-6
-1.160, 8.068e-6
-1.161, 7.970e-6
-1.162, 8.059e-6
-1.163, 7.999e-6
-1.164, 8.137e-6
-1.165, 8.137e-6
-1.166, 8.147e-6
-1.167, 8.177e-6
-1.168, 8.019e-6
-1.169, 8.068e-6
-1.170, 8.039e-6
-1.171, 8.078e-6
-1.172, 8.078e-6
-1.173, 8.049e-6
-1.174, 8.039e-6
-1.175, 7.930e-6
-1.176, 7.970e-6
-1.177, 7.980e-6
-1.178, 7.999e-6
-1.179, 8.019e-6
-1.180, 8.009e-6
-1.181, 8.049e-6
-1.182, 8.039e-6
-1.183, 7.970e-6
-1.184, 8.019e-6
-1.185, 7.960e-6
-1.186, 7.960e-6
-1.187, 8.019e-6
-1.188, 8.009e-6
-1.189, 8.019e-6
-1.190, 8.019e-6
-1.191, 7.970e-6
-1.192, 8.009e-6
-1.193, 8.009e-6
-1.194, 8.009e-6
-1.195, 7.871e-6
-1.196, 7.812e-6
-1.197, 8.039e-6
-1.198, 7.920e-6
-1.199, 7.891e-6
-1.200, 7.861e-6
-1.201, 7.841e-6
-1.202, 7.861e-6
-1.203, 7.861e-6
-1.204, 7.812e-6
-1.205, 7.822e-6
-1.206, 7.802e-6
-1.207, 7.911e-6
-1.208, 7.772e-6
-1.209, 7.782e-6
-1.210, 7.822e-6
-1.211, 7.684e-6
-1.212, 7.733e-6
-1.213, 7.782e-6
-1.214, 7.654e-6
-1.215, 7.693e-6
-1.216, 7.703e-6
-1.217, 7.871e-6
-1.218, 7.684e-6
-1.219, 7.664e-6
-1.220, 7.654e-6
-1.221, 7.634e-6
-1.222, 7.703e-6
-1.223, 7.565e-6
-1.224, 7.615e-6
-1.225, 7.664e-6
-1.226, 7.595e-6
-1.227, 7.486e-6
-1.228, 7.516e-6
-1.229, 7.615e-6
-1.230, 7.624e-6
-1.231, 7.703e-6
-1.232, 7.654e-6
-1.233, 7.526e-6
-1.234, 7.536e-6
-1.235, 7.664e-6
-1.236, 7.644e-6
-1.237, 7.545e-6
-1.238, 7.486e-6
-1.239, 7.457e-6
-1.240, 7.437e-6
-1.241, 7.437e-6
-1.242, 7.575e-6
-1.243, 7.476e-6
-1.244, 7.486e-6
-1.245, 7.467e-6
-1.246, 7.358e-6
-1.247, 7.457e-6
-1.248, 7.447e-6
-1.249, 7.427e-6
-1.250, 7.397e-6
-1.251, 7.407e-6
-1.252, 7.388e-6
-1.253, 7.328e-6
-1.254, 7.299e-6
-1.255, 7.447e-6
-1.256, 7.250e-6
-1.257, 7.309e-6
-1.258, 7.348e-6
-1.259, 7.388e-6
-1.260, 7.269e-6
-1.261, 7.309e-6
-1.262, 7.397e-6
-1.263, 7.210e-6
-1.264, 7.309e-6
-1.265, 7.289e-6
-1.266, 7.190e-6
-1.267, 7.279e-6
-1.268, 7.240e-6
-1.269, 7.240e-6
-1.270, 7.250e-6
-1.271, 7.240e-6
-1.272, 7.180e-6
-1.273, 7.180e-6
-1.274, 7.131e-6
-1.275, 7.141e-6
-1.276, 7.111e-6
-1.277, 7.111e-6
-1.278, 7.082e-6
-1.279, 7.171e-6
-1.280, 7.210e-6
-1.281, 7.171e-6
-1.282, 7.151e-6
-1.283, 7.210e-6
-1.284, 7.121e-6
-1.285, 7.131e-6
-1.286, 7.082e-6
-1.287, 7.180e-6
-1.288, 7.082e-6
-1.289, 7.062e-6
-1.290, 7.052e-6
-1.291, 7.062e-6
-1.292, 7.151e-6
-1.293, 7.141e-6
-1.294, 7.151e-6
-1.295, 7.131e-6
-1.296, 7.102e-6
-1.297, 7.032e-6
-1.298, 7.092e-6
-1.299, 7.092e-6
-1.300, 7.052e-6
-1.301, 6.993e-6
-1.302, 7.131e-6
-1.303, 7.072e-6
-1.304, 7.023e-6
-1.305, 7.082e-6
-1.306, 7.102e-6
-1.307, 7.082e-6
-1.308, 7.102e-6
-1.309, 7.082e-6
-1.310, 7.131e-6
-1.311, 7.052e-6
-1.312, 7.131e-6
-1.313, 7.092e-6
-1.314, 7.013e-6
-1.315, 7.092e-6
-1.316, 7.042e-6
-1.317, 6.993e-6
-1.318, 7.082e-6
-1.319, 7.082e-6
-1.320, 7.151e-6
-1.321, 7.121e-6
-1.322, 7.259e-6
-1.323, 7.161e-6
-1.324, 7.141e-6
-1.325, 7.171e-6
-1.326, 7.102e-6
-1.327, 7.279e-6
-1.328, 7.171e-6
-1.329, 7.180e-6
-1.330, 7.180e-6
-1.331, 7.259e-6
-1.332, 7.378e-6
-1.333, 7.259e-6
-1.334, 7.269e-6
-1.335, 7.358e-6
-1.336, 7.338e-6
-1.337, 7.328e-6
-1.338, 7.299e-6
-1.339, 7.328e-6
-1.340, 7.368e-6
-1.341, 7.289e-6
-1.342, 7.447e-6
-1.343, 7.378e-6
-1.344, 7.427e-6
-1.345, 7.437e-6
-1.346, 7.427e-6
-1.347, 7.526e-6
-1.348, 7.565e-6
-1.349, 7.605e-6
-1.350, 7.565e-6
-1.351, 7.476e-6
-1.352, 7.555e-6
-1.353, 7.634e-6
-1.354, 7.693e-6
-1.355, 7.624e-6
-1.356, 7.644e-6
-1.357, 7.753e-6
-1.358, 7.841e-6
-1.359, 7.861e-6
-1.360, 7.733e-6
-1.361, 7.861e-6
-1.362, 7.911e-6
-1.363, 7.999e-6
-1.364, 8.009e-6
-1.365, 7.930e-6
-1.366, 7.950e-6
-1.367, 8.059e-6
-1.368, 7.980e-6
-1.369, 8.187e-6
-1.370, 8.197e-6
-1.371, 8.137e-6
-1.372, 8.266e-6
-1.373, 8.354e-6
-1.374, 8.305e-6
-1.375, 8.325e-6
-1.376, 8.276e-6
-1.377, 8.542e-6
-1.378, 8.483e-6
-1.379, 8.552e-6
-1.380, 8.572e-6
-1.381, 8.591e-6
-1.382, 8.690e-6
-1.383, 8.749e-6
-1.384, 8.818e-6
-1.385, 8.897e-6
-1.386, 8.946e-6
-1.387, 9.085e-6
-1.388, 8.996e-6
-1.389, 9.055e-6
-1.390, 9.193e-6
-1.391, 9.203e-6
-1.392, 9.321e-6
-1.393, 9.292e-6
-1.394, 9.331e-6
-1.395, 9.479e-6
-1.396, 9.430e-6
-1.397, 9.627e-6
-1.398, 9.637e-6
-1.399, 9.726e-6
-1.400, 9.706e-6
-1.401, 9.795e-6
-1.402, 9.973e-6
-1.403, 1.007e-5
-1.404, 1.006e-5
-1.405, 1.006e-5
-1.406, 1.017e-5
-1.407, 1.031e-5
-1.408, 1.041e-5
-1.409, 1.041e-5
-1.410, 1.043e-5
-1.411, 1.052e-5
-1.412, 1.074e-5
-1.413, 1.069e-5
-1.414, 1.075e-5
-1.415, 1.089e-5
-1.416, 1.093e-5
-1.417, 1.106e-5
-1.418, 1.109e-5
-1.419, 1.118e-5
-1.420, 1.118e-5
-1.421, 1.127e-5
-1.422, 1.148e-5
-1.423, 1.156e-5
-1.424, 1.157e-5
-1.425, 1.159e-5
-1.426, 1.173e-5
-1.427, 1.192e-5
-1.428, 1.189e-5
-1.429, 1.202e-5
-1.430, 1.214e-5
-1.431, 1.226e-5
-1.432, 1.228e-5
-1.433, 1.247e-5
-1.434, 1.259e-5
-1.435, 1.261e-5
-1.436, 1.274e-5
-1.437, 1.287e-5
-1.438, 1.291e-5
-1.439, 1.300e-5
-1.440, 1.315e-5
-1.441, 1.325e-5
-1.442, 1.340e-5
-1.443, 1.347e-5
-1.444, 1.355e-5
-1.445, 1.366e-5
-1.446, 1.373e-5
-1.447, 1.391e-5
-1.448, 1.399e-5
-1.449, 1.402e-5
-1.450, 1.416e-5
-1.451, 1.416e-5
-1.452, 1.443e-5
-1.453, 1.450e-5
-1.454, 1.460e-5
-1.455, 1.478e-5
-1.456, 1.483e-5
-1.457, 1.502e-5
-1.458, 1.506e-5
-1.459, 1.513e-5
-1.460, 1.525e-5
-1.461, 1.539e-5
-1.462, 1.551e-5
-1.463, 1.568e-5
-1.464, 1.569e-5
-1.465, 1.582e-5
-1.466, 1.593e-5
-1.467, 1.613e-5
-1.468, 1.621e-5
-1.469, 1.635e-5
-1.470, 1.639e-5
-1.471, 1.647e-5
-1.472, 1.662e-5
-1.473, 1.692e-5
-1.474, 1.692e-5
-1.475, 1.701e-5
-1.476, 1.719e-5
-1.477, 1.731e-5
-1.478, 1.742e-5
-1.479, 1.753e-5
-1.480, 1.760e-5
-1.481, 1.762e-5
-1.482, 1.780e-5
-1.483, 1.780e-5
-1.484, 1.798e-5
-1.485, 1.815e-5
-1.486, 1.814e-5
-1.487, 1.836e-5
-1.488, 1.851e-5
-1.489, 1.850e-5
-1.490, 1.859e-5
-1.491, 1.882e-5
-1.492, 1.901e-5
-1.493, 1.910e-5
-1.494, 1.924e-5
-1.495, 1.938e-5
-1.496, 1.950e-5
-1.497, 1.964e-5
-1.498, 1.984e-5
-1.499, 1.979e-5
-1.500, 1.990e-5
-1.501, 2.009e-5
-1.502, 2.034e-5
-1.503, 2.046e-5
-1.504, 2.047e-5
-1.505, 2.070e-5
-1.506, 2.080e-5
-1.507, 2.100e-5
-1.508, 2.108e-5
-1.509, 2.119e-5
-1.510, 2.134e-5
-1.511, 2.156e-5
-1.512, 2.170e-5
-1.513, 2.180e-5
-1.514, 2.199e-5
-1.515, 2.199e-5
-1.516, 2.210e-5
-1.517, 2.238e-5
-1.518, 2.246e-5
-1.519, 2.260e-5
-1.520, 2.276e-5
-1.521, 2.298e-5
-1.522, 2.317e-5
-1.523, 2.333e-5
-1.524, 2.361e-5
-1.525, 2.365e-5
-1.526, 2.377e-5
-1.527, 2.405e-5
-1.528, 2.419e-5
-1.529, 2.426e-5
-1.530, 2.450e-5
-1.531, 2.459e-5
-1.532, 2.496e-5
-1.533, 2.502e-5
-1.534, 2.511e-5
-1.535, 2.534e-5
-1.536, 2.553e-5
-1.537, 2.579e-5
-1.538, 2.598e-5
-1.539, 2.621e-5
-1.540, 2.638e-5
-1.541, 2.645e-5
-1.542, 2.680e-5
-1.543, 2.708e-5
-1.544, 2.715e-5
-1.545, 2.728e-5
-1.546, 2.761e-5
-1.547, 2.789e-5
-1.548, 2.806e-5
-1.549, 2.831e-5
-1.550, 2.847e-5
-1.551, 2.876e-5
-1.552, 2.904e-5
-1.553, 2.921e-5
-1.554, 2.933e-5
-1.555, 2.970e-5
-1.556, 2.989e-5
-1.557, 3.019e-5
-1.558, 3.044e-5
-1.559, 3.071e-5
-1.560, 3.083e-5
-1.561, 3.121e-5
-1.562, 3.158e-5
-1.563, 3.180e-5
-1.564, 3.203e-5
-1.565, 3.235e-5
-1.566, 3.261e-5
-1.567, 3.298e-5
-1.568, 3.325e-5
-1.569, 3.348e-5
-1.570, 3.383e-5
-1.571, 3.416e-5
-1.572, 3.448e-5
-1.573, 3.477e-5
-1.574, 3.515e-5
-1.575, 3.552e-5
-1.576, 3.605e-5
-1.577, 3.644e-5
-1.578, 3.683e-5
-1.579, 3.716e-5
-1.580, 3.744e-5
-1.581, 3.796e-5
-1.582, 3.846e-5
-1.583, 3.870e-5
-1.584, 3.919e-5
-1.585, 3.951e-5
-1.586, 4.003e-5
-1.587, 4.063e-5
-1.588, 4.097e-5
-1.589, 4.146e-5
-1.590, 4.187e-5
-1.591, 4.229e-5
-1.592, 4.291e-5
-1.593, 4.342e-5
-1.594, 4.389e-5
-1.595, 4.433e-5
-1.596, 4.474e-5
-1.597, 4.560e-5
-1.598, 4.611e-5
-1.599, 4.658e-5
-1.600, 4.724e-5
-1.601, 4.792e-5
-1.602, 4.859e-5
-1.603, 4.932e-5
-1.604, 5.004e-5
-1.605, 5.054e-5
-1.606, 5.130e-5
-1.607, 5.219e-5
-1.608, 5.280e-5
-1.609, 5.363e-5
-1.610, 5.422e-5
-1.611, 5.507e-5
-1.612, 5.598e-5
-1.613, 5.686e-5
-1.614, 5.767e-5
-1.615, 5.846e-5
-1.616, 5.941e-5
-1.617, 6.057e-5
-1.618, 6.133e-5
-1.619, 6.233e-5
-1.620, 6.333e-5
-1.621, 6.431e-5
-1.622, 6.548e-5
-1.623, 6.649e-5
-1.624, 6.753e-5
-1.625, 6.882e-5
-1.626, 7.011e-5
-1.627, 7.156e-5
-1.628, 7.270e-5
-1.629, 7.396e-5
-1.630, 7.529e-5
-1.631, 7.667e-5
-1.632, 7.821e-5
-1.633, 7.971e-5
-1.634, 8.121e-5
-1.635, 8.272e-5
-1.636, 8.424e-5
-1.637, 8.606e-5
-1.638, 8.761e-5
-1.639, 8.947e-5
-1.640, 9.110e-5
-1.641, 9.282e-5
-1.642, 9.481e-5
-1.643, 9.676e-5
-1.644, 9.871e-5
-1.645, 1.008e-4
-1.646, 1.027e-4
-1.647, 1.050e-4
-1.648, 1.070e-4
-1.649, 1.092e-4
-1.650, 1.114e-4
-1.651, 1.140e-4
-1.652, 1.164e-4
-1.653, 1.188e-4
-1.654, 1.216e-4
-1.655, 1.241e-4
-1.656, 1.269e-4
-1.657, 1.297e-4
-1.658, 1.326e-4
-1.659, 1.354e-4
-1.660, 1.385e-4
-1.661, 1.416e-4
-1.662, 1.449e-4
-1.663, 1.482e-4
-1.664, 1.516e-4
-1.665, 1.552e-4
-1.666, 1.587e-4
-1.667, 1.625e-4
-1.668, 1.661e-4
-1.669, 1.700e-4
-1.670, 1.739e-4
-1.671, 1.780e-4
-1.672, 1.823e-4
-1.673, 1.867e-4
-1.674, 1.912e-4
-1.675, 1.955e-4
-1.676, 2.002e-4
-1.677, 2.050e-4
-1.678, 2.098e-4
-1.679, 2.148e-4
-1.680, 2.196e-4
-1.681, 2.248e-4
-1.682, 2.303e-4
-1.683, 2.356e-4
-1.684, 2.413e-4
-1.685, 2.471e-4
-1.686, 2.530e-4
-1.687, 2.593e-4
-1.688, 2.657e-4
-1.689, 2.720e-4
-1.690, 2.788e-4
-1.691, 2.857e-4
-1.692, 2.929e-4
-1.693, 2.999e-4
-1.694, 3.072e-4
-1.695, 3.145e-4
-1.696, 3.223e-4
-1.697, 3.302e-4
-1.698, 3.381e-4
-1.699, 3.461e-4
-1.700, 3.545e-4
-1.701, 3.628e-4
-1.702, 3.719e-4
-1.703, 3.813e-4
-1.704, 3.903e-4
-1.705, 3.995e-4
-1.706, 4.090e-4
-1.707, 4.189e-4
-1.708, 4.289e-4
-1.709, 4.391e-4
-1.710, 4.494e-4
-1.711, 4.598e-4
-1.712, 4.704e-4
-1.713, 4.814e-4
-1.714, 4.926e-4
-1.715, 5.042e-4
-1.716, 5.164e-4
-1.717, 5.287e-4
-1.718, 5.415e-4
-1.719, 5.540e-4
-1.720, 5.668e-4
-1.721, 5.797e-4
-1.722, 5.930e-4
-1.723, 6.064e-4
-1.724, 6.201e-4
-1.725, 6.341e-4
-1.726, 6.485e-4
-1.727, 6.638e-4
-1.728, 6.786e-4
-1.729, 6.944e-4
-1.730, 7.097e-4
-1.731, 7.258e-4
-1.732, 7.423e-4
-1.733, 7.597e-4
-1.734, 7.764e-4
-1.735, 7.933e-4
-1.736, 8.096e-4
-1.737, 8.281e-4
-1.738, 8.462e-4
-1.739, 8.639e-4
-1.740, 8.825e-4
-1.741, 9.022e-4
-1.742, 9.231e-4
-1.743, 9.428e-4
-1.744, 9.623e-4
-1.745, 9.812e-4
-1.746, 1.002e-3
-1.747, 1.023e-3
-1.748, 1.043e-3
-1.749, 1.065e-3
-1.750, 1.087e-3
-1.751, 1.110e-3
-1.752, 1.133e-3
-1.753, 1.155e-3
-1.754, 1.178e-3
-1.755, 1.202e-3
-1.756, 1.224e-3
-1.757, 1.248e-3
-1.758, 1.274e-3
-1.759, 1.299e-3
-1.760, 1.325e-3
-1.761, 1.350e-3
-1.762, 1.377e-3
-1.763, 1.404e-3
-1.764, 1.429e-3
-1.765, 1.455e-3
-1.766, 1.485e-3
-1.767, 1.514e-3
-1.768, 1.542e-3
-1.769, 1.570e-3
-1.770, 1.599e-3
-1.771, 1.628e-3
-1.772, 1.660e-3
-1.773, 1.689e-3
-1.774, 1.724e-3
-1.775, 1.755e-3
-1.776, 1.787e-3
-1.777, 1.819e-3
-1.778, 1.851e-3
-1.779, 1.883e-3
-1.780, 1.915e-3
-1.781, 1.948e-3
-1.782, 1.982e-3
-1.783, 2.017e-3
-1.784, 2.052e-3
-1.785, 2.084e-3
-1.786, 2.117e-3
-1.787, 2.155e-3
-1.788, 2.192e-3
-1.789, 2.225e-3
-1.790, 2.262e-3
-1.791, 2.305e-3
-1.792, 2.345e-3
-1.793, 2.378e-3
-1.794, 2.416e-3
-1.795, 2.455e-3
-1.796, 2.495e-3
-1.797, 2.533e-3
-1.798, 2.572e-3
-1.799, 2.612e-3
-1.800, 2.655e-3
-1.801, 2.698e-3
-1.802, 2.739e-3
-1.803, 2.780e-3
-1.804, 2.827e-3
-1.805, 2.868e-3
-1.806, 2.905e-3
-1.807, 2.948e-3
-1.808, 2.992e-3
-1.809, 3.035e-3
-1.810, 3.076e-3
-1.811, 3.120e-3
-1.812, 3.167e-3
-1.813, 3.215e-3
-1.814, 3.257e-3
-1.815, 3.301e-3
-1.816, 3.347e-3
-1.817, 3.394e-3
-1.818, 3.435e-3
-1.819, 3.479e-3
-1.820, 3.533e-3
-1.821, 3.584e-3
-1.822, 3.628e-3
-1.823, 3.676e-3
-1.824, 3.726e-3
-1.825, 3.780e-3
-1.826, 3.829e-3
-1.827, 3.873e-3
-1.828, 3.919e-3
-1.829, 3.968e-3
-1.830, 4.012e-3
-1.831, 4.062e-3
-1.832, 4.108e-3
-1.833, 4.162e-3
-1.834, 4.211e-3
-1.835, 4.258e-3
-1.836, 4.310e-3
-1.837, 4.359e-3
-1.838, 4.412e-3
-1.839, 4.460e-3
-1.840, 4.509e-3
-1.841, 4.567e-3
-1.842, 4.617e-3
-1.843, 4.659e-3
-1.844, 4.703e-3
-1.845, 4.756e-3
-1.846, 4.814e-3
-1.847, 4.878e-3
-1.848, 4.927e-3
-1.849, 4.983e-3
-1.850, 5.030e-3
-1.851, 5.072e-3
-1.852, 5.107e-3
-1.853, 5.158e-3
-1.854, 5.221e-3
-1.855, 5.277e-3
-1.856, 5.321e-3
-1.857, 5.377e-3
-1.858, 5.437e-3
-1.859, 5.479e-3
-1.860, 5.519e-3
-1.861, 5.565e-3
-1.862, 5.633e-3
-1.863, 5.695e-3
-1.864, 5.742e-3
-1.865, 5.782e-3
-1.866, 5.837e-3
-1.867, 5.892e-3
-1.868, 5.941e-3
-1.869, 5.995e-3
-1.870, 6.055e-3
-1.871, 6.105e-3
-1.872, 6.144e-3
-1.873, 6.206e-3
-1.874, 6.263e-3
-1.875, 6.307e-3
-1.876, 6.332e-3
-1.877, 6.412e-3
-1.878, 6.496e-3
-1.879, 6.539e-3
-1.880, 6.585e-3
-1.881, 6.651e-3
-1.882, 6.729e-3
-1.883, 6.787e-3
-1.884, 6.813e-3
-1.885, 6.854e-3
-1.886, 6.919e-3
-1.887, 6.982e-3
-1.888, 7.017e-3
-1.889, 7.045e-3
-1.890, 7.098e-3
-1.891, 7.154e-3
-1.892, 7.197e-3
-1.893, 7.231e-3
-1.894, 7.290e-3
-1.895, 7.357e-3
-1.896, 7.403e-3
-1.897, 7.463e-3
-1.898, 7.580e-3
-1.899, 7.639e-3
-1.900, 7.643e-3
-1.899, 7.557e-3
-1.898, 7.496e-3
-1.897, 7.455e-3
-1.896, 7.399e-3
-1.895, 7.318e-3
-1.894, 7.235e-3
-1.893, 7.169e-3
-1.892, 7.122e-3
-1.891, 7.040e-3
-1.890, 6.954e-3
-1.889, 6.932e-3
-1.888, 6.907e-3
-1.887, 6.834e-3
-1.886, 6.772e-3
-1.885, 6.715e-3
-1.884, 6.662e-3
-1.883, 6.604e-3
-1.882, 6.556e-3
-1.881, 6.530e-3
-1.880, 6.487e-3
-1.879, 6.451e-3
-1.878, 6.406e-3
-1.877, 6.332e-3
-1.876, 6.275e-3
-1.875, 6.217e-3
-1.874, 6.172e-3
-1.873, 6.118e-3
-1.872, 6.053e-3
-1.871, 5.992e-3
-1.870, 5.930e-3
-1.869, 5.872e-3
-1.868, 5.817e-3
-1.867, 5.761e-3
-1.866, 5.689e-3
-1.865, 5.636e-3
-1.864, 5.586e-3
-1.863, 5.534e-3
-1.862, 5.474e-3
-1.861, 5.418e-3
-1.860, 5.364e-3
-1.859, 5.319e-3
-1.858, 5.289e-3
-1.857, 5.224e-3
-1.856, 5.172e-3
-1.855, 5.120e-3
-1.854, 5.080e-3
-1.853, 5.051e-3
-1.852, 5.013e-3
-1.851, 4.974e-3
-1.850, 4.906e-3
-1.849, 4.845e-3
-1.848, 4.783e-3
-1.847, 4.746e-3
-1.846, 4.732e-3
-1.845, 4.708e-3
-1.844, 4.670e-3
-1.843, 4.622e-3
-1.842, 4.612e-3
-1.841, 4.558e-3
-1.840, 4.499e-3
-1.839, 4.453e-3
-1.838, 4.411e-3
-1.837, 4.361e-3
-1.836, 4.302e-3
-1.835, 4.256e-3
-1.834, 4.222e-3
-1.833, 4.185e-3
-1.832, 4.155e-3
-1.831, 4.108e-3
-1.830, 4.070e-3
-1.829, 4.027e-3
-1.828, 3.982e-3
-1.827, 3.948e-3
-1.826, 3.906e-3
-1.825, 3.869e-3
-1.824, 3.823e-3
-1.823, 3.779e-3
-1.822, 3.756e-3
-1.821, 3.741e-3
-1.820, 3.702e-3
-1.819, 3.655e-3
-1.818, 3.615e-3
-1.817, 3.574e-3
-1.816, 3.530e-3
-1.815, 3.491e-3
-1.814, 3.460e-3
-1.813, 3.429e-3
-1.812, 3.390e-3
-1.811, 3.352e-3
-1.810, 3.320e-3
-1.809, 3.284e-3
-1.808, 3.246e-3
-1.807, 3.202e-3
-1.806, 3.164e-3
-1.805, 3.133e-3
-1.804, 3.100e-3
-1.803, 3.063e-3
-1.802, 3.028e-3
-1.801, 2.996e-3
-1.800, 2.960e-3
-1.799, 2.922e-3
-1.798, 2.888e-3
-1.797, 2.857e-3
-1.796, 2.825e-3
-1.795, 2.791e-3
-1.794, 2.758e-3
-1.793, 2.727e-3
-1.792, 2.692e-3
-1.791, 2.654e-3
-1.790, 2.620e-3
-1.789, 2.588e-3
-1.788, 2.555e-3
-1.787, 2.522e-3
-1.786, 2.490e-3
-1.785, 2.462e-3
-1.784, 2.438e-3
-1.783, 2.412e-3
-1.782, 2.379e-3
-1.781, 2.343e-3
-1.780, 2.310e-3
-1.779, 2.290e-3
-1.778, 2.265e-3
-1.777, 2.237e-3
-1.776, 2.218e-3
-1.775, 2.194e-3
-1.774, 2.164e-3
-1.773, 2.138e-3
-1.772, 2.111e-3
-1.771, 2.083e-3
-1.770, 2.054e-3
-1.769, 2.027e-3
-1.768, 2.002e-3
-1.767, 1.979e-3
-1.766, 1.953e-3
-1.765, 1.925e-3
-1.764, 1.899e-3
-1.763, 1.874e-3
-1.762, 1.847e-3
-1.761, 1.821e-3
-1.760, 1.797e-3
-1.759, 1.775e-3
-1.758, 1.752e-3
-1.757, 1.724e-3
-1.756, 1.700e-3
-1.755, 1.677e-3
-1.754, 1.653e-3
-1.753, 1.630e-3
-1.752, 1.607e-3
-1.751, 1.585e-3
-1.750, 1.565e-3
-1.749, 1.542e-3
-1.748, 1.519e-3
-1.747, 1.496e-3
-1.746, 1.474e-3
-1.745, 1.451e-3
-1.744, 1.431e-3
-1.743, 1.410e-3
-1.742, 1.392e-3
-1.741, 1.371e-3
-1.740, 1.350e-3
-1.739, 1.329e-3
-1.738, 1.310e-3
-1.737, 1.291e-3
-1.736, 1.270e-3
-1.735, 1.251e-3
-1.734, 1.230e-3
-1.733, 1.213e-3
-1.732, 1.196e-3
-1.731, 1.177e-3
-1.730, 1.159e-3
-1.729, 1.141e-3
-1.728, 1.124e-3
-1.727, 1.106e-3
-1.726, 1.089e-3
-1.725, 1.072e-3
-1.724, 1.055e-3
-1.723, 1.038e-3
-1.722, 1.021e-3
-1.721, 1.004e-3
-1.720, 9.893e-4
-1.719, 9.727e-4
-1.718, 9.560e-4
-1.717, 9.417e-4
-1.716, 9.252e-4
-1.715, 9.091e-4
-1.714, 8.948e-4
-1.713, 8.803e-4
-1.712, 8.654e-4
-1.711, 8.520e-4
-1.710, 8.356e-4
-1.709, 8.223e-4
-1.708, 8.069e-4
-1.707, 7.932e-4
-1.706, 7.802e-4
-1.705, 7.659e-4
-1.704, 7.527e-4
-1.703, 7.401e-4
-1.702, 7.282e-4
-1.701, 7.144e-4
-1.700, 7.006e-4
-1.699, 6.893e-4
-1.698, 6.778e-4
-1.697, 6.673e-4
-1.696, 6.539e-4
-1.695, 6.427e-4
-1.694, 6.305e-4
-1.693, 6.193e-4
-1.692, 6.105e-4
-1.691, 5.982e-4
-1.690, 5.873e-4
-1.689, 5.770e-4
-1.688, 5.649e-4
-1.687, 5.549e-4
-1.686, 5.455e-4
-1.685, 5.335e-4
-1.684, 5.242e-4
-1.683, 5.155e-4
-1.682, 5.055e-4
-1.681, 4.960e-4
-1.680, 4.864e-4
-1.679, 4.772e-4
-1.678, 4.672e-4
-1.677, 4.590e-4
-1.676, 4.500e-4
-1.675, 4.417e-4
-1.674, 4.329e-4
-1.673, 4.239e-4
-1.672, 4.158e-4
-1.671, 4.073e-4
-1.670, 3.996e-4
-1.669, 3.919e-4
-1.668, 3.840e-4
-1.667, 3.763e-4
-1.666, 3.687e-4
-1.665, 3.612e-4
-1.664, 3.542e-4
-1.663, 3.470e-4
-1.662, 3.403e-4
-1.661, 3.328e-4
-1.660, 3.261e-4
-1.659, 3.199e-4
-1.658, 3.127e-4
-1.657, 3.064e-4
-1.656, 3.001e-4
-1.655, 2.939e-4
-1.654, 2.878e-4
-1.653, 2.818e-4
-1.652, 2.755e-4
-1.651, 2.698e-4
-1.650, 2.637e-4
-1.649, 2.582e-4
-1.648, 2.522e-4
-1.647, 2.469e-4
-1.646, 2.418e-4
-1.645, 2.361e-4
-1.644, 2.315e-4
-1.643, 2.263e-4
-1.642, 2.214e-4
-1.641, 2.168e-4
-1.640, 2.118e-4
-1.639, 2.072e-4
-1.638, 2.027e-4
-1.637, 1.994e-4
-1.636, 1.945e-4
-1.635, 1.897e-4
-1.634, 1.844e-4
-1.633, 1.803e-4
-1.632, 1.761e-4
-1.631, 1.724e-4
-1.630, 1.680e-4
-1.629, 1.647e-4
-1.628, 1.606e-4
-1.627, 1.576e-4
-1.626, 1.534e-4
-1.625, 1.500e-4
-1.624, 1.465e-4
-1.623, 1.432e-4
-1.622, 1.401e-4
-1.621, 1.366e-4
-1.620, 1.335e-4
-1.619, 1.305e-4
-1.618, 1.275e-4
-1.617, 1.245e-4
-1.616, 1.216e-4
-1.615, 1.186e-4
-1.614, 1.160e-4
-1.613, 1.130e-4
-1.612, 1.104e-4
-1.611, 1.078e-4
-1.610, 1.053e-4
-1.609, 1.028e-4
-1.608, 1.004e-4
-1.607, 9.804e-5
-1.606, 9.583e-5
-1.605, 9.329e-5
-1.604, 9.131e-5
-1.603, 8.978e-5
-1.602, 8.792e-5
-1.601, 8.527e-5
-1.600, 8.262e-5
-1.599, 8.069e-5
-1.598, 7.880e-5
-1.597, 7.714e-5
-1.596, 7.527e-5
-1.595, 7.333e-5
-1.594, 7.164e-5
-1.593, 6.995e-5
-1.592, 6.855e-5
-1.591, 6.706e-5
-1.590, 6.538e-5
-1.589, 6.365e-5
-1.588, 6.158e-5
-1.587, 5.999e-5
-1.586, 5.858e-5
-1.585, 5.715e-5
-1.584, 5.602e-5
-1.583, 5.528e-5
-1.582, 5.403e-5
-1.581, 5.255e-5
-1.580, 5.079e-5
-1.579, 4.960e-5
-1.578, 4.840e-5
-1.577, 4.699e-5
-1.576, 4.595e-5
-1.575, 4.490e-5
-1.574, 4.389e-5
-1.573, 4.286e-5
-1.572, 4.173e-5
-1.571, 4.043e-5
-1.570, 3.922e-5
-1.569, 3.849e-5
-1.568, 3.777e-5
-1.567, 3.679e-5
-1.566, 3.577e-5
-1.565, 3.487e-5
-1.564, 3.411e-5
-1.563, 3.331e-5
-1.562, 3.228e-5
-1.561, 3.151e-5
-1.560, 3.075e-5
-1.559, 3.007e-5
-1.558, 2.927e-5
-1.557, 2.857e-5
-1.556, 2.784e-5
-1.555, 2.710e-5
-1.554, 2.632e-5
-1.553, 2.552e-5
-1.552, 2.487e-5
-1.551, 2.431e-5
-1.550, 2.347e-5
-1.549, 2.279e-5
-1.548, 2.217e-5
-1.547, 2.156e-5
-1.546, 2.101e-5
-1.545, 2.043e-5
-1.544, 1.985e-5
-1.543, 1.927e-5
-1.542, 1.878e-5
-1.541, 1.826e-5
-1.540, 1.773e-5
-1.539, 1.732e-5
-1.538, 1.687e-5
-1.537, 1.642e-5
-1.536, 1.580e-5
-1.535, 1.533e-5
-1.534, 1.501e-5
-1.533, 1.459e-5
-1.532, 1.411e-5
-1.531, 1.385e-5
-1.530, 1.333e-5
-1.529, 1.319e-5
-1.528, 1.274e-5
-1.527, 1.241e-5
-1.526, 1.193e-5
-1.525, 1.156e-5
-1.524, 1.129e-5
-1.523, 1.089e-5
-1.522, 1.058e-5
-1.521, 1.033e-5
-1.520, 9.884e-6
-1.519, 9.706e-6
-1.518, 9.410e-6
-1.517, 9.144e-6
-1.516, 8.779e-6
-1.515, 8.414e-6
-1.514, 8.256e-6
-1.513, 8.039e-6
-1.512, 7.723e-6
-1.511, 7.476e-6
-1.510, 7.042e-6
-1.509, 7.023e-6
-1.508, 6.658e-6
-1.507, 6.421e-6
-1.506, 6.223e-6
-1.505, 6.066e-6
-1.504, 5.779e-6
-1.503, 5.641e-6
-1.502, 5.365e-6
-1.501, 5.237e-6
-1.500, 4.911e-6
-1.499, 4.852e-6
-1.498, 4.566e-6
-1.497, 4.359e-6
-1.496, 4.231e-6
-1.495, 3.974e-6
-1.494, 3.856e-6
-1.493, 3.708e-6
-1.492, 3.510e-6
-1.491, 3.382e-6
-1.490, 3.185e-6
-1.489, 3.076e-6
-1.488, 2.899e-6
-1.487, 2.780e-6
-1.486, 2.662e-6
-1.485, 2.425e-6
-1.484, 2.307e-6
-1.483, 2.139e-6
-1.482, 1.912e-6
-1.481, 1.873e-6
-1.480, 1.695e-6
-1.479, 1.646e-6
-1.478, 1.468e-6
-1.477, 1.340e-6
-1.476, 1.202e-6
-1.475, 1.113e-6
-1.474, 1.024e-6
-1.473, 1.004e-6
-1.472, 6.788e-7
-1.471, 6.492e-7
-1.470, 5.209e-7
-1.469, 5.209e-7
-1.468, 3.631e-7
-1.467, 3.039e-7
-1.466, 2.447e-7
-1.465, -1.973e-9
-1.464, -2.171e-8
-1.463, -5.130e-8
-1.462, -2.388e-7
-1.461, -3.769e-7
-1.460, -4.657e-7
-1.459, -5.150e-7
-1.458, -5.249e-7
-1.457, -6.531e-7
-1.456, -6.630e-7
-1.455, -8.998e-7
-1.454, -8.899e-7
-1.453, -1.028e-6
-1.452, -1.018e-6
-1.451, -1.048e-6
-1.450, -1.265e-6
-1.449, -1.294e-6
-1.448, -1.294e-6
-1.447, -1.423e-6
-1.446, -1.442e-6
-1.445, -1.541e-6
-1.444, -1.561e-6
-1.443, -1.630e-6
-1.442, -1.788e-6
-1.441, -1.857e-6
-1.440, -1.946e-6
-1.439, -1.886e-6
-1.438, -1.975e-6
-1.437, -2.005e-6
-1.436, -2.192e-6
-1.435, -2.172e-6
-1.434, -2.222e-6
-1.433, -2.340e-6
-1.432, -2.311e-6
-1.431, -2.468e-6
-1.430, -2.636e-6
-1.429, -2.478e-6
-1.428, -2.695e-6
-1.427, -2.735e-6
-1.426, -2.705e-6
-1.425, -2.725e-6
-1.424, -2.764e-6
-1.423, -2.774e-6
-1.422, -2.942e-6
-1.421, -2.922e-6
-1.420, -3.011e-6
-1.419, -3.001e-6
-1.418, -2.991e-6
-1.417, -3.100e-6
-1.416, -3.159e-6
-1.415, -3.317e-6
-1.414, -3.169e-6
-1.413, -3.287e-6
-1.412, -3.347e-6
-1.411, -3.406e-6
-1.410, -3.386e-6
-1.409, -3.307e-6
-1.408, -3.465e-6
-1.407, -3.573e-6
-1.406, -3.623e-6
-1.405, -3.643e-6
-1.404, -3.603e-6
-1.403, -3.652e-6
-1.402, -3.702e-6
-1.401, -3.751e-6
-1.400, -3.800e-6
-1.399, -3.731e-6
-1.398, -3.731e-6
-1.397, -3.840e-6
-1.396, -3.840e-6
-1.395, -3.948e-6
-1.394, -3.889e-6
-1.393, -3.968e-6
-1.392, -4.037e-6
-1.391, -3.988e-6
-1.390, -3.998e-6
-1.389, -4.057e-6
-1.388, -4.057e-6
-1.387, -4.096e-6
-1.386, -4.136e-6
-1.385, -4.126e-6
-1.384, -4.156e-6
-1.383, -4.225e-6
-1.382, -4.333e-6
-1.381, -4.363e-6
-1.380, -4.363e-6
-1.379, -4.363e-6
-1.378, -4.333e-6
-1.377, -4.323e-6
-1.376, -4.452e-6
-1.375, -4.491e-6
-1.374, -4.402e-6
-1.373, -4.442e-6
-1.372, -4.560e-6
-1.371, -4.461e-6
-1.370, -4.540e-6
-1.369, -4.540e-6
-1.368, -4.619e-6
-1.367, -4.570e-6
-1.366, -4.609e-6
-1.365, -4.688e-6
-1.364, -4.530e-6
-1.363, -4.649e-6
-1.362, -4.718e-6
-1.361, -4.718e-6
-1.360, -4.777e-6
-1.359, -4.688e-6
-1.358, -4.866e-6
-1.357, -4.856e-6
-1.356, -4.915e-6
-1.355, -4.935e-6
-1.354, -4.895e-6
-1.353, -4.965e-6
-1.352, -5.004e-6
-1.351, -4.965e-6
-1.350, -4.994e-6
-1.349, -4.974e-6
-1.348, -4.915e-6
-1.347, -5.093e-6
-1.346, -5.132e-6
-1.345, -5.053e-6
-1.344, -5.063e-6
-1.343, -5.103e-6
-1.342, -5.113e-6
-1.341, -5.122e-6
-1.340, -5.162e-6
-1.339, -5.103e-6
-1.338, -5.211e-6
-1.337, -5.182e-6
-1.336, -5.142e-6
-1.335, -5.241e-6
-1.334, -5.182e-6
-1.333, -5.261e-6
-1.332, -5.339e-6
-1.331, -5.339e-6
-1.330, -5.478e-6
-1.329, -5.261e-6
-1.328, -5.438e-6
-1.327, -5.487e-6
-1.326, -5.448e-6
-1.325, -5.438e-6
-1.324, -5.389e-6
-1.323, -5.517e-6
-1.322, -5.527e-6
-1.321, -5.557e-6
-1.320, -5.606e-6
-1.319, -5.458e-6
-1.318, -5.655e-6
-1.317, -5.616e-6
-1.316, -5.635e-6
-1.315, -5.675e-6
-1.314, -5.576e-6
-1.313, -5.645e-6
-1.312, -5.645e-6
-1.311, -5.685e-6
-1.310, -5.675e-6
-1.309, -5.655e-6
-1.308, -5.675e-6
-1.307, -5.675e-6
-1.306, -5.783e-6
-1.305, -5.862e-6
-1.304, -5.783e-6
-1.303, -5.872e-6
-1.302, -5.862e-6
-1.301, -5.882e-6
-1.300, -6.010e-6
-1.299, -5.793e-6
-1.298, -5.961e-6
-1.297, -5.941e-6
-1.296, -5.941e-6
-1.295, -6.010e-6
-1.294, -5.941e-6
-1.293, -6.020e-6
-1.292, -6.030e-6
-1.291, -5.961e-6
-1.290, -6.099e-6
-1.289, -6.000e-6
-1.288, -6.040e-6
-1.287, -6.079e-6
-1.286, -6.208e-6
-1.285, -6.148e-6
-1.284, -6.119e-6
-1.283, -6.168e-6
-1.282, -6.198e-6
-1.281, -6.277e-6
-1.280, -6.356e-6
-1.279, -6.336e-6
-1.278, -6.237e-6
-1.277, -6.267e-6
-1.276, -6.415e-6
-1.275, -6.464e-6
-1.274, -6.287e-6
-1.273, -6.366e-6
-1.272, -6.474e-6
-1.271, -6.523e-6
-1.270, -6.533e-6
-1.269, -6.405e-6
-1.268, -6.553e-6
-1.267, -6.504e-6
-1.266, -6.523e-6
-1.265, -6.652e-6
-1.264, -6.592e-6
-1.263, -6.592e-6
-1.262, -6.583e-6
-1.261, -6.661e-6
-1.260, -6.691e-6
-1.259, -6.652e-6
-1.258, -6.681e-6
-1.257, -6.721e-6
-1.256, -6.809e-6
-1.255, -6.859e-6
-1.254, -6.819e-6
-1.253, -6.869e-6
-1.252, -6.967e-6
-1.251, -6.879e-6
-1.250, -7.027e-6
-1.249, -6.859e-6
-1.248, -7.007e-6
-1.247, -6.967e-6
-1.246, -7.007e-6
-1.245, -7.086e-6
-1.244, -7.046e-6
-1.243, -7.056e-6
-1.242, -7.096e-6
-1.241, -7.135e-6
-1.240, -7.175e-6
-1.239, -7.204e-6
-1.238, -7.293e-6
-1.237, -7.352e-6
-1.236, -7.313e-6
-1.235, -7.421e-6
-1.234, -7.342e-6
-1.233, -7.372e-6
-1.232, -7.362e-6
-1.231, -7.372e-6
-1.230, -7.480e-6
-1.229, -7.510e-6
-1.228, -7.589e-6
-1.227, -7.638e-6
-1.226, -7.678e-6
-1.225, -7.668e-6
-1.224, -7.569e-6
-1.223, -7.757e-6
-1.222, -7.747e-6
-1.221, -7.737e-6
-1.220, -7.747e-6
-1.219, -7.786e-6
-1.218, -7.786e-6
-1.217, -7.885e-6
-1.216, -7.954e-6
-1.215, -7.924e-6
-1.214, -7.845e-6
-1.213, -7.964e-6
-1.212, -8.013e-6
-1.211, -8.053e-6
-1.210, -8.003e-6
-1.209, -8.033e-6
-1.208, -8.072e-6
-1.207, -8.171e-6
-1.206, -8.151e-6
-1.205, -8.141e-6
-1.204, -8.230e-6
-1.203, -8.329e-6
-1.202, -8.289e-6
-1.201, -8.368e-6
-1.200, -8.437e-6
-1.199, -8.368e-6
-1.198, -8.437e-6
-1.197, -8.477e-6
-1.196, -8.536e-6
-1.195, -8.615e-6
-1.194, -8.516e-6
-1.193, -8.546e-6
-1.192, -8.526e-6
-1.191, -8.723e-6
-1.190, -8.812e-6
-1.189, -8.714e-6
-1.188, -8.832e-6
-1.187, -8.950e-6
-1.186, -8.941e-6
-1.185, -8.921e-6
-1.184, -8.881e-6
-1.183, -8.990e-6
-1.182, -9.019e-6
-1.181, -9.059e-6
-1.180, -9.098e-6
-1.179, -9.029e-6
-1.178, -9.177e-6
-1.177, -9.345e-6
-1.176, -9.434e-6
-1.175, -9.404e-6
-1.174, -9.463e-6
-1.173, -9.444e-6
-1.172, -9.582e-6
-1.171, -9.532e-6
-1.170, -9.552e-6
-1.169, -9.552e-6
-1.168, -9.641e-6
-1.167, -9.759e-6
-1.166, -9.720e-6
-1.165, -9.937e-6
-1.164, -9.917e-6
-1.163, -1.007e-5
-1.162, -1.002e-5
-1.161, -1.008e-5
-1.160, -1.013e-5
-1.159, -1.005e-5
-1.158, -1.021e-5
-1.157, -1.026e-5
-1.156, -1.035e-5
-1.155, -1.045e-5
-1.154, -1.038e-5
-1.153, -1.044e-5
-1.152, -1.055e-5
-1.151, -1.062e-5
-1.150, -1.069e-5
-1.149, -1.060e-5
-1.148, -1.085e-5
-1.147, -1.076e-5
-1.146, -1.088e-5
-1.145, -1.103e-5
-1.144, -1.109e-5
-1.143, -1.105e-5
-1.142, -1.120e-5
-1.141, -1.123e-5
-1.140, -1.130e-5
-1.139, -1.131e-5
-1.138, -1.140e-5
-1.137, -1.148e-5
-1.136, -1.154e-5
-1.135, -1.161e-5
-1.134, -1.166e-5
-1.133, -1.177e-5
-1.132, -1.178e-5
-1.131, -1.184e-5
-1.130, -1.196e-5
-1.129, -1.200e-5
-1.128, -1.210e-5
-1.127, -1.230e-5
-1.126, -1.235e-5
-1.125, -1.238e-5
-1.124, -1.242e-5
-1.123, -1.255e-5
-1.122, -1.245e-5
-1.121, -1.262e-5
-1.120, -1.271e-5
-1.119, -1.275e-5
-1.118, -1.287e-5
-1.117, -1.299e-5
-1.116, -1.298e-5
-1.115, -1.315e-5
-1.114, -1.314e-5
-1.113, -1.335e-5
-1.112, -1.334e-5
-1.111, -1.353e-5
-1.110, -1.359e-5
-1.109, -1.364e-5
-1.108, -1.371e-5
-1.107, -1.384e-5
-1.106, -1.386e-5
-1.105, -1.395e-5
-1.104, -1.402e-5
-1.103, -1.410e-5
-1.102, -1.413e-5
-1.101, -1.433e-5
-1.100, -1.448e-5
-1.099, -1.454e-5
-1.098, -1.464e-5
-1.097, -1.466e-5
-1.096, -1.474e-5
-1.095, -1.488e-5
-1.094, -1.484e-5
-1.093, -1.492e-5
-1.092, -1.495e-5
-1.091, -1.520e-5
-1.090, -1.528e-5
-1.089, -1.529e-5
-1.088, -1.545e-5
-1.087, -1.558e-5
-1.086, -1.559e-5
-1.085, -1.575e-5
-1.084, -1.576e-5
-1.083, -1.591e-5
-1.082, -1.596e-5
-1.081, -1.610e-5
-1.080, -1.619e-5
-1.079, -1.620e-5
-1.078, -1.637e-5
-1.077, -1.644e-5
-1.076, -1.656e-5
-1.075, -1.672e-5
-1.074, -1.669e-5
-1.073, -1.687e-5
-1.072, -1.684e-5
-1.071, -1.695e-5
-1.070, -1.701e-5
-1.069, -1.714e-5
-1.068, -1.731e-5
-1.067, -1.737e-5
-1.066, -1.743e-5
-1.065, -1.760e-5
-1.064, -1.760e-5
-1.063, -1.764e-5
-1.062, -1.767e-5
-1.061, -1.784e-5
-1.060, -1.793e-5
-1.059, -1.800e-5
-1.058, -1.816e-5
-1.057, -1.818e-5
-1.056, -1.826e-5
-1.055, -1.842e-5
-1.054, -1.843e-5
-1.053, -1.849e-5
-1.052, -1.849e-5
-1.051, -1.863e-5
-1.050, -1.884e-5
-1.049, -1.884e-5
-1.048, -1.885e-5
-1.047, -1.892e-5
-1.046, -1.899e-5
-1.045, -1.914e-5
-1.044, -1.912e-5
-1.043, -1.927e-5
-1.042, -1.930e-5
-1.041, -1.950e-5
-1.040, -1.958e-5
-1.039, -1.954e-5
-1.038, -1.946e-5
-1.037, -1.967e-5
-1.036, -1.975e-5
-1.035, -1.974e-5
-1.034, -1.979e-5
-1.033, -1.994e-5
-1.032, -1.995e-5
-1.031, -2.011e-5
-1.030, -2.014e-5
-1.029, -2.010e-5
-1.028, -2.015e-5
-1.027, -2.037e-5
-1.026, -2.026e-5
-1.025, -2.043e-5
-1.024, -2.057e-5
-1.023, -2.074e-5
-1.022, -2.068e-5
-1.021, -2.068e-5
-1.020, -2.080e-5
-1.019, -2.075e-5
-1.018, -2.091e-5
-1.017, -2.086e-5
-1.016, -2.093e-5
-1.015, -2.095e-5
-1.014, -2.110e-5
-1.013, -2.104e-5
-1.012, -2.109e-5
-1.011, -2.134e-5
-1.010, -2.140e-5
-1.009, -2.143e-5
-1.008, -2.139e-5
-1.007, -2.152e-5
-1.006, -2.151e-5
-1.005, -2.158e-5
-1.004, -2.150e-5
-1.003, -2.159e-5
-1.002, -2.163e-5
-1.001, -2.173e-5
