Potential V vs RHE, Current mA cm-2
0.013299999999999867,0.018744924723211737
0.012299999999999978,0.0013845779491779115
0.011299999999999866,-0.010702290983479001
0.010299999999999976,-0.020343548492059226
0.009299999999999864,-0.028251784658304784
0.008299999999999974,-0.03406624810075008
0.007299999999999862,-0.038763089616302
0.006299999999999972,-0.04307795908089037
0.00529999999999986,-0.047633329466455786
0.0042999999999999705,-0.052117964287027946
0.0032999999999998586,-0.05480591575677152
0.0022999999999999687,-0.057126042288550186
0.0012999999999998568,-0.06018181869625867
0.00029999999999996696,-0.06315271242597524
-0.000700000000000145,-0.06616604749468777
-0.0017000000000000348,-0.0676090530205501
-0.0027000000000001467,-0.0691793825634003
-0.0037000000000000366,-0.07080630055824509
-0.0047000000000001485,-0.0730273972990332
-0.005700000000000038,-0.07531922960481456
-0.00670000000000015,-0.0765924697746931
-0.00770000000000004,-0.0767056466786823
-0.008700000000000152,-0.07845988869051494
-0.009700000000000042,-0.08053951430131655
-0.010700000000000154,-0.08256255146012353
-0.011700000000000044,-0.08312843598006955
-0.012700000000000156,-0.08387823296899803
-0.013700000000000045,-0.0845714415059319
-0.014700000000000157,-0.08633983063076318
-0.015700000000000047,-0.08796674862560798
-0.01670000000000016,-0.0884194562415648
-0.01770000000000005,-0.08887216385752161
-0.01870000000000016,-0.08955122528145683
-0.01970000000000005,-0.09114984905030431
-0.020700000000000163,-0.09256456035016934
-0.021700000000000053,-0.09305970930512211
-0.022700000000000164,-0.09325776888710322
-0.023700000000000054,-0.09369632939006138
-0.024700000000000166,-0.09546471851489266
-0.025700000000000056,-0.09666722311977795
-0.026700000000000168,-0.09669551734577525
-0.027700000000000058,-0.09707748939673881
-0.02870000000000017,-0.098081934419643
-0.02970000000000006,-0.09914296789454177
-0.03070000000000017,-0.10034547249942705
-0.03170000000000006,-0.10045864940341626
-0.03270000000000017,-0.10110941660135417
-0.03370000000000006,-0.10125088773134068
-0.034700000000000175,-0.10283536438718952
-0.035700000000000065,-0.1039246920880856
-0.03670000000000018,-0.10419348723505996
-0.03770000000000007,-0.1040944574440694
-0.03870000000000018,-0.10491498999799112
-0.03970000000000007,-0.10615993594187234
-0.04070000000000018,-0.10729170498176437
-0.04170000000000007,-0.10753220590274143
-0.04270000000000018,-0.10741902899875223
-0.04370000000000007,-0.10832444423066585
-0.044700000000000184,-0.10958353728754573
-0.045700000000000074,-0.1106162765364472
-0.046700000000000186,-0.11072945344043642
-0.047700000000000076,-0.11048895251945937
-0.04870000000000019,-0.11143680909036893
-0.04970000000000008,-0.11303543285921643
-0.05070000000000019,-0.11351643470117054
-0.05170000000000008,-0.11371449428315164
-0.05270000000000019,-0.11357302315316514
-0.05370000000000008,-0.11429452591609632
-0.05470000000000019,-0.11553947185997754
-0.05570000000000008,-0.11662879956087362
-0.056700000000000195,-0.11681271202985609
-0.057700000000000085,-0.11694003604684394
-0.058700000000000196,-0.11756250901878454
-0.059700000000000086,-0.11876501362366983
-0.0607000000000002,-0.11988263555056322
-0.06170000000000009,-0.12023631337552945
-0.0627000000000002,-0.12023631337552945
-0.06370000000000009,-0.12058999120049572
-0.0647000000000002,-0.12207543806535401
-0.06570000000000009,-0.12254229279430948
-0.0667000000000002,-0.1227686466022879
-0.0677000000000001,-0.12298085329726763
-0.0687000000000002,-0.12356088493021229
-0.0697000000000001,-0.1248765664390868
-0.07070000000000021,-0.1258668643489923
-0.0717000000000001,-0.12610736526996935
-0.07270000000000021,-0.12590930568798825
-0.0737000000000001,-0.12667324978991537
-0.07470000000000021,-0.1280879610897804
-0.0757000000000001,-0.1291772887906765
-0.07670000000000021,-0.12886605230470619
-0.0777000000000001,-0.12893678786969942
-0.07870000000000021,-0.13006855690959146
-0.0797000000000001,-0.13087494235051456
-0.08070000000000022,-0.1315964451134457
-0.0817000000000001,-0.1318227989214241
-0.08270000000000022,-0.13189353448641736
-0.08370000000000011,-0.13240283055436877
-0.08470000000000022,-0.1337751005152379
-0.08570000000000011,-0.13456733884316227
-0.08670000000000022,-0.13473710419914608
-0.08770000000000011,-0.13472295708614743
-0.08870000000000022,-0.13548690118807455
-0.08970000000000011,-0.13670355290595848
-0.09070000000000022,-0.13735432010389642
-0.09170000000000011,-0.13756652679887618
-0.09270000000000023,-0.137410908555891
-0.09370000000000012,-0.13775043926785863
-0.09470000000000023,-0.13916515056772363
-0.09570000000000012,-0.14001397734764268
-0.09670000000000023,-0.14042424362460354
-0.09770000000000012,-0.1399432417826494
-0.09870000000000023,-0.1407496272235725
-0.09970000000000012,-0.14161260111649018
-0.10070000000000023,-0.1427443701563822
-0.10170000000000012,-0.1428858412863687
-0.10270000000000024,-0.14302731241635522
-0.10370000000000013,-0.14316878354634172
-0.10470000000000024,-0.14401761032626076
-0.10570000000000013,-0.14486643710617977
-0.10670000000000024,-0.14500790823616627
-0.10770000000000013,-0.14514937936615277
-0.10870000000000024,-0.14543232162612577
-0.10970000000000013,-0.1467055617960043
-0.11070000000000024,-0.14727144631595032
-0.11170000000000013,-0.14712997518596382
-0.11270000000000002,-0.14712997518596382
-0.11370000000000013,-0.14797880196588284
-0.11470000000000002,-0.14882762874580185
-0.11570000000000014,-0.14939351326574787
-0.11670000000000003,-0.14953498439573437
-0.11770000000000014,-0.1498179266557074
-0.11870000000000003,-0.1498179266557074
-0.11970000000000014,-0.1506667534356264
-0.12070000000000003,-0.15165705134553195
-0.12170000000000014,-0.15165705134553195
-0.12270000000000003,-0.15151558021554543
-0.12370000000000014,-0.15179852247551845
-0.12470000000000003,-0.15293029151541046
-0.12570000000000014,-0.15335470490536995
-0.12670000000000003,-0.15307176264539696
-0.12770000000000015,-0.15264734925543746
-0.12870000000000004,-0.15335470490536995
-0.12970000000000015,-0.1543450028152755
-0.13070000000000004,-0.15462794507524852
-0.13170000000000015,-0.15476941620523502
-0.13270000000000004,-0.15448647394526202
-0.13370000000000015,-0.15491088733522151
-0.13470000000000004,-0.15590118524512703
-0.13570000000000015,-0.15675001202504607
-0.13670000000000004,-0.15632559863508652
-0.13770000000000016,-0.15632559863508652
-0.13870000000000005,-0.15646706976507307
-0.13970000000000016,-0.15759883880496509
-0.14070000000000005,-0.15816472332491108
-0.14170000000000016,-0.1583061944548976
-0.14270000000000005,-0.15759883880496509
-0.14370000000000016,-0.15802325219492458
-0.14470000000000005,-0.1588720789748436
-0.14570000000000016,-0.15957943462477614
-0.14670000000000005,-0.1587306078448571
-0.14770000000000016,-0.1588720789748436
-0.14870000000000005,-0.15901355010483012
-0.14970000000000017,-0.15972090575476264
-0.15070000000000006,-0.16056973253468165
-0.15170000000000017,-0.16014531914472213
-0.15270000000000006,-0.15972090575476264
-0.15370000000000017,-0.16042826140469515
-0.15470000000000006,-0.16113561705462764
-0.15570000000000017,-0.16113561705462764
-0.15670000000000006,-0.16113561705462764
-0.15770000000000017,-0.16113561705462764
-0.15870000000000006,-0.16099414592464115
-0.15970000000000018,-0.1619844438345467
-0.16070000000000007,-0.1626917994844792
-0.16170000000000018,-0.1622673860945197
-0.16270000000000007,-0.16141855931460067
-0.16370000000000018,-0.1622673860945197
-0.16470000000000007,-0.16339915513441172
-0.16570000000000018,-0.16325768400442522
-0.16670000000000007,-0.1628332706144657
-0.16770000000000018,-0.1624088572245062
-0.16870000000000007,-0.16311621287443873
-0.16970000000000018,-0.16410651078434427
-0.17070000000000007,-0.16410651078434427
-0.17170000000000019,-0.16368209739438472
-0.17270000000000008,-0.16325768400442522
-0.1737000000000002,-0.16396503965435774
-0.17470000000000008,-0.16481386643427676
-0.1757000000000002,-0.16467239530429026
-0.17670000000000008,-0.16410651078434427
-0.1777000000000002,-0.16453092417430376
-0.17870000000000008,-0.16481386643427676
-0.1797000000000002,-0.1655212220842093
-0.18070000000000008,-0.1655212220842093
-0.1817000000000002,-0.16537975095422278
-0.18270000000000008,-0.16467239530429026
-0.1837000000000002,-0.16509680869424978
-0.1847000000000001,-0.16637004886412832
-0.1857000000000002,-0.1666529911241013
-0.1867000000000001,-0.1659456354741688
-0.1877000000000002,-0.16537975095422278
-0.1887000000000001,-0.16637004886412832
-0.1897000000000002,-0.16721887564404736
-0.1907000000000001,-0.16707740451406086
-0.1917000000000001,-0.1669359333840743
-0.19269999999999998,-0.16622857773414182
-0.1937000000000001,-0.16707740451406086
-0.19469999999999998,-0.16792623129397988
-0.1957000000000001,-0.16778476016399335
-0.19669999999999999,-0.16778476016399335
-0.1977000000000001,-0.16721887564404736
-0.1987,-0.16835064468393937
-0.1997000000000001,-0.16905800033387192
-0.2007,-0.1689165292038854
-0.2017000000000001,-0.16877505807389886
-0.2027,-0.16877505807389886
-0.2037000000000001,-0.16919947146385841
-0.2047,-0.1697653559838044
-0.2057000000000001,-0.16990682711379093
-0.2067,-0.17004829824377743
-0.2077000000000001,-0.1693409425938449
-0.2087,-0.17004829824377743
-0.2097000000000001,-0.17103859615368294
-0.2107,-0.17118006728366944
-0.2117000000000001,-0.17118006728366944
-0.2127,-0.17033124050375043
-0.2137000000000001,-0.17118006728366944
-0.2147,-0.17202889406358848
-0.2157000000000001,-0.1728777208435075
-0.2167,-0.17245330745354798
-0.21770000000000012,-0.17202889406358848
-0.2187,-0.172736249713521
-0.21970000000000012,-0.17358507649344
-0.2207,-0.173868018753413
-0.22170000000000012,-0.17358507649344
-0.2227,-0.173302134233467
-0.22370000000000012,-0.17400948988339954
-0.2247,-0.17528273005327805
-0.22570000000000012,-0.17528273005327805
-0.2267,-0.17514125892329155
-0.22770000000000012,-0.17499978779330505
-0.22870000000000001,-0.17584861457322407
-0.22970000000000013,-0.17641449909317006
-0.23070000000000002,-0.1772633258730891
-0.23170000000000013,-0.1771218547431026
-0.23270000000000002,-0.1766974413531431
-0.23370000000000013,-0.17768773926304862
-0.23470000000000002,-0.17867803717295414
-0.23570000000000013,-0.17867803717295414
-0.23670000000000002,-0.17896097943292713
-0.2376999999999999,-0.17881950830294063
-0.23870000000000002,-0.17938539282288665
-0.2396999999999999,-0.18037569073279217
-0.24070000000000003,-0.18094157525273818
-0.24169999999999991,-0.18108304638272468
-0.24270000000000003,-0.18037569073279217
-0.24369999999999992,-0.18136598864269768
-0.24470000000000003,-0.18207334429263022
-0.24569999999999992,-0.18263922881257624
-0.24670000000000003,-0.18249775768258975
-0.24769999999999992,-0.18263922881257624
-0.24870000000000003,-0.18348805559249526
-0.24969999999999992,-0.1843368823724143
-0.25070000000000003,-0.1844783535024008
-0.2516999999999999,-0.1843368823724143
-0.25270000000000004,-0.1846198246323873
-0.2536999999999999,-0.1854686514123063
-0.25470000000000004,-0.18660042045219835
-0.2556999999999999,-0.18688336271217135
-0.25670000000000004,-0.18688336271217135
-0.25769999999999993,-0.18645894932221183
-0.25870000000000004,-0.18773218949209036
-0.25969999999999993,-0.18858101627200938
-0.26070000000000004,-0.18914690079195542
-0.26169999999999993,-0.18858101627200938
-0.26270000000000004,-0.18872248740199588
-0.26369999999999993,-0.18957131418191492
-0.26470000000000005,-0.19013719870186094
-0.26569999999999994,-0.19112749661176645
-0.26670000000000005,-0.19098602548177993
-0.26769999999999994,-0.19070308322180693
-0.26870000000000005,-0.19169338113171247
-0.26969999999999994,-0.19254220791163149
-0.27070000000000005,-0.192400736781645
-0.27169999999999994,-0.19169338113171247
-0.27270000000000005,-0.192400736781645
-0.27369999999999994,-0.192966621301591
-0.27470000000000006,-0.1936739769515235
-0.27569999999999995,-0.19395691921149652
-0.27670000000000006,-0.1933910346915505
-0.27769999999999995,-0.1931080924315775
-0.27870000000000006,-0.1936739769515235
-0.27969999999999995,-0.19480574599141554
-0.28070000000000006,-0.19494721712140206
-0.28169999999999995,-0.19423986147146954
-0.28270000000000006,-0.19381544808151
-0.28369999999999995,-0.19452280373144254
-0.28470000000000006,-0.19523015938137506
-0.28569999999999995,-0.19494721712140206
-0.28670000000000007,-0.19423986147146954
-0.28769999999999996,-0.19438133260145604
-0.28870000000000007,-0.19480574599141554
-0.28969999999999996,-0.19551310164134805
-0.29070000000000007,-0.19494721712140206
-0.29169999999999996,-0.19423986147146954
-0.29270000000000007,-0.19395691921149652
-0.29369999999999996,-0.19423986147146954
-0.2947000000000001,-0.19438133260145604
-0.29569999999999996,-0.19438133260145604
-0.2967000000000001,-0.193249563561564
-0.29769999999999996,-0.193249563561564
-0.2987000000000001,-0.192966621301591
-0.29969999999999997,-0.1936739769515235
-0.3007000000000001,-0.1933910346915505
-0.30169999999999997,-0.19268367904161798
-0.3027000000000001,-0.19183485226169897
-0.30369999999999997,-0.1919763233916855
-0.3047000000000001,-0.19254220791163149
-0.30569999999999997,-0.1922592656516585
-0.3067000000000001,-0.19112749661176645
-0.3077,-0.19098602548177993
-0.3087000000000001,-0.19098602548177993
-0.3097,-0.19155191000172597
-0.3107000000000001,-0.19126896774175295
-0.3117,-0.19070308322180693
-0.3127000000000001,-0.19056161209182043
-0.3137,-0.19112749661176645
-0.3147000000000001,-0.19112749661176645
-0.3157,-0.19155191000172597
-0.3167000000000001,-0.19042014096183393
-0.3177,-0.19027866983184744
-0.3187000000000001,-0.19098602548177993
-0.3197,-0.19155191000172597
-0.3207000000000001,-0.19155191000172597
-0.3217,-0.19084455435179343
-0.3227000000000001,-0.19098602548177993
-0.3237,-0.19169338113171247
-0.3247000000000001,-0.19254220791163149
-0.3257,-0.1922592656516585
-0.3267000000000001,-0.192400736781645
-0.3277,-0.19183485226169897
-0.3287000000000001,-0.193532505821537
-0.3297,-0.19452280373144254
-0.3307000000000001,-0.19452280373144254
-0.3317,-0.19466427486142904
-0.3327000000000001,-0.19480574599141554
-0.3337,-0.19551310164134805
-0.3347000000000001,-0.1970692840711996
-0.3357,-0.1972107552011861
-0.3367000000000001,-0.19805958198110513
-0.3377,-0.19820105311109162
-0.3387000000000001,-0.19947429328097016
-0.3397,-0.2008890045808352
-0.3407000000000001,-0.20131341797079472
-0.3417,-0.20159636023076774
-0.3427000000000001,-0.20286960040064628
-0.3437,-0.2041428405705248
-0.3447000000000001,-0.20555755187038985
-0.3457,-0.20725520543022788
-0.3467000000000001,-0.2076796188201874
-0.3477,-0.21022609915994445
-0.3487000000000001,-0.211782281589796
-0.3497,-0.21404581966958006
-0.3507000000000001,-0.21503611757948557
-0.3517,-0.21475317531951257
-0.3527000000000001,-0.2161678866193776
-0.3537,-0.21786554017921567
-0.3547000000000001,-0.2195631937390537
-0.3557,-0.22140231842887825
-0.35670000000000013,-0.22168526068885125
-0.3577,-0.2228170297287433
-0.35870000000000013,-0.22465615441856782
-0.3597,-0.2267782213683654
-0.36070000000000013,-0.22776851927827088
-0.3617,-0.22861734605818995
-0.3626999999999999,-0.23003205735805496
-0.3637,-0.23201265317786599
-0.3646999999999999,-0.23441766238763656
-0.3657,-0.2359738448174881
-0.3666999999999999,-0.23696414272739363
-0.3677,-0.23809591176728565
-0.3686999999999999,-0.24106680549700227
-0.36970000000000003,-0.24347181470677282
-0.3706999999999999,-0.24545241052658387
-0.37170000000000003,-0.24672565069646235
-0.3726999999999999,-0.24799889086634092
-0.37370000000000003,-0.250828313466071
-0.3746999999999999,-0.2535162649358146
-0.37570000000000003,-0.25507244736566614
-0.3766999999999999,-0.25691157205549064
-0.37770000000000004,-0.2584677544853422
-0.3786999999999999,-0.2611557059550858
-0.37970000000000004,-0.26356071516485635
-0.3806999999999999,-0.2656827821146539
-0.38170000000000004,-0.26695602228453247
-0.38269999999999993,-0.2689366181043435
-0.38370000000000004,-0.27176604070407356
-0.38469999999999993,-0.27445399217381716
-0.38570000000000004,-0.2764345879936282
-0.38669999999999993,-0.2775663570335202
-0.38770000000000004,-0.27926401059335826
-0.38869999999999993,-0.2819519620631018
-0.38970000000000005,-0.2843569712728724
-0.39069999999999994,-0.28647903822266996
-0.39170000000000005,-0.2883181629124945
-0.39269999999999994,-0.29044022986229207
-0.39370000000000005,-0.29397700811195465
-0.39469999999999994,-0.2962405461917387
-0.39570000000000005,-0.2983626131415362
-0.39669999999999994,-0.2999187955713878
-0.39770000000000005,-0.30260674704113133
-0.39869999999999994,-0.3051532273808884
-0.39970000000000006,-0.30826559224059147
-0.40069999999999995,-0.310387659190389
-0.40170000000000006,-0.31236825501020005
-0.40269999999999995,-0.31378296631006514
-0.40370000000000006,-0.3173197445597277
-0.40469999999999995,-0.32029063828944426
-0.40570000000000006,-0.32269564749921487
-0.40669999999999995,-0.3251006567089854
-0.40770000000000006,-0.32736419478876944
-0.40869999999999995,-0.3303350885184861
-0.40970000000000006,-0.3335889245081756
-0.41069999999999995,-0.33613540484793275
-0.41170000000000007,-0.33769158727778426
-0.41269999999999996,-0.3395307119676088
-0.41370000000000007,-0.3429260190872849
-0.41469999999999996,-0.346321326206961
-0.41570000000000007,-0.34787750863681255
-0.41669999999999996,-0.35014104671659657
-0.41770000000000007,-0.35240458479638065
-0.41869999999999996,-0.35509253626612425
-0.4197000000000001,-0.3584878433858003
-0.42069999999999996,-0.3608928525955709
-0.4217000000000001,-0.3625905061554089
-0.42269999999999996,-0.3645711019752199
-0.4237000000000001,-0.3675419957049365
-0.42469999999999997,-0.3715031873445586
-0.4257000000000001,-0.37390819655432916
-0.42669999999999997,-0.3754643789841807
-0.4277000000000001,-0.37815233045392427
-0.42869999999999997,-0.38140616644361386
-0.4297000000000001,-0.38437706017333045
-0.43069999999999997,-0.386782069383101
-0.4317000000000001,-0.38862119407292556
-0.4327,-0.39088473215270964
-0.4337000000000001,-0.3941385681423992
-0.4347,-0.3965435773521698
-0.4357000000000001,-0.39937299995189984
-0.4367,-0.4010706535117379
-0.4377000000000001,-0.40489037402137346
-0.4387,-0.4075783254911171
-0.4397000000000001,-0.40984186357090113
-0.4407,-0.4123883439106582
-0.4417000000000001,-0.41436893973046923
-0.4427,-0.4163495355502803
-0.4437000000000001,-0.42031072718990237
-0.4447,-0.42299867865964597
-0.4457000000000001,-0.42568663012938956
-0.4467,-0.4269598702992681
-0.4477000000000001,-0.42922340837905215
-0.4487,-0.4329016577587012
-0.4497000000000001,-0.43615549374839085
-0.4507,-0.4379946184382154
-0.4517000000000001,-0.4405410987779724
-0.4527,-0.44308757911772945
-0.4537000000000001,-0.44605847284744604
-0.4547,-0.4494537799671222
-0.4557000000000001,-0.45086849126698714
-0.4567,-0.45313202934677127
-0.4577000000000001,-0.4563858653364608
-0.4587,-0.4594982301961639
-0.4597000000000001,-0.4619032394059345
-0.4607,-0.464308248615705
-0.4617000000000001,-0.46685472895546215
-0.4627,-0.46954268042520564
-0.4637000000000001,-0.47265504528490876
-0.4647,-0.4757674101446118
-0.4657000000000001,-0.47831389048436895
-0.4667,-0.4804359574341665
-0.4677000000000001,-0.4826994955139505
-0.4687,-0.48567038924366707
-0.4697000000000001,-0.4886412829733836
-0.4707,-0.4907633499231812
-0.4717000000000001,-0.49260247461300577
-0.4727,-0.4954318972127358
-0.4737000000000001,-0.49826131981246585
-0.4747,-0.5009492712822095
-0.4757000000000001,-0.503071338232007
-0.4767,-0.505334876311791
-0.4777000000000001,-0.5074569432615886
-0.4787,-0.5105693081212918
-0.4797000000000001,-0.5128328462010757
-0.4807,-0.5148134420208869
-0.48170000000000013,-0.5169355089706844
-0.4827,-0.5200478738303875
-0.48370000000000013,-0.5235846520800501
-0.4847,-0.5268384880697398
-0.48570000000000013,-0.5288190838895507
-0.4867,-0.5313655642293078
-0.4876999999999999,-0.533346160049119
-0.4887,-0.5365999960388084
-0.4896999999999999,-0.539570889768525
-0.4907,-0.5412685433283632
