Potential V vs RHE, Current mA cm-2
0.05339999999999995,-0.029440142150191414
0.05239999999999995,-0.030755823659065897
0.051399999999999946,-0.03126511972701731
0.050399999999999945,-0.03163294466498222
0.049399999999999944,-0.03198662248994848
0.04839999999999994,-0.03236859454091204
0.04739999999999994,-0.032693978139880994
0.04639999999999994,-0.033005214625851306
0.04539999999999994,-0.033344745337818914
0.04439999999999994,-0.033698423162785165
0.04339999999999994,-0.03405210098775143
0.04239999999999994,-0.034377484586720394
0.04139999999999994,-0.0346887210726907
0.040399999999999936,-0.03498581044566235
0.039399999999999935,-0.03535363538362727
0.038399999999999934,-0.03573560743459083
0.03739999999999993,-0.03604684392056113
0.03639999999999993,-0.036400521745527395
0.03539999999999993,-0.03669761111849905
0.03439999999999993,-0.03705128894346531
0.03339999999999993,-0.037419113881430224
0.03239999999999993,-0.03775864459339783
0.03139999999999993,-0.03806988107936814
0.030399999999999927,-0.038409411791335744
0.029399999999999926,-0.038763089616302
0.028399999999999925,-0.039145061667265564
0.027399999999999924,-0.03947044526623452
0.026399999999999924,-0.039824123091200786
0.025399999999999923,-0.04014950669016974
0.024399999999999922,-0.04051733162813465
0.02339999999999992,-0.040927597905095515
0.02239999999999992,-0.04126712861706312
0.02139999999999992,-0.041620806442029375
0.020399999999999918,-0.04197448426699564
0.019399999999999917,-0.0423564563179592
0.018399999999999916,-0.042738428368922755
0.017399999999999916,-0.043092106193889014
0.016399999999999915,-0.04343163690585663
0.015399999999999914,-0.04381360895682019
0.014399999999999913,-0.04419558100778375
0.013399999999999912,-0.04460584728474461
0.012399999999999911,-0.04497367222270952
0.01139999999999991,-0.045313202934677124
0.01039999999999991,-0.045695174985640685
0.009399999999999908,-0.04610544126260154
0.008399999999999908,-0.04650156042656376
0.007399999999999907,-0.046869385364528664
0.006399999999999906,-0.047251357415492225
0.005399999999999905,-0.047633329466455786
0.004399999999999904,-0.048071889969413945
0.003399999999999903,-0.04848215624637481
0.002399999999999902,-0.04886412829733837
0.0013999999999999013,-0.04923195323530328
0.00039999999999990044,-0.04962807239926549
-0.0006000000000001005,-0.05003833867622635
-0.0016000000000001013,-0.050462752066185855
-0.0026000000000001022,-0.05085887123014807
-0.003600000000000103,-0.05124084328111162
-0.004600000000000104,-0.05162281533207519
-0.005600000000000105,-0.052075522948032
-0.006600000000000106,-0.052514083450990165
-0.007600000000000107,-0.052896055501953726
-0.008600000000000108,-0.05330632177891458
-0.009600000000000108,-0.053702440942876795
-0.01060000000000011,-0.0541551485588336
-0.01160000000000011,-0.05460785617479042
-0.012600000000000111,-0.05503226956474993
-0.013600000000000112,-0.05541424161571349
-0.014600000000000113,-0.0558103607796757
-0.015600000000000114,-0.056248921282633854
-0.016600000000000115,-0.05671577601158932
-0.017600000000000116,-0.05709774806255288
-0.018600000000000116,-0.057522161452512384
-0.019600000000000117,-0.05793242772947325
-0.020600000000000118,-0.05837098823243141
-0.02160000000000012,-0.05882369584838822
-0.02260000000000012,-0.059219815012350435
-0.02360000000000012,-0.05958763995031534
-0.024600000000000122,-0.06001205334027486
-0.025600000000000123,-0.06046476095623167
-0.026600000000000124,-0.06091746857218847
-0.027600000000000124,-0.06134188196214799
-0.028600000000000125,-0.06172385401311155
-0.029600000000000126,-0.06216241451606971
-0.030600000000000127,-0.06261512213202652
-0.03160000000000013,-0.06309612397398062
-0.03260000000000013,-0.06352053736394014
-0.03360000000000013,-0.06394495075389965
-0.03460000000000002,-0.06438351125685782
-0.03560000000000002,-0.06483621887281464
-0.03660000000000002,-0.06528892648877145
-0.03760000000000002,-0.06571333987873097
-0.03860000000000002,-0.06612360615569181
-0.039600000000000024,-0.06654801954565133
-0.040600000000000025,-0.06702902138760544
-0.041600000000000026,-0.06748172900356225
-0.04260000000000003,-0.06790614239352176
-0.04360000000000003,-0.06833055578348128
-0.04460000000000003,-0.06875496917344079
-0.04560000000000003,-0.06916523545040164
-0.04660000000000003,-0.0696320901793571
-0.04760000000000003,-0.07005650356931663
-0.04860000000000003,-0.07046676984627748
-0.04960000000000003,-0.07089118323623698
-0.050600000000000034,-0.07135803796519245
-0.051600000000000035,-0.07182489269414791
-0.052600000000000036,-0.07222101185811013
-0.053600000000000037,-0.07261713102207233
-0.05460000000000004,-0.0730273972990332
-0.05560000000000004,-0.07346595780199136
-0.05660000000000004,-0.07391866541794817
-0.05760000000000004,-0.07432893169490903
-0.05860000000000004,-0.07472505085887124
-0.05960000000000004,-0.0751353171358321
-0.06060000000000004,-0.07554558341279295
-0.061600000000000044,-0.07599829102874978
-0.06260000000000004,-0.07638026307971334
-0.06360000000000005,-0.07677638224367554
-0.06460000000000005,-0.07717250140763775
-0.06560000000000005,-0.07761106191059591
-0.06660000000000005,-0.07802132818755676
-0.06760000000000005,-0.07841744735151898
-0.06860000000000005,-0.07877112517648524
-0.06960000000000005,-0.07916724434044746
-0.07060000000000005,-0.07959165773040697
-0.07160000000000005,-0.07997362978137053
-0.07260000000000005,-0.08034145471933543
-0.07360000000000005,-0.08068098543130305
-0.07460000000000006,-0.08106295748226659
-0.07560000000000006,-0.08144492953323015
-0.07660000000000006,-0.08186934292318966
-0.07760000000000006,-0.08222302074815592
-0.07860000000000006,-0.08256255146012353
-0.07960000000000006,-0.0828879350590925
-0.08060000000000006,-0.08325575999705741
-0.08160000000000006,-0.08360943782202368
-0.08260000000000006,-0.08392067430799398
-0.08360000000000006,-0.08421776368096563
-0.08460000000000006,-0.08452900016693596
-0.08560000000000006,-0.08489682510490085
-0.08660000000000007,-0.08525050292986712
-0.08760000000000007,-0.08554759230283876
-0.08860000000000007,-0.08585882878880907
-0.08960000000000007,-0.08615591816178074
-0.09060000000000007,-0.08649544887374834
-0.09160000000000007,-0.08682083247271731
-0.09260000000000007,-0.08708962761969166
-0.09360000000000007,-0.08734427565366736
-0.09460000000000007,-0.08761307080064172
-0.09560000000000007,-0.08789601306061473
-0.09660000000000007,-0.08819310243358638
-0.09760000000000008,-0.08843360335456343
-0.09860000000000008,-0.0886741042755405
-0.09960000000000008,-0.08894289942251486
-0.10060000000000008,-0.08921169456948921
-0.10160000000000008,-0.08949463682946222
-0.10260000000000008,-0.08973513775043927
-0.10360000000000008,-0.08994734444541903
-0.10460000000000008,-0.09015955114039878
-0.10560000000000008,-0.09040005206137584
-0.10660000000000008,-0.09068299432134884
-0.10760000000000008,-0.09089520101632861
-0.10860000000000009,-0.09106496637231241
-0.10960000000000009,-0.0912630259542935
-0.11060000000000009,-0.09147523264927326
-0.11160000000000009,-0.09168743934425302
-0.11260000000000009,-0.09187135181323548
-0.11360000000000009,-0.09202697005622064
-0.11460000000000009,-0.09222502963820174
-0.11560000000000009,-0.0924089421071842
-0.11660000000000009,-0.09257870746316801
-0.1176000000000001,-0.0927484728191518
-0.1186000000000001,-0.09287579683613965
-0.1196000000000001,-0.0929748266271302
-0.1206000000000001,-0.09315873909611266
-0.1216000000000001,-0.09334265156509512
-0.1226000000000001,-0.09344168135608567
-0.1236000000000001,-0.09355485826007487
-0.1246000000000001,-0.09366803516406408
-0.1256000000000001,-0.09379535918105193
-0.1266000000000001,-0.09393683031103843
-0.1276000000000001,-0.09402171298903034
-0.1286000000000001,-0.09409244855402359
-0.1296000000000001,-0.09416318411901684
-0.1306000000000001,-0.09427636102300604
-0.1316000000000001,-0.0944036850399939
-0.1326000000000001,-0.09443197926599119
-0.1336000000000001,-0.09450271483098445
-0.1346000000000001,-0.0945451561699804
-0.1356000000000001,-0.09461589173497365
-0.1366000000000001,-0.09470077441296555
-0.1376000000000001,-0.09471492152596421
-0.1386000000000001,-0.0947432157519615
-0.1396000000000001,-0.09479980420395612
-0.1406000000000001,-0.09485639265595071
-0.14160000000000011,-0.09489883399494665
-0.14260000000000012,-0.09491298110794531
-0.14360000000000012,-0.09489883399494665
-0.14460000000000012,-0.09489883399494665
-0.14560000000000012,-0.09494127533394262
-0.14660000000000012,-0.0949695695599399
-0.14760000000000012,-0.09494127533394262
-0.14860000000000012,-0.09491298110794531
-0.14960000000000012,-0.09488468688194801
-0.15060000000000012,-0.09488468688194801
-0.15160000000000012,-0.09489883399494665
-0.15260000000000012,-0.09485639265595071
-0.15360000000000013,-0.09481395131695476
-0.15460000000000013,-0.0947715099779588
-0.15560000000000013,-0.09478565709095746
-0.15660000000000013,-0.09475736286496016
-0.15760000000000013,-0.09470077441296555
-0.15860000000000013,-0.09464418596097096
-0.15960000000000002,-0.09458759750897636
-0.16060000000000002,-0.09457345039597771
-0.16160000000000002,-0.09453100905698175
-0.16260000000000002,-0.0944602734919885
-0.16360000000000002,-0.0943753908139966
-0.16460000000000002,-0.09427636102300604
-0.16560000000000002,-0.09427636102300604
-0.16660000000000003,-0.09427636102300604
-0.16760000000000003,-0.09413488989301955
-0.16860000000000003,-0.094035860102029
-0.16960000000000003,-0.09397927165003438
-0.17060000000000003,-0.09389438897204248
-0.17160000000000003,-0.09383780052004788
-0.17260000000000003,-0.09371047650306003
-0.17360000000000003,-0.09359729959907082
-0.17460000000000003,-0.09351241692107892
-0.17560000000000003,-0.09344168135608567
-0.17660000000000003,-0.09335679867809377
-0.17760000000000004,-0.09322947466110591
-0.17860000000000004,-0.09313044487011536
-0.17960000000000004,-0.09301726796612615
-0.18060000000000004,-0.0929182381751356
-0.18160000000000004,-0.09283335549714371
-0.18260000000000004,-0.09270603148015585
-0.18360000000000004,-0.09257870746316801
-0.18460000000000004,-0.09246553055917879
-0.18560000000000004,-0.09236650076818824
-0.18660000000000004,-0.0922674709771977
-0.18760000000000004,-0.09214014696020983
-0.18860000000000005,-0.09198452871722468
-0.18960000000000005,-0.09185720470023684
-0.19060000000000005,-0.09177232202224493
-0.19160000000000005,-0.09168743934425302
-0.19260000000000005,-0.09154596821426653
-0.19360000000000005,-0.09140449708428001
-0.19460000000000005,-0.0912630259542935
-0.19560000000000005,-0.09116399616330297
-0.19660000000000005,-0.09105081925931376
-0.19760000000000005,-0.0909234952423259
-0.19860000000000005,-0.09076787699934075
-0.19960000000000006,-0.09062640586935425
-0.20060000000000006,-0.09052737607836371
-0.20160000000000006,-0.0904141991743745
-0.20260000000000006,-0.09025858093138935
-0.20360000000000006,-0.09011710980140283
-0.20460000000000006,-0.08998978578441498
-0.20560000000000006,-0.08987660888042578
-0.20660000000000006,-0.08976343197643659
-0.20760000000000006,-0.08962196084645008
-0.20860000000000006,-0.08948048971646357
-0.20960000000000006,-0.08931072436047977
-0.21060000000000006,-0.08919754745649056
-0.21160000000000007,-0.0891268118914973
-0.21260000000000007,-0.08894289942251486
-0.21360000000000007,-0.08880142829252836
-0.21460000000000007,-0.08865995716254185
-0.21560000000000007,-0.08854678025855263
-0.21660000000000007,-0.08844775046756209
-0.21760000000000007,-0.08832042645057424
-0.21860000000000007,-0.08815066109459044
-0.21960000000000007,-0.08802333707760258
-0.22060000000000007,-0.08791016017361337
-0.22160000000000007,-0.08781113038262284
-0.22260000000000008,-0.08766965925263633
-0.22360000000000008,-0.08754233523564847
-0.22460000000000008,-0.08738671699266332
-0.22560000000000008,-0.08730183431467141
-0.22660000000000008,-0.08720280452368086
-0.22760000000000008,-0.08707548050669302
-0.22860000000000008,-0.08689156803771056
-0.22960000000000008,-0.08679253824672
-0.23060000000000008,-0.0866793613427308
-0.23160000000000008,-0.08658033155174025
-0.23260000000000008,-0.08642471330875509
-0.23360000000000009,-0.0862832421787686
-0.2346000000000001,-0.08612762393578344
-0.2356000000000001,-0.08602859414479287
-0.2366000000000001,-0.08594371146680099
-0.2376000000000001,-0.08578809322381582
-0.2386000000000001,-0.08566076920682797
-0.2396000000000001,-0.08550515096384281
-0.2406000000000001,-0.0854202682858509
-0.2416000000000001,-0.08532123849486037
-0.2426000000000001,-0.08517976736487386
-0.2436000000000001,-0.08503829623488735
-0.2446000000000001,-0.0849109722178995
-0.2456000000000001,-0.0848260895399076
-0.2466000000000001,-0.0847129126359184
-0.2476000000000001,-0.08455729439293323
-0.2486000000000001,-0.08444411748894404
-0.2496000000000001,-0.08433094058495484
-0.2506000000000001,-0.08421776368096563
-0.2516000000000001,-0.08414702811597238
-0.2526000000000001,-0.08400555698598587
-0.2536000000000001,-0.08387823296899803
-0.2546000000000001,-0.08376505606500882
-0.2556000000000001,-0.08369432050001557
-0.2566000000000001,-0.08362358493502231
-0.2576000000000001,-0.08348211380503581
-0.2586000000000001,-0.08336893690104662
-0.2596000000000001,-0.08326990711005607
-0.2606000000000001,-0.0831708773190655
-0.2616000000000001,-0.08310014175407225
-0.2626000000000001,-0.08298696485008306
-0.2636000000000001,-0.08284549372009656
-0.2646000000000001,-0.08274646392910599
-0.2656000000000001,-0.0826615812511141
-0.2666000000000001,-0.08259084568612084
-0.2676000000000001,-0.08247766878213163
-0.2686000000000001,-0.08235034476514379
-0.2696000000000001,-0.08220887363515728
-0.2706000000000001,-0.08215228518316267
-0.2716000000000001,-0.08208154961816942
-0.2726000000000001,-0.08195422560118158
-0.2736000000000001,-0.08184104869719236
-0.2746000000000001,-0.08171372468020452
-0.2756000000000001,-0.08164298911521127
-0.2766000000000001,-0.08157225355021802
-0.2776000000000001,-0.08145907664622881
-0.2786000000000001,-0.08133175262924096
-0.2796000000000001,-0.0812327228382504
-0.2806000000000001,-0.08117613438625582
-0.28160000000000013,-0.0811195459342612
-0.28260000000000013,-0.0809780748042747
-0.28360000000000013,-0.08087904501328413
-0.2846,-0.08076586810929494
-0.2856,-0.08072342677029899
-0.2866,-0.08063854409230709
-0.2876,-0.08055366141431519
-0.2886,-0.08045463162332463
-0.2896,-0.08031316049333813
-0.2906,-0.08027071915434218
-0.2916,-0.08021413070234758
-0.2926,-0.08010095379835838
-0.2936,-0.08003021823336513
-0.29460000000000003,-0.07993118844237457
-0.29560000000000003,-0.07987459999037998
-0.29660000000000003,-0.07981801153838537
-0.29760000000000003,-0.07973312886039347
-0.29860000000000003,-0.07963409906940291
-0.29960000000000003,-0.07953506927841236
-0.30060000000000003,-0.07947848082641776
-0.30160000000000003,-0.0794360394874218
-0.30260000000000004,-0.07933700969643126
-0.30360000000000004,-0.07923797990544071
-0.30460000000000004,-0.0791530972274488
-0.30560000000000004,-0.07911065588845285
-0.30660000000000004,-0.07905406743645825
-0.30760000000000004,-0.078983331871465
-0.30860000000000004,-0.07887015496747579
-0.30960000000000004,-0.07879941940248254
-0.31060000000000004,-0.0787569780634866
-0.31160000000000004,-0.07870038961149198
-0.31260000000000004,-0.0786155069335001
-0.31360000000000005,-0.07851647714250953
-0.31460000000000005,-0.07843159446451763
-0.31560000000000005,-0.0783891531255217
-0.31660000000000005,-0.07834671178652573
-0.31760000000000005,-0.07826182910853383
-0.31860000000000005,-0.07819109354354058
-0.31960000000000005,-0.07812035797854733
-0.32060000000000005,-0.07807791663955138
-0.32160000000000005,-0.07802132818755676
-0.32260000000000005,-0.07793644550956487
-0.32360000000000005,-0.07786570994457162
-0.32460000000000006,-0.07776668015358107
-0.32560000000000006,-0.07773838592758377
-0.32660000000000006,-0.07772423881458512
-0.32760000000000006,-0.07762520902359457
-0.32860000000000006,-0.07755447345860131
-0.32960000000000006,-0.07746959078060942
-0.33060000000000006,-0.0774412965546121
-0.33160000000000006,-0.07739885521561615
-0.33260000000000006,-0.07731397253762426
-0.33360000000000006,-0.07724323697263101
-0.33460000000000006,-0.0771583542946391
-0.33560000000000006,-0.0771300600686418
-0.33660000000000007,-0.07711591295564316
-0.33760000000000007,-0.07701688316465259
-0.33860000000000007,-0.07696029471265799
-0.33960000000000007,-0.07688955914766474
-0.34060000000000007,-0.0768754120346661
-0.34160000000000007,-0.07683297069567015
-0.34260000000000007,-0.07674808801767824
-0.34360000000000007,-0.07667735245268498
-0.3446000000000001,-0.0766207640006904
-0.3456000000000001,-0.07660661688769173
-0.3466000000000001,-0.07657832266169443
-0.34759999999999996,-0.07650758709670118
-0.3486000000000001,-0.07643685153170793
-0.34959999999999997,-0.07639441019271198
-0.3506000000000001,-0.07636611596671468
-0.35159999999999997,-0.07632367462771873
-0.3526000000000001,-0.07626708617572413
-0.35359999999999997,-0.07619635061073088
-0.3546000000000001,-0.07613976215873627
-0.35559999999999997,-0.07612561504573763
-0.3566000000000001,-0.07608317370674167
-0.3576,-0.07604073236774572
-0.3586000000000001,-0.07598414391575113
-0.3596,-0.07589926123775922
-0.3606000000000001,-0.07588511412476057
-0.3616,-0.07585681989876326
-0.3626000000000001,-0.07578608433377002
-0.3636,-0.07572949588177541
-0.3646000000000001,-0.07567290742978082
-0.3656,-0.07567290742978082
-0.3666000000000001,-0.0756446132037835
-0.3676,-0.07557387763879025
-0.3686000000000001,-0.07553143629979431
-0.3696,-0.07546070073480106
-0.3706000000000001,-0.0754748478477997
-0.3716,-0.0754465536218024
-0.3726000000000001,-0.07536167094381051
-0.3736,-0.07531922960481456
-0.3746000000000001,-0.07526264115281994
-0.3756,-0.07522019981382401
-0.3766000000000001,-0.07523434692682264
-0.3776,-0.07516361136182939
-0.3786000000000001,-0.0751070229098348
-0.3796,-0.07506458157083885
-0.3806000000000001,-0.07503628734484155
-0.3816,-0.0750221402318429
-0.3826000000000001,-0.07496555177984829
-0.3836,-0.07492311044085233
-0.3846000000000001,-0.07489481621485504
-0.3856,-0.07486652198885775
-0.3866000000000001,-0.07485237487585908
-0.3876,-0.07478163931086583
-0.3886000000000001,-0.07473919797186988
-0.3896,-0.07471090374587258
-0.3906000000000001,-0.07468260951987529
-0.3916,-0.07465431529387798
-0.3926000000000001,-0.07461187395488203
-0.3936,-0.07455528550288744
-0.3946000000000001,-0.07451284416389148
-0.3956,-0.07451284416389148
-0.3966000000000001,-0.07449869705089282
-0.3976,-0.07445625571189689
-0.3986000000000001,-0.07439966725990228
-0.3996,-0.07432893169490903
-0.4006000000000001,-0.07434307880790768
-0.4016,-0.07432893169490903
-0.4026000000000001,-0.07427234324291442
-0.4036,-0.07422990190391847
-0.4046000000000001,-0.07418746056492254
-0.4056,-0.07417331345192386
-0.40660000000000013,-0.07417331345192386
-0.4076,-0.07410257788693062
-0.40860000000000013,-0.07408843077393197
-0.4096,-0.07403184232193737
-0.41060000000000013,-0.07401769520893872
-0.4116,-0.07403184232193737
-0.41260000000000013,-0.07396110675694412
-0.4136,-0.07391866541794817
-0.41460000000000014,-0.07389037119195085
-0.4156,-0.07387622407895222
-0.41660000000000014,-0.07389037119195085
-0.4176,-0.0738196356269576
-0.41860000000000014,-0.07377719428796166
-0.41960000000000003,-0.07374890006196436
-0.42060000000000014,-0.07374890006196436
-0.42160000000000003,-0.07374890006196436
-0.42260000000000014,-0.07372060583596705
-0.42360000000000003,-0.0736498702709738
-0.42460000000000014,-0.0736215760449765
-0.42560000000000003,-0.07360742893197786
-0.42660000000000015,-0.0736215760449765
-0.42760000000000004,-0.07356498759298191
-0.42860000000000015,-0.07352254625398597
-0.42960000000000004,-0.07348010491499
-0.43060000000000015,-0.07349425202798866
-0.43160000000000004,-0.07349425202798866
-0.43260000000000015,-0.07346595780199136
-0.43360000000000004,-0.0733952222369981
-0.43460000000000015,-0.07338107512399945
-0.43560000000000004,-0.07338107512399945
-0.43660000000000015,-0.0733952222369981
