Potential V vs RHE, Current mA cm-2
0.013299999999999867,1.5675001202504606
0.012299999999999978,-0.6128529351015338
0.011299999999999866,-2.4884771764625997
0.010299999999999976,-4.23281620919619
0.009299999999999864,-5.847001802342197
0.008299999999999974,-7.28576319430494
0.007299999999999862,-8.725939297567548
0.006299999999999972,-10.034547249942705
0.00529999999999986,-11.343155202317865
0.0042999999999999705,-12.56405105410139
0.0032999999999998586,-13.784946905884919
0.0022999999999999687,-14.868615761581536
0.0012999999999998568,-15.91550212348166
0.00029999999999996696,-16.877505807389888
-0.000700000000000145,-17.797068152302163
-0.0017000000000000348,-18.674189158218486
-0.0027000000000001467,-19.537163051136158
-0.0037000000000000366,-20.414284057052477
-0.0047000000000001485,-21.248963723972853
-0.005700000000000038,-22.069496277894572
-0.00670000000000015,-22.904175944814945
-0.00770000000000004,-23.639825820744765
-0.008700000000000152,-24.389622809673234
-0.009700000000000042,-25.0828313466071
-0.010700000000000154,-25.73359854454502
-0.011700000000000044,-26.38436574248293
-0.012700000000000156,-27.00683871442355
-0.013700000000000045,-27.65760591236147
-0.014700000000000157,-28.308373110299385
-0.015700000000000047,-28.91669896924135
-0.01670000000000016,-29.581613280177915
-0.01770000000000005,-30.189939139119886
-0.01870000000000016,-30.71338232006995
-0.01970000000000005,-31.27926684001596
-0.020700000000000163,-31.802710020966025
-0.021700000000000053,-32.32615320191609
-0.022700000000000164,-32.84959638286615
-0.023700000000000054,-33.41548090281216
-0.024700000000000166,-33.93892408376223
-0.025700000000000056,-34.50480860370825
-0.026700000000000168,-35.07069312365426
-0.027700000000000058,-35.636577643600276
-0.02870000000000017,-36.16002082455034
-0.02970000000000006,-36.64102266650445
-0.03070000000000017,-37.122024508458566
-0.03170000000000006,-37.60302635041268
-0.03270000000000017,-38.12646953136274
-0.03370000000000006,-38.607471373316855
-0.034700000000000175,-39.130914554266916
-0.035700000000000065,-39.654357735216976
-0.03670000000000018,-40.220242255162994
-0.03770000000000007,-40.743685436113054
-0.03870000000000018,-41.267128617063115
-0.03970000000000007,-41.74813045901723
-0.04070000000000018,-42.2715736399673
-0.04170000000000007,-42.71013414292546
-0.04270000000000018,-43.23357732387552
-0.04370000000000007,-43.75702050482558
-0.044700000000000184,-44.28046368577565
-0.045700000000000074,-44.84634820572166
-0.046700000000000186,-45.412232725667685
-0.047700000000000076,-45.93567590661774
-0.04870000000000019,-46.45911908756781
-0.04970000000000008,-46.982562268517874
-0.05070000000000019,-47.46356411047198
-0.05170000000000008,-47.93041883942744
-0.05270000000000019,-48.45386202037751
-0.05370000000000008,-49.03389365332217
-0.05470000000000019,-49.59977817326819
-0.05570000000000008,-50.12322135421825
-0.056700000000000195,-50.73154721316022
-0.057700000000000085,-51.25499039411028
-0.058700000000000196,-51.77843357506035
-0.059700000000000086,-52.30187675601041
-0.0607000000000002,-52.78287859796452
-0.06170000000000009,-53.30632177891458
-0.0627000000000002,-53.82976495986464
-0.06370000000000009,-54.39564947981066
-0.0647000000000002,-54.961533999756675
-0.06570000000000009,-55.527418519702685
-0.0667000000000002,-56.13574437864466
-0.0677000000000001,-56.74407023758662
-0.0687000000000002,-57.30995475753264
-0.0697000000000001,-57.8333979384827
-0.07070000000000021,-58.35684111943277
-0.0717000000000001,-58.880284300382826
-0.07270000000000021,-59.403727481332886
-0.0737000000000001,-59.9696120012789
-0.07470000000000021,-60.54964363422357
-0.0757000000000001,-61.15796949316553
-0.07670000000000021,-61.7662953521075
-0.0777000000000001,-62.33217987205352
-0.07870000000000021,-62.855623053003576
-0.0797000000000001,-63.37906623395363
-0.08070000000000022,-63.902509414903705
-0.0817000000000001,-64.38351125685783
-0.08270000000000022,-64.90695443780788
-0.08370000000000011,-65.4728389577539
-0.08470000000000022,-66.03872347769992
-0.08570000000000011,-66.60460799764593
-0.08670000000000022,-67.21293385658788
-0.08770000000000011,-67.73637703753796
-0.08870000000000022,-68.25982021848802
-0.08970000000000011,-68.78326339943808
-0.09070000000000022,-69.26426524139221
-0.09170000000000011,-69.74526708334632
-0.09270000000000023,-70.22626892530042
-0.09370000000000012,-70.74971210625048
-0.09470000000000023,-71.31559662619651
-0.09570000000000012,-71.83903980714656
-0.09670000000000023,-72.40492432709259
-0.09770000000000012,-72.92836750804264
-0.09870000000000023,-73.45181068899271
-0.09970000000000012,-73.97525386994278
-0.10070000000000023,-74.49869705089283
-0.10170000000000012,-74.97969889284694
-0.10270000000000024,-75.50314207379701
-0.10370000000000013,-75.98414391575112
-0.10470000000000024,-76.50758709670117
-0.10570000000000013,-77.0734716166472
-0.10670000000000024,-77.63935613659322
-0.10770000000000013,-78.16279931754329
-0.10870000000000024,-78.64380115949739
-0.10970000000000013,-79.1248030014515
-0.11070000000000024,-79.60580484340561
-0.11170000000000013,-80.08680668535972
-0.11270000000000002,-80.56780852731384
-0.11370000000000013,-81.04881036926795
-0.11470000000000002,-81.57225355021802
-0.11570000000000014,-82.09569673116808
-0.11670000000000003,-82.6615812511141
-0.11770000000000014,-83.14258309306821
-0.11870000000000003,-83.66602627401826
-0.11970000000000014,-84.04799832498183
-0.12070000000000003,-84.48655882793999
-0.12170000000000014,-84.92511933089816
-0.12270000000000003,-85.36367983385631
-0.12370000000000014,-85.84468167581042
-0.12470000000000003,-86.28324217876859
-0.12570000000000014,-86.80668535971866
-0.12670000000000003,-87.27354008867411
-0.12770000000000015,-87.75454193062824
-0.12870000000000004,-88.19310243358639
-0.12970000000000015,-88.5892215975486
-0.13070000000000004,-89.02778210050676
-0.13170000000000015,-89.46634260346492
-0.13270000000000004,-89.89075599342443
-0.13370000000000015,-90.32931649638259
-0.13470000000000004,-90.81031833833671
-0.13570000000000015,-91.29132018029082
-0.13670000000000004,-91.81476336124088
-0.13770000000000016,-92.25332386419905
-0.13870000000000005,-92.73432570615316
-0.13970000000000016,-93.21532754810727
-0.14070000000000005,-93.61144671206948
-0.14170000000000016,-93.99341876303303
-0.14270000000000005,-94.4319792659912
-0.14370000000000016,-94.8280984299534
-0.14470000000000005,-95.30910027190752
-0.14570000000000016,-95.69107232287108
-0.14670000000000005,-96.12963282582925
-0.14770000000000016,-96.5681933287874
-0.14870000000000005,-97.00675383174556
-0.14970000000000017,-97.40287299570777
-0.15070000000000006,-97.84143349866595
-0.15170000000000017,-98.2234055496295
-0.15270000000000006,-98.57708337459576
-0.15370000000000017,-99.01564387755391
-0.15470000000000006,-99.45420438051207
-0.15570000000000017,-99.93520622246619
-0.15670000000000006,-100.40206095142165
-0.15770000000000017,-100.84062145437981
-0.15870000000000006,-101.23674061834203
-0.15970000000000018,-101.63285978230424
-0.16070000000000007,-102.02897894626645
-0.16170000000000018,-102.36850965823406
-0.16270000000000007,-102.76462882219626
-0.16370000000000018,-103.16074798615847
-0.16470000000000007,-103.59930848911664
-0.16570000000000018,-103.98128054008019
-0.16670000000000007,-104.46228238203432
-0.16770000000000018,-104.90084288499246
-0.16870000000000007,-105.29696204895468
-0.16970000000000018,-105.63649276092228
-0.17070000000000007,-106.0326119248845
-0.17170000000000019,-106.4287310888467
-0.17270000000000008,-106.78240891381296
-0.1737000000000002,-107.20682230377247
-0.17470000000000008,-107.64538280673065
-0.1757000000000002,-108.12638464868475
-0.17670000000000008,-108.60738649063886
-0.1777000000000002,-109.00350565460108
-0.17870000000000008,-109.39962481856328
-0.1797000000000002,-109.78159686952685
-0.18070000000000008,-110.1352746944931
-0.1817000000000002,-110.48895251945936
-0.18270000000000008,-110.87092457042293
-0.1837000000000002,-111.26704373438514
-0.1847000000000001,-111.6207215593514
-0.1857000000000002,-112.05928206230955
-0.1867000000000001,-112.44125411327312
-0.1877000000000002,-112.83737327723534
-0.1887000000000001,-113.19105110220158
-0.1897000000000002,-113.53058181416918
-0.1907000000000001,-113.79937696114357
-0.1917000000000001,-114.1530547861098
-0.19269999999999998,-114.4925854980774
-0.1937000000000001,-114.93114600103557
-0.19469999999999998,-115.32726516499778
-0.1957000000000001,-115.80826700695191
-0.19669999999999999,-116.33171018790196
-0.1977000000000001,-116.81271202985609
-0.1987,-117.25127253281424
-0.1997000000000001,-117.71812726176971
-0.2007,-118.15668776472786
-0.2017000000000001,-118.55280692869007
-0.2027,-118.94892609265229
-0.2037000000000001,-119.38748659561045
-0.2047,-119.769458646574
-0.2057000000000001,-120.16557781053622
-0.2067,-120.56169697449842
-0.2077000000000001,-120.95781613846064
-0.2087,-121.29734685042824
-0.2097000000000001,-121.60858333639854
-0.2107,-121.96226116136481
-0.2117000000000001,-122.30179187333242
-0.2127,-122.65546969829869
-0.2137000000000001,-123.00914752326493
-0.2147,-123.39111957422851
-0.2157000000000001,-123.87212141618261
-0.2167,-124.31068191914078
-0.21770000000000012,-124.74924242209892
-0.2187,-125.10292024706521
-0.21970000000000012,-125.48489229802875
-0.2207,-125.88101146199097
-0.22170000000000012,-126.23468928695722
-0.2227,-126.6732497899154
-0.22370000000000012,-127.05522184087894
-0.2247,-127.45134100484115
-0.22570000000000012,-127.80501882980741
-0.2267,-128.18699088077096
-0.22770000000000012,-128.5831100447332
-0.22870000000000001,-128.89434653070347
-0.22970000000000013,-129.2338772426711
-0.23070000000000002,-129.58755506763737
-0.23170000000000013,-129.9412328926036
-0.23270000000000002,-130.28076360457123
-0.23370000000000013,-130.67688276853346
-0.23470000000000002,-131.03056059349967
-0.23570000000000013,-131.46912109645783
-0.23670000000000002,-131.8510931474214
-0.2376999999999999,-132.24721231138363
-0.23870000000000002,-132.64333147534586
-0.2396999999999999,-132.99700930031207
-0.24070000000000003,-133.37898135127566
-0.24169999999999991,-133.69021783724597
-0.24270000000000003,-134.04389566221224
-0.24369999999999992,-134.34098503518388
-0.24470000000000003,-134.73710419914607
-0.24569999999999992,-135.1332233631083
-0.24670000000000003,-135.51519541407185
-0.24769999999999992,-135.86887323903812
-0.24870000000000003,-136.2225510640044
-0.24969999999999992,-136.47719909798008
-0.25070000000000003,-136.7884355839504
-0.2516999999999999,-137.08552495692206
-0.25270000000000004,-137.3543201038964
-0.2536999999999999,-137.6089681378721
-0.25470000000000004,-137.92020462384244
-0.2556999999999999,-138.17485265781812
-0.25670000000000004,-138.48608914378846
-0.25769999999999993,-138.7548842907628
-0.25870000000000004,-138.96709098574257
-0.25969999999999993,-139.22173901971826
-0.26070000000000004,-139.44809282769666
-0.26169999999999993,-139.6602995226764
-0.26270000000000004,-139.8866533306548
-0.26369999999999993,-140.0988600256346
-0.26470000000000005,-140.36765517260895
-0.26569999999999994,-140.62230320658463
-0.26670000000000005,-140.93353969255494
-0.26769999999999994,-141.18818772653066
-0.26870000000000005,-141.41454153450906
-0.26969999999999994,-141.61260111649017
-0.27070000000000005,-141.75407224647665
-0.27169999999999994,-142.03701450644968
-0.27270000000000005,-142.17848563643616
-0.27369999999999994,-142.4614278964092
-0.27470000000000006,-142.6028990263957
-0.27569999999999995,-142.8858412863687
-0.27670000000000006,-143.16878354634173
-0.27769999999999995,-143.3102546763282
-0.27870000000000006,-143.3102546763282
-0.27969999999999995,-143.4517258063147
-0.28070000000000006,-143.5931969363012
-0.28169999999999995,-143.73466806628772
-0.28270000000000006,-143.73466806628772
-0.28369999999999995,-143.87613919627424
-0.28470000000000006,-143.87613919627424
-0.28569999999999995,-144.01761032626072
-0.28670000000000007,-144.30055258623375
-0.28769999999999996,-144.30055258623375
-0.28870000000000007,-144.44202371622026
-0.28969999999999996,-144.44202371622026
-0.29070000000000007,-144.44202371622026
-0.29169999999999996,-144.44202371622026
-0.29270000000000007,-144.44202371622026
-0.29369999999999996,-144.44202371622026
-0.2947000000000001,-144.58349484620675
-0.29569999999999996,-144.58349484620675
-0.2967000000000001,-144.58349484620675
-0.29769999999999996,-144.58349484620675
-0.2987000000000001,-144.58349484620675
-0.29969999999999997,-144.44202371622026
-0.3007000000000001,-144.30055258623375
-0.30169999999999997,-144.15908145624724
-0.3027000000000001,-144.15908145624724
-0.30369999999999997,-144.01761032626072
-0.3047000000000001,-144.01761032626072
-0.30569999999999997,-143.87613919627424
-0.3067000000000001,-143.87613919627424
-0.3077,-143.87613919627424
-0.3087000000000001,-143.73466806628772
-0.3097,-143.5931969363012
-0.3107000000000001,-143.4517258063147
-0.3117,-143.3102546763282
-0.3127000000000001,-143.0273124163552
-0.3137,-142.8858412863687
-0.3147000000000001,-142.7443701563822
-0.3157,-142.6028990263957
-0.3167000000000001,-142.31995676642268
-0.3177,-142.17848563643616
-0.3187000000000001,-141.89554337646317
-0.3197,-141.61260111649017
-0.3207000000000001,-141.27307040452254
-0.3217,-140.89109835355902
-0.3227000000000001,-140.53742052859275
-0.3237,-140.2686253816184
-0.3247000000000001,-140.01397734764268
-0.3257,-139.74518220066832
-0.3267000000000001,-139.49053416669264
-0.3277,-139.1792976807223
-0.3287000000000001,-138.79732562975875
-0.3297,-138.40120646579655
-0.3307000000000001,-137.9626459628384
-0.3317,-137.52408545988024
-0.3327000000000001,-137.12796629591801
-0.3337,-136.70355290595847
-0.3347000000000001,-136.34987508099226
-0.3357,-135.91131457803408
-0.3367000000000001,-135.51519541407185
-0.3377,-135.1332233631083
-0.3387000000000001,-134.6522215211542
-0.3397,-134.256102357192
-0.3407000000000001,-133.73265917624192
-0.3417,-133.2516573342878
-0.3427000000000001,-132.7706554923337
-0.3437,-132.2896536503796
-0.3447000000000001,-131.80865180842545
-0.3457,-131.32764996647134
-0.3467000000000001,-130.84664812451723
-0.3477,-130.37979339556176
-0.3487000000000001,-129.89879155360765
-0.3497,-129.3753483726576
-0.3507000000000001,-128.89434653070347
-0.3517,-128.32846201075745
-0.3527000000000001,-127.84746016880335
-0.3537,-127.32401698785328
-0.3547000000000001,-126.80057380690324
-0.3557,-126.36201330394509
-0.35670000000000013,-125.83857012299501
-0.3577,-125.31512694204494
-0.35870000000000013,-124.7916837610949
-0.3597,-124.22579924114888
-0.36070000000000013,-123.6174733822069
-0.3617,-123.00914752326493
-0.3626999999999999,-122.42911589032028
-0.3637,-121.90567270937021
-0.3646999999999999,-121.38222952842017
-0.3657,-120.9153747994647
-0.3666999999999999,-120.39193161851462
-0.3677,-119.9109297765605
-0.3686999999999999,-119.4299279346064
-0.36970000000000003,-118.86404341466037
-0.3706999999999999,-118.3406002337103
-0.37170000000000003,-117.77471571376431
-0.3726999999999999,-117.25127253281424
-0.37370000000000003,-116.77027069086012
-0.3746999999999999,-116.33171018790196
-0.37570000000000003,-115.8931496849438
-0.3766999999999999,-115.4970305209816
-0.37770000000000004,-115.10091135701937
-0.3786999999999999,-114.71893930605583
-0.37970000000000004,-114.28037880309766
-0.3806999999999999,-113.84181830013951
-0.38170000000000004,-113.40325779718134
-0.38269999999999993,-112.96469729422319
-0.38370000000000004,-112.58272524325962
-0.38469999999999993,-112.18660607929739
-0.38570000000000004,-111.7904869153352
-0.38669999999999993,-111.4509562033676
-0.38770000000000004,-111.13971971739728
-0.38869999999999993,-110.78604189243102
-0.38970000000000005,-110.40406984146746
-0.39069999999999994,-110.09283335549715
-0.39170000000000005,-109.73915553053091
-0.39269999999999994,-109.44206615755924
-0.39370000000000005,-109.13082967158894
-0.39469999999999994,-108.87618163761321
-0.39570000000000005,-108.60738649063886
-0.39669999999999994,-108.35273845666316
-0.39770000000000005,-108.12638464868475
-0.39869999999999994,-107.87173661470905
-0.39970000000000006,-107.64538280673065
-0.40069999999999995,-107.47561745074682
-0.40170000000000006,-107.30585209476303
-0.40269999999999995,-107.12193962578058
-0.40370000000000006,-106.99461560879273
-0.40469999999999995,-106.90973293080083
-0.40570000000000006,-106.82485025280893
-0.40669999999999995,-106.78240891381296
-0.40770000000000006,-106.68337912282242
-0.40869999999999995,-106.64093778382647
-0.40970000000000006,-106.55605510583456
-0.41069999999999995,-106.51361376683862
-0.41170000000000007,-106.47117242784265
-0.41269999999999996,-106.47117242784265
-0.41370000000000007,-106.51361376683862
-0.41469999999999996,-106.59849644483052
-0.41570000000000007,-106.68337912282242
-0.41669999999999996,-106.82485025280893
-0.41770000000000007,-106.95217426979677
-0.41869999999999996,-107.07949828678463
-0.4197000000000001,-107.20682230377247
-0.42069999999999996,-107.30585209476303
-0.4217000000000001,-107.4331761117509
-0.42269999999999996,-107.6029414677347
-0.4237000000000001,-107.78685393671715
-0.42469999999999997,-107.99906063169689
-0.4257000000000001,-108.1688259876807
-0.42669999999999997,-108.43762113465506
-0.4277000000000001,-108.73471050762672
-0.42869999999999997,-109.04594699359701
-0.4297000000000001,-109.35718347956733
-0.43069999999999997,-109.654272852539
-0.4317000000000001,-109.92306799951335
-0.4327,-110.22015737248502
-0.4337000000000001,-110.6162765364472
-0.4347,-111.01239570040943
-0.4357000000000001,-111.4509562033676
-0.4367,-111.91781093232305
-0.4377000000000001,-112.39881277427718
-0.4387,-112.83737327723534
-0.4397000000000001,-113.23349244119754
-0.4407,-113.62961160515974
-0.4417000000000001,-114.0115836561233
-0.4427,-114.36526148108955
-0.4437000000000001,-114.80382198404773
-0.4447,-115.2423824870059
-0.4457000000000001,-115.72338432896
-0.4467,-116.20438617091412
-0.4477000000000001,-116.67124089986959
-0.4487,-117.15224274182368
-0.4497000000000001,-117.63324458377778
-0.4507,-118.11424642573192
-0.4517000000000001,-118.59524826768603
-0.4527,-119.1186914486361
-0.4537000000000001,-119.68457596858211
-0.4547,-120.25046048852812
-0.4557000000000001,-120.81634500847414
-0.4567,-121.48125931941068
-0.4577000000000001,-122.0471438393567
-0.4587,-122.65546969829869
-0.4597000000000001,-123.2213542182447
-0.4607,-123.78723873819072
-0.4617000000000001,-124.35312325813672
-0.4627,-124.91900777808273
-0.4637000000000001,-125.56977497602065
-0.4647,-126.23468928695722
-0.4657000000000001,-126.9278978238911
-0.4667,-127.62110636082497
-0.4677000000000001,-128.37090334975343
-0.4687,-129.02167054769134
-0.4697000000000001,-129.7148790846252
-0.4707,-130.42223473455772
-0.4717000000000001,-131.15788461048754
-0.4727,-131.8510931474214
-0.4737000000000001,-132.60089013634988
-0.4747,-133.37898135127566
-0.4757000000000001,-134.21366101819604
-0.4767,-135.03419357211774
-0.4777000000000001,-135.82643190004217
-0.4787,-136.66111156696255
-0.4797000000000001,-137.43920278188833
-0.4807,-138.23144110981272
-0.48170000000000013,-138.96709098574257
-0.4827,-139.74518220066832
-0.48370000000000013,-140.62230320658463
-0.4847,-141.47112998650366
-0.48570000000000013,-142.4614278964092
-0.4867,-141.75407224647665
-0.48570000000000013,-138.40120646579655
-0.4847,-135.387871397084
-0.48370000000000013,-132.64333147534586
-0.4827,-130.06855690959148
-0.48170000000000013,-127.66354769982091
-0.4807,-125.35756828104091
-0.4797000000000001,-123.26379555724066
-0.4787,-121.21246417243634
-0.4777000000000001,-119.24601546562396
-0.4767,-117.42103788879804
-0.4757000000000001,-115.62435453796945
-0.4747,-113.88425963913545
-0.4737000000000001,-112.14416474030146
-0.4727,-110.40406984146746
-0.4717000000000001,-108.73471050762672
-0.4707,-107.12193962578058
-0.4697000000000001,-105.59405142192634
-0.4687,-104.06616321807209
-0.4677000000000001,-102.59486346621246
-0.4667,-101.19429927934607
