May 3, 2025   23:19:41
Cyclic Voltammetry
File: c:/users/guazh/data/banditlqround7_x0exp1108_r5/2025-04-30-exp1232\exp1232-2025-05-03t23_08_05-h2koh\exp1232_cv_sr_700mvs_efin_-1500mv.bin
Data Source:  Experiment
Instrument Model:  CHI760E
Header: CV ran at 700 mVs
Note: 

Init E (V) = -1
High E (V) = -1
Low E (V) = -1.5
Final E (V) = -1
Init P/N = N
Scan Rate (V/s) = 0.7
Segment = 3
Sample Interval (V) = 0.001
Quiet Time (sec) = 2
Sensitivity (A/V) = 0.01
Comp R (ohm) = 1.1

Results:

Channel 1:
Segment 1:

Segment 2:

Segment 3:

Potential/V, Current/A

-1.000, 5.257e-5
-1.001, 1.913e-4
-1.002, 2.900e-4
-1.003, 3.701e-4
-1.004, 4.349e-4
-1.005, 4.935e-4
-1.006, 5.459e-4
-1.007, 5.890e-4
-1.008, 6.322e-4
-1.009, 6.661e-4
-1.010, 6.969e-4
-1.011, 7.247e-4
-1.012, 7.494e-4
-1.013, 7.709e-4
-1.014, 7.894e-4
-1.015, 8.110e-4
-1.016, 8.295e-4
-1.017, 8.573e-4
-1.018, 8.788e-4
-1.019, 9.004e-4
-1.020, 9.251e-4
-1.021, 9.405e-4
-1.022, 9.590e-4
-1.023, 9.713e-4
-1.024, 9.868e-4
-1.025, 9.991e-4
-1.026, 1.011e-3
-1.027, 1.024e-3
-1.028, 1.039e-3
-1.029, 1.058e-3
-1.030, 1.076e-3
-1.031, 1.092e-3
-1.032, 1.107e-3
-1.033, 1.119e-3
-1.034, 1.135e-3
-1.035, 1.141e-3
-1.036, 1.150e-3
-1.037, 1.159e-3
-1.038, 1.169e-3
-1.039, 1.181e-3
-1.040, 1.193e-3
-1.041, 1.206e-3
-1.042, 1.218e-3
-1.043, 1.233e-3
-1.044, 1.243e-3
-1.045, 1.255e-3
-1.046, 1.264e-3
-1.047, 1.270e-3
-1.048, 1.277e-3
-1.049, 1.283e-3
-1.050, 1.289e-3
-1.051, 1.298e-3
-1.052, 1.310e-3
-1.053, 1.323e-3
-1.054, 1.335e-3
-1.055, 1.344e-3
-1.056, 1.354e-3
-1.057, 1.363e-3
-1.058, 1.366e-3
-1.059, 1.372e-3
-1.060, 1.378e-3
-1.061, 1.381e-3
-1.062, 1.388e-3
-1.063, 1.397e-3
-1.064, 1.406e-3
-1.065, 1.418e-3
-1.066, 1.428e-3
-1.067, 1.437e-3
-1.068, 1.443e-3
-1.069, 1.446e-3
-1.070, 1.452e-3
-1.071, 1.455e-3
-1.072, 1.458e-3
-1.073, 1.465e-3
-1.074, 1.471e-3
-1.075, 1.480e-3
-1.076, 1.489e-3
-1.077, 1.495e-3
-1.078, 1.508e-3
-1.079, 1.511e-3
-1.080, 1.517e-3
-1.081, 1.523e-3
-1.082, 1.526e-3
-1.083, 1.529e-3
-1.084, 1.529e-3
-1.085, 1.536e-3
-1.086, 1.539e-3
-1.087, 1.548e-3
-1.088, 1.554e-3
-1.089, 1.563e-3
-1.090, 1.573e-3
-1.091, 1.579e-3
-1.092, 1.582e-3
-1.093, 1.585e-3
-1.094, 1.588e-3
-1.095, 1.591e-3
-1.096, 1.591e-3
-1.097, 1.594e-3
-1.098, 1.600e-3
-1.099, 1.610e-3
-1.100, 1.616e-3
-1.101, 1.625e-3
-1.102, 1.631e-3
-1.103, 1.637e-3
-1.104, 1.640e-3
-1.105, 1.643e-3
-1.106, 1.643e-3
-1.107, 1.643e-3
-1.108, 1.650e-3
-1.109, 1.653e-3
-1.110, 1.659e-3
-1.111, 1.668e-3
-1.112, 1.674e-3
-1.113, 1.684e-3
-1.114, 1.687e-3
-1.115, 1.693e-3
-1.116, 1.696e-3
-1.117, 1.696e-3
-1.118, 1.699e-3
-1.119, 1.699e-3
-1.120, 1.702e-3
-1.121, 1.711e-3
-1.122, 1.714e-3
-1.123, 1.724e-3
-1.124, 1.730e-3
-1.125, 1.739e-3
-1.126, 1.742e-3
-1.127, 1.745e-3
-1.128, 1.748e-3
-1.129, 1.751e-3
-1.130, 1.754e-3
-1.131, 1.758e-3
-1.132, 1.761e-3
-1.133, 1.767e-3
-1.134, 1.776e-3
-1.135, 1.785e-3
-1.136, 1.791e-3
-1.137, 1.801e-3
-1.138, 1.804e-3
-1.139, 1.807e-3
-1.140, 1.810e-3
-1.141, 1.813e-3
-1.142, 1.813e-3
-1.143, 1.819e-3
-1.144, 1.822e-3
-1.145, 1.832e-3
-1.146, 1.841e-3
-1.147, 1.847e-3
-1.148, 1.859e-3
-1.149, 1.865e-3
-1.150, 1.872e-3
-1.151, 1.872e-3
-1.152, 1.878e-3
-1.153, 1.881e-3
-1.154, 1.881e-3
-1.155, 1.887e-3
-1.156, 1.893e-3
-1.157, 1.899e-3
-1.158, 1.909e-3
-1.159, 1.921e-3
-1.160, 1.927e-3
-1.161, 1.936e-3
-1.162, 1.943e-3
-1.163, 1.946e-3
-1.164, 1.949e-3
-1.165, 1.952e-3
-1.166, 1.958e-3
-1.167, 1.964e-3
-1.168, 1.970e-3
-1.169, 1.980e-3
-1.170, 1.989e-3
-1.171, 1.998e-3
-1.172, 2.007e-3
-1.173, 2.017e-3
-1.174, 2.023e-3
-1.175, 2.026e-3
-1.176, 2.029e-3
-1.177, 2.032e-3
-1.178, 2.038e-3
-1.179, 2.047e-3
-1.180, 2.054e-3
-1.181, 2.063e-3
-1.182, 2.075e-3
-1.183, 2.084e-3
-1.184, 2.094e-3
-1.185, 2.103e-3
-1.186, 2.106e-3
-1.187, 2.109e-3
-1.188, 2.115e-3
-1.189, 2.121e-3
-1.190, 2.131e-3
-1.191, 2.137e-3
-1.192, 2.149e-3
-1.193, 2.158e-3
-1.194, 2.168e-3
-1.195, 2.177e-3
-1.196, 2.189e-3
-1.197, 2.195e-3
-1.198, 2.201e-3
-1.199, 2.208e-3
-1.200, 2.211e-3
-1.201, 2.220e-3
-1.202, 2.226e-3
-1.203, 2.238e-3
-1.204, 2.248e-3
-1.205, 2.260e-3
-1.206, 2.272e-3
-1.207, 2.285e-3
-1.208, 2.291e-3
-1.209, 2.300e-3
-1.210, 2.306e-3
-1.211, 2.312e-3
-1.212, 2.319e-3
-1.213, 2.328e-3
-1.214, 2.334e-3
-1.215, 2.346e-3
-1.216, 2.359e-3
-1.217, 2.371e-3
-1.218, 2.383e-3
-1.219, 2.396e-3
-1.220, 2.405e-3
-1.221, 2.411e-3
-1.222, 2.417e-3
-1.223, 2.423e-3
-1.224, 2.430e-3
-1.225, 2.442e-3
-1.226, 2.448e-3
-1.227, 2.464e-3
-1.228, 2.476e-3
-1.229, 2.491e-3
-1.230, 2.504e-3
-1.231, 2.513e-3
-1.232, 2.522e-3
-1.233, 2.531e-3
-1.234, 2.538e-3
-1.235, 2.541e-3
-1.236, 2.553e-3
-1.237, 2.559e-3
-1.238, 2.571e-3
-1.239, 2.587e-3
-1.240, 2.599e-3
-1.241, 2.612e-3
-1.242, 2.624e-3
-1.243, 2.636e-3
-1.244, 2.645e-3
-1.245, 2.652e-3
-1.246, 2.661e-3
-1.247, 2.667e-3
-1.248, 2.676e-3
-1.249, 2.689e-3
-1.250, 2.701e-3
-1.251, 2.713e-3
-1.252, 2.729e-3
-1.253, 2.741e-3
-1.254, 2.753e-3
-1.255, 2.769e-3
-1.256, 2.775e-3
-1.257, 2.784e-3
-1.258, 2.790e-3
-1.259, 2.800e-3
-1.260, 2.809e-3
-1.261, 2.821e-3
-1.262, 2.834e-3
-1.263, 2.849e-3
-1.264, 2.864e-3
-1.265, 2.877e-3
-1.266, 2.889e-3
-1.267, 2.901e-3
-1.268, 2.911e-3
-1.269, 2.920e-3
-1.270, 2.929e-3
-1.271, 2.935e-3
-1.272, 2.951e-3
-1.273, 2.963e-3
-1.274, 2.978e-3
-1.275, 2.991e-3
-1.276, 3.009e-3
-1.277, 3.022e-3
-1.278, 3.034e-3
-1.279, 3.046e-3
-1.280, 3.056e-3
-1.281, 3.068e-3
-1.282, 3.077e-3
-1.283, 3.089e-3
-1.284, 3.099e-3
-1.285, 3.114e-3
-1.286, 3.130e-3
-1.287, 3.148e-3
-1.288, 3.163e-3
-1.289, 3.176e-3
-1.290, 3.191e-3
-1.291, 3.200e-3
-1.292, 3.213e-3
-1.293, 3.222e-3
-1.294, 3.234e-3
-1.295, 3.247e-3
-1.296, 3.259e-3
-1.297, 3.274e-3
-1.298, 3.293e-3
-1.299, 3.308e-3
-1.300, 3.327e-3
-1.301, 3.342e-3
-1.302, 3.355e-3
-1.303, 3.367e-3
-1.304, 3.376e-3
-1.305, 3.388e-3
-1.306, 3.401e-3
-1.307, 3.413e-3
-1.308, 3.429e-3
-1.309, 3.447e-3
-1.310, 3.466e-3
-1.311, 3.484e-3
-1.312, 3.499e-3
-1.313, 3.518e-3
-1.314, 3.530e-3
-1.315, 3.543e-3
-1.316, 3.555e-3
-1.317, 3.570e-3
-1.318, 3.586e-3
-1.319, 3.601e-3
-1.320, 3.617e-3
-1.321, 3.638e-3
-1.322, 3.657e-3
-1.323, 3.678e-3
-1.324, 3.694e-3
-1.325, 3.712e-3
-1.326, 3.728e-3
-1.327, 3.743e-3
-1.328, 3.755e-3
-1.329, 3.768e-3
-1.330, 3.786e-3
-1.331, 3.805e-3
-1.332, 3.826e-3
-1.333, 3.845e-3
-1.334, 3.866e-3
-1.335, 3.888e-3
-1.336, 3.910e-3
-1.337, 3.928e-3
-1.338, 3.943e-3
-1.339, 3.959e-3
-1.340, 3.977e-3
-1.341, 3.993e-3
-1.342, 4.014e-3
-1.343, 4.036e-3
-1.344, 4.058e-3
-1.345, 4.082e-3
-1.346, 4.107e-3
-1.347, 4.128e-3
-1.348, 4.150e-3
-1.349, 4.172e-3
-1.350, 4.190e-3
-1.351, 4.209e-3
-1.352, 4.227e-3
-1.353, 4.249e-3
-1.354, 4.267e-3
-1.355, 4.295e-3
-1.356, 4.320e-3
-1.357, 4.344e-3
-1.358, 4.372e-3
-1.359, 4.394e-3
-1.360, 4.415e-3
-1.361, 4.440e-3
-1.362, 4.458e-3
-1.363, 4.480e-3
-1.364, 4.501e-3
-1.365, 4.526e-3
-1.366, 4.551e-3
-1.367, 4.582e-3
-1.368, 4.606e-3
-1.369, 4.637e-3
-1.370, 4.668e-3
-1.371, 4.696e-3
-1.372, 4.727e-3
-1.373, 4.745e-3
-1.374, 4.773e-3
-1.375, 4.797e-3
-1.376, 4.822e-3
-1.377, 4.850e-3
-1.378, 4.878e-3
-1.379, 4.908e-3
-1.380, 4.936e-3
-1.381, 4.970e-3
-1.382, 5.001e-3
-1.383, 5.032e-3
-1.384, 5.056e-3
-1.385, 5.084e-3
-1.386, 5.112e-3
-1.387, 5.137e-3
-1.388, 5.164e-3
-1.389, 5.192e-3
-1.390, 5.226e-3
-1.391, 5.263e-3
-1.392, 5.297e-3
-1.393, 5.331e-3
-1.394, 5.365e-3
-1.395, 5.399e-3
-1.396, 5.430e-3
-1.397, 5.460e-3
-1.398, 5.491e-3
-1.399, 5.522e-3
-1.400, 5.556e-3
-1.401, 5.593e-3
-1.402, 5.630e-3
-1.403, 5.670e-3
-1.404, 5.707e-3
-1.405, 5.747e-3
-1.406, 5.787e-3
-1.407, 5.821e-3
-1.408, 5.858e-3
-1.409, 5.892e-3
-1.410, 5.929e-3
-1.411, 5.963e-3
-1.412, 6.000e-3
-1.413, 6.037e-3
-1.414, 6.080e-3
-1.415, 6.120e-3
-1.416, 6.163e-3
-1.417, 6.206e-3
-1.418, 6.247e-3
-1.419, 6.284e-3
-1.420, 6.324e-3
-1.421, 6.361e-3
-1.422, 6.398e-3
-1.423, 6.438e-3
-1.424, 6.475e-3
-1.425, 6.518e-3
-1.426, 6.564e-3
-1.427, 6.610e-3
-1.428, 6.657e-3
-1.429, 6.700e-3
-1.430, 6.743e-3
-1.431, 6.783e-3
-1.432, 6.826e-3
-1.433, 6.866e-3
-1.434, 6.909e-3
-1.435, 6.953e-3
-1.436, 6.999e-3
-1.437, 7.045e-3
-1.438, 7.094e-3
-1.439, 7.144e-3
-1.440, 7.193e-3
-1.441, 7.239e-3
-1.442, 7.289e-3
-1.443, 7.332e-3
-1.444, 7.378e-3
-1.445, 7.421e-3
-1.446, 7.467e-3
-1.447, 7.517e-3
-1.448, 7.563e-3
-1.449, 7.619e-3
-1.450, 7.671e-3
-1.451, 7.723e-3
-1.452, 7.776e-3
-1.453, 7.828e-3
-1.454, 7.881e-3
-1.455, 7.930e-3
-1.456, 7.982e-3
-1.457, 8.032e-3
-1.458, 8.084e-3
-1.459, 8.136e-3
-1.460, 8.192e-3
-1.461, 8.247e-3
-1.462, 8.306e-3
-1.463, 8.365e-3
-1.464, 8.420e-3
-1.465, 8.479e-3
-1.466, 8.531e-3
-1.467, 8.584e-3
-1.468, 8.639e-3
-1.469, 8.688e-3
-1.470, 8.747e-3
-1.471, 8.802e-3
-1.472, 8.864e-3
-1.473, 8.923e-3
-1.474, 8.984e-3
-1.475, 9.046e-3
-1.476, 9.108e-3
-1.477, 9.166e-3
-1.478, 9.222e-3
-1.479, 9.283e-3
-1.480, 9.336e-3
-1.481, 9.397e-3
-1.482, 9.456e-3
-1.483, 9.518e-3
-1.484, 9.582e-3
-1.485, 9.647e-3
-1.486, 9.712e-3
-1.487, 9.777e-3
-1.488, 9.838e-3
-1.489, 9.900e-3
-1.490, 9.959e-3
-1.491, 1.002e-2
-1.492, 1.008e-2
-1.493, 1.014e-2
-1.494, 1.021e-2
-1.495, 1.028e-2
-1.496, 1.034e-2
-1.497, 1.041e-2
-1.498, 1.048e-2
-1.499, 1.055e-2
-1.500, 1.049e-2
-1.499, 1.026e-2
-1.498, 1.007e-2
-1.497, 9.909e-3
-1.496, 9.761e-3
-1.495, 9.619e-3
-1.494, 9.487e-3
-1.493, 9.360e-3
-1.492, 9.240e-3
-1.491, 9.120e-3
-1.490, 9.006e-3
-1.489, 8.892e-3
-1.488, 8.778e-3
-1.487, 8.661e-3
-1.486, 8.553e-3
-1.485, 8.439e-3
-1.484, 8.328e-3
-1.483, 8.223e-3
-1.482, 8.121e-3
-1.481, 8.019e-3
-1.480, 7.921e-3
-1.479, 7.822e-3
-1.478, 7.723e-3
-1.477, 7.628e-3
-1.476, 7.529e-3
-1.475, 7.434e-3
-1.474, 7.335e-3
-1.473, 7.236e-3
-1.472, 7.144e-3
-1.471, 7.048e-3
-1.470, 6.959e-3
-1.469, 6.875e-3
-1.468, 6.786e-3
-1.467, 6.706e-3
-1.466, 6.620e-3
-1.465, 6.536e-3
-1.464, 6.447e-3
-1.463, 6.361e-3
-1.462, 6.277e-3
-1.461, 6.191e-3
-1.460, 6.108e-3
-1.459, 6.028e-3
-1.458, 5.951e-3
-1.457, 5.873e-3
-1.456, 5.799e-3
-1.455, 5.725e-3
-1.454, 5.648e-3
-1.453, 5.574e-3
-1.452, 5.494e-3
-1.451, 5.420e-3
-1.450, 5.343e-3
-1.449, 5.269e-3
-1.448, 5.195e-3
-1.447, 5.124e-3
-1.446, 5.056e-3
-1.445, 4.992e-3
-1.444, 4.927e-3
-1.443, 4.859e-3
-1.442, 4.791e-3
-1.441, 4.723e-3
-1.440, 4.656e-3
-1.439, 4.585e-3
-1.438, 4.514e-3
-1.437, 4.449e-3
-1.436, 4.384e-3
-1.435, 4.326e-3
-1.434, 4.264e-3
-1.433, 4.206e-3
-1.432, 4.147e-3
-1.431, 4.085e-3
-1.430, 4.027e-3
-1.429, 3.965e-3
-1.428, 3.903e-3
-1.427, 3.842e-3
-1.426, 3.780e-3
-1.425, 3.725e-3
-1.424, 3.666e-3
-1.423, 3.614e-3
-1.422, 3.558e-3
-1.421, 3.506e-3
-1.420, 3.453e-3
-1.419, 3.404e-3
-1.418, 3.348e-3
-1.417, 3.290e-3
-1.416, 3.237e-3
-1.415, 3.179e-3
-1.414, 3.126e-3
-1.413, 3.074e-3
-1.412, 3.025e-3
-1.411, 2.975e-3
-1.410, 2.929e-3
-1.409, 2.883e-3
-1.408, 2.837e-3
-1.407, 2.790e-3
-1.406, 2.741e-3
-1.405, 2.689e-3
-1.404, 2.639e-3
-1.403, 2.590e-3
-1.402, 2.544e-3
-1.401, 2.494e-3
-1.400, 2.451e-3
-1.399, 2.411e-3
-1.398, 2.368e-3
-1.397, 2.328e-3
-1.396, 2.285e-3
-1.395, 2.242e-3
-1.394, 2.195e-3
-1.393, 2.152e-3
-1.392, 2.106e-3
-1.391, 2.060e-3
-1.390, 2.020e-3
-1.389, 1.980e-3
-1.388, 1.939e-3
-1.387, 1.902e-3
-1.386, 1.865e-3
-1.385, 1.828e-3
-1.384, 1.791e-3
-1.383, 1.751e-3
-1.382, 1.708e-3
-1.381, 1.668e-3
-1.380, 1.628e-3
-1.379, 1.588e-3
-1.378, 1.551e-3
-1.377, 1.511e-3
-1.376, 1.480e-3
-1.375, 1.446e-3
-1.374, 1.415e-3
-1.373, 1.381e-3
-1.372, 1.344e-3
-1.371, 1.307e-3
-1.370, 1.273e-3
-1.369, 1.236e-3
-1.368, 1.199e-3
-1.367, 1.166e-3
-1.366, 1.132e-3
-1.365, 1.101e-3
-1.364, 1.070e-3
-1.363, 1.039e-3
-1.362, 1.011e-3
-1.361, 9.806e-4
-1.360, 9.498e-4
-1.359, 9.158e-4
-1.358, 8.819e-4
-1.357, 8.480e-4
-1.356, 8.141e-4
-1.355, 7.833e-4
-1.354, 7.524e-4
-1.353, 7.247e-4
-1.352, 7.000e-4
-1.351, 6.723e-4
-1.350, 6.476e-4
-1.349, 6.199e-4
-1.348, 5.890e-4
-1.347, 5.613e-4
-1.346, 5.305e-4
-1.345, 4.996e-4
-1.344, 4.719e-4
-1.343, 4.410e-4
-1.342, 4.164e-4
-1.341, 3.948e-4
-1.340, 3.670e-4
-1.339, 3.485e-4
-1.338, 3.208e-4
-1.337, 2.961e-4
-1.336, 2.715e-4
-1.335, 2.406e-4
-1.334, 2.129e-4
-1.333, 1.851e-4
-1.332, 1.605e-4
-1.331, 1.358e-4
-1.330, 1.111e-4
-1.329, 9.265e-5
-1.328, 7.107e-5
-1.327, 5.257e-5
-1.326, 2.790e-5
-1.325, 6.322e-6
-1.324, -1.834e-5
-1.323, -4.609e-5
-1.322, -7.076e-5
-1.321, -9.542e-5
-1.320, -1.170e-4
-1.319, -1.386e-4
-1.318, -1.602e-4
-1.317, -1.787e-4
-1.316, -1.972e-4
-1.315, -2.157e-4
-1.314, -2.342e-4
-1.313, -2.557e-4
-1.312, -2.773e-4
-1.311, -3.051e-4
-1.310, -3.267e-4
-1.309, -3.482e-4
-1.308, -3.698e-4
-1.307, -3.852e-4
-1.306, -4.037e-4
-1.305, -4.222e-4
-1.304, -4.346e-4
-1.303, -4.531e-4
-1.302, -4.716e-4
-1.301, -4.901e-4
-1.300, -5.116e-4
-1.299, -5.332e-4
-1.298, -5.548e-4
-1.297, -5.764e-4
-1.296, -5.918e-4
-1.295, -6.072e-4
-1.294, -6.226e-4
-1.293, -6.380e-4
-1.292, -6.504e-4
-1.291, -6.658e-4
-1.290, -6.843e-4
-1.289, -7.028e-4
-1.288, -7.213e-4
-1.287, -7.429e-4
-1.286, -7.614e-4
-1.285, -7.768e-4
-1.284, -7.953e-4
-1.283, -8.076e-4
-1.282, -8.200e-4
-1.281, -8.323e-4
-1.280, -8.477e-4
-1.279, -8.631e-4
-1.278, -8.785e-4
-1.277, -8.970e-4
-1.276, -9.155e-4
-1.275, -9.309e-4
-1.274, -9.494e-4
-1.273, -9.618e-4
-1.272, -9.772e-4
-1.271, -9.895e-4
-1.270, -9.988e-4
-1.269, -1.011e-3
-1.268, -1.023e-3
-1.267, -1.036e-3
-1.266, -1.051e-3
-1.265, -1.070e-3
-1.264, -1.085e-3
-1.263, -1.104e-3
-1.262, -1.116e-3
-1.261, -1.131e-3
-1.260, -1.144e-3
-1.259, -1.153e-3
-1.258, -1.162e-3
-1.257, -1.171e-3
-1.256, -1.181e-3
-1.255, -1.196e-3
-1.254, -1.208e-3
-1.253, -1.224e-3
-1.252, -1.239e-3
-1.251, -1.255e-3
-1.250, -1.267e-3
-1.249, -1.279e-3
-1.248, -1.289e-3
-1.247, -1.298e-3
-1.246, -1.307e-3
-1.245, -1.316e-3
-1.244, -1.329e-3
-1.243, -1.338e-3
-1.242, -1.353e-3
-1.241, -1.366e-3
-1.240, -1.381e-3
-1.239, -1.393e-3
-1.238, -1.406e-3
-1.237, -1.415e-3
-1.236, -1.421e-3
-1.235, -1.430e-3
-1.234, -1.437e-3
-1.233, -1.449e-3
-1.232, -1.455e-3
-1.231, -1.470e-3
-1.230, -1.483e-3
-1.229, -1.498e-3
-1.228, -1.511e-3
-1.227, -1.523e-3
-1.226, -1.532e-3
-1.225, -1.538e-3
-1.224, -1.544e-3
-1.223, -1.554e-3
-1.222, -1.560e-3
-1.221, -1.569e-3
-1.220, -1.578e-3
-1.219, -1.591e-3
-1.218, -1.600e-3
-1.217, -1.612e-3
-1.216, -1.628e-3
-1.215, -1.637e-3
-1.214, -1.643e-3
-1.213, -1.652e-3
-1.212, -1.659e-3
-1.211, -1.665e-3
-1.210, -1.671e-3
-1.209, -1.680e-3
-1.208, -1.689e-3
-1.207, -1.702e-3
-1.206, -1.711e-3
-1.205, -1.723e-3
-1.204, -1.736e-3
-1.203, -1.745e-3
-1.202, -1.751e-3
-1.201, -1.757e-3
-1.200, -1.760e-3
-1.199, -1.766e-3
-1.198, -1.773e-3
-1.197, -1.782e-3
-1.196, -1.791e-3
-1.195, -1.803e-3
-1.194, -1.813e-3
-1.193, -1.825e-3
-1.192, -1.834e-3
-1.191, -1.840e-3
-1.190, -1.850e-3
-1.189, -1.853e-3
-1.188, -1.859e-3
-1.187, -1.862e-3
-1.186, -1.871e-3
-1.185, -1.877e-3
-1.184, -1.887e-3
-1.183, -1.896e-3
-1.182, -1.908e-3
-1.181, -1.914e-3
-1.180, -1.927e-3
-1.179, -1.933e-3
-1.178, -1.936e-3
-1.177, -1.942e-3
-1.176, -1.948e-3
-1.175, -1.951e-3
-1.174, -1.958e-3
-1.173, -1.967e-3
-1.172, -1.976e-3
-1.171, -1.985e-3
-1.170, -1.998e-3
-1.169, -2.007e-3
-1.168, -2.016e-3
-1.167, -2.022e-3
-1.166, -2.025e-3
-1.165, -2.032e-3
-1.164, -2.038e-3
-1.163, -2.041e-3
-1.162, -2.047e-3
-1.161, -2.056e-3
-1.160, -2.066e-3
-1.159, -2.075e-3
-1.158, -2.087e-3
-1.157, -2.093e-3
-1.156, -2.103e-3
-1.155, -2.106e-3
-1.154, -2.112e-3
-1.153, -2.115e-3
-1.152, -2.115e-3
-1.151, -2.124e-3
-1.150, -2.133e-3
-1.149, -2.143e-3
-1.148, -2.152e-3
-1.147, -2.161e-3
-1.146, -2.173e-3
-1.145, -2.180e-3
-1.144, -2.186e-3
-1.143, -2.189e-3
-1.142, -2.195e-3
-1.141, -2.198e-3
-1.140, -2.201e-3
-1.139, -2.207e-3
-1.138, -2.217e-3
-1.137, -2.226e-3
-1.136, -2.235e-3
-1.135, -2.247e-3
-1.134, -2.254e-3
-1.133, -2.260e-3
-1.132, -2.269e-3
-1.131, -2.269e-3
-1.130, -2.275e-3
-1.129, -2.278e-3
-1.128, -2.284e-3
-1.127, -2.291e-3
-1.126, -2.300e-3
-1.125, -2.309e-3
-1.124, -2.318e-3
-1.123, -2.328e-3
-1.122, -2.337e-3
-1.121, -2.346e-3
-1.120, -2.349e-3
-1.119, -2.352e-3
-1.118, -2.355e-3
-1.117, -2.358e-3
-1.116, -2.368e-3
-1.115, -2.374e-3
-1.114, -2.380e-3
-1.113, -2.392e-3
-1.112, -2.402e-3
-1.111, -2.411e-3
-1.110, -2.420e-3
-1.109, -2.423e-3
-1.108, -2.429e-3
-1.107, -2.432e-3
-1.106, -2.439e-3
-1.105, -2.442e-3
-1.104, -2.448e-3
-1.103, -2.457e-3
-1.102, -2.466e-3
-1.101, -2.476e-3
-1.100, -2.485e-3
-1.099, -2.494e-3
-1.098, -2.500e-3
-1.097, -2.506e-3
-1.096, -2.509e-3
-1.095, -2.516e-3
-1.094, -2.519e-3
-1.093, -2.522e-3
-1.092, -2.531e-3
-1.091, -2.537e-3
-1.090, -2.550e-3
-1.089, -2.559e-3
-1.088, -2.568e-3
-1.087, -2.574e-3
-1.086, -2.583e-3
-1.085, -2.587e-3
-1.084, -2.593e-3
-1.083, -2.596e-3
-1.082, -2.599e-3
-1.081, -2.605e-3
-1.080, -2.611e-3
-1.079, -2.620e-3
-1.078, -2.630e-3
-1.077, -2.639e-3
-1.076, -2.648e-3
-1.075, -2.657e-3
-1.074, -2.664e-3
-1.073, -2.667e-3
-1.072, -2.673e-3
-1.071, -2.676e-3
-1.070, -2.679e-3
-1.069, -2.685e-3
-1.068, -2.694e-3
-1.067, -2.704e-3
-1.066, -2.713e-3
-1.065, -2.722e-3
-1.064, -2.731e-3
-1.063, -2.738e-3
-1.062, -2.744e-3
-1.061, -2.747e-3
-1.060, -2.750e-3
-1.059, -2.753e-3
-1.058, -2.759e-3
-1.057, -2.765e-3
-1.056, -2.775e-3
-1.055, -2.784e-3
-1.054, -2.793e-3
-1.053, -2.802e-3
-1.052, -2.812e-3
-1.051, -2.818e-3
-1.050, -2.824e-3
-1.049, -2.827e-3
-1.048, -2.830e-3
-1.047, -2.836e-3
-1.046, -2.842e-3
-1.045, -2.849e-3
-1.044, -2.858e-3
-1.043, -2.867e-3
-1.042, -2.876e-3
-1.041, -2.889e-3
-1.040, -2.892e-3
-1.039, -2.901e-3
-1.038, -2.904e-3
-1.037, -2.907e-3
-1.036, -2.910e-3
-1.035, -2.913e-3
-1.034, -2.923e-3
-1.033, -2.929e-3
-1.032, -2.935e-3
-1.031, -2.947e-3
-1.030, -2.957e-3
-1.029, -2.966e-3
-1.028, -2.972e-3
-1.027, -2.978e-3
-1.026, -2.981e-3
-1.025, -2.984e-3
-1.024, -2.990e-3
-1.023, -2.994e-3
-1.022, -3.000e-3
-1.021, -3.009e-3
-1.020, -3.018e-3
-1.019, -3.027e-3
-1.018, -3.037e-3
-1.017, -3.046e-3
-1.016, -3.052e-3
-1.015, -3.055e-3
-1.014, -3.058e-3
-1.013, -3.058e-3
-1.012, -3.064e-3
-1.011, -3.071e-3
-1.010, -3.077e-3
-1.009, -3.083e-3
-1.008, -3.095e-3
-1.007, -3.105e-3
-1.006, -3.114e-3
-1.005, -3.120e-3
-1.004, -3.126e-3
-1.003, -3.129e-3
-1.002, -3.132e-3
-1.001, -3.135e-3
