Potential V vs RHE, Current mA cm-2
0.013299999999999867,13.28272439443283
0.012299999999999978,12.085878634747008
0.011299999999999866,10.60326119248845
0.010299999999999976,9.09234952423259
0.009299999999999864,8.152981221122205
0.008299999999999974,7.111753704421539
0.007299999999999862,5.709774806255288
0.006299999999999972,4.8595333150364
0.00529999999999986,4.20735140579862
0.0042999999999999705,3.07841178850632
0.0032999999999998586,2.161678866193776
0.0022999999999999687,1.6863358694391237
0.0012999999999998568,0.7885600785447714
0.00029999999999996696,-0.2089528589900659
-0.000700000000000145,-0.6661875511064458
-0.0017000000000000348,-1.2555562786302201
-0.0027000000000001467,-2.2409026989862184
-0.0037000000000000366,-2.778492992934932
-0.0047000000000001485,-3.120853127502271
-0.005700000000000038,-3.986656443019674
-0.00670000000000015,-4.6572295991557
-0.00770000000000004,-4.872265716735186
-0.008700000000000152,-5.537180027671754
-0.009700000000000042,-6.322344799096849
-0.010700000000000154,-6.595384079970801
-0.011700000000000044,-6.999991511732201
-0.012700000000000156,-7.817694643054193
-0.013700000000000045,-8.192593137518429
-0.014700000000000157,-8.403385121198317
-0.015700000000000047,-9.134790863228544
-0.01670000000000016,-9.686528270175906
-0.01770000000000005,-9.778484504667134
-0.01870000000000016,-10.303342396917062
-0.01970000000000005,-10.955524306154844
-0.020700000000000163,-11.064457076244452
-0.021700000000000053,-11.345984624917593
-0.022700000000000164,-12.073146233048224
-0.023700000000000054,-12.35608849302123
-0.024700000000000166,-12.438141748413402
-0.025700000000000056,-13.07193241075294
-0.026700000000000168,-13.537372428408537
-0.027700000000000058,-13.530298871909212
-0.02870000000000017,-13.966029952267641
-0.02970000000000006,-14.514937936615278
-0.03070000000000017,-14.557379275611227
-0.03170000000000006,-14.783733083589633
-0.03270000000000017,-15.406206055530248
-0.03370000000000006,-15.604265637511356
-0.034700000000000175,-15.660854089505953
-0.035700000000000065,-16.22673860945197
-0.03670000000000018,-16.622857773414182
-0.03770000000000007,-16.495533756426326
-0.03870000000000018,-16.835064468393938
-0.03970000000000007,-17.37265476234265
-0.04070000000000018,-17.37265476234265
-0.04170000000000007,-17.499978779330505
-0.04270000000000018,-18.02342196028057
-0.04370000000000007,-18.122451751271118
-0.044700000000000184,-18.17904020326572
-0.045700000000000074,-18.77321894920904
-0.046700000000000186,-19.1834852261699
-0.047700000000000076,-19.141043887173947
-0.04870000000000019,-19.423986147146955
-0.04970000000000008,-19.77766397211321
-0.05070000000000019,-19.622045729128057
-0.05170000000000008,-19.70692840711996
-0.05270000000000019,-20.315254266061928
-0.05370000000000008,-20.598196526034933
-0.05470000000000019,-20.72552054302279
-0.05570000000000008,-21.2631108369715
-0.056700000000000195,-21.47531753195126
-0.057700000000000085,-21.065051254990397
-0.058700000000000196,-21.065051254990397
-0.059700000000000086,-21.503611757948562
-0.0607000000000002,-21.61678866193776
-0.06170000000000009,-22.012907825899973
-0.0627000000000002,-22.72026347583249
-0.06370000000000009,-22.748557701829792
-0.0647000000000002,-22.564645232847337
-0.06570000000000009,-22.974911509808198
-0.0667000000000002,-23.314442221775803
-0.0677000000000001,-23.2012653177866
-0.0687000000000002,-23.371030673770406
-0.0697000000000001,-23.781296950731264
-0.07070000000000021,-23.809591176728567
-0.0717000000000001,-23.97935653271237
-0.07270000000000021,-24.587682391654337
-0.0737000000000001,-24.64427084364894
-0.07470000000000021,-24.601829504652986
-0.0757000000000001,-25.1394197986017
-0.07670000000000021,-25.46480339757066
-0.0777000000000001,-25.252596702590903
-0.07870000000000021,-25.280890928588207
-0.0797000000000001,-25.747745657543668
-0.08070000000000022,-26.242894612496432
-0.0817000000000001,-26.356071516485635
-0.08270000000000022,-26.412659968480234
-0.08370000000000011,-25.91751101352747
-0.08470000000000022,-25.549686075562565
-0.08570000000000011,-26.087276369511276
-0.08670000000000022,-26.63901377645864
-0.08770000000000011,-26.723896454450543
-0.08870000000000022,-27.233192522401957
-0.08970000000000011,-27.728341477354718
-0.09070000000000022,-27.544429008372262
-0.09170000000000011,-27.601017460366865
-0.09270000000000023,-28.209343319308836
-0.09370000000000012,-28.350814449295335
-0.09470000000000023,-28.32252022329803
-0.09570000000000012,-28.718639387260247
-0.09670000000000023,-29.001581647233255
-0.09770000000000012,-28.91669896924135
-0.09870000000000023,-29.31281813320356
-0.09970000000000012,-29.850408427152274
-0.10070000000000023,-29.822114201154974
-0.10170000000000012,-29.96358533114148
-0.10270000000000024,-30.571911190083444
-0.10370000000000013,-30.71338232006995
-0.10470000000000024,-30.656793868075347
-0.10570000000000013,-31.067060145036205
-0.10670000000000024,-31.321708179011907
-0.10770000000000013,-31.151942823028104
-0.10870000000000024,-31.49147353499572
-0.10970000000000013,-32.05735805494172
-0.11070000000000024,-32.08565228093904
-0.11170000000000013,-32.24127052392419
-0.11270000000000002,-32.7788608178729
-0.11370000000000013,-32.87789060886345
-0.11470000000000002,-32.7505665918756
-0.11570000000000014,-33.07595019084456
-0.11670000000000003,-33.41548090281216
-0.11770000000000014,-33.40133378981351
-0.11870000000000003,-33.825747179773025
-0.11970000000000014,-34.41992592571634
-0.12070000000000003,-34.36333747372174
-0.12170000000000014,-34.462367264712285
-0.12270000000000003,-35.014104671659666
-0.12370000000000014,-35.05654601065561
-0.12470000000000003,-34.95751621966506
-0.12570000000000014,-35.311194044631314
-0.12670000000000003,-35.707313208593526
-0.12770000000000015,-35.806342999584075
-0.12870000000000004,-36.37222751953009
-0.12970000000000015,-36.95225915247476
-0.13070000000000004,-36.8249351354869
-0.13170000000000015,-36.92396492647745
-0.13270000000000004,-37.46155522042617
-0.13370000000000015,-37.631320576409976
-0.13470000000000004,-37.58887923741403
-0.13570000000000015,-37.92840994938163
-0.13670000000000004,-38.32452911334384
-0.13770000000000016,-38.39526467833709
-0.13870000000000005,-38.89041363328986
-0.13970000000000016,-39.48459237923317
-0.14070000000000005,-39.34312124924667
-0.14170000000000016,-39.229944345257465
-0.14270000000000005,-39.640210622218326
-0.14370000000000016,-39.83827020419943
-0.14470000000000005,-40.06462401217784
-0.14570000000000016,-40.743685436113054
-0.14670000000000005,-41.15395171307392
-0.14770000000000016,-41.06906903508202
-0.14870000000000005,-41.267128617063115
-0.14970000000000017,-41.57836510303343
-0.15070000000000006,-41.55007087703613
-0.15170000000000017,-41.66324778102533
-0.15270000000000006,-42.28572075296594
-0.15370000000000017,-42.540368786941656
-0.15470000000000006,-42.51207456094435
-0.15570000000000017,-43.148694645883616
-0.15670000000000006,-43.71457916582963
-0.15770000000000017,-43.629696487837734
-0.15870000000000006,-44.068256990795895
-0.15970000000000018,-45.044407787702774
-0.16070000000000007,-45.25661448268253
-0.16170000000000018,-45.05855490070142
-0.16270000000000007,-44.98781933570817
-0.16370000000000018,-44.93123088371356
-0.16470000000000007,-45.45467406466363
-0.16570000000000018,-47.095739172507066
-0.16670000000000007,-48.24165532539775
-0.16770000000000018,-47.81724193543825
-0.16870000000000007,-46.81279691253406
-0.16970000000000018,-45.92152879361909
-0.17070000000000007,-45.567850968652834
-0.17170000000000019,-46.558148878558356
-0.17270000000000008,-47.93041883942744
-0.1737000000000002,-48.29824377739235
-0.17470000000000008,-48.36897934238561
-0.1757000000000002,-48.46800913337616
-0.17670000000000008,-48.66606871535726
-0.1777000000000002,-49.118776331314066
-0.17870000000000008,-49.89686754623985
-0.1797000000000002,-50.83057700415076
-0.18070000000000008,-50.85887123014807
-0.1817000000000002,-50.60422319617236
-0.18270000000000008,-50.92960679514132
-0.1837000000000002,-50.88716545614537
-0.1847000000000001,-50.957901021138625
-0.1857000000000002,-51.73599223606439
-0.1867000000000001,-52.24528830401581
-0.1877000000000002,-52.514083450990164
-0.1887000000000001,-53.15070353592942
-0.1897000000000002,-53.872206298860604
-0.1907000000000001,-54.08441299384035
-0.1917000000000001,-54.28247257582146
-0.19269999999999998,-54.66444462678501
-0.1937000000000001,-54.66444462678501
-0.19469999999999998,-54.63615040078772
-0.1957000000000001,-55.24447625972968
-0.19669999999999999,-55.93768479666355
-0.1977000000000001,-56.093303039648696
-0.1987,-56.64504044659606
-0.1997000000000001,-57.479720113516436
-0.2007,-57.57874990450699
-0.2017000000000001,-57.8051037124854
-0.2027,-58.28610555443952
-0.2037000000000001,-58.21536998944626
-0.2047,-58.35684111943277
-0.2057000000000001,-59.34713902933829
-0.2067,-60.26670137425056
-0.2077000000000001,-60.35158405224246
-0.2087,-60.37987827823977
-0.2097000000000001,-60.86088012019388
-0.2107,-61.34188196214799
-0.2117000000000001,-61.936060708091304
-0.2127,-62.82732882700627
-0.2137000000000001,-62.92635861799682
-0.2147,-62.68585769701977
-0.2157000000000001,-63.20930087796983
-0.2167,-64.00153920589426
-0.21770000000000012,-64.66645351683083
-0.2187,-65.37380916676335
-0.21970000000000012,-65.9821350257053
-0.2207,-65.88310523471476
-0.22170000000000012,-65.86895812171612
-0.2227,-66.64704933664189
-0.22370000000000012,-67.128051178596
-0.2247,-67.63734724654739
-0.22570000000000012,-68.54276247846103
-0.2267,-68.9813229814192
-0.22770000000000012,-68.86814607742998
-0.22870000000000001,-69.0944998854084
-0.22970000000000013,-69.8018555353409
-0.23070000000000002,-70.21212181230177
-0.23170000000000013,-70.63653520226127
-0.23270000000000002,-71.49950909517896
-0.23370000000000013,-71.8814811461425
-0.23470000000000002,-71.98051093713306
-0.23570000000000013,-72.90007328204534
-0.23670000000000002,-73.7347529489657
-0.2376999999999999,-73.96110675694412
-0.23870000000000002,-74.48454993789417
-0.2396999999999999,-74.9089633278537
-0.24070000000000003,-75.00799311884425
-0.24169999999999991,-75.37581805680915
-0.24270000000000003,-76.23879194972683
-0.24369999999999992,-76.97444182565664
-0.24470000000000003,-77.25738408562965
-0.24569999999999992,-78.12035797854733
-0.24670000000000003,-78.7852722894839
-0.24769999999999992,-78.9550376454677
-0.24870000000000003,-79.81801153838538
-0.24969999999999992,-80.6385440923071
-0.25070000000000003,-80.85075078728684
-0.2516999999999999,-81.04881036926795
-0.25270000000000004,-81.3176055162423
-0.2536999999999999,-82.10984384416672
-0.25470000000000004,-82.54840434712489
-0.2556999999999999,-83.55284937002907
-0.25670000000000004,-84.69876552291974
-0.25769999999999993,-84.89682510490086
-0.25870000000000004,-85.30709138186171
-0.25969999999999993,-86.09932970978613
-0.26070000000000004,-86.33983063076319
-0.26169999999999993,-86.28324217876859
-0.26270000000000004,-86.50959598674699
-0.26369999999999993,-86.6510671167335
-0.26470000000000005,-87.20280452368085
-0.26569999999999994,-88.65995716254186
-0.26670000000000005,-90.00393289741362
-0.26769999999999994,-90.4990818523664
-0.26870000000000005,-90.99423080731917
-0.26969999999999994,-91.85720470023682
-0.27070000000000005,-92.32405942919229
-0.27169999999999994,-92.6070016891653
-0.27270000000000005,-93.01726796612617
-0.27369999999999994,-92.94653240113291
-0.27470000000000006,-93.05970930512211
-0.27569999999999995,-93.99341876303303
-0.27670000000000006,-95.35154161090348
-0.27769999999999995,-96.5116048767928
-0.27870000000000006,-97.75655082067404
-0.27969999999999995,-98.67611316558632
-0.28070000000000006,-98.23755266262813
-0.28169999999999995,-97.57263835169158
-0.28270000000000006,-97.72825659467674
-0.28369999999999995,-98.16681709763489
-0.28470000000000006,-99.25614479853097
-0.28569999999999995,-100.82647434138116
-0.28670000000000007,-101.87336070328129
-0.28769999999999996,-102.07142028526239
-0.28870000000000007,-102.2977740932408
-0.28969999999999996,-103.00512974317333
-0.29070000000000007,-103.48613158512744
-0.29169999999999996,-104.2359285740559
-0.29270000000000007,-105.59405142192634
-0.29369999999999996,-106.11749460287639
-0.2947000000000001,-106.2023772808683
-0.29569999999999996,-106.49946665383996
-0.2967000000000001,-106.49946665383996
-0.29769999999999996,-106.51361376683862
-0.2987000000000001,-107.29170498176438
-0.29969999999999997,-108.86203452461457
-0.3007000000000001,-109.95136222551065
-0.30169999999999997,-110.03624490350255
-0.3027000000000001,-110.37577561547016
-0.30369999999999997,-110.7577476664337
-0.3047000000000001,-111.57828022035544
-0.30569999999999997,-113.45984624917594
-0.3067000000000001,-114.80382198404773
-0.3077,-114.69064508005852
-0.3087000000000001,-115.01602867902749
-0.3097,-115.5536189729762
-0.3107000000000001,-116.03462081493029
-0.3117,-117.25127253281424
-0.3127000000000001,-118.3688944597076
-0.3137,-118.2557175557184
-0.3147000000000001,-118.48207136369683
-0.3157,-120.06654801954566
-0.3167000000000001,-120.44852007050923
-0.3177,-119.04795588364286
-0.3187000000000001,-118.02936374774
-0.3197,-117.74642148776701
-0.3207000000000001,-119.3167510306172
-0.3217,-122.21690919534053
-0.3227000000000001,-123.70235606019881
-0.3237,-122.69791103729463
-0.3247000000000001,-120.50510852250382
-0.3257,-119.30260391761853
-0.3267000000000001,-120.20801914953216
-0.3277,-122.58473413330543
-0.3287000000000001,-125.51318652402604
-0.3297,-127.47963523083847
-0.3307000000000001,-127.33816410085197
-0.3317,-126.24883639995588
-0.3327000000000001,-125.04633179507057
-0.3337,-123.51844359121634
-0.3347000000000001,-122.92426484527306
-0.3357,-124.08432811116235
-0.3367000000000001,-126.30542485195048
-0.3377,-128.18699088077096
-0.3387000000000001,-129.68658485862792
-0.3397,-130.63444142953747
-0.3407000000000001,-130.2241751525766
-0.3417,-129.04996477368866
-0.3427000000000001,-128.10210820277908
-0.3437,-127.56451790883035
-0.3447000000000001,-128.11625531577772
-0.3457,-129.91293866660632
-0.3467000000000001,-130.93153080250914
-0.3477,-130.50711741254963
-0.3487000000000001,-130.04026268359416
-0.3497,-129.55926084164005
-0.3507000000000001,-128.55481581873588
-0.3517,-127.88990150779931
-0.3527000000000001,-128.37090334975343
-0.3537,-128.93678786969946
-0.3547000000000001,-129.36120125965894
-0.3557,-129.92708577960497
-0.35670000000000013,-129.79976176261712
-0.3577,-128.9226407567008
-0.35870000000000013,-127.97478418579122
-0.3597,-127.22498719686273
-0.36070000000000013,-126.58836711192347
-0.3617,-126.05077681797478
-0.3626999999999999,-126.33371907794778
-0.3637,-126.03662970497612
-0.3646999999999999,-125.06047890806926
-0.3657,-124.69265397010435
-0.3666999999999999,-123.99944543317046
-0.3677,-122.91011773227437
-0.3686999999999999,-122.45741011631759
-0.36970000000000003,-121.93396693536751
-0.3706999999999999,-120.81634500847414
-0.37170000000000003,-119.9392240025578
-0.3726999999999999,-119.67042885558345
-0.37370000000000003,-119.09039722263879
-0.3746999999999999,-118.10009931273325
-0.37570000000000003,-117.47762634079265
-0.3766999999999999,-116.65709378687092
-0.37770000000000004,-115.01602867902749
-0.3786999999999999,-113.51643470117054
-0.37970000000000004,-112.3563714352812
-0.3806999999999999,-110.64457076244452
-0.38170000000000004,-108.98935854160243
-0.38269999999999993,-108.0273548576942
-0.38370000000000004,-107.22096941677113
-0.38469999999999993,-106.85314447880621
-0.38570000000000004,-106.85314447880621
-0.38669999999999993,-106.54190799283592
-0.38770000000000004,-104.77351886800463
-0.38869999999999993,-102.19874430225026
-0.38970000000000005,-99.85032354447429
-0.39069999999999994,-98.03949308064705
-0.39170000000000005,-97.40287299570777
-0.39269999999999994,-97.71410948167808
-0.39370000000000005,-97.71410948167808
-0.39469999999999994,-97.00675383174556
-0.39570000000000005,-96.2852510688144
-0.39669999999999994,-95.26665893291157
-0.39770000000000005,-93.76706495505464
-0.39869999999999994,-93.25776888710321
-0.39970000000000006,-93.28606311310051
-0.40069999999999995,-92.7767670451491
-0.40170000000000006,-92.578707463168
-0.40269999999999995,-92.70603148015586
-0.40370000000000006,-92.5504132371707
-0.40469999999999995,-92.40894210718419
-0.40570000000000006,-92.6918843671572
-0.40669999999999995,-93.01726796612617
-0.40770000000000006,-92.79091415814774
-0.40869999999999995,-92.7767670451491
-0.40970000000000006,-93.17288620911131
-0.41069999999999995,-92.9748266271302
-0.41170000000000007,-93.04556219212347
-0.41269999999999996,-94.12074278002089
-0.41370000000000007,-94.6300388479723
-0.41469999999999996,-95.06859935093047
-0.41570000000000007,-95.97401458284409
-0.41669999999999996,-96.2569568428171
-0.41770000000000007,-96.32769240781035
-0.41869999999999996,-96.73795868477121
-0.4197000000000001,-97.62922680368618
-0.42069999999999996,-98.52049492260115
-0.4217000000000001,-99.07223232954851
-0.42269999999999996,-100.45864940341626
-0.4237000000000001,-101.19429927934607
-0.42469999999999997,-101.08112237535688
-0.4257000000000001,-101.7318895732948
-0.42669999999999997,-102.17045007625295
-0.4277000000000001,-102.24118564124619
-0.42869999999999997,-103.17489509915713
-0.4297000000000001,-104.47642949503296
-0.43069999999999997,-105.4384331789412
-0.4317000000000001,-106.3721426368521
-0.4327,-107.50391167674414
-0.4337000000000001,-108.0839433096888
-0.4347,-108.50835669964832
-0.4357000000000001,-109.28644791457408
-0.4367,-110.14942180749176
-0.4377000000000001,-110.68701210144046
-0.4387,-111.5641331073568
-0.4397000000000001,-113.17690398920294
-0.4407,-114.2096432381044
-0.4417000000000001,-115.45458918198564
-0.4427,-117.54836190578591
-0.4437000000000001,-118.48207136369683
-0.4447,-118.46792425069816
-0.4457000000000001,-118.84989630166173
-0.4467,-118.87819052765903
-0.4477000000000001,-119.5996932905902
-0.4487,-121.76420157938371
-0.4497000000000001,-123.97115120717316
-0.4507,-124.80583087409354
-0.4517000000000001,-124.08432811116235
-0.4527,-122.95255907127036
-0.4537000000000001,-122.11787940434998
-0.4547,-122.86767639327843
-0.4557000000000001,-125.90930568798828
-0.4567,-128.41334468874936
-0.4577000000000001,-128.99337632169403
-0.4587,-130.23832226557528
-0.4597000000000001,-130.8042067855213
-0.4607,-130.6061472035402
-0.4617000000000001,-132.06329984240116
-0.4627,-133.97316009721897
-0.4637000000000001,-135.1615175891056
-0.4647,-136.08107993401788
-0.4657000000000001,-136.46305198498143
-0.4667,-137.1845547479126
-0.4677000000000001,-138.03338152783164
-0.4687,-139.22173901971826
-0.4697000000000001,-140.93353969255494
-0.4707,-141.75407224647665
-0.4717000000000001,-142.31995676642268
-0.4727,-143.3102546763282
-0.4737000000000001,-144.44202371622026
-0.4747,-145.7152638860988
-0.4757000000000001,-146.9885040559773
-0.4767,-147.97880196588284
-0.4777000000000001,-147.27144631595033
-0.4787,-147.83733083589632
-0.4797000000000001,-149.8179266557074
-0.4807,-151.7985224755184
-0.48170000000000013,-154.203531685289
-0.4827,-155.61824298515404
-0.48370000000000013,-156.04265637511355
-0.4847,-156.18412750510007
-0.48570000000000013,-156.18412750510007
-0.4867,-155.19382959519453
-0.48570000000000013,-152.0814647354914
-0.4847,-150.24234004566688
-0.48370000000000013,-149.8179266557074
-0.4827,-148.26174422585584
-0.48170000000000013,-146.9885040559773
-0.4807,-145.85673501608528
-0.4797000000000001,-144.01761032626072
-0.4787,-141.89554337646317
-0.4777000000000001,-139.78762353966425
-0.4767,-138.3163237878046
-0.4757000000000001,-137.410908555891
-0.4747,-136.97234805293286
-0.4737000000000001,-136.5337875499747
-0.4727,-134.5107503911677
-0.4717000000000001,-132.26135942438228
-0.4707,-130.8042067855213
-0.4697000000000001,-129.24802435566977
-0.4687,-128.5831100447332
-0.4677000000000001,-128.5831100447332
-0.4667,-128.10210820277908
-0.4657000000000001,-126.57421999892482
-0.4647,-124.83412510009084
-0.4637000000000001,-123.57503204321095
