Potential V vs RHE, Current mA cm-2
0.013299999999999867,14.529085049613924
0.012299999999999978,12.821528510676828
0.011299999999999866,11.469064508005852
0.010299999999999976,10.248168656222326
0.009299999999999864,9.06971414343475
0.008299999999999974,7.761106191059591
0.007299999999999862,6.366200849392665
0.006299999999999972,5.01373684672169
0.00529999999999986,3.8791383842299307
0.0042999999999999705,2.919964122921436
0.0032999999999998586,2.0909433012005243
0.0022999999999999687,1.175483619057859
0.0012999999999998568,0.08502414912188871
0.00029999999999996696,-1.0925815368857679
-0.000700000000000145,-2.1390434853959355
-0.0017000000000000348,-3.055776407708479
-0.0027000000000001467,-3.7532290785419424
-0.0037000000000000366,-4.406825699079589
-0.0047000000000001485,-5.235846520800501
-0.005700000000000038,-6.152579443113044
-0.00670000000000015,-7.111753704421539
-0.00770000000000004,-7.940774526142452
-0.008700000000000152,-8.594371146680096
-0.009700000000000042,-9.11781432763016
-0.010700000000000154,-9.728969609171857
-0.011700000000000044,-10.470278330301136
-0.012700000000000156,-11.385596541313816
-0.013700000000000045,-12.346185513922174
-0.014700000000000157,-13.175206335643086
-0.015700000000000047,-13.784946905884919
-0.01670000000000016,-14.345172580631472
-0.01770000000000005,-14.925204213576137
-0.01870000000000016,-15.618412750510005
-0.01970000000000005,-16.438945304431726
-0.020700000000000163,-17.146300954364243
-0.021700000000000053,-17.627302796318357
-0.022700000000000164,-17.881950830294063
-0.023700000000000054,-18.06586329927652
-0.024700000000000166,-18.40539401124413
-0.025700000000000056,-18.92883719219419
-0.026700000000000168,-19.579604390132108
-0.027700000000000058,-20.202077362072725
-0.02870000000000017,-20.626490752032236
-0.02970000000000006,-20.980168576998494
-0.03070000000000017,-21.461170418952605
-0.03170000000000006,-22.15437895588647
-0.03270000000000017,-23.15882397879065
-0.03370000000000006,-24.035944984706973
-0.034700000000000175,-24.686712182644893
-0.035700000000000065,-25.167714024599
-0.03670000000000018,-25.39406783257741
-0.03770000000000007,-25.521391849565262
-0.03870000000000018,-25.691157205549064
-0.03970000000000007,-25.81848122253692
-0.04070000000000018,-25.86092256153287
-0.04170000000000007,-25.91751101352747
-0.04270000000000018,-26.002393691519377
-0.04370000000000007,-26.21460038649913
-0.044700000000000184,-26.65316088945729
-0.045700000000000074,-27.219045409403304
-0.046700000000000186,-27.954695285333123
-0.047700000000000076,-28.577168257273744
-0.04870000000000019,-29.058170099227848
-0.04970000000000008,-29.39770081119546
-0.05070000000000019,-29.751378636161718
-0.05170000000000008,-30.189939139119886
-0.05270000000000019,-30.79826499806185
-0.05370000000000008,-31.36414951800786
-0.05470000000000019,-31.887592698957924
-0.05570000000000008,-32.184682071929586
-0.056700000000000195,-32.32615320191609
-0.057700000000000085,-32.45347721890394
-0.058700000000000196,-32.66568391388369
-0.059700000000000086,-33.01936173884996
-0.0607000000000002,-33.330598224820264
-0.06170000000000009,-33.50036358080407
-0.0627000000000002,-33.58524625879597
-0.06370000000000009,-33.58524625879597
-0.0647000000000002,-33.85404140577033
-0.06570000000000009,-34.33504324772444
-0.0667000000000002,-34.98581044566235
-0.0677000000000001,-35.55169496560837
-0.0687000000000002,-35.90537279057463
-0.0697000000000001,-36.16002082455034
-0.07070000000000021,-36.37222751953009
-0.0717000000000001,-36.768346683492304
-0.07270000000000021,-37.249348525446415
-0.0737000000000001,-37.645467689408626
-0.07470000000000021,-37.85767438438838
-0.0757000000000001,-37.94255706238028
-0.07670000000000021,-37.99914551437489
-0.0777000000000001,-38.12646953136274
-0.07870000000000021,-38.38111756533845
-0.0797000000000001,-38.81967806829661
-0.08070000000000022,-39.258238571254765
-0.0817000000000001,-39.51288660523048
-0.08270000000000022,-39.739240413208876
-0.08370000000000011,-39.99388844718459
-0.08470000000000022,-40.34756627215084
-0.08570000000000011,-40.828568114104954
-0.08670000000000022,-41.267128617063115
-0.08770000000000011,-41.52177665103883
-0.08870000000000022,-41.56421799003478
-0.08970000000000011,-41.52177665103883
-0.09070000000000022,-41.56421799003478
-0.09170000000000011,-41.87545447600508
-0.09270000000000023,-42.3564563179592
-0.09370000000000012,-42.837458159913304
-0.09470000000000023,-43.23357732387552
-0.09570000000000012,-43.48822535785123
-0.09670000000000023,-43.57310803584313
-0.09770000000000012,-43.79946184382153
-0.09870000000000023,-44.096551216793195
-0.09970000000000012,-44.4926703807554
-0.10070000000000023,-44.84634820572166
-0.10170000000000012,-45.05855490070142
-0.10270000000000024,-45.10099623969737
-0.10370000000000013,-45.18587891768927
-0.10470000000000024,-45.497115403659585
-0.10570000000000013,-45.93567590661774
-0.10670000000000024,-46.501560426563756
-0.10770000000000013,-46.88353247752732
-0.10870000000000024,-46.982562268517874
-0.10970000000000013,-47.02500360751382
-0.11070000000000024,-47.10988628550572
-0.11170000000000013,-47.46356411047198
-0.11270000000000002,-47.987007291422046
-0.11370000000000013,-48.55289181136806
-0.11470000000000002,-48.97730520132757
-0.11570000000000014,-49.20365900930597
-0.11670000000000003,-49.28854168729788
-0.11770000000000014,-49.41586570428573
-0.11870000000000003,-49.72710219025603
-0.11970000000000014,-50.1656626932142
-0.12070000000000003,-50.64666453516831
-0.12170000000000014,-50.90131256914402
-0.12270000000000003,-50.90131256914402
-0.12370000000000014,-50.90131256914402
-0.12470000000000003,-51.127666377122424
-0.12570000000000014,-51.594521106077885
-0.12670000000000003,-52.25943541701445
-0.12770000000000015,-52.74043725896857
-0.12870000000000004,-52.995085292944275
-0.12970000000000015,-53.12240930993213
-0.13070000000000004,-53.39120445690648
-0.13170000000000015,-53.82976495986464
-0.13270000000000004,-54.31076680181876
-0.13370000000000015,-54.791768643772876
-0.13470000000000004,-55.003975338752625
-0.13570000000000015,-55.13129935574048
-0.13670000000000004,-55.21618203373238
-0.13770000000000016,-55.400094502714836
-0.13870000000000005,-55.7820665536784
-0.13970000000000016,-56.44698086461496
-0.14070000000000005,-57.05530672355693
-0.14170000000000016,-57.53630856551105
-0.14270000000000005,-57.79095659948675
-0.14370000000000016,-58.017310407465146
-0.14470000000000005,-58.39928245842871
-0.14570000000000016,-58.83784296138688
-0.14670000000000005,-59.31884480334099
-0.14770000000000016,-59.6300812893113
-0.14870000000000005,-59.884729323287
-0.14970000000000017,-60.15352447026136
-0.15070000000000006,-60.49305518222897
-0.15170000000000017,-60.974057024183075
-0.15270000000000006,-61.455058866137186
-0.15370000000000017,-61.89361936909536
-0.15470000000000006,-62.16241451606972
-0.15570000000000017,-62.28973853305756
-0.15670000000000006,-62.41706255004542
-0.15770000000000017,-62.64341635802381
-0.15870000000000006,-63.11027108697928
-0.15970000000000018,-63.860068075907755
-0.16070000000000007,-64.59571795183757
-0.16170000000000018,-65.11916113278764
-0.16270000000000007,-65.38795627976201
-0.16370000000000018,-65.60016297474175
-0.16470000000000007,-65.86895812171612
-0.16570000000000018,-66.25093017267966
-0.16670000000000007,-66.73193201463377
-0.16770000000000018,-67.08560983960004
-0.16870000000000007,-67.21293385658788
-0.16970000000000018,-67.25537519558385
-0.17070000000000007,-67.39684632557035
-0.17170000000000019,-67.693935698542
-0.17270000000000008,-68.21737887949207
-0.1737000000000002,-68.65593938245023
-0.17470000000000008,-69.0096172074165
-0.1757000000000002,-69.13694122440434
-0.17670000000000008,-69.22182390239624
-0.1777000000000002,-69.4906190493706
-0.17870000000000008,-70.01406223032066
-0.1797000000000002,-70.70727076725453
-0.18070000000000008,-71.35803796519245
-0.1817000000000002,-71.83903980714656
-0.18270000000000008,-72.23515897110877
-0.1837000000000002,-72.57468968307639
-0.1847000000000001,-73.15472131602105
-0.1857000000000002,-73.8479298529549
-0.1867000000000001,-74.58357972888473
-0.1877000000000002,-74.97969889284694
-0.1887000000000001,-75.14946424883075
-0.1897000000000002,-75.14946424883075
-0.1907000000000001,-75.19190558782671
-0.1917000000000001,-75.46070073480107
-0.19269999999999998,-75.94170257675518
-0.1937000000000001,-76.46514575770523
-0.19469999999999998,-76.86126492166746
-0.1957000000000001,-77.0734716166472
-0.19669999999999999,-77.20079563363505
-0.1977000000000001,-77.38470810261751
-0.1987,-77.80912149257702
-0.1997000000000001,-78.43159446451764
-0.2007,-79.0399203234596
-0.2017000000000001,-79.52092216541372
-0.2027,-79.90289421637728
-0.2037000000000001,-80.38389605833139
-0.2047,-80.99222191727335
-0.2057000000000001,-81.74201890620182
-0.2067,-82.39278610413973
-0.2077000000000001,-82.78890526810196
-0.2087,-83.04355330207765
-0.2097000000000001,-83.14258309306821
-0.2107,-83.26990711005605
-0.2117000000000001,-83.60943782202366
-0.2127,-84.00555698598588
-0.2137000000000001,-84.48655882793999
-0.2147,-84.7977953139103
-0.2157000000000001,-84.92511933089816
-0.2167,-84.8826779919022
-0.21770000000000012,-84.96756066989411
-0.2187,-85.53344518984011
-0.21970000000000012,-86.32568351776455
-0.2207,-87.14621607168625
-0.22170000000000012,-87.85357172161878
-0.2227,-88.37701490256885
-0.22370000000000012,-88.80142829252836
-0.2247,-89.32487147347842
-0.22570000000000012,-90.03222712341093
-0.2267,-90.76787699934074
-0.22770000000000012,-91.37620285828272
-0.22870000000000001,-91.77232202224494
-0.22970000000000013,-92.04111716921928
-0.23070000000000002,-92.4655305591788
-0.23170000000000013,-93.17288620911131
-0.23270000000000002,-94.13488989301955
-0.23370000000000013,-94.95542244694126
-0.23470000000000002,-95.60618964487918
-0.23570000000000013,-96.0871914868333
-0.23670000000000002,-96.3984279728036
-0.2376999999999999,-96.83698847576176
-0.23870000000000002,-97.36043165671182
-0.2396999999999999,-97.84143349866595
-0.24070000000000003,-98.2234055496295
-0.24169999999999991,-98.4497593576079
-0.24270000000000003,-98.57708337459576
-0.24369999999999992,-98.74684873057957
-0.24470000000000003,-99.10052655554581
-0.24569999999999992,-99.62396973649588
-0.24670000000000003,-100.40206095142165
-0.24769999999999992,-101.32162329633393
-0.24870000000000003,-102.07142028526239
-0.24969999999999992,-102.59486346621246
-0.25070000000000003,-103.01927685617197
-0.2516999999999999,-103.64174982811258
-0.25270000000000004,-104.64619485101677
-0.2536999999999999,-105.7779638909088
-0.25470000000000004,-106.68337912282242
-0.2556999999999999,-107.03705694778867
-0.25670000000000004,-107.26341075576708
-0.25769999999999993,-107.56050012873874
-0.25870000000000004,-108.12638464868475
-0.25969999999999993,-108.69226916863077
-0.26070000000000004,-108.96106431560513
-0.26169999999999993,-108.91862297660917
-0.26270000000000004,-108.83374029861727
-0.26369999999999993,-109.08838833259297
-0.26470000000000005,-109.69671419153494
-0.26569999999999994,-110.4465111804634
-0.26670000000000005,-111.26704373438514
-0.26769999999999994,-112.05928206230955
-0.26870000000000005,-112.87981461623129
-0.26969999999999994,-113.71449428315165
-0.27070000000000005,-114.53502683707337
-0.27169999999999994,-115.36970650399375
-0.27270000000000005,-116.24682750991008
-0.27369999999999994,-117.06736006383179
-0.27470000000000006,-117.71812726176971
-0.27569999999999995,-118.07180508673595
-0.27670000000000006,-118.24157044271978
-0.27769999999999995,-118.46792425069816
-0.27870000000000006,-118.86404341466037
-0.27969999999999995,-119.2884568046199
-0.28070000000000006,-119.64213462958614
-0.28169999999999995,-119.9109297765605
-0.28270000000000006,-120.29290182752408
-0.28369999999999995,-121.04269881645253
-0.28470000000000006,-122.0471438393567
-0.28569999999999995,-123.34867823523254
-0.28670000000000007,-124.87656643908679
-0.28769999999999996,-126.48933732093293
-0.28870000000000007,-127.72013615181551
-0.28969999999999996,-128.45578602774532
-0.29070000000000007,-128.85190519170752
-0.29169999999999996,-129.33290703366166
-0.29270000000000007,-129.98367423159957
-0.29369999999999996,-130.59200009054155
-0.2947000000000001,-130.84664812451723
-0.29569999999999996,-130.84664812451723
-0.2967000000000001,-130.90323657651186
-0.29769999999999996,-131.5964451134457
-0.2987000000000001,-133.03945063930803
-0.29969999999999997,-134.69466286015015
-0.3007000000000001,-136.08107993401788
-0.30169999999999997,-136.83087692294635
-0.3027000000000001,-137.08552495692206
-0.30369999999999997,-137.2694374259045
-0.3047000000000001,-137.52408545988024
-0.30569999999999997,-137.75043926785864
-0.3067000000000001,-138.08996997982624
-0.3077,-138.3587651268006
-0.3087000000000001,-138.40120646579655
-0.3097,-138.61341316077628
-0.3107000000000001,-139.05197366373446
-0.3117,-139.8866533306548
-0.3127000000000001,-141.18818772653066
-0.3137,-142.7443701563822
-0.3147000000000001,-144.30055258623375
-0.3157,-145.57379275611228
-0.3167000000000001,-146.4226195360313
-0.3177,-147.27144631595033
-0.3187000000000001,-148.26174422585584
-0.3197,-149.1105710057749
-0.3207000000000001,-149.53498439573437
-0.3217,-149.6764555257209
-0.3227000000000001,-149.39351326574788
-0.3237,-149.39351326574788
-0.3247000000000001,-149.53498439573437
-0.3257,-149.8179266557074
-0.3267000000000001,-150.5252823056399
-0.3277,-151.37410908555893
-0.3287000000000001,-152.22293586547795
-0.3297,-152.93029151541046
-0.3307000000000001,-153.63764716534297
-0.3317,-154.486473945262
-0.3327000000000001,-155.61824298515404
-0.3337,-156.89148315503257
-0.3347000000000001,-157.88178106493808
-0.3357,-158.73060784485713
-0.3367000000000001,-159.29649236480313
-0.3377,-159.86237688474912
-0.3387000000000001,-160.99414592464117
-0.3397,-162.2673860945197
-0.3407000000000001,-163.25768400442522
-0.3417,-163.96503965435775
-0.3427000000000001,-164.53092417430375
-0.3437,-165.09680869424977
-0.3447000000000001,-165.94563547416882
-0.3457,-166.65299112410133
-0.3467000000000001,-167.36034677403384
-0.3477,-167.92623129397984
-0.3487000000000001,-168.63358694391238
-0.3497,-169.3409425938449
-0.3507000000000001,-170.0482982437774
-0.3517,-170.89712502369645
-0.3527000000000001,-171.88742293360195
-0.3537,-172.87772084350746
-0.3547000000000001,-174.0094898833995
-0.3557,-174.99978779330505
-0.35670000000000013,-175.84861457322407
-0.3577,-176.4144990931701
-0.35870000000000013,-177.2633258730891
-0.3597,-177.6877392630486
-0.36070000000000013,-178.25362378299462
-0.3617,-178.3950949129811
-0.3626999999999999,-178.25362378299462
-0.3637,-177.9706815230216
-0.3646999999999999,-177.9706815230216
-0.3657,-178.53656604296762
-0.3666999999999999,-179.66833508285964
-0.3677,-180.65863299276518
-0.3686999999999999,-181.5074597726842
-0.36970000000000003,-182.35628655260325
-0.3706999999999999,-183.62952672248176
-0.37170000000000003,-185.0442380223468
-0.3726999999999999,-186.60042045219836
-0.37370000000000003,-187.59071836210387
-0.3746999999999999,-188.4395451420229
-0.37570000000000003,-189.0054296619689
-0.3766999999999999,-189.57131418191491
-0.37770000000000004,-190.13719870186094
-0.3786999999999999,-190.56161209182042
-0.37970000000000004,-190.98602548177996
-0.3806999999999999,-191.41043887173947
-0.38170000000000004,-191.551910001726
-0.38269999999999993,-191.551910001726
-0.38370000000000004,-191.551910001726
-0.38469999999999993,-191.9763233916855
-0.38570000000000004,-192.966621301591
-0.38669999999999993,-194.52280373144254
-0.38770000000000004,-195.93751503130758
-0.38869999999999993,-197.0692840711996
-0.38970000000000005,-197.63516859114563
-0.39069999999999994,-198.05958198110514
-0.39170000000000005,-198.62546650105114
-0.39269999999999994,-199.04987989101065
-0.39370000000000005,-199.75723554094319
-0.39469999999999994,-200.04017780091618
-0.39570000000000005,-200.18164893090267
-0.39669999999999994,-200.6060623208622
-0.39770000000000005,-201.31341797079472
-0.39869999999999994,-202.44518701068677
-0.39970000000000006,-203.43548492059227
-0.40069999999999995,-204.14284057052478
-0.40170000000000006,-204.42578283049778
-0.40269999999999995,-204.2843117005113
-0.40370000000000006,-203.71842718056527
-0.40469999999999995,-202.7281292706598
-0.40570000000000006,-202.30371588070025
-0.40669999999999995,-202.16224475071377
-0.40770000000000006,-202.44518701068677
-0.40869999999999995,-202.30371588070025
-0.40970000000000006,-202.16224475071377
-0.41069999999999995,-202.16224475071377
-0.41170000000000007,-202.58665814067325
-0.41269999999999996,-203.43548492059227
-0.41370000000000007,-203.85989831055176
-0.41469999999999996,-203.57695605057876
-0.41570000000000007,-202.58665814067325
-0.41669999999999996,-201.17194684080823
-0.41770000000000007,-200.18164893090267
-0.41869999999999996,-199.61576441095667
-0.4197000000000001,-199.19135102099716
-0.42069999999999996,-198.90840876102413
-0.4217000000000001,-198.05958198110514
-0.42269999999999996,-196.92781294121312
-0.4237000000000001,-195.93751503130758
-0.42469999999999997,-195.23015938137505
-0.4257000000000001,-194.66427486142905
-0.42669999999999997,-194.52280373144254
-0.4277000000000001,-194.38133260145605
-0.42869999999999997,-194.38133260145605
-0.4297000000000001,-194.80574599141553
-0.43069999999999997,-195.37163051136156
-0.4317000000000001,-196.0789861612941
-0.4327,-196.6448706812401
-0.4337000000000001,-196.7863418112266
-0.4347,-196.3619284212671
-0.4357000000000001,-195.65457277133459
-0.4367,-194.80574599141553
-0.4377000000000001,-193.81544808151003
-0.4387,-192.683679041618
-0.4397000000000001,-191.83485226169896
-0.4407,-191.41043887173947
-0.4417000000000001,-191.268967741753
-0.4427,-190.98602548177996
-0.4437000000000001,-190.42014096183394
-0.4447,-189.57131418191491
-0.4457000000000001,-188.8639585319824
-0.4467,-188.4395451420229
-0.4477000000000001,-187.87366062207687
-0.4487,-187.02483384215788
-0.4497000000000001,-186.17600706223882
-0.4507,-185.3271802823198
-0.4517000000000001,-184.7612957623738
-0.4527,-184.19541124242778
-0.4537000000000001,-183.48805559249527
-0.4547,-182.07334429263022
-0.4557000000000001,-180.37569073279218
-0.4567,-178.67803717295413
-0.4577000000000001,-177.1218547431026
-0.4587,-175.84861457322407
-0.4597000000000001,-174.71684553333202
-0.4607,-173.72654762342648
-0.4617000000000001,-173.302134233467
-0.4627,-172.87772084350746
-0.4637000000000001,-172.59477858353446
-0.4647,-172.31183632356147
-0.4657000000000001,-172.17036519357498
-0.4667,-172.31183632356147
-0.4677000000000001,-172.31183632356147
-0.4687,-172.31183632356147
-0.4697000000000001,-171.74595180361547
-0.4707,-171.18006728366944
-0.4717000000000001,-170.75565389370993
-0.4727,-170.75565389370993
-0.4737000000000001,-170.61418276372342
-0.4747,-170.0482982437774
-0.4757000000000001,-169.19947146385837
-0.4767,-168.49211581392586
-0.4777000000000001,-168.20917355395284
-0.4787,-168.49211581392586
-0.4797000000000001,-169.0580003338719
-0.4807,-169.7653559838044
-0.48170000000000013,-170.33124050375042
-0.4827,-170.89712502369645
-0.48370000000000013,-171.32153841365593
-0.4847,-171.88742293360195
-0.48570000000000013,-172.45330745354798
-0.4867,-172.31183632356147
-0.48570000000000013,-170.0482982437774
-0.4847,-167.92623129397984
-0.48370000000000013,-165.6626932141958
-0.4827,-163.39915513441173
-0.48170000000000013,-161.2770881846142
-0.4807,-159.29649236480313
-0.4797000000000001,-157.45736767497857
-0.4787,-155.47677185516753
-0.4777000000000001,-153.21323377538346
-0.4767,-150.94969569559944
-0.4757000000000001,-148.96909987578834
-0.4747,-147.27144631595033
-0.4737000000000001,-145.9982061460718
-0.4727,-144.58349484620675
-0.4717000000000001,-143.3102546763282
-0.4707,-142.03701450644968
-0.4697000000000001,-140.79206856256846
-0.4687,-139.84421199165885
-0.4677000000000001,-139.09441500273041
-0.4667,-138.3587651268006
-0.4657000000000001,-137.43920278188833
-0.4647,-136.1801097250084
