Potential V vs RHE, Current mA cm-2
0.013299999999999867,14.30273124163552
0.012299999999999978,12.733816410085195
0.011299999999999866,11.20734291753082
0.010299999999999976,9.811022864564029
0.009299999999999864,8.372261472601286
0.008299999999999974,6.975941419634496
0.007299999999999862,5.581036077967569
0.006299999999999972,4.184716025000778
0.00529999999999986,2.7898106833338523
0.0042999999999999705,1.4373466806628774
0.0032999999999998586,0.21588494435940458
0.0022999999999999687,-1.0490084288499246
0.0012999999999998568,-2.095187435100119
0.00029999999999996696,-3.0996324580042955
-0.000700000000000145,-4.014950669016974
-0.0017000000000000348,-4.9302688800296535
-0.0027000000000001467,-5.847001802342197
-0.0037000000000000366,-6.806176063650692
-0.0047000000000001485,-7.809206375255003
-0.005700000000000038,-8.85609273715513
-0.00670000000000015,-9.946835149351072
-0.00770000000000004,-10.993721511251199
-0.008700000000000152,-12.040607873151327
-0.009700000000000042,-13.043638184755638
-0.010700000000000154,-13.960371107068182
-0.011700000000000044,-14.783733083589633
-0.012700000000000156,-15.575971411514052
-0.013700000000000045,-16.396503965435777
-0.014700000000000157,-17.188742293360193
-0.015700000000000047,-17.966833508285966
-0.01670000000000016,-18.80151317520634
-0.01770000000000005,-19.678634181122664
-0.01870000000000016,-20.541608074040333
-0.01970000000000005,-21.418729079956652
-0.020700000000000163,-22.196820294882425
-0.021700000000000053,-22.946617283810895
-0.022700000000000164,-23.639825820744765
-0.023700000000000054,-24.24815167968673
-0.024700000000000166,-24.771594860636792
-0.025700000000000056,-25.337479380582806
-0.026700000000000168,-25.86092256153287
-0.027700000000000058,-26.440954194477534
-0.02870000000000017,-27.091721392415455
-0.02970000000000006,-27.700047251357418
-0.03070000000000017,-28.393255788291288
-0.03170000000000006,-29.001581647233255
-0.03270000000000017,-29.62405461917387
-0.03370000000000006,-30.147497800123933
-0.034700000000000175,-30.571911190083444
-0.035700000000000065,-31.010471693041605
-0.03670000000000018,-31.36414951800786
-0.03770000000000007,-31.887592698957924
-0.03870000000000018,-32.45347721890394
-0.03970000000000007,-33.14668575583781
-0.04070000000000018,-33.93892408376223
-0.04170000000000007,-34.717015298688004
-0.04270000000000018,-35.55169496560837
-0.04370000000000007,-36.329786180534136
-0.044700000000000184,-37.07958316946261
-0.045700000000000074,-37.73035036740053
-0.046700000000000186,-38.38111756533845
-0.047700000000000076,-38.94700208528445
-0.04870000000000019,-39.51288660523048
-0.04970000000000008,-40.092918238175145
-0.05070000000000019,-40.701244097117105
-0.05170000000000008,-41.267128617063115
-0.05270000000000019,-41.83301313700913
-0.05370000000000008,-42.3564563179592
-0.05470000000000019,-42.837458159913304
-0.05570000000000008,-43.31846000186743
-0.056700000000000195,-43.75702050482558
-0.057700000000000085,-44.138992555789144
-0.058700000000000196,-44.4926703807554
-0.059700000000000086,-44.80390686672572
-0.0607000000000002,-45.10099623969737
-0.06170000000000009,-45.36979138667173
-0.0627000000000002,-45.70932209863933
-0.06370000000000009,-46.10544126260155
-0.0647000000000002,-46.544001765559706
-0.06570000000000009,-47.10988628550572
-0.0667000000000002,-47.633329466455784
-0.0677000000000001,-48.1992139864018
-0.0687000000000002,-48.68021582835591
-0.0697000000000001,-49.118776331314066
-0.07070000000000021,-49.557336834272235
-0.0717000000000001,-49.85442620724389
-0.07270000000000021,-50.2505453712061
-0.0737000000000001,-50.60422319617236
-0.07470000000000021,-51.071077925127824
-0.0757000000000001,-51.594521106077885
-0.07670000000000021,-52.11796428702795
-0.0777000000000001,-52.74043725896857
-0.07870000000000021,-53.22143910092268
-0.0797000000000001,-53.603411151886235
-0.08070000000000022,-53.9570889768525
-0.0817000000000001,-54.2117370108282
-0.08270000000000022,-54.39564947981066
-0.08370000000000011,-54.60785617479041
-0.08470000000000022,-54.876651321764776
-0.08570000000000011,-55.17374069473642
-0.08670000000000022,-55.612301197694585
-0.08770000000000011,-56.008420361656796
-0.08870000000000022,-56.489422203610914
-0.08970000000000011,-56.927982706569075
-0.09070000000000022,-57.30995475753264
-0.09170000000000011,-57.66363258249889
-0.09270000000000023,-57.93242772947325
-0.09370000000000012,-58.18707576344896
-0.09470000000000023,-58.45587091042332
-0.09570000000000012,-58.71051894439902
-0.09670000000000023,-59.02175543036933
-0.09770000000000012,-59.403727481332886
-0.09870000000000023,-59.842287984291055
-0.09970000000000012,-60.32328982624517
-0.10070000000000023,-60.80429166819927
-0.10170000000000012,-61.242852171157445
-0.10270000000000024,-61.63897133511965
-0.10370000000000013,-61.97850204708726
-0.10470000000000024,-62.28973853305756
-0.10570000000000013,-62.58682790602922
-0.10670000000000024,-62.855623053003576
-0.10770000000000013,-63.20930087796983
-0.10870000000000024,-63.5063902509415
-0.10970000000000013,-63.944950753899654
-0.11070000000000024,-64.38351125685783
-0.11170000000000013,-64.82207175981598
-0.11270000000000002,-65.3030736017701
-0.11370000000000013,-65.7274869917296
-0.11470000000000002,-66.12360615569182
-0.11570000000000014,-66.47728398065809
-0.11670000000000003,-66.73193201463377
-0.11770000000000014,-66.9582858226122
-0.11870000000000003,-67.128051178596
-0.11970000000000014,-67.2978165345798
-0.12070000000000003,-67.52417034255821
-0.12170000000000014,-67.7788183765339
-0.12270000000000003,-68.13249620150016
-0.12370000000000014,-68.48617402646643
-0.12470000000000003,-68.86814607742998
-0.12570000000000014,-69.22182390239624
-0.12670000000000003,-69.53306038836655
-0.12770000000000015,-69.78770842234226
-0.12870000000000004,-69.95747377832606
-0.12970000000000015,-70.14138624730852
-0.13070000000000004,-70.31115160329232
-0.13170000000000015,-70.53750541127073
-0.13270000000000004,-70.87703612323833
-0.13370000000000015,-71.31559662619651
-0.13470000000000004,-71.7965984681506
-0.13570000000000015,-72.36248298809663
-0.13670000000000004,-72.84348483005074
-0.13770000000000016,-73.32448667200485
-0.13870000000000005,-73.6781644969711
-0.13970000000000016,-74.0176952089387
-0.14070000000000005,-74.32893169490903
-0.14170000000000016,-74.58357972888473
-0.14270000000000005,-74.97969889284694
-0.14370000000000016,-75.37581805680915
-0.14470000000000005,-75.85681989876326
-0.14570000000000016,-76.38026307971333
-0.14670000000000005,-76.9037062606634
-0.14770000000000016,-77.51203211960537
-0.14870000000000005,-78.03547530055542
-0.14970000000000017,-78.51647714250953
-0.15070000000000006,-78.91259630647174
-0.15170000000000017,-79.25212701843935
-0.15270000000000006,-79.56336350440966
-0.15370000000000017,-79.86045287738132
-0.15470000000000006,-80.17168936335163
-0.15570000000000017,-80.56780852731384
-0.15670000000000006,-80.9497805782774
-0.15770000000000017,-81.43078242023151
-0.15870000000000006,-81.91178426218562
-0.15970000000000018,-82.43522744313569
-0.16070000000000007,-82.95867062408576
-0.16170000000000018,-83.43967246603985
-0.16270000000000007,-83.79335029100612
-0.16370000000000018,-84.18946945496833
-0.16470000000000007,-84.52900016693594
-0.16570000000000018,-84.84023665290624
-0.16670000000000007,-85.17976736487385
-0.16770000000000018,-85.61832786783202
-0.16870000000000007,-86.09932970978613
-0.16970000000000018,-86.66521422973216
-0.17070000000000007,-87.27354008867411
-0.17170000000000019,-87.93845439961068
-0.17270000000000008,-88.5892215975486
-0.1737000000000002,-89.11266477849867
-0.17470000000000008,-89.50878394246087
-0.1757000000000002,-89.76343197643658
-0.17670000000000008,-89.94734444541903
-0.1777000000000002,-90.20199247939475
-0.17870000000000008,-90.37175783537855
-0.1797000000000002,-90.7254356603448
-0.18070000000000008,-91.12155482430701
-0.1817000000000002,-91.60255666626112
-0.18270000000000008,-92.12599984721119
-0.1837000000000002,-92.64944302816124
-0.1847000000000001,-93.21532754810727
-0.1857000000000002,-93.73877072905732
-0.1867000000000001,-94.26221391000739
-0.1877000000000002,-94.7432157519615
-0.1887000000000001,-95.26665893291157
-0.1897000000000002,-95.87498479185354
-0.1907000000000001,-96.61063466778336
-0.1917000000000001,-97.40287299570777
-0.19269999999999998,-98.18096421063355
-0.1937000000000001,-98.97320253855796
-0.19469999999999998,-99.62396973649588
-0.1957000000000001,-100.2747369344338
-0.19669999999999999,-100.75573877638791
-0.1977000000000001,-101.10941660135417
-0.1987,-101.44894731332178
-0.1997000000000001,-101.71774246029614
-0.2007,-102.07142028526239
-0.2017000000000001,-102.41095099723
-0.2027,-102.80707016119221
-0.2037000000000001,-103.24563066415038
-0.2047,-103.59930848911664
-0.2057000000000001,-103.89639786208829
-0.2067,-104.16519300906265
-0.2077000000000001,-104.46228238203432
-0.2087,-104.81596020700057
-0.2097000000000001,-105.16963803196683
-0.2107,-105.59405142192634
-0.2117000000000001,-106.07505326388046
-0.2127,-106.55605510583456
-0.2137000000000001,-107.03705694778867
-0.2147,-107.47561745074682
-0.2157000000000001,-107.914177953705
-0.2167,-108.39517979565912
-0.21770000000000012,-108.96106431560513
-0.2187,-109.56939017454708
-0.21970000000000012,-110.3050400504769
-0.2207,-110.96995436141347
-0.22170000000000012,-111.66316289834735
-0.2227,-112.31393009628526
-0.22370000000000012,-112.75249059924342
-0.2247,-113.19105110220158
-0.22570000000000012,-113.58717026616378
-0.2267,-114.0115836561233
-0.22770000000000012,-114.57746817606933
-0.22870000000000001,-115.2423824870059
-0.22970000000000013,-115.85070834594785
-0.23070000000000002,-116.37415152689792
-0.23170000000000013,-116.67124089986959
-0.23270000000000002,-116.89759470784797
-0.23370000000000013,-117.02491872483584
-0.23470000000000002,-117.10980140282774
-0.23570000000000013,-117.33615521080614
-0.23670000000000002,-117.63324458377778
-0.2376999999999999,-118.15668776472786
-0.23870000000000002,-118.90648475365633
-0.2396999999999999,-119.68457596858211
-0.24070000000000003,-120.51925563550247
-0.24169999999999991,-121.12758149444444
-0.24270000000000003,-121.65102467539451
-0.24369999999999992,-122.00470250036076
-0.24470000000000003,-122.30179187333242
-0.24569999999999992,-122.69791103729463
-0.24670000000000003,-123.17891287924873
-0.24769999999999992,-123.65991472120285
-0.24870000000000003,-124.09847522416102
-0.24969999999999992,-124.57947706611512
-0.25070000000000003,-125.04633179507057
-0.2516999999999999,-125.44245095903281
-0.25270000000000004,-125.83857012299501
-0.2536999999999999,-126.23468928695722
-0.25470000000000004,-126.71569112891132
-0.2556999999999999,-127.23913430986138
-0.25670000000000004,-127.80501882980741
-0.25769999999999993,-128.37090334975343
-0.25870000000000004,-128.89434653070347
-0.25969999999999993,-129.3753483726576
-0.26070000000000004,-129.8563502146117
-0.26169999999999993,-130.50711741254963
-0.26270000000000004,-131.28520862747538
-0.26369999999999993,-132.16232963339172
-0.26470000000000005,-133.20921599529186
-0.26569999999999994,-134.21366101819604
-0.26670000000000005,-135.17566470210423
-0.26769999999999994,-136.03863859502192
-0.26870000000000005,-136.70355290595847
-0.26969999999999994,-137.08552495692206
-0.27070000000000005,-137.43920278188833
-0.27169999999999994,-137.79288060685457
-0.27270000000000005,-138.27388244880868
-0.27369999999999994,-138.88220830775063
-0.27470000000000006,-139.57541684468453
-0.27569999999999995,-140.36765517260895
-0.27670000000000006,-141.01842237054686
-0.27769999999999995,-141.61260111649017
-0.27870000000000006,-142.17848563643616
-0.27969999999999995,-142.6028990263957
-0.28070000000000006,-142.8858412863687
-0.28169999999999995,-143.3102546763282
-0.28270000000000006,-143.87613919627424
-0.28369999999999995,-144.44202371622026
-0.28470000000000006,-145.14937936615277
-0.28569999999999995,-145.9982061460718
-0.28670000000000007,-146.7055617960043
-0.28769999999999996,-147.4129174459368
-0.28870000000000007,-148.12027309586935
-0.28969999999999996,-148.68615761581535
-0.29070000000000007,-149.39351326574788
-0.29169999999999996,-150.1008689156804
-0.29270000000000007,-150.94969569559944
-0.29369999999999996,-151.65705134553193
-0.2947000000000001,-152.50587812545095
-0.29569999999999996,-153.21323377538346
-0.2967000000000001,-154.0620605553025
-0.29769999999999996,-154.76941620523502
-0.2987000000000001,-155.47677185516753
-0.29969999999999997,-156.04265637511355
-0.3007000000000001,-156.75001202504606
-0.30169999999999997,-157.31589654499206
-0.3027000000000001,-158.02325219492457
-0.30369999999999997,-158.4476655848841
-0.3047000000000001,-158.87207897484362
-0.30569999999999997,-159.43796349478964
-0.3067000000000001,-159.86237688474912
-0.3077,-160.42826140469515
-0.3087000000000001,-160.99414592464117
-0.3097,-161.70150157457368
-0.3107000000000001,-162.40885722450622
-0.3117,-162.97474174445222
-0.3127000000000001,-163.68209739438475
-0.3137,-164.24798191433075
-0.3147000000000001,-164.81386643427678
-0.3157,-165.2382798242363
-0.3167000000000001,-165.8041643441823
-0.3177,-166.51151999411482
-0.3187000000000001,-167.36034677403384
-0.3197,-168.20917355395284
-0.3207000000000001,-169.0580003338719
-0.3217,-169.9068271137909
-0.3227000000000001,-170.75565389370993
-0.3237,-171.60448067362896
-0.3247000000000001,-172.45330745354798
-0.3257,-173.44360536345349
-0.3267000000000001,-174.150961013386
-0.3277,-175.14125892329156
-0.3287000000000001,-175.99008570321055
-0.3297,-176.8389124831296
-0.3307000000000001,-177.54626813306209
-0.3317,-178.3950949129811
-0.3327000000000001,-179.10245056291362
-0.3337,-179.95127734283267
-0.3347000000000001,-180.8001041227517
-0.3357,-181.64893090267074
-0.3367000000000001,-182.35628655260325
-0.3377,-183.06364220253573
-0.3387000000000001,-183.62952672248176
-0.3397,-184.05394011244127
-0.3407000000000001,-184.47835350240078
-0.3417,-185.0442380223468
-0.3427000000000001,-185.6101225422928
-0.3437,-186.17600706223882
-0.3447000000000001,-186.88336271217133
-0.3457,-187.73218949209036
-0.3467000000000001,-188.29807401203638
-0.3477,-188.8639585319824
-0.3487000000000001,-189.2883719219419
-0.3497,-189.71278531190143
-0.3507000000000001,-190.27866983184742
-0.3517,-190.98602548177996
-0.3527000000000001,-191.69338113171247
-0.3537,-192.54220791163152
-0.3547000000000001,-193.532505821537
-0.3557,-194.66427486142905
-0.35670000000000013,-195.93751503130758
-0.3577,-197.0692840711996
-0.35870000000000013,-198.20105311109162
-0.3597,-199.47429328097016
-0.36070000000000013,-200.6060623208622
-0.3617,-201.59636023076774
-0.3626999999999999,-202.7281292706598
-0.3637,-203.71842718056527
-0.3646999999999999,-204.5672539604843
-0.3657,-205.41608074040332
-0.3666999999999999,-206.12343639033585
-0.3677,-206.97226317025488
-0.3686999999999999,-207.67961882018741
-0.36970000000000003,-208.52844560010638
-0.3706999999999999,-209.37727238002543
-0.37170000000000003,-210.22609915994445
-0.3726999999999999,-210.79198367989048
-0.37370000000000003,-211.499339329823
-0.3746999999999999,-212.065223849769
-0.37570000000000003,-212.48963723972852
-0.3766999999999999,-213.19699288966103
-0.37770000000000004,-214.04581966958003
-0.3786999999999999,-215.03611757948556
-0.37970000000000004,-216.0264154893911
-0.3806999999999999,-217.44112678925615
-0.38170000000000004,-218.71436695913465
-0.38269999999999993,-219.98760712901318
-0.38370000000000004,-221.11937616890526
-0.38469999999999993,-222.25114520879725
-0.38570000000000004,-223.38291424868927
-0.38669999999999993,-224.5146832885813
-0.38770000000000004,-225.64645232847332
-0.38869999999999993,-226.63675023837888
-0.38970000000000005,-227.7685192782709
-0.39069999999999994,-228.61734605818995
-0.39170000000000005,-229.60764396809546
-0.39269999999999994,-230.45647074801445
-0.39370000000000005,-231.0223552679605
-0.39469999999999994,-231.729710917893
-0.39570000000000005,-232.29559543783904
-0.39669999999999994,-232.86147995778504
-0.39770000000000005,-233.56883560771757
-0.39869999999999994,-234.4176623876366
-0.39970000000000006,-235.12501803756908
-0.40069999999999995,-235.97384481748813
-0.40170000000000006,-236.96414272739366
-0.40269999999999995,-237.9544406372992
-0.40370000000000006,-238.8032674172182
-0.40469999999999995,-239.5106230671507
-0.40570000000000006,-240.35944984706975
-0.40669999999999995,-241.34974775697523
-0.40770000000000006,-242.48151679686728
-0.40869999999999995,-243.47181470677282
-0.40970000000000006,-244.32064148669184
-0.41069999999999995,-245.02799713662432
-0.41170000000000007,-245.87682391654337
-0.41269999999999996,-246.7256506964624
-0.41370000000000007,-247.4330063463949
-0.41469999999999996,-248.14036199632744
-0.41570000000000007,-248.84771764625998
-0.41669999999999996,-249.5550732961925
-0.41770000000000007,-250.262428946125
-0.41869999999999996,-250.6868423360845
-0.4197000000000001,-251.25272685603056
-0.42069999999999996,-251.67714024599002
-0.4217000000000001,-251.96008250596302
-0.42269999999999996,-252.243024765936
-0.4237000000000001,-252.66743815589555
-0.42469999999999997,-253.23332267584152
-0.4257000000000001,-254.08214945576057
-0.42669999999999997,-255.07244736566614
-0.4277000000000001,-256.20421640555816
-0.42869999999999997,-257.33598544545015
-0.4297000000000001,-258.60922561532874
-0.43069999999999997,-259.7409946552208
-0.4317000000000001,-260.8727636951128
-0.4327,-262.1460038649913
-0.4337000000000001,-263.41924403486985
-0.4347,-264.83395533473487
-0.4357000000000001,-266.2486666345999
-0.4367,-267.6633779344649
-0.4377000000000001,-268.79514697435695
-0.4387,-269.78544488426246
-0.4397000000000001,-270.35132940420846
-0.4407,-270.775742794168
-0.4417000000000001,-270.775742794168
-0.4427,-270.63427166418154
-0.4437000000000001,-270.49280053419506
-0.4447,-270.49280053419506
-0.4457000000000001,-270.35132940420846
-0.4467,-270.0683871442355
-0.4477000000000001,-269.5025026242895
-0.4487,-268.79514697435695
-0.4497000000000001,-268.22926245441096
-0.4507,-268.0877913244245
-0.4517000000000001,-268.37073358439744
-0.4527,-268.79514697435695
-0.4537000000000001,-269.361031494303
-0.4547,-269.926916014249
-0.4557000000000001,-270.49280053419506
-0.4567,-271.05868505414105
-0.4577000000000001,-271.7660407040736
-0.4587,-272.7563386139791
-0.4597000000000001,-274.1710499138441
-0.4607,-276.01017460366864
-0.4617000000000001,-277.9907704234797
-0.4627,-279.97136624329073
-0.4637000000000001,-281.66901980312883
-0.4647,-283.08373110299385
-0.4657000000000001,-284.2155001428859
-0.4667,-284.9228557928184
-0.4677000000000001,-285.4887403127644
-0.4687,-285.7716825727374
-0.4697000000000001,-285.9131537027239
-0.4707,-286.0546248327104
-0.4717000000000001,-286.196095962697
-0.4727,-286.196095962697
-0.4737000000000001,-286.196095962697
-0.4747,-286.0546248327104
-0.4757000000000001,-285.7716825727374
-0.4767,-285.6302114427509
-0.4777000000000001,-285.4887403127644
-0.4787,-285.4887403127644
-0.4797000000000001,-285.6302114427509
-0.4807,-285.7716825727374
-0.48170000000000013,-286.0546248327104
-0.4827,-286.196095962697
-0.48370000000000013,-286.6205093526564
-0.4847,-287.04492274261594
-0.48570000000000013,-287.46933613257545
-0.4867,-286.76198048264297
-0.48570000000000013,-283.9325578829129
-0.4847,-281.1031352831828
-0.48370000000000013,-278.4151838134392
-0.4827,-275.58576121370913
-0.48170000000000013,-272.47339635400607
-0.4807,-269.64397375427603
-0.4797000000000001,-266.8145511545459
-0.4787,-264.12659968480233
-0.4777000000000001,-261.58011934504526
-0.4767,-258.8921678753017
-0.4757000000000001,-256.20421640555816
-0.4747,-253.23332267584152
-0.4737000000000001,-250.1209578161385
-0.4727,-246.8671218264489
-0.4717000000000001,-243.47181470677282
-0.4707,-240.35944984706975
-0.4697000000000001,-237.24708498736666
-0.4687,-234.4176623876366
-0.4677000000000001,-232.01265317786604
-0.4667,-229.74911509808197
-0.4657000000000001,-227.62704814828442
-0.4647,-225.50498119848683
