Dec. 28, 2024   09:22:13
Cyclic Voltammetry
File: c:/users/guazh/data/banditlqround7_x0exp136_r20/2024-12-24-exp766\exp766-2024-12-28t09_13_01-h2koh\exp766_cv_sr_50mvs_efin_-1500mv.bin
Data Source:  Experiment
Instrument Model:  CHI760E
Header: CV ran at 50 mVs
Note: 

Init E (V) = -1
High E (V) = -1
Low E (V) = -1.5
Final E (V) = -1
Init P/N = N
Scan Rate (V/s) = 0.05
Segment = 3
Sample Interval (V) = 0.001
Quiet Time (sec) = 2
Sensitivity (A/V) = 0.01
Comp R (ohm) = 1.4

Results:

Channel 1:
Segment 1:
Ep = -1.289V
ip = 1.433e-3A
Ah = 1.969e-3C

Segment 2:

Segment 3:

Potential/V, Current/A

-1.000, -8.679e-4
-1.001, -7.881e-4
-1.002, -7.279e-4
-1.003, -6.756e-4
-1.004, -6.160e-4
-1.005, -5.800e-4
-1.006, -5.394e-4
-1.007, -4.962e-4
-1.008, -4.576e-4
-1.009, -4.209e-4
-1.010, -3.881e-4
-1.011, -3.592e-4
-1.012, -3.263e-4
-1.013, -2.959e-4
-1.014, -2.636e-4
-1.015, -2.382e-4
-1.016, -2.122e-4
-1.017, -1.881e-4
-1.018, -1.593e-4
-1.019, -1.335e-4
-1.020, -1.117e-4
-1.021, -9.169e-5
-1.022, -6.902e-5
-1.023, -4.525e-5
-1.024, -2.253e-5
-1.025, -3.455e-6
-1.026, 1.214e-5
-1.027, 3.222e-5
-1.028, 5.175e-5
-1.029, 7.221e-5
-1.030, 8.688e-5
-1.031, 1.013e-4
-1.032, 1.170e-4
-1.033, 1.346e-4
-1.034, 1.522e-4
-1.035, 1.637e-4
-1.036, 1.775e-4
-1.037, 1.896e-4
-1.038, 2.047e-4
-1.039, 2.195e-4
-1.040, 2.307e-4
-1.041, 2.400e-4
-1.042, 2.533e-4
-1.043, 2.645e-4
-1.044, 2.787e-4
-1.045, 2.856e-4
-1.046, 2.934e-4
-1.047, 3.043e-4
-1.048, 3.168e-4
-1.049, 3.312e-4
-1.050, 3.361e-4
-1.051, 3.443e-4
-1.052, 3.511e-4
-1.053, 3.618e-4
-1.054, 3.720e-4
-1.055, 3.813e-4
-1.056, 3.908e-4
-1.057, 3.956e-4
-1.058, 4.035e-4
-1.059, 4.111e-4
-1.060, 4.160e-4
-1.061, 4.246e-4
-1.062, 4.291e-4
-1.063, 4.419e-4
-1.064, 4.476e-4
-1.065, 4.536e-4
-1.066, 4.568e-4
-1.067, 4.667e-4
-1.068, 4.725e-4
-1.069, 4.825e-4
-1.070, 4.873e-4
-1.071, 4.907e-4
-1.072, 4.966e-4
-1.073, 5.040e-4
-1.074, 5.118e-4
-1.075, 5.182e-4
-1.076, 5.206e-4
-1.077, 5.267e-4
-1.078, 5.383e-4
-1.079, 5.506e-4
-1.080, 5.597e-4
-1.081, 5.520e-4
-1.082, 5.449e-4
-1.083, 5.508e-4
-1.084, 5.635e-4
-1.085, 5.723e-4
-1.086, 5.851e-4
-1.087, 5.914e-4
-1.088, 6.038e-4
-1.089, 6.119e-4
-1.090, 6.120e-4
-1.091, 6.096e-4
-1.092, 6.116e-4
-1.093, 6.187e-4
-1.094, 6.236e-4
-1.095, 6.357e-4
-1.096, 6.376e-4
-1.097, 6.428e-4
-1.098, 6.584e-4
-1.099, 6.561e-4
-1.100, 6.669e-4
-1.101, 6.640e-4
-1.102, 6.752e-4
-1.103, 6.774e-4
-1.104, 6.897e-4
-1.105, 6.933e-4
-1.106, 6.985e-4
-1.107, 7.047e-4
-1.108, 7.086e-4
-1.109, 7.165e-4
-1.110, 7.249e-4
-1.111, 7.281e-4
-1.112, 7.324e-4
-1.113, 7.417e-4
-1.114, 7.482e-4
-1.115, 7.572e-4
-1.116, 7.595e-4
-1.117, 7.663e-4
-1.118, 7.774e-4
-1.119, 7.847e-4
-1.120, 7.898e-4
-1.121, 7.919e-4
-1.122, 7.927e-4
-1.123, 8.042e-4
-1.124, 8.093e-4
-1.125, 8.221e-4
-1.126, 8.286e-4
-1.127, 8.284e-4
-1.128, 8.398e-4
-1.129, 8.484e-4
-1.130, 8.619e-4
-1.131, 8.627e-4
-1.132, 8.702e-4
-1.133, 8.796e-4
-1.134, 8.810e-4
-1.135, 8.948e-4
-1.136, 8.967e-4
-1.137, 9.087e-4
-1.138, 9.149e-4
-1.139, 9.231e-4
-1.140, 9.313e-4
-1.141, 9.468e-4
-1.142, 9.461e-4
-1.143, 9.545e-4
-1.144, 9.654e-4
-1.145, 9.764e-4
-1.146, 9.770e-4
-1.147, 9.943e-4
-1.148, 1.002e-3
-1.149, 1.029e-3
-1.150, 1.020e-3
-1.151, 1.027e-3
-1.152, 1.023e-3
-1.153, 1.053e-3
-1.154, 1.053e-3
-1.155, 1.071e-3
-1.156, 1.078e-3
-1.157, 1.083e-3
-1.158, 1.098e-3
-1.159, 1.094e-3
-1.160, 1.111e-3
-1.161, 1.124e-3
-1.162, 1.141e-3
-1.163, 1.155e-3
-1.164, 1.169e-3
-1.165, 1.175e-3
-1.166, 1.177e-3
-1.167, 1.182e-3
-1.168, 1.196e-3
-1.169, 1.214e-3
-1.170, 1.225e-3
-1.171, 1.240e-3
-1.172, 1.255e-3
-1.173, 1.259e-3
-1.174, 1.277e-3
-1.175, 1.288e-3
-1.176, 1.307e-3
-1.177, 1.328e-3
-1.178, 1.329e-3
-1.179, 1.347e-3
-1.180, 1.354e-3
-1.181, 1.357e-3
-1.182, 1.376e-3
-1.183, 1.387e-3
-1.184, 1.419e-3
-1.185, 1.429e-3
-1.186, 1.460e-3
-1.187, 1.451e-3
-1.188, 1.466e-3
-1.189, 1.467e-3
-1.190, 1.485e-3
-1.191, 1.505e-3
-1.192, 1.516e-3
-1.193, 1.538e-3
-1.194, 1.559e-3
-1.195, 1.581e-3
-1.196, 1.594e-3
-1.197, 1.595e-3
-1.198, 1.610e-3
-1.199, 1.633e-3
-1.200, 1.644e-3
-1.201, 1.669e-3
-1.202, 1.686e-3
-1.203, 1.694e-3
-1.204, 1.719e-3
-1.205, 1.743e-3
-1.206, 1.739e-3
-1.207, 1.767e-3
-1.208, 1.779e-3
-1.209, 1.800e-3
-1.210, 1.837e-3
-1.211, 1.823e-3
-1.212, 1.855e-3
-1.213, 1.872e-3
-1.214, 1.929e-3
-1.215, 1.936e-3
-1.216, 1.913e-3
-1.217, 1.885e-3
-1.218, 1.938e-3
-1.219, 1.988e-3
-1.220, 2.016e-3
-1.221, 2.021e-3
-1.222, 2.044e-3
-1.223, 2.059e-3
-1.224, 2.065e-3
-1.225, 2.110e-3
-1.226, 2.102e-3
-1.227, 2.111e-3
-1.228, 2.144e-3
-1.229, 2.149e-3
-1.230, 2.207e-3
-1.231, 2.210e-3
-1.232, 2.246e-3
-1.233, 2.253e-3
-1.234, 2.273e-3
-1.235, 2.296e-3
-1.236, 2.301e-3
-1.237, 2.324e-3
-1.238, 2.354e-3
-1.239, 2.376e-3
-1.240, 2.411e-3
-1.241, 2.427e-3
-1.242, 2.442e-3
-1.243, 2.467e-3
-1.244, 2.483e-3
-1.245, 2.495e-3
-1.246, 2.505e-3
-1.247, 2.538e-3
-1.248, 2.560e-3
-1.249, 2.589e-3
-1.250, 2.618e-3
-1.251, 2.631e-3
-1.252, 2.637e-3
-1.253, 2.664e-3
-1.254, 2.666e-3
-1.255, 2.715e-3
-1.256, 2.725e-3
-1.257, 2.749e-3
-1.258, 2.759e-3
-1.259, 2.788e-3
-1.260, 2.806e-3
-1.261, 2.834e-3
-1.262, 2.843e-3
-1.263, 2.849e-3
-1.264, 2.861e-3
-1.265, 2.876e-3
-1.266, 2.926e-3
-1.267, 2.925e-3
-1.268, 2.995e-3
-1.269, 2.992e-3
-1.270, 3.019e-3
-1.271, 2.999e-3
-1.272, 2.934e-3
-1.273, 3.021e-3
-1.274, 3.022e-3
-1.275, 3.031e-3
-1.276, 3.053e-3
-1.277, 3.051e-3
-1.278, 3.087e-3
-1.279, 3.104e-3
-1.280, 3.134e-3
-1.281, 3.126e-3
-1.282, 3.127e-3
-1.283, 3.097e-3
-1.284, 3.111e-3
-1.285, 3.117e-3
-1.286, 3.122e-3
-1.287, 3.130e-3
-1.288, 3.139e-3
-1.289, 3.194e-3
-1.290, 3.151e-3
-1.291, 3.133e-3
-1.292, 3.087e-3
-1.293, 3.133e-3
-1.294, 3.070e-3
-1.295, 3.082e-3
-1.296, 3.049e-3
-1.297, 3.057e-3
-1.298, 3.026e-3
-1.299, 3.025e-3
-1.300, 2.995e-3
-1.301, 2.943e-3
-1.302, 2.941e-3
-1.303, 2.884e-3
-1.304, 2.849e-3
-1.305, 2.817e-3
-1.306, 2.794e-3
-1.307, 2.745e-3
-1.308, 2.725e-3
-1.309, 2.662e-3
-1.310, 2.607e-3
-1.311, 2.535e-3
-1.312, 2.493e-3
-1.313, 2.440e-3
-1.314, 2.381e-3
-1.315, 2.333e-3
-1.316, 2.286e-3
-1.317, 2.215e-3
-1.318, 2.166e-3
-1.319, 2.094e-3
-1.320, 2.054e-3
-1.321, 2.002e-3
-1.322, 1.943e-3
-1.323, 1.887e-3
-1.324, 1.853e-3
-1.325, 1.792e-3
-1.326, 1.762e-3
-1.327, 1.738e-3
-1.328, 1.714e-3
-1.329, 1.676e-3
-1.330, 1.662e-3
-1.331, 1.642e-3
-1.332, 1.625e-3
-1.333, 1.615e-3
-1.334, 1.611e-3
-1.335, 1.610e-3
-1.336, 1.605e-3
-1.337, 1.594e-3
-1.338, 1.601e-3
-1.339, 1.612e-3
-1.340, 1.649e-3
-1.341, 1.673e-3
-1.342, 1.658e-3
-1.343, 1.662e-3
-1.344, 1.628e-3
-1.345, 1.684e-3
-1.346, 1.702e-3
-1.347, 1.714e-3
-1.348, 1.737e-3
-1.349, 1.779e-3
-1.350, 1.788e-3
-1.351, 1.815e-3
-1.352, 1.841e-3
-1.353, 1.860e-3
-1.354, 1.874e-3
-1.355, 1.897e-3
-1.356, 1.916e-3
-1.357, 1.947e-3
-1.358, 1.964e-3
-1.359, 2.009e-3
-1.360, 2.050e-3
-1.361, 2.062e-3
-1.362, 2.094e-3
-1.363, 2.118e-3
-1.364, 2.154e-3
-1.365, 2.172e-3
-1.366, 2.219e-3
-1.367, 2.226e-3
-1.368, 2.272e-3
-1.369, 2.309e-3
-1.370, 2.345e-3
-1.371, 2.387e-3
-1.372, 2.414e-3
-1.373, 2.437e-3
-1.374, 2.482e-3
-1.375, 2.504e-3
-1.376, 2.562e-3
-1.377, 2.582e-3
-1.378, 2.628e-3
-1.379, 2.676e-3
-1.380, 2.695e-3
-1.381, 2.733e-3
-1.382, 2.776e-3
-1.383, 2.806e-3
-1.384, 2.871e-3
-1.385, 2.895e-3
-1.386, 2.955e-3
-1.387, 2.984e-3
-1.388, 3.010e-3
-1.389, 3.040e-3
-1.390, 3.095e-3
-1.391, 3.135e-3
-1.392, 3.216e-3
-1.393, 3.201e-3
-1.394, 3.269e-3
-1.395, 3.306e-3
-1.396, 3.343e-3
-1.397, 3.377e-3
-1.398, 3.459e-3
-1.399, 3.569e-3
-1.400, 3.497e-3
-1.401, 3.558e-3
-1.402, 3.492e-3
-1.403, 3.625e-3
-1.404, 3.730e-3
-1.405, 3.750e-3
-1.406, 3.789e-3
-1.407, 3.861e-3
-1.408, 3.870e-3
-1.409, 3.941e-3
-1.410, 3.987e-3
-1.411, 4.000e-3
-1.412, 4.058e-3
-1.413, 4.093e-3
-1.414, 4.135e-3
-1.415, 4.187e-3
-1.416, 4.258e-3
-1.417, 4.288e-3
-1.418, 4.453e-3
-1.419, 4.405e-3
-1.420, 4.434e-3
-1.421, 4.425e-3
-1.422, 4.501e-3
-1.423, 4.557e-3
-1.424, 4.597e-3
-1.425, 4.655e-3
-1.426, 4.728e-3
-1.427, 4.750e-3
-1.428, 4.815e-3
-1.429, 4.842e-3
-1.430, 4.914e-3
-1.431, 4.945e-3
-1.432, 5.012e-3
-1.433, 5.016e-3
-1.434, 5.114e-3
-1.435, 5.139e-3
-1.436, 5.234e-3
-1.437, 5.202e-3
-1.438, 5.310e-3
-1.439, 5.355e-3
-1.440, 5.394e-3
-1.441, 5.451e-3
-1.442, 5.454e-3
-1.443, 5.518e-3
-1.444, 5.537e-3
-1.445, 5.658e-3
-1.446, 5.699e-3
-1.447, 5.781e-3
-1.448, 5.808e-3
-1.449, 5.784e-3
-1.450, 5.861e-3
-1.451, 5.878e-3
-1.452, 6.015e-3
-1.453, 6.013e-3
-1.454, 6.029e-3
-1.455, 6.108e-3
-1.456, 6.124e-3
-1.457, 6.151e-3
-1.458, 6.304e-3
-1.459, 6.275e-3
-1.460, 6.559e-3
-1.461, 6.398e-3
-1.462, 6.262e-3
-1.463, 6.365e-3
-1.464, 6.479e-3
-1.465, 6.518e-3
-1.466, 6.605e-3
-1.467, 6.665e-3
-1.468, 6.706e-3
-1.469, 6.748e-3
-1.470, 6.775e-3
-1.471, 6.797e-3
-1.472, 6.856e-3
-1.473, 6.890e-3
-1.474, 6.945e-3
-1.475, 6.945e-3
-1.476, 7.026e-3
-1.477, 7.075e-3
-1.478, 7.077e-3
-1.479, 7.200e-3
-1.480, 7.222e-3
-1.481, 7.429e-3
-1.482, 7.346e-3
-1.483, 7.505e-3
-1.484, 7.346e-3
-1.485, 7.568e-3
-1.486, 7.476e-3
-1.487, 7.575e-3
-1.488, 7.598e-3
-1.489, 7.696e-3
-1.490, 7.687e-3
-1.491, 7.679e-3
-1.492, 7.762e-3
-1.493, 7.814e-3
-1.494, 7.848e-3
-1.495, 7.878e-3
-1.496, 7.908e-3
-1.497, 7.973e-3
-1.498, 7.983e-3
-1.499, 8.034e-3
-1.500, 8.037e-3
-1.499, 7.991e-3
-1.498, 8.116e-3
-1.497, 7.791e-3
-1.496, 7.638e-3
-1.495, 7.341e-3
-1.494, 7.393e-3
-1.493, 7.374e-3
-1.492, 7.273e-3
-1.491, 7.346e-3
-1.490, 7.144e-3
-1.489, 7.139e-3
-1.488, 7.120e-3
-1.487, 7.040e-3
-1.486, 6.957e-3
-1.485, 6.876e-3
-1.484, 6.845e-3
-1.483, 6.759e-3
-1.482, 6.719e-3
-1.481, 6.637e-3
-1.480, 6.549e-3
-1.479, 6.471e-3
-1.478, 6.418e-3
-1.477, 6.328e-3
-1.476, 6.311e-3
-1.475, 6.194e-3
-1.474, 6.128e-3
-1.473, 6.105e-3
-1.472, 6.071e-3
-1.471, 6.037e-3
-1.470, 5.961e-3
-1.469, 5.932e-3
-1.468, 5.842e-3
-1.467, 5.738e-3
-1.466, 5.712e-3
-1.465, 5.652e-3
-1.464, 5.622e-3
-1.463, 5.580e-3
-1.462, 5.580e-3
-1.461, 5.486e-3
-1.460, 5.380e-3
-1.459, 5.319e-3
-1.458, 5.308e-3
-1.457, 5.348e-3
-1.456, 5.282e-3
-1.455, 5.265e-3
-1.454, 5.181e-3
-1.453, 5.058e-3
-1.452, 4.978e-3
-1.451, 4.956e-3
-1.450, 4.930e-3
-1.449, 4.916e-3
-1.448, 4.901e-3
-1.447, 4.668e-3
-1.446, 4.609e-3
-1.445, 4.580e-3
-1.444, 4.684e-3
-1.443, 4.623e-3
-1.442, 4.654e-3
-1.441, 4.624e-3
-1.440, 4.599e-3
-1.439, 4.394e-3
-1.438, 4.434e-3
-1.437, 4.331e-3
-1.436, 4.307e-3
-1.435, 4.229e-3
-1.434, 4.190e-3
-1.433, 4.101e-3
-1.432, 4.126e-3
-1.431, 4.069e-3
-1.430, 4.026e-3
-1.429, 3.978e-3
-1.428, 3.882e-3
-1.427, 3.875e-3
-1.426, 3.777e-3
-1.425, 3.773e-3
-1.424, 3.736e-3
-1.423, 3.674e-3
-1.422, 3.734e-3
-1.421, 3.688e-3
-1.420, 3.609e-3
-1.419, 3.573e-3
-1.418, 3.491e-3
-1.417, 3.465e-3
-1.416, 3.429e-3
-1.415, 3.361e-3
-1.414, 3.352e-3
-1.413, 3.375e-3
-1.412, 3.298e-3
-1.411, 3.279e-3
-1.410, 3.149e-3
-1.409, 3.150e-3
-1.408, 3.084e-3
-1.407, 3.066e-3
-1.406, 3.013e-3
-1.405, 3.107e-3
-1.404, 3.164e-3
-1.403, 3.014e-3
-1.402, 2.973e-3
-1.401, 2.928e-3
-1.400, 2.875e-3
-1.399, 2.829e-3
-1.398, 2.799e-3
-1.397, 2.722e-3
-1.396, 2.758e-3
-1.395, 2.657e-3
-1.394, 2.667e-3
-1.393, 2.605e-3
-1.392, 2.569e-3
-1.391, 2.519e-3
-1.390, 2.492e-3
-1.389, 2.458e-3
-1.388, 2.428e-3
-1.387, 2.399e-3
-1.386, 2.342e-3
-1.385, 2.310e-3
-1.384, 2.253e-3
-1.383, 2.228e-3
-1.382, 2.245e-3
-1.381, 2.168e-3
-1.380, 2.109e-3
-1.379, 2.062e-3
-1.378, 2.134e-3
-1.377, 2.134e-3
-1.376, 2.081e-3
-1.375, 2.009e-3
-1.374, 2.000e-3
-1.373, 1.940e-3
-1.372, 1.920e-3
-1.371, 1.892e-3
-1.370, 1.887e-3
-1.369, 1.854e-3
-1.368, 1.807e-3
-1.367, 1.749e-3
-1.366, 1.729e-3
-1.365, 1.697e-3
-1.364, 1.679e-3
-1.363, 1.649e-3
-1.362, 1.623e-3
-1.361, 1.591e-3
-1.360, 1.561e-3
-1.359, 1.516e-3
-1.358, 1.475e-3
-1.357, 1.463e-3
-1.356, 1.434e-3
-1.355, 1.424e-3
-1.354, 1.407e-3
-1.353, 1.349e-3
-1.352, 1.332e-3
-1.351, 1.298e-3
-1.350, 1.284e-3
-1.349, 1.300e-3
-1.348, 1.265e-3
-1.347, 1.222e-3
-1.346, 1.227e-3
-1.345, 1.176e-3
-1.344, 1.159e-3
-1.343, 1.144e-3
-1.342, 1.110e-3
-1.341, 1.069e-3
-1.340, 1.054e-3
-1.339, 1.017e-3
-1.338, 9.941e-4
-1.337, 9.783e-4
-1.336, 9.807e-4
-1.335, 9.171e-4
-1.334, 8.847e-4
-1.333, 8.807e-4
-1.332, 8.620e-4
-1.331, 8.374e-4
-1.330, 8.157e-4
-1.329, 7.968e-4
-1.328, 7.728e-4
-1.327, 7.421e-4
-1.326, 7.312e-4
-1.325, 7.049e-4
-1.324, 6.946e-4
-1.323, 6.648e-4
-1.322, 6.505e-4
-1.321, 6.242e-4
-1.320, 6.141e-4
-1.319, 5.990e-4
-1.318, 5.885e-4
-1.317, 5.707e-4
-1.316, 5.430e-4
-1.315, 5.269e-4
-1.314, 5.113e-4
-1.313, 4.910e-4
-1.312, 4.730e-4
-1.311, 4.614e-4
-1.310, 4.419e-4
-1.309, 4.255e-4
-1.308, 4.067e-4
-1.307, 3.889e-4
-1.306, 3.730e-4
-1.305, 3.602e-4
-1.304, 3.466e-4
-1.303, 3.289e-4
-1.302, 3.124e-4
-1.301, 3.002e-4
-1.300, 2.901e-4
-1.299, 2.743e-4
-1.298, 2.564e-4
-1.297, 2.444e-4
-1.296, 2.361e-4
-1.295, 2.216e-4
-1.294, 2.090e-4
-1.293, 1.950e-4
-1.292, 1.805e-4
-1.291, 1.647e-4
-1.290, 1.568e-4
-1.289, 1.466e-4
-1.288, 1.335e-4
-1.287, 1.201e-4
-1.286, 1.097e-4
-1.285, 1.001e-4
-1.284, 9.334e-5
-1.283, 7.961e-5
-1.282, 6.343e-5
-1.281, 5.251e-5
-1.280, 4.564e-5
-1.279, 3.748e-5
-1.278, 2.624e-5
-1.277, 1.520e-5
-1.276, 6.618e-6
-1.275, -9.392e-7
-1.274, -9.315e-6
-1.273, -2.014e-5
-1.272, -2.985e-5
-1.271, -3.754e-5
-1.270, -4.402e-5
-1.269, -5.142e-5
-1.268, -6.097e-5
-1.267, -7.120e-5
-1.266, -7.726e-5
-1.265, -8.330e-5
-1.264, -9.014e-5
-1.263, -9.797e-5
-1.262, -1.077e-4
-1.261, -1.141e-4
-1.260, -1.184e-4
-1.259, -1.233e-4
-1.258, -1.324e-4
-1.257, -1.400e-4
-1.256, -1.451e-4
-1.255, -1.514e-4
-1.254, -1.560e-4
-1.253, -1.619e-4
-1.252, -1.712e-4
-1.251, -1.768e-4
-1.250, -1.791e-4
-1.249, -1.860e-4
-1.248, -1.895e-4
-1.247, -1.972e-4
-1.246, -1.998e-4
-1.245, -2.052e-4
-1.244, -2.099e-4
-1.243, -2.181e-4
-1.242, -2.233e-4
-1.241, -2.282e-4
-1.240, -2.273e-4
-1.239, -2.324e-4
-1.238, -2.377e-4
-1.237, -2.413e-4
-1.236, -2.492e-4
-1.235, -2.507e-4
-1.234, -2.540e-4
-1.233, -2.604e-4
-1.232, -2.708e-4
-1.231, -2.741e-4
-1.230, -2.710e-4
-1.229, -2.691e-4
-1.228, -2.810e-4
-1.227, -2.942e-4
-1.226, -2.920e-4
-1.225, -2.924e-4
-1.224, -2.897e-4
-1.223, -2.992e-4
-1.222, -2.987e-4
-1.221, -3.045e-4
-1.220, -3.026e-4
-1.219, -3.051e-4
-1.218, -3.095e-4
-1.217, -3.136e-4
-1.216, -3.183e-4
-1.215, -3.191e-4
-1.214, -3.208e-4
-1.213, -3.239e-4
-1.212, -3.295e-4
-1.211, -3.327e-4
-1.210, -3.311e-4
-1.209, -3.348e-4
-1.208, -3.374e-4
-1.207, -3.468e-4
-1.206, -3.419e-4
-1.205, -3.457e-4
-1.204, -3.456e-4
-1.203, -3.517e-4
-1.202, -3.739e-4
-1.201, -3.708e-4
-1.200, -3.634e-4
-1.199, -3.648e-4
-1.198, -3.670e-4
-1.197, -3.701e-4
-1.196, -3.736e-4
-1.195, -3.717e-4
-1.194, -3.721e-4
-1.193, -3.782e-4
-1.192, -3.792e-4
-1.191, -3.797e-4
-1.190, -3.790e-4
-1.189, -3.809e-4
-1.188, -3.826e-4
-1.187, -3.896e-4
-1.186, -3.916e-4
-1.185, -3.924e-4
-1.184, -3.951e-4
-1.183, -3.931e-4
-1.182, -4.025e-4
-1.181, -4.009e-4
-1.180, -4.051e-4
-1.179, -4.102e-4
-1.178, -4.139e-4
-1.177, -4.017e-4
-1.176, -4.058e-4
-1.175, -3.964e-4
-1.174, -4.180e-4
-1.173, -4.157e-4
-1.172, -4.229e-4
-1.171, -4.252e-4
-1.170, -4.269e-4
-1.169, -4.241e-4
-1.168, -4.271e-4
-1.167, -4.314e-4
-1.166, -4.306e-4
-1.165, -4.282e-4
-1.164, -4.312e-4
-1.163, -4.364e-4
-1.162, -4.462e-4
-1.161, -4.468e-4
-1.160, -4.485e-4
-1.159, -4.456e-4
-1.158, -4.501e-4
-1.157, -4.516e-4
-1.156, -4.575e-4
-1.155, -4.585e-4
-1.154, -4.606e-4
-1.153, -4.635e-4
-1.152, -4.658e-4
-1.151, -4.696e-4
-1.150, -4.721e-4
-1.149, -4.706e-4
-1.148, -4.814e-4
-1.147, -4.814e-4
-1.146, -4.896e-4
-1.145, -4.935e-4
-1.144, -4.905e-4
-1.143, -5.090e-4
-1.142, -4.985e-4
-1.141, -5.004e-4
-1.140, -4.990e-4
-1.139, -5.041e-4
-1.138, -5.082e-4
-1.137, -5.219e-4
-1.136, -5.343e-4
-1.135, -5.186e-4
-1.134, -5.278e-4
-1.133, -5.263e-4
-1.132, -5.334e-4
-1.131, -5.420e-4
-1.130, -5.466e-4
-1.129, -5.582e-4
-1.128, -5.648e-4
-1.127, -5.797e-4
-1.126, -5.898e-4
-1.125, -5.948e-4
-1.124, -6.105e-4
-1.123, -6.184e-4
-1.122, -6.342e-4
-1.121, -6.464e-4
-1.120, -6.608e-4
-1.119, -6.742e-4
-1.118, -6.922e-4
-1.117, -7.148e-4
-1.116, -7.366e-4
-1.115, -7.537e-4
-1.114, -7.677e-4
-1.113, -8.031e-4
-1.112, -8.154e-4
-1.111, -8.348e-4
-1.110, -8.529e-4
-1.109, -8.771e-4
-1.108, -9.095e-4
-1.107, -9.235e-4
-1.106, -9.489e-4
-1.105, -9.609e-4
-1.104, -9.958e-4
-1.103, -1.015e-3
-1.102, -1.041e-3
-1.101, -1.067e-3
-1.100, -1.080e-3
-1.099, -1.111e-3
-1.098, -1.133e-3
-1.097, -1.169e-3
-1.096, -1.172e-3
-1.095, -1.197e-3
-1.094, -1.205e-3
-1.093, -1.238e-3
-1.092, -1.256e-3
-1.091, -1.291e-3
-1.090, -1.314e-3
-1.089, -1.323e-3
-1.088, -1.368e-3
-1.087, -1.370e-3
-1.086, -1.415e-3
-1.085, -1.416e-3
-1.084, -1.442e-3
-1.083, -1.445e-3
-1.082, -1.485e-3
-1.081, -1.515e-3
-1.080, -1.532e-3
-1.079, -1.557e-3
-1.078, -1.564e-3
-1.077, -1.606e-3
-1.076, -1.610e-3
-1.075, -1.616e-3
-1.074, -1.642e-3
-1.073, -1.655e-3
-1.072, -1.690e-3
-1.071, -1.740e-3
-1.070, -1.725e-3
-1.069, -1.759e-3
-1.068, -1.770e-3
-1.067, -1.782e-3
-1.066, -1.804e-3
-1.065, -1.845e-3
-1.064, -1.843e-3
-1.063, -1.871e-3
-1.062, -1.892e-3
-1.061, -1.916e-3
-1.060, -1.935e-3
-1.059, -1.945e-3
-1.058, -1.957e-3
-1.057, -1.996e-3
-1.056, -2.007e-3
-1.055, -2.026e-3
-1.054, -2.062e-3
-1.053, -2.064e-3
-1.052, -2.090e-3
-1.051, -2.111e-3
-1.050, -2.118e-3
-1.049, -2.145e-3
-1.048, -2.174e-3
-1.047, -2.179e-3
-1.046, -2.218e-3
-1.045, -2.224e-3
-1.044, -2.234e-3
-1.043, -2.243e-3
-1.042, -2.284e-3
-1.041, -2.292e-3
-1.040, -2.307e-3
-1.039, -2.336e-3
-1.038, -2.347e-3
-1.037, -2.377e-3
-1.036, -2.391e-3
-1.035, -2.409e-3
-1.034, -2.413e-3
-1.033, -2.449e-3
-1.032, -2.435e-3
-1.031, -2.470e-3
-1.030, -2.494e-3
-1.029, -2.506e-3
-1.028, -2.521e-3
-1.027, -2.531e-3
-1.026, -2.553e-3
-1.025, -2.598e-3
-1.024, -2.599e-3
-1.023, -2.630e-3
-1.022, -2.614e-3
-1.021, -2.681e-3
-1.020, -2.758e-3
-1.019, -2.792e-3
-1.018, -2.691e-3
-1.017, -2.730e-3
-1.016, -2.745e-3
-1.015, -2.757e-3
-1.014, -2.820e-3
-1.013, -2.820e-3
-1.012, -2.841e-3
-1.011, -2.799e-3
-1.010, -2.806e-3
-1.009, -2.826e-3
-1.008, -2.849e-3
-1.007, -2.901e-3
-1.006, -2.933e-3
-1.005, -2.932e-3
-1.004, -2.926e-3
-1.003, -2.932e-3
-1.002, -2.953e-3
-1.001, -2.947e-3
