Potential V vs RHE, Current mA cm-2
0.013299999999999867,-0.040729538323114406
0.012299999999999978,-0.2567701009255041
0.011299999999999866,-0.3572146032159218
0.010299999999999976,-0.4152177665103883
0.009299999999999864,-0.4606299992360559
0.008299999999999974,-0.5081642989115212
0.007299999999999862,-0.5469273885278232
0.006299999999999972,-0.5718263074054479
0.00529999999999986,-0.6088917434619118
0.0042999999999999705,-0.6486451309881194
0.0032999999999998586,-0.6647728398065808
0.0022999999999999687,-0.6916523545040165
0.0012999999999998568,-0.7244736566608853
0.00029999999999996696,-0.7434307880790767
-0.000700000000000145,-0.7572949588177541
-0.0017000000000000348,-0.7892674341947039
-0.0027000000000001467,-0.8070927965730035
-0.0037000000000000366,-0.8202496116617483
-0.0047000000000001485,-0.8437338192395079
-0.005700000000000038,-0.8704718628069571
-0.00670000000000015,-0.8740086410566196
-0.00770000000000004,-0.8982002042843118
-0.008700000000000152,-0.9218258829920579
-0.009700000000000042,-0.9383780052004788
-0.010700000000000154,-0.9522421759391562
-0.011700000000000044,-0.9818096421063355
-0.012700000000000156,-1.0026058982143515
-0.013700000000000045,-1.0093965124537037
-0.014700000000000157,-1.0341539602013416
-0.015700000000000047,-1.0613164171587506
-0.01670000000000016,-1.0700876272179138
-0.01770000000000005,-1.090317998805984
-0.01870000000000016,-1.1074360055343508
-0.01970000000000005,-1.1231393009628525
-0.020700000000000163,-1.1303543285921644
-0.021700000000000053,-1.1556776608597483
-0.022700000000000164,-1.173503023238048
-0.023700000000000054,-1.176332445837778
-0.024700000000000166,-1.1985434132456592
-0.025700000000000056,-1.2254229279430946
-0.026700000000000168,-1.2237252743832567
-0.027700000000000058,-1.243389761451381
-0.02870000000000017,-1.2708351606687625
-0.02970000000000006,-1.2830016778476019
-0.03070000000000017,-1.2958755506763735
-0.03170000000000006,-1.3271406704033908
-0.03270000000000017,-1.3530298871909212
-0.03370000000000006,-1.3657622888897063
-0.034700000000000175,-1.3953297550568855
-0.035700000000000065,-1.427443701563822
-0.03670000000000018,-1.4415908145624723
-0.03770000000000007,-1.462811484060448
-0.03870000000000018,-1.499593977856939
-0.03970000000000007,-1.5222293586547795
-0.04070000000000018,-1.5349617603535646
-0.04170000000000007,-1.5703295428501907
-0.04270000000000018,-1.5915502123481662
-0.04370000000000007,-1.6042826140469515
-0.044700000000000184,-1.6255032835449272
-0.045700000000000074,-1.6481386643427678
-0.046700000000000186,-1.656626932141958
-0.047700000000000076,-1.6693593338407433
-0.04870000000000019,-1.6891652920388538
-0.04970000000000008,-1.701897693737639
-0.05070000000000019,-1.700482982437774
-0.05170000000000008,-1.7217036519357498
-0.05270000000000019,-1.7386801875341302
-0.05370000000000008,-1.7316066310348048
-0.05470000000000019,-1.7429243214337253
-0.05570000000000008,-1.7613155683319706
-0.056700000000000195,-1.7485831666331852
-0.057700000000000085,-1.7599008570321055
-0.058700000000000196,-1.7655597022315657
-0.059700000000000086,-1.776877392630486
-0.0607000000000002,-1.768389124831296
-0.06170000000000009,-1.7881950830294064
-0.0627000000000002,-1.7881950830294064
-0.06370000000000009,-1.7867803717295414
-0.0647000000000002,-1.7881950830294064
-0.06570000000000009,-1.8037569073279218
-0.0667000000000002,-1.7896097943292715
-0.0677000000000001,-1.7980980621284617
-0.0687000000000002,-1.7995127734283267
-0.0697000000000001,-1.8122451751271118
-0.07070000000000021,-1.7980980621284617
-0.0717000000000001,-1.815074597726842
-0.07270000000000021,-1.8164893090267071
-0.0737000000000001,-1.8122451751271118
-0.07470000000000021,-1.8108304638272468
-0.0757000000000001,-1.8263922881257622
-0.07670000000000021,-1.815074597726842
-0.0777000000000001,-1.8164893090267071
-0.07870000000000021,-1.8278069994256272
-0.0797000000000001,-1.8263922881257622
-0.08070000000000022,-1.815074597726842
-0.0817000000000001,-1.8334658446250875
-0.08270000000000022,-1.8292217107254924
-0.08370000000000011,-1.823562865526032
-0.08470000000000022,-1.8278069994256272
-0.08570000000000011,-1.8348805559249526
-0.08670000000000022,-1.8249775768258971
-0.08770000000000011,-1.8278069994256272
-0.08870000000000022,-1.8320511333252225
-0.08970000000000011,-1.8377099785246829
-0.09070000000000022,-1.823562865526032
-0.09170000000000011,-1.8362952672248178
-0.09270000000000023,-1.8391246898245475
-0.09370000000000012,-1.8292217107254924
-0.09470000000000023,-1.8334658446250875
-0.09570000000000012,-1.8461982463238729
-0.09670000000000023,-1.8249775768258971
-0.09770000000000012,-1.8320511333252225
-0.09870000000000023,-1.8362952672248178
-0.09970000000000012,-1.8405394011244125
-0.10070000000000023,-1.8320511333252225
-0.10170000000000012,-1.8391246898245475
-0.10270000000000024,-1.8391246898245475
-0.10370000000000013,-1.8263922881257622
-0.10470000000000024,-1.8362952672248178
-0.10570000000000013,-1.8447835350240078
-0.10670000000000024,-1.8278069994256272
-0.10770000000000013,-1.8306364220253575
-0.10870000000000024,-1.8377099785246829
-0.10970000000000013,-1.8362952672248178
-0.11070000000000024,-1.8249775768258971
-0.11170000000000013,-1.8334658446250875
-0.11270000000000002,-1.8362952672248178
-0.11370000000000013,-1.8278069994256272
-0.11470000000000002,-1.8263922881257622
-0.11570000000000014,-1.8405394011244125
-0.11670000000000003,-1.8292217107254924
-0.11770000000000014,-1.8263922881257622
-0.11870000000000003,-1.8348805559249526
-0.11970000000000014,-1.8320511333252225
-0.12070000000000003,-1.8179040203265722
-0.12170000000000014,-1.8320511333252225
-0.12270000000000003,-1.8320511333252225
-0.12370000000000014,-1.823562865526032
-0.12470000000000003,-1.822148154226167
-0.12570000000000014,-1.8306364220253575
-0.12670000000000003,-1.8193187316264372
-0.12770000000000015,-1.8179040203265722
-0.12870000000000004,-1.8249775768258971
-0.12970000000000015,-1.8278069994256272
-0.13070000000000004,-1.8193187316264372
-0.13170000000000015,-1.8249775768258971
-0.13270000000000004,-1.8249775768258971
-0.13370000000000015,-1.8164893090267071
-0.13470000000000004,-1.8207334429263025
-0.13570000000000015,-1.8292217107254924
-0.13670000000000004,-1.815074597726842
-0.13770000000000016,-1.8207334429263025
-0.13870000000000005,-1.8207334429263025
-0.13970000000000016,-1.822148154226167
-0.14070000000000005,-1.813659886426977
-0.14170000000000016,-1.8179040203265722
-0.14270000000000005,-1.822148154226167
-0.14370000000000016,-1.8122451751271118
-0.14470000000000005,-1.813659886426977
-0.14570000000000016,-1.8249775768258971
-0.14670000000000005,-1.8080010412275167
-0.14770000000000016,-1.813659886426977
-0.14870000000000005,-1.8207334429263025
-0.14970000000000017,-1.8179040203265722
-0.15070000000000006,-1.8094157525273817
-0.15170000000000017,-1.8179040203265722
-0.15270000000000006,-1.8193187316264372
-0.15370000000000017,-1.8094157525273817
-0.15470000000000006,-1.813659886426977
-0.15570000000000017,-1.822148154226167
-0.15670000000000006,-1.8122451751271118
-0.15770000000000017,-1.813659886426977
-0.15870000000000006,-1.8207334429263025
-0.15970000000000018,-1.8164893090267071
-0.16070000000000007,-1.8065863299276517
-0.16170000000000018,-1.8164893090267071
-0.16270000000000007,-1.8193187316264372
-0.16370000000000018,-1.8122451751271118
-0.16470000000000007,-1.8179040203265722
-0.16570000000000018,-1.8249775768258971
-0.16670000000000007,-1.8164893090267071
-0.16770000000000018,-1.8179040203265722
-0.16870000000000007,-1.8193187316264372
-0.16970000000000018,-1.8193187316264372
-0.17070000000000007,-1.8080010412275167
-0.17170000000000019,-1.822148154226167
-0.17270000000000008,-1.8207334429263025
-0.1737000000000002,-1.813659886426977
-0.17470000000000008,-1.8179040203265722
-0.1757000000000002,-1.8249775768258971
-0.17670000000000008,-1.813659886426977
-0.1777000000000002,-1.8193187316264372
-0.17870000000000008,-1.8179040203265722
-0.1797000000000002,-1.8249775768258971
-0.18070000000000008,-1.813659886426977
-0.1817000000000002,-1.823562865526032
-0.18270000000000008,-1.8306364220253575
-0.1837000000000002,-1.8193187316264372
-0.1847000000000001,-1.8207334429263025
-0.1857000000000002,-1.8334658446250875
-0.1867000000000001,-1.8207334429263025
-0.1877000000000002,-1.8249775768258971
-0.1887000000000001,-1.8278069994256272
-0.1897000000000002,-1.8320511333252225
-0.1907000000000001,-1.8263922881257622
-0.1917000000000001,-1.8362952672248178
-0.19269999999999998,-1.8377099785246829
-0.1937000000000001,-1.8292217107254924
-0.19469999999999998,-1.8334658446250875
-0.1957000000000001,-1.8405394011244125
-0.19669999999999999,-1.8320511333252225
-0.1977000000000001,-1.8348805559249526
-0.1987,-1.8447835350240078
-0.1997000000000001,-1.8433688237241426
-0.2007,-1.8362952672248178
-0.2017000000000001,-1.847612957623738
-0.2027,-1.8518570915233332
-0.2037000000000001,-1.8461982463238729
-0.2047,-1.8461982463238729
-0.2057000000000001,-1.857515936722793
-0.2067,-1.8461982463238729
-0.2077000000000001,-1.8518570915233332
-0.2087,-1.8617600706223882
-0.2097000000000001,-1.8645894932221183
-0.2107,-1.8546865141230628
-0.2117000000000001,-1.8688336271217136
-0.2127,-1.8716630497214433
-0.2137000000000001,-1.8645894932221183
-0.2147,-1.8716630497214433
-0.2157000000000001,-1.892883719219419
-0.2167,-1.8801513175206337
-0.21770000000000012,-1.8815660288204987
-0.2187,-1.884395451420229
-0.21970000000000012,-1.890054296619689
-0.2207,-1.884395451420229
-0.22170000000000012,-1.897127853119014
-0.2227,-1.9027866983184742
-0.22370000000000012,-1.894298430519284
-0.2247,-1.897127853119014
-0.22570000000000012,-1.9141043887173947
-0.2267,-1.9042014096183393
-0.22770000000000012,-1.9084455435179344
-0.22870000000000001,-1.9197632339168547
-0.22970000000000013,-1.922592656516585
-0.23070000000000002,-1.9155191000172598
-0.23170000000000013,-1.9296662130159101
-0.23270000000000002,-1.933910346915505
-0.23370000000000013,-1.933910346915505
-0.23470000000000002,-1.933910346915505
-0.23570000000000013,-1.9508868825138854
-0.23670000000000002,-1.9423986147146954
-0.2376999999999999,-1.9480574599141556
-0.23870000000000002,-1.959375150313076
-0.2396999999999999,-1.9650339955125358
-0.24070000000000003,-1.9622045729128061
-0.24169999999999991,-1.9791811085111866
-0.24270000000000003,-1.9834252424107812
-0.24369999999999992,-1.9763516859114565
-0.24470000000000003,-1.9876693763103765
-0.24569999999999992,-2.0032312006088917
-0.24670000000000003,-1.9947429328097017
-0.24769999999999992,-2.0032312006088917
-0.24870000000000003,-2.014548891007812
-0.24969999999999992,-2.0244518701068674
-0.25070000000000003,-2.0159636023076772
-0.2516999999999999,-2.0301107153063276
-0.25270000000000004,-2.0414284057052483
-0.2536999999999999,-2.0414284057052483
-0.25470000000000004,-2.054160807404033
-0.2556999999999999,-2.0654784978029537
-0.25670000000000004,-2.0640637865030884
-0.25769999999999993,-2.0753814769020087
-0.25870000000000004,-2.085284456001064
-0.25969999999999993,-2.0937727238002544
-0.26070000000000004,-2.095187435100119
-0.26169999999999993,-2.1093345480987695
-0.26270000000000004,-2.1192375271978254
-0.26369999999999993,-2.1192375271978254
-0.26470000000000005,-2.12914050629688
-0.26569999999999994,-2.1546053096944506
-0.26670000000000005,-2.1531905983945863
-0.26769999999999994,-2.161678866193776
-0.26870000000000005,-2.178655401792157
-0.26969999999999994,-2.1871436695913467
-0.27070000000000005,-2.192802514790807
-0.27169999999999994,-2.205534916489592
-0.27270000000000005,-2.2210967407881075
-0.27369999999999994,-2.226755585987568
-0.27470000000000006,-2.2394879876863527
-0.27569999999999995,-2.257879234584599
-0.27670000000000006,-2.2621233684841937
-0.27769999999999995,-2.272026347583249
-0.27870000000000006,-2.2918323057813597
-0.27969999999999995,-2.30314999618028
-0.28070000000000006,-2.30880884137974
-0.28169999999999995,-2.3328589334774454
-0.28270000000000006,-2.3441766238763657
-0.28369999999999995,-2.352664891675556
-0.28470000000000006,-2.3682267159740715
-0.28569999999999995,-2.3908620967719116
-0.28670000000000007,-2.3936915193716417
-0.28769999999999996,-2.4134974775697526
-0.28870000000000007,-2.433303435767863
-0.28969999999999996,-2.4474505487665135
-0.29070000000000007,-2.4545241052658384
-0.29169999999999996,-2.4785741973635442
-0.29270000000000007,-2.50262428946125
-0.29369999999999996,-2.50828313466071
-0.2947000000000001,-2.5295038041586855
-0.29569999999999996,-2.557798030155986
-0.2967000000000001,-2.5648715866553116
-0.29769999999999996,-2.584677544853422
-0.2987000000000001,-2.610142348250993
-0.29969999999999997,-2.6285335951492383
-0.3007000000000001,-2.639851285548158
-0.30169999999999997,-2.6653160889457292
-0.3027000000000001,-2.69643973754276
-0.30369999999999997,-2.700683871442355
-0.3047000000000001,-2.730392808739521
-0.30569999999999997,-2.7615164573365516
-0.3067000000000001,-2.775663570335202
-0.3077,-2.795469528533313
-0.3087000000000001,-2.8251784658304784
-0.3097,-2.846399135328454
-0.3107000000000001,-2.864790382226699
-0.3117,-2.893084608224
-0.3127000000000001,-2.924208256821031
-0.3137,-2.9440142150191413
-0.3147000000000001,-2.968064307116847
-0.3157,-3.0076762235130676
-0.3167000000000001,-3.0260674704113137
-0.3177,-3.0515322738088844
-0.3187000000000001,-3.08407063370578
-0.3197,-3.1123648597030806
-0.3207000000000001,-3.1335855292010564
-0.3217,-3.1703680229975473
-0.3227000000000001,-3.198662248994848
-0.3237,-3.2227123410925533
-0.3247000000000001,-3.2552507009894494
-0.3257,-3.2991067512852656
-0.3267000000000001,-3.3245715546828363
-0.3277,-3.352865780680137
-0.3287000000000001,-3.3953071196760884
-0.3297,-3.426430768273119
-0.3307000000000001,-3.450480860370824
-0.3317,-3.4985810445662353
-0.3327000000000001,-3.536778249662592
-0.3337,-3.5608283417602973
-0.3347000000000001,-3.606099103355979
-0.3357,-3.647125731052064
-0.3367000000000001,-3.6754199570493657
-0.3377,-3.716446584745451
-0.3387000000000001,-3.7588879237414026
-0.3397,-3.798499840137624
-0.3407000000000001,-3.835282333934114
-0.3417,-3.881967806829661
-0.3427000000000001,-3.927238568425342
-0.3437,-3.961191639622102
-0.3447000000000001,-4.007877112517649
-0.3457,-4.06163614191252
-0.3467000000000001,-4.095589213109282
-0.3477,-4.143689397304692
-0.3487000000000001,-4.190374870200238
-0.3497,-4.237060343095785
-0.3507000000000001,-4.282331104691466
-0.3517,-4.331846000186743
-0.3527000000000001,-4.389849163481209
-0.3537,-4.425216945977835
-0.3547000000000001,-4.478975975372705
-0.3557,-4.538393849967037
-0.35670000000000013,-4.579420477663124
-0.3577,-4.630350084458265
-0.35870000000000013,-4.691182670352461
-0.3597,-4.7463564110471985
-0.36070000000000013,-4.791627172642879
-0.3617,-4.855289181136806
-0.3626999999999999,-4.910462921831542
-0.3637,-4.962807239926549
-0.3646999999999999,-5.017980980621284
-0.3657,-5.0816429891152115
-0.3666999999999999,-5.132572595910353
-0.3677,-5.189161047904955
-0.3686999999999999,-5.255652478998611
-0.36970000000000003,-5.319314487492538
-0.3706999999999999,-5.3702440942876795
-0.37170000000000003,-5.439564947981066
-0.3726999999999999,-5.504641667774858
-0.37370000000000003,-5.556985985869864
-0.3746999999999999,-5.622062705663656
-0.37570000000000003,-5.688554136757313
-0.3766999999999999,-5.742313166152184
-0.37770000000000004,-5.811634019845571
-0.3786999999999999,-5.878125450939227
-0.37970000000000004,-5.94603159333275
-0.3806999999999999,-6.004034756627216
-0.38170000000000004,-6.083258589419658
-0.38269999999999993,-6.1511647318131795
-0.38370000000000004,-6.206338472507916
-0.38469999999999993,-6.2756593262013025
-0.38570000000000004,-6.35912729289334
-0.38669999999999993,-6.4128863222882115
-0.38770000000000004,-6.4850365985813285
-0.38869999999999993,-6.565675142673635
-0.38970000000000005,-6.6364107076668875
-0.39069999999999994,-6.704316850060409
-0.39170000000000005,-6.779296548953256
-0.39269999999999994,-6.858520381745699
-0.39370000000000005,-6.927841235439085
-0.39469999999999994,-7.002820934331931
-0.39570000000000005,-7.087703612323834
-0.39669999999999994,-7.155609754717355
-0.39770000000000005,-7.234833587509797
-0.39869999999999994,-7.31688684290197
-0.39970000000000006,-7.393281253094682
-0.40069999999999995,-7.466846240687664
-0.40170000000000006,-7.557387763879025
-0.40269999999999995,-7.638026307971333
-0.40370000000000006,-7.715835429463911
-0.40469999999999995,-7.800718107455811
-0.40570000000000006,-7.892674341947039
-0.40669999999999995,-7.967654040839887
-0.40770000000000006,-8.051122007531923
-0.40869999999999995,-8.144492953323017
-0.40970000000000006,-8.23786389911411
-0.41069999999999995,-8.311428886707091
-0.41170000000000007,-8.40904396639778
-0.41269999999999996,-8.503829623488736
-0.41370000000000007,-8.580224033681448
-0.41469999999999996,-8.67359497947254
-0.41570000000000007,-8.778283615662552
-0.41669999999999996,-8.85892215975486
-0.41770000000000007,-8.956537239445547
-0.41869999999999996,-9.05839645303583
-0.4197000000000001,-9.158840955326248
-0.42069999999999996,-9.250797189817476
-0.4217000000000001,-9.359729959907083
-0.42269999999999996,-9.46583330739696
-0.4237000000000001,-9.553545407988592
-0.42469999999999997,-9.652575198979145
-0.4257000000000001,-9.767166814268213
-0.42669999999999997,-9.86195247135917
-0.4277000000000001,-9.962396973649588
-0.42869999999999997,-10.07557387763879
-0.4297000000000001,-10.176018379929207
-0.43069999999999997,-10.276462882219626
-0.4317000000000001,-10.400957476607749
-0.4327,-10.515549091896817
-0.4337000000000001,-10.6174083054871
-0.4347,-10.731999920776168
-0.4357000000000001,-10.863568071663616
-0.4367,-10.97108613045336
-0.4377000000000001,-11.081433611842833
-0.4387,-11.20451349493109
-0.4397000000000001,-11.329008089319213
-0.4407,-11.436526148108957
-0.4417000000000001,-11.568094298996405
-0.4427,-11.692588893384528
-0.4437000000000001,-11.810009931273326
-0.4447,-11.935919236961313
-0.4457000000000001,-12.070316810448494
-0.4467,-12.189152559637156
-0.4477000000000001,-12.316476576625009
-0.4487,-12.459362417911377
-0.4497000000000001,-12.592345280098693
-0.4507,-12.71259574058722
-0.4517000000000001,-12.852652159273859
-0.4527,-12.998367423159957
-0.4537000000000001,-13.118617883648485
-0.4547,-13.257259591035258
-0.4557000000000001,-13.407218988820953
-0.4567,-13.533128294508941
-0.4577000000000001,-13.666111156696253
-0.4587,-13.834461801380193
-0.4597000000000001,-13.981591776566157
-0.4607,-14.1174040613532
-0.4617000000000001,-14.274437015638219
-0.4627,-14.444202371622024
-0.4637000000000001,-14.57152638860988
-0.4647,-14.741291744593681
-0.4657000000000001,-14.911057100577487
-0.4667,-15.06667534356264
-0.4677000000000001,-15.222293586547794
-0.4687,-15.3920589425316
-0.4697000000000001,-15.561824298515406
-0.4707,-15.717442541500558
-0.4717000000000001,-15.901355010483012
-0.4727,-16.071120366466815
-0.4737000000000001,-16.22673860945197
-0.4747,-16.410651078434423
-0.4757000000000001,-16.59456354741688
-0.4767,-16.764328903400685
-0.4777000000000001,-16.919947146385837
-0.4787,-17.118006728366943
-0.4797000000000001,-17.301919197349395
-0.4807,-17.471684553333205
-0.48170000000000013,-17.669744135314307
-0.4827,-17.853656604296763
-0.48370000000000013,-18.05171618627787
-0.4847,-18.249775768258974
-0.48570000000000013,-18.461982463238726
-0.4867,-18.660042045219836
-0.4876999999999999,-18.843954514202288
-0.4887,-19.056161209182044
-0.4896999999999999,-19.2683679041618
-0.4907,-19.480574599141555
-0.4916999999999999,-19.721075520118614
-0.4927,-19.93328221509837
-0.4936999999999999,-20.13134179707947
-0.49470000000000003,-20.34354849205923
-0.4956999999999999,-20.584049413036283
-0.49670000000000003,-20.79625610801604
-0.4976999999999999,-21.022609915994444
-0.49870000000000003,-21.2631108369715
-0.4996999999999999,-21.503611757948562
-0.5007,-21.71581845292831
-0.5016999999999999,-21.95631937390537
-0.5027,-22.210967407881075
-0.5036999999999999,-22.437321215859484
-0.5047,-22.67782213683654
