Potential V vs RHE, Current mA cm-2
0.013299999999999867,-0.11742103788879804
0.012299999999999978,-0.1922592656516585
0.011299999999999866,-0.2206949627789457
0.010299999999999976,-0.2399350364571102
0.009299999999999864,-0.2574774565754367
0.008299999999999974,-0.27035132940420853
0.007299999999999862,-0.2820934331930883
0.006299999999999972,-0.29708937297165766
0.00529999999999986,-0.30897294789052404
0.0042999999999999705,-0.32241270523924187
0.0032999999999998586,-0.3344377512880947
0.0022999999999999687,-0.3450480860370824
0.0012999999999998568,-0.35763901660588127
0.00029999999999996696,-0.36966406265473406
-0.000700000000000145,-0.37942557062380283
-0.0017000000000000348,-0.39116767441268263
-0.0027000000000001467,-0.39710946187211577
-0.0037000000000000366,-0.4084271522710361
-0.0047000000000001485,-0.4176227757201588
-0.005700000000000038,-0.4254036878694165
-0.00670000000000015,-0.4312040041988632
-0.00770000000000004,-0.43573108035843133
-0.008700000000000152,-0.44322905024771597
-0.009700000000000042,-0.44775612640728407
-0.010700000000000154,-0.4562443942064743
-0.011700000000000044,-0.4570932209863934
-0.012700000000000156,-0.46105441262601543
-0.013700000000000045,-0.46444971974569155
-0.014700000000000157,-0.4708159205950842
-0.015700000000000047,-0.47180621850498966
-0.01670000000000016,-0.47378681432480074
-0.01770000000000005,-0.47746506370444985
-0.01870000000000016,-0.4787383038743284
-0.01970000000000005,-0.48241655325397753
-0.020700000000000163,-0.48637774489359964
-0.021700000000000053,-0.4859533315036401
-0.022700000000000164,-0.48651921602358617
-0.023700000000000054,-0.4900559942732487
-0.024700000000000166,-0.4917536478330867
-0.025700000000000056,-0.48892422523335666
-0.026700000000000168,-0.49387571478288433
-0.027700000000000058,-0.4958563106026953
-0.02870000000000017,-0.5001004445022904
-0.02970000000000006,-0.5012322135421824
-0.03070000000000017,-0.504486049531872
-0.03170000000000006,-0.502505453712061
-0.03270000000000017,-0.5040616361419126
-0.03370000000000006,-0.5057592897017505
-0.034700000000000175,-0.5085887123014806
-0.035700000000000065,-0.5105693081212918
-0.03670000000000018,-0.5109937215112512
-0.03770000000000007,-0.5105693081212918
-0.03870000000000018,-0.5125499039411028
-0.03970000000000007,-0.5159452110607788
-0.04070000000000018,-0.5170769801006708
-0.04170000000000007,-0.5180672780105765
-0.04270000000000018,-0.5170769801006708
-0.04370000000000007,-0.519057575920482
-0.044700000000000184,-0.5220284696501986
-0.045700000000000074,-0.5233017098200771
-0.046700000000000186,-0.5234431809500636
-0.047700000000000076,-0.5227358253001311
-0.04870000000000019,-0.5242920077299826
-0.04970000000000008,-0.5274043725896858
-0.05070000000000019,-0.5289605550195372
-0.05170000000000008,-0.5282531993696047
-0.05270000000000019,-0.5295264395394833
-0.05370000000000008,-0.5299508529294428
-0.05470000000000019,-0.533346160049119
-0.05570000000000008,-0.5346194002189975
-0.056700000000000195,-0.5329217466591593
-0.057700000000000085,-0.5340535156990515
-0.058700000000000196,-0.5350438136089569
-0.059700000000000086,-0.5382976495986466
-0.0607000000000002,-0.539570889768525
-0.06170000000000009,-0.540419716548444
-0.0627000000000002,-0.539853832028498
-0.06370000000000009,-0.5405611876784305
-0.0647000000000002,-0.5428247257582146
-0.06570000000000009,-0.5452297349679852
-0.0667000000000002,-0.5432491391481741
-0.0677000000000001,-0.5446638504480392
-0.0687000000000002,-0.5453712060979717
-0.0697000000000001,-0.5472103307877962
-0.07070000000000021,-0.5494738688675803
-0.0717000000000001,-0.5479176864377286
-0.07270000000000021,-0.5480591575677152
-0.0737000000000001,-0.5508885801674454
-0.07470000000000021,-0.5513129935574048
-0.0757000000000001,-0.5542838872871214
-0.07670000000000021,-0.5535765316371889
-0.0777000000000001,-0.5528691759872564
-0.07870000000000021,-0.5559815408469594
-0.0797000000000001,-0.556405954236919
-0.08070000000000022,-0.556971838756865
-0.0817000000000001,-0.55838655005673
-0.08270000000000022,-0.5581036077967569
-0.08370000000000011,-0.557254781016838
-0.08470000000000022,-0.5619233283063926
-0.08570000000000011,-0.5619233283063926
-0.08670000000000022,-0.5627721550863116
-0.08770000000000011,-0.5626306839563251
-0.08870000000000022,-0.5647527509061226
-0.08970000000000011,-0.5687139425457448
-0.09070000000000022,-0.5681480580257988
-0.09170000000000011,-0.5675821735058527
-0.09270000000000023,-0.5682895291557853
-0.09370000000000012,-0.5692798270656908
-0.09470000000000023,-0.5728166053153534
-0.09570000000000012,-0.5749386722651508
-0.09670000000000023,-0.5735239609652859
-0.09770000000000012,-0.5753630856551104
-0.09870000000000023,-0.5755045567850969
-0.09970000000000012,-0.578333979384827
-0.10070000000000023,-0.5815878153745165
-0.10170000000000012,-0.5796072195547056
-0.10270000000000024,-0.5820122287644761
-0.10370000000000013,-0.5815878153745165
-0.10470000000000024,-0.5863978337940576
-0.10570000000000013,-0.5882369584838822
-0.10670000000000024,-0.5882369584838822
-0.10770000000000013,-0.5873881317039633
-0.10870000000000024,-0.5907834388236393
-0.10970000000000013,-0.5943202170733018
-0.11070000000000024,-0.596300812893113
-0.11170000000000013,-0.597432581933005
-0.11270000000000002,-0.5961593417631265
-0.11370000000000013,-0.6011108313126541
-0.11470000000000002,-0.6022426003525461
-0.11570000000000014,-0.6053549652122492
-0.11670000000000003,-0.6076185032920333
-0.11770000000000014,-0.6060623208621817
-0.11870000000000003,-0.6120041083216149
-0.11970000000000014,-0.6128529351015338
-0.12070000000000003,-0.6165311844811829
-0.12170000000000014,-0.619926491600859
-0.12270000000000003,-0.6186532514309806
-0.12370000000000014,-0.6226144430706027
-0.12470000000000003,-0.6265756347102247
-0.12570000000000014,-0.6289806439199952
-0.12670000000000003,-0.6332247778195904
-0.12770000000000015,-0.6332247778195904
-0.12870000000000004,-0.635912729289334
-0.12970000000000015,-0.6429862857886591
-0.13070000000000004,-0.6445424682185106
-0.13170000000000015,-0.6475133619482272
-0.13270000000000004,-0.6489280732480923
-0.13370000000000015,-0.6516160247178359
-0.13470000000000004,-0.657840754437242
-0.13570000000000015,-0.6603872347769991
-0.13670000000000004,-0.6649143109365673
-0.13770000000000016,-0.6663290222364323
-0.13870000000000005,-0.6692999159661489
-0.13970000000000016,-0.6753831745555685
-0.14070000000000005,-0.6794858373251772
-0.14170000000000016,-0.6814664331449882
-0.14270000000000005,-0.6850032113946508
-0.14370000000000016,-0.6881155762543539
-0.14470000000000005,-0.6939158925838005
-0.14570000000000016,-0.6981600264833956
-0.14670000000000005,-0.7009894490831257
-0.14770000000000016,-0.7042432850728153
-0.14870000000000005,-0.7087703612323834
-0.14970000000000017,-0.7141462641718705
-0.15070000000000006,-0.7196636382413442
-0.15170000000000017,-0.7232004164910067
-0.15270000000000006,-0.7254639545707907
-0.15370000000000017,-0.7312642709002375
-0.15470000000000006,-0.7360742893197786
-0.15570000000000017,-0.7404598943493601
-0.15670000000000006,-0.7454113838988878
-0.15770000000000017,-0.7469675663287394
-0.15870000000000006,-0.7534752383081186
-0.15970000000000018,-0.7592755546375651
-0.16070000000000007,-0.7628123328872277
-0.16170000000000018,-0.7681882358267149
-0.16270000000000007,-0.769037062606634
-0.16370000000000018,-0.7765350324959186
-0.16470000000000007,-0.7831841756052842
-0.16570000000000018,-0.7860135982050144
-0.16670000000000007,-0.7908236166245554
-0.16770000000000018,-0.7936530392242855
-0.16870000000000007,-0.7974727597339211
-0.16970000000000018,-0.8045463162332464
-0.17070000000000007,-0.808366036742882
-0.17170000000000019,-0.8121857572525175
-0.17270000000000008,-0.8168543045420722
-0.1737000000000002,-0.8195422560118159
-0.17470000000000008,-0.8290208217209115
-0.1757000000000002,-0.8312843598006956
-0.17670000000000008,-0.8360943782202367
-0.1777000000000002,-0.8390652719499533
-0.17870000000000008,-0.8430264635895753
-0.1797000000000002,-0.8506659046088466
-0.18070000000000008,-0.8557588652883606
-0.1817000000000002,-0.8595785857979963
-0.18270000000000008,-0.8621250661377534
-0.1837000000000002,-0.8676424402072269
-0.1847000000000001,-0.8742915833165926
-0.1857000000000002,-0.8796674862560799
-0.1867000000000001,-0.8826383799857964
-0.1877000000000002,-0.8861751582354589
-0.1887000000000001,-0.8929657724748112
-0.1897000000000002,-0.8984831465442846
-0.1907000000000001,-0.9035761072237989
-0.1917000000000001,-0.906971414343475
-0.19269999999999998,-0.9096593658132186
-0.1937000000000001,-0.9144693842327598
-0.19469999999999998,-0.9212599984721118
-0.1957000000000001,-0.9259285457616666
-0.19669999999999999,-0.9315873909611266
-0.1977000000000001,-0.9331435733909781
-0.1987,-0.9383780052004788
-0.1997000000000001,-0.9454515616998039
-0.2007,-0.9501201089893586
-0.2017000000000001,-0.9564863098387513
-0.2027,-0.9583254345285759
-0.2037000000000001,-0.9627110395581575
-0.2047,-0.9714822496173208
-0.2057000000000001,-0.9744531433470374
-0.2067,-0.9811022864564031
-0.2077000000000001,-0.9840731801861196
-0.2087,-0.9893076119956202
-0.2097000000000001,-0.9980788220547833
-0.2107,-1.0017570714344324
-0.2117000000000001,-1.0081232722838251
-0.2127,-1.0123674061834202
-0.2137000000000001,-1.0160456555630692
-0.2147,-1.0267974614420434
-0.2157000000000001,-1.0350027869812608
-0.2167,-1.038115151840964
-0.21770000000000012,-1.0436325259104375
-0.2187,-1.0468863619001272
-0.21970000000000012,-1.0563649276092228
-0.2207,-1.063721426368521
-0.22170000000000012,-1.068814387048035
-0.2227,-1.0747561745074685
-0.22370000000000012,-1.081122375356861
-0.2247,-1.0900350565460108
-0.22570000000000012,-1.097108613045336
-0.2267,-1.1034748138947286
-0.22770000000000012,-1.1091336590941887
-0.22870000000000001,-1.1177633980233654
-0.22970000000000013,-1.1283737327723533
-0.23070000000000002,-1.1371449428315166
-0.23170000000000013,-1.144642912720801
-0.23270000000000002,-1.1491699888803693
-0.23370000000000013,-1.1596388524993706
-0.23470000000000002,-1.169824773858399
-0.23570000000000013,-1.178313041657589
-0.23670000000000002,-1.1883574918866306
-0.2376999999999999,-1.195148106125983
-0.23870000000000002,-1.206041383134944
-0.2396999999999999,-1.216510246753945
-0.24070000000000003,-1.2286767639327845
-0.24169999999999991,-1.2377309162519208
-0.24270000000000003,-1.2460777129211242
-0.24369999999999992,-1.2565465765401254
-0.24470000000000003,-1.2701278050188298
-0.24569999999999992,-1.2803137263778581
-0.24670000000000003,-1.293753483726576
-0.24769999999999992,-1.3033735205656583
-0.24870000000000003,-1.3107300193249565
-0.24969999999999992,-1.3318092176929455
-0.25070000000000003,-1.3418536679219872
-0.2516999999999999,-1.3554348964006917
-0.25270000000000004,-1.366752586799612
-0.2536999999999999,-1.3786361617184781
-0.25470000000000004,-1.3954712261868722
-0.2556999999999999,-1.4104671659654415
-0.25670000000000004,-1.4246142789640919
-0.25769999999999993,-1.4373466806628774
-0.25870000000000004,-1.4529085049613928
-0.25969999999999993,-1.4698850405597732
-0.26070000000000004,-1.4868615761581534
-0.26169999999999993,-1.502423400456669
-0.26270000000000004,-1.5179852247551844
-0.26369999999999993,-1.5349617603535646
-0.26470000000000005,-1.5533530072518102
-0.26569999999999994,-1.5731589654499207
-0.26670000000000005,-1.5915502123481662
-0.26769999999999994,-1.6071120366466816
-0.26870000000000005,-1.626917994844792
-0.26969999999999994,-1.6467239530429028
-0.27070000000000005,-1.6693593338407433
-0.27169999999999994,-1.6877505807389888
-0.27270000000000005,-1.7075565389370995
-0.27369999999999994,-1.7287772084350748
-0.27470000000000006,-1.7514125892329155
-0.27569999999999995,-1.772633258730891
-0.27670000000000006,-1.7952686395287314
-0.27769999999999995,-1.8164893090267071
-0.27870000000000006,-1.8405394011244125
-0.27969999999999995,-1.8660042045219833
-0.28070000000000006,-1.891469007919554
-0.28169999999999995,-1.9169338113171246
-0.28270000000000006,-1.9367397695152353
-0.28369999999999995,-1.9650339955125358
-0.28470000000000006,-1.993328221509837
-0.28569999999999995,-2.020207736207272
-0.28670000000000007,-2.047087250904708
-0.28769999999999996,-2.073966765602144
-0.28870000000000007,-2.102260991599445
-0.28969999999999996,-2.13196992889661
-0.29070000000000007,-2.1645082887935065
-0.29169999999999996,-2.192802514790807
-0.29270000000000007,-2.2225114520879723
-0.29369999999999996,-2.2522203893851382
-0.2947000000000001,-2.286173460581899
-0.29569999999999996,-2.3201265317786604
-0.2967000000000001,-2.352664891675556
-0.29769999999999996,-2.383788540272587
-0.2987000000000001,-2.4191563227692128
-0.29969999999999997,-2.4531093939659736
-0.3007000000000001,-2.4913065990623298
-0.30169999999999997,-2.5266743815589554
-0.3027000000000001,-2.5648715866553116
-0.30369999999999997,-2.6016540804518025
-0.3047000000000001,-2.639851285548158
-0.30569999999999997,-2.6794632019443796
-0.3067000000000001,-2.719075118340601
-0.3077,-2.7572723234369563
-0.3087000000000001,-2.798298951133043
-0.3097,-2.8379108675292635
-0.3107000000000001,-2.8831816291249446
-0.3117,-2.9213788342213007
-0.3127000000000001,-2.9595760393176564
-0.3137,-3.0076762235130676
-0.3147000000000001,-3.0515322738088844
-0.3157,-3.0996324580042955
-0.3167000000000001,-3.1449032195999767
-0.3177,-3.1873445585959277
-0.3187000000000001,-3.2340300314914736
-0.3197,-3.28354492698675
-0.3207000000000001,-3.3330598224820265
-0.3217,-3.381160006677438
-0.3227000000000001,-3.426430768273119
-0.3237,-3.475945663768395
-0.3247000000000001,-3.5282899818634013
-0.3257,-3.579219588658543
-0.3267000000000001,-3.6329786180534143
-0.3277,-3.67966409094896
-0.3287000000000001,-3.733423120343832
-0.3297,-3.7900115723384333
-0.3307000000000001,-3.84235589043344
-0.3317,-3.8989443424280408
-0.3327000000000001,-3.9541180831227782
-0.3337,-4.01070653511738
-0.3347000000000001,-4.067294987111981
-0.3357,-4.125298150406447
-0.3367000000000001,-4.1833013137009125
-0.3377,-4.242719188295245
-0.3387000000000001,-4.296478217690116
-0.3397,-4.354481380984582
-0.3407000000000001,-4.41814338947851
-0.3417,-4.4775612640728415
-0.3427000000000001,-4.541223272566767
-0.3437,-4.593567590661774
-0.3447000000000001,-4.6572295991557
-0.3457,-4.722306318949492
-0.3467000000000001,-4.787383038743283
-0.3477,-4.85387446983694
-0.3487000000000001,-4.9175364783308675
-0.3497,-4.9826131981246595
-0.3507000000000001,-5.051934051818047
-0.3517,-5.1212549055114325
-0.3527000000000001,-5.18774633660509
-0.3537,-5.254237767698746
-0.3547000000000001,-5.323558621392133
-0.3557,-5.39570889768525
-0.35670000000000013,-5.470688596578097
-0.3577,-5.545668295470944
-0.35870000000000013,-5.654601065560552
-0.3597,-5.7437278774520495
-0.36070000000000013,-5.815878153745166
-0.3617,-5.890857852638012
-0.3626999999999999,-5.955934572431804
-0.3637,-6.023840714825327
-0.3646999999999999,-6.093161568518712
-0.3657,-6.16531184481183
-0.3666999999999999,-6.240291543704677
-0.3677,-6.320930087796984
-0.3686999999999999,-6.40156863188929
-0.36970000000000003,-6.4864513098811925
-0.3706999999999999,-6.5670898539735
-0.37170000000000003,-6.653387243265268
-0.3726999999999999,-6.742514055156764
-0.37370000000000003,-6.825982021848802
-0.3746999999999999,-6.919352967639894
-0.37570000000000003,-7.007065068231526
-0.3766999999999999,-7.096191880123024
-0.37770000000000004,-7.185318692014522
-0.3786999999999999,-7.277274926505749
-0.37970000000000004,-7.372060583596706
-0.3806999999999999,-7.469675663287394
-0.38170000000000004,-7.565876031678216
-0.38269999999999993,-7.656417554869579
-0.38370000000000004,-7.752617923260401
-0.38469999999999993,-7.857306559450413
-0.38570000000000004,-7.967654040839887
-0.38669999999999993,-8.062439697930845
-0.38770000000000004,-8.161469488921396
-0.38869999999999993,-8.25766985731222
-0.38970000000000005,-8.359529070902502
-0.39069999999999994,-8.46846184099211
-0.39170000000000005,-8.570321054582392
-0.39269999999999994,-8.675009690772406
-0.39370000000000005,-8.781113038262282
-0.39469999999999994,-8.89570465355135
-0.39570000000000005,-9.011710980140284
-0.39669999999999994,-9.113570193730567
-0.39770000000000005,-9.2295765203195
-0.39869999999999994,-9.332850445209647
-0.39970000000000006,-9.44319792659912
-0.40069999999999995,-9.559204253188051
-0.40170000000000006,-9.685113558876042
-0.40269999999999995,-9.80536401936457
-0.40370000000000006,-9.921370345953502
-0.40469999999999995,-10.044450229041761
-0.40570000000000006,-10.170359534729748
-0.40669999999999995,-10.303342396917062
-0.40770000000000006,-10.420763434805862
-0.40869999999999995,-10.541013895294387
-0.40970000000000006,-10.66833791228224
-0.41069999999999995,-10.7914177953705
-0.41170000000000007,-10.924400657557813
-0.41269999999999996,-11.057383519745128
-0.41370000000000007,-11.19036638193244
-0.41469999999999996,-11.337496357118404
-0.41570000000000007,-11.470479219305716
-0.41669999999999996,-11.60912092669249
-0.41770000000000007,-11.740689077579939
-0.41869999999999996,-11.879330784966712
-0.4197000000000001,-12.026460760152677
-0.42069999999999996,-12.17359073533864
-0.4217000000000001,-12.305158886226089
-0.42269999999999996,-12.453703572711918
-0.4237000000000001,-12.599418836598016
-0.42469999999999997,-12.752207656983442
-0.4257000000000001,-12.903581766069
-0.42669999999999997,-13.053541163854694
-0.4277000000000001,-13.209159406839847
-0.42869999999999997,-13.363362938525135
-0.4297000000000001,-13.51332233631083
-0.43069999999999997,-13.668940579295983
-0.4317000000000001,-13.837291223979923
-0.4327,-14.011300713863324
-0.4337000000000001,-14.175407224647667
-0.4347,-14.331025467632822
-0.4357000000000001,-14.500790823616628
-0.4367,-14.67055617960043
-0.4377000000000001,-14.840321535584234
-0.4387,-15.01008689156804
-0.4397000000000001,-15.179852247551842
-0.4407,-15.37791182953295
-0.4417000000000001,-15.575971411514052
-0.4427,-15.70329542850191
-0.4437000000000001,-15.88720789748436
-0.4447,-16.056973253468165
-0.4457000000000001,-16.24088572245062
-0.4467,-16.438945304431726
-0.4477000000000001,-16.622857773414182
-0.4487,-16.820917355395284
-0.4497000000000001,-17.018976937376394
-0.4507,-17.217036519357496
-0.4517000000000001,-17.40094898833995
-0.4527,-17.599008570321057
-0.4537000000000001,-17.76877392630486
-0.4547,-17.980980621284615
-0.4557000000000001,-18.19318731626437
-0.4567,-18.391246898245473
-0.4577000000000001,-18.603453593225233
-0.4587,-18.80151317520634
-0.4597000000000001,-19.01371987018609
-0.4607,-19.2400736781645
-0.4617000000000001,-19.452280373144255
-0.4627,-19.678634181122664
-0.4637000000000001,-19.876693763103766
-0.4647,-20.10304757108217
-0.4657000000000001,-20.329401379060574
-0.4667,-20.569902300037633
-0.4677000000000001,-20.78210899501739
-0.4687,-21.036757028993097
-0.4697000000000001,-21.2631108369715
-0.4707,-21.489464644949905
-0.4717000000000001,-21.71581845292831
-0.4727,-21.97046648690402
-0.4737000000000001,-22.210967407881075
-0.4747,-22.451468328858134
-0.4757000000000001,-22.706116362833843
-0.4767,-22.960764396809545
-0.4777000000000001,-23.229559543783903
-0.4787,-23.47006046476096
-0.4797000000000001,-23.738855611735314
-0.4807,-23.97935653271237
-0.48170000000000013,-24.23400456668808
-0.4827,-24.488652600663784
-0.48370000000000013,-24.757447747638142
-0.4847,-25.04039000761115
-0.48570000000000013,-25.309185154585506
-0.4867,-25.04039000761115
-0.48570000000000013,-24.432064148669184
-0.4847,-23.93691519371642
-0.48370000000000013,-23.45591335176231
-0.4827,-22.974911509808198
-0.48170000000000013,-22.522203893851387
-0.4807,-22.083643390893226
-0.4797000000000001,-21.659230000933714
-0.4787,-21.2631108369715
-0.4777000000000001,-20.86699167300929
-0.4767,-20.47087250904708
-0.4757000000000001,-20.088900458083522
-0.4747,-19.721075520118614
-0.4737000000000001,-19.353250582153702
-0.4727,-18.999572757187444
-0.4717000000000001,-18.645894932221182
-0.4707,-18.334658446250877
-0.4697000000000001,-17.966833508285966
-0.4687,-17.655597022315657
