July 15, 2024   23:46:40
Cyclic Voltammetry
File: c:/users/guazh/data/20240709_batch67/2024-07-10-exp56\exp56-2024-07-15t23_37_54-arkoh\exp56_cv_50mvs_efin_-1600mv.bin
Data Source:  Experiment
Instrument Model:  CHI760E
Header: CV ran at 50 mVs
Note: 

Init E (V) = -1
High E (V) = -1
Low E (V) = -1.6
Final E (V) = -1
Init P/N = N
Scan Rate (V/s) = 0.05
Segment = 7
Sample Interval (V) = 0.001
Quiet Time (sec) = 60
Sensitivity (A/V) = 0.001
Comp R (ohm) = 1.6

Results:

Channel 1:
Segment 1:

Segment 2:
Ep = -1.040V
ip = -1.528e-6A
Ah = -3.462e-6C

Segment 3:

Segment 4:
Ep = -1.061V
ip = -1.383e-6A
Ah = -2.654e-6C

Segment 5:

Segment 6:
Ep = -1.075V
ip = -1.397e-6A
Ah = -2.303e-6C

Segment 7:

Potential/V, Current/A

-1.000, 2.070e-7
-1.001, 3.402e-7
-1.002, 3.915e-7
-1.003, 4.359e-7
-1.004, 4.438e-7
-1.005, 5.188e-7
-1.006, 5.631e-7
-1.007, 5.553e-7
-1.008, 6.056e-7
-1.009, 6.006e-7
-1.010, 6.421e-7
-1.011, 6.973e-7
-1.012, 6.717e-7
-1.013, 7.052e-7
-1.014, 7.072e-7
-1.015, 7.526e-7
-1.016, 7.822e-7
-1.017, 7.299e-7
-1.018, 7.871e-7
-1.019, 8.059e-7
-1.020, 8.325e-7
-1.021, 8.532e-7
-1.022, 8.285e-7
-1.023, 8.364e-7
-1.024, 8.838e-7
-1.025, 8.986e-7
-1.026, 9.272e-7
-1.027, 9.114e-7
-1.028, 9.193e-7
-1.029, 9.371e-7
-1.030, 9.667e-7
-1.031, 9.933e-7
-1.032, 9.479e-7
-1.033, 9.706e-7
-1.034, 1.001e-6
-1.035, 1.013e-6
-1.036, 1.043e-6
-1.037, 1.047e-6
-1.038, 1.020e-6
-1.039, 1.029e-6
-1.040, 1.065e-6
-1.041, 1.060e-6
-1.042, 1.086e-6
-1.043, 1.051e-6
-1.044, 1.091e-6
-1.045, 1.111e-6
-1.046, 1.136e-6
-1.047, 1.143e-6
-1.048, 1.113e-6
-1.049, 1.123e-6
-1.050, 1.164e-6
-1.051, 1.183e-6
-1.052, 1.193e-6
-1.053, 1.170e-6
-1.054, 1.169e-6
-1.055, 1.218e-6
-1.056, 1.231e-6
-1.057, 1.230e-6
-1.058, 1.207e-6
-1.059, 1.203e-6
-1.060, 1.241e-6
-1.061, 1.275e-6
-1.062, 1.243e-6
-1.063, 1.259e-6
-1.064, 1.245e-6
-1.065, 1.288e-6
-1.066, 1.307e-6
-1.067, 1.313e-6
-1.068, 1.294e-6
-1.069, 1.287e-6
-1.070, 1.351e-6
-1.071, 1.339e-6
-1.072, 1.326e-6
-1.073, 1.346e-6
-1.074, 1.335e-6
-1.075, 1.363e-6
-1.076, 1.380e-6
-1.077, 1.385e-6
-1.078, 1.389e-6
-1.079, 1.365e-6
-1.080, 1.392e-6
-1.081, 1.421e-6
-1.082, 1.440e-6
-1.083, 1.438e-6
-1.084, 1.415e-6
-1.085, 1.437e-6
-1.086, 1.459e-6
-1.087, 1.445e-6
-1.088, 1.446e-6
-1.089, 1.442e-6
-1.090, 1.494e-6
-1.091, 1.500e-6
-1.092, 1.504e-6
-1.093, 1.467e-6
-1.094, 1.465e-6
-1.095, 1.507e-6
-1.096, 1.519e-6
-1.097, 1.515e-6
-1.098, 1.508e-6
-1.099, 1.513e-6
-1.100, 1.544e-6
-1.101, 1.569e-6
-1.102, 1.546e-6
-1.103, 1.559e-6
-1.104, 1.571e-6
-1.105, 1.589e-6
-1.106, 1.624e-6
-1.107, 1.591e-6
-1.108, 1.570e-6
-1.109, 1.579e-6
-1.110, 1.580e-6
-1.111, 1.634e-6
-1.112, 1.609e-6
-1.113, 1.605e-6
-1.114, 1.621e-6
-1.115, 1.626e-6
-1.116, 1.692e-6
-1.117, 1.660e-6
-1.118, 1.635e-6
-1.119, 1.670e-6
-1.120, 1.673e-6
-1.121, 1.718e-6
-1.122, 1.695e-6
-1.123, 1.707e-6
-1.124, 1.710e-6
-1.125, 1.702e-6
-1.126, 1.759e-6
-1.127, 1.754e-6
-1.128, 1.720e-6
-1.129, 1.748e-6
-1.130, 1.718e-6
-1.131, 1.773e-6
-1.132, 1.756e-6
-1.133, 1.747e-6
-1.134, 1.728e-6
-1.135, 1.768e-6
-1.136, 1.809e-6
-1.137, 1.815e-6
-1.138, 1.768e-6
-1.139, 1.801e-6
-1.140, 1.824e-6
-1.141, 1.826e-6
-1.142, 1.836e-6
-1.143, 1.818e-6
-1.144, 1.816e-6
-1.145, 1.858e-6
-1.146, 1.860e-6
-1.147, 1.870e-6
-1.148, 1.831e-6
-1.149, 1.831e-6
-1.150, 1.872e-6
-1.151, 1.898e-6
-1.152, 1.894e-6
-1.153, 1.889e-6
-1.154, 1.885e-6
-1.155, 1.924e-6
-1.156, 1.919e-6
-1.157, 1.927e-6
-1.158, 1.905e-6
-1.159, 1.911e-6
-1.160, 1.955e-6
-1.161, 1.943e-6
-1.162, 1.963e-6
-1.163, 1.966e-6
-1.164, 1.944e-6
-1.165, 1.989e-6
-1.166, 1.985e-6
-1.167, 2.022e-6
-1.168, 1.972e-6
-1.169, 1.972e-6
-1.170, 2.026e-6
-1.171, 2.027e-6
-1.172, 2.025e-6
-1.173, 2.021e-6
-1.174, 1.984e-6
-1.175, 2.028e-6
-1.176, 2.038e-6
-1.177, 2.060e-6
-1.178, 2.037e-6
-1.179, 2.034e-6
-1.180, 2.067e-6
-1.181, 2.092e-6
-1.182, 2.085e-6
-1.183, 2.055e-6
-1.184, 2.077e-6
-1.185, 2.093e-6
-1.186, 2.100e-6
-1.187, 2.089e-6
-1.188, 2.092e-6
-1.189, 2.103e-6
-1.190, 2.125e-6
-1.191, 2.130e-6
-1.192, 2.150e-6
-1.193, 2.151e-6
-1.194, 2.118e-6
-1.195, 2.169e-6
-1.196, 2.175e-6
-1.197, 2.185e-6
-1.198, 2.190e-6
-1.199, 2.140e-6
-1.200, 2.196e-6
-1.201, 2.193e-6
-1.202, 2.205e-6
-1.203, 2.180e-6
-1.204, 2.196e-6
-1.205, 2.216e-6
-1.206, 2.233e-6
-1.207, 2.230e-6
-1.208, 2.226e-6
-1.209, 2.212e-6
-1.210, 2.240e-6
-1.211, 2.251e-6
-1.212, 2.259e-6
-1.213, 2.281e-6
-1.214, 2.224e-6
-1.215, 2.273e-6
-1.216, 2.291e-6
-1.217, 2.284e-6
-1.218, 2.283e-6
-1.219, 2.250e-6
-1.220, 2.312e-6
-1.221, 2.316e-6
-1.222, 2.294e-6
-1.223, 2.338e-6
-1.224, 2.282e-6
-1.225, 2.316e-6
-1.226, 2.374e-6
-1.227, 2.326e-6
-1.228, 2.321e-6
-1.229, 2.340e-6
-1.230, 2.366e-6
-1.231, 2.407e-6
-1.232, 2.391e-6
-1.233, 2.347e-6
-1.234, 2.380e-6
-1.235, 2.388e-6
-1.236, 2.433e-6
-1.237, 2.418e-6
-1.238, 2.410e-6
-1.239, 2.407e-6
-1.240, 2.429e-6
-1.241, 2.472e-6
-1.242, 2.441e-6
-1.243, 2.440e-6
-1.244, 2.450e-6
-1.245, 2.447e-6
-1.246, 2.504e-6
-1.247, 2.473e-6
-1.248, 2.473e-6
-1.249, 2.489e-6
-1.250, 2.488e-6
-1.251, 2.545e-6
-1.252, 2.551e-6
-1.253, 2.504e-6
-1.254, 2.514e-6
-1.255, 2.528e-6
-1.256, 2.575e-6
-1.257, 2.588e-6
-1.258, 2.547e-6
-1.259, 2.577e-6
-1.260, 2.585e-6
-1.261, 2.596e-6
-1.262, 2.635e-6
-1.263, 2.611e-6
-1.264, 2.610e-6
-1.265, 2.636e-6
-1.266, 2.672e-6
-1.267, 2.656e-6
-1.268, 2.681e-6
-1.269, 2.666e-6
-1.270, 2.674e-6
-1.271, 2.705e-6
-1.272, 2.734e-6
-1.273, 2.698e-6
-1.274, 2.700e-6
-1.275, 2.729e-6
-1.276, 2.729e-6
-1.277, 2.778e-6
-1.278, 2.743e-6
-1.279, 2.763e-6
-1.280, 2.776e-6
-1.281, 2.800e-6
-1.282, 2.840e-6
-1.283, 2.802e-6
-1.284, 2.814e-6
-1.285, 2.819e-6
-1.286, 2.854e-6
-1.287, 2.875e-6
-1.288, 2.863e-6
-1.289, 2.888e-6
-1.290, 2.896e-6
-1.291, 2.912e-6
-1.292, 2.946e-6
-1.293, 2.921e-6
-1.294, 2.928e-6
-1.295, 2.954e-6
-1.296, 2.991e-6
-1.297, 2.987e-6
-1.298, 2.984e-6
-1.299, 2.986e-6
-1.300, 3.008e-6
-1.301, 3.041e-6
-1.302, 3.062e-6
-1.303, 3.042e-6
-1.304, 3.056e-6
-1.305, 3.098e-6
-1.306, 3.092e-6
-1.307, 3.122e-6
-1.308, 3.148e-6
-1.309, 3.113e-6
-1.310, 3.162e-6
-1.311, 3.176e-6
-1.312, 3.201e-6
-1.313, 3.196e-6
-1.314, 3.202e-6
-1.315, 3.215e-6
-1.316, 3.249e-6
-1.317, 3.268e-6
-1.318, 3.277e-6
-1.319, 3.270e-6
-1.320, 3.301e-6
-1.321, 3.335e-6
-1.322, 3.327e-6
-1.323, 3.366e-6
-1.324, 3.320e-6
-1.325, 3.358e-6
-1.326, 3.429e-6
-1.327, 3.417e-6
-1.328, 3.408e-6
-1.329, 3.405e-6
-1.330, 3.435e-6
-1.331, 3.496e-6
-1.332, 3.478e-6
-1.333, 3.490e-6
-1.334, 3.501e-6
-1.335, 3.529e-6
-1.336, 3.572e-6
-1.337, 3.559e-6
-1.338, 3.575e-6
-1.339, 3.581e-6
-1.340, 3.618e-6
-1.341, 3.643e-6
-1.342, 3.647e-6
-1.343, 3.622e-6
-1.344, 3.655e-6
-1.345, 3.685e-6
-1.346, 3.700e-6
-1.347, 3.710e-6
-1.348, 3.721e-6
-1.349, 3.728e-6
-1.350, 3.756e-6
-1.351, 3.810e-6
-1.352, 3.801e-6
-1.353, 3.793e-6
-1.354, 3.795e-6
-1.355, 3.838e-6
-1.356, 3.850e-6
-1.357, 3.898e-6
-1.358, 3.868e-6
-1.359, 3.905e-6
-1.360, 3.936e-6
-1.361, 3.953e-6
-1.362, 3.996e-6
-1.363, 3.965e-6
-1.364, 3.970e-6
-1.365, 3.996e-6
-1.366, 4.061e-6
-1.367, 4.056e-6
-1.368, 4.000e-6
-1.369, 4.061e-6
-1.370, 4.092e-6
-1.371, 4.122e-6
-1.372, 4.165e-6
-1.373, 4.162e-6
-1.374, 4.165e-6
-1.375, 4.177e-6
-1.376, 4.242e-6
-1.377, 4.247e-6
-1.378, 4.241e-6
-1.379, 4.215e-6
-1.380, 4.286e-6
-1.381, 4.326e-6
-1.382, 4.333e-6
-1.383, 4.348e-6
-1.384, 4.331e-6
-1.385, 4.382e-6
-1.386, 4.449e-6
-1.387, 4.437e-6
-1.388, 4.461e-6
-1.389, 4.434e-6
-1.390, 4.488e-6
-1.391, 4.543e-6
-1.392, 4.561e-6
-1.393, 4.539e-6
-1.394, 4.565e-6
-1.395, 4.584e-6
-1.396, 4.655e-6
-1.397, 4.664e-6
-1.398, 4.654e-6
-1.399, 4.681e-6
-1.400, 4.701e-6
-1.401, 4.755e-6
-1.402, 4.791e-6
-1.403, 4.769e-6
-1.404, 4.792e-6
-1.405, 4.828e-6
-1.406, 4.878e-6
-1.407, 4.890e-6
-1.408, 4.899e-6
-1.409, 4.908e-6
-1.410, 4.957e-6
-1.411, 5.008e-6
-1.412, 5.038e-6
-1.413, 5.016e-6
-1.414, 5.047e-6
-1.415, 5.061e-6
-1.416, 5.124e-6
-1.417, 5.173e-6
-1.418, 5.142e-6
-1.419, 5.186e-6
-1.420, 5.188e-6
-1.421, 5.267e-6
-1.422, 5.286e-6
-1.423, 5.280e-6
-1.424, 5.319e-6
-1.425, 5.333e-6
-1.426, 5.412e-6
-1.427, 5.435e-6
-1.428, 5.437e-6
-1.429, 5.477e-6
-1.430, 5.504e-6
-1.431, 5.559e-6
-1.432, 5.569e-6
-1.433, 5.577e-6
-1.434, 5.628e-6
-1.435, 5.614e-6
-1.436, 5.686e-6
-1.437, 5.703e-6
-1.438, 5.723e-6
-1.439, 5.699e-6
-1.440, 5.777e-6
-1.441, 5.805e-6
-1.442, 5.825e-6
-1.443, 5.868e-6
-1.444, 5.873e-6
-1.445, 5.903e-6
-1.446, 5.976e-6
-1.447, 5.966e-6
-1.448, 6.028e-6
-1.449, 6.025e-6
-1.450, 6.080e-6
-1.451, 6.132e-6
-1.452, 6.115e-6
-1.453, 6.142e-6
-1.454, 6.135e-6
-1.455, 6.205e-6
-1.456, 6.227e-6
-1.457, 6.280e-6
-1.458, 6.300e-6
-1.459, 6.268e-6
-1.460, 6.363e-6
-1.461, 6.425e-6
-1.462, 6.439e-6
-1.463, 6.495e-6
-1.464, 6.461e-6
-1.465, 6.550e-6
-1.466, 6.597e-6
-1.467, 6.593e-6
-1.468, 6.662e-6
-1.469, 6.641e-6
-1.470, 6.701e-6
-1.471, 6.772e-6
-1.472, 6.785e-6
-1.473, 6.828e-6
-1.474, 6.823e-6
-1.475, 6.869e-6
-1.476, 6.934e-6
-1.477, 6.977e-6
-1.478, 6.970e-6
-1.479, 6.996e-6
-1.480, 7.026e-6
-1.481, 7.107e-6
-1.482, 7.135e-6
-1.483, 7.161e-6
-1.484, 7.200e-6
-1.485, 7.246e-6
-1.486, 7.304e-6
-1.487, 7.358e-6
-1.488, 7.388e-6
-1.489, 7.398e-6
-1.490, 7.462e-6
-1.491, 7.567e-6
-1.492, 7.601e-6
-1.493, 7.586e-6
-1.494, 7.662e-6
-1.495, 7.709e-6
-1.496, 7.780e-6
-1.497, 7.821e-6
-1.498, 7.831e-6
-1.499, 7.863e-6
-1.500, 7.939e-6
-1.501, 7.989e-6
-1.502, 8.070e-6
-1.503, 8.085e-6
-1.504, 8.099e-6
-1.505, 8.187e-6
-1.506, 8.214e-6
-1.507, 8.279e-6
-1.508, 8.320e-6
-1.509, 8.333e-6
-1.510, 8.396e-6
-1.511, 8.510e-6
-1.512, 8.527e-6
-1.513, 8.572e-6
-1.514, 8.617e-6
-1.515, 8.674e-6
-1.516, 8.768e-6
-1.517, 8.779e-6
-1.518, 8.820e-6
-1.519, 8.862e-6
-1.520, 8.932e-6
-1.521, 9.007e-6
-1.522, 9.069e-6
-1.523, 9.120e-6
-1.524, 9.145e-6
-1.525, 9.217e-6
-1.526, 9.315e-6
-1.527, 9.412e-6
-1.528, 9.443e-6
-1.529, 9.501e-6
-1.530, 9.547e-6
-1.531, 9.635e-6
-1.532, 9.714e-6
-1.533, 9.737e-6
-1.534, 9.776e-6
-1.535, 9.851e-6
-1.536, 9.912e-6
-1.537, 9.985e-6
-1.538, 1.001e-5
-1.539, 1.009e-5
-1.540, 1.015e-5
-1.541, 1.029e-5
-1.542, 1.031e-5
-1.543, 1.036e-5
-1.544, 1.042e-5
-1.545, 1.051e-5
-1.546, 1.062e-5
-1.547, 1.066e-5
-1.548, 1.068e-5
-1.549, 1.078e-5
-1.550, 1.087e-5
-1.551, 1.097e-5
-1.552, 1.106e-5
-1.553, 1.113e-5
-1.554, 1.115e-5
-1.555, 1.127e-5
-1.556, 1.137e-5
-1.557, 1.145e-5
-1.558, 1.151e-5
-1.559, 1.153e-5
-1.560, 1.168e-5
-1.561, 1.176e-5
-1.562, 1.185e-5
-1.563, 1.191e-5
-1.564, 1.197e-5
-1.565, 1.212e-5
-1.566, 1.229e-5
-1.567, 1.238e-5
-1.568, 1.248e-5
-1.569, 1.253e-5
-1.570, 1.264e-5
-1.571, 1.281e-5
-1.572, 1.291e-5
-1.573, 1.298e-5
-1.574, 1.305e-5
-1.575, 1.316e-5
-1.576, 1.332e-5
-1.577, 1.345e-5
-1.578, 1.349e-5
-1.579, 1.363e-5
-1.580, 1.370e-5
-1.581, 1.393e-5
-1.582, 1.401e-5
-1.583, 1.409e-5
-1.584, 1.420e-5
-1.585, 1.435e-5
-1.586, 1.449e-5
-1.587, 1.465e-5
-1.588, 1.470e-5
-1.589, 1.479e-5
-1.590, 1.493e-5
-1.591, 1.512e-5
-1.592, 1.527e-5
-1.593, 1.535e-5
-1.594, 1.548e-5
-1.595, 1.563e-5
-1.596, 1.579e-5
-1.597, 1.596e-5
-1.598, 1.607e-5
-1.599, 1.621e-5
-1.600, 1.553e-5
-1.599, 1.487e-5
-1.598, 1.453e-5
-1.597, 1.417e-5
-1.596, 1.389e-5
-1.595, 1.365e-5
-1.594, 1.346e-5
-1.593, 1.327e-5
-1.592, 1.303e-5
-1.591, 1.281e-5
-1.590, 1.268e-5
-1.589, 1.261e-5
-1.588, 1.214e-5
-1.587, 1.179e-5
-1.586, 1.120e-5
-1.585, 1.079e-5
-1.584, 1.061e-5
-1.583, 1.049e-5
-1.582, 1.034e-5
-1.581, 1.016e-5
-1.580, 1.004e-5
-1.579, 9.963e-6
-1.578, 9.859e-6
-1.577, 9.696e-6
-1.576, 9.570e-6
-1.575, 9.416e-6
-1.574, 9.362e-6
-1.573, 9.266e-6
-1.572, 9.105e-6
-1.571, 8.959e-6
-1.570, 8.884e-6
-1.569, 8.810e-6
-1.568, 8.724e-6
-1.567, 8.576e-6
-1.566, 8.445e-6
-1.565, 8.395e-6
-1.564, 8.285e-6
-1.563, 8.225e-6
-1.562, 8.086e-6
-1.561, 7.948e-6
-1.560, 7.876e-6
-1.559, 7.792e-6
-1.558, 7.747e-6
-1.557, 7.610e-6
-1.556, 7.508e-6
-1.555, 7.439e-6
-1.554, 7.375e-6
-1.553, 7.318e-6
-1.552, 7.217e-6
-1.551, 7.098e-6
-1.550, 7.028e-6
-1.549, 7.000e-6
-1.548, 6.921e-6
-1.547, 6.821e-6
-1.546, 6.702e-6
-1.545, 6.638e-6
-1.544, 6.601e-6
-1.543, 6.506e-6
-1.542, 6.436e-6
-1.541, 6.337e-6
-1.540, 6.261e-6
-1.539, 6.260e-6
-1.538, 6.191e-6
-1.537, 6.084e-6
-1.536, 5.984e-6
-1.535, 5.927e-6
-1.534, 5.916e-6
-1.533, 5.829e-6
-1.532, 5.755e-6
-1.531, 5.672e-6
-1.530, 5.589e-6
-1.529, 5.554e-6
-1.528, 5.526e-6
-1.527, 5.429e-6
-1.526, 5.321e-6
-1.525, 5.287e-6
-1.524, 5.242e-6
-1.523, 5.202e-6
-1.522, 5.112e-6
-1.521, 5.057e-6
-1.520, 4.964e-6
-1.519, 4.944e-6
-1.518, 4.938e-6
-1.517, 4.865e-6
-1.516, 4.762e-6
-1.515, 4.687e-6
-1.514, 4.707e-6
-1.513, 4.621e-6
-1.512, 4.586e-6
-1.511, 4.527e-6
-1.510, 4.438e-6
-1.509, 4.438e-6
-1.508, 4.390e-6
-1.507, 4.320e-6
-1.506, 4.254e-6
-1.505, 4.198e-6
-1.504, 4.170e-6
-1.503, 4.142e-6
-1.502, 4.037e-6
-1.501, 4.049e-6
-1.500, 3.960e-6
-1.499, 3.965e-6
-1.498, 3.943e-6
-1.497, 3.823e-6
-1.496, 3.803e-6
-1.495, 3.749e-6
-1.494, 3.739e-6
-1.493, 3.702e-6
-1.492, 3.617e-6
-1.491, 3.589e-6
-1.490, 3.527e-6
-1.489, 3.533e-6
-1.488, 3.510e-6
-1.487, 3.424e-6
-1.486, 3.394e-6
-1.485, 3.344e-6
-1.484, 3.334e-6
-1.483, 3.327e-6
-1.482, 3.253e-6
-1.481, 3.253e-6
-1.480, 3.186e-6
-1.479, 3.179e-6
-1.478, 3.159e-6
-1.477, 3.096e-6
-1.476, 3.049e-6
-1.475, 3.012e-6
-1.474, 3.031e-6
-1.473, 3.007e-6
-1.472, 2.926e-6
-1.471, 2.865e-6
-1.470, 2.854e-6
-1.469, 2.828e-6
-1.468, 2.809e-6
-1.467, 2.763e-6
-1.466, 2.697e-6
-1.465, 2.707e-6
-1.464, 2.676e-6
-1.463, 2.666e-6
-1.462, 2.614e-6
-1.461, 2.590e-6
-1.460, 2.564e-6
-1.459, 2.513e-6
-1.458, 2.523e-6
-1.457, 2.479e-6
-1.456, 2.435e-6
-1.455, 2.380e-6
-1.454, 2.379e-6
-1.453, 2.391e-6
-1.452, 2.335e-6
-1.451, 2.271e-6
-1.450, 2.268e-6
-1.449, 2.242e-6
-1.448, 2.273e-6
-1.447, 2.217e-6
-1.446, 2.133e-6
-1.445, 2.154e-6
-1.444, 2.137e-6
-1.443, 2.113e-6
-1.442, 2.094e-6
-1.441, 2.009e-6
-1.440, 2.030e-6
-1.439, 2.004e-6
-1.438, 2.001e-6
-1.437, 1.974e-6
-1.436, 1.932e-6
-1.435, 1.902e-6
-1.434, 1.889e-6
-1.433, 1.890e-6
-1.432, 1.848e-6
-1.431, 1.815e-6
-1.430, 1.752e-6
-1.429, 1.776e-6
-1.428, 1.780e-6
-1.427, 1.722e-6
-1.426, 1.688e-6
-1.425, 1.671e-6
-1.424, 1.667e-6
-1.423, 1.659e-6
-1.422, 1.638e-6
-1.421, 1.591e-6
-1.420, 1.534e-6
-1.419, 1.544e-6
-1.418, 1.559e-6
-1.417, 1.539e-6
-1.416, 1.463e-6
-1.415, 1.466e-6
-1.414, 1.432e-6
-1.413, 1.442e-6
-1.412, 1.415e-6
-1.411, 1.366e-6
-1.410, 1.359e-6
-1.409, 1.324e-6
-1.408, 1.349e-6
-1.407, 1.306e-6
-1.406, 1.256e-6
-1.405, 1.244e-6
-1.404, 1.238e-6
-1.403, 1.245e-6
-1.402, 1.195e-6
-1.401, 1.139e-6
-1.400, 1.165e-6
-1.399, 1.144e-6
-1.398, 1.122e-6
-1.397, 1.147e-6
-1.396, 1.048e-6
-1.395, 1.058e-6
-1.394, 1.037e-6
-1.393, 1.074e-6
-1.392, 1.035e-6
-1.391, 9.844e-7
-1.390, 9.578e-7
-1.389, 9.469e-7
-1.388, 9.706e-7
-1.387, 9.085e-7
-1.386, 8.759e-7
-1.385, 8.621e-7
-1.384, 8.789e-7
-1.383, 8.720e-7
-1.382, 8.374e-7
-1.381, 7.881e-7
-1.380, 7.733e-7
-1.379, 7.644e-7
-1.378, 7.624e-7
-1.377, 7.605e-7
-1.376, 7.013e-7
-1.375, 7.180e-7
-1.374, 6.687e-7
-1.373, 7.072e-7
-1.372, 6.697e-7
-1.371, 5.957e-7
-1.370, 5.967e-7
-1.369, 6.016e-7
-1.368, 6.095e-7
-1.367, 5.710e-7
-1.366, 5.266e-7
-1.365, 5.207e-7
-1.364, 5.118e-7
-1.363, 5.079e-7
-1.362, 4.803e-7
-1.361, 4.112e-7
-1.360, 4.191e-7
-1.359, 4.309e-7
-1.358, 4.073e-7
-1.357, 3.944e-7
-1.356, 3.639e-7
-1.355, 3.145e-7
-1.354, 3.491e-7
-1.353, 3.234e-7
-1.352, 3.185e-7
-1.351, 2.721e-7
-1.350, 2.573e-7
-1.349, 2.553e-7
-1.348, 2.336e-7
-1.347, 2.021e-7
-1.346, 1.863e-7
-1.345, 1.478e-7
-1.344, 1.725e-7
-1.343, 1.547e-7
-1.342, 1.044e-7
-1.341, 7.577e-8
-1.340, 8.070e-8
-1.339, 9.353e-8
-1.338, 6.097e-8
-1.337, 3.631e-8
-1.336, 7.893e-10
-1.335, -1.973e-10
-1.334, 1.362e-8
-1.333, -2.289e-8
-1.332, -6.531e-8
-1.331, -7.419e-8
-1.330, -9.392e-8
-1.329, -7.518e-8
-1.328, -9.886e-8
-1.327, -1.462e-7
-1.326, -1.640e-7
-1.325, -1.699e-7
-1.324, -1.896e-7
-1.323, -1.699e-7
-1.322, -2.074e-7
-1.321, -2.439e-7
-1.320, -2.557e-7
-1.319, -2.429e-7
-1.318, -2.478e-7
-1.317, -2.784e-7
-1.316, -3.337e-7
-1.315, -3.208e-7
-1.314, -3.406e-7
-1.313, -3.070e-7
-1.312, -3.652e-7
-1.311, -3.721e-7
-1.310, -4.244e-7
-1.309, -4.165e-7
-1.308, -3.860e-7
-1.307, -4.284e-7
-1.306, -4.442e-7
-1.305, -4.866e-7
-1.304, -4.807e-7
-1.303, -4.678e-7
-1.302, -4.994e-7
-1.301, -5.014e-7
-1.300, -5.428e-7
-1.299, -5.596e-7
-1.298, -5.261e-7
-1.297, -5.517e-7
-1.296, -6.040e-7
-1.295, -5.803e-7
-1.294, -6.316e-7
-1.293, -5.862e-7
-1.292, -6.129e-7
-1.291, -6.602e-7
-1.290, -6.750e-7
-1.289, -6.731e-7
-1.288, -6.474e-7
-1.287, -6.859e-7
-1.286, -7.135e-7
-1.285, -7.382e-7
-1.284, -7.244e-7
-1.283, -7.105e-7
-1.282, -7.579e-7
-1.281, -7.806e-7
-1.280, -8.013e-7
-1.279, -8.072e-7
-1.278, -7.776e-7
-1.277, -7.914e-7
-1.276, -8.388e-7
-1.275, -8.497e-7
-1.274, -8.437e-7
-1.273, -8.280e-7
-1.272, -8.516e-7
-1.271, -9.019e-7
-1.270, -9.098e-7
-1.269, -9.098e-7
-1.268, -9.197e-7
-1.267, -9.167e-7
-1.266, -9.542e-7
-1.265, -9.769e-7
-1.264, -9.671e-7
-1.263, -9.700e-7
-1.262, -9.759e-7
-1.261, -1.010e-6
-1.260, -1.047e-6
-1.259, -1.011e-6
-1.258, -1.046e-6
-1.257, -1.053e-6
-1.256, -1.072e-6
-1.255, -1.114e-6
-1.254, -1.094e-6
-1.253, -1.082e-6
-1.252, -1.093e-6
-1.251, -1.125e-6
-1.250, -1.167e-6
-1.249, -1.138e-6
-1.248, -1.153e-6
-1.247, -1.190e-6
-1.246, -1.186e-6
-1.245, -1.231e-6
-1.244, -1.209e-6
-1.243, -1.223e-6
-1.242, -1.202e-6
-1.241, -1.266e-6
-1.240, -1.283e-6
-1.239, -1.291e-6
-1.238, -1.300e-6
-1.237, -1.287e-6
-1.236, -1.322e-6
-1.235, -1.368e-6
-1.234, -1.345e-6
-1.233, -1.339e-6
-1.232, -1.365e-6
-1.231, -1.369e-6
-1.230, -1.417e-6
-1.229, -1.420e-6
-1.228, -1.404e-6
-1.227, -1.446e-6
-1.226, -1.452e-6
-1.225, -1.513e-6
-1.224, -1.492e-6
-1.223, -1.462e-6
-1.222, -1.495e-6
-1.221, -1.547e-6
-1.220, -1.546e-6
-1.219, -1.545e-6
-1.218, -1.553e-6
-1.217, -1.546e-6
-1.216, -1.613e-6
-1.215, -1.629e-6
-1.214, -1.655e-6
-1.213, -1.632e-6
-1.212, -1.647e-6
-1.211, -1.714e-6
-1.210, -1.690e-6
-1.209, -1.744e-6
-1.208, -1.688e-6
-1.207, -1.740e-6
-1.206, -1.776e-6
-1.205, -1.800e-6
-1.204, -1.818e-6
-1.203, -1.804e-6
-1.202, -1.793e-6
-1.201, -1.868e-6
-1.200, -1.886e-6
-1.199, -1.920e-6
-1.198, -1.880e-6
-1.197, -1.910e-6
-1.196, -1.958e-6
-1.195, -1.993e-6
-1.194, -2.022e-6
-1.193, -1.980e-6
-1.192, -1.992e-6
-1.191, -2.059e-6
-1.190, -2.069e-6
-1.189, -2.093e-6
-1.188, -2.112e-6
-1.187, -2.083e-6
-1.186, -2.154e-6
-1.185, -2.187e-6
-1.184, -2.195e-6
-1.183, -2.201e-6
-1.182, -2.203e-6
-1.181, -2.252e-6
-1.180, -2.280e-6
-1.179, -2.301e-6
-1.178, -2.290e-6
-1.177, -2.321e-6
-1.176, -2.354e-6
-1.175, -2.390e-6
-1.174, -2.438e-6
-1.173, -2.420e-6
-1.172, -2.437e-6
-1.171, -2.496e-6
-1.170, -2.524e-6
-1.169, -2.542e-6
-1.168, -2.542e-6
-1.167, -2.548e-6
-1.166, -2.592e-6
-1.165, -2.616e-6
-1.164, -2.669e-6
-1.163, -2.657e-6
-1.162, -2.677e-6
-1.161, -2.724e-6
-1.160, -2.740e-6
-1.159, -2.784e-6
-1.158, -2.775e-6
-1.157, -2.796e-6
-1.156, -2.844e-6
-1.155, -2.889e-6
-1.154, -2.920e-6
-1.153, -2.914e-6
-1.152, -2.961e-6
-1.151, -2.996e-6
-1.150, -3.029e-6
-1.149, -3.055e-6
-1.148, -3.046e-6
-1.147, -3.091e-6
-1.146, -3.130e-6
-1.145, -3.179e-6
-1.144, -3.181e-6
-1.143, -3.209e-6
-1.142, -3.223e-6
-1.141, -3.241e-6
-1.140, -3.318e-6
-1.139, -3.339e-6
-1.138, -3.364e-6
-1.137, -3.374e-6
-1.136, -3.396e-6
-1.135, -3.458e-6
-1.134, -3.476e-6
-1.133, -3.505e-6
-1.132, -3.510e-6
-1.131, -3.528e-6
-1.130, -3.606e-6
-1.129, -3.616e-6
-1.128, -3.644e-6
-1.127, -3.656e-6
-1.126, -3.702e-6
-1.125, -3.758e-6
-1.124, -3.764e-6
-1.123, -3.777e-6
-1.122, -3.821e-6
-1.121, -3.838e-6
-1.120, -3.897e-6
-1.119, -3.922e-6
-1.118, -3.917e-6
-1.117, -3.946e-6
-1.116, -3.992e-6
-1.115, -4.016e-6
-1.114, -4.031e-6
-1.113, -4.058e-6
-1.112, -4.094e-6
-1.111, -4.126e-6
-1.110, -4.170e-6
-1.109, -4.199e-6
-1.108, -4.167e-6
-1.107, -4.228e-6
-1.106, -4.256e-6
-1.105, -4.280e-6
-1.104, -4.319e-6
-1.103, -4.302e-6
-1.102, -4.320e-6
-1.101, -4.375e-6
-1.100, -4.400e-6
-1.099, -4.431e-6
-1.098, -4.428e-6
-1.097, -4.453e-6
-1.096, -4.492e-6
-1.095, -4.501e-6
-1.094, -4.522e-6
-1.093, -4.533e-6
-1.092, -4.537e-6
-1.091, -4.584e-6
-1.090, -4.584e-6
-1.089, -4.634e-6
-1.088, -4.614e-6
-1.087, -4.623e-6
-1.086, -4.663e-6
-1.085, -4.693e-6
-1.084, -4.721e-6
-1.083, -4.702e-6
-1.082, -4.712e-6
-1.081, -4.768e-6
-1.080, -4.754e-6
-1.079, -4.782e-6
-1.078, -4.764e-6
-1.077, -4.781e-6
-1.076, -4.814e-6
-1.075, -4.832e-6
-1.074, -4.861e-6
-1.073, -4.852e-6
-1.072, -4.851e-6
-1.071, -4.893e-6
-1.070, -4.896e-6
-1.069, -4.904e-6
-1.068, -4.928e-6
-1.067, -4.908e-6
-1.066, -4.950e-6
-1.065, -4.978e-6
-1.064, -4.952e-6
-1.063, -4.980e-6
-1.062, -4.946e-6
-1.061, -4.974e-6
-1.060, -5.023e-6
-1.059, -4.988e-6
-1.058, -5.024e-6
-1.057, -5.012e-6
-1.056, -5.023e-6
-1.055, -5.060e-6
-1.054, -5.076e-6
-1.053, -5.045e-6
-1.052, -5.076e-6
-1.051, -5.091e-6
-1.050, -5.121e-6
-1.049, -5.117e-6
-1.048, -5.104e-6
-1.047, -5.090e-6
-1.046, -5.117e-6
-1.045, -5.125e-6
-1.044, -5.124e-6
-1.043, -5.122e-6
-1.042, -5.109e-6
-1.041, -5.117e-6
-1.040, -5.165e-6
-1.039, -5.159e-6
-1.038, -5.113e-6
-1.037, -5.135e-6
-1.036, -5.117e-6
-1.035, -5.140e-6
-1.034, -5.133e-6
-1.033, -5.116e-6
-1.032, -5.149e-6
-1.031, -5.122e-6
-1.030, -5.121e-6
-1.029, -5.148e-6
-1.028, -5.096e-6
-1.027, -5.116e-6
-1.026, -5.107e-6
-1.025, -5.104e-6
-1.024, -5.127e-6
-1.023, -5.091e-6
-1.022, -5.068e-6
-1.021, -5.076e-6
-1.020, -5.074e-6
-1.019, -5.066e-6
-1.018, -5.047e-6
-1.017, -5.009e-6
-1.016, -5.007e-6
-1.015, -5.020e-6
-1.014, -4.985e-6
-1.013, -4.944e-6
-1.012, -4.935e-6
-1.011, -4.946e-6
-1.010, -4.936e-6
-1.009, -4.922e-6
-1.008, -4.894e-6
-1.007, -4.868e-6
-1.006, -4.872e-6
-1.005, -4.847e-6
-1.004, -4.820e-6
-1.003, -4.800e-6
-1.002, -4.752e-6
-1.001, -4.758e-6
-1.000, -4.340e-6
-1.001, -3.866e-6
-1.002, -3.551e-6
-1.003, -3.235e-6
-1.004, -3.002e-6
-1.005, -2.802e-6
-1.006, -2.584e-6
-1.007, -2.425e-6
-1.008, -2.228e-6
-1.009, -2.077e-6
-1.010, -1.982e-6
-1.011, -1.818e-6
-1.012, -1.686e-6
-1.013, -1.580e-6
-1.014, -1.462e-6
-1.015, -1.394e-6
-1.016, -1.298e-6
-1.017, -1.190e-6
-1.018, -1.120e-6
-1.019, -1.042e-6
-1.020, -9.799e-7
-1.021, -9.246e-7
-1.022, -8.516e-7
-1.023, -7.668e-7
-1.024, -7.303e-7
-1.025, -6.415e-7
-1.026, -6.109e-7
-1.027, -5.369e-7
-1.028, -4.728e-7
-1.029, -4.718e-7
-1.030, -4.205e-7
-1.031, -3.534e-7
-1.032, -3.317e-7
-1.033, -2.656e-7
-1.034, -2.597e-7
-1.035, -2.123e-7
-1.036, -1.798e-7
-1.037, -1.294e-7
-1.038, -7.025e-8
-1.039, -9.886e-8
-1.040, -2.684e-8
-1.041, -1.993e-8
-1.042, 1.263e-8
-1.043, 6.393e-8
-1.044, 5.111e-8
-1.045, 7.972e-8
-1.046, 1.083e-7
-1.047, 1.468e-7
-1.048, 1.794e-7
-1.049, 1.823e-7
-1.050, 1.932e-7
-1.051, 2.326e-7
-1.052, 2.563e-7
-1.053, 3.066e-7
-1.054, 3.027e-7
-1.055, 2.751e-7
-1.056, 3.195e-7
-1.057, 3.412e-7
-1.058, 3.984e-7
-1.059, 3.915e-7
-1.060, 3.806e-7
-1.061, 4.191e-7
-1.062, 4.497e-7
-1.063, 4.655e-7
-1.064, 5.118e-7
-1.065, 4.813e-7
-1.066, 5.059e-7
-1.067, 5.148e-7
-1.068, 5.109e-7
-1.069, 5.651e-7
-1.070, 5.503e-7
-1.071, 5.770e-7
-1.072, 5.947e-7
-1.073, 6.342e-7
-1.074, 6.174e-7
-1.075, 6.263e-7
-1.076, 6.381e-7
-1.077, 6.658e-7
-1.078, 6.934e-7
-1.079, 6.954e-7
-1.080, 6.736e-7
-1.081, 7.141e-7
-1.082, 7.388e-7
-1.083, 7.457e-7
-1.084, 7.516e-7
-1.085, 7.171e-7
-1.086, 7.536e-7
-1.087, 8.068e-7
-1.088, 7.940e-7
-1.089, 8.157e-7
-1.090, 7.901e-7
-1.091, 8.059e-7
-1.092, 8.345e-7
-1.093, 8.572e-7
-1.094, 8.591e-7
-1.095, 8.641e-7
-1.096, 8.483e-7
-1.097, 8.907e-7
-1.098, 8.976e-7
-1.099, 9.045e-7
-1.100, 8.996e-7
-1.101, 9.203e-7
-1.102, 9.183e-7
-1.103, 9.607e-7
-1.104, 9.341e-7
-1.105, 9.479e-7
-1.106, 9.509e-7
-1.107, 1.005e-6
-1.108, 1.007e-6
-1.109, 9.775e-7
-1.110, 9.795e-7
-1.111, 9.913e-7
-1.112, 1.012e-6
-1.113, 1.036e-6
-1.114, 1.052e-6
-1.115, 1.042e-6
-1.116, 1.030e-6
-1.117, 1.074e-6
-1.118, 1.054e-6
-1.119, 1.082e-6
-1.120, 1.076e-6
-1.121, 1.055e-6
-1.122, 1.101e-6
-1.123, 1.097e-6
-1.124, 1.090e-6
-1.125, 1.110e-6
-1.126, 1.118e-6
-1.127, 1.146e-6
-1.128, 1.145e-6
-1.129, 1.140e-6
-1.130, 1.131e-6
-1.131, 1.153e-6
-1.132, 1.196e-6
-1.133, 1.177e-6
-1.134, 1.175e-6
-1.135, 1.172e-6
-1.136, 1.184e-6
-1.137, 1.204e-6
-1.138, 1.188e-6
-1.139, 1.229e-6
-1.140, 1.182e-6
-1.141, 1.198e-6
-1.142, 1.244e-6
-1.143, 1.247e-6
-1.144, 1.278e-6
-1.145, 1.251e-6
-1.146, 1.269e-6
-1.147, 1.280e-6
-1.148, 1.274e-6
-1.149, 1.298e-6
-1.150, 1.262e-6
-1.151, 1.273e-6
-1.152, 1.310e-6
-1.153, 1.319e-6
-1.154, 1.303e-6
-1.155, 1.335e-6
-1.156, 1.313e-6
-1.157, 1.338e-6
-1.158, 1.352e-6
-1.159, 1.343e-6
-1.160, 1.348e-6
-1.161, 1.352e-6
-1.162, 1.380e-6
-1.163, 1.385e-6
-1.164, 1.390e-6
-1.165, 1.366e-6
-1.166, 1.378e-6
-1.167, 1.391e-6
-1.168, 1.376e-6
-1.169, 1.418e-6
-1.170, 1.410e-6
-1.171, 1.393e-6
-1.172, 1.415e-6
-1.173, 1.444e-6
-1.174, 1.425e-6
-1.175, 1.407e-6
-1.176, 1.439e-6
-1.177, 1.443e-6
-1.178, 1.475e-6
-1.179, 1.459e-6
-1.180, 1.447e-6
-1.181, 1.463e-6
-1.182, 1.491e-6
-1.183, 1.502e-6
-1.184, 1.514e-6
-1.185, 1.492e-6
-1.186, 1.507e-6
-1.187, 1.527e-6
-1.188, 1.513e-6
-1.189, 1.502e-6
-1.190, 1.496e-6
-1.191, 1.510e-6
-1.192, 1.549e-6
-1.193, 1.548e-6
-1.194, 1.573e-6
-1.195, 1.541e-6
-1.196, 1.531e-6
-1.197, 1.557e-6
-1.198, 1.560e-6
-1.199, 1.580e-6
-1.200, 1.568e-6
-1.201, 1.561e-6
-1.202, 1.596e-6
-1.203, 1.626e-6
-1.204, 1.581e-6
-1.205, 1.623e-6
-1.206, 1.591e-6
-1.207, 1.629e-6
-1.208, 1.635e-6
-1.209, 1.630e-6
-1.210, 1.612e-6
-1.211, 1.623e-6
-1.212, 1.644e-6
-1.213, 1.664e-6
-1.214, 1.652e-6
-1.215, 1.636e-6
-1.216, 1.654e-6
-1.217, 1.670e-6
-1.218, 1.652e-6
-1.219, 1.693e-6
-1.220, 1.681e-6
-1.221, 1.680e-6
-1.222, 1.699e-6
-1.223, 1.700e-6
-1.224, 1.691e-6
-1.225, 1.714e-6
-1.226, 1.715e-6
-1.227, 1.715e-6
-1.228, 1.762e-6
-1.229, 1.765e-6
-1.230, 1.778e-6
-1.231, 1.729e-6
-1.232, 1.767e-6
-1.233, 1.809e-6
-1.234, 1.755e-6
-1.235, 1.796e-6
-1.236, 1.783e-6
-1.237, 1.785e-6
-1.238, 1.832e-6
-1.239, 1.826e-6
-1.240, 1.800e-6
-1.241, 1.818e-6
-1.242, 1.848e-6
-1.243, 1.851e-6
-1.244, 1.837e-6
-1.245, 1.855e-6
-1.246, 1.829e-6
-1.247, 1.857e-6
-1.248, 1.893e-6
-1.249, 1.864e-6
-1.250, 1.888e-6
-1.251, 1.843e-6
-1.252, 1.901e-6
-1.253, 1.920e-6
-1.254, 1.920e-6
-1.255, 1.916e-6
-1.256, 1.894e-6
-1.257, 1.931e-6
-1.258, 1.935e-6
-1.259, 1.936e-6
-1.260, 1.930e-6
-1.261, 1.883e-6
-1.262, 1.956e-6
-1.263, 1.981e-6
-1.264, 1.969e-6
-1.265, 1.967e-6
-1.266, 1.942e-6
-1.267, 1.987e-6
-1.268, 2.003e-6
-1.269, 2.017e-6
-1.270, 2.013e-6
-1.271, 1.983e-6
-1.272, 1.992e-6
-1.273, 2.061e-6
-1.274, 2.042e-6
-1.275, 2.041e-6
-1.276, 2.037e-6
-1.277, 2.036e-6
-1.278, 2.086e-6
-1.279, 2.084e-6
-1.280, 2.083e-6
-1.281, 2.065e-6
-1.282, 2.096e-6
-1.283, 2.126e-6
-1.284, 2.124e-6
-1.285, 2.097e-6
-1.286, 2.128e-6
-1.287, 2.120e-6
-1.288, 2.185e-6
-1.289, 2.179e-6
-1.290, 2.145e-6
-1.291, 2.161e-6
-1.292, 2.177e-6
-1.293, 2.220e-6
-1.294, 2.210e-6
-1.295, 2.218e-6
-1.296, 2.208e-6
-1.297, 2.207e-6
-1.298, 2.244e-6
-1.299, 2.250e-6
-1.300, 2.255e-6
-1.301, 2.246e-6
-1.302, 2.244e-6
-1.303, 2.321e-6
-1.304, 2.290e-6
-1.305, 2.282e-6
-1.306, 2.298e-6
-1.307, 2.286e-6
-1.308, 2.352e-6
-1.309, 2.354e-6
-1.310, 2.362e-6
-1.311, 2.334e-6
-1.312, 2.342e-6
-1.313, 2.405e-6
-1.314, 2.401e-6
-1.315, 2.405e-6
-1.316, 2.406e-6
-1.317, 2.407e-6
-1.318, 2.446e-6
-1.319, 2.478e-6
-1.320, 2.460e-6
-1.321, 2.456e-6
-1.322, 2.451e-6
-1.323, 2.493e-6
-1.324, 2.502e-6
-1.325, 2.532e-6
-1.326, 2.507e-6
-1.327, 2.521e-6
-1.328, 2.562e-6
-1.329, 2.561e-6
-1.330, 2.571e-6
-1.331, 2.556e-6
-1.332, 2.586e-6
-1.333, 2.620e-6
-1.334, 2.624e-6
-1.335, 2.606e-6
-1.336, 2.633e-6
-1.337, 2.605e-6
-1.338, 2.683e-6
-1.339, 2.686e-6
-1.340, 2.670e-6
-1.341, 2.693e-6
-1.342, 2.700e-6
-1.343, 2.737e-6
-1.344, 2.760e-6
-1.345, 2.738e-6
-1.346, 2.760e-6
-1.347, 2.741e-6
-1.348, 2.810e-6
-1.349, 2.814e-6
-1.350, 2.815e-6
-1.351, 2.838e-6
-1.352, 2.819e-6
-1.353, 2.854e-6
-1.354, 2.894e-6
-1.355, 2.881e-6
-1.356, 2.904e-6
-1.357, 2.900e-6
-1.358, 2.929e-6
-1.359, 2.946e-6
-1.360, 2.935e-6
-1.361, 2.971e-6
-1.362, 2.967e-6
-1.363, 3.002e-6
-1.364, 3.014e-6
-1.365, 3.019e-6
-1.366, 3.030e-6
-1.367, 3.033e-6
-1.368, 3.065e-6
-1.369, 3.073e-6
-1.370, 3.127e-6
-1.371, 3.096e-6
-1.372, 3.111e-6
-1.373, 3.153e-6
-1.374, 3.154e-6
-1.375, 3.183e-6
-1.376, 3.173e-6
-1.377, 3.168e-6
-1.378, 3.241e-6
-1.379, 3.253e-6
-1.380, 3.268e-6
-1.381, 3.251e-6
-1.382, 3.279e-6
-1.383, 3.320e-6
-1.384, 3.334e-6
-1.385, 3.336e-6
-1.386, 3.324e-6
-1.387, 3.335e-6
-1.388, 3.392e-6
-1.389, 3.401e-6
-1.390, 3.416e-6
-1.391, 3.382e-6
-1.392, 3.411e-6
-1.393, 3.475e-6
-1.394, 3.481e-6
-1.395, 3.523e-6
-1.396, 3.484e-6
-1.397, 3.487e-6
-1.398, 3.564e-6
-1.399, 3.560e-6
-1.400, 3.567e-6
-1.401, 3.555e-6
-1.402, 3.566e-6
-1.403, 3.619e-6
-1.404, 3.624e-6
-1.405, 3.661e-6
-1.406, 3.645e-6
-1.407, 3.645e-6
-1.408, 3.690e-6
-1.409, 3.732e-6
-1.410, 3.743e-6
-1.411, 3.710e-6
-1.412, 3.771e-6
-1.413, 3.781e-6
-1.414, 3.789e-6
-1.415, 3.804e-6
-1.416, 3.811e-6
-1.417, 3.823e-6
-1.418, 3.874e-6
-1.419, 3.876e-6
-1.420, 3.888e-6
-1.421, 3.887e-6
-1.422, 3.908e-6
-1.423, 3.963e-6
-1.424, 3.939e-6
-1.425, 3.980e-6
-1.426, 3.977e-6
-1.427, 3.974e-6
-1.428, 4.030e-6
-1.429, 4.039e-6
-1.430, 4.049e-6
-1.431, 4.053e-6
-1.432, 4.053e-6
-1.433, 4.128e-6
-1.434, 4.126e-6
-1.435, 4.152e-6
-1.436, 4.143e-6
-1.437, 4.143e-6
-1.438, 4.211e-6
-1.439, 4.213e-6
-1.440, 4.248e-6
-1.441, 4.234e-6
-1.442, 4.239e-6
-1.443, 4.291e-6
-1.444, 4.321e-6
-1.445, 4.344e-6
-1.446, 4.331e-6
-1.447, 4.364e-6
-1.448, 4.415e-6
-1.449, 4.416e-6
-1.450, 4.447e-6
-1.451, 4.401e-6
-1.452, 4.421e-6
-1.453, 4.473e-6
-1.454, 4.513e-6
-1.455, 4.535e-6
-1.456, 4.521e-6
-1.457, 4.516e-6
-1.458, 4.575e-6
-1.459, 4.611e-6
-1.460, 4.633e-6
-1.461, 4.606e-6
-1.462, 4.611e-6
-1.463, 4.659e-6
-1.464, 4.711e-6
-1.465, 4.749e-6
-1.466, 4.695e-6
-1.467, 4.741e-6
-1.468, 4.779e-6
-1.469, 4.828e-6
-1.470, 4.866e-6
-1.471, 4.820e-6
-1.472, 4.880e-6
-1.473, 4.936e-6
-1.474, 4.942e-6
-1.475, 4.967e-6
-1.476, 4.913e-6
-1.477, 4.958e-6
-1.478, 4.998e-6
-1.479, 5.046e-6
-1.480, 5.074e-6
-1.481, 5.065e-6
-1.482, 5.086e-6
-1.483, 5.111e-6
-1.484, 5.178e-6
-1.485, 5.200e-6
-1.486, 5.189e-6
-1.487, 5.204e-6
-1.488, 5.266e-6
-1.489, 5.321e-6
-1.490, 5.344e-6
-1.491, 5.295e-6
-1.492, 5.348e-6
-1.493, 5.404e-6
-1.494, 5.464e-6
-1.495, 5.484e-6
-1.496, 5.432e-6
-1.497, 5.498e-6
-1.498, 5.566e-6
-1.499, 5.608e-6
-1.500, 5.624e-6
-1.501, 5.592e-6
-1.502, 5.647e-6
-1.503, 5.727e-6
-1.504, 5.742e-6
-1.505, 5.766e-6
-1.506, 5.756e-6
-1.507, 5.777e-6
-1.508, 5.870e-6
-1.509, 5.908e-6
-1.510, 5.916e-6
-1.511, 5.911e-6
-1.512, 5.962e-6
-1.513, 6.043e-6
-1.514, 6.087e-6
-1.515, 6.141e-6
-1.516, 6.093e-6
-1.517, 6.147e-6
-1.518, 6.204e-6
-1.519, 6.264e-6
-1.520, 6.331e-6
-1.521, 6.300e-6
-1.522, 6.321e-6
-1.523, 6.412e-6
-1.524, 6.456e-6
-1.525, 6.533e-6
-1.526, 6.517e-6
-1.527, 6.530e-6
-1.528, 6.633e-6
-1.529, 6.698e-6
-1.530, 6.714e-6
-1.531, 6.751e-6
-1.532, 6.760e-6
-1.533, 6.870e-6
-1.534, 6.900e-6
-1.535, 6.940e-6
-1.536, 6.995e-6
-1.537, 7.030e-6
-1.538, 7.110e-6
-1.539, 7.175e-6
-1.540, 7.218e-6
-1.541, 7.228e-6
-1.542, 7.263e-6
-1.543, 7.352e-6
-1.544, 7.415e-6
-1.545, 7.471e-6
-1.546, 7.504e-6
-1.547, 7.537e-6
-1.548, 7.645e-6
-1.549, 7.711e-6
-1.550, 7.748e-6
-1.551, 7.820e-6
-1.552, 7.837e-6
-1.553, 7.951e-6
-1.554, 8.046e-6
-1.555, 8.079e-6
-1.556, 8.133e-6
-1.557, 8.177e-6
-1.558, 8.287e-6
-1.559, 8.343e-6
-1.560, 8.418e-6
-1.561, 8.472e-6
-1.562, 8.526e-6
-1.563, 8.658e-6
-1.564, 8.731e-6
-1.565, 8.821e-6
-1.566, 8.854e-6
-1.567, 8.912e-6
-1.568, 9.051e-6
-1.569, 9.114e-6
-1.570, 9.196e-6
-1.571, 9.258e-6
-1.572, 9.307e-6
-1.573, 9.453e-6
-1.574, 9.546e-6
-1.575, 9.639e-6
-1.576, 9.702e-6
-1.577, 9.774e-6
-1.578, 9.918e-6
-1.579, 1.002e-5
-1.580, 1.013e-5
-1.581, 1.018e-5
-1.582, 1.024e-5
-1.583, 1.039e-5
-1.584, 1.053e-5
-1.585, 1.063e-5
-1.586, 1.066e-5
-1.587, 1.075e-5
-1.588, 1.092e-5
-1.589, 1.105e-5
-1.590, 1.117e-5
-1.591, 1.125e-5
-1.592, 1.133e-5
-1.593, 1.150e-5
-1.594, 1.163e-5
-1.595, 1.175e-5
-1.596, 1.183e-5
-1.597, 1.191e-5
-1.598, 1.209e-5
-1.599, 1.226e-5
-1.600, 1.155e-5
-1.599, 1.088e-5
-1.598, 1.055e-5
-1.597, 1.033e-5
-1.596, 1.016e-5
-1.595, 9.968e-6
-1.594, 9.694e-6
-1.593, 9.551e-6
-1.592, 9.442e-6
-1.591, 9.334e-6
-1.590, 9.166e-6
-1.589, 8.996e-6
-1.588, 8.857e-6
-1.587, 8.749e-6
-1.586, 8.672e-6
-1.585, 8.539e-6
-1.584, 8.406e-6
-1.583, 8.255e-6
-1.582, 8.161e-6
-1.581, 8.101e-6
-1.580, 7.986e-6
-1.579, 7.819e-6
-1.578, 7.692e-6
-1.577, 7.616e-6
-1.576, 7.555e-6
-1.575, 7.453e-6
-1.574, 7.312e-6
-1.573, 7.198e-6
-1.572, 7.135e-6
-1.571, 7.067e-6
-1.570, 6.983e-6
-1.569, 6.861e-6
-1.568, 6.772e-6
-1.567, 6.706e-6
-1.566, 6.643e-6
-1.565, 6.551e-6
-1.564, 6.461e-6
-1.563, 6.348e-6
-1.562, 6.281e-6
-1.561, 6.250e-6
-1.560, 6.161e-6
-1.559, 6.054e-6
-1.558, 5.948e-6
-1.557, 5.899e-6
-1.556, 5.859e-6
-1.555, 5.788e-6
-1.554, 5.694e-6
-1.553, 5.618e-6
-1.552, 5.564e-6
-1.551, 5.489e-6
-1.550, 5.444e-6
-1.549, 5.352e-6
-1.548, 5.250e-6
-1.547, 5.182e-6
-1.546, 5.180e-6
-1.545, 5.123e-6
-1.544, 5.023e-6
-1.543, 4.945e-6
-1.542, 4.869e-6
-1.541, 4.910e-6
-1.540, 4.823e-6
-1.539, 4.721e-6
-1.538, 4.659e-6
-1.537, 4.619e-6
-1.536, 4.570e-6
-1.535, 4.516e-6
-1.534, 4.429e-6
-1.533, 4.393e-6
-1.532, 4.364e-6
-1.531, 4.349e-6
-1.530, 4.264e-6
-1.529, 4.182e-6
-1.528, 4.098e-6
-1.527, 4.064e-6
-1.526, 4.066e-6
-1.525, 4.015e-6
-1.524, 3.937e-6
-1.523, 3.852e-6
-1.522, 3.842e-6
-1.521, 3.842e-6
-1.520, 3.758e-6
-1.519, 3.688e-6
-1.518, 3.640e-6
-1.517, 3.606e-6
-1.516, 3.592e-6
-1.515, 3.538e-6
-1.514, 3.476e-6
-1.513, 3.444e-6
-1.512, 3.389e-6
-1.511, 3.395e-6
-1.510, 3.329e-6
-1.509, 3.299e-6
-1.508, 3.219e-6
-1.507, 3.204e-6
-1.506, 3.231e-6
-1.505, 3.159e-6
-1.504, 3.081e-6
-1.503, 3.035e-6
-1.502, 3.005e-6
-1.501, 3.030e-6
-1.500, 2.952e-6
-1.499, 2.905e-6
-1.498, 2.862e-6
-1.497, 2.813e-6
-1.496, 2.840e-6
-1.495, 2.801e-6
-1.494, 2.741e-6
-1.493, 2.690e-6
-1.492, 2.667e-6
-1.491, 2.669e-6
-1.490, 2.623e-6
-1.489, 2.594e-6
-1.488, 2.530e-6
-1.487, 2.512e-6
-1.486, 2.540e-6
-1.485, 2.445e-6
-1.484, 2.416e-6
-1.483, 2.374e-6
-1.482, 2.367e-6
-1.481, 2.366e-6
-1.480, 2.332e-6
-1.479, 2.262e-6
-1.478, 2.253e-6
-1.477, 2.207e-6
-1.476, 2.232e-6
-1.475, 2.173e-6
-1.474, 2.150e-6
-1.473, 2.109e-6
-1.472, 2.100e-6
-1.471, 2.057e-6
-1.470, 2.083e-6
-1.469, 2.015e-6
-1.468, 1.992e-6
-1.467, 1.945e-6
-1.466, 1.992e-6
-1.465, 1.947e-6
-1.464, 1.903e-6
-1.463, 1.862e-6
-1.462, 1.835e-6
-1.461, 1.857e-6
-1.460, 1.841e-6
-1.459, 1.778e-6
-1.458, 1.789e-6
-1.457, 1.716e-6
-1.456, 1.724e-6
-1.455, 1.718e-6
-1.454, 1.659e-6
-1.453, 1.654e-6
-1.452, 1.641e-6
-1.451, 1.633e-6
-1.450, 1.631e-6
-1.449, 1.555e-6
-1.448, 1.549e-6
-1.447, 1.522e-6
-1.446, 1.520e-6
-1.445, 1.522e-6
-1.444, 1.457e-6
-1.443, 1.428e-6
-1.442, 1.401e-6
-1.441, 1.434e-6
-1.440, 1.396e-6
-1.439, 1.374e-6
-1.438, 1.361e-6
-1.437, 1.328e-6
-1.436, 1.330e-6
-1.435, 1.309e-6
-1.434, 1.265e-6
-1.433, 1.226e-6
-1.432, 1.229e-6
-1.431, 1.241e-6
-1.430, 1.219e-6
-1.429, 1.196e-6
-1.428, 1.157e-6
-1.427, 1.134e-6
-1.426, 1.141e-6
-1.425, 1.123e-6
-1.424, 1.074e-6
-1.423, 1.050e-6
-1.422, 1.051e-6
-1.421, 1.066e-6
-1.420, 1.019e-6
-1.419, 9.894e-7
-1.418, 9.825e-7
-1.417, 9.578e-7
-1.416, 9.874e-7
-1.415, 9.479e-7
-1.414, 9.085e-7
-1.413, 9.055e-7
-1.412, 8.838e-7
-1.411, 8.877e-7
-1.410, 8.956e-7
-1.409, 8.335e-7
-1.408, 7.989e-7
-1.407, 8.068e-7
-1.406, 8.187e-7
-1.405, 8.068e-7
-1.404, 7.506e-7
-1.403, 7.693e-7
-1.402, 7.388e-7
-1.401, 7.358e-7
-1.400, 7.427e-7
-1.399, 6.588e-7
-1.398, 6.806e-7
-1.397, 6.618e-7
-1.396, 6.904e-7
-1.395, 6.519e-7
-1.394, 5.987e-7
-1.393, 6.154e-7
-1.392, 5.927e-7
-1.391, 6.056e-7
-1.390, 5.730e-7
-1.389, 5.375e-7
-1.388, 5.207e-7
-1.387, 5.020e-7
-1.386, 5.168e-7
-1.385, 5.000e-7
-1.384, 4.714e-7
-1.383, 4.566e-7
-1.382, 4.211e-7
-1.381, 4.536e-7
-1.380, 4.526e-7
-1.379, 3.885e-7
-1.378, 3.796e-7
-1.377, 3.520e-7
-1.376, 3.915e-7
-1.375, 3.787e-7
-1.374, 3.274e-7
-1.373, 3.165e-7
-1.372, 2.800e-7
-1.371, 2.800e-7
-1.370, 3.027e-7
-1.369, 2.099e-7
-1.368, 2.376e-7
-1.367, 1.922e-7
-1.366, 2.139e-7
-1.365, 2.109e-7
-1.364, 1.596e-7
-1.363, 1.636e-7
-1.362, 1.310e-7
-1.361, 1.537e-7
-1.360, 1.488e-7
-1.359, 9.748e-8
-1.358, 7.774e-8
-1.357, 7.478e-8
-1.356, 5.604e-8
-1.355, 7.281e-8
-1.354, 3.137e-8
-1.353, -1.697e-8
-1.352, 3.749e-9
-1.351, -2.289e-8
-1.350, 3.749e-9
-1.349, -3.769e-8
-1.348, -6.926e-8
-1.347, -7.222e-8
-1.346, -6.531e-8
-1.345, -8.011e-8
-1.344, -1.127e-7
-1.343, -1.324e-7
-1.342, -1.630e-7
-1.341, -1.571e-7
-1.340, -1.373e-7
-1.339, -1.995e-7
-1.338, -2.044e-7
-1.337, -2.360e-7
-1.336, -2.054e-7
-1.335, -2.064e-7
-1.334, -2.636e-7
-1.333, -2.538e-7
-1.332, -2.853e-7
-1.331, -2.981e-7
-1.330, -2.695e-7
-1.329, -3.445e-7
-1.328, -3.455e-7
-1.327, -3.554e-7
-1.326, -3.672e-7
-1.325, -3.583e-7
-1.324, -4.086e-7
-1.323, -4.047e-7
-1.322, -3.978e-7
-1.321, -4.215e-7
-1.320, -4.146e-7
-1.319, -4.511e-7
-1.318, -4.777e-7
-1.317, -4.994e-7
-1.316, -4.826e-7
-1.315, -4.649e-7
-1.314, -5.122e-7
-1.313, -5.330e-7
-1.312, -5.685e-7
-1.311, -5.251e-7
-1.310, -5.182e-7
-1.309, -5.931e-7
-1.308, -6.099e-7
-1.307, -6.198e-7
-1.306, -6.119e-7
-1.305, -5.922e-7
-1.304, -6.622e-7
-1.303, -6.770e-7
-1.302, -6.750e-7
-1.301, -6.612e-7
-1.300, -6.602e-7
-1.299, -7.066e-7
-1.298, -7.323e-7
-1.297, -7.303e-7
-1.296, -7.244e-7
-1.295, -7.352e-7
-1.294, -7.569e-7
-1.293, -7.766e-7
-1.292, -7.885e-7
-1.291, -7.549e-7
-1.290, -7.855e-7
-1.289, -7.816e-7
-1.288, -8.181e-7
-1.287, -8.506e-7
-1.286, -8.250e-7
-1.285, -8.299e-7
-1.284, -8.497e-7
-1.283, -8.704e-7
-1.282, -9.000e-7
-1.281, -8.832e-7
-1.280, -8.793e-7
-1.279, -9.246e-7
-1.278, -9.384e-7
-1.277, -9.355e-7
-1.276, -9.493e-7
-1.275, -9.375e-7
-1.274, -9.720e-7
-1.273, -9.898e-7
-1.272, -9.819e-7
-1.271, -1.001e-6
-1.270, -9.680e-7
-1.269, -1.027e-6
-1.268, -1.029e-6
-1.267, -1.064e-6
-1.266, -1.056e-6
-1.265, -1.037e-6
-1.264, -1.077e-6
-1.263, -1.091e-6
-1.262, -1.088e-6
-1.261, -1.106e-6
-1.260, -1.069e-6
-1.259, -1.131e-6
-1.258, -1.156e-6
-1.257, -1.139e-6
-1.256, -1.154e-6
-1.255, -1.142e-6
-1.254, -1.190e-6
-1.253, -1.206e-6
-1.252, -1.204e-6
-1.251, -1.205e-6
-1.250, -1.192e-6
-1.249, -1.237e-6
-1.248, -1.275e-6
-1.247, -1.274e-6
-1.246, -1.271e-6
-1.245, -1.249e-6
-1.244, -1.320e-6
-1.243, -1.314e-6
-1.242, -1.338e-6
-1.241, -1.323e-6
-1.240, -1.296e-6
-1.239, -1.360e-6
-1.238, -1.380e-6
-1.237, -1.385e-6
-1.236, -1.407e-6
-1.235, -1.360e-6
-1.234, -1.427e-6
-1.233, -1.442e-6
-1.232, -1.437e-6
-1.231, -1.454e-6
-1.230, -1.414e-6
-1.229, -1.485e-6
-1.228, -1.511e-6
-1.227, -1.500e-6
-1.226, -1.518e-6
-1.225, -1.498e-6
-1.224, -1.550e-6
-1.223, -1.591e-6
-1.222, -1.588e-6
-1.221, -1.583e-6
-1.220, -1.560e-6
-1.219, -1.625e-6
-1.218, -1.629e-6
-1.217, -1.627e-6
-1.216, -1.680e-6
-1.215, -1.653e-6
-1.214, -1.678e-6
-1.213, -1.716e-6
-1.212, -1.712e-6
-1.211, -1.734e-6
-1.210, -1.709e-6
-1.209, -1.754e-6
-1.208, -1.791e-6
-1.207, -1.796e-6
-1.206, -1.794e-6
-1.205, -1.785e-6
-1.204, -1.828e-6
-1.203, -1.870e-6
-1.202, -1.860e-6
-1.201, -1.879e-6
-1.200, -1.885e-6
-1.199, -1.917e-6
-1.198, -1.934e-6
-1.197, -1.975e-6
-1.196, -1.941e-6
-1.195, -1.974e-6
-1.194, -1.988e-6
-1.193, -2.034e-6
-1.192, -2.033e-6
-1.191, -2.042e-6
-1.190, -2.086e-6
-1.189, -2.075e-6
-1.188, -2.120e-6
-1.187, -2.141e-6
-1.186, -2.142e-6
-1.185, -2.138e-6
-1.184, -2.174e-6
-1.183, -2.210e-6
-1.182, -2.247e-6
-1.181, -2.224e-6
-1.180, -2.243e-6
-1.179, -2.274e-6
-1.178, -2.342e-6
-1.177, -2.344e-6
-1.176, -2.330e-6
-1.175, -2.376e-6
-1.174, -2.380e-6
-1.173, -2.430e-6
-1.172, -2.459e-6
-1.171, -2.428e-6
-1.170, -2.477e-6
-1.169, -2.479e-6
-1.168, -2.506e-6
-1.167, -2.567e-6
-1.166, -2.554e-6
-1.165, -2.582e-6
-1.164, -2.620e-6
-1.163, -2.636e-6
-1.162, -2.689e-6
-1.161, -2.708e-6
-1.160, -2.685e-6
-1.159, -2.712e-6
-1.158, -2.784e-6
-1.157, -2.814e-6
-1.156, -2.816e-6
-1.155, -2.828e-6
-1.154, -2.858e-6
-1.153, -2.888e-6
-1.152, -2.932e-6
-1.151, -2.962e-6
-1.150, -2.971e-6
-1.149, -2.976e-6
-1.148, -3.026e-6
-1.147, -3.068e-6
-1.146, -3.064e-6
-1.145, -3.090e-6
-1.144, -3.122e-6
-1.143, -3.137e-6
-1.142, -3.177e-6
-1.141, -3.208e-6
-1.140, -3.186e-6
-1.139, -3.266e-6
-1.138, -3.287e-6
-1.137, -3.331e-6
-1.136, -3.350e-6
-1.135, -3.340e-6
-1.134, -3.396e-6
-1.133, -3.432e-6
-1.132, -3.471e-6
-1.131, -3.476e-6
-1.130, -3.447e-6
-1.129, -3.511e-6
-1.128, -3.548e-6
-1.127, -3.607e-6
-1.126, -3.622e-6
-1.125, -3.604e-6
-1.124, -3.650e-6
-1.123, -3.693e-6
-1.122, -3.716e-6
-1.121, -3.743e-6
-1.120, -3.744e-6
-1.119, -3.794e-6
-1.118, -3.813e-6
-1.117, -3.856e-6
-1.116, -3.869e-6
-1.115, -3.871e-6
-1.114, -3.909e-6
-1.113, -3.958e-6
-1.112, -3.964e-6
-1.111, -4.005e-6
-1.110, -3.981e-6
-1.109, -4.024e-6
-1.108, -4.060e-6
-1.107, -4.087e-6
-1.106, -4.087e-6
-1.105, -4.089e-6
-1.104, -4.144e-6
-1.103, -4.161e-6
-1.102, -4.163e-6
-1.101, -4.201e-6
-1.100, -4.188e-6
-1.099, -4.219e-6
-1.098, -4.266e-6
-1.097, -4.265e-6
-1.096, -4.278e-6
-1.095, -4.264e-6
-1.094, -4.304e-6
-1.093, -4.321e-6
-1.092, -4.343e-6
-1.091, -4.366e-6
-1.090, -4.361e-6
-1.089, -4.360e-6
-1.088, -4.402e-6
-1.087, -4.416e-6
-1.086, -4.411e-6
-1.085, -4.387e-6
-1.084, -4.422e-6
-1.083, -4.463e-6
-1.082, -4.473e-6
-1.081, -4.462e-6
-1.080, -4.455e-6
-1.079, -4.461e-6
-1.078, -4.499e-6
-1.077, -4.496e-6
-1.076, -4.538e-6
-1.075, -4.492e-6
-1.074, -4.507e-6
-1.073, -4.517e-6
-1.072, -4.538e-6
-1.071, -4.561e-6
-1.070, -4.514e-6
-1.069, -4.502e-6
-1.068, -4.534e-6
-1.067, -4.524e-6
-1.066, -4.549e-6
-1.065, -4.530e-6
-1.064, -4.523e-6
-1.063, -4.551e-6
-1.062, -4.537e-6
-1.061, -4.585e-6
-1.060, -4.510e-6
-1.059, -4.538e-6
-1.058, -4.551e-6
-1.057, -4.544e-6
-1.056, -4.563e-6
-1.055, -4.528e-6
-1.054, -4.512e-6
-1.053, -4.523e-6
-1.052, -4.526e-6
-1.051, -4.512e-6
-1.050, -4.512e-6
-1.049, -4.486e-6
-1.048, -4.518e-6
-1.047, -4.525e-6
-1.046, -4.503e-6
-1.045, -4.472e-6
-1.044, -4.484e-6
-1.043, -4.506e-6
-1.042, -4.490e-6
-1.041, -4.464e-6
-1.040, -4.429e-6
-1.039, -4.463e-6
-1.038, -4.456e-6
-1.037, -4.462e-6
-1.036, -4.452e-6
-1.035, -4.414e-6
-1.034, -4.420e-6
-1.033, -4.423e-6
-1.032, -4.405e-6
-1.031, -4.415e-6
-1.030, -4.375e-6
-1.029, -4.359e-6
-1.028, -4.417e-6
-1.027, -4.386e-6
-1.026, -4.370e-6
-1.025, -4.356e-6
-1.024, -4.355e-6
-1.023, -4.355e-6
-1.022, -4.353e-6
-1.021, -4.354e-6
-1.020, -4.307e-6
-1.019, -4.291e-6
-1.018, -4.308e-6
-1.017, -4.298e-6
-1.016, -4.310e-6
-1.015, -4.236e-6
-1.014, -4.257e-6
-1.013, -4.289e-6
-1.012, -4.259e-6
-1.011, -4.256e-6
-1.010, -4.193e-6
-1.009, -4.206e-6
-1.008, -4.228e-6
-1.007, -4.189e-6
-1.006, -4.180e-6
-1.005, -4.176e-6
-1.004, -4.145e-6
-1.003, -4.164e-6
-1.002, -4.159e-6
-1.001, -4.166e-6
-1.000, -3.761e-6
-1.001, -3.363e-6
-1.002, -3.097e-6
-1.003, -2.846e-6
-1.004, -2.681e-6
-1.005, -2.450e-6
-1.006, -2.268e-6
-1.007, -2.159e-6
-1.008, -2.005e-6
-1.009, -1.891e-6
-1.010, -1.752e-6
-1.011, -1.623e-6
-1.012, -1.559e-6
-1.013, -1.454e-6
-1.014, -1.351e-6
-1.015, -1.258e-6
-1.016, -1.188e-6
-1.017, -1.122e-6
-1.018, -1.041e-6
-1.019, -9.759e-7
-1.020, -8.941e-7
-1.021, -8.033e-7
-1.022, -8.013e-7
-1.023, -7.401e-7
-1.024, -6.642e-7
-1.025, -6.129e-7
-1.026, -5.409e-7
-1.027, -5.172e-7
-1.028, -4.955e-7
-1.029, -4.165e-7
-1.030, -4.077e-7
-1.031, -3.129e-7
-1.032, -3.228e-7
-1.033, -3.021e-7
-1.034, -2.419e-7
-1.035, -2.113e-7
-1.036, -1.590e-7
-1.037, -1.472e-7
-1.038, -1.304e-7
-1.039, -9.195e-8
-1.040, -4.361e-8
-1.041, -1.697e-8
-1.042, -1.184e-9
-1.043, 8.682e-9
-1.044, 3.828e-8
-1.045, 7.972e-8
-1.046, 1.448e-7
-1.047, 1.310e-7
-1.048, 1.399e-7
-1.049, 1.892e-7
-1.050, 2.040e-7
-1.051, 2.613e-7
-1.052, 2.346e-7
-1.053, 2.297e-7
-1.054, 3.027e-7
-1.055, 2.987e-7
-1.056, 3.382e-7
-1.057, 3.570e-7
-1.058, 3.343e-7
-1.059, 3.629e-7
-1.060, 3.875e-7
-1.061, 4.231e-7
-1.062, 4.191e-7
-1.063, 3.994e-7
-1.064, 4.250e-7
-1.065, 4.753e-7
-1.066, 4.921e-7
-1.067, 5.049e-7
-1.068, 5.010e-7
-1.069, 5.138e-7
-1.070, 5.513e-7
-1.071, 5.533e-7
-1.072, 5.770e-7
-1.073, 5.701e-7
-1.074, 5.671e-7
-1.075, 6.115e-7
-1.076, 6.371e-7
-1.077, 6.588e-7
-1.078, 5.967e-7
-1.079, 6.450e-7
-1.080, 7.013e-7
-1.081, 6.954e-7
-1.082, 7.220e-7
-1.083, 6.884e-7
-1.084, 7.023e-7
-1.085, 7.437e-7
-1.086, 7.476e-7
-1.087, 7.526e-7
-1.088, 7.555e-7
-1.089, 7.615e-7
-1.090, 7.851e-7
-1.091, 7.999e-7
-1.092, 8.039e-7
-1.093, 8.039e-7
-1.094, 8.039e-7
-1.095, 8.453e-7
-1.096, 8.404e-7
-1.097, 8.493e-7
-1.098, 8.424e-7
-1.099, 8.414e-7
-1.100, 8.700e-7
-1.101, 8.828e-7
-1.102, 9.006e-7
-1.103, 8.818e-7
-1.104, 8.946e-7
-1.105, 9.173e-7
-1.106, 9.509e-7
-1.107, 9.519e-7
-1.108, 9.381e-7
-1.109, 9.331e-7
-1.110, 9.667e-7
-1.111, 9.795e-7
-1.112, 9.637e-7
-1.113, 9.617e-7
-1.114, 9.844e-7
-1.115, 9.953e-7
-1.116, 1.033e-6
-1.117, 1.009e-6
-1.118, 1.036e-6
-1.119, 1.009e-6
-1.120, 1.050e-6
-1.121, 1.053e-6
-1.122, 1.041e-6
-1.123, 1.070e-6
-1.124, 1.048e-6
-1.125, 1.076e-6
-1.126, 1.092e-6
-1.127, 1.090e-6
-1.128, 1.087e-6
-1.129, 1.078e-6
-1.130, 1.116e-6
-1.131, 1.140e-6
-1.132, 1.120e-6
-1.133, 1.135e-6
-1.134, 1.113e-6
-1.135, 1.133e-6
-1.136, 1.173e-6
-1.137, 1.135e-6
-1.138, 1.149e-6
-1.139, 1.158e-6
-1.140, 1.197e-6
-1.141, 1.221e-6
-1.142, 1.177e-6
-1.143, 1.199e-6
-1.144, 1.193e-6
-1.145, 1.209e-6
-1.146, 1.257e-6
-1.147, 1.223e-6
-1.148, 1.213e-6
-1.149, 1.247e-6
-1.150, 1.220e-6
-1.151, 1.276e-6
-1.152, 1.260e-6
-1.153, 1.254e-6
-1.154, 1.287e-6
-1.155, 1.274e-6
-1.156, 1.291e-6
-1.157, 1.311e-6
-1.158, 1.301e-6
-1.159, 1.327e-6
-1.160, 1.302e-6
-1.161, 1.327e-6
-1.162, 1.313e-6
-1.163, 1.319e-6
-1.164, 1.320e-6
-1.165, 1.325e-6
-1.166, 1.360e-6
-1.167, 1.368e-6
-1.168, 1.340e-6
-1.169, 1.365e-6
-1.170, 1.351e-6
-1.171, 1.398e-6
-1.172, 1.385e-6
-1.173, 1.376e-6
-1.174, 1.367e-6
-1.175, 1.399e-6
-1.176, 1.425e-6
-1.177, 1.421e-6
-1.178, 1.386e-6
-1.179, 1.413e-6
-1.180, 1.410e-6
-1.181, 1.452e-6
-1.182, 1.429e-6
-1.183, 1.420e-6
-1.184, 1.427e-6
-1.185, 1.470e-6
-1.186, 1.455e-6
-1.187, 1.458e-6
-1.188, 1.452e-6
-1.189, 1.432e-6
-1.190, 1.469e-6
-1.191, 1.489e-6
-1.192, 1.466e-6
-1.193, 1.487e-6
-1.194, 1.486e-6
-1.195, 1.498e-6
-1.196, 1.509e-6
-1.197, 1.516e-6
-1.198, 1.494e-6
-1.199, 1.493e-6
-1.200, 1.536e-6
-1.201, 1.528e-6
-1.202, 1.530e-6
-1.203, 1.523e-6
-1.204, 1.530e-6
-1.205, 1.564e-6
-1.206, 1.550e-6
-1.207, 1.573e-6
-1.208, 1.566e-6
-1.209, 1.526e-6
-1.210, 1.622e-6
-1.211, 1.579e-6
-1.212, 1.573e-6
-1.213, 1.591e-6
-1.214, 1.563e-6
-1.215, 1.604e-6
-1.216, 1.616e-6
-1.217, 1.629e-6
-1.218, 1.623e-6
-1.219, 1.597e-6
-1.220, 1.632e-6
-1.221, 1.648e-6
-1.222, 1.635e-6
-1.223, 1.638e-6
-1.224, 1.650e-6
-1.225, 1.658e-6
-1.226, 1.702e-6
-1.227, 1.691e-6
-1.228, 1.666e-6
-1.229, 1.696e-6
-1.230, 1.708e-6
-1.231, 1.738e-6
-1.232, 1.732e-6
-1.233, 1.720e-6
-1.234, 1.704e-6
-1.235, 1.738e-6
-1.236, 1.769e-6
-1.237, 1.715e-6
-1.238, 1.734e-6
-1.239, 1.735e-6
-1.240, 1.744e-6
-1.241, 1.817e-6
-1.242, 1.766e-6
-1.243, 1.762e-6
-1.244, 1.745e-6
-1.245, 1.802e-6
-1.246, 1.820e-6
-1.247, 1.811e-6
-1.248, 1.793e-6
-1.249, 1.788e-6
-1.250, 1.808e-6
-1.251, 1.829e-6
-1.252, 1.834e-6
-1.253, 1.822e-6
-1.254, 1.830e-6
-1.255, 1.843e-6
-1.256, 1.862e-6
-1.257, 1.862e-6
-1.258, 1.856e-6
-1.259, 1.835e-6
-1.260, 1.865e-6
-1.261, 1.905e-6
-1.262, 1.896e-6
-1.263, 1.889e-6
-1.264, 1.875e-6
-1.265, 1.877e-6
-1.266, 1.924e-6
-1.267, 1.927e-6
-1.268, 1.906e-6
-1.269, 1.912e-6
-1.270, 1.936e-6
-1.271, 1.936e-6
-1.272, 1.948e-6
-1.273, 1.942e-6
-1.274, 1.975e-6
-1.275, 1.946e-6
-1.276, 1.987e-6
-1.277, 1.989e-6
-1.278, 1.962e-6
-1.279, 1.989e-6
-1.280, 2.008e-6
-1.281, 2.027e-6
-1.282, 2.044e-6
-1.283, 2.022e-6
-1.284, 2.035e-6
-1.285, 2.045e-6
-1.286, 2.066e-6
-1.287, 2.101e-6
-1.288, 2.039e-6
-1.289, 2.062e-6
-1.290, 2.101e-6
-1.291, 2.106e-6
-1.292, 2.120e-6
-1.293, 2.097e-6
-1.294, 2.089e-6
-1.295, 2.120e-6
-1.296, 2.174e-6
-1.297, 2.140e-6
-1.298, 2.124e-6
-1.299, 2.118e-6
-1.300, 2.178e-6
-1.301, 2.162e-6
-1.302, 2.188e-6
-1.303, 2.192e-6
-1.304, 2.157e-6
-1.305, 2.206e-6
-1.306, 2.239e-6
-1.307, 2.208e-6
-1.308, 2.246e-6
-1.309, 2.226e-6
-1.310, 2.262e-6
-1.311, 2.286e-6
-1.312, 2.281e-6
-1.313, 2.301e-6
-1.314, 2.265e-6
-1.315, 2.306e-6
-1.316, 2.307e-6
-1.317, 2.327e-6
-1.318, 2.332e-6
-1.319, 2.310e-6
-1.320, 2.355e-6
-1.321, 2.376e-6
-1.322, 2.408e-6
-1.323, 2.374e-6
-1.324, 2.367e-6
-1.325, 2.405e-6
-1.326, 2.433e-6
-1.327, 2.426e-6
-1.328, 2.434e-6
-1.329, 2.448e-6
-1.330, 2.456e-6
-1.331, 2.477e-6
-1.332, 2.511e-6
-1.333, 2.507e-6
-1.334, 2.496e-6
-1.335, 2.524e-6
-1.336, 2.553e-6
-1.337, 2.531e-6
-1.338, 2.522e-6
-1.339, 2.557e-6
-1.340, 2.543e-6
-1.341, 2.595e-6
-1.342, 2.593e-6
-1.343, 2.577e-6
-1.344, 2.615e-6
-1.345, 2.614e-6
-1.346, 2.688e-6
-1.347, 2.672e-6
-1.348, 2.659e-6
-1.349, 2.679e-6
-1.350, 2.678e-6
-1.351, 2.716e-6
-1.352, 2.712e-6
-1.353, 2.690e-6
-1.354, 2.739e-6
-1.355, 2.732e-6
-1.356, 2.766e-6
-1.357, 2.808e-6
-1.358, 2.774e-6
-1.359, 2.802e-6
-1.360, 2.824e-6
-1.361, 2.857e-6
-1.362, 2.854e-6
-1.363, 2.842e-6
-1.364, 2.852e-6
-1.365, 2.868e-6
-1.366, 2.923e-6
-1.367, 2.923e-6
-1.368, 2.908e-6
-1.369, 2.967e-6
-1.370, 2.945e-6
-1.371, 2.979e-6
-1.372, 3.011e-6
-1.373, 2.973e-6
-1.374, 2.988e-6
-1.375, 3.039e-6
-1.376, 3.045e-6
-1.377, 3.051e-6
-1.378, 3.069e-6
-1.379, 3.021e-6
-1.380, 3.089e-6
-1.381, 3.129e-6
-1.382, 3.114e-6
-1.383, 3.145e-6
-1.384, 3.133e-6
-1.385, 3.155e-6
-1.386, 3.196e-6
-1.387, 3.174e-6
-1.388, 3.218e-6
-1.389, 3.192e-6
-1.390, 3.246e-6
-1.391, 3.270e-6
-1.392, 3.253e-6
-1.393, 3.260e-6
-1.394, 3.257e-6
-1.395, 3.276e-6
-1.396, 3.347e-6
-1.397, 3.334e-6
-1.398, 3.332e-6
-1.399, 3.296e-6
-1.400, 3.378e-6
-1.401, 3.371e-6
-1.402, 3.393e-6
-1.403, 3.431e-6
-1.404, 3.412e-6
-1.405, 3.449e-6
-1.406, 3.475e-6
-1.407, 3.484e-6
-1.408, 3.489e-6
-1.409, 3.516e-6
-1.410, 3.528e-6
-1.411, 3.540e-6
-1.412, 3.555e-6
-1.413, 3.546e-6
-1.414, 3.563e-6
-1.415, 3.582e-6
-1.416, 3.637e-6
-1.417, 3.652e-6
-1.418, 3.636e-6
-1.419, 3.645e-6
-1.420, 3.661e-6
-1.421, 3.731e-6
-1.422, 3.744e-6
-1.423, 3.719e-6
-1.424, 3.748e-6
-1.425, 3.755e-6
-1.426, 3.801e-6
-1.427, 3.814e-6
-1.428, 3.791e-6
-1.429, 3.809e-6
-1.430, 3.819e-6
-1.431, 3.878e-6
-1.432, 3.857e-6
-1.433, 3.900e-6
-1.434, 3.889e-6
-1.435, 3.920e-6
-1.436, 3.962e-6
-1.437, 3.975e-6
-1.438, 3.981e-6
-1.439, 3.966e-6
-1.440, 4.001e-6
-1.441, 4.035e-6
-1.442, 4.060e-6
-1.443, 4.057e-6
-1.444, 4.040e-6
-1.445, 4.074e-6
-1.446, 4.125e-6
-1.447, 4.148e-6
-1.448, 4.134e-6
-1.449, 4.124e-6
-1.450, 4.174e-6
-1.451, 4.202e-6
-1.452, 4.181e-6
-1.453, 4.239e-6
-1.454, 4.220e-6
-1.455, 4.247e-6
-1.456, 4.310e-6
-1.457, 4.312e-6
-1.458, 4.302e-6
-1.459, 4.308e-6
-1.460, 4.318e-6
-1.461, 4.420e-6
-1.462, 4.384e-6
-1.463, 4.404e-6
-1.464, 4.408e-6
-1.465, 4.439e-6
-1.466, 4.498e-6
-1.467, 4.516e-6
-1.468, 4.483e-6
-1.469, 4.529e-6
-1.470, 4.544e-6
-1.471, 4.573e-6
-1.472, 4.614e-6
-1.473, 4.575e-6
-1.474, 4.612e-6
-1.475, 4.643e-6
-1.476, 4.655e-6
-1.477, 4.725e-6
-1.478, 4.700e-6
-1.479, 4.684e-6
-1.480, 4.745e-6
-1.481, 4.795e-6
-1.482, 4.809e-6
-1.483, 4.827e-6
-1.484, 4.824e-6
-1.485, 4.849e-6
-1.486, 4.893e-6
-1.487, 4.919e-6
-1.488, 4.928e-6
-1.489, 4.961e-6
-1.490, 4.960e-6
-1.491, 5.000e-6
-1.492, 5.038e-6
-1.493, 5.067e-6
-1.494, 5.060e-6
-1.495, 5.124e-6
-1.496, 5.157e-6
-1.497, 5.176e-6
-1.498, 5.190e-6
-1.499, 5.189e-6
-1.500, 5.223e-6
-1.501, 5.282e-6
-1.502, 5.308e-6
-1.503, 5.334e-6
-1.504, 5.299e-6
-1.505, 5.366e-6
-1.506, 5.451e-6
-1.507, 5.485e-6
-1.508, 5.477e-6
-1.509, 5.477e-6
-1.510, 5.516e-6
-1.511, 5.589e-6
-1.512, 5.622e-6
-1.513, 5.645e-6
-1.514, 5.675e-6
-1.515, 5.680e-6
-1.516, 5.770e-6
-1.517, 5.779e-6
-1.518, 5.825e-6
-1.519, 5.868e-6
-1.520, 5.871e-6
-1.521, 5.947e-6
-1.522, 5.991e-6
-1.523, 5.986e-6
-1.524, 6.023e-6
-1.525, 6.043e-6
-1.526, 6.131e-6
-1.527, 6.165e-6
-1.528, 6.204e-6
-1.529, 6.210e-6
-1.530, 6.261e-6
-1.531, 6.329e-6
-1.532, 6.411e-6
-1.533, 6.404e-6
-1.534, 6.416e-6
-1.535, 6.477e-6
-1.536, 6.564e-6
-1.537, 6.632e-6
-1.538, 6.600e-6
-1.539, 6.683e-6
-1.540, 6.711e-6
-1.541, 6.773e-6
-1.542, 6.870e-6
-1.543, 6.878e-6
-1.544, 6.906e-6
-1.545, 6.977e-6
-1.546, 7.050e-6
-1.547, 7.121e-6
-1.548, 7.135e-6
-1.549, 7.196e-6
-1.550, 7.241e-6
-1.551, 7.338e-6
-1.552, 7.371e-6
-1.553, 7.433e-6
-1.554, 7.459e-6
-1.555, 7.558e-6
-1.556, 7.612e-6
-1.557, 7.695e-6
-1.558, 7.735e-6
-1.559, 7.766e-6
-1.560, 7.846e-6
-1.561, 7.934e-6
-1.562, 8.057e-6
-1.563, 8.076e-6
-1.564, 8.139e-6
-1.565, 8.200e-6
-1.566, 8.315e-6
-1.567, 8.405e-6
-1.568, 8.457e-6
-1.569, 8.513e-6
-1.570, 8.595e-6
-1.571, 8.680e-6
-1.572, 8.791e-6
-1.573, 8.815e-6
-1.574, 8.899e-6
-1.575, 9.002e-6
-1.576, 9.108e-6
-1.577, 9.223e-6
-1.578, 9.296e-6
-1.579, 9.351e-6
-1.580, 9.435e-6
-1.581, 9.575e-6
-1.582, 9.679e-6
-1.583, 9.779e-6
-1.584, 9.801e-6
-1.585, 9.912e-6
-1.586, 1.006e-5
-1.587, 1.018e-5
-1.588, 1.028e-5
-1.589, 1.034e-5
-1.590, 1.045e-5
-1.591, 1.058e-5
-1.592, 1.072e-5
-1.593, 1.082e-5
-1.594, 1.093e-5
-1.595, 1.104e-5
-1.596, 1.119e-5
-1.597, 1.131e-5
-1.598, 1.145e-5
-1.599, 1.153e-5
-1.600, 1.085e-5
-1.599, 1.027e-5
-1.598, 9.948e-6
-1.597, 9.704e-6
-1.596, 9.457e-6
-1.595, 9.301e-6
-1.594, 9.146e-6
-1.593, 9.005e-6
-1.592, 8.858e-6
-1.591, 8.633e-6
-1.590, 8.533e-6
-1.589, 8.436e-6
-1.588, 8.305e-6
-1.587, 8.161e-6
-1.586, 8.026e-6
-1.585, 7.904e-6
-1.584, 7.812e-6
-1.583, 7.708e-6
-1.582, 7.603e-6
-1.581, 7.444e-6
-1.580, 7.353e-6
-1.579, 7.299e-6
-1.578, 7.192e-6
-1.577, 7.050e-6
-1.576, 6.962e-6
-1.575, 7.049e-6
-1.574, 6.868e-6
-1.573, 6.759e-6
-1.572, 6.656e-6
-1.571, 6.526e-6
-1.570, 6.455e-6
-1.569, 6.386e-6
-1.568, 6.307e-6
-1.567, 6.233e-6
-1.566, 6.080e-6
-1.565, 6.021e-6
-1.564, 5.947e-6
-1.563, 5.912e-6
-1.562, 5.829e-6
-1.561, 5.704e-6
-1.560, 5.613e-6
-1.559, 5.603e-6
-1.558, 5.539e-6
-1.557, 5.464e-6
-1.556, 5.352e-6
-1.555, 5.259e-6
-1.554, 5.232e-6
-1.553, 5.187e-6
-1.552, 5.099e-6
-1.551, 5.013e-6
-1.550, 4.958e-6
-1.549, 4.932e-6
-1.548, 4.847e-6
-1.547, 4.778e-6
-1.546, 4.657e-6
-1.545, 4.600e-6
-1.544, 4.619e-6
-1.543, 4.550e-6
-1.542, 4.503e-6
-1.541, 4.385e-6
-1.540, 4.307e-6
-1.539, 4.351e-6
-1.538, 4.278e-6
-1.537, 4.227e-6
-1.536, 4.123e-6
-1.535, 4.074e-6
-1.534, 4.041e-6
-1.533, 4.008e-6
-1.532, 3.945e-6
-1.531, 3.884e-6
-1.530, 3.827e-6
-1.529, 3.804e-6
-1.528, 3.760e-6
-1.527, 3.702e-6
-1.526, 3.636e-6
-1.525, 3.582e-6
-1.524, 3.579e-6
-1.523, 3.546e-6
-1.522, 3.476e-6
-1.521, 3.414e-6
-1.520, 3.364e-6
-1.519, 3.351e-6
-1.518, 3.344e-6
-1.517, 3.266e-6
-1.516, 3.211e-6
-1.515, 3.142e-6
-1.514, 3.135e-6
-1.513, 3.132e-6
-1.512, 3.065e-6
-1.511, 2.977e-6
-1.510, 2.964e-6
-1.509, 2.934e-6
-1.508, 2.919e-6
-1.507, 2.870e-6
-1.506, 2.816e-6
-1.505, 2.782e-6
-1.504, 2.721e-6
-1.503, 2.760e-6
-1.502, 2.686e-6
-1.501, 2.652e-6
-1.500, 2.627e-6
-1.499, 2.590e-6
-1.498, 2.592e-6
-1.497, 2.493e-6
-1.496, 2.461e-6
-1.495, 2.450e-6
-1.494, 2.405e-6
-1.493, 2.418e-6
-1.492, 2.365e-6
-1.491, 2.303e-6
-1.490, 2.283e-6
-1.489, 2.248e-6
-1.488, 2.270e-6
-1.487, 2.236e-6
-1.486, 2.154e-6
-1.485, 2.100e-6
-1.484, 2.127e-6
-1.483, 2.117e-6
-1.482, 2.065e-6
-1.481, 2.040e-6
-1.480, 2.010e-6
-1.479, 1.994e-6
-1.478, 1.979e-6
-1.477, 1.960e-6
-1.476, 1.881e-6
-1.475, 1.862e-6
-1.474, 1.882e-6
-1.473, 1.854e-6
-1.472, 1.826e-6
-1.471, 1.751e-6
-1.470, 1.755e-6
-1.469, 1.755e-6
-1.468, 1.742e-6
-1.467, 1.705e-6
-1.466, 1.648e-6
-1.465, 1.645e-6
-1.464, 1.641e-6
-1.463, 1.627e-6
-1.462, 1.592e-6
-1.461, 1.548e-6
-1.460, 1.514e-6
-1.459, 1.532e-6
-1.458, 1.521e-6
-1.457, 1.479e-6
-1.456, 1.449e-6
-1.455, 1.420e-6
-1.454, 1.404e-6
-1.453, 1.405e-6
-1.452, 1.385e-6
-1.451, 1.329e-6
-1.450, 1.329e-6
-1.449, 1.306e-6
-1.448, 1.329e-6
-1.447, 1.276e-6
-1.446, 1.266e-6
-1.445, 1.249e-6
-1.444, 1.234e-6
-1.443, 1.219e-6
-1.442, 1.217e-6
-1.441, 1.177e-6
-1.440, 1.126e-6
-1.439, 1.183e-6
-1.438, 1.120e-6
-1.437, 1.094e-6
-1.436, 1.096e-6
-1.435, 1.049e-6
-1.434, 1.080e-6
-1.433, 1.040e-6
-1.432, 1.020e-6
-1.431, 1.007e-6
-1.430, 9.617e-7
-1.429, 9.716e-7
-1.428, 9.943e-7
-1.427, 9.381e-7
-1.426, 9.430e-7
-1.425, 8.877e-7
-1.424, 8.986e-7
-1.423, 9.144e-7
-1.422, 8.779e-7
-1.421, 8.443e-7
-1.420, 8.147e-7
-1.419, 8.177e-7
-1.418, 8.216e-7
-1.417, 7.920e-7
-1.416, 7.674e-7
-1.415, 7.654e-7
-1.414, 7.693e-7
-1.413, 7.555e-7
-1.412, 7.388e-7
-1.411, 7.151e-7
-1.410, 6.786e-7
-1.409, 6.756e-7
-1.408, 6.993e-7
-1.407, 6.579e-7
-1.406, 6.391e-7
-1.405, 5.937e-7
-1.404, 5.977e-7
-1.403, 6.293e-7
-1.402, 5.957e-7
-1.401, 5.533e-7
-1.400, 5.592e-7
-1.399, 5.188e-7
-1.398, 5.631e-7
-1.397, 5.138e-7
-1.396, 4.911e-7
-1.395, 4.822e-7
-1.394, 4.625e-7
-1.393, 4.753e-7
-1.392, 4.576e-7
-1.391, 4.102e-7
-1.390, 3.885e-7
-1.389, 4.112e-7
-1.388, 4.063e-7
-1.387, 3.717e-7
-1.386, 3.451e-7
-1.385, 3.372e-7
-1.384, 3.491e-7
-1.383, 3.412e-7
-1.382, 3.185e-7
-1.381, 2.662e-7
-1.380, 2.751e-7
-1.379, 2.573e-7
-1.378, 2.622e-7
-1.377, 2.524e-7
-1.376, 1.951e-7
-1.375, 1.873e-7
-1.374, 1.951e-7
-1.373, 2.040e-7
-1.372, 1.754e-7
-1.371, 1.281e-7
-1.370, 1.231e-7
-1.369, 1.290e-7
-1.368, 1.192e-7
-1.367, 1.024e-7
-1.366, 7.182e-8
-1.365, 3.039e-8
-1.364, 8.169e-8
-1.363, 7.281e-8
-1.362, 3.729e-8
-1.361, 4.716e-8
-1.360, -1.302e-8
-1.359, 4.913e-8
-1.358, -1.184e-9
-1.357, -3.769e-8
-1.356, -4.953e-8
-1.355, -6.729e-8
-1.354, -4.657e-8
-1.353, -7.419e-8
-1.352, -7.025e-8
-1.351, -1.265e-7
-1.350, -1.511e-7
-1.349, -1.186e-7
-1.348, -1.581e-7
-1.347, -1.571e-7
-1.346, -1.936e-7
-1.345, -2.163e-7
-1.344, -1.886e-7
-1.343, -1.867e-7
-1.342, -2.192e-7
-1.341, -2.429e-7
-1.340, -2.774e-7
-1.339, -2.656e-7
-1.338, -2.804e-7
-1.337, -3.051e-7
-1.336, -1.018e-7
-1.335, -8.110e-8
-1.334, -1.393e-7
-1.333, -1.679e-7
-1.332, -2.547e-7
-1.331, -3.277e-7
-1.330, -3.573e-7
-1.329, -3.544e-7
-1.328, -3.702e-7
-1.327, -3.919e-7
-1.326, -4.146e-7
-1.325, -4.402e-7
-1.324, -4.392e-7
-1.323, -4.373e-7
-1.322, -4.629e-7
-1.321, -4.797e-7
-1.320, -5.004e-7
-1.319, -5.083e-7
-1.318, -5.152e-7
-1.317, -5.221e-7
-1.316, -5.596e-7
-1.315, -5.547e-7
-1.314, -5.902e-7
-1.313, -5.448e-7
-1.312, -5.734e-7
-1.311, -6.356e-7
-1.310, -6.415e-7
-1.309, -6.385e-7
-1.308, -6.158e-7
-1.307, -6.277e-7
-1.306, -6.612e-7
-1.305, -7.105e-7
-1.304, -7.125e-7
-1.303, -6.691e-7
-1.302, -6.938e-7
-1.301, -7.027e-7
-1.300, -7.401e-7
-1.299, -7.323e-7
-1.298, -7.470e-7
-1.297, -7.549e-7
-1.296, -7.875e-7
-1.295, -7.875e-7
-1.294, -7.905e-7
-1.293, -7.776e-7
-1.292, -8.082e-7
-1.291, -8.516e-7
-1.290, -8.635e-7
-1.289, -8.210e-7
-1.288, -8.418e-7
-1.287, -8.556e-7
-1.286, -8.822e-7
-1.285, -9.414e-7
-1.284, -8.802e-7
-1.283, -8.980e-7
-1.282, -8.852e-7
-1.281, -9.158e-7
-1.280, -9.680e-7
-1.279, -9.424e-7
-1.278, -9.424e-7
-1.277, -9.503e-7
-1.276, -1.003e-6
-1.275, -1.001e-6
-1.274, -1.005e-6
-1.273, -9.690e-7
-1.272, -1.004e-6
-1.271, -1.019e-6
-1.270, -1.058e-6
-1.269, -1.016e-6
-1.268, -1.029e-6
-1.267, -1.072e-6
-1.266, -1.056e-6
-1.265, -1.106e-6
-1.264, -1.093e-6
-1.263, -1.079e-6
-1.262, -1.113e-6
-1.261, -1.135e-6
-1.260, -1.148e-6
-1.259, -1.142e-6
-1.258, -1.113e-6
-1.257, -1.151e-6
-1.256, -1.196e-6
-1.255, -1.170e-6
-1.254, -1.223e-6
-1.253, -1.167e-6
-1.252, -1.212e-6
-1.251, -1.231e-6
-1.250, -1.259e-6
-1.249, -1.264e-6
-1.248, -1.223e-6
-1.247, -1.254e-6
-1.246, -1.298e-6
-1.245, -1.285e-6
-1.244, -1.313e-6
-1.243, -1.279e-6
-1.242, -1.329e-6
-1.241, -1.330e-6
-1.240, -1.357e-6
-1.239, -1.371e-6
-1.238, -1.337e-6
-1.237, -1.378e-6
-1.236, -1.389e-6
-1.235, -1.418e-6
-1.234, -1.440e-6
-1.233, -1.391e-6
-1.232, -1.416e-6
-1.231, -1.452e-6
-1.230, -1.464e-6
-1.229, -1.495e-6
-1.228, -1.490e-6
-1.227, -1.482e-6
-1.226, -1.542e-6
-1.225, -1.525e-6
-1.224, -1.557e-6
-1.223, -1.532e-6
-1.222, -1.552e-6
-1.221, -1.608e-6
-1.220, -1.604e-6
-1.219, -1.600e-6
-1.218, -1.597e-6
-1.217, -1.609e-6
-1.216, -1.674e-6
-1.215, -1.674e-6
-1.214, -1.648e-6
-1.213, -1.677e-6
-1.212, -1.702e-6
-1.211, -1.720e-6
-1.210, -1.744e-6
-1.209, -1.730e-6
-1.208, -1.732e-6
-1.207, -1.739e-6
-1.206, -1.814e-6
-1.205, -1.815e-6
-1.204, -1.799e-6
-1.203, -1.828e-6
-1.202, -1.838e-6
-1.201, -1.869e-6
-1.200, -1.890e-6
-1.199, -1.880e-6
-1.198, -1.906e-6
-1.197, -1.917e-6
-1.196, -1.954e-6
-1.195, -1.982e-6
-1.194, -1.965e-6
-1.193, -1.975e-6
-1.192, -2.013e-6
-1.191, -2.012e-6
-1.190, -2.065e-6
-1.189, -2.085e-6
-1.188, -2.049e-6
-1.187, -2.111e-6
-1.186, -2.105e-6
-1.185, -2.143e-6
-1.184, -2.144e-6
-1.183, -2.165e-6
-1.182, -2.188e-6
-1.181, -2.231e-6
-1.180, -2.262e-6
-1.179, -2.275e-6
-1.178, -2.250e-6
-1.177, -2.289e-6
-1.176, -2.298e-6
-1.175, -2.372e-6
-1.174, -2.352e-6
-1.173, -2.336e-6
-1.172, -2.388e-6
-1.171, -2.412e-6
-1.170, -2.459e-6
-1.169, -2.446e-6
-1.168, -2.449e-6
-1.167, -2.491e-6
-1.166, -2.505e-6
-1.165, -2.573e-6
-1.164, -2.569e-6
-1.163, -2.548e-6
-1.162, -2.590e-6
-1.161, -2.650e-6
-1.160, -2.660e-6
-1.159, -2.690e-6
-1.158, -2.657e-6
-1.157, -2.707e-6
-1.156, -2.746e-6
-1.155, -2.801e-6
-1.154, -2.796e-6
-1.153, -2.783e-6
-1.152, -2.872e-6
-1.151, -2.875e-6
-1.150, -2.908e-6
-1.149, -2.918e-6
-1.148, -2.936e-6
-1.147, -2.974e-6
-1.146, -3.017e-6
-1.145, -3.055e-6
-1.144, -3.041e-6
-1.143, -3.049e-6
-1.142, -3.066e-6
-1.141, -3.121e-6
-1.140, -3.164e-6
-1.139, -3.179e-6
-1.138, -3.170e-6
-1.137, -3.228e-6
-1.136, -3.268e-6
-1.135, -3.277e-6
-1.134, -3.323e-6
-1.133, -3.302e-6
-1.132, -3.341e-6
-1.131, -3.370e-6
-1.130, -3.400e-6
-1.129, -3.460e-6
-1.128, -3.431e-6
-1.127, -3.456e-6
-1.126, -3.511e-6
-1.125, -3.524e-6
-1.124, -3.578e-6
-1.123, -3.548e-6
-1.122, -3.592e-6
-1.121, -3.608e-6
-1.120, -3.658e-6
-1.119, -3.692e-6
-1.118, -3.666e-6
-1.117, -3.704e-6
-1.116, -3.761e-6
-1.115, -3.760e-6
-1.114, -3.804e-6
-1.113, -3.783e-6
-1.112, -3.828e-6
-1.111, -3.873e-6
-1.110, -3.900e-6
-1.109, -3.886e-6
-1.108, -3.883e-6
-1.107, -3.919e-6
-1.106, -3.946e-6
-1.105, -3.982e-6
-1.104, -4.002e-6
-1.103, -4.011e-6
-1.102, -3.999e-6
-1.101, -4.035e-6
-1.100, -4.050e-6
-1.099, -4.085e-6
-1.098, -4.065e-6
-1.097, -4.093e-6
-1.096, -4.104e-6
-1.095, -4.123e-6
-1.094, -4.161e-6
-1.093, -4.151e-6
-1.092, -4.134e-6
-1.091, -4.159e-6
-1.090, -4.178e-6
-1.089, -4.192e-6
-1.088, -4.180e-6
-1.087, -4.217e-6
-1.086, -4.220e-6
-1.085, -4.225e-6
-1.084, -4.270e-6
-1.083, -4.233e-6
-1.082, -4.238e-6
-1.081, -4.292e-6
-1.080, -4.277e-6
-1.079, -4.277e-6
-1.078, -4.254e-6
-1.077, -4.270e-6
-1.076, -4.280e-6
-1.075, -4.300e-6
-1.074, -4.295e-6
-1.073, -4.271e-6
-1.072, -4.289e-6
-1.071, -4.299e-6
-1.070, -4.286e-6
-1.069, -4.282e-6
-1.068, -4.266e-6
-1.067, -4.287e-6
-1.066, -4.292e-6
-1.065, -4.264e-6
-1.064, -4.287e-6
-1.063, -4.267e-6
-1.062, -4.261e-6
-1.061, -4.291e-6
-1.060, -4.269e-6
-1.059, -4.277e-6
-1.058, -4.231e-6
-1.057, -4.261e-6
-1.056, -4.278e-6
-1.055, -4.240e-6
-1.054, -4.241e-6
-1.053, -4.217e-6
-1.052, -4.214e-6
-1.051, -4.233e-6
-1.050, -4.213e-6
-1.049, -4.227e-6
-1.048, -4.170e-6
-1.047, -4.194e-6
-1.046, -4.191e-6
-1.045, -4.183e-6
-1.044, -4.182e-6
-1.043, -4.140e-6
-1.042, -4.149e-6
-1.041, -4.160e-6
-1.040, -4.151e-6
-1.039, -4.131e-6
-1.038, -4.110e-6
-1.037, -4.110e-6
-1.036, -4.108e-6
-1.035, -4.108e-6
-1.034, -4.105e-6
-1.033, -4.053e-6
-1.032, -4.071e-6
-1.031, -4.044e-6
-1.030, -4.100e-6
-1.029, -4.064e-6
-1.028, -4.035e-6
-1.027, -4.011e-6
-1.026, -4.013e-6
-1.025, -4.054e-6
-1.024, -4.034e-6
-1.023, -3.981e-6
-1.022, -3.994e-6
-1.021, -3.978e-6
-1.020, -4.024e-6
-1.019, -3.988e-6
-1.018, -3.950e-6
-1.017, -3.956e-6
-1.016, -3.973e-6
-1.015, -3.984e-6
-1.014, -3.943e-6
-1.013, -3.894e-6
-1.012, -3.907e-6
-1.011, -3.949e-6
-1.010, -3.927e-6
-1.009, -3.911e-6
-1.008, -3.884e-6
-1.007, -3.904e-6
-1.006, -3.909e-6
-1.005, -3.899e-6
-1.004, -3.893e-6
-1.003, -3.856e-6
-1.002, -3.868e-6
-1.001, -3.868e-6
