Dec. 15, 2024   03:29:19
Cyclic Voltammetry
File: c:/users/guazh/data/banditlqround7_x0exp59_r20/2024-12-09-exp664\exp664-2024-12-15t03_17_42-arkoh\exp664_cv_sr_600mvs_efin_-1500mv.bin
Data Source:  Experiment
Instrument Model:  CHI760E
Header: CV ran at 600 mVs
Note: 

Init E (V) = -1
High E (V) = -1
Low E (V) = -1.5
Final E (V) = -1
Init P/N = N
Scan Rate (V/s) = 0.6
Segment = 3
Sample Interval (V) = 0.001
Quiet Time (sec) = 2
Sensitivity (A/V) = 0.01
Comp R (ohm) = 1.3

Results:

Channel 1:
Segment 1:

Segment 2:

Segment 3:

Potential/V, Current/A

-1.000, -3.821e-4
-1.001, -3.421e-4
-1.002, -3.082e-4
-1.003, -2.742e-4
-1.004, -2.403e-4
-1.005, -2.095e-4
-1.006, -1.817e-4
-1.007, -1.509e-4
-1.008, -1.232e-4
-1.009, -9.542e-5
-1.010, -6.767e-5
-1.011, -4.301e-5
-1.012, -2.143e-5
-1.013, 1.559e-7
-1.014, 2.174e-5
-1.015, 4.332e-5
-1.016, 6.490e-5
-1.017, 8.648e-5
-1.018, 1.081e-4
-1.019, 1.296e-4
-1.020, 1.512e-4
-1.021, 1.697e-4
-1.022, 1.882e-4
-1.023, 2.067e-4
-1.024, 2.221e-4
-1.025, 2.376e-4
-1.026, 2.499e-4
-1.027, 2.684e-4
-1.028, 2.869e-4
-1.029, 3.054e-4
-1.030, 3.208e-4
-1.031, 3.393e-4
-1.032, 3.547e-4
-1.033, 3.701e-4
-1.034, 3.825e-4
-1.035, 3.979e-4
-1.036, 4.133e-4
-1.037, 4.287e-4
-1.038, 4.441e-4
-1.039, 4.626e-4
-1.040, 4.780e-4
-1.041, 4.935e-4
-1.042, 5.058e-4
-1.043, 5.212e-4
-1.044, 5.335e-4
-1.045, 5.459e-4
-1.046, 5.613e-4
-1.047, 5.767e-4
-1.048, 5.921e-4
-1.049, 6.075e-4
-1.050, 6.199e-4
-1.051, 6.353e-4
-1.052, 6.476e-4
-1.053, 6.599e-4
-1.054, 6.723e-4
-1.055, 6.877e-4
-1.056, 7.000e-4
-1.057, 7.154e-4
-1.058, 7.309e-4
-1.059, 7.463e-4
-1.060, 7.617e-4
-1.061, 7.771e-4
-1.062, 7.894e-4
-1.063, 8.018e-4
-1.064, 8.141e-4
-1.065, 8.264e-4
-1.066, 8.418e-4
-1.067, 8.573e-4
-1.068, 8.727e-4
-1.069, 8.881e-4
-1.070, 9.035e-4
-1.071, 9.189e-4
-1.072, 9.313e-4
-1.073, 9.436e-4
-1.074, 9.559e-4
-1.075, 9.683e-4
-1.076, 9.837e-4
-1.077, 9.991e-4
-1.078, 1.014e-3
-1.079, 1.030e-3
-1.080, 1.045e-3
-1.081, 1.061e-3
-1.082, 1.073e-3
-1.083, 1.085e-3
-1.084, 1.095e-3
-1.085, 1.110e-3
-1.086, 1.122e-3
-1.087, 1.138e-3
-1.088, 1.153e-3
-1.089, 1.169e-3
-1.090, 1.187e-3
-1.091, 1.203e-3
-1.092, 1.218e-3
-1.093, 1.230e-3
-1.094, 1.243e-3
-1.095, 1.258e-3
-1.096, 1.273e-3
-1.097, 1.289e-3
-1.098, 1.304e-3
-1.099, 1.323e-3
-1.100, 1.338e-3
-1.101, 1.357e-3
-1.102, 1.372e-3
-1.103, 1.388e-3
-1.104, 1.403e-3
-1.105, 1.415e-3
-1.106, 1.434e-3
-1.107, 1.449e-3
-1.108, 1.465e-3
-1.109, 1.486e-3
-1.110, 1.508e-3
-1.111, 1.523e-3
-1.112, 1.542e-3
-1.113, 1.557e-3
-1.114, 1.569e-3
-1.115, 1.585e-3
-1.116, 1.603e-3
-1.117, 1.622e-3
-1.118, 1.640e-3
-1.119, 1.659e-3
-1.120, 1.674e-3
-1.121, 1.693e-3
-1.122, 1.708e-3
-1.123, 1.721e-3
-1.124, 1.733e-3
-1.125, 1.748e-3
-1.126, 1.764e-3
-1.127, 1.782e-3
-1.128, 1.804e-3
-1.129, 1.819e-3
-1.130, 1.841e-3
-1.131, 1.856e-3
-1.132, 1.869e-3
-1.133, 1.881e-3
-1.134, 1.893e-3
-1.135, 1.906e-3
-1.136, 1.918e-3
-1.137, 1.933e-3
-1.138, 1.952e-3
-1.139, 1.967e-3
-1.140, 1.983e-3
-1.141, 2.001e-3
-1.142, 2.017e-3
-1.143, 2.035e-3
-1.144, 2.047e-3
-1.145, 2.057e-3
-1.146, 2.060e-3
-1.147, 2.072e-3
-1.148, 2.091e-3
-1.149, 2.109e-3
-1.150, 2.128e-3
-1.151, 2.146e-3
-1.152, 2.161e-3
-1.153, 2.183e-3
-1.154, 2.198e-3
-1.155, 2.214e-3
-1.156, 2.232e-3
-1.157, 2.248e-3
-1.158, 2.266e-3
-1.159, 2.285e-3
-1.160, 2.300e-3
-1.161, 2.312e-3
-1.162, 2.325e-3
-1.163, 2.340e-3
-1.164, 2.356e-3
-1.165, 2.374e-3
-1.166, 2.390e-3
-1.167, 2.408e-3
-1.168, 2.427e-3
-1.169, 2.448e-3
-1.170, 2.467e-3
-1.171, 2.485e-3
-1.172, 2.501e-3
-1.173, 2.516e-3
-1.174, 2.531e-3
-1.175, 2.550e-3
-1.176, 2.568e-3
-1.177, 2.587e-3
-1.178, 2.605e-3
-1.179, 2.627e-3
-1.180, 2.645e-3
-1.181, 2.664e-3
-1.182, 2.682e-3
-1.183, 2.698e-3
-1.184, 2.710e-3
-1.185, 2.729e-3
-1.186, 2.744e-3
-1.187, 2.766e-3
-1.188, 2.784e-3
-1.189, 2.800e-3
-1.190, 2.821e-3
-1.191, 2.837e-3
-1.192, 2.852e-3
-1.193, 2.871e-3
-1.194, 2.886e-3
-1.195, 2.904e-3
-1.196, 2.923e-3
-1.197, 2.938e-3
-1.198, 2.960e-3
-1.199, 2.978e-3
-1.200, 2.997e-3
-1.201, 3.015e-3
-1.202, 3.031e-3
-1.203, 3.049e-3
-1.204, 3.065e-3
-1.205, 3.086e-3
-1.206, 3.105e-3
-1.207, 3.133e-3
-1.208, 3.182e-3
-1.209, 3.200e-3
-1.210, 3.204e-3
-1.211, 3.222e-3
-1.212, 3.234e-3
-1.213, 3.247e-3
-1.214, 3.259e-3
-1.215, 3.274e-3
-1.216, 3.290e-3
-1.217, 3.314e-3
-1.218, 3.336e-3
-1.219, 3.364e-3
-1.220, 3.388e-3
-1.221, 3.410e-3
-1.222, 3.429e-3
-1.223, 3.444e-3
-1.224, 3.459e-3
-1.225, 3.475e-3
-1.226, 3.487e-3
-1.227, 3.496e-3
-1.228, 3.518e-3
-1.229, 3.543e-3
-1.230, 3.564e-3
-1.231, 3.586e-3
-1.232, 3.604e-3
-1.233, 3.626e-3
-1.234, 3.644e-3
-1.235, 3.660e-3
-1.236, 3.681e-3
-1.237, 3.703e-3
-1.238, 3.728e-3
-1.239, 3.752e-3
-1.240, 3.771e-3
-1.241, 3.789e-3
-1.242, 3.805e-3
-1.243, 3.817e-3
-1.244, 3.820e-3
-1.245, 3.839e-3
-1.246, 3.860e-3
-1.247, 3.882e-3
-1.248, 3.931e-3
-1.249, 3.977e-3
-1.250, 4.002e-3
-1.251, 4.024e-3
-1.252, 4.042e-3
-1.253, 4.058e-3
-1.254, 4.076e-3
-1.255, 4.095e-3
-1.256, 4.113e-3
-1.257, 4.135e-3
-1.258, 4.156e-3
-1.259, 4.175e-3
-1.260, 4.196e-3
-1.261, 4.215e-3
-1.262, 4.233e-3
-1.263, 4.249e-3
-1.264, 4.264e-3
-1.265, 4.280e-3
-1.266, 4.295e-3
-1.267, 4.289e-3
-1.268, 4.298e-3
-1.269, 4.313e-3
-1.270, 4.326e-3
-1.271, 4.347e-3
-1.272, 4.360e-3
-1.273, 4.375e-3
-1.274, 4.391e-3
-1.275, 4.412e-3
-1.276, 4.431e-3
-1.277, 4.449e-3
-1.278, 4.458e-3
-1.279, 4.477e-3
-1.280, 4.495e-3
-1.281, 4.517e-3
-1.282, 4.535e-3
-1.283, 4.554e-3
-1.284, 4.572e-3
-1.285, 4.591e-3
-1.286, 4.609e-3
-1.287, 4.631e-3
-1.288, 4.653e-3
-1.289, 4.674e-3
-1.290, 4.696e-3
-1.291, 4.714e-3
-1.292, 4.733e-3
-1.293, 4.751e-3
-1.294, 4.770e-3
-1.295, 4.788e-3
-1.296, 4.807e-3
-1.297, 4.828e-3
-1.298, 4.847e-3
-1.299, 4.868e-3
-1.300, 4.887e-3
-1.301, 4.908e-3
-1.302, 4.927e-3
-1.303, 4.945e-3
-1.304, 4.961e-3
-1.305, 4.979e-3
-1.306, 5.001e-3
-1.307, 5.023e-3
-1.308, 5.047e-3
-1.309, 5.069e-3
-1.310, 5.090e-3
-1.311, 5.112e-3
-1.312, 5.130e-3
-1.313, 5.152e-3
-1.314, 5.167e-3
-1.315, 5.186e-3
-1.316, 5.204e-3
-1.317, 5.223e-3
-1.318, 5.245e-3
-1.319, 5.266e-3
-1.320, 5.285e-3
-1.321, 5.306e-3
-1.322, 5.322e-3
-1.323, 5.343e-3
-1.324, 5.362e-3
-1.325, 5.380e-3
-1.326, 5.399e-3
-1.327, 5.417e-3
-1.328, 5.439e-3
-1.329, 5.460e-3
-1.330, 5.479e-3
-1.331, 5.497e-3
-1.332, 5.516e-3
-1.333, 5.534e-3
-1.334, 5.550e-3
-1.335, 5.571e-3
-1.336, 5.593e-3
-1.337, 5.614e-3
-1.338, 5.636e-3
-1.339, 5.655e-3
-1.340, 5.676e-3
-1.341, 5.695e-3
-1.342, 5.713e-3
-1.343, 5.732e-3
-1.344, 5.750e-3
-1.345, 5.772e-3
-1.346, 5.790e-3
-1.347, 5.815e-3
-1.348, 5.833e-3
-1.349, 5.855e-3
-1.350, 5.873e-3
-1.351, 5.895e-3
-1.352, 5.914e-3
-1.353, 5.935e-3
-1.354, 5.954e-3
-1.355, 5.972e-3
-1.356, 5.991e-3
-1.357, 6.012e-3
-1.358, 6.031e-3
-1.359, 6.049e-3
-1.360, 6.074e-3
-1.361, 6.095e-3
-1.362, 6.117e-3
-1.363, 6.136e-3
-1.364, 6.151e-3
-1.365, 6.169e-3
-1.366, 6.188e-3
-1.367, 6.210e-3
-1.368, 6.231e-3
-1.369, 6.253e-3
-1.370, 6.271e-3
-1.371, 6.290e-3
-1.372, 6.308e-3
-1.373, 6.327e-3
-1.374, 6.345e-3
-1.375, 6.364e-3
-1.376, 6.382e-3
-1.377, 6.407e-3
-1.378, 6.432e-3
-1.379, 6.450e-3
-1.380, 6.465e-3
-1.381, 6.481e-3
-1.382, 6.499e-3
-1.383, 6.524e-3
-1.384, 6.543e-3
-1.385, 6.561e-3
-1.386, 6.580e-3
-1.387, 6.592e-3
-1.388, 6.598e-3
-1.389, 6.617e-3
-1.390, 6.647e-3
-1.391, 6.675e-3
-1.392, 6.694e-3
-1.393, 6.709e-3
-1.394, 6.712e-3
-1.395, 6.706e-3
-1.396, 6.718e-3
-1.397, 6.737e-3
-1.398, 6.755e-3
-1.399, 6.783e-3
-1.400, 6.814e-3
-1.401, 6.832e-3
-1.402, 6.848e-3
-1.403, 6.851e-3
-1.404, 6.866e-3
-1.405, 6.882e-3
-1.406, 6.900e-3
-1.407, 6.916e-3
-1.408, 6.937e-3
-1.409, 6.953e-3
-1.410, 6.959e-3
-1.411, 6.971e-3
-1.412, 6.990e-3
-1.413, 7.002e-3
-1.414, 7.014e-3
-1.415, 7.027e-3
-1.416, 7.042e-3
-1.417, 7.054e-3
-1.418, 7.070e-3
-1.419, 7.082e-3
-1.420, 7.097e-3
-1.421, 7.110e-3
-1.422, 7.122e-3
-1.423, 7.138e-3
-1.424, 7.159e-3
-1.425, 7.175e-3
-1.426, 7.184e-3
-1.427, 7.196e-3
-1.428, 7.205e-3
-1.429, 7.199e-3
-1.430, 7.199e-3
-1.431, 7.215e-3
-1.432, 7.227e-3
-1.433, 7.239e-3
-1.434, 7.249e-3
-1.435, 7.242e-3
-1.436, 7.252e-3
-1.437, 7.261e-3
-1.438, 7.273e-3
-1.439, 7.286e-3
-1.440, 7.295e-3
-1.441, 7.310e-3
-1.442, 7.319e-3
-1.443, 7.338e-3
-1.444, 7.363e-3
-1.445, 7.375e-3
-1.446, 7.390e-3
-1.447, 7.409e-3
-1.448, 7.434e-3
-1.449, 7.464e-3
-1.450, 7.483e-3
-1.451, 7.483e-3
-1.452, 7.489e-3
-1.453, 7.498e-3
-1.454, 7.511e-3
-1.455, 7.520e-3
-1.456, 7.529e-3
-1.457, 7.554e-3
-1.458, 7.569e-3
-1.459, 7.566e-3
-1.460, 7.594e-3
-1.461, 7.619e-3
-1.462, 7.640e-3
-1.463, 7.671e-3
-1.464, 7.680e-3
-1.465, 7.689e-3
-1.466, 7.696e-3
-1.467, 7.702e-3
-1.468, 7.714e-3
-1.469, 7.730e-3
-1.470, 7.739e-3
-1.471, 7.726e-3
-1.472, 7.733e-3
-1.473, 7.739e-3
-1.474, 7.742e-3
-1.475, 7.751e-3
-1.476, 7.754e-3
-1.477, 7.757e-3
-1.478, 7.767e-3
-1.479, 7.776e-3
-1.480, 7.782e-3
-1.481, 7.785e-3
-1.482, 7.788e-3
-1.483, 7.794e-3
-1.484, 7.800e-3
-1.485, 7.804e-3
-1.486, 7.804e-3
-1.487, 7.807e-3
-1.488, 7.810e-3
-1.489, 7.813e-3
-1.490, 7.785e-3
-1.491, 7.668e-3
-1.492, 7.671e-3
-1.493, 7.683e-3
-1.494, 7.739e-3
-1.495, 7.797e-3
-1.496, 7.807e-3
-1.497, 7.797e-3
-1.498, 7.723e-3
-1.499, 7.677e-3
-1.500, 7.637e-3
-1.499, 7.551e-3
-1.498, 7.471e-3
-1.497, 7.393e-3
-1.496, 7.313e-3
-1.495, 7.236e-3
-1.494, 7.156e-3
-1.493, 7.079e-3
-1.492, 7.005e-3
-1.491, 6.931e-3
-1.490, 6.860e-3
-1.489, 6.792e-3
-1.488, 6.721e-3
-1.487, 6.657e-3
-1.486, 6.601e-3
-1.485, 6.570e-3
-1.484, 6.539e-3
-1.483, 6.478e-3
-1.482, 6.413e-3
-1.481, 6.348e-3
-1.480, 6.284e-3
-1.479, 6.222e-3
-1.478, 6.163e-3
-1.477, 6.099e-3
-1.476, 6.034e-3
-1.475, 5.969e-3
-1.474, 5.910e-3
-1.473, 5.849e-3
-1.472, 5.787e-3
-1.471, 5.725e-3
-1.470, 5.667e-3
-1.469, 5.605e-3
-1.468, 5.541e-3
-1.467, 5.482e-3
-1.466, 5.420e-3
-1.465, 5.362e-3
-1.464, 5.306e-3
-1.463, 5.251e-3
-1.462, 5.198e-3
-1.461, 5.140e-3
-1.460, 5.084e-3
-1.459, 5.029e-3
-1.458, 5.001e-3
-1.457, 4.933e-3
-1.456, 4.902e-3
-1.455, 4.853e-3
-1.454, 4.797e-3
-1.453, 4.745e-3
-1.452, 4.693e-3
-1.451, 4.640e-3
-1.450, 4.591e-3
-1.449, 4.538e-3
-1.448, 4.483e-3
-1.447, 4.424e-3
-1.446, 4.372e-3
-1.445, 4.323e-3
-1.444, 4.273e-3
-1.443, 4.227e-3
-1.442, 4.175e-3
-1.441, 4.125e-3
-1.440, 4.076e-3
-1.439, 4.030e-3
-1.438, 3.996e-3
-1.437, 3.959e-3
-1.436, 3.916e-3
-1.435, 3.869e-3
-1.434, 3.811e-3
-1.433, 3.755e-3
-1.432, 3.706e-3
-1.431, 3.660e-3
-1.430, 3.614e-3
-1.429, 3.570e-3
-1.428, 3.521e-3
-1.427, 3.472e-3
-1.426, 3.425e-3
-1.425, 3.379e-3
-1.424, 3.333e-3
-1.423, 3.290e-3
-1.422, 3.244e-3
-1.421, 3.200e-3
-1.420, 3.154e-3
-1.419, 3.120e-3
-1.418, 3.089e-3
-1.417, 3.052e-3
-1.416, 3.009e-3
-1.415, 2.963e-3
-1.414, 2.914e-3
-1.413, 2.867e-3
-1.412, 2.821e-3
-1.411, 2.778e-3
-1.410, 2.738e-3
-1.409, 2.704e-3
-1.408, 2.670e-3
-1.407, 2.636e-3
-1.406, 2.596e-3
-1.405, 2.556e-3
-1.404, 2.516e-3
-1.403, 2.476e-3
-1.402, 2.442e-3
-1.401, 2.408e-3
-1.400, 2.371e-3
-1.399, 2.334e-3
-1.398, 2.294e-3
-1.397, 2.257e-3
-1.396, 2.214e-3
-1.395, 2.177e-3
-1.394, 2.143e-3
-1.393, 2.106e-3
-1.392, 2.072e-3
-1.391, 2.038e-3
-1.390, 2.004e-3
-1.389, 1.970e-3
-1.388, 1.933e-3
-1.387, 1.899e-3
-1.386, 1.859e-3
-1.385, 1.825e-3
-1.384, 1.795e-3
-1.383, 1.764e-3
-1.382, 1.730e-3
-1.381, 1.702e-3
-1.380, 1.668e-3
-1.379, 1.637e-3
-1.378, 1.600e-3
-1.377, 1.566e-3
-1.376, 1.532e-3
-1.375, 1.502e-3
-1.374, 1.471e-3
-1.373, 1.443e-3
-1.372, 1.412e-3
-1.371, 1.384e-3
-1.370, 1.354e-3
-1.369, 1.323e-3
-1.368, 1.292e-3
-1.367, 1.261e-3
-1.366, 1.230e-3
-1.365, 1.203e-3
-1.364, 1.172e-3
-1.363, 1.144e-3
-1.362, 1.116e-3
-1.361, 1.088e-3
-1.360, 1.061e-3
-1.359, 1.033e-3
-1.358, 1.002e-3
-1.357, 9.744e-4
-1.356, 9.436e-4
-1.355, 9.128e-4
-1.354, 8.850e-4
-1.353, 8.603e-4
-1.352, 8.357e-4
-1.351, 8.110e-4
-1.350, 7.833e-4
-1.349, 7.586e-4
-1.348, 7.309e-4
-1.347, 7.031e-4
-1.346, 6.754e-4
-1.345, 6.476e-4
-1.344, 6.199e-4
-1.343, 5.952e-4
-1.342, 5.736e-4
-1.341, 5.489e-4
-1.340, 5.243e-4
-1.339, 4.996e-4
-1.338, 4.750e-4
-1.337, 4.472e-4
-1.336, 4.225e-4
-1.335, 3.979e-4
-1.334, 3.732e-4
-1.333, 3.516e-4
-1.332, 3.300e-4
-1.331, 3.085e-4
-1.330, 2.838e-4
-1.329, 2.622e-4
-1.328, 2.406e-4
-1.327, 2.160e-4
-1.326, 1.913e-4
-1.325, 1.666e-4
-1.324, 1.420e-4
-1.323, 1.235e-4
-1.322, 1.019e-4
-1.321, 8.340e-5
-1.320, 6.182e-5
-1.319, 4.024e-5
-1.318, 1.557e-5
-1.317, -6.010e-6
-1.316, -3.068e-5
-1.315, -5.226e-5
-1.314, -7.384e-5
-1.313, -9.234e-5
-1.312, -1.108e-4
-1.311, -1.293e-4
-1.310, -1.509e-4
-1.309, -1.694e-4
-1.308, -1.910e-4
-1.307, -2.126e-4
-1.306, -2.342e-4
-1.305, -2.557e-4
-1.304, -2.742e-4
-1.303, -2.927e-4
-1.302, -3.112e-4
-1.301, -3.297e-4
-1.300, -3.482e-4
-1.299, -3.667e-4
-1.298, -3.852e-4
-1.297, -4.037e-4
-1.296, -4.253e-4
-1.295, -4.469e-4
-1.294, -4.654e-4
-1.293, -4.839e-4
-1.292, -4.993e-4
-1.291, -5.147e-4
-1.290, -5.332e-4
-1.289, -5.517e-4
-1.288, -5.702e-4
-1.287, -5.887e-4
-1.286, -6.072e-4
-1.285, -6.288e-4
-1.284, -6.442e-4
-1.283, -6.627e-4
-1.282, -6.781e-4
-1.281, -6.935e-4
-1.280, -7.090e-4
-1.279, -7.275e-4
-1.278, -7.460e-4
-1.277, -7.645e-4
-1.276, -7.830e-4
-1.275, -8.015e-4
-1.274, -8.169e-4
-1.273, -8.323e-4
-1.272, -8.477e-4
-1.271, -8.600e-4
-1.270, -8.754e-4
-1.269, -8.909e-4
-1.268, -9.094e-4
-1.267, -9.279e-4
-1.266, -9.464e-4
-1.265, -9.618e-4
-1.264, -9.772e-4
-1.263, -9.957e-4
-1.262, -1.008e-3
-1.261, -1.023e-3
-1.260, -1.039e-3
-1.259, -1.051e-3
-1.258, -1.070e-3
-1.257, -1.085e-3
-1.256, -1.101e-3
-1.255, -1.119e-3
-1.254, -1.134e-3
-1.253, -1.147e-3
-1.252, -1.159e-3
-1.251, -1.171e-3
-1.250, -1.187e-3
-1.249, -1.202e-3
-1.248, -1.218e-3
-1.247, -1.233e-3
-1.246, -1.252e-3
-1.245, -1.267e-3
-1.244, -1.282e-3
-1.243, -1.295e-3
-1.242, -1.307e-3
-1.241, -1.319e-3
-1.240, -1.335e-3
-1.239, -1.350e-3
-1.238, -1.366e-3
-1.237, -1.378e-3
-1.236, -1.396e-3
-1.235, -1.412e-3
-1.234, -1.427e-3
-1.233, -1.440e-3
-1.232, -1.452e-3
-1.231, -1.464e-3
-1.230, -1.477e-3
-1.229, -1.492e-3
-1.228, -1.507e-3
-1.227, -1.523e-3
-1.226, -1.538e-3
-1.225, -1.554e-3
-1.224, -1.566e-3
-1.223, -1.581e-3
-1.222, -1.594e-3
-1.221, -1.606e-3
-1.220, -1.618e-3
-1.219, -1.634e-3
-1.218, -1.649e-3
-1.217, -1.665e-3
-1.216, -1.680e-3
-1.215, -1.696e-3
-1.214, -1.711e-3
-1.213, -1.723e-3
-1.212, -1.736e-3
-1.211, -1.748e-3
-1.210, -1.760e-3
-1.209, -1.776e-3
-1.208, -1.791e-3
-1.207, -1.803e-3
-1.206, -1.822e-3
-1.205, -1.837e-3
-1.204, -1.850e-3
-1.203, -1.865e-3
-1.202, -1.877e-3
-1.201, -1.890e-3
-1.200, -1.902e-3
-1.199, -1.918e-3
-1.198, -1.933e-3
-1.197, -1.948e-3
-1.196, -1.964e-3
-1.195, -1.979e-3
-1.194, -1.995e-3
-1.193, -2.007e-3
-1.192, -2.019e-3
-1.191, -2.035e-3
-1.190, -2.047e-3
-1.189, -2.059e-3
-1.188, -2.078e-3
-1.187, -2.093e-3
-1.186, -2.109e-3
-1.185, -2.127e-3
-1.184, -2.143e-3
-1.183, -2.155e-3
-1.182, -2.167e-3
-1.181, -2.180e-3
-1.180, -2.195e-3
-1.179, -2.207e-3
-1.178, -2.223e-3
-1.177, -2.238e-3
-1.176, -2.257e-3
-1.175, -2.272e-3
-1.174, -2.291e-3
-1.173, -2.303e-3
-1.172, -2.318e-3
-1.171, -2.331e-3
-1.170, -2.343e-3
-1.169, -2.358e-3
-1.168, -2.374e-3
-1.167, -2.392e-3
-1.166, -2.408e-3
-1.165, -2.426e-3
-1.164, -2.439e-3
-1.163, -2.451e-3
-1.162, -2.463e-3
-1.161, -2.479e-3
-1.160, -2.494e-3
-1.159, -2.513e-3
-1.158, -2.531e-3
-1.157, -2.546e-3
-1.156, -2.568e-3
-1.155, -2.583e-3
-1.154, -2.599e-3
-1.153, -2.611e-3
-1.152, -2.627e-3
-1.151, -2.642e-3
-1.150, -2.654e-3
-1.149, -2.673e-3
-1.148, -2.691e-3
-1.147, -2.710e-3
-1.146, -2.728e-3
-1.145, -2.747e-3
-1.144, -2.765e-3
-1.143, -2.781e-3
-1.142, -2.796e-3
-1.141, -2.812e-3
-1.140, -2.827e-3
-1.139, -2.842e-3
-1.138, -2.861e-3
-1.137, -2.879e-3
-1.136, -2.898e-3
-1.135, -2.916e-3
-1.134, -2.932e-3
-1.133, -2.947e-3
-1.132, -2.963e-3
-1.131, -2.975e-3
-1.130, -2.990e-3
-1.129, -3.009e-3
-1.128, -3.024e-3
-1.127, -3.043e-3
-1.126, -3.061e-3
-1.125, -3.074e-3
-1.124, -3.089e-3
-1.123, -3.105e-3
-1.122, -3.123e-3
-1.121, -3.142e-3
-1.120, -3.157e-3
-1.119, -3.175e-3
-1.118, -3.188e-3
-1.117, -3.203e-3
-1.116, -3.222e-3
-1.115, -3.240e-3
-1.114, -3.259e-3
-1.113, -3.274e-3
-1.112, -3.286e-3
-1.111, -3.302e-3
-1.110, -3.314e-3
-1.109, -3.330e-3
-1.108, -3.348e-3
-1.107, -3.367e-3
-1.106, -3.385e-3
-1.105, -3.404e-3
-1.104, -3.422e-3
-1.103, -3.438e-3
-1.102, -3.453e-3
-1.101, -3.465e-3
-1.100, -3.484e-3
-1.099, -3.499e-3
-1.098, -3.518e-3
-1.097, -3.536e-3
-1.096, -3.552e-3
-1.095, -3.564e-3
-1.094, -3.576e-3
-1.093, -3.589e-3
-1.092, -3.604e-3
-1.091, -3.622e-3
-1.090, -3.641e-3
-1.089, -3.659e-3
-1.088, -3.678e-3
-1.087, -3.696e-3
-1.086, -3.715e-3
-1.085, -3.733e-3
-1.084, -3.749e-3
-1.083, -3.761e-3
-1.082, -3.770e-3
-1.081, -3.786e-3
-1.080, -3.798e-3
-1.079, -3.814e-3
-1.078, -3.832e-3
-1.077, -3.848e-3
-1.076, -3.866e-3
-1.075, -3.885e-3
-1.074, -3.903e-3
-1.073, -3.918e-3
-1.072, -3.931e-3
-1.071, -3.946e-3
-1.070, -3.962e-3
-1.069, -3.974e-3
-1.068, -3.992e-3
-1.067, -4.011e-3
-1.066, -4.029e-3
-1.065, -4.048e-3
-1.064, -4.060e-3
-1.063, -4.073e-3
-1.062, -4.085e-3
-1.061, -4.094e-3
-1.060, -4.110e-3
-1.059, -4.122e-3
-1.058, -4.137e-3
-1.057, -4.153e-3
-1.056, -4.168e-3
-1.055, -4.187e-3
-1.054, -4.202e-3
-1.053, -4.218e-3
-1.052, -4.230e-3
-1.051, -4.242e-3
-1.050, -4.258e-3
-1.049, -4.276e-3
-1.048, -4.292e-3
-1.047, -4.307e-3
-1.046, -4.325e-3
-1.045, -4.338e-3
-1.044, -4.353e-3
-1.043, -4.366e-3
-1.042, -4.378e-3
-1.041, -4.390e-3
-1.040, -4.403e-3
-1.039, -4.421e-3
-1.038, -4.436e-3
-1.037, -4.452e-3
-1.036, -4.470e-3
-1.035, -4.486e-3
-1.034, -4.498e-3
-1.033, -4.514e-3
-1.032, -4.526e-3
-1.031, -4.538e-3
-1.030, -4.551e-3
-1.029, -4.563e-3
-1.028, -4.578e-3
-1.027, -4.591e-3
-1.026, -4.606e-3
-1.025, -4.621e-3
-1.024, -4.637e-3
-1.023, -4.649e-3
-1.022, -4.665e-3
-1.021, -4.674e-3
-1.020, -4.686e-3
-1.019, -4.699e-3
-1.018, -4.711e-3
-1.017, -4.720e-3
-1.016, -4.736e-3
-1.015, -4.748e-3
-1.014, -4.757e-3
-1.013, -4.766e-3
-1.012, -4.779e-3
-1.011, -4.785e-3
-1.010, -4.797e-3
-1.009, -4.809e-3
-1.008, -4.828e-3
-1.007, -4.843e-3
-1.006, -4.859e-3
-1.005, -4.871e-3
-1.004, -4.880e-3
-1.003, -4.893e-3
-1.002, -4.902e-3
-1.001, -4.911e-3
