Aug. 18, 2024   15:45:39
Cyclic Voltammetry
File: c:/users/guazh/data/20240813_batch_94_500/2024-08-15-exp123\exp123-2024-08-18t15_29_42-arkoh\exp123_cv_sr_400mvs_efin_-1800mv.bin
Data Source:  Experiment
Instrument Model:  CHI760E
Header: CV ran at 400 mVs
Note: 

Init E (V) = -1
High E (V) = -1
Low E (V) = -1.8
Final E (V) = -1
Init P/N = N
Scan Rate (V/s) = 0.4
Segment = 3
Sample Interval (V) = 0.001
Quiet Time (sec) = 2
Sensitivity (A/V) = 0.01
Comp R (ohm) = 1.4

Results:

Channel 1:
Segment 1:

Segment 2:

Segment 3:

Potential/V, Current/A

-1.000, 3.239e-6
-1.001, 3.239e-6
-1.002, 3.239e-6
-1.003, 3.239e-6
-1.004, 3.239e-6
-1.005, 3.239e-6
-1.006, 3.239e-6
-1.007, 3.239e-6
-1.008, 3.239e-6
-1.009, 3.239e-6
-1.010, 3.239e-6
-1.011, 3.239e-6
-1.012, 3.239e-6
-1.013, 3.239e-6
-1.014, 3.239e-6
-1.015, 3.239e-6
-1.016, 3.239e-6
-1.017, 3.239e-6
-1.018, 3.239e-6
-1.019, 3.239e-6
-1.020, 3.239e-6
-1.021, 6.322e-6
-1.022, 3.239e-6
-1.023, 3.239e-6
-1.024, 3.239e-6
-1.025, 6.322e-6
-1.026, 3.239e-6
-1.027, 6.322e-6
-1.028, 6.322e-6
-1.029, 6.322e-6
-1.030, 3.239e-6
-1.031, 3.239e-6
-1.032, 6.322e-6
-1.033, 6.322e-6
-1.034, 6.322e-6
-1.035, 6.322e-6
-1.036, 3.239e-6
-1.037, 3.239e-6
-1.038, 6.322e-6
-1.039, 3.239e-6
-1.040, 6.322e-6
-1.041, 6.322e-6
-1.042, 6.322e-6
-1.043, 6.322e-6
-1.044, 6.322e-6
-1.045, 6.322e-6
-1.046, 6.322e-6
-1.047, 6.322e-6
-1.048, 6.322e-6
-1.049, 6.322e-6
-1.050, 6.322e-6
-1.051, 6.322e-6
-1.052, 6.322e-6
-1.053, 6.322e-6
-1.054, 6.322e-6
-1.055, 6.322e-6
-1.056, 6.322e-6
-1.057, 6.322e-6
-1.058, 6.322e-6
-1.059, 6.322e-6
-1.060, 6.322e-6
-1.061, 6.322e-6
-1.062, 6.322e-6
-1.063, 6.322e-6
-1.064, 6.322e-6
-1.065, 6.322e-6
-1.066, 6.322e-6
-1.067, 6.322e-6
-1.068, 6.322e-6
-1.069, 6.322e-6
-1.070, 6.322e-6
-1.071, 6.322e-6
-1.072, 6.322e-6
-1.073, 6.322e-6
-1.074, 6.322e-6
-1.075, 6.322e-6
-1.076, 6.322e-6
-1.077, 6.322e-6
-1.078, 6.322e-6
-1.079, 6.322e-6
-1.080, 6.322e-6
-1.081, 6.322e-6
-1.082, 6.322e-6
-1.083, 6.322e-6
-1.084, 6.322e-6
-1.085, 6.322e-6
-1.086, 6.322e-6
-1.087, 6.322e-6
-1.088, 6.322e-6
-1.089, 6.322e-6
-1.090, 6.322e-6
-1.091, 6.322e-6
-1.092, 6.322e-6
-1.093, 6.322e-6
-1.094, 6.322e-6
-1.095, 6.322e-6
-1.096, 6.322e-6
-1.097, 6.322e-6
-1.098, 6.322e-6
-1.099, 6.322e-6
-1.100, 6.322e-6
-1.101, 6.322e-6
-1.102, 6.322e-6
-1.103, 6.322e-6
-1.104, 6.322e-6
-1.105, 6.322e-6
-1.106, 6.322e-6
-1.107, 6.322e-6
-1.108, 6.322e-6
-1.109, 6.322e-6
-1.110, 6.322e-6
-1.111, 6.322e-6
-1.112, 6.322e-6
-1.113, 6.322e-6
-1.114, 6.322e-6
-1.115, 6.322e-6
-1.116, 6.322e-6
-1.117, 6.322e-6
-1.118, 6.322e-6
-1.119, 6.322e-6
-1.120, 6.322e-6
-1.121, 6.322e-6
-1.122, 6.322e-6
-1.123, 6.322e-6
-1.124, 6.322e-6
-1.125, 6.322e-6
-1.126, 6.322e-6
-1.127, 6.322e-6
-1.128, 9.405e-6
-1.129, 6.322e-6
-1.130, 6.322e-6
-1.131, 6.322e-6
-1.132, 6.322e-6
-1.133, 6.322e-6
-1.134, 6.322e-6
-1.135, 6.322e-6
-1.136, 6.322e-6
-1.137, 6.322e-6
-1.138, 6.322e-6
-1.139, 6.322e-6
-1.140, 6.322e-6
-1.141, 6.322e-6
-1.142, 6.322e-6
-1.143, 6.322e-6
-1.144, 6.322e-6
-1.145, 6.322e-6
-1.146, 6.322e-6
-1.147, 6.322e-6
-1.148, 6.322e-6
-1.149, 6.322e-6
-1.150, 6.322e-6
-1.151, 6.322e-6
-1.152, 6.322e-6
-1.153, 6.322e-6
-1.154, 6.322e-6
-1.155, 6.322e-6
-1.156, 6.322e-6
-1.157, 6.322e-6
-1.158, 9.405e-6
-1.159, 6.322e-6
-1.160, 6.322e-6
-1.161, 9.405e-6
-1.162, 6.322e-6
-1.163, 9.405e-6
-1.164, 6.322e-6
-1.165, 9.405e-6
-1.166, 9.405e-6
-1.167, 9.405e-6
-1.168, 9.405e-6
-1.169, 9.405e-6
-1.170, 9.405e-6
-1.171, 9.405e-6
-1.172, 6.322e-6
-1.173, 9.405e-6
-1.174, 9.405e-6
-1.175, 9.405e-6
-1.176, 9.405e-6
-1.177, 9.405e-6
-1.178, 9.405e-6
-1.179, 9.405e-6
-1.180, 9.405e-6
-1.181, 9.405e-6
-1.182, 9.405e-6
-1.183, 9.405e-6
-1.184, 9.405e-6
-1.185, 9.405e-6
-1.186, 9.405e-6
-1.187, 9.405e-6
-1.188, 9.405e-6
-1.189, 9.405e-6
-1.190, 9.405e-6
-1.191, 9.405e-6
-1.192, 9.405e-6
-1.193, 9.405e-6
-1.194, 9.405e-6
-1.195, 9.405e-6
-1.196, 9.405e-6
-1.197, 9.405e-6
-1.198, 9.405e-6
-1.199, 9.405e-6
-1.200, 9.405e-6
-1.201, 9.405e-6
-1.202, 9.405e-6
-1.203, 9.405e-6
-1.204, 9.405e-6
-1.205, 9.405e-6
-1.206, 9.405e-6
-1.207, 9.405e-6
-1.208, 9.405e-6
-1.209, 9.405e-6
-1.210, 9.405e-6
-1.211, 9.405e-6
-1.212, 9.405e-6
-1.213, 9.405e-6
-1.214, 9.405e-6
-1.215, 9.405e-6
-1.216, 9.405e-6
-1.217, 9.405e-6
-1.218, 9.405e-6
-1.219, 9.405e-6
-1.220, 9.405e-6
-1.221, 9.405e-6
-1.222, 9.405e-6
-1.223, 9.405e-6
-1.224, 9.405e-6
-1.225, 9.405e-6
-1.226, 9.405e-6
-1.227, 9.405e-6
-1.228, 9.405e-6
-1.229, 9.405e-6
-1.230, 9.405e-6
-1.231, 9.405e-6
-1.232, 9.405e-6
-1.233, 9.405e-6
-1.234, 9.405e-6
-1.235, 9.405e-6
-1.236, 9.405e-6
-1.237, 9.405e-6
-1.238, 9.405e-6
-1.239, 9.405e-6
-1.240, 9.405e-6
-1.241, 9.405e-6
-1.242, 9.405e-6
-1.243, 9.405e-6
-1.244, 9.405e-6
-1.245, 9.405e-6
-1.246, 9.405e-6
-1.247, 9.405e-6
-1.248, 9.405e-6
-1.249, 9.405e-6
-1.250, 9.405e-6
-1.251, 9.405e-6
-1.252, 1.249e-5
-1.253, 9.405e-6
-1.254, 9.405e-6
-1.255, 9.405e-6
-1.256, 9.405e-6
-1.257, 9.405e-6
-1.258, 9.405e-6
-1.259, 9.405e-6
-1.260, 9.405e-6
-1.261, 9.405e-6
-1.262, 9.405e-6
-1.263, 9.405e-6
-1.264, 9.405e-6
-1.265, 9.405e-6
-1.266, 9.405e-6
-1.267, 9.405e-6
-1.268, 1.249e-5
-1.269, 9.405e-6
-1.270, 1.249e-5
-1.271, 9.405e-6
-1.272, 9.405e-6
-1.273, 9.405e-6
-1.274, 1.249e-5
-1.275, 9.405e-6
-1.276, 9.405e-6
-1.277, 9.405e-6
-1.278, 9.405e-6
-1.279, 9.405e-6
-1.280, 9.405e-6
-1.281, 1.249e-5
-1.282, 9.405e-6
-1.283, 9.405e-6
-1.284, 9.405e-6
-1.285, 1.249e-5
-1.286, 9.405e-6
-1.287, 1.249e-5
-1.288, 1.249e-5
-1.289, 1.249e-5
-1.290, 1.249e-5
-1.291, 1.249e-5
-1.292, 9.405e-6
-1.293, 9.405e-6
-1.294, 1.249e-5
-1.295, 1.249e-5
-1.296, 1.249e-5
-1.297, 1.249e-5
-1.298, 1.249e-5
-1.299, 1.249e-5
-1.300, 1.249e-5
-1.301, 1.249e-5
-1.302, 1.249e-5
-1.303, 1.249e-5
-1.304, 1.249e-5
-1.305, 1.249e-5
-1.306, 1.249e-5
-1.307, 9.405e-6
-1.308, 1.249e-5
-1.309, 1.249e-5
-1.310, 1.249e-5
-1.311, 1.249e-5
-1.312, 1.249e-5
-1.313, 9.405e-6
-1.314, 1.249e-5
-1.315, 1.249e-5
-1.316, 1.249e-5
-1.317, 1.249e-5
-1.318, 1.249e-5
-1.319, 1.249e-5
-1.320, 1.249e-5
-1.321, 1.249e-5
-1.322, 1.249e-5
-1.323, 1.249e-5
-1.324, 1.249e-5
-1.325, 1.249e-5
-1.326, 1.249e-5
-1.327, 1.249e-5
-1.328, 1.249e-5
-1.329, 1.249e-5
-1.330, 1.249e-5
-1.331, 1.249e-5
-1.332, 1.249e-5
-1.333, 1.249e-5
-1.334, 1.249e-5
-1.335, 1.249e-5
-1.336, 1.249e-5
-1.337, 1.249e-5
-1.338, 1.249e-5
-1.339, 1.249e-5
-1.340, 1.249e-5
-1.341, 1.249e-5
-1.342, 1.249e-5
-1.343, 1.249e-5
-1.344, 1.249e-5
-1.345, 1.249e-5
-1.346, 1.249e-5
-1.347, 1.249e-5
-1.348, 1.249e-5
-1.349, 1.249e-5
-1.350, 1.249e-5
-1.351, 1.249e-5
-1.352, 1.249e-5
-1.353, 1.249e-5
-1.354, 1.249e-5
-1.355, 1.249e-5
-1.356, 1.249e-5
-1.357, 1.249e-5
-1.358, 1.249e-5
-1.359, 1.249e-5
-1.360, 1.249e-5
-1.361, 1.249e-5
-1.362, 1.249e-5
-1.363, 1.249e-5
-1.364, 1.249e-5
-1.365, 1.249e-5
-1.366, 1.249e-5
-1.367, 1.249e-5
-1.368, 1.249e-5
-1.369, 1.249e-5
-1.370, 1.249e-5
-1.371, 1.249e-5
-1.372, 1.249e-5
-1.373, 1.249e-5
-1.374, 1.249e-5
-1.375, 1.249e-5
-1.376, 1.249e-5
-1.377, 1.249e-5
-1.378, 1.249e-5
-1.379, 1.249e-5
-1.380, 1.249e-5
-1.381, 1.249e-5
-1.382, 1.249e-5
-1.383, 1.249e-5
-1.384, 1.249e-5
-1.385, 1.249e-5
-1.386, 1.249e-5
-1.387, 1.249e-5
-1.388, 1.249e-5
-1.389, 1.249e-5
-1.390, 1.249e-5
-1.391, 1.249e-5
-1.392, 1.249e-5
-1.393, 1.249e-5
-1.394, 1.249e-5
-1.395, 1.249e-5
-1.396, 1.249e-5
-1.397, 1.249e-5
-1.398, 1.249e-5
-1.399, 1.249e-5
-1.400, 1.249e-5
-1.401, 1.557e-5
-1.402, 1.249e-5
-1.403, 1.249e-5
-1.404, 1.249e-5
-1.405, 1.557e-5
-1.406, 1.249e-5
-1.407, 1.249e-5
-1.408, 1.249e-5
-1.409, 1.249e-5
-1.410, 1.249e-5
-1.411, 1.249e-5
-1.412, 1.557e-5
-1.413, 1.249e-5
-1.414, 1.249e-5
-1.415, 1.249e-5
-1.416, 1.249e-5
-1.417, 1.249e-5
-1.418, 1.249e-5
-1.419, 1.249e-5
-1.420, 1.249e-5
-1.421, 1.249e-5
-1.422, 1.249e-5
-1.423, 1.249e-5
-1.424, 1.249e-5
-1.425, 1.557e-5
-1.426, 1.249e-5
-1.427, 1.557e-5
-1.428, 1.557e-5
-1.429, 1.249e-5
-1.430, 1.249e-5
-1.431, 1.249e-5
-1.432, 1.557e-5
-1.433, 1.249e-5
-1.434, 1.249e-5
-1.435, 1.557e-5
-1.436, 1.249e-5
-1.437, 1.249e-5
-1.438, 1.557e-5
-1.439, 1.557e-5
-1.440, 1.249e-5
-1.441, 1.249e-5
-1.442, 1.557e-5
-1.443, 1.557e-5
-1.444, 1.249e-5
-1.445, 1.557e-5
-1.446, 1.249e-5
-1.447, 1.249e-5
-1.448, 1.557e-5
-1.449, 1.249e-5
-1.450, 1.557e-5
-1.451, 1.249e-5
-1.452, 1.557e-5
-1.453, 1.249e-5
-1.454, 1.249e-5
-1.455, 1.557e-5
-1.456, 1.249e-5
-1.457, 1.249e-5
-1.458, 1.557e-5
-1.459, 1.557e-5
-1.460, 1.557e-5
-1.461, 1.557e-5
-1.462, 1.557e-5
-1.463, 1.557e-5
-1.464, 1.249e-5
-1.465, 1.557e-5
-1.466, 1.557e-5
-1.467, 1.557e-5
-1.468, 1.557e-5
-1.469, 1.557e-5
-1.470, 1.249e-5
-1.471, 1.557e-5
-1.472, 1.557e-5
-1.473, 1.557e-5
-1.474, 1.557e-5
-1.475, 1.557e-5
-1.476, 1.557e-5
-1.477, 1.557e-5
-1.478, 1.557e-5
-1.479, 1.557e-5
-1.480, 1.557e-5
-1.481, 1.557e-5
-1.482, 1.557e-5
-1.483, 1.557e-5
-1.484, 1.557e-5
-1.485, 1.557e-5
-1.486, 1.557e-5
-1.487, 1.557e-5
-1.488, 1.557e-5
-1.489, 1.557e-5
-1.490, 1.557e-5
-1.491, 1.557e-5
-1.492, 1.557e-5
-1.493, 1.557e-5
-1.494, 1.557e-5
-1.495, 1.557e-5
-1.496, 1.557e-5
-1.497, 1.557e-5
-1.498, 1.557e-5
-1.499, 1.557e-5
-1.500, 1.557e-5
-1.501, 1.557e-5
-1.502, 1.557e-5
-1.503, 1.557e-5
-1.504, 1.557e-5
-1.505, 1.557e-5
-1.506, 1.557e-5
-1.507, 1.557e-5
-1.508, 1.557e-5
-1.509, 1.557e-5
-1.510, 1.557e-5
-1.511, 1.557e-5
-1.512, 1.557e-5
-1.513, 1.557e-5
-1.514, 1.557e-5
-1.515, 1.557e-5
-1.516, 1.557e-5
-1.517, 1.557e-5
-1.518, 1.557e-5
-1.519, 1.557e-5
-1.520, 1.557e-5
-1.521, 1.557e-5
-1.522, 1.557e-5
-1.523, 1.557e-5
-1.524, 1.557e-5
-1.525, 1.557e-5
-1.526, 1.557e-5
-1.527, 1.557e-5
-1.528, 1.557e-5
-1.529, 1.557e-5
-1.530, 1.557e-5
-1.531, 1.557e-5
-1.532, 1.557e-5
-1.533, 1.557e-5
-1.534, 1.557e-5
-1.535, 1.557e-5
-1.536, 1.557e-5
-1.537, 1.557e-5
-1.538, 1.557e-5
-1.539, 1.557e-5
-1.540, 1.557e-5
-1.541, 1.557e-5
-1.542, 1.557e-5
-1.543, 1.557e-5
-1.544, 1.557e-5
-1.545, 1.557e-5
-1.546, 1.557e-5
-1.547, 1.557e-5
-1.548, 1.557e-5
-1.549, 1.557e-5
-1.550, 1.557e-5
-1.551, 1.557e-5
-1.552, 1.557e-5
-1.553, 1.557e-5
-1.554, 1.557e-5
-1.555, 1.865e-5
-1.556, 1.557e-5
-1.557, 1.557e-5
-1.558, 1.865e-5
-1.559, 1.557e-5
-1.560, 1.865e-5
-1.561, 1.557e-5
-1.562, 1.865e-5
-1.563, 1.557e-5
-1.564, 1.865e-5
-1.565, 1.865e-5
-1.566, 1.865e-5
-1.567, 1.865e-5
-1.568, 1.865e-5
-1.569, 1.557e-5
-1.570, 1.865e-5
-1.571, 1.865e-5
-1.572, 1.865e-5
-1.573, 1.865e-5
-1.574, 1.865e-5
-1.575, 1.865e-5
-1.576, 1.865e-5
-1.577, 1.865e-5
-1.578, 1.865e-5
-1.579, 1.865e-5
-1.580, 1.865e-5
-1.581, 1.865e-5
-1.582, 1.865e-5
-1.583, 1.865e-5
-1.584, 1.865e-5
-1.585, 1.865e-5
-1.586, 1.865e-5
-1.587, 1.865e-5
-1.588, 1.865e-5
-1.589, 1.865e-5
-1.590, 1.865e-5
-1.591, 1.865e-5
-1.592, 1.865e-5
-1.593, 1.865e-5
-1.594, 1.865e-5
-1.595, 1.865e-5
-1.596, 1.865e-5
-1.597, 1.865e-5
-1.598, 1.865e-5
-1.599, 2.174e-5
-1.600, 2.174e-5
-1.601, 2.174e-5
-1.602, 2.174e-5
-1.603, 2.174e-5
-1.604, 2.174e-5
-1.605, 2.174e-5
-1.606, 2.174e-5
-1.607, 2.174e-5
-1.608, 2.174e-5
-1.609, 2.174e-5
-1.610, 2.174e-5
-1.611, 2.174e-5
-1.612, 2.174e-5
-1.613, 2.174e-5
-1.614, 2.174e-5
-1.615, 2.174e-5
-1.616, 2.174e-5
-1.617, 2.174e-5
-1.618, 2.174e-5
-1.619, 2.482e-5
-1.620, 2.482e-5
-1.621, 2.482e-5
-1.622, 2.482e-5
-1.623, 2.482e-5
-1.624, 2.482e-5
-1.625, 2.482e-5
-1.626, 2.482e-5
-1.627, 2.790e-5
-1.628, 2.790e-5
-1.629, 2.790e-5
-1.630, 2.790e-5
-1.631, 2.790e-5
-1.632, 2.790e-5
-1.633, 2.790e-5
-1.634, 2.790e-5
-1.635, 3.099e-5
-1.636, 3.099e-5
-1.637, 3.099e-5
-1.638, 3.099e-5
-1.639, 3.099e-5
-1.640, 3.099e-5
-1.641, 3.407e-5
-1.642, 3.407e-5
-1.643, 3.407e-5
-1.644, 3.407e-5
-1.645, 3.715e-5
-1.646, 3.407e-5
-1.647, 3.715e-5
-1.648, 3.715e-5
-1.649, 3.715e-5
-1.650, 4.024e-5
-1.651, 4.024e-5
-1.652, 4.024e-5
-1.653, 4.024e-5
-1.654, 4.332e-5
-1.655, 4.332e-5
-1.656, 4.640e-5
-1.657, 4.640e-5
-1.658, 4.640e-5
-1.659, 4.949e-5
-1.660, 4.949e-5
-1.661, 5.257e-5
-1.662, 5.257e-5
-1.663, 5.257e-5
-1.664, 5.565e-5
-1.665, 5.565e-5
-1.666, 5.873e-5
-1.667, 5.873e-5
-1.668, 6.182e-5
-1.669, 6.182e-5
-1.670, 6.490e-5
-1.671, 6.490e-5
-1.672, 6.798e-5
-1.673, 7.107e-5
-1.674, 7.107e-5
-1.675, 7.415e-5
-1.676, 7.723e-5
-1.677, 8.032e-5
-1.678, 8.340e-5
-1.679, 8.340e-5
-1.680, 8.648e-5
-1.681, 8.957e-5
-1.682, 9.265e-5
-1.683, 9.573e-5
-1.684, 9.882e-5
-1.685, 1.019e-4
-1.686, 1.050e-4
-1.687, 1.081e-4
-1.688, 1.111e-4
-1.689, 1.142e-4
-1.690, 1.204e-4
-1.691, 1.235e-4
-1.692, 1.266e-4
-1.693, 1.296e-4
-1.694, 1.327e-4
-1.695, 1.389e-4
-1.696, 1.451e-4
-1.697, 1.481e-4
-1.698, 1.543e-4
-1.699, 1.574e-4
-1.700, 1.636e-4
-1.701, 1.697e-4
-1.702, 1.759e-4
-1.703, 1.790e-4
-1.704, 1.882e-4
-1.705, 1.944e-4
-1.706, 2.006e-4
-1.707, 2.067e-4
-1.708, 2.129e-4
-1.709, 2.191e-4
-1.710, 2.283e-4
-1.711, 2.345e-4
-1.712, 2.437e-4
-1.713, 2.499e-4
-1.714, 2.591e-4
-1.715, 2.684e-4
-1.716, 2.776e-4
-1.717, 2.869e-4
-1.718, 2.961e-4
-1.719, 3.054e-4
-1.720, 3.146e-4
-1.721, 3.270e-4
-1.722, 3.362e-4
-1.723, 3.485e-4
-1.724, 3.609e-4
-1.725, 3.701e-4
-1.726, 3.825e-4
-1.727, 3.948e-4
-1.728, 4.071e-4
-1.729, 4.195e-4
-1.730, 4.349e-4
-1.731, 4.472e-4
-1.732, 4.626e-4
-1.733, 4.750e-4
-1.734, 4.904e-4
-1.735, 5.058e-4
-1.736, 5.243e-4
-1.737, 5.397e-4
-1.738, 5.551e-4
-1.739, 5.736e-4
-1.740, 5.890e-4
-1.741, 6.044e-4
-1.742, 6.229e-4
-1.743, 6.414e-4
-1.744, 6.599e-4
-1.745, 6.815e-4
-1.746, 7.000e-4
-1.747, 7.185e-4
-1.748, 7.401e-4
-1.749, 7.586e-4
-1.750, 7.802e-4
-1.751, 8.018e-4
-1.752, 8.233e-4
-1.753, 8.449e-4
-1.754, 8.696e-4
-1.755, 8.912e-4
-1.756, 9.158e-4
-1.757, 9.405e-4
-1.758, 9.652e-4
-1.759, 9.898e-4
-1.760, 1.014e-3
-1.761, 1.039e-3
-1.762, 1.064e-3
-1.763, 1.092e-3
-1.764, 1.116e-3
-1.765, 1.144e-3
-1.766, 1.172e-3
-1.767, 1.196e-3
-1.768, 1.224e-3
-1.769, 1.252e-3
-1.770, 1.283e-3
-1.771, 1.310e-3
-1.772, 1.338e-3
-1.773, 1.369e-3
-1.774, 1.400e-3
-1.775, 1.431e-3
-1.776, 1.458e-3
-1.777, 1.492e-3
-1.778, 1.523e-3
-1.779, 1.557e-3
-1.780, 1.588e-3
-1.781, 1.622e-3
-1.782, 1.653e-3
-1.783, 1.687e-3
-1.784, 1.721e-3
-1.785, 1.758e-3
-1.786, 1.788e-3
-1.787, 1.825e-3
-1.788, 1.859e-3
-1.789, 1.896e-3
-1.790, 1.930e-3
-1.791, 1.967e-3
-1.792, 2.001e-3
-1.793, 2.038e-3
-1.794, 2.075e-3
-1.795, 2.115e-3
-1.796, 2.152e-3
-1.797, 2.189e-3
-1.798, 2.226e-3
-1.799, 2.266e-3
-1.800, 2.288e-3
-1.799, 2.285e-3
-1.798, 2.279e-3
-1.797, 2.269e-3
-1.796, 2.260e-3
-1.795, 2.251e-3
-1.794, 2.242e-3
-1.793, 2.232e-3
-1.792, 2.220e-3
-1.791, 2.208e-3
-1.790, 2.192e-3
-1.789, 2.180e-3
-1.788, 2.168e-3
-1.787, 2.152e-3
-1.786, 2.140e-3
-1.785, 2.124e-3
-1.784, 2.109e-3
-1.783, 2.094e-3
-1.782, 2.078e-3
-1.781, 2.063e-3
-1.780, 2.047e-3
-1.779, 2.032e-3
-1.778, 2.013e-3
-1.777, 1.998e-3
-1.776, 1.983e-3
-1.775, 1.964e-3
-1.774, 1.949e-3
-1.773, 1.933e-3
-1.772, 1.915e-3
-1.771, 1.899e-3
-1.770, 1.878e-3
-1.769, 1.862e-3
-1.768, 1.844e-3
-1.767, 1.825e-3
-1.766, 1.810e-3
-1.765, 1.791e-3
-1.764, 1.776e-3
-1.763, 1.758e-3
-1.762, 1.739e-3
-1.761, 1.721e-3
-1.760, 1.702e-3
-1.759, 1.687e-3
-1.758, 1.668e-3
-1.757, 1.650e-3
-1.756, 1.634e-3
-1.755, 1.616e-3
-1.754, 1.597e-3
-1.753, 1.579e-3
-1.752, 1.563e-3
-1.751, 1.545e-3
-1.750, 1.526e-3
-1.749, 1.511e-3
-1.748, 1.492e-3
-1.747, 1.474e-3
-1.746, 1.458e-3
-1.745, 1.440e-3
-1.744, 1.425e-3
-1.743, 1.406e-3
-1.742, 1.391e-3
-1.741, 1.372e-3
-1.740, 1.357e-3
-1.739, 1.338e-3
-1.738, 1.323e-3
-1.737, 1.307e-3
-1.736, 1.289e-3
-1.735, 1.273e-3
-1.734, 1.255e-3
-1.733, 1.240e-3
-1.732, 1.224e-3
-1.731, 1.209e-3
-1.730, 1.193e-3
-1.729, 1.178e-3
-1.728, 1.162e-3
-1.727, 1.147e-3
-1.726, 1.132e-3
-1.725, 1.116e-3
-1.724, 1.101e-3
-1.723, 1.085e-3
-1.722, 1.070e-3
-1.721, 1.051e-3
-1.720, 1.039e-3
-1.719, 1.024e-3
-1.718, 1.011e-3
-1.717, 9.960e-4
-1.716, 9.806e-4
-1.715, 9.652e-4
-1.714, 9.528e-4
-1.713, 9.374e-4
-1.712, 9.251e-4
-1.711, 9.097e-4
-1.710, 8.973e-4
-1.709, 8.819e-4
-1.708, 8.696e-4
-1.707, 8.542e-4
-1.706, 8.418e-4
-1.705, 8.295e-4
-1.704, 8.172e-4
-1.703, 8.018e-4
-1.702, 7.894e-4
-1.701, 7.771e-4
-1.700, 7.648e-4
-1.699, 7.524e-4
-1.698, 7.401e-4
-1.697, 7.278e-4
-1.696, 7.154e-4
-1.695, 7.031e-4
-1.694, 6.939e-4
-1.693, 6.784e-4
-1.692, 6.692e-4
-1.691, 6.569e-4
-1.690, 6.445e-4
-1.689, 6.322e-4
-1.688, 6.229e-4
-1.687, 6.106e-4
-1.686, 6.014e-4
-1.685, 5.921e-4
-1.684, 5.798e-4
-1.683, 5.705e-4
-1.682, 5.613e-4
-1.681, 5.489e-4
-1.680, 5.397e-4
-1.679, 5.305e-4
-1.678, 5.212e-4
-1.677, 5.089e-4
-1.676, 4.996e-4
-1.675, 4.904e-4
-1.674, 4.811e-4
-1.673, 4.719e-4
-1.672, 4.626e-4
-1.671, 4.534e-4
-1.670, 4.472e-4
-1.669, 4.380e-4
-1.668, 4.287e-4
-1.667, 4.195e-4
-1.666, 4.133e-4
-1.665, 4.040e-4
-1.664, 3.979e-4
-1.663, 3.886e-4
-1.662, 3.794e-4
-1.661, 3.732e-4
-1.660, 3.640e-4
-1.659, 3.578e-4
-1.658, 3.516e-4
-1.657, 3.424e-4
-1.656, 3.362e-4
-1.655, 3.300e-4
-1.654, 3.208e-4
-1.653, 3.146e-4
-1.652, 3.085e-4
-1.651, 3.023e-4
-1.650, 2.961e-4
-1.649, 2.869e-4
-1.648, 2.838e-4
-1.647, 2.746e-4
-1.646, 2.684e-4
-1.645, 2.653e-4
-1.644, 2.561e-4
-1.643, 2.530e-4
-1.642, 2.468e-4
-1.641, 2.406e-4
-1.640, 2.345e-4
-1.639, 2.314e-4
-1.638, 2.252e-4
-1.637, 2.191e-4
-1.636, 2.160e-4
-1.635, 2.098e-4
-1.634, 2.036e-4
-1.633, 2.006e-4
-1.632, 1.944e-4
-1.631, 1.913e-4
-1.630, 1.851e-4
-1.629, 1.821e-4
-1.628, 1.759e-4
-1.627, 1.728e-4
-1.626, 1.697e-4
-1.625, 1.636e-4
-1.624, 1.605e-4
-1.623, 1.574e-4
-1.622, 1.543e-4
-1.621, 1.481e-4
-1.620, 1.451e-4
-1.619, 1.420e-4
-1.618, 1.389e-4
-1.617, 1.358e-4
-1.616, 1.296e-4
-1.615, 1.266e-4
-1.614, 1.235e-4
-1.613, 1.204e-4
-1.612, 1.173e-4
-1.611, 1.142e-4
-1.610, 1.111e-4
-1.609, 1.111e-4
-1.608, 1.081e-4
-1.607, 1.050e-4
-1.606, 1.019e-4
-1.605, 9.882e-5
-1.604, 9.573e-5
-1.603, 9.265e-5
-1.602, 8.957e-5
-1.601, 8.957e-5
-1.600, 8.648e-5
-1.599, 8.340e-5
-1.598, 8.032e-5
-1.597, 7.723e-5
-1.596, 7.723e-5
-1.595, 7.415e-5
-1.594, 7.415e-5
-1.593, 7.107e-5
-1.592, 6.798e-5
-1.591, 6.798e-5
-1.590, 6.490e-5
-1.589, 6.490e-5
-1.588, 6.182e-5
-1.587, 5.873e-5
-1.586, 5.873e-5
-1.585, 5.565e-5
-1.584, 5.565e-5
-1.583, 5.257e-5
-1.582, 4.949e-5
-1.581, 4.949e-5
-1.580, 4.949e-5
-1.579, 4.640e-5
-1.578, 4.640e-5
-1.577, 4.332e-5
-1.576, 4.332e-5
-1.575, 4.332e-5
-1.574, 4.024e-5
-1.573, 4.024e-5
-1.572, 3.715e-5
-1.571, 3.715e-5
-1.570, 3.715e-5
-1.569, 3.407e-5
-1.568, 3.407e-5
-1.567, 3.099e-5
-1.566, 3.099e-5
-1.565, 3.099e-5
-1.564, 3.099e-5
-1.563, 2.790e-5
-1.562, 2.790e-5
-1.561, 2.790e-5
-1.560, 2.790e-5
-1.559, 2.482e-5
-1.558, 2.482e-5
-1.557, 2.174e-5
-1.556, 2.174e-5
-1.555, 2.174e-5
-1.554, 2.174e-5
-1.553, 2.174e-5
-1.552, 1.865e-5
-1.551, 1.865e-5
-1.550, 1.865e-5
-1.549, 1.865e-5
-1.548, 1.865e-5
-1.547, 1.557e-5
-1.546, 1.557e-5
-1.545, 1.557e-5
-1.544, 1.557e-5
-1.543, 1.557e-5
-1.542, 1.557e-5
-1.541, 1.557e-5
-1.540, 1.249e-5
-1.539, 1.249e-5
-1.538, 1.249e-5
-1.537, 1.249e-5
-1.536, 1.249e-5
-1.535, 1.249e-5
-1.534, 1.249e-5
-1.533, 9.405e-6
-1.532, 9.405e-6
-1.531, 9.405e-6
-1.530, 9.405e-6
-1.529, 9.405e-6
-1.528, 9.405e-6
-1.527, 9.405e-6
-1.526, 9.405e-6
-1.525, 9.405e-6
-1.524, 6.322e-6
-1.523, 6.322e-6
-1.522, 6.322e-6
-1.521, 6.322e-6
-1.520, 6.322e-6
-1.519, 6.322e-6
-1.518, 6.322e-6
-1.517, 6.322e-6
-1.516, 6.322e-6
-1.515, 6.322e-6
-1.514, 3.239e-6
-1.513, 3.239e-6
-1.512, 3.239e-6
-1.511, 6.322e-6
-1.510, 3.239e-6
-1.509, 3.239e-6
-1.508, 3.239e-6
-1.507, 3.239e-6
-1.506, 3.239e-6
-1.505, 3.239e-6
-1.504, 3.239e-6
-1.503, 3.239e-6
-1.502, 3.239e-6
-1.501, 3.239e-6
-1.500, 3.239e-6
-1.499, 3.239e-6
-1.498, 3.239e-6
-1.497, 3.239e-6
-1.496, 3.239e-6
-1.495, 3.239e-6
-1.494, 3.239e-6
-1.493, 3.239e-6
-1.492, 1.559e-7
-1.491, 3.239e-6
-1.490, 1.559e-7
-1.489, 1.559e-7
-1.488, 1.559e-7
-1.487, 3.239e-6
-1.486, 1.559e-7
-1.485, 1.559e-7
-1.484, 1.559e-7
-1.483, 1.559e-7
-1.482, 1.559e-7
-1.481, 1.559e-7
-1.480, 1.559e-7
-1.479, 1.559e-7
-1.478, 1.559e-7
-1.477, 1.559e-7
-1.476, 1.559e-7
-1.475, 1.559e-7
-1.474, 1.559e-7
-1.473, 1.559e-7
-1.472, 1.559e-7
-1.471, 1.559e-7
-1.470, 1.559e-7
-1.469, 1.559e-7
-1.468, 1.559e-7
-1.467, 1.559e-7
-1.466, 1.559e-7
-1.465, 1.559e-7
-1.464, 1.559e-7
-1.463, 1.559e-7
-1.462, -2.927e-6
-1.461, 1.559e-7
-1.460, 1.559e-7
-1.459, 1.559e-7
-1.458, 1.559e-7
-1.457, 1.559e-7
-1.456, -2.927e-6
-1.455, 1.559e-7
-1.454, 1.559e-7
-1.453, 1.559e-7
-1.452, -2.927e-6
-1.451, 1.559e-7
-1.450, 1.559e-7
-1.449, 1.559e-7
-1.448, 1.559e-7
-1.447, 1.559e-7
-1.446, -2.927e-6
-1.445, 1.559e-7
-1.444, -2.927e-6
-1.443, 1.559e-7
-1.442, -2.927e-6
-1.441, 1.559e-7
-1.440, -2.927e-6
-1.439, -2.927e-6
-1.438, 1.559e-7
-1.437, -2.927e-6
-1.436, -2.927e-6
-1.435, 1.559e-7
-1.434, 1.559e-7
-1.433, 1.559e-7
-1.432, -2.927e-6
-1.431, 1.559e-7
-1.430, -2.927e-6
-1.429, -2.927e-6
-1.428, -2.927e-6
-1.427, -2.927e-6
-1.426, -2.927e-6
-1.425, -2.927e-6
-1.424, -2.927e-6
-1.423, -2.927e-6
-1.422, -2.927e-6
-1.421, -2.927e-6
-1.420, -2.927e-6
-1.419, -2.927e-6
-1.418, 1.559e-7
-1.417, -2.927e-6
-1.416, -2.927e-6
-1.415, -2.927e-6
-1.414, -2.927e-6
-1.413, -2.927e-6
-1.412, -2.927e-6
-1.411, 1.559e-7
-1.410, -2.927e-6
-1.409, -2.927e-6
-1.408, 1.559e-7
-1.407, -2.927e-6
-1.406, -2.927e-6
-1.405, -2.927e-6
-1.404, -2.927e-6
-1.403, -2.927e-6
-1.402, -2.927e-6
-1.401, -2.927e-6
-1.400, -2.927e-6
-1.399, -2.927e-6
-1.398, -2.927e-6
-1.397, -2.927e-6
-1.396, 1.559e-7
-1.395, -2.927e-6
-1.394, -2.927e-6
-1.393, -2.927e-6
-1.392, -2.927e-6
-1.391, -2.927e-6
-1.390, -2.927e-6
-1.389, -2.927e-6
-1.388, -2.927e-6
-1.387, -2.927e-6
-1.386, -2.927e-6
-1.385, -2.927e-6
-1.384, -2.927e-6
-1.383, -2.927e-6
-1.382, -2.927e-6
-1.381, -2.927e-6
-1.380, -2.927e-6
-1.379, -2.927e-6
-1.378, -2.927e-6
-1.377, -2.927e-6
-1.376, -2.927e-6
-1.375, -2.927e-6
-1.374, -2.927e-6
-1.373, -2.927e-6
-1.372, -2.927e-6
-1.371, -2.927e-6
-1.370, -2.927e-6
-1.369, -2.927e-6
-1.368, -2.927e-6
-1.367, -2.927e-6
-1.366, -2.927e-6
-1.365, -2.927e-6
-1.364, -2.927e-6
-1.363, -2.927e-6
-1.362, -2.927e-6
-1.361, -2.927e-6
-1.360, -2.927e-6
-1.359, -2.927e-6
-1.358, -2.927e-6
-1.357, -2.927e-6
-1.356, -2.927e-6
-1.355, -2.927e-6
-1.354, -2.927e-6
-1.353, -2.927e-6
-1.352, -2.927e-6
-1.351, -2.927e-6
-1.350, -2.927e-6
-1.349, -2.927e-6
-1.348, -2.927e-6
-1.347, -2.927e-6
-1.346, -2.927e-6
-1.345, -2.927e-6
-1.344, -2.927e-6
-1.343, -2.927e-6
-1.342, -2.927e-6
-1.341, -2.927e-6
-1.340, -2.927e-6
-1.339, -2.927e-6
-1.338, -2.927e-6
-1.337, -2.927e-6
-1.336, -2.927e-6
-1.335, -2.927e-6
-1.334, -2.927e-6
-1.333, -2.927e-6
-1.332, -2.927e-6
-1.331, -2.927e-6
-1.330, -2.927e-6
-1.329, -2.927e-6
-1.328, -2.927e-6
-1.327, -2.927e-6
-1.326, -2.927e-6
-1.325, -2.927e-6
-1.324, -2.927e-6
-1.323, -2.927e-6
-1.322, -2.927e-6
-1.321, -2.927e-6
-1.320, -2.927e-6
-1.319, -2.927e-6
-1.318, -2.927e-6
-1.317, -2.927e-6
-1.316, -2.927e-6
-1.315, -2.927e-6
-1.314, -2.927e-6
-1.313, -2.927e-6
-1.312, -2.927e-6
-1.311, -2.927e-6
-1.310, -2.927e-6
-1.309, -2.927e-6
-1.308, -2.927e-6
-1.307, -2.927e-6
-1.306, -2.927e-6
-1.305, -2.927e-6
-1.304, -2.927e-6
-1.303, -2.927e-6
-1.302, -2.927e-6
-1.301, -2.927e-6
-1.300, -2.927e-6
-1.299, -2.927e-6
-1.298, -2.927e-6
-1.297, -2.927e-6
-1.296, -2.927e-6
-1.295, -2.927e-6
-1.294, -2.927e-6
-1.293, -2.927e-6
-1.292, -2.927e-6
-1.291, -2.927e-6
-1.290, -2.927e-6
-1.289, -2.927e-6
-1.288, -2.927e-6
-1.287, -2.927e-6
-1.286, -2.927e-6
-1.285, -2.927e-6
-1.284, -2.927e-6
-1.283, -2.927e-6
-1.282, -2.927e-6
-1.281, -2.927e-6
-1.280, -2.927e-6
-1.279, -2.927e-6
-1.278, -2.927e-6
-1.277, -2.927e-6
-1.276, -2.927e-6
-1.275, -2.927e-6
-1.274, -2.927e-6
-1.273, -2.927e-6
-1.272, -2.927e-6
-1.271, -2.927e-6
-1.270, -2.927e-6
-1.269, -2.927e-6
-1.268, -2.927e-6
-1.267, -2.927e-6
-1.266, -2.927e-6
-1.265, -2.927e-6
-1.264, -2.927e-6
-1.263, -2.927e-6
-1.262, -2.927e-6
-1.261, -2.927e-6
-1.260, -2.927e-6
-1.259, -2.927e-6
-1.258, -2.927e-6
-1.257, -2.927e-6
-1.256, -2.927e-6
-1.255, -2.927e-6
-1.254, -2.927e-6
-1.253, -2.927e-6
-1.252, -2.927e-6
-1.251, -2.927e-6
-1.250, -2.927e-6
-1.249, -2.927e-6
-1.248, -2.927e-6
-1.247, -2.927e-6
-1.246, -2.927e-6
-1.245, -2.927e-6
-1.244, -2.927e-6
-1.243, -2.927e-6
-1.242, -2.927e-6
-1.241, -2.927e-6
-1.240, -2.927e-6
-1.239, -2.927e-6
-1.238, -2.927e-6
-1.237, -2.927e-6
-1.236, -2.927e-6
-1.235, -2.927e-6
-1.234, -2.927e-6
-1.233, -2.927e-6
-1.232, -2.927e-6
-1.231, -2.927e-6
-1.230, -2.927e-6
-1.229, -2.927e-6
-1.228, -2.927e-6
-1.227, -2.927e-6
-1.226, -2.927e-6
-1.225, -2.927e-6
-1.224, -2.927e-6
-1.223, -2.927e-6
-1.222, -2.927e-6
-1.221, -2.927e-6
-1.220, -2.927e-6
-1.219, -2.927e-6
-1.218, -2.927e-6
-1.217, -2.927e-6
-1.216, -2.927e-6
-1.215, -2.927e-6
-1.214, -2.927e-6
-1.213, -2.927e-6
-1.212, -2.927e-6
-1.211, -2.927e-6
-1.210, -2.927e-6
-1.209, -2.927e-6
-1.208, -2.927e-6
-1.207, -2.927e-6
-1.206, -2.927e-6
-1.205, -2.927e-6
-1.204, -2.927e-6
-1.203, -2.927e-6
-1.202, -2.927e-6
-1.201, -2.927e-6
-1.200, -2.927e-6
-1.199, -2.927e-6
-1.198, -2.927e-6
-1.197, -2.927e-6
-1.196, -2.927e-6
-1.195, -2.927e-6
-1.194, -2.927e-6
-1.193, -2.927e-6
-1.192, -2.927e-6
-1.191, -2.927e-6
-1.190, -2.927e-6
-1.189, -2.927e-6
-1.188, -2.927e-6
-1.187, -2.927e-6
-1.186, -2.927e-6
-1.185, -2.927e-6
-1.184, -2.927e-6
-1.183, -2.927e-6
-1.182, -2.927e-6
-1.181, -2.927e-6
-1.180, -2.927e-6
-1.179, -2.927e-6
-1.178, -2.927e-6
-1.177, -2.927e-6
-1.176, -2.927e-6
-1.175, -2.927e-6
-1.174, -2.927e-6
-1.173, -2.927e-6
-1.172, -2.927e-6
-1.171, -2.927e-6
-1.170, -2.927e-6
-1.169, -2.927e-6
-1.168, -2.927e-6
-1.167, -2.927e-6
-1.166, -2.927e-6
-1.165, -2.927e-6
-1.164, -2.927e-6
-1.163, -2.927e-6
-1.162, -2.927e-6
-1.161, -2.927e-6
-1.160, -2.927e-6
-1.159, -2.927e-6
-1.158, -2.927e-6
-1.157, -2.927e-6
-1.156, -2.927e-6
-1.155, -2.927e-6
-1.154, -2.927e-6
-1.153, -2.927e-6
-1.152, -2.927e-6
-1.151, -2.927e-6
-1.150, -2.927e-6
-1.149, -2.927e-6
-1.148, -2.927e-6
-1.147, -2.927e-6
-1.146, -2.927e-6
-1.145, -2.927e-6
-1.144, -2.927e-6
-1.143, -2.927e-6
-1.142, -2.927e-6
-1.141, -2.927e-6
-1.140, -2.927e-6
-1.139, -2.927e-6
-1.138, -2.927e-6
-1.137, -2.927e-6
-1.136, -2.927e-6
-1.135, -2.927e-6
-1.134, -2.927e-6
-1.133, -2.927e-6
-1.132, -2.927e-6
-1.131, -2.927e-6
-1.130, -2.927e-6
-1.129, -2.927e-6
-1.128, -2.927e-6
-1.127, -2.927e-6
-1.126, -2.927e-6
-1.125, -2.927e-6
-1.124, -2.927e-6
-1.123, -2.927e-6
-1.122, -2.927e-6
-1.121, -2.927e-6
-1.120, -2.927e-6
-1.119, -2.927e-6
-1.118, -2.927e-6
-1.117, -2.927e-6
-1.116, -2.927e-6
-1.115, -2.927e-6
-1.114, -2.927e-6
-1.113, -2.927e-6
-1.112, -2.927e-6
-1.111, -2.927e-6
-1.110, -2.927e-6
-1.109, -2.927e-6
-1.108, -2.927e-6
-1.107, -2.927e-6
-1.106, -2.927e-6
-1.105, -2.927e-6
-1.104, -2.927e-6
-1.103, -2.927e-6
-1.102, -2.927e-6
-1.101, -2.927e-6
-1.100, -2.927e-6
-1.099, -2.927e-6
-1.098, -2.927e-6
-1.097, -2.927e-6
-1.096, -2.927e-6
-1.095, -2.927e-6
-1.094, -2.927e-6
-1.093, -2.927e-6
-1.092, -2.927e-6
-1.091, -2.927e-6
-1.090, -2.927e-6
-1.089, -2.927e-6
-1.088, -2.927e-6
-1.087, -2.927e-6
-1.086, -2.927e-6
-1.085, -2.927e-6
-1.084, -2.927e-6
-1.083, -2.927e-6
-1.082, -2.927e-6
-1.081, -2.927e-6
-1.080, -2.927e-6
-1.079, -2.927e-6
-1.078, -2.927e-6
-1.077, -2.927e-6
-1.076, -2.927e-6
-1.075, -2.927e-6
-1.074, -2.927e-6
-1.073, -2.927e-6
-1.072, -2.927e-6
-1.071, -2.927e-6
-1.070, -2.927e-6
-1.069, -2.927e-6
-1.068, -2.927e-6
-1.067, -2.927e-6
-1.066, -2.927e-6
-1.065, -2.927e-6
-1.064, -2.927e-6
-1.063, -2.927e-6
-1.062, -2.927e-6
-1.061, -2.927e-6
-1.060, -2.927e-6
-1.059, -2.927e-6
-1.058, -2.927e-6
-1.057, -2.927e-6
-1.056, -2.927e-6
-1.055, -2.927e-6
-1.054, -2.927e-6
-1.053, -2.927e-6
-1.052, -2.927e-6
-1.051, -2.927e-6
-1.050, -2.927e-6
-1.049, -2.927e-6
-1.048, -2.927e-6
-1.047, -2.927e-6
-1.046, -2.927e-6
-1.045, -2.927e-6
-1.044, -2.927e-6
-1.043, -2.927e-6
-1.042, -2.927e-6
-1.041, -2.927e-6
-1.040, -2.927e-6
-1.039, -2.927e-6
-1.038, -2.927e-6
-1.037, -2.927e-6
-1.036, -2.927e-6
-1.035, -2.927e-6
-1.034, -2.927e-6
-1.033, -2.927e-6
-1.032, -2.927e-6
-1.031, -2.927e-6
-1.030, -2.927e-6
-1.029, -2.927e-6
-1.028, -2.927e-6
-1.027, -2.927e-6
-1.026, -2.927e-6
-1.025, -2.927e-6
-1.024, -2.927e-6
-1.023, -2.927e-6
-1.022, -2.927e-6
-1.021, -2.927e-6
-1.020, -2.927e-6
-1.019, -2.927e-6
-1.018, -2.927e-6
-1.017, -2.927e-6
-1.016, -2.927e-6
-1.015, -2.927e-6
-1.014, -2.927e-6
-1.013, -2.927e-6
-1.012, -2.927e-6
-1.011, -2.927e-6
-1.010, -2.927e-6
-1.009, -2.927e-6
-1.008, -2.927e-6
-1.007, -2.927e-6
-1.006, -2.927e-6
-1.005, -2.927e-6
-1.004, -2.927e-6
-1.003, -2.927e-6
-1.002, -2.927e-6
-1.001, -2.927e-6
