Potential V vs RHE, Current mA cm-2
0.013299999999999867,-3.447651437771094
0.012299999999999978,-6.762320013354876
0.011299999999999866,-9.772825659467674
0.010299999999999976,-12.476338953509758
0.009299999999999864,-14.967645552572087
0.008299999999999974,-17.146300954364243
0.007299999999999862,-19.155191000172596
0.006299999999999972,-20.93772723800254
0.00529999999999986,-22.592939458844636
0.0042999999999999705,-24.120827662698876
0.0032999999999998586,-25.563833188561212
0.0022999999999999687,-26.9643973754276
0.0012999999999998568,-28.308373110299385
0.00029999999999996696,-29.525024828183312
-0.000700000000000145,-30.79826499806185
-0.0017000000000000348,-31.930034037953877
-0.0027000000000001467,-32.93447906085806
-0.0037000000000000366,-33.93892408376223
-0.0047000000000001485,-34.85848642867451
-0.005700000000000038,-35.679018982596226
-0.00670000000000015,-36.37222751953009
-0.00770000000000004,-37.164465847454515
-0.008700000000000152,-37.94255706238028
-0.009700000000000042,-38.692354051308754
-0.010700000000000154,-39.47044526623452
-0.011700000000000044,-40.220242255162994
-0.012700000000000156,-40.95589213109281
-0.013700000000000045,-41.606659329030734
-0.014700000000000157,-42.2715736399673
-0.015700000000000047,-42.837458159913304
-0.01670000000000016,-43.36090134086337
-0.01770000000000005,-43.79946184382153
-0.01870000000000016,-44.223875233781044
-0.01970000000000005,-44.704877075735155
-0.020700000000000163,-45.18587891768927
-0.021700000000000053,-45.75176343763528
-0.022700000000000164,-46.2327652795894
-0.023700000000000054,-46.75620846053947
-0.024700000000000166,-47.27965164148953
-0.025700000000000056,-47.76065348344364
-0.026700000000000168,-48.156772647405845
-0.027700000000000058,-48.45386202037751
-0.02870000000000017,-48.76509850634781
-0.02970000000000006,-49.03389365332217
-0.03070000000000017,-49.33098302629383
-0.03170000000000006,-49.59977817326819
-0.03270000000000017,-49.98175022423175
-0.03370000000000006,-50.335428049198
-0.034700000000000175,-50.68910587416426
-0.035700000000000065,-51.127666377122424
-0.03670000000000018,-51.46719708909004
-0.03770000000000007,-51.82087491405629
-0.03870000000000018,-52.075522948032
-0.03970000000000007,-52.34431809500636
-0.04070000000000018,-52.55652478998611
-0.04170000000000007,-52.74043725896857
-0.04270000000000018,-52.95264395394832
-0.04370000000000007,-53.16485064892808
-0.044700000000000184,-53.476087134898386
-0.045700000000000074,-53.7873236208687
-0.046700000000000186,-54.1268543328363
-0.047700000000000076,-54.43809081880661
-0.04870000000000019,-54.65029751378637
-0.04970000000000008,-54.961533999756675
-0.05070000000000019,-55.13129935574048
-0.05170000000000008,-55.357653163718886
-0.05270000000000019,-55.484977180706736
-0.05370000000000008,-55.612301197694585
-0.05470000000000019,-55.7820665536784
-0.05570000000000008,-55.96597902266086
-0.056700000000000195,-56.22062705663656
-0.057700000000000085,-56.489422203610914
-0.058700000000000196,-56.70162889859067
-0.059700000000000086,-56.97042404556503
-0.0607000000000002,-57.182630740544774
-0.06170000000000009,-57.408984548523186
-0.0627000000000002,-57.53630856551105
-0.06370000000000009,-57.66363258249889
-0.0647000000000002,-57.8333979384827
-0.06570000000000009,-57.93242772947325
-0.0667000000000002,-58.05975174646111
-0.0677000000000001,-58.22951710244491
-0.0687000000000002,-58.45587091042332
-0.0697000000000001,-58.71051894439902
-0.07070000000000021,-58.97931409137338
-0.0717000000000001,-59.19152078635314
-0.07270000000000021,-59.403727481332886
-0.0737000000000001,-59.587639950315335
-0.07470000000000021,-59.67252262830725
-0.0757000000000001,-59.7998466452951
-0.07670000000000021,-59.884729323287
-0.0777000000000001,-59.9696120012789
-0.07870000000000021,-60.15352447026136
-0.0797000000000001,-60.32328982624517
-0.08070000000000022,-60.59208497321952
-0.0817000000000001,-60.80429166819927
-0.08270000000000022,-61.07308681517363
-0.08370000000000011,-61.242852171157445
-0.08470000000000022,-61.412617527141244
-0.08570000000000011,-61.53994154412909
-0.08670000000000022,-61.63897133511965
-0.08770000000000011,-61.72385401311155
-0.08870000000000022,-61.7662953521075
-0.08970000000000011,-61.89361936909536
-0.09070000000000022,-62.02094338608321
-0.09170000000000011,-62.24729719406162
-0.09270000000000023,-62.459503889041365
-0.09370000000000012,-62.64341635802381
-0.09470000000000023,-62.89806439199953
-0.09570000000000012,-63.11027108697928
-0.09670000000000023,-63.29418355596174
-0.09770000000000012,-63.421507572949594
-0.09870000000000023,-63.54883158993744
-0.09970000000000012,-63.633714267929356
-0.10070000000000023,-63.77518539791585
-0.10170000000000012,-63.902509414903705
-0.10270000000000024,-64.0722747708875
-0.10370000000000013,-64.29862857886593
-0.10470000000000024,-64.55327661284163
-0.10570000000000013,-64.77963042082003
-0.10670000000000024,-64.99183711579978
-0.10770000000000013,-65.2464851497755
-0.10870000000000024,-65.38795627976201
-0.10970000000000013,-65.51528029674984
-0.11070000000000024,-65.64260431373769
-0.11170000000000013,-65.76992833072556
-0.11270000000000002,-65.91139946071206
-0.11370000000000013,-66.03872347769992
-0.11470000000000002,-66.25093017267966
-0.11570000000000014,-66.43484264166212
-0.11670000000000003,-66.68949067563783
-0.11770000000000014,-66.9582858226122
-0.11870000000000003,-67.17049251759194
-0.11970000000000014,-67.43928766456631
-0.12070000000000003,-67.56661168155415
-0.12170000000000014,-67.73637703753796
-0.12270000000000003,-67.86370105452582
-0.12370000000000014,-68.0051721845123
-0.12470000000000003,-68.17493754049613
-0.12570000000000014,-68.34470289647993
-0.12670000000000003,-68.61349804345427
-0.12770000000000015,-68.86814607742998
-0.12870000000000004,-69.13694122440434
-0.12970000000000015,-69.4906190493706
-0.13070000000000004,-69.74526708334632
-0.13170000000000015,-70.01406223032066
-0.13270000000000004,-70.18382758630447
-0.13370000000000015,-70.31115160329232
-0.13470000000000004,-70.53750541127073
-0.13570000000000015,-70.66482942825859
-0.13670000000000004,-70.87703612323833
-0.13770000000000016,-71.1458312702127
-0.13870000000000005,-71.48536198218031
-0.13970000000000016,-71.75415712915466
-0.14070000000000005,-72.10783495412092
-0.14170000000000016,-72.36248298809663
-0.14270000000000005,-72.63127813507097
-0.14370000000000016,-72.8859261690467
-0.14470000000000005,-73.09813286402644
-0.14570000000000016,-73.23960399401295
-0.14670000000000005,-73.40936934999675
-0.14770000000000016,-73.6781644969711
-0.14870000000000005,-73.93281253094682
-0.14970000000000017,-74.20160767792116
-0.15070000000000006,-74.58357972888473
-0.15170000000000017,-74.89481621485504
-0.15270000000000006,-75.2484940398213
-0.15370000000000017,-75.5880247517889
-0.15470000000000006,-75.94170257675518
-0.15570000000000017,-76.19635061073087
-0.15670000000000006,-76.46514575770523
-0.15770000000000017,-76.67735245268499
-0.15870000000000006,-76.94614759965934
-0.15970000000000018,-77.243236972631
-0.16070000000000007,-77.51203211960537
-0.16170000000000018,-77.90815128356756
-0.16270000000000007,-78.29012333453113
-0.16370000000000018,-78.68624249849334
-0.16470000000000007,-79.1248030014515
-0.16570000000000018,-79.52092216541372
-0.16670000000000007,-79.86045287738132
-0.16770000000000018,-80.12924802435568
-0.16870000000000007,-80.42633739732734
-0.16970000000000018,-80.69513254430169
-0.17070000000000007,-80.99222191727335
-0.17170000000000019,-81.30345840324367
-0.17270000000000008,-81.65713622820991
-0.1737000000000002,-82.03910827917348
-0.17470000000000008,-82.43522744313569
-0.1757000000000002,-82.87378794609386
-0.17670000000000008,-83.31234844905201
-0.1777000000000002,-83.75090895201016
-0.17870000000000008,-84.09043966397778
-0.1797000000000002,-84.44411748894404
-0.18070000000000008,-84.75535397491434
-0.1817000000000002,-85.052443347886
-0.18270000000000008,-85.40612117285227
-0.1837000000000002,-85.75979899781852
-0.1847000000000001,-86.18421238777805
-0.1857000000000002,-86.6227728907362
-0.1867000000000001,-87.14621607168625
-0.1877000000000002,-87.66965925263632
-0.1887000000000001,-88.10821975559449
-0.1897000000000002,-88.5892215975486
-0.1907000000000001,-89.02778210050676
-0.1917000000000001,-89.36731281247435
-0.19269999999999998,-89.76343197643658
-0.1937000000000001,-90.11710980140283
-0.19469999999999998,-90.55567030436099
-0.1957000000000001,-90.99423080731917
-0.19669999999999999,-91.46108553627462
-0.1977000000000001,-91.94208737822873
-0.1987,-92.4655305591788
-0.1997000000000001,-92.98897374012887
-0.2007,-93.46997558208298
-0.2017000000000001,-93.90853608504113
-0.2027,-94.34709658799929
-0.2037000000000001,-94.78565709095746
-0.2047,-95.12518780292505
-0.2057000000000001,-95.56374830588322
-0.2067,-96.00230880884139
-0.2077000000000001,-96.4833106507955
-0.2087,-97.00675383174556
-0.2097000000000001,-97.57263835169158
-0.2107,-98.13852287163759
-0.2117000000000001,-98.7044073915836
-0.2127,-99.22785057253368
-0.2137000000000001,-99.70885241448778
-0.2147,-100.18985425644189
-0.2157000000000001,-100.75573877638791
-0.2167,-101.23674061834203
-0.21770000000000012,-101.6753011213002
-0.2187,-102.1563029632543
-0.21970000000000012,-102.72218748320032
-0.2207,-103.28807200314633
-0.22170000000000012,-103.85395652309235
-0.2227,-104.50472372103027
-0.22370000000000012,-105.11304957997223
-0.2247,-105.69308121291688
-0.22570000000000012,-106.15993594187235
-0.2267,-106.64093778382647
-0.22770000000000012,-107.12193962578058
-0.22870000000000001,-107.51805878974278
-0.22970000000000013,-108.0839433096888
-0.23070000000000002,-108.60738649063886
-0.23170000000000013,-109.17327101058488
-0.23270000000000002,-109.78159686952685
-0.23370000000000013,-110.40406984146746
-0.23470000000000002,-111.01239570040943
-0.23570000000000013,-111.66316289834735
-0.23670000000000002,-112.22904741829338
-0.2376999999999999,-112.75249059924342
-0.23870000000000002,-113.27593378019348
-0.2396999999999999,-113.79937696114357
-0.24070000000000003,-114.3228201420936
-0.24169999999999991,-114.88870466203963
-0.24270000000000003,-115.4970305209816
-0.24369999999999992,-116.14779771891952
-0.24470000000000003,-116.81271202985609
-0.24569999999999992,-117.50592056678994
-0.24670000000000003,-118.15668776472786
-0.24769999999999992,-118.86404341466037
-0.24870000000000003,-119.4299279346064
-0.24969999999999992,-119.99581245455242
-0.25070000000000003,-120.56169697449842
-0.2516999999999999,-121.12758149444444
-0.25270000000000004,-121.73590735338641
-0.2536999999999999,-122.34423321232836
-0.25470000000000004,-122.95255907127036
-0.2556999999999999,-123.6174733822069
-0.25670000000000004,-124.31068191914078
-0.25769999999999993,-125.00389045607463
-0.25870000000000004,-125.6688047670112
-0.25969999999999993,-126.36201330394509
-0.26070000000000004,-126.97033916288706
-0.26169999999999993,-127.57866502182902
-0.26270000000000004,-128.144549541775
-0.26369999999999993,-128.66799272272507
-0.26470000000000005,-129.27631858166706
-0.26569999999999994,-129.9412328926036
-0.26670000000000005,-130.7193241075294
-0.26769999999999994,-131.37009130546733
-0.26870000000000005,-132.11988829439576
-0.26969999999999994,-132.8555381703256
-0.27070000000000005,-133.60533515925405
-0.27169999999999994,-134.256102357192
-0.27270000000000005,-134.94931089412586
-0.27369999999999994,-135.6142252050624
-0.27470000000000006,-136.26499240300032
-0.27569999999999995,-136.91575960093826
-0.27670000000000006,-137.56652679887617
-0.27769999999999995,-138.23144110981272
-0.27870000000000006,-139.0095323247385
-0.27969999999999995,-139.80177065266292
-0.28070000000000006,-140.5798618675887
-0.28169999999999995,-141.3721001955131
-0.28270000000000006,-142.03701450644968
-0.28369999999999995,-142.7443701563822
-0.28470000000000006,-143.4517258063147
-0.28569999999999995,-144.01761032626072
-0.28670000000000007,-144.72496597619326
-0.28769999999999996,-145.43232162612577
-0.28870000000000007,-146.1396772760583
-0.28969999999999996,-146.8470329259908
-0.29070000000000007,-147.55438857592333
-0.29169999999999996,-148.40321535584232
-0.29270000000000007,-149.25204213576137
-0.29369999999999996,-150.1008689156804
-0.2947000000000001,-150.8082245656129
-0.29569999999999996,-151.5155802155454
-0.2967000000000001,-152.22293586547795
-0.29769999999999996,-152.93029151541046
-0.2987000000000001,-153.63764716534297
-0.29969999999999997,-154.3450028152755
-0.3007000000000001,-155.19382959519453
-0.30169999999999997,-156.04265637511355
-0.3027000000000001,-156.89148315503257
-0.30369999999999997,-157.7403099349516
-0.3047000000000001,-158.5891367148706
-0.30569999999999997,-159.43796349478964
-0.3067000000000001,-160.28679027470866
-0.3077,-160.99414592464117
-0.3087000000000001,-161.84297270456022
-0.3097,-162.5503283544927
-0.3107000000000001,-163.39915513441173
-0.3117,-164.10651078434424
-0.3127000000000001,-164.9553375642633
-0.3137,-165.8041643441823
-0.3147000000000001,-166.65299112410133
-0.3157,-167.6432890340068
-0.3167000000000001,-168.49211581392586
-0.3177,-169.3409425938449
-0.3187000000000001,-170.18976937376394
-0.3197,-171.03859615368293
-0.3207000000000001,-171.74595180361547
-0.3217,-172.59477858353446
-0.3227000000000001,-173.44360536345349
-0.3237,-174.150961013386
-0.3247000000000001,-175.14125892329156
-0.3257,-175.99008570321055
-0.3267000000000001,-176.98038361311612
-0.3277,-177.9706815230216
-0.3287000000000001,-178.96097943292713
-0.3297,-179.80980621284618
-0.3307000000000001,-180.8001041227517
-0.3317,-181.64893090267074
-0.3327000000000001,-182.63922881257625
-0.3337,-183.48805559249527
-0.3347000000000001,-184.33688237241427
-0.3357,-185.3271802823198
-0.3367000000000001,-186.31747819222534
-0.3377,-187.30777610213087
-0.3387000000000001,-188.4395451420229
-0.3397,-189.42984305192843
-0.3407000000000001,-190.42014096183394
-0.3417,-191.41043887173947
-0.3427000000000001,-192.40073678164498
-0.3437,-193.249563561564
-0.3447000000000001,-194.2398614714695
-0.3457,-195.08868825138856
-0.3467000000000001,-196.0789861612941
-0.3477,-197.0692840711996
-0.3487000000000001,-198.20105311109162
-0.3497,-199.19135102099716
-0.3507000000000001,-200.3231200608892
-0.3517,-201.31341797079472
-0.3527000000000001,-202.44518701068677
-0.3537,-203.57695605057876
-0.3547000000000001,-204.5672539604843
-0.3557,-205.55755187038983
-0.35670000000000013,-206.54784978029537
-0.3577,-207.67961882018741
-0.35870000000000013,-208.6699167300929
-0.3597,-209.8016857699849
-0.36070000000000013,-211.07492593986345
-0.3617,-212.2066949797555
-0.3626999999999999,-213.47993514963403
-0.3637,-214.61170418952605
-0.3646999999999999,-215.7434732294181
-0.3657,-216.87524226931012
-0.3666999999999999,-218.00701130920217
-0.3677,-219.13878034909416
-0.3686999999999999,-220.2705493889862
-0.36970000000000003,-221.40231842887826
-0.3706999999999999,-222.3926163387838
-0.37170000000000003,-223.6658565086623
-0.3726999999999999,-224.93909667854084
-0.37370000000000003,-226.21233684841937
-0.3746999999999999,-227.4855770182979
-0.37570000000000003,-228.61734605818995
-0.3766999999999999,-229.89058622806846
-0.37770000000000004,-231.163826397947
-0.3786999999999999,-232.29559543783904
-0.37970000000000004,-233.4273644777311
-0.3806999999999999,-234.55913351762308
-0.38170000000000004,-235.83237368750162
-0.38269999999999993,-237.10561385738015
-0.38370000000000004,-238.37885402725868
-0.38469999999999993,-239.65209419713722
-0.38570000000000004,-241.06680549700224
-0.38669999999999993,-239.93503645711021
-0.38570000000000004,-234.55913351762308
-0.38469999999999993,-229.74911509808197
-0.38370000000000004,-225.36351006850035
-0.38269999999999993,-221.11937616890526
-0.38170000000000004,-217.15818452928315
-0.3806999999999999,-213.47993514963403
-0.37970000000000004,-209.8016857699849
-0.3786999999999999,-206.40637865030885
-0.37770000000000004,-203.15254266061928
-0.3766999999999999,-200.04017780091618
-0.37570000000000003,-196.92781294121312
-0.3746999999999999,-193.9569192114965
-0.37370000000000003,-190.98602548177996
-0.3726999999999999,-188.01513175206335
-0.37170000000000003,-185.0442380223468
-0.3706999999999999,-182.21481542261674
-0.36970000000000003,-179.24392169290016
-0.3686999999999999,-176.4144990931701
-0.3677,-173.72654762342648
-0.3666999999999999,-171.18006728366944
-0.3657,-168.49211581392586
-0.3646999999999999,-165.94563547416882
-0.3637,-163.54062626439824
-0.3626999999999999,-160.99414592464117
-0.3617,-158.4476655848841
-0.36070000000000013,-156.04265637511355
-0.3597,-153.49617603535648
-0.35870000000000013,-151.09116682558593
-0.3577,-148.68615761581535
-0.35670000000000013,-146.28114840604482
-0.3557,-144.01761032626072
-0.3547000000000001,-141.75407224647665
-0.3537,-139.49053416669264
-0.3527000000000001,-137.31187876490046
-0.3517,-135.17566470210423
-0.3507000000000001,-132.9404208483175
-0.3497,-130.76176544652535
-0.3487000000000001,-128.5831100447332
-0.3477,-126.40445464294103
-0.3467000000000001,-124.18335790215292
-0.3457,-122.00470250036076
-0.3447000000000001,-119.86848843756455
-0.3437,-117.81715705276027
-0.3427000000000001,-115.76582566795594
-0.3417,-113.75693562214758
-0.3407000000000001,-111.83292825433115
-0.3397,-109.8806266605174
-0.3387000000000001,-107.95661929270095
-0.3377,-105.94772924689259
-0.3367000000000001,-103.93883920108425
-0.3357,-101.92994915527588
-0.3347000000000001,-99.93520622246619
-0.3337,-98.05364019364569
-0.3327000000000001,-96.12963282582925
-0.3317,-94.30465524900335
-0.3307000000000001,-92.50797189817473
-0.3297,-90.81031833833671
-0.3287000000000001,-89.07022343950271
-0.3277,-87.33012854066871
-0.3267000000000001,-85.57588652883607
-0.3257,-83.79335029100612
-0.3247000000000001,-81.99666694017753
-0.3237,-80.17168936335163
-0.3227000000000001,-78.43159446451764
-0.3217,-76.67735245268499
-0.3207000000000001,-75.02214023184291
-0.3197,-73.40936934999675
-0.3187000000000001,-71.7965984681506
-0.3177,-70.26871026429637
-0.3167000000000001,-68.65593938245023
-0.3157,-67.04316850060408
-0.3147000000000001,-65.43039761875795
-0.3137,-63.81762673691181
-0.3127000000000001,-62.11997317707376
-0.3117,-60.49305518222897
-0.3107000000000001,-58.880284300382826
-0.3097,-57.26751341853669
-0.3087000000000001,-55.7820665536784
-0.3077,-54.35320814081471
-0.3067000000000001,-52.91020261495237
-0.30569999999999997,-51.509638428085985
-0.3047000000000001,-50.0807800152223
-0.30369999999999997,-48.68021582835591
-0.3027000000000001,-47.19476896349763
-0.30169999999999997,-45.70932209863933
-0.3007000000000001,-44.223875233781044
-0.29969999999999997,-42.752575481921404
-0.2987000000000001,-41.352011295055014
-0.29769999999999996,-39.95144710818864
-0.2967000000000001,-38.6499127123128
-0.29569999999999996,-37.291789864442364
-0.2947000000000001,-35.99025546856653
-0.29369999999999996,-34.75945663768395
-0.29270000000000007,-33.50036358080407
-0.29169999999999996,-32.184682071929586
-0.29070000000000007,-30.88314767605375
-0.28969999999999996,-29.525024828183312
-0.28870000000000007,-28.18104909331153
-0.28769999999999996,-26.822926245441096
-0.28670000000000007,-25.521391849565262
-0.28569999999999995,-24.24815167968673
-0.28470000000000006,-23.031499961802798
-0.28369999999999995,-21.814848243918867
-0.28270000000000006,-20.683079204026836
-0.28169999999999995,-19.49472171214021
-0.28070000000000006,-18.320511333252224
-0.27969999999999995,-17.146300954364243
-0.27870000000000006,-15.91550212348166
-0.27769999999999995,-14.69885040559773
-0.27670000000000006,-13.47936926511407
-0.27569999999999995,-12.302329463626359
-0.27470000000000006,-11.123874950838783
-0.27369999999999994,-10.078403300238522
-0.27270000000000005,-8.987660888042578
-0.27169999999999994,-7.940774526142452
-0.27070000000000005,-6.93774421453814
-0.26969999999999994,-5.890857852638012
-0.26870000000000005,-4.843971490737885
-0.26769999999999994,-3.7532290785419424
-0.26670000000000005,-2.618630616050183
