Potential V vs RHE, Current mA cm-2
0.013299999999999867,-3.623075638954359
0.012299999999999978,-6.719878674358924
0.011299999999999866,-9.293238528813426
0.010299999999999976,-11.56102074249708
0.009299999999999864,-13.610937416001518
0.008299999999999974,-15.3920589425316
0.007299999999999862,-17.188742293360193
0.006299999999999972,-18.80151317520634
0.00529999999999986,-20.244518701068674
0.0042999999999999705,-21.54605309694451
0.0032999999999998586,-22.67782213683654
0.0022999999999999687,-23.639825820744765
0.0012999999999998568,-24.559388165657033
0.00029999999999996696,-25.43650917157336
-0.000700000000000145,-26.38436574248293
-0.0017000000000000348,-27.261486748399253
-0.0027000000000001467,-28.18104909331153
-0.0037000000000000366,-28.91669896924135
-0.0047000000000001485,-29.581613280177915
-0.005700000000000038,-30.147497800123933
-0.00670000000000015,-30.670940981073993
-0.00770000000000004,-31.137795710029454
-0.008700000000000152,-31.717827342974125
-0.009700000000000042,-32.283711862920136
-0.010700000000000154,-32.93447906085806
-0.011700000000000044,-33.45792224180811
-0.012700000000000156,-33.89648274476628
-0.013700000000000045,-34.278454795729836
-0.014700000000000157,-34.5472499427042
-0.015700000000000047,-34.90092776767045
-0.01670000000000016,-35.32534115762997
-0.01770000000000005,-35.721460321592176
-0.01870000000000016,-36.16002082455034
-0.01970000000000005,-36.5985813275085
-0.020700000000000163,-36.89567070048016
-0.021700000000000053,-37.164465847454515
-0.022700000000000164,-37.376672542434264
-0.023700000000000054,-37.56058501141672
-0.024700000000000166,-37.85767438438838
-0.025700000000000056,-38.211352209354644
-0.026700000000000168,-38.522588695324956
-0.027700000000000058,-38.86211940729255
-0.02870000000000017,-39.130914554266916
-0.02970000000000006,-39.30067991025072
-0.03070000000000017,-39.42800392723857
-0.03170000000000006,-39.51288660523048
-0.03270000000000017,-39.696799074212926
-0.03370000000000006,-39.95144710818864
-0.034700000000000175,-40.220242255162994
-0.035700000000000065,-40.51733162813464
-0.03670000000000018,-40.78612677510901
-0.03770000000000007,-40.95589213109281
-0.03870000000000018,-41.083216148080666
-0.03970000000000007,-41.139804600075266
-0.04070000000000018,-41.267128617063115
-0.04170000000000007,-41.43689397304693
-0.04270000000000018,-41.66324778102533
-0.04370000000000007,-41.91789581500104
-0.044700000000000184,-42.186690961975394
-0.045700000000000074,-42.3564563179592
-0.046700000000000186,-42.4413389959511
-0.047700000000000076,-42.483780334947056
-0.04870000000000019,-42.568663012938956
-0.04970000000000008,-42.6111043519349
-0.05070000000000019,-42.837458159913304
-0.05170000000000008,-43.04966485489307
-0.05270000000000019,-43.27601866287147
-0.05370000000000008,-43.44578401885527
-0.05470000000000019,-43.61554937483908
-0.05570000000000008,-43.61554937483908
-0.056700000000000195,-43.657990713835034
-0.057700000000000085,-43.75702050482558
-0.058700000000000196,-43.92678586080939
-0.059700000000000086,-44.138992555789144
-0.0607000000000002,-44.4077877027635
-0.06170000000000009,-44.619994397743255
-0.0627000000000002,-44.704877075735155
-0.06370000000000009,-44.74731841473111
-0.0647000000000002,-44.80390686672572
-0.06570000000000009,-44.88878954471762
-0.0667000000000002,-44.97367222270952
-0.0677000000000001,-45.18587891768927
-0.0687000000000002,-45.412232725667685
-0.0697000000000001,-45.581998081651484
-0.07070000000000021,-45.70932209863933
-0.0717000000000001,-45.70932209863933
-0.07270000000000021,-45.75176343763528
-0.0737000000000001,-45.79420477663124
-0.07470000000000021,-45.89323456762179
-0.0757000000000001,-46.10544126260155
-0.07670000000000021,-46.27520661858535
-0.0777000000000001,-46.501560426563756
-0.07870000000000021,-46.713767121543505
-0.0797000000000001,-46.75620846053947
-0.08070000000000022,-46.84109113853137
-0.0817000000000001,-46.88353247752732
-0.08270000000000022,-46.94012092952192
-0.08370000000000011,-47.10988628550572
-0.08470000000000022,-47.32209298048547
-0.08570000000000011,-47.54844678846388
-0.08670000000000022,-47.80309482243959
-0.08770000000000011,-47.84553616143554
-0.08870000000000022,-47.93041883942744
-0.08970000000000011,-47.93041883942744
-0.09070000000000022,-47.987007291422046
-0.09170000000000011,-48.114331308409895
-0.09270000000000023,-48.24165532539775
-0.09370000000000012,-48.51045047237211
-0.09470000000000023,-48.72265716735186
-0.09570000000000012,-48.89242252333566
-0.09670000000000023,-48.97730520132757
-0.09770000000000012,-49.03389365332217
-0.09870000000000023,-49.076334992318124
-0.09970000000000012,-49.16121767031002
-0.10070000000000023,-49.41586570428573
-0.10170000000000012,-49.642219512264134
-0.10270000000000024,-49.89686754623985
-0.10370000000000013,-50.024191563227696
-0.10470000000000024,-50.20810403221015
-0.10570000000000013,-50.2505453712061
-0.10670000000000024,-50.29298671020206
-0.10770000000000013,-50.46275206618586
-0.10870000000000024,-50.60422319617236
-0.10970000000000013,-50.81642989115212
-0.11070000000000024,-51.071077925127824
-0.11170000000000013,-51.25499039411028
-0.11270000000000002,-51.38231441109813
-0.11370000000000013,-51.509638428085985
-0.11470000000000002,-51.55207976708194
-0.11570000000000014,-51.69355089706845
-0.11670000000000003,-51.82087491405629
-0.11770000000000014,-52.075522948032
-0.11870000000000003,-52.34431809500636
-0.11970000000000014,-52.64140746797801
-0.12070000000000003,-52.82531993696047
-0.12170000000000014,-52.995085292944275
-0.12270000000000003,-53.079967970936174
-0.12370000000000014,-53.22143910092268
-0.12470000000000003,-53.348763117910536
-0.12570000000000014,-53.56096981289029
-0.12670000000000003,-53.91464763785655
-0.12770000000000015,-54.2117370108282
-0.12870000000000004,-54.43809081880661
-0.12970000000000015,-54.60785617479041
-0.13070000000000004,-54.69273885278232
-0.13170000000000015,-54.791768643772876
-0.13270000000000004,-54.961533999756675
-0.13370000000000015,-55.17374069473642
-0.13470000000000004,-55.484977180706736
-0.13570000000000015,-55.7820665536784
-0.13670000000000004,-56.093303039648696
-0.13770000000000016,-56.30550973462846
-0.13870000000000005,-56.44698086461496
-0.13970000000000016,-56.57430488160282
-0.14070000000000005,-56.74407023758662
-0.14170000000000016,-57.012865384560975
-0.14270000000000005,-57.352396096528594
-0.14370000000000016,-57.70607392149485
-0.14470000000000005,-58.017310407465146
-0.14570000000000016,-58.31439978043681
-0.14670000000000005,-58.498312249419264
-0.14770000000000016,-58.66807760540307
-0.14870000000000005,-58.83784296138688
-0.14970000000000017,-59.06419676936528
-0.15070000000000006,-59.36128614233694
-0.15170000000000017,-59.7149639673032
-0.15270000000000006,-60.11108313126541
-0.15370000000000017,-60.36573116524111
-0.15470000000000006,-60.59208497321952
-0.15570000000000017,-60.80429166819927
-0.15670000000000006,-60.974057024183075
-0.15770000000000017,-61.242852171157445
-0.15870000000000006,-61.5965299961237
-0.15970000000000018,-61.936060708091304
-0.16070000000000007,-62.37462121104946
-0.16170000000000018,-62.68585769701977
-0.16270000000000007,-62.98294706999144
-0.16370000000000018,-63.29418355596174
-0.16470000000000007,-63.46394891194555
-0.16570000000000018,-63.732744058919906
-0.16670000000000007,-64.0722747708875
-0.16770000000000018,-64.46839393484973
-0.16870000000000007,-64.90695443780788
-0.16970000000000018,-65.3030736017701
-0.17070000000000007,-65.64260431373769
-0.17170000000000019,-65.91139946071206
-0.17270000000000008,-66.12360615569182
-0.1737000000000002,-66.34995996367022
-0.17470000000000008,-66.68949067563783
-0.1757000000000002,-67.04316850060408
-0.17670000000000008,-67.52417034255821
-0.1777000000000002,-68.0051721845123
-0.17870000000000008,-68.38714423547587
-0.1797000000000002,-68.69838072144618
-0.18070000000000008,-68.96717586842054
-0.1817000000000002,-69.26426524139221
-0.18270000000000008,-69.61794306635846
-0.1837000000000002,-70.01406223032066
-0.1847000000000001,-70.48091695927613
-0.1857000000000002,-70.96191880123024
-0.1867000000000001,-71.35803796519245
-0.1877000000000002,-71.7965984681506
-0.1887000000000001,-72.15027629311687
-0.1897000000000002,-72.40492432709259
-0.1907000000000001,-72.75860215205884
-0.1917000000000001,-73.09813286402644
-0.19269999999999998,-73.57913470598055
-0.1937000000000001,-74.06013654793468
-0.19469999999999998,-74.49869705089283
-0.1957000000000001,-74.97969889284694
-0.19669999999999999,-75.29093537881725
-0.1977000000000001,-75.63046609078486
-0.1987,-75.98414391575112
-0.1997000000000001,-76.33782174071737
-0.2007,-76.86126492166746
-0.2017000000000001,-77.38470810261751
-0.2027,-77.90815128356756
-0.2037000000000001,-78.38915312552167
-0.2047,-78.8135665154812
-0.2057000000000001,-79.16724434044745
-0.2067,-79.52092216541372
-0.2077000000000001,-79.90289421637728
-0.2087,-80.42633739732734
-0.2097000000000001,-80.9497805782774
-0.2107,-81.51566509822342
-0.2117000000000001,-82.03910827917348
-0.2127,-82.43522744313569
-0.2137000000000001,-82.8313466070979
-0.2147,-83.18502443206415
-0.2157000000000001,-83.66602627401826
-0.2167,-84.09043966397778
-0.21770000000000012,-84.61388284492786
-0.2187,-85.17976736487385
-0.21970000000000012,-85.75979899781852
-0.2207,-86.22665372677399
-0.22170000000000012,-86.66521422973216
-0.2227,-87.01889205469841
-0.22370000000000012,-87.45745255765657
-0.2247,-87.93845439961068
-0.22570000000000012,-88.5043389195567
-0.2267,-89.07022343950271
-0.22770000000000012,-89.67854929844468
-0.22870000000000001,-90.24443381839069
-0.22970000000000013,-90.7254356603448
-0.23070000000000002,-91.12155482430701
-0.23170000000000013,-91.51767398826922
-0.23270000000000002,-91.98452871722468
-0.23370000000000013,-92.50797189817473
-0.23470000000000002,-93.08800353111941
-0.23570000000000013,-93.69632939006138
-0.23670000000000002,-94.30465524900335
-0.2376999999999999,-94.8280984299534
-0.23870000000000002,-95.26665893291157
-0.2396999999999999,-95.69107232287108
-0.24070000000000003,-96.17207416482519
-0.24169999999999991,-96.69551734577524
-0.24270000000000003,-97.31799031771587
-0.24369999999999992,-97.96875751565379
-0.24470000000000003,-98.57708337459576
-0.24569999999999992,-99.18540923353773
-0.24670000000000003,-99.66641107549184
-0.24769999999999992,-100.10497157844999
-0.24870000000000003,-100.62841475940007
-0.24969999999999992,-101.15185794035013
-0.25070000000000003,-101.80262513828804
-0.2516999999999999,-102.45339233622596
-0.25270000000000004,-103.07586530816658
-0.2536999999999999,-103.64174982811258
-0.25470000000000004,-104.16519300906265
-0.2556999999999999,-104.64619485101677
-0.25670000000000004,-105.11304957997223
-0.25769999999999993,-105.63649276092228
-0.25870000000000004,-106.2589657328629
-0.25969999999999993,-106.90973293080083
-0.26070000000000004,-107.6029414677347
-0.26169999999999993,-108.2537086656726
-0.26270000000000004,-108.83374029861727
-0.26369999999999993,-109.35718347956733
-0.26470000000000005,-109.8806266605174
-0.26569999999999994,-110.4465111804634
-0.26670000000000005,-111.09727837840134
-0.26769999999999994,-111.74804557633925
-0.26870000000000005,-112.48369545226906
-0.26969999999999994,-113.19105110220158
-0.27070000000000005,-113.88425963913545
-0.27169999999999994,-114.40770282008553
-0.27270000000000005,-114.93114600103557
-0.27369999999999994,-115.45458918198564
-0.27470000000000006,-116.02047370193165
-0.27569999999999995,-116.72782935186417
-0.27670000000000006,-117.42103788879804
-0.27769999999999995,-118.15668776472786
-0.27870000000000006,-118.86404341466037
-0.27969999999999995,-119.4299279346064
-0.28070000000000006,-119.99581245455242
-0.28169999999999995,-120.51925563550247
-0.28270000000000006,-121.12758149444444
-0.28369999999999995,-121.86323137037427
-0.28470000000000006,-122.61302835930273
-0.28569999999999995,-123.43356091322445
-0.28670000000000007,-124.18335790215292
-0.28769999999999996,-124.7916837610949
-0.28870000000000007,-125.44245095903281
-0.28969999999999996,-126.05077681797478
-0.29070000000000007,-126.6732497899154
-0.29169999999999996,-127.4088996658452
-0.29270000000000007,-128.144549541775
-0.29369999999999996,-128.89434653070347
-0.2947000000000001,-129.67243774562928
-0.29569999999999996,-130.37979339556176
-0.2967000000000001,-131.03056059349967
-0.29769999999999996,-131.63888645244168
-0.2987000000000001,-132.24721231138363
-0.29969999999999997,-132.99700930031207
-0.3007000000000001,-133.73265917624192
-0.30169999999999997,-134.56733884316228
-0.3027000000000001,-135.387871397084
-0.30369999999999997,-136.1801097250084
-0.3047000000000001,-136.8733182619423
-0.30569999999999997,-137.56652679887617
-0.3067000000000001,-138.23144110981272
-0.3077,-139.0095323247385
-0.3087000000000001,-139.80177065266292
-0.3097,-140.62230320658463
-0.3107000000000001,-141.47112998650366
-0.3117,-142.31995676642268
-0.3127000000000001,-143.16878354634173
-0.3137,-143.87613919627424
-0.3147000000000001,-144.44202371622026
-0.3157,-145.29085049613926
-0.3167000000000001,-146.1396772760583
-0.3177,-146.9885040559773
-0.3187000000000001,-147.83733083589632
-0.3197,-148.82762874580186
-0.3207000000000001,-149.6764555257209
-0.3217,-150.38381117565342
-0.3227000000000001,-151.09116682558593
-0.3237,-151.93999360550492
-0.3247000000000001,-152.64734925543743
-0.3257,-153.63764716534297
-0.3267000000000001,-154.6279450752485
-0.3277,-155.61824298515404
-0.3287000000000001,-156.46706976507306
-0.3297,-157.31589654499206
-0.3307000000000001,-158.1647233249111
-0.3317,-159.01355010483013
-0.3327000000000001,-159.86237688474912
-0.3337,-160.71120366466818
-0.3347000000000001,-161.84297270456022
-0.3357,-162.8332706144657
-0.3367000000000001,-163.68209739438475
-0.3377,-164.67239530429026
-0.3387000000000001,-165.5212220842093
-0.3397,-166.3700488641283
-0.3407000000000001,-167.21887564404733
-0.3417,-168.20917355395284
-0.3427000000000001,-169.3409425938449
-0.3437,-170.33124050375042
-0.3447000000000001,-171.46300954364247
-0.3457,-172.45330745354798
-0.3467000000000001,-173.44360536345349
-0.3477,-174.2924321433725
-0.3487000000000001,-175.28273005327804
-0.3497,-176.27302796318358
-0.3507000000000001,-177.4047970030756
-0.3517,-178.53656604296762
-0.3527000000000001,-179.66833508285964
-0.3537,-180.8001041227517
-0.3547000000000001,-181.64893090267074
-0.3557,-182.63922881257625
-0.35670000000000013,-183.62952672248176
-0.3577,-184.6198246323873
-0.35870000000000013,-185.7515936722793
-0.3597,-187.02483384215788
-0.36070000000000013,-188.15660288204987
-0.3617,-189.2883719219419
-0.3626999999999999,-190.42014096183394
-0.3637,-191.551910001726
-0.3646999999999999,-192.54220791163152
-0.3657,-193.532505821537
-0.3666999999999999,-194.80574599141553
-0.3677,-196.0789861612941
-0.3686999999999999,-197.35222633117263
-0.36970000000000003,-198.62546650105114
-0.3706999999999999,-199.75723554094319
-0.37170000000000003,-200.88900458083523
-0.3726999999999999,-202.02077362072723
-0.37370000000000003,-203.29401379060576
-0.3746999999999999,-204.42578283049778
-0.37570000000000003,-205.69902300037634
-0.3766999999999999,-206.97226317025488
-0.37770000000000004,-208.3869744701199
-0.3786999999999999,-209.66021463999843
-0.37970000000000004,-210.79198367989048
-0.3806999999999999,-212.065223849769
-0.38170000000000004,-213.19699288966103
-0.38269999999999993,-214.47023305953954
-0.38370000000000004,-215.7434732294181
-0.38469999999999993,-217.15818452928315
-0.38570000000000004,-218.57289582914817
-0.38669999999999993,-217.58259791924263
-0.38570000000000004,-212.34816610974204
-0.38469999999999993,-207.8210899501739
-0.38370000000000004,-203.71842718056527
-0.38269999999999993,-199.89870667092967
-0.38170000000000004,-196.3619284212671
-0.3806999999999999,-193.249563561564
-0.37970000000000004,-190.13719870186094
-0.3786999999999999,-187.16630497214436
-0.37770000000000004,-184.19541124242778
-0.3766999999999999,-181.2245175127112
-0.37570000000000003,-178.25362378299462
-0.3746999999999999,-175.42420118326456
-0.37370000000000003,-172.73624971352098
-0.3726999999999999,-170.18976937376394
-0.37170000000000003,-167.6432890340068
-0.3706999999999999,-165.3797509542228
-0.36970000000000003,-162.8332706144657
-0.3686999999999999,-160.28679027470866
-0.3677,-157.7403099349516
-0.3666999999999999,-155.19382959519453
-0.3657,-152.93029151541046
-0.3646999999999999,-150.66675343562642
-0.3637,-148.40321535584232
-0.3626999999999999,-146.28114840604482
-0.3617,-144.01761032626072
-0.36070000000000013,-141.89554337646317
-0.3597,-139.57541684468453
-0.35870000000000013,-137.31187876490046
-0.3577,-135.1332233631083
-0.35670000000000013,-132.99700930031207
-0.3557,-130.9456779155078
-0.3547000000000001,-128.93678786969946
-0.3537,-126.9278978238911
-0.3527000000000001,-124.9614491170787
-0.3517,-122.82523505428249
-0.3507000000000001,-120.77390366947817
-0.3497,-118.72257228467387
-0.3487000000000001,-116.72782935186417
-0.3477,-114.84626332304367
-0.3467000000000001,-113.06372708521374
-0.3457,-111.26704373438514
-0.3447000000000001,-109.44206615755924
-0.3437,-107.51805878974278
-0.3427000000000001,-105.5516100829304
-0.3417,-103.64174982811258
-0.3407000000000001,-101.80262513828804
-0.3397,-100.02008890045809
-0.3387000000000001,-98.364876679616
-0.3377,-96.69551734577524
-0.3367000000000001,-94.99786378593721
-0.3357,-93.21532754810727
-0.3347000000000001,-91.37620285828272
-0.3337,-89.55122528145681
-0.3327000000000001,-87.79698326962418
-0.3317,-86.09932970978613
-0.3307000000000001,-84.48655882793999
-0.3297,-82.95867062408576
-0.3287000000000001,-81.43078242023151
-0.3277,-79.81801153838538
-0.3267000000000001,-78.12035797854733
-0.3257,-76.46514575770523
-0.3247000000000001,-74.89481621485504
-0.3237,-73.2820453330089
-0.3227000000000001,-71.7965984681506
-0.3217,-70.35359294228827
-0.3207000000000001,-68.91058741642594
-0.3197,-67.48172900356225
-0.3187000000000001,-65.95384079970802
-0.3177,-64.38351125685783
-0.3167000000000001,-62.81318171400764
-0.3157,-61.28529351015339
-0.3147000000000001,-59.884729323287
-0.3137,-58.498312249419264
-0.3127000000000001,-57.182630740544774
-0.3117,-55.7820665536784
-0.3107000000000001,-54.39564947981066
-0.3097,-52.995085292944275
-0.3087000000000001,-51.46719708909004
-0.3077,-50.0807800152223
-0.3067000000000001,-48.76509850634781
-0.30569999999999997,-47.506005449467935
-0.3047000000000001,-46.27520661858535
-0.30369999999999997,-45.01611356170547
-0.3027000000000001,-43.75702050482558
-0.30169999999999997,-42.4413389959511
-0.3007000000000001,-41.04077480908471
-0.29969999999999997,-39.739240413208876
-0.2987000000000001,-38.46600024333035
-0.29769999999999996,-37.334231203438314
-0.2967000000000001,-36.16002082455034
-0.29569999999999996,-35.07069312365426
-0.2947000000000001,-33.85404140577033
-0.29369999999999996,-32.58080123589179
-0.29270000000000007,-31.27926684001596
-0.29169999999999996,-29.96358533114148
-0.29070000000000007,-28.746933613257543
-0.28969999999999996,-27.65760591236147
-0.28870000000000007,-26.568278211465387
-0.28769999999999996,-25.60627452755716
-0.28670000000000007,-24.559388165657033
-0.28569999999999995,-23.427619125765005
-0.28470000000000006,-22.253408746877028
-0.28369999999999995,-21.022609915994444
-0.28270000000000006,-19.890840876102416
-0.28169999999999995,-18.80151317520634
-0.28070000000000006,-17.839509491298113
-0.27969999999999995,-16.877505807389888
-0.27870000000000006,-15.91550212348166
-0.27769999999999995,-14.925204213576137
-0.27670000000000006,-13.828802956180734
-0.27569999999999995,-12.73806054398479
-0.27470000000000006,-11.691174182084664
-0.27369999999999994,-10.601846481188586
-0.27270000000000005,-9.59740145828441
-0.27169999999999994,-8.725939297567548
-0.27070000000000005,-7.809206375255003
-0.26969999999999994,-6.93774421453814
-0.26870000000000005,-5.890857852638012
-0.26769999999999994,-4.9302688800296535
-0.26670000000000005,-3.840941179133574
