Potential V vs RHE, Current mA cm-2
0.013299999999999867,-3.1859298472960624
0.012299999999999978,-6.238876832404812
0.011299999999999866,-8.68208324727173
0.010299999999999976,-10.514134380596953
0.009299999999999864,-11.909039722263879
0.008299999999999974,-13.175206335643086
0.007299999999999862,-14.444202371622024
0.006299999999999972,-15.618412750510005
0.00529999999999986,-16.53797509542228
0.0042999999999999705,-17.188742293360193
0.0032999999999998586,-17.881950830294063
0.0022999999999999687,-18.674189158218486
0.0012999999999998568,-19.409839034148305
0.00029999999999996696,-19.93328221509837
-0.000700000000000145,-20.371842718056527
-0.0017000000000000348,-20.76796188201874
-0.0027000000000001467,-21.291405062968803
-0.0037000000000000366,-21.857289582914817
-0.0047000000000001485,-22.15437895588647
-0.005700000000000038,-22.33829142486893
-0.00670000000000015,-22.67782213683654
-0.00770000000000004,-23.1163826397947
-0.008700000000000152,-23.55494314275286
-0.009700000000000042,-23.767149837732617
-0.010700000000000154,-23.86617962872317
-0.011700000000000044,-24.078386323702922
-0.012700000000000156,-24.432064148669184
-0.013700000000000045,-24.814036199632742
-0.014700000000000157,-24.95550732961925
-0.015700000000000047,-24.95550732961925
-0.01670000000000016,-25.04039000761115
-0.01770000000000005,-25.337479380582806
-0.01870000000000016,-25.648715866553115
-0.01970000000000005,-25.81848122253692
-0.020700000000000163,-25.77603988354097
-0.021700000000000053,-25.86092256153287
-0.022700000000000164,-26.17215904750318
-0.023700000000000054,-26.440954194477534
-0.024700000000000166,-26.568278211465387
-0.025700000000000056,-26.525836872469437
-0.026700000000000168,-26.568278211465387
-0.027700000000000058,-26.780484906445146
-0.02870000000000017,-27.049280053419505
-0.02970000000000006,-27.091721392415455
-0.03070000000000017,-27.049280053419505
-0.03170000000000006,-27.134162731411404
-0.03270000000000017,-27.34636942639116
-0.03370000000000006,-27.615164573365515
-0.034700000000000175,-27.700047251357418
-0.035700000000000065,-27.615164573365515
-0.03670000000000018,-27.65760591236147
-0.03770000000000007,-27.912253946337174
-0.03870000000000018,-28.13860775431558
-0.03970000000000007,-28.18104909331153
-0.04070000000000018,-28.05372507632368
-0.04170000000000007,-28.09616641531963
-0.04270000000000018,-28.308373110299385
-0.04370000000000007,-28.53472691827779
-0.044700000000000184,-28.619609596269694
-0.045700000000000074,-28.53472691827779
-0.046700000000000186,-28.577168257273744
-0.047700000000000076,-28.746933613257543
-0.04870000000000019,-29.001581647233255
-0.04970000000000008,-29.100611438223805
-0.05070000000000019,-29.001581647233255
-0.05170000000000008,-29.001581647233255
-0.05270000000000019,-29.18549411621571
-0.05370000000000008,-29.35525947219951
-0.05470000000000019,-29.440142150191413
-0.05570000000000008,-29.39770081119546
-0.056700000000000195,-29.440142150191413
-0.057700000000000085,-29.62405461917387
-0.058700000000000196,-29.878702653149578
-0.059700000000000086,-29.921143992145527
-0.0607000000000002,-29.836261314153624
-0.06170000000000009,-29.921143992145527
-0.0627000000000002,-30.147497800123933
-0.06370000000000009,-30.317263156107735
-0.0647000000000002,-30.359704495103685
-0.06570000000000009,-30.232380478115836
-0.0667000000000002,-30.274821817111786
-0.0677000000000001,-30.487028512091538
-0.0687000000000002,-30.7558236590659
-0.0697000000000001,-30.79826499806185
-0.07070000000000021,-30.71338232006995
-0.0717000000000001,-30.7558236590659
-0.07270000000000021,-30.968030354045652
-0.0737000000000001,-31.19438416202406
-0.07470000000000021,-31.27926684001596
-0.0757000000000001,-31.23682550102001
-0.07670000000000021,-31.19438416202406
-0.0777000000000001,-31.36414951800786
-0.07870000000000021,-31.618797551983565
-0.0797000000000001,-31.661238890979522
-0.08070000000000022,-31.618797551983565
-0.0817000000000001,-31.661238890979522
-0.08270000000000022,-31.887592698957924
-0.08370000000000011,-32.14224073293363
-0.08470000000000022,-32.184682071929586
-0.08570000000000011,-32.14224073293363
-0.08670000000000022,-32.24127052392419
-0.08770000000000011,-32.45347721890394
-0.08870000000000022,-32.66568391388369
-0.08970000000000011,-32.70812525287965
-0.09070000000000022,-32.58080123589179
-0.09170000000000011,-32.66568391388369
-0.09270000000000023,-32.892037721862096
-0.09370000000000012,-33.18912709483376
-0.09470000000000023,-33.288156885824314
-0.09570000000000012,-33.18912709483376
-0.09670000000000023,-33.231568433829715
-0.09770000000000012,-33.50036358080407
-0.09870000000000023,-33.81160006677438
-0.09970000000000012,-33.89648274476628
-0.10070000000000023,-33.85404140577033
-0.10170000000000012,-33.89648274476628
-0.10270000000000024,-34.10868943974604
-0.10370000000000013,-34.377484586720385
-0.10470000000000024,-34.462367264712285
-0.10570000000000013,-34.462367264712285
-0.10670000000000024,-34.50480860370825
-0.10770000000000013,-34.8018979766799
-0.10870000000000024,-35.07069312365426
-0.10970000000000013,-35.15557580164616
-0.11070000000000024,-35.15557580164616
-0.11170000000000013,-35.240458479638065
-0.11270000000000002,-35.50925362661242
-0.11370000000000013,-35.763901660588125
-0.11470000000000002,-35.848784338580025
-0.11570000000000014,-35.848784338580025
-0.11670000000000003,-35.94781412957058
-0.11770000000000014,-36.20246216354629
-0.11870000000000003,-36.55613998851254
-0.11970000000000014,-36.64102266650445
-0.12070000000000003,-36.6834640055004
-0.12170000000000014,-36.768346683492304
-0.12270000000000003,-37.037141830466666
-0.12370000000000014,-37.376672542434264
-0.12470000000000003,-37.51814367242077
-0.12570000000000014,-37.47570233342482
-0.12670000000000003,-37.56058501141672
-0.12770000000000015,-37.81523304539243
-0.12870000000000004,-38.16891087035869
-0.12970000000000015,-38.33867622634249
-0.13070000000000004,-38.38111756533845
-0.13170000000000015,-38.522588695324956
-0.13270000000000004,-38.81967806829661
-0.13370000000000015,-39.173355893262865
-0.13470000000000004,-39.30067991025072
-0.13570000000000015,-39.38556258824262
-0.13670000000000004,-39.51288660523048
-0.13770000000000016,-39.82412309120078
-0.13870000000000005,-40.135359577171094
-0.13970000000000016,-40.30512493315489
-0.14070000000000005,-40.34756627215084
-0.14170000000000016,-40.51733162813464
-0.14270000000000005,-40.828568114104954
-0.14370000000000016,-41.22468727806717
-0.14470000000000005,-41.43689397304693
-0.14570000000000016,-41.47933531204288
-0.14670000000000005,-41.66324778102533
-0.14770000000000016,-42.087661170984845
-0.14870000000000005,-42.39889765695515
-0.14970000000000017,-42.568663012938956
-0.15070000000000006,-42.653545690930855
-0.15170000000000017,-42.79501682091736
-0.15270000000000006,-43.134547532884966
-0.15370000000000017,-43.57310803584313
-0.15470000000000006,-43.79946184382153
-0.15570000000000017,-43.92678586080939
-0.15670000000000006,-44.096551216793195
-0.15770000000000017,-44.535111719751356
-0.15870000000000006,-44.93123088371356
-0.15970000000000018,-45.143437578693316
-0.16070000000000007,-45.27076159568118
-0.16170000000000018,-45.497115403659585
-0.16270000000000007,-45.85079322862584
-0.16370000000000018,-46.2327652795894
-0.16470000000000007,-46.501560426563756
-0.16570000000000018,-46.628884443551605
-0.16670000000000007,-46.84109113853137
-0.16770000000000018,-47.27965164148953
-0.16870000000000007,-47.71821214444768
-0.16970000000000018,-47.987007291422046
-0.17070000000000007,-48.071889969413945
-0.17170000000000019,-48.36897934238561
-0.17270000000000008,-48.80753984534376
-0.1737000000000002,-49.20365900930597
-0.17470000000000008,-49.458307043281685
-0.1757000000000002,-49.557336834272235
-0.17670000000000008,-49.81198486824794
-0.1777000000000002,-50.29298671020206
-0.17870000000000008,-50.73154721316022
-0.1797000000000002,-51.028636586131874
-0.18070000000000008,-51.21254905511432
-0.1817000000000002,-51.46719708909004
-0.18270000000000008,-51.90575759204819
-0.1837000000000002,-52.386759434002315
-0.1847000000000001,-52.69799591997262
-0.1857000000000002,-52.86776127595642
-0.1867000000000001,-53.079967970936174
-0.1877000000000002,-53.518528473894335
-0.1887000000000001,-53.999530315848446
-0.1897000000000002,-54.31076680181876
-0.1907000000000001,-54.52297349679851
-0.1917000000000001,-54.834209982768826
-0.19269999999999998,-55.31521182472294
-0.1937000000000001,-55.838655005673
-0.19469999999999998,-56.13574437864466
-0.1957000000000001,-56.36209818662306
-0.19669999999999999,-56.65918755959472
-0.1977000000000001,-57.182630740544774
-0.1987,-57.66363258249889
-0.1997000000000001,-57.93242772947325
-0.2007,-58.14463442445301
-0.2017000000000001,-58.45587091042332
-0.2027,-58.97931409137338
-0.2037000000000001,-59.54519861131939
-0.2047,-59.842287984291055
-0.2057000000000001,-60.06864179226946
-0.2067,-60.40817250423707
-0.2077000000000001,-60.889174346191176
-0.2087,-61.455058866137186
-0.2097000000000001,-61.80873669110345
-0.2107,-61.97850204708726
-0.2117000000000001,-62.28973853305756
-0.2127,-62.81318171400764
-0.2137000000000001,-63.3366248949577
-0.2147,-63.732744058919906
-0.2157000000000001,-64.02983343189156
-0.2167,-64.42595259585376
-0.21770000000000012,-64.94939577680383
-0.2187,-65.4728389577539
-0.21970000000000012,-65.86895812171612
-0.2207,-66.12360615569182
-0.22170000000000012,-66.47728398065809
-0.2227,-67.04316850060408
-0.22370000000000012,-67.56661168155415
-0.2247,-67.9202895065204
-0.22570000000000012,-68.13249620150016
-0.2267,-68.52861536546239
-0.22770000000000012,-69.13694122440434
-0.22870000000000001,-69.70282574435035
-0.22970000000000013,-70.09894490831257
-0.23070000000000002,-70.39603428128423
-0.23170000000000013,-70.74971210625048
-0.23270000000000002,-71.35803796519245
-0.23370000000000013,-71.96636382413442
-0.23470000000000002,-72.36248298809663
-0.23570000000000013,-72.67371947406694
-0.23670000000000002,-73.01325018603454
-0.2376999999999999,-73.53669336698461
-0.23870000000000002,-74.20160767792116
-0.2396999999999999,-74.58357972888473
-0.24070000000000003,-74.89481621485504
-0.24169999999999991,-75.33337671781321
-0.24270000000000003,-75.94170257675518
-0.24369999999999992,-76.5924697746931
-0.24470000000000003,-76.98858893865528
-0.24569999999999992,-77.34226676362155
-0.24670000000000003,-77.76668015358106
-0.24769999999999992,-78.33256467352709
-0.24870000000000003,-78.9550376454677
-0.24969999999999992,-79.33700969643127
-0.25070000000000003,-79.64824618240156
-0.2516999999999999,-80.17168936335163
-0.25270000000000004,-80.73757388329766
-0.2536999999999999,-81.43078242023151
-0.25470000000000004,-81.86934292318966
-0.2556999999999999,-82.22302074815593
-0.25670000000000004,-82.70402259011003
-0.25769999999999993,-83.35478978804795
-0.25870000000000004,-84.00555698598588
-0.25969999999999993,-84.48655882793999
-0.26070000000000004,-84.7977953139103
-0.26169999999999993,-85.23635581686847
-0.26270000000000004,-85.88712301480638
-0.26369999999999993,-86.58033155174023
-0.26470000000000005,-87.06133339369435
-0.26569999999999994,-87.45745255765657
-0.26670000000000005,-87.98089573860662
-0.26769999999999994,-88.6741042755405
-0.26870000000000005,-89.32487147347842
-0.26969999999999994,-89.84831465442848
-0.27070000000000005,-90.28687515738663
-0.27169999999999994,-90.81031833833671
-0.27270000000000005,-91.46108553627462
-0.27369999999999994,-92.12599984721119
-0.27470000000000006,-92.64944302816124
-0.27569999999999995,-93.03141507912481
-0.27670000000000006,-93.55485826007487
-0.27769999999999995,-94.30465524900335
-0.27870000000000006,-94.99786378593721
-0.27969999999999995,-95.56374830588322
-0.28070000000000006,-95.91742613084948
-0.28169999999999995,-96.4833106507955
-0.28270000000000006,-97.26140186572127
-0.28369999999999995,-98.01119885464975
-0.28470000000000006,-98.5346420355998
-0.28569999999999995,-98.97320253855796
-0.28670000000000007,-99.53908705850398
-0.28769999999999996,-100.2747369344338
-0.28870000000000007,-101.06697526235823
-0.28969999999999996,-101.6753011213002
-0.29070000000000007,-102.1563029632543
-0.29169999999999996,-102.76462882219626
-0.29270000000000007,-103.54272003712204
-0.29369999999999996,-104.33495836504645
-0.2947000000000001,-104.98572556298437
-0.29569999999999996,-105.46672740493848
-0.2967000000000001,-106.07505326388046
-0.29769999999999996,-106.82485025280893
-0.2987000000000001,-107.6029414677347
-0.29969999999999997,-108.21126732667666
-0.3007000000000001,-108.77715184662266
-0.30169999999999997,-109.39962481856328
-0.3027000000000001,-110.22015737248502
-0.30369999999999997,-111.05483703940537
-0.3047000000000001,-111.74804557633925
-0.30569999999999997,-112.31393009628526
-0.3067000000000001,-112.96469729422319
-0.3077,-113.88425963913545
-0.3087000000000001,-114.76138064505177
-0.3097,-115.4121478429897
-0.3107000000000001,-115.97803236293572
-0.3117,-116.67124089986959
-0.3127000000000001,-117.54836190578591
-0.3137,-118.46792425069816
-0.3147000000000001,-119.16113278763203
-0.3157,-119.769458646574
-0.3167000000000001,-120.51925563550247
-0.3177,-121.43881798041474
-0.3187000000000001,-122.34423321232836
-0.3197,-123.1364715402528
-0.3207000000000001,-123.82968007718667
-0.3217,-124.52288861412055
-0.3227000000000001,-125.44245095903281
-0.3237,-126.40445464294103
-0.3247000000000001,-127.23913430986138
-0.3257,-127.88990150779931
-0.3267000000000001,-128.71043406172103
-0.3277,-129.7148790846252
-0.3287000000000001,-130.7193241075294
-0.3297,-131.55400377444977
-0.3307000000000001,-132.24721231138363
-0.3317,-133.1667746562959
-0.3327000000000001,-134.21366101819604
-0.3337,-135.2181060411002
-0.3347000000000001,-135.95375591703004
-0.3357,-136.70355290595847
-0.3367000000000001,-137.6089681378721
-0.3377,-138.65585449977226
-0.3387000000000001,-139.74518220066832
-0.3397,-140.66474454558062
-0.3407000000000001,-141.47112998650366
-0.3417,-142.4614278964092
-0.3427000000000001,-143.5931969363012
-0.3437,-144.72496597619326
-0.3447000000000001,-145.7152638860988
-0.3457,-146.5640906660178
-0.3467000000000001,-147.4129174459368
-0.3477,-148.54468648582886
-0.3487000000000001,-149.8179266557074
-0.3497,-150.8082245656129
-0.3507000000000001,-151.65705134553193
-0.3517,-152.64734925543743
-0.3527000000000001,-153.920589425316
-0.3537,-155.05235846520802
-0.3547000000000001,-156.04265637511355
-0.3557,-157.17442541500557
-0.35670000000000013,-158.1647233249111
-0.3577,-159.43796349478964
-0.35870000000000013,-160.71120366466818
-0.3597,-161.70150157457368
-0.36070000000000013,-162.6917994844792
-0.3617,-163.82356852437124
-0.3626999999999999,-165.2382798242363
-0.3637,-166.51151999411482
-0.3646999999999999,-167.6432890340068
-0.3657,-168.63358694391238
-0.3666999999999999,-169.9068271137909
-0.3677,-171.18006728366944
-0.3686999999999999,-172.59477858353446
-0.36970000000000003,-173.72654762342648
-0.3706999999999999,-174.85831666331853
-0.37170000000000003,-175.99008570321055
-0.3726999999999999,-177.4047970030756
-0.37370000000000003,-178.81950830294062
-0.3746999999999999,-180.09274847281918
-0.37570000000000003,-181.2245175127112
-0.3766999999999999,-182.49775768258974
-0.37770000000000004,-183.91246898245475
-0.3786999999999999,-185.46865141230631
-0.37970000000000004,-186.74189158218485
-0.3806999999999999,-188.01513175206335
-0.38170000000000004,-189.2883719219419
-0.38269999999999993,-190.70308322180696
-0.38370000000000004,-192.2592656516585
-0.38469999999999993,-193.532505821537
-0.38570000000000004,-194.80574599141553
-0.38669999999999993,-193.81544808151003
-0.38570000000000004,-189.1469007919554
-0.38469999999999993,-185.46865141230631
-0.38370000000000004,-182.07334429263022
-0.38269999999999993,-178.67803717295413
-0.38170000000000004,-175.84861457322407
-0.3806999999999999,-173.16066310348046
-0.37970000000000004,-170.61418276372342
-0.3786999999999999,-167.92623129397984
-0.37770000000000004,-165.2382798242363
-0.3766999999999999,-162.8332706144657
-0.37570000000000003,-160.5697325346817
-0.3746999999999999,-158.3061944548976
-0.37370000000000003,-155.90118524512707
-0.3726999999999999,-153.49617603535648
-0.37170000000000003,-151.37410908555893
-0.3706999999999999,-149.25204213576137
-0.36970000000000003,-146.9885040559773
-0.3686999999999999,-144.86643710617977
-0.3677,-142.6028990263957
-0.3666999999999999,-140.4949791895968
-0.3657,-138.57097182178035
-0.3646999999999999,-136.66111156696255
-0.3637,-134.6097801821582
-0.3626999999999999,-132.47356611936203
-0.3617,-130.46467607355368
-0.36070000000000013,-128.62555138372915
-0.3597,-126.88545648489513
-0.35870000000000013,-124.91900777808273
-0.3577,-122.86767639327843
-0.35670000000000013,-120.95781613846064
-0.3557,-119.24601546562396
-0.3547000000000001,-117.59080324478184
-0.3537,-115.72338432896
-0.3527000000000001,-113.75693562214758
-0.3517,-111.8753695933271
-0.3507000000000001,-110.26259871148096
-0.3497,-108.64982782963483
-0.3487000000000001,-106.90973293080083
-0.3477,-105.02816690198033
-0.3467000000000001,-103.33051334214227
-0.3457,-101.76018379929208
-0.3447000000000001,-100.18985425644189
-0.3437,-98.5346420355998
-0.3427000000000001,-96.73795868477121
-0.3417,-95.04030512493317
-0.3407000000000001,-93.55485826007487
-0.3397,-92.08355850821525
-0.3387000000000001,-90.41419917437449
-0.3377,-88.6741042755405
-0.3367000000000001,-87.10377473269031
-0.3357,-85.70321054582392
-0.3347000000000001,-84.31679347195619
-0.3337,-82.78890526810196
-0.3327000000000001,-81.13369304725985
-0.3317,-79.60580484340561
-0.3307000000000001,-78.29012333453113
-0.3297,-76.94614759965934
-0.3287000000000001,-75.4182593958051
-0.3277,-73.8479298529549
-0.3267000000000001,-72.32004164910067
-0.3257,-71.06094859222078
-0.3247000000000001,-69.8301497613382
-0.3237,-68.38714423547587
-0.3227000000000001,-66.87340314462028
-0.3217,-65.43039761875795
-0.3207000000000001,-64.25618723986996
-0.3197,-63.02538840898739
-0.3187000000000001,-61.72385401311155
-0.3177,-60.28084848724921
-0.3167000000000001,-58.880284300382826
-0.3157,-57.66363258249889
-0.3147000000000001,-56.489422203610914
-0.3137,-55.17374069473642
-0.3127000000000001,-53.74488228187274
-0.3117,-52.514083450990164
-0.3107000000000001,-51.424755750094086
-0.3097,-50.335428049198
-0.3087000000000001,-49.076334992318124
-0.3077,-47.71821214444768
-0.3067000000000001,-46.544001765559706
-0.30569999999999997,-45.53955674265553
-0.3047000000000001,-44.45022904175945
-0.30369999999999997,-43.23357732387552
-0.3027000000000001,-41.83301313700913
-0.30169999999999997,-40.701244097117105
-0.3007000000000001,-39.696799074212926
-0.29969999999999997,-38.734795390304704
-0.2987000000000001,-37.60302635041268
-0.29769999999999996,-36.329786180534136
-0.2967000000000001,-35.240458479638065
-0.29569999999999996,-34.33504324772444
-0.2947000000000001,-33.373039563816214
-0.29369999999999996,-32.32615320191609
-0.29270000000000007,-31.095354371033505
-0.29169999999999996,-29.96358533114148
-0.29070000000000007,-29.058170099227848
-0.28969999999999996,-28.13860775431558
-0.28870000000000007,-27.134162731411404
-0.28769999999999996,-26.002393691519377
-0.28670000000000007,-24.997948668615198
-0.28569999999999995,-24.16326900169483
-0.28470000000000006,-23.342736447773106
-0.28369999999999995,-22.33829142486893
-0.28270000000000006,-21.248963723972853
-0.28169999999999995,-20.286960040064624
-0.28070000000000006,-19.49472171214021
-0.27969999999999995,-18.674189158218486
-0.27870000000000006,-17.669744135314307
-0.27769999999999995,-16.580416434418233
-0.27670000000000006,-15.70329542850191
-0.27569999999999995,-15.01008689156804
-0.27470000000000006,-14.26028990263957
-0.27369999999999994,-13.3930718758223
-0.27270000000000005,-12.346185513922174
-0.27169999999999994,-11.42945259160963
-0.27070000000000005,-10.731999920776168
-0.26969999999999994,-10.078403300238522
-0.26870000000000005,-9.205526428221793
-0.26769999999999994,-8.202496116617484
-0.26670000000000005,-7.28576319430494
