Potential V vs RHE, Current mA cm-2
0.013299999999999867,-0.7872868383748929
0.012299999999999978,-2.706342716641815
0.011299999999999866,-4.102662769608606
0.010299999999999976,-5.235846520800501
0.009299999999999864,-6.021011292225596
0.008299999999999974,-6.6760226240631075
0.007299999999999862,-7.199465805013171
0.006299999999999972,-7.635196885371603
0.00529999999999986,-8.070927965730034
0.0042999999999999705,-8.508073757388331
0.0032999999999998586,-8.85609273715513
0.0022999999999999687,-9.205526428221793
0.0012999999999998568,-9.423391968401008
0.00029999999999996696,-9.59740145828441
-0.000700000000000145,-9.685113558876042
-0.0017000000000000348,-9.728969609171857
-0.0027000000000001467,-9.728969609171857
-0.0037000000000000366,-9.728969609171857
-0.0047000000000001485,-9.772825659467674
-0.005700000000000038,-9.81668170976349
-0.00670000000000015,-9.946835149351072
-0.00770000000000004,-10.034547249942705
-0.008700000000000152,-10.208556739826104
-0.009700000000000042,-10.382566229709504
-0.010700000000000154,-10.42642228000532
-0.011700000000000044,-10.514134380596953
-0.012700000000000156,-10.470278330301136
-0.013700000000000045,-10.42642228000532
-0.014700000000000157,-10.340124890713554
-0.015700000000000047,-10.25241279012192
-0.01670000000000016,-10.296268840417738
-0.01770000000000005,-10.296268840417738
-0.01870000000000016,-10.42642228000532
-0.01970000000000005,-10.557990430892769
-0.020700000000000163,-10.644287820184536
-0.021700000000000053,-10.731999920776168
-0.022700000000000164,-10.819712021367803
-0.023700000000000054,-10.775855971071984
-0.024700000000000166,-10.731999920776168
-0.025700000000000056,-10.644287820184536
-0.026700000000000168,-10.601846481188586
-0.027700000000000058,-10.557990430892769
-0.02870000000000017,-10.514134380596953
-0.02970000000000006,-10.601846481188586
-0.03070000000000017,-10.688143870480351
-0.03170000000000006,-10.775855971071984
-0.03270000000000017,-10.906009410659568
-0.03370000000000006,-10.949865460955383
-0.034700000000000175,-10.993721511251199
-0.035700000000000065,-10.949865460955383
-0.03670000000000018,-10.906009410659568
-0.03770000000000007,-10.819712021367803
-0.03870000000000018,-10.688143870480351
-0.03970000000000007,-10.644287820184536
-0.04070000000000018,-10.644287820184536
-0.04170000000000007,-10.731999920776168
-0.04270000000000018,-10.819712021367803
-0.04370000000000007,-10.906009410659568
-0.044700000000000184,-11.037577561547016
-0.045700000000000074,-11.081433611842833
-0.046700000000000186,-11.081433611842833
-0.047700000000000076,-10.993721511251199
-0.04870000000000019,-10.949865460955383
-0.04970000000000008,-10.819712021367803
-0.05070000000000019,-10.731999920776168
-0.05170000000000008,-10.731999920776168
-0.05270000000000019,-10.731999920776168
-0.05370000000000008,-10.819712021367803
-0.05470000000000019,-10.949865460955383
-0.05570000000000008,-11.037577561547016
-0.056700000000000195,-11.081433611842833
-0.057700000000000085,-11.1677310011346
-0.058700000000000196,-11.123874950838783
-0.059700000000000086,-11.081433611842833
-0.0607000000000002,-10.993721511251199
-0.06170000000000009,-10.906009410659568
-0.0627000000000002,-10.863568071663616
-0.06370000000000009,-10.819712021367803
-0.0647000000000002,-10.906009410659568
-0.06570000000000009,-10.993721511251199
-0.0667000000000002,-11.081433611842833
-0.0677000000000001,-11.211587051430415
-0.0687000000000002,-11.211587051430415
-0.0697000000000001,-11.255443101726232
-0.07070000000000021,-11.211587051430415
-0.0717000000000001,-11.123874950838783
-0.07270000000000021,-11.037577561547016
-0.0737000000000001,-10.949865460955383
-0.07470000000000021,-10.906009410659568
-0.0757000000000001,-10.906009410659568
-0.07670000000000021,-10.993721511251199
-0.0777000000000001,-11.081433611842833
-0.07870000000000021,-11.211587051430415
-0.0797000000000001,-11.299299152022046
-0.08070000000000022,-11.343155202317865
-0.0817000000000001,-11.385596541313816
-0.08270000000000022,-11.299299152022046
-0.08370000000000011,-11.255443101726232
-0.08470000000000022,-11.123874950838783
-0.08570000000000011,-11.037577561547016
-0.08670000000000022,-11.037577561547016
-0.08770000000000011,-11.037577561547016
-0.08870000000000022,-11.123874950838783
-0.08970000000000011,-11.211587051430415
-0.09070000000000022,-11.299299152022046
-0.09170000000000011,-11.385596541313816
-0.09270000000000023,-11.42945259160963
-0.09370000000000012,-11.42945259160963
-0.09470000000000023,-11.343155202317865
-0.09570000000000012,-11.255443101726232
-0.09670000000000023,-11.1677310011346
-0.09770000000000012,-11.081433611842833
-0.09870000000000023,-11.081433611842833
-0.09970000000000012,-11.123874950838783
-0.10070000000000023,-11.211587051430415
-0.10170000000000012,-11.299299152022046
-0.10270000000000024,-11.42945259160963
-0.10370000000000013,-11.42945259160963
-0.10470000000000024,-11.473308641905447
-0.10570000000000013,-11.42945259160963
-0.10670000000000024,-11.343155202317865
-0.10770000000000013,-11.255443101726232
-0.10870000000000024,-11.123874950838783
-0.10970000000000013,-11.123874950838783
-0.11070000000000024,-11.081433611842833
-0.11170000000000013,-11.1677310011346
-0.11270000000000002,-11.255443101726232
-0.11370000000000013,-11.343155202317865
-0.11470000000000002,-11.473308641905447
-0.11570000000000014,-11.473308641905447
-0.11670000000000003,-11.517164692201263
-0.11770000000000014,-11.42945259160963
-0.11870000000000003,-11.343155202317865
-0.11970000000000014,-11.255443101726232
-0.12070000000000003,-11.1677310011346
-0.12170000000000014,-11.1677310011346
-0.12270000000000003,-11.1677310011346
-0.12370000000000014,-11.255443101726232
-0.12470000000000003,-11.343155202317865
-0.12570000000000014,-11.42945259160963
-0.12670000000000003,-11.56102074249708
-0.12770000000000015,-11.56102074249708
-0.12870000000000004,-11.56102074249708
-0.12970000000000015,-11.473308641905447
-0.13070000000000004,-11.385596541313816
-0.13170000000000015,-11.299299152022046
-0.13270000000000004,-11.255443101726232
-0.13370000000000015,-11.255443101726232
-0.13470000000000004,-11.299299152022046
-0.13570000000000015,-11.42945259160963
-0.13670000000000004,-11.517164692201263
-0.13770000000000016,-11.647318131788847
-0.13870000000000005,-11.691174182084664
-0.13970000000000016,-11.73503023238048
-0.14070000000000005,-11.691174182084664
-0.14170000000000016,-11.604876792792895
-0.14270000000000005,-11.517164692201263
-0.14370000000000016,-11.385596541313816
-0.14470000000000005,-11.385596541313816
-0.14570000000000016,-11.385596541313816
-0.14670000000000005,-11.473308641905447
-0.14770000000000016,-11.56102074249708
-0.14870000000000005,-11.647318131788847
-0.14970000000000017,-11.778886282676295
-0.15070000000000006,-11.82274233297211
-0.15170000000000017,-11.82274233297211
-0.15270000000000006,-11.778886282676295
-0.15370000000000017,-11.691174182084664
-0.15470000000000006,-11.604876792792895
-0.15570000000000017,-11.56102074249708
-0.15670000000000006,-11.56102074249708
-0.15770000000000017,-11.56102074249708
-0.15870000000000006,-11.691174182084664
-0.15970000000000018,-11.778886282676295
-0.16070000000000007,-11.909039722263879
-0.16170000000000018,-11.952895772559694
-0.16270000000000007,-11.996751822855511
-0.16370000000000018,-11.996751822855511
-0.16470000000000007,-11.909039722263879
-0.16570000000000018,-11.86659838326793
-0.16670000000000007,-11.73503023238048
-0.16770000000000018,-11.73503023238048
-0.16870000000000007,-11.73503023238048
-0.16970000000000018,-11.82274233297211
-0.17070000000000007,-11.909039722263879
-0.17170000000000019,-12.040607873151327
-0.17270000000000008,-12.170761312738911
-0.1737000000000002,-12.258473413330542
-0.17470000000000008,-12.302329463626359
-0.1757000000000002,-12.258473413330542
-0.17670000000000008,-12.170761312738911
-0.1777000000000002,-12.12831997374296
-0.17870000000000008,-12.040607873151327
-0.1797000000000002,-12.040607873151327
-0.18070000000000008,-12.040607873151327
-0.1817000000000002,-12.170761312738911
-0.18270000000000008,-12.302329463626359
-0.1837000000000002,-12.432482903213943
-0.1847000000000001,-12.56405105410139
-0.1857000000000002,-12.651763154693022
-0.1867000000000001,-12.694204493688973
-0.1877000000000002,-12.651763154693022
-0.1887000000000001,-12.607907104397206
-0.1897000000000002,-12.56405105410139
-0.1907000000000001,-12.520195003805576
-0.1917000000000001,-12.520195003805576
-0.19269999999999998,-12.56405105410139
-0.1937000000000001,-12.694204493688973
-0.19469999999999998,-12.825772644576423
-0.1957000000000001,-12.955926084164007
-0.19669999999999999,-13.087494235051453
-0.1977000000000001,-13.175206335643086
-0.1987,-13.175206335643086
-0.1997000000000001,-13.13135028534727
-0.2007,-13.13135028534727
-0.2017000000000001,-13.087494235051453
-0.2027,-13.043638184755638
-0.2037000000000001,-13.13135028534727
-0.2047,-13.217647674639037
-0.2057000000000001,-13.349215825526485
-0.2067,-13.523225315409885
-0.2077000000000001,-13.698649516593148
-0.2087,-13.784946905884919
-0.2097000000000001,-13.872659006476551
-0.2107,-13.872659006476551
-0.2117000000000001,-13.828802956180734
-0.2127,-13.828802956180734
-0.2137000000000001,-13.784946905884919
-0.2147,-13.828802956180734
-0.2157000000000001,-13.916515056772363
-0.2167,-14.046668496359947
-0.21770000000000012,-14.175407224647667
-0.2187,-14.345172580631472
-0.21970000000000012,-14.529085049613924
-0.2207,-14.61396772760583
-0.22170000000000012,-14.69885040559773
-0.2227,-14.69885040559773
-0.22370000000000012,-14.69885040559773
-0.2247,-14.69885040559773
-0.22570000000000012,-14.69885040559773
-0.2267,-14.783733083589633
-0.22770000000000012,-14.925204213576137
-0.22870000000000001,-15.094969569559943
-0.22970000000000013,-15.264734925543747
-0.23070000000000002,-15.448647394526201
-0.23170000000000013,-15.618412750510005
-0.23270000000000002,-15.74573676749786
-0.23370000000000013,-15.830619445489761
-0.23470000000000002,-15.87306078448571
-0.23570000000000013,-15.91550212348166
-0.23670000000000002,-15.91550212348166
-0.2376999999999999,-16.014531914472215
-0.23870000000000002,-16.099414592464115
-0.2396999999999999,-16.269179948447924
-0.24070000000000003,-16.495533756426326
-0.24169999999999991,-16.70774045140608
-0.24270000000000003,-16.919947146385837
-0.24369999999999992,-17.103859615368293
-0.24470000000000003,-17.2736249713521
-0.24569999999999992,-17.358507649344002
-0.24670000000000003,-17.4433903273359
-0.24769999999999992,-17.4433903273359
-0.24870000000000003,-17.542420118326454
-0.24969999999999992,-17.669744135314307
-0.25070000000000003,-17.797068152302163
-0.2516999999999999,-18.009274847281915
-0.25270000000000004,-18.27806999425627
-0.2536999999999999,-18.53271802823198
-0.25470000000000004,-18.80151317520634
-0.2556999999999999,-18.97127853119014
-0.25670000000000004,-19.155191000172596
-0.25769999999999993,-19.28251501716045
-0.25870000000000004,-19.367397695152352
-0.25969999999999993,-19.452280373144255
-0.26070000000000004,-19.579604390132108
-0.26169999999999993,-19.721075520118614
-0.26270000000000004,-19.93328221509837
-0.26369999999999993,-20.202077362072725
-0.26470000000000005,-20.499166735044383
-0.26569999999999994,-20.76796188201874
-0.26670000000000005,-21.065051254990397
-0.26769999999999994,-21.333846401964752
-0.26870000000000005,-21.461170418952605
-0.26969999999999994,-21.63093577493641
-0.27070000000000005,-21.772406904922917
-0.27169999999999994,-21.857289582914817
-0.27270000000000005,-22.027054938898623
-0.27369999999999994,-22.196820294882425
-0.27470000000000006,-22.46561544185678
-0.27569999999999995,-22.819293266823045
-0.27670000000000006,-23.1163826397947
-0.27769999999999995,-23.47006046476096
-0.27870000000000006,-23.767149837732617
-0.27969999999999995,-24.035944984706973
-0.28070000000000006,-24.24815167968673
-0.28169999999999995,-24.432064148669184
-0.28270000000000006,-24.559388165657033
-0.28369999999999995,-24.729153521640843
-0.28470000000000006,-24.997948668615198
-0.28569999999999995,-25.252596702590903
-0.28670000000000007,-25.60627452755716
-0.28769999999999996,-25.959952352523427
-0.28870000000000007,-26.34192440348698
-0.28969999999999996,-26.738043567449193
-0.29070000000000007,-27.091721392415455
-0.29169999999999996,-27.38881076538711
-0.29270000000000007,-27.65760591236147
-0.29369999999999996,-27.869812607341224
-0.2947000000000001,-28.13860775431558
-0.29569999999999996,-28.350814449295335
-0.2967000000000001,-28.662050935265643
-0.29769999999999996,-29.001581647233255
-0.2987000000000001,-29.440142150191413
-0.29969999999999997,-29.878702653149578
-0.3007000000000001,-30.359704495103685
-0.30169999999999997,-30.79826499806185
-0.3027000000000001,-31.19438416202406
-0.30369999999999997,-31.533914873991666
-0.3047000000000001,-31.84515135996197
-0.30569999999999997,-32.14224073293363
-0.3067000000000001,-32.41103587990799
-0.3077,-32.807155043870196
-0.3087000000000001,-33.14668575583781
-0.3097,-33.627687597791926
-0.3107000000000001,-34.15113077874198
-0.3117,-34.632132620696105
-0.3127000000000001,-35.198017140642115
-0.3137,-35.636577643600276
-0.3147000000000001,-36.11757948555439
-0.3157,-36.5136986495166
-0.3167000000000001,-36.8532293614842
-0.3177,-37.249348525446415
-0.3187000000000001,-37.60302635041268
-0.3197,-38.04158685337084
-0.3207000000000001,-38.46600024333035
-0.3217,-39.046031876275016
-0.3227000000000001,-39.56947505722508
-0.3237,-40.135359577171094
-0.3247000000000001,-40.743685436113054
-0.3257,-41.267128617063115
-0.3267000000000001,-41.74813045901723
-0.3277,-42.186690961975394
-0.3287000000000001,-42.6111043519349
-0.3297,-43.007223515897124
-0.3307000000000001,-43.44578401885527
-0.3317,-43.96922719980534
-0.3327000000000001,-44.4926703807554
-0.3337,-45.10099623969737
-0.3347000000000001,-45.75176343763528
-0.3357,-46.41667774857186
-0.3367000000000001,-47.02500360751382
-0.3377,-47.590888127459834
-0.3387000000000001,-48.114331308409895
-0.3397,-48.63777448935996
-0.3407000000000001,-49.076334992318124
-0.3417,-49.557336834272235
-0.3427000000000001,-50.12322135421825
-0.3437,-50.64666453516831
-0.3447000000000001,-51.33987307210218
-0.3457,-51.990640270040096
-0.3467000000000001,-52.69799591997262
-0.3477,-53.433645795902436
-0.3487000000000001,-54.08441299384035
-0.3497,-54.791768643772876
-0.3507000000000001,-55.400094502714836
-0.3517,-55.96597902266086
-0.3527000000000001,-56.57430488160282
-0.3537,-57.14018940154883
-0.3547000000000001,-57.79095659948675
-0.3557,-58.45587091042332
-0.35670000000000013,-59.23396212534908
-0.3577,-60.02620045327351
-0.35870000000000013,-60.84673300719523
-0.3597,-61.6814126741156
-0.36070000000000013,-62.41706255004542
-0.3617,-63.15271242597524
-0.3626999999999999,-63.860068075907755
-0.3637,-64.55327661284163
-0.3646999999999999,-65.2464851497755
-0.3657,-65.95384079970802
-0.3666999999999999,-66.68949067563783
-0.3677,-67.52417034255821
-0.3686999999999999,-68.38714423547587
-0.36970000000000003,-69.30670658038814
-0.3706999999999999,-70.18382758630447
-0.37170000000000003,-71.10338993121674
-0.3726999999999999,-71.96636382413442
-0.37370000000000003,-72.80104349105478
-0.3746999999999999,-73.53669336698461
-0.37570000000000003,-74.32893169490903
-0.3766999999999999,-75.02214023184291
-0.37770000000000004,-75.85681989876326
-0.3786999999999999,-76.67735245268499
-0.37970000000000004,-77.59691479759726
-0.3806999999999999,-78.51647714250953
-0.38170000000000004,-79.47848082641775
-0.38269999999999993,-80.46877873632329
-0.38370000000000004,-81.3458997422396
-0.38469999999999993,-82.30790342614785
-0.38570000000000004,-83.14258309306821
-0.38669999999999993,-82.35034476514379
-0.38570000000000004,-79.20968567944341
-0.38469999999999993,-76.71979379168094
-0.38370000000000004,-74.80993353686314
-0.38269999999999993,-73.15472131602105
-0.38170000000000004,-71.7117157901587
-0.3806999999999999,-70.43847562028017
-0.37970000000000004,-69.22182390239624
-0.3786999999999999,-68.17493754049613
-0.37770000000000004,-67.00072716160814
-0.3766999999999999,-65.91139946071206
-0.37570000000000003,-64.72304196882543
-0.3746999999999999,-63.54883158993744
-0.37370000000000003,-62.41706255004542
-0.3726999999999999,-61.327734849149344
-0.37170000000000003,-60.28084848724921
-0.3706999999999999,-59.31884480334099
-0.36970000000000003,-58.39928245842871
-0.3686999999999999,-57.493867226515086
-0.3677,-56.65918755959472
-0.3666999999999999,-55.73962521468245
-0.3657,-54.876651321764776
-0.3646999999999999,-53.872206298860604
-0.3637,-52.91020261495237
-0.3626999999999999,-51.90575759204819
-0.3617,-50.90131256914402
-0.36070000000000013,-49.98175022423175
-0.3597,-49.076334992318124
-0.35870000000000013,-48.2840966643937
-0.3577,-47.506005449467935
-0.35670000000000013,-46.713767121543505
-0.3557,-46.02055858460964
-0.3547000000000001,-45.22832025668522
-0.3537,-44.45022904175945
-0.3527000000000001,-43.57310803584313
-0.3517,-42.71013414292546
-0.3507000000000001,-41.83301313700913
-0.3497,-40.95589213109281
-0.3487000000000001,-40.177800916167044
-0.3477,-39.38556258824262
-0.3467000000000001,-38.692354051308754
-0.3457,-37.99914551437489
-0.3447000000000001,-37.334231203438314
-0.3437,-36.6834640055004
-0.3427000000000001,-35.99025546856653
-0.3417,-35.282899818634014
-0.3407000000000001,-34.50480860370825
-0.3397,-33.670128936787876
-0.3387000000000001,-32.84959638286615
-0.3377,-32.09979939393769
-0.3367000000000001,-31.36414951800786
-0.3357,-30.71338232006995
-0.3347000000000001,-30.10505646112798
-0.3337,-29.482583489187363
-0.3327000000000001,-28.91669896924135
-0.3317,-28.350814449295335
-0.3307000000000001,-27.742488590353368
-0.3297,-27.00683871442355
-0.3287000000000001,-26.29948306449103
-0.3277,-25.60627452755716
-0.3267000000000001,-24.870624651627345
-0.3257,-24.20571034069078
-0.3247000000000001,-23.55494314275286
-0.3237,-23.031499961802798
-0.3227000000000001,-22.508056780852733
-0.3217,-22.027054938898623
-0.3207000000000001,-21.54605309694451
-0.3197,-21.022609915994444
-0.3187000000000001,-20.499166735044383
-0.3177,-19.890840876102416
-0.3167000000000001,-19.28251501716045
-0.3157,-18.631747819222536
-0.3147000000000001,-18.009274847281915
-0.3137,-17.48583166633185
-0.3127000000000001,-16.962388485381787
-0.3117,-16.53797509542228
-0.3107000000000001,-16.099414592464115
-0.3097,-15.70329542850191
-0.3087000000000001,-15.307176264539699
-0.3077,-14.868615761581536
-0.3067000000000001,-14.401761032626075
-0.30569999999999997,-13.872659006476551
-0.3047000000000001,-13.349215825526485
-0.30369999999999997,-12.781916594280606
-0.3027000000000001,-12.302329463626359
-0.30169999999999997,-11.82274233297211
-0.3007000000000001,-11.42945259160963
-0.29969999999999997,-11.037577561547016
-0.2987000000000001,-10.731999920776168
-0.29769999999999996,-10.42642228000532
-0.2967000000000001,-10.078403300238522
-0.29569999999999996,-9.728969609171857
-0.2947000000000001,-9.293238528813426
-0.29369999999999996,-8.812236686859313
-0.29270000000000007,-8.376505606500881
-0.29169999999999996,-7.853062425550818
-0.29070000000000007,-7.461187395488204
-0.28969999999999996,-7.067897654125724
-0.28870000000000007,-6.762320013354876
-0.28769999999999996,-6.500598422879844
-0.28670000000000007,-6.238876832404812
-0.28569999999999995,-5.977155241929781
-0.28470000000000006,-5.672992312458796
-0.28369999999999995,-5.367414671687949
-0.28270000000000006,-5.017980980621284
-0.28169999999999995,-4.582249900262854
-0.28070000000000006,-4.146518819904423
-0.27969999999999995,-3.7093730282461257
-0.27870000000000006,-3.403795387475278
-0.27769999999999995,-3.0996324580042955
-0.27670000000000006,-2.8379108675292635
-0.27569999999999995,-2.618630616050183
-0.27470000000000006,-2.4446211261667834
-0.27369999999999994,-2.226755585987568
-0.27270000000000005,-1.9650339955125358
-0.27169999999999994,-1.7033124050375041
-0.27070000000000005,-1.3543031273607997
-0.26969999999999994,-1.0490084288499246
-0.26870000000000005,-0.6564260431373771
