Potential V vs RHE, Current mA cm-2
0.013299999999999867,-0.5255652478998613
0.012299999999999978,-2.532333226758415
0.011299999999999866,-4.146518819904423
0.010299999999999976,-5.5414241615713475
0.009299999999999864,-6.54445447317566
0.008299999999999974,-7.4173313451923875
0.007299999999999862,-8.027071915434218
0.006299999999999972,-8.55051509638428
0.00529999999999986,-8.943804837746763
0.0042999999999999705,-9.24938247851761
0.0032999999999998586,-9.467248018696827
0.0022999999999999687,-9.772825659467674
0.0012999999999998568,-9.99069119964689
0.00029999999999996696,-10.25241279012192
-0.000700000000000145,-10.514134380596953
-0.0017000000000000348,-10.731999920776168
-0.0027000000000001467,-10.949865460955383
-0.0037000000000000366,-11.123874950838783
-0.0047000000000001485,-11.255443101726232
-0.005700000000000038,-11.299299152022046
-0.00670000000000015,-11.343155202317865
-0.00770000000000004,-11.343155202317865
-0.008700000000000152,-11.343155202317865
-0.009700000000000042,-11.255443101726232
-0.010700000000000154,-11.343155202317865
-0.011700000000000044,-11.343155202317865
-0.012700000000000156,-11.473308641905447
-0.013700000000000045,-11.56102074249708
-0.014700000000000157,-11.647318131788847
-0.015700000000000047,-11.778886282676295
-0.01670000000000016,-11.909039722263879
-0.01770000000000005,-11.952895772559694
-0.01870000000000016,-11.996751822855511
-0.01970000000000005,-11.952895772559694
-0.020700000000000163,-11.909039722263879
-0.021700000000000053,-11.86659838326793
-0.022700000000000164,-11.778886282676295
-0.023700000000000054,-11.778886282676295
-0.024700000000000166,-11.778886282676295
-0.025700000000000056,-11.82274233297211
-0.026700000000000168,-11.86659838326793
-0.027700000000000058,-11.952895772559694
-0.02870000000000017,-12.084463923447142
-0.02970000000000006,-12.214617363034726
-0.03070000000000017,-12.258473413330542
-0.03170000000000006,-12.302329463626359
-0.03270000000000017,-12.258473413330542
-0.03370000000000006,-12.214617363034726
-0.034700000000000175,-12.12831997374296
-0.035700000000000065,-12.084463923447142
-0.03670000000000018,-12.040607873151327
-0.03770000000000007,-12.040607873151327
-0.03870000000000018,-12.040607873151327
-0.03970000000000007,-12.084463923447142
-0.04070000000000018,-12.170761312738911
-0.04170000000000007,-12.302329463626359
-0.04270000000000018,-12.390041564217992
-0.04370000000000007,-12.432482903213943
-0.044700000000000184,-12.476338953509758
-0.045700000000000074,-12.476338953509758
-0.046700000000000186,-12.432482903213943
-0.047700000000000076,-12.390041564217992
-0.04870000000000019,-12.258473413330542
-0.04970000000000008,-12.170761312738911
-0.05070000000000019,-12.170761312738911
-0.05170000000000008,-12.170761312738911
-0.05270000000000019,-12.214617363034726
-0.05370000000000008,-12.302329463626359
-0.05470000000000019,-12.390041564217992
-0.05570000000000008,-12.476338953509758
-0.056700000000000195,-12.56405105410139
-0.057700000000000085,-12.56405105410139
-0.058700000000000196,-12.56405105410139
-0.059700000000000086,-12.56405105410139
-0.0607000000000002,-12.476338953509758
-0.06170000000000009,-12.432482903213943
-0.0627000000000002,-12.302329463626359
-0.06370000000000009,-12.302329463626359
-0.0647000000000002,-12.258473413330542
-0.06570000000000009,-12.302329463626359
-0.0667000000000002,-12.346185513922174
-0.0677000000000001,-12.432482903213943
-0.0687000000000002,-12.520195003805576
-0.0697000000000001,-12.607907104397206
-0.07070000000000021,-12.651763154693022
-0.0717000000000001,-12.651763154693022
-0.07270000000000021,-12.607907104397206
-0.0737000000000001,-12.520195003805576
-0.07470000000000021,-12.476338953509758
-0.0757000000000001,-12.390041564217992
-0.07670000000000021,-12.346185513922174
-0.0777000000000001,-12.302329463626359
-0.07870000000000021,-12.302329463626359
-0.0797000000000001,-12.346185513922174
-0.08070000000000022,-12.432482903213943
-0.0817000000000001,-12.520195003805576
-0.08270000000000022,-12.651763154693022
-0.08370000000000011,-12.694204493688973
-0.08470000000000022,-12.73806054398479
-0.08570000000000011,-12.651763154693022
-0.08670000000000022,-12.651763154693022
-0.08770000000000011,-12.607907104397206
-0.08870000000000022,-12.520195003805576
-0.08970000000000011,-12.432482903213943
-0.09070000000000022,-12.432482903213943
-0.09170000000000011,-12.432482903213943
-0.09270000000000023,-12.476338953509758
-0.09370000000000012,-12.520195003805576
-0.09470000000000023,-12.651763154693022
-0.09570000000000012,-12.694204493688973
-0.09670000000000023,-12.825772644576423
-0.09770000000000012,-12.825772644576423
-0.09870000000000023,-12.825772644576423
-0.09970000000000012,-12.825772644576423
-0.10070000000000023,-12.73806054398479
-0.10170000000000012,-12.651763154693022
-0.10270000000000024,-12.56405105410139
-0.10370000000000013,-12.56405105410139
-0.10470000000000024,-12.520195003805576
-0.10570000000000013,-12.56405105410139
-0.10670000000000024,-12.607907104397206
-0.10770000000000013,-12.694204493688973
-0.10870000000000024,-12.781916594280606
-0.10970000000000013,-12.913484745168056
-0.11070000000000024,-12.955926084164007
-0.11170000000000013,-12.955926084164007
-0.11270000000000002,-12.913484745168056
-0.11370000000000013,-12.869628694872238
-0.11470000000000002,-12.781916594280606
-0.11570000000000014,-12.694204493688973
-0.11670000000000003,-12.651763154693022
-0.11770000000000014,-12.651763154693022
-0.11870000000000003,-12.651763154693022
-0.11970000000000014,-12.694204493688973
-0.12070000000000003,-12.73806054398479
-0.12170000000000014,-12.825772644576423
-0.12270000000000003,-12.955926084164007
-0.12370000000000014,-12.99978213445982
-0.12470000000000003,-12.99978213445982
-0.12570000000000014,-12.99978213445982
-0.12670000000000003,-12.955926084164007
-0.12770000000000015,-12.869628694872238
-0.12870000000000004,-12.825772644576423
-0.12970000000000015,-12.694204493688973
-0.13070000000000004,-12.694204493688973
-0.13170000000000015,-12.694204493688973
-0.13270000000000004,-12.73806054398479
-0.13370000000000015,-12.781916594280606
-0.13470000000000004,-12.869628694872238
-0.13570000000000015,-12.955926084164007
-0.13670000000000004,-13.043638184755638
-0.13770000000000016,-13.043638184755638
-0.13870000000000005,-13.087494235051453
-0.13970000000000016,-13.043638184755638
-0.14070000000000005,-12.99978213445982
-0.14170000000000016,-12.869628694872238
-0.14270000000000005,-12.781916594280606
-0.14370000000000016,-12.781916594280606
-0.14470000000000005,-12.73806054398479
-0.14570000000000016,-12.781916594280606
-0.14670000000000005,-12.869628694872238
-0.14770000000000016,-12.955926084164007
-0.14870000000000005,-13.043638184755638
-0.14970000000000017,-13.175206335643086
-0.15070000000000006,-13.217647674639037
-0.15170000000000017,-13.261503724934855
-0.15270000000000006,-13.217647674639037
-0.15370000000000017,-13.13135028534727
-0.15470000000000006,-13.087494235051453
-0.15570000000000017,-13.043638184755638
-0.15670000000000006,-12.99978213445982
-0.15770000000000017,-12.99978213445982
-0.15870000000000006,-12.99978213445982
-0.15970000000000018,-13.043638184755638
-0.16070000000000007,-13.175206335643086
-0.16170000000000018,-13.261503724934855
-0.16270000000000007,-13.3930718758223
-0.16370000000000018,-13.47936926511407
-0.16470000000000007,-13.523225315409885
-0.16570000000000018,-13.47936926511407
-0.16670000000000007,-13.436927926118118
-0.16770000000000018,-13.436927926118118
-0.16870000000000007,-13.349215825526485
-0.16970000000000018,-13.261503724934855
-0.17070000000000007,-13.261503724934855
-0.17170000000000019,-13.30535977523067
-0.17270000000000008,-13.3930718758223
-0.1737000000000002,-13.47936926511407
-0.17470000000000008,-13.567081365705702
-0.1757000000000002,-13.698649516593148
-0.17670000000000008,-13.784946905884919
-0.1777000000000002,-13.828802956180734
-0.17870000000000008,-13.872659006476551
-0.1797000000000002,-13.828802956180734
-0.18070000000000008,-13.784946905884919
-0.1817000000000002,-13.741090855589102
-0.18270000000000008,-13.698649516593148
-0.1837000000000002,-13.654793466297335
-0.1847000000000001,-13.654793466297335
-0.1857000000000002,-13.741090855589102
-0.1867000000000001,-13.828802956180734
-0.1877000000000002,-13.960371107068182
-0.1887000000000001,-14.090524546655764
-0.1897000000000002,-14.217848563643619
-0.1907000000000001,-14.26028990263957
-0.1917000000000001,-14.345172580631472
-0.19269999999999998,-14.30273124163552
-0.1937000000000001,-14.26028990263957
-0.19469999999999998,-14.217848563643619
-0.1957000000000001,-14.175407224647667
-0.19669999999999999,-14.175407224647667
-0.1977000000000001,-14.217848563643619
-0.1987,-14.217848563643619
-0.1997000000000001,-14.345172580631472
-0.2007,-14.444202371622024
-0.2017000000000001,-14.57152638860988
-0.2027,-14.741291744593681
-0.2037000000000001,-14.826174422585586
-0.2047,-14.868615761581536
-0.2057000000000001,-14.925204213576137
-0.2067,-14.925204213576137
-0.2077000000000001,-14.868615761581536
-0.2087,-14.925204213576137
-0.2097000000000001,-14.868615761581536
-0.2107,-14.925204213576137
-0.2117000000000001,-14.967645552572087
-0.2127,-15.094969569559943
-0.2137000000000001,-15.222293586547794
-0.2147,-15.3920589425316
-0.2157000000000001,-15.575971411514052
-0.2167,-15.70329542850191
-0.21770000000000012,-15.78817810649381
-0.2187,-15.91550212348166
-0.21970000000000012,-15.91550212348166
-0.2207,-15.87306078448571
-0.22170000000000012,-15.91550212348166
-0.2227,-15.87306078448571
-0.22370000000000012,-15.972090575476265
-0.2247,-16.056973253468165
-0.22570000000000012,-16.141855931460068
-0.2267,-16.311621287443874
-0.22770000000000012,-16.495533756426326
-0.22870000000000001,-16.665299112410132
-0.22970000000000013,-16.877505807389888
-0.23070000000000002,-17.018976937376394
-0.23170000000000013,-17.146300954364243
-0.23270000000000002,-17.188742293360193
-0.23370000000000013,-17.188742293360193
-0.23470000000000002,-17.231183632356142
-0.23570000000000013,-17.2736249713521
-0.23670000000000002,-17.316066310348052
-0.2376999999999999,-17.4433903273359
-0.23870000000000002,-17.542420118326454
-0.2396999999999999,-17.71218547431026
-0.24070000000000003,-17.924392169290012
-0.24169999999999991,-18.15074597726842
-0.24270000000000003,-18.362952672248177
-0.24369999999999992,-18.53271802823198
-0.24470000000000003,-18.716630497214435
-0.24569999999999992,-18.80151317520634
-0.24670000000000003,-18.88639585319824
-0.24769999999999992,-18.92883719219419
-0.24870000000000003,-19.01371987018609
-0.24969999999999992,-19.01371987018609
-0.25070000000000003,-19.197632339168546
-0.2516999999999999,-19.28251501716045
-0.25270000000000004,-19.49472171214021
-0.2536999999999999,-19.763516859114564
-0.25470000000000004,-20.01816489309027
-0.2556999999999999,-20.244518701068674
-0.25670000000000004,-20.456725396048434
-0.25769999999999993,-20.626490752032236
-0.25870000000000004,-20.810403221014692
-0.25969999999999993,-20.93772723800254
-0.26070000000000004,-21.022609915994444
-0.26169999999999993,-21.107492593986347
-0.26270000000000004,-21.2065223849769
-0.26369999999999993,-21.376287740960702
-0.26470000000000005,-21.54605309694451
-0.26569999999999994,-21.772406904922917
-0.26670000000000005,-22.027054938898623
-0.26769999999999994,-22.33829142486893
-0.26870000000000005,-22.592939458844636
-0.26969999999999994,-22.904175944814945
-0.27070000000000005,-23.15882397879065
-0.27169999999999994,-23.385177786769056
-0.27270000000000005,-23.55494314275286
-0.27369999999999994,-23.724708498736668
-0.27470000000000006,-23.823738289727217
-0.27569999999999995,-24.035944984706973
-0.27670000000000006,-24.16326900169483
-0.27769999999999995,-24.432064148669184
-0.27870000000000006,-24.64427084364894
-0.27969999999999995,-24.95550732961925
-0.28070000000000006,-25.295038041586857
-0.28169999999999995,-25.648715866553115
-0.28270000000000006,-26.002393691519377
-0.28369999999999995,-26.29948306449103
-0.28470000000000006,-26.568278211465387
-0.28569999999999995,-26.822926245441096
-0.28670000000000007,-27.049280053419505
-0.28769999999999996,-27.261486748399253
-0.28870000000000007,-27.487840556377662
-0.28969999999999996,-27.65760591236147
-0.29070000000000007,-27.954695285333123
-0.29169999999999996,-28.22349043230748
-0.29270000000000007,-28.577168257273744
-0.29369999999999996,-28.959140308237306
-0.2947000000000001,-29.39770081119546
-0.29569999999999996,-29.793819975157668
-0.2967000000000001,-30.189939139119886
-0.29769999999999996,-30.571911190083444
-0.2987000000000001,-30.925589015049702
-0.29969999999999997,-31.23682550102001
-0.3007000000000001,-31.49147353499572
-0.30169999999999997,-31.802710020966025
-0.3027000000000001,-32.01491671594578
-0.30369999999999997,-32.41103587990799
-0.3047000000000001,-32.764713704874254
-0.30569999999999997,-33.18912709483376
-0.3067000000000001,-33.58524625879597
-0.3077,-34.10868943974604
-0.3087000000000001,-34.58969128170015
-0.3097,-35.07069312365426
-0.3107000000000001,-35.50925362661242
-0.3117,-35.99025546856653
-0.3127000000000001,-36.329786180534136
-0.3137,-36.6834640055004
-0.3147000000000001,-37.037141830466666
-0.3157,-37.334231203438314
-0.3167000000000001,-37.77279170639648
-0.3177,-38.16891087035869
-0.3187000000000001,-38.607471373316855
-0.3197,-39.130914554266916
-0.3207000000000001,-39.61191639622103
-0.3217,-40.177800916167044
-0.3227000000000001,-40.78612677510901
-0.3237,-41.267128617063115
-0.3247000000000001,-41.79057179801318
-0.3257,-42.229132300971344
-0.3267000000000001,-42.653545690930855
-0.3277,-43.09210619388902
-0.3287000000000001,-43.53066669684718
-0.3297,-43.92678586080939
-0.3307000000000001,-44.4077877027635
-0.3317,-44.93123088371356
-0.3327000000000001,-45.497115403659585
-0.3337,-46.10544126260155
-0.3347000000000001,-46.713767121543505
-0.3357,-47.36453431948143
-0.3367000000000001,-47.987007291422046
-0.3377,-48.55289181136806
-0.3387000000000001,-49.118776331314066
-0.3397,-49.642219512264134
-0.3407000000000001,-50.1656626932142
-0.3417,-50.64666453516831
-0.3427000000000001,-51.127666377122424
-0.3437,-51.69355089706845
-0.3447000000000001,-52.25943541701445
-0.3457,-52.91020261495237
-0.3467000000000001,-53.603411151886235
-0.3477,-54.31076680181876
-0.3487000000000001,-54.961533999756675
-0.3497,-55.6971838756865
-0.3507000000000001,-56.404539525619015
-0.3517,-57.05530672355693
-0.3527000000000001,-57.70607392149485
-0.3537,-58.27195844144086
-0.3547000000000001,-58.92272563937878
-0.3557,-59.502757272323436
-0.35670000000000013,-60.15352447026136
-0.3577,-60.84673300719523
-0.35870000000000013,-61.53994154412909
-0.3597,-62.28973853305756
-0.36070000000000013,-63.06782974798333
-0.3617,-63.902509414903705
-0.3626999999999999,-64.72304196882543
-0.3637,-65.51528029674984
-0.3646999999999999,-66.29337151167562
-0.3657,-67.04316850060408
-0.3666999999999999,-67.73637703753796
-0.3677,-68.44373268747047
-0.3686999999999999,-69.22182390239624
-0.36970000000000003,-69.91503243933012
-0.3706999999999999,-70.66482942825859
-0.37170000000000003,-71.48536198218031
-0.3726999999999999,-72.32004164910067
-0.37370000000000003,-73.23960399401295
-0.3746999999999999,-74.14501922592657
-0.37570000000000003,-75.06458157083884
-0.3766999999999999,-75.98414391575112
-0.37770000000000004,-76.86126492166746
-0.3786999999999999,-77.68179747558916
-0.37970000000000004,-78.51647714250953
-0.3806999999999999,-79.2945683574353
-0.38170000000000004,-80.08680668535972
-0.38269999999999993,-80.86489790028548
-0.38370000000000004,-81.69957756720586
-0.38469999999999993,-82.52011012112759
-0.38570000000000004,-83.48211380503581
-0.38669999999999993,-82.8313466070979
-0.38570000000000004,-79.81801153838538
-0.38469999999999993,-77.42714944161345
-0.38370000000000004,-75.50314207379701
-0.38269999999999993,-73.76304717496302
-0.38170000000000004,-72.27760031010472
-0.3806999999999999,-70.79215344524643
-0.37970000000000004,-69.39158925838004
-0.3786999999999999,-68.0900548625042
-0.37770000000000004,-66.77437335362974
-0.3766999999999999,-65.5577216357458
-0.37570000000000003,-64.42595259585376
-0.3746999999999999,-63.3366248949577
-0.37370000000000003,-62.33217987205352
-0.3726999999999999,-61.327734849149344
-0.37170000000000003,-60.36573116524111
-0.3706999999999999,-59.44616882032884
-0.36970000000000003,-58.45587091042332
-0.3686999999999999,-57.493867226515086
-0.3677,-56.489422203610914
-0.3666999999999999,-55.442535841710786
-0.3657,-54.39564947981066
-0.3646999999999999,-53.433645795902436
-0.3637,-52.386759434002315
-0.3626999999999999,-51.46719708909004
-0.3617,-50.46275206618586
-0.36070000000000013,-49.642219512264134
-0.3597,-48.84998118433972
-0.35870000000000013,-48.029448630417996
-0.3577,-47.27965164148953
-0.35670000000000013,-46.45911908756781
-0.3557,-45.624439420647434
-0.3547000000000001,-44.74731841473111
-0.3537,-43.88434452181344
-0.3527000000000001,-43.007223515897124
-0.3517,-42.130102509980794
-0.3507000000000001,-41.182245939071215
-0.3497,-40.34756627215084
-0.3487000000000001,-39.56947505722508
-0.3477,-38.81967806829661
-0.3467000000000001,-38.16891087035869
-0.3457,-37.47570233342482
-0.3447000000000001,-36.768346683492304
-0.3437,-36.16002082455034
-0.3427000000000001,-35.46681228761647
-0.3417,-34.8018979766799
-0.3407000000000001,-34.02380676175414
-0.3397,-33.18912709483376
-0.3387000000000001,-32.45347721890394
-0.3377,-31.618797551983565
-0.3367000000000001,-30.925589015049702
-0.3357,-30.189939139119886
-0.3347000000000001,-29.525024828183312
-0.3337,-28.91669896924135
-0.3327000000000001,-28.350814449295335
-0.3317,-27.78492992934932
-0.3307000000000001,-27.261486748399253
-0.3297,-26.65316088945729
-0.3287000000000001,-26.044835030515326
-0.3277,-25.39406783257741
-0.3267000000000001,-24.686712182644893
-0.3257,-24.035944984706973
-0.3247000000000001,-23.342736447773106
-0.3237,-22.592939458844636
-0.3227000000000001,-22.027054938898623
-0.3217,-21.333846401964752
-0.3207000000000001,-20.85284456001064
-0.3197,-20.329401379060574
-0.3187000000000001,-19.848399537106463
-0.3177,-19.409839034148305
-0.3167000000000001,-18.88639585319824
-0.3157,-18.362952672248177
-0.3147000000000001,-17.839509491298113
-0.3137,-17.231183632356142
-0.3127000000000001,-16.665299112410132
-0.3117,-16.099414592464115
-0.3107000000000001,-15.448647394526201
-0.3097,-14.925204213576137
-0.3087000000000001,-14.401761032626075
-0.3077,-13.960371107068182
-0.3067000000000001,-13.567081365705702
-0.30569999999999997,-13.175206335643086
-0.3047000000000001,-12.73806054398479
-0.30369999999999997,-12.346185513922174
-0.3027000000000001,-11.909039722263879
-0.30169999999999997,-11.517164692201263
-0.3007000000000001,-10.993721511251199
-0.29969999999999997,-10.470278330301136
-0.2987000000000001,-9.99069119964689
-0.29769999999999996,-9.467248018696827
-0.2967000000000001,-8.987660888042578
-0.29569999999999996,-8.594371146680096
-0.2947000000000001,-8.158640066321666
-0.29369999999999996,-7.853062425550818
-0.29270000000000007,-7.50504344578402
-0.29169999999999996,-7.199465805013171
-0.29070000000000007,-6.93774421453814
-0.28969999999999996,-6.588310523471475
-0.28870000000000007,-6.238876832404812
-0.28769999999999996,-5.80314575204638
-0.28670000000000007,-5.411270721983764
-0.28569999999999995,-4.974124930325469
-0.28470000000000006,-4.582249900262854
-0.28369999999999995,-4.146518819904423
-0.28270000000000006,-3.7970851288377587
-0.28169999999999995,-3.403795387475278
-0.28070000000000006,-3.1859298472960624
-0.27969999999999995,-2.924208256821031
-0.27870000000000006,-2.662486666345999
-0.27769999999999995,-2.4446211261667834
-0.27670000000000006,-2.1828995356917518
-0.27569999999999995,-1.92117794521672
-0.27470000000000006,-1.6156003044458718
-0.27369999999999994,-1.2671569112891135
-0.27270000000000005,-0.9181476336124089
-0.27169999999999994,-0.5692798270656908
-0.27070000000000005,-0.1330535977523067
-0.26969999999999994,0.12863969849672777
-0.26870000000000005,0.43403342679859325
