Potential V vs RHE, Current mA cm-2
0.05339999999999995,-0.03535363538362727
0.05239999999999995,-0.036584434214509846
0.051399999999999946,-0.037150318734455866
0.050399999999999945,-0.03758887923741403
0.049399999999999944,-0.03799914551437489
0.04839999999999994,-0.0383669704523398
0.04739999999999994,-0.03873479539030471
0.04639999999999994,-0.039088473215270966
0.04539999999999994,-0.039456298153235876
0.04439999999999994,-0.03986656443019673
0.04339999999999994,-0.04019194802916569
0.04239999999999994,-0.0405597729671306
0.04139999999999994,-0.04091345079209686
0.040399999999999936,-0.04126712861706312
0.039399999999999935,-0.04166324778102533
0.038399999999999934,-0.04203107271899024
0.03739999999999993,-0.0423564563179592
0.03639999999999993,-0.04272428125592411
0.03539999999999993,-0.04306381196789172
0.03439999999999993,-0.04344578401885528
0.03339999999999993,-0.043827756069818834
0.03239999999999993,-0.04418143389478509
0.03139999999999993,-0.04456340594574865
0.030399999999999927,-0.04490293665771626
0.029399999999999926,-0.04528490870867982
0.028399999999999925,-0.04565273364664474
0.027399999999999924,-0.04599226435861234
0.026399999999999924,-0.046360089296577256
0.025399999999999923,-0.04674206134754081
0.024399999999999922,-0.04715232762450167
0.02339999999999992,-0.047520152562466576
0.02239999999999992,-0.04790212461343014
0.02139999999999992,-0.048284096664393705
0.020399999999999918,-0.04865192160235861
0.019399999999999917,-0.04906218787931948
0.018399999999999916,-0.04944415993028303
0.017399999999999916,-0.049811984868247935
0.016399999999999915,-0.05017980980621285
0.015399999999999914,-0.05057592897017506
0.014399999999999913,-0.05097204813413727
0.013399999999999912,-0.051396461524096784
0.012399999999999911,-0.051778433575060345
0.01139999999999991,-0.05217455273902255
0.01039999999999991,-0.05255652478998611
0.009399999999999908,-0.052966791066946975
0.008399999999999908,-0.05336291023090918
0.007399999999999907,-0.05375902939487139
0.006399999999999906,-0.054169295671832256
0.005399999999999905,-0.05456541483579446
0.004399999999999904,-0.05498982822575398
0.003399999999999903,-0.05538594738971618
0.002399999999999902,-0.05578206655367839
0.0013999999999999013,-0.05619233283063926
0.00039999999999990044,-0.05661674622059877
-0.0006000000000001005,-0.05704115961055828
-0.0016000000000001013,-0.05743727877452049
-0.0026000000000001022,-0.057833397938482696
-0.003600000000000103,-0.05824366421544356
-0.004600000000000104,-0.05863978337940577
-0.005600000000000105,-0.05907834388236394
-0.006600000000000106,-0.05947446304632614
-0.007600000000000107,-0.0598564350972897
-0.008600000000000108,-0.060252554261251916
-0.009600000000000108,-0.06067696765121142
-0.01060000000000011,-0.06111552815416958
-0.01160000000000011,-0.061554088657127755
-0.012600000000000111,-0.06197850204708726
-0.013600000000000112,-0.06240291543704677
-0.014600000000000113,-0.06284147594000493
-0.015600000000000114,-0.0632800364429631
-0.016600000000000115,-0.0637044498329226
-0.017600000000000116,-0.06412886322288211
-0.018600000000000116,-0.06456742372584028
-0.019600000000000117,-0.06499183711579978
-0.020600000000000118,-0.06543039761875795
-0.02160000000000012,-0.06585481100871747
-0.02260000000000012,-0.06627922439867698
-0.02360000000000012,-0.06668949067563783
-0.024600000000000122,-0.06714219829159464
-0.025600000000000123,-0.0675807587945528
-0.026600000000000124,-0.06801931929751097
-0.027600000000000124,-0.06844373268747048
-0.028600000000000125,-0.06885399896443134
-0.029600000000000126,-0.0692642652413922
-0.030600000000000127,-0.06971697285734901
-0.03160000000000013,-0.07015553336030717
-0.03260000000000013,-0.07059409386326533
-0.03360000000000013,-0.07101850725322485
-0.03460000000000002,-0.07147121486918166
-0.03560000000000002,-0.07190977537213981
-0.03660000000000002,-0.07233418876209932
-0.03760000000000002,-0.07274445503906019
-0.03860000000000002,-0.07321130976801564
-0.039600000000000024,-0.0736215760449765
-0.040600000000000025,-0.07406013654793467
-0.041600000000000026,-0.07448454993789419
-0.04260000000000003,-0.07492311044085233
-0.04360000000000003,-0.07534752383081185
-0.04460000000000003,-0.07577193722077137
-0.04560000000000003,-0.07621049772372954
-0.04660000000000003,-0.07664905822668767
-0.04760000000000003,-0.07701688316465259
-0.04860000000000003,-0.07746959078060942
-0.04960000000000003,-0.07786570994457162
-0.050600000000000034,-0.07831841756052843
-0.051600000000000035,-0.0787569780634866
-0.052600000000000036,-0.0791530972274488
-0.053600000000000037,-0.07957751061740831
-0.05460000000000004,-0.07997362978137053
-0.05560000000000004,-0.08038389605833138
-0.05660000000000004,-0.08080830944829089
-0.05760000000000004,-0.08121857572525175
-0.05860000000000004,-0.08161469488921397
-0.05960000000000004,-0.08203910827917348
-0.06060000000000004,-0.08244937455613434
-0.061600000000000044,-0.08287378794609385
-0.06260000000000004,-0.08324161288405875
-0.06360000000000005,-0.08360943782202368
-0.06460000000000005,-0.08396311564698994
-0.06560000000000005,-0.08434508769795349
-0.06660000000000005,-0.0847412068619157
-0.06760000000000005,-0.08513732602587791
-0.06860000000000005,-0.08550515096384281
-0.06960000000000005,-0.08588712301480637
-0.07060000000000005,-0.08629738929176724
-0.07160000000000005,-0.08666521422973215
-0.07260000000000005,-0.0870188920546984
-0.07360000000000005,-0.08735842276666603
-0.07460000000000006,-0.08768380636563497
-0.07560000000000006,-0.08805163130359987
-0.07660000000000006,-0.08840530912856613
-0.07760000000000006,-0.08873069272753512
-0.07860000000000006,-0.08908437055250136
-0.07960000000000006,-0.08943804837746762
-0.08060000000000006,-0.08979172620243389
-0.08160000000000006,-0.09014540402740015
-0.08260000000000006,-0.09047078762636909
-0.08360000000000006,-0.09079617122533806
-0.08460000000000006,-0.09109326059830972
-0.08560000000000006,-0.09141864419727867
-0.08660000000000007,-0.09174402779624763
-0.08760000000000007,-0.09205526428221794
-0.08860000000000007,-0.09236650076818824
-0.08960000000000007,-0.09266359014115991
-0.09060000000000007,-0.0929748266271302
-0.09160000000000007,-0.09330021022609918
-0.09260000000000007,-0.09355485826007487
-0.09360000000000007,-0.09386609474604518
-0.09460000000000007,-0.09413488989301955
-0.09560000000000007,-0.09441783215299256
-0.09660000000000007,-0.09468662729996691
-0.09760000000000008,-0.09494127533394262
-0.09860000000000008,-0.09519592336791832
-0.09960000000000008,-0.09545057140189403
-0.10060000000000008,-0.09569107232287108
-0.10160000000000008,-0.09597401458284409
-0.10260000000000008,-0.09618622127782384
-0.10360000000000008,-0.09645501642479819
-0.10460000000000008,-0.09666722311977795
-0.10560000000000008,-0.09689357692775637
-0.10660000000000008,-0.09711993073573477
-0.10760000000000008,-0.09731799031771587
-0.10860000000000009,-0.09751604989969698
-0.10960000000000009,-0.09769996236867944
-0.11060000000000009,-0.09789802195066052
-0.11160000000000009,-0.09809608153264164
-0.11260000000000009,-0.09827999400162409
-0.11360000000000009,-0.09846390647060656
-0.11460000000000009,-0.09866196605258765
-0.11560000000000009,-0.09884587852157012
-0.11660000000000009,-0.09900149676455527
-0.1176000000000001,-0.09914296789454177
-0.1186000000000001,-0.09928443902452828
-0.1196000000000001,-0.09941176304151612
-0.1206000000000001,-0.09958152839749992
-0.1216000000000001,-0.09972299952748644
-0.1226000000000001,-0.09985032354447429
-0.1236000000000001,-0.09997764756146214
-0.1246000000000001,-0.10006253023945405
-0.1256000000000001,-0.10018985425644189
-0.1266000000000001,-0.1003313253864284
-0.1276000000000001,-0.10041620806442031
-0.1286000000000001,-0.10051523785541085
-0.1296000000000001,-0.10057182630740545
-0.1306000000000001,-0.10067085609839602
-0.1316000000000001,-0.10075573877638791
-0.1326000000000001,-0.10081232722838251
-0.1336000000000001,-0.10089720990637441
-0.1346000000000001,-0.10095379835836901
-0.1356000000000001,-0.10101038681036362
-0.1366000000000001,-0.10108112237535687
-0.1376000000000001,-0.10110941660135417
-0.1386000000000001,-0.10113771082735147
-0.1396000000000001,-0.10118015216634743
-0.1406000000000001,-0.10122259350534336
-0.14160000000000011,-0.10125088773134068
-0.14260000000000012,-0.10127918195733798
-0.14360000000000012,-0.10129332907033663
-0.14460000000000012,-0.10129332907033663
-0.14560000000000012,-0.10129332907033663
-0.14660000000000012,-0.10130747618333527
-0.14760000000000012,-0.10129332907033663
-0.14860000000000012,-0.10126503484433932
-0.14960000000000012,-0.10127918195733798
-0.15060000000000012,-0.10126503484433932
-0.15160000000000012,-0.10122259350534336
-0.15260000000000012,-0.10120844639234472
-0.15360000000000013,-0.10118015216634743
-0.15460000000000013,-0.10113771082735147
-0.15560000000000013,-0.10110941660135417
-0.15660000000000013,-0.10106697526235821
-0.15760000000000013,-0.10101038681036362
-0.15860000000000013,-0.10095379835836901
-0.15960000000000002,-0.10089720990637441
-0.16060000000000002,-0.10084062145437982
-0.16160000000000002,-0.10079818011538387
-0.16260000000000002,-0.10072744455039061
-0.16360000000000002,-0.10065670898539736
-0.16460000000000002,-0.10055767919440682
-0.16560000000000002,-0.10052938496840952
-0.16660000000000003,-0.1005010907424122
-0.16760000000000003,-0.10037376672542435
-0.16860000000000003,-0.10030303116043109
-0.16960000000000003,-0.10020400136944055
-0.17060000000000003,-0.10010497157845
-0.17160000000000003,-0.10000594178745945
-0.17260000000000003,-0.0999069119964689
-0.17360000000000003,-0.09979373509247969
-0.17460000000000003,-0.09966641107549183
-0.17560000000000003,-0.09958152839749992
-0.17660000000000003,-0.09948249860650937
-0.17760000000000004,-0.09936932170252018
-0.17860000000000004,-0.09925614479853098
-0.17960000000000004,-0.09914296789454177
-0.18060000000000004,-0.09901564387755392
-0.18160000000000004,-0.09893076119956201
-0.18260000000000004,-0.09878929006957551
-0.18360000000000004,-0.09866196605258765
-0.18460000000000004,-0.09854878914859845
-0.18560000000000004,-0.09840731801861195
-0.18660000000000004,-0.0983082882276214
-0.18760000000000004,-0.09815266998463625
-0.18860000000000005,-0.09802534596764839
-0.18960000000000005,-0.09786972772466324
-0.19060000000000005,-0.09775655082067403
-0.19160000000000005,-0.09764337391668483
-0.19260000000000005,-0.09750190278669833
-0.19360000000000005,-0.09736043165671183
-0.19460000000000005,-0.09721896052672531
-0.19560000000000005,-0.09710578362273611
-0.19660000000000005,-0.09696431249274962
-0.19760000000000005,-0.09683698847576175
-0.19860000000000005,-0.0966813702327766
-0.19960000000000006,-0.09652575198979144
-0.20060000000000006,-0.09639842797280361
-0.20160000000000006,-0.0962569568428171
-0.20260000000000006,-0.09611548571283059
-0.20360000000000006,-0.09595986746984543
-0.20460000000000006,-0.09580424922686027
-0.20560000000000006,-0.09567692520987243
-0.20660000000000006,-0.09553545407988592
-0.20760000000000006,-0.09536568872390214
-0.20860000000000006,-0.09522421759391562
-0.20960000000000006,-0.09506859935093047
-0.21060000000000006,-0.09491298110794531
-0.21160000000000007,-0.09478565709095746
-0.21260000000000007,-0.09464418596097096
-0.21360000000000007,-0.09447442060498715
-0.21460000000000007,-0.09431880236200199
-0.21560000000000007,-0.09419147834501414
-0.21660000000000007,-0.09407830144102494
-0.21760000000000007,-0.09393683031103843
-0.21860000000000007,-0.09376706495505463
-0.21960000000000007,-0.09362559382506812
-0.22060000000000007,-0.09348412269508162
-0.22160000000000007,-0.09334265156509512
-0.22260000000000008,-0.09318703332210997
-0.22360000000000008,-0.09304556219212347
-0.22460000000000008,-0.09288994394913831
-0.22560000000000008,-0.0927484728191518
-0.22660000000000008,-0.09260700168916529
-0.22760000000000008,-0.09245138344618015
-0.22860000000000008,-0.09230991231619365
-0.22960000000000008,-0.09215429407320849
-0.23060000000000008,-0.092012822943222
-0.23160000000000008,-0.09189964603923279
-0.23260000000000008,-0.09174402779624763
-0.23360000000000009,-0.09160255666626112
-0.2346000000000001,-0.09144693842327598
-0.2356000000000001,-0.09131961440628812
-0.2366000000000001,-0.09119229038930025
-0.2376000000000001,-0.09106496637231241
-0.2386000000000001,-0.09090934812932726
-0.2396000000000001,-0.09075372988634212
-0.2406000000000001,-0.0906405529823529
-0.2416000000000001,-0.09052737607836371
-0.2426000000000001,-0.09038590494837719
-0.2436000000000001,-0.09025858093138935
-0.2446000000000001,-0.09010296268840419
-0.2456000000000001,-0.08998978578441498
-0.2466000000000001,-0.08986246176742714
-0.2476000000000001,-0.08972099063744063
-0.2486000000000001,-0.08959366662045277
-0.2496000000000001,-0.08945219549046628
-0.2506000000000001,-0.08932487147347841
-0.2516000000000001,-0.08921169456948921
-0.2526000000000001,-0.08907022343950272
-0.2536000000000001,-0.08892875230951619
-0.2546000000000001,-0.08878728117952969
-0.2556000000000001,-0.08868825138853914
-0.2566000000000001,-0.0885892215975486
-0.2576000000000001,-0.08844775046756209
-0.2586000000000001,-0.08832042645057424
-0.2596000000000001,-0.08820724954658503
-0.2606000000000001,-0.08807992552959719
-0.2616000000000001,-0.08799504285160528
-0.2626000000000001,-0.08788186594761609
-0.2636000000000001,-0.08776868904362688
-0.2646000000000001,-0.08765551213963767
-0.2656000000000001,-0.08755648234864712
-0.2666000000000001,-0.08745745255765658
-0.2676000000000001,-0.08735842276666603
-0.2686000000000001,-0.08724524586267682
-0.2696000000000001,-0.08714621607168627
-0.2706000000000001,-0.08703303916769706
-0.2716000000000001,-0.08694815648970515
-0.2726000000000001,-0.0868491266987146
-0.2736000000000001,-0.08672180268172675
-0.2746000000000001,-0.0866227728907362
-0.2756000000000001,-0.08652374309974564
-0.2766000000000001,-0.08641056619575643
-0.2776000000000001,-0.08631153640476588
-0.2786000000000001,-0.08621250661377533
-0.2796000000000001,-0.08608518259678749
-0.2806000000000001,-0.08600029991879557
-0.28160000000000013,-0.08591541724080368
-0.28260000000000013,-0.08581638744981313
-0.28360000000000013,-0.08571735765882257
-0.2846,-0.08560418075483338
-0.2856,-0.08551929807684147
-0.2866,-0.08544856251184822
-0.2876,-0.08534953272085766
-0.2886,-0.08526465004286575
-0.2896,-0.08515147313887655
-0.2906,-0.0850807375738833
-0.2916,-0.0849958548958914
-0.2926,-0.08489682510490085
-0.2936,-0.08481194242690895
-0.29460000000000003,-0.0847412068619157
-0.29560000000000003,-0.08465632418392378
-0.29660000000000003,-0.08458558861893054
-0.29760000000000003,-0.08448655882793998
-0.29860000000000003,-0.08440167614994809
-0.29960000000000003,-0.08433094058495484
-0.30060000000000003,-0.08426020501996159
-0.30160000000000003,-0.08418946945496834
-0.30260000000000004,-0.08410458677697644
-0.30360000000000004,-0.08403385121198319
-0.30460000000000004,-0.08396311564698994
-0.30560000000000004,-0.08389238008199668
-0.30660000000000004,-0.08384993874300072
-0.30760000000000004,-0.08377920317800747
-0.30860000000000004,-0.08369432050001557
-0.30960000000000004,-0.08363773204802097
-0.31060000000000004,-0.08356699648302772
-0.31160000000000004,-0.08352455514403176
-0.31260000000000004,-0.08348211380503581
-0.31360000000000005,-0.08341137824004256
-0.31460000000000005,-0.08332649556205066
-0.31560000000000005,-0.08329820133605337
-0.31660000000000005,-0.08324161288405875
-0.31760000000000005,-0.08319917154506282
-0.31860000000000005,-0.08312843598006955
-0.31960000000000005,-0.08308599464107361
-0.32060000000000005,-0.083029406189079
-0.32160000000000005,-0.08298696485008306
-0.32260000000000005,-0.08293037639808845
-0.32360000000000005,-0.08287378794609385
-0.32460000000000006,-0.08281719949409926
-0.32560000000000006,-0.08276061104210465
-0.32660000000000006,-0.08273231681610735
-0.32760000000000006,-0.0826615812511141
-0.32860000000000006,-0.08261913991211814
-0.32960000000000006,-0.08256255146012353
-0.33060000000000006,-0.08253425723412625
-0.33160000000000006,-0.08250596300812894
-0.33260000000000006,-0.08246352166913298
-0.33360000000000006,-0.08239278610413973
-0.33460000000000006,-0.08236449187814243
-0.33560000000000006,-0.08233619765214513
-0.33660000000000007,-0.08230790342614784
-0.33760000000000007,-0.08225131497415322
-0.33860000000000007,-0.08222302074815592
-0.33960000000000007,-0.08219472652215863
-0.34060000000000007,-0.08215228518316267
-0.34160000000000007,-0.08212399095716538
-0.34260000000000007,-0.08209569673116808
-0.34360000000000007,-0.08205325539217213
-0.3446000000000001,-0.08202496116617483
-0.3456000000000001,-0.08199666694017753
-0.3466000000000001,-0.08198251982717887
-0.34759999999999996,-0.08195422560118158
-0.3486000000000001,-0.08191178426218561
-0.34959999999999997,-0.08188349003618833
-0.3506000000000001,-0.08186934292318966
-0.35159999999999997,-0.08186934292318966
-0.3526000000000001,-0.08185519581019103
-0.35359999999999997,-0.08181275447119508
-0.3546000000000001,-0.08179860735819641
-0.35559999999999997,-0.08178446024519778
-0.3566000000000001,-0.08179860735819641
-0.3576,-0.08177031313219911
-0.3586000000000001,-0.08174201890620184
-0.3596,-0.08171372468020452
-0.3606000000000001,-0.08172787179320316
-0.3616,-0.08171372468020452
-0.3626000000000001,-0.08169957756720586
-0.3636,-0.08169957756720586
-0.3646000000000001,-0.08169957756720586
-0.3656,-0.08168543045420722
-0.3666000000000001,-0.08169957756720586
-0.3676,-0.08168543045420722
-0.3686000000000001,-0.08167128334120857
-0.3696,-0.08168543045420722
-0.3706000000000001,-0.08169957756720586
-0.3716,-0.08171372468020452
-0.3726000000000001,-0.08169957756720586
-0.3736,-0.08169957756720586
-0.3746000000000001,-0.08171372468020452
-0.3756,-0.08169957756720586
-0.3766000000000001,-0.08172787179320316
-0.3776,-0.08174201890620184
-0.3786000000000001,-0.08174201890620184
-0.3796,-0.08175616601920047
-0.3806000000000001,-0.08177031313219911
-0.3816,-0.08182690158419371
-0.3826000000000001,-0.08181275447119508
-0.3836,-0.08182690158419371
-0.3846000000000001,-0.08185519581019103
-0.3856,-0.08185519581019103
-0.3866000000000001,-0.08191178426218561
-0.3876,-0.08194007848818292
-0.3886000000000001,-0.08194007848818292
-0.3896,-0.08196837271418023
-0.3906000000000001,-0.08199666694017753
-0.3916,-0.08203910827917348
-0.3926000000000001,-0.08206740250517078
-0.3936,-0.08208154961816942
-0.3946000000000001,-0.08210984384416672
-0.3956,-0.08218057940915997
-0.3966000000000001,-0.08223716786115459
-0.3976,-0.08226546208715188
-0.3986000000000001,-0.08229375631314918
-0.3996,-0.08232205053914649
-0.4006000000000001,-0.08237863899114109
-0.4016,-0.08244937455613434
-0.4026000000000001,-0.08247766878213163
-0.4036,-0.08253425723412625
-0.4046000000000001,-0.08257669857312219
-0.4056,-0.08264743413811544
-0.40660000000000013,-0.08271816970310869
-0.4076,-0.08276061104210465
-0.40860000000000013,-0.0828030523811006
-0.4096,-0.08287378794609385
-0.41060000000000013,-0.0829445235110871
-0.4116,-0.083029406189079
-0.41260000000000013,-0.08307184752807495
-0.4136,-0.0831425830930682
-0.41460000000000014,-0.08321331865806145
-0.4156,-0.0832840542230547
-0.41660000000000014,-0.08335478978804794
-0.4176,-0.08342552535304121
-0.41860000000000014,-0.08349626091803447
-0.41960000000000003,-0.08356699648302772
-0.42060000000000014,-0.08365187916101963
-0.42160000000000003,-0.08376505606500882
-0.42260000000000014,-0.08383579163000207
-0.42360000000000003,-0.08389238008199668
-0.42460000000000014,-0.08399140987298723
-0.42560000000000003,-0.08409043966397778
-0.42660000000000015,-0.08417532234196969
-0.42760000000000004,-0.08427435213296022
-0.42860000000000015,-0.08435923481095214
-0.42960000000000004,-0.08447241171494134
-0.43060000000000015,-0.0845714415059319
-0.43160000000000004,-0.0846846184099211
-0.43260000000000015,-0.0847977953139103
-0.43360000000000004,-0.08489682510490085
-0.43460000000000015,-0.08502414912188871
-0.43560000000000004,-0.08515147313887655
