Potential V vs RHE, Current mA cm-2
0.013299999999999867,23.41347201276636
0.012299999999999978,21.376287740960702
0.011299999999999866,19.452280373144255
0.010299999999999976,17.528273005327804
0.009299999999999864,15.618412750510005
0.008299999999999974,13.736846721689506
0.007299999999999862,11.862354249368334
0.006299999999999972,9.898734965155663
0.00529999999999986,8.022827781534623
0.0042999999999999705,6.1044792589176335
0.0032999999999998586,4.272428125592412
0.0022999999999999687,2.4403769922671885
0.0012999999999998568,0.6956135461436386
0.00029999999999996696,-1.0054353208140816
-0.000700000000000145,-2.706342716641815
-0.0017000000000000348,-4.276672259492005
-0.0027000000000001467,-5.890857852638012
-0.0037000000000000366,-7.5474847847799715
-0.0047000000000001485,-9.11781432763016
-0.005700000000000038,-10.819712021367803
-0.00670000000000015,-12.476338953509758
-0.00770000000000004,-14.175407224647667
-0.008700000000000152,-15.87306078448571
-0.009700000000000042,-17.48583166633185
-0.010700000000000154,-19.155191000172596
-0.011700000000000044,-20.76796188201874
-0.012700000000000156,-22.295850085872978
-0.013700000000000045,-23.823738289727217
-0.014700000000000157,-25.295038041586857
-0.015700000000000047,-26.65316088945729
-0.01670000000000016,-28.18104909331153
-0.01770000000000005,-29.62405461917387
-0.01870000000000016,-31.137795710029454
-0.01970000000000005,-32.66568391388369
-0.020700000000000163,-34.236013456733886
-0.021700000000000053,-35.806342999584075
-0.022700000000000164,-37.41911388143023
-0.023700000000000054,-38.94700208528445
-0.024700000000000166,-40.4748902891387
-0.025700000000000056,-41.91789581500104
-0.026700000000000168,-43.31846000186743
-0.027700000000000058,-44.704877075735155
-0.02870000000000017,-45.97811724561369
-0.02970000000000006,-47.27965164148953
-0.03070000000000017,-48.55289181136806
-0.03170000000000006,-49.85442620724389
-0.03270000000000017,-51.25499039411028
-0.03370000000000006,-52.64140746797801
-0.034700000000000175,-53.999530315848446
-0.035700000000000065,-55.400094502714836
-0.03670000000000018,-56.74407023758662
-0.03770000000000007,-58.10219308545706
-0.03870000000000018,-59.44616882032884
-0.03970000000000007,-60.71940899020737
-0.04070000000000018,-61.97850204708726
-0.04170000000000007,-63.20930087796983
-0.04270000000000018,-64.42595259585376
-0.04370000000000007,-65.7274869917296
-0.044700000000000184,-66.9582858226122
-0.045700000000000074,-68.30226155748396
-0.046700000000000186,-69.70282574435035
-0.047700000000000076,-71.06094859222078
-0.04870000000000019,-72.40492432709259
-0.04970000000000008,-73.76304717496302
-0.05070000000000019,-75.06458157083884
-0.05170000000000008,-76.33782174071737
-0.05270000000000019,-77.55447345860131
-0.05370000000000008,-78.77112517648524
-0.05470000000000019,-79.94533555537322
-0.05570000000000008,-81.09125170826391
-0.056700000000000195,-82.30790342614785
-0.057700000000000085,-83.48211380503581
-0.058700000000000196,-84.7129126359184
-0.059700000000000086,-85.92956435380233
-0.0607000000000002,-87.18865741068221
-0.06170000000000009,-88.5043389195567
-0.0627000000000002,-89.84831465442848
-0.06370000000000009,-91.12155482430701
-0.0647000000000002,-92.42308922018285
-0.06570000000000009,-93.61144671206948
-0.0667000000000002,-94.78565709095746
-0.0677000000000001,-95.83254345285758
-0.0687000000000002,-96.87942981475771
-0.0697000000000001,-97.92631617665783
-0.07070000000000021,-99.05808521654988
-0.0717000000000001,-100.18985425644189
-0.07270000000000021,-101.40650597432582
-0.0737000000000001,-102.67974614420436
-0.07470000000000021,-103.93883920108425
-0.0757000000000001,-105.25452070995874
-0.07670000000000021,-106.51361376683862
-0.0777000000000001,-107.78685393671715
-0.07870000000000021,-109.00350565460108
-0.0797000000000001,-110.17771603348905
-0.08070000000000022,-111.3094850733811
-0.0817000000000001,-112.48369545226906
-0.08270000000000022,-113.58717026616378
-0.08370000000000011,-114.76138064505177
-0.08470000000000022,-115.8931496849438
-0.08570000000000011,-117.06736006383179
-0.08670000000000022,-118.29815889471436
-0.08770000000000011,-119.47236927360234
-0.08870000000000022,-120.64657965249035
-0.08970000000000011,-121.82079003137831
-0.09070000000000022,-123.00914752326493
-0.09170000000000011,-124.22579924114888
-0.09270000000000023,-125.35756828104091
-0.09370000000000012,-126.44689598193698
-0.09470000000000023,-127.62110636082497
-0.09570000000000012,-128.66799272272507
-0.09670000000000023,-129.79976176261712
-0.09770000000000012,-130.90323657651186
-0.09870000000000023,-132.03500561640385
-0.09970000000000012,-133.20921599529186
-0.10070000000000023,-134.38342637417986
-0.10170000000000012,-135.5576367530678
-0.10270000000000024,-136.74599424495443
-0.10370000000000013,-137.83532194585052
-0.10470000000000024,-139.0095323247385
-0.10570000000000013,-140.14130136463055
-0.10670000000000024,-141.18818772653066
-0.10770000000000013,-142.31995676642268
-0.10870000000000024,-143.3102546763282
-0.10970000000000013,-144.44202371622026
-0.11070000000000024,-145.57379275611228
-0.11170000000000013,-146.7055617960043
-0.11270000000000002,-147.97880196588284
-0.11370000000000013,-149.1105710057749
-0.11470000000000002,-150.38381117565342
-0.11570000000000014,-151.65705134553193
-0.11670000000000003,-152.93029151541046
-0.11770000000000014,-154.203531685289
-0.11870000000000003,-155.33530072518104
-0.11970000000000014,-156.46706976507306
-0.12070000000000003,-157.59883880496508
-0.12170000000000014,-158.73060784485713
-0.12270000000000003,-159.72090575476264
-0.12370000000000014,-160.8526747946547
-0.12470000000000003,-161.9844438345467
-0.12570000000000014,-163.11621287443873
-0.12670000000000003,-164.24798191433075
-0.12770000000000015,-165.5212220842093
-0.12870000000000004,-166.79446225408785
-0.12970000000000015,-168.06770242396635
-0.13070000000000004,-169.19947146385837
-0.13170000000000015,-170.47271163373694
-0.13270000000000004,-171.60448067362896
-0.13370000000000015,-172.59477858353446
-0.13470000000000004,-173.72654762342648
-0.13570000000000015,-174.71684553333202
-0.13670000000000004,-175.84861457322407
-0.13770000000000016,-176.98038361311612
-0.13870000000000005,-178.1121526530081
-0.13970000000000016,-179.24392169290016
-0.14070000000000005,-180.5171618627787
-0.14170000000000016,-181.64893090267074
-0.14270000000000005,-182.92217107254925
-0.14370000000000016,-184.05394011244127
-0.14470000000000005,-185.3271802823198
-0.14570000000000016,-186.45894932221185
-0.14670000000000005,-187.59071836210387
-0.14770000000000016,-188.72248740199586
-0.14870000000000005,-189.71278531190143
-0.14970000000000017,-190.84455435179345
-0.15070000000000006,-191.9763233916855
-0.15170000000000017,-193.10809243157752
-0.15270000000000006,-194.38133260145605
-0.15370000000000017,-195.51310164134807
-0.15470000000000006,-196.6448706812401
-0.15570000000000017,-197.91811085111863
-0.15670000000000006,-199.04987989101065
-0.15770000000000017,-200.18164893090267
-0.15870000000000006,-201.31341797079472
-0.15970000000000018,-202.44518701068677
-0.16070000000000007,-203.57695605057876
-0.16170000000000018,-204.7087250904708
-0.16270000000000007,-205.69902300037634
-0.16370000000000018,-206.83079204026836
-0.16470000000000007,-207.96256108016038
-0.16570000000000018,-209.0943301200524
-0.16670000000000007,-210.22609915994445
-0.16770000000000018,-211.35786819983647
-0.16870000000000007,-212.631108369715
-0.16970000000000018,-213.76287740960703
-0.17070000000000007,-214.89464644949908
-0.17170000000000019,-216.0264154893911
-0.17270000000000008,-217.15818452928315
-0.1737000000000002,-218.28995356917517
-0.17470000000000008,-219.42172260906716
-0.1757000000000002,-220.5534916489592
-0.17670000000000008,-221.68526068885126
-0.1777000000000002,-222.81702972874328
-0.17870000000000008,-224.09026989862178
-0.1797000000000002,-225.22203893851383
-0.18070000000000008,-226.49527910839237
-0.1817000000000002,-227.62704814828442
-0.18270000000000008,-228.90028831816295
-0.1837000000000002,-230.17352848804146
-0.1847000000000001,-231.44676865792
-0.1857000000000002,-232.57853769781204
-0.1867000000000001,-233.71030673770406
-0.1877000000000002,-234.84207577759608
-0.1887000000000001,-235.97384481748813
-0.1897000000000002,-236.96414272739366
-0.1907000000000001,-238.0959117672857
-0.1917000000000001,-239.0862096771912
-0.19269999999999998,-240.35944984706975
-0.1937000000000001,-241.49121888696175
-0.19469999999999998,-242.62298792685377
-0.1957000000000001,-243.8962280967323
-0.19669999999999999,-245.02799713662432
-0.1977000000000001,-246.30123730650286
-0.1987,-247.57447747638145
-0.1997000000000001,-248.70624651627344
-0.2007,-249.979486686152
-0.2017000000000001,-250.9697845960575
-0.2027,-251.96008250596302
-0.2037000000000001,-253.09185154585506
-0.2047,-254.08214945576057
-0.2057000000000001,-255.21391849565262
-0.2067,-256.34568753554464
-0.2077000000000001,-257.6189277054232
-0.2087,-258.7506967453152
-0.2097000000000001,-260.02393691519376
-0.2107,-261.1557059550858
-0.2117000000000001,-262.2874749949778
-0.2127,-263.27777290488336
-0.2137000000000001,-264.40954194477536
-0.2147,-265.5413109846674
-0.2157000000000001,-266.6730800245594
-0.2167,-267.6633779344649
-0.21770000000000012,-268.79514697435695
-0.2187,-269.926916014249
-0.21970000000000012,-271.20015618412754
-0.2207,-272.47339635400607
-0.22170000000000012,-273.60516539389806
-0.2227,-274.87840556377665
-0.22370000000000012,-276.01017460366864
-0.2247,-277.2834147735472
-0.22570000000000012,-278.4151838134392
-0.2267,-279.40548172334474
-0.22770000000000012,-280.5372507632368
-0.22870000000000001,-281.8104909331153
-0.22970000000000013,-282.9422599730073
-0.23070000000000002,-284.07402901289936
-0.23170000000000013,-285.2057980527914
-0.23270000000000002,-286.33756709268346
-0.23370000000000013,-287.610807262562
-0.23470000000000002,-288.742576302454
-0.23570000000000013,-290.0158164723325
-0.23670000000000002,-291.14758551222457
-0.2376999999999999,-292.4208256821031
-0.23870000000000002,-293.55259472199515
-0.2396999999999999,-294.68436376188714
-0.24070000000000003,-295.8161328017792
-0.24169999999999991,-296.80643071168464
-0.24270000000000003,-297.9381997515767
-0.24369999999999992,-299.3529110514418
-0.24470000000000003,-300.6261512213203
-0.24569999999999992,-302.0408625211853
-0.24670000000000003,-303.5970449510368
-0.24769999999999992,-304.8702851209154
-0.24870000000000003,-306.1435252907939
-0.24969999999999992,-307.4167654606725
-0.25070000000000003,-308.8314767605375
-0.2516999999999999,-309.9632458004295
-0.25270000000000004,-310.95354371033505
-0.2536999999999999,-311.94384162024056
-0.25470000000000004,-312.9341395301461
-0.2556999999999999,-313.78296631006515
-0.25670000000000004,-314.6317930899841
-0.25769999999999993,-315.4806198699032
-0.25870000000000004,-316.47091777980876
-0.25969999999999993,-317.60268681970075
-0.26070000000000004,-319.01739811956577
-0.26169999999999993,-320.1491671594578
-0.26270000000000004,-321.42240732933635
-0.26369999999999993,-322.5541763692284
-0.26470000000000005,-323.9688876690934
-0.26569999999999994,-325.1006567089854
-0.26670000000000005,-326.373896878864
-0.26769999999999994,-327.6471370487425
-0.26870000000000005,-328.92037721862107
-0.26969999999999994,-329.9106751285266
-0.27070000000000005,-331.0424441684186
-0.27169999999999994,-332.03274207832413
-0.27270000000000005,-333.1645111182162
-0.27369999999999994,-334.43775128809466
-0.27470000000000006,-335.5695203279867
-0.27569999999999995,-336.70128936787876
-0.27670000000000006,-337.83305840777075
-0.27769999999999995,-338.96482744766274
-0.27870000000000006,-340.0965964875548
-0.27969999999999995,-340.94542326747387
-0.28070000000000006,-341.9357211773794
-0.28169999999999995,-342.92601908728494
-0.28270000000000006,-343.9163169971904
-0.28369999999999995,-345.04808603708244
-0.28470000000000006,-346.1798550769745
-0.28569999999999995,-347.45309524685297
-0.28670000000000007,-348.72633541673156
-0.28769999999999996,-349.9995755866101
-0.28870000000000007,-351.2728157564886
-0.28969999999999996,-352.54605592636716
-0.29070000000000007,-353.8192960962457
-0.29169999999999996,-355.09253626612417
-0.29270000000000007,-356.36577643600276
-0.29369999999999996,-357.4975454758948
-0.2947000000000001,-358.7707856457733
-0.29569999999999996,-359.90255468566534
-0.2967000000000001,-361.0343237255574
-0.29769999999999996,-362.16609276544943
-0.2987000000000001,-363.2978618053415
-0.29969999999999997,-364.4296308452335
-0.3007000000000001,-365.419928755139
-0.30169999999999997,-366.4102266650445
-0.3027000000000001,-367.5419957049365
-0.30369999999999997,-368.67376474482853
-0.3047000000000001,-369.8055337847206
-0.30569999999999997,-370.7958316946261
-0.3067000000000001,-371.78612960453165
-0.3077,-372.9178986444237
-0.3087000000000001,-373.90819655432915
-0.3097,-375.0399655942212
-0.3107000000000001,-376.0302635041267
-0.3117,-377.16203254401876
-0.3127000000000001,-378.2938015839108
-0.3137,-379.42557062380286
-0.3147000000000001,-380.69881079368133
-0.3157,-381.8305798335734
-0.3167000000000001,-382.96234887346543
-0.3177,-384.0941179133575
-0.3187000000000001,-385.08441582326304
-0.3197,-386.21618486315504
-0.3207000000000001,-387.20648277306054
-0.3217,-388.19678068296605
-0.3227000000000001,-389.1870785928716
-0.3237,-390.1773765027771
-0.3247000000000001,-391.30914554266917
-0.3257,-392.4409145825612
-0.3267000000000001,-393.7141547524397
-0.3277,-394.9873949223183
-0.3287000000000001,-396.5435773521698
-0.3297,-397.81681752204827
-0.3307000000000001,-398.9485865619403
-0.3317,-399.9388844718459
-0.3327000000000001,-401.07065351173793
-0.3337,-402.06095142164344
-0.3347000000000001,-403.05124933154895
-0.3357,-404.04154724145445
-0.3367000000000001,-405.03184515135996
-0.3377,-405.88067193127904
-0.3387000000000001,-407.0124409711711
-0.3397,-408.1442100110631
-0.3407000000000001,-409.27597905095513
-0.3417,-410.4077480908472
-0.3427000000000001,-411.53951713073917
-0.3437,-412.8127573006177
-0.3447000000000001,-414.3689397304692
-0.3457,-415.6421799003478
-0.3467000000000001,-416.7739489402398
-0.3477,-418.1886602401048
-0.3487000000000001,-419.6033715399698
-0.3497,-420.8766117098484
-0.3507000000000001,-422.00838074974047
-0.3517,-422.998678659646
-0.3527000000000001,-423.847505439565
-0.3537,-424.6963322194841
-0.3547000000000001,-425.54515899940304
-0.3557,-426.2525146493356
-0.35670000000000013,-427.1013414292546
-0.3577,-427.8086970791871
-0.35870000000000013,-428.5160527291196
-0.3597,-429.50635063902513
-0.36070000000000013,-430.49664854893064
-0.3617,-431.4869464588362
-0.3626999999999999,-432.6187154987282
-0.3637,-433.75048453862024
-0.3646999999999999,-434.8822535785123
-0.3657,-436.1554937483908
-0.3666999999999999,-437.2872627882828
-0.3677,-438.41903182817487
-0.3686999999999999,-439.5508008680669
-0.36970000000000003,-440.68256990795896
-0.3706999999999999,-441.67286781786447
-0.37170000000000003,-442.5216945977835
-0.3726999999999999,-443.511992507689
-0.37370000000000003,-444.360819287608
-0.3746999999999999,-445.3511171975136
-0.37570000000000003,-446.19994397743255
-0.3766999999999999,-447.19024188733806
-0.37770000000000004,-448.18053979724357
-0.3786999999999999,-449.31230883713556
-0.37970000000000004,-450.58554900701427
-0.3806999999999999,-451.71731804690626
-0.38170000000000004,-452.99055821678473
-0.38269999999999993,-454.4052695166498
-0.38370000000000004,-455.67850968652834
-0.38469999999999993,-456.6688075964339
-0.38570000000000004,-457.5176343763529
-0.38669999999999993,-456.81027872642034
-0.38570000000000004,-453.6979138667173
-0.38469999999999993,-450.44407787702767
-0.38370000000000004,-447.3317130173246
-0.38269999999999993,-444.2193481576215
-0.38170000000000004,-441.3899255578914
-0.3806999999999999,-438.56050295816135
-0.37970000000000004,-435.4481380984583
-0.3786999999999999,-432.3357732387552
-0.37770000000000004,-429.36487950903864
-0.3766999999999999,-426.53545690930855
-0.37570000000000003,-423.42309204960543
-0.3746999999999999,-420.4521983198889
-0.37370000000000003,-417.48130459017233
-0.3726999999999999,-414.51041086045575
-0.37170000000000003,-411.6809882607257
-0.3706999999999999,-408.7100945310091
-0.36970000000000003,-405.88067193127904
-0.3686999999999999,-402.9097782015624
-0.3677,-400.08035560183237
-0.3666999999999999,-397.2509330021023
-0.3657,-394.2800392723857
-0.3646999999999999,-391.4506166726556
-0.3637,-388.6211940729256
-0.3626999999999999,-385.933242603182
-0.3617,-383.2452911334384
-0.36070000000000013,-380.41586853370836
-0.3597,-377.58644593397827
-0.35870000000000013,-374.61555220426175
-0.3577,-371.78612960453165
-0.35670000000000013,-368.95670700480156
-0.3557,-365.985813275085
-0.3547000000000001,-363.1563906753549
-0.3537,-360.3269680756248
-0.3527000000000001,-357.63901660588124
-0.3517,-354.95106513613774
-0.3507000000000001,-352.4045847963807
-0.3497,-349.9995755866101
-0.3487000000000001,-347.45309524685297
-0.3477,-344.90661490709596
-0.3467000000000001,-342.3601345673389
-0.3457,-339.95512535756825
-0.3447000000000001,-337.26717388782475
-0.3437,-334.7206935480677
-0.3427000000000001,-332.1742132083106
-0.3417,-329.62773286855355
-0.3407000000000001,-327.222723658783
-0.3397,-324.67624331902596
-0.3387000000000001,-322.2712341092554
-0.3377,-319.8662248994848
-0.3367000000000001,-317.3197445597277
-0.3357,-314.91473534995714
-0.3347000000000001,-312.36825501020013
-0.3337,-309.821774670443
-0.3327000000000001,-307.4167654606725
-0.3317,-304.8702851209154
-0.3307000000000001,-302.32380478115834
-0.3297,-299.7773244414013
-0.3287000000000001,-297.3723152316307
-0.3277,-294.96730602186017
-0.3267000000000001,-292.56229681208964
-0.3257,-290.29875873230554
-0.3247000000000001,-287.893749522535
-0.3237,-285.6302114427509
-0.3227000000000001,-283.3666733629668
-0.3217,-280.9616641531963
-0.3207000000000001,-278.5566549434257
-0.3197,-276.15164573365513
-0.3187000000000001,-273.60516539389806
-0.3177,-271.05868505414105
-0.3167000000000001,-268.65367584437047
-0.3157,-266.1071955046134
-0.3147000000000001,-263.7021862948428
-0.3137,-261.1557059550858
-0.3127000000000001,-258.8921678753017
-0.3117,-256.77010092550415
-0.3107000000000001,-254.64803397570657
-0.3097,-252.52596702590907
-0.3087000000000001,-250.262428946125
-0.3077,-247.99889086634093
-0.3067000000000001,-245.59388165657037
-0.30569999999999997,-243.18887244679982
-0.3047000000000001,-240.64239210704275
-0.30369999999999997,-238.2373828972722
-0.3027000000000001,-235.83237368750162
-0.30169999999999997,-233.4273644777311
-0.3007000000000001,-231.163826397947
-0.29969999999999997,-228.90028831816295
-0.2987000000000001,-226.77822136836537
-0.29769999999999996,-224.65615441856778
-0.2967000000000001,-222.3926163387838
-0.29569999999999996,-220.2705493889862
-0.2947000000000001,-218.00701130920217
-0.29369999999999996,-215.7434732294181
-0.29270000000000007,-213.33846401964755
-0.29169999999999996,-211.07492593986345
-0.29070000000000007,-208.8113878600794
-0.28969999999999996,-206.54784978029537
-0.28870000000000007,-204.14284057052478
-0.28769999999999996,-201.87930249074074
-0.28670000000000007,-199.75723554094319
-0.28569999999999995,-197.63516859114563
-0.28470000000000006,-195.51310164134807
-0.28369999999999995,-193.3910346915505
-0.28270000000000006,-191.268967741753
-0.28169999999999995,-189.1469007919554
-0.28070000000000006,-186.88336271217133
-0.27969999999999995,-184.6198246323873
-0.27870000000000006,-182.35628655260325
-0.27769999999999995,-180.09274847281918
-0.27670000000000006,-177.9706815230216
-0.27569999999999995,-175.84861457322407
-0.27470000000000006,-173.72654762342648
-0.27369999999999994,-171.60448067362896
-0.27270000000000005,-169.48241372383137
-0.27169999999999994,-167.50181790402033
-0.27070000000000005,-165.5212220842093
-0.26969999999999994,-163.54062626439824
-0.26870000000000005,-161.41855931460069
-0.26769999999999994,-159.29649236480313
