Potential V vs RHE, Current mA cm-2
0.013299999999999867,30.571911190083444
0.012299999999999978,28.60546248327104
0.011299999999999866,26.65316088945729
0.010299999999999976,24.559388165657033
0.009299999999999864,22.592939458844636
0.008299999999999974,20.79625610801604
0.007299999999999862,19.1834852261699
0.006299999999999972,17.613155683319707
0.00529999999999986,16.000384801473565
0.0042999999999999705,14.217848563643619
0.0032999999999998586,12.384382719018532
0.0022999999999999687,10.683899736580756
0.0012999999999998568,9.06971414343475
0.00029999999999996696,7.674808801767824
-0.000700000000000145,6.234632698505217
-0.0017000000000000348,4.795871306542475
-0.0027000000000001467,3.1816857133964676
-0.0037000000000000366,1.5250587812545096
-0.0047000000000001485,-0.04582249900262853
-0.005700000000000038,-1.4415908145624723
-0.00670000000000015,-2.7501987669376318
-0.00770000000000004,-4.102662769608606
-0.008700000000000152,-5.5414241615713475
-0.009700000000000042,-7.067897654125724
-0.010700000000000154,-8.594371146680096
-0.011700000000000044,-9.99069119964689
-0.012700000000000156,-11.255443101726232
-0.013700000000000045,-12.476338953509758
-0.014700000000000157,-13.784946905884919
-0.015700000000000047,-15.137410908555893
-0.01670000000000016,-16.665299112410132
-0.01770000000000005,-18.009274847281915
-0.01870000000000016,-19.28251501716045
-0.01970000000000005,-20.414284057052477
-0.020700000000000163,-21.58849443594046
-0.021700000000000053,-22.861734605818995
-0.022700000000000164,-24.16326900169483
-0.023700000000000054,-25.60627452755716
-0.024700000000000166,-26.907808923433
-0.025700000000000056,-28.05372507632368
-0.026700000000000168,-29.100611438223805
-0.027700000000000058,-30.232380478115836
-0.02870000000000017,-31.49147353499572
-0.02970000000000006,-32.807155043870196
-0.03070000000000017,-34.10868943974604
-0.03170000000000006,-35.282899818634014
-0.03270000000000017,-36.37222751953009
-0.03370000000000006,-37.334231203438314
-0.034700000000000175,-38.38111756533845
-0.035700000000000065,-39.61191639622103
-0.03670000000000018,-40.87100945310091
-0.03770000000000007,-42.087661170984845
-0.03870000000000018,-43.17698887188092
-0.03970000000000007,-44.096551216793195
-0.04070000000000018,-45.143437578693316
-0.04170000000000007,-46.19032394059345
-0.04270000000000018,-47.40697565847737
-0.04370000000000007,-48.68021582835591
-0.044700000000000184,-49.76954352925199
-0.045700000000000074,-50.77398855215617
-0.046700000000000186,-51.65110955807249
-0.047700000000000076,-52.55652478998611
-0.04870000000000019,-53.68829382987814
-0.04970000000000008,-54.876651321764776
-0.05070000000000019,-56.093303039648696
-0.05170000000000008,-57.182630740544774
-0.05270000000000019,-58.14463442445301
-0.05370000000000008,-59.02175543036933
-0.05470000000000019,-59.9696120012789
-0.05570000000000008,-61.07308681517363
-0.056700000000000195,-62.24729719406162
-0.057700000000000085,-63.37906623395363
-0.058700000000000196,-64.38351125685783
-0.059700000000000086,-65.3030736017701
-0.0607000000000002,-66.20848883368372
-0.06170000000000009,-67.21293385658788
-0.0627000000000002,-68.25982021848802
-0.06370000000000009,-69.39158925838004
-0.0647000000000002,-70.39603428128423
-0.06570000000000009,-71.31559662619651
-0.0667000000000002,-72.19271763211282
-0.0677000000000001,-73.15472131602105
-0.0687000000000002,-74.24404901691713
-0.0697000000000001,-75.50314207379701
-0.07070000000000021,-76.67735245268499
-0.0717000000000001,-77.7242388145851
-0.07270000000000021,-78.68624249849334
-0.0737000000000001,-79.52092216541372
-0.07470000000000021,-80.46877873632329
-0.0757000000000001,-81.51566509822342
-0.07670000000000021,-82.61913991211814
-0.0777000000000001,-83.70846761301424
-0.07870000000000021,-84.6563241839238
-0.0797000000000001,-85.53344518984011
-0.08070000000000022,-86.41056619575643
-0.0817000000000001,-87.37256987966467
-0.08270000000000022,-88.4194562415648
-0.08370000000000011,-89.55122528145681
-0.08470000000000022,-90.59811164335694
-0.08570000000000011,-91.51767398826922
-0.08670000000000022,-92.29576520319499
-0.08770000000000011,-93.21532754810727
-0.08870000000000022,-94.30465524900335
-0.08970000000000011,-95.43642428889537
-0.09070000000000022,-96.61063466778336
-0.09170000000000011,-97.69996236867944
-0.09270000000000023,-98.6195247135917
-0.09370000000000012,-99.41176304151614
-0.09470000000000023,-100.2747369344338
-0.09570000000000012,-101.27918195733798
-0.09670000000000023,-102.41095099723
-0.09770000000000012,-103.50027869812607
-0.09870000000000023,-104.46228238203432
-0.09970000000000012,-105.29696204895468
-0.10070000000000023,-106.11749460287639
-0.10170000000000012,-106.99461560879273
-0.10270000000000024,-108.04150197069285
-0.10370000000000013,-109.08838833259297
-0.10470000000000024,-110.09283335549715
-0.10570000000000013,-111.01239570040943
-0.10670000000000024,-111.66316289834735
-0.10770000000000013,-112.31393009628526
-0.10870000000000024,-113.48814047517324
-0.10970000000000013,-114.80382198404773
-0.11070000000000024,-116.02047370193165
-0.11170000000000013,-117.06736006383179
-0.11270000000000002,-118.02936374774
-0.11370000000000013,-118.90648475365633
-0.11470000000000002,-119.769458646574
-0.11570000000000014,-120.85878634747009
-0.11670000000000003,-121.96226116136481
-0.11770000000000014,-122.91011773227437
-0.11870000000000003,-123.78723873819072
-0.11970000000000014,-124.52288861412055
-0.12070000000000003,-125.272685603049
-0.12170000000000014,-126.09321815697072
-0.12270000000000003,-127.05522184087894
-0.12370000000000014,-128.18699088077096
-0.12470000000000003,-129.19143590367514
-0.12570000000000014,-130.06855690959148
-0.12670000000000003,-130.84664812451723
-0.12770000000000015,-131.63888645244168
-0.12870000000000004,-132.516007458358
-0.12970000000000015,-133.46386402926754
-0.13070000000000004,-134.46830905217172
-0.13170000000000015,-135.34543005808808
-0.13270000000000004,-136.08107993401788
-0.13370000000000015,-136.8733182619423
-0.13470000000000004,-137.70799792886265
-0.13570000000000015,-138.61341316077628
-0.13670000000000004,-139.6602995226764
-0.13770000000000016,-140.62230320658463
-0.13870000000000005,-141.47112998650366
-0.13970000000000016,-142.31995676642268
-0.14070000000000005,-143.3102546763282
-0.14170000000000016,-144.30055258623375
-0.14270000000000005,-145.57379275611228
-0.14370000000000016,-146.7055617960043
-0.14470000000000005,-147.83733083589632
-0.14570000000000016,-148.82762874580186
-0.14670000000000005,-149.6764555257209
-0.14770000000000016,-150.66675343562642
-0.14870000000000005,-151.65705134553193
-0.14970000000000017,-152.78882038542397
-0.15070000000000006,-153.77911829532948
-0.15170000000000017,-154.9108873352215
-0.15270000000000006,-155.75971411514055
-0.15370000000000017,-156.75001202504606
-0.15470000000000006,-157.59883880496508
-0.15570000000000017,-158.73060784485713
-0.15670000000000006,-159.72090575476264
-0.15770000000000017,-160.71120366466818
-0.15870000000000006,-161.70150157457368
-0.15970000000000018,-162.40885722450622
-0.16070000000000007,-163.25768400442522
-0.16170000000000018,-164.10651078434424
-0.16270000000000007,-165.2382798242363
-0.16370000000000018,-166.3700488641283
-0.16470000000000007,-167.36034677403384
-0.16570000000000018,-168.35064468393938
-0.16670000000000007,-169.19947146385837
-0.16770000000000018,-170.0482982437774
-0.16870000000000007,-171.18006728366944
-0.16970000000000018,-172.31183632356147
-0.17070000000000007,-173.44360536345349
-0.17170000000000019,-174.43390327335902
-0.17270000000000008,-175.42420118326456
-0.1737000000000002,-176.13155683319707
-0.17470000000000008,-176.98038361311612
-0.1757000000000002,-177.9706815230216
-0.17670000000000008,-179.10245056291362
-0.1777000000000002,-180.23421960280567
-0.17870000000000008,-181.08304638272472
-0.1797000000000002,-181.93187316264374
-0.18070000000000008,-182.78069994256273
-0.1817000000000002,-183.62952672248176
-0.18270000000000008,-184.6198246323873
-0.1837000000000002,-185.6101225422928
-0.1847000000000001,-186.60042045219836
-0.1857000000000002,-187.44924723211736
-0.1867000000000001,-188.29807401203638
-0.1877000000000002,-189.1469007919554
-0.1887000000000001,-189.99572757187443
-0.1897000000000002,-191.12749661176645
-0.1907000000000001,-192.11779452167198
-0.1917000000000001,-193.10809243157752
-0.19269999999999998,-193.9569192114965
-0.1937000000000001,-194.66427486142905
-0.19469999999999998,-195.51310164134807
-0.1957000000000001,-196.50339955125358
-0.19669999999999999,-197.77663972113214
-0.1977000000000001,-198.76693763103765
-0.1987,-199.61576441095667
-0.1997000000000001,-200.3231200608892
-0.2007,-201.03047571082172
-0.2017000000000001,-201.87930249074074
-0.2027,-202.7281292706598
-0.2037000000000001,-203.85989831055176
-0.2047,-204.8501962204573
-0.2057000000000001,-205.84049413036286
-0.2067,-206.54784978029537
-0.2077000000000001,-207.5381476902009
-0.2087,-208.3869744701199
-0.2097000000000001,-209.37727238002543
-0.2107,-210.36757028993094
-0.2117000000000001,-211.499339329823
-0.2127,-212.34816610974204
-0.2137000000000001,-213.19699288966103
-0.2147,-214.04581966958003
-0.2157000000000001,-215.03611757948556
-0.2167,-216.0264154893911
-0.21770000000000012,-217.15818452928315
-0.2187,-218.14848243918865
-0.21970000000000012,-218.85583808912116
-0.2207,-219.7046648690402
-0.22170000000000012,-220.6949627789457
-0.2227,-221.82673181883774
-0.22370000000000012,-222.9585008587298
-0.2247,-223.9487987686353
-0.22570000000000012,-224.79762554855435
-0.2267,-225.50498119848683
-0.22770000000000012,-226.35380797840588
-0.22870000000000001,-227.06116362833836
-0.22970000000000013,-228.0514615382439
-0.23070000000000002,-229.18323057813595
-0.23170000000000013,-230.17352848804146
-0.23270000000000002,-231.163826397947
-0.23370000000000013,-232.01265317786604
-0.23470000000000002,-233.00295108777152
-0.23570000000000013,-233.99324899767706
-0.23670000000000002,-235.12501803756908
-0.2376999999999999,-236.1153159474746
-0.23870000000000002,-236.82267159740715
-0.2396999999999999,-237.53002724733966
-0.24070000000000003,-238.37885402725868
-0.24169999999999991,-239.36915193716422
-0.24270000000000003,-240.50092097705624
-0.24369999999999992,-241.49121888696175
-0.24470000000000003,-242.48151679686728
-0.24569999999999992,-243.18887244679982
-0.24670000000000003,-243.75475696674582
-0.24769999999999992,-244.46211261667833
-0.24870000000000003,-245.45241052658386
-0.24969999999999992,-246.5841795664759
-0.25070000000000003,-247.71594860636796
-0.2516999999999999,-248.70624651627344
-0.25270000000000004,-249.5550732961925
-0.2536999999999999,-250.4039000761115
-0.25470000000000004,-251.111255726044
-0.2556999999999999,-251.96008250596302
-0.25670000000000004,-252.80890928588207
-0.25769999999999993,-253.79920719578757
-0.25870000000000004,-254.50656284572008
-0.25969999999999993,-255.35538962563913
-0.26070000000000004,-256.20421640555816
-0.26169999999999993,-257.33598544545015
-0.26270000000000004,-258.32628335535566
-0.26369999999999993,-259.4580523952477
-0.26470000000000005,-260.3068791751668
-0.26569999999999994,-260.8727636951128
-0.26670000000000005,-261.4386482150588
-0.26769999999999994,-262.1460038649913
-0.26870000000000005,-262.9948306449103
-0.26969999999999994,-263.98512855481584
-0.27070000000000005,-264.9754264647214
-0.27169999999999994,-265.82425324464043
-0.27270000000000005,-266.5316088945729
-0.27369999999999994,-267.23896454450545
-0.27470000000000006,-267.94632019443793
-0.27569999999999995,-268.93661810434344
-0.27670000000000006,-270.0683871442355
-0.27769999999999995,-271.05868505414105
-0.27870000000000006,-271.9075118340601
-0.27969999999999995,-272.61486748399255
-0.28070000000000006,-273.4636942639116
-0.28169999999999995,-274.31252104383066
-0.28270000000000006,-275.44429008372265
-0.28369999999999995,-276.43458799362816
-0.28470000000000006,-277.2834147735472
-0.28569999999999995,-277.9907704234797
-0.28670000000000007,-278.6981260734122
-0.28769999999999996,-279.40548172334474
-0.28870000000000007,-280.3957796332503
-0.28969999999999996,-281.3860775431558
-0.29070000000000007,-282.3763754530613
-0.29169999999999996,-283.22520223298034
-0.29270000000000007,-283.9325578829129
-0.29369999999999996,-284.63991353284536
-0.2947000000000001,-285.3472691827779
-0.29569999999999996,-286.196095962697
-0.2967000000000001,-287.327865002589
-0.29769999999999996,-288.176691782508
-0.2987000000000001,-289.02551856242695
-0.29969999999999997,-289.73287421235955
-0.3007000000000001,-290.44022986229203
-0.30169999999999997,-291.4305277721976
-0.3027000000000001,-292.4208256821031
-0.30369999999999997,-293.4111235920086
-0.3047000000000001,-294.4014215019141
-0.30569999999999997,-295.25024828183314
-0.3067000000000001,-295.9576039317657
-0.3077,-296.6649595816982
-0.3087000000000001,-297.3723152316307
-0.3097,-298.2211420115498
-0.3107000000000001,-299.06996879146874
-0.3117,-299.7773244414013
-0.3127000000000001,-300.48468009133376
-0.3137,-301.1920357412663
-0.3147000000000001,-301.8993913911989
-0.3157,-302.88968930110434
-0.3167000000000001,-303.87998721100985
-0.3177,-304.8702851209154
-0.3187000000000001,-305.57764077084795
-0.3197,-306.1435252907939
-0.3207000000000001,-306.56793868075346
-0.3217,-307.1338232006995
-0.3227000000000001,-308.124121110605
-0.3237,-309.255890150497
-0.3247000000000001,-310.10471693041603
-0.3257,-310.95354371033505
-0.3267000000000001,-311.5194282302811
-0.3277,-312.0853127502271
-0.3287000000000001,-312.9341395301461
-0.3297,-313.78296631006515
-0.3307000000000001,-314.6317930899841
-0.3317,-315.4806198699032
-0.3327000000000001,-316.04650438984913
-0.3337,-316.7538600397817
-0.3347000000000001,-317.46121568971427
-0.3357,-318.16857133964675
-0.3367000000000001,-319.01739811956577
-0.3377,-319.72475376949825
-0.3387000000000001,-320.4321094194308
-0.3397,-321.1394650693634
-0.3407000000000001,-321.8468207192958
-0.3417,-322.6956474992149
-0.3427000000000001,-323.68594540912045
-0.3437,-324.5347721890394
-0.3447000000000001,-325.3835989689584
-0.3457,-325.94948348890443
-0.3467000000000001,-326.373896878864
-0.3477,-327.0812525287965
-0.3487000000000001,-327.788608178729
-0.3497,-328.63743495864804
-0.3507000000000001,-329.48626173856707
-0.3517,-330.05214625851306
-0.3527000000000001,-330.618030778459
-0.3537,-331.18391529840505
-0.3547000000000001,-331.74979981835105
-0.3557,-332.59862659827013
-0.35670000000000013,-333.44745337818915
-0.3577,-334.2962801581082
-0.35870000000000013,-335.00363580804066
-0.3597,-335.5695203279867
-0.36070000000000013,-336.1354048479327
-0.3617,-336.84276049786524
-0.3626999999999999,-337.69158727778427
-0.3637,-338.39894292771675
-0.3646999999999999,-339.1062985776493
-0.3657,-339.6721830975953
-0.3666999999999999,-340.2380676175413
-0.3677,-340.94542326747387
-0.3686999999999999,-341.9357211773794
-0.36970000000000003,-342.92601908728494
-0.3706999999999999,-343.7748458672039
-0.37170000000000003,-344.1992592571634
-0.3726999999999999,-344.48220151713645
-0.37370000000000003,-344.7651437771094
-0.3746999999999999,-345.04808603708244
-0.37570000000000003,-345.7554416870149
-0.3766999999999999,-346.604268466934
-0.37770000000000004,-347.45309524685297
-0.3786999999999999,-348.16045089678556
-0.37970000000000004,-348.86780654671804
-0.3806999999999999,-349.43369106666404
-0.38170000000000004,-349.9995755866101
-0.38269999999999993,-350.7069312365426
-0.38370000000000004,-351.2728157564886
-0.38469999999999993,-351.8387002764346
-0.38570000000000004,-352.26311366639413
-0.38669999999999993,-351.1313446265021
-0.38570000000000004,-347.45309524685297
-0.38469999999999993,-344.1992592571634
-0.38370000000000004,-340.94542326747387
-0.38269999999999993,-337.69158727778427
-0.38170000000000004,-334.2962801581082
-0.3806999999999999,-330.9009730384321
-0.37970000000000004,-327.505665918756
-0.3786999999999999,-324.25182992906645
-0.37770000000000004,-321.1394650693634
-0.3766999999999999,-318.31004246963323
-0.37570000000000003,-315.19767760993017
-0.3746999999999999,-312.0853127502271
-0.37370000000000003,-308.972947890524
-0.3726999999999999,-305.71911190083443
-0.37170000000000003,-302.74821817111786
-0.3706999999999999,-299.7773244414013
-0.36970000000000003,-296.80643071168464
-0.3686999999999999,-293.6940658519816
-0.3677,-290.86464325225154
-0.3666999999999999,-287.7522783925485
-0.3657,-284.9228557928184
-0.3646999999999999,-281.9519620631018
-0.3637,-279.1225394633717
-0.3626999999999999,-276.29311686364167
-0.3617,-273.3222231339251
-0.36070000000000013,-270.35132940420846
-0.3597,-267.23896454450545
-0.35870000000000013,-264.2680708147888
-0.3577,-261.58011934504526
-0.35670000000000013,-259.0336390052882
-0.3557,-256.34568753554464
-0.3547000000000001,-253.51626493581452
-0.3537,-250.6868423360845
-0.3527000000000001,-247.71594860636796
-0.3517,-244.8865260066378
-0.3507000000000001,-242.34004566688077
-0.3497,-239.7935653271237
-0.3487000000000001,-237.10561385738015
-0.3477,-234.4176623876366
-0.3467000000000001,-231.5882397879065
-0.3457,-229.04175944814943
-0.3447000000000001,-226.35380797840588
-0.3437,-223.9487987686353
-0.3427000000000001,-221.40231842887826
-0.3417,-218.71436695913465
-0.3407000000000001,-215.88494435940459
-0.3397,-213.05552175967455
-0.3387000000000001,-210.36757028993094
-0.3377,-207.8210899501739
-0.3367000000000001,-205.55755187038983
-0.3357,-203.15254266061928
-0.3347000000000001,-200.4645911908757
-0.3337,-197.91811085111863
-0.3327000000000001,-195.37163051136156
-0.3317,-192.966621301591
-0.3307000000000001,-190.70308322180696
-0.3297,-188.29807401203638
-0.3287000000000001,-185.89306480226583
-0.3277,-183.34658446250873
-0.3267000000000001,-180.65863299276518
-0.3257,-178.1121526530081
-0.3247000000000001,-175.84861457322407
-0.3237,-173.58507649344
-0.3227000000000001,-171.46300954364247
-0.3217,-169.19947146385837
-0.3207000000000001,-166.65299112410133
-0.3197,-164.24798191433075
-0.3187000000000001,-161.84297270456022
-0.3177,-159.57943462477613
-0.3167000000000001,-157.31589654499206
-0.3157,-155.19382959519453
-0.3147000000000001,-153.07176264539694
-0.3137,-150.66675343562642
-0.3127000000000001,-148.26174422585584
-0.3117,-145.9982061460718
-0.3107000000000001,-143.87613919627424
-0.3097,-141.89554337646317
-0.3087000000000001,-139.6602995226764
-0.3077,-137.3543201038964
-0.3067000000000001,-134.9917522331218
-0.30569999999999997,-132.7706554923337
-0.3047000000000001,-130.67688276853346
-0.30369999999999997,-128.752875400717
-0.3027000000000001,-126.80057380690324
-0.30169999999999997,-124.70680108310299
-0.3007000000000001,-122.48570434231489
-0.29969999999999997,-120.25046048852812
-0.2987000000000001,-118.11424642573192
-0.29769999999999996,-116.20438617091412
-0.2967000000000001,-114.3228201420936
-0.29569999999999996,-112.3563714352812
-0.2947000000000001,-110.22015737248502
-0.29369999999999996,-107.99906063169689
-0.29270000000000007,-105.82040522990474
-0.29169999999999996,-103.76907384510045
-0.29070000000000007,-101.88750781627995
-0.28969999999999996,-100.02008890045809
-0.28870000000000007,-98.05364019364569
-0.28769999999999996,-96.00230880884139
-0.28670000000000007,-93.86609474604518
-0.28569999999999995,-91.85720470023682
-0.28470000000000006,-90.07466846240689
-0.28369999999999995,-88.27798511157829
-0.28270000000000006,-86.49544887374834
-0.28169999999999995,-84.52900016693594
-0.28070000000000006,-82.52011012112759
-0.27969999999999995,-80.46877873632329
-0.27870000000000006,-78.55891848150549
-0.27769999999999995,-76.81882358267148
-0.27670000000000006,-75.14946424883075
-0.27569999999999995,-73.40936934999675
-0.27470000000000006,-71.52780332117625
-0.27369999999999994,-69.53306038836655
-0.27270000000000005,-67.52417034255821
-0.27169999999999994,-65.76992833072556
-0.27070000000000005,-64.29862857886593
-0.26969999999999994,-62.77074037501168
-0.26870000000000005,-61.15796949316553
-0.26769999999999994,-59.36128614233694
