Potential V vs RHE, Current mA cm-2
0.013299999999999867,25.0828313466071
0.012299999999999978,23.031499961802798
0.011299999999999866,21.149933932982297
0.010299999999999976,19.28251501716045
0.009299999999999864,17.40094898833995
0.008299999999999974,15.519382959519453
0.007299999999999862,13.606693282101922
0.006299999999999972,11.730786098480884
0.00529999999999986,9.811022864564029
0.0042999999999999705,7.936530392242855
0.0032999999999998586,6.1044792589176335
0.0022999999999999687,4.360140226184043
0.0012999999999998568,2.70209858274222
0.00029999999999996696,1.0881959318561862
-0.000700000000000145,-0.5255652478998613
-0.0017000000000000348,-2.095187435100119
-0.0027000000000001467,-3.6655169779503103
-0.0037000000000000366,-5.323558621392133
-0.0047000000000001485,-6.981600264833956
-0.005700000000000038,-8.68208324727173
-0.00670000000000015,-10.382566229709504
-0.00770000000000004,-12.040607873151327
-0.008700000000000152,-13.654793466297335
-0.009700000000000042,-15.222293586547794
-0.010700000000000154,-16.70774045140608
-0.011700000000000044,-18.15074597726842
-0.012700000000000156,-19.537163051136158
-0.013700000000000045,-20.980168576998494
-0.014700000000000157,-22.46561544185678
-0.015700000000000047,-23.951062306715073
-0.01670000000000016,-25.521391849565262
-0.01770000000000005,-27.049280053419505
-0.01870000000000016,-28.577168257273744
-0.01970000000000005,-30.10505646112798
-0.020700000000000163,-31.533914873991666
-0.021700000000000053,-32.97692039985401
-0.022700000000000164,-34.33504324772444
-0.023700000000000054,-35.636577643600276
-0.024700000000000166,-36.95225915247476
-0.025700000000000056,-38.253793548350586
-0.026700000000000168,-39.61191639622103
-0.027700000000000058,-40.99833347008877
-0.02870000000000017,-42.39889765695515
-0.02970000000000006,-43.88434452181344
-0.03070000000000017,-45.27076159568118
-0.03170000000000006,-46.67132578254756
-0.03270000000000017,-48.029448630417996
-0.03370000000000006,-49.28854168729788
-0.034700000000000175,-50.547634744177756
-0.035700000000000065,-51.73599223606439
-0.03670000000000018,-52.95264395394832
-0.03770000000000007,-54.2117370108282
-0.03870000000000018,-55.484977180706736
-0.03970000000000007,-56.82895291557852
-0.04070000000000018,-58.18707576344896
-0.04170000000000007,-59.54519861131939
-0.04270000000000018,-60.889174346191176
-0.04370000000000007,-62.16241451606972
-0.044700000000000184,-63.37906623395363
-0.045700000000000074,-64.59571795183757
-0.046700000000000186,-65.76992833072556
-0.047700000000000076,-66.91584448361623
-0.04870000000000019,-68.13249620150016
-0.04970000000000008,-69.3491479193841
-0.05070000000000019,-70.62238808926263
-0.05170000000000008,-71.92392248513846
-0.05270000000000019,-73.197162655017
-0.05370000000000008,-74.54113838988879
-0.05470000000000019,-75.81437855976732
-0.05570000000000008,-77.03103027765125
-0.056700000000000195,-78.20524065653922
-0.057700000000000085,-79.33700969643127
-0.058700000000000196,-80.42633739732734
-0.059700000000000086,-81.47322375922747
-0.0607000000000002,-82.61913991211814
-0.06170000000000009,-83.79335029100612
-0.0627000000000002,-85.01000200889004
-0.06370000000000009,-86.28324217876859
-0.0647000000000002,-87.54233523564847
-0.06570000000000009,-88.80142829252836
-0.0667000000000002,-90.03222712341093
-0.0677000000000001,-91.24887884129487
-0.0687000000000002,-92.3806478811869
-0.0697000000000001,-93.46997558208298
-0.07070000000000021,-94.5168619439831
-0.0717000000000001,-95.60618964487918
-0.07270000000000021,-96.73795868477121
-0.0737000000000001,-97.88387483766188
-0.07470000000000021,-99.05808521654988
-0.0757000000000001,-100.23229559543785
-0.07670000000000021,-101.50553576531638
-0.0777000000000001,-102.67974614420436
-0.07870000000000021,-103.85395652309235
-0.0797000000000001,-104.98572556298437
-0.08070000000000022,-106.07505326388046
-0.0817000000000001,-107.12193962578058
-0.08270000000000022,-108.12638464868475
-0.08370000000000011,-109.21571234958083
-0.08470000000000022,-110.3050400504769
-0.08570000000000011,-111.5358388813595
-0.08670000000000022,-112.71004926024747
-0.08770000000000011,-113.92670097813141
-0.08870000000000022,-115.19994114800993
-0.08970000000000011,-116.45903420488982
-0.09070000000000022,-117.63324458377778
-0.09170000000000011,-118.68013094567793
-0.09270000000000023,-119.68457596858211
-0.09370000000000012,-120.64657965249035
-0.09470000000000023,-121.60858333639854
-0.09570000000000012,-122.57058702030677
-0.09670000000000023,-123.6174733822069
-0.09770000000000012,-124.70680108310299
-0.09870000000000023,-125.79612878399907
-0.09970000000000012,-126.9278978238911
-0.10070000000000023,-128.10210820277908
-0.10170000000000012,-129.33290703366166
-0.10270000000000024,-130.5495587515456
-0.10370000000000013,-131.63888645244168
-0.10470000000000024,-132.7706554923337
-0.10570000000000013,-133.8599831932298
-0.10670000000000024,-134.9917522331218
-0.10770000000000013,-136.08107993401788
-0.10870000000000024,-137.22699608690854
-0.10970000000000013,-138.3587651268006
-0.11070000000000024,-139.53297550568857
-0.11170000000000013,-140.70718588457655
-0.11270000000000002,-141.89554337646317
-0.11370000000000013,-143.0273124163552
-0.11470000000000002,-144.01761032626072
-0.11570000000000014,-145.14937936615277
-0.11670000000000003,-146.1396772760583
-0.11770000000000014,-147.1299751859638
-0.11870000000000003,-148.12027309586935
-0.11970000000000014,-149.25204213576137
-0.12070000000000003,-150.38381117565342
-0.12170000000000014,-151.5155802155454
-0.12270000000000003,-152.64734925543743
-0.12370000000000014,-153.920589425316
-0.12470000000000003,-155.05235846520802
-0.12570000000000014,-156.18412750510007
-0.12670000000000003,-157.31589654499206
-0.12770000000000015,-158.4476655848841
-0.12870000000000004,-159.43796349478964
-0.12970000000000015,-160.42826140469515
-0.13070000000000004,-161.41855931460069
-0.13170000000000015,-162.5503283544927
-0.13270000000000004,-163.68209739438475
-0.13370000000000015,-164.9553375642633
-0.13470000000000004,-166.0871066041553
-0.13570000000000015,-167.36034677403384
-0.13670000000000004,-168.49211581392586
-0.13770000000000016,-169.6238848538179
-0.13870000000000005,-170.75565389370993
-0.13970000000000016,-171.88742293360195
-0.14070000000000005,-172.87772084350746
-0.14170000000000016,-174.0094898833995
-0.14270000000000005,-174.99978779330505
-0.14370000000000016,-176.13155683319707
-0.14470000000000005,-177.4047970030756
-0.14570000000000016,-178.53656604296762
-0.14670000000000005,-179.80980621284618
-0.14770000000000016,-181.08304638272472
-0.14870000000000005,-182.21481542261674
-0.14970000000000017,-183.34658446250873
-0.15070000000000006,-184.33688237241427
-0.15170000000000017,-185.46865141230631
-0.15270000000000006,-186.45894932221185
-0.15370000000000017,-187.44924723211736
-0.15470000000000006,-188.58101627200938
-0.15570000000000017,-189.71278531190143
-0.15670000000000006,-190.98602548177996
-0.15770000000000017,-192.11779452167198
-0.15870000000000006,-193.3910346915505
-0.15970000000000018,-194.52280373144254
-0.16070000000000007,-195.79604390132107
-0.16170000000000018,-196.7863418112266
-0.16270000000000007,-197.91811085111863
-0.16370000000000018,-198.90840876102413
-0.16470000000000007,-200.04017780091618
-0.16570000000000018,-201.03047571082172
-0.16670000000000007,-202.16224475071377
-0.16770000000000018,-203.15254266061928
-0.16870000000000007,-204.2843117005113
-0.16970000000000018,-205.41608074040332
-0.17070000000000007,-206.54784978029537
-0.17170000000000019,-207.8210899501739
-0.17270000000000008,-209.0943301200524
-0.1737000000000002,-210.22609915994445
-0.17470000000000008,-211.21639706985
-0.1757000000000002,-212.2066949797555
-0.17670000000000008,-213.33846401964755
-0.1777000000000002,-214.47023305953954
-0.17870000000000008,-215.6020020994316
-0.1797000000000002,-216.87524226931012
-0.18070000000000008,-218.00701130920217
-0.1817000000000002,-219.28025147908068
-0.18270000000000008,-220.41202051897272
-0.1837000000000002,-221.54378955886475
-0.1847000000000001,-222.53408746877028
-0.1857000000000002,-223.6658565086623
-0.1867000000000001,-224.65615441856778
-0.1877000000000002,-225.78792345845983
-0.1887000000000001,-226.77822136836537
-0.1897000000000002,-227.9099904082574
-0.1907000000000001,-229.18323057813595
-0.1917000000000001,-230.31499961802797
-0.19269999999999998,-231.5882397879065
-0.1937000000000001,-232.72000882779852
-0.19469999999999998,-233.85177786769057
-0.1957000000000001,-234.9835469075826
-0.19669999999999999,-236.1153159474746
-0.1977000000000001,-237.24708498736666
-0.1987,-238.2373828972722
-0.1997000000000001,-239.36915193716422
-0.2007,-240.35944984706975
-0.2017000000000001,-241.49121888696175
-0.2027,-242.48151679686728
-0.2037000000000001,-243.6132858367593
-0.2047,-244.74505487665132
-0.2057000000000001,-245.87682391654337
-0.2067,-247.0085929564354
-0.2077000000000001,-248.14036199632744
-0.2087,-249.2721310362195
-0.2097000000000001,-250.4039000761115
-0.2107,-251.39419798601702
-0.2117000000000001,-252.66743815589555
-0.2127,-253.79920719578757
-0.2137000000000001,-255.07244736566614
-0.2147,-256.20421640555816
-0.2157000000000001,-257.6189277054232
-0.2167,-258.8921678753017
-0.21770000000000012,-260.02393691519376
-0.2187,-261.1557059550858
-0.21970000000000012,-262.1460038649913
-0.2207,-263.13630177489676
-0.22170000000000012,-264.2680708147888
-0.2227,-265.2583687246944
-0.22370000000000012,-266.2486666345999
-0.2247,-267.23896454450545
-0.22570000000000012,-268.37073358439744
-0.2267,-269.64397375427603
-0.22770000000000012,-270.9172139241545
-0.22870000000000001,-272.1904540940331
-0.22970000000000013,-273.3222231339251
-0.23070000000000002,-274.4539921738171
-0.23170000000000013,-275.58576121370913
-0.23270000000000002,-276.7175302536012
-0.23370000000000013,-277.7078281635067
-0.23470000000000002,-278.6981260734122
-0.23570000000000013,-279.6884239833177
-0.23670000000000002,-280.67872189322327
-0.2376999999999999,-281.66901980312883
-0.23870000000000002,-282.65931771303434
-0.2396999999999999,-283.79108675292633
-0.24070000000000003,-284.9228557928184
-0.24169999999999991,-285.9131537027239
-0.24270000000000003,-287.04492274261594
-0.24369999999999992,-288.03522065252145
-0.24470000000000003,-289.1669896924135
-0.24569999999999992,-290.157287602319
-0.24670000000000003,-291.14758551222457
-0.24769999999999992,-292.2793545521166
-0.24870000000000003,-293.4111235920086
-0.24969999999999992,-294.54289263190066
-0.25070000000000003,-295.8161328017792
-0.2516999999999999,-296.94790184167124
-0.25270000000000004,-298.07967088156323
-0.2536999999999999,-299.3529110514418
-0.25470000000000004,-300.3432089613473
-0.2556999999999999,-301.33350687125284
-0.25670000000000004,-302.18233365117186
-0.25769999999999993,-303.17263156107737
-0.25870000000000004,-304.1629294709828
-0.25969999999999993,-305.1532273808884
-0.26070000000000004,-306.1435252907939
-0.26169999999999993,-307.27529433068594
-0.26270000000000004,-308.407063370578
-0.26369999999999993,-309.53883241047004
-0.26470000000000005,-310.6706014503621
-0.26569999999999994,-311.80237049025413
-0.26670000000000005,-312.9341395301461
-0.26769999999999994,-314.0659085700381
-0.26870000000000005,-315.19767760993017
-0.26969999999999994,-316.1879755198357
-0.27070000000000005,-317.3197445597277
-0.27169999999999994,-318.59298472960626
-0.27270000000000005,-319.8662248994848
-0.27369999999999994,-320.9979939393768
-0.27470000000000006,-322.12976297926883
-0.27569999999999995,-323.2615320191609
-0.27670000000000006,-324.3933010590529
-0.27769999999999995,-325.3835989689584
-0.27870000000000006,-326.23242574887746
-0.27969999999999995,-327.3641947887695
-0.28070000000000006,-328.3544926986751
-0.28169999999999995,-329.3447906085805
-0.28270000000000006,-330.33508851848603
-0.28369999999999995,-331.4668575583781
-0.28470000000000006,-332.59862659827013
-0.28569999999999995,-333.87186676814866
-0.28670000000000007,-335.00363580804066
-0.28769999999999996,-336.27687597791925
-0.28870000000000007,-337.40864501781124
-0.28969999999999996,-338.5404140577033
-0.29070000000000007,-339.2477697076358
-0.29169999999999996,-340.0965964875548
-0.29270000000000007,-340.94542326747387
-0.29369999999999996,-342.07719230736586
-0.2947000000000001,-343.2089613472579
-0.29569999999999996,-344.7651437771094
-0.2967000000000001,-346.1798550769745
-0.29769999999999996,-347.87750863681254
-0.2987000000000001,-349.2922199366776
-0.29969999999999997,-350.7069312365426
-0.3007000000000001,-351.8387002764346
-0.30169999999999997,-352.54605592636716
-0.3027000000000001,-353.3948827062862
-0.30369999999999997,-353.96076722623224
-0.3047000000000001,-354.66812287616466
-0.30569999999999997,-355.3754785260972
-0.3067000000000001,-356.50724756598925
-0.3077,-357.63901660588124
-0.3087000000000001,-358.7707856457733
-0.3097,-360.18549694563836
-0.3107000000000001,-361.6002082455034
-0.3117,-362.87344841538186
-0.3127000000000001,-364.14668858526045
-0.3137,-365.419928755139
-0.3147000000000001,-366.551697795031
-0.3157,-367.5419957049365
-0.3167000000000001,-368.5322936148421
-0.3177,-369.5225915247476
-0.3187000000000001,-370.5128894346531
-0.3197,-371.5031873445586
-0.3207000000000001,-372.49348525446413
-0.3217,-373.6252542943562
-0.3227000000000001,-374.61555220426175
-0.3237,-375.60585011416725
-0.3247000000000001,-376.59614802407276
-0.3257,-377.58644593397827
-0.3267000000000001,-378.5767438438838
-0.3277,-379.42557062380286
-0.3287000000000001,-380.41586853370836
-0.3297,-381.4061664436139
-0.3307000000000001,-382.537935483506
-0.3317,-383.6697045233979
-0.3327000000000001,-384.6600024333035
-0.3337,-385.79177147319547
-0.3347000000000001,-386.782069383101
-0.3357,-387.7723672930066
-0.3367000000000001,-388.6211940729256
-0.3377,-389.4700208528446
-0.3387000000000001,-390.31884763276366
-0.3397,-391.16767441268263
-0.3407000000000001,-392.0165011926016
-0.3417,-393.14827023249364
-0.3427000000000001,-394.1385681423992
-0.3437,-395.41180831227774
-0.3447000000000001,-396.5435773521698
-0.3457,-397.67534639206184
-0.3467000000000001,-398.9485865619403
-0.3477,-400.2218267318189
-0.3487000000000001,-401.2121246417244
-0.3497,-402.2024225516299
-0.3507000000000001,-403.05124933154895
-0.3517,-403.90007611146797
-0.3527000000000001,-404.748902891387
-0.3537,-405.4562585413196
-0.3547000000000001,-406.44655645122504
-0.3557,-407.43685436113054
-0.35670000000000013,-408.28568114104957
-0.3577,-409.27597905095513
-0.35870000000000013,-410.12480583087415
-0.3597,-411.25657487076614
-0.36070000000000013,-412.2468727806717
-0.3617,-413.2371706905772
-0.3626999999999999,-414.2274686004828
-0.3637,-415.2177665103883
-0.3646999999999999,-416.34953555028034
-0.3657,-417.48130459017233
-0.3666999999999999,-418.6130736300644
-0.3677,-419.74484266995637
-0.3686999999999999,-420.7351405798619
-0.36970000000000003,-421.58396735978096
-0.3706999999999999,-422.57426526968646
-0.37170000000000003,-423.28162091961894
-0.3726999999999999,-424.130447699538
-0.37370000000000003,-425.12074560944353
-0.3746999999999999,-425.828101259376
-0.37570000000000003,-426.53545690930855
-0.3766999999999999,-427.3842836892276
-0.37770000000000004,-428.3745815991331
-0.3786999999999999,-429.36487950903864
-0.37970000000000004,-430.35517741894415
-0.3806999999999999,-431.4869464588362
-0.38170000000000004,-432.6187154987282
-0.38269999999999993,-433.6090134086337
-0.38370000000000004,-434.5993113185393
-0.38469999999999993,-435.58960922844483
-0.38570000000000004,-436.2969648783773
-0.38669999999999993,-435.58960922844483
-0.38570000000000004,-432.1943021087687
-0.38469999999999993,-428.9404661190791
-0.38370000000000004,-425.96957238936255
-0.38269999999999993,-422.998678659646
-0.38170000000000004,-420.1692560599159
-0.3806999999999999,-417.1983623301993
-0.37970000000000004,-414.3689397304692
-0.3786999999999999,-411.3980460007527
-0.37770000000000004,-408.28568114104957
-0.3766999999999999,-405.314787411333
-0.37570000000000003,-402.34389368161646
-0.3746999999999999,-399.51447108188637
-0.37370000000000003,-396.82651961214276
-0.3726999999999999,-394.2800392723857
-0.37170000000000003,-391.4506166726556
-0.3706999999999999,-388.6211940729256
-0.36970000000000003,-385.79177147319547
-0.3686999999999999,-383.103820003452
-0.3677,-380.2743974037219
-0.3666999999999999,-377.3035036740053
-0.3657,-374.4740810742752
-0.3646999999999999,-371.5031873445586
-0.3637,-368.5322936148421
-0.3626999999999999,-365.702871015112
-0.3617,-363.0149195453684
-0.36070000000000013,-360.6099103355978
-0.3597,-358.0634299958408
-0.35870000000000013,-355.51694965608374
-0.3577,-352.9704693163266
-0.35670000000000013,-350.42398897656955
-0.3557,-347.73603750682605
-0.3547000000000001,-344.90661490709596
-0.3537,-341.9357211773794
-0.3527000000000001,-339.1062985776493
-0.3517,-336.1354048479327
-0.3507000000000001,-333.44745337818915
-0.3497,-330.7595019084456
-0.3487000000000001,-328.2130215686885
-0.3477,-325.80801235891795
-0.3467000000000001,-323.2615320191609
-0.3457,-320.71505167940376
-0.3447000000000001,-318.16857133964675
-0.3437,-315.6220909998897
-0.3427000000000001,-313.0756106601326
-0.3417,-310.52913032037554
-0.3407000000000001,-307.841178850632
-0.3397,-305.1532273808884
-0.3387000000000001,-302.6067470411313
-0.3377,-300.06026670137425
-0.3367000000000001,-297.3723152316307
-0.3357,-294.96730602186017
-0.3347000000000001,-292.56229681208964
-0.3337,-290.0158164723325
-0.3327000000000001,-287.46933613257545
-0.3317,-284.9228557928184
-0.3307000000000001,-282.3763754530613
-0.3297,-279.82989511330425
-0.3287000000000001,-277.4248859035337
-0.3277,-274.87840556377665
-0.3267000000000001,-272.47339635400607
-0.3257,-270.20985827422203
-0.3247000000000001,-267.94632019443793
-0.3237,-265.5413109846674
-0.3227000000000001,-263.13630177489676
-0.3217,-260.73129256512624
-0.3207000000000001,-258.32628335535566
-0.3197,-255.77980301559862
-0.3187000000000001,-253.23332267584152
-0.3177,-250.6868423360845
-0.3167000000000001,-248.14036199632744
-0.3157,-245.73535278655686
-0.3147000000000001,-243.3303435767863
-0.3137,-241.06680549700224
-0.3127000000000001,-238.8032674172182
-0.3117,-236.6812004674206
-0.3107000000000001,-234.27619125765005
-0.3097,-232.15412430785253
-0.3087000000000001,-229.89058622806846
-0.3077,-227.62704814828442
-0.3067000000000001,-225.22203893851383
-0.30569999999999997,-222.81702972874328
-0.3047000000000001,-220.5534916489592
-0.30369999999999997,-218.14848243918865
-0.3027000000000001,-215.88494435940459
-0.30169999999999997,-213.62140627962054
-0.3007000000000001,-211.499339329823
-0.29969999999999997,-209.23580125003892
-0.2987000000000001,-207.1137343002414
-0.29769999999999996,-204.8501962204573
-0.2967000000000001,-202.7281292706598
-0.29569999999999996,-200.4645911908757
-0.2947000000000001,-198.20105311109162
-0.29369999999999996,-195.93751503130758
-0.29270000000000007,-193.6739769515235
-0.29169999999999996,-191.41043887173947
-0.29070000000000007,-189.2883719219419
-0.28969999999999996,-187.16630497214436
-0.28870000000000007,-185.0442380223468
-0.28769999999999996,-182.92217107254925
-0.28670000000000007,-180.65863299276518
-0.28569999999999995,-178.53656604296762
-0.28470000000000006,-176.4144990931701
-0.28369999999999995,-174.2924321433725
-0.28270000000000006,-172.0288940635885
-0.28169999999999995,-169.9068271137909
-0.28070000000000006,-167.6432890340068
-0.27969999999999995,-165.6626932141958
-0.27870000000000006,-163.54062626439824
-0.27769999999999995,-161.5600304445872
-0.27670000000000006,-159.57943462477613
-0.27569999999999995,-157.59883880496508
-0.27470000000000006,-155.47677185516753
-0.27369999999999994,-153.49617603535648
-0.27270000000000005,-151.37410908555893
-0.27169999999999994,-149.25204213576137
-0.27070000000000005,-146.9885040559773
-0.26969999999999994,-144.86643710617977
-0.26870000000000005,-142.7443701563822
-0.26769999999999994,-140.74962722357247
