Potential V vs RHE, Current mA cm-2
0.013299999999999867,0.653313678277674
0.012299999999999978,-0.9399341876303302
0.011299999999999866,-2.2324144311870278
0.010299999999999976,-3.2991067512852656
0.009299999999999864,-4.177642468501453
0.008299999999999974,-4.934513013929248
0.007299999999999862,-5.639039241262036
0.006299999999999972,-6.3081976860981985
0.00529999999999986,-6.892473452942459
0.0042999999999999705,-7.406013654793467
0.0032999999999998586,-7.860135982050143
0.0022999999999999687,-8.322746577106011
0.0012999999999998568,-8.799504285160529
0.00029999999999996696,-9.218258829920579
-0.000700000000000145,-9.581839633985894
-0.0017000000000000348,-9.918540923353772
-0.0027000000000001467,-10.276462882219626
-0.0037000000000000366,-10.666923200982376
-0.0047000000000001485,-11.04465111804634
-0.005700000000000038,-11.330422800619079
-0.00670000000000015,-11.623268039691142
-0.00770000000000004,-11.941578082160774
-0.008700000000000152,-12.2966706184269
-0.009700000000000042,-12.622054217395856
-0.010700000000000154,-12.885190519170754
-0.011700000000000044,-13.138423841846596
-0.012700000000000156,-13.444001482617443
-0.013700000000000045,-13.780702771985322
-0.014700000000000157,-14.099012814454955
-0.015700000000000047,-14.359319693630123
-0.01670000000000016,-14.61396772760583
-0.01770000000000005,-14.911057100577487
-0.01870000000000016,-15.250587812545096
-0.01970000000000005,-15.590118524512702
-0.020700000000000163,-15.858913671487063
-0.021700000000000053,-16.127708818461418
-0.022700000000000164,-16.438945304431726
-0.023700000000000054,-16.764328903400685
-0.024700000000000166,-17.07556538937099
-0.025700000000000056,-17.34436053634535
-0.026700000000000168,-17.613155683319707
-0.027700000000000058,-17.952686395287316
-0.02870000000000017,-18.334658446250877
-0.02970000000000006,-18.674189158218486
-0.03070000000000017,-18.985425644188794
-0.03170000000000006,-19.2683679041618
-0.03270000000000017,-19.622045729128057
-0.03370000000000006,-19.98987066709297
-0.034700000000000175,-20.286960040064624
-0.035700000000000065,-20.584049413036283
-0.03670000000000018,-20.89528589900659
-0.03770000000000007,-21.2631108369715
-0.03870000000000018,-21.645082887935057
-0.03970000000000007,-22.012907825899973
-0.04070000000000018,-22.38073276386488
-0.04170000000000007,-22.748557701829792
-0.04270000000000018,-23.144676865792
-0.04370000000000007,-23.55494314275286
-0.044700000000000184,-23.951062306715073
-0.045700000000000074,-24.27644590568403
-0.046700000000000186,-24.61597661765164
-0.047700000000000076,-24.997948668615198
-0.04870000000000019,-25.45065628457201
-0.04970000000000008,-25.875069674531517
-0.05070000000000019,-26.22874749949778
-0.05170000000000008,-26.63901377645864
-0.05270000000000019,-27.0775742794168
-0.05370000000000008,-27.558576121370916
-0.05470000000000019,-27.98298951133043
-0.05570000000000008,-28.379108675292635
-0.056700000000000195,-28.761080726256196
-0.057700000000000085,-29.18549411621571
-0.058700000000000196,-29.63820173217252
-0.059700000000000086,-30.10505646112798
-0.0607000000000002,-30.529469851087494
-0.06170000000000009,-30.982177467044306
-0.0627000000000002,-31.449032195999767
-0.06370000000000009,-31.887592698957924
-0.0647000000000002,-32.31200608891744
-0.06570000000000009,-32.7505665918756
-0.0667000000000002,-33.160832868836465
-0.0677000000000001,-33.68427604978652
-0.0687000000000002,-34.221866343735236
-0.0697000000000001,-34.7453095246853
-0.07070000000000021,-35.183870027643465
-0.0717000000000001,-35.55169496560837
-0.07270000000000021,-36.00440258156518
-0.0737000000000001,-36.5136986495166
-0.07470000000000021,-37.00884760446935
-0.0757000000000001,-37.51814367242077
-0.07670000000000021,-38.12646953136274
-0.0777000000000001,-38.522588695324956
-0.07870000000000021,-38.90456074628851
-0.0797000000000001,-39.37141547524397
-0.08070000000000022,-39.89485865619403
-0.0817000000000001,-40.4183018371441
-0.08270000000000022,-40.87100945310091
-0.08370000000000011,-41.38030552105233
-0.08470000000000022,-41.87545447600508
-0.08570000000000011,-42.34230920496055
-0.08670000000000022,-42.78086970791871
-0.08770000000000011,-43.26187154987282
-0.08870000000000022,-43.84190318281749
-0.08970000000000011,-44.39364058976485
-0.09070000000000022,-44.80390686672572
-0.09170000000000011,-45.27076159568118
-0.09270000000000023,-45.73761632463664
-0.09370000000000012,-46.2610595055867
-0.09470000000000023,-46.74206134754081
-0.09570000000000012,-47.19476896349763
-0.09670000000000023,-47.76065348344364
-0.09770000000000012,-48.3406851163883
-0.09870000000000023,-48.86412829733837
-0.09970000000000012,-49.387571478288436
-0.10070000000000023,-49.86857332024254
-0.10170000000000012,-50.37786938819396
-0.10270000000000024,-50.943753908139975
-0.10370000000000013,-51.46719708909004
-0.10470000000000024,-52.0189344960374
-0.10570000000000013,-52.514083450990164
-0.10670000000000024,-52.91020261495237
-0.10770000000000013,-53.348763117910536
-0.10870000000000024,-53.84391207286329
-0.10970000000000013,-54.43809081880661
-0.11070000000000024,-54.947386886758025
-0.11170000000000013,-55.456682954709436
-0.11270000000000002,-55.951831909662204
-0.11370000000000013,-56.53186354260687
-0.11470000000000002,-57.06945383655558
-0.11570000000000014,-57.50801433951374
-0.11670000000000003,-57.96072195547055
-0.11770000000000014,-58.47001802342197
-0.11870000000000003,-59.07834388236393
-0.11970000000000014,-59.54519861131939
-0.12070000000000003,-59.99790622727621
-0.12170000000000014,-60.49305518222897
-0.12270000000000003,-61.04479258917633
-0.12370000000000014,-61.5682357701264
-0.12470000000000003,-62.10582606407511
-0.12570000000000014,-62.572680793030564
-0.12670000000000003,-63.03953552198603
-0.12770000000000015,-63.49224313794284
-0.12870000000000004,-64.0722747708875
-0.12970000000000015,-64.53912949984297
-0.13070000000000004,-65.03427845479574
-0.13170000000000015,-65.5860158617431
-0.13270000000000004,-66.03872347769992
-0.13370000000000015,-66.56216665864997
-0.13470000000000004,-67.04316850060408
-0.13570000000000015,-67.43928766456631
-0.13670000000000004,-67.96273084551636
-0.13770000000000016,-68.50032113946509
-0.13870000000000005,-69.16523545040164
-0.13970000000000016,-69.67453151835305
-0.14070000000000005,-70.02820934331933
-0.14170000000000016,-70.48091695927613
-0.14270000000000005,-70.9760659142289
-0.14370000000000016,-71.41462641718705
-0.14470000000000005,-71.90977537213982
-0.14570000000000016,-72.37663010109527
-0.14670000000000005,-72.8293377170521
-0.14770000000000016,-73.40936934999675
-0.14870000000000005,-73.8762240789522
-0.14970000000000017,-74.32893169490903
-0.15070000000000006,-74.7391979718699
-0.15170000000000017,-75.06458157083884
-0.15270000000000006,-75.7012016557781
-0.15370000000000017,-76.19635061073087
-0.15470000000000006,-76.69149956568363
-0.15570000000000017,-77.20079563363505
-0.15670000000000006,-77.61106191059591
-0.15770000000000017,-78.19109354354057
-0.15870000000000006,-78.7569780634866
-0.15970000000000018,-79.23797990544071
-0.16070000000000007,-79.60580484340561
-0.16170000000000018,-80.05851245936242
-0.16270000000000007,-80.42633739732734
-0.16370000000000018,-80.8366036742882
-0.16470000000000007,-81.28931129024501
-0.16570000000000018,-81.62884200221261
-0.16670000000000007,-82.12399095716538
-0.16770000000000018,-82.61913991211814
-0.16870000000000007,-83.18502443206415
-0.16970000000000018,-83.68017338701692
-0.17070000000000007,-84.03385121198318
-0.17170000000000019,-84.26020501996159
-0.17270000000000008,-84.69876552291974
-0.1737000000000002,-85.09488468688197
-0.17470000000000008,-85.56173941583742
-0.1757000000000002,-86.08518259678749
-0.17670000000000008,-86.46715464775104
-0.1777000000000002,-86.93400937670651
-0.17870000000000008,-87.31598142767007
-0.1797000000000002,-87.85357172161878
-0.18070000000000008,-88.32042645057423
-0.1817000000000002,-88.46189758056073
-0.18270000000000008,-88.7872811795297
-0.1837000000000002,-89.15510611749461
-0.1847000000000001,-89.60781373345144
-0.1857000000000002,-90.06052134940825
-0.1867000000000001,-90.48493473936773
-0.1877000000000002,-91.03667214631511
-0.1887000000000001,-91.44693842327598
-0.1897000000000002,-92.01282294322199
-0.1907000000000001,-92.42308922018285
-0.1917000000000001,-92.7201785931545
-0.19269999999999998,-92.9748266271302
-0.1937000000000001,-93.48412269508162
-0.19469999999999998,-94.00756587603168
-0.1957000000000001,-94.3753908139966
-0.19669999999999999,-94.7432157519615
-0.1977000000000001,-95.13933491592371
-0.1987,-95.50715985388862
-0.1997000000000001,-95.81839633985894
-0.2007,-96.11548571283059
-0.2017000000000001,-96.4550164247982
-0.2027,-96.8511355887604
-0.2037000000000001,-97.28969609171857
-0.2047,-97.64337391668484
-0.2057000000000001,-97.99705174165109
-0.2067,-98.40731801861195
-0.2077000000000001,-98.57708337459576
-0.2087,-98.86002563456876
-0.2097000000000001,-99.15711500754041
-0.2107,-99.45420438051207
-0.2117000000000001,-99.70885241448778
-0.2127,-100.26058982143515
-0.2137000000000001,-100.75573877638791
-0.2147,-101.12356371435283
-0.2157000000000001,-101.47724153931907
-0.2167,-101.83091936428535
-0.21770000000000012,-102.14215585025565
-0.2187,-102.39680388423135
-0.21970000000000012,-102.73633459619896
-0.2207,-102.99098263017467
-0.22170000000000012,-103.24563066415038
-0.2227,-103.57101426311934
-0.22370000000000012,-103.91054497508695
-0.2247,-104.26422280005319
-0.22570000000000012,-104.58960639902216
-0.2267,-104.90084288499246
-0.22770000000000012,-105.12719669297088
-0.22870000000000001,-105.45258029193982
-0.22970000000000013,-105.82040522990474
-0.23070000000000002,-105.94772924689259
-0.23170000000000013,-106.04675903788315
-0.23270000000000002,-106.34384841085482
-0.23370000000000013,-106.68337912282242
-0.23470000000000002,-107.03705694778867
-0.23570000000000013,-107.30585209476303
-0.23670000000000002,-107.4614703377482
-0.2376999999999999,-107.68782414572658
-0.23870000000000002,-107.914177953705
-0.2396999999999999,-108.0556490836915
-0.24070000000000003,-108.1688259876807
-0.24169999999999991,-108.46591536065236
-0.24270000000000003,-108.46591536065236
-0.24369999999999992,-108.64982782963483
-0.24470000000000003,-109.21571234958083
-0.24569999999999992,-109.44206615755924
-0.24670000000000003,-109.73915553053091
-0.24769999999999992,-109.86647954751875
-0.24870000000000003,-109.99380356450659
-0.24969999999999992,-110.02209779050389
-0.25070000000000003,-110.06453912949985
-0.2516999999999999,-110.26259871148096
-0.25270000000000004,-110.4465111804634
-0.2536999999999999,-110.71530632743777
-0.25470000000000004,-110.99824858741079
-0.2556999999999999,-111.29533796038245
-0.25670000000000004,-111.49339754236355
-0.25769999999999993,-111.54998599435814
-0.25870000000000004,-111.60657444635275
-0.25969999999999993,-111.6207215593514
-0.26070000000000004,-111.7338984633406
-0.26169999999999993,-111.66316289834735
-0.26270000000000004,-111.8187811413325
-0.26369999999999993,-111.96025227131899
-0.26470000000000005,-112.15831185330009
-0.26569999999999994,-112.3563714352812
-0.26670000000000005,-112.66760792125153
-0.26769999999999994,-112.80907905123803
-0.26870000000000005,-112.73834348624479
-0.26969999999999994,-112.75249059924342
-0.27070000000000005,-112.68175503425017
-0.27169999999999994,-112.69590214724884
-0.27270000000000005,-112.65346080825286
-0.27369999999999994,-112.69590214724884
-0.27470000000000006,-112.95055018122453
-0.27569999999999995,-113.03543285921644
-0.27670000000000006,-113.07787419821238
-0.27769999999999995,-113.19105110220158
-0.27870000000000006,-113.21934532819888
-0.27969999999999995,-113.24763955419618
-0.28070000000000006,-113.21934532819888
-0.28169999999999995,-113.07787419821238
-0.28270000000000006,-113.09202131121103
-0.28369999999999995,-113.20519821520024
-0.28470000000000006,-113.17690398920294
-0.28569999999999995,-113.21934532819888
-0.28670000000000007,-113.27593378019348
-0.28769999999999996,-113.19105110220158
-0.28870000000000007,-113.31837511918944
-0.28969999999999996,-113.20519821520024
-0.29070000000000007,-112.87981461623129
-0.29169999999999996,-112.87981461623129
-0.29270000000000007,-112.97884440722183
-0.29369999999999996,-113.14860976320564
-0.2947000000000001,-113.21934532819888
-0.29569999999999996,-113.24763955419618
-0.2967000000000001,-113.21934532819888
-0.29769999999999996,-113.26178666719483
-0.2987000000000001,-113.26178666719483
-0.29969999999999997,-113.31837511918944
-0.3007000000000001,-113.29008089319213
-0.30169999999999997,-113.10616842420968
-0.3027000000000001,-113.10616842420968
-0.30369999999999997,-113.19105110220158
-0.3047000000000001,-113.27593378019348
-0.30569999999999997,-113.34666934518674
-0.3067000000000001,-113.45984624917594
-0.3077,-113.41740491017998
-0.3087000000000001,-113.31837511918944
-0.3097,-113.38911068418268
-0.3107000000000001,-113.36081645818538
-0.3117,-113.31837511918944
-0.3127000000000001,-113.4739933621746
-0.3137,-113.58717026616378
-0.3147000000000001,-113.55887604016648
-0.3157,-113.48814047517324
-0.3167000000000001,-113.48814047517324
-0.3177,-113.60131737916245
-0.3187000000000001,-113.64375871815841
-0.3197,-113.72864139615028
-0.3207000000000001,-113.67205294415571
-0.3217,-113.78522984814491
-0.3227000000000001,-114.0964663341152
-0.3237,-114.1247605601125
-0.3247000000000001,-114.23793746410173
-0.3257,-114.2945259160963
-0.3267000000000001,-114.45014415908147
-0.3277,-114.69064508005852
-0.3287000000000001,-114.93114600103557
-0.3297,-115.2423824870059
-0.3307000000000001,-115.10091135701937
-0.3317,-115.11505847001803
-0.3327000000000001,-115.2706767130032
-0.3337,-115.6102074249708
-0.3347000000000001,-115.76582566795594
-0.3357,-115.90729679794246
-0.3367000000000001,-116.07706215392626
-0.3377,-116.24682750991008
-0.3387000000000001,-116.58635822187767
-0.3397,-117.02491872483584
-0.3407000000000001,-117.36444943680344
-0.3417,-117.6615388097751
-0.3427000000000001,-117.8030099397616
-0.3437,-118.0576579737373
-0.3447000000000001,-118.18498199072516
-0.3457,-118.43963002470086
-0.3467000000000001,-118.58110115468739
-0.3477,-118.93477897965363
-0.3487000000000001,-119.3450452566145
-0.3497,-119.7411644205767
-0.3507000000000001,-120.34949027951868
-0.3517,-120.74560944348087
-0.3527000000000001,-120.98611036445794
-0.3537,-121.46711220641204
-0.3547000000000001,-122.11787940434998
-0.3557,-122.61302835930273
-0.35670000000000013,-122.91011773227437
-0.3577,-123.2779426702393
-0.35870000000000013,-124.02773965916778
-0.3597,-124.56532995311649
-0.36070000000000013,-124.91900777808273
-0.3617,-125.5273336370247
-0.3626999999999999,-125.72539321900584
-0.3637,-126.41860175593966
-0.3646999999999999,-126.98448627588569
-0.3657,-127.39475255284657
-0.3666999999999999,-127.90404862079797
-0.3677,-128.37090334975343
-0.3686999999999999,-129.0641118866873
-0.36970000000000003,-129.92708577960497
-0.3706999999999999,-130.492970299551
-0.37170000000000003,-131.1154432714916
-0.3726999999999999,-131.69547490443625
-0.37370000000000003,-132.36038921537283
-0.3746999999999999,-133.12433331729994
-0.37570000000000003,-133.77510051523788
-0.3766999999999999,-134.45416193917308
-0.37770000000000004,-135.1615175891056
-0.3786999999999999,-135.85472612603945
-0.37970000000000004,-136.54793466297335
-0.3806999999999999,-137.22699608690854
-0.38170000000000004,-138.08996997982624
-0.38269999999999993,-139.02367943773717
-0.38370000000000004,-139.8866533306548
-0.38469999999999993,-140.48083207659815
-0.38570000000000004,-141.25892329152393
-0.38669999999999993,-139.99983023464404
-0.38570000000000004,-136.88746537494094
-0.38469999999999993,-134.256102357192
-0.38370000000000004,-131.8510931474214
-0.38269999999999993,-129.6299964066333
-0.38170000000000004,-127.4937823438371
-0.3806999999999999,-125.42830384603415
-0.37970000000000004,-123.57503204321095
-0.3786999999999999,-121.82079003137831
-0.37770000000000004,-120.09484224554296
-0.3766999999999999,-118.28401178171573
-0.37570000000000003,-116.69953512586686
-0.3746999999999999,-115.01602867902749
-0.37370000000000003,-113.3325222321881
-0.3726999999999999,-111.88951670632574
-0.37170000000000003,-110.51724674545667
-0.3706999999999999,-108.93277008960783
-0.36970000000000003,-107.4614703377482
-0.3686999999999999,-106.1457888288737
-0.3677,-104.47642949503296
-0.3666999999999999,-102.83536438718951
-0.3657,-101.39235886132718
-0.3646999999999999,-100.21814848243919
-0.3637,-98.94490831256067
-0.3626999999999999,-97.67166814268214
-0.3617,-96.31354529481169
-0.36070000000000013,-95.05445223793181
-0.3597,-93.95097742403709
-0.35870000000000013,-92.59285457616664
-0.3577,-91.20643750229891
-0.35670000000000013,-89.84831465442848
-0.3557,-88.6458100495432
-0.3547000000000001,-87.52818812264981
-0.3537,-86.35397774376185
-0.3527000000000001,-85.20806159087115
-0.3517,-84.10458677697642
-0.3507000000000001,-82.94452351108711
-0.3497,-81.88349003618832
-0.3487000000000001,-80.69513254430169
-0.3477,-79.56336350440966
-0.3467000000000001,-78.41744735151899
-0.3457,-77.31397253762425
-0.3447000000000001,-76.23879194972683
-0.3437,-75.1070229098348
-0.3427000000000001,-73.91866541794816
-0.3417,-72.8859261690467
-0.3407000000000001,-71.8248926941479
-0.3397,-70.74971210625048
-0.3387000000000001,-69.70282574435035
-0.3377,-68.58520381745697
-0.3367000000000001,-67.52417034255821
-0.3357,-66.51972531965401
-0.3347000000000001,-65.48698607075255
-0.3337,-64.46839393484973
-0.3327000000000001,-63.40736045995095
-0.3317,-62.47365100204002
-0.3307000000000001,-61.55408865712774
-0.3297,-60.50720229522762
-0.3287000000000001,-59.51690438532209
-0.3277,-58.51245936241792
-0.3267000000000001,-57.550455678509685
-0.3257,-56.57430488160282
-0.3247000000000001,-55.5840069716973
-0.3237,-54.62200328778906
-0.3227000000000001,-53.57511692588894
-0.3217,-52.59896612898206
-0.3207000000000001,-51.792580688059
-0.3197,-50.83057700415076
-0.3187000000000001,-49.79783775524929
-0.3177,-48.75095139334916
-0.3167000000000001,-47.74650637044499
-0.3157,-46.79864979953541
-0.3147000000000001,-45.89323456762179
-0.3137,-44.95952510971087
-0.3127000000000001,-43.85605029581614
-0.3117,-42.738428368922754
-0.3107000000000001,-41.81886602401048
-0.3097,-41.32371706905772
-0.3087000000000001,-40.814421001106304
-0.3077,-39.93729999518999
-0.3067000000000001,-39.08847321527096
-0.30569999999999997,-38.16891087035869
-0.3047000000000001,-37.26349563844507
-0.30369999999999997,-36.329786180534136
-0.3027000000000001,-35.339488270628614
-0.30169999999999997,-34.292601908728486
-0.3007000000000001,-33.726717388782475
-0.29969999999999997,-32.9486261738567
-0.2987000000000001,-32.12809361993498
-0.29769999999999996,-31.20853127502271
-0.2967000000000001,-30.359704495103685
-0.29569999999999996,-29.496730602186016
-0.2947000000000001,-28.647903822266994
-0.29369999999999996,-27.78492992934932
-0.29270000000000007,-26.794632019443796
-0.29169999999999996,-25.846775448534224
-0.29070000000000007,-25.026242894612498
-0.28969999999999996,-24.44621126166783
-0.28870000000000007,-23.653972933743415
-0.28769999999999996,-22.819293266823045
-0.28670000000000007,-21.98461359990267
-0.28569999999999995,-21.19237527197825
-0.28470000000000006,-20.42843117005113
-0.28369999999999995,-19.593751503130758
-0.28270000000000006,-18.759071836210385
-0.28169999999999995,-17.952686395287316
-0.28070000000000006,-17.118006728366943
-0.27969999999999995,-16.325768400442524
-0.27870000000000006,-15.533530072518102
-0.27769999999999995,-14.769585970590983
-0.27670000000000006,-14.039594939860624
-0.27569999999999995,-13.340727557727297
-0.27470000000000006,-12.675813246790728
-0.27369999999999994,-11.985434132456591
-0.27270000000000005,-11.251198967826637
-0.27169999999999994,-10.556575719592905
-0.27070000000000005,-9.917126212053908
-0.26969999999999994,-9.280506127114641
-0.26870000000000005,-8.597200569279828
-0.26769999999999994,-7.899747898446365
-0.26670000000000005,-7.230589453610202
