Potential V vs RHE, Current mA cm-2
0.013299999999999867,22.324144311870278
0.012299999999999978,20.230371588070028
0.011299999999999866,18.19318731626437
0.010299999999999976,16.141855931460068
0.009299999999999864,14.042424362460354
0.008299999999999974,12.080219789547549
0.007299999999999862,10.116600505334876
0.006299999999999972,8.198251982717888
0.00529999999999986,6.366200849392665
0.0042999999999999705,4.578005766363259
0.0032999999999998586,2.7898106833338523
0.0022999999999999687,1.0446228238203432
0.0012999999999998568,-0.6128529351015338
0.00029999999999996696,-2.3569090255751513
-0.000700000000000145,-4.0588067193127895
-0.0017000000000000348,-5.80314575204638
-0.0027000000000001467,-7.5474847847799715
-0.0037000000000000366,-9.24938247851761
-0.0047000000000001485,-10.993721511251199
-0.005700000000000038,-12.781916594280606
-0.00670000000000015,-14.486643710617974
-0.00770000000000004,-16.141855931460068
-0.008700000000000152,-17.797068152302163
-0.009700000000000042,-19.452280373144255
-0.010700000000000154,-20.980168576998494
-0.011700000000000044,-22.592939458844636
-0.012700000000000156,-24.120827662698876
-0.013700000000000045,-25.563833188561212
-0.014700000000000157,-27.134162731411404
-0.015700000000000047,-28.619609596269694
-0.01670000000000016,-30.189939139119886
-0.01770000000000005,-31.717827342974125
-0.01870000000000016,-33.288156885824314
-0.01970000000000005,-34.90092776767045
-0.020700000000000163,-36.47125731052064
-0.021700000000000053,-38.04158685337084
-0.022700000000000164,-39.56947505722508
-0.023700000000000054,-41.083216148080666
-0.024700000000000166,-42.568663012938956
-0.025700000000000056,-44.011668538801295
-0.026700000000000168,-45.412232725667685
-0.027700000000000058,-46.79864979953541
-0.02870000000000017,-48.156772647405845
-0.02970000000000006,-49.557336834272235
-0.03070000000000017,-50.90131256914402
-0.03170000000000006,-52.30187675601041
-0.03270000000000017,-53.74488228187274
-0.03370000000000006,-55.17374069473642
-0.034700000000000175,-56.61674622059877
-0.035700000000000065,-58.14463442445301
-0.03670000000000018,-59.54519861131939
-0.03770000000000007,-60.974057024183075
-0.03870000000000018,-62.37462121104946
-0.03970000000000007,-63.732744058919906
-0.04070000000000018,-65.03427845479574
-0.04170000000000007,-66.34995996367022
-0.04270000000000018,-67.65149435954605
-0.04370000000000007,-68.86814607742998
-0.044700000000000184,-70.22626892530042
-0.045700000000000074,-71.44292064318435
-0.046700000000000186,-72.80104349105478
-0.047700000000000076,-74.14501922592657
-0.04870000000000019,-75.50314207379701
-0.04970000000000008,-76.86126492166746
-0.05070000000000019,-78.24768199553519
-0.05170000000000008,-79.60580484340561
-0.05270000000000019,-80.90733923928146
-0.05370000000000008,-82.26546208715187
-0.05470000000000019,-83.52455514403178
-0.05570000000000008,-84.75535397491434
-0.056700000000000195,-85.92956435380233
-0.057700000000000085,-87.14621607168625
-0.058700000000000196,-88.27798511157829
-0.059700000000000086,-89.50878394246087
-0.0607000000000002,-90.7254356603448
-0.06170000000000009,-91.98452871722468
-0.0627000000000002,-93.25776888710321
-0.06370000000000009,-94.5168619439831
-0.0647000000000002,-95.83254345285758
-0.06570000000000009,-97.17651918772938
-0.0667000000000002,-98.4497593576079
-0.0677000000000001,-99.70885241448778
-0.0687000000000002,-101.02453392336226
-0.0697000000000001,-102.24118564124619
-0.07070000000000021,-103.41539602013418
-0.0717000000000001,-104.5471650600262
-0.07270000000000021,-105.73552255191284
-0.0737000000000001,-106.78240891381296
-0.07470000000000021,-107.99906063169689
-0.0757000000000001,-109.13082967158894
-0.07670000000000021,-110.34748138947285
-0.0777000000000001,-111.57828022035544
-0.07870000000000021,-112.83737327723534
-0.0797000000000001,-114.11061344711386
-0.08070000000000022,-115.4121478429897
-0.0817000000000001,-116.67124089986959
-0.08270000000000022,-117.90203973075215
-0.08370000000000011,-119.1186914486361
-0.08470000000000022,-120.33534316652002
-0.08570000000000011,-121.48125931941068
-0.08670000000000022,-122.61302835930273
-0.08770000000000011,-123.74479739919475
-0.08870000000000022,-124.83412510009084
-0.08970000000000011,-125.96589413998288
-0.09070000000000022,-127.14010451887084
-0.09170000000000011,-128.37090334975343
-0.09270000000000023,-129.5451137286414
-0.09370000000000012,-130.76176544652535
-0.09470000000000023,-132.03500561640385
-0.09570000000000012,-133.37898135127566
-0.09670000000000023,-134.6522215211542
-0.09770000000000012,-135.86887323903812
-0.09870000000000023,-137.12796629591801
-0.09970000000000012,-138.3587651268006
-0.10070000000000023,-139.49053416669264
-0.10170000000000012,-140.66474454558062
-0.10270000000000024,-141.75407224647665
-0.10370000000000013,-142.8858412863687
-0.10470000000000024,-144.01761032626072
-0.10570000000000013,-145.14937936615277
-0.10670000000000024,-146.28114840604482
-0.10770000000000013,-147.55438857592333
-0.10870000000000024,-148.82762874580186
-0.10970000000000013,-150.1008689156804
-0.11070000000000024,-151.37410908555893
-0.11170000000000013,-152.50587812545095
-0.11270000000000002,-153.77911829532948
-0.11370000000000013,-154.9108873352215
-0.11470000000000002,-156.18412750510007
-0.11570000000000014,-157.31589654499206
-0.11670000000000003,-158.4476655848841
-0.11770000000000014,-159.57943462477613
-0.11870000000000003,-160.71120366466818
-0.11970000000000014,-161.84297270456022
-0.12070000000000003,-163.11621287443873
-0.12170000000000014,-164.24798191433075
-0.12270000000000003,-165.5212220842093
-0.12370000000000014,-166.79446225408785
-0.12470000000000003,-167.92623129397984
-0.12570000000000014,-169.19947146385837
-0.12670000000000003,-170.47271163373694
-0.12770000000000015,-171.60448067362896
-0.12870000000000004,-172.73624971352098
-0.12970000000000015,-173.86801875341303
-0.13070000000000004,-174.99978779330505
-0.13170000000000015,-176.13155683319707
-0.13270000000000004,-177.1218547431026
-0.13370000000000015,-178.25362378299462
-0.13470000000000004,-179.24392169290016
-0.13570000000000015,-180.37569073279218
-0.13670000000000004,-181.64893090267074
-0.13770000000000016,-182.78069994256273
-0.13870000000000005,-184.05394011244127
-0.13970000000000016,-185.1857091523333
-0.14070000000000005,-186.45894932221185
-0.14170000000000016,-187.73218949209036
-0.14270000000000005,-188.8639585319824
-0.14370000000000016,-190.13719870186094
-0.14470000000000005,-191.268967741753
-0.14570000000000016,-192.40073678164498
-0.14670000000000005,-193.3910346915505
-0.14770000000000016,-194.52280373144254
-0.14870000000000005,-195.65457277133459
-0.14970000000000017,-196.92781294121312
-0.15070000000000006,-198.20105311109162
-0.15170000000000017,-199.47429328097016
-0.15270000000000006,-200.7475334508487
-0.15370000000000017,-201.87930249074074
-0.15470000000000006,-203.15254266061928
-0.15570000000000017,-204.42578283049778
-0.15670000000000006,-205.55755187038983
-0.15770000000000017,-206.68932091028185
-0.15870000000000006,-207.96256108016038
-0.15970000000000018,-208.95285899006592
-0.16070000000000007,-210.08462802995794
-0.16170000000000018,-211.07492593986345
-0.16270000000000007,-212.065223849769
-0.16370000000000018,-213.05552175967455
-0.16470000000000007,-214.32876192955305
-0.16570000000000018,-215.4605309694451
-0.16670000000000007,-216.73377113932364
-0.16770000000000018,-217.86554017921566
-0.16870000000000007,-219.13878034909416
-0.16970000000000018,-220.41202051897272
-0.17070000000000007,-221.68526068885126
-0.17170000000000019,-222.9585008587298
-0.17270000000000008,-224.09026989862178
-0.1737000000000002,-225.36351006850035
-0.17470000000000008,-226.63675023837888
-0.1757000000000002,-227.7685192782709
-0.17670000000000008,-228.90028831816295
-0.1777000000000002,-230.03205735805497
-0.17870000000000008,-231.0223552679605
-0.1797000000000002,-232.15412430785253
-0.18070000000000008,-233.28589334774458
-0.1817000000000002,-234.27619125765005
-0.18270000000000008,-235.54943142752862
-0.1837000000000002,-236.6812004674206
-0.1847000000000001,-237.9544406372992
-0.1857000000000002,-239.2276808071777
-0.1867000000000001,-240.35944984706975
-0.1877000000000002,-241.6326900169483
-0.1887000000000001,-242.76445905684034
-0.1897000000000002,-244.03769922671884
-0.1907000000000001,-245.16946826661086
-0.1917000000000001,-246.30123730650286
-0.19269999999999998,-247.57447747638145
-0.1937000000000001,-248.70624651627344
-0.19469999999999998,-249.979486686152
-0.1957000000000001,-251.25272685603056
-0.19669999999999999,-252.52596702590907
-0.1977000000000001,-253.65773606580112
-0.1987,-254.93097623567962
-0.1997000000000001,-256.0627452755717
-0.2007,-257.33598544545015
-0.2017000000000001,-258.4677544853422
-0.2027,-259.7409946552208
-0.2037000000000001,-260.8727636951128
-0.2047,-262.0045327350048
-0.2057000000000001,-262.9948306449103
-0.2067,-264.12659968480233
-0.2077000000000001,-265.2583687246944
-0.2087,-266.3901377645864
-0.2097000000000001,-267.6633779344649
-0.2107,-268.79514697435695
-0.2117000000000001,-270.0683871442355
-0.2127,-271.341627314114
-0.2137000000000001,-272.47339635400607
-0.2147,-273.7466365238846
-0.2157000000000001,-275.1613478237496
-0.2167,-276.29311686364167
-0.21770000000000012,-277.56635703352015
-0.2187,-278.6981260734122
-0.21970000000000012,-279.97136624329073
-0.2207,-281.1031352831828
-0.22170000000000012,-282.2349043230748
-0.2227,-283.22520223298034
-0.22370000000000012,-284.35697127287233
-0.2247,-285.4887403127644
-0.22570000000000012,-286.47903822266994
-0.2267,-287.610807262562
-0.22770000000000012,-288.8840474324405
-0.22870000000000001,-290.0158164723325
-0.22970000000000013,-291.28905664221105
-0.23070000000000002,-292.4208256821031
-0.23170000000000013,-293.6940658519816
-0.23270000000000002,-294.96730602186017
-0.23370000000000013,-296.0990750617522
-0.23470000000000002,-297.3723152316307
-0.23570000000000013,-298.6455554015092
-0.23670000000000002,-299.91879557138776
-0.2376999999999999,-301.1920357412663
-0.23870000000000002,-302.32380478115834
-0.2396999999999999,-303.5970449510368
-0.24070000000000003,-304.72881399092887
-0.24169999999999991,-306.00205416080746
-0.24270000000000003,-307.1338232006995
-0.24369999999999992,-308.407063370578
-0.24470000000000003,-309.53883241047004
-0.24569999999999992,-310.81207258034857
-0.24670000000000003,-312.0853127502271
-0.24769999999999992,-313.35855292010564
-0.24870000000000003,-314.49032195999763
-0.24969999999999992,-315.6220909998897
-0.25070000000000003,-316.7538600397817
-0.2516999999999999,-317.74415794968724
-0.25270000000000004,-318.8759269895793
-0.2536999999999999,-320.00769602947133
-0.25470000000000004,-321.1394650693634
-0.2556999999999999,-322.2712341092554
-0.25670000000000004,-323.5444742791339
-0.25769999999999993,-324.81771444901244
-0.25870000000000004,-326.090954618891
-0.25969999999999993,-327.505665918756
-0.26070000000000004,-328.63743495864804
-0.26169999999999993,-329.9106751285266
-0.26270000000000004,-331.18391529840505
-0.26369999999999993,-332.3156843382971
-0.26470000000000005,-333.44745337818915
-0.26569999999999994,-334.5792224180812
-0.26670000000000005,-335.8524625879597
-0.26769999999999994,-336.84276049786524
-0.26870000000000005,-337.9745295377573
-0.26969999999999994,-339.1062985776493
-0.27070000000000005,-340.0965964875548
-0.27169999999999994,-341.3698366574333
-0.27270000000000005,-342.5016056973254
-0.27369999999999994,-343.7748458672039
-0.27470000000000006,-344.90661490709596
-0.27569999999999995,-346.1798550769745
-0.27670000000000006,-347.3116241168665
-0.27769999999999995,-348.44339315675853
-0.27870000000000006,-349.71663332663707
-0.27969999999999995,-350.8484023665291
-0.28070000000000006,-351.8387002764346
-0.28169999999999995,-352.9704693163266
-0.28270000000000006,-353.96076722623224
-0.28369999999999995,-354.95106513613774
-0.28470000000000006,-356.08283417602973
-0.28569999999999995,-357.35607434590827
-0.28670000000000007,-358.62931451578686
-0.28769999999999996,-359.90255468566534
-0.28870000000000007,-361.31726598553036
-0.28969999999999996,-362.5905061554089
-0.29070000000000007,-364.0052174552739
-0.29169999999999996,-365.2784576251525
-0.29270000000000007,-366.551697795031
-0.29369999999999996,-367.96640909489605
-0.2947000000000001,-369.2396492647746
-0.29569999999999996,-370.5128894346531
-0.2967000000000001,-371.64465847454517
-0.29769999999999996,-372.6349563844507
-0.2987000000000001,-373.6252542943562
-0.29969999999999997,-374.61555220426175
-0.3007000000000001,-375.60585011416725
-0.30169999999999997,-376.59614802407276
-0.3027000000000001,-377.58644593397827
-0.30369999999999997,-378.5767438438838
-0.3047000000000001,-379.7085128837758
-0.30569999999999997,-380.69881079368133
-0.3067000000000001,-381.8305798335734
-0.3077,-383.103820003452
-0.3087000000000001,-384.23558904334396
-0.3097,-385.5088292132225
-0.3107000000000001,-386.64059825311455
-0.3117,-387.7723672930066
-0.3127000000000001,-388.9041363328986
-0.3137,-390.03590537279064
-0.3147000000000001,-391.16767441268263
-0.3157,-392.4409145825612
-0.3167000000000001,-393.5726836224532
-0.3177,-394.70445266234526
-0.3187000000000001,-395.6947505722507
-0.3197,-396.9679907421293
-0.3207000000000001,-398.0997597820213
-0.3217,-399.23152882191334
-0.3227000000000001,-400.36329786180534
-0.3237,-401.4950669016974
-0.3247000000000001,-402.4853648116029
-0.3257,-403.47566272150846
-0.3267000000000001,-404.6074317614005
-0.3277,-405.597729671306
-0.3287000000000001,-406.5880275812115
-0.3297,-407.7197966211035
-0.3307000000000001,-408.85156566099556
-0.3317,-410.12480583087415
-0.3327000000000001,-411.3980460007527
-0.3337,-412.6712861706312
-0.3347000000000001,-413.94452634050975
-0.3357,-415.2177665103883
-0.3367000000000001,-416.34953555028034
-0.3377,-417.6227757201588
-0.3387000000000001,-418.8960158900374
-0.3397,-420.02778492992945
-0.3407000000000001,-420.8766117098484
-0.3417,-421.72543848976744
-0.3427000000000001,-422.85720752965943
-0.3437,-423.847505439565
-0.3447000000000001,-424.8378033494705
-0.3457,-425.6866301293895
-0.3467000000000001,-426.53545690930855
-0.3477,-427.6672259492006
-0.3487000000000001,-428.79899498909265
-0.3497,-430.35517741894415
-0.3507000000000001,-431.9113598487957
-0.3517,-433.32607114866073
-0.3527000000000001,-434.74078244852575
-0.3537,-436.1554937483908
-0.3547000000000001,-437.4287339182693
-0.3557,-438.7019740881479
-0.35670000000000013,-439.6922719980534
-0.3577,-440.5410987779724
-0.35870000000000013,-441.3899255578914
-0.3597,-442.097281207824
-0.36070000000000013,-442.94610798774295
-0.3617,-443.6534636376755
-0.3626999999999999,-444.5022904175945
-0.3637,-445.3511171975136
-0.3646999999999999,-446.3414151074191
-0.3657,-447.3317130173246
-0.3666999999999999,-448.4634820572166
-0.3677,-449.73672222709513
-0.3686999999999999,-451.00996239697366
-0.36970000000000003,-452.42467369683874
-0.3706999999999999,-453.6979138667173
-0.37170000000000003,-454.9711540365958
-0.3726999999999999,-456.3858653364608
-0.37370000000000003,-457.5176343763529
-0.3746999999999999,-458.64940341624487
-0.37570000000000003,-459.7811724561369
-0.3766999999999999,-460.9129414960289
-0.37770000000000004,-462.044710535921
-0.3786999999999999,-462.89353731584
-0.37970000000000004,-463.8838352257455
-0.3806999999999999,-464.7326620056645
-0.38170000000000004,-465.5814887855836
-0.38269999999999993,-466.43031556550255
-0.38370000000000004,-467.4206134754081
-0.38469999999999993,-468.4109113853137
-0.38570000000000004,-469.4012092952192
-0.38669999999999993,-469.11826703524616
-0.38570000000000004,-465.86443104555656
-0.38469999999999993,-462.7520661858535
-0.38370000000000004,-459.7811724561369
-0.38269999999999993,-456.81027872642034
-0.38170000000000004,-453.98085612669024
-0.3806999999999999,-451.00996239697366
-0.37970000000000004,-448.0390686672571
-0.3786999999999999,-445.06817493754056
-0.37770000000000004,-442.097281207824
-0.3766999999999999,-439.26785860809395
-0.37570000000000003,-436.2969648783773
-0.3746999999999999,-433.32607114866073
-0.37370000000000003,-430.35517741894415
-0.3726999999999999,-427.52575481921406
-0.37170000000000003,-424.5548610894975
-0.3706999999999999,-421.72543848976744
-0.36970000000000003,-418.75454476005086
-0.3686999999999999,-415.92512216032077
-0.3677,-413.09569956059073
-0.3666999999999999,-410.4077480908472
-0.3657,-407.7197966211035
-0.3646999999999999,-405.03184515135996
-0.3637,-402.4853648116029
-0.3626999999999999,-399.9388844718459
-0.3617,-397.3924041320888
-0.36070000000000013,-394.9873949223183
-0.3597,-392.4409145825612
-0.35870000000000013,-389.8944342428041
-0.3577,-387.20648277306054
-0.35670000000000013,-384.37706017333045
-0.3557,-381.6891087035869
-0.3547000000000001,-378.85968610385686
-0.3537,-376.17173463411325
-0.3527000000000001,-373.34231203438316
-0.3517,-370.7958316946261
-0.3507000000000001,-368.10788022488254
-0.3497,-365.56139988512547
-0.3487000000000001,-363.0149195453684
-0.3477,-360.46843920561133
-0.3467000000000001,-357.92195886585426
-0.3457,-355.3754785260972
-0.3447000000000001,-352.9704693163266
-0.3437,-350.42398897656955
-0.3427000000000001,-347.87750863681254
-0.3417,-345.33102829705547
-0.3407000000000001,-342.7845479572984
-0.3397,-340.0965964875548
-0.3387000000000001,-337.5501161477977
-0.3377,-335.00363580804066
-0.3367000000000001,-332.59862659827013
-0.3357,-330.19361738849955
-0.3347000000000001,-327.788608178729
-0.3337,-325.3835989689584
-0.3327000000000001,-322.97858975918786
-0.3317,-320.57358054941733
-0.3307000000000001,-318.16857133964675
-0.3297,-315.76356212987616
-0.3287000000000001,-313.35855292010564
-0.3277,-310.81207258034857
-0.3267000000000001,-308.2655922405915
-0.3257,-305.8605830308209
-0.3247000000000001,-303.31410269106385
-0.3237,-300.76762235130684
-0.3227000000000001,-298.2211420115498
-0.3217,-295.8161328017792
-0.3207000000000001,-293.4111235920086
-0.3197,-291.0061143822381
-0.3187000000000001,-288.6011051724675
-0.3177,-286.196095962697
-0.3167000000000001,-283.9325578829129
-0.3157,-281.52754867314235
-0.3147000000000001,-279.26401059335825
-0.3137,-276.8590013835877
-0.3127000000000001,-274.31252104383066
-0.3117,-271.9075118340601
-0.3107000000000001,-269.5025026242895
-0.3097,-266.9560222845325
-0.3087000000000001,-264.6924842047484
-0.3077,-262.42894612496434
-0.3067000000000001,-260.02393691519376
-0.30569999999999997,-257.76039883540966
-0.3047000000000001,-255.49686075562562
-0.30369999999999997,-253.37479380582806
-0.3027000000000001,-251.25272685603056
-0.30169999999999997,-248.9891887762465
-0.3007000000000001,-246.7256506964624
-0.29969999999999997,-244.46211261667833
-0.2987000000000001,-242.34004566688077
-0.29769999999999996,-240.0765075870967
-0.2967000000000001,-237.81296950731266
-0.29569999999999996,-235.40796029754208
-0.2947000000000001,-233.1444222177581
-0.29369999999999996,-230.7394130079875
-0.29270000000000007,-228.47587492820347
-0.29169999999999996,-226.21233684841937
-0.29070000000000007,-223.9487987686353
-0.28969999999999996,-221.68526068885126
-0.28870000000000007,-219.5631937390537
-0.28769999999999996,-217.44112678925615
-0.28670000000000007,-215.17758870947208
-0.28569999999999995,-213.05552175967455
-0.28470000000000006,-210.93345480987696
-0.28369999999999995,-208.95285899006592
-0.28270000000000006,-206.68932091028185
-0.28169999999999995,-204.42578283049778
-0.28070000000000006,-202.16224475071377
-0.27969999999999995,-199.89870667092967
-0.27870000000000006,-197.63516859114563
-0.27769999999999995,-195.37163051136156
-0.27670000000000006,-193.249563561564
-0.27569999999999995,-191.12749661176645
-0.27470000000000006,-189.1469007919554
-0.27369999999999994,-187.02483384215788
-0.27270000000000005,-185.0442380223468
-0.27169999999999994,-183.06364220253573
-0.27070000000000005,-181.08304638272472
-0.26969999999999994,-178.96097943292713
-0.26870000000000005,-176.8389124831296
-0.26769999999999994,-174.71684553333202
