Oct. 1, 2024   10:20:17
Cyclic Voltammetry
File: c:/users/guazh/data/20240922_batch_417_500/2024-09-22-exp499\exp499-2024-10-01t10_03_06-h2koh\exp499_cv_sr_50mvs_efin_-1700mv.bin
Data Source:  Experiment
Instrument Model:  CHI760E
Header: CV ran at 50 mVs
Note: 

Init E (V) = -1
High E (V) = -1
Low E (V) = -1.7
Final E (V) = -1
Init P/N = N
Scan Rate (V/s) = 0.05
Segment = 3
Sample Interval (V) = 0.001
Quiet Time (sec) = 2
Sensitivity (A/V) = 0.01
Comp R (ohm) = 2.3

Results:

Channel 1:
Segment 1:

Segment 2:

Segment 3:

Potential/V, Current/A

-1.000, -2.468e-6
-1.001, -1.758e-6
-1.002, -1.255e-6
-1.003, -1.008e-6
-1.004, -5.150e-7
-1.005, -3.374e-7
-1.006, -3.374e-7
-1.007, 1.776e-8
-1.008, 3.433e-7
-1.009, 4.815e-7
-1.010, 6.590e-7
-1.011, 6.294e-7
-1.012, 8.564e-7
-1.013, 1.123e-6
-1.014, 1.281e-6
-1.015, 1.399e-6
-1.016, 1.389e-6
-1.017, 1.596e-6
-1.018, 1.685e-6
-1.019, 1.902e-6
-1.020, 2.011e-6
-1.021, 1.932e-6
-1.022, 2.090e-6
-1.023, 2.218e-6
-1.024, 2.583e-6
-1.025, 2.524e-6
-1.026, 2.543e-6
-1.027, 2.820e-6
-1.028, 2.790e-6
-1.029, 3.056e-6
-1.030, 2.948e-6
-1.031, 2.978e-6
-1.032, 3.076e-6
-1.033, 3.333e-6
-1.034, 3.362e-6
-1.035, 3.392e-6
-1.036, 3.254e-6
-1.037, 3.599e-6
-1.038, 3.589e-6
-1.039, 3.796e-6
-1.040, 3.737e-6
-1.041, 3.629e-6
-1.042, 3.757e-6
-1.043, 3.865e-6
-1.044, 4.073e-6
-1.045, 4.013e-6
-1.046, 3.895e-6
-1.047, 4.161e-6
-1.048, 4.122e-6
-1.049, 4.211e-6
-1.050, 4.359e-6
-1.051, 4.280e-6
-1.052, 4.388e-6
-1.053, 4.369e-6
-1.054, 4.615e-6
-1.055, 4.556e-6
-1.056, 4.477e-6
-1.057, 4.635e-6
-1.058, 4.724e-6
-1.059, 4.832e-6
-1.060, 4.803e-6
-1.061, 4.655e-6
-1.062, 4.842e-6
-1.063, 4.921e-6
-1.064, 5.069e-6
-1.065, 4.921e-6
-1.066, 4.961e-6
-1.067, 4.951e-6
-1.068, 5.099e-6
-1.069, 5.247e-6
-1.070, 5.148e-6
-1.071, 5.040e-6
-1.072, 5.217e-6
-1.073, 5.227e-6
-1.074, 5.405e-6
-1.075, 5.336e-6
-1.076, 5.326e-6
-1.077, 5.602e-6
-1.078, 5.405e-6
-1.079, 5.671e-6
-1.080, 5.434e-6
-1.081, 5.365e-6
-1.082, 5.641e-6
-1.083, 5.622e-6
-1.084, 5.750e-6
-1.085, 5.681e-6
-1.086, 5.602e-6
-1.087, 5.799e-6
-1.088, 5.809e-6
-1.089, 5.908e-6
-1.090, 5.789e-6
-1.091, 5.720e-6
-1.092, 5.849e-6
-1.093, 5.947e-6
-1.094, 5.997e-6
-1.095, 5.918e-6
-1.096, 5.918e-6
-1.097, 6.066e-6
-1.098, 6.016e-6
-1.099, 6.085e-6
-1.100, 6.026e-6
-1.101, 5.987e-6
-1.102, 6.223e-6
-1.103, 6.164e-6
-1.104, 6.253e-6
-1.105, 6.204e-6
-1.106, 6.036e-6
-1.107, 6.302e-6
-1.108, 6.194e-6
-1.109, 6.401e-6
-1.110, 6.312e-6
-1.111, 6.223e-6
-1.112, 6.273e-6
-1.113, 6.342e-6
-1.114, 6.559e-6
-1.115, 6.401e-6
-1.116, 6.302e-6
-1.117, 6.480e-6
-1.118, 6.391e-6
-1.119, 6.559e-6
-1.120, 6.440e-6
-1.121, 6.302e-6
-1.122, 6.480e-6
-1.123, 6.371e-6
-1.124, 6.697e-6
-1.125, 6.519e-6
-1.126, 6.460e-6
-1.127, 6.618e-6
-1.128, 6.618e-6
-1.129, 6.766e-6
-1.130, 6.697e-6
-1.131, 6.529e-6
-1.132, 6.598e-6
-1.133, 6.727e-6
-1.134, 6.796e-6
-1.135, 6.766e-6
-1.136, 6.569e-6
-1.137, 6.697e-6
-1.138, 6.766e-6
-1.139, 6.875e-6
-1.140, 6.855e-6
-1.141, 6.658e-6
-1.142, 6.855e-6
-1.143, 6.924e-6
-1.144, 6.954e-6
-1.145, 6.875e-6
-1.146, 6.815e-6
-1.147, 7.032e-6
-1.148, 6.934e-6
-1.149, 7.102e-6
-1.150, 6.963e-6
-1.151, 6.924e-6
-1.152, 6.983e-6
-1.153, 7.062e-6
-1.154, 7.210e-6
-1.155, 7.102e-6
-1.156, 6.934e-6
-1.157, 7.062e-6
-1.158, 7.171e-6
-1.159, 7.259e-6
-1.160, 7.141e-6
-1.161, 7.052e-6
-1.162, 7.161e-6
-1.163, 7.250e-6
-1.164, 7.309e-6
-1.165, 7.269e-6
-1.166, 7.161e-6
-1.167, 7.250e-6
-1.168, 7.299e-6
-1.169, 7.447e-6
-1.170, 7.417e-6
-1.171, 7.338e-6
-1.172, 7.407e-6
-1.173, 7.486e-6
-1.174, 7.476e-6
-1.175, 7.516e-6
-1.176, 7.289e-6
-1.177, 7.467e-6
-1.178, 7.555e-6
-1.179, 7.664e-6
-1.180, 7.595e-6
-1.181, 7.595e-6
-1.182, 7.664e-6
-1.183, 7.605e-6
-1.184, 7.733e-6
-1.185, 7.772e-6
-1.186, 7.565e-6
-1.187, 7.743e-6
-1.188, 7.812e-6
-1.189, 7.960e-6
-1.190, 7.861e-6
-1.191, 7.812e-6
-1.192, 7.970e-6
-1.193, 7.940e-6
-1.194, 8.128e-6
-1.195, 8.009e-6
-1.196, 7.920e-6
-1.197, 8.088e-6
-1.198, 8.177e-6
-1.199, 8.305e-6
-1.200, 8.177e-6
-1.201, 8.177e-6
-1.202, 8.315e-6
-1.203, 8.325e-6
-1.204, 8.502e-6
-1.205, 8.345e-6
-1.206, 8.414e-6
-1.207, 8.493e-6
-1.208, 8.562e-6
-1.209, 8.700e-6
-1.210, 8.611e-6
-1.211, 8.532e-6
-1.212, 8.759e-6
-1.213, 8.739e-6
-1.214, 8.897e-6
-1.215, 8.828e-6
-1.216, 8.808e-6
-1.217, 8.937e-6
-1.218, 9.085e-6
-1.219, 9.262e-6
-1.220, 9.124e-6
-1.221, 9.035e-6
-1.222, 9.213e-6
-1.223, 9.400e-6
-1.224, 9.430e-6
-1.225, 9.529e-6
-1.226, 9.390e-6
-1.227, 9.627e-6
-1.228, 9.686e-6
-1.229, 1.009e-5
-1.230, 9.963e-6
-1.231, 9.903e-6
-1.232, 1.010e-5
-1.233, 1.019e-5
-1.234, 1.042e-5
-1.235, 1.037e-5
-1.236, 1.036e-5
-1.237, 1.052e-5
-1.238, 1.069e-5
-1.239, 1.088e-5
-1.240, 1.077e-5
-1.241, 1.087e-5
-1.242, 1.115e-5
-1.243, 1.115e-5
-1.244, 1.142e-5
-1.245, 1.142e-5
-1.246, 1.147e-5
-1.247, 1.153e-5
-1.248, 1.175e-5
-1.249, 1.205e-5
-1.250, 1.194e-5
-1.251, 1.211e-5
-1.252, 1.226e-5
-1.253, 1.248e-5
-1.254, 1.283e-5
-1.255, 1.281e-5
-1.256, 1.283e-5
-1.257, 1.312e-5
-1.258, 1.339e-5
-1.259, 1.359e-5
-1.260, 1.359e-5
-1.261, 1.382e-5
-1.262, 1.402e-5
-1.263, 1.414e-5
-1.264, 1.457e-5
-1.265, 1.457e-5
-1.266, 1.461e-5
-1.267, 1.494e-5
-1.268, 1.520e-5
-1.269, 1.554e-5
-1.270, 1.566e-5
-1.271, 1.586e-5
-1.272, 1.600e-5
-1.273, 1.638e-5
-1.274, 1.673e-5
-1.275, 1.688e-5
-1.276, 1.706e-5
-1.277, 1.742e-5
-1.278, 1.759e-5
-1.279, 1.806e-5
-1.280, 1.829e-5
-1.281, 1.855e-5
-1.282, 1.883e-5
-1.283, 1.918e-5
-1.284, 1.963e-5
-1.285, 1.979e-5
-1.286, 2.018e-5
-1.287, 2.047e-5
-1.288, 2.079e-5
-1.289, 2.118e-5
-1.290, 2.153e-5
-1.291, 2.189e-5
-1.292, 2.229e-5
-1.293, 2.266e-5
-1.294, 2.325e-5
-1.295, 2.347e-5
-1.296, 2.380e-5
-1.297, 2.433e-5
-1.298, 2.481e-5
-1.299, 2.526e-5
-1.300, 2.563e-5
-1.301, 2.613e-5
-1.302, 2.657e-5
-1.303, 2.714e-5
-1.304, 2.762e-5
-1.305, 2.794e-5
-1.306, 2.843e-5
-1.307, 2.904e-5
-1.308, 2.955e-5
-1.309, 3.020e-5
-1.310, 3.053e-5
-1.311, 3.120e-5
-1.312, 3.166e-5
-1.313, 3.234e-5
-1.314, 3.299e-5
-1.315, 3.340e-5
-1.316, 3.395e-5
-1.317, 3.459e-5
-1.318, 3.532e-5
-1.319, 3.609e-5
-1.320, 3.653e-5
-1.321, 3.718e-5
-1.322, 3.789e-5
-1.323, 3.858e-5
-1.324, 3.937e-5
-1.325, 3.996e-5
-1.326, 4.074e-5
-1.327, 4.139e-5
-1.328, 4.217e-5
-1.329, 4.304e-5
-1.330, 4.369e-5
-1.331, 4.451e-5
-1.332, 4.525e-5
-1.333, 4.623e-5
-1.334, 4.696e-5
-1.335, 4.776e-5
-1.336, 4.851e-5
-1.337, 4.938e-5
-1.338, 5.032e-5
-1.339, 5.124e-5
-1.340, 5.204e-5
-1.341, 5.289e-5
-1.342, 5.367e-5
-1.343, 5.475e-5
-1.344, 5.583e-5
-1.345, 5.669e-5
-1.346, 5.764e-5
-1.347, 5.858e-5
-1.348, 5.961e-5
-1.349, 6.057e-5
-1.350, 6.153e-5
-1.351, 6.268e-5
-1.352, 6.364e-5
-1.353, 6.470e-5
-1.354, 6.585e-5
-1.355, 6.678e-5
-1.356, 6.791e-5
-1.357, 6.900e-5
-1.358, 7.020e-5
-1.359, 7.147e-5
-1.360, 7.246e-5
-1.361, 7.363e-5
-1.362, 7.486e-5
-1.363, 7.606e-5
-1.364, 7.737e-5
-1.365, 7.848e-5
-1.366, 7.977e-5
-1.367, 8.104e-5
-1.368, 8.225e-5
-1.369, 8.359e-5
-1.370, 8.495e-5
-1.371, 8.628e-5
-1.372, 8.756e-5
-1.373, 8.897e-5
-1.374, 9.036e-5
-1.375, 9.165e-5
-1.376, 9.313e-5
-1.377, 9.439e-5
-1.378, 9.596e-5
-1.379, 9.746e-5
-1.380, 9.891e-5
-1.381, 1.004e-4
-1.382, 1.020e-4
-1.383, 1.036e-4
-1.384, 1.051e-4
-1.385, 1.067e-4
-1.386, 1.082e-4
-1.387, 1.097e-4
-1.388, 1.114e-4
-1.389, 1.132e-4
-1.390, 1.147e-4
-1.391, 1.163e-4
-1.392, 1.180e-4
-1.393, 1.198e-4
-1.394, 1.215e-4
-1.395, 1.232e-4
-1.396, 1.250e-4
-1.397, 1.267e-4
-1.398, 1.286e-4
-1.399, 1.305e-4
-1.400, 1.322e-4
-1.401, 1.341e-4
-1.402, 1.359e-4
-1.403, 1.379e-4
-1.404, 1.398e-4
-1.405, 1.419e-4
-1.406, 1.438e-4
-1.407, 1.456e-4
-1.408, 1.478e-4
-1.409, 1.498e-4
-1.410, 1.520e-4
-1.411, 1.539e-4
-1.412, 1.560e-4
-1.413, 1.582e-4
-1.414, 1.603e-4
-1.415, 1.625e-4
-1.416, 1.646e-4
-1.417, 1.668e-4
-1.418, 1.691e-4
-1.419, 1.713e-4
-1.420, 1.736e-4
-1.421, 1.759e-4
-1.422, 1.783e-4
-1.423, 1.807e-4
-1.424, 1.831e-4
-1.425, 1.854e-4
-1.426, 1.878e-4
-1.427, 1.902e-4
-1.428, 1.927e-4
-1.429, 1.953e-4
-1.430, 1.978e-4
-1.431, 2.004e-4
-1.432, 2.027e-4
-1.433, 2.054e-4
-1.434, 2.082e-4
-1.435, 2.109e-4
-1.436, 2.135e-4
-1.437, 2.162e-4
-1.438, 2.189e-4
-1.439, 2.216e-4
-1.440, 2.244e-4
-1.441, 2.271e-4
-1.442, 2.298e-4
-1.443, 2.330e-4
-1.444, 2.358e-4
-1.445, 2.387e-4
-1.446, 2.416e-4
-1.447, 2.448e-4
-1.448, 2.479e-4
-1.449, 2.509e-4
-1.450, 2.540e-4
-1.451, 2.570e-4
-1.452, 2.601e-4
-1.453, 2.635e-4
-1.454, 2.667e-4
-1.455, 2.699e-4
-1.456, 2.733e-4
-1.457, 2.767e-4
-1.458, 2.800e-4
-1.459, 2.836e-4
-1.460, 2.871e-4
-1.461, 2.906e-4
-1.462, 2.941e-4
-1.463, 2.978e-4
-1.464, 3.013e-4
-1.465, 3.051e-4
-1.466, 3.089e-4
-1.467, 3.126e-4
-1.468, 3.164e-4
-1.469, 3.205e-4
-1.470, 3.241e-4
-1.471, 3.279e-4
-1.472, 3.319e-4
-1.473, 3.361e-4
-1.474, 3.401e-4
-1.475, 3.445e-4
-1.476, 3.487e-4
-1.477, 3.531e-4
-1.478, 3.577e-4
-1.479, 3.621e-4
-1.480, 3.659e-4
-1.481, 3.704e-4
-1.482, 3.751e-4
-1.483, 3.794e-4
-1.484, 3.842e-4
-1.485, 3.886e-4
-1.486, 3.933e-4
-1.487, 3.980e-4
-1.488, 4.031e-4
-1.489, 4.079e-4
-1.490, 4.130e-4
-1.491, 4.178e-4
-1.492, 4.230e-4
-1.493, 4.283e-4
-1.494, 4.333e-4
-1.495, 4.387e-4
-1.496, 4.436e-4
-1.497, 4.487e-4
-1.498, 4.542e-4
-1.499, 4.596e-4
-1.500, 4.656e-4
-1.501, 4.714e-4
-1.502, 4.771e-4
-1.503, 4.831e-4
-1.504, 4.891e-4
-1.505, 4.949e-4
-1.506, 5.005e-4
-1.507, 5.066e-4
-1.508, 5.133e-4
-1.509, 5.194e-4
-1.510, 5.257e-4
-1.511, 5.325e-4
-1.512, 5.384e-4
-1.513, 5.452e-4
-1.514, 5.520e-4
-1.515, 5.583e-4
-1.516, 5.649e-4
-1.517, 5.720e-4
-1.518, 5.792e-4
-1.519, 5.867e-4
-1.520, 5.938e-4
-1.521, 6.014e-4
-1.522, 6.085e-4
-1.523, 6.157e-4
-1.524, 6.234e-4
-1.525, 6.318e-4
-1.526, 6.391e-4
-1.527, 6.469e-4
-1.528, 6.558e-4
-1.529, 6.638e-4
-1.530, 6.719e-4
-1.531, 6.796e-4
-1.532, 6.877e-4
-1.533, 6.958e-4
-1.534, 7.048e-4
-1.535, 7.141e-4
-1.536, 7.224e-4
-1.537, 7.321e-4
-1.538, 7.411e-4
-1.539, 7.505e-4
-1.540, 7.594e-4
-1.541, 7.686e-4
-1.542, 7.786e-4
-1.543, 7.888e-4
-1.544, 7.979e-4
-1.545, 8.084e-4
-1.546, 8.190e-4
-1.547, 8.293e-4
-1.548, 8.404e-4
-1.549, 8.514e-4
-1.550, 8.624e-4
-1.551, 8.722e-4
-1.552, 8.836e-4
-1.553, 8.954e-4
-1.554, 9.063e-4
-1.555, 9.191e-4
-1.556, 9.310e-4
-1.557, 9.438e-4
-1.558, 9.550e-4
-1.559, 9.666e-4
-1.560, 9.791e-4
-1.561, 9.927e-4
-1.562, 1.005e-3
-1.563, 1.019e-3
-1.564, 1.032e-3
-1.565, 1.045e-3
-1.566, 1.059e-3
-1.567, 1.073e-3
-1.568, 1.088e-3
-1.569, 1.101e-3
-1.570, 1.116e-3
-1.571, 1.132e-3
-1.572, 1.145e-3
-1.573, 1.159e-3
-1.574, 1.176e-3
-1.575, 1.193e-3
-1.576, 1.208e-3
-1.577, 1.224e-3
-1.578, 1.240e-3
-1.579, 1.255e-3
-1.580, 1.272e-3
-1.581, 1.290e-3
-1.582, 1.307e-3
-1.583, 1.326e-3
-1.584, 1.344e-3
-1.585, 1.360e-3
-1.586, 1.378e-3
-1.587, 1.398e-3
-1.588, 1.418e-3
-1.589, 1.436e-3
-1.590, 1.455e-3
-1.591, 1.476e-3
-1.592, 1.498e-3
-1.593, 1.517e-3
-1.594, 1.537e-3
-1.595, 1.557e-3
-1.596, 1.581e-3
-1.597, 1.603e-3
-1.598, 1.624e-3
-1.599, 1.644e-3
-1.600, 1.666e-3
-1.601, 1.690e-3
-1.602, 1.714e-3
-1.603, 1.737e-3
-1.604, 1.763e-3
-1.605, 1.787e-3
-1.606, 1.811e-3
-1.607, 1.834e-3
-1.608, 1.858e-3
-1.609, 1.884e-3
-1.610, 1.908e-3
-1.611, 1.935e-3
-1.612, 1.963e-3
-1.613, 1.995e-3
-1.614, 2.025e-3
-1.615, 2.048e-3
-1.616, 2.071e-3
-1.617, 2.096e-3
-1.618, 2.128e-3
-1.619, 2.159e-3
-1.620, 2.192e-3
-1.621, 2.220e-3
-1.622, 2.247e-3
-1.623, 2.275e-3
-1.624, 2.299e-3
-1.625, 2.329e-3
-1.626, 2.361e-3
-1.627, 2.394e-3
-1.628, 2.429e-3
-1.629, 2.462e-3
-1.630, 2.495e-3
-1.631, 2.522e-3
-1.632, 2.551e-3
-1.633, 2.585e-3
-1.634, 2.621e-3
-1.635, 2.659e-3
-1.636, 2.695e-3
-1.637, 2.727e-3
-1.638, 2.760e-3
-1.639, 2.794e-3
-1.640, 2.833e-3
-1.641, 2.871e-3
-1.642, 2.905e-3
-1.643, 2.944e-3
-1.644, 2.981e-3
-1.645, 3.014e-3
-1.646, 3.057e-3
-1.647, 3.093e-3
-1.648, 3.134e-3
-1.649, 3.172e-3
-1.650, 3.214e-3
-1.651, 3.259e-3
-1.652, 3.296e-3
-1.653, 3.337e-3
-1.654, 3.380e-3
-1.655, 3.424e-3
-1.656, 3.466e-3
-1.657, 3.509e-3
-1.658, 3.549e-3
-1.659, 3.594e-3
-1.660, 3.639e-3
-1.661, 3.681e-3
-1.662, 3.724e-3
-1.663, 3.767e-3
-1.664, 3.806e-3
-1.665, 3.853e-3
-1.666, 3.899e-3
-1.667, 3.944e-3
-1.668, 3.989e-3
-1.669, 4.035e-3
-1.670, 4.071e-3
-1.671, 4.113e-3
-1.672, 4.156e-3
-1.673, 4.208e-3
-1.674, 4.257e-3
-1.675, 4.313e-3
-1.676, 4.366e-3
-1.677, 4.406e-3
-1.678, 4.445e-3
-1.679, 4.500e-3
-1.680, 4.548e-3
-1.681, 4.570e-3
-1.682, 4.607e-3
-1.683, 4.669e-3
-1.684, 4.721e-3
-1.685, 4.762e-3
-1.686, 4.807e-3
-1.687, 4.859e-3
-1.688, 4.898e-3
-1.689, 4.930e-3
-1.690, 4.976e-3
-1.691, 5.024e-3
-1.692, 5.070e-3
-1.693, 5.126e-3
-1.694, 5.170e-3
-1.695, 5.202e-3
-1.696, 5.247e-3
-1.697, 5.300e-3
-1.698, 5.338e-3
-1.699, 5.383e-3
-1.700, 5.408e-3
-1.699, 5.375e-3
-1.698, 5.335e-3
-1.697, 5.300e-3
-1.696, 5.262e-3
-1.695, 5.203e-3
-1.694, 5.147e-3
-1.693, 5.127e-3
-1.692, 5.109e-3
-1.691, 5.056e-3
-1.690, 5.002e-3
-1.689, 4.954e-3
-1.688, 4.922e-3
-1.687, 4.864e-3
-1.686, 4.800e-3
-1.685, 4.760e-3
-1.684, 4.714e-3
-1.683, 4.665e-3
-1.682, 4.622e-3
-1.681, 4.594e-3
-1.680, 4.555e-3
-1.679, 4.510e-3
-1.678, 4.443e-3
-1.677, 4.411e-3
-1.676, 4.379e-3
-1.675, 4.338e-3
-1.674, 4.295e-3
-1.673, 4.254e-3
-1.672, 4.208e-3
-1.671, 4.147e-3
-1.670, 4.100e-3
-1.669, 4.060e-3
-1.668, 4.021e-3
-1.667, 3.977e-3
-1.666, 3.932e-3
-1.665, 3.902e-3
-1.664, 3.857e-3
-1.663, 3.813e-3
-1.662, 3.767e-3
-1.661, 3.731e-3
-1.660, 3.701e-3
-1.659, 3.660e-3
-1.658, 3.646e-3
-1.657, 3.599e-3
-1.656, 3.562e-3
-1.655, 3.518e-3
-1.654, 3.479e-3
-1.653, 3.435e-3
-1.652, 3.412e-3
-1.651, 3.386e-3
-1.650, 3.354e-3
-1.649, 3.319e-3
-1.648, 3.302e-3
-1.647, 3.257e-3
-1.646, 3.209e-3
-1.645, 3.176e-3
-1.644, 3.133e-3
-1.643, 3.098e-3
-1.642, 3.053e-3
-1.641, 3.011e-3
-1.640, 2.984e-3
-1.639, 2.953e-3
-1.638, 2.922e-3
-1.637, 2.888e-3
-1.636, 2.856e-3
-1.635, 2.834e-3
-1.634, 2.801e-3
-1.633, 2.739e-3
-1.632, 2.694e-3
-1.631, 2.676e-3
-1.630, 2.658e-3
-1.629, 2.615e-3
-1.628, 2.573e-3
-1.627, 2.545e-3
-1.626, 2.520e-3
-1.625, 2.493e-3
-1.624, 2.457e-3
-1.623, 2.421e-3
-1.622, 2.388e-3
-1.621, 2.362e-3
-1.620, 2.331e-3
-1.619, 2.298e-3
-1.618, 2.273e-3
-1.617, 2.248e-3
-1.616, 2.219e-3
-1.615, 2.189e-3
-1.614, 2.162e-3
-1.613, 2.131e-3
-1.612, 2.106e-3
-1.611, 2.082e-3
-1.610, 2.063e-3
-1.609, 2.036e-3
-1.608, 2.006e-3
-1.607, 1.977e-3
-1.606, 1.956e-3
-1.605, 1.924e-3
-1.604, 1.904e-3
-1.603, 1.890e-3
-1.602, 1.864e-3
-1.601, 1.829e-3
-1.600, 1.803e-3
-1.599, 1.777e-3
-1.598, 1.751e-3
-1.597, 1.725e-3
-1.596, 1.702e-3
-1.595, 1.679e-3
-1.594, 1.657e-3
-1.593, 1.635e-3
-1.592, 1.616e-3
-1.591, 1.588e-3
-1.590, 1.566e-3
-1.589, 1.541e-3
-1.588, 1.519e-3
-1.587, 1.498e-3
-1.586, 1.478e-3
-1.585, 1.456e-3
-1.584, 1.436e-3
-1.583, 1.417e-3
-1.582, 1.395e-3
-1.581, 1.374e-3
-1.580, 1.353e-3
-1.579, 1.336e-3
-1.578, 1.317e-3
-1.577, 1.298e-3
-1.576, 1.278e-3
-1.575, 1.259e-3
-1.574, 1.239e-3
-1.573, 1.223e-3
-1.572, 1.206e-3
-1.571, 1.189e-3
-1.570, 1.173e-3
-1.569, 1.155e-3
-1.568, 1.139e-3
-1.567, 1.121e-3
-1.566, 1.104e-3
-1.565, 1.087e-3
-1.564, 1.071e-3
-1.563, 1.055e-3
-1.562, 1.040e-3
-1.561, 1.024e-3
-1.560, 1.010e-3
-1.559, 9.935e-4
-1.558, 9.772e-4
-1.557, 9.603e-4
-1.556, 9.469e-4
-1.555, 9.359e-4
-1.554, 9.196e-4
-1.553, 9.039e-4
-1.552, 8.912e-4
-1.551, 8.772e-4
-1.550, 8.625e-4
-1.549, 8.489e-4
-1.548, 8.360e-4
-1.547, 8.226e-4
-1.546, 8.103e-4
-1.545, 7.975e-4
-1.544, 7.849e-4
-1.543, 7.719e-4
-1.542, 7.599e-4
-1.541, 7.483e-4
-1.540, 7.377e-4
-1.539, 7.264e-4
-1.538, 7.141e-4
-1.537, 7.019e-4
-1.536, 6.910e-4
-1.535, 6.796e-4
-1.534, 6.699e-4
-1.533, 6.628e-4
-1.532, 6.538e-4
-1.531, 6.399e-4
-1.530, 6.324e-4
-1.529, 6.262e-4
-1.528, 6.145e-4
-1.527, 6.035e-4
-1.526, 5.927e-4
-1.525, 5.826e-4
-1.524, 5.747e-4
-1.523, 5.669e-4
-1.522, 5.583e-4
-1.521, 5.482e-4
-1.520, 5.372e-4
-1.519, 5.343e-4
-1.518, 5.234e-4
-1.517, 5.146e-4
-1.516, 5.050e-4
-1.515, 4.967e-4
-1.514, 4.890e-4
-1.513, 4.810e-4
-1.512, 4.728e-4
-1.511, 4.649e-4
-1.510, 4.572e-4
-1.509, 4.487e-4
-1.508, 4.413e-4
-1.507, 4.337e-4
-1.506, 4.261e-4
-1.505, 4.194e-4
-1.504, 4.126e-4
-1.503, 4.057e-4
-1.502, 3.990e-4
-1.501, 3.923e-4
-1.500, 3.860e-4
-1.499, 3.796e-4
-1.498, 3.729e-4
-1.497, 3.665e-4
-1.496, 3.606e-4
-1.495, 3.546e-4
-1.494, 3.486e-4
-1.493, 3.426e-4
-1.492, 3.366e-4
-1.491, 3.311e-4
-1.490, 3.255e-4
-1.489, 3.193e-4
-1.488, 3.141e-4
-1.487, 3.091e-4
-1.486, 3.036e-4
-1.485, 2.983e-4
-1.484, 2.927e-4
-1.483, 2.875e-4
-1.482, 2.828e-4
-1.481, 2.777e-4
-1.480, 2.728e-4
-1.479, 2.679e-4
-1.478, 2.632e-4
-1.477, 2.588e-4
-1.476, 2.542e-4
-1.475, 2.497e-4
-1.474, 2.452e-4
-1.473, 2.411e-4
-1.472, 2.369e-4
-1.471, 2.326e-4
-1.470, 2.284e-4
-1.469, 2.241e-4
-1.468, 2.202e-4
-1.467, 2.167e-4
-1.466, 2.126e-4
-1.465, 2.089e-4
-1.464, 2.051e-4
-1.463, 2.015e-4
-1.462, 1.981e-4
-1.461, 1.945e-4
-1.460, 1.908e-4
-1.459, 1.873e-4
-1.458, 1.839e-4
-1.457, 1.808e-4
-1.456, 1.774e-4
-1.455, 1.743e-4
-1.454, 1.708e-4
-1.453, 1.679e-4
-1.452, 1.648e-4
-1.451, 1.619e-4
-1.450, 1.590e-4
-1.449, 1.556e-4
-1.448, 1.529e-4
-1.447, 1.503e-4
-1.446, 1.475e-4
-1.445, 1.450e-4
-1.444, 1.421e-4
-1.443, 1.394e-4
-1.442, 1.369e-4
-1.441, 1.344e-4
-1.440, 1.319e-4
-1.439, 1.293e-4
-1.438, 1.270e-4
-1.437, 1.248e-4
-1.436, 1.224e-4
-1.435, 1.201e-4
-1.434, 1.177e-4
-1.433, 1.155e-4
-1.432, 1.134e-4
-1.431, 1.113e-4
-1.430, 1.092e-4
-1.429, 1.070e-4
-1.428, 1.051e-4
-1.427, 1.033e-4
-1.426, 1.012e-4
-1.425, 9.942e-5
-1.424, 9.741e-5
-1.423, 9.551e-5
-1.422, 9.387e-5
-1.421, 9.195e-5
-1.420, 9.021e-5
-1.419, 8.849e-5
-1.418, 8.670e-5
-1.417, 8.517e-5
-1.416, 8.357e-5
-1.415, 8.208e-5
-1.414, 8.032e-5
-1.413, 7.871e-5
-1.412, 7.734e-5
-1.411, 7.572e-5
-1.410, 7.433e-5
-1.409, 7.272e-5
-1.408, 7.129e-5
-1.407, 7.014e-5
-1.406, 6.858e-5
-1.405, 6.730e-5
-1.404, 6.590e-5
-1.403, 6.454e-5
-1.402, 6.354e-5
-1.401, 6.218e-5
-1.400, 6.107e-5
-1.399, 5.964e-5
-1.398, 5.847e-5
-1.397, 5.764e-5
-1.396, 5.652e-5
-1.395, 5.517e-5
-1.394, 5.400e-5
-1.393, 5.291e-5
-1.392, 5.209e-5
-1.391, 5.093e-5
-1.390, 4.990e-5
-1.389, 4.881e-5
-1.388, 4.773e-5
-1.387, 4.696e-5
-1.386, 4.606e-5
-1.385, 4.500e-5
-1.384, 4.395e-5
-1.383, 4.310e-5
-1.382, 4.228e-5
-1.381, 4.133e-5
-1.380, 4.055e-5
-1.379, 3.949e-5
-1.378, 3.872e-5
-1.377, 3.810e-5
-1.376, 3.722e-5
-1.375, 3.644e-5
-1.374, 3.559e-5
-1.373, 3.480e-5
-1.372, 3.414e-5
-1.371, 3.335e-5
-1.370, 3.256e-5
-1.369, 3.185e-5
-1.368, 3.120e-5
-1.367, 3.066e-5
-1.366, 2.985e-5
-1.365, 2.934e-5
-1.364, 2.850e-5
-1.363, 2.789e-5
-1.362, 2.755e-5
-1.361, 2.681e-5
-1.360, 2.623e-5
-1.359, 2.562e-5
-1.358, 2.498e-5
-1.357, 2.463e-5
-1.356, 2.393e-5
-1.355, 2.343e-5
-1.354, 2.281e-5
-1.353, 2.230e-5
-1.352, 2.197e-5
-1.351, 2.141e-5
-1.350, 2.085e-5
-1.349, 2.027e-5
-1.348, 1.982e-5
-1.347, 1.951e-5
-1.346, 1.905e-5
-1.345, 1.858e-5
-1.344, 1.789e-5
-1.343, 1.756e-5
-1.342, 1.737e-5
-1.341, 1.679e-5
-1.340, 1.644e-5
-1.339, 1.582e-5
-1.338, 1.545e-5
-1.337, 1.526e-5
-1.336, 1.477e-5
-1.335, 1.444e-5
-1.334, 1.388e-5
-1.333, 1.360e-5
-1.332, 1.335e-5
-1.331, 1.282e-5
-1.330, 1.256e-5
-1.329, 1.212e-5
-1.328, 1.180e-5
-1.327, 1.169e-5
-1.326, 1.117e-5
-1.325, 1.098e-5
-1.324, 1.052e-5
-1.323, 1.020e-5
-1.322, 1.013e-5
-1.321, 9.696e-6
-1.320, 9.499e-6
-1.319, 8.986e-6
-1.318, 8.739e-6
-1.317, 8.631e-6
-1.316, 8.295e-6
-1.315, 8.019e-6
-1.314, 7.723e-6
-1.313, 7.476e-6
-1.312, 7.407e-6
-1.311, 7.072e-6
-1.310, 6.855e-6
-1.309, 6.549e-6
-1.308, 6.322e-6
-1.307, 6.243e-6
-1.306, 5.967e-6
-1.305, 5.829e-6
-1.304, 5.375e-6
-1.303, 5.168e-6
-1.302, 5.207e-6
-1.301, 4.882e-6
-1.300, 4.753e-6
-1.299, 4.300e-6
-1.298, 4.171e-6
-1.297, 4.260e-6
-1.296, 4.004e-6
-1.295, 3.826e-6
-1.294, 3.412e-6
-1.293, 3.224e-6
-1.292, 3.352e-6
-1.291, 3.126e-6
-1.290, 2.918e-6
-1.289, 2.613e-6
-1.288, 2.494e-6
-1.287, 2.652e-6
-1.286, 2.218e-6
-1.285, 2.178e-6
-1.284, 1.863e-6
-1.283, 1.715e-6
-1.282, 1.843e-6
-1.281, 1.547e-6
-1.280, 1.310e-6
-1.279, 1.113e-6
-1.278, 1.014e-6
-1.277, 1.202e-6
-1.276, 8.662e-7
-1.275, 7.281e-7
-1.274, 4.420e-7
-1.273, 3.631e-7
-1.272, 4.913e-7
-1.271, 2.348e-7
-1.270, 1.460e-7
-1.269, 7.893e-9
-1.268, -1.598e-7
-1.267, -1.302e-7
-1.266, -3.670e-7
-1.265, -3.374e-7
-1.264, -6.827e-7
-1.263, -7.518e-7
-1.262, -5.742e-7
-1.261, -8.307e-7
-1.260, -8.899e-7
-1.259, -1.087e-6
-1.258, -1.166e-6
-1.257, -1.097e-6
-1.256, -1.206e-6
-1.255, -1.334e-6
-1.254, -1.571e-6
-1.253, -1.620e-6
-1.252, -1.442e-6
-1.251, -1.699e-6
-1.250, -1.669e-6
-1.249, -1.916e-6
-1.248, -2.005e-6
-1.247, -1.729e-6
-1.246, -2.123e-6
-1.245, -2.074e-6
-1.244, -2.222e-6
-1.243, -2.340e-6
-1.242, -2.192e-6
-1.241, -2.439e-6
-1.240, -2.360e-6
-1.239, -2.666e-6
-1.238, -2.814e-6
-1.237, -2.557e-6
-1.236, -2.755e-6
-1.235, -2.735e-6
-1.234, -2.922e-6
-1.233, -3.031e-6
-1.232, -2.883e-6
-1.231, -2.981e-6
-1.230, -3.011e-6
-1.229, -3.356e-6
-1.228, -3.386e-6
-1.227, -3.179e-6
-1.226, -3.396e-6
-1.225, -3.445e-6
-1.224, -3.613e-6
-1.223, -3.643e-6
-1.222, -3.435e-6
-1.221, -3.554e-6
-1.220, -3.583e-6
-1.219, -3.840e-6
-1.218, -3.761e-6
-1.217, -3.702e-6
-1.216, -3.840e-6
-1.215, -3.879e-6
-1.214, -3.988e-6
-1.213, -4.136e-6
-1.212, -3.958e-6
-1.211, -4.106e-6
-1.210, -4.106e-6
-1.209, -4.195e-6
-1.208, -4.254e-6
-1.207, -4.106e-6
-1.206, -4.284e-6
-1.205, -4.274e-6
-1.204, -4.432e-6
-1.203, -4.511e-6
-1.202, -4.402e-6
-1.201, -4.570e-6
-1.200, -4.461e-6
-1.199, -4.600e-6
-1.198, -4.718e-6
-1.197, -4.481e-6
-1.196, -4.728e-6
-1.195, -4.708e-6
-1.194, -4.856e-6
-1.193, -4.886e-6
-1.192, -4.669e-6
-1.191, -4.856e-6
-1.190, -4.925e-6
-1.189, -5.014e-6
-1.188, -5.142e-6
-1.187, -4.915e-6
-1.186, -5.063e-6
-1.185, -5.004e-6
-1.184, -5.182e-6
-1.183, -5.399e-6
-1.182, -5.043e-6
-1.181, -5.241e-6
-1.180, -5.172e-6
-1.179, -5.359e-6
-1.178, -5.497e-6
-1.177, -5.359e-6
-1.176, -5.576e-6
-1.175, -5.428e-6
-1.174, -5.626e-6
-1.173, -5.616e-6
-1.172, -5.478e-6
-1.171, -5.665e-6
-1.170, -5.557e-6
-1.169, -5.714e-6
-1.168, -5.803e-6
-1.167, -5.616e-6
-1.166, -5.852e-6
-1.165, -5.882e-6
-1.164, -5.981e-6
-1.163, -6.089e-6
-1.162, -5.823e-6
-1.161, -6.000e-6
-1.160, -6.050e-6
-1.159, -6.218e-6
-1.158, -6.188e-6
-1.157, -6.079e-6
-1.156, -6.178e-6
-1.155, -6.188e-6
-1.154, -6.405e-6
-1.153, -6.316e-6
-1.152, -6.296e-6
-1.151, -6.484e-6
-1.150, -6.405e-6
-1.149, -6.681e-6
-1.148, -6.573e-6
-1.147, -6.454e-6
-1.146, -6.632e-6
-1.145, -6.661e-6
-1.144, -6.800e-6
-1.143, -6.829e-6
-1.142, -6.642e-6
-1.141, -6.819e-6
-1.140, -6.849e-6
-1.139, -7.125e-6
-1.138, -7.046e-6
-1.137, -6.908e-6
-1.136, -7.105e-6
-1.135, -7.046e-6
-1.134, -7.293e-6
-1.133, -7.323e-6
-1.132, -7.096e-6
-1.131, -7.342e-6
-1.130, -7.313e-6
-1.129, -7.510e-6
-1.128, -7.490e-6
-1.127, -7.372e-6
-1.126, -7.520e-6
-1.125, -7.628e-6
-1.124, -7.796e-6
-1.123, -7.816e-6
-1.122, -7.618e-6
-1.121, -7.826e-6
-1.120, -7.895e-6
-1.119, -8.062e-6
-1.118, -8.161e-6
-1.117, -7.993e-6
-1.116, -8.023e-6
-1.115, -8.122e-6
-1.114, -8.280e-6
-1.113, -8.388e-6
-1.112, -8.092e-6
-1.111, -8.398e-6
-1.110, -8.378e-6
-1.109, -8.536e-6
-1.108, -8.566e-6
-1.107, -8.388e-6
-1.106, -8.645e-6
-1.105, -8.684e-6
-1.104, -8.812e-6
-1.103, -8.891e-6
-1.102, -8.753e-6
-1.101, -8.941e-6
-1.100, -9.019e-6
-1.099, -9.148e-6
-1.098, -9.079e-6
-1.097, -9.108e-6
-1.096, -9.306e-6
-1.095, -9.266e-6
-1.094, -9.523e-6
-1.093, -9.523e-6
-1.092, -9.365e-6
-1.091, -9.552e-6
-1.090, -9.582e-6
-1.089, -9.809e-6
-1.088, -9.848e-6
-1.087, -9.641e-6
-1.086, -9.927e-6
-1.085, -9.907e-6
-1.084, -1.004e-5
-1.083, -1.021e-5
-1.082, -1.001e-5
-1.081, -1.025e-5
-1.080, -1.033e-5
-1.079, -1.045e-5
-1.078, -1.053e-5
-1.077, -1.038e-5
-1.076, -1.054e-5
-1.075, -1.077e-5
-1.074, -1.090e-5
-1.073, -1.096e-5
-1.072, -1.074e-5
-1.071, -1.107e-5
-1.070, -1.108e-5
-1.069, -1.118e-5
-1.068, -1.133e-5
-1.067, -1.128e-5
-1.066, -1.142e-5
-1.065, -1.154e-5
-1.064, -1.163e-5
-1.063, -1.171e-5
-1.062, -1.179e-5
-1.061, -1.190e-5
-1.060, -1.199e-5
-1.059, -1.220e-5
-1.058, -1.227e-5
-1.057, -1.227e-5
-1.056, -1.238e-5
-1.055, -1.249e-5
-1.054, -1.263e-5
-1.053, -1.274e-5
-1.052, -1.264e-5
-1.051, -1.301e-5
-1.050, -1.309e-5
-1.049, -1.325e-5
-1.048, -1.337e-5
-1.047, -1.337e-5
-1.046, -1.356e-5
-1.045, -1.376e-5
-1.044, -1.379e-5
-1.043, -1.392e-5
-1.042, -1.402e-5
-1.041, -1.416e-5
-1.040, -1.426e-5
-1.039, -1.450e-5
-1.038, -1.455e-5
-1.037, -1.455e-5
-1.036, -1.480e-5
-1.035, -1.514e-5
-1.034, -1.524e-5
-1.033, -1.534e-5
-1.032, -1.535e-5
-1.031, -1.564e-5
-1.030, -1.584e-5
-1.029, -1.601e-5
-1.028, -1.620e-5
-1.027, -1.624e-5
-1.026, -1.643e-5
-1.025, -1.670e-5
-1.024, -1.694e-5
-1.023, -1.711e-5
-1.022, -1.724e-5
-1.021, -1.733e-5
-1.020, -1.760e-5
-1.019, -1.779e-5
-1.018, -1.801e-5
-1.017, -1.826e-5
-1.016, -1.828e-5
-1.015, -1.860e-5
-1.014, -1.889e-5
-1.013, -1.906e-5
-1.012, -1.915e-5
-1.011, -1.943e-5
-1.010, -1.965e-5
-1.009, -1.992e-5
-1.008, -2.025e-5
-1.007, -2.041e-5
-1.006, -2.046e-5
-1.005, -2.089e-5
-1.004, -2.109e-5
-1.003, -2.142e-5
-1.002, -2.150e-5
-1.001, -2.172e-5
