Potential V vs RHE, Current mA cm-2
0.05339999999999995,-0.0383103820003452
0.05239999999999995,-0.03949873949223183
0.051399999999999946,-0.04003632978618053
0.050399999999999945,-0.04043244895014275
0.049399999999999944,-0.04082856811410496
0.04839999999999994,-0.04122468727806717
0.04739999999999994,-0.041620806442029375
0.04639999999999994,-0.041988631379994285
0.04539999999999994,-0.04237060343095785
0.04439999999999994,-0.04275257548192141
0.04339999999999994,-0.043120400419886316
0.04239999999999994,-0.043502372470849884
0.04139999999999994,-0.04389849163481209
0.040399999999999936,-0.04425216945977835
0.039399999999999935,-0.044662435736739205
0.038399999999999934,-0.045072702013700075
0.03739999999999993,-0.04541223272566768
0.03639999999999993,-0.04578005766363259
0.03539999999999993,-0.046147882601597495
0.03439999999999993,-0.046515707539562405
0.03339999999999993,-0.04691182670352462
0.03239999999999993,-0.04730794586748682
0.03139999999999993,-0.04770406503144904
0.030399999999999927,-0.048086037082412596
0.029399999999999926,-0.04846800913337616
0.028399999999999925,-0.04887827541033701
0.027399999999999924,-0.04923195323530328
0.026399999999999924,-0.04964221951226414
0.025399999999999923,-0.05003833867622635
0.024399999999999922,-0.05040616361419126
0.02339999999999992,-0.05080228277815346
0.02239999999999992,-0.05119840194211568
0.02139999999999992,-0.05159452110607789
0.020399999999999918,-0.0519906402700401
0.019399999999999917,-0.052386759434002304
0.018399999999999916,-0.052782878597964523
0.017399999999999916,-0.05317899776192673
0.016399999999999915,-0.053575116925888934
0.015399999999999914,-0.05398538320284981
0.014399999999999913,-0.05438150236681201
0.013399999999999912,-0.054820062869770175
0.012399999999999911,-0.055202034920733736
0.01139999999999991,-0.05558400697169729
0.01039999999999991,-0.05598012613565951
0.009399999999999908,-0.05639039241262036
0.008399999999999908,-0.05678651157658257
0.007399999999999907,-0.057196777853543435
0.006399999999999906,-0.05759289701750564
0.005399999999999905,-0.057974869068469215
0.004399999999999904,-0.05838513534543006
0.003399999999999903,-0.05878125450939227
0.002399999999999902,-0.05917737367335448
0.0013999999999999013,-0.059573492837316694
0.00039999999999990044,-0.059955464888280255
-0.0006000000000001005,-0.06035158405224247
-0.0016000000000001013,-0.060775997442201975
-0.0026000000000001022,-0.06117211660616418
-0.003600000000000103,-0.06158238288312505
-0.004600000000000104,-0.06196435493408861
-0.005600000000000105,-0.06238876832404811
-0.006600000000000106,-0.06279903460100898
-0.007600000000000107,-0.06319515376497119
-0.008600000000000108,-0.0636195671549307
-0.009600000000000108,-0.06402983343189157
-0.01060000000000011,-0.06442595259585376
-0.01160000000000011,-0.06486451309881193
-0.012600000000000111,-0.06527477937577279
-0.013600000000000112,-0.06568504565273366
-0.014600000000000113,-0.06608116481669586
-0.015600000000000114,-0.06646313686765942
-0.016600000000000115,-0.06688755025761894
-0.017600000000000116,-0.06728366942158114
-0.018600000000000116,-0.06767978858554335
-0.019600000000000117,-0.06807590774950557
-0.020600000000000118,-0.06847202691346778
-0.02160000000000012,-0.06886814607742998
-0.02260000000000012,-0.06925011812839355
-0.02360000000000012,-0.06961794306635845
-0.024600000000000122,-0.07004235645631796
-0.025600000000000123,-0.07043847562028017
-0.026600000000000124,-0.07083459478424238
-0.027600000000000124,-0.0712307139482046
-0.028600000000000125,-0.07161268599916816
-0.029600000000000126,-0.07200880516313038
-0.030600000000000127,-0.07237663010109527
-0.03160000000000013,-0.0727727492650575
-0.03260000000000013,-0.07314057420302239
-0.03360000000000013,-0.07352254625398597
-0.03460000000000002,-0.07390451830494953
-0.03560000000000002,-0.07427234324291442
-0.03660000000000002,-0.07466846240687663
-0.03760000000000002,-0.07503628734484155
-0.03860000000000002,-0.07543240650880376
-0.039600000000000024,-0.07577193722077137
-0.040600000000000025,-0.07615390927173492
-0.041600000000000026,-0.07649343998370253
-0.04260000000000003,-0.07683297069567015
-0.04360000000000003,-0.0772149427466337
-0.04460000000000003,-0.07756862057159995
-0.04560000000000003,-0.07790815128356757
-0.04660000000000003,-0.07826182910853383
-0.04760000000000003,-0.0786155069335001
-0.04860000000000003,-0.078983331871465
-0.04960000000000003,-0.0793228625834326
-0.050600000000000034,-0.07964824618240157
-0.051600000000000035,-0.07997362978137053
-0.052600000000000036,-0.08029901338033948
-0.053600000000000037,-0.08063854409230709
-0.05460000000000004,-0.08096392769127606
-0.05560000000000004,-0.08128931129024501
-0.05660000000000004,-0.08161469488921397
-0.05760000000000004,-0.08192593137518428
-0.05860000000000004,-0.08223716786115459
-0.05960000000000004,-0.08256255146012353
-0.06060000000000004,-0.0828313466070979
-0.061600000000000044,-0.08312843598006955
-0.06260000000000004,-0.08341137824004256
-0.06360000000000005,-0.08368017338701693
-0.06460000000000005,-0.08394896853399128
-0.06560000000000005,-0.08420361656796697
-0.06660000000000005,-0.08447241171494134
-0.06760000000000005,-0.08475535397491435
-0.06860000000000005,-0.08503829623488735
-0.06960000000000005,-0.08529294426886307
-0.07060000000000005,-0.08556173941583743
-0.07160000000000005,-0.08581638744981313
-0.07260000000000005,-0.08607103548378882
-0.07360000000000005,-0.08632568351776454
-0.07460000000000006,-0.08655203732574294
-0.07560000000000006,-0.08677839113372135
-0.07660000000000006,-0.0870188920546984
-0.07760000000000006,-0.08721695163667952
-0.07860000000000006,-0.0874433054446579
-0.07960000000000006,-0.08762721791364038
-0.08060000000000006,-0.08783942460862013
-0.08160000000000006,-0.08805163130359987
-0.08260000000000006,-0.08823554377258234
-0.08360000000000006,-0.08843360335456343
-0.08460000000000006,-0.08860336871054725
-0.08560000000000006,-0.08880142829252836
-0.08660000000000007,-0.08898534076151081
-0.08760000000000007,-0.08915510611749461
-0.08860000000000007,-0.08933901858647707
-0.08960000000000007,-0.08950878394246087
-0.09060000000000007,-0.08967854929844467
-0.09160000000000007,-0.08984831465442847
-0.09260000000000007,-0.08996149155841768
-0.09360000000000007,-0.09013125691440148
-0.09460000000000007,-0.09027272804438799
-0.09560000000000007,-0.09038590494837719
-0.09660000000000007,-0.09052737607836371
-0.09760000000000008,-0.09065470009535155
-0.09860000000000008,-0.0907820241123394
-0.09960000000000008,-0.09089520101632861
-0.10060000000000008,-0.09099423080731917
-0.10160000000000008,-0.091121554824307
-0.10260000000000008,-0.09122058461529756
-0.10360000000000008,-0.09131961440628812
-0.10460000000000008,-0.09141864419727867
-0.10560000000000008,-0.09148937976227192
-0.10660000000000008,-0.09156011532726518
-0.10760000000000008,-0.09164499800525706
-0.10860000000000009,-0.09172988068324898
-0.10960000000000009,-0.09178646913524359
-0.11060000000000009,-0.09184305758723818
-0.11160000000000009,-0.09189964603923279
-0.11260000000000009,-0.09195623449122738
-0.11360000000000009,-0.09202697005622064
-0.11460000000000009,-0.09206941139521659
-0.11560000000000009,-0.09214014696020983
-0.11660000000000009,-0.09214014696020983
-0.1176000000000001,-0.09219673541220444
-0.1186000000000001,-0.09221088252520308
-0.1196000000000001,-0.09221088252520308
-0.1206000000000001,-0.09225332386419903
-0.1216000000000001,-0.09225332386419903
-0.1226000000000001,-0.09228161809019635
-0.1236000000000001,-0.09228161809019635
-0.1246000000000001,-0.09228161809019635
-0.1256000000000001,-0.09228161809019635
-0.1266000000000001,-0.09228161809019635
-0.1276000000000001,-0.0922674709771977
-0.1286000000000001,-0.0922674709771977
-0.1296000000000001,-0.09222502963820174
-0.1306000000000001,-0.09222502963820174
-0.1316000000000001,-0.09221088252520308
-0.1326000000000001,-0.09216844118620715
-0.1336000000000001,-0.09215429407320849
-0.1346000000000001,-0.09211185273421253
-0.1356000000000001,-0.09208355850821524
-0.1366000000000001,-0.09205526428221794
-0.1376000000000001,-0.092012822943222
-0.1386000000000001,-0.09197038160422603
-0.1396000000000001,-0.09191379315223143
-0.1406000000000001,-0.09188549892623413
-0.14160000000000011,-0.09182891047423952
-0.14260000000000012,-0.09177232202224493
-0.14360000000000012,-0.09171573357025031
-0.14460000000000012,-0.09165914511825574
-0.14560000000000012,-0.09160255666626112
-0.14660000000000012,-0.09154596821426653
-0.14760000000000012,-0.09146108553627462
-0.14860000000000012,-0.09140449708428001
-0.14960000000000012,-0.09131961440628812
-0.15060000000000012,-0.0912630259542935
-0.15160000000000012,-0.09119229038930025
-0.15260000000000012,-0.091121554824307
-0.15360000000000013,-0.09106496637231241
-0.15460000000000013,-0.0909517894683232
-0.15560000000000013,-0.09089520101632861
-0.15660000000000013,-0.0907820241123394
-0.15760000000000013,-0.09071128854734616
-0.15860000000000013,-0.0906405529823529
-0.15960000000000002,-0.09052737607836371
-0.16060000000000002,-0.09044249340037179
-0.16160000000000002,-0.09034346360938124
-0.16260000000000002,-0.09025858093138935
-0.16360000000000002,-0.09018784536639608
-0.16460000000000002,-0.09007466846240689
-0.16560000000000002,-0.09001808001041228
-0.16660000000000003,-0.08994734444541903
-0.16760000000000003,-0.08980587331543252
-0.16860000000000003,-0.08972099063744063
-0.16960000000000003,-0.08960781373345142
-0.17060000000000003,-0.08950878394246087
-0.17160000000000003,-0.08942390126446896
-0.17260000000000003,-0.08931072436047977
-0.17360000000000003,-0.08923998879548652
-0.17460000000000003,-0.0890985176655
-0.17560000000000003,-0.08899948787450947
-0.17660000000000003,-0.08888631097052026
-0.17760000000000004,-0.08877313406653106
-0.17860000000000004,-0.08868825138853914
-0.17960000000000004,-0.0885892215975486
-0.18060000000000004,-0.08847604469355938
-0.18160000000000004,-0.08837701490256884
-0.18260000000000004,-0.08826383799857963
-0.18360000000000004,-0.08817895532058774
-0.18460000000000004,-0.08806577841659853
-0.18560000000000004,-0.08795260151260934
-0.18660000000000004,-0.08786771883461743
-0.18760000000000004,-0.08776868904362688
-0.18860000000000005,-0.08765551213963767
-0.18960000000000005,-0.08752818812264983
-0.19060000000000005,-0.0874433054446579
-0.19160000000000005,-0.08735842276666603
-0.19260000000000005,-0.0872735400886741
-0.19360000000000005,-0.08714621607168627
-0.19460000000000005,-0.08704718628069572
-0.19560000000000005,-0.08694815648970515
-0.19660000000000005,-0.08683497958571595
-0.19760000000000005,-0.08675009690772406
-0.19860000000000005,-0.0866510671167335
-0.19960000000000006,-0.08652374309974564
-0.20060000000000006,-0.08642471330875509
-0.20160000000000006,-0.08632568351776454
-0.20260000000000006,-0.08619835950077669
-0.20360000000000006,-0.08612762393578344
-0.20460000000000006,-0.08600029991879557
-0.20560000000000006,-0.08590127012780503
-0.20660000000000006,-0.08580224033681448
-0.20760000000000006,-0.08570321054582393
-0.20860000000000006,-0.08559003364183472
-0.20960000000000006,-0.08547685673784551
-0.21060000000000006,-0.08537782694685496
-0.21160000000000007,-0.08529294426886307
-0.21260000000000007,-0.08517976736487386
-0.21360000000000007,-0.08509488468688196
-0.21460000000000007,-0.08498170778289275
-0.21560000000000007,-0.0848826779919022
-0.21660000000000007,-0.0847977953139103
-0.21760000000000007,-0.08472705974891705
-0.21860000000000007,-0.08462802995792648
-0.21960000000000007,-0.08450070594093864
-0.22060000000000007,-0.08441582326294673
-0.22160000000000007,-0.08431679347195618
-0.22260000000000008,-0.08423191079396428
-0.22360000000000008,-0.08416117522897103
-0.22460000000000008,-0.08404799832498183
-0.22560000000000008,-0.08397726275998857
-0.22660000000000008,-0.08386408585599937
-0.22760000000000008,-0.08377920317800747
-0.22860000000000008,-0.08369432050001557
-0.22960000000000008,-0.08362358493502231
-0.23060000000000008,-0.08356699648302772
-0.23160000000000008,-0.08346796669203715
-0.23260000000000008,-0.08338308401404526
-0.23360000000000009,-0.0832840542230547
-0.2346000000000001,-0.08319917154506282
-0.2356000000000001,-0.0831425830930682
-0.2366000000000001,-0.0830577004150763
-0.2376000000000001,-0.0829728177370844
-0.2386000000000001,-0.08290208217209115
-0.2396000000000001,-0.0828030523811006
-0.2406000000000001,-0.08273231681610735
-0.2416000000000001,-0.08263328702511678
-0.2426000000000001,-0.08259084568612084
-0.2436000000000001,-0.08250596300812894
-0.2446000000000001,-0.08240693321713838
-0.2456000000000001,-0.08233619765214513
-0.2466000000000001,-0.08225131497415322
-0.2476000000000001,-0.08216643229616134
-0.2486000000000001,-0.08210984384416672
-0.2496000000000001,-0.08201081405317617
-0.2506000000000001,-0.08196837271418023
-0.2516000000000001,-0.08188349003618833
-0.2526000000000001,-0.08179860735819641
-0.2536000000000001,-0.08172787179320316
-0.2546000000000001,-0.08162884200221261
-0.2556000000000001,-0.08158640066321667
-0.2566000000000001,-0.08151566509822342
-0.2576000000000001,-0.08144492953323015
-0.2586000000000001,-0.08138834108123556
-0.2596000000000001,-0.08128931129024501
-0.2606000000000001,-0.08121857572525175
-0.2616000000000001,-0.08116198727325716
-0.2626000000000001,-0.0811195459342612
-0.2636000000000001,-0.08102051614327066
-0.2646000000000001,-0.08096392769127606
-0.2656000000000001,-0.0808931921262828
-0.2666000000000001,-0.08082245656128956
-0.2676000000000001,-0.0807800152222936
-0.2686000000000001,-0.08069513254430169
-0.2696000000000001,-0.08063854409230709
-0.2706000000000001,-0.08059610275331114
-0.2716000000000001,-0.08051122007531925
-0.2726000000000001,-0.08048292584932194
-0.2736000000000001,-0.08039804317133004
-0.2746000000000001,-0.08034145471933543
-0.2756000000000001,-0.08029901338033948
-0.2766000000000001,-0.08024242492834488
-0.2776000000000001,-0.08018583647635028
-0.2786000000000001,-0.08012924802435568
-0.2796000000000001,-0.08005851245936244
-0.2806000000000001,-0.08001607112036647
-0.28160000000000013,-0.07997362978137053
-0.28260000000000013,-0.07991704132937592
-0.28360000000000013,-0.07987459999037998
-0.2846,-0.07980386442538671
-0.2856,-0.07974727597339212
-0.2866,-0.07970483463439616
-0.2876,-0.07966239329540022
-0.2886,-0.07961995195640426
-0.2896,-0.07956336350440966
-0.2906,-0.079549216391411
-0.2916,-0.07949262793941642
-0.2926,-0.07942189237442315
-0.2936,-0.07937945103542722
-0.29460000000000003,-0.07933700969643126
-0.29560000000000003,-0.0792945683574353
-0.29660000000000003,-0.07925212701843935
-0.29760000000000003,-0.0792096856794434
-0.29860000000000003,-0.0791813914534461
-0.29960000000000003,-0.07913895011445016
-0.30060000000000003,-0.07909650877545421
-0.30160000000000003,-0.07903992032345959
-0.30260000000000004,-0.07901162609746229
-0.30360000000000004,-0.0789550376454677
-0.30460000000000004,-0.07891259630647175
-0.30560000000000004,-0.07887015496747579
-0.30660000000000004,-0.07884186074147849
-0.30760000000000004,-0.07881356651548119
-0.30860000000000004,-0.0787569780634866
-0.30960000000000004,-0.07871453672449064
-0.31060000000000004,-0.07870038961149198
-0.31160000000000004,-0.07864380115949739
-0.31260000000000004,-0.07862965404649873
-0.31360000000000005,-0.07858721270750278
-0.31460000000000005,-0.07854477136850684
-0.31560000000000005,-0.07853062425550819
-0.31660000000000005,-0.07847403580351359
-0.31760000000000005,-0.07845988869051494
-0.31860000000000005,-0.07840330023852032
-0.31960000000000005,-0.07840330023852032
-0.32060000000000005,-0.07836085889952438
-0.32160000000000005,-0.07831841756052843
-0.32260000000000005,-0.07831841756052843
-0.32360000000000005,-0.07829012333453113
-0.32460000000000006,-0.07823353488253654
-0.32560000000000006,-0.07820524065653922
-0.32660000000000006,-0.07817694643054193
-0.32760000000000006,-0.07814865220454463
-0.32860000000000006,-0.07813450509154597
-0.32960000000000006,-0.07809206375255001
-0.33060000000000006,-0.07804962241355407
-0.33160000000000006,-0.07803547530055543
-0.33260000000000006,-0.07800718107455813
-0.33360000000000006,-0.07799303396155947
-0.33460000000000006,-0.07796473973556219
-0.33560000000000006,-0.07793644550956487
-0.33660000000000007,-0.07790815128356757
-0.33760000000000007,-0.07787985705757026
-0.33860000000000007,-0.07786570994457162
-0.33960000000000007,-0.07783741571857432
-0.34060000000000007,-0.07780912149257702
-0.34160000000000007,-0.07779497437957837
-0.34260000000000007,-0.07779497437957837
-0.34360000000000007,-0.07775253304058242
-0.3446000000000001,-0.07772423881458512
-0.3456000000000001,-0.07771009170158645
-0.3466000000000001,-0.07768179747558916
-0.34759999999999996,-0.07768179747558916
-0.3486000000000001,-0.07765350324959187
-0.34959999999999997,-0.07762520902359457
-0.3506000000000001,-0.07761106191059591
-0.35159999999999997,-0.07758276768459862
-0.3526000000000001,-0.07758276768459862
-0.35359999999999997,-0.07754032634560266
-0.3546000000000001,-0.07754032634560266
-0.35559999999999997,-0.077526179232604
-0.3566000000000001,-0.0774978850066067
-0.3576,-0.0774978850066067
-0.3586000000000001,-0.07746959078060942
-0.3596,-0.0774412965546121
-0.3606000000000001,-0.0774412965546121
-0.3616,-0.07742714944161345
-0.3626000000000001,-0.07739885521561615
-0.3636,-0.07739885521561615
-0.3646000000000001,-0.07737056098961885
-0.3656,-0.0773564138766202
-0.3666000000000001,-0.07734226676362156
-0.3676,-0.07734226676362156
-0.3686000000000001,-0.07731397253762426
-0.3696,-0.0772998254246256
-0.3706000000000001,-0.07731397253762426
-0.3716,-0.0772998254246256
-0.3726000000000001,-0.0772998254246256
-0.3736,-0.07725738408562965
-0.3746000000000001,-0.07725738408562965
-0.3756,-0.07722908985963235
-0.3766000000000001,-0.07724323697263101
-0.3776,-0.07724323697263101
-0.3786000000000001,-0.07722908985963235
-0.3796,-0.0772149427466337
-0.3806000000000001,-0.07720079563363505
-0.3816,-0.07720079563363505
-0.3826000000000001,-0.0771866485206364
-0.3836,-0.07717250140763775
-0.3846000000000001,-0.0771583542946391
-0.3856,-0.0771866485206364
-0.3866000000000001,-0.0771583542946391
-0.3876,-0.0771583542946391
-0.3886000000000001,-0.0771583542946391
-0.3896,-0.07714420718164045
-0.3906000000000001,-0.0771583542946391
-0.3916,-0.07711591295564316
-0.3926000000000001,-0.0771300600686418
-0.3936,-0.07714420718164045
-0.3946000000000001,-0.0771300600686418
-0.3956,-0.0771300600686418
-0.3966000000000001,-0.0771300600686418
-0.3976,-0.07714420718164045
-0.3986000000000001,-0.07711591295564316
-0.3996,-0.0771300600686418
-0.4006000000000001,-0.07714420718164045
-0.4016,-0.0771300600686418
-0.4026000000000001,-0.07714420718164045
-0.4036,-0.07711591295564316
-0.4046000000000001,-0.0771300600686418
-0.4056,-0.07714420718164045
-0.40660000000000013,-0.07714420718164045
-0.4076,-0.0771583542946391
-0.40860000000000013,-0.0771583542946391
-0.4096,-0.0771583542946391
-0.41060000000000013,-0.0771583542946391
-0.4116,-0.07717250140763775
-0.41260000000000013,-0.07717250140763775
-0.4136,-0.0771866485206364
-0.41460000000000014,-0.0771866485206364
-0.4156,-0.07720079563363505
-0.41660000000000014,-0.0772149427466337
-0.4176,-0.07720079563363505
-0.41860000000000014,-0.0772149427466337
-0.41960000000000003,-0.07725738408562965
-0.42060000000000014,-0.07725738408562965
-0.42160000000000003,-0.07727153119862831
-0.42260000000000014,-0.0772998254246256
-0.42360000000000003,-0.07727153119862831
-0.42460000000000014,-0.07728567831162694
-0.42560000000000003,-0.07731397253762426
-0.42660000000000015,-0.0773281196506229
-0.42760000000000004,-0.07734226676362156
-0.42860000000000015,-0.0773564138766202
-0.42960000000000004,-0.0773564138766202
-0.43060000000000015,-0.07737056098961885
-0.43160000000000004,-0.07737056098961885
-0.43260000000000015,-0.07741300232861481
-0.43360000000000004,-0.07741300232861481
-0.43460000000000015,-0.0774412965546121
-0.43560000000000004,-0.07745544366761076
-0.43660000000000015,-0.07745544366761076
