Potential V vs RHE, Current mA cm-2
0.4132999999999999,-0.004354481380984583
0.4122999999999999,-0.006050720229522762
0.4112999999999999,-0.006634995996367021
0.4102999999999999,-0.006919352967639895
0.4092999999999999,-0.00715136562081776
0.4082999999999999,-0.007335278089800216
0.4072999999999999,-0.0074880669101856385
0.4062999999999999,-0.007588511412476056
0.4052999999999999,-0.00770451773906499
0.4042999999999999,-0.007803547530055544
0.4032999999999999,-0.007920968567944341
0.4022999999999999,-0.008003021823336513
0.4012999999999999,-0.00807800152222936
0.4002999999999999,-0.008134589974223961
0.3992999999999999,-0.008239278610413974
0.3982999999999999,-0.00834538195790385
0.3972999999999999,-0.008394896853399128
0.3962999999999999,-0.008438752903694944
0.3952999999999999,-0.008481194242690896
0.3942999999999999,-0.008532123849486036
0.39329999999999987,-0.008633983063076318
0.39229999999999987,-0.00867642440207227
0.39129999999999987,-0.008728768720167276
0.39029999999999987,-0.008781113038262282
0.38929999999999987,-0.008822139665958368
0.38829999999999987,-0.008907022343950272
0.38729999999999987,-0.008940975415147032
0.38629999999999987,-0.008969269641144332
0.38529999999999986,-0.009003222712341092
0.38429999999999986,-0.00903576107223799
0.38329999999999986,-0.009120643750229892
0.38229999999999986,-0.009141864419727867
0.38129999999999986,-0.009167329223125438
0.38029999999999986,-0.009194208737822873
0.37929999999999986,-0.00923806478811869
0.37829999999999986,-0.009321532754810725
0.37729999999999986,-0.009341338713008837
0.37629999999999986,-0.009366803516406407
0.37529999999999986,-0.0094035860102029
0.37429999999999986,-0.009433294947500065
0.37329999999999985,-0.009508274646392912
0.37229999999999985,-0.009553545407988593
0.37129999999999985,-0.009543642428889536
0.37029999999999985,-0.009590327901785083
0.36929999999999985,-0.009641257508580225
0.36829999999999985,-0.009697845960574828
0.36729999999999985,-0.009723310763972396
0.36629999999999985,-0.009743116722170509
0.36529999999999985,-0.009768581525568079
0.36429999999999985,-0.009808193441964298
0.36329999999999985,-0.009871855450458227
0.36229999999999984,-0.009900149676455526
0.36129999999999984,-0.009917126212053907
0.36029999999999984,-0.009942591015451478
0.35929999999999984,-0.009983617643147563
0.35829999999999984,-0.010038791383842298
0.35729999999999984,-0.010072744455039062
0.35629999999999984,-0.010085476856737845
0.35529999999999984,-0.010123674061834204
0.35429999999999984,-0.01016470068953029
0.35329999999999984,-0.010249583367522191
0.35229999999999984,-0.010262315769220976
0.35129999999999983,-0.010279292304819356
0.35029999999999983,-0.01027787759351949
0.34929999999999983,-0.010324563066415037
0.34829999999999983,-0.010375492673210179
0.34729999999999983,-0.010422178146105724
0.34629999999999983,-0.010425007568705454
0.34529999999999983,-0.010444813526903567
0.34429999999999983,-0.010470278330301137
0.3432999999999998,-0.010528281493595602
0.3422999999999998,-0.010533940338795064
0.3412999999999998,-0.01057213754389142
0.3402999999999998,-0.01060326119248845
0.3392999999999998,-0.010607505326388047
0.3382999999999998,-0.010681070313981028
0.3372999999999998,-0.010695217426979679
0.3362999999999998,-0.010719267519077383
0.3352999999999998,-0.01074897645637455
0.3342999999999998,-0.010775855971071984
0.3332999999999998,-0.01081688259876807
0.3322999999999998,-0.01086215336036375
0.3312999999999998,-0.010866397494263347
0.3302999999999998,-0.010896106431560512
0.3292999999999998,-0.010938547770556462
0.3282999999999998,-0.010986647954751875
0.3272999999999998,-0.011005039201650121
0.3262999999999998,-0.01101635689204904
0.3252999999999999,-0.01104182169544661
0.3242999999999999,-0.011080018900542965
0.3232999999999999,-0.011116801394339458
0.3222999999999999,-0.011163486867235005
0.3212999999999999,-0.01117904869153352
0.3202999999999999,-0.011198854649731629
0.3192999999999999,-0.011251198967826637
0.3182999999999999,-0.011303543285921643
0.3172999999999999,-0.011319105110220157
0.3162999999999999,-0.011321934532819888
0.3152999999999999,-0.01133325222321881
0.3142999999999999,-0.011379937696114355
0.3132999999999999,-0.011443599704608282
0.3122999999999999,-0.011460576240206662
0.3112999999999999,-0.011466235085406123
0.3102999999999999,-0.011476138064505176
0.3092999999999999,-0.011528482382600184
0.3082999999999999,-0.01159497381369384
0.3072999999999999,-0.01159780323629357
0.3062999999999999,-0.01161760919449168
0.3052999999999999,-0.011637415152689791
0.3042999999999999,-0.011657221110887902
0.3032999999999999,-0.011752006767978862
0.3022999999999999,-0.011742103788879804
0.3012999999999999,-0.011767568592277376
0.3002999999999999,-0.01177747157137643
0.2992999999999999,-0.011801521663474136
0.2982999999999999,-0.011872257228467388
0.2972999999999999,-0.011897722031864958
0.2962999999999999,-0.011909039722263879
0.2952999999999999,-0.01192884568046199
0.2942999999999999,-0.011933089814361583
0.2932999999999999,-0.012003825379354835
0.2922999999999999,-0.012023631337552947
0.2912999999999999,-0.012025046048852812
0.2902999999999999,-0.012046266718350788
0.2892999999999999,-0.012104269881645254
0.2882999999999999,-0.012152370065840664
0.2872999999999999,-0.012169346601439045
0.2862999999999999,-0.012175005446638505
0.2852999999999999,-0.012189152559637158
0.2842999999999999,-0.012225935053433647
0.2832999999999999,-0.012282523505428248
0.2822999999999999,-0.012323550133124335
0.2812999999999999,-0.01233345311222339
0.2802999999999999,-0.012323550133124335
0.2792999999999999,-0.012381553296418801
0.2782999999999999,-0.012446630016212592
0.2772999999999999,-0.012452288861412052
0.2762999999999999,-0.012474924242209893
0.2752999999999999,-0.012472094819610162
0.2742999999999999,-0.0125272685603049
0.2732999999999999,-0.01257536874450031
0.2722999999999999,-0.012566880476701122
0.2712999999999999,-0.012588101146199097
0.2702999999999999,-0.012609321815697072
0.2692999999999999,-0.012647519020793429
0.26829999999999987,-0.012714010451887085
0.26729999999999987,-0.012699863338888435
0.26629999999999987,-0.012722498719686275
0.26529999999999987,-0.012742304677884385
0.26429999999999987,-0.012801722552478717
0.26329999999999987,-0.012854066870573722
0.26229999999999987,-0.012841334468874938
0.26129999999999987,-0.012854066870573722
0.26029999999999986,-0.012878116962671429
0.25929999999999986,-0.01292055830166738
0.25829999999999986,-0.012994123289260362
0.25729999999999986,-0.013012514536158608
0.25629999999999986,-0.012998367423159957
0.25529999999999986,-0.013015343958758337
0.25429999999999986,-0.013062029431653884
0.25329999999999986,-0.013117203172348619
0.25229999999999986,-0.013121447306248216
0.25129999999999986,-0.013127106151447677
0.25029999999999986,-0.013129935574047406
0.24929999999999986,-0.013192182871241466
0.24829999999999985,-0.01324877132323607
0.24729999999999985,-0.01326008901363499
0.24629999999999985,-0.01326574785883445
0.24529999999999985,-0.013301115641331076
0.24429999999999985,-0.013350630536826351
0.24329999999999985,-0.013398730721021762
0.24229999999999985,-0.013412877834020412
0.24129999999999985,-0.01342278081311947
0.24029999999999985,-0.013421366101819604
0.23929999999999985,-0.013492101666812856
0.23829999999999985,-0.013531713583209077
0.23729999999999984,-0.013560007809206376
0.23629999999999984,-0.013581228478704351
0.23529999999999984,-0.013596790303002869
0.23429999999999984,-0.013626499240300034
0.23329999999999984,-0.013680258269694904
0.23229999999999984,-0.013708552495692205
0.23129999999999984,-0.01372411431999072
0.23029999999999984,-0.013714211340891666
0.22929999999999984,-0.013762311525087077
0.22829999999999984,-0.013821729399681406
0.22729999999999984,-0.013831632378780464
0.22629999999999983,-0.01385285304827844
0.22529999999999983,-0.013868414872576954
0.22429999999999983,-0.01389529438727439
0.22329999999999983,-0.013961785818368048
0.22229999999999983,-0.013984421199165886
0.22129999999999983,-0.014011300713863323
0.22029999999999983,-0.014014130136463054
0.21929999999999983,-0.01405515676415914
0.21829999999999983,-0.014128721751752121
0.21729999999999983,-0.014142868864750772
0.21629999999999983,-0.014161260111649017
0.21529999999999982,-0.014189554337646317
0.21429999999999982,-0.014217848563643616
0.21329999999999982,-0.01430273124163552
0.21229999999999982,-0.014345172580631472
0.21129999999999982,-0.014331025467632824
0.21029999999999982,-0.014373466806628774
0.20929999999999982,-0.014401761032626074
0.20829999999999982,-0.014430055258623373
0.20729999999999982,-0.014472496597619325
0.20629999999999982,-0.014472496597619325
0.20529999999999982,-0.014500790823616624
0.20429999999999982,-0.014543232162612576
0.20329999999999981,-0.014599820614607179
0.2022999999999998,-0.014628114840604478
0.2012999999999998,-0.014642261953603129
0.20029999999999992,-0.014642261953603129
0.19929999999999992,-0.014684703292599082
0.19829999999999992,-0.014741291744593682
0.19729999999999992,-0.014769585970590984
0.19629999999999992,-0.014783733083589632
0.19529999999999992,-0.014797880196588285
0.19429999999999992,-0.014896909987578835
0.19329999999999992,-0.014981792665570736
0.19229999999999992,-0.014953498439573438
0.19129999999999991,-0.014967645552572089
0.1902999999999999,-0.014981792665570736
0.1892999999999999,-0.01503838111756534
0.1882999999999999,-0.015080822456561293
0.1872999999999999,-0.01509496956955994
0.1862999999999999,-0.01509496956955994
0.1852999999999999,-0.015109116682558592
0.1842999999999999,-0.015165705134553195
0.1832999999999999,-0.015222293586547794
0.1822999999999999,-0.015250587812545097
0.1812999999999999,-0.015264734925543746
0.1802999999999999,-0.015293029151541045
0.1792999999999999,-0.015321323377538347
0.1782999999999999,-0.015392058942531598
0.1772999999999999,-0.015420353168528897
0.1762999999999999,-0.015406206055530251
0.1752999999999999,-0.015448647394526203
0.1742999999999999,-0.015491088733522153
0.1732999999999999,-0.015547677185516754
0.1722999999999999,-0.015561824298515404
0.1712999999999999,-0.015575971411514053
0.1702999999999999,-0.015604265637511355
0.1692999999999999,-0.015646706976507305
0.1682999999999999,-0.015717442541500558
0.1672999999999999,-0.01573158965449921
0.1662999999999999,-0.015745736767497857
0.1652999999999999,-0.01575988388049651
0.1642999999999999,-0.01581647233249111
0.1632999999999999,-0.01585891367148706
0.1622999999999999,-0.015901355010483013
0.1612999999999999,-0.015929649236480315
0.1602999999999999,-0.015957943462477614
0.1592999999999999,-0.016028679027470863
0.15829999999999989,-0.016071120366466816
0.15729999999999988,-0.016099414592464115
0.15629999999999988,-0.01611356170546277
0.15529999999999988,-0.016127708818461418
0.15429999999999988,-0.01615600304445872
0.15329999999999988,-0.016212591496453318
0.15229999999999988,-0.016226738609451972
0.15129999999999988,-0.01625503283544927
0.15029999999999988,-0.016269179948447923
0.14929999999999988,-0.016339915513441175
0.14829999999999988,-0.01638235685243712
0.14729999999999988,-0.016396503965435776
0.14629999999999987,-0.016424798191433075
0.14529999999999987,-0.016453092417430374
0.14429999999999987,-0.016495533756426328
0.14329999999999987,-0.01659456354741688
0.14229999999999987,-0.016637004886412832
0.14129999999999987,-0.01662285777341418
0.14029999999999987,-0.01665115199941148
0.13929999999999987,-0.016679446225408782
0.13829999999999987,-0.016764328903400686
0.13729999999999987,-0.016764328903400686
0.13629999999999987,-0.016792623129397985
0.13529999999999986,-0.01683506446839394
0.13429999999999986,-0.016891652920388536
0.13329999999999986,-0.016948241372383138
0.13229999999999986,-0.01699068271137909
0.13129999999999986,-0.01699068271137909
0.13029999999999986,-0.017047271163373692
0.12929999999999986,-0.017089712502369642
0.12829999999999986,-0.017160448067362895
0.12729999999999986,-0.017174595180361543
0.12629999999999986,-0.017202889406358845
0.12529999999999986,-0.017217036519357496
0.12429999999999986,-0.01728777208435075
0.12329999999999985,-0.01734436053634535
0.12229999999999985,-0.017358507649344
0.12129999999999985,-0.017400948988339954
0.12029999999999985,-0.0174150961013386
0.11929999999999985,-0.017499978779330502
0.11829999999999985,-0.0175282730053278
0.11729999999999985,-0.017570714344323755
0.11629999999999985,-0.017584861457322406
0.11529999999999985,-0.017599008570321057
0.11429999999999985,-0.01766974413531431
0.11329999999999985,-0.01772633258730891
0.11229999999999984,-0.017754626813306213
0.11129999999999984,-0.017782921039303512
0.11029999999999984,-0.01781121526530081
0.10929999999999984,-0.017867803717295416
0.10829999999999984,-0.017966833508285963
0.10729999999999984,-0.017952686395287316
0.10629999999999984,-0.018009274847281917
0.10529999999999984,-0.018023421960280565
0.10429999999999984,-0.018094157525273817
0.10329999999999984,-0.01816489309026707
0.10229999999999984,-0.01817904020326572
0.10129999999999983,-0.01820733442926302
0.10029999999999983,-0.018235628655260322
0.09929999999999983,-0.018278069994256275
0.09829999999999983,-0.018377099785246823
0.09729999999999983,-0.018391246898245478
0.09629999999999983,-0.018419541124242777
0.09529999999999983,-0.018447835350240076
0.09429999999999983,-0.01851857091523333
0.09329999999999983,-0.01858930648022658
0.09229999999999983,-0.018645894932221182
0.09129999999999983,-0.018674189158218484
0.09029999999999982,-0.018702483384215783
0.08929999999999982,-0.018744924723211737
0.08829999999999982,-0.01882980740120364
0.08729999999999982,-0.018843954514202284
0.08629999999999982,-0.018886395853198238
0.08529999999999982,-0.01892883719219419
0.08429999999999982,-0.019013719870186095
0.08329999999999982,-0.019070308322180696
0.08229999999999982,-0.019112749661176646
0.08129999999999982,-0.019126896774175294
0.08029999999999982,-0.0191551910001726
0.07929999999999982,-0.01922592656516585
0.07829999999999981,-0.0192966621301591
0.07729999999999981,-0.0193249563561564
0.07629999999999981,-0.019381544808151
0.07529999999999992,-0.0194098390341483
0.07429999999999992,-0.019523015938137503
0.07329999999999992,-0.019607898616129407
0.07229999999999992,-0.019664487068124008
0.07129999999999992,-0.01970692840711996
0.07029999999999992,-0.019721075520118612
0.06929999999999992,-0.019763516859114563
0.06829999999999992,-0.019834252424107815
0.06729999999999992,-0.019848399537106463
0.06629999999999991,-0.019904987989101064
0.06529999999999991,-0.019933282215098366
0.06429999999999991,-0.02000401778009162
0.06329999999999991,-0.02008890045808352
0.06229999999999991,-0.02011719468408082
0.06129999999999991,-0.020145488910078124
0.06029999999999991,-0.020187930249074077
0.05929999999999991,-0.020258665814067326
0.05829999999999991,-0.020315254266061927
0.05729999999999991,-0.020371842718056525
0.056299999999999906,-0.020400136944053827
0.055299999999999905,-0.02042843117005113
0.054299999999999904,-0.020499166735044382
0.0532999999999999,-0.020584049413036282
0.0522999999999999,-0.020640637865030884
0.0512999999999999,-0.020640637865030884
0.0502999999999999,-0.020697226317025485
0.0492999999999999,-0.020767961882018737
0.0482999999999999,-0.02086699167300929
0.0472999999999999,-0.020909433012005242
0.0462999999999999,-0.020923580125003893
0.045299999999999896,-0.020980168576998495
0.044299999999999895,-0.021065051254990398
0.043299999999999894,-0.021135786819983647
0.04229999999999989,-0.02119237527197825
0.04129999999999989,-0.02122066949797555
0.04029999999999989,-0.021305552175967454
0.03929999999999989,-0.021376287740960703
0.03829999999999989,-0.021432876192955305
0.03729999999999989,-0.021461170418952607
0.03629999999999989,-0.02153190598394586
0.03529999999999989,-0.021546053096944507
0.034299999999999886,-0.021645082887935062
0.033299999999999885,-0.021729965565926962
0.032299999999999884,-0.021772406904922915
0.031299999999999883,-0.021814848243918866
0.030299999999999883,-0.021871436695913467
0.02929999999999988,-0.02198461359990267
0.02829999999999988,-0.022097790503891875
0.02729999999999988,-0.022140231842887825
0.02629999999999988,-0.022154378955886473
0.025299999999999878,-0.022168526068885124
0.024299999999999877,-0.022253408746877028
0.023299999999999876,-0.022338291424868928
0.022299999999999875,-0.02238073276386488
0.021299999999999875,-0.02242317410286083
0.020299999999999874,-0.022479762554855433
0.019299999999999873,-0.022550498119848682
0.018299999999999872,-0.022635380797840585
0.01729999999999987,-0.02267782213683654
0.01629999999999987,-0.022691969249835187
0.01529999999999987,-0.02276270481482844
0.014299999999999868,-0.022847587492820343
0.013299999999999867,-0.022932470170812246
0.012299999999999978,-0.022974911509808196
0.011299999999999866,-0.023017352848804146
0.010299999999999976,-0.023073941300798748
0.009299999999999864,-0.023158823978790648
0.008299999999999974,-0.0232295595437839
0.007299999999999862,-0.023286147995778505
0.006299999999999972,-0.023314442221775804
0.00529999999999986,-0.023356883560771757
0.0042999999999999705,-0.02345591335176231
0.0032999999999998586,-0.02352664891675556
0.0022999999999999687,-0.02359738448174881
0.0012999999999998568,-0.023625678707746112
0.00029999999999996696,-0.023668120046742062
-0.000700000000000145,-0.023767149837732617
-0.0017000000000000348,-0.02385203251572452
-0.0027000000000001467,-0.02390862096771912
-0.0037000000000000366,-0.02393691519371642
-0.0047000000000001485,-0.02397935653271237
-0.005700000000000038,-0.024078386323702922
-0.00670000000000015,-0.02417741611469348
-0.00770000000000004,-0.024219857453689427
-0.008700000000000152,-0.02427644590568403
-0.009700000000000042,-0.024318887244679982
-0.010700000000000154,-0.024432064148669184
-0.011700000000000044,-0.02453109393965974
-0.012700000000000156,-0.024545241052658383
-0.013700000000000045,-0.02461597661765164
-0.014700000000000157,-0.02468671218264489
-0.015700000000000047,-0.024771594860636792
-0.01670000000000016,-0.024870624651627343
-0.01770000000000005,-0.024884771764625994
-0.01870000000000016,-0.0249413602166206
-0.01970000000000005,-0.0249979486686152
-0.020700000000000163,-0.02506868423360845
-0.021700000000000053,-0.025167714024599004
-0.022700000000000164,-0.025210155363594954
-0.023700000000000054,-0.025252596702590904
-0.024700000000000166,-0.025323332267584157
-0.025700000000000056,-0.025422362058574708
-0.026700000000000168,-0.025493097623567964
-0.027700000000000058,-0.025521391849565263
-0.02870000000000017,-0.02554968607556256
-0.02970000000000006,-0.02562042164055581
-0.03070000000000017,-0.025705304318547718
-0.03170000000000006,-0.02580433410953827
-0.03270000000000017,-0.025860922561532867
-0.03370000000000006,-0.02590336390052882
-0.034700000000000175,-0.025931658126526123
-0.035700000000000065,-0.026030687917516674
-0.03670000000000018,-0.02612971770850723
-0.03770000000000007,-0.026172159047503182
-0.03870000000000018,-0.02621460038649913
-0.03970000000000007,-0.026257041725495082
-0.04070000000000018,-0.026341924403486983
-0.04170000000000007,-0.026426807081478886
-0.04270000000000018,-0.026483395533473487
-0.04370000000000007,-0.026539983985468085
-0.044700000000000184,-0.02659657243746269
-0.045700000000000074,-0.026695602228453245
-0.046700000000000186,-0.026808779132442447
-0.047700000000000076,-0.02682292624544109
-0.04870000000000019,-0.026879514697435696
-0.04970000000000008,-0.02692195603643165
-0.05070000000000019,-0.027006838714423546
-0.05170000000000008,-0.02709172139241545
-0.05270000000000019,-0.027120015618412752
-0.05370000000000008,-0.027162456957408702
-0.05470000000000019,-0.027204898296404656
-0.05570000000000008,-0.027289780974396556
-0.056700000000000195,-0.02738881076538711
-0.057700000000000085,-0.02743125210438306
-0.058700000000000196,-0.027459546330380363
-0.059700000000000086,-0.027516134782374965
-0.0607000000000002,-0.027601017460366868
-0.06170000000000009,-0.02772834147735472
-0.0627000000000002,-0.027784929929349323
-0.06370000000000009,-0.027784929929349323
