Potential V vs RHE, Current mA cm-2
0.013299999999999867,10.94562132705579
0.012299999999999978,9.245138344618015
0.011299999999999866,7.543240650880375
0.010299999999999976,5.886613718738418
0.009299999999999864,4.316284175888227
0.008299999999999974,2.745954633038036
0.007299999999999862,1.219056727093702
0.006299999999999972,-0.2202705493889862
0.00529999999999986,-1.5717442541500557
0.0042999999999999705,-2.8379108675292635
0.0032999999999998586,-4.0588067193127895
0.0022999999999999687,-5.235846520800501
0.0012999999999998568,-6.458157083883892
0.00029999999999996696,-7.635196885371603
-0.000700000000000145,-8.85609273715513
-0.0017000000000000348,-10.078403300238522
-0.0027000000000001467,-11.255443101726232
-0.0037000000000000366,-12.520195003805576
-0.0047000000000001485,-13.698649516593148
-0.005700000000000038,-14.783733083589633
-0.00670000000000015,-15.830619445489761
-0.00770000000000004,-16.835064468393938
-0.008700000000000152,-17.797068152302163
-0.009700000000000042,-18.716630497214435
-0.010700000000000154,-19.678634181122664
-0.011700000000000044,-20.683079204026836
-0.012700000000000156,-21.67337711393236
-0.013700000000000045,-22.72026347583249
-0.014700000000000157,-23.823738289727217
-0.015700000000000047,-24.814036199632742
-0.01670000000000016,-25.81848122253692
-0.01770000000000005,-26.738043567449193
-0.01870000000000016,-27.615164573365515
-0.01970000000000005,-28.435697127287238
-0.020700000000000163,-29.22793545521166
-0.021700000000000053,-30.04846800913338
-0.022700000000000164,-30.88314767605375
-0.023700000000000054,-31.76026868197007
-0.024700000000000166,-32.66568391388369
-0.025700000000000056,-33.627687597791926
-0.026700000000000168,-34.5472499427042
-0.027700000000000058,-35.46681228761647
-0.02870000000000017,-36.329786180534136
-0.02970000000000006,-37.122024508458566
-0.03070000000000017,-37.85767438438838
-0.03170000000000006,-38.607471373316855
-0.03270000000000017,-39.30067991025072
-0.03370000000000006,-40.03632978618054
-0.034700000000000175,-40.828568114104954
-0.035700000000000065,-41.606659329030734
-0.03670000000000018,-42.483780334947056
-0.03770000000000007,-43.31846000186743
-0.03870000000000018,-44.181433894785094
-0.03970000000000007,-45.01611356170547
-0.04070000000000018,-45.75176343763528
-0.04170000000000007,-46.501560426563756
-0.04270000000000018,-47.19476896349763
-0.04370000000000007,-47.84553616143554
-0.044700000000000184,-48.51045047237211
-0.045700000000000074,-49.16121767031002
-0.046700000000000186,-49.89686754623985
-0.047700000000000076,-50.60422319617236
-0.04870000000000019,-51.38231441109813
-0.04970000000000008,-52.2169940780185
-0.05070000000000019,-52.95264395394832
-0.05170000000000008,-53.74488228187274
-0.05270000000000019,-54.43809081880661
-0.05370000000000008,-55.088858016744524
-0.05470000000000019,-55.6971838756865
-0.05570000000000008,-56.30550973462846
-0.056700000000000195,-56.97042404556503
-0.057700000000000085,-57.57874990450699
-0.058700000000000196,-58.31439978043681
-0.059700000000000086,-59.06419676936528
-0.0607000000000002,-59.7998466452951
-0.06170000000000009,-60.63452631221547
-0.0627000000000002,-61.37017618814529
-0.06370000000000009,-62.06338472507916
-0.0647000000000002,-62.72829903601572
-0.06570000000000009,-63.3366248949577
-0.0667000000000002,-63.944950753899654
-0.0677000000000001,-64.51083527384567
-0.0687000000000002,-65.11916113278764
-0.0697000000000001,-65.76992833072556
-0.07070000000000021,-66.47728398065809
-0.0717000000000001,-67.21293385658788
-0.07270000000000021,-67.96273084551636
-0.0737000000000001,-68.74082206044213
-0.07470000000000021,-69.43403059737601
-0.0757000000000001,-70.14138624730852
-0.07670000000000021,-70.79215344524643
-0.0777000000000001,-71.44292064318435
-0.07870000000000021,-72.10783495412092
-0.0797000000000001,-72.71616081306288
-0.08070000000000022,-73.3669280110008
-0.0817000000000001,-74.06013654793468
-0.08270000000000022,-74.80993353686314
-0.08370000000000011,-75.54558341279296
-0.08470000000000022,-76.29538040172143
-0.08570000000000011,-76.98858893865528
-0.08670000000000022,-77.68179747558916
-0.08770000000000011,-78.29012333453113
-0.08870000000000022,-78.99747898446365
-0.08970000000000011,-79.56336350440966
-0.09070000000000022,-80.08680668535972
-0.09170000000000011,-80.69513254430169
-0.09270000000000023,-81.30345840324367
-0.09370000000000012,-81.95422560118158
-0.09470000000000023,-82.6615812511141
-0.09570000000000012,-83.31234844905201
-0.09670000000000023,-84.09043966397778
-0.09770000000000012,-84.7977953139103
-0.09870000000000023,-85.49100385084417
-0.09970000000000012,-86.22665372677399
-0.10070000000000023,-86.84912669871461
-0.10170000000000012,-87.41501121866061
-0.10270000000000024,-87.89601306061473
-0.10370000000000013,-88.5043389195567
-0.10470000000000024,-89.07022343950271
-0.10570000000000013,-89.67854929844468
-0.10670000000000024,-90.37175783537855
-0.10770000000000013,-91.12155482430701
-0.10870000000000024,-91.85720470023682
-0.10970000000000013,-92.56456035016936
-0.11070000000000024,-93.21532754810727
-0.11170000000000013,-93.82365340704924
-0.11270000000000002,-94.34709658799929
-0.11370000000000013,-94.95542244694126
-0.11470000000000002,-95.47886562789132
-0.11570000000000014,-96.04475014783733
-0.11670000000000003,-96.69551734577524
-0.11770000000000014,-97.36043165671182
-0.11870000000000003,-98.05364019364569
-0.11970000000000014,-98.74684873057957
-0.12070000000000003,-99.53908705850398
-0.12170000000000014,-100.2747369344338
-0.12270000000000003,-101.02453392336226
-0.12370000000000014,-101.6753011213002
-0.12470000000000003,-102.28362698024215
-0.12570000000000014,-102.89195283918411
-0.12670000000000003,-103.50027869812607
-0.12770000000000015,-104.12275167006669
-0.12870000000000004,-104.77351886800463
-0.12970000000000015,-105.46672740493848
-0.13070000000000004,-106.21652439386696
-0.13170000000000015,-106.90973293080083
-0.13270000000000004,-107.6029414677347
-0.13370000000000015,-108.3102971176672
-0.13470000000000004,-108.91862297660917
-0.13570000000000015,-109.44206615755924
-0.13670000000000004,-110.00795067750525
-0.13770000000000016,-110.57383519745127
-0.13870000000000005,-111.18216105639323
-0.13970000000000016,-111.83292825433115
-0.14070000000000005,-112.58272524325962
-0.14170000000000016,-113.36081645818538
-0.14270000000000005,-114.11061344711386
-0.14370000000000016,-114.84626332304367
-0.14470000000000005,-115.5819131989735
-0.14570000000000016,-116.20438617091412
-0.14670000000000005,-116.81271202985609
-0.14770000000000016,-117.42103788879804
-0.14870000000000005,-117.94448106974811
-0.14970000000000017,-118.51036558969413
-0.15070000000000006,-119.1186914486361
-0.15170000000000017,-119.769458646574
-0.15270000000000006,-120.43437295751058
-0.15370000000000017,-121.12758149444444
-0.15470000000000006,-121.82079003137831
-0.15570000000000017,-122.52814568131083
-0.15670000000000006,-123.17891287924873
-0.15770000000000017,-123.74479739919475
-0.15870000000000006,-124.31068191914078
-0.15970000000000018,-124.83412510009084
-0.16070000000000007,-125.35756828104091
-0.16170000000000018,-125.88101146199097
-0.16270000000000007,-126.48933732093293
-0.16370000000000018,-127.09766317987489
-0.16470000000000007,-127.76257749081147
-0.16570000000000018,-128.41334468874936
-0.16670000000000007,-129.0641118866873
-0.16770000000000018,-129.7148790846252
-0.16870000000000007,-130.32320494356716
-0.16970000000000018,-130.90323657651186
-0.17070000000000007,-131.46912109645783
-0.17170000000000019,-131.99256427740792
-0.17270000000000008,-132.47356611936203
-0.1737000000000002,-133.12433331729994
-0.17470000000000008,-133.73265917624192
-0.1757000000000002,-134.42586771317576
-0.17670000000000008,-135.17566470210423
-0.1777000000000002,-135.91131457803408
-0.17870000000000008,-136.60452311496792
-0.1797000000000002,-137.2694374259045
-0.18070000000000008,-137.87776328484648
-0.1817000000000002,-138.48608914378846
-0.18270000000000008,-139.0095323247385
-0.1837000000000002,-139.49053416669264
-0.1847000000000001,-140.01397734764268
-0.1857000000000002,-140.4949791895968
-0.1867000000000001,-141.06086370954282
-0.1877000000000002,-141.61260111649017
-0.1887000000000001,-142.31995676642268
-0.1897000000000002,-143.0273124163552
-0.1907000000000001,-143.5931969363012
-0.1917000000000001,-144.30055258623375
-0.19269999999999998,-145.00790823616626
-0.1937000000000001,-145.57379275611228
-0.19469999999999998,-146.1396772760583
-0.1957000000000001,-146.7055617960043
-0.19669999999999999,-147.4129174459368
-0.1977000000000001,-147.97880196588284
-0.1987,-148.54468648582886
-0.1997000000000001,-149.25204213576137
-0.2007,-149.95939778569388
-0.2017000000000001,-150.5252823056399
-0.2027,-151.23263795557244
-0.2037000000000001,-151.65705134553193
-0.2047,-152.22293586547795
-0.2057000000000001,-152.64734925543743
-0.2067,-153.21323377538346
-0.2077000000000001,-153.63764716534297
-0.2087,-154.0620605553025
-0.2097000000000001,-154.486473945262
-0.2107,-154.9108873352215
-0.2117000000000001,-155.47677185516753
-0.2127,-156.04265637511355
-0.2137000000000001,-156.60854089505958
-0.2147,-157.17442541500557
-0.2157000000000001,-157.7403099349516
-0.2167,-158.3061944548976
-0.21770000000000012,-158.87207897484362
-0.2187,-159.43796349478964
-0.21970000000000012,-159.86237688474912
-0.2207,-160.42826140469515
-0.22170000000000012,-160.99414592464117
-0.2227,-161.70150157457368
-0.22370000000000012,-162.2673860945197
-0.2247,-162.97474174445222
-0.22570000000000012,-163.68209739438475
-0.2267,-164.24798191433075
-0.22770000000000012,-164.67239530429026
-0.22870000000000001,-165.2382798242363
-0.22970000000000013,-165.5212220842093
-0.23070000000000002,-165.94563547416882
-0.23170000000000013,-166.22857773414182
-0.23270000000000002,-166.65299112410133
-0.23370000000000013,-167.21887564404733
-0.23470000000000002,-167.92623129397984
-0.23570000000000013,-168.49211581392586
-0.23670000000000002,-169.3409425938449
-0.2376999999999999,-170.0482982437774
-0.23870000000000002,-170.75565389370993
-0.2396999999999999,-171.46300954364247
-0.24070000000000003,-172.0288940635885
-0.24169999999999991,-172.73624971352098
-0.24270000000000003,-173.16066310348046
-0.24369999999999992,-173.72654762342648
-0.24470000000000003,-174.2924321433725
-0.24569999999999992,-174.99978779330505
-0.24670000000000003,-175.56567231325104
-0.24769999999999992,-176.13155683319707
-0.24870000000000003,-176.6974413531431
-0.24969999999999992,-177.2633258730891
-0.25070000000000003,-177.54626813306209
-0.2516999999999999,-178.1121526530081
-0.25270000000000004,-178.53656604296762
-0.2536999999999999,-179.10245056291362
-0.25470000000000004,-179.52686395287316
-0.2556999999999999,-179.95127734283267
-0.25670000000000004,-180.5171618627787
-0.25769999999999993,-181.08304638272472
-0.25870000000000004,-181.64893090267074
-0.25969999999999993,-182.21481542261674
-0.26070000000000004,-182.78069994256273
-0.26169999999999993,-183.34658446250873
-0.26270000000000004,-184.05394011244127
-0.26369999999999993,-184.6198246323873
-0.26470000000000005,-185.1857091523333
-0.26569999999999994,-185.7515936722793
-0.26670000000000005,-186.31747819222534
-0.26769999999999994,-186.74189158218485
-0.26870000000000005,-187.16630497214436
-0.26969999999999994,-187.59071836210387
-0.27070000000000005,-188.29807401203638
-0.27169999999999994,-189.0054296619689
-0.27270000000000005,-189.57131418191491
-0.27369999999999994,-190.13719870186094
-0.27470000000000006,-190.42014096183394
-0.27569999999999995,-190.84455435179345
-0.27670000000000006,-191.12749661176645
-0.27769999999999995,-191.41043887173947
-0.27870000000000006,-191.9763233916855
-0.27969999999999995,-192.40073678164498
-0.28070000000000006,-193.10809243157752
-0.28169999999999995,-193.81544808151003
-0.28270000000000006,-194.38133260145605
-0.28369999999999995,-195.08868825138856
-0.28470000000000006,-195.51310164134807
-0.28569999999999995,-196.0789861612941
-0.28670000000000007,-196.6448706812401
-0.28769999999999996,-197.0692840711996
-0.28870000000000007,-197.63516859114563
-0.28969999999999996,-198.05958198110514
-0.29070000000000007,-198.48399537106465
-0.29169999999999996,-199.04987989101065
-0.29270000000000007,-199.33282215098367
-0.29369999999999996,-199.75723554094319
-0.2947000000000001,-200.3231200608892
-0.29569999999999996,-200.88900458083523
-0.2967000000000001,-201.31341797079472
-0.29769999999999996,-201.87930249074074
-0.2987000000000001,-202.30371588070025
-0.29969999999999997,-202.7281292706598
-0.3007000000000001,-203.15254266061928
-0.30169999999999997,-203.57695605057876
-0.3027000000000001,-204.14284057052478
-0.30369999999999997,-204.8501962204573
-0.3047000000000001,-205.55755187038983
-0.30569999999999997,-206.40637865030885
-0.3067000000000001,-207.25520543022787
-0.3077,-208.1040322101469
-0.3087000000000001,-208.95285899006592
-0.3097,-209.51874351001192
-0.3107000000000001,-210.08462802995794
-0.3117,-210.65051254990397
-0.3127000000000001,-210.93345480987696
-0.3137,-211.35786819983647
-0.3147000000000001,-211.64081045980947
-0.3157,-211.9237527197825
-0.3167000000000001,-212.2066949797555
-0.3177,-212.631108369715
-0.3187000000000001,-212.914050629688
-0.3197,-213.19699288966103
-0.3207000000000001,-213.47993514963403
-0.3217,-213.76287740960703
-0.3227000000000001,-214.04581966958003
-0.3237,-214.32876192955305
-0.3247000000000001,-214.75317531951256
-0.3257,-215.31905983945856
-0.3267000000000001,-215.88494435940459
-0.3277,-216.59230000933712
-0.3287000000000001,-217.44112678925615
-0.3297,-218.14848243918865
-0.3307000000000001,-218.99730921910768
-0.3317,-219.7046648690402
-0.3327000000000001,-220.41202051897272
-0.3337,-220.97790503891872
-0.3347000000000001,-221.40231842887826
-0.3357,-221.68526068885126
-0.3367000000000001,-222.10967407881074
-0.3377,-222.3926163387838
-0.3387000000000001,-222.81702972874328
-0.3397,-223.38291424868927
-0.3407000000000001,-223.9487987686353
-0.3417,-224.5146832885813
-0.3427000000000001,-224.93909667854084
-0.3437,-225.50498119848683
-0.3447000000000001,-225.92939458844637
-0.3457,-226.35380797840588
-0.3467000000000001,-226.63675023837888
-0.3477,-227.06116362833836
-0.3487000000000001,-227.62704814828442
-0.3497,-228.0514615382439
-0.3507000000000001,-228.75881718817644
-0.3517,-229.46617283810895
-0.3527000000000001,-230.17352848804146
-0.3537,-230.880884137974
-0.3547000000000001,-231.44676865792
-0.3557,-232.01265317786604
-0.35670000000000013,-232.57853769781204
-0.3577,-233.00295108777152
-0.35870000000000013,-233.56883560771757
-0.3597,-233.99324899767706
-0.36070000000000013,-234.55913351762308
-0.3617,-234.9835469075826
-0.3626999999999999,-235.40796029754208
-0.3637,-235.97384481748813
-0.3646999999999999,-236.3982582074476
-0.3657,-236.96414272739366
-0.3666999999999999,-237.38855611735315
-0.3677,-237.81296950731266
-0.3686999999999999,-238.2373828972722
-0.36970000000000003,-238.66179628723168
-0.3706999999999999,-239.0862096771912
-0.37170000000000003,-239.65209419713722
-0.3726999999999999,-240.0765075870967
-0.37370000000000003,-240.50092097705624
-0.3746999999999999,-240.92533436701575
-0.37570000000000003,-241.34974775697523
-0.3766999999999999,-241.77416114693477
-0.37770000000000004,-242.19857453689428
-0.3786999999999999,-242.76445905684034
-0.37970000000000004,-243.18887244679982
-0.3806999999999999,-243.75475696674582
-0.38170000000000004,-244.17917035670533
-0.38269999999999993,-244.46211261667833
-0.38370000000000004,-244.8865260066378
-0.38469999999999993,-245.16946826661086
-0.38570000000000004,-245.59388165657037
-0.38669999999999993,-244.74505487665132
-0.38570000000000004,-241.6326900169483
-0.38469999999999993,-238.66179628723168
-0.38370000000000004,-235.83237368750162
-0.38269999999999993,-233.00295108777152
-0.38170000000000004,-230.17352848804146
-0.3806999999999999,-227.34410588831142
-0.37970000000000004,-224.65615441856778
-0.3786999999999999,-221.82673181883774
-0.37770000000000004,-219.28025147908068
-0.3766999999999999,-216.73377113932364
-0.37570000000000003,-214.32876192955305
-0.3746999999999999,-211.9237527197825
-0.37370000000000003,-209.66021463999843
-0.3726999999999999,-207.3966765602144
-0.37170000000000003,-205.13313848043032
-0.3706999999999999,-202.86960040064628
-0.36970000000000003,-200.4645911908757
-0.3686999999999999,-198.20105311109162
-0.3677,-195.79604390132107
-0.3666999999999999,-193.532505821537
-0.3657,-191.268967741753
-0.3646999999999999,-189.0054296619689
-0.3637,-186.74189158218485
-0.3626999999999999,-184.6198246323873
-0.3617,-182.49775768258974
-0.36070000000000013,-180.37569073279218
-0.3597,-178.3950949129811
-0.35870000000000013,-176.27302796318358
-0.3577,-174.150961013386
-0.35670000000000013,-172.0288940635885
-0.3557,-169.9068271137909
-0.3547000000000001,-167.78476016399335
-0.3537,-165.8041643441823
-0.3527000000000001,-163.82356852437124
-0.3517,-161.9844438345467
-0.3507000000000001,-160.14531914472215
-0.3497,-158.4476655848841
-0.3487000000000001,-156.60854089505958
-0.3477,-154.6279450752485
-0.3467000000000001,-152.64734925543743
-0.3457,-150.66675343562642
-0.3447000000000001,-148.68615761581535
-0.3437,-146.7055617960043
-0.3427000000000001,-144.72496597619326
-0.3417,-142.8858412863687
-0.3407000000000001,-141.01842237054686
-0.3397,-139.27832747171286
-0.3387000000000001,-137.48164412088425
-0.3377,-135.74154922205025
-0.3367000000000001,-133.9873072102176
-0.3357,-132.16232963339172
-0.3347000000000001,-130.23832226557528
-0.3337,-128.41334468874936
-0.3327000000000001,-126.5317786599289
-0.3317,-124.74924242209892
-0.3307000000000001,-122.91011773227437
-0.3297,-121.2549055114323
-0.3287000000000001,-119.55725195159425
-0.3277,-117.98692240874406
-0.3267000000000001,-116.37415152689792
-0.3257,-114.76138064505177
-0.3247000000000001,-113.19105110220158
-0.3237,-111.49339754236355
-0.3227000000000001,-109.78159686952685
-0.3217,-108.0839433096888
-0.3207000000000001,-106.4287310888467
-0.3197,-104.77351886800463
-0.3187000000000001,-103.16074798615847
-0.3177,-101.59041844330828
-0.3167000000000001,-100.10497157844999
-0.3157,-98.6195247135917
-0.3147000000000001,-97.17651918772938
-0.3137,-95.69107232287108
-0.3127000000000001,-94.17733123201549
-0.3117,-92.64944302816124
-0.3107000000000001,-91.07911348531105
-0.3097,-89.50878394246087
-0.3087000000000001,-87.89601306061473
-0.3077,-86.32568351776455
-0.3067000000000001,-84.84023665290624
-0.30569999999999997,-83.39723112704392
-0.3047000000000001,-81.95422560118158
-0.30369999999999997,-80.61024986630979
-0.3027000000000001,-79.25212701843935
-0.30169999999999997,-77.90815128356756
-0.3007000000000001,-76.42270441870929
-0.29969999999999997,-74.93725755385098
-0.2987000000000001,-73.45181068899271
-0.29769999999999996,-71.96636382413442
-0.2967000000000001,-70.48091695927613
-0.29569999999999996,-69.0944998854084
-0.2947000000000001,-67.73637703753796
-0.29369999999999996,-66.43484264166212
-0.29270000000000007,-65.20404381077954
-0.29169999999999996,-63.944950753899654
-0.29070000000000007,-62.68585769701977
-0.28969999999999996,-61.37017618814529
-0.28870000000000007,-60.02620045327351
-0.28769999999999996,-58.62563626640712
-0.28670000000000007,-57.182630740544774
-0.28569999999999995,-55.73962521468245
-0.28470000000000006,-54.43809081880661
-0.28369999999999995,-53.12240930993213
-0.28270000000000006,-51.86331625305225
-0.28169999999999995,-50.64666453516831
-0.28070000000000006,-49.50074838227763
-0.27969999999999995,-48.32653800338966
-0.27870000000000006,-47.15232762450167
-0.27769999999999995,-45.89323456762179
-0.27670000000000006,-44.66243573673921
-0.27569999999999995,-43.36090134086337
-0.27470000000000006,-42.04521983198889
-0.27369999999999994,-40.78612677510901
-0.27270000000000005,-39.56947505722508
-0.27169999999999994,-38.38111756533845
-0.27070000000000005,-37.206907186450465
-0.26969999999999994,-36.16002082455034
-0.26870000000000005,-35.07069312365426
