Jan. 13, 2025   22:24:25
Cyclic Voltammetry
File: c:/users/guazh/data/banditlqround7_x0exp772_r5/2025-01-10-exp837\exp837-2025-01-13t22_18_04-arkoh\exp837_cv_sr_200mvs_efin_-1400mv.bin
Data Source:  Experiment
Instrument Model:  CHI760E
Header: CV ran at 200 mVs
Note: 

Init E (V) = -1
High E (V) = -1
Low E (V) = -1.4
Final E (V) = -1
Init P/N = N
Scan Rate (V/s) = 0.2
Segment = 3
Sample Interval (V) = 0.001
Quiet Time (sec) = 2
Sensitivity (A/V) = 0.01
Comp R (ohm) = 1.5

Results:

Channel 1:
Segment 1:

Segment 2:

Segment 3:

Potential/V, Current/A

-1.000, -8.819e-4
-1.001, -7.651e-4
-1.002, -6.580e-4
-1.003, -5.824e-4
-1.004, -5.020e-4
-1.005, -4.083e-4
-1.006, -3.421e-4
-1.007, -2.822e-4
-1.008, -2.011e-4
-1.009, -1.328e-4
-1.010, -8.700e-5
-1.011, -1.901e-5
-1.012, 5.154e-5
-1.013, 9.372e-5
-1.014, 1.458e-4
-1.015, 2.143e-4
-1.016, 2.589e-4
-1.017, 2.980e-4
-1.018, 3.613e-4
-1.019, 4.113e-4
-1.020, 4.426e-4
-1.021, 4.953e-4
-1.022, 5.517e-4
-1.023, 5.810e-4
-1.024, 6.230e-4
-1.025, 6.803e-4
-1.026, 7.143e-4
-1.027, 7.429e-4
-1.028, 7.976e-4
-1.029, 8.388e-4
-1.030, 8.617e-4
-1.031, 9.061e-4
-1.032, 9.543e-4
-1.033, 9.778e-4
-1.034, 1.011e-3
-1.035, 1.062e-3
-1.036, 1.091e-3
-1.037, 1.115e-3
-1.038, 1.163e-3
-1.039, 1.199e-3
-1.040, 1.215e-3
-1.041, 1.257e-3
-1.042, 1.301e-3
-1.043, 1.320e-3
-1.044, 1.349e-3
-1.045, 1.396e-3
-1.046, 1.420e-3
-1.047, 1.440e-3
-1.048, 1.484e-3
-1.049, 1.518e-3
-1.050, 1.535e-3
-1.051, 1.573e-3
-1.052, 1.615e-3
-1.053, 1.631e-3
-1.054, 1.658e-3
-1.055, 1.704e-3
-1.056, 1.727e-3
-1.057, 1.744e-3
-1.058, 1.789e-3
-1.059, 1.819e-3
-1.060, 1.833e-3
-1.061, 1.868e-3
-1.062, 1.908e-3
-1.063, 1.922e-3
-1.064, 1.948e-3
-1.065, 1.992e-3
-1.066, 2.014e-3
-1.067, 2.031e-3
-1.068, 2.074e-3
-1.069, 2.103e-3
-1.070, 2.118e-3
-1.071, 2.154e-3
-1.072, 2.191e-3
-1.073, 2.205e-3
-1.074, 2.230e-3
-1.075, 2.274e-3
-1.076, 2.296e-3
-1.077, 2.312e-3
-1.078, 2.352e-3
-1.079, 2.385e-3
-1.080, 2.396e-3
-1.081, 2.431e-3
-1.082, 2.471e-3
-1.083, 2.484e-3
-1.084, 2.509e-3
-1.085, 2.551e-3
-1.086, 2.568e-3
-1.087, 2.585e-3
-1.088, 2.624e-3
-1.089, 2.654e-3
-1.090, 2.663e-3
-1.091, 2.695e-3
-1.092, 2.736e-3
-1.093, 2.747e-3
-1.094, 2.772e-3
-1.095, 2.814e-3
-1.096, 2.834e-3
-1.097, 2.851e-3
-1.098, 2.891e-3
-1.099, 2.920e-3
-1.100, 2.931e-3
-1.101, 2.960e-3
-1.102, 2.999e-3
-1.103, 3.012e-3
-1.104, 3.034e-3
-1.105, 3.076e-3
-1.106, 3.097e-3
-1.107, 3.112e-3
-1.108, 3.151e-3
-1.109, 3.178e-3
-1.110, 3.192e-3
-1.111, 3.227e-3
-1.112, 3.262e-3
-1.113, 3.275e-3
-1.114, 3.298e-3
-1.115, 3.339e-3
-1.116, 3.358e-3
-1.117, 3.370e-3
-1.118, 3.408e-3
-1.119, 3.438e-3
-1.120, 3.444e-3
-1.121, 3.476e-3
-1.122, 3.515e-3
-1.123, 3.528e-3
-1.124, 3.550e-3
-1.125, 3.587e-3
-1.126, 3.604e-3
-1.127, 3.620e-3
-1.128, 3.654e-3
-1.129, 3.682e-3
-1.130, 3.693e-3
-1.131, 3.725e-3
-1.132, 3.759e-3
-1.133, 3.766e-3
-1.134, 3.788e-3
-1.135, 3.822e-3
-1.136, 3.841e-3
-1.137, 3.855e-3
-1.138, 3.890e-3
-1.139, 3.920e-3
-1.140, 3.930e-3
-1.141, 3.961e-3
-1.142, 3.994e-3
-1.143, 3.995e-3
-1.144, 4.018e-3
-1.145, 4.060e-3
-1.146, 4.073e-3
-1.147, 4.088e-3
-1.148, 4.127e-3
-1.149, 4.155e-3
-1.150, 4.162e-3
-1.151, 4.192e-3
-1.152, 4.226e-3
-1.153, 4.238e-3
-1.154, 4.256e-3
-1.155, 4.297e-3
-1.156, 4.318e-3
-1.157, 4.335e-3
-1.158, 4.368e-3
-1.159, 4.387e-3
-1.160, 4.391e-3
-1.161, 4.418e-3
-1.162, 4.455e-3
-1.163, 4.459e-3
-1.164, 4.472e-3
-1.165, 4.511e-3
-1.166, 4.526e-3
-1.167, 4.537e-3
-1.168, 4.571e-3
-1.169, 4.596e-3
-1.170, 4.609e-3
-1.171, 4.639e-3
-1.172, 4.681e-3
-1.173, 4.689e-3
-1.174, 4.702e-3
-1.175, 4.736e-3
-1.176, 4.753e-3
-1.177, 4.766e-3
-1.178, 4.800e-3
-1.179, 4.820e-3
-1.180, 4.831e-3
-1.181, 4.853e-3
-1.182, 4.883e-3
-1.183, 4.891e-3
-1.184, 4.909e-3
-1.185, 4.949e-3
-1.186, 4.961e-3
-1.187, 4.969e-3
-1.188, 5.006e-3
-1.189, 5.029e-3
-1.190, 5.040e-3
-1.191, 5.070e-3
-1.192, 5.097e-3
-1.193, 5.100e-3
-1.194, 5.117e-3
-1.195, 5.158e-3
-1.196, 5.178e-3
-1.197, 5.187e-3
-1.198, 5.221e-3
-1.199, 5.244e-3
-1.200, 5.252e-3
-1.201, 5.282e-3
-1.202, 5.306e-3
-1.203, 5.308e-3
-1.204, 5.324e-3
-1.205, 5.359e-3
-1.206, 5.375e-3
-1.207, 5.392e-3
-1.208, 5.427e-3
-1.209, 5.441e-3
-1.210, 5.441e-3
-1.211, 5.464e-3
-1.212, 5.496e-3
-1.213, 5.508e-3
-1.214, 5.527e-3
-1.215, 5.560e-3
-1.216, 5.567e-3
-1.217, 5.576e-3
-1.218, 5.610e-3
-1.219, 5.634e-3
-1.220, 5.638e-3
-1.221, 5.668e-3
-1.222, 5.703e-3
-1.223, 5.709e-3
-1.224, 5.722e-3
-1.225, 5.760e-3
-1.226, 5.772e-3
-1.227, 5.783e-3
-1.228, 5.820e-3
-1.229, 5.842e-3
-1.230, 5.846e-3
-1.231, 5.873e-3
-1.232, 5.899e-3
-1.233, 5.910e-3
-1.234, 5.926e-3
-1.235, 5.961e-3
-1.236, 5.982e-3
-1.237, 5.987e-3
-1.238, 6.016e-3
-1.239, 6.042e-3
-1.240, 6.051e-3
-1.241, 6.087e-3
-1.242, 6.121e-3
-1.243, 6.115e-3
-1.244, 6.121e-3
-1.245, 6.153e-3
-1.246, 6.175e-3
-1.247, 6.186e-3
-1.248, 6.222e-3
-1.249, 6.245e-3
-1.250, 6.244e-3
-1.251, 6.265e-3
-1.252, 6.290e-3
-1.253, 6.286e-3
-1.254, 6.303e-3
-1.255, 6.342e-3
-1.256, 6.360e-3
-1.257, 6.362e-3
-1.258, 6.390e-3
-1.259, 6.420e-3
-1.260, 6.424e-3
-1.261, 6.445e-3
-1.262, 6.466e-3
-1.263, 6.462e-3
-1.264, 6.491e-3
-1.265, 6.535e-3
-1.266, 6.542e-3
-1.267, 6.550e-3
-1.268, 6.583e-3
-1.269, 6.611e-3
-1.270, 6.612e-3
-1.271, 6.632e-3
-1.272, 6.649e-3
-1.273, 6.645e-3
-1.274, 6.670e-3
-1.275, 6.705e-3
-1.276, 6.708e-3
-1.277, 6.718e-3
-1.278, 6.754e-3
-1.279, 6.775e-3
-1.280, 6.774e-3
-1.281, 6.792e-3
-1.282, 6.821e-3
-1.283, 6.822e-3
-1.284, 6.837e-3
-1.285, 6.870e-3
-1.286, 6.878e-3
-1.287, 6.886e-3
-1.288, 6.921e-3
-1.289, 6.948e-3
-1.290, 6.953e-3
-1.291, 6.970e-3
-1.292, 6.995e-3
-1.293, 6.992e-3
-1.294, 7.005e-3
-1.295, 7.031e-3
-1.296, 7.038e-3
-1.297, 7.042e-3
-1.298, 7.072e-3
-1.299, 7.093e-3
-1.300, 7.084e-3
-1.301, 7.092e-3
-1.302, 7.119e-3
-1.303, 7.126e-3
-1.304, 7.145e-3
-1.305, 7.188e-3
-1.306, 7.190e-3
-1.307, 7.181e-3
-1.308, 7.208e-3
-1.309, 7.221e-3
-1.310, 7.223e-3
-1.311, 7.248e-3
-1.312, 7.261e-3
-1.313, 7.253e-3
-1.314, 7.269e-3
-1.315, 7.309e-3
-1.316, 7.315e-3
-1.317, 7.301e-3
-1.318, 7.328e-3
-1.319, 7.365e-3
-1.320, 7.370e-3
-1.321, 7.375e-3
-1.322, 7.380e-3
-1.323, 7.370e-3
-1.324, 7.375e-3
-1.325, 7.401e-3
-1.326, 7.404e-3
-1.327, 7.405e-3
-1.328, 7.437e-3
-1.329, 7.435e-3
-1.330, 7.428e-3
-1.331, 7.461e-3
-1.332, 7.489e-3
-1.333, 7.485e-3
-1.334, 7.495e-3
-1.335, 7.519e-3
-1.336, 7.518e-3
-1.337, 7.516e-3
-1.338, 7.533e-3
-1.339, 7.550e-3
-1.340, 7.539e-3
-1.341, 7.553e-3
-1.342, 7.581e-3
-1.343, 7.574e-3
-1.344, 7.572e-3
-1.345, 7.594e-3
-1.346, 7.593e-3
-1.347, 7.597e-3
-1.348, 7.628e-3
-1.349, 7.639e-3
-1.350, 7.628e-3
-1.351, 7.640e-3
-1.352, 7.660e-3
-1.353, 7.655e-3
-1.354, 7.663e-3
-1.355, 7.683e-3
-1.356, 7.684e-3
-1.357, 7.691e-3
-1.358, 7.719e-3
-1.359, 7.727e-3
-1.360, 7.715e-3
-1.361, 7.722e-3
-1.362, 7.746e-3
-1.363, 7.743e-3
-1.364, 7.746e-3
-1.365, 7.773e-3
-1.366, 7.781e-3
-1.367, 7.784e-3
-1.368, 7.808e-3
-1.369, 7.816e-3
-1.370, 7.800e-3
-1.371, 7.815e-3
-1.372, 7.838e-3
-1.373, 7.834e-3
-1.374, 7.843e-3
-1.375, 7.865e-3
-1.376, 7.858e-3
-1.377, 7.851e-3
-1.378, 7.874e-3
-1.379, 7.895e-3
-1.380, 7.891e-3
-1.381, 7.891e-3
-1.382, 7.914e-3
-1.383, 7.931e-3
-1.384, 7.944e-3
-1.385, 7.972e-3
-1.386, 7.976e-3
-1.387, 7.962e-3
-1.388, 7.988e-3
-1.389, 8.008e-3
-1.390, 7.998e-3
-1.391, 8.005e-3
-1.392, 8.015e-3
-1.393, 8.014e-3
-1.394, 8.022e-3
-1.395, 8.049e-3
-1.396, 8.054e-3
-1.397, 8.051e-3
-1.398, 8.086e-3
-1.399, 8.109e-3
-1.400, 7.997e-3
-1.399, 7.798e-3
-1.398, 7.632e-3
-1.397, 7.451e-3
-1.396, 7.287e-3
-1.395, 7.145e-3
-1.394, 6.989e-3
-1.393, 6.831e-3
-1.392, 6.709e-3
-1.391, 6.585e-3
-1.390, 6.437e-3
-1.389, 6.322e-3
-1.388, 6.211e-3
-1.387, 6.075e-3
-1.386, 5.955e-3
-1.385, 5.857e-3
-1.384, 5.740e-3
-1.383, 5.623e-3
-1.382, 5.530e-3
-1.381, 5.429e-3
-1.380, 5.309e-3
-1.379, 5.213e-3
-1.378, 5.128e-3
-1.377, 5.018e-3
-1.376, 4.918e-3
-1.375, 4.838e-3
-1.374, 4.741e-3
-1.373, 4.644e-3
-1.372, 4.569e-3
-1.371, 4.490e-3
-1.370, 4.393e-3
-1.369, 4.317e-3
-1.368, 4.249e-3
-1.367, 4.153e-3
-1.366, 4.068e-3
-1.365, 4.009e-3
-1.364, 3.922e-3
-1.363, 3.830e-3
-1.362, 3.771e-3
-1.361, 3.702e-3
-1.360, 3.615e-3
-1.359, 3.545e-3
-1.358, 3.481e-3
-1.357, 3.403e-3
-1.356, 3.336e-3
-1.355, 3.284e-3
-1.354, 3.208e-3
-1.353, 3.129e-3
-1.352, 3.078e-3
-1.351, 3.018e-3
-1.350, 2.936e-3
-1.349, 2.876e-3
-1.348, 2.825e-3
-1.347, 2.757e-3
-1.346, 2.695e-3
-1.345, 2.649e-3
-1.344, 2.583e-3
-1.343, 2.519e-3
-1.342, 2.478e-3
-1.341, 2.422e-3
-1.340, 2.350e-3
-1.339, 2.306e-3
-1.338, 2.261e-3
-1.337, 2.186e-3
-1.336, 2.133e-3
-1.335, 2.099e-3
-1.334, 2.037e-3
-1.333, 1.974e-3
-1.332, 1.938e-3
-1.331, 1.891e-3
-1.330, 1.826e-3
-1.329, 1.782e-3
-1.328, 1.746e-3
-1.327, 1.683e-3
-1.326, 1.630e-3
-1.325, 1.597e-3
-1.324, 1.542e-3
-1.323, 1.485e-3
-1.322, 1.454e-3
-1.321, 1.411e-3
-1.320, 1.351e-3
-1.319, 1.311e-3
-1.318, 1.277e-3
-1.317, 1.220e-3
-1.316, 1.174e-3
-1.315, 1.150e-3
-1.314, 1.102e-3
-1.313, 1.048e-3
-1.312, 1.019e-3
-1.311, 9.819e-4
-1.310, 9.277e-4
-1.309, 8.958e-4
-1.308, 8.645e-4
-1.307, 8.109e-4
-1.306, 7.678e-4
-1.305, 7.440e-4
-1.304, 6.993e-4
-1.303, 6.481e-4
-1.302, 6.243e-4
-1.301, 5.907e-4
-1.300, 5.383e-4
-1.299, 5.078e-4
-1.298, 4.825e-4
-1.297, 4.324e-4
-1.296, 3.942e-4
-1.295, 3.733e-4
-1.294, 3.319e-4
-1.293, 2.848e-4
-1.292, 2.644e-4
-1.291, 2.326e-4
-1.290, 1.839e-4
-1.289, 1.558e-4
-1.288, 1.350e-4
-1.287, 8.811e-5
-1.286, 5.168e-5
-1.285, 3.526e-5
-1.284, -4.471e-6
-1.283, -4.824e-5
-1.282, -6.629e-5
-1.281, -9.510e-5
-1.280, -1.428e-4
-1.279, -1.674e-4
-1.278, -1.864e-4
-1.277, -2.298e-4
-1.276, -2.642e-4
-1.275, -2.783e-4
-1.274, -3.157e-4
-1.273, -3.576e-4
-1.272, -3.725e-4
-1.271, -3.974e-4
-1.270, -4.424e-4
-1.269, -4.643e-4
-1.268, -4.815e-4
-1.267, -5.229e-4
-1.266, -5.543e-4
-1.265, -5.667e-4
-1.264, -6.005e-4
-1.263, -6.404e-4
-1.262, -6.540e-4
-1.261, -6.777e-4
-1.260, -7.210e-4
-1.259, -7.417e-4
-1.258, -7.570e-4
-1.257, -7.981e-4
-1.256, -8.268e-4
-1.255, -8.386e-4
-1.254, -8.717e-4
-1.253, -9.098e-4
-1.252, -9.210e-4
-1.251, -9.445e-4
-1.250, -9.865e-4
-1.249, -1.006e-3
-1.248, -1.017e-3
-1.247, -1.055e-3
-1.246, -1.085e-3
-1.245, -1.096e-3
-1.244, -1.127e-3
-1.243, -1.160e-3
-1.242, -1.172e-3
-1.241, -1.194e-3
-1.240, -1.234e-3
-1.239, -1.253e-3
-1.238, -1.265e-3
-1.237, -1.301e-3
-1.236, -1.329e-3
-1.235, -1.336e-3
-1.234, -1.368e-3
-1.233, -1.404e-3
-1.232, -1.413e-3
-1.231, -1.434e-3
-1.230, -1.473e-3
-1.229, -1.494e-3
-1.228, -1.508e-3
-1.227, -1.543e-3
-1.226, -1.567e-3
-1.225, -1.574e-3
-1.224, -1.604e-3
-1.223, -1.639e-3
-1.222, -1.648e-3
-1.221, -1.668e-3
-1.220, -1.707e-3
-1.219, -1.727e-3
-1.218, -1.738e-3
-1.217, -1.774e-3
-1.216, -1.798e-3
-1.215, -1.806e-3
-1.214, -1.834e-3
-1.213, -1.870e-3
-1.212, -1.882e-3
-1.211, -1.901e-3
-1.210, -1.939e-3
-1.209, -1.953e-3
-1.208, -1.964e-3
-1.207, -2.002e-3
-1.206, -2.030e-3
-1.205, -2.036e-3
-1.204, -2.065e-3
-1.203, -2.099e-3
-1.202, -2.111e-3
-1.201, -2.133e-3
-1.200, -2.171e-3
-1.199, -2.184e-3
-1.198, -2.193e-3
-1.197, -2.229e-3
-1.196, -2.260e-3
-1.195, -2.267e-3
-1.194, -2.291e-3
-1.193, -2.326e-3
-1.192, -2.339e-3
-1.191, -2.362e-3
-1.190, -2.402e-3
-1.189, -2.418e-3
-1.188, -2.430e-3
-1.187, -2.466e-3
-1.186, -2.493e-3
-1.185, -2.502e-3
-1.184, -2.530e-3
-1.183, -2.562e-3
-1.182, -2.572e-3
-1.181, -2.596e-3
-1.180, -2.635e-3
-1.179, -2.650e-3
-1.178, -2.662e-3
-1.177, -2.699e-3
-1.176, -2.724e-3
-1.175, -2.731e-3
-1.174, -2.759e-3
-1.173, -2.796e-3
-1.172, -2.809e-3
-1.171, -2.830e-3
-1.170, -2.867e-3
-1.169, -2.881e-3
-1.168, -2.890e-3
-1.167, -2.926e-3
-1.166, -2.954e-3
-1.165, -2.961e-3
-1.164, -2.991e-3
-1.163, -3.028e-3
-1.162, -3.039e-3
-1.161, -3.062e-3
-1.160, -3.102e-3
-1.159, -3.117e-3
-1.158, -3.127e-3
-1.157, -3.162e-3
-1.156, -3.191e-3
-1.155, -3.202e-3
-1.154, -3.230e-3
-1.153, -3.265e-3
-1.152, -3.274e-3
-1.151, -3.294e-3
-1.150, -3.334e-3
-1.149, -3.353e-3
-1.148, -3.365e-3
-1.147, -3.399e-3
-1.146, -3.421e-3
-1.145, -3.432e-3
-1.144, -3.461e-3
-1.143, -3.492e-3
-1.142, -3.501e-3
-1.141, -3.521e-3
-1.140, -3.560e-3
-1.139, -3.577e-3
-1.138, -3.591e-3
-1.137, -3.629e-3
-1.136, -3.655e-3
-1.135, -3.669e-3
-1.134, -3.695e-3
-1.133, -3.724e-3
-1.132, -3.733e-3
-1.131, -3.753e-3
-1.130, -3.789e-3
-1.129, -3.800e-3
-1.128, -3.807e-3
-1.127, -3.842e-3
-1.126, -3.871e-3
-1.125, -3.884e-3
-1.124, -3.918e-3
-1.123, -3.949e-3
-1.122, -3.954e-3
-1.121, -3.983e-3
-1.120, -4.032e-3
-1.119, -4.044e-3
-1.118, -4.049e-3
-1.117, -4.081e-3
-1.116, -4.107e-3
-1.115, -4.117e-3
-1.114, -4.142e-3
-1.113, -4.173e-3
-1.112, -4.183e-3
-1.111, -4.204e-3
-1.110, -4.241e-3
-1.109, -4.254e-3
-1.108, -4.263e-3
-1.107, -4.303e-3
-1.106, -4.330e-3
-1.105, -4.333e-3
-1.104, -4.357e-3
-1.103, -4.393e-3
-1.102, -4.406e-3
-1.101, -4.429e-3
-1.100, -4.465e-3
-1.099, -4.476e-3
-1.098, -4.485e-3
-1.097, -4.521e-3
-1.096, -4.551e-3
-1.095, -4.562e-3
-1.094, -4.587e-3
-1.093, -4.617e-3
-1.092, -4.627e-3
-1.091, -4.649e-3
-1.090, -4.690e-3
-1.089, -4.702e-3
-1.088, -4.708e-3
-1.087, -4.744e-3
-1.086, -4.768e-3
-1.085, -4.769e-3
-1.084, -4.793e-3
-1.083, -4.825e-3
-1.082, -4.836e-3
-1.081, -4.856e-3
-1.080, -4.884e-3
-1.079, -4.893e-3
-1.078, -4.910e-3
-1.077, -4.949e-3
-1.076, -4.978e-3
-1.075, -4.987e-3
-1.074, -5.005e-3
-1.073, -5.031e-3
-1.072, -5.034e-3
-1.071, -5.055e-3
-1.070, -5.093e-3
-1.069, -5.105e-3
-1.068, -5.110e-3
-1.067, -5.142e-3
-1.066, -5.162e-3
-1.065, -5.167e-3
-1.064, -5.198e-3
-1.063, -5.233e-3
-1.062, -5.241e-3
-1.061, -5.259e-3
-1.060, -5.297e-3
-1.059, -5.311e-3
-1.058, -5.320e-3
-1.057, -5.348e-3
-1.056, -5.364e-3
-1.055, -5.369e-3
-1.054, -5.399e-3
-1.053, -5.430e-3
-1.052, -5.436e-3
-1.051, -5.447e-3
-1.050, -5.478e-3
-1.049, -5.493e-3
-1.048, -5.498e-3
-1.047, -5.532e-3
-1.046, -5.556e-3
-1.045, -5.558e-3
-1.044, -5.585e-3
-1.043, -5.613e-3
-1.042, -5.618e-3
-1.041, -5.632e-3
-1.040, -5.659e-3
-1.039, -5.672e-3
-1.038, -5.678e-3
-1.037, -5.709e-3
-1.036, -5.734e-3
-1.035, -5.730e-3
-1.034, -5.756e-3
-1.033, -5.790e-3
-1.032, -5.789e-3
-1.031, -5.806e-3
-1.030, -5.837e-3
-1.029, -5.849e-3
-1.028, -5.856e-3
-1.027, -5.886e-3
-1.026, -5.907e-3
-1.025, -5.909e-3
-1.024, -5.936e-3
-1.023, -5.966e-3
-1.022, -5.972e-3
-1.021, -5.985e-3
-1.020, -6.013e-3
-1.019, -6.019e-3
-1.018, -6.027e-3
-1.017, -6.062e-3
-1.016, -6.081e-3
-1.015, -6.079e-3
-1.014, -6.102e-3
-1.013, -6.136e-3
-1.012, -6.142e-3
-1.011, -6.153e-3
-1.010, -6.185e-3
-1.009, -6.198e-3
-1.008, -6.184e-3
-1.007, -6.211e-3
-1.006, -6.230e-3
-1.005, -6.235e-3
-1.004, -6.262e-3
-1.003, -6.294e-3
-1.002, -6.296e-3
-1.001, -6.303e-3
