Jan. 13, 2025   22:26:54
Cyclic Voltammetry
File: c:/users/guazh/data/banditlqround7_x0exp772_r5/2025-01-10-exp837\exp837-2025-01-13t22_18_04-arkoh\exp837_cv_sr_900mvs_efin_-1400mv.bin
Data Source:  Experiment
Instrument Model:  CHI760E
Header: CV ran at 900 mVs
Note: 

Init E (V) = -1
High E (V) = -1
Low E (V) = -1.4
Final E (V) = -1
Init P/N = N
Scan Rate (V/s) = 0.9
Segment = 3
Sample Interval (V) = 0.001
Quiet Time (sec) = 2
Sensitivity (A/V) = 0.01
Comp R (ohm) = 1.5

Results:

Channel 1:
Segment 1:

Segment 2:

Segment 3:

Potential/V, Current/A

-1.000, -6.935e-4
-1.001, -5.610e-4
-1.002, -4.346e-4
-1.003, -3.205e-4
-1.004, -2.064e-4
-1.005, -9.850e-5
-1.006, 6.322e-6
-1.007, 1.050e-4
-1.008, 2.006e-4
-1.009, 2.961e-4
-1.010, 3.886e-4
-1.011, 4.811e-4
-1.012, 5.767e-4
-1.013, 6.661e-4
-1.014, 7.617e-4
-1.015, 8.542e-4
-1.016, 9.467e-4
-1.017, 1.036e-3
-1.018, 1.122e-3
-1.019, 1.206e-3
-1.020, 1.289e-3
-1.021, 1.363e-3
-1.022, 1.437e-3
-1.023, 1.511e-3
-1.024, 1.588e-3
-1.025, 1.662e-3
-1.026, 1.736e-3
-1.027, 1.810e-3
-1.028, 1.887e-3
-1.029, 1.964e-3
-1.030, 2.041e-3
-1.031, 2.115e-3
-1.032, 2.186e-3
-1.033, 2.260e-3
-1.034, 2.328e-3
-1.035, 2.396e-3
-1.036, 2.457e-3
-1.037, 2.519e-3
-1.038, 2.584e-3
-1.039, 2.645e-3
-1.040, 2.707e-3
-1.041, 2.769e-3
-1.042, 2.837e-3
-1.043, 2.901e-3
-1.044, 2.972e-3
-1.045, 3.037e-3
-1.046, 3.105e-3
-1.047, 3.167e-3
-1.048, 3.234e-3
-1.049, 3.293e-3
-1.050, 3.351e-3
-1.051, 3.404e-3
-1.052, 3.459e-3
-1.053, 3.509e-3
-1.054, 3.564e-3
-1.055, 3.620e-3
-1.056, 3.672e-3
-1.057, 3.734e-3
-1.058, 3.795e-3
-1.059, 3.854e-3
-1.060, 3.916e-3
-1.061, 3.977e-3
-1.062, 4.039e-3
-1.063, 4.101e-3
-1.064, 4.156e-3
-1.065, 4.215e-3
-1.066, 4.264e-3
-1.067, 4.320e-3
-1.068, 4.369e-3
-1.069, 4.418e-3
-1.070, 4.471e-3
-1.071, 4.523e-3
-1.072, 4.575e-3
-1.073, 4.634e-3
-1.074, 4.690e-3
-1.075, 4.748e-3
-1.076, 4.810e-3
-1.077, 4.865e-3
-1.078, 4.921e-3
-1.079, 4.970e-3
-1.080, 5.023e-3
-1.081, 5.072e-3
-1.082, 5.118e-3
-1.083, 5.164e-3
-1.084, 5.211e-3
-1.085, 5.260e-3
-1.086, 5.312e-3
-1.087, 5.365e-3
-1.088, 5.420e-3
-1.089, 5.476e-3
-1.090, 5.534e-3
-1.091, 5.596e-3
-1.092, 5.651e-3
-1.093, 5.710e-3
-1.094, 5.759e-3
-1.095, 5.812e-3
-1.096, 5.861e-3
-1.097, 5.910e-3
-1.098, 5.954e-3
-1.099, 6.000e-3
-1.100, 6.049e-3
-1.101, 6.095e-3
-1.102, 6.148e-3
-1.103, 6.197e-3
-1.104, 6.250e-3
-1.105, 6.302e-3
-1.106, 6.358e-3
-1.107, 6.410e-3
-1.108, 6.462e-3
-1.109, 6.512e-3
-1.110, 6.564e-3
-1.111, 6.613e-3
-1.112, 6.660e-3
-1.113, 6.703e-3
-1.114, 6.752e-3
-1.115, 6.795e-3
-1.116, 6.845e-3
-1.117, 6.897e-3
-1.118, 6.953e-3
-1.119, 7.008e-3
-1.120, 7.060e-3
-1.121, 7.119e-3
-1.122, 7.171e-3
-1.123, 7.227e-3
-1.124, 7.279e-3
-1.125, 7.329e-3
-1.126, 7.378e-3
-1.127, 7.421e-3
-1.128, 7.467e-3
-1.129, 7.517e-3
-1.130, 7.563e-3
-1.131, 7.612e-3
-1.132, 7.662e-3
-1.133, 7.714e-3
-1.134, 7.767e-3
-1.135, 7.822e-3
-1.136, 7.874e-3
-1.137, 7.927e-3
-1.138, 7.979e-3
-1.139, 8.025e-3
-1.140, 8.072e-3
-1.141, 8.118e-3
-1.142, 8.158e-3
-1.143, 8.204e-3
-1.144, 8.247e-3
-1.145, 8.294e-3
-1.146, 8.340e-3
-1.147, 8.392e-3
-1.148, 8.448e-3
-1.149, 8.503e-3
-1.150, 8.559e-3
-1.151, 8.614e-3
-1.152, 8.667e-3
-1.153, 8.725e-3
-1.154, 8.775e-3
-1.155, 8.824e-3
-1.156, 8.873e-3
-1.157, 8.920e-3
-1.158, 8.969e-3
-1.159, 9.015e-3
-1.160, 9.058e-3
-1.161, 9.108e-3
-1.162, 9.160e-3
-1.163, 9.212e-3
-1.164, 9.265e-3
-1.165, 9.311e-3
-1.166, 9.367e-3
-1.167, 9.419e-3
-1.168, 9.465e-3
-1.169, 9.515e-3
-1.170, 9.561e-3
-1.171, 9.601e-3
-1.172, 9.644e-3
-1.173, 9.684e-3
-1.174, 9.727e-3
-1.175, 9.771e-3
-1.176, 9.817e-3
-1.177, 9.863e-3
-1.178, 9.915e-3
-1.179, 9.968e-3
-1.180, 1.002e-2
-1.181, 1.008e-2
-1.182, 1.013e-2
-1.183, 1.019e-2
-1.184, 1.024e-2
-1.185, 1.029e-2
-1.186, 1.034e-2
-1.187, 1.039e-2
-1.188, 1.043e-2
-1.189, 1.047e-2
-1.190, 1.051e-2
-1.191, 1.056e-2
-1.192, 1.060e-2
-1.193, 1.066e-2
-1.194, 1.070e-2
-1.195, 1.075e-2
-1.196, 1.081e-2
-1.197, 1.086e-2
-1.198, 1.091e-2
-1.199, 1.096e-2
-1.200, 1.101e-2
-1.201, 1.106e-2
-1.202, 1.110e-2
-1.203, 1.114e-2
-1.204, 1.119e-2
-1.205, 1.123e-2
-1.206, 1.128e-2
-1.207, 1.132e-2
-1.208, 1.137e-2
-1.209, 1.142e-2
-1.210, 1.147e-2
-1.211, 1.153e-2
-1.212, 1.157e-2
-1.213, 1.162e-2
-1.214, 1.167e-2
-1.215, 1.172e-2
-1.216, 1.176e-2
-1.217, 1.181e-2
-1.218, 1.185e-2
-1.219, 1.189e-2
-1.220, 1.193e-2
-1.221, 1.197e-2
-1.222, 1.202e-2
-1.223, 1.207e-2
-1.224, 1.212e-2
-1.225, 1.217e-2
-1.226, 1.222e-2
-1.227, 1.227e-2
-1.228, 1.232e-2
-1.229, 1.236e-2
-1.230, 1.240e-2
-1.231, 1.244e-2
-1.232, 1.247e-2
-1.233, 1.251e-2
-1.234, 1.255e-2
-1.235, 1.258e-2
-1.236, 1.262e-2
-1.237, 1.267e-2
-1.238, 1.271e-2
-1.239, 1.276e-2
-1.240, 1.281e-2
-1.241, 1.287e-2
-1.242, 1.291e-2
-1.243, 1.296e-2
-1.244, 1.301e-2
-1.245, 1.305e-2
-1.246, 1.309e-2
-1.247, 1.313e-2
-1.248, 1.317e-2
-1.249, 1.321e-2
-1.250, 1.325e-2
-1.251, 1.329e-2
-1.252, 1.333e-2
-1.253, 1.337e-2
-1.254, 1.342e-2
-1.255, 1.347e-2
-1.256, 1.352e-2
-1.257, 1.357e-2
-1.258, 1.362e-2
-1.259, 1.366e-2
-1.260, 1.370e-2
-1.261, 1.374e-2
-1.262, 1.378e-2
-1.263, 1.382e-2
-1.264, 1.386e-2
-1.265, 1.390e-2
-1.266, 1.395e-2
-1.267, 1.399e-2
-1.268, 1.404e-2
-1.269, 1.408e-2
-1.270, 1.412e-2
-1.271, 1.417e-2
-1.272, 1.421e-2
-1.273, 1.426e-2
-1.274, 1.430e-2
-1.275, 1.435e-2
-1.276, 1.439e-2
-1.277, 1.443e-2
-1.278, 1.447e-2
-1.279, 1.451e-2
-1.280, 1.456e-2
-1.281, 1.460e-2
-1.282, 1.464e-2
-1.283, 1.468e-2
-1.284, 1.473e-2
-1.285, 1.477e-2
-1.286, 1.481e-2
-1.287, 1.485e-2
-1.288, 1.489e-2
-1.289, 1.493e-2
-1.290, 1.497e-2
-1.291, 1.501e-2
-1.292, 1.504e-2
-1.293, 1.507e-2
-1.294, 1.511e-2
-1.295, 1.514e-2
-1.296, 1.518e-2
-1.297, 1.522e-2
-1.298, 1.527e-2
-1.299, 1.532e-2
-1.300, 1.537e-2
-1.301, 1.542e-2
-1.302, 1.547e-2
-1.303, 1.553e-2
-1.304, 1.557e-2
-1.305, 1.562e-2
-1.306, 1.567e-2
-1.307, 1.571e-2
-1.308, 1.573e-2
-1.309, 1.576e-2
-1.310, 1.579e-2
-1.311, 1.582e-2
-1.312, 1.585e-2
-1.313, 1.588e-2
-1.314, 1.592e-2
-1.315, 1.596e-2
-1.316, 1.601e-2
-1.317, 1.605e-2
-1.318, 1.610e-2
-1.319, 1.614e-2
-1.320, 1.619e-2
-1.321, 1.623e-2
-1.322, 1.627e-2
-1.323, 1.631e-2
-1.324, 1.636e-2
-1.325, 1.640e-2
-1.326, 1.644e-2
-1.327, 1.649e-2
-1.328, 1.653e-2
-1.329, 1.659e-2
-1.330, 1.665e-2
-1.331, 1.671e-2
-1.332, 1.676e-2
-1.333, 1.682e-2
-1.334, 1.686e-2
-1.335, 1.690e-2
-1.336, 1.694e-2
-1.337, 1.697e-2
-1.338, 1.700e-2
-1.339, 1.703e-2
-1.340, 1.707e-2
-1.341, 1.711e-2
-1.342, 1.715e-2
-1.343, 1.719e-2
-1.344, 1.724e-2
-1.345, 1.728e-2
-1.346, 1.732e-2
-1.347, 1.735e-2
-1.348, 1.738e-2
-1.349, 1.741e-2
-1.350, 1.744e-2
-1.351, 1.747e-2
-1.352, 1.750e-2
-1.353, 1.754e-2
-1.354, 1.758e-2
-1.355, 1.761e-2
-1.356, 1.765e-2
-1.357, 1.769e-2
-1.358, 1.774e-2
-1.359, 1.779e-2
-1.360, 1.784e-2
-1.361, 1.789e-2
-1.362, 1.794e-2
-1.363, 1.799e-2
-1.364, 1.803e-2
-1.365, 1.806e-2
-1.366, 1.810e-2
-1.367, 1.813e-2
-1.368, 1.816e-2
-1.369, 1.819e-2
-1.370, 1.821e-2
-1.371, 1.823e-2
-1.372, 1.827e-2
-1.373, 1.830e-2
-1.374, 1.834e-2
-1.375, 1.838e-2
-1.376, 1.843e-2
-1.377, 1.848e-2
-1.378, 1.853e-2
-1.379, 1.857e-2
-1.380, 1.862e-2
-1.381, 1.867e-2
-1.382, 1.872e-2
-1.383, 1.876e-2
-1.384, 1.879e-2
-1.385, 1.883e-2
-1.386, 1.887e-2
-1.387, 1.890e-2
-1.388, 1.893e-2
-1.389, 1.896e-2
-1.390, 1.899e-2
-1.391, 1.902e-2
-1.392, 1.904e-2
-1.393, 1.907e-2
-1.394, 1.909e-2
-1.395, 1.912e-2
-1.396, 1.915e-2
-1.397, 1.918e-2
-1.398, 1.921e-2
-1.399, 1.925e-2
-1.400, 1.920e-2
-1.399, 1.898e-2
-1.398, 1.879e-2
-1.397, 1.860e-2
-1.396, 1.842e-2
-1.395, 1.825e-2
-1.394, 1.808e-2
-1.393, 1.790e-2
-1.392, 1.773e-2
-1.391, 1.755e-2
-1.390, 1.737e-2
-1.389, 1.719e-2
-1.388, 1.701e-2
-1.387, 1.684e-2
-1.386, 1.666e-2
-1.385, 1.648e-2
-1.384, 1.631e-2
-1.383, 1.613e-2
-1.382, 1.596e-2
-1.381, 1.579e-2
-1.380, 1.562e-2
-1.379, 1.547e-2
-1.378, 1.530e-2
-1.377, 1.515e-2
-1.376, 1.499e-2
-1.375, 1.484e-2
-1.374, 1.468e-2
-1.373, 1.453e-2
-1.372, 1.438e-2
-1.371, 1.424e-2
-1.370, 1.409e-2
-1.369, 1.395e-2
-1.368, 1.381e-2
-1.367, 1.367e-2
-1.366, 1.354e-2
-1.365, 1.341e-2
-1.364, 1.327e-2
-1.363, 1.314e-2
-1.362, 1.300e-2
-1.361, 1.286e-2
-1.360, 1.272e-2
-1.359, 1.257e-2
-1.358, 1.243e-2
-1.357, 1.228e-2
-1.356, 1.213e-2
-1.355, 1.198e-2
-1.354, 1.184e-2
-1.353, 1.171e-2
-1.352, 1.157e-2
-1.351, 1.144e-2
-1.350, 1.131e-2
-1.349, 1.119e-2
-1.348, 1.106e-2
-1.347, 1.093e-2
-1.346, 1.080e-2
-1.345, 1.068e-2
-1.344, 1.055e-2
-1.343, 1.042e-2
-1.342, 1.030e-2
-1.341, 1.017e-2
-1.340, 1.004e-2
-1.339, 9.922e-3
-1.338, 9.801e-3
-1.337, 9.681e-3
-1.336, 9.561e-3
-1.335, 9.444e-3
-1.334, 9.330e-3
-1.333, 9.216e-3
-1.332, 9.101e-3
-1.331, 8.981e-3
-1.330, 8.861e-3
-1.329, 8.735e-3
-1.328, 8.611e-3
-1.327, 8.485e-3
-1.326, 8.362e-3
-1.325, 8.241e-3
-1.324, 8.118e-3
-1.323, 8.007e-3
-1.322, 7.896e-3
-1.321, 7.788e-3
-1.320, 7.680e-3
-1.319, 7.578e-3
-1.318, 7.477e-3
-1.317, 7.375e-3
-1.316, 7.270e-3
-1.315, 7.165e-3
-1.314, 7.060e-3
-1.313, 6.949e-3
-1.312, 6.845e-3
-1.311, 6.737e-3
-1.310, 6.629e-3
-1.309, 6.524e-3
-1.308, 6.422e-3
-1.307, 6.321e-3
-1.306, 6.219e-3
-1.305, 6.117e-3
-1.304, 6.021e-3
-1.303, 5.923e-3
-1.302, 5.821e-3
-1.301, 5.713e-3
-1.300, 5.611e-3
-1.299, 5.504e-3
-1.298, 5.402e-3
-1.297, 5.294e-3
-1.296, 5.189e-3
-1.295, 5.090e-3
-1.294, 4.989e-3
-1.293, 4.896e-3
-1.292, 4.804e-3
-1.291, 4.711e-3
-1.290, 4.619e-3
-1.289, 4.535e-3
-1.288, 4.440e-3
-1.287, 4.350e-3
-1.286, 4.255e-3
-1.285, 4.162e-3
-1.284, 4.064e-3
-1.283, 3.968e-3
-1.282, 3.869e-3
-1.281, 3.774e-3
-1.280, 3.678e-3
-1.279, 3.586e-3
-1.278, 3.496e-3
-1.277, 3.407e-3
-1.276, 3.324e-3
-1.275, 3.237e-3
-1.274, 3.157e-3
-1.273, 3.068e-3
-1.272, 2.985e-3
-1.271, 2.898e-3
-1.270, 2.815e-3
-1.269, 2.726e-3
-1.268, 2.636e-3
-1.267, 2.547e-3
-1.266, 2.457e-3
-1.265, 2.368e-3
-1.264, 2.282e-3
-1.263, 2.198e-3
-1.262, 2.118e-3
-1.261, 2.044e-3
-1.260, 1.964e-3
-1.259, 1.893e-3
-1.258, 1.813e-3
-1.257, 1.739e-3
-1.256, 1.659e-3
-1.255, 1.579e-3
-1.254, 1.495e-3
-1.253, 1.412e-3
-1.252, 1.326e-3
-1.251, 1.249e-3
-1.250, 1.169e-3
-1.249, 1.088e-3
-1.248, 1.011e-3
-1.247, 9.374e-4
-1.246, 8.665e-4
-1.245, 7.925e-4
-1.244, 7.216e-4
-1.243, 6.507e-4
-1.242, 5.798e-4
-1.241, 5.027e-4
-1.240, 4.287e-4
-1.239, 3.516e-4
-1.238, 2.776e-4
-1.237, 2.006e-4
-1.236, 1.235e-4
-1.235, 4.949e-5
-1.234, -2.759e-5
-1.233, -9.850e-5
-1.232, -1.663e-4
-1.231, -2.311e-4
-1.230, -3.020e-4
-1.229, -3.667e-4
-1.228, -4.315e-4
-1.227, -4.993e-4
-1.226, -5.702e-4
-1.225, -6.380e-4
-1.224, -7.120e-4
-1.223, -7.830e-4
-1.222, -8.569e-4
-1.221, -9.279e-4
-1.220, -9.988e-4
-1.219, -1.070e-3
-1.218, -1.131e-3
-1.217, -1.196e-3
-1.216, -1.258e-3
-1.215, -1.319e-3
-1.214, -1.378e-3
-1.213, -1.437e-3
-1.212, -1.498e-3
-1.211, -1.563e-3
-1.210, -1.628e-3
-1.209, -1.692e-3
-1.208, -1.757e-3
-1.207, -1.828e-3
-1.206, -1.893e-3
-1.205, -1.958e-3
-1.204, -2.025e-3
-1.203, -2.084e-3
-1.202, -2.146e-3
-1.201, -2.204e-3
-1.200, -2.263e-3
-1.199, -2.318e-3
-1.198, -2.380e-3
-1.197, -2.436e-3
-1.196, -2.500e-3
-1.195, -2.559e-3
-1.194, -2.624e-3
-1.193, -2.688e-3
-1.192, -2.750e-3
-1.191, -2.815e-3
-1.190, -2.876e-3
-1.189, -2.935e-3
-1.188, -2.994e-3
-1.187, -3.049e-3
-1.186, -3.098e-3
-1.185, -3.151e-3
-1.184, -3.197e-3
-1.183, -3.253e-3
-1.182, -3.305e-3
-1.181, -3.364e-3
-1.180, -3.419e-3
-1.179, -3.478e-3
-1.178, -3.542e-3
-1.177, -3.604e-3
-1.176, -3.663e-3
-1.175, -3.721e-3
-1.174, -3.780e-3
-1.173, -3.832e-3
-1.172, -3.888e-3
-1.171, -3.937e-3
-1.170, -3.989e-3
-1.169, -4.036e-3
-1.168, -4.091e-3
-1.167, -4.144e-3
-1.166, -4.199e-3
-1.165, -4.255e-3
-1.164, -4.313e-3
-1.163, -4.372e-3
-1.162, -4.430e-3
-1.161, -4.489e-3
-1.160, -4.544e-3
-1.159, -4.600e-3
-1.158, -4.649e-3
-1.157, -4.699e-3
-1.156, -4.745e-3
-1.155, -4.794e-3
-1.154, -4.837e-3
-1.153, -4.887e-3
-1.152, -4.933e-3
-1.151, -4.985e-3
-1.150, -5.038e-3
-1.149, -5.093e-3
-1.148, -5.149e-3
-1.147, -5.204e-3
-1.146, -5.260e-3
-1.145, -5.318e-3
-1.144, -5.371e-3
-1.143, -5.420e-3
-1.142, -5.466e-3
-1.141, -5.512e-3
-1.140, -5.559e-3
-1.139, -5.602e-3
-1.138, -5.648e-3
-1.137, -5.694e-3
-1.136, -5.741e-3
-1.135, -5.787e-3
-1.134, -5.839e-3
-1.133, -5.892e-3
-1.132, -5.944e-3
-1.131, -5.996e-3
-1.130, -6.046e-3
-1.129, -6.098e-3
-1.128, -6.144e-3
-1.127, -6.191e-3
-1.126, -6.234e-3
-1.125, -6.274e-3
-1.124, -6.314e-3
-1.123, -6.351e-3
-1.122, -6.394e-3
-1.121, -6.437e-3
-1.120, -6.484e-3
-1.119, -6.539e-3
-1.118, -6.595e-3
-1.117, -6.653e-3
-1.116, -6.712e-3
-1.115, -6.770e-3
-1.114, -6.832e-3
-1.113, -6.878e-3
-1.112, -6.931e-3
-1.111, -6.977e-3
-1.110, -7.026e-3
-1.109, -7.066e-3
-1.108, -7.113e-3
-1.107, -7.156e-3
-1.106, -7.199e-3
-1.105, -7.245e-3
-1.104, -7.288e-3
-1.103, -7.335e-3
-1.102, -7.381e-3
-1.101, -7.424e-3
-1.100, -7.467e-3
-1.099, -7.510e-3
-1.098, -7.544e-3
-1.097, -7.581e-3
-1.096, -7.612e-3
-1.095, -7.652e-3
-1.094, -7.683e-3
-1.093, -7.720e-3
-1.092, -7.760e-3
-1.091, -7.809e-3
-1.090, -7.853e-3
-1.089, -7.905e-3
-1.088, -7.954e-3
-1.087, -8.007e-3
-1.086, -8.056e-3
-1.085, -8.102e-3
-1.084, -8.152e-3
-1.083, -8.198e-3
-1.082, -8.247e-3
-1.081, -8.287e-3
-1.080, -8.330e-3
-1.079, -8.367e-3
-1.078, -8.407e-3
-1.077, -8.448e-3
-1.076, -8.491e-3
-1.075, -8.531e-3
-1.074, -8.577e-3
-1.073, -8.620e-3
-1.072, -8.666e-3
-1.071, -8.710e-3
-1.070, -8.750e-3
-1.069, -8.793e-3
-1.068, -8.830e-3
-1.067, -8.867e-3
-1.066, -8.904e-3
-1.065, -8.938e-3
-1.064, -8.972e-3
-1.063, -9.009e-3
-1.062, -9.049e-3
-1.061, -9.089e-3
-1.060, -9.132e-3
-1.059, -9.175e-3
-1.058, -9.225e-3
-1.057, -9.274e-3
-1.056, -9.320e-3
-1.055, -9.369e-3
-1.054, -9.419e-3
-1.053, -9.462e-3
-1.052, -9.505e-3
-1.051, -9.542e-3
-1.050, -9.579e-3
-1.049, -9.610e-3
-1.048, -9.647e-3
-1.047, -9.684e-3
-1.046, -9.721e-3
-1.045, -9.761e-3
-1.044, -9.804e-3
-1.043, -9.847e-3
-1.042, -9.890e-3
-1.041, -9.934e-3
-1.040, -9.977e-3
-1.039, -1.002e-2
-1.038, -1.006e-2
-1.037, -1.009e-2
-1.036, -1.013e-2
-1.035, -1.016e-2
-1.034, -1.020e-2
-1.033, -1.023e-2
-1.032, -1.027e-2
-1.031, -1.032e-2
-1.030, -1.036e-2
-1.029, -1.041e-2
-1.028, -1.045e-2
-1.027, -1.050e-2
-1.026, -1.054e-2
-1.025, -1.059e-2
-1.024, -1.063e-2
-1.023, -1.067e-2
-1.022, -1.070e-2
-1.021, -1.074e-2
-1.020, -1.077e-2
-1.019, -1.080e-2
-1.018, -1.083e-2
-1.017, -1.086e-2
-1.016, -1.090e-2
-1.015, -1.094e-2
-1.014, -1.098e-2
-1.013, -1.102e-2
-1.012, -1.106e-2
-1.011, -1.111e-2
-1.010, -1.115e-2
-1.009, -1.120e-2
-1.008, -1.124e-2
-1.007, -1.128e-2
-1.006, -1.131e-2
-1.005, -1.135e-2
-1.004, -1.139e-2
-1.003, -1.142e-2
-1.002, -1.146e-2
-1.001, -1.150e-2
