Aug. 9, 2024   13:47:33
Cyclic Voltammetry
File: c:/users/guazh/data/20240802_batch_500/2024-08-02-exp64\exp64-2024-08-09t13_28_45-arkoh\exp64_cv_sr_400mvs_efin_-1700mv.bin
Data Source:  Experiment
Instrument Model:  CHI760E
Header: CV ran at 400 mVs
Note: 

Init E (V) = -1
High E (V) = -1
Low E (V) = -1.7
Final E (V) = -1
Init P/N = N
Scan Rate (V/s) = 0.4
Segment = 3
Sample Interval (V) = 0.001
Quiet Time (sec) = 2
Sensitivity (A/V) = 0.01
Comp R (ohm) = 1.9

Results:

Channel 1:
Segment 1:

Segment 2:

Segment 3:

Potential/V, Current/A

-1.000, 9.405e-6
-1.001, 4.332e-5
-1.002, 6.182e-5
-1.003, 7.415e-5
-1.004, 8.032e-5
-1.005, 8.340e-5
-1.006, 8.957e-5
-1.007, 9.573e-5
-1.008, 1.019e-4
-1.009, 1.050e-4
-1.010, 1.081e-4
-1.011, 1.081e-4
-1.012, 1.081e-4
-1.013, 1.111e-4
-1.014, 1.142e-4
-1.015, 1.173e-4
-1.016, 1.204e-4
-1.017, 1.204e-4
-1.018, 1.173e-4
-1.019, 1.173e-4
-1.020, 1.204e-4
-1.021, 1.235e-4
-1.022, 1.266e-4
-1.023, 1.266e-4
-1.024, 1.235e-4
-1.025, 1.235e-4
-1.026, 1.235e-4
-1.027, 1.235e-4
-1.028, 1.296e-4
-1.029, 1.296e-4
-1.030, 1.266e-4
-1.031, 1.266e-4
-1.032, 1.235e-4
-1.033, 1.266e-4
-1.034, 1.296e-4
-1.035, 1.296e-4
-1.036, 1.296e-4
-1.037, 1.296e-4
-1.038, 1.266e-4
-1.039, 1.266e-4
-1.040, 1.266e-4
-1.041, 1.296e-4
-1.042, 1.296e-4
-1.043, 1.296e-4
-1.044, 1.296e-4
-1.045, 1.266e-4
-1.046, 1.266e-4
-1.047, 1.266e-4
-1.048, 1.296e-4
-1.049, 1.327e-4
-1.050, 1.296e-4
-1.051, 1.266e-4
-1.052, 1.266e-4
-1.053, 1.266e-4
-1.054, 1.296e-4
-1.055, 1.296e-4
-1.056, 1.296e-4
-1.057, 1.266e-4
-1.058, 1.266e-4
-1.059, 1.235e-4
-1.060, 1.266e-4
-1.061, 1.296e-4
-1.062, 1.296e-4
-1.063, 1.296e-4
-1.064, 1.266e-4
-1.065, 1.235e-4
-1.066, 1.235e-4
-1.067, 1.266e-4
-1.068, 1.266e-4
-1.069, 1.266e-4
-1.070, 1.266e-4
-1.071, 1.235e-4
-1.072, 1.235e-4
-1.073, 1.235e-4
-1.074, 1.266e-4
-1.075, 1.266e-4
-1.076, 1.266e-4
-1.077, 1.235e-4
-1.078, 1.235e-4
-1.079, 1.204e-4
-1.080, 1.235e-4
-1.081, 1.235e-4
-1.082, 1.266e-4
-1.083, 1.266e-4
-1.084, 1.235e-4
-1.085, 1.204e-4
-1.086, 1.204e-4
-1.087, 1.204e-4
-1.088, 1.235e-4
-1.089, 1.235e-4
-1.090, 1.235e-4
-1.091, 1.204e-4
-1.092, 1.204e-4
-1.093, 1.173e-4
-1.094, 1.204e-4
-1.095, 1.235e-4
-1.096, 1.235e-4
-1.097, 1.204e-4
-1.098, 1.173e-4
-1.099, 1.173e-4
-1.100, 1.204e-4
-1.101, 1.204e-4
-1.102, 1.235e-4
-1.103, 1.204e-4
-1.104, 1.173e-4
-1.105, 1.173e-4
-1.106, 1.173e-4
-1.107, 1.173e-4
-1.108, 1.204e-4
-1.109, 1.204e-4
-1.110, 1.173e-4
-1.111, 1.173e-4
-1.112, 1.142e-4
-1.113, 1.173e-4
-1.114, 1.173e-4
-1.115, 1.204e-4
-1.116, 1.204e-4
-1.117, 1.173e-4
-1.118, 1.142e-4
-1.119, 1.142e-4
-1.120, 1.173e-4
-1.121, 1.173e-4
-1.122, 1.173e-4
-1.123, 1.173e-4
-1.124, 1.142e-4
-1.125, 1.142e-4
-1.126, 1.142e-4
-1.127, 1.142e-4
-1.128, 1.173e-4
-1.129, 1.173e-4
-1.130, 1.173e-4
-1.131, 1.142e-4
-1.132, 1.142e-4
-1.133, 1.142e-4
-1.134, 1.142e-4
-1.135, 1.173e-4
-1.136, 1.173e-4
-1.137, 1.142e-4
-1.138, 1.142e-4
-1.139, 1.111e-4
-1.140, 1.142e-4
-1.141, 1.142e-4
-1.142, 1.173e-4
-1.143, 1.173e-4
-1.144, 1.142e-4
-1.145, 1.111e-4
-1.146, 1.111e-4
-1.147, 1.142e-4
-1.148, 1.173e-4
-1.149, 1.173e-4
-1.150, 1.142e-4
-1.151, 1.142e-4
-1.152, 1.111e-4
-1.153, 1.111e-4
-1.154, 1.142e-4
-1.155, 1.142e-4
-1.156, 1.142e-4
-1.157, 1.142e-4
-1.158, 1.111e-4
-1.159, 1.111e-4
-1.160, 1.111e-4
-1.161, 1.142e-4
-1.162, 1.142e-4
-1.163, 1.142e-4
-1.164, 1.142e-4
-1.165, 1.111e-4
-1.166, 1.111e-4
-1.167, 1.142e-4
-1.168, 1.142e-4
-1.169, 1.173e-4
-1.170, 1.142e-4
-1.171, 1.111e-4
-1.172, 1.111e-4
-1.173, 1.111e-4
-1.174, 1.142e-4
-1.175, 1.142e-4
-1.176, 1.142e-4
-1.177, 1.111e-4
-1.178, 1.111e-4
-1.179, 1.111e-4
-1.180, 1.142e-4
-1.181, 1.142e-4
-1.182, 1.142e-4
-1.183, 1.142e-4
-1.184, 1.142e-4
-1.185, 1.111e-4
-1.186, 1.111e-4
-1.187, 1.142e-4
-1.188, 1.173e-4
-1.189, 1.173e-4
-1.190, 1.142e-4
-1.191, 1.142e-4
-1.192, 1.111e-4
-1.193, 1.111e-4
-1.194, 1.142e-4
-1.195, 1.173e-4
-1.196, 1.173e-4
-1.197, 1.142e-4
-1.198, 1.142e-4
-1.199, 1.142e-4
-1.200, 1.142e-4
-1.201, 1.173e-4
-1.202, 1.173e-4
-1.203, 1.173e-4
-1.204, 1.173e-4
-1.205, 1.142e-4
-1.206, 1.142e-4
-1.207, 1.173e-4
-1.208, 1.204e-4
-1.209, 1.204e-4
-1.210, 1.173e-4
-1.211, 1.173e-4
-1.212, 1.142e-4
-1.213, 1.173e-4
-1.214, 1.204e-4
-1.215, 1.204e-4
-1.216, 1.204e-4
-1.217, 1.173e-4
-1.218, 1.173e-4
-1.219, 1.173e-4
-1.220, 1.204e-4
-1.221, 1.204e-4
-1.222, 1.204e-4
-1.223, 1.204e-4
-1.224, 1.204e-4
-1.225, 1.204e-4
-1.226, 1.204e-4
-1.227, 1.204e-4
-1.228, 1.235e-4
-1.229, 1.235e-4
-1.230, 1.235e-4
-1.231, 1.204e-4
-1.232, 1.235e-4
-1.233, 1.235e-4
-1.234, 1.235e-4
-1.235, 1.266e-4
-1.236, 1.266e-4
-1.237, 1.235e-4
-1.238, 1.235e-4
-1.239, 1.235e-4
-1.240, 1.266e-4
-1.241, 1.266e-4
-1.242, 1.266e-4
-1.243, 1.266e-4
-1.244, 1.266e-4
-1.245, 1.266e-4
-1.246, 1.266e-4
-1.247, 1.296e-4
-1.248, 1.327e-4
-1.249, 1.296e-4
-1.250, 1.296e-4
-1.251, 1.296e-4
-1.252, 1.296e-4
-1.253, 1.296e-4
-1.254, 1.327e-4
-1.255, 1.327e-4
-1.256, 1.327e-4
-1.257, 1.327e-4
-1.258, 1.327e-4
-1.259, 1.327e-4
-1.260, 1.327e-4
-1.261, 1.358e-4
-1.262, 1.358e-4
-1.263, 1.358e-4
-1.264, 1.358e-4
-1.265, 1.327e-4
-1.266, 1.358e-4
-1.267, 1.389e-4
-1.268, 1.420e-4
-1.269, 1.389e-4
-1.270, 1.389e-4
-1.271, 1.389e-4
-1.272, 1.389e-4
-1.273, 1.389e-4
-1.274, 1.420e-4
-1.275, 1.451e-4
-1.276, 1.420e-4
-1.277, 1.420e-4
-1.278, 1.420e-4
-1.279, 1.420e-4
-1.280, 1.451e-4
-1.281, 1.451e-4
-1.282, 1.481e-4
-1.283, 1.481e-4
-1.284, 1.451e-4
-1.285, 1.451e-4
-1.286, 1.451e-4
-1.287, 1.481e-4
-1.288, 1.512e-4
-1.289, 1.512e-4
-1.290, 1.481e-4
-1.291, 1.481e-4
-1.292, 1.481e-4
-1.293, 1.481e-4
-1.294, 1.512e-4
-1.295, 1.543e-4
-1.296, 1.543e-4
-1.297, 1.512e-4
-1.298, 1.512e-4
-1.299, 1.512e-4
-1.300, 1.543e-4
-1.301, 1.574e-4
-1.302, 1.574e-4
-1.303, 1.574e-4
-1.304, 1.574e-4
-1.305, 1.543e-4
-1.306, 1.574e-4
-1.307, 1.605e-4
-1.308, 1.636e-4
-1.309, 1.636e-4
-1.310, 1.636e-4
-1.311, 1.605e-4
-1.312, 1.636e-4
-1.313, 1.636e-4
-1.314, 1.666e-4
-1.315, 1.666e-4
-1.316, 1.666e-4
-1.317, 1.666e-4
-1.318, 1.666e-4
-1.319, 1.666e-4
-1.320, 1.697e-4
-1.321, 1.728e-4
-1.322, 1.728e-4
-1.323, 1.728e-4
-1.324, 1.728e-4
-1.325, 1.728e-4
-1.326, 1.728e-4
-1.327, 1.759e-4
-1.328, 1.790e-4
-1.329, 1.790e-4
-1.330, 1.790e-4
-1.331, 1.790e-4
-1.332, 1.790e-4
-1.333, 1.821e-4
-1.334, 1.821e-4
-1.335, 1.851e-4
-1.336, 1.851e-4
-1.337, 1.851e-4
-1.338, 1.851e-4
-1.339, 1.851e-4
-1.340, 1.882e-4
-1.341, 1.913e-4
-1.342, 1.944e-4
-1.343, 1.944e-4
-1.344, 1.944e-4
-1.345, 1.944e-4
-1.346, 1.944e-4
-1.347, 1.975e-4
-1.348, 2.036e-4
-1.349, 2.006e-4
-1.350, 2.036e-4
-1.351, 2.036e-4
-1.352, 2.036e-4
-1.353, 2.067e-4
-1.354, 2.098e-4
-1.355, 2.129e-4
-1.356, 2.129e-4
-1.357, 2.129e-4
-1.358, 2.129e-4
-1.359, 2.160e-4
-1.360, 2.160e-4
-1.361, 2.221e-4
-1.362, 2.221e-4
-1.363, 2.252e-4
-1.364, 2.252e-4
-1.365, 2.252e-4
-1.366, 2.283e-4
-1.367, 2.314e-4
-1.368, 2.345e-4
-1.369, 2.376e-4
-1.370, 2.376e-4
-1.371, 2.376e-4
-1.372, 2.406e-4
-1.373, 2.437e-4
-1.374, 2.468e-4
-1.375, 2.499e-4
-1.376, 2.530e-4
-1.377, 2.530e-4
-1.378, 2.530e-4
-1.379, 2.561e-4
-1.380, 2.622e-4
-1.381, 2.653e-4
-1.382, 2.684e-4
-1.383, 2.715e-4
-1.384, 2.715e-4
-1.385, 2.746e-4
-1.386, 2.776e-4
-1.387, 2.807e-4
-1.388, 2.869e-4
-1.389, 2.900e-4
-1.390, 2.900e-4
-1.391, 2.931e-4
-1.392, 2.961e-4
-1.393, 2.992e-4
-1.394, 3.054e-4
-1.395, 3.085e-4
-1.396, 3.115e-4
-1.397, 3.146e-4
-1.398, 3.177e-4
-1.399, 3.208e-4
-1.400, 3.239e-4
-1.401, 3.300e-4
-1.402, 3.331e-4
-1.403, 3.362e-4
-1.404, 3.393e-4
-1.405, 3.455e-4
-1.406, 3.485e-4
-1.407, 3.547e-4
-1.408, 3.578e-4
-1.409, 3.640e-4
-1.410, 3.670e-4
-1.411, 3.701e-4
-1.412, 3.732e-4
-1.413, 3.794e-4
-1.414, 3.855e-4
-1.415, 3.948e-4
-1.416, 3.979e-4
-1.417, 4.010e-4
-1.418, 4.040e-4
-1.419, 4.071e-4
-1.420, 4.164e-4
-1.421, 4.225e-4
-1.422, 4.287e-4
-1.423, 4.318e-4
-1.424, 4.380e-4
-1.425, 4.410e-4
-1.426, 4.472e-4
-1.427, 4.565e-4
-1.428, 4.626e-4
-1.429, 4.688e-4
-1.430, 4.719e-4
-1.431, 4.780e-4
-1.432, 4.842e-4
-1.433, 4.904e-4
-1.434, 4.996e-4
-1.435, 5.058e-4
-1.436, 5.120e-4
-1.437, 5.181e-4
-1.438, 5.243e-4
-1.439, 5.305e-4
-1.440, 5.366e-4
-1.441, 5.459e-4
-1.442, 5.551e-4
-1.443, 5.613e-4
-1.444, 5.674e-4
-1.445, 5.736e-4
-1.446, 5.829e-4
-1.447, 5.921e-4
-1.448, 6.014e-4
-1.449, 6.075e-4
-1.450, 6.137e-4
-1.451, 6.199e-4
-1.452, 6.291e-4
-1.453, 6.353e-4
-1.454, 6.476e-4
-1.455, 6.569e-4
-1.456, 6.661e-4
-1.457, 6.723e-4
-1.458, 6.784e-4
-1.459, 6.877e-4
-1.460, 6.969e-4
-1.461, 7.093e-4
-1.462, 7.185e-4
-1.463, 7.278e-4
-1.464, 7.339e-4
-1.465, 7.432e-4
-1.466, 7.524e-4
-1.467, 7.648e-4
-1.468, 7.740e-4
-1.469, 7.863e-4
-1.470, 7.956e-4
-1.471, 8.018e-4
-1.472, 8.110e-4
-1.473, 8.233e-4
-1.474, 8.357e-4
-1.475, 8.480e-4
-1.476, 8.573e-4
-1.477, 8.665e-4
-1.478, 8.758e-4
-1.479, 8.850e-4
-1.480, 8.973e-4
-1.481, 9.128e-4
-1.482, 9.220e-4
-1.483, 9.343e-4
-1.484, 9.436e-4
-1.485, 9.528e-4
-1.486, 9.683e-4
-1.487, 9.806e-4
-1.488, 9.929e-4
-1.489, 1.005e-3
-1.490, 1.018e-3
-1.491, 1.027e-3
-1.492, 1.039e-3
-1.493, 1.051e-3
-1.494, 1.067e-3
-1.495, 1.079e-3
-1.496, 1.092e-3
-1.497, 1.104e-3
-1.498, 1.113e-3
-1.499, 1.125e-3
-1.500, 1.141e-3
-1.501, 1.156e-3
-1.502, 1.172e-3
-1.503, 1.184e-3
-1.504, 1.196e-3
-1.505, 1.206e-3
-1.506, 1.221e-3
-1.507, 1.236e-3
-1.508, 1.252e-3
-1.509, 1.264e-3
-1.510, 1.280e-3
-1.511, 1.292e-3
-1.512, 1.304e-3
-1.513, 1.320e-3
-1.514, 1.335e-3
-1.515, 1.354e-3
-1.516, 1.366e-3
-1.517, 1.381e-3
-1.518, 1.394e-3
-1.519, 1.406e-3
-1.520, 1.425e-3
-1.521, 1.443e-3
-1.522, 1.458e-3
-1.523, 1.474e-3
-1.524, 1.486e-3
-1.525, 1.502e-3
-1.526, 1.517e-3
-1.527, 1.536e-3
-1.528, 1.554e-3
-1.529, 1.569e-3
-1.530, 1.585e-3
-1.531, 1.600e-3
-1.532, 1.616e-3
-1.533, 1.634e-3
-1.534, 1.650e-3
-1.535, 1.671e-3
-1.536, 1.687e-3
-1.537, 1.705e-3
-1.538, 1.721e-3
-1.539, 1.736e-3
-1.540, 1.754e-3
-1.541, 1.773e-3
-1.542, 1.791e-3
-1.543, 1.810e-3
-1.544, 1.825e-3
-1.545, 1.844e-3
-1.546, 1.859e-3
-1.547, 1.881e-3
-1.548, 1.899e-3
-1.549, 1.921e-3
-1.550, 1.939e-3
-1.551, 1.955e-3
-1.552, 1.973e-3
-1.553, 1.992e-3
-1.554, 2.013e-3
-1.555, 2.035e-3
-1.556, 2.054e-3
-1.557, 2.072e-3
-1.558, 2.091e-3
-1.559, 2.109e-3
-1.560, 2.131e-3
-1.561, 2.152e-3
-1.562, 2.174e-3
-1.563, 2.192e-3
-1.564, 2.214e-3
-1.565, 2.232e-3
-1.566, 2.251e-3
-1.567, 2.275e-3
-1.568, 2.297e-3
-1.569, 2.319e-3
-1.570, 2.343e-3
-1.571, 2.362e-3
-1.572, 2.383e-3
-1.573, 2.402e-3
-1.574, 2.427e-3
-1.575, 2.451e-3
-1.576, 2.476e-3
-1.577, 2.494e-3
-1.578, 2.516e-3
-1.579, 2.538e-3
-1.580, 2.562e-3
-1.581, 2.587e-3
-1.582, 2.612e-3
-1.583, 2.636e-3
-1.584, 2.658e-3
-1.585, 2.679e-3
-1.586, 2.704e-3
-1.587, 2.729e-3
-1.588, 2.756e-3
-1.589, 2.781e-3
-1.590, 2.806e-3
-1.591, 2.827e-3
-1.592, 2.852e-3
-1.593, 2.877e-3
-1.594, 2.904e-3
-1.595, 2.932e-3
-1.596, 2.957e-3
-1.597, 2.982e-3
-1.598, 3.006e-3
-1.599, 3.031e-3
-1.600, 3.059e-3
-1.601, 3.086e-3
-1.602, 3.117e-3
-1.603, 3.145e-3
-1.604, 3.170e-3
-1.605, 3.194e-3
-1.606, 3.222e-3
-1.607, 3.250e-3
-1.608, 3.281e-3
-1.609, 3.311e-3
-1.610, 3.339e-3
-1.611, 3.367e-3
-1.612, 3.392e-3
-1.613, 3.422e-3
-1.614, 3.453e-3
-1.615, 3.487e-3
-1.616, 3.515e-3
-1.617, 3.546e-3
-1.618, 3.573e-3
-1.619, 3.601e-3
-1.620, 3.632e-3
-1.621, 3.666e-3
-1.622, 3.700e-3
-1.623, 3.731e-3
-1.624, 3.762e-3
-1.625, 3.789e-3
-1.626, 3.820e-3
-1.627, 3.854e-3
-1.628, 3.888e-3
-1.629, 3.922e-3
-1.630, 3.956e-3
-1.631, 3.984e-3
-1.632, 4.017e-3
-1.633, 4.048e-3
-1.634, 4.082e-3
-1.635, 4.119e-3
-1.636, 4.156e-3
-1.637, 4.187e-3
-1.638, 4.218e-3
-1.639, 4.252e-3
-1.640, 4.289e-3
-1.641, 4.326e-3
-1.642, 4.363e-3
-1.643, 4.397e-3
-1.644, 4.434e-3
-1.645, 4.464e-3
-1.646, 4.501e-3
-1.647, 4.538e-3
-1.648, 4.579e-3
-1.649, 4.619e-3
-1.650, 4.656e-3
-1.651, 4.690e-3
-1.652, 4.727e-3
-1.653, 4.764e-3
-1.654, 4.807e-3
-1.655, 4.847e-3
-1.656, 4.887e-3
-1.657, 4.924e-3
-1.658, 4.958e-3
-1.659, 4.995e-3
-1.660, 5.032e-3
-1.661, 5.075e-3
-1.662, 5.118e-3
-1.663, 5.155e-3
-1.664, 5.195e-3
-1.665, 5.232e-3
-1.666, 5.272e-3
-1.667, 5.312e-3
-1.668, 5.356e-3
-1.669, 5.402e-3
-1.670, 5.442e-3
-1.671, 5.482e-3
-1.672, 5.522e-3
-1.673, 5.562e-3
-1.674, 5.608e-3
-1.675, 5.655e-3
-1.676, 5.701e-3
-1.677, 5.741e-3
-1.678, 5.781e-3
-1.679, 5.824e-3
-1.680, 5.870e-3
-1.681, 5.917e-3
-1.682, 5.960e-3
-1.683, 6.006e-3
-1.684, 6.052e-3
-1.685, 6.092e-3
-1.686, 6.136e-3
-1.687, 6.182e-3
-1.688, 6.231e-3
-1.689, 6.280e-3
-1.690, 6.327e-3
-1.691, 6.370e-3
-1.692, 6.413e-3
-1.693, 6.459e-3
-1.694, 6.509e-3
-1.695, 6.561e-3
-1.696, 6.610e-3
-1.697, 6.657e-3
-1.698, 6.703e-3
-1.699, 6.749e-3
-1.700, 6.755e-3
-1.699, 6.697e-3
-1.698, 6.641e-3
-1.697, 6.580e-3
-1.696, 6.518e-3
-1.695, 6.453e-3
-1.694, 6.391e-3
-1.693, 6.330e-3
-1.692, 6.274e-3
-1.691, 6.216e-3
-1.690, 6.154e-3
-1.689, 6.092e-3
-1.688, 6.031e-3
-1.687, 5.972e-3
-1.686, 5.917e-3
-1.685, 5.864e-3
-1.684, 5.809e-3
-1.683, 5.750e-3
-1.682, 5.692e-3
-1.681, 5.630e-3
-1.680, 5.578e-3
-1.679, 5.525e-3
-1.678, 5.473e-3
-1.677, 5.420e-3
-1.676, 5.365e-3
-1.675, 5.309e-3
-1.674, 5.254e-3
-1.673, 5.201e-3
-1.672, 5.155e-3
-1.671, 5.106e-3
-1.670, 5.053e-3
-1.669, 4.998e-3
-1.668, 4.949e-3
-1.667, 4.896e-3
-1.666, 4.850e-3
-1.665, 4.804e-3
-1.664, 4.754e-3
-1.663, 4.702e-3
-1.662, 4.653e-3
-1.661, 4.600e-3
-1.660, 4.554e-3
-1.659, 4.511e-3
-1.658, 4.468e-3
-1.657, 4.418e-3
-1.656, 4.372e-3
-1.655, 4.326e-3
-1.654, 4.276e-3
-1.653, 4.233e-3
-1.652, 4.193e-3
-1.651, 4.147e-3
-1.650, 4.104e-3
-1.649, 4.058e-3
-1.648, 4.011e-3
-1.647, 3.968e-3
-1.646, 3.928e-3
-1.645, 3.888e-3
-1.644, 3.845e-3
-1.643, 3.802e-3
-1.642, 3.758e-3
-1.641, 3.718e-3
-1.640, 3.675e-3
-1.639, 3.638e-3
-1.638, 3.601e-3
-1.637, 3.561e-3
-1.636, 3.518e-3
-1.635, 3.478e-3
-1.634, 3.438e-3
-1.633, 3.401e-3
-1.632, 3.367e-3
-1.631, 3.330e-3
-1.630, 3.293e-3
-1.629, 3.253e-3
-1.628, 3.213e-3
-1.627, 3.179e-3
-1.626, 3.142e-3
-1.625, 3.111e-3
-1.624, 3.077e-3
-1.623, 3.037e-3
-1.622, 3.003e-3
-1.621, 2.966e-3
-1.620, 2.932e-3
-1.619, 2.901e-3
-1.618, 2.871e-3
-1.617, 2.837e-3
-1.616, 2.803e-3
-1.615, 2.769e-3
-1.614, 2.735e-3
-1.613, 2.704e-3
-1.612, 2.676e-3
-1.611, 2.645e-3
-1.610, 2.612e-3
-1.609, 2.581e-3
-1.608, 2.547e-3
-1.607, 2.519e-3
-1.606, 2.488e-3
-1.605, 2.460e-3
-1.604, 2.433e-3
-1.603, 2.402e-3
-1.602, 2.371e-3
-1.601, 2.340e-3
-1.600, 2.312e-3
-1.599, 2.288e-3
-1.598, 2.260e-3
-1.597, 2.235e-3
-1.596, 2.205e-3
-1.595, 2.177e-3
-1.594, 2.149e-3
-1.593, 2.124e-3
-1.592, 2.100e-3
-1.591, 2.075e-3
-1.590, 2.047e-3
-1.589, 2.023e-3
-1.588, 1.998e-3
-1.587, 1.973e-3
-1.586, 1.949e-3
-1.585, 1.927e-3
-1.584, 1.902e-3
-1.583, 1.878e-3
-1.582, 1.853e-3
-1.581, 1.828e-3
-1.580, 1.804e-3
-1.579, 1.788e-3
-1.578, 1.764e-3
-1.577, 1.742e-3
-1.576, 1.717e-3
-1.575, 1.696e-3
-1.574, 1.674e-3
-1.573, 1.656e-3
-1.572, 1.634e-3
-1.571, 1.616e-3
-1.570, 1.594e-3
-1.569, 1.569e-3
-1.568, 1.551e-3
-1.567, 1.529e-3
-1.566, 1.514e-3
-1.565, 1.495e-3
-1.564, 1.477e-3
-1.563, 1.455e-3
-1.562, 1.434e-3
-1.561, 1.415e-3
-1.560, 1.400e-3
-1.559, 1.384e-3
-1.558, 1.366e-3
-1.557, 1.347e-3
-1.556, 1.329e-3
-1.555, 1.310e-3
-1.554, 1.292e-3
-1.553, 1.277e-3
-1.552, 1.264e-3
-1.551, 1.246e-3
-1.550, 1.230e-3
-1.549, 1.212e-3
-1.548, 1.196e-3
-1.547, 1.181e-3
-1.546, 1.166e-3
-1.545, 1.153e-3
-1.544, 1.138e-3
-1.543, 1.122e-3
-1.542, 1.107e-3
-1.541, 1.092e-3
-1.540, 1.076e-3
-1.539, 1.067e-3
-1.538, 1.051e-3
-1.537, 1.036e-3
-1.536, 1.024e-3
-1.535, 1.008e-3
-1.534, 9.929e-4
-1.533, 9.837e-4
-1.532, 9.713e-4
-1.531, 9.590e-4
-1.530, 9.467e-4
-1.529, 9.313e-4
-1.528, 9.189e-4
-1.527, 9.066e-4
-1.526, 8.943e-4
-1.525, 8.850e-4
-1.524, 8.727e-4
-1.523, 8.603e-4
-1.522, 8.449e-4
-1.521, 8.357e-4
-1.520, 8.233e-4
-1.519, 8.141e-4
-1.518, 8.048e-4
-1.517, 7.925e-4
-1.516, 7.802e-4
-1.515, 7.679e-4
-1.514, 7.586e-4
-1.513, 7.494e-4
-1.512, 7.401e-4
-1.511, 7.309e-4
-1.510, 7.185e-4
-1.509, 7.093e-4
-1.508, 7.000e-4
-1.507, 6.908e-4
-1.506, 6.815e-4
-1.505, 6.754e-4
-1.504, 6.630e-4
-1.503, 6.538e-4
-1.502, 6.414e-4
-1.501, 6.353e-4
-1.500, 6.260e-4
-1.499, 6.199e-4
-1.498, 6.106e-4
-1.497, 6.014e-4
-1.496, 5.952e-4
-1.495, 5.829e-4
-1.494, 5.767e-4
-1.493, 5.705e-4
-1.492, 5.644e-4
-1.491, 5.551e-4
-1.490, 5.459e-4
-1.489, 5.366e-4
-1.488, 5.305e-4
-1.487, 5.243e-4
-1.486, 5.181e-4
-1.485, 5.120e-4
-1.484, 5.027e-4
-1.483, 4.935e-4
-1.482, 4.873e-4
-1.481, 4.780e-4
-1.480, 4.750e-4
-1.479, 4.688e-4
-1.478, 4.626e-4
-1.477, 4.534e-4
-1.476, 4.472e-4
-1.475, 4.410e-4
-1.474, 4.349e-4
-1.473, 4.287e-4
-1.472, 4.256e-4
-1.471, 4.195e-4
-1.470, 4.102e-4
-1.469, 4.040e-4
-1.468, 3.979e-4
-1.467, 3.917e-4
-1.466, 3.886e-4
-1.465, 3.855e-4
-1.464, 3.794e-4
-1.463, 3.701e-4
-1.462, 3.640e-4
-1.461, 3.578e-4
-1.460, 3.547e-4
-1.459, 3.516e-4
-1.458, 3.455e-4
-1.457, 3.393e-4
-1.456, 3.331e-4
-1.455, 3.270e-4
-1.454, 3.239e-4
-1.453, 3.208e-4
-1.452, 3.177e-4
-1.451, 3.115e-4
-1.450, 3.054e-4
-1.449, 2.992e-4
-1.448, 2.931e-4
-1.447, 2.900e-4
-1.446, 2.869e-4
-1.445, 2.838e-4
-1.444, 2.807e-4
-1.443, 2.746e-4
-1.442, 2.684e-4
-1.441, 2.653e-4
-1.440, 2.622e-4
-1.439, 2.591e-4
-1.438, 2.530e-4
-1.437, 2.499e-4
-1.436, 2.437e-4
-1.435, 2.406e-4
-1.434, 2.345e-4
-1.433, 2.345e-4
-1.432, 2.314e-4
-1.431, 2.283e-4
-1.430, 2.221e-4
-1.429, 2.191e-4
-1.428, 2.129e-4
-1.427, 2.098e-4
-1.426, 2.098e-4
-1.425, 2.067e-4
-1.424, 2.036e-4
-1.423, 1.975e-4
-1.422, 1.913e-4
-1.421, 1.913e-4
-1.420, 1.882e-4
-1.419, 1.851e-4
-1.418, 1.821e-4
-1.417, 1.790e-4
-1.416, 1.728e-4
-1.415, 1.697e-4
-1.414, 1.666e-4
-1.413, 1.666e-4
-1.412, 1.636e-4
-1.411, 1.605e-4
-1.410, 1.574e-4
-1.409, 1.512e-4
-1.408, 1.481e-4
-1.407, 1.481e-4
-1.406, 1.451e-4
-1.405, 1.451e-4
-1.404, 1.389e-4
-1.403, 1.358e-4
-1.402, 1.327e-4
-1.401, 1.296e-4
-1.400, 1.266e-4
-1.399, 1.266e-4
-1.398, 1.235e-4
-1.397, 1.204e-4
-1.396, 1.173e-4
-1.395, 1.142e-4
-1.394, 1.111e-4
-1.393, 1.111e-4
-1.392, 1.111e-4
-1.391, 1.081e-4
-1.390, 1.050e-4
-1.389, 9.882e-5
-1.388, 9.573e-5
-1.387, 9.573e-5
-1.386, 9.573e-5
-1.385, 9.265e-5
-1.384, 9.265e-5
-1.383, 8.648e-5
-1.382, 8.340e-5
-1.381, 8.032e-5
-1.380, 8.032e-5
-1.379, 8.032e-5
-1.378, 8.032e-5
-1.377, 7.415e-5
-1.376, 7.107e-5
-1.375, 6.798e-5
-1.374, 6.798e-5
-1.373, 6.798e-5
-1.372, 6.798e-5
-1.371, 6.490e-5
-1.370, 6.182e-5
-1.369, 5.873e-5
-1.368, 5.565e-5
-1.367, 5.565e-5
-1.366, 5.565e-5
-1.365, 5.565e-5
-1.364, 5.257e-5
-1.363, 4.949e-5
-1.362, 4.640e-5
-1.361, 4.332e-5
-1.360, 4.332e-5
-1.359, 4.332e-5
-1.358, 4.332e-5
-1.357, 4.024e-5
-1.356, 3.407e-5
-1.355, 3.407e-5
-1.354, 3.099e-5
-1.353, 3.407e-5
-1.352, 3.099e-5
-1.351, 3.099e-5
-1.350, 2.790e-5
-1.349, 2.482e-5
-1.348, 2.174e-5
-1.347, 2.174e-5
-1.346, 2.174e-5
-1.345, 2.174e-5
-1.344, 1.865e-5
-1.343, 1.557e-5
-1.342, 1.249e-5
-1.341, 1.249e-5
-1.340, 1.249e-5
-1.339, 1.249e-5
-1.338, 1.249e-5
-1.337, 9.405e-6
-1.336, 6.322e-6
-1.335, 3.239e-6
-1.334, 3.239e-6
-1.333, 3.239e-6
-1.332, 3.239e-6
-1.331, 3.239e-6
-1.330, 1.559e-7
-1.329, -2.927e-6
-1.328, -6.010e-6
-1.327, -2.927e-6
-1.326, -2.927e-6
-1.325, -2.927e-6
-1.324, -6.010e-6
-1.323, -9.093e-6
-1.322, -1.218e-5
-1.321, -1.218e-5
-1.320, -1.218e-5
-1.319, -9.093e-6
-1.318, -1.218e-5
-1.317, -1.526e-5
-1.316, -1.526e-5
-1.315, -1.834e-5
-1.314, -1.834e-5
-1.313, -1.834e-5
-1.312, -1.834e-5
-1.311, -1.834e-5
-1.310, -2.143e-5
-1.309, -2.451e-5
-1.308, -2.451e-5
-1.307, -2.451e-5
-1.306, -2.451e-5
-1.305, -2.451e-5
-1.304, -2.451e-5
-1.303, -3.068e-5
-1.302, -3.068e-5
-1.301, -3.068e-5
-1.300, -3.068e-5
-1.299, -3.068e-5
-1.298, -3.068e-5
-1.297, -3.376e-5
-1.296, -3.376e-5
-1.295, -3.684e-5
-1.294, -3.684e-5
-1.293, -3.684e-5
-1.292, -3.684e-5
-1.291, -3.684e-5
-1.290, -3.992e-5
-1.289, -4.301e-5
-1.288, -4.301e-5
-1.287, -4.301e-5
-1.286, -4.301e-5
-1.285, -4.301e-5
-1.284, -4.301e-5
-1.283, -4.609e-5
-1.282, -4.917e-5
-1.281, -4.917e-5
-1.280, -4.917e-5
-1.279, -4.609e-5
-1.278, -4.917e-5
-1.277, -4.917e-5
-1.276, -5.226e-5
-1.275, -5.534e-5
-1.274, -5.534e-5
-1.273, -5.226e-5
-1.272, -5.226e-5
-1.271, -5.226e-5
-1.270, -5.534e-5
-1.269, -5.842e-5
-1.268, -5.842e-5
-1.267, -5.842e-5
-1.266, -5.842e-5
-1.265, -5.842e-5
-1.264, -5.842e-5
-1.263, -6.151e-5
-1.262, -6.459e-5
-1.261, -6.459e-5
-1.260, -6.459e-5
-1.259, -6.151e-5
-1.258, -6.151e-5
-1.257, -6.459e-5
-1.256, -6.767e-5
-1.255, -6.767e-5
-1.254, -7.076e-5
-1.253, -6.767e-5
-1.252, -6.767e-5
-1.251, -6.767e-5
-1.250, -7.076e-5
-1.249, -7.384e-5
-1.248, -7.384e-5
-1.247, -7.384e-5
-1.246, -7.384e-5
-1.245, -7.076e-5
-1.244, -7.384e-5
-1.243, -7.692e-5
-1.242, -8.000e-5
-1.241, -8.000e-5
-1.240, -7.692e-5
-1.239, -7.692e-5
-1.238, -7.692e-5
-1.237, -8.000e-5
-1.236, -8.000e-5
-1.235, -8.309e-5
-1.234, -8.309e-5
-1.233, -8.309e-5
-1.232, -8.309e-5
-1.231, -8.309e-5
-1.230, -8.309e-5
-1.229, -8.925e-5
-1.228, -8.925e-5
-1.227, -8.617e-5
-1.226, -8.925e-5
-1.225, -8.617e-5
-1.224, -8.617e-5
-1.223, -9.234e-5
-1.222, -9.234e-5
-1.221, -9.234e-5
-1.220, -9.234e-5
-1.219, -9.234e-5
-1.218, -9.234e-5
-1.217, -9.542e-5
-1.216, -9.542e-5
-1.215, -9.850e-5
-1.214, -9.850e-5
-1.213, -9.850e-5
-1.212, -9.542e-5
-1.211, -9.542e-5
-1.210, -9.850e-5
-1.209, -1.016e-4
-1.208, -1.047e-4
-1.207, -1.016e-4
-1.206, -1.016e-4
-1.205, -1.016e-4
-1.204, -1.016e-4
-1.203, -1.047e-4
-1.202, -1.078e-4
-1.201, -1.078e-4
-1.200, -1.078e-4
-1.199, -1.078e-4
-1.198, -1.078e-4
-1.197, -1.078e-4
-1.196, -1.108e-4
-1.195, -1.139e-4
-1.194, -1.139e-4
-1.193, -1.108e-4
-1.192, -1.108e-4
-1.191, -1.108e-4
-1.190, -1.139e-4
-1.189, -1.170e-4
-1.188, -1.201e-4
-1.187, -1.170e-4
-1.186, -1.170e-4
-1.185, -1.170e-4
-1.184, -1.170e-4
-1.183, -1.201e-4
-1.182, -1.232e-4
-1.181, -1.232e-4
-1.180, -1.232e-4
-1.179, -1.201e-4
-1.178, -1.232e-4
-1.177, -1.232e-4
-1.176, -1.263e-4
-1.175, -1.293e-4
-1.174, -1.293e-4
-1.173, -1.263e-4
-1.172, -1.263e-4
-1.171, -1.263e-4
-1.170, -1.293e-4
-1.169, -1.324e-4
-1.168, -1.324e-4
-1.167, -1.324e-4
-1.166, -1.324e-4
-1.165, -1.324e-4
-1.164, -1.324e-4
-1.163, -1.355e-4
-1.162, -1.386e-4
-1.161, -1.386e-4
-1.160, -1.386e-4
-1.159, -1.355e-4
-1.158, -1.386e-4
-1.157, -1.417e-4
-1.156, -1.417e-4
-1.155, -1.448e-4
-1.154, -1.448e-4
-1.153, -1.448e-4
-1.152, -1.417e-4
-1.151, -1.448e-4
-1.150, -1.448e-4
-1.149, -1.478e-4
-1.148, -1.509e-4
-1.147, -1.509e-4
-1.146, -1.478e-4
-1.145, -1.478e-4
-1.144, -1.509e-4
-1.143, -1.540e-4
-1.142, -1.571e-4
-1.141, -1.571e-4
-1.140, -1.571e-4
-1.139, -1.540e-4
-1.138, -1.540e-4
-1.137, -1.571e-4
-1.136, -1.602e-4
-1.135, -1.602e-4
-1.134, -1.632e-4
-1.133, -1.602e-4
-1.132, -1.602e-4
-1.131, -1.602e-4
-1.130, -1.632e-4
-1.129, -1.663e-4
-1.128, -1.694e-4
-1.127, -1.663e-4
-1.126, -1.663e-4
-1.125, -1.663e-4
-1.124, -1.663e-4
-1.123, -1.694e-4
-1.122, -1.725e-4
-1.121, -1.725e-4
-1.120, -1.725e-4
-1.119, -1.725e-4
-1.118, -1.725e-4
-1.117, -1.756e-4
-1.116, -1.787e-4
-1.115, -1.787e-4
-1.114, -1.787e-4
-1.113, -1.787e-4
-1.112, -1.787e-4
-1.111, -1.787e-4
-1.110, -1.817e-4
-1.109, -1.848e-4
-1.108, -1.848e-4
-1.107, -1.848e-4
-1.106, -1.848e-4
-1.105, -1.848e-4
-1.104, -1.848e-4
-1.103, -1.879e-4
-1.102, -1.910e-4
-1.101, -1.941e-4
-1.100, -1.941e-4
-1.099, -1.910e-4
-1.098, -1.910e-4
-1.097, -1.941e-4
-1.096, -1.972e-4
-1.095, -2.002e-4
-1.094, -2.002e-4
-1.093, -1.972e-4
-1.092, -1.972e-4
-1.091, -1.972e-4
-1.090, -2.033e-4
-1.089, -2.033e-4
-1.088, -2.064e-4
-1.087, -2.064e-4
-1.086, -2.033e-4
-1.085, -2.033e-4
-1.084, -2.064e-4
-1.083, -2.095e-4
-1.082, -2.126e-4
-1.081, -2.126e-4
-1.080, -2.126e-4
-1.079, -2.126e-4
-1.078, -2.126e-4
-1.077, -2.157e-4
-1.076, -2.187e-4
-1.075, -2.187e-4
-1.074, -2.218e-4
-1.073, -2.218e-4
-1.072, -2.187e-4
-1.071, -2.187e-4
-1.070, -2.218e-4
-1.069, -2.249e-4
-1.068, -2.280e-4
-1.067, -2.280e-4
-1.066, -2.249e-4
-1.065, -2.249e-4
-1.064, -2.280e-4
-1.063, -2.311e-4
-1.062, -2.342e-4
-1.061, -2.342e-4
-1.060, -2.342e-4
-1.059, -2.342e-4
-1.058, -2.342e-4
-1.057, -2.342e-4
-1.056, -2.372e-4
-1.055, -2.434e-4
-1.054, -2.434e-4
-1.053, -2.403e-4
-1.052, -2.403e-4
-1.051, -2.403e-4
-1.050, -2.434e-4
-1.049, -2.465e-4
-1.048, -2.496e-4
-1.047, -2.496e-4
-1.046, -2.496e-4
-1.045, -2.496e-4
-1.044, -2.496e-4
-1.043, -2.527e-4
-1.042, -2.557e-4
-1.041, -2.588e-4
-1.040, -2.588e-4
-1.039, -2.557e-4
-1.038, -2.557e-4
-1.037, -2.588e-4
-1.036, -2.619e-4
-1.035, -2.650e-4
-1.034, -2.681e-4
-1.033, -2.650e-4
-1.032, -2.650e-4
-1.031, -2.650e-4
-1.030, -2.681e-4
-1.029, -2.712e-4
-1.028, -2.742e-4
-1.027, -2.742e-4
-1.026, -2.742e-4
-1.025, -2.742e-4
-1.024, -2.742e-4
-1.023, -2.773e-4
-1.022, -2.804e-4
-1.021, -2.835e-4
-1.020, -2.835e-4
-1.019, -2.804e-4
-1.018, -2.804e-4
-1.017, -2.835e-4
-1.016, -2.866e-4
-1.015, -2.897e-4
-1.014, -2.927e-4
-1.013, -2.927e-4
-1.012, -2.897e-4
-1.011, -2.927e-4
-1.010, -2.958e-4
-1.009, -2.989e-4
-1.008, -3.020e-4
-1.007, -3.020e-4
-1.006, -3.020e-4
-1.005, -3.020e-4
-1.004, -3.020e-4
-1.003, -3.051e-4
-1.002, -3.082e-4
-1.001, -3.112e-4
