Aug. 8, 2024   16:07:09
Linear Sweep Voltammetry
File: c:/users/guazh/data/20240802_batch_500/2024-08-02-exp55\1acid_3ac-2024-08-08t16_03_55-lsvinphos\1acid_3ac_lsv_50mvs_efin_-2300mv.bin
Data Source:  Experiment
Instrument Model:  CHI760E
Header: LSV ran at 50 mVs with Efin at -2300mV
Note: 

Init E (V) = -0.6
Final E (V) = -2.3
Scan Rate (V/s) = 0.05
Sample Interval (V) = 0.001
Quiet Time (sec) = 2
Sensitivity (A/V) = 1e-4
Comp R (ohm) = 7.3

Results:

Channel 1:
Ep = -2.068V
ip = 6.009e-4A
Ah = 7.755e-4C

Potential/V, Current/A

-0.600, 1.686e-6
-0.601, 1.770e-6
-0.602, 1.813e-6
-0.603, 1.842e-6
-0.604, 1.867e-6
-0.605, 1.892e-6
-0.606, 1.915e-6
-0.607, 1.939e-6
-0.608, 1.962e-6
-0.609, 1.983e-6
-0.610, 2.004e-6
-0.611, 2.026e-6
-0.612, 2.049e-6
-0.613, 2.071e-6
-0.614, 2.093e-6
-0.615, 2.114e-6
-0.616, 2.135e-6
-0.617, 2.159e-6
-0.618, 2.178e-6
-0.619, 2.199e-6
-0.620, 2.218e-6
-0.621, 2.240e-6
-0.622, 2.262e-6
-0.623, 2.283e-6
-0.624, 2.304e-6
-0.625, 2.325e-6
-0.626, 2.345e-6
-0.627, 2.371e-6
-0.628, 2.393e-6
-0.629, 2.413e-6
-0.630, 2.436e-6
-0.631, 2.457e-6
-0.632, 2.479e-6
-0.633, 2.502e-6
-0.634, 2.523e-6
-0.635, 2.547e-6
-0.636, 2.569e-6
-0.637, 2.595e-6
-0.638, 2.619e-6
-0.639, 2.641e-6
-0.640, 2.665e-6
-0.641, 2.688e-6
-0.642, 2.714e-6
-0.643, 2.737e-6
-0.644, 2.759e-6
-0.645, 2.783e-6
-0.646, 2.807e-6
-0.647, 2.834e-6
-0.648, 2.859e-6
-0.649, 2.882e-6
-0.650, 2.906e-6
-0.651, 2.932e-6
-0.652, 2.957e-6
-0.653, 2.983e-6
-0.654, 3.007e-6
-0.655, 3.032e-6
-0.656, 3.058e-6
-0.657, 3.087e-6
-0.658, 3.112e-6
-0.659, 3.139e-6
-0.660, 3.164e-6
-0.661, 3.190e-6
-0.662, 3.219e-6
-0.663, 3.245e-6
-0.664, 3.270e-6
-0.665, 3.296e-6
-0.666, 3.325e-6
-0.667, 3.353e-6
-0.668, 3.381e-6
-0.669, 3.409e-6
-0.670, 3.436e-6
-0.671, 3.463e-6
-0.672, 3.494e-6
-0.673, 3.522e-6
-0.674, 3.547e-6
-0.675, 3.576e-6
-0.676, 3.604e-6
-0.677, 3.634e-6
-0.678, 3.664e-6
-0.679, 3.693e-6
-0.680, 3.720e-6
-0.681, 3.750e-6
-0.682, 3.781e-6
-0.683, 3.811e-6
-0.684, 3.840e-6
-0.685, 3.871e-6
-0.686, 3.900e-6
-0.687, 3.930e-6
-0.688, 3.960e-6
-0.689, 3.989e-6
-0.690, 4.018e-6
-0.691, 4.049e-6
-0.692, 4.081e-6
-0.693, 4.111e-6
-0.694, 4.140e-6
-0.695, 4.169e-6
-0.696, 4.198e-6
-0.697, 4.231e-6
-0.698, 4.261e-6
-0.699, 4.290e-6
-0.700, 4.321e-6
-0.701, 4.352e-6
-0.702, 4.384e-6
-0.703, 4.416e-6
-0.704, 4.447e-6
-0.705, 4.479e-6
-0.706, 4.510e-6
-0.707, 4.545e-6
-0.708, 4.576e-6
-0.709, 4.606e-6
-0.710, 4.638e-6
-0.711, 4.669e-6
-0.712, 4.703e-6
-0.713, 4.735e-6
-0.714, 4.765e-6
-0.715, 4.796e-6
-0.716, 4.828e-6
-0.717, 4.862e-6
-0.718, 4.894e-6
-0.719, 4.924e-6
-0.720, 4.956e-6
-0.721, 4.988e-6
-0.722, 5.021e-6
-0.723, 5.055e-6
-0.724, 5.086e-6
-0.725, 5.117e-6
-0.726, 5.149e-6
-0.727, 5.183e-6
-0.728, 5.215e-6
-0.729, 5.248e-6
-0.730, 5.279e-6
-0.731, 5.310e-6
-0.732, 5.343e-6
-0.733, 5.376e-6
-0.734, 5.407e-6
-0.735, 5.436e-6
-0.736, 5.468e-6
-0.737, 5.502e-6
-0.738, 5.534e-6
-0.739, 5.566e-6
-0.740, 5.597e-6
-0.741, 5.627e-6
-0.742, 5.660e-6
-0.743, 5.693e-6
-0.744, 5.724e-6
-0.745, 5.755e-6
-0.746, 5.786e-6
-0.747, 5.819e-6
-0.748, 5.852e-6
-0.749, 5.881e-6
-0.750, 5.910e-6
-0.751, 5.938e-6
-0.752, 5.968e-6
-0.753, 6.001e-6
-0.754, 6.030e-6
-0.755, 6.061e-6
-0.756, 6.092e-6
-0.757, 6.123e-6
-0.758, 6.153e-6
-0.759, 6.179e-6
-0.760, 6.207e-6
-0.761, 6.235e-6
-0.762, 6.264e-6
-0.763, 6.295e-6
-0.764, 6.323e-6
-0.765, 6.350e-6
-0.766, 6.380e-6
-0.767, 6.411e-6
-0.768, 6.443e-6
-0.769, 6.471e-6
-0.770, 6.496e-6
-0.771, 6.523e-6
-0.772, 6.553e-6
-0.773, 6.581e-6
-0.774, 6.608e-6
-0.775, 6.634e-6
-0.776, 6.660e-6
-0.777, 6.688e-6
-0.778, 6.717e-6
-0.779, 6.741e-6
-0.780, 6.766e-6
-0.781, 6.792e-6
-0.782, 6.819e-6
-0.783, 6.844e-6
-0.784, 6.867e-6
-0.785, 6.889e-6
-0.786, 6.911e-6
-0.787, 6.937e-6
-0.788, 6.962e-6
-0.789, 6.983e-6
-0.790, 7.006e-6
-0.791, 7.028e-6
-0.792, 7.050e-6
-0.793, 7.075e-6
-0.794, 7.097e-6
-0.795, 7.118e-6
-0.796, 7.140e-6
-0.797, 7.162e-6
-0.798, 7.183e-6
-0.799, 7.203e-6
-0.800, 7.222e-6
-0.801, 7.241e-6
-0.802, 7.261e-6
-0.803, 7.282e-6
-0.804, 7.298e-6
-0.805, 7.316e-6
-0.806, 7.336e-6
-0.807, 7.354e-6
-0.808, 7.373e-6
-0.809, 7.390e-6
-0.810, 7.405e-6
-0.811, 7.423e-6
-0.812, 7.441e-6
-0.813, 7.459e-6
-0.814, 7.475e-6
-0.815, 7.490e-6
-0.816, 7.505e-6
-0.817, 7.523e-6
-0.818, 7.538e-6
-0.819, 7.555e-6
-0.820, 7.571e-6
-0.821, 7.584e-6
-0.822, 7.599e-6
-0.823, 7.615e-6
-0.824, 7.627e-6
-0.825, 7.639e-6
-0.826, 7.651e-6
-0.827, 7.667e-6
-0.828, 7.680e-6
-0.829, 7.690e-6
-0.830, 7.702e-6
-0.831, 7.712e-6
-0.832, 7.727e-6
-0.833, 7.740e-6
-0.834, 7.749e-6
-0.835, 7.759e-6
-0.836, 7.768e-6
-0.837, 7.780e-6
-0.838, 7.791e-6
-0.839, 7.799e-6
-0.840, 7.807e-6
-0.841, 7.816e-6
-0.842, 7.826e-6
-0.843, 7.838e-6
-0.844, 7.844e-6
-0.845, 7.852e-6
-0.846, 7.861e-6
-0.847, 7.870e-6
-0.848, 7.878e-6
-0.849, 7.883e-6
-0.850, 7.890e-6
-0.851, 7.897e-6
-0.852, 7.904e-6
-0.853, 7.912e-6
-0.854, 7.918e-6
-0.855, 7.923e-6
-0.856, 7.929e-6
-0.857, 7.937e-6
-0.858, 7.944e-6
-0.859, 7.947e-6
-0.860, 7.953e-6
-0.861, 7.957e-6
-0.862, 7.963e-6
-0.863, 7.968e-6
-0.864, 7.973e-6
-0.865, 7.977e-6
-0.866, 7.980e-6
-0.867, 7.986e-6
-0.868, 7.991e-6
-0.869, 7.994e-6
-0.870, 7.997e-6
-0.871, 8.002e-6
-0.872, 8.006e-6
-0.873, 8.010e-6
-0.874, 8.012e-6
-0.875, 8.015e-6
-0.876, 8.016e-6
-0.877, 8.021e-6
-0.878, 8.025e-6
-0.879, 8.025e-6
-0.880, 8.027e-6
-0.881, 8.029e-6
-0.882, 8.033e-6
-0.883, 8.037e-6
-0.884, 8.039e-6
-0.885, 8.047e-6
-0.886, 8.048e-6
-0.887, 8.052e-6
-0.888, 8.054e-6
-0.889, 8.054e-6
-0.890, 8.054e-6
-0.891, 8.055e-6
-0.892, 8.058e-6
-0.893, 8.061e-6
-0.894, 8.061e-6
-0.895, 8.060e-6
-0.896, 8.061e-6
-0.897, 8.064e-6
-0.898, 8.066e-6
-0.899, 8.066e-6
-0.900, 8.066e-6
-0.901, 8.068e-6
-0.902, 8.070e-6
-0.903, 8.071e-6
-0.904, 8.070e-6
-0.905, 8.071e-6
-0.906, 8.070e-6
-0.907, 8.074e-6
-0.908, 8.074e-6
-0.909, 8.075e-6
-0.910, 8.075e-6
-0.911, 8.074e-6
-0.912, 8.076e-6
-0.913, 8.080e-6
-0.914, 8.079e-6
-0.915, 8.083e-6
-0.916, 8.083e-6
-0.917, 8.084e-6
-0.918, 8.087e-6
-0.919, 8.085e-6
-0.920, 8.086e-6
-0.921, 8.086e-6
-0.922, 8.088e-6
-0.923, 8.090e-6
-0.924, 8.089e-6
-0.925, 8.089e-6
-0.926, 8.088e-6
-0.927, 8.090e-6
-0.928, 8.092e-6
-0.929, 8.092e-6
-0.930, 8.091e-6
-0.931, 8.092e-6
-0.932, 8.093e-6
-0.933, 8.096e-6
-0.934, 8.095e-6
-0.935, 8.095e-6
-0.936, 8.095e-6
-0.937, 8.097e-6
-0.938, 8.098e-6
-0.939, 8.099e-6
-0.940, 8.098e-6
-0.941, 8.098e-6
-0.942, 8.101e-6
-0.943, 8.102e-6
-0.944, 8.102e-6
-0.945, 8.102e-6
-0.946, 8.102e-6
-0.947, 8.104e-6
-0.948, 8.107e-6
-0.949, 8.106e-6
-0.950, 8.106e-6
-0.951, 8.106e-6
-0.952, 8.109e-6
-0.953, 8.111e-6
-0.954, 8.110e-6
-0.955, 8.110e-6
-0.956, 8.110e-6
-0.957, 8.113e-6
-0.958, 8.116e-6
-0.959, 8.115e-6
-0.960, 8.116e-6
-0.961, 8.117e-6
-0.962, 8.119e-6
-0.963, 8.121e-6
-0.964, 8.122e-6
-0.965, 8.123e-6
-0.966, 8.124e-6
-0.967, 8.126e-6
-0.968, 8.128e-6
-0.969, 8.130e-6
-0.970, 8.132e-6
-0.971, 8.132e-6
-0.972, 8.137e-6
-0.973, 8.141e-6
-0.974, 8.142e-6
-0.975, 8.141e-6
-0.976, 8.142e-6
-0.977, 8.145e-6
-0.978, 8.148e-6
-0.979, 8.149e-6
-0.980, 8.149e-6
-0.981, 8.150e-6
-0.982, 8.154e-6
-0.983, 8.156e-6
-0.984, 8.158e-6
-0.985, 8.160e-6
-0.986, 8.160e-6
-0.987, 8.165e-6
-0.988, 8.167e-6
-0.989, 8.168e-6
-0.990, 8.170e-6
-0.991, 8.171e-6
-0.992, 8.176e-6
-0.993, 8.179e-6
-0.994, 8.180e-6
-0.995, 8.181e-6
-0.996, 8.183e-6
-0.997, 8.187e-6
-0.998, 8.192e-6
-0.999, 8.195e-6
-1.000, 8.198e-6
-1.001, 8.200e-6
-1.002, 8.202e-6
-1.003, 8.206e-6
-1.004, 8.208e-6
-1.005, 8.210e-6
-1.006, 8.213e-6
-1.007, 8.217e-6
-1.008, 8.220e-6
-1.009, 8.222e-6
-1.010, 8.225e-6
-1.011, 8.227e-6
-1.012, 8.232e-6
-1.013, 8.236e-6
-1.014, 8.238e-6
-1.015, 8.240e-6
-1.016, 8.244e-6
-1.017, 8.249e-6
-1.018, 8.254e-6
-1.019, 8.256e-6
-1.020, 8.258e-6
-1.021, 8.261e-6
-1.022, 8.264e-6
-1.023, 8.267e-6
-1.024, 8.273e-6
-1.025, 8.276e-6
-1.026, 8.277e-6
-1.027, 8.281e-6
-1.028, 8.286e-6
-1.029, 8.288e-6
-1.030, 8.292e-6
-1.031, 8.293e-6
-1.032, 8.298e-6
-1.033, 8.303e-6
-1.034, 8.304e-6
-1.035, 8.306e-6
-1.036, 8.310e-6
-1.037, 8.315e-6
-1.038, 8.320e-6
-1.039, 8.323e-6
-1.040, 8.325e-6
-1.041, 8.327e-6
-1.042, 8.331e-6
-1.043, 8.337e-6
-1.044, 8.340e-6
-1.045, 8.342e-6
-1.046, 8.346e-6
-1.047, 8.350e-6
-1.048, 8.355e-6
-1.049, 8.359e-6
-1.050, 8.362e-6
-1.051, 8.367e-6
-1.052, 8.374e-6
-1.053, 8.378e-6
-1.054, 8.381e-6
-1.055, 8.385e-6
-1.056, 8.388e-6
-1.057, 8.393e-6
-1.058, 8.397e-6
-1.059, 8.401e-6
-1.060, 8.404e-6
-1.061, 8.406e-6
-1.062, 8.413e-6
-1.063, 8.417e-6
-1.064, 8.422e-6
-1.065, 8.425e-6
-1.066, 8.427e-6
-1.067, 8.433e-6
-1.068, 8.438e-6
-1.069, 8.442e-6
-1.070, 8.447e-6
-1.071, 8.449e-6
-1.072, 8.454e-6
-1.073, 8.460e-6
-1.074, 8.464e-6
-1.075, 8.470e-6
-1.076, 8.473e-6
-1.077, 8.479e-6
-1.078, 8.486e-6
-1.079, 8.489e-6
-1.080, 8.491e-6
-1.081, 8.496e-6
-1.082, 8.501e-6
-1.083, 8.508e-6
-1.084, 8.511e-6
-1.085, 8.515e-6
-1.086, 8.520e-6
-1.087, 8.524e-6
-1.088, 8.531e-6
-1.089, 8.534e-6
-1.090, 8.538e-6
-1.091, 8.543e-6
-1.092, 8.548e-6
-1.093, 8.554e-6
-1.094, 8.558e-6
-1.095, 8.561e-6
-1.096, 8.565e-6
-1.097, 8.573e-6
-1.098, 8.578e-6
-1.099, 8.583e-6
-1.100, 8.585e-6
-1.101, 8.589e-6
-1.102, 8.595e-6
-1.103, 8.602e-6
-1.104, 8.607e-6
-1.105, 8.611e-6
-1.106, 8.613e-6
-1.107, 8.619e-6
-1.108, 8.624e-6
-1.109, 8.628e-6
-1.110, 8.632e-6
-1.111, 8.637e-6
-1.112, 8.642e-6
-1.113, 8.649e-6
-1.114, 8.654e-6
-1.115, 8.658e-6
-1.116, 8.663e-6
-1.117, 8.670e-6
-1.118, 8.677e-6
-1.119, 8.680e-6
-1.120, 8.685e-6
-1.121, 8.689e-6
-1.122, 8.695e-6
-1.123, 8.704e-6
-1.124, 8.708e-6
-1.125, 8.712e-6
-1.126, 8.718e-6
-1.127, 8.723e-6
-1.128, 8.733e-6
-1.129, 8.739e-6
-1.130, 8.742e-6
-1.131, 8.748e-6
-1.132, 8.754e-6
-1.133, 8.764e-6
-1.134, 8.769e-6
-1.135, 8.774e-6
-1.136, 8.779e-6
-1.137, 8.787e-6
-1.138, 8.792e-6
-1.139, 8.798e-6
-1.140, 8.804e-6
-1.141, 8.808e-6
-1.142, 8.815e-6
-1.143, 8.822e-6
-1.144, 8.826e-6
-1.145, 8.832e-6
-1.146, 8.837e-6
-1.147, 8.843e-6
-1.148, 8.852e-6
-1.149, 8.857e-6
-1.150, 8.862e-6
-1.151, 8.865e-6
-1.152, 8.873e-6
-1.153, 8.881e-6
-1.154, 8.885e-6
-1.155, 8.890e-6
-1.156, 8.896e-6
-1.157, 8.903e-6
-1.158, 8.910e-6
-1.159, 8.914e-6
-1.160, 8.919e-6
-1.161, 8.926e-6
-1.162, 8.933e-6
-1.163, 8.941e-6
-1.164, 8.947e-6
-1.165, 8.952e-6
-1.166, 8.957e-6
-1.167, 8.965e-6
-1.168, 8.973e-6
-1.169, 8.980e-6
-1.170, 8.985e-6
-1.171, 8.990e-6
-1.172, 8.995e-6
-1.173, 9.004e-6
-1.174, 9.010e-6
-1.175, 9.015e-6
-1.176, 9.021e-6
-1.177, 9.028e-6
-1.178, 9.038e-6
-1.179, 9.044e-6
-1.180, 9.048e-6
-1.181, 9.056e-6
-1.182, 9.064e-6
-1.183, 9.073e-6
-1.184, 9.079e-6
-1.185, 9.085e-6
-1.186, 9.090e-6
-1.187, 9.098e-6
-1.188, 9.108e-6
-1.189, 9.115e-6
-1.190, 9.121e-6
-1.191, 9.127e-6
-1.192, 9.134e-6
-1.193, 9.161e-6
-1.194, 9.048e-6
-1.195, 9.029e-6
-1.196, 9.042e-6
-1.197, 9.045e-6
-1.198, 9.031e-6
-1.199, 9.016e-6
-1.200, 9.021e-6
-1.201, 9.031e-6
-1.202, 9.039e-6
-1.203, 9.048e-6
-1.204, 9.053e-6
-1.205, 9.059e-6
-1.206, 9.066e-6
-1.207, 9.065e-6
-1.208, 9.068e-6
-1.209, 9.082e-6
-1.210, 9.092e-6
-1.211, 9.100e-6
-1.212, 9.109e-6
-1.213, 9.120e-6
-1.214, 9.128e-6
-1.215, 9.135e-6
-1.216, 9.143e-6
-1.217, 9.161e-6
-1.218, 9.169e-6
-1.219, 9.177e-6
-1.220, 9.183e-6
-1.221, 9.192e-6
-1.222, 9.203e-6
-1.223, 9.210e-6
-1.224, 9.220e-6
-1.225, 9.231e-6
-1.226, 9.240e-6
-1.227, 9.248e-6
-1.228, 9.256e-6
-1.229, 9.265e-6
-1.230, 9.262e-6
-1.231, 9.246e-6
-1.232, 9.212e-6
-1.233, 9.165e-6
-1.234, 9.127e-6
-1.235, 9.113e-6
-1.236, 9.112e-6
-1.237, 9.117e-6
-1.238, 9.112e-6
-1.239, 9.097e-6
-1.240, 9.098e-6
-1.241, 9.103e-6
-1.242, 9.110e-6
-1.243, 9.119e-6
-1.244, 9.123e-6
-1.245, 9.129e-6
-1.246, 9.135e-6
-1.247, 9.143e-6
-1.248, 9.154e-6
-1.249, 9.161e-6
-1.250, 9.167e-6
-1.251, 9.175e-6
-1.252, 9.182e-6
-1.253, 9.191e-6
-1.254, 9.200e-6
-1.255, 9.209e-6
-1.256, 9.217e-6
-1.257, 9.225e-6
-1.258, 9.239e-6
-1.259, 9.248e-6
-1.260, 9.257e-6
-1.261, 9.265e-6
-1.262, 9.276e-6
-1.263, 9.288e-6
-1.264, 9.298e-6
-1.265, 9.307e-6
-1.266, 9.317e-6
-1.267, 9.330e-6
-1.268, 9.343e-6
-1.269, 9.352e-6
-1.270, 9.363e-6
-1.271, 9.375e-6
-1.272, 9.387e-6
-1.273, 9.403e-6
-1.274, 9.415e-6
-1.275, 9.446e-6
-1.276, 9.458e-6
-1.277, 9.477e-6
-1.278, 9.501e-6
-1.279, 9.520e-6
-1.280, 9.538e-6
-1.281, 9.553e-6
-1.282, 9.568e-6
-1.283, 9.586e-6
-1.284, 9.599e-6
-1.285, 9.612e-6
-1.286, 9.626e-6
-1.287, 9.637e-6
-1.288, 9.654e-6
-1.289, 9.670e-6
-1.290, 9.683e-6
-1.291, 9.697e-6
-1.292, 9.714e-6
-1.293, 9.731e-6
-1.294, 9.747e-6
-1.295, 9.761e-6
-1.296, 9.776e-6
-1.297, 9.792e-6
-1.298, 9.810e-6
-1.299, 9.829e-6
-1.300, 9.845e-6
-1.301, 9.861e-6
-1.302, 9.879e-6
-1.303, 9.896e-6
-1.304, 9.914e-6
-1.305, 9.932e-6
-1.306, 9.951e-6
-1.307, 9.971e-6
-1.308, 9.990e-6
-1.309, 1.001e-5
-1.310, 1.003e-5
-1.311, 1.005e-5
-1.312, 1.010e-5
-1.313, 1.015e-5
-1.314, 1.018e-5
-1.315, 1.020e-5
-1.316, 1.022e-5
-1.317, 1.025e-5
-1.318, 1.027e-5
-1.319, 1.030e-5
-1.320, 1.032e-5
-1.321, 1.034e-5
-1.322, 1.036e-5
-1.323, 1.038e-5
-1.324, 1.041e-5
-1.325, 1.043e-5
-1.326, 1.045e-5
-1.327, 1.048e-5
-1.328, 1.050e-5
-1.329, 1.052e-5
-1.330, 1.055e-5
-1.331, 1.057e-5
-1.332, 1.060e-5
-1.333, 1.062e-5
-1.334, 1.065e-5
-1.335, 1.067e-5
-1.336, 1.070e-5
-1.337, 1.073e-5
-1.338, 1.075e-5
-1.339, 1.078e-5
-1.340, 1.080e-5
-1.341, 1.083e-5
-1.342, 1.086e-5
-1.343, 1.089e-5
-1.344, 1.091e-5
-1.345, 1.094e-5
-1.346, 1.097e-5
-1.347, 1.099e-5
-1.348, 1.102e-5
-1.349, 1.105e-5
-1.350, 1.108e-5
-1.351, 1.111e-5
-1.352, 1.113e-5
-1.353, 1.116e-5
-1.354, 1.120e-5
-1.355, 1.122e-5
-1.356, 1.125e-5
-1.357, 1.128e-5
-1.358, 1.131e-5
-1.359, 1.134e-5
-1.360, 1.137e-5
-1.361, 1.140e-5
-1.362, 1.143e-5
-1.363, 1.147e-5
-1.364, 1.150e-5
-1.365, 1.153e-5
-1.366, 1.156e-5
-1.367, 1.159e-5
-1.368, 1.162e-5
-1.369, 1.166e-5
-1.370, 1.169e-5
-1.371, 1.172e-5
-1.372, 1.175e-5
-1.373, 1.179e-5
-1.374, 1.182e-5
-1.375, 1.185e-5
-1.376, 1.188e-5
-1.377, 1.192e-5
-1.378, 1.195e-5
-1.379, 1.199e-5
-1.380, 1.202e-5
-1.381, 1.204e-5
-1.382, 1.207e-5
-1.383, 1.211e-5
-1.384, 1.214e-5
-1.385, 1.218e-5
-1.386, 1.222e-5
-1.387, 1.226e-5
-1.388, 1.229e-5
-1.389, 1.233e-5
-1.390, 1.237e-5
-1.391, 1.240e-5
-1.392, 1.244e-5
-1.393, 1.248e-5
-1.394, 1.252e-5
-1.395, 1.255e-5
-1.396, 1.259e-5
-1.397, 1.263e-5
-1.398, 1.267e-5
-1.399, 1.271e-5
-1.400, 1.274e-5
-1.401, 1.278e-5
-1.402, 1.282e-5
-1.403, 1.286e-5
-1.404, 1.290e-5
-1.405, 1.293e-5
-1.406, 1.297e-5
-1.407, 1.301e-5
-1.408, 1.305e-5
-1.409, 1.309e-5
-1.410, 1.313e-5
-1.411, 1.317e-5
-1.412, 1.321e-5
-1.413, 1.325e-5
-1.414, 1.329e-5
-1.415, 1.333e-5
-1.416, 1.337e-5
-1.417, 1.341e-5
-1.418, 1.345e-5
-1.419, 1.350e-5
-1.420, 1.354e-5
-1.421, 1.358e-5
-1.422, 1.362e-5
-1.423, 1.366e-5
-1.424, 1.370e-5
-1.425, 1.374e-5
-1.426, 1.378e-5
-1.427, 1.382e-5
-1.428, 1.387e-5
-1.429, 1.391e-5
-1.430, 1.396e-5
-1.431, 1.400e-5
-1.432, 1.404e-5
-1.433, 1.409e-5
-1.434, 1.413e-5
-1.435, 1.418e-5
-1.436, 1.422e-5
-1.437, 1.426e-5
-1.438, 1.431e-5
-1.439, 1.435e-5
-1.440, 1.440e-5
-1.441, 1.444e-5
-1.442, 1.448e-5
-1.443, 1.452e-5
-1.444, 1.457e-5
-1.445, 1.461e-5
-1.446, 1.466e-5
-1.447, 1.470e-5
-1.448, 1.475e-5
-1.449, 1.479e-5
-1.450, 1.484e-5
-1.451, 1.488e-5
-1.452, 1.493e-5
-1.453, 1.498e-5
-1.454, 1.505e-5
-1.455, 1.510e-5
-1.456, 1.515e-5
-1.457, 1.519e-5
-1.458, 1.524e-5
-1.459, 1.529e-5
-1.460, 1.534e-5
-1.461, 1.538e-5
-1.462, 1.543e-5
-1.463, 1.548e-5
-1.464, 1.553e-5
-1.465, 1.557e-5
-1.466, 1.562e-5
-1.467, 1.567e-5
-1.468, 1.572e-5
-1.469, 1.577e-5
-1.470, 1.581e-5
-1.471, 1.586e-5
-1.472, 1.591e-5
-1.473, 1.596e-5
-1.474, 1.601e-5
-1.475, 1.606e-5
-1.476, 1.611e-5
-1.477, 1.616e-5
-1.478, 1.622e-5
-1.479, 1.626e-5
-1.480, 1.631e-5
-1.481, 1.636e-5
-1.482, 1.641e-5
-1.483, 1.647e-5
-1.484, 1.652e-5
-1.485, 1.657e-5
-1.486, 1.663e-5
-1.487, 1.668e-5
-1.488, 1.674e-5
-1.489, 1.679e-5
-1.490, 1.685e-5
-1.491, 1.690e-5
-1.492, 1.695e-5
-1.493, 1.700e-5
-1.494, 1.706e-5
-1.495, 1.711e-5
-1.496, 1.717e-5
-1.497, 1.723e-5
-1.498, 1.728e-5
-1.499, 1.734e-5
-1.500, 1.740e-5
-1.501, 1.746e-5
-1.502, 1.752e-5
-1.503, 1.758e-5
-1.504, 1.765e-5
-1.505, 1.771e-5
-1.506, 1.777e-5
-1.507, 1.783e-5
-1.508, 1.789e-5
-1.509, 1.796e-5
-1.510, 1.802e-5
-1.511, 1.809e-5
-1.512, 1.815e-5
-1.513, 1.822e-5
-1.514, 1.828e-5
-1.515, 1.835e-5
-1.516, 1.842e-5
-1.517, 1.848e-5
-1.518, 1.856e-5
-1.519, 1.863e-5
-1.520, 1.869e-5
-1.521, 1.876e-5
-1.522, 1.884e-5
-1.523, 1.893e-5
-1.524, 1.901e-5
-1.525, 1.908e-5
-1.526, 1.915e-5
-1.527, 1.923e-5
-1.528, 1.931e-5
-1.529, 1.940e-5
-1.530, 1.948e-5
-1.531, 1.956e-5
-1.532, 1.964e-5
-1.533, 1.973e-5
-1.534, 1.983e-5
-1.535, 1.992e-5
-1.536, 2.001e-5
-1.537, 2.009e-5
-1.538, 2.018e-5
-1.539, 2.026e-5
-1.540, 2.036e-5
-1.541, 2.046e-5
-1.542, 2.056e-5
-1.543, 2.066e-5
-1.544, 2.077e-5
-1.545, 2.087e-5
-1.546, 2.097e-5
-1.547, 2.109e-5
-1.548, 2.120e-5
-1.549, 2.132e-5
-1.550, 2.144e-5
-1.551, 2.155e-5
-1.552, 2.167e-5
-1.553, 2.180e-5
-1.554, 2.192e-5
-1.555, 2.204e-5
-1.556, 2.217e-5
-1.557, 2.230e-5
-1.558, 2.244e-5
-1.559, 2.257e-5
-1.560, 2.270e-5
-1.561, 2.284e-5
-1.562, 2.298e-5
-1.563, 2.312e-5
-1.564, 2.326e-5
-1.565, 2.341e-5
-1.566, 2.357e-5
-1.567, 2.373e-5
-1.568, 2.389e-5
-1.569, 2.406e-5
-1.570, 2.423e-5
-1.571, 2.439e-5
-1.572, 2.455e-5
-1.573, 2.472e-5
-1.574, 2.490e-5
-1.575, 2.509e-5
-1.576, 2.527e-5
-1.577, 2.546e-5
-1.578, 2.565e-5
-1.579, 2.585e-5
-1.580, 2.603e-5
-1.581, 2.624e-5
-1.582, 2.643e-5
-1.583, 2.663e-5
-1.584, 2.684e-5
-1.585, 2.704e-5
-1.586, 2.724e-5
-1.587, 2.746e-5
-1.588, 2.768e-5
-1.589, 2.790e-5
-1.590, 2.812e-5
-1.591, 2.834e-5
-1.592, 2.859e-5
-1.593, 2.885e-5
-1.594, 2.910e-5
-1.595, 2.934e-5
-1.596, 2.959e-5
-1.597, 2.984e-5
-1.598, 3.009e-5
-1.599, 3.037e-5
-1.600, 3.064e-5
-1.601, 3.091e-5
-1.602, 3.118e-5
-1.603, 3.145e-5
-1.604, 3.172e-5
-1.605, 3.200e-5
-1.606, 3.230e-5
-1.607, 3.260e-5
-1.608, 3.290e-5
-1.609, 3.320e-5
-1.610, 3.349e-5
-1.611, 3.380e-5
-1.612, 3.409e-5
-1.613, 3.442e-5
-1.614, 3.474e-5
-1.615, 3.506e-5
-1.616, 3.540e-5
-1.617, 3.572e-5
-1.618, 3.606e-5
-1.619, 3.640e-5
-1.620, 3.674e-5
-1.621, 3.708e-5
-1.622, 3.743e-5
-1.623, 3.779e-5
-1.624, 3.815e-5
-1.625, 3.851e-5
-1.626, 3.887e-5
-1.627, 3.923e-5
-1.628, 3.961e-5
-1.629, 3.999e-5
-1.630, 4.036e-5
-1.631, 4.074e-5
-1.632, 4.113e-5
-1.633, 4.152e-5
-1.634, 4.190e-5
-1.635, 4.230e-5
-1.636, 4.271e-5
-1.637, 4.311e-5
-1.638, 4.352e-5
-1.639, 4.393e-5
-1.640, 4.433e-5
-1.641, 4.474e-5
-1.642, 4.516e-5
-1.643, 4.558e-5
-1.644, 4.601e-5
-1.645, 4.644e-5
-1.646, 4.686e-5
-1.647, 4.729e-5
-1.648, 4.773e-5
-1.649, 4.817e-5
-1.650, 4.862e-5
-1.651, 4.907e-5
-1.652, 4.951e-5
-1.653, 4.995e-5
-1.654, 5.041e-5
-1.655, 5.086e-5
-1.656, 5.131e-5
-1.657, 5.175e-5
-1.658, 5.221e-5
-1.659, 5.269e-5
-1.660, 5.315e-5
-1.661, 5.362e-5
-1.662, 5.409e-5
-1.663, 5.456e-5
-1.664, 5.504e-5
-1.665, 5.552e-5
-1.666, 5.599e-5
-1.667, 5.646e-5
-1.668, 5.695e-5
-1.669, 5.742e-5
-1.670, 5.790e-5
-1.671, 5.837e-5
-1.672, 5.887e-5
-1.673, 5.936e-5
-1.674, 5.984e-5
-1.675, 6.033e-5
-1.676, 6.082e-5
-1.677, 6.131e-5
-1.678, 6.179e-5
-1.679, 6.230e-5
-1.680, 6.279e-5
-1.681, 6.329e-5
-1.682, 6.379e-5
-1.683, 6.430e-5
-1.684, 6.481e-5
-1.685, 6.531e-5
-1.686, 6.581e-5
-1.687, 6.632e-5
-1.688, 6.683e-5
-1.689, 6.734e-5
-1.690, 6.785e-5
-1.691, 6.837e-5
-1.692, 6.889e-5
-1.693, 6.941e-5
-1.694, 6.993e-5
-1.695, 7.044e-5
-1.696, 7.095e-5
-1.697, 7.147e-5
-1.698, 7.200e-5
-1.699, 7.252e-5
-1.700, 7.304e-5
-1.701, 7.355e-5
-1.702, 7.409e-5
-1.703, 7.462e-5
-1.704, 7.515e-5
-1.705, 7.566e-5
-1.706, 7.619e-5
-1.707, 7.672e-5
-1.708, 7.725e-5
-1.709, 7.780e-5
-1.710, 7.834e-5
-1.711, 7.888e-5
-1.712, 7.943e-5
-1.713, 7.997e-5
-1.714, 8.051e-5
-1.715, 8.105e-5
-1.716, 8.157e-5
-1.717, 8.210e-5
-1.718, 8.266e-5
-1.719, 8.320e-5
-1.720, 8.373e-5
-1.721, 8.428e-5
-1.722, 8.483e-5
-1.723, 8.539e-5
-1.724, 8.595e-5
-1.725, 8.651e-5
-1.726, 8.707e-5
-1.727, 8.763e-5
-1.728, 8.820e-5
-1.729, 8.876e-5
-1.730, 8.930e-5
-1.731, 8.986e-5
-1.732, 9.043e-5
-1.733, 9.101e-5
-1.734, 9.158e-5
-1.735, 9.213e-5
-1.736, 9.271e-5
-1.737, 9.329e-5
-1.738, 9.387e-5
-1.739, 9.446e-5
-1.740, 9.504e-5
-1.741, 9.562e-5
-1.742, 9.620e-5
-1.743, 9.680e-5
-1.744, 9.739e-5
-1.745, 9.797e-5
-1.746, 9.856e-5
-1.747, 9.916e-5
-1.748, 9.975e-5
-1.749, 1.004e-4
-1.750, 1.010e-4
-1.751, 1.016e-4
-1.752, 1.022e-4
-1.753, 1.028e-4
-1.754, 1.034e-4
-1.755, 1.041e-4
-1.756, 1.047e-4
-1.757, 1.053e-4
-1.758, 1.059e-4
-1.759, 1.066e-4
-1.760, 1.072e-4
-1.761, 1.078e-4
-1.762, 1.085e-4
-1.763, 1.092e-4
-1.764, 1.098e-4
-1.765, 1.104e-4
-1.766, 1.111e-4
-1.767, 1.117e-4
-1.768, 1.124e-4
-1.769, 1.131e-4
-1.770, 1.137e-4
-1.771, 1.144e-4
-1.772, 1.151e-4
-1.773, 1.158e-4
-1.774, 1.164e-4
-1.775, 1.171e-4
-1.776, 1.178e-4
-1.777, 1.185e-4
-1.778, 1.192e-4
-1.779, 1.199e-4
-1.780, 1.206e-4
-1.781, 1.213e-4
-1.782, 1.220e-4
-1.783, 1.228e-4
-1.784, 1.235e-4
-1.785, 1.242e-4
-1.786, 1.249e-4
-1.787, 1.257e-4
-1.788, 1.264e-4
-1.789, 1.272e-4
-1.790, 1.279e-4
-1.791, 1.286e-4
-1.792, 1.294e-4
-1.793, 1.302e-4
-1.794, 1.310e-4
-1.795, 1.317e-4
-1.796, 1.325e-4
-1.797, 1.333e-4
-1.798, 1.341e-4
-1.799, 1.349e-4
-1.800, 1.357e-4
-1.801, 1.365e-4
-1.802, 1.373e-4
-1.803, 1.381e-4
-1.804, 1.389e-4
-1.805, 1.397e-4
-1.806, 1.406e-4
-1.807, 1.414e-4
-1.808, 1.422e-4
-1.809, 1.431e-4
-1.810, 1.440e-4
-1.811, 1.448e-4
-1.812, 1.457e-4
-1.813, 1.465e-4
-1.814, 1.474e-4
-1.815, 1.482e-4
-1.816, 1.491e-4
-1.817, 1.500e-4
-1.818, 1.509e-4
-1.819, 1.519e-4
-1.820, 1.528e-4
-1.821, 1.537e-4
-1.822, 1.546e-4
-1.823, 1.555e-4
-1.824, 1.565e-4
-1.825, 1.575e-4
-1.826, 1.584e-4
-1.827, 1.594e-4
-1.828, 1.603e-4
-1.829, 1.613e-4
-1.830, 1.623e-4
-1.831, 1.632e-4
-1.832, 1.642e-4
-1.833, 1.652e-4
-1.834, 1.662e-4
-1.835, 1.672e-4
-1.836, 1.683e-4
-1.837, 1.693e-4
-1.838, 1.704e-4
-1.839, 1.715e-4
-1.840, 1.725e-4
-1.841, 1.736e-4
-1.842, 1.747e-4
-1.843, 1.758e-4
-1.844, 1.769e-4
-1.845, 1.780e-4
-1.846, 1.791e-4
-1.847, 1.802e-4
-1.848, 1.813e-4
-1.849, 1.825e-4
-1.850, 1.836e-4
-1.851, 1.847e-4
-1.852, 1.858e-4
-1.853, 1.869e-4
-1.854, 1.881e-4
-1.855, 1.893e-4
-1.856, 1.906e-4
-1.857, 1.918e-4
-1.858, 1.930e-4
-1.859, 1.943e-4
-1.860, 1.955e-4
-1.861, 1.967e-4
-1.862, 1.980e-4
-1.863, 1.993e-4
-1.864, 2.006e-4
-1.865, 2.019e-4
-1.866, 2.032e-4
-1.867, 2.045e-4
-1.868, 2.059e-4
-1.869, 2.072e-4
-1.870, 2.087e-4
-1.871, 2.100e-4
-1.872, 2.114e-4
-1.873, 2.128e-4
-1.874, 2.142e-4
-1.875, 2.156e-4
-1.876, 2.169e-4
-1.877, 2.183e-4
-1.878, 2.198e-4
-1.879, 2.212e-4
-1.880, 2.227e-4
-1.881, 2.242e-4
-1.882, 2.257e-4
-1.883, 2.272e-4
-1.884, 2.288e-4
-1.885, 2.304e-4
-1.886, 2.319e-4
-1.887, 2.333e-4
-1.888, 2.348e-4
-1.889, 2.364e-4
-1.890, 2.380e-4
-1.891, 2.397e-4
-1.892, 2.413e-4
-1.893, 2.430e-4
-1.894, 2.447e-4
-1.895, 2.464e-4
-1.896, 2.481e-4
-1.897, 2.496e-4
-1.898, 2.514e-4
-1.899, 2.532e-4
-1.900, 2.550e-4
-1.901, 2.567e-4
-1.902, 2.585e-4
-1.903, 2.604e-4
-1.904, 2.623e-4
-1.905, 2.641e-4
-1.906, 2.659e-4
-1.907, 2.677e-4
-1.908, 2.696e-4
-1.909, 2.716e-4
-1.910, 2.736e-4
-1.911, 2.756e-4
-1.912, 2.776e-4
-1.913, 2.795e-4
-1.914, 2.815e-4
-1.915, 2.835e-4
-1.916, 2.857e-4
-1.917, 2.877e-4
-1.918, 2.898e-4
-1.919, 2.921e-4
-1.920, 2.943e-4
-1.921, 2.965e-4
-1.922, 2.986e-4
-1.923, 3.009e-4
-1.924, 3.032e-4
-1.925, 3.054e-4
-1.926, 3.073e-4
-1.927, 3.095e-4
-1.928, 3.118e-4
-1.929, 3.141e-4
-1.930, 3.165e-4
-1.931, 3.189e-4
-1.932, 3.213e-4
-1.933, 3.238e-4
-1.934, 3.264e-4
-1.935, 3.290e-4
-1.936, 3.316e-4
-1.937, 3.341e-4
-1.938, 3.367e-4
-1.939, 3.393e-4
-1.940, 3.421e-4
-1.941, 3.450e-4
-1.942, 3.478e-4
-1.943, 3.505e-4
-1.944, 3.534e-4
-1.945, 3.563e-4
-1.946, 3.592e-4
-1.947, 3.622e-4
-1.948, 3.653e-4
-1.949, 3.684e-4
-1.950, 3.714e-4
-1.951, 3.744e-4
-1.952, 3.775e-4
-1.953, 3.807e-4
-1.954, 3.840e-4
-1.955, 3.874e-4
-1.956, 3.909e-4
-1.957, 3.944e-4
-1.958, 3.979e-4
-1.959, 4.013e-4
-1.960, 4.048e-4
-1.961, 4.084e-4
-1.962, 4.119e-4
-1.963, 4.155e-4
-1.964, 4.192e-4
-1.965, 4.230e-4
-1.966, 4.268e-4
-1.967, 4.305e-4
-1.968, 4.343e-4
-1.969, 4.382e-4
-1.970, 4.422e-4
-1.971, 4.462e-4
-1.972, 4.501e-4
-1.973, 4.536e-4
-1.974, 4.577e-4
-1.975, 4.620e-4
-1.976, 4.661e-4
-1.977, 4.702e-4
-1.978, 4.746e-4
-1.979, 4.790e-4
-1.980, 4.837e-4
-1.981, 4.882e-4
-1.982, 4.926e-4
-1.983, 4.971e-4
-1.984, 5.018e-4
-1.985, 5.065e-4
-1.986, 5.112e-4
-1.987, 5.160e-4
-1.988, 5.209e-4
-1.989, 5.257e-4
-1.990, 5.302e-4
-1.991, 5.349e-4
-1.992, 5.397e-4
-1.993, 5.444e-4
-1.994, 5.492e-4
-1.995, 5.539e-4
-1.996, 5.588e-4
-1.997, 5.639e-4
-1.998, 5.692e-4
-1.999, 5.744e-4
-2.000, 5.798e-4
-2.001, 5.851e-4
-2.002, 5.904e-4
-2.003, 5.955e-4
-2.004, 6.006e-4
-2.005, 6.061e-4
-2.006, 6.118e-4
-2.007, 6.175e-4
-2.008, 6.232e-4
-2.009, 6.289e-4
-2.010, 6.347e-4
-2.011, 6.404e-4
-2.012, 6.459e-4
-2.013, 6.516e-4
-2.014, 6.575e-4
-2.015, 6.636e-4
-2.016, 6.696e-4
-2.017, 6.756e-4
-2.018, 6.815e-4
-2.019, 6.875e-4
-2.020, 6.936e-4
-2.021, 6.997e-4
-2.022, 7.059e-4
-2.023, 7.121e-4
-2.024, 7.183e-4
-2.025, 7.246e-4
-2.026, 7.309e-4
-2.027, 7.371e-4
-2.028, 7.435e-4
-2.029, 7.498e-4
-2.030, 7.564e-4
-2.031, 7.628e-4
-2.032, 7.689e-4
-2.033, 7.754e-4
-2.034, 7.817e-4
-2.035, 7.881e-4
-2.036, 7.945e-4
-2.037, 8.011e-4
-2.038, 8.077e-4
-2.039, 8.143e-4
-2.040, 8.208e-4
-2.041, 8.274e-4
-2.042, 8.343e-4
-2.043, 8.410e-4
-2.044, 8.479e-4
-2.045, 8.546e-4
-2.046, 8.612e-4
-2.047, 8.680e-4
-2.048, 8.748e-4
-2.049, 8.819e-4
-2.050, 8.889e-4
-2.051, 8.959e-4
-2.052, 9.030e-4
-2.053, 9.101e-4
-2.054, 9.171e-4
-2.055, 9.240e-4
-2.056, 9.311e-4
-2.057, 9.385e-4
-2.058, 9.458e-4
-2.059, 9.527e-4
-2.060, 9.594e-4
-2.061, 9.663e-4
-2.062, 9.737e-4
-2.063, 9.812e-4
-2.064, 9.887e-4
-2.065, 9.962e-4
-2.066, 1.004e-3
-2.067, 1.010e-3
-2.068, 1.011e-3
-2.069, 1.011e-3
-2.070, 1.011e-3
-2.071, 1.011e-3
-2.072, 1.011e-3
-2.073, 1.011e-3
-2.074, 1.011e-3
-2.075, 1.011e-3
-2.076, 1.011e-3
-2.077, 1.011e-3
-2.078, 1.011e-3
-2.079, 1.011e-3
-2.080, 1.011e-3
-2.081, 1.011e-3
-2.082, 1.011e-3
-2.083, 1.011e-3
-2.084, 1.011e-3
-2.085, 1.011e-3
-2.086, 1.011e-3
-2.087, 1.011e-3
-2.088, 1.011e-3
-2.089, 1.011e-3
-2.090, 1.011e-3
-2.091, 1.011e-3
-2.092, 1.011e-3
-2.093, 1.011e-3
-2.094, 1.011e-3
-2.095, 1.011e-3
-2.096, 1.011e-3
-2.097, 1.011e-3
-2.098, 1.011e-3
-2.099, 1.011e-3
-2.100, 1.011e-3
-2.101, 1.011e-3
-2.102, 1.011e-3
-2.103, 1.011e-3
-2.104, 1.011e-3
-2.105, 1.011e-3
-2.106, 1.011e-3
-2.107, 1.011e-3
-2.108, 1.011e-3
-2.109, 1.011e-3
-2.110, 1.011e-3
-2.111, 1.011e-3
-2.112, 1.011e-3
-2.113, 1.011e-3
-2.114, 1.011e-3
-2.115, 1.011e-3
-2.116, 1.011e-3
-2.117, 1.011e-3
-2.118, 1.011e-3
-2.119, 1.011e-3
-2.120, 1.011e-3
-2.121, 1.011e-3
-2.122, 1.011e-3
-2.123, 1.011e-3
-2.124, 1.011e-3
-2.125, 1.011e-3
-2.126, 1.011e-3
-2.127, 1.011e-3
-2.128, 1.011e-3
-2.129, 1.011e-3
-2.130, 1.011e-3
-2.131, 1.011e-3
-2.132, 1.011e-3
-2.133, 1.011e-3
-2.134, 1.011e-3
-2.135, 1.011e-3
-2.136, 1.011e-3
-2.137, 1.011e-3
-2.138, 1.011e-3
-2.139, 1.011e-3
-2.140, 1.011e-3
-2.141, 1.011e-3
-2.142, 1.011e-3
-2.143, 1.011e-3
-2.144, 1.011e-3
-2.145, 1.011e-3
-2.146, 1.011e-3
-2.147, 1.011e-3
-2.148, 1.011e-3
-2.149, 1.011e-3
-2.150, 1.011e-3
-2.151, 1.011e-3
-2.152, 1.011e-3
-2.153, 1.011e-3
-2.154, 1.011e-3
-2.155, 1.011e-3
-2.156, 1.011e-3
-2.157, 1.011e-3
-2.158, 1.011e-3
-2.159, 1.011e-3
-2.160, 1.011e-3
-2.161, 1.011e-3
-2.162, 1.011e-3
-2.163, 1.011e-3
-2.164, 1.011e-3
-2.165, 1.011e-3
-2.166, 1.011e-3
-2.167, 1.011e-3
-2.168, 1.011e-3
-2.169, 1.011e-3
-2.170, 1.011e-3
-2.171, 1.011e-3
-2.172, 1.011e-3
-2.173, 1.011e-3
-2.174, 1.011e-3
-2.175, 1.011e-3
-2.176, 1.011e-3
-2.177, 1.011e-3
-2.178, 1.011e-3
-2.179, 1.011e-3
-2.180, 1.011e-3
-2.181, 1.011e-3
-2.182, 1.011e-3
-2.183, 1.011e-3
-2.184, 1.011e-3
-2.185, 1.011e-3
-2.186, 1.011e-3
-2.187, 1.011e-3
-2.188, 1.011e-3
-2.189, 1.011e-3
-2.190, 1.011e-3
-2.191, 1.011e-3
-2.192, 1.011e-3
-2.193, 1.011e-3
-2.194, 1.011e-3
-2.195, 1.011e-3
-2.196, 1.011e-3
-2.197, 1.011e-3
-2.198, 1.011e-3
-2.199, 1.011e-3
-2.200, 1.011e-3
-2.201, 1.011e-3
-2.202, 1.011e-3
-2.203, 1.011e-3
-2.204, 1.011e-3
-2.205, 1.011e-3
-2.206, 1.011e-3
-2.207, 1.011e-3
-2.208, 1.011e-3
-2.209, 1.011e-3
-2.210, 1.011e-3
-2.211, 1.011e-3
-2.212, 1.011e-3
-2.213, 1.011e-3
-2.214, 1.011e-3
-2.215, 1.011e-3
-2.216, 1.011e-3
-2.217, 1.011e-3
-2.218, 1.011e-3
-2.219, 1.011e-3
-2.220, 1.011e-3
-2.221, 1.011e-3
-2.222, 1.011e-3
-2.223, 1.011e-3
-2.224, 1.011e-3
-2.225, 1.011e-3
-2.226, 1.011e-3
-2.227, 1.011e-3
-2.228, 1.011e-3
-2.229, 1.011e-3
-2.230, 1.011e-3
-2.231, 1.011e-3
-2.232, 1.011e-3
-2.233, 1.011e-3
-2.234, 1.011e-3
-2.235, 1.011e-3
-2.236, 1.011e-3
-2.237, 1.011e-3
-2.238, 1.011e-3
-2.239, 1.011e-3
-2.240, 1.011e-3
-2.241, 1.011e-3
-2.242, 1.011e-3
-2.243, 1.011e-3
-2.244, 1.011e-3
-2.245, 1.011e-3
-2.246, 1.011e-3
-2.247, 1.011e-3
-2.248, 1.011e-3
-2.249, 1.011e-3
-2.250, 1.011e-3
-2.251, 1.011e-3
-2.252, 1.011e-3
-2.253, 1.011e-3
-2.254, 1.011e-3
-2.255, 1.011e-3
-2.256, 1.011e-3
-2.257, 1.011e-3
-2.258, 1.011e-3
-2.259, 1.011e-3
-2.260, 1.011e-3
-2.261, 1.011e-3
-2.262, 1.011e-3
-2.263, 1.011e-3
-2.264, 1.011e-3
-2.265, 1.011e-3
-2.266, 1.011e-3
-2.267, 1.011e-3
-2.268, 1.011e-3
-2.269, 1.011e-3
-2.270, 1.011e-3
-2.271, 1.011e-3
-2.272, 1.011e-3
-2.273, 1.011e-3
-2.274, 1.011e-3
-2.275, 1.011e-3
-2.276, 1.011e-3
-2.277, 1.011e-3
-2.278, 1.011e-3
-2.279, 1.011e-3
-2.280, 1.011e-3
-2.281, 1.011e-3
-2.282, 1.011e-3
-2.283, 1.011e-3
-2.284, 1.011e-3
-2.285, 1.011e-3
-2.286, 1.011e-3
-2.287, 1.011e-3
-2.288, 1.011e-3
-2.289, 1.011e-3
-2.290, 1.011e-3
-2.291, 1.011e-3
-2.292, 1.011e-3
-2.293, 1.011e-3
-2.294, 1.011e-3
-2.295, 1.011e-3
-2.296, 1.011e-3
-2.297, 1.011e-3
-2.298, 1.011e-3
-2.299, 1.011e-3
