Potential V vs RHE, Current mA cm-2
0.013299999999999867,0.04140859974704963
0.012299999999999978,-1.0490084288499246
0.011299999999999866,-1.7033124050375041
0.010299999999999976,-2.095187435100119
0.009299999999999864,-2.4884771764625997
0.008299999999999974,-2.706342716641815
0.007299999999999862,-2.968064307116847
0.006299999999999972,-3.0996324580042955
0.00529999999999986,-3.1859298472960624
0.0042999999999999705,-3.273641947887695
0.0032999999999998586,-3.273641947887695
0.0022999999999999687,-3.317497998183511
0.0012999999999998568,-3.403795387475278
0.00029999999999996696,-3.447651437771094
-0.000700000000000145,-3.579219588658543
-0.0017000000000000348,-3.6655169779503103
-0.0027000000000001467,-3.7970851288377587
-0.0037000000000000366,-3.884797229429391
-0.0047000000000001485,-3.927238568425342
-0.005700000000000038,-3.927238568425342
-0.00670000000000015,-3.884797229429391
-0.00770000000000004,-3.884797229429391
-0.008700000000000152,-3.927238568425342
-0.009700000000000042,-3.927238568425342
-0.010700000000000154,-4.0588067193127895
-0.011700000000000044,-4.146518819904423
-0.012700000000000156,-4.23281620919619
-0.013700000000000045,-4.276672259492005
-0.014700000000000157,-4.3205283097878215
-0.015700000000000047,-4.276672259492005
-0.01670000000000016,-4.3205283097878215
-0.01770000000000005,-4.276672259492005
-0.01870000000000016,-4.276672259492005
-0.01970000000000005,-4.3205283097878215
-0.020700000000000163,-4.406825699079589
-0.021700000000000053,-4.494537799671222
-0.022700000000000164,-4.582249900262854
-0.023700000000000054,-4.626105950558669
-0.024700000000000166,-4.626105950558669
-0.025700000000000056,-4.626105950558669
-0.026700000000000168,-4.582249900262854
-0.027700000000000058,-4.538393849967037
-0.02870000000000017,-4.538393849967037
-0.02970000000000006,-4.582249900262854
-0.03070000000000017,-4.668547289554621
-0.03170000000000006,-4.756259390146253
-0.03270000000000017,-4.843971490737885
-0.03370000000000006,-4.887827541033701
-0.034700000000000175,-4.887827541033701
-0.035700000000000065,-4.843971490737885
-0.03670000000000018,-4.843971490737885
-0.03770000000000007,-4.800115440442069
-0.03870000000000018,-4.800115440442069
-0.03970000000000007,-4.800115440442069
-0.04070000000000018,-4.887827541033701
-0.04170000000000007,-4.974124930325469
-0.04270000000000018,-5.0618370309171015
-0.04370000000000007,-5.105693081212917
-0.044700000000000184,-5.149549131508733
-0.045700000000000074,-5.0618370309171015
-0.046700000000000186,-5.0618370309171015
-0.047700000000000076,-5.017980980621284
-0.04870000000000019,-5.017980980621284
-0.04970000000000008,-5.0618370309171015
-0.05070000000000019,-5.105693081212917
-0.05170000000000008,-5.191990470504685
-0.05270000000000019,-5.279702571096316
-0.05370000000000008,-5.323558621392133
-0.05470000000000019,-5.323558621392133
-0.05570000000000008,-5.323558621392133
-0.056700000000000195,-5.279702571096316
-0.057700000000000085,-5.235846520800501
-0.058700000000000196,-5.235846520800501
-0.059700000000000086,-5.279702571096316
-0.0607000000000002,-5.323558621392133
-0.06170000000000009,-5.411270721983764
-0.0627000000000002,-5.497568111275533
-0.06370000000000009,-5.5414241615713475
-0.0647000000000002,-5.585280211867165
-0.06570000000000009,-5.5414241615713475
-0.0667000000000002,-5.497568111275533
-0.0677000000000001,-5.453712060979717
-0.0687000000000002,-5.453712060979717
-0.0697000000000001,-5.453712060979717
-0.07070000000000021,-5.585280211867165
-0.0717000000000001,-5.629136262162981
-0.07270000000000021,-5.715433651454749
-0.0737000000000001,-5.759289701750564
-0.07470000000000021,-5.759289701750564
-0.0757000000000001,-5.715433651454749
-0.07670000000000021,-5.715433651454749
-0.0777000000000001,-5.672992312458796
-0.07870000000000021,-5.672992312458796
-0.0797000000000001,-5.672992312458796
-0.08070000000000022,-5.759289701750564
-0.0817000000000001,-5.80314575204638
-0.08270000000000022,-5.890857852638012
-0.08370000000000011,-5.9347139029338285
-0.08470000000000022,-5.977155241929781
-0.08570000000000011,-5.9347139029338285
-0.08670000000000022,-5.890857852638012
-0.08770000000000011,-5.847001802342197
-0.08870000000000022,-5.847001802342197
-0.08970000000000011,-5.890857852638012
-0.09070000000000022,-5.9347139029338285
-0.09170000000000011,-6.021011292225596
-0.09270000000000023,-6.108723392817228
-0.09370000000000012,-6.108723392817228
-0.09470000000000023,-6.152579443113044
-0.09570000000000012,-6.108723392817228
-0.09670000000000023,-6.064867342521412
-0.09770000000000012,-6.064867342521412
-0.09870000000000023,-6.064867342521412
-0.09970000000000012,-6.064867342521412
-0.10070000000000023,-6.152579443113044
-0.10170000000000012,-6.196435493408861
-0.10270000000000024,-6.282732882700628
-0.10370000000000013,-6.326588932996443
-0.10470000000000024,-6.37044498329226
-0.10570000000000013,-6.326588932996443
-0.10670000000000024,-6.282732882700628
-0.10770000000000013,-6.238876832404812
-0.10870000000000024,-6.238876832404812
-0.10970000000000013,-6.282732882700628
-0.11070000000000024,-6.326588932996443
-0.11170000000000013,-6.414301033588076
-0.11270000000000002,-6.500598422879844
-0.11370000000000013,-6.500598422879844
-0.11470000000000002,-6.54445447317566
-0.11570000000000014,-6.500598422879844
-0.11670000000000003,-6.458157083883892
-0.11770000000000014,-6.414301033588076
-0.11870000000000003,-6.414301033588076
-0.11970000000000014,-6.414301033588076
-0.12070000000000003,-6.54445447317566
-0.12170000000000014,-6.588310523471475
-0.12270000000000003,-6.632166573767292
-0.12370000000000014,-6.6760226240631075
-0.12470000000000003,-6.719878674358924
-0.12570000000000014,-6.632166573767292
-0.12670000000000003,-6.632166573767292
-0.12770000000000015,-6.588310523471475
-0.12870000000000004,-6.588310523471475
-0.12970000000000015,-6.588310523471475
-0.13070000000000004,-6.6760226240631075
-0.13170000000000015,-6.719878674358924
-0.13270000000000004,-6.806176063650692
-0.13370000000000015,-6.850032113946507
-0.13470000000000004,-6.850032113946507
-0.13570000000000015,-6.806176063650692
-0.13670000000000004,-6.762320013354876
-0.13770000000000016,-6.719878674358924
-0.13870000000000005,-6.719878674358924
-0.13970000000000016,-6.762320013354876
-0.14070000000000005,-6.806176063650692
-0.14170000000000016,-6.893888164242324
-0.14270000000000005,-6.981600264833956
-0.14370000000000016,-6.981600264833956
-0.14470000000000005,-6.981600264833956
-0.14570000000000016,-6.93774421453814
-0.14670000000000005,-6.893888164242324
-0.14770000000000016,-6.893888164242324
-0.14870000000000005,-6.850032113946507
-0.14970000000000017,-6.893888164242324
-0.15070000000000006,-6.93774421453814
-0.15170000000000017,-7.024041603829907
-0.15270000000000006,-7.067897654125724
-0.15370000000000017,-7.111753704421539
-0.15470000000000006,-7.111753704421539
-0.15570000000000017,-7.067897654125724
-0.15670000000000006,-7.024041603829907
-0.15770000000000017,-6.981600264833956
-0.15870000000000006,-6.981600264833956
-0.15970000000000018,-6.981600264833956
-0.16070000000000007,-7.067897654125724
-0.16170000000000018,-7.111753704421539
-0.16270000000000007,-7.199465805013171
-0.16370000000000018,-7.199465805013171
-0.16470000000000007,-7.243321855308987
-0.16570000000000018,-7.155609754717355
-0.16670000000000007,-7.155609754717355
-0.16770000000000018,-7.067897654125724
-0.16870000000000007,-7.067897654125724
-0.16970000000000018,-7.067897654125724
-0.17070000000000007,-7.111753704421539
-0.17170000000000019,-7.199465805013171
-0.17270000000000008,-7.28576319430494
-0.1737000000000002,-7.28576319430494
-0.17470000000000008,-7.28576319430494
-0.1757000000000002,-7.243321855308987
-0.17670000000000008,-7.199465805013171
-0.1777000000000002,-7.155609754717355
-0.17870000000000008,-7.155609754717355
-0.1797000000000002,-7.155609754717355
-0.18070000000000008,-7.199465805013171
-0.1817000000000002,-7.243321855308987
-0.18270000000000008,-7.329619244600755
-0.1837000000000002,-7.329619244600755
-0.1847000000000001,-7.329619244600755
-0.1857000000000002,-7.28576319430494
-0.1867000000000001,-7.243321855308987
-0.1877000000000002,-7.199465805013171
-0.1887000000000001,-7.199465805013171
-0.1897000000000002,-7.199465805013171
-0.1907000000000001,-7.28576319430494
-0.1917000000000001,-7.329619244600755
-0.19269999999999998,-7.37347529489657
-0.1937000000000001,-7.4173313451923875
-0.19469999999999998,-7.4173313451923875
-0.1957000000000001,-7.37347529489657
-0.19669999999999999,-7.28576319430494
-0.1977000000000001,-7.243321855308987
-0.1987,-7.243321855308987
-0.1997000000000001,-7.243321855308987
-0.2007,-7.28576319430494
-0.2017000000000001,-7.37347529489657
-0.2027,-7.4173313451923875
-0.2037000000000001,-7.461187395488204
-0.2047,-7.4173313451923875
-0.2057000000000001,-7.37347529489657
-0.2067,-7.329619244600755
-0.2077000000000001,-7.28576319430494
-0.2087,-7.28576319430494
-0.2097000000000001,-7.28576319430494
-0.2107,-7.329619244600755
-0.2117000000000001,-7.4173313451923875
-0.2127,-7.461187395488204
-0.2137000000000001,-7.461187395488204
-0.2147,-7.461187395488204
-0.2157000000000001,-7.4173313451923875
-0.2167,-7.37347529489657
-0.21770000000000012,-7.28576319430494
-0.2187,-7.28576319430494
-0.21970000000000012,-7.329619244600755
-0.2207,-7.37347529489657
-0.22170000000000012,-7.4173313451923875
-0.2227,-7.461187395488204
-0.22370000000000012,-7.50504344578402
-0.2247,-7.50504344578402
-0.22570000000000012,-7.4173313451923875
-0.2267,-7.37347529489657
-0.22770000000000012,-7.329619244600755
-0.22870000000000001,-7.329619244600755
-0.22970000000000013,-7.329619244600755
-0.23070000000000002,-7.37347529489657
-0.23170000000000013,-7.461187395488204
-0.23270000000000002,-7.50504344578402
-0.23370000000000013,-7.5474847847799715
-0.23470000000000002,-7.50504344578402
-0.23570000000000013,-7.461187395488204
-0.23670000000000002,-7.4173313451923875
-0.2376999999999999,-7.37347529489657
-0.23870000000000002,-7.37347529489657
-0.2396999999999999,-7.37347529489657
-0.24070000000000003,-7.461187395488204
-0.24169999999999991,-7.50504344578402
-0.24270000000000003,-7.5474847847799715
-0.24369999999999992,-7.5474847847799715
-0.24470000000000003,-7.5474847847799715
-0.24569999999999992,-7.50504344578402
-0.24670000000000003,-7.461187395488204
-0.24769999999999992,-7.4173313451923875
-0.24870000000000003,-7.4173313451923875
-0.24969999999999992,-7.461187395488204
-0.25070000000000003,-7.50504344578402
-0.2516999999999999,-7.591340835075788
-0.25270000000000004,-7.635196885371603
-0.2536999999999999,-7.635196885371603
-0.25470000000000004,-7.679052935667419
-0.2556999999999999,-7.591340835075788
-0.25670000000000004,-7.591340835075788
-0.25769999999999993,-7.5474847847799715
-0.25870000000000004,-7.5474847847799715
-0.25969999999999993,-7.5474847847799715
-0.26070000000000004,-7.635196885371603
-0.26169999999999993,-7.679052935667419
-0.26270000000000004,-7.722908985963235
-0.26369999999999993,-7.7653503249591855
-0.26470000000000005,-7.7653503249591855
-0.26569999999999994,-7.722908985963235
-0.26670000000000005,-7.679052935667419
-0.26769999999999994,-7.635196885371603
-0.26870000000000005,-7.635196885371603
-0.26969999999999994,-7.679052935667419
-0.27070000000000005,-7.7653503249591855
-0.27169999999999994,-7.809206375255003
-0.27270000000000005,-7.896918475846635
-0.27369999999999994,-7.896918475846635
-0.27470000000000006,-7.896918475846635
-0.27569999999999995,-7.896918475846635
-0.27670000000000006,-7.853062425550818
-0.27769999999999995,-7.809206375255003
-0.27870000000000006,-7.853062425550818
-0.27969999999999995,-7.853062425550818
-0.28070000000000006,-7.940774526142452
-0.28169999999999995,-8.027071915434218
-0.28270000000000006,-8.070927965730034
-0.28369999999999995,-8.11478401602585
-0.28470000000000006,-8.11478401602585
-0.28569999999999995,-8.11478401602585
-0.28670000000000007,-8.070927965730034
-0.28769999999999996,-8.070927965730034
-0.28870000000000007,-8.070927965730034
-0.28969999999999996,-8.11478401602585
-0.29070000000000007,-8.202496116617484
-0.29169999999999996,-8.288793505909249
-0.29270000000000007,-8.332649556205066
-0.29369999999999996,-8.4203616567967
-0.2947000000000001,-8.4203616567967
-0.29569999999999996,-8.4203616567967
-0.2967000000000001,-8.376505606500881
-0.29769999999999996,-8.376505606500881
-0.2987000000000001,-8.4203616567967
-0.29969999999999997,-8.4203616567967
-0.3007000000000001,-8.508073757388331
-0.30169999999999997,-8.594371146680096
-0.3027000000000001,-8.68208324727173
-0.30369999999999997,-8.725939297567548
-0.3047000000000001,-8.769795347863363
-0.30569999999999997,-8.769795347863363
-0.3067000000000001,-8.769795347863363
-0.3077,-8.769795347863363
-0.3087000000000001,-8.812236686859313
-0.3097,-8.85609273715513
-0.3107000000000001,-8.943804837746763
-0.3117,-9.031516938338395
-0.3127000000000001,-9.161670377925978
-0.3137,-9.205526428221793
-0.3147000000000001,-9.24938247851761
-0.3157,-9.24938247851761
-0.3167000000000001,-9.293238528813426
-0.3177,-9.293238528813426
-0.3187000000000001,-9.335679867809377
-0.3197,-9.379535918105192
-0.3207000000000001,-9.511104068992642
-0.3217,-9.59740145828441
-0.3227000000000001,-9.728969609171857
-0.3237,-9.772825659467674
-0.3247000000000001,-9.85912304875944
-0.3257,-9.81668170976349
-0.3267000000000001,-9.85912304875944
-0.3277,-9.902979099055257
-0.3287000000000001,-9.946835149351072
-0.3297,-10.034547249942705
-0.3307000000000001,-10.164700689530287
-0.3317,-10.296268840417738
-0.3327000000000001,-10.42642228000532
-0.3337,-10.514134380596953
-0.3347000000000001,-10.644287820184536
-0.3357,-10.644287820184536
-0.3367000000000001,-10.688143870480351
-0.3377,-10.731999920776168
-0.3387000000000001,-10.819712021367803
-0.3397,-10.906009410659568
-0.3407000000000001,-11.081433611842833
-0.3417,-11.1677310011346
-0.3427000000000001,-11.343155202317865
-0.3437,-11.42945259160963
-0.3447000000000001,-11.517164692201263
-0.3457,-11.56102074249708
-0.3467000000000001,-11.604876792792895
-0.3477,-11.647318131788847
-0.3487000000000001,-11.778886282676295
-0.3497,-11.86659838326793
-0.3507000000000001,-12.040607873151327
-0.3517,-12.170761312738911
-0.3527000000000001,-12.390041564217992
-0.3537,-12.520195003805576
-0.3547000000000001,-12.607907104397206
-0.3557,-12.694204493688973
-0.35670000000000013,-12.781916594280606
-0.3577,-12.869628694872238
-0.35870000000000013,-12.99978213445982
-0.3597,-13.13135028534727
-0.36070000000000013,-13.30535977523067
-0.3617,-13.47936926511407
-0.3626999999999999,-13.654793466297335
-0.3637,-13.828802956180734
-0.3646999999999999,-13.960371107068182
-0.3657,-14.046668496359947
-0.3666999999999999,-14.175407224647667
-0.3677,-14.26028990263957
-0.3686999999999999,-14.401761032626075
-0.36970000000000003,-14.57152638860988
-0.3706999999999999,-14.783733083589633
-0.37170000000000003,-15.01008689156804
-0.3726999999999999,-15.222293586547794
-0.37370000000000003,-15.3920589425316
-0.3746999999999999,-15.575971411514052
-0.37570000000000003,-15.70329542850191
-0.3766999999999999,-15.830619445489761
-0.37770000000000004,-15.972090575476265
-0.3786999999999999,-16.141855931460068
-0.37970000000000004,-16.354062626439823
-0.3806999999999999,-16.580416434418233
-0.38170000000000004,-16.792623129397985
-0.38269999999999993,-17.018976937376394
-0.38370000000000004,-17.188742293360193
-0.38469999999999993,-17.4433903273359
-0.38570000000000004,-17.584861457322408
-0.38669999999999993,-17.75462681330621
-0.38770000000000004,-17.924392169290012
-0.38869999999999993,-18.15074597726842
-0.38970000000000005,-18.362952672248177
-0.39069999999999994,-18.674189158218486
-0.39170000000000005,-18.92883719219419
-0.39269999999999994,-19.2400736781645
-0.39370000000000005,-19.49472171214021
-0.39469999999999994,-19.721075520118614
-0.39570000000000005,-19.93328221509837
-0.39669999999999994,-20.159636023076775
-0.39770000000000005,-20.371842718056527
-0.39869999999999994,-20.626490752032236
-0.39970000000000006,-20.85284456001064
-0.40069999999999995,-21.149933932982297
-0.40170000000000006,-21.461170418952605
-0.40269999999999995,-21.814848243918867
-0.40370000000000006,-22.111937616890522
-0.40469999999999995,-22.42317410286083
-0.40570000000000006,-22.63538079784059
-0.40669999999999995,-22.946617283810895
-0.40770000000000006,-23.15882397879065
-0.40869999999999995,-23.47006046476096
-0.40970000000000006,-23.767149837732617
-0.41069999999999995,-24.120827662698876
-0.41170000000000007,-24.516946826661083
-0.41269999999999996,-24.870624651627345
-0.41370000000000007,-25.210155363594954
-0.41469999999999996,-25.60627452755716
-0.41570000000000007,-25.81848122253692
-0.41669999999999996,-26.129717708507226
-0.41770000000000007,-26.440954194477534
-0.41869999999999996,-26.780484906445146
-0.4197000000000001,-27.134162731411404
-0.42069999999999996,-27.530281895373616
-0.4217000000000001,-27.912253946337174
-0.42269999999999996,-28.350814449295335
-0.4237000000000001,-28.746933613257543
-0.42469999999999997,-29.100611438223805
-0.4257000000000001,-29.440142150191413
-0.42669999999999997,-29.793819975157668
-0.4277000000000001,-30.147497800123933
-0.42869999999999997,-30.529469851087494
-0.4297000000000001,-30.925589015049702
-0.43069999999999997,-31.36414951800786
-0.4317000000000001,-31.802710020966025
-0.4327,-32.283711862920136
-0.4337000000000001,-32.70812525287965
-0.4347,-33.14668575583781
-0.4357000000000001,-33.54280491980002
-0.4367,-33.93892408376223
-0.4377000000000001,-34.33504324772444
-0.4387,-34.75945663768395
-0.4397000000000001,-35.198017140642115
-0.4407,-35.721460321592176
-0.4417000000000001,-36.20246216354629
-0.4427,-36.6834640055004
-0.4437000000000001,-37.206907186450465
-0.4447,-37.687909028404576
-0.4457000000000001,-38.12646953136274
-0.4467,-38.5650300343209
-0.4477000000000001,-38.98944342428042
-0.4487,-39.47044526623452
-0.4497000000000001,-39.95144710818864
-0.4507,-40.51733162813464
-0.4517000000000001,-41.083216148080666
-0.4527,-41.66324778102533
-0.4537000000000001,-42.229132300971344
-0.4547,-42.79501682091736
-0.4557000000000001,-43.23357732387552
-0.4567,-43.75702050482558
-0.4577000000000001,-44.223875233781044
-0.4587,-44.80390686672572
-0.4597000000000001,-45.32735004767578
-0.4607,-45.89323456762179
-0.4617000000000001,-46.501560426563756
-0.4627,-47.10988628550572
-0.4637000000000001,-47.71821214444768
-0.4647,-48.2840966643937
-0.4657000000000001,-48.80753984534376
-0.4667,-49.33098302629383
-0.4677000000000001,-49.85442620724389
-0.4687,-50.42031072718991
-0.4697000000000001,-50.98619524713592
-0.4707,-51.65110955807249
-0.4717000000000001,-52.25943541701445
-0.4727,-52.95264395394832
-0.4737000000000001,-53.56096981289029
-0.4747,-54.16929567183226
-0.4757000000000001,-54.791768643772876
-0.4767,-55.357653163718886
-0.4777000000000001,-55.9235376836649
-0.4787,-56.53186354260687
-0.4797000000000001,-57.14018940154883
-0.4807,-57.8333979384827
-0.48170000000000013,-58.498312249419264
-0.4827,-59.19152078635314
-0.48370000000000013,-59.842287984291055
-0.4847,-60.54964363422357
-0.48570000000000013,-61.15796949316553
-0.4867,-61.7662953521075
-0.4876999999999999,-62.37462121104946
-0.4887,-63.02538840898739
-0.4896999999999999,-63.633714267929356
-0.4907,-64.38351125685783
-0.4916999999999999,-65.0767197937917
-0.4927,-65.82651678272015
-0.4936999999999999,-66.51972531965401
-0.49470000000000003,-67.25537519558385
-0.4956999999999999,-67.9202895065204
-0.49670000000000003,-68.57105670445833
-0.4976999999999999,-69.22182390239624
-0.49870000000000003,-69.87259110033416
-0.4996999999999999,-70.62238808926263
-0.5007,-71.31559662619651
-0.5016999999999999,-72.10783495412092
-0.5027,-72.84348483005074
-0.5036999999999999,-73.57913470598055
-0.5047,-74.32893169490903
-0.5056999999999999,-75.02214023184291
-0.5067,-75.6729074297808
-0.5076999999999999,-76.33782174071737
-0.5087,-77.03103027765125
-0.5096999999999999,-77.7242388145851
-0.5107,-78.51647714250953
-0.5116999999999999,-79.2945683574353
-0.5127,-80.08680668535972
