Aug. 5, 2024   01:29:04
Cyclic Voltammetry
File: c:/users/guazh/data/20240802_batch_500/2024-08-02-exp21\exp21-2024-08-05t01_05_34-h2koh\exp21_cv_sr_500mvs_efin_-1800mv.bin
Data Source:  Experiment
Instrument Model:  CHI760E
Header: CV ran at 500 mVs
Note: 

Init E (V) = -1
High E (V) = -1
Low E (V) = -1.8
Final E (V) = -1
Init P/N = N
Scan Rate (V/s) = 0.5
Segment = 3
Sample Interval (V) = 0.001
Quiet Time (sec) = 2
Sensitivity (A/V) = 0.01
Comp R (ohm) = 2.1

Results:

Channel 1:
Segment 1:

Segment 2:

Segment 3:

Potential/V, Current/A

-1.000, 3.239e-6
-1.001, 3.239e-6
-1.002, 3.239e-6
-1.003, 3.239e-6
-1.004, 3.239e-6
-1.005, 6.322e-6
-1.006, 6.322e-6
-1.007, 6.322e-6
-1.008, 6.322e-6
-1.009, 9.405e-6
-1.010, 6.322e-6
-1.011, 6.322e-6
-1.012, 6.322e-6
-1.013, 9.405e-6
-1.014, 9.405e-6
-1.015, 9.405e-6
-1.016, 9.405e-6
-1.017, 9.405e-6
-1.018, 9.405e-6
-1.019, 9.405e-6
-1.020, 9.405e-6
-1.021, 9.405e-6
-1.022, 9.405e-6
-1.023, 9.405e-6
-1.024, 9.405e-6
-1.025, 9.405e-6
-1.026, 1.249e-5
-1.027, 1.249e-5
-1.028, 1.249e-5
-1.029, 1.249e-5
-1.030, 1.249e-5
-1.031, 1.249e-5
-1.032, 1.249e-5
-1.033, 1.249e-5
-1.034, 1.249e-5
-1.035, 1.249e-5
-1.036, 1.249e-5
-1.037, 1.249e-5
-1.038, 1.249e-5
-1.039, 1.249e-5
-1.040, 1.249e-5
-1.041, 1.249e-5
-1.042, 1.557e-5
-1.043, 1.557e-5
-1.044, 1.557e-5
-1.045, 1.557e-5
-1.046, 1.557e-5
-1.047, 1.249e-5
-1.048, 1.557e-5
-1.049, 1.557e-5
-1.050, 1.557e-5
-1.051, 1.557e-5
-1.052, 1.557e-5
-1.053, 1.557e-5
-1.054, 1.557e-5
-1.055, 1.557e-5
-1.056, 1.557e-5
-1.057, 1.557e-5
-1.058, 1.557e-5
-1.059, 1.557e-5
-1.060, 1.557e-5
-1.061, 1.557e-5
-1.062, 1.557e-5
-1.063, 1.557e-5
-1.064, 1.557e-5
-1.065, 1.557e-5
-1.066, 1.557e-5
-1.067, 1.865e-5
-1.068, 1.865e-5
-1.069, 1.865e-5
-1.070, 1.865e-5
-1.071, 1.865e-5
-1.072, 1.865e-5
-1.073, 1.865e-5
-1.074, 1.865e-5
-1.075, 1.865e-5
-1.076, 1.865e-5
-1.077, 1.865e-5
-1.078, 1.865e-5
-1.079, 1.865e-5
-1.080, 1.865e-5
-1.081, 1.865e-5
-1.082, 1.865e-5
-1.083, 1.865e-5
-1.084, 1.865e-5
-1.085, 1.865e-5
-1.086, 2.174e-5
-1.087, 1.865e-5
-1.088, 1.865e-5
-1.089, 2.174e-5
-1.090, 2.174e-5
-1.091, 2.174e-5
-1.092, 1.865e-5
-1.093, 1.865e-5
-1.094, 2.174e-5
-1.095, 2.174e-5
-1.096, 2.174e-5
-1.097, 1.865e-5
-1.098, 1.865e-5
-1.099, 1.865e-5
-1.100, 1.865e-5
-1.101, 2.174e-5
-1.102, 1.865e-5
-1.103, 2.174e-5
-1.104, 2.174e-5
-1.105, 2.174e-5
-1.106, 2.174e-5
-1.107, 2.174e-5
-1.108, 2.174e-5
-1.109, 2.174e-5
-1.110, 2.174e-5
-1.111, 2.174e-5
-1.112, 2.174e-5
-1.113, 2.174e-5
-1.114, 2.174e-5
-1.115, 2.174e-5
-1.116, 2.174e-5
-1.117, 2.174e-5
-1.118, 2.174e-5
-1.119, 2.174e-5
-1.120, 2.174e-5
-1.121, 2.174e-5
-1.122, 2.174e-5
-1.123, 2.174e-5
-1.124, 2.174e-5
-1.125, 2.174e-5
-1.126, 2.482e-5
-1.127, 2.174e-5
-1.128, 2.174e-5
-1.129, 2.174e-5
-1.130, 2.174e-5
-1.131, 2.174e-5
-1.132, 2.174e-5
-1.133, 2.174e-5
-1.134, 2.174e-5
-1.135, 2.482e-5
-1.136, 2.482e-5
-1.137, 2.482e-5
-1.138, 2.482e-5
-1.139, 2.482e-5
-1.140, 2.790e-5
-1.141, 2.790e-5
-1.142, 2.790e-5
-1.143, 2.482e-5
-1.144, 2.790e-5
-1.145, 2.790e-5
-1.146, 2.790e-5
-1.147, 2.790e-5
-1.148, 2.482e-5
-1.149, 2.482e-5
-1.150, 2.482e-5
-1.151, 2.790e-5
-1.152, 2.482e-5
-1.153, 2.790e-5
-1.154, 2.790e-5
-1.155, 2.482e-5
-1.156, 2.482e-5
-1.157, 2.482e-5
-1.158, 2.482e-5
-1.159, 2.482e-5
-1.160, 2.482e-5
-1.161, 2.482e-5
-1.162, 2.482e-5
-1.163, 2.482e-5
-1.164, 2.482e-5
-1.165, 2.482e-5
-1.166, 2.174e-5
-1.167, 2.482e-5
-1.168, 2.482e-5
-1.169, 2.482e-5
-1.170, 2.482e-5
-1.171, 2.174e-5
-1.172, 2.482e-5
-1.173, 2.174e-5
-1.174, 2.174e-5
-1.175, 2.174e-5
-1.176, 2.174e-5
-1.177, 2.174e-5
-1.178, 2.482e-5
-1.179, 2.174e-5
-1.180, 2.174e-5
-1.181, 2.174e-5
-1.182, 2.174e-5
-1.183, 2.174e-5
-1.184, 2.174e-5
-1.185, 2.174e-5
-1.186, 2.482e-5
-1.187, 2.482e-5
-1.188, 2.174e-5
-1.189, 2.174e-5
-1.190, 2.174e-5
-1.191, 2.174e-5
-1.192, 2.482e-5
-1.193, 2.482e-5
-1.194, 2.482e-5
-1.195, 2.482e-5
-1.196, 2.174e-5
-1.197, 2.482e-5
-1.198, 2.174e-5
-1.199, 2.174e-5
-1.200, 2.174e-5
-1.201, 2.482e-5
-1.202, 2.482e-5
-1.203, 2.482e-5
-1.204, 2.482e-5
-1.205, 2.482e-5
-1.206, 2.482e-5
-1.207, 2.482e-5
-1.208, 2.482e-5
-1.209, 2.482e-5
-1.210, 2.482e-5
-1.211, 2.790e-5
-1.212, 2.790e-5
-1.213, 2.790e-5
-1.214, 2.790e-5
-1.215, 2.790e-5
-1.216, 2.790e-5
-1.217, 2.790e-5
-1.218, 2.790e-5
-1.219, 3.099e-5
-1.220, 2.790e-5
-1.221, 2.790e-5
-1.222, 3.099e-5
-1.223, 3.099e-5
-1.224, 3.099e-5
-1.225, 3.099e-5
-1.226, 3.099e-5
-1.227, 3.099e-5
-1.228, 3.099e-5
-1.229, 3.099e-5
-1.230, 3.099e-5
-1.231, 3.099e-5
-1.232, 2.790e-5
-1.233, 3.099e-5
-1.234, 3.099e-5
-1.235, 3.099e-5
-1.236, 3.099e-5
-1.237, 3.099e-5
-1.238, 3.099e-5
-1.239, 3.099e-5
-1.240, 2.790e-5
-1.241, 3.099e-5
-1.242, 3.099e-5
-1.243, 3.099e-5
-1.244, 2.790e-5
-1.245, 3.099e-5
-1.246, 2.790e-5
-1.247, 2.790e-5
-1.248, 3.099e-5
-1.249, 2.790e-5
-1.250, 2.790e-5
-1.251, 3.099e-5
-1.252, 2.790e-5
-1.253, 2.790e-5
-1.254, 2.790e-5
-1.255, 2.790e-5
-1.256, 2.790e-5
-1.257, 3.099e-5
-1.258, 3.099e-5
-1.259, 3.099e-5
-1.260, 3.099e-5
-1.261, 3.099e-5
-1.262, 3.099e-5
-1.263, 2.790e-5
-1.264, 3.099e-5
-1.265, 3.099e-5
-1.266, 3.099e-5
-1.267, 3.099e-5
-1.268, 3.099e-5
-1.269, 3.099e-5
-1.270, 3.099e-5
-1.271, 3.099e-5
-1.272, 3.099e-5
-1.273, 3.099e-5
-1.274, 3.099e-5
-1.275, 3.099e-5
-1.276, 3.099e-5
-1.277, 3.099e-5
-1.278, 3.099e-5
-1.279, 3.099e-5
-1.280, 3.099e-5
-1.281, 3.099e-5
-1.282, 3.099e-5
-1.283, 3.099e-5
-1.284, 3.099e-5
-1.285, 3.099e-5
-1.286, 3.099e-5
-1.287, 3.099e-5
-1.288, 3.099e-5
-1.289, 3.099e-5
-1.290, 3.099e-5
-1.291, 3.099e-5
-1.292, 3.099e-5
-1.293, 3.099e-5
-1.294, 3.407e-5
-1.295, 3.099e-5
-1.296, 3.099e-5
-1.297, 3.099e-5
-1.298, 3.099e-5
-1.299, 3.099e-5
-1.300, 3.099e-5
-1.301, 3.407e-5
-1.302, 3.099e-5
-1.303, 3.099e-5
-1.304, 3.099e-5
-1.305, 3.407e-5
-1.306, 3.407e-5
-1.307, 3.407e-5
-1.308, 3.407e-5
-1.309, 3.407e-5
-1.310, 3.407e-5
-1.311, 3.407e-5
-1.312, 3.407e-5
-1.313, 3.407e-5
-1.314, 3.407e-5
-1.315, 3.407e-5
-1.316, 3.407e-5
-1.317, 3.407e-5
-1.318, 3.407e-5
-1.319, 3.407e-5
-1.320, 3.407e-5
-1.321, 3.407e-5
-1.322, 3.407e-5
-1.323, 3.407e-5
-1.324, 3.407e-5
-1.325, 3.407e-5
-1.326, 3.715e-5
-1.327, 3.407e-5
-1.328, 3.715e-5
-1.329, 3.407e-5
-1.330, 3.715e-5
-1.331, 3.715e-5
-1.332, 3.715e-5
-1.333, 3.715e-5
-1.334, 3.407e-5
-1.335, 3.715e-5
-1.336, 3.715e-5
-1.337, 3.715e-5
-1.338, 3.715e-5
-1.339, 3.715e-5
-1.340, 3.715e-5
-1.341, 3.715e-5
-1.342, 3.715e-5
-1.343, 3.715e-5
-1.344, 3.715e-5
-1.345, 3.715e-5
-1.346, 3.715e-5
-1.347, 3.715e-5
-1.348, 3.715e-5
-1.349, 3.715e-5
-1.350, 3.715e-5
-1.351, 3.715e-5
-1.352, 3.715e-5
-1.353, 3.715e-5
-1.354, 3.715e-5
-1.355, 3.715e-5
-1.356, 3.715e-5
-1.357, 3.715e-5
-1.358, 4.024e-5
-1.359, 4.024e-5
-1.360, 4.024e-5
-1.361, 4.024e-5
-1.362, 4.024e-5
-1.363, 4.024e-5
-1.364, 4.024e-5
-1.365, 4.024e-5
-1.366, 4.024e-5
-1.367, 4.332e-5
-1.368, 4.332e-5
-1.369, 4.332e-5
-1.370, 4.332e-5
-1.371, 4.332e-5
-1.372, 4.332e-5
-1.373, 4.332e-5
-1.374, 4.640e-5
-1.375, 4.332e-5
-1.376, 4.640e-5
-1.377, 4.332e-5
-1.378, 4.640e-5
-1.379, 4.640e-5
-1.380, 4.640e-5
-1.381, 4.640e-5
-1.382, 4.640e-5
-1.383, 4.640e-5
-1.384, 4.640e-5
-1.385, 4.640e-5
-1.386, 4.640e-5
-1.387, 4.640e-5
-1.388, 4.640e-5
-1.389, 4.640e-5
-1.390, 4.640e-5
-1.391, 4.640e-5
-1.392, 4.640e-5
-1.393, 4.640e-5
-1.394, 4.640e-5
-1.395, 4.949e-5
-1.396, 4.640e-5
-1.397, 4.640e-5
-1.398, 4.640e-5
-1.399, 4.640e-5
-1.400, 4.640e-5
-1.401, 4.949e-5
-1.402, 4.949e-5
-1.403, 4.640e-5
-1.404, 4.949e-5
-1.405, 4.949e-5
-1.406, 4.949e-5
-1.407, 4.949e-5
-1.408, 4.949e-5
-1.409, 4.949e-5
-1.410, 4.949e-5
-1.411, 4.949e-5
-1.412, 4.949e-5
-1.413, 5.257e-5
-1.414, 5.257e-5
-1.415, 5.257e-5
-1.416, 5.257e-5
-1.417, 5.257e-5
-1.418, 5.257e-5
-1.419, 5.257e-5
-1.420, 5.257e-5
-1.421, 5.257e-5
-1.422, 5.257e-5
-1.423, 5.565e-5
-1.424, 5.565e-5
-1.425, 5.565e-5
-1.426, 5.565e-5
-1.427, 5.565e-5
-1.428, 5.565e-5
-1.429, 5.565e-5
-1.430, 5.565e-5
-1.431, 5.565e-5
-1.432, 5.873e-5
-1.433, 5.873e-5
-1.434, 5.873e-5
-1.435, 5.565e-5
-1.436, 5.873e-5
-1.437, 5.873e-5
-1.438, 5.873e-5
-1.439, 6.182e-5
-1.440, 6.182e-5
-1.441, 6.182e-5
-1.442, 6.182e-5
-1.443, 6.182e-5
-1.444, 6.182e-5
-1.445, 6.490e-5
-1.446, 6.490e-5
-1.447, 6.490e-5
-1.448, 6.490e-5
-1.449, 6.490e-5
-1.450, 6.490e-5
-1.451, 6.490e-5
-1.452, 6.490e-5
-1.453, 6.490e-5
-1.454, 6.490e-5
-1.455, 6.798e-5
-1.456, 6.798e-5
-1.457, 6.798e-5
-1.458, 6.798e-5
-1.459, 7.107e-5
-1.460, 6.798e-5
-1.461, 7.107e-5
-1.462, 7.107e-5
-1.463, 7.107e-5
-1.464, 7.107e-5
-1.465, 7.107e-5
-1.466, 7.107e-5
-1.467, 7.107e-5
-1.468, 7.107e-5
-1.469, 7.107e-5
-1.470, 7.107e-5
-1.471, 7.107e-5
-1.472, 7.415e-5
-1.473, 7.415e-5
-1.474, 7.415e-5
-1.475, 7.415e-5
-1.476, 7.415e-5
-1.477, 7.415e-5
-1.478, 7.415e-5
-1.479, 7.415e-5
-1.480, 7.723e-5
-1.481, 7.723e-5
-1.482, 7.723e-5
-1.483, 7.723e-5
-1.484, 8.032e-5
-1.485, 8.032e-5
-1.486, 8.032e-5
-1.487, 8.032e-5
-1.488, 8.032e-5
-1.489, 8.032e-5
-1.490, 8.032e-5
-1.491, 8.032e-5
-1.492, 8.032e-5
-1.493, 8.340e-5
-1.494, 8.340e-5
-1.495, 8.340e-5
-1.496, 8.648e-5
-1.497, 8.648e-5
-1.498, 8.648e-5
-1.499, 8.957e-5
-1.500, 8.957e-5
-1.501, 8.957e-5
-1.502, 8.957e-5
-1.503, 9.265e-5
-1.504, 9.265e-5
-1.505, 9.265e-5
-1.506, 9.265e-5
-1.507, 9.573e-5
-1.508, 9.265e-5
-1.509, 9.265e-5
-1.510, 9.265e-5
-1.511, 9.265e-5
-1.512, 9.265e-5
-1.513, 9.573e-5
-1.514, 9.573e-5
-1.515, 9.573e-5
-1.516, 9.573e-5
-1.517, 9.573e-5
-1.518, 9.573e-5
-1.519, 9.573e-5
-1.520, 9.573e-5
-1.521, 9.573e-5
-1.522, 9.882e-5
-1.523, 9.882e-5
-1.524, 9.882e-5
-1.525, 9.882e-5
-1.526, 9.882e-5
-1.527, 1.019e-4
-1.528, 1.019e-4
-1.529, 1.019e-4
-1.530, 1.050e-4
-1.531, 1.050e-4
-1.532, 1.050e-4
-1.533, 1.050e-4
-1.534, 1.050e-4
-1.535, 1.081e-4
-1.536, 1.081e-4
-1.537, 1.081e-4
-1.538, 1.111e-4
-1.539, 1.081e-4
-1.540, 1.081e-4
-1.541, 1.111e-4
-1.542, 1.111e-4
-1.543, 1.142e-4
-1.544, 1.142e-4
-1.545, 1.142e-4
-1.546, 1.142e-4
-1.547, 1.142e-4
-1.548, 1.173e-4
-1.549, 1.173e-4
-1.550, 1.173e-4
-1.551, 1.173e-4
-1.552, 1.204e-4
-1.553, 1.204e-4
-1.554, 1.204e-4
-1.555, 1.235e-4
-1.556, 1.235e-4
-1.557, 1.235e-4
-1.558, 1.266e-4
-1.559, 1.266e-4
-1.560, 1.296e-4
-1.561, 1.296e-4
-1.562, 1.296e-4
-1.563, 1.296e-4
-1.564, 1.296e-4
-1.565, 1.327e-4
-1.566, 1.358e-4
-1.567, 1.358e-4
-1.568, 1.389e-4
-1.569, 1.389e-4
-1.570, 1.420e-4
-1.571, 1.420e-4
-1.572, 1.389e-4
-1.573, 1.420e-4
-1.574, 1.389e-4
-1.575, 1.389e-4
-1.576, 1.420e-4
-1.577, 1.389e-4
-1.578, 1.389e-4
-1.579, 1.389e-4
-1.580, 1.420e-4
-1.581, 1.389e-4
-1.582, 1.420e-4
-1.583, 1.451e-4
-1.584, 1.420e-4
-1.585, 1.451e-4
-1.586, 1.481e-4
-1.587, 1.481e-4
-1.588, 1.512e-4
-1.589, 1.512e-4
-1.590, 1.512e-4
-1.591, 1.543e-4
-1.592, 1.543e-4
-1.593, 1.574e-4
-1.594, 1.574e-4
-1.595, 1.605e-4
-1.596, 1.605e-4
-1.597, 1.605e-4
-1.598, 1.636e-4
-1.599, 1.636e-4
-1.600, 1.636e-4
-1.601, 1.666e-4
-1.602, 1.666e-4
-1.603, 1.666e-4
-1.604, 1.697e-4
-1.605, 1.697e-4
-1.606, 1.697e-4
-1.607, 1.728e-4
-1.608, 1.728e-4
-1.609, 1.728e-4
-1.610, 1.759e-4
-1.611, 1.759e-4
-1.612, 1.759e-4
-1.613, 1.790e-4
-1.614, 1.790e-4
-1.615, 1.790e-4
-1.616, 1.821e-4
-1.617, 1.821e-4
-1.618, 1.821e-4
-1.619, 1.821e-4
-1.620, 1.790e-4
-1.621, 1.790e-4
-1.622, 1.790e-4
-1.623, 1.759e-4
-1.624, 1.790e-4
-1.625, 1.821e-4
-1.626, 1.821e-4
-1.627, 1.821e-4
-1.628, 1.821e-4
-1.629, 1.851e-4
-1.630, 1.851e-4
-1.631, 1.882e-4
-1.632, 1.882e-4
-1.633, 1.851e-4
-1.634, 1.882e-4
-1.635, 1.882e-4
-1.636, 1.882e-4
-1.637, 1.913e-4
-1.638, 1.944e-4
-1.639, 1.944e-4
-1.640, 1.944e-4
-1.641, 1.975e-4
-1.642, 1.975e-4
-1.643, 2.006e-4
-1.644, 2.036e-4
-1.645, 2.036e-4
-1.646, 2.067e-4
-1.647, 2.067e-4
-1.648, 2.098e-4
-1.649, 2.098e-4
-1.650, 2.129e-4
-1.651, 2.160e-4
-1.652, 2.191e-4
-1.653, 2.191e-4
-1.654, 2.221e-4
-1.655, 2.221e-4
-1.656, 2.252e-4
-1.657, 2.283e-4
-1.658, 2.283e-4
-1.659, 2.314e-4
-1.660, 2.345e-4
-1.661, 2.376e-4
-1.662, 2.406e-4
-1.663, 2.406e-4
-1.664, 2.468e-4
-1.665, 2.561e-4
-1.666, 2.591e-4
-1.667, 2.653e-4
-1.668, 2.684e-4
-1.669, 2.746e-4
-1.670, 2.807e-4
-1.671, 2.807e-4
-1.672, 2.807e-4
-1.673, 2.869e-4
-1.674, 2.869e-4
-1.675, 2.900e-4
-1.676, 2.931e-4
-1.677, 2.961e-4
-1.678, 2.992e-4
-1.679, 3.023e-4
-1.680, 3.054e-4
-1.681, 3.085e-4
-1.682, 3.115e-4
-1.683, 3.177e-4
-1.684, 3.208e-4
-1.685, 3.239e-4
-1.686, 3.300e-4
-1.687, 3.331e-4
-1.688, 3.362e-4
-1.689, 3.424e-4
-1.690, 3.455e-4
-1.691, 3.485e-4
-1.692, 3.547e-4
-1.693, 3.609e-4
-1.694, 3.670e-4
-1.695, 3.732e-4
-1.696, 3.763e-4
-1.697, 3.825e-4
-1.698, 3.855e-4
-1.699, 3.917e-4
-1.700, 3.979e-4
-1.701, 4.040e-4
-1.702, 4.102e-4
-1.703, 4.164e-4
-1.704, 4.225e-4
-1.705, 4.287e-4
-1.706, 4.349e-4
-1.707, 4.410e-4
-1.708, 4.503e-4
-1.709, 4.565e-4
-1.710, 4.657e-4
-1.711, 4.719e-4
-1.712, 4.811e-4
-1.713, 4.873e-4
-1.714, 4.965e-4
-1.715, 5.027e-4
-1.716, 5.120e-4
-1.717, 5.212e-4
-1.718, 5.305e-4
-1.719, 5.428e-4
-1.720, 5.520e-4
-1.721, 5.613e-4
-1.722, 5.705e-4
-1.723, 5.829e-4
-1.724, 5.921e-4
-1.725, 6.014e-4
-1.726, 6.137e-4
-1.727, 6.260e-4
-1.728, 6.384e-4
-1.729, 6.507e-4
-1.730, 6.630e-4
-1.731, 6.754e-4
-1.732, 6.908e-4
-1.733, 7.062e-4
-1.734, 7.185e-4
-1.735, 7.370e-4
-1.736, 7.494e-4
-1.737, 7.648e-4
-1.738, 7.802e-4
-1.739, 7.987e-4
-1.740, 8.141e-4
-1.741, 8.326e-4
-1.742, 8.511e-4
-1.743, 8.696e-4
-1.744, 8.912e-4
-1.745, 9.097e-4
-1.746, 9.313e-4
-1.747, 9.528e-4
-1.748, 9.713e-4
-1.749, 9.960e-4
-1.750, 1.014e-3
-1.751, 1.042e-3
-1.752, 1.064e-3
-1.753, 1.088e-3
-1.754, 1.113e-3
-1.755, 1.141e-3
-1.756, 1.166e-3
-1.757, 1.193e-3
-1.758, 1.218e-3
-1.759, 1.249e-3
-1.760, 1.280e-3
-1.761, 1.310e-3
-1.762, 1.341e-3
-1.763, 1.372e-3
-1.764, 1.403e-3
-1.765, 1.434e-3
-1.766, 1.468e-3
-1.767, 1.505e-3
-1.768, 1.542e-3
-1.769, 1.579e-3
-1.770, 1.619e-3
-1.771, 1.656e-3
-1.772, 1.696e-3
-1.773, 1.736e-3
-1.774, 1.776e-3
-1.775, 1.819e-3
-1.776, 1.862e-3
-1.777, 1.909e-3
-1.778, 1.955e-3
-1.779, 2.001e-3
-1.780, 2.047e-3
-1.781, 2.094e-3
-1.782, 2.143e-3
-1.783, 2.192e-3
-1.784, 2.245e-3
-1.785, 2.297e-3
-1.786, 2.353e-3
-1.787, 2.408e-3
-1.788, 2.464e-3
-1.789, 2.516e-3
-1.790, 2.571e-3
-1.791, 2.627e-3
-1.792, 2.692e-3
-1.793, 2.756e-3
-1.794, 2.815e-3
-1.795, 2.880e-3
-1.796, 2.941e-3
-1.797, 3.006e-3
-1.798, 3.068e-3
-1.799, 3.136e-3
-1.800, 3.179e-3
-1.799, 3.170e-3
-1.798, 3.157e-3
-1.797, 3.139e-3
-1.796, 3.108e-3
-1.795, 3.080e-3
-1.794, 3.046e-3
-1.793, 3.015e-3
-1.792, 2.985e-3
-1.791, 2.957e-3
-1.790, 2.929e-3
-1.789, 2.898e-3
-1.788, 2.867e-3
-1.787, 2.834e-3
-1.786, 2.797e-3
-1.785, 2.763e-3
-1.784, 2.729e-3
-1.783, 2.695e-3
-1.782, 2.661e-3
-1.781, 2.630e-3
-1.780, 2.599e-3
-1.779, 2.562e-3
-1.778, 2.525e-3
-1.777, 2.488e-3
-1.776, 2.451e-3
-1.775, 2.417e-3
-1.774, 2.377e-3
-1.773, 2.343e-3
-1.772, 2.309e-3
-1.771, 2.275e-3
-1.770, 2.238e-3
-1.769, 2.201e-3
-1.768, 2.168e-3
-1.767, 2.137e-3
-1.766, 2.106e-3
-1.765, 2.075e-3
-1.764, 2.050e-3
-1.763, 2.020e-3
-1.762, 1.986e-3
-1.761, 1.952e-3
-1.760, 1.921e-3
-1.759, 1.887e-3
-1.758, 1.859e-3
-1.757, 1.832e-3
-1.756, 1.798e-3
-1.755, 1.770e-3
-1.754, 1.739e-3
-1.753, 1.708e-3
-1.752, 1.677e-3
-1.751, 1.647e-3
-1.750, 1.619e-3
-1.749, 1.594e-3
-1.748, 1.563e-3
-1.747, 1.539e-3
-1.746, 1.511e-3
-1.745, 1.486e-3
-1.744, 1.462e-3
-1.743, 1.434e-3
-1.742, 1.406e-3
-1.741, 1.384e-3
-1.740, 1.363e-3
-1.739, 1.341e-3
-1.738, 1.314e-3
-1.737, 1.286e-3
-1.736, 1.261e-3
-1.735, 1.236e-3
-1.734, 1.215e-3
-1.733, 1.193e-3
-1.732, 1.172e-3
-1.731, 1.150e-3
-1.730, 1.129e-3
-1.729, 1.107e-3
-1.728, 1.082e-3
-1.727, 1.064e-3
-1.726, 1.042e-3
-1.725, 1.024e-3
-1.724, 1.002e-3
-1.723, 9.837e-4
-1.722, 9.652e-4
-1.721, 9.467e-4
-1.720, 9.282e-4
-1.719, 9.066e-4
-1.718, 8.912e-4
-1.717, 8.727e-4
-1.716, 8.573e-4
-1.715, 8.418e-4
-1.714, 8.264e-4
-1.713, 8.110e-4
-1.712, 7.956e-4
-1.711, 7.771e-4
-1.710, 7.617e-4
-1.709, 7.463e-4
-1.708, 7.339e-4
-1.707, 7.185e-4
-1.706, 7.062e-4
-1.705, 6.908e-4
-1.704, 6.784e-4
-1.703, 6.661e-4
-1.702, 6.507e-4
-1.701, 6.384e-4
-1.700, 6.229e-4
-1.699, 6.137e-4
-1.698, 6.044e-4
-1.697, 5.952e-4
-1.696, 5.859e-4
-1.695, 5.736e-4
-1.694, 5.613e-4
-1.693, 5.489e-4
-1.692, 5.397e-4
-1.691, 5.274e-4
-1.690, 5.212e-4
-1.689, 5.089e-4
-1.688, 4.996e-4
-1.687, 4.904e-4
-1.686, 4.811e-4
-1.685, 4.719e-4
-1.684, 4.626e-4
-1.683, 4.565e-4
-1.682, 4.472e-4
-1.681, 4.410e-4
-1.680, 4.318e-4
-1.679, 4.225e-4
-1.678, 4.164e-4
-1.677, 4.071e-4
-1.676, 4.010e-4
-1.675, 3.948e-4
-1.674, 3.886e-4
-1.673, 3.794e-4
-1.672, 3.732e-4
-1.671, 3.670e-4
-1.670, 3.609e-4
-1.669, 3.516e-4
-1.668, 3.455e-4
-1.667, 3.393e-4
-1.666, 3.331e-4
-1.665, 3.300e-4
-1.664, 3.208e-4
-1.663, 3.177e-4
-1.662, 3.115e-4
-1.661, 3.023e-4
-1.660, 2.992e-4
-1.659, 2.931e-4
-1.658, 2.900e-4
-1.657, 2.838e-4
-1.656, 2.776e-4
-1.655, 2.746e-4
-1.654, 2.684e-4
-1.653, 2.653e-4
-1.652, 2.591e-4
-1.651, 2.561e-4
-1.650, 2.499e-4
-1.649, 2.468e-4
-1.648, 2.437e-4
-1.647, 2.406e-4
-1.646, 2.376e-4
-1.645, 2.314e-4
-1.644, 2.283e-4
-1.643, 2.252e-4
-1.642, 2.221e-4
-1.641, 2.191e-4
-1.640, 2.160e-4
-1.639, 2.129e-4
-1.638, 2.067e-4
-1.637, 2.036e-4
-1.636, 2.006e-4
-1.635, 1.975e-4
-1.634, 1.944e-4
-1.633, 1.913e-4
-1.632, 1.882e-4
-1.631, 1.851e-4
-1.630, 1.851e-4
-1.629, 1.821e-4
-1.628, 1.790e-4
-1.627, 1.759e-4
-1.626, 1.728e-4
-1.625, 1.697e-4
-1.624, 1.697e-4
-1.623, 1.636e-4
-1.622, 1.636e-4
-1.621, 1.605e-4
-1.620, 1.605e-4
-1.619, 1.574e-4
-1.618, 1.543e-4
-1.617, 1.512e-4
-1.616, 1.512e-4
-1.615, 1.481e-4
-1.614, 1.481e-4
-1.613, 1.451e-4
-1.612, 1.420e-4
-1.611, 1.389e-4
-1.610, 1.389e-4
-1.609, 1.358e-4
-1.608, 1.327e-4
-1.607, 1.327e-4
-1.606, 1.296e-4
-1.605, 1.266e-4
-1.604, 1.235e-4
-1.603, 1.235e-4
-1.602, 1.235e-4
-1.601, 1.204e-4
-1.600, 1.173e-4
-1.599, 1.173e-4
-1.598, 1.142e-4
-1.597, 1.111e-4
-1.596, 1.081e-4
-1.595, 1.081e-4
-1.594, 1.050e-4
-1.593, 1.050e-4
-1.592, 1.019e-4
-1.591, 1.019e-4
-1.590, 1.019e-4
-1.589, 1.019e-4
-1.588, 9.882e-5
-1.587, 9.573e-5
-1.586, 9.265e-5
-1.585, 9.265e-5
-1.584, 9.265e-5
-1.583, 9.265e-5
-1.582, 9.265e-5
-1.581, 8.957e-5
-1.580, 8.957e-5
-1.579, 8.648e-5
-1.578, 8.648e-5
-1.577, 8.648e-5
-1.576, 8.340e-5
-1.575, 8.340e-5
-1.574, 8.340e-5
-1.573, 8.340e-5
-1.572, 8.340e-5
-1.571, 8.340e-5
-1.570, 8.340e-5
-1.569, 8.032e-5
-1.568, 8.032e-5
-1.567, 8.032e-5
-1.566, 8.032e-5
-1.565, 8.032e-5
-1.564, 7.723e-5
-1.563, 7.723e-5
-1.562, 7.723e-5
-1.561, 7.723e-5
-1.560, 7.415e-5
-1.559, 7.107e-5
-1.558, 7.107e-5
-1.557, 7.107e-5
-1.556, 7.107e-5
-1.555, 6.798e-5
-1.554, 6.798e-5
-1.553, 6.490e-5
-1.552, 6.490e-5
-1.551, 6.182e-5
-1.550, 6.182e-5
-1.549, 6.182e-5
-1.548, 6.182e-5
-1.547, 6.490e-5
-1.546, 6.490e-5
-1.545, 6.490e-5
-1.544, 6.182e-5
-1.543, 5.873e-5
-1.542, 5.873e-5
-1.541, 5.873e-5
-1.540, 5.873e-5
-1.539, 5.565e-5
-1.538, 5.565e-5
-1.537, 5.565e-5
-1.536, 5.565e-5
-1.535, 5.257e-5
-1.534, 5.257e-5
-1.533, 5.257e-5
-1.532, 4.949e-5
-1.531, 4.949e-5
-1.530, 4.949e-5
-1.529, 4.640e-5
-1.528, 4.640e-5
-1.527, 4.332e-5
-1.526, 4.640e-5
-1.525, 4.332e-5
-1.524, 4.332e-5
-1.523, 4.332e-5
-1.522, 4.024e-5
-1.521, 4.024e-5
-1.520, 4.024e-5
-1.519, 3.715e-5
-1.518, 3.715e-5
-1.517, 3.715e-5
-1.516, 3.715e-5
-1.515, 3.715e-5
-1.514, 3.407e-5
-1.513, 3.407e-5
-1.512, 3.407e-5
-1.511, 3.407e-5
-1.510, 3.407e-5
-1.509, 3.099e-5
-1.508, 3.407e-5
-1.507, 3.099e-5
-1.506, 3.099e-5
-1.505, 3.099e-5
-1.504, 3.099e-5
-1.503, 3.099e-5
-1.502, 3.099e-5
-1.501, 2.790e-5
-1.500, 2.790e-5
-1.499, 3.099e-5
-1.498, 2.790e-5
-1.497, 2.790e-5
-1.496, 2.790e-5
-1.495, 2.790e-5
-1.494, 2.790e-5
-1.493, 2.790e-5
-1.492, 2.482e-5
-1.491, 2.482e-5
-1.490, 2.482e-5
-1.489, 2.482e-5
-1.488, 2.482e-5
-1.487, 2.482e-5
-1.486, 2.482e-5
-1.485, 2.482e-5
-1.484, 2.482e-5
-1.483, 2.482e-5
-1.482, 2.482e-5
-1.481, 2.482e-5
-1.480, 2.482e-5
-1.479, 2.482e-5
-1.478, 2.174e-5
-1.477, 2.174e-5
-1.476, 2.482e-5
-1.475, 2.174e-5
-1.474, 2.482e-5
-1.473, 2.174e-5
-1.472, 2.174e-5
-1.471, 2.174e-5
-1.470, 2.174e-5
-1.469, 2.174e-5
-1.468, 1.865e-5
-1.467, 2.174e-5
-1.466, 1.865e-5
-1.465, 1.865e-5
-1.464, 2.174e-5
-1.463, 1.865e-5
-1.462, 1.865e-5
-1.461, 1.865e-5
-1.460, 1.865e-5
-1.459, 1.865e-5
-1.458, 1.865e-5
-1.457, 1.865e-5
-1.456, 1.557e-5
-1.455, 1.557e-5
-1.454, 1.557e-5
-1.453, 1.557e-5
-1.452, 1.557e-5
-1.451, 1.557e-5
-1.450, 1.557e-5
-1.449, 1.557e-5
-1.448, 1.249e-5
-1.447, 1.249e-5
-1.446, 1.249e-5
-1.445, 1.249e-5
-1.444, 1.249e-5
-1.443, 1.249e-5
-1.442, 1.249e-5
-1.441, 1.249e-5
-1.440, 1.249e-5
-1.439, 1.249e-5
-1.438, 1.249e-5
-1.437, 9.405e-6
-1.436, 9.405e-6
-1.435, 9.405e-6
-1.434, 9.405e-6
-1.433, 9.405e-6
-1.432, 9.405e-6
-1.431, 9.405e-6
-1.430, 9.405e-6
-1.429, 6.322e-6
-1.428, 6.322e-6
-1.427, 6.322e-6
-1.426, 6.322e-6
-1.425, 6.322e-6
-1.424, 6.322e-6
-1.423, 6.322e-6
-1.422, 6.322e-6
-1.421, 6.322e-6
-1.420, 6.322e-6
-1.419, 6.322e-6
-1.418, 3.239e-6
-1.417, 3.239e-6
-1.416, 6.322e-6
-1.415, 3.239e-6
-1.414, 3.239e-6
-1.413, 3.239e-6
-1.412, 3.239e-6
-1.411, 3.239e-6
-1.410, 3.239e-6
-1.409, 3.239e-6
-1.408, 3.239e-6
-1.407, 3.239e-6
-1.406, 3.239e-6
-1.405, 1.559e-7
-1.404, 1.559e-7
-1.403, 1.559e-7
-1.402, 1.559e-7
-1.401, 1.559e-7
-1.400, 1.559e-7
-1.399, 1.559e-7
-1.398, 1.559e-7
-1.397, 1.559e-7
-1.396, 1.559e-7
-1.395, 1.559e-7
-1.394, 1.559e-7
-1.393, 1.559e-7
-1.392, 1.559e-7
-1.391, 1.559e-7
-1.390, 1.559e-7
-1.389, 1.559e-7
-1.388, -2.927e-6
-1.387, 1.559e-7
-1.386, -2.927e-6
-1.385, -2.927e-6
-1.384, -2.927e-6
-1.383, -2.927e-6
-1.382, -2.927e-6
-1.381, -2.927e-6
-1.380, -2.927e-6
-1.379, -2.927e-6
-1.378, -2.927e-6
-1.377, -2.927e-6
-1.376, -2.927e-6
-1.375, -2.927e-6
-1.374, -2.927e-6
-1.373, -2.927e-6
-1.372, -2.927e-6
-1.371, -6.010e-6
-1.370, -2.927e-6
-1.369, -6.010e-6
-1.368, -6.010e-6
-1.367, -6.010e-6
-1.366, -6.010e-6
-1.365, -6.010e-6
-1.364, -6.010e-6
-1.363, -6.010e-6
-1.362, -6.010e-6
-1.361, -6.010e-6
-1.360, -6.010e-6
-1.359, -6.010e-6
-1.358, -6.010e-6
-1.357, -6.010e-6
-1.356, -6.010e-6
-1.355, -6.010e-6
-1.354, -9.093e-6
-1.353, -6.010e-6
-1.352, -6.010e-6
-1.351, -6.010e-6
-1.350, -6.010e-6
-1.349, -6.010e-6
-1.348, -9.093e-6
-1.347, -9.093e-6
-1.346, -9.093e-6
-1.345, -9.093e-6
-1.344, -9.093e-6
-1.343, -9.093e-6
-1.342, -9.093e-6
-1.341, -9.093e-6
-1.340, -6.010e-6
-1.339, -9.093e-6
-1.338, -9.093e-6
-1.337, -9.093e-6
-1.336, -9.093e-6
-1.335, -9.093e-6
-1.334, -9.093e-6
-1.333, -9.093e-6
-1.332, -9.093e-6
-1.331, -9.093e-6
-1.330, -9.093e-6
-1.329, -9.093e-6
-1.328, -9.093e-6
-1.327, -9.093e-6
-1.326, -9.093e-6
-1.325, -9.093e-6
-1.324, -9.093e-6
-1.323, -1.218e-5
-1.322, -1.218e-5
-1.321, -1.218e-5
-1.320, -9.093e-6
-1.319, -9.093e-6
-1.318, -1.218e-5
-1.317, -1.218e-5
-1.316, -1.218e-5
-1.315, -9.093e-6
-1.314, -1.218e-5
-1.313, -1.218e-5
-1.312, -1.218e-5
-1.311, -1.218e-5
-1.310, -1.218e-5
-1.309, -1.218e-5
-1.308, -1.218e-5
-1.307, -1.218e-5
-1.306, -1.218e-5
-1.305, -1.218e-5
-1.304, -1.218e-5
-1.303, -1.218e-5
-1.302, -1.218e-5
-1.301, -1.218e-5
-1.300, -1.218e-5
-1.299, -1.218e-5
-1.298, -1.218e-5
-1.297, -1.218e-5
-1.296, -1.218e-5
-1.295, -1.218e-5
-1.294, -1.218e-5
-1.293, -1.218e-5
-1.292, -1.218e-5
-1.291, -1.218e-5
-1.290, -1.218e-5
-1.289, -1.218e-5
-1.288, -1.218e-5
-1.287, -1.218e-5
-1.286, -1.526e-5
-1.285, -1.526e-5
-1.284, -1.526e-5
-1.283, -1.526e-5
-1.282, -1.218e-5
-1.281, -1.218e-5
-1.280, -1.526e-5
-1.279, -1.526e-5
-1.278, -1.526e-5
-1.277, -1.526e-5
-1.276, -1.526e-5
-1.275, -1.526e-5
-1.274, -1.526e-5
-1.273, -1.526e-5
-1.272, -1.526e-5
-1.271, -1.526e-5
-1.270, -1.526e-5
-1.269, -1.526e-5
-1.268, -1.526e-5
-1.267, -1.526e-5
-1.266, -1.526e-5
-1.265, -1.526e-5
-1.264, -1.526e-5
-1.263, -1.834e-5
-1.262, -1.526e-5
-1.261, -1.526e-5
-1.260, -1.526e-5
-1.259, -1.526e-5
-1.258, -1.834e-5
-1.257, -1.526e-5
-1.256, -1.834e-5
-1.255, -1.834e-5
-1.254, -1.834e-5
-1.253, -1.834e-5
-1.252, -1.834e-5
-1.251, -1.834e-5
-1.250, -1.834e-5
-1.249, -1.834e-5
-1.248, -1.834e-5
-1.247, -1.834e-5
-1.246, -1.834e-5
-1.245, -1.834e-5
-1.244, -1.834e-5
-1.243, -1.834e-5
-1.242, -1.834e-5
-1.241, -1.834e-5
-1.240, -1.834e-5
-1.239, -1.834e-5
-1.238, -1.834e-5
-1.237, -1.834e-5
-1.236, -1.834e-5
-1.235, -1.834e-5
-1.234, -1.834e-5
-1.233, -1.834e-5
-1.232, -1.834e-5
-1.231, -1.834e-5
-1.230, -1.834e-5
-1.229, -1.834e-5
-1.228, -1.834e-5
-1.227, -1.834e-5
-1.226, -2.143e-5
-1.225, -1.834e-5
-1.224, -1.834e-5
-1.223, -1.834e-5
-1.222, -2.143e-5
-1.221, -1.834e-5
-1.220, -1.834e-5
-1.219, -1.834e-5
-1.218, -1.834e-5
-1.217, -1.834e-5
-1.216, -1.834e-5
-1.215, -1.834e-5
-1.214, -1.834e-5
-1.213, -1.834e-5
-1.212, -1.834e-5
-1.211, -1.834e-5
-1.210, -1.834e-5
-1.209, -1.834e-5
-1.208, -2.143e-5
-1.207, -1.834e-5
-1.206, -2.143e-5
-1.205, -1.834e-5
-1.204, -2.143e-5
-1.203, -1.834e-5
-1.202, -2.143e-5
-1.201, -2.143e-5
-1.200, -1.834e-5
-1.199, -1.834e-5
-1.198, -1.834e-5
-1.197, -1.834e-5
-1.196, -1.834e-5
-1.195, -1.834e-5
-1.194, -1.834e-5
-1.193, -1.834e-5
-1.192, -1.834e-5
-1.191, -1.834e-5
-1.190, -2.143e-5
-1.189, -2.143e-5
-1.188, -2.143e-5
-1.187, -2.143e-5
-1.186, -2.143e-5
-1.185, -2.143e-5
-1.184, -2.143e-5
-1.183, -2.143e-5
-1.182, -2.143e-5
-1.181, -2.143e-5
-1.180, -2.143e-5
-1.179, -2.143e-5
-1.178, -2.143e-5
-1.177, -2.143e-5
-1.176, -2.143e-5
-1.175, -2.143e-5
-1.174, -2.143e-5
-1.173, -2.451e-5
-1.172, -2.143e-5
-1.171, -2.143e-5
-1.170, -2.143e-5
-1.169, -2.451e-5
-1.168, -2.451e-5
-1.167, -2.143e-5
-1.166, -2.143e-5
-1.165, -2.143e-5
-1.164, -2.143e-5
-1.163, -2.143e-5
-1.162, -2.451e-5
-1.161, -2.143e-5
-1.160, -2.143e-5
-1.159, -2.451e-5
-1.158, -2.143e-5
-1.157, -2.143e-5
-1.156, -2.143e-5
-1.155, -2.143e-5
-1.154, -2.451e-5
-1.153, -2.143e-5
-1.152, -2.451e-5
-1.151, -2.143e-5
-1.150, -2.451e-5
-1.149, -2.143e-5
-1.148, -2.451e-5
-1.147, -2.451e-5
-1.146, -2.451e-5
-1.145, -2.451e-5
-1.144, -2.451e-5
-1.143, -2.451e-5
-1.142, -2.143e-5
-1.141, -2.451e-5
-1.140, -2.143e-5
-1.139, -2.143e-5
-1.138, -2.143e-5
-1.137, -2.143e-5
-1.136, -2.451e-5
-1.135, -2.451e-5
-1.134, -2.451e-5
-1.133, -2.143e-5
-1.132, -2.451e-5
-1.131, -2.451e-5
-1.130, -2.143e-5
-1.129, -2.143e-5
-1.128, -2.143e-5
-1.127, -2.451e-5
-1.126, -2.143e-5
-1.125, -2.143e-5
-1.124, -2.143e-5
-1.123, -2.143e-5
-1.122, -2.143e-5
-1.121, -2.143e-5
-1.120, -2.143e-5
-1.119, -2.143e-5
-1.118, -2.451e-5
-1.117, -2.143e-5
-1.116, -2.143e-5
-1.115, -2.143e-5
-1.114, -2.143e-5
-1.113, -2.451e-5
-1.112, -2.143e-5
-1.111, -2.143e-5
-1.110, -2.143e-5
-1.109, -2.143e-5
-1.108, -2.143e-5
-1.107, -2.143e-5
-1.106, -2.143e-5
-1.105, -2.451e-5
-1.104, -2.451e-5
-1.103, -2.451e-5
-1.102, -2.451e-5
-1.101, -2.451e-5
-1.100, -2.451e-5
-1.099, -2.451e-5
-1.098, -2.451e-5
-1.097, -2.451e-5
-1.096, -2.451e-5
-1.095, -2.451e-5
-1.094, -2.451e-5
-1.093, -2.451e-5
-1.092, -2.451e-5
-1.091, -2.451e-5
-1.090, -2.451e-5
-1.089, -2.451e-5
-1.088, -2.451e-5
-1.087, -2.759e-5
-1.086, -2.759e-5
-1.085, -2.759e-5
-1.084, -2.759e-5
-1.083, -2.759e-5
-1.082, -2.759e-5
-1.081, -2.759e-5
-1.080, -2.759e-5
-1.079, -3.068e-5
-1.078, -3.068e-5
-1.077, -3.068e-5
-1.076, -3.068e-5
-1.075, -3.068e-5
-1.074, -3.068e-5
-1.073, -3.068e-5
-1.072, -3.068e-5
-1.071, -3.068e-5
-1.070, -3.068e-5
-1.069, -3.068e-5
-1.068, -3.068e-5
-1.067, -3.068e-5
-1.066, -3.068e-5
-1.065, -3.068e-5
-1.064, -3.068e-5
-1.063, -3.068e-5
-1.062, -3.068e-5
-1.061, -3.068e-5
-1.060, -3.068e-5
-1.059, -3.068e-5
-1.058, -3.068e-5
-1.057, -3.068e-5
-1.056, -3.068e-5
-1.055, -3.068e-5
-1.054, -3.068e-5
-1.053, -3.068e-5
-1.052, -3.068e-5
-1.051, -3.068e-5
-1.050, -3.068e-5
-1.049, -3.068e-5
-1.048, -3.068e-5
-1.047, -3.068e-5
-1.046, -3.068e-5
-1.045, -3.376e-5
-1.044, -3.376e-5
-1.043, -3.376e-5
-1.042, -3.068e-5
-1.041, -3.376e-5
-1.040, -3.376e-5
-1.039, -3.068e-5
-1.038, -3.068e-5
-1.037, -3.376e-5
-1.036, -3.068e-5
-1.035, -3.376e-5
-1.034, -3.068e-5
-1.033, -3.376e-5
-1.032, -3.376e-5
-1.031, -3.376e-5
-1.030, -3.376e-5
-1.029, -3.376e-5
-1.028, -3.068e-5
-1.027, -3.376e-5
-1.026, -3.376e-5
-1.025, -3.376e-5
-1.024, -3.068e-5
-1.023, -3.068e-5
-1.022, -3.068e-5
-1.021, -3.376e-5
-1.020, -3.376e-5
-1.019, -3.376e-5
-1.018, -3.376e-5
-1.017, -3.376e-5
-1.016, -3.376e-5
-1.015, -3.376e-5
-1.014, -3.376e-5
-1.013, -3.376e-5
-1.012, -3.376e-5
-1.011, -3.376e-5
-1.010, -3.376e-5
-1.009, -3.684e-5
-1.008, -3.684e-5
-1.007, -3.376e-5
-1.006, -3.684e-5
-1.005, -3.376e-5
-1.004, -3.684e-5
-1.003, -3.684e-5
-1.002, -3.684e-5
-1.001, -3.684e-5
