Potential V vs RHE, Current mA cm-2
0.013299999999999867,-2.7501987669376318
0.012299999999999978,-5.367414671687949
0.011299999999999866,-7.111753704421539
0.010299999999999976,-8.246352166913299
0.009299999999999864,-9.205526428221793
0.008299999999999974,-10.120844639234473
0.007299999999999862,-11.081433611842833
0.006299999999999972,-11.82274233297211
0.00529999999999986,-12.346185513922174
0.0042999999999999705,-12.825772644576423
0.0032999999999998586,-13.349215825526485
0.0022999999999999687,-14.002812446064135
0.0012999999999998568,-14.529085049613924
0.00029999999999996696,-14.741291744593681
-0.000700000000000145,-14.967645552572087
-0.0017000000000000348,-15.349617603535648
-0.0027000000000001467,-15.78817810649381
-0.0037000000000000366,-16.184297270456018
-0.0047000000000001485,-16.311621287443874
-0.005700000000000038,-16.438945304431726
-0.00670000000000015,-16.665299112410132
-0.00770000000000004,-17.061418276372343
-0.008700000000000152,-17.316066310348052
-0.009700000000000042,-17.48583166633185
-0.010700000000000154,-17.542420118326454
-0.011700000000000044,-17.71218547431026
-0.012700000000000156,-17.966833508285966
-0.013700000000000045,-18.19318731626437
-0.014700000000000157,-18.27806999425627
-0.015700000000000047,-18.27806999425627
-0.01670000000000016,-18.44783535024008
-0.01770000000000005,-18.716630497214435
-0.01870000000000016,-18.88639585319824
-0.01970000000000005,-18.92883719219419
-0.020700000000000163,-18.88639585319824
-0.021700000000000053,-19.056161209182044
-0.022700000000000164,-19.3249563561564
-0.023700000000000054,-19.452280373144255
-0.024700000000000166,-19.409839034148305
-0.025700000000000056,-19.367397695152352
-0.026700000000000168,-19.49472171214021
-0.027700000000000058,-19.721075520118614
-0.02870000000000017,-19.848399537106463
-0.02970000000000006,-19.890840876102416
-0.03070000000000017,-19.848399537106463
-0.03170000000000006,-19.890840876102416
-0.03270000000000017,-20.10304757108217
-0.03370000000000006,-20.329401379060574
-0.034700000000000175,-20.286960040064624
-0.035700000000000065,-20.244518701068674
-0.03670000000000018,-20.286960040064624
-0.03770000000000007,-20.499166735044383
-0.03870000000000018,-20.626490752032236
-0.03970000000000007,-20.584049413036283
-0.04070000000000018,-20.541608074040333
-0.04170000000000007,-20.626490752032236
-0.04270000000000018,-20.85284456001064
-0.04370000000000007,-20.980168576998494
-0.044700000000000184,-20.93772723800254
-0.045700000000000074,-20.89528589900659
-0.046700000000000186,-21.022609915994444
-0.047700000000000076,-21.248963723972853
-0.04870000000000019,-21.333846401964752
-0.04970000000000008,-21.291405062968803
-0.05070000000000019,-21.2065223849769
-0.05170000000000008,-21.291405062968803
-0.05270000000000019,-21.503611757948562
-0.05370000000000008,-21.67337711393236
-0.05470000000000019,-21.63093577493641
-0.05570000000000008,-21.54605309694451
-0.056700000000000195,-21.67337711393236
-0.057700000000000085,-21.899730921910766
-0.058700000000000196,-22.027054938898623
-0.059700000000000086,-21.98461359990267
-0.0607000000000002,-21.857289582914817
-0.06170000000000009,-21.98461359990267
-0.0627000000000002,-22.15437895588647
-0.06370000000000009,-22.33829142486893
-0.0647000000000002,-22.253408746877028
-0.06570000000000009,-22.196820294882425
-0.0667000000000002,-22.196820294882425
-0.0677000000000001,-22.46561544185678
-0.0687000000000002,-22.63538079784059
-0.0697000000000001,-22.592939458844636
-0.07070000000000021,-22.592939458844636
-0.0717000000000001,-22.63538079784059
-0.07270000000000021,-22.861734605818995
-0.0737000000000001,-22.989058622806844
-0.07470000000000021,-22.946617283810895
-0.0757000000000001,-22.904175944814945
-0.07670000000000021,-22.989058622806844
-0.0777000000000001,-23.2012653177866
-0.07870000000000021,-23.342736447773106
-0.0797000000000001,-23.300295108777156
-0.08070000000000022,-23.24370665678255
-0.0817000000000001,-23.385177786769056
-0.08270000000000022,-23.597384481748815
-0.08370000000000011,-23.724708498736668
-0.08470000000000022,-23.597384481748815
-0.08570000000000011,-23.55494314275286
-0.08670000000000022,-23.639825820744765
-0.08770000000000011,-23.86617962872317
-0.08870000000000022,-24.035944984706973
-0.08970000000000011,-23.993503645711023
-0.09070000000000022,-23.951062306715073
-0.09170000000000011,-24.035944984706973
-0.09270000000000023,-24.24815167968673
-0.09370000000000012,-24.432064148669184
-0.09470000000000023,-24.474505487665134
-0.09570000000000012,-24.389622809673234
-0.09670000000000023,-24.474505487665134
-0.09770000000000012,-24.686712182644893
-0.09870000000000023,-24.870624651627345
-0.09970000000000012,-24.870624651627345
-0.10070000000000023,-24.814036199632742
-0.10170000000000012,-24.870624651627345
-0.10270000000000024,-25.12527268560305
-0.10370000000000013,-25.252596702590903
-0.10470000000000024,-25.295038041586857
-0.10570000000000013,-25.295038041586857
-0.10670000000000024,-25.43650917157336
-0.10770000000000013,-25.648715866553115
-0.10870000000000024,-25.73359854454502
-0.10970000000000013,-25.73359854454502
-0.11070000000000024,-25.691157205549064
-0.11170000000000013,-25.77603988354097
-0.11270000000000002,-26.044835030515326
-0.11370000000000013,-26.257041725495082
-0.11470000000000002,-26.21460038649913
-0.11570000000000014,-26.21460038649913
-0.11670000000000003,-26.29948306449103
-0.11770000000000014,-26.61071955046134
-0.11870000000000003,-26.822926245441096
-0.11970000000000014,-26.822926245441096
-0.12070000000000003,-26.738043567449193
-0.12170000000000014,-26.86536758443705
-0.12270000000000003,-27.134162731411404
-0.12370000000000014,-27.34636942639116
-0.12470000000000003,-27.38881076538711
-0.12570000000000014,-27.34636942639116
-0.12670000000000003,-27.530281895373616
-0.12770000000000015,-27.742488590353368
-0.12870000000000004,-27.954695285333123
-0.12970000000000015,-28.011283737327723
-0.13070000000000004,-28.011283737327723
-0.13170000000000015,-28.18104909331153
-0.13270000000000004,-28.393255788291288
-0.13370000000000015,-28.577168257273744
-0.13470000000000004,-28.619609596269694
-0.13570000000000015,-28.577168257273744
-0.13670000000000004,-28.746933613257543
-0.13770000000000016,-29.001581647233255
-0.13870000000000005,-29.27037679420761
-0.13970000000000016,-29.27037679420761
-0.14070000000000005,-29.31281813320356
-0.14170000000000016,-29.482583489187363
-0.14270000000000005,-29.793819975157668
-0.14370000000000016,-30.00602667013743
-0.14470000000000005,-30.04846800913338
-0.14570000000000016,-30.04846800913338
-0.14670000000000005,-30.189939139119886
-0.14770000000000016,-30.487028512091538
-0.14870000000000005,-30.71338232006995
-0.14970000000000017,-30.79826499806185
-0.15070000000000006,-30.79826499806185
-0.15170000000000017,-30.968030354045652
-0.15270000000000006,-31.27926684001596
-0.15370000000000017,-31.533914873991666
-0.15470000000000006,-31.618797551983565
-0.15570000000000017,-31.661238890979522
-0.15670000000000006,-31.802710020966025
-0.15770000000000017,-32.09979939393769
-0.15870000000000006,-32.41103587990799
-0.15970000000000018,-32.45347721890394
-0.16070000000000007,-32.49591855789989
-0.16170000000000018,-32.66568391388369
-0.16270000000000007,-32.97692039985401
-0.16370000000000018,-33.231568433829715
-0.16470000000000007,-33.373039563816214
-0.16570000000000018,-33.45792224180811
-0.16670000000000007,-33.627687597791926
-0.16770000000000018,-33.98136542275818
-0.16870000000000007,-34.193572117737936
-0.16970000000000018,-34.278454795729836
-0.17070000000000007,-34.278454795729836
-0.17170000000000019,-34.5472499427042
-0.17270000000000008,-34.85848642867451
-0.1737000000000002,-35.15557580164616
-0.17470000000000008,-35.240458479638065
-0.1757000000000002,-35.282899818634014
-0.17670000000000008,-35.50925362661242
-0.1777000000000002,-35.90537279057463
-0.17870000000000008,-36.20246216354629
-0.1797000000000002,-36.28734484153819
-0.18070000000000008,-36.28734484153819
-0.1817000000000002,-36.5136986495166
-0.18270000000000008,-36.8532293614842
-0.1837000000000002,-37.122024508458566
-0.1847000000000001,-37.249348525446415
-0.1857000000000002,-37.334231203438314
-0.1867000000000001,-37.51814367242077
-0.1877000000000002,-37.85767438438838
-0.1887000000000001,-38.16891087035869
-0.1897000000000002,-38.29623488734655
-0.1907000000000001,-38.42355890433439
-0.1917000000000001,-38.6499127123128
-0.19269999999999998,-38.94700208528445
-0.1937000000000001,-39.258238571254765
-0.19469999999999998,-39.34312124924667
-0.1957000000000001,-39.42800392723857
-0.19669999999999999,-39.654357735216976
-0.1977000000000001,-40.03632978618054
-0.1987,-40.34756627215084
-0.1997000000000001,-40.43244895014274
-0.2007,-40.559772967130606
-0.2017000000000001,-40.828568114104954
-0.2027,-41.22468727806717
-0.2037000000000001,-41.56421799003478
-0.2047,-41.606659329030734
-0.2057000000000001,-41.70568912002128
-0.2067,-41.91789581500104
-0.2077000000000001,-42.31401497896325
-0.2087,-42.6111043519349
-0.2097000000000001,-42.752575481921404
-0.2107,-42.837458159913304
-0.2117000000000001,-43.09210619388902
-0.2127,-43.48822535785123
-0.2137000000000001,-43.84190318281749
-0.2147,-44.011668538801295
-0.2157000000000001,-44.181433894785094
-0.2167,-44.4077877027635
-0.21770000000000012,-44.74731841473111
-0.2187,-45.05855490070142
-0.21970000000000012,-45.22832025668522
-0.2207,-45.32735004767578
-0.22170000000000012,-45.581998081651484
-0.2227,-45.97811724561369
-0.22370000000000012,-46.27520661858535
-0.2247,-46.45911908756781
-0.22570000000000012,-46.628884443551605
-0.2267,-46.88353247752732
-0.22770000000000012,-47.27965164148953
-0.22870000000000001,-47.590888127459834
-0.22970000000000013,-47.71821214444768
-0.23070000000000002,-47.84553616143554
-0.23170000000000013,-48.114331308409895
-0.23270000000000002,-48.51045047237211
-0.23370000000000013,-48.84998118433972
-0.23470000000000002,-49.03389365332217
-0.23570000000000013,-49.16121767031002
-0.23670000000000002,-49.458307043281685
-0.2376999999999999,-49.89686754623985
-0.23870000000000002,-50.2505453712061
-0.2396999999999999,-50.42031072718991
-0.24070000000000003,-50.547634744177756
-0.24169999999999991,-50.77398855215617
-0.24270000000000003,-51.21254905511432
-0.24369999999999992,-51.594521106077885
-0.24470000000000003,-51.77843357506035
-0.24569999999999992,-51.90575759204819
-0.24670000000000003,-52.17455273902255
-0.24769999999999992,-52.59896612898206
-0.24870000000000003,-52.995085292944275
-0.24969999999999992,-53.16485064892808
-0.25070000000000003,-53.39120445690648
-0.2516999999999999,-53.68829382987814
-0.25270000000000004,-54.08441299384035
-0.2536999999999999,-54.39564947981066
-0.25470000000000004,-54.60785617479041
-0.2556999999999999,-54.73518019177827
-0.25670000000000004,-55.088858016744524
-0.25769999999999993,-55.527418519702685
-0.25870000000000004,-55.9235376836649
-0.25969999999999993,-56.13574437864466
-0.26070000000000004,-56.30550973462846
-0.26169999999999993,-56.61674622059877
-0.26270000000000004,-57.05530672355693
-0.26369999999999993,-57.408984548523186
-0.26470000000000005,-57.62119124350295
-0.26569999999999994,-57.8333979384827
-0.26670000000000005,-58.18707576344896
-0.26769999999999994,-58.66807760540307
-0.26870000000000005,-59.10663810836124
-0.26969999999999994,-59.36128614233694
-0.27070000000000005,-59.54519861131939
-0.27169999999999994,-59.884729323287
-0.27270000000000005,-60.36573116524111
-0.27369999999999994,-60.80429166819927
-0.27470000000000006,-60.974057024183075
-0.27569999999999995,-61.20041083216149
-0.27670000000000006,-61.49750020513315
-0.27769999999999995,-61.936060708091304
-0.27870000000000006,-62.28973853305756
-0.27969999999999995,-62.501945228037314
-0.28070000000000006,-62.68585769701977
-0.28169999999999995,-62.98294706999144
-0.28270000000000006,-63.5063902509415
-0.28369999999999995,-63.98739209289561
-0.28470000000000006,-64.29862857886593
-0.28569999999999995,-64.51083527384567
-0.28670000000000007,-64.90695443780788
-0.28769999999999996,-65.43039761875795
-0.28870000000000007,-65.91139946071206
-0.28969999999999996,-66.20848883368372
-0.29070000000000007,-66.47728398065809
-0.29169999999999996,-66.91584448361623
-0.29270000000000007,-67.48172900356225
-0.29369999999999996,-68.0051721845123
-0.2947000000000001,-68.34470289647993
-0.29569999999999996,-68.57105670445833
-0.2967000000000001,-68.96717586842054
-0.29769999999999996,-69.53306038836655
-0.2987000000000001,-70.01406223032066
-0.29969999999999997,-70.26871026429637
-0.3007000000000001,-70.53750541127073
-0.30169999999999997,-70.87703612323833
-0.3027000000000001,-71.4004793041884
-0.30369999999999997,-71.83903980714656
-0.3047000000000001,-72.19271763211282
-0.30569999999999997,-72.44736566608852
-0.3067000000000001,-72.84348483005074
-0.3077,-73.3669280110008
-0.3087000000000001,-73.8479298529549
-0.3097,-74.28649035591307
-0.3107000000000001,-74.66846240687663
-0.3117,-75.19190558782671
-0.3127000000000001,-75.81437855976732
-0.3137,-76.42270441870929
-0.3147000000000001,-76.86126492166746
-0.3157,-77.243236972631
-0.3167000000000001,-77.76668015358106
-0.3177,-78.43159446451764
-0.3187000000000001,-79.0399203234596
-0.3197,-79.47848082641775
-0.3207000000000001,-79.86045287738132
-0.3217,-80.42633739732734
-0.3227000000000001,-81.13369304725985
-0.3237,-81.74201890620182
-0.3247000000000001,-82.09569673116808
-0.3257,-82.39278610413973
-0.3267000000000001,-82.9162292850898
-0.3277,-83.56699648302772
-0.3287000000000001,-84.18946945496833
-0.3297,-84.61388284492786
-0.3307000000000001,-85.01000200889004
-0.3317,-85.57588652883607
-0.3327000000000001,-86.36812485676049
-0.3337,-87.06133339369435
-0.3347000000000001,-87.62721791364037
-0.3357,-88.10821975559449
-0.3367000000000001,-88.71654561453644
-0.3377,-89.46634260346492
-0.3387000000000001,-90.20199247939475
-0.3397,-90.81031833833671
-0.3407000000000001,-91.33376151928677
-0.3417,-92.04111716921928
-0.3427000000000001,-92.81920838414506
-0.3437,-93.55485826007487
-0.3447000000000001,-94.21977257101145
-0.3457,-94.78565709095746
-0.3467000000000001,-95.47886562789132
-0.3477,-96.31354529481169
-0.3487000000000001,-97.04919517074151
-0.3497,-97.61507969068752
-0.3507000000000001,-98.18096421063355
-0.3517,-98.88831986056607
-0.3527000000000001,-99.7937350924797
-0.3537,-100.58597342040412
-0.3547000000000001,-101.23674061834203
-0.3557,-101.88750781627995
-0.35670000000000013,-102.67974614420436
-0.3577,-103.64174982811258
-0.35870000000000013,-104.5471650600262
-0.3597,-105.33940338795064
-0.36070000000000013,-105.94772924689259
-0.3617,-106.73996757481702
-0.3626999999999999,-107.64538280673065
-0.3637,-108.60738649063886
-0.3646999999999999,-109.35718347956733
-0.3657,-110.05039201650122
-0.3666999999999999,-110.92751302241753
-0.3677,-111.91781093232305
-0.3686999999999999,-112.96469729422319
-0.36970000000000003,-113.79937696114357
-0.3706999999999999,-114.57746817606933
-0.37170000000000003,-115.4970305209816
-0.3726999999999999,-116.50147554388576
-0.37370000000000003,-117.46347922779398
-0.3746999999999999,-118.29815889471436
-0.37570000000000003,-119.07625010964013
-0.3766999999999999,-120.03825379354835
-0.37770000000000004,-121.12758149444444
-0.3786999999999999,-122.17446785634456
-0.37970000000000004,-123.09403020125686
-0.3806999999999999,-123.95700409417452
-0.38170000000000004,-125.00389045607463
-0.38269999999999993,-126.19224794796128
-0.38370000000000004,-127.32401698785328
-0.38469999999999993,-128.28602067176152
-0.38570000000000004,-129.10655322568326
-0.38669999999999993,-127.84746016880335
-0.38570000000000004,-123.65991472120285
-0.38469999999999993,-120.56169697449842
-0.38370000000000004,-117.81715705276027
-0.38269999999999993,-115.2423824870059
-0.38170000000000004,-113.06372708521374
-0.3806999999999999,-111.09727837840134
-0.37970000000000004,-109.25815368857677
-0.3786999999999999,-107.34829343375898
-0.37770000000000004,-105.33940338795064
-0.3766999999999999,-103.50027869812607
-0.37570000000000003,-101.88750781627995
-0.3746999999999999,-100.23229559543785
-0.37370000000000003,-98.4497593576079
-0.3726999999999999,-96.69551734577524
-0.37170000000000003,-95.04030512493317
-0.3706999999999999,-93.65388805106544
-0.36970000000000003,-92.12599984721119
-0.3686999999999999,-90.51322896536506
-0.3677,-88.9004580835189
-0.3666999999999999,-87.45745255765657
-0.3657,-86.18421238777805
-0.3646999999999999,-84.84023665290624
-0.3637,-83.31234844905201
-0.3626999999999999,-81.78446024519776
-0.3617,-80.38389605833139
-0.36070000000000013,-79.16724434044745
-0.3597,-77.90815128356756
-0.35870000000000013,-76.50758709670117
-0.3577,-75.06458157083884
-0.35670000000000013,-73.80548851395896
-0.3557,-72.71616081306288
-0.3547000000000001,-71.52780332117625
-0.3537,-70.22626892530042
-0.3527000000000001,-68.82570473843404
-0.3517,-67.52417034255821
-0.3507000000000001,-66.47728398065809
-0.3497,-65.38795627976201
-0.3487000000000001,-64.11471610988345
-0.3477,-62.81318171400764
-0.3467000000000001,-61.6814126741156
-0.3457,-60.67696765121143
-0.3447000000000001,-59.67252262830725
-0.3437,-58.498312249419264
-0.3427000000000001,-57.26751341853669
-0.3417,-56.26306839563251
-0.3407000000000001,-55.25862337272834
-0.3397,-54.26832546282281
-0.3387000000000001,-53.12240930993213
-0.3377,-51.90575759204819
-0.3367000000000001,-50.90131256914402
-0.3357,-50.024191563227696
-0.3347000000000001,-49.118776331314066
-0.3337,-48.029448630417996
-0.3327000000000001,-46.94012092952192
-0.3317,-45.97811724561369
-0.3307000000000001,-45.143437578693316
-0.3297,-44.3229050247716
-0.3287000000000001,-43.23357732387552
-0.3277,-42.087661170984845
-0.3267000000000001,-41.182245939071215
-0.3257,-40.3900076111468
-0.3247000000000001,-39.56947505722508
-0.3237,-38.6499127123128
-0.3227000000000001,-37.645467689408626
-0.3217,-36.725905344496354
-0.3207000000000001,-36.03269680756248
-0.3197,-35.282899818634014
-0.3187000000000001,-34.377484586720385
-0.3177,-33.41548090281216
-0.3167000000000001,-32.53835989689585
-0.3157,-31.84515135996197
-0.3147000000000001,-31.095354371033505
-0.3137,-30.189939139119886
-0.3127000000000001,-29.22793545521166
-0.3117,-28.53472691827779
-0.3107000000000001,-27.827371268345274
-0.3097,-27.176604070407354
-0.3087000000000001,-26.34192440348698
-0.3077,-25.43650917157336
-0.3067000000000001,-24.729153521640843
-0.30569999999999997,-24.16326900169483
-0.3047000000000001,-23.47006046476096
-0.30369999999999997,-22.63538079784059
-0.3027000000000001,-21.772406904922917
-0.30169999999999997,-21.065051254990397
-0.3007000000000001,-20.499166735044383
-0.29969999999999997,-19.890840876102416
-0.2987000000000001,-19.155191000172596
-0.29769999999999996,-18.320511333252224
-0.2967000000000001,-17.669744135314307
-0.29569999999999996,-17.188742293360193
-0.2947000000000001,-16.622857773414182
-0.29369999999999996,-15.91550212348166
-0.29270000000000007,-15.094969569559943
-0.29169999999999996,-14.444202371622024
-0.29070000000000007,-13.960371107068182
-0.28969999999999996,-13.3930718758223
-0.28870000000000007,-12.694204493688973
-0.28769999999999996,-11.996751822855511
-0.28670000000000007,-11.385596541313816
-0.28569999999999995,-10.906009410659568
-0.28470000000000006,-10.42642228000532
-0.28369999999999995,-9.772825659467674
-0.28270000000000006,-9.073958277334345
-0.28169999999999995,-8.55051509638428
-0.28070000000000006,-8.11478401602585
-0.27969999999999995,-7.635196885371603
-0.27870000000000006,-6.93774421453814
-0.27769999999999995,-6.238876832404812
-0.27670000000000006,-5.715433651454749
-0.27569999999999995,-5.367414671687949
-0.27470000000000006,-4.974124930325469
-0.27369999999999994,-4.3205283097878215
-0.27270000000000005,-3.6655169779503103
-0.27169999999999994,-3.2297858975918787
-0.27070000000000005,-2.8379108675292635
-0.26969999999999994,-2.4884771764625997
-0.26870000000000005,-1.92117794521672
-0.26769999999999994,-1.2671569112891135
-0.26670000000000005,-0.7001406223032067
