Potential V vs RHE, Current mA cm-2
0.013299999999999867,0.21588494435940458
0.012299999999999978,-1.7910245056291363
0.011299999999999866,-3.317497998183511
0.010299999999999976,-4.406825699079589
0.009299999999999864,-5.323558621392133
0.008299999999999974,-6.414301033588076
0.007299999999999862,-7.679052935667419
0.006299999999999972,-8.594371146680096
0.00529999999999986,-9.161670377925978
0.0042999999999999705,-9.59740145828441
0.0032999999999998586,-10.340124890713554
0.0022999999999999687,-11.255443101726232
0.0012999999999998568,-11.952895772559694
0.00029999999999996696,-12.12831997374296
-0.000700000000000145,-12.258473413330542
-0.0017000000000000348,-12.694204493688973
-0.0027000000000001467,-13.349215825526485
-0.0037000000000000366,-13.784946905884919
-0.0047000000000001485,-13.828802956180734
-0.005700000000000038,-13.828802956180734
-0.00670000000000015,-14.175407224647667
-0.00770000000000004,-14.69885040559773
-0.008700000000000152,-15.01008689156804
-0.009700000000000042,-14.967645552572087
-0.010700000000000154,-14.925204213576137
-0.011700000000000044,-15.179852247551842
-0.012700000000000156,-15.660854089505953
-0.013700000000000045,-15.87306078448571
-0.014700000000000157,-15.78817810649381
-0.015700000000000047,-15.618412750510005
-0.01670000000000016,-15.830619445489761
-0.01770000000000005,-16.22673860945197
-0.01870000000000016,-16.438945304431726
-0.01970000000000005,-16.354062626439823
-0.020700000000000163,-16.099414592464115
-0.021700000000000053,-16.184297270456018
-0.022700000000000164,-16.495533756426326
-0.023700000000000054,-16.622857773414182
-0.024700000000000166,-16.438945304431726
-0.025700000000000056,-16.22673860945197
-0.026700000000000168,-16.354062626439823
-0.027700000000000058,-16.750181790402035
-0.02870000000000017,-16.877505807389888
-0.02970000000000006,-16.70774045140608
-0.03070000000000017,-16.438945304431726
-0.03170000000000006,-16.53797509542228
-0.03270000000000017,-16.919947146385837
-0.03370000000000006,-17.018976937376394
-0.034700000000000175,-16.792623129397985
-0.035700000000000065,-16.580416434418233
-0.03670000000000018,-16.665299112410132
-0.03770000000000007,-17.018976937376394
-0.03870000000000018,-17.103859615368293
-0.03970000000000007,-16.877505807389888
-0.04070000000000018,-16.622857773414182
-0.04170000000000007,-16.70774045140608
-0.04270000000000018,-17.018976937376394
-0.04370000000000007,-17.103859615368293
-0.044700000000000184,-16.835064468393938
-0.045700000000000074,-16.580416434418233
-0.046700000000000186,-16.70774045140608
-0.047700000000000076,-17.018976937376394
-0.04870000000000019,-17.146300954364243
-0.04970000000000008,-16.835064468393938
-0.05070000000000019,-16.495533756426326
-0.05170000000000008,-16.580416434418233
-0.05270000000000019,-16.835064468393938
-0.05370000000000008,-16.962388485381787
-0.05470000000000019,-16.750181790402035
-0.05570000000000008,-16.495533756426326
-0.056700000000000195,-16.622857773414182
-0.057700000000000085,-16.919947146385837
-0.058700000000000196,-17.018976937376394
-0.059700000000000086,-16.750181790402035
-0.0607000000000002,-16.495533756426326
-0.06170000000000009,-16.622857773414182
-0.0627000000000002,-16.919947146385837
-0.06370000000000009,-17.018976937376394
-0.0647000000000002,-16.70774045140608
-0.06570000000000009,-16.438945304431726
-0.0667000000000002,-16.53797509542228
-0.0677000000000001,-16.835064468393938
-0.0687000000000002,-16.962388485381787
-0.0697000000000001,-16.70774045140608
-0.07070000000000021,-16.438945304431726
-0.0717000000000001,-16.53797509542228
-0.07270000000000021,-16.877505807389888
-0.0737000000000001,-16.962388485381787
-0.07470000000000021,-16.70774045140608
-0.0757000000000001,-16.438945304431726
-0.07670000000000021,-16.53797509542228
-0.0777000000000001,-16.835064468393938
-0.07870000000000021,-16.919947146385837
-0.0797000000000001,-16.70774045140608
-0.08070000000000022,-16.438945304431726
-0.0817000000000001,-16.580416434418233
-0.08270000000000022,-16.877505807389888
-0.08370000000000011,-17.018976937376394
-0.08470000000000022,-16.70774045140608
-0.08570000000000011,-16.438945304431726
-0.08670000000000022,-16.580416434418233
-0.08770000000000011,-16.877505807389888
-0.08870000000000022,-16.962388485381787
-0.08970000000000011,-16.70774045140608
-0.09070000000000022,-16.438945304431726
-0.09170000000000011,-16.53797509542228
-0.09270000000000023,-16.835064468393938
-0.09370000000000012,-16.919947146385837
-0.09470000000000023,-16.665299112410132
-0.09570000000000012,-16.396503965435777
-0.09670000000000023,-16.53797509542228
-0.09770000000000012,-16.835064468393938
-0.09870000000000023,-16.919947146385837
-0.09970000000000012,-16.665299112410132
-0.10070000000000023,-16.396503965435777
-0.10170000000000012,-16.495533756426326
-0.10270000000000024,-16.835064468393938
-0.10370000000000013,-16.919947146385837
-0.10470000000000024,-16.70774045140608
-0.10570000000000013,-16.438945304431726
-0.10670000000000024,-16.53797509542228
-0.10770000000000013,-16.792623129397985
-0.10870000000000024,-16.877505807389888
-0.10970000000000013,-16.622857773414182
-0.11070000000000024,-16.396503965435777
-0.11170000000000013,-16.495533756426326
-0.11270000000000002,-16.792623129397985
-0.11370000000000013,-16.919947146385837
-0.11470000000000002,-16.665299112410132
-0.11570000000000014,-16.438945304431726
-0.11670000000000003,-16.580416434418233
-0.11770000000000014,-16.835064468393938
-0.11870000000000003,-16.919947146385837
-0.11970000000000014,-16.665299112410132
-0.12070000000000003,-16.396503965435777
-0.12170000000000014,-16.53797509542228
-0.12270000000000003,-16.835064468393938
-0.12370000000000014,-16.962388485381787
-0.12470000000000003,-16.665299112410132
-0.12570000000000014,-16.396503965435777
-0.12670000000000003,-16.438945304431726
-0.12770000000000015,-16.750181790402035
-0.12870000000000004,-16.835064468393938
-0.12970000000000015,-16.622857773414182
-0.13070000000000004,-16.354062626439823
-0.13170000000000015,-16.53797509542228
-0.13270000000000004,-16.835064468393938
-0.13370000000000015,-16.962388485381787
-0.13470000000000004,-16.70774045140608
-0.13570000000000015,-16.438945304431726
-0.13670000000000004,-16.580416434418233
-0.13770000000000016,-16.877505807389888
-0.13870000000000005,-16.962388485381787
-0.13970000000000016,-16.70774045140608
-0.14070000000000005,-16.438945304431726
-0.14170000000000016,-16.580416434418233
-0.14270000000000005,-16.877505807389888
-0.14370000000000016,-17.018976937376394
-0.14470000000000005,-16.750181790402035
-0.14570000000000016,-16.495533756426326
-0.14670000000000005,-16.622857773414182
-0.14770000000000016,-16.919947146385837
-0.14870000000000005,-16.962388485381787
-0.14970000000000017,-16.750181790402035
-0.15070000000000006,-16.53797509542228
-0.15170000000000017,-16.665299112410132
-0.15270000000000006,-17.018976937376394
-0.15370000000000017,-17.103859615368293
-0.15470000000000006,-16.877505807389888
-0.15570000000000017,-16.622857773414182
-0.15670000000000006,-16.70774045140608
-0.15770000000000017,-17.018976937376394
-0.15870000000000006,-17.103859615368293
-0.15970000000000018,-16.835064468393938
-0.16070000000000007,-16.622857773414182
-0.16170000000000018,-16.750181790402035
-0.16270000000000007,-17.061418276372343
-0.16370000000000018,-17.188742293360193
-0.16470000000000007,-16.919947146385837
-0.16570000000000018,-16.665299112410132
-0.16670000000000007,-16.835064468393938
-0.16770000000000018,-17.146300954364243
-0.16870000000000007,-17.231183632356142
-0.16970000000000018,-16.962388485381787
-0.17070000000000007,-16.750181790402035
-0.17170000000000019,-16.835064468393938
-0.17270000000000008,-17.188742293360193
-0.1737000000000002,-17.316066310348052
-0.17470000000000008,-17.103859615368293
-0.1757000000000002,-16.835064468393938
-0.17670000000000008,-16.962388485381787
-0.1777000000000002,-17.2736249713521
-0.17870000000000008,-17.358507649344002
-0.1797000000000002,-17.103859615368293
-0.18070000000000008,-16.877505807389888
-0.1817000000000002,-16.962388485381787
-0.18270000000000008,-17.358507649344002
-0.1837000000000002,-17.4433903273359
-0.1847000000000001,-17.188742293360193
-0.1857000000000002,-16.962388485381787
-0.1867000000000001,-17.061418276372343
-0.1877000000000002,-17.40094898833995
-0.1887000000000001,-17.542420118326454
-0.1897000000000002,-17.316066310348052
-0.1907000000000001,-17.103859615368293
-0.1917000000000001,-17.231183632356142
-0.19269999999999998,-17.542420118326454
-0.1937000000000001,-17.627302796318357
-0.19469999999999998,-17.40094898833995
-0.1957000000000001,-17.188742293360193
-0.19669999999999999,-17.316066310348052
-0.1977000000000001,-17.627302796318357
-0.1987,-17.75462681330621
-0.1997000000000001,-17.48583166633185
-0.2007,-17.2736249713521
-0.2017000000000001,-17.40094898833995
-0.2027,-17.75462681330621
-0.2037000000000001,-17.881950830294063
-0.2047,-17.71218547431026
-0.2057000000000001,-17.48583166633185
-0.2067,-17.627302796318357
-0.2077000000000001,-17.966833508285966
-0.2087,-18.06586329927652
-0.2097000000000001,-17.839509491298113
-0.2107,-17.669744135314307
-0.2117000000000001,-17.839509491298113
-0.2127,-18.23562865526032
-0.2137000000000001,-18.362952672248177
-0.2147,-18.19318731626437
-0.2157000000000001,-17.966833508285966
-0.2167,-18.10830463827247
-0.21770000000000012,-18.44783535024008
-0.2187,-18.589306480226583
-0.21970000000000012,-18.40539401124413
-0.2207,-18.19318731626437
-0.22170000000000012,-18.362952672248177
-0.2227,-18.716630497214435
-0.22370000000000012,-18.843954514202288
-0.2247,-18.631747819222536
-0.22570000000000012,-18.362952672248177
-0.2267,-18.589306480226583
-0.22770000000000012,-19.01371987018609
-0.22870000000000001,-19.112749661176647
-0.22970000000000013,-18.88639585319824
-0.23070000000000002,-18.674189158218486
-0.23170000000000013,-18.80151317520634
-0.23270000000000002,-19.197632339168546
-0.23370000000000013,-19.3249563561564
-0.23470000000000002,-19.155191000172596
-0.23570000000000013,-18.97127853119014
-0.23670000000000002,-19.155191000172596
-0.2376999999999999,-19.579604390132108
-0.23870000000000002,-19.721075520118614
-0.2396999999999999,-19.49472171214021
-0.24070000000000003,-19.3249563561564
-0.24169999999999991,-19.537163051136158
-0.24270000000000003,-19.97572355409432
-0.24369999999999992,-20.202077362072725
-0.24470000000000003,-20.01816489309027
-0.24569999999999992,-19.890840876102416
-0.24670000000000003,-20.06060623208622
-0.24769999999999992,-20.456725396048434
-0.24870000000000003,-20.626490752032236
-0.24969999999999992,-20.499166735044383
-0.25070000000000003,-20.329401379060574
-0.2516999999999999,-20.584049413036283
-0.25270000000000004,-21.022609915994444
-0.2536999999999999,-21.2065223849769
-0.25470000000000004,-21.107492593986347
-0.2556999999999999,-20.980168576998494
-0.25670000000000004,-21.2065223849769
-0.25769999999999993,-21.67337711393236
-0.25870000000000004,-21.857289582914817
-0.25969999999999993,-21.729965565926964
-0.26070000000000004,-21.58849443594046
-0.26169999999999993,-21.899730921910766
-0.26270000000000004,-22.33829142486893
-0.26369999999999993,-22.592939458844636
-0.26470000000000005,-22.508056780852733
-0.26569999999999994,-22.42317410286083
-0.26670000000000005,-22.72026347583249
-0.26769999999999994,-23.2012653177866
-0.26870000000000005,-23.427619125765005
-0.26969999999999994,-23.385177786769056
-0.27070000000000005,-23.342736447773106
-0.27169999999999994,-23.639825820744765
-0.27270000000000005,-24.120827662698876
-0.27369999999999994,-24.34718147067728
-0.27470000000000006,-24.20571034069078
-0.27569999999999995,-24.24815167968673
-0.27670000000000006,-24.64427084364894
-0.27769999999999995,-25.252596702590903
-0.27870000000000006,-25.563833188561212
-0.27969999999999995,-25.478950510569312
-0.28070000000000006,-25.39406783257741
-0.28169999999999995,-25.648715866553115
-0.28270000000000006,-26.17215904750318
-0.28369999999999995,-26.440954194477534
-0.28470000000000006,-26.440954194477534
-0.28569999999999995,-26.483395533473487
-0.28670000000000007,-26.907808923433
-0.28769999999999996,-27.530281895373616
-0.28870000000000007,-27.78492992934932
-0.28969999999999996,-27.700047251357418
-0.29070000000000007,-27.700047251357418
-0.29169999999999996,-28.09616641531963
-0.29270000000000007,-28.662050935265643
-0.29369999999999996,-29.001581647233255
-0.2947000000000001,-29.001581647233255
-0.29569999999999996,-29.058170099227848
-0.2967000000000001,-29.482583489187363
-0.29769999999999996,-30.147497800123933
-0.2987000000000001,-30.529469851087494
-0.29969999999999997,-30.670940981073993
-0.3007000000000001,-30.7558236590659
-0.30169999999999997,-31.23682550102001
-0.3027000000000001,-31.930034037953877
-0.30369999999999997,-32.368594540912035
-0.3047000000000001,-32.53835989689585
-0.30569999999999997,-32.70812525287965
-0.3067000000000001,-33.231568433829715
-0.3077,-33.98136542275818
-0.3087000000000001,-34.41992592571634
-0.3097,-34.58969128170015
-0.3107000000000001,-34.75945663768395
-0.3117,-35.42437094862052
-0.3127000000000001,-36.16002082455034
-0.3137,-36.5985813275085
-0.3147000000000001,-36.6834640055004
-0.3157,-36.8532293614842
-0.3167000000000001,-37.47570233342482
-0.3177,-38.38111756533845
-0.3187000000000001,-39.046031876275016
-0.3197,-39.30067991025072
-0.3207000000000001,-39.56947505722508
-0.3217,-40.135359577171094
-0.3227000000000001,-40.87100945310091
-0.3237,-41.352011295055014
-0.3247000000000001,-41.56421799003478
-0.3257,-41.83301313700913
-0.3267000000000001,-42.483780334947056
-0.3277,-43.36090134086337
-0.3287000000000001,-44.011668538801295
-0.3297,-44.3229050247716
-0.3307000000000001,-44.66243573673921
-0.3317,-45.36979138667173
-0.3327000000000001,-46.19032394059345
-0.3337,-46.79864979953541
-0.3347000000000001,-47.067444946509774
-0.3357,-47.40697565847737
-0.3367000000000001,-48.156772647405845
-0.3377,-49.16121767031002
-0.3387000000000001,-49.85442620724389
-0.3397,-50.20810403221015
-0.3407000000000001,-50.547634744177756
-0.3417,-51.29743173310623
-0.3427000000000001,-52.2169940780185
-0.3437,-52.86776127595642
-0.3447000000000001,-53.26388043991864
-0.3457,-53.74488228187274
-0.3467000000000001,-54.60785617479041
-0.3477,-55.65474253669055
-0.3487000000000001,-56.36209818662306
-0.3497,-56.74407023758662
-0.3507000000000001,-57.182630740544774
-0.3517,-58.017310407465146
-0.3527000000000001,-59.06419676936528
-0.3537,-59.842287984291055
-0.3547000000000001,-60.28084848724921
-0.3557,-60.84673300719523
-0.35670000000000013,-61.7662953521075
-0.3577,-62.94050573099548
-0.35870000000000013,-63.902509414903705
-0.3597,-64.42595259585376
-0.36070000000000013,-64.86451309881193
-0.3617,-65.7274869917296
-0.3626999999999999,-66.77437335362974
-0.3637,-67.6090530205501
-0.3646999999999999,-68.21737887949207
-0.3657,-68.86814607742998
-0.3666999999999999,-69.87259110033416
-0.3677,-71.0043601402262
-0.3686999999999999,-71.8814811461425
-0.36970000000000003,-72.40492432709259
-0.3706999999999999,-72.97080884703858
-0.37170000000000003,-73.8479298529549
-0.3726999999999999,-75.02214023184291
-0.37370000000000003,-76.06902659374302
-0.3746999999999999,-76.86126492166746
-0.37570000000000003,-77.51203211960537
-0.3766999999999999,-78.47403580351359
-0.37770000000000004,-79.42189237442317
-0.3786999999999999,-80.17168936335163
-0.37970000000000004,-80.73757388329766
-0.3806999999999999,-81.47322375922747
-0.38170000000000004,-82.70402259011003
-0.38269999999999993,-83.96311564698992
-0.38370000000000004,-84.92511933089816
-0.38469999999999993,-85.57588652883607
-0.38570000000000004,-86.18421238777805
-0.38669999999999993,-85.88712301480638
-0.38570000000000004,-83.79335029100612
-0.38469999999999993,-81.86934292318966
-0.38370000000000004,-79.94533555537322
-0.38269999999999993,-78.12035797854733
-0.38170000000000004,-76.71979379168094
-0.3806999999999999,-75.50314207379701
-0.37970000000000004,-74.06013654793468
-0.3786999999999999,-72.44736566608852
-0.37770000000000004,-71.06094859222078
-0.3766999999999999,-70.09894490831257
-0.37570000000000003,-69.3491479193841
-0.3746999999999999,-68.25982021848802
-0.37370000000000003,-66.81681469262568
-0.3726999999999999,-65.43039761875795
-0.37170000000000003,-64.46839393484973
-0.3706999999999999,-63.77518539791585
-0.36970000000000003,-62.855623053003576
-0.3686999999999999,-61.63897133511965
-0.3677,-60.45061384323302
-0.3666999999999999,-59.54519861131939
-0.3657,-58.79540162239092
-0.3646999999999999,-57.79095659948675
-0.3637,-56.489422203610914
-0.3626999999999999,-55.31521182472294
-0.3617,-54.480532157802564
-0.36070000000000013,-53.872206298860604
-0.3597,-52.995085292944275
-0.35870000000000013,-51.86331625305225
-0.3577,-50.85887123014807
-0.35670000000000013,-50.1656626932142
-0.3557,-49.50074838227763
-0.3547000000000001,-48.51045047237211
-0.3537,-47.15232762450167
-0.3527000000000001,-45.97811724561369
-0.3517,-45.22832025668522
-0.3507000000000001,-44.704877075735155
-0.3497,-43.96922719980534
-0.3487000000000001,-42.837458159913304
-0.3477,-41.70568912002128
-0.3467000000000001,-40.87100945310091
-0.3457,-40.220242255162994
-0.3447000000000001,-39.38556258824262
-0.3437,-38.253793548350586
-0.3427000000000001,-37.206907186450465
-0.3417,-36.55613998851254
-0.3407000000000001,-36.07513814655844
-0.3397,-35.282899818634014
-0.3387000000000001,-34.193572117737936
-0.3377,-33.14668575583781
-0.3367000000000001,-32.49591855789989
-0.3357,-32.05735805494172
-0.3347000000000001,-31.36414951800786
-0.3337,-30.359704495103685
-0.3327000000000001,-29.31281813320356
-0.3317,-28.662050935265643
-0.3307000000000001,-28.22349043230748
-0.3297,-27.487840556377662
-0.3287000000000001,-26.525836872469437
-0.3277,-25.60627452755716
-0.3267000000000001,-25.04039000761115
-0.3257,-24.64427084364894
-0.3247000000000001,-23.993503645711023
-0.3237,-22.989058622806844
-0.3227000000000001,-22.069496277894572
-0.3217,-21.503611757948562
-0.3207000000000001,-21.107492593986347
-0.3197,-20.541608074040333
-0.3187000000000001,-19.636192842126707
-0.3177,-18.716630497214435
-0.3167000000000001,-18.19318731626437
-0.3157,-17.839509491298113
-0.3147000000000001,-17.231183632356142
-0.3137,-16.311621287443874
-0.3127000000000001,-15.491088733522153
-0.3117,-15.01008689156804
-0.3107000000000001,-14.69885040559773
-0.3097,-14.13438059695158
-0.3087000000000001,-13.217647674639037
-0.3077,-12.390041564217992
-0.3067000000000001,-11.952895772559694
-0.30569999999999997,-11.691174182084664
-0.3047000000000001,-11.1677310011346
-0.30369999999999997,-10.340124890713554
-0.3027000000000001,-9.55496011928846
-0.30169999999999997,-9.161670377925978
-0.3007000000000001,-8.899948787450944
-0.29969999999999997,-8.4203616567967
-0.2987000000000001,-7.635196885371603
-0.29769999999999996,-6.893888164242324
-0.2967000000000001,-6.54445447317566
-0.29569999999999996,-6.37044498329226
-0.2947000000000001,-5.890857852638012
-0.29369999999999996,-5.149549131508733
-0.29270000000000007,-4.406825699079589
-0.29169999999999996,-4.102662769608606
-0.29070000000000007,-3.927238568425342
-0.28969999999999996,-3.4915074880669104
-0.28870000000000007,-2.7501987669376318
-0.28769999999999996,-2.095187435100119
-0.28670000000000007,-1.7910245056291363
-0.28569999999999995,-1.6594563547416883
-0.28470000000000006,-1.3107300193249565
-0.28369999999999995,-0.5692798270656908
-0.28270000000000006,0.08502414912188871
-0.28169999999999995,0.3031726315610774
-0.28070000000000006,0.3903188476327636
-0.27969999999999995,0.7829012333453113
-0.27870000000000006,1.4373466806628774
-0.27769999999999995,2.048501962204573
-0.27670000000000006,2.2663675023837886
-0.27569999999999995,2.352664891675556
-0.27470000000000006,2.658242532446404
-0.27369999999999994,3.313253864283916
-0.27270000000000005,3.8791383842299307
-0.27169999999999994,4.054562585413195
-0.27070000000000005,4.098418635709011
-0.26969999999999994,4.402581565179994
-0.26870000000000005,4.9698807964258735
-0.26769999999999994,5.537180027671754
