Potential V vs RHE, Current mA cm-2
0.013299999999999867,0.17231183632356148
0.012299999999999978,-1.5717442541500557
0.011299999999999866,-3.273641947887695
0.010299999999999976,-4.9302688800296535
0.009299999999999864,-6.414301033588076
0.008299999999999974,-7.809206375255003
0.007299999999999862,-9.031516938338395
0.006299999999999972,-10.078403300238522
0.00529999999999986,-11.037577561547016
0.0042999999999999705,-11.996751822855511
0.0032999999999998586,-12.955926084164007
0.0022999999999999687,-13.960371107068182
0.0012999999999998568,-15.01008689156804
0.00029999999999996696,-16.056973253468165
-0.000700000000000145,-17.061418276372343
-0.0017000000000000348,-17.839509491298113
-0.0027000000000001467,-18.589306480226583
-0.0037000000000000366,-19.155191000172596
-0.0047000000000001485,-19.636192842126707
-0.005700000000000038,-20.10304757108217
-0.00670000000000015,-20.584049413036283
-0.00770000000000004,-21.2065223849769
-0.008700000000000152,-21.857289582914817
-0.009700000000000042,-22.550498119848687
-0.010700000000000154,-23.24370665678255
-0.011700000000000044,-23.86617962872317
-0.012700000000000156,-24.290593018682678
-0.013700000000000045,-24.64427084364894
-0.014700000000000157,-24.870624651627345
-0.015700000000000047,-25.12527268560305
-0.01670000000000016,-25.39406783257741
-0.01770000000000005,-25.77603988354097
-0.01870000000000016,-26.21460038649913
-0.01970000000000005,-26.65316088945729
-0.020700000000000163,-27.049280053419505
-0.021700000000000053,-27.38881076538711
-0.022700000000000164,-27.572723234369565
-0.023700000000000054,-27.700047251357418
-0.024700000000000166,-27.78492992934932
-0.025700000000000056,-27.869812607341224
-0.026700000000000168,-28.05372507632368
-0.027700000000000058,-28.308373110299385
-0.02870000000000017,-28.662050935265643
-0.02970000000000006,-29.058170099227848
-0.03070000000000017,-29.35525947219951
-0.03170000000000006,-29.581613280177915
-0.03270000000000017,-29.708937297165768
-0.03370000000000006,-29.751378636161718
-0.034700000000000175,-29.708937297165768
-0.035700000000000065,-29.708937297165768
-0.03670000000000018,-29.751378636161718
-0.03770000000000007,-29.878702653149578
-0.03870000000000018,-30.147497800123933
-0.03970000000000007,-30.402145834099635
-0.04070000000000018,-30.71338232006995
-0.04170000000000007,-30.88314767605375
-0.04270000000000018,-30.925589015049702
-0.04370000000000007,-30.925589015049702
-0.044700000000000184,-30.79826499806185
-0.045700000000000074,-30.79826499806185
-0.046700000000000186,-30.79826499806185
-0.047700000000000076,-30.88314767605375
-0.04870000000000019,-31.095354371033505
-0.04970000000000008,-31.321708179011907
-0.05070000000000019,-31.49147353499572
-0.05170000000000008,-31.618797551983565
-0.05270000000000019,-31.618797551983565
-0.05370000000000008,-31.49147353499572
-0.05470000000000019,-31.36414951800786
-0.05570000000000008,-31.23682550102001
-0.056700000000000195,-31.19438416202406
-0.057700000000000085,-31.23682550102001
-0.058700000000000196,-31.36414951800786
-0.059700000000000086,-31.618797551983565
-0.0607000000000002,-31.802710020966025
-0.06170000000000009,-31.930034037953877
-0.0627000000000002,-31.972475376949827
-0.06370000000000009,-31.887592698957924
-0.0647000000000002,-31.76026868197007
-0.06570000000000009,-31.618797551983565
-0.0667000000000002,-31.533914873991666
-0.0677000000000001,-31.57635621298762
-0.0687000000000002,-31.717827342974125
-0.0697000000000001,-31.887592698957924
-0.07070000000000021,-32.05735805494172
-0.0717000000000001,-32.09979939393769
-0.07270000000000021,-32.05735805494172
-0.0737000000000001,-31.972475376949827
-0.07470000000000021,-31.802710020966025
-0.0757000000000001,-31.717827342974125
-0.07670000000000021,-31.661238890979522
-0.0777000000000001,-31.717827342974125
-0.07870000000000021,-31.84515135996197
-0.0797000000000001,-32.01491671594578
-0.08070000000000022,-32.14224073293363
-0.0817000000000001,-32.24127052392419
-0.08270000000000022,-32.14224073293363
-0.08370000000000011,-32.01491671594578
-0.08470000000000022,-31.802710020966025
-0.08570000000000011,-31.661238890979522
-0.08670000000000022,-31.533914873991666
-0.08770000000000011,-31.57635621298762
-0.08870000000000022,-31.717827342974125
-0.08970000000000011,-31.887592698957924
-0.09070000000000022,-32.05735805494172
-0.09170000000000011,-32.14224073293363
-0.09270000000000023,-32.14224073293363
-0.09370000000000012,-32.01491671594578
-0.09470000000000023,-31.887592698957924
-0.09570000000000012,-31.717827342974125
-0.09670000000000023,-31.618797551983565
-0.09770000000000012,-31.661238890979522
-0.09870000000000023,-31.76026868197007
-0.09970000000000012,-31.930034037953877
-0.10070000000000023,-32.01491671594578
-0.10170000000000012,-32.05735805494172
-0.10270000000000024,-32.01491671594578
-0.10370000000000013,-31.887592698957924
-0.10470000000000024,-31.717827342974125
-0.10570000000000013,-31.57635621298762
-0.10670000000000024,-31.49147353499572
-0.10770000000000013,-31.57635621298762
-0.10870000000000024,-31.661238890979522
-0.10970000000000013,-31.887592698957924
-0.11070000000000024,-32.05735805494172
-0.11170000000000013,-32.14224073293363
-0.11270000000000002,-32.09979939393769
-0.11370000000000013,-32.01491671594578
-0.11470000000000002,-31.802710020966025
-0.11570000000000014,-31.717827342974125
-0.11670000000000003,-31.618797551983565
-0.11770000000000014,-31.661238890979522
-0.11870000000000003,-31.802710020966025
-0.11970000000000014,-31.972475376949827
-0.12070000000000003,-32.09979939393769
-0.12170000000000014,-32.24127052392419
-0.12270000000000003,-32.184682071929586
-0.12370000000000014,-32.05735805494172
-0.12470000000000003,-31.887592698957924
-0.12570000000000014,-31.76026868197007
-0.12670000000000003,-31.661238890979522
-0.12770000000000015,-31.717827342974125
-0.12870000000000004,-31.84515135996197
-0.12970000000000015,-32.01491671594578
-0.13070000000000004,-32.14224073293363
-0.13170000000000015,-32.24127052392419
-0.13270000000000004,-32.184682071929586
-0.13370000000000015,-32.09979939393769
-0.13470000000000004,-31.972475376949827
-0.13570000000000015,-31.84515135996197
-0.13670000000000004,-31.802710020966025
-0.13770000000000016,-31.887592698957924
-0.13870000000000005,-32.01491671594578
-0.13970000000000016,-32.24127052392419
-0.14070000000000005,-32.41103587990799
-0.14170000000000016,-32.49591855789989
-0.14270000000000005,-32.49591855789989
-0.14370000000000016,-32.368594540912035
-0.14470000000000005,-32.184682071929586
-0.14570000000000016,-32.01491671594578
-0.14670000000000005,-31.930034037953877
-0.14770000000000016,-31.972475376949827
-0.14870000000000005,-32.09979939393769
-0.14970000000000017,-32.283711862920136
-0.15070000000000006,-32.45347721890394
-0.15170000000000017,-32.49591855789989
-0.15270000000000006,-32.45347721890394
-0.15370000000000017,-32.368594540912035
-0.15470000000000006,-32.184682071929586
-0.15570000000000017,-32.05735805494172
-0.15670000000000006,-31.972475376949827
-0.15770000000000017,-32.05735805494172
-0.15870000000000006,-32.184682071929586
-0.15970000000000018,-32.41103587990799
-0.16070000000000007,-32.53835989689585
-0.16170000000000018,-32.62324257488775
-0.16270000000000007,-32.62324257488775
-0.16370000000000018,-32.49591855789989
-0.16470000000000007,-32.368594540912035
-0.16570000000000018,-32.184682071929586
-0.16670000000000007,-32.14224073293363
-0.16770000000000018,-32.184682071929586
-0.16870000000000007,-32.32615320191609
-0.16970000000000018,-32.45347721890394
-0.17070000000000007,-32.62324257488775
-0.17170000000000019,-32.70812525287965
-0.17270000000000008,-32.70812525287965
-0.1737000000000002,-32.62324257488775
-0.17470000000000008,-32.45347721890394
-0.1757000000000002,-32.368594540912035
-0.17670000000000008,-32.32615320191609
-0.1777000000000002,-32.32615320191609
-0.17870000000000008,-32.45347721890394
-0.1797000000000002,-32.66568391388369
-0.18070000000000008,-32.807155043870196
-0.1817000000000002,-32.93447906085806
-0.18270000000000008,-32.93447906085806
-0.1837000000000002,-32.84959638286615
-0.1847000000000001,-32.70812525287965
-0.1857000000000002,-32.62324257488775
-0.1867000000000001,-32.58080123589179
-0.1877000000000002,-32.66568391388369
-0.1887000000000001,-32.807155043870196
-0.1897000000000002,-33.01936173884996
-0.1907000000000001,-33.231568433829715
-0.1917000000000001,-33.330598224820264
-0.19269999999999998,-33.330598224820264
-0.1937000000000001,-33.231568433829715
-0.19469999999999998,-33.01936173884996
-0.1957000000000001,-32.892037721862096
-0.19669999999999999,-32.764713704874254
-0.1977000000000001,-32.807155043870196
-0.1987,-32.93447906085806
-0.1997000000000001,-33.14668575583781
-0.2007,-33.288156885824314
-0.2017000000000001,-33.41548090281216
-0.2027,-33.41548090281216
-0.2037000000000001,-33.330598224820264
-0.2047,-33.18912709483376
-0.2057000000000001,-33.10424441684186
-0.2067,-33.06180307784591
-0.2077000000000001,-33.10424441684186
-0.2087,-33.231568433829715
-0.2097000000000001,-33.45792224180811
-0.2107,-33.58524625879597
-0.2117000000000001,-33.712570275783825
-0.2127,-33.755011614779775
-0.2137000000000001,-33.670128936787876
-0.2147,-33.54280491980002
-0.2157000000000001,-33.54280491980002
-0.2167,-33.50036358080407
-0.21770000000000012,-33.58524625879597
-0.2187,-33.755011614779775
-0.21970000000000012,-34.02380676175414
-0.2207,-34.193572117737936
-0.22170000000000012,-34.33504324772444
-0.2227,-34.377484586720385
-0.22370000000000012,-34.278454795729836
-0.2247,-34.15113077874198
-0.22570000000000012,-34.02380676175414
-0.2267,-33.98136542275818
-0.22770000000000012,-34.06624810075008
-0.22870000000000001,-34.236013456733886
-0.22970000000000013,-34.462367264712285
-0.23070000000000002,-34.632132620696105
-0.23170000000000013,-34.75945663768395
-0.23270000000000002,-34.8018979766799
-0.23370000000000013,-34.717015298688004
-0.23470000000000002,-34.58969128170015
-0.23570000000000013,-34.50480860370825
-0.23670000000000002,-34.462367264712285
-0.2376999999999999,-34.5472499427042
-0.23870000000000002,-34.67457395969205
-0.2396999999999999,-34.90092776767045
-0.24070000000000003,-35.11313446265021
-0.24169999999999991,-35.282899818634014
-0.24270000000000003,-35.282899818634014
-0.24369999999999992,-35.240458479638065
-0.24470000000000003,-35.15557580164616
-0.24569999999999992,-35.11313446265021
-0.24670000000000003,-35.11313446265021
-0.24769999999999992,-35.240458479638065
-0.24870000000000003,-35.46681228761647
-0.24969999999999992,-35.721460321592176
-0.25070000000000003,-35.90537279057463
-0.2516999999999999,-36.07513814655844
-0.25270000000000004,-36.11757948555439
-0.2536999999999999,-36.07513814655844
-0.25470000000000004,-35.99025546856653
-0.2556999999999999,-35.94781412957058
-0.25670000000000004,-35.99025546856653
-0.25769999999999993,-36.16002082455034
-0.25870000000000004,-36.37222751953009
-0.25969999999999993,-36.6834640055004
-0.26070000000000004,-36.95225915247476
-0.26169999999999993,-37.122024508458566
-0.26270000000000004,-37.206907186450465
-0.26369999999999993,-37.206907186450465
-0.26470000000000005,-37.122024508458566
-0.26569999999999994,-37.122024508458566
-0.26670000000000005,-37.164465847454515
-0.26769999999999994,-37.334231203438314
-0.26870000000000005,-37.56058501141672
-0.26969999999999994,-37.85767438438838
-0.27070000000000005,-38.16891087035869
-0.27169999999999994,-38.38111756533845
-0.27270000000000005,-38.46600024333035
-0.27369999999999994,-38.522588695324956
-0.27470000000000006,-38.46600024333035
-0.27569999999999995,-38.522588695324956
-0.27670000000000006,-38.5650300343209
-0.27769999999999995,-38.777236729300654
-0.27870000000000006,-39.08847321527096
-0.27969999999999995,-39.42800392723857
-0.28070000000000006,-39.739240413208876
-0.28169999999999995,-39.99388844718459
-0.28270000000000006,-40.135359577171094
-0.28369999999999995,-40.177800916167044
-0.28470000000000006,-40.177800916167044
-0.28569999999999995,-40.177800916167044
-0.28670000000000007,-40.30512493315489
-0.28769999999999996,-40.51733162813464
-0.28870000000000007,-40.828568114104954
-0.28969999999999996,-41.22468727806717
-0.29070000000000007,-41.56421799003478
-0.29169999999999996,-41.87545447600508
-0.29270000000000007,-42.04521983198889
-0.29369999999999996,-42.186690961975394
-0.2947000000000001,-42.2715736399673
-0.29569999999999996,-42.3564563179592
-0.2967000000000001,-42.526221673943
-0.29769999999999996,-42.79501682091736
-0.2987000000000001,-43.17698887188092
-0.29969999999999997,-43.61554937483908
-0.3007000000000001,-43.96922719980534
-0.30169999999999997,-44.3229050247716
-0.3027000000000001,-44.535111719751356
-0.30369999999999997,-44.66243573673921
-0.3047000000000001,-44.80390686672572
-0.30569999999999997,-44.93123088371356
-0.3067000000000001,-45.10099623969737
-0.3077,-45.45467406466363
-0.3087000000000001,-45.85079322862584
-0.3097,-46.3176479575813
-0.3107000000000001,-46.75620846053947
-0.3117,-47.15232762450167
-0.3127000000000001,-47.46356411047198
-0.3137,-47.67577080545174
-0.3147000000000001,-47.84553616143554
-0.3157,-48.114331308409895
-0.3167000000000001,-48.36897934238561
-0.3177,-48.80753984534376
-0.3187000000000001,-49.33098302629383
-0.3197,-49.939308885235796
-0.3207000000000001,-50.46275206618586
-0.3217,-50.98619524713592
-0.3227000000000001,-51.33987307210218
-0.3237,-51.65110955807249
-0.3247000000000001,-51.77843357506035
-0.3257,-51.990640270040096
-0.3267000000000001,-52.25943541701445
-0.3277,-52.64140746797801
-0.3287000000000001,-53.16485064892808
-0.3297,-53.74488228187274
-0.3307000000000001,-54.35320814081471
-0.3317,-54.919092660760725
-0.3327000000000001,-55.400094502714836
-0.3337,-55.7820665536784
-0.3347000000000001,-56.1781857176406
-0.3357,-56.57430488160282
-0.3367000000000001,-57.05530672355693
-0.3377,-57.66363258249889
-0.3387000000000001,-58.31439978043681
-0.3397,-59.06419676936528
-0.3407000000000001,-59.7149639673032
-0.3417,-60.32328982624517
-0.3427000000000001,-60.84673300719523
-0.3437,-61.28529351015339
-0.3447000000000001,-61.6814126741156
-0.3457,-62.11997317707376
-0.3467000000000001,-62.544386567033264
-0.3477,-63.11027108697928
-0.3487000000000001,-63.81762673691181
-0.3497,-64.55327661284163
-0.3507000000000001,-65.2464851497755
-0.3517,-65.95384079970802
-0.3527000000000001,-66.51972531965401
-0.3537,-67.04316850060408
-0.3547000000000001,-67.52417034255821
-0.3557,-68.04761352350828
-0.35670000000000013,-68.61349804345427
-0.3577,-69.30670658038814
-0.35870000000000013,-70.09894490831257
-0.3597,-70.91947746223428
-0.36070000000000013,-71.75415712915466
-0.3617,-72.48980700508447
-0.3626999999999999,-73.197162655017
-0.3637,-73.80548851395896
-0.3646999999999999,-74.37137303390499
-0.3657,-74.93725755385098
-0.3666999999999999,-75.54558341279296
-0.3677,-76.29538040172143
-0.3686999999999999,-77.1583542946391
-0.36970000000000003,-78.03547530055542
-0.3706999999999999,-78.91259630647174
-0.37170000000000003,-79.69068752139752
-0.3726999999999999,-80.34145471933543
-0.37370000000000003,-80.90733923928146
-0.3746999999999999,-81.43078242023151
-0.37570000000000003,-81.99666694017753
-0.3766999999999999,-82.70402259011003
-0.37770000000000004,-83.56699648302772
-0.3786999999999999,-84.48655882793999
-0.37970000000000004,-85.53344518984011
-0.3806999999999999,-86.5378902127443
-0.38170000000000004,-87.54233523564847
-0.38269999999999993,-88.4194562415648
-0.38370000000000004,-89.15510611749461
-0.38469999999999993,-89.84831465442848
-0.38570000000000004,-90.51322896536506
-0.38669999999999993,-89.98978578441499
-0.38570000000000004,-87.41501121866061
-0.38469999999999993,-85.09488468688197
-0.38370000000000004,-83.08599464107361
-0.38269999999999993,-81.13369304725985
-0.38170000000000004,-79.2945683574353
-0.3806999999999999,-77.46959078060941
-0.37970000000000004,-75.5880247517889
-0.3786999999999999,-73.76304717496302
-0.37770000000000004,-72.05124650212633
-0.3766999999999999,-70.43847562028017
-0.37570000000000003,-69.0096172074165
-0.3746999999999999,-67.693935698542
-0.37370000000000003,-66.51972531965401
-0.3726999999999999,-65.3030736017701
-0.37170000000000003,-64.0722747708875
-0.3706999999999999,-62.77074037501168
-0.36970000000000003,-61.412617527141244
-0.3686999999999999,-60.02620045327351
-0.3677,-58.66807760540307
-0.3666999999999999,-57.352396096528594
-0.3657,-56.26306839563251
-0.3646999999999999,-55.21618203373238
-0.3637,-54.26832546282281
-0.3626999999999999,-53.30632177891458
-0.3617,-52.25943541701445
-0.36070000000000013,-51.21254905511432
-0.3597,-50.024191563227696
-0.35870000000000013,-48.80753984534376
-0.3577,-47.67577080545174
-0.35670000000000013,-46.544001765559706
-0.3557,-45.581998081651484
-0.3547000000000001,-44.704877075735155
-0.3537,-43.88434452181344
-0.3527000000000001,-43.04966485489307
-0.3517,-42.186690961975394
-0.3507000000000001,-41.139804600075266
-0.3497,-40.03632978618054
-0.3487000000000001,-38.90456074628851
-0.3477,-37.81523304539243
-0.3467000000000001,-36.725905344496354
-0.3457,-35.848784338580025
-0.3447000000000001,-35.02825178465831
-0.3437,-34.33504324772444
-0.3427000000000001,-33.54280491980002
-0.3417,-32.764713704874254
-0.3407000000000001,-31.887592698957924
-0.3397,-30.88314767605375
-0.3387000000000001,-29.878702653149578
-0.3377,-28.831816291249446
-0.3367000000000001,-27.912253946337174
-0.3357,-27.134162731411404
-0.3347000000000001,-26.34192440348698
-0.3337,-25.648715866553115
-0.3327000000000001,-24.95550732961925
-0.3317,-24.16326900169483
-0.3307000000000001,-23.342736447773106
-0.3297,-22.33829142486893
-0.3287000000000001,-21.376287740960702
-0.3277,-20.414284057052477
-0.3267000000000001,-19.537163051136158
-0.3257,-18.80151317520634
-0.3247000000000001,-18.15074597726842
-0.3237,-17.584861457322408
-0.3227000000000001,-16.962388485381787
-0.3217,-16.354062626439823
-0.3207000000000001,-15.575971411514052
-0.3197,-14.741291744593681
-0.3187000000000001,-13.828802956180734
-0.3177,-12.955926084164007
-0.3167000000000001,-12.12831997374296
-0.3157,-11.42945259160963
-0.3147000000000001,-10.819712021367803
-0.3137,-10.25241279012192
-0.3127000000000001,-9.728969609171857
-0.3117,-9.11781432763016
-0.3107000000000001,-8.376505606500881
-0.3097,-7.591340835075788
-0.3087000000000001,-6.762320013354876
-0.3077,-5.9347139029338285
-0.3067000000000001,-5.235846520800501
-0.30569999999999997,-4.582249900262854
-0.3047000000000001,-4.0588067193127895
-0.30369999999999997,-3.579219588658543
-0.3027000000000001,-3.0996324580042955
-0.30169999999999997,-2.576189277054232
-0.3007000000000001,-1.8773218949209036
-0.29969999999999997,-1.1362961160515976
-0.2987000000000001,-0.3947044526623452
-0.29769999999999996,0.3467457395969205
-0.2967000000000001,1.0446228238203432
-0.29569999999999996,1.6113561705462767
-0.2947000000000001,2.048501962204573
-0.29369999999999996,2.4403769922671885
-0.29270000000000007,2.8761080726256196
-0.29169999999999996,3.355695203279867
-0.29070000000000007,3.922994434525747
-0.28969999999999996,4.6218618166590755
-0.28870000000000007,5.319314487492538
-0.28769999999999996,5.9729111080301855
-0.28670000000000007,6.5840663895718805
-0.28569999999999995,7.063653520226129
-0.28470000000000006,7.456943261588608
-0.28369999999999995,7.804962241355407
-0.28270000000000006,8.154395932422071
-0.28169999999999995,8.590127012780503
-0.28070000000000006,9.113570193730567
-0.27969999999999995,9.680869424976446
-0.27870000000000006,10.334466045514093
-0.27769999999999995,10.94562132705579
-0.27670000000000006,11.51292055830167
-0.27569999999999995,11.9486516386601
-0.27470000000000006,12.254229279430946
-0.27369999999999994,12.559806920201796
-0.27270000000000005,12.821528510676828
-0.27169999999999994,13.169547490443627
-0.27070000000000005,13.65054933239774
-0.26969999999999994,14.175407224647667
-0.26870000000000005,14.783733083589633
-0.26769999999999994,15.349617603535648
-0.26670000000000005,15.830619445489761
-0.26569999999999994,16.22673860945197
