Apr. 1, 2025   04:29:42
Cyclic Voltammetry
File: c:/users/guazh/data/banditlqround7_x0exp518_r20/2025-03-28-exp1006\exp1006-2025-04-01t04_17_24-arkoh\exp1006_cv_50mvs_efin_-1600mv.bin
Data Source:  Experiment
Instrument Model:  CHI760E
Header: CV ran at 50 mVs
Note: 

Init E (V) = -1
High E (V) = -1
Low E (V) = -1.6
Final E (V) = -1
Init P/N = N
Scan Rate (V/s) = 0.05
Segment = 7
Sample Interval (V) = 0.001
Quiet Time (sec) = 60
Sensitivity (A/V) = 0.001
Comp R (ohm) = 1.8

Results:

Channel 1:
Segment 1:

Segment 2:

Segment 3:

Segment 4:

Segment 5:

Segment 6:

Segment 7:

Potential/V, Current/A

-1.000, 2.544e-5
-1.001, 3.944e-5
-1.002, 4.083e-5
-1.003, 4.162e-5
-1.004, 4.349e-5
-1.005, 4.434e-5
-1.006, 4.433e-5
-1.007, 4.454e-5
-1.008, 4.465e-5
-1.009, 4.590e-5
-1.010, 4.669e-5
-1.011, 4.637e-5
-1.012, 4.624e-5
-1.013, 4.640e-5
-1.014, 4.723e-5
-1.015, 4.811e-5
-1.016, 4.764e-5
-1.017, 4.724e-5
-1.018, 4.779e-5
-1.019, 4.803e-5
-1.020, 4.902e-5
-1.021, 4.844e-5
-1.022, 4.792e-5
-1.023, 4.853e-5
-1.024, 4.918e-5
-1.025, 4.942e-5
-1.026, 4.922e-5
-1.027, 4.844e-5
-1.028, 4.895e-5
-1.029, 4.930e-5
-1.030, 4.974e-5
-1.031, 4.975e-5
-1.032, 4.890e-5
-1.033, 4.890e-5
-1.034, 4.991e-5
-1.035, 5.012e-5
-1.036, 5.008e-5
-1.037, 4.919e-5
-1.038, 4.935e-5
-1.039, 5.027e-5
-1.040, 5.044e-5
-1.041, 5.011e-5
-1.042, 4.977e-5
-1.043, 4.933e-5
-1.044, 5.042e-5
-1.045, 5.078e-5
-1.046, 5.027e-5
-1.047, 4.990e-5
-1.048, 4.980e-5
-1.049, 5.048e-5
-1.050, 5.129e-5
-1.051, 5.034e-5
-1.052, 5.022e-5
-1.053, 5.004e-5
-1.054, 5.042e-5
-1.055, 5.134e-5
-1.056, 5.083e-5
-1.057, 4.997e-5
-1.058, 5.022e-5
-1.059, 5.084e-5
-1.060, 5.151e-5
-1.061, 5.101e-5
-1.062, 5.026e-5
-1.063, 5.071e-5
-1.064, 5.081e-5
-1.065, 5.157e-5
-1.066, 5.120e-5
-1.067, 5.041e-5
-1.068, 5.075e-5
-1.069, 5.101e-5
-1.070, 5.175e-5
-1.071, 5.152e-5
-1.072, 5.052e-5
-1.073, 5.075e-5
-1.074, 5.145e-5
-1.075, 5.198e-5
-1.076, 5.174e-5
-1.077, 5.069e-5
-1.078, 5.071e-5
-1.079, 5.156e-5
-1.080, 5.193e-5
-1.081, 5.158e-5
-1.082, 5.111e-5
-1.083, 5.089e-5
-1.084, 5.156e-5
-1.085, 5.207e-5
-1.086, 5.175e-5
-1.087, 5.133e-5
-1.088, 5.089e-5
-1.089, 5.153e-5
-1.090, 5.236e-5
-1.091, 5.184e-5
-1.092, 5.135e-5
-1.093, 5.113e-5
-1.094, 5.158e-5
-1.095, 5.260e-5
-1.096, 5.186e-5
-1.097, 5.127e-5
-1.098, 5.140e-5
-1.099, 5.181e-5
-1.100, 5.270e-5
-1.101, 5.205e-5
-1.102, 5.147e-5
-1.103, 5.156e-5
-1.104, 5.196e-5
-1.105, 5.246e-5
-1.106, 5.245e-5
-1.107, 5.149e-5
-1.108, 5.148e-5
-1.109, 5.198e-5
-1.110, 5.259e-5
-1.111, 5.271e-5
-1.112, 5.159e-5
-1.113, 5.157e-5
-1.114, 5.244e-5
-1.115, 5.263e-5
-1.116, 5.283e-5
-1.117, 5.168e-5
-1.118, 5.168e-5
-1.119, 5.250e-5
-1.120, 5.284e-5
-1.121, 5.262e-5
-1.122, 5.224e-5
-1.123, 5.187e-5
-1.124, 5.247e-5
-1.125, 5.305e-5
-1.126, 5.274e-5
-1.127, 5.258e-5
-1.128, 5.190e-5
-1.129, 5.254e-5
-1.130, 5.343e-5
-1.131, 5.298e-5
-1.132, 5.238e-5
-1.133, 5.231e-5
-1.134, 5.256e-5
-1.135, 5.370e-5
-1.136, 5.314e-5
-1.137, 5.243e-5
-1.138, 5.260e-5
-1.139, 5.288e-5
-1.140, 5.371e-5
-1.141, 5.345e-5
-1.142, 5.262e-5
-1.143, 5.291e-5
-1.144, 5.320e-5
-1.145, 5.376e-5
-1.146, 5.380e-5
-1.147, 5.275e-5
-1.148, 5.296e-5
-1.149, 5.323e-5
-1.150, 5.417e-5
-1.151, 5.416e-5
-1.152, 5.328e-5
-1.153, 5.302e-5
-1.154, 5.375e-5
-1.155, 5.428e-5
-1.156, 5.424e-5
-1.157, 5.354e-5
-1.158, 5.345e-5
-1.159, 5.402e-5
-1.160, 5.455e-5
-1.161, 5.456e-5
-1.162, 5.406e-5
-1.163, 5.350e-5
-1.164, 5.438e-5
-1.165, 5.501e-5
-1.166, 5.468e-5
-1.167, 5.459e-5
-1.168, 5.396e-5
-1.169, 5.457e-5
-1.170, 5.543e-5
-1.171, 5.518e-5
-1.172, 5.477e-5
-1.173, 5.434e-5
-1.174, 5.506e-5
-1.175, 5.597e-5
-1.176, 5.548e-5
-1.177, 5.536e-5
-1.178, 5.509e-5
-1.179, 5.536e-5
-1.180, 5.630e-5
-1.181, 5.619e-5
-1.182, 5.540e-5
-1.183, 5.542e-5
-1.184, 5.585e-5
-1.185, 5.674e-5
-1.186, 5.674e-5
-1.187, 5.585e-5
-1.188, 5.591e-5
-1.189, 5.643e-5
-1.190, 5.730e-5
-1.191, 5.727e-5
-1.192, 5.645e-5
-1.193, 5.633e-5
-1.194, 5.723e-5
-1.195, 5.761e-5
-1.196, 5.804e-5
-1.197, 5.717e-5
-1.198, 5.697e-5
-1.199, 5.788e-5
-1.200, 5.840e-5
-1.201, 5.851e-5
-1.202, 5.807e-5
-1.203, 5.786e-5
-1.204, 5.852e-5
-1.205, 5.914e-5
-1.206, 5.914e-5
-1.207, 5.901e-5
-1.208, 5.863e-5
-1.209, 5.925e-5
-1.210, 6.014e-5
-1.211, 6.000e-5
-1.212, 5.986e-5
-1.213, 5.951e-5
-1.214, 6.012e-5
-1.215, 6.119e-5
-1.216, 6.125e-5
-1.217, 6.079e-5
-1.218, 6.090e-5
-1.219, 6.116e-5
-1.220, 6.257e-5
-1.221, 6.234e-5
-1.222, 6.190e-5
-1.223, 6.212e-5
-1.224, 6.256e-5
-1.225, 6.328e-5
-1.226, 6.414e-5
-1.227, 6.342e-5
-1.228, 6.391e-5
-1.229, 6.483e-5
-1.230, 6.517e-5
-1.231, 6.570e-5
-1.232, 6.511e-5
-1.233, 6.513e-5
-1.234, 6.605e-5
-1.235, 6.682e-5
-1.236, 6.757e-5
-1.237, 6.716e-5
-1.238, 6.710e-5
-1.239, 6.818e-5
-1.240, 6.910e-5
-1.241, 6.953e-5
-1.242, 6.955e-5
-1.243, 6.940e-5
-1.244, 7.061e-5
-1.245, 7.147e-5
-1.246, 7.220e-5
-1.247, 7.233e-5
-1.248, 7.230e-5
-1.249, 7.311e-5
-1.250, 7.474e-5
-1.251, 7.520e-5
-1.252, 7.536e-5
-1.253, 7.542e-5
-1.254, 7.659e-5
-1.255, 7.818e-5
-1.256, 7.880e-5
-1.257, 7.881e-5
-1.258, 7.954e-5
-1.259, 8.030e-5
-1.260, 8.228e-5
-1.261, 8.296e-5
-1.262, 8.313e-5
-1.263, 8.392e-5
-1.264, 8.485e-5
-1.265, 8.667e-5
-1.266, 8.798e-5
-1.267, 8.822e-5
-1.268, 8.897e-5
-1.269, 9.020e-5
-1.270, 9.213e-5
-1.271, 9.362e-5
-1.272, 9.392e-5
-1.273, 9.471e-5
-1.274, 9.657e-5
-1.275, 9.836e-5
-1.276, 1.000e-4
-1.277, 1.005e-4
-1.278, 1.015e-4
-1.279, 1.038e-4
-1.280, 1.060e-4
-1.281, 1.073e-4
-1.282, 1.085e-4
-1.283, 1.094e-4
-1.284, 1.117e-4
-1.285, 1.140e-4
-1.286, 1.159e-4
-1.287, 1.173e-4
-1.288, 1.186e-4
-1.289, 1.207e-4
-1.290, 1.238e-4
-1.291, 1.257e-4
-1.292, 1.274e-4
-1.293, 1.291e-4
-1.294, 1.315e-4
-1.295, 1.347e-4
-1.296, 1.371e-4
-1.297, 1.388e-4
-1.298, 1.409e-4
-1.299, 1.438e-4
-1.300, 1.471e-4
-1.301, 1.499e-4
-1.302, 1.520e-4
-1.303, 1.547e-4
-1.304, 1.579e-4
-1.305, 1.614e-4
-1.306, 1.651e-4
-1.307, 1.673e-4
-1.308, 1.703e-4
-1.309, 1.737e-4
-1.310, 1.778e-4
-1.311, 1.820e-4
-1.312, 1.847e-4
-1.313, 1.878e-4
-1.314, 1.923e-4
-1.315, 1.964e-4
-1.316, 2.010e-4
-1.317, 2.043e-4
-1.318, 2.079e-4
-1.319, 2.129e-4
-1.320, 2.177e-4
-1.321, 2.223e-4
-1.322, 2.267e-4
-1.323, 2.307e-4
-1.324, 2.361e-4
-1.325, 2.417e-4
-1.326, 2.469e-4
-1.327, 2.519e-4
-1.328, 2.562e-4
-1.329, 2.622e-4
-1.330, 2.686e-4
-1.331, 2.742e-4
-1.332, 2.800e-4
-1.333, 2.852e-4
-1.334, 2.916e-4
-1.335, 2.992e-4
-1.336, 3.053e-4
-1.337, 3.115e-4
-1.338, 3.181e-4
-1.339, 3.250e-4
-1.340, 3.328e-4
-1.341, 3.403e-4
-1.342, 3.471e-4
-1.343, 3.545e-4
-1.344, 3.621e-4
-1.345, 3.708e-4
-1.346, 3.794e-4
-1.347, 3.871e-4
-1.348, 3.954e-4
-1.349, 4.046e-4
-1.350, 4.139e-4
-1.351, 4.235e-4
-1.352, 4.322e-4
-1.353, 4.413e-4
-1.354, 4.517e-4
-1.355, 4.623e-4
-1.356, 4.733e-4
-1.357, 4.832e-4
-1.358, 4.938e-4
-1.359, 5.054e-4
-1.360, 5.169e-4
-1.361, 5.291e-4
-1.362, 5.403e-4
-1.363, 5.523e-4
-1.364, 5.653e-4
-1.365, 5.779e-4
-1.366, 5.916e-4
-1.367, 6.043e-4
-1.368, 6.175e-4
-1.369, 6.308e-4
-1.370, 6.462e-4
-1.371, 6.608e-4
-1.372, 6.754e-4
-1.373, 6.894e-4
-1.374, 7.047e-4
-1.375, 7.215e-4
-1.376, 7.374e-4
-1.377, 7.529e-4
-1.378, 7.690e-4
-1.379, 7.853e-4
-1.380, 8.035e-4
-1.381, 8.205e-4
-1.382, 8.387e-4
-1.383, 8.562e-4
-1.384, 8.740e-4
-1.385, 8.934e-4
-1.386, 9.125e-4
-1.387, 9.309e-4
-1.388, 9.502e-4
-1.389, 9.699e-4
-1.390, 9.907e-4
-1.391, 1.011e-3
-1.392, 1.031e-3
-1.393, 1.052e-3
-1.394, 1.074e-3
-1.395, 1.096e-3
-1.396, 1.119e-3
-1.397, 1.140e-3
-1.398, 1.162e-3
-1.399, 1.187e-3
-1.400, 1.210e-3
-1.401, 1.235e-3
-1.402, 1.258e-3
-1.403, 1.282e-3
-1.404, 1.307e-3
-1.405, 1.332e-3
-1.406, 1.358e-3
-1.407, 1.383e-3
-1.408, 1.409e-3
-1.409, 1.435e-3
-1.410, 1.463e-3
-1.411, 1.491e-3
-1.412, 1.518e-3
-1.413, 1.545e-3
-1.414, 1.572e-3
-1.415, 1.602e-3
-1.416, 1.630e-3
-1.417, 1.659e-3
-1.418, 1.689e-3
-1.419, 1.719e-3
-1.420, 1.750e-3
-1.421, 1.781e-3
-1.422, 1.812e-3
-1.423, 1.842e-3
-1.424, 1.874e-3
-1.425, 1.906e-3
-1.426, 1.938e-3
-1.427, 1.969e-3
-1.428, 2.002e-3
-1.429, 2.036e-3
-1.430, 2.070e-3
-1.431, 2.104e-3
-1.432, 2.137e-3
-1.433, 2.170e-3
-1.434, 2.206e-3
-1.435, 2.241e-3
-1.436, 2.274e-3
-1.437, 2.311e-3
-1.438, 2.344e-3
-1.439, 2.383e-3
-1.440, 2.419e-3
-1.441, 2.454e-3
-1.442, 2.492e-3
-1.443, 2.527e-3
-1.444, 2.562e-3
-1.445, 2.600e-3
-1.446, 2.641e-3
-1.447, 2.681e-3
-1.448, 2.717e-3
-1.449, 2.754e-3
-1.450, 2.794e-3
-1.451, 2.831e-3
-1.452, 2.870e-3
-1.453, 2.909e-3
-1.454, 2.949e-3
-1.455, 2.990e-3
-1.456, 3.030e-3
-1.457, 3.068e-3
-1.458, 3.111e-3
-1.459, 3.149e-3
-1.460, 3.192e-3
-1.461, 3.232e-3
-1.462, 3.272e-3
-1.463, 3.312e-3
-1.464, 3.348e-3
-1.465, 3.390e-3
-1.466, 3.429e-3
-1.467, 3.467e-3
-1.468, 3.508e-3
-1.469, 3.545e-3
-1.470, 3.585e-3
-1.471, 3.618e-3
-1.472, 3.655e-3
-1.473, 3.697e-3
-1.474, 3.739e-3
-1.475, 3.781e-3
-1.476, 3.832e-3
-1.477, 3.877e-3
-1.478, 3.921e-3
-1.479, 3.972e-3
-1.480, 4.015e-3
-1.481, 4.063e-3
-1.482, 4.105e-3
-1.483, 4.161e-3
-1.484, 4.223e-3
-1.485, 4.268e-3
-1.486, 4.309e-3
-1.487, 4.367e-3
-1.488, 4.417e-3
-1.489, 4.455e-3
-1.490, 4.505e-3
-1.491, 4.562e-3
-1.492, 4.620e-3
-1.493, 4.665e-3
-1.494, 4.716e-3
-1.495, 4.762e-3
-1.496, 4.805e-3
-1.497, 4.855e-3
-1.498, 4.906e-3
-1.499, 4.957e-3
-1.500, 5.004e-3
-1.501, 5.047e-3
-1.502, 5.103e-3
-1.503, 5.160e-3
-1.504, 5.206e-3
-1.505, 5.255e-3
-1.506, 5.299e-3
-1.507, 5.351e-3
-1.508, 5.400e-3
-1.509, 5.454e-3
-1.510, 5.512e-3
-1.511, 5.557e-3
-1.512, 5.606e-3
-1.513, 5.661e-3
-1.514, 5.709e-3
-1.515, 5.759e-3
-1.516, 5.815e-3
-1.517, 5.861e-3
-1.518, 5.909e-3
-1.519, 5.963e-3
-1.520, 6.017e-3
-1.521, 6.059e-3
-1.522, 6.116e-3
-1.523, 6.195e-3
-1.524, 6.236e-3
-1.525, 6.281e-3
-1.526, 6.341e-3
-1.527, 6.401e-3
-1.528, 6.462e-3
-1.529, 6.505e-3
-1.530, 6.555e-3
-1.531, 6.608e-3
-1.532, 6.664e-3
-1.533, 6.709e-3
-1.534, 6.754e-3
-1.535, 6.799e-3
-1.536, 6.831e-3
-1.537, 6.882e-3
-1.538, 6.968e-3
-1.539, 7.005e-3
-1.540, 7.052e-3
-1.541, 7.105e-3
-1.542, 7.169e-3
-1.543, 7.208e-3
-1.544, 7.276e-3
-1.545, 7.365e-3
-1.546, 7.468e-3
-1.547, 7.554e-3
-1.548, 7.604e-3
-1.549, 7.657e-3
-1.550, 7.719e-3
-1.551, 7.771e-3
-1.552, 7.839e-3
-1.553, 7.913e-3
-1.554, 7.949e-3
-1.555, 8.022e-3
-1.556, 8.109e-3
-1.557, 8.207e-3
-1.558, 8.268e-3
-1.559, 8.320e-3
-1.560, 8.412e-3
-1.561, 8.475e-3
-1.562, 8.521e-3
-1.563, 8.620e-3
-1.564, 8.702e-3
-1.565, 8.738e-3
-1.566, 8.823e-3
-1.567, 8.875e-3
-1.568, 8.915e-3
-1.569, 8.981e-3
-1.570, 9.048e-3
-1.571, 9.099e-3
-1.572, 9.165e-3
-1.573, 9.221e-3
-1.574, 9.281e-3
-1.575, 9.356e-3
-1.576, 9.397e-3
-1.577, 9.485e-3
-1.578, 9.546e-3
-1.579, 9.615e-3
-1.580, 9.712e-3
-1.581, 9.808e-3
-1.582, 9.865e-3
-1.583, 9.955e-3
-1.584, 1.002e-2
-1.585, 1.006e-2
-1.586, 1.006e-2
-1.587, 1.010e-2
-1.588, 1.011e-2
-1.589, 1.011e-2
-1.590, 1.011e-2
-1.591, 1.011e-2
-1.592, 1.011e-2
-1.593, 1.011e-2
-1.594, 1.011e-2
-1.595, 1.011e-2
-1.596, 1.011e-2
-1.597, 1.011e-2
-1.598, 1.011e-2
-1.599, 1.011e-2
-1.600, 1.011e-2
-1.599, 1.011e-2
-1.598, 1.011e-2
-1.597, 1.011e-2
-1.596, 1.011e-2
-1.595, 1.011e-2
-1.594, 1.011e-2
-1.593, 1.011e-2
-1.592, 1.011e-2
-1.591, 1.010e-2
-1.590, 1.003e-2
-1.589, 9.923e-3
-1.588, 9.854e-3
-1.587, 9.810e-3
-1.586, 9.719e-3
-1.585, 9.609e-3
-1.584, 9.529e-3
-1.583, 9.468e-3
-1.582, 9.351e-3
-1.581, 9.270e-3
-1.580, 9.223e-3
-1.579, 9.112e-3
-1.578, 9.003e-3
-1.577, 8.906e-3
-1.576, 8.846e-3
-1.575, 8.809e-3
-1.574, 8.672e-3
-1.573, 8.609e-3
-1.572, 8.521e-3
-1.571, 8.450e-3
-1.570, 8.378e-3
-1.569, 8.305e-3
-1.568, 8.236e-3
-1.567, 8.193e-3
-1.566, 8.108e-3
-1.565, 8.025e-3
-1.564, 7.945e-3
-1.563, 7.863e-3
-1.562, 7.811e-3
-1.561, 7.709e-3
-1.560, 7.613e-3
-1.559, 7.558e-3
-1.558, 7.494e-3
-1.557, 7.400e-3
-1.556, 7.302e-3
-1.555, 7.236e-3
-1.554, 7.156e-3
-1.553, 7.073e-3
-1.552, 7.003e-3
-1.551, 6.901e-3
-1.550, 6.829e-3
-1.549, 6.761e-3
-1.548, 6.707e-3
-1.547, 6.621e-3
-1.546, 6.539e-3
-1.545, 6.477e-3
-1.544, 6.421e-3
-1.543, 6.352e-3
-1.542, 6.285e-3
-1.541, 6.228e-3
-1.540, 6.173e-3
-1.539, 6.086e-3
-1.538, 6.023e-3
-1.537, 5.941e-3
-1.536, 5.867e-3
-1.535, 5.830e-3
-1.534, 5.754e-3
-1.533, 5.686e-3
-1.532, 5.652e-3
-1.531, 5.573e-3
-1.530, 5.510e-3
-1.529, 5.455e-3
-1.528, 5.396e-3
-1.527, 5.338e-3
-1.526, 5.279e-3
-1.525, 5.219e-3
-1.524, 5.208e-3
-1.523, 5.133e-3
-1.522, 5.090e-3
-1.521, 5.044e-3
-1.520, 4.994e-3
-1.519, 4.944e-3
-1.518, 4.889e-3
-1.517, 4.835e-3
-1.516, 4.778e-3
-1.515, 4.713e-3
-1.514, 4.652e-3
-1.513, 4.597e-3
-1.512, 4.539e-3
-1.511, 4.481e-3
-1.510, 4.422e-3
-1.509, 4.360e-3
-1.508, 4.311e-3
-1.507, 4.259e-3
-1.506, 4.199e-3
-1.505, 4.132e-3
-1.504, 4.074e-3
-1.503, 4.017e-3
-1.502, 3.971e-3
-1.501, 3.910e-3
-1.500, 3.873e-3
-1.499, 3.836e-3
-1.498, 3.792e-3
-1.497, 3.755e-3
-1.496, 3.728e-3
-1.495, 3.683e-3
-1.494, 3.635e-3
-1.493, 3.589e-3
-1.492, 3.537e-3
-1.491, 3.498e-3
-1.490, 3.440e-3
-1.489, 3.393e-3
-1.488, 3.345e-3
-1.487, 3.293e-3
-1.486, 3.242e-3
-1.485, 3.198e-3
-1.484, 3.152e-3
-1.483, 3.105e-3
-1.482, 3.058e-3
-1.481, 3.016e-3
-1.480, 2.969e-3
-1.479, 2.929e-3
-1.478, 2.889e-3
-1.477, 2.843e-3
-1.476, 2.799e-3
-1.475, 2.757e-3
-1.474, 2.712e-3
-1.473, 2.672e-3
-1.472, 2.629e-3
-1.471, 2.586e-3
-1.470, 2.546e-3
-1.469, 2.504e-3
-1.468, 2.467e-3
-1.467, 2.426e-3
-1.466, 2.385e-3
-1.465, 2.337e-3
-1.464, 2.303e-3
-1.463, 2.257e-3
-1.462, 2.221e-3
-1.461, 2.186e-3
-1.460, 2.164e-3
-1.459, 2.139e-3
-1.458, 2.113e-3
-1.457, 2.073e-3
-1.456, 2.040e-3
-1.455, 2.009e-3
-1.454, 1.979e-3
-1.453, 1.944e-3
-1.452, 1.913e-3
-1.451, 1.880e-3
-1.450, 1.848e-3
-1.449, 1.817e-3
-1.448, 1.787e-3
-1.447, 1.755e-3
-1.446, 1.725e-3
-1.445, 1.696e-3
-1.444, 1.664e-3
-1.443, 1.637e-3
-1.442, 1.609e-3
-1.441, 1.579e-3
-1.440, 1.550e-3
-1.439, 1.522e-3
-1.438, 1.494e-3
-1.437, 1.466e-3
-1.436, 1.441e-3
-1.435, 1.413e-3
-1.434, 1.389e-3
-1.433, 1.363e-3
-1.432, 1.339e-3
-1.431, 1.312e-3
-1.430, 1.288e-3
-1.429, 1.264e-3
-1.428, 1.242e-3
-1.427, 1.217e-3
-1.426, 1.194e-3
-1.425, 1.171e-3
-1.424, 1.150e-3
-1.423, 1.127e-3
-1.422, 1.108e-3
-1.421, 1.084e-3
-1.420, 1.065e-3
-1.419, 1.045e-3
-1.418, 1.025e-3
-1.417, 1.003e-3
-1.416, 9.824e-4
-1.415, 9.648e-4
-1.414, 9.452e-4
-1.413, 9.270e-4
-1.412, 9.072e-4
-1.411, 8.885e-4
-1.410, 8.704e-4
-1.409, 8.551e-4
-1.408, 8.357e-4
-1.407, 8.175e-4
-1.406, 8.008e-4
-1.405, 7.837e-4
-1.404, 7.688e-4
-1.403, 7.529e-4
-1.402, 7.351e-4
-1.401, 7.194e-4
-1.400, 7.051e-4
-1.399, 6.906e-4
-1.398, 6.751e-4
-1.397, 6.599e-4
-1.396, 6.454e-4
-1.395, 6.313e-4
-1.394, 6.176e-4
-1.393, 6.038e-4
-1.392, 5.907e-4
-1.391, 5.776e-4
-1.390, 5.649e-4
-1.389, 5.524e-4
-1.388, 5.398e-4
-1.387, 5.267e-4
-1.386, 5.155e-4
-1.385, 5.032e-4
-1.384, 4.916e-4
-1.383, 4.805e-4
-1.382, 4.686e-4
-1.381, 4.582e-4
-1.380, 4.473e-4
-1.379, 4.372e-4
-1.378, 4.270e-4
-1.377, 4.158e-4
-1.376, 4.054e-4
-1.375, 3.961e-4
-1.374, 3.874e-4
-1.373, 3.779e-4
-1.372, 3.681e-4
-1.371, 3.587e-4
-1.370, 3.504e-4
-1.369, 3.416e-4
-1.368, 3.331e-4
-1.367, 3.244e-4
-1.366, 3.154e-4
-1.365, 3.081e-4
-1.364, 3.007e-4
-1.363, 2.926e-4
-1.362, 2.847e-4
-1.361, 2.769e-4
-1.360, 2.696e-4
-1.359, 2.631e-4
-1.358, 2.560e-4
-1.357, 2.489e-4
-1.356, 2.415e-4
-1.355, 2.352e-4
-1.354, 2.293e-4
-1.353, 2.230e-4
-1.352, 2.165e-4
-1.351, 2.097e-4
-1.350, 2.037e-4
-1.349, 1.989e-4
-1.348, 1.932e-4
-1.347, 1.867e-4
-1.346, 1.812e-4
-1.345, 1.756e-4
-1.344, 1.713e-4
-1.343, 1.661e-4
-1.342, 1.604e-4
-1.341, 1.551e-4
-1.340, 1.504e-4
-1.339, 1.463e-4
-1.338, 1.417e-4
-1.337, 1.364e-4
-1.336, 1.322e-4
-1.335, 1.276e-4
-1.334, 1.239e-4
-1.333, 1.202e-4
-1.332, 1.155e-4
-1.331, 1.111e-4
-1.330, 1.074e-4
-1.329, 1.041e-4
-1.328, 1.007e-4
-1.327, 9.664e-5
-1.326, 9.201e-5
-1.325, 8.918e-5
-1.324, 8.641e-5
-1.323, 8.289e-5
-1.322, 7.926e-5
-1.321, 7.539e-5
-1.320, 7.283e-5
-1.319, 7.017e-5
-1.318, 6.717e-5
-1.317, 6.405e-5
-1.316, 6.052e-5
-1.315, 5.793e-5
-1.314, 5.609e-5
-1.313, 5.312e-5
-1.312, 5.021e-5
-1.311, 4.740e-5
-1.310, 4.499e-5
-1.309, 4.327e-5
-1.308, 4.090e-5
-1.307, 3.801e-5
-1.306, 3.537e-5
-1.305, 3.331e-5
-1.304, 3.195e-5
-1.303, 2.998e-5
-1.302, 2.710e-5
-1.301, 2.501e-5
-1.300, 2.321e-5
-1.299, 2.163e-5
-1.298, 2.018e-5
-1.297, 1.748e-5
-1.296, 1.555e-5
-1.295, 1.416e-5
-1.294, 1.273e-5
-1.293, 1.147e-5
-1.292, 9.204e-6
-1.291, 7.009e-6
-1.290, 5.992e-6
-1.289, 4.704e-6
-1.288, 3.862e-6
-1.287, 1.734e-6
-1.286, -4.461e-7
-1.285, -1.077e-6
-1.284, -1.966e-6
-1.283, -3.262e-6
-1.282, -4.878e-6
-1.281, -6.735e-6
-1.280, -7.981e-6
-1.279, -8.318e-6
-1.278, -9.359e-6
-1.277, -1.062e-5
-1.276, -1.229e-5
-1.275, -1.335e-5
-1.274, -1.355e-5
-1.273, -1.460e-5
-1.272, -1.586e-5
-1.271, -1.730e-5
-1.270, -1.830e-5
-1.269, -1.834e-5
-1.268, -1.901e-5
-1.267, -2.053e-5
-1.266, -2.165e-5
-1.265, -2.267e-5
-1.264, -2.242e-5
-1.263, -2.290e-5
-1.262, -2.457e-5
-1.261, -2.547e-5
-1.260, -2.622e-5
-1.259, -2.636e-5
-1.258, -2.654e-5
-1.257, -2.801e-5
-1.256, -2.891e-5
-1.255, -2.943e-5
-1.254, -2.967e-5
-1.253, -2.980e-5
-1.252, -3.095e-5
-1.251, -3.209e-5
-1.250, -3.209e-5
-1.249, -3.249e-5
-1.248, -3.238e-5
-1.247, -3.344e-5
-1.246, -3.475e-5
-1.245, -3.455e-5
-1.244, -3.462e-5
-1.243, -3.498e-5
-1.242, -3.580e-5
-1.241, -3.694e-5
-1.240, -3.693e-5
-1.239, -3.664e-5
-1.238, -3.719e-5
-1.237, -3.768e-5
-1.236, -3.850e-5
-1.235, -3.897e-5
-1.234, -3.865e-5
-1.233, -3.888e-5
-1.232, -3.945e-5
-1.231, -4.035e-5
-1.230, -4.097e-5
-1.229, -4.105e-5
-1.228, -4.042e-5
-1.227, -4.125e-5
-1.226, -4.189e-5
-1.225, -4.220e-5
-1.224, -4.158e-5
-1.223, -4.151e-5
-1.222, -4.259e-5
-1.221, -4.315e-5
-1.220, -4.325e-5
-1.219, -4.298e-5
-1.218, -4.283e-5
-1.217, -4.394e-5
-1.216, -4.432e-5
-1.215, -4.426e-5
-1.214, -4.427e-5
-1.213, -4.374e-5
-1.212, -4.470e-5
-1.211, -4.560e-5
-1.210, -4.516e-5
-1.209, -4.511e-5
-1.208, -4.480e-5
-1.207, -4.529e-5
-1.206, -4.636e-5
-1.205, -4.606e-5
-1.204, -4.581e-5
-1.203, -4.584e-5
-1.202, -4.632e-5
-1.201, -4.720e-5
-1.200, -4.681e-5
-1.199, -4.634e-5
-1.198, -4.667e-5
-1.197, -4.686e-5
-1.196, -4.760e-5
-1.195, -4.776e-5
-1.194, -4.709e-5
-1.193, -4.711e-5
-1.192, -4.749e-5
-1.191, -4.820e-5
-1.190, -4.845e-5
-1.189, -4.765e-5
-1.188, -4.756e-5
-1.187, -4.812e-5
-1.186, -4.884e-5
-1.185, -4.899e-5
-1.184, -4.808e-5
-1.183, -4.798e-5
-1.182, -4.904e-5
-1.181, -4.901e-5
-1.180, -4.931e-5
-1.179, -4.891e-5
-1.178, -4.899e-5
-1.177, -4.944e-5
-1.176, -4.996e-5
-1.175, -4.960e-5
-1.174, -4.931e-5
-1.173, -4.900e-5
-1.172, -4.955e-5
-1.171, -5.032e-5
-1.170, -5.009e-5
-1.169, -4.972e-5
-1.168, -4.934e-5
-1.167, -4.984e-5
-1.166, -5.067e-5
-1.165, -5.046e-5
-1.164, -5.000e-5
-1.163, -4.989e-5
-1.162, -5.013e-5
-1.161, -5.118e-5
-1.160, -5.083e-5
-1.159, -5.029e-5
-1.158, -5.035e-5
-1.157, -5.056e-5
-1.156, -5.131e-5
-1.155, -5.140e-5
-1.154, -5.060e-5
-1.153, -5.067e-5
-1.152, -5.097e-5
-1.151, -5.176e-5
-1.150, -5.179e-5
-1.149, -5.099e-5
-1.148, -5.088e-5
-1.147, -5.147e-5
-1.146, -5.195e-5
-1.145, -5.218e-5
-1.144, -5.130e-5
-1.143, -5.122e-5
-1.142, -5.188e-5
-1.141, -5.233e-5
-1.140, -5.229e-5
-1.139, -5.185e-5
-1.138, -5.181e-5
-1.137, -5.234e-5
-1.136, -5.255e-5
-1.135, -5.274e-5
-1.134, -5.228e-5
-1.133, -5.206e-5
-1.132, -5.256e-5
-1.131, -5.329e-5
-1.130, -5.305e-5
-1.129, -5.284e-5
-1.128, -5.237e-5
-1.127, -5.293e-5
-1.126, -5.377e-5
-1.125, -5.364e-5
-1.124, -5.319e-5
-1.123, -5.297e-5
-1.122, -5.324e-5
-1.121, -5.423e-5
-1.120, -5.408e-5
-1.119, -5.350e-5
-1.118, -5.344e-5
-1.117, -5.385e-5
-1.116, -5.452e-5
-1.115, -5.475e-5
-1.114, -5.408e-5
-1.113, -5.406e-5
-1.112, -5.434e-5
-1.111, -5.514e-5
-1.110, -5.531e-5
-1.109, -5.445e-5
-1.108, -5.460e-5
-1.107, -5.517e-5
-1.106, -5.561e-5
-1.105, -5.604e-5
-1.104, -5.499e-5
-1.103, -5.516e-5
-1.102, -5.569e-5
-1.101, -5.624e-5
-1.100, -5.629e-5
-1.099, -5.619e-5
-1.098, -5.565e-5
-1.097, -5.642e-5
-1.096, -5.700e-5
-1.095, -5.710e-5
-1.094, -5.685e-5
-1.093, -5.642e-5
-1.092, -5.701e-5
-1.091, -5.792e-5
-1.090, -5.771e-5
-1.089, -5.779e-5
-1.088, -5.717e-5
-1.087, -5.788e-5
-1.086, -5.883e-5
-1.085, -5.882e-5
-1.084, -5.832e-5
-1.083, -5.838e-5
-1.082, -5.861e-5
-1.081, -5.994e-5
-1.080, -5.965e-5
-1.079, -5.919e-5
-1.078, -5.947e-5
-1.077, -5.988e-5
-1.076, -6.090e-5
-1.075, -6.106e-5
-1.074, -6.039e-5
-1.073, -6.059e-5
-1.072, -6.092e-5
-1.071, -6.167e-5
-1.070, -6.229e-5
-1.069, -6.170e-5
-1.068, -6.154e-5
-1.067, -6.256e-5
-1.066, -6.292e-5
-1.065, -6.345e-5
-1.064, -6.305e-5
-1.063, -6.293e-5
-1.062, -6.388e-5
-1.061, -6.445e-5
-1.060, -6.484e-5
-1.059, -6.486e-5
-1.058, -6.452e-5
-1.057, -6.548e-5
-1.056, -6.601e-5
-1.055, -6.655e-5
-1.054, -6.652e-5
-1.053, -6.623e-5
-1.052, -6.698e-5
-1.051, -6.810e-5
-1.050, -6.847e-5
-1.049, -6.847e-5
-1.048, -6.811e-5
-1.047, -6.906e-5
-1.046, -7.029e-5
-1.045, -7.033e-5
-1.044, -7.053e-5
-1.043, -7.063e-5
-1.042, -7.106e-5
-1.041, -7.263e-5
-1.040, -7.269e-5
-1.039, -7.288e-5
-1.038, -7.296e-5
-1.037, -7.371e-5
-1.036, -7.498e-5
-1.035, -7.569e-5
-1.034, -7.546e-5
-1.033, -7.598e-5
-1.032, -7.647e-5
-1.031, -7.792e-5
-1.030, -7.888e-5
-1.029, -7.860e-5
-1.028, -7.889e-5
-1.027, -8.026e-5
-1.026, -8.105e-5
-1.025, -8.211e-5
-1.024, -8.260e-5
-1.023, -8.253e-5
-1.022, -8.401e-5
-1.021, -8.495e-5
-1.020, -8.613e-5
-1.019, -8.634e-5
-1.018, -8.685e-5
-1.017, -8.821e-5
-1.016, -8.939e-5
-1.015, -9.036e-5
-1.014, -9.111e-5
-1.013, -9.163e-5
-1.012, -9.283e-5
-1.011, -9.457e-5
-1.010, -9.572e-5
-1.009, -9.653e-5
-1.008, -9.668e-5
-1.007, -9.814e-5
-1.006, -1.005e-4
-1.005, -1.014e-4
-1.004, -1.024e-4
-1.003, -1.034e-4
-1.002, -1.047e-4
-1.001, -1.071e-4
-1.000, -4.792e-5
-1.001, -8.316e-6
-1.002, 2.221e-6
-1.003, 7.980e-6
-1.004, 1.246e-5
-1.005, 1.627e-5
-1.006, 2.035e-5
-1.007, 2.407e-5
-1.008, 2.611e-5
-1.009, 2.800e-5
-1.010, 3.007e-5
-1.011, 3.268e-5
-1.012, 3.484e-5
-1.013, 3.603e-5
-1.014, 3.675e-5
-1.015, 3.826e-5
-1.016, 4.002e-5
-1.017, 4.165e-5
-1.018, 4.238e-5
-1.019, 4.266e-5
-1.020, 4.374e-5
-1.021, 4.461e-5
-1.022, 4.605e-5
-1.023, 4.667e-5
-1.024, 4.663e-5
-1.025, 4.691e-5
-1.026, 4.834e-5
-1.027, 4.889e-5
-1.028, 4.958e-5
-1.029, 4.890e-5
-1.030, 4.940e-5
-1.031, 5.062e-5
-1.032, 5.109e-5
-1.033, 5.081e-5
-1.034, 5.093e-5
-1.035, 5.103e-5
-1.036, 5.185e-5
-1.037, 5.269e-5
-1.038, 5.225e-5
-1.039, 5.219e-5
-1.040, 5.206e-5
-1.041, 5.278e-5
-1.042, 5.361e-5
-1.043, 5.306e-5
-1.044, 5.279e-5
-1.045, 5.271e-5
-1.046, 5.331e-5
-1.047, 5.421e-5
-1.048, 5.371e-5
-1.049, 5.316e-5
-1.050, 5.331e-5
-1.051, 5.378e-5
-1.052, 5.436e-5
-1.053, 5.413e-5
-1.054, 5.334e-5
-1.055, 5.353e-5
-1.056, 5.378e-5
-1.057, 5.444e-5
-1.058, 5.436e-5
-1.059, 5.344e-5
-1.060, 5.356e-5
-1.061, 5.403e-5
-1.062, 5.454e-5
-1.063, 5.428e-5
-1.064, 5.345e-5
-1.065, 5.347e-5
-1.066, 5.405e-5
-1.067, 5.429e-5
-1.068, 5.430e-5
-1.069, 5.344e-5
-1.070, 5.338e-5
-1.071, 5.402e-5
-1.072, 5.429e-5
-1.073, 5.414e-5
-1.074, 5.358e-5
-1.075, 5.354e-5
-1.076, 5.389e-5
-1.077, 5.413e-5
-1.078, 5.389e-5
-1.079, 5.339e-5
-1.080, 5.289e-5
-1.081, 5.362e-5
-1.082, 5.411e-5
-1.083, 5.349e-5
-1.084, 5.327e-5
-1.085, 5.294e-5
-1.086, 5.333e-5
-1.087, 5.411e-5
-1.088, 5.336e-5
-1.089, 5.282e-5
-1.090, 5.277e-5
-1.091, 5.293e-5
-1.092, 5.388e-5
-1.093, 5.336e-5
-1.094, 5.256e-5
-1.095, 5.257e-5
-1.096, 5.283e-5
-1.097, 5.347e-5
-1.098, 5.325e-5
-1.099, 5.238e-5
-1.100, 5.253e-5
-1.101, 5.284e-5
-1.102, 5.323e-5
-1.103, 5.334e-5
-1.104, 5.208e-5
-1.105, 5.214e-5
-1.106, 5.279e-5
-1.107, 5.299e-5
-1.108, 5.307e-5
-1.109, 5.202e-5
-1.110, 5.207e-5
-1.111, 5.278e-5
-1.112, 5.301e-5
-1.113, 5.269e-5
-1.114, 5.225e-5
-1.115, 5.188e-5
-1.116, 5.242e-5
-1.117, 5.301e-5
-1.118, 5.258e-5
-1.119, 5.224e-5
-1.120, 5.176e-5
-1.121, 5.237e-5
-1.122, 5.304e-5
-1.123, 5.249e-5
-1.124, 5.210e-5
-1.125, 5.181e-5
-1.126, 5.223e-5
-1.127, 5.289e-5
-1.128, 5.248e-5
-1.129, 5.191e-5
-1.130, 5.184e-5
-1.131, 5.208e-5
-1.132, 5.297e-5
-1.133, 5.246e-5
-1.134, 5.184e-5
-1.135, 5.189e-5
-1.136, 5.219e-5
-1.137, 5.263e-5
-1.138, 5.271e-5
-1.139, 5.171e-5
-1.140, 5.164e-5
-1.141, 5.219e-5
-1.142, 5.291e-5
-1.143, 5.264e-5
-1.144, 5.186e-5
-1.145, 5.182e-5
-1.146, 5.235e-5
-1.147, 5.265e-5
-1.148, 5.285e-5
-1.149, 5.185e-5
-1.150, 5.182e-5
-1.151, 5.240e-5
-1.152, 5.273e-5
-1.153, 5.276e-5
-1.154, 5.218e-5
-1.155, 5.180e-5
-1.156, 5.234e-5
-1.157, 5.292e-5
-1.158, 5.266e-5
-1.159, 5.241e-5
-1.160, 5.180e-5
-1.161, 5.254e-5
-1.162, 5.325e-5
-1.163, 5.267e-5
-1.164, 5.248e-5
-1.165, 5.200e-5
-1.166, 5.264e-5
-1.167, 5.336e-5
-1.168, 5.285e-5
-1.169, 5.238e-5
-1.170, 5.242e-5
-1.171, 5.256e-5
-1.172, 5.344e-5
-1.173, 5.324e-5
-1.174, 5.248e-5
-1.175, 5.282e-5
-1.176, 5.270e-5
-1.177, 5.395e-5
-1.178, 5.376e-5
-1.179, 5.264e-5
-1.180, 5.279e-5
-1.181, 5.308e-5
-1.182, 5.375e-5
-1.183, 5.379e-5
-1.184, 5.310e-5
-1.185, 5.289e-5
-1.186, 5.349e-5
-1.187, 5.398e-5
-1.188, 5.391e-5
-1.189, 5.336e-5
-1.190, 5.294e-5
-1.191, 5.403e-5
-1.192, 5.432e-5
-1.193, 5.420e-5
-1.194, 5.372e-5
-1.195, 5.354e-5
-1.196, 5.415e-5
-1.197, 5.463e-5
-1.198, 5.459e-5
-1.199, 5.416e-5
-1.200, 5.392e-5
-1.201, 5.446e-5
-1.202, 5.525e-5
-1.203, 5.501e-5
-1.204, 5.479e-5
-1.205, 5.424e-5
-1.206, 5.483e-5
-1.207, 5.590e-5
-1.208, 5.536e-5
-1.209, 5.499e-5
-1.210, 5.520e-5
-1.211, 5.540e-5
-1.212, 5.618e-5
-1.213, 5.617e-5
-1.214, 5.561e-5
-1.215, 5.572e-5
-1.216, 5.592e-5
-1.217, 5.697e-5
-1.218, 5.690e-5
-1.219, 5.628e-5
-1.220, 5.645e-5
-1.221, 5.672e-5
-1.222, 5.751e-5
-1.223, 5.802e-5
-1.224, 5.700e-5
-1.225, 5.697e-5
-1.226, 5.795e-5
-1.227, 5.857e-5
-1.228, 5.904e-5
-1.229, 5.890e-5
-1.230, 5.823e-5
-1.231, 5.884e-5
-1.232, 5.965e-5
-1.233, 5.962e-5
-1.234, 5.959e-5
-1.235, 5.907e-5
-1.236, 6.010e-5
-1.237, 6.105e-5
-1.238, 6.075e-5
-1.239, 6.077e-5
-1.240, 6.057e-5
-1.241, 6.144e-5
-1.242, 6.240e-5
-1.243, 6.255e-5
-1.244, 6.226e-5
-1.245, 6.229e-5
-1.246, 6.335e-5
-1.247, 6.431e-5
-1.248, 6.925e-5
-1.249, 6.420e-5
-1.250, 6.435e-5
-1.251, 6.481e-5
-1.252, 6.611e-5
-1.253, 6.647e-5
-1.254, 6.611e-5
-1.255, 6.676e-5
-1.256, 6.713e-5
-1.257, 6.834e-5
-1.258, 6.882e-5
-1.259, 6.843e-5
-1.260, 6.905e-5
-1.261, 6.978e-5
-1.262, 7.097e-5
-1.263, 7.186e-5
-1.264, 7.124e-5
-1.265, 7.194e-5
-1.266, 7.297e-5
-1.267, 7.414e-5
-1.268, 7.493e-5
-1.269, 7.472e-5
-1.270, 7.528e-5
-1.271, 7.652e-5
-1.272, 7.789e-5
-1.273, 7.833e-5
-1.274, 7.898e-5
-1.275, 7.915e-5
-1.276, 8.065e-5
-1.277, 8.198e-5
-1.278, 8.289e-5
-1.279, 8.334e-5
-1.280, 8.425e-5
-1.281, 8.517e-5
-1.282, 8.713e-5
-1.283, 8.792e-5
-1.284, 8.835e-5
-1.285, 8.906e-5
-1.286, 9.074e-5
-1.287, 9.273e-5
-1.288, 9.350e-5
-1.289, 9.437e-5
-1.290, 9.547e-5
-1.291, 9.695e-5
-1.292, 9.909e-5
-1.293, 1.004e-4
-1.294, 1.012e-4
-1.295, 1.025e-4
-1.296, 1.038e-4
-1.297, 1.064e-4
-1.298, 1.081e-4
-1.299, 1.089e-4
-1.300, 1.105e-4
-1.301, 1.122e-4
-1.302, 1.148e-4
-1.303, 1.168e-4
-1.304, 1.177e-4
-1.305, 1.195e-4
-1.306, 1.217e-4
-1.307, 1.244e-4
-1.308, 1.265e-4
-1.309, 1.276e-4
-1.310, 1.297e-4
-1.311, 1.325e-4
-1.312, 1.350e-4
-1.313, 1.373e-4
-1.314, 1.395e-4
-1.315, 1.414e-4
-1.316, 1.445e-4
-1.317, 1.475e-4
-1.318, 1.501e-4
-1.319, 1.524e-4
-1.320, 1.547e-4
-1.321, 1.579e-4
-1.322, 1.618e-4
-1.323, 1.645e-4
-1.324, 1.670e-4
-1.325, 1.700e-4
-1.326, 1.736e-4
-1.327, 1.775e-4
-1.328, 1.807e-4
-1.329, 1.837e-4
-1.330, 1.871e-4
-1.331, 1.908e-4
-1.332, 1.952e-4
-1.333, 1.987e-4
-1.334, 2.020e-4
-1.335, 2.059e-4
-1.336, 2.100e-4
-1.337, 2.149e-4
-1.338, 2.194e-4
-1.339, 2.230e-4
-1.340, 2.273e-4
-1.341, 2.322e-4
-1.342, 2.374e-4
-1.343, 2.426e-4
-1.344, 2.469e-4
-1.345, 2.515e-4
-1.346, 2.572e-4
-1.347, 2.629e-4
-1.348, 2.684e-4
-1.349, 2.731e-4
-1.350, 2.785e-4
-1.351, 2.850e-4
-1.352, 2.913e-4
-1.353, 2.974e-4
-1.354, 3.031e-4
-1.355, 3.093e-4
-1.356, 3.163e-4
-1.357, 3.236e-4
-1.358, 3.303e-4
-1.359, 3.369e-4
-1.360, 3.438e-4
-1.361, 3.514e-4
-1.362, 3.595e-4
-1.363, 3.671e-4
-1.364, 3.750e-4
-1.365, 3.823e-4
-1.366, 3.908e-4
-1.367, 4.000e-4
-1.368, 4.086e-4
-1.369, 4.166e-4
-1.370, 4.258e-4
-1.371, 4.354e-4
-1.372, 4.450e-4
-1.373, 4.545e-4
-1.374, 4.643e-4
-1.375, 4.741e-4
-1.376, 4.840e-4
-1.377, 4.953e-4
-1.378, 5.063e-4
-1.379, 5.165e-4
-1.380, 5.278e-4
-1.381, 5.390e-4
-1.382, 5.522e-4
-1.383, 5.641e-4
-1.384, 5.749e-4
-1.385, 5.872e-4
-1.386, 6.002e-4
-1.387, 6.140e-4
-1.388, 6.271e-4
-1.389, 6.399e-4
-1.390, 6.529e-4
-1.391, 6.672e-4
-1.392, 6.820e-4
-1.393, 6.968e-4
-1.394, 7.111e-4
-1.395, 7.252e-4
-1.396, 7.414e-4
-1.397, 7.573e-4
-1.398, 7.737e-4
-1.399, 7.895e-4
-1.400, 8.051e-4
-1.401, 8.217e-4
-1.402, 8.399e-4
-1.403, 8.574e-4
-1.404, 8.746e-4
-1.405, 8.916e-4
-1.406, 9.103e-4
-1.407, 9.303e-4
-1.408, 9.488e-4
-1.409, 9.676e-4
-1.410, 9.866e-4
-1.411, 1.006e-3
-1.412, 1.028e-3
-1.413, 1.048e-3
-1.414, 1.069e-3
-1.415, 1.090e-3
-1.416, 1.112e-3
-1.417, 1.134e-3
-1.418, 1.156e-3
-1.419, 1.179e-3
-1.420, 1.200e-3
-1.421, 1.224e-3
-1.422, 1.249e-3
-1.423, 1.272e-3
-1.424, 1.295e-3
-1.425, 1.319e-3
-1.426, 1.345e-3
-1.427, 1.370e-3
-1.428, 1.397e-3
-1.429, 1.422e-3
-1.430, 1.449e-3
-1.431, 1.475e-3
-1.432, 1.503e-3
-1.433, 1.531e-3
-1.434, 1.559e-3
-1.435, 1.585e-3
-1.436, 1.614e-3
-1.437, 1.644e-3
-1.438, 1.674e-3
-1.439, 1.702e-3
-1.440, 1.731e-3
-1.441, 1.762e-3
-1.442, 1.795e-3
-1.443, 1.825e-3
-1.444, 1.859e-3
-1.445, 1.892e-3
-1.446, 1.919e-3
-1.447, 1.951e-3
-1.448, 1.986e-3
-1.449, 2.019e-3
-1.450, 2.052e-3
-1.451, 2.087e-3
-1.452, 2.123e-3
-1.453, 2.159e-3
-1.454, 2.192e-3
-1.455, 2.226e-3
-1.456, 2.259e-3
-1.457, 2.305e-3
-1.458, 2.343e-3
-1.459, 2.374e-3
-1.460, 2.410e-3
-1.461, 2.446e-3
-1.462, 2.482e-3
-1.463, 2.519e-3
-1.464, 2.554e-3
-1.465, 2.587e-3
-1.466, 2.626e-3
-1.467, 2.655e-3
-1.468, 2.695e-3
-1.469, 2.748e-3
-1.470, 2.786e-3
-1.471, 2.824e-3
-1.472, 2.867e-3
-1.473, 2.911e-3
-1.474, 2.959e-3
-1.475, 3.004e-3
-1.476, 3.051e-3
-1.477, 3.099e-3
-1.478, 3.149e-3
-1.479, 3.197e-3
-1.480, 3.241e-3
-1.481, 3.285e-3
-1.482, 3.327e-3
-1.483, 3.367e-3
-1.484, 3.412e-3
-1.485, 3.461e-3
-1.486, 3.508e-3
-1.487, 3.553e-3
-1.488, 3.601e-3
-1.489, 3.652e-3
-1.490, 3.692e-3
-1.491, 3.733e-3
-1.492, 3.778e-3
-1.493, 3.827e-3
-1.494, 3.873e-3
-1.495, 3.918e-3
-1.496, 3.964e-3
-1.497, 4.015e-3
-1.498, 4.062e-3
-1.499, 4.107e-3
-1.500, 4.162e-3
-1.501, 4.207e-3
-1.502, 4.255e-3
-1.503, 4.304e-3
-1.504, 4.349e-3
-1.505, 4.403e-3
-1.506, 4.464e-3
-1.507, 4.514e-3
-1.508, 4.564e-3
-1.509, 4.619e-3
-1.510, 4.681e-3
-1.511, 4.741e-3
-1.512, 4.789e-3
-1.513, 4.834e-3
-1.514, 4.871e-3
-1.515, 4.932e-3
-1.516, 4.984e-3
-1.517, 5.039e-3
-1.518, 5.097e-3
-1.519, 5.151e-3
-1.520, 5.202e-3
-1.521, 5.252e-3
-1.522, 5.299e-3
-1.523, 5.343e-3
-1.524, 5.386e-3
-1.525, 5.437e-3
-1.526, 5.500e-3
-1.527, 5.563e-3
-1.528, 5.607e-3
-1.529, 5.667e-3
-1.530, 5.718e-3
-1.531, 5.782e-3
-1.532, 5.828e-3
-1.533, 5.888e-3
-1.534, 5.921e-3
-1.535, 5.967e-3
-1.536, 6.049e-3
-1.537, 6.103e-3
-1.538, 6.161e-3
-1.539, 6.217e-3
-1.540, 6.255e-3
-1.541, 6.306e-3
-1.542, 6.356e-3
-1.543, 6.404e-3
-1.544, 6.464e-3
-1.545, 6.514e-3
-1.546, 6.571e-3
-1.547, 6.638e-3
-1.548, 6.702e-3
-1.549, 6.760e-3
-1.550, 6.803e-3
-1.551, 6.880e-3
-1.552, 6.970e-3
-1.553, 7.030e-3
-1.554, 7.099e-3
-1.555, 7.144e-3
-1.556, 7.209e-3
-1.557, 7.276e-3
-1.558, 7.319e-3
-1.559, 7.393e-3
-1.560, 7.429e-3
-1.561, 7.507e-3
-1.562, 7.560e-3
-1.563, 7.600e-3
-1.564, 7.667e-3
-1.565, 7.742e-3
-1.566, 7.789e-3
-1.567, 7.849e-3
-1.568, 7.883e-3
-1.569, 7.941e-3
-1.570, 8.061e-3
-1.571, 8.110e-3
-1.572, 8.216e-3
-1.573, 8.254e-3
-1.574, 8.289e-3
-1.575, 8.362e-3
-1.576, 8.423e-3
-1.577, 8.485e-3
-1.578, 8.535e-3
-1.579, 8.633e-3
-1.580, 8.698e-3
-1.581, 8.726e-3
-1.582, 8.806e-3
-1.583, 8.832e-3
-1.584, 8.894e-3
-1.585, 8.935e-3
-1.586, 9.037e-3
-1.587, 9.105e-3
-1.588, 9.156e-3
-1.589, 9.231e-3
-1.590, 9.261e-3
-1.591, 9.307e-3
-1.592, 9.328e-3
-1.593, 9.443e-3
-1.594, 9.530e-3
-1.595, 9.634e-3
-1.596, 9.797e-3
-1.597, 9.866e-3
-1.598, 9.920e-3
-1.599, 9.977e-3
-1.600, 9.996e-3
-1.599, 9.910e-3
-1.598, 9.798e-3
-1.597, 9.690e-3
-1.596, 9.600e-3
-1.595, 9.489e-3
-1.594, 9.409e-3
-1.593, 9.307e-3
-1.592, 9.245e-3
-1.591, 9.156e-3
-1.590, 9.089e-3
-1.589, 8.974e-3
-1.588, 8.861e-3
-1.587, 8.793e-3
-1.586, 8.625e-3
-1.585, 8.517e-3
-1.584, 8.379e-3
-1.583, 8.332e-3
-1.582, 8.246e-3
-1.581, 8.204e-3
-1.580, 8.112e-3
-1.579, 8.062e-3
-1.578, 8.047e-3
-1.577, 7.986e-3
-1.576, 7.936e-3
-1.575, 7.883e-3
-1.574, 7.822e-3
-1.573, 7.739e-3
-1.572, 7.646e-3
-1.571, 7.590e-3
-1.570, 7.483e-3
-1.569, 7.406e-3
-1.568, 7.314e-3
-1.567, 7.263e-3
-1.566, 7.141e-3
-1.565, 7.029e-3
-1.564, 6.927e-3
-1.563, 6.875e-3
-1.562, 6.816e-3
-1.561, 6.772e-3
-1.560, 6.658e-3
-1.559, 6.582e-3
-1.558, 6.508e-3
-1.557, 6.486e-3
-1.556, 6.474e-3
-1.555, 6.450e-3
-1.554, 6.413e-3
-1.553, 6.378e-3
-1.552, 6.322e-3
-1.551, 6.246e-3
-1.550, 6.180e-3
-1.549, 6.116e-3
-1.548, 6.020e-3
-1.547, 5.952e-3
-1.546, 5.897e-3
-1.545, 5.840e-3
-1.544, 5.799e-3
-1.543, 5.763e-3
-1.542, 5.715e-3
-1.541, 5.648e-3
-1.540, 5.586e-3
-1.539, 5.521e-3
-1.538, 5.500e-3
-1.537, 5.456e-3
-1.536, 5.405e-3
-1.535, 5.351e-3
-1.534, 5.305e-3
-1.533, 5.238e-3
-1.532, 5.187e-3
-1.531, 5.143e-3
-1.530, 5.070e-3
-1.529, 5.005e-3
-1.528, 4.940e-3
-1.527, 4.878e-3
-1.526, 4.815e-3
-1.525, 4.768e-3
-1.524, 4.708e-3
-1.523, 4.649e-3
-1.522, 4.584e-3
-1.521, 4.526e-3
-1.520, 4.467e-3
-1.519, 4.403e-3
-1.518, 4.347e-3
-1.517, 4.285e-3
-1.516, 4.229e-3
-1.515, 4.171e-3
-1.514, 4.124e-3
-1.513, 4.072e-3
-1.512, 4.029e-3
-1.511, 4.002e-3
-1.510, 3.940e-3
-1.509, 3.888e-3
-1.508, 3.837e-3
-1.507, 3.809e-3
-1.506, 3.754e-3
-1.505, 3.694e-3
-1.504, 3.638e-3
-1.503, 3.583e-3
-1.502, 3.536e-3
-1.501, 3.475e-3
-1.500, 3.426e-3
-1.499, 3.391e-3
-1.498, 3.351e-3
-1.497, 3.309e-3
-1.496, 3.263e-3
-1.495, 3.224e-3
-1.494, 3.183e-3
-1.493, 3.144e-3
-1.492, 3.107e-3
-1.491, 3.054e-3
-1.490, 3.011e-3
-1.489, 2.964e-3
-1.488, 2.923e-3
-1.487, 2.884e-3
-1.486, 2.839e-3
-1.485, 2.799e-3
-1.484, 2.755e-3
-1.483, 2.714e-3
-1.482, 2.673e-3
-1.481, 2.628e-3
-1.480, 2.592e-3
-1.479, 2.553e-3
-1.478, 2.514e-3
-1.477, 2.477e-3
-1.476, 2.439e-3
-1.475, 2.400e-3
-1.474, 2.361e-3
-1.473, 2.326e-3
-1.472, 2.295e-3
-1.471, 2.252e-3
-1.470, 2.216e-3
-1.469, 2.181e-3
-1.468, 2.146e-3
-1.467, 2.104e-3
-1.466, 2.074e-3
-1.465, 2.035e-3
-1.464, 2.001e-3
-1.463, 1.966e-3
-1.462, 1.932e-3
-1.461, 1.905e-3
-1.460, 1.868e-3
-1.459, 1.841e-3
-1.458, 1.816e-3
-1.457, 1.790e-3
-1.456, 1.763e-3
-1.455, 1.732e-3
-1.454, 1.696e-3
-1.453, 1.670e-3
-1.452, 1.640e-3
-1.451, 1.611e-3
-1.450, 1.582e-3
-1.449, 1.550e-3
-1.448, 1.525e-3
-1.447, 1.499e-3
-1.446, 1.470e-3
-1.445, 1.444e-3
-1.444, 1.417e-3
-1.443, 1.389e-3
-1.442, 1.365e-3
-1.441, 1.338e-3
-1.440, 1.315e-3
-1.439, 1.290e-3
-1.438, 1.267e-3
-1.437, 1.243e-3
-1.436, 1.219e-3
-1.435, 1.198e-3
-1.434, 1.175e-3
-1.433, 1.151e-3
-1.432, 1.130e-3
-1.431, 1.107e-3
-1.430, 1.085e-3
-1.429, 1.063e-3
-1.428, 1.043e-3
-1.427, 1.023e-3
-1.426, 1.004e-3
-1.425, 9.804e-4
-1.424, 9.612e-4
-1.423, 9.432e-4
-1.422, 9.234e-4
-1.421, 9.061e-4
-1.420, 8.859e-4
-1.419, 8.676e-4
-1.418, 8.517e-4
-1.417, 8.337e-4
-1.416, 8.163e-4
-1.415, 7.987e-4
-1.414, 7.825e-4
-1.413, 7.650e-4
-1.412, 7.501e-4
-1.411, 7.343e-4
-1.410, 7.177e-4
-1.409, 7.015e-4
-1.408, 6.873e-4
-1.407, 6.730e-4
-1.406, 6.579e-4
-1.405, 6.443e-4
-1.404, 6.290e-4
-1.403, 6.162e-4
-1.402, 6.038e-4
-1.401, 5.896e-4
-1.400, 5.762e-4
-1.399, 5.630e-4
-1.398, 5.503e-4
-1.397, 5.386e-4
-1.396, 5.263e-4
-1.395, 5.136e-4
-1.394, 5.012e-4
-1.393, 4.897e-4
-1.392, 4.793e-4
-1.391, 4.682e-4
-1.390, 4.559e-4
-1.389, 4.455e-4
-1.388, 4.361e-4
-1.387, 4.251e-4
-1.386, 4.151e-4
-1.385, 4.051e-4
-1.384, 3.947e-4
-1.383, 3.848e-4
-1.382, 3.761e-4
-1.381, 3.667e-4
-1.380, 3.574e-4
-1.379, 3.484e-4
-1.378, 3.395e-4
-1.377, 3.319e-4
-1.376, 3.238e-4
-1.375, 3.148e-4
-1.374, 3.062e-4
-1.373, 2.988e-4
-1.372, 2.908e-4
-1.371, 2.845e-4
-1.370, 2.781e-4
-1.369, 2.682e-4
-1.368, 2.609e-4
-1.367, 2.562e-4
-1.366, 2.488e-4
-1.365, 2.415e-4
-1.364, 2.349e-4
-1.363, 2.282e-4
-1.362, 2.229e-4
-1.361, 2.165e-4
-1.360, 2.102e-4
-1.359, 2.042e-4
-1.358, 1.977e-4
-1.357, 1.935e-4
-1.356, 1.873e-4
-1.355, 1.810e-4
-1.354, 1.756e-4
-1.353, 1.707e-4
-1.352, 1.664e-4
-1.351, 1.610e-4
-1.350, 1.558e-4
-1.349, 1.508e-4
-1.348, 1.461e-4
-1.347, 1.418e-4
-1.346, 1.379e-4
-1.345, 1.325e-4
-1.344, 1.283e-4
-1.343, 1.239e-4
-1.342, 1.202e-4
-1.341, 1.169e-4
-1.340, 1.122e-4
-1.339, 1.076e-4
-1.338, 1.045e-4
-1.337, 1.010e-4
-1.336, 9.776e-5
-1.335, 9.367e-5
-1.334, 8.938e-5
-1.333, 8.650e-5
-1.332, 8.356e-5
-1.331, 8.054e-5
-1.330, 7.701e-5
-1.329, 7.332e-5
-1.328, 7.093e-5
-1.327, 6.825e-5
-1.326, 6.528e-5
-1.325, 6.210e-5
-1.324, 5.887e-5
-1.323, 5.652e-5
-1.322, 5.437e-5
-1.321, 5.175e-5
-1.320, 4.908e-5
-1.319, 4.609e-5
-1.318, 4.365e-5
-1.317, 4.217e-5
-1.316, 3.985e-5
-1.315, 3.709e-5
-1.314, 3.462e-5
-1.313, 3.230e-5
-1.312, 3.123e-5
-1.311, 2.909e-5
-1.310, 2.639e-5
-1.309, 2.423e-5
-1.308, 2.273e-5
-1.307, 2.106e-5
-1.306, 1.968e-5
-1.305, 1.719e-5
-1.304, 1.516e-5
-1.303, 1.383e-5
-1.302, 1.251e-5
-1.301, 1.122e-5
-1.300, 9.165e-6
-1.299, 6.888e-6
-1.298, 5.912e-6
-1.297, 4.640e-6
-1.296, 3.593e-6
-1.295, 1.707e-6
-1.294, -3.504e-7
-1.293, -1.177e-6
-1.292, -2.013e-6
-1.291, -3.208e-6
-1.290, -4.672e-6
-1.289, -6.640e-6
-1.288, -7.431e-6
-1.287, -8.012e-6
-1.286, -9.293e-6
-1.285, -1.049e-5
-1.284, -1.203e-5
-1.283, -1.324e-5
-1.282, -1.327e-5
-1.281, -1.443e-5
-1.280, -1.591e-5
-1.279, -1.714e-5
-1.278, -1.801e-5
-1.277, -1.811e-5
-1.276, -1.883e-5
-1.275, -2.032e-5
-1.274, -2.127e-5
-1.273, -2.231e-5
-1.272, -2.222e-5
-1.271, -2.268e-5
-1.270, -2.424e-5
-1.269, -2.528e-5
-1.268, -2.579e-5
-1.267, -2.619e-5
-1.266, -2.628e-5
-1.265, -2.772e-5
-1.264, -2.862e-5
-1.263, -2.906e-5
-1.262, -2.930e-5
-1.261, -2.943e-5
-1.260, -3.054e-5
-1.259, -3.166e-5
-1.258, -3.201e-5
-1.257, -3.205e-5
-1.256, -3.215e-5
-1.255, -3.325e-5
-1.254, -3.419e-5
-1.253, -3.445e-5
-1.252, -3.441e-5
-1.251, -3.461e-5
-1.250, -3.542e-5
-1.249, -3.663e-5
-1.248, -3.657e-5
-1.247, -3.649e-5
-1.246, -3.687e-5
-1.245, -3.740e-5
-1.244, -3.830e-5
-1.243, -3.864e-5
-1.242, -3.825e-5
-1.241, -3.876e-5
-1.240, -3.918e-5
-1.239, -4.000e-5
-1.238, -4.054e-5
-1.237, -3.982e-5
-1.236, -3.997e-5
-1.235, -4.086e-5
-1.234, -4.165e-5
-1.233, -4.203e-5
-1.232, -4.125e-5
-1.231, -4.142e-5
-1.230, -4.239e-5
-1.229, -4.383e-5
-1.228, -4.342e-5
-1.227, -4.289e-5
-1.226, -4.247e-5
-1.225, -4.354e-5
-1.224, -4.411e-5
-1.223, -4.414e-5
-1.222, -4.414e-5
-1.221, -4.385e-5
-1.220, -4.445e-5
-1.219, -4.521e-5
-1.218, -4.507e-5
-1.217, -4.500e-5
-1.216, -4.471e-5
-1.215, -4.536e-5
-1.214, -4.606e-5
-1.213, -4.608e-5
-1.212, -4.578e-5
-1.211, -4.566e-5
-1.210, -4.599e-5
-1.209, -4.723e-5
-1.208, -4.667e-5
-1.207, -4.633e-5
-1.206, -4.654e-5
-1.205, -4.685e-5
-1.204, -4.766e-5
-1.203, -4.764e-5
-1.202, -4.719e-5
-1.201, -4.716e-5
-1.200, -4.743e-5
-1.199, -4.817e-5
-1.198, -4.848e-5
-1.197, -4.762e-5
-1.196, -4.761e-5
-1.195, -4.817e-5
-1.194, -4.863e-5
-1.193, -4.890e-5
-1.192, -4.827e-5
-1.191, -4.811e-5
-1.190, -4.878e-5
-1.189, -4.924e-5
-1.188, -4.936e-5
-1.187, -4.903e-5
-1.186, -4.854e-5
-1.185, -4.912e-5
-1.184, -4.961e-5
-1.183, -4.975e-5
-1.182, -4.953e-5
-1.181, -4.882e-5
-1.180, -4.956e-5
-1.179, -5.031e-5
-1.178, -5.052e-5
-1.177, -4.990e-5
-1.176, -4.951e-5
-1.175, -4.978e-5
-1.174, -5.083e-5
-1.173, -5.045e-5
-1.172, -5.008e-5
-1.171, -4.999e-5
-1.170, -5.028e-5
-1.169, -5.121e-5
-1.168, -5.091e-5
-1.167, -5.045e-5
-1.166, -5.044e-5
-1.165, -5.058e-5
-1.164, -5.139e-5
-1.163, -5.147e-5
-1.162, -5.074e-5
-1.161, -5.097e-5
-1.160, -5.096e-5
-1.159, -5.160e-5
-1.158, -5.190e-5
-1.157, -5.108e-5
-1.156, -5.100e-5
-1.155, -5.160e-5
-1.154, -5.197e-5
-1.153, -5.226e-5
-1.152, -5.158e-5
-1.151, -5.146e-5
-1.150, -5.193e-5
-1.149, -5.224e-5
-1.148, -5.246e-5
-1.147, -5.213e-5
-1.146, -5.160e-5
-1.145, -5.248e-5
-1.144, -5.268e-5
-1.143, -5.279e-5
-1.142, -5.252e-5
-1.141, -5.207e-5
-1.140, -5.250e-5
-1.139, -5.342e-5
-1.138, -5.320e-5
-1.137, -5.310e-5
-1.136, -5.238e-5
-1.135, -5.293e-5
-1.134, -5.383e-5
-1.133, -5.363e-5
-1.132, -5.342e-5
-1.131, -5.309e-5
-1.130, -5.334e-5
-1.129, -5.439e-5
-1.128, -5.393e-5
-1.127, -5.379e-5
-1.126, -5.381e-5
-1.125, -5.380e-5
-1.124, -5.468e-5
-1.123, -5.473e-5
-1.122, -5.435e-5
-1.121, -5.421e-5
-1.120, -5.425e-5
-1.119, -5.506e-5
-1.118, -5.537e-5
-1.117, -5.497e-5
-1.116, -5.438e-5
-1.115, -5.502e-5
-1.114, -5.570e-5
-1.113, -5.623e-5
-1.112, -5.518e-5
-1.111, -5.493e-5
-1.110, -5.590e-5
-1.109, -5.609e-5
-1.108, -5.655e-5
-1.107, -5.628e-5
-1.106, -5.579e-5
-1.105, -5.639e-5
-1.104, -5.699e-5
-1.103, -5.713e-5
-1.102, -5.696e-5
-1.101, -5.668e-5
-1.100, -5.694e-5
-1.099, -5.786e-5
-1.098, -5.782e-5
-1.097, -5.793e-5
-1.096, -5.725e-5
-1.095, -5.776e-5
-1.094, -5.881e-5
-1.093, -5.876e-5
-1.092, -5.860e-5
-1.091, -5.827e-5
-1.090, -5.877e-5
-1.089, -5.978e-5
-1.088, -5.977e-5
-1.087, -5.948e-5
-1.086, -5.944e-5
-1.085, -5.959e-5
-1.084, -6.071e-5
-1.083, -6.087e-5
-1.082, -6.056e-5
-1.081, -6.051e-5
-1.080, -6.096e-5
-1.079, -6.159e-5
-1.078, -6.236e-5
-1.077, -6.169e-5
-1.076, -6.176e-5
-1.075, -6.254e-5
-1.074, -6.295e-5
-1.073, -6.364e-5
-1.072, -6.311e-5
-1.071, -6.289e-5
-1.070, -6.384e-5
-1.069, -6.431e-5
-1.068, -6.497e-5
-1.067, -6.474e-5
-1.066, -6.424e-5
-1.065, -6.529e-5
-1.064, -6.584e-5
-1.063, -6.643e-5
-1.062, -6.660e-5
-1.061, -6.603e-5
-1.060, -6.670e-5
-1.059, -6.793e-5
-1.058, -6.821e-5
-1.057, -6.847e-5
-1.056, -6.792e-5
-1.055, -6.877e-5
-1.054, -6.981e-5
-1.053, -7.022e-5
-1.052, -7.034e-5
-1.051, -7.004e-5
-1.050, -7.092e-5
-1.049, -7.219e-5
-1.048, -7.248e-5
-1.047, -7.257e-5
-1.046, -7.264e-5
-1.045, -7.312e-5
-1.044, -7.447e-5
-1.043, -7.533e-5
-1.042, -7.515e-5
-1.041, -7.537e-5
-1.040, -7.601e-5
-1.039, -7.699e-5
-1.038, -7.803e-5
-1.037, -7.804e-5
-1.036, -7.820e-5
-1.035, -7.928e-5
-1.034, -8.018e-5
-1.033, -8.144e-5
-1.032, -8.130e-5
-1.031, -8.139e-5
-1.030, -8.271e-5
-1.029, -8.375e-5
-1.028, -8.502e-5
-1.027, -8.515e-5
-1.026, -8.520e-5
-1.025, -8.669e-5
-1.024, -8.822e-5
-1.023, -8.901e-5
-1.022, -8.968e-5
-1.021, -8.975e-5
-1.020, -9.105e-5
-1.019, -9.266e-5
-1.018, -9.369e-5
-1.017, -9.454e-5
-1.016, -9.481e-5
-1.015, -9.585e-5
-1.014, -9.805e-5
-1.013, -9.912e-5
-1.012, -9.966e-5
-1.011, -1.006e-4
-1.010, -1.017e-4
-1.009, -1.040e-4
-1.008, -1.050e-4
-1.007, -1.062e-4
-1.006, -1.072e-4
-1.005, -1.083e-4
-1.004, -1.104e-4
-1.003, -1.125e-4
-1.002, -1.132e-4
-1.001, -1.144e-4
-1.000, -5.596e-5
-1.001, -1.435e-5
-1.002, -2.509e-6
-1.003, 4.858e-6
-1.004, 1.154e-5
-1.005, 1.559e-5
-1.006, 1.892e-5
-1.007, 2.238e-5
-1.008, 2.548e-5
-1.009, 2.895e-5
-1.010, 3.145e-5
-1.011, 3.266e-5
-1.012, 3.471e-5
-1.013, 3.650e-5
-1.014, 3.900e-5
-1.015, 4.046e-5
-1.016, 4.104e-5
-1.017, 4.214e-5
-1.018, 4.378e-5
-1.019, 4.542e-5
-1.020, 4.636e-5
-1.021, 4.642e-5
-1.022, 4.720e-5
-1.023, 4.844e-5
-1.024, 4.339e-5
-1.025, 4.984e-5
-1.026, 5.008e-5
-1.027, 5.048e-5
-1.028, 5.137e-5
-1.029, 5.245e-5
-1.030, 5.302e-5
-1.031, 5.268e-5
-1.032, 5.267e-5
-1.033, 5.357e-5
-1.034, 5.460e-5
-1.035, 5.456e-5
-1.036, 5.457e-5
-1.037, 5.432e-5
-1.038, 5.488e-5
-1.039, 5.604e-5
-1.040, 5.567e-5
-1.041, 5.535e-5
-1.042, 5.555e-5
-1.043, 5.571e-5
-1.044, 5.663e-5
-1.045, 5.671e-5
-1.046, 5.603e-5
-1.047, 5.603e-5
-1.048, 5.640e-5
-1.049, 5.714e-5
-1.050, 5.719e-5
-1.051, 5.634e-5
-1.052, 5.652e-5
-1.053, 5.660e-5
-1.054, 5.719e-5
-1.055, 5.756e-5
-1.056, 5.645e-5
-1.057, 5.630e-5
-1.058, 5.689e-5
-1.059, 5.720e-5
-1.060, 5.745e-5
-1.061, 5.678e-5
-1.062, 5.626e-5
-1.063, 5.715e-5
-1.064, 5.706e-5
-1.065, 5.721e-5
-1.066, 5.649e-5
-1.067, 5.604e-5
-1.068, 5.676e-5
-1.069, 5.708e-5
-1.070, 5.699e-5
-1.071, 5.652e-5
-1.072, 5.593e-5
-1.073, 5.654e-5
-1.074, 5.703e-5
-1.075, 5.721e-5
-1.076, 5.622e-5
-1.077, 5.570e-5
-1.078, 5.601e-5
-1.079, 5.693e-5
-1.080, 5.646e-5
-1.081, 5.597e-5
-1.082, 5.573e-5
-1.083, 5.571e-5
-1.084, 5.655e-5
-1.085, 5.623e-5
-1.086, 5.568e-5
-1.087, 5.547e-5
-1.088, 5.553e-5
-1.089, 5.600e-5
-1.090, 5.639e-5
-1.091, 5.522e-5
-1.092, 5.513e-5
-1.093, 5.515e-5
-1.094, 5.581e-5
-1.095, 5.595e-5
-1.096, 5.507e-5
-1.097, 5.466e-5
-1.098, 5.525e-5
-1.099, 5.573e-5
-1.100, 5.565e-5
-1.101, 5.476e-5
-1.102, 5.443e-5
-1.103, 5.501e-5
-1.104, 5.515e-5
-1.105, 5.538e-5
-1.106, 5.482e-5
-1.107, 5.418e-5
-1.108, 5.480e-5
-1.109, 5.509e-5
-1.110, 5.507e-5
-1.111, 5.479e-5
-1.112, 5.403e-5
-1.113, 5.432e-5
-1.114, 5.506e-5
-1.115, 5.457e-5
-1.116, 5.431e-5
-1.117, 5.382e-5
-1.118, 5.414e-5
-1.119, 5.495e-5
-1.120, 5.471e-5
-1.121, 5.397e-5
-1.122, 5.402e-5
-1.123, 5.384e-5
-1.124, 5.470e-5
-1.125, 5.462e-5
-1.126, 5.387e-5
-1.127, 5.386e-5
-1.128, 5.378e-5
-1.129, 5.445e-5
-1.130, 5.450e-5
-1.131, 5.379e-5
-1.132, 5.366e-5
-1.133, 5.379e-5
-1.134, 5.428e-5
-1.135, 5.458e-5
-1.136, 5.349e-5
-1.137, 5.340e-5
-1.138, 5.377e-5
-1.139, 5.425e-5
-1.140, 5.438e-5
-1.141, 5.353e-5
-1.142, 5.342e-5
-1.143, 5.378e-5
-1.144, 5.410e-5
-1.145, 5.403e-5
-1.146, 5.379e-5
-1.147, 5.332e-5
-1.148, 5.382e-5
-1.149, 5.401e-5
-1.150, 5.411e-5
-1.151, 5.393e-5
-1.152, 5.324e-5
-1.153, 5.360e-5
-1.154, 5.419e-5
-1.155, 5.423e-5
-1.156, 5.386e-5
-1.157, 5.318e-5
-1.158, 5.349e-5
-1.159, 5.446e-5
-1.160, 5.431e-5
-1.161, 5.372e-5
-1.162, 5.338e-5
-1.163, 5.343e-5
-1.164, 5.444e-5
-1.165, 5.442e-5
-1.166, 5.367e-5
-1.167, 5.357e-5
-1.168, 5.354e-5
-1.169, 5.427e-5
-1.170, 5.475e-5
-1.171, 5.376e-5
-1.172, 5.368e-5
-1.173, 5.378e-5
-1.174, 5.444e-5
-1.175, 5.463e-5
-1.176, 5.391e-5
-1.177, 5.390e-5
-1.178, 5.427e-5
-1.179, 5.453e-5
-1.180, 5.486e-5
-1.181, 5.406e-5
-1.182, 5.392e-5
-1.183, 5.422e-5
-1.184, 5.465e-5
-1.185, 5.483e-5
-1.186, 5.450e-5
-1.187, 5.397e-5
-1.188, 5.459e-5
-1.189, 5.506e-5
-1.190, 5.505e-5
-1.191, 5.482e-5
-1.192, 5.418e-5
-1.193, 5.459e-5
-1.194, 5.525e-5
-1.195, 5.545e-5
-1.196, 5.505e-5
-1.197, 5.464e-5
-1.198, 5.479e-5
-1.199, 5.572e-5
-1.200, 5.554e-5
-1.201, 5.531e-5
-1.202, 5.500e-5
-1.203, 5.533e-5
-1.204, 5.603e-5
-1.205, 5.606e-5
-1.206, 5.556e-5
-1.207, 5.541e-5
-1.208, 5.566e-5
-1.209, 5.627e-5
-1.210, 5.669e-5
-1.211, 5.607e-5
-1.212, 5.589e-5
-1.213, 5.612e-5
-1.214, 5.688e-5
-1.215, 5.724e-5
-1.216, 5.654e-5
-1.217, 5.633e-5
-1.218, 5.699e-5
-1.219, 5.724e-5
-1.220, 5.766e-5
-1.221, 5.725e-5
-1.222, 5.702e-5
-1.223, 5.756e-5
-1.224, 5.789e-5
-1.225, 5.841e-5
-1.226, 5.825e-5
-1.227, 5.765e-5
-1.228, 5.858e-5
-1.229, 5.968e-5
-1.230, 5.922e-5
-1.231, 5.909e-5
-1.232, 5.852e-5
-1.233, 5.910e-5
-1.234, 5.986e-5
-1.235, 6.010e-5
-1.236, 6.017e-5
-1.237, 5.954e-5
-1.238, 6.006e-5
-1.239, 6.112e-5
-1.240, 6.122e-5
-1.241, 6.111e-5
-1.242, 6.089e-5
-1.243, 6.120e-5
-1.244, 6.235e-5
-1.245, 6.252e-5
-1.246, 6.248e-5
-1.247, 6.246e-5
-1.248, 6.265e-5
-1.249, 6.366e-5
-1.250, 6.409e-5
-1.251, 6.399e-5
-1.252, 6.422e-5
-1.253, 6.427e-5
-1.254, 6.556e-5
-1.255, 6.628e-5
-1.256, 6.574e-5
-1.257, 6.577e-5
-1.258, 6.660e-5
-1.259, 6.732e-5
-1.260, 6.834e-5
-1.261, 6.801e-5
-1.262, 6.806e-5
-1.263, 6.893e-5
-1.264, 6.967e-5
-1.265, 7.055e-5
-1.266, 7.077e-5
-1.267, 7.068e-5
-1.268, 7.155e-5
-1.269, 7.253e-5
-1.270, 7.328e-5
-1.271, 7.389e-5
-1.272, 7.360e-5
-1.273, 7.459e-5
-1.274, 7.595e-5
-1.275, 7.669e-5
-1.276, 7.717e-5
-1.277, 7.721e-5
-1.278, 7.824e-5
-1.279, 7.964e-5
-1.280, 8.103e-5
-1.281, 8.116e-5
-1.282, 8.141e-5
-1.283, 8.229e-5
-1.284, 8.413e-5
-1.285, 8.536e-5
-1.286, 8.561e-5
-1.287, 8.638e-5
-1.288, 8.726e-5
-1.289, 8.889e-5
-1.290, 9.033e-5
-1.291, 9.108e-5
-1.292, 9.176e-5
-1.293, 9.279e-5
-1.294, 9.474e-5
-1.295, 9.635e-5
-1.296, 9.701e-5
-1.297, 9.777e-5
-1.298, 9.955e-5
-1.299, 1.011e-4
-1.300, 1.031e-4
-1.301, 1.041e-4
-1.302, 1.050e-4
-1.303, 1.069e-4
-1.304, 1.088e-4
-1.305, 1.107e-4
-1.306, 1.121e-4
-1.307, 1.131e-4
-1.308, 1.150e-4
-1.309, 1.175e-4
-1.310, 1.194e-4
-1.311, 1.211e-4
-1.312, 1.223e-4
-1.313, 1.245e-4
-1.314, 1.270e-4
-1.315, 1.293e-4
-1.316, 1.314e-4
-1.317, 1.329e-4
-1.318, 1.352e-4
-1.319, 1.384e-4
-1.320, 1.407e-4
-1.321, 1.428e-4
-1.322, 1.449e-4
-1.323, 1.473e-4
-1.324, 1.508e-4
-1.325, 1.535e-4
-1.326, 1.560e-4
-1.327, 1.585e-4
-1.328, 1.614e-4
-1.329, 1.648e-4
-1.330, 1.685e-4
-1.331, 1.710e-4
-1.332, 1.739e-4
-1.333, 1.770e-4
-1.334, 1.808e-4
-1.335, 1.847e-4
-1.336, 1.874e-4
-1.337, 1.909e-4
-1.338, 1.948e-4
-1.339, 1.986e-4
-1.340, 2.032e-4
-1.341, 2.068e-4
-1.342, 2.103e-4
-1.343, 2.147e-4
-1.344, 2.188e-4
-1.345, 2.236e-4
-1.346, 2.278e-4
-1.347, 2.317e-4
-1.348, 2.367e-4
-1.349, 2.420e-4
-1.350, 2.472e-4
-1.351, 2.519e-4
-1.352, 2.565e-4
-1.353, 2.617e-4
-1.354, 2.677e-4
-1.355, 2.731e-4
-1.356, 2.786e-4
-1.357, 2.836e-4
-1.358, 2.897e-4
-1.359, 2.964e-4
-1.360, 3.031e-4
-1.361, 3.084e-4
-1.362, 3.150e-4
-1.363, 3.215e-4
-1.364, 3.395e-4
-1.365, 3.369e-4
-1.366, 3.431e-4
-1.367, 3.501e-4
-1.368, 3.572e-4
-1.369, 3.654e-4
-1.370, 3.737e-4
-1.371, 3.813e-4
-1.372, 3.890e-4
-1.373, 3.971e-4
-1.374, 4.062e-4
-1.375, 4.155e-4
-1.376, 4.241e-4
-1.377, 4.322e-4
-1.378, 4.417e-4
-1.379, 4.519e-4
-1.380, 4.618e-4
-1.381, 4.717e-4
-1.382, 4.811e-4
-1.383, 4.915e-4
-1.384, 5.029e-4
-1.385, 5.136e-4
-1.386, 5.247e-4
-1.387, 5.350e-4
-1.388, 5.469e-4
-1.389, 5.595e-4
-1.390, 5.713e-4
-1.391, 5.836e-4
-1.392, 5.952e-4
-1.393, 6.076e-4
-1.394, 6.214e-4
-1.395, 6.348e-4
-1.396, 6.480e-4
-1.397, 6.616e-4
-1.398, 6.755e-4
-1.399, 6.902e-4
-1.400, 7.056e-4
-1.401, 7.195e-4
-1.402, 7.338e-4
-1.403, 7.491e-4
-1.404, 7.656e-4
-1.405, 7.806e-4
-1.406, 7.990e-4
-1.407, 8.135e-4
-1.408, 8.298e-4
-1.409, 8.484e-4
-1.410, 8.652e-4
-1.411, 8.824e-4
-1.412, 9.002e-4
-1.413, 9.171e-4
-1.414, 9.359e-4
-1.415, 9.574e-4
-1.416, 9.773e-4
-1.417, 9.934e-4
-1.418, 1.013e-3
-1.419, 1.034e-3
-1.420, 1.055e-3
-1.421, 1.074e-3
-1.422, 1.097e-3
-1.423, 1.118e-3
-1.424, 1.140e-3
-1.425, 1.162e-3
-1.426, 1.185e-3
-1.427, 1.206e-3
-1.428, 1.229e-3
-1.429, 1.257e-3
-1.430, 1.277e-3
-1.431, 1.302e-3
-1.432, 1.326e-3
-1.433, 1.353e-3
-1.434, 1.379e-3
-1.435, 1.403e-3
-1.436, 1.431e-3
-1.437, 1.457e-3
-1.438, 1.481e-3
-1.439, 1.511e-3
-1.440, 1.537e-3
-1.441, 1.567e-3
-1.442, 1.594e-3
-1.443, 1.621e-3
-1.444, 1.651e-3
-1.445, 1.681e-3
-1.446, 1.711e-3
-1.447, 1.739e-3
-1.448, 1.770e-3
-1.449, 1.801e-3
-1.450, 1.835e-3
-1.451, 1.866e-3
-1.452, 1.898e-3
-1.453, 1.929e-3
-1.454, 1.961e-3
-1.455, 1.992e-3
-1.456, 2.026e-3
-1.457, 2.058e-3
-1.458, 2.095e-3
-1.459, 2.131e-3
-1.460, 2.166e-3
-1.461, 2.200e-3
-1.462, 2.234e-3
-1.463, 2.271e-3
-1.464, 2.307e-3
-1.465, 2.347e-3
-1.466, 2.379e-3
-1.467, 2.416e-3
-1.468, 2.457e-3
-1.469, 2.493e-3
-1.470, 2.529e-3
-1.471, 2.569e-3
-1.472, 2.611e-3
-1.473, 2.642e-3
-1.474, 2.682e-3
-1.475, 2.722e-3
-1.476, 2.762e-3
-1.477, 2.799e-3
-1.478, 2.843e-3
-1.479, 2.881e-3
-1.480, 2.924e-3
-1.481, 2.970e-3
-1.482, 3.009e-3
-1.483, 3.052e-3
-1.484, 3.100e-3
-1.485, 3.149e-3
-1.486, 3.191e-3
-1.487, 3.231e-3
-1.488, 3.253e-3
-1.489, 3.303e-3
-1.490, 3.340e-3
-1.491, 3.371e-3
-1.492, 3.407e-3
-1.493, 3.454e-3
-1.494, 3.507e-3
-1.495, 3.557e-3
-1.496, 3.605e-3
-1.497, 3.653e-3
-1.498, 3.711e-3
-1.499, 3.759e-3
-1.500, 3.805e-3
-1.501, 3.856e-3
-1.502, 3.907e-3
-1.503, 3.954e-3
-1.504, 4.011e-3
-1.505, 4.053e-3
-1.506, 4.105e-3
-1.507, 4.165e-3
-1.508, 4.216e-3
-1.509, 4.268e-3
-1.510, 4.311e-3
-1.511, 4.356e-3
-1.512, 4.410e-3
-1.513, 4.459e-3
-1.514, 4.507e-3
-1.515, 4.554e-3
-1.516, 4.606e-3
-1.517, 4.657e-3
-1.518, 4.711e-3
-1.519, 4.753e-3
-1.520, 4.811e-3
-1.521, 4.859e-3
-1.522, 4.912e-3
-1.523, 4.957e-3
-1.524, 5.018e-3
-1.525, 5.070e-3
-1.526, 5.110e-3
-1.527, 5.171e-3
-1.528, 5.218e-3
-1.529, 5.268e-3
-1.530, 5.336e-3
-1.531, 5.374e-3
-1.532, 5.421e-3
-1.533, 5.478e-3
-1.534, 5.535e-3
-1.535, 5.584e-3
-1.536, 5.638e-3
-1.537, 5.680e-3
-1.538, 5.761e-3
-1.539, 5.827e-3
-1.540, 5.902e-3
-1.541, 5.945e-3
-1.542, 5.997e-3
-1.543, 6.061e-3
-1.544, 6.093e-3
-1.545, 6.135e-3
-1.546, 6.173e-3
-1.547, 6.201e-3
-1.548, 6.264e-3
-1.549, 6.315e-3
-1.550, 6.408e-3
-1.551, 6.473e-3
-1.552, 6.533e-3
-1.553, 6.595e-3
-1.554, 6.660e-3
-1.555, 6.735e-3
-1.556, 6.813e-3
-1.557, 6.876e-3
-1.558, 6.929e-3
-1.559, 7.000e-3
-1.560, 7.062e-3
-1.561, 7.116e-3
-1.562, 7.167e-3
-1.563, 7.243e-3
-1.564, 7.296e-3
-1.565, 7.363e-3
-1.566, 7.425e-3
-1.567, 7.508e-3
-1.568, 7.559e-3
-1.569, 7.635e-3
-1.570, 7.694e-3
-1.571, 7.753e-3
-1.572, 7.800e-3
-1.573, 7.859e-3
-1.574, 7.923e-3
-1.575, 7.960e-3
-1.576, 8.004e-3
-1.577, 8.089e-3
-1.578, 8.194e-3
-1.579, 8.291e-3
-1.580, 8.329e-3
-1.581, 8.381e-3
-1.582, 8.433e-3
-1.583, 8.522e-3
-1.584, 8.552e-3
-1.585, 8.630e-3
-1.586, 8.725e-3
-1.587, 8.802e-3
-1.588, 8.857e-3
-1.589, 8.968e-3
-1.590, 8.966e-3
-1.591, 9.027e-3
-1.592, 9.081e-3
-1.593, 9.126e-3
-1.594, 9.163e-3
-1.595, 9.208e-3
-1.596, 9.328e-3
-1.597, 9.446e-3
-1.598, 9.575e-3
-1.599, 9.745e-3
-1.600, 9.766e-3
-1.599, 9.656e-3
-1.598, 9.542e-3
-1.597, 9.443e-3
-1.596, 9.333e-3
-1.595, 9.227e-3
-1.594, 9.162e-3
-1.593, 9.090e-3
-1.592, 8.998e-3
-1.591, 8.923e-3
-1.590, 8.829e-3
-1.589, 8.727e-3
-1.588, 8.624e-3
-1.587, 8.515e-3
-1.586, 8.437e-3
-1.585, 8.371e-3
-1.584, 8.284e-3
-1.583, 8.239e-3
-1.582, 8.157e-3
-1.581, 8.087e-3
-1.580, 8.013e-3
-1.579, 7.930e-3
-1.578, 7.811e-3
-1.577, 7.703e-3
-1.576, 7.636e-3
-1.575, 7.552e-3
-1.574, 7.479e-3
-1.573, 7.427e-3
-1.572, 7.346e-3
-1.571, 7.285e-3
-1.570, 7.179e-3
-1.569, 7.092e-3
-1.568, 7.002e-3
-1.567, 6.922e-3
-1.566, 6.893e-3
-1.565, 6.807e-3
-1.564, 6.726e-3
-1.563, 6.652e-3
-1.562, 6.570e-3
-1.561, 6.483e-3
-1.560, 6.411e-3
-1.559, 6.372e-3
-1.558, 6.290e-3
-1.557, 6.219e-3
-1.556, 6.194e-3
-1.555, 6.180e-3
-1.554, 6.139e-3
-1.553, 6.077e-3
-1.552, 5.998e-3
-1.551, 5.953e-3
-1.550, 5.900e-3
-1.549, 5.821e-3
-1.548, 5.753e-3
-1.547, 5.678e-3
-1.546, 5.624e-3
-1.545, 5.565e-3
-1.544, 5.476e-3
-1.543, 5.395e-3
-1.542, 5.318e-3
-1.541, 5.253e-3
-1.540, 5.211e-3
-1.539, 5.128e-3
-1.538, 5.068e-3
-1.537, 5.020e-3
-1.536, 4.977e-3
-1.535, 4.897e-3
-1.534, 4.840e-3
-1.533, 4.835e-3
-1.532, 4.808e-3
-1.531, 4.769e-3
-1.530, 4.722e-3
-1.529, 4.674e-3
-1.528, 4.628e-3
-1.527, 4.566e-3
-1.526, 4.510e-3
-1.525, 4.444e-3
-1.524, 4.392e-3
-1.523, 4.338e-3
-1.522, 4.274e-3
-1.521, 4.241e-3
-1.520, 4.191e-3
-1.519, 4.146e-3
-1.518, 4.091e-3
-1.517, 4.037e-3
-1.516, 3.981e-3
-1.515, 3.919e-3
-1.514, 3.874e-3
-1.513, 3.828e-3
-1.512, 3.764e-3
-1.511, 3.716e-3
-1.510, 3.672e-3
-1.509, 3.616e-3
-1.508, 3.569e-3
-1.507, 3.534e-3
-1.506, 3.468e-3
-1.505, 3.418e-3
-1.504, 3.359e-3
-1.503, 3.319e-3
-1.502, 3.267e-3
-1.501, 3.228e-3
-1.500, 3.179e-3
-1.499, 3.135e-3
-1.498, 3.090e-3
-1.497, 3.057e-3
-1.496, 3.012e-3
-1.495, 2.978e-3
-1.494, 2.926e-3
-1.493, 2.898e-3
-1.492, 2.862e-3
-1.491, 2.823e-3
-1.490, 2.775e-3
-1.489, 2.738e-3
-1.488, 2.689e-3
-1.487, 2.658e-3
-1.486, 2.614e-3
-1.485, 2.571e-3
-1.484, 2.531e-3
-1.483, 2.494e-3
-1.482, 2.452e-3
-1.481, 2.419e-3
-1.480, 2.379e-3
-1.479, 2.346e-3
-1.478, 2.314e-3
-1.477, 2.275e-3
-1.476, 2.242e-3
-1.475, 2.204e-3
-1.474, 2.170e-3
-1.473, 2.137e-3
-1.472, 2.101e-3
-1.471, 2.066e-3
-1.470, 2.038e-3
-1.469, 2.003e-3
-1.468, 1.972e-3
-1.467, 1.938e-3
-1.466, 1.908e-3
-1.465, 1.883e-3
-1.464, 1.857e-3
-1.463, 1.813e-3
-1.462, 1.784e-3
-1.461, 1.758e-3
-1.460, 1.720e-3
-1.459, 1.732e-3
-1.458, 1.683e-3
-1.457, 1.654e-3
-1.456, 1.648e-3
-1.455, 1.625e-3
-1.454, 1.604e-3
-1.453, 1.579e-3
-1.452, 1.545e-3
-1.451, 1.521e-3
-1.450, 1.503e-3
-1.449, 1.476e-3
-1.448, 1.449e-3
-1.447, 1.422e-3
-1.446, 1.397e-3
-1.445, 1.373e-3
-1.444, 1.348e-3
-1.443, 1.321e-3
-1.442, 1.296e-3
-1.441, 1.271e-3
-1.440, 1.249e-3
-1.439, 1.224e-3
-1.438, 1.200e-3
-1.437, 1.175e-3
-1.436, 1.154e-3
-1.435, 1.131e-3
-1.434, 1.111e-3
-1.433, 1.084e-3
-1.432, 1.064e-3
-1.431, 1.044e-3
-1.430, 1.023e-3
-1.429, 1.001e-3
-1.428, 9.805e-4
-1.427, 9.585e-4
-1.426, 9.413e-4
-1.425, 9.229e-4
-1.424, 9.037e-4
-1.423, 8.851e-4
-1.422, 8.649e-4
-1.421, 8.475e-4
-1.420, 8.281e-4
-1.419, 8.122e-4
-1.418, 7.958e-4
-1.417, 7.772e-4
-1.416, 7.592e-4
-1.415, 7.446e-4
-1.414, 7.286e-4
-1.413, 7.129e-4
-1.412, 6.974e-4
-1.411, 6.787e-4
-1.410, 6.677e-4
-1.409, 6.580e-4
-1.408, 6.407e-4
-1.407, 6.225e-4
-1.406, 6.129e-4
-1.405, 5.978e-4
-1.404, 5.843e-4
-1.403, 5.715e-4
-1.402, 5.567e-4
-1.401, 5.447e-4
-1.400, 5.314e-4
-1.399, 5.211e-4
-1.398, 5.073e-4
-1.397, 4.949e-4
-1.396, 4.823e-4
-1.395, 4.719e-4
-1.394, 4.620e-4
-1.393, 4.504e-4
-1.392, 4.408e-4
-1.391, 4.295e-4
-1.390, 4.178e-4
-1.389, 4.110e-4
-1.388, 3.967e-4
-1.387, 3.885e-4
-1.386, 3.784e-4
-1.385, 3.708e-4
-1.384, 3.601e-4
-1.383, 3.519e-4
-1.382, 3.412e-4
-1.381, 3.341e-4
-1.380, 3.256e-4
-1.379, 3.167e-4
-1.378, 3.090e-4
-1.377, 3.002e-4
-1.376, 2.921e-4
-1.375, 2.854e-4
-1.374, 2.784e-4
-1.373, 2.706e-4
-1.372, 2.631e-4
-1.371, 2.546e-4
-1.370, 2.493e-4
-1.369, 2.420e-4
-1.368, 2.355e-4
-1.367, 2.287e-4
-1.366, 2.218e-4
-1.365, 2.163e-4
-1.364, 2.103e-4
-1.363, 2.044e-4
-1.362, 1.977e-4
-1.361, 1.918e-4
-1.360, 1.873e-4
-1.359, 1.819e-4
-1.358, 1.763e-4
-1.357, 1.705e-4
-1.356, 1.647e-4
-1.355, 1.601e-4
-1.354, 1.561e-4
-1.353, 1.511e-4
-1.352, 1.456e-4
-1.351, 1.412e-4
-1.350, 1.366e-4
-1.349, 1.331e-4
-1.348, 1.286e-4
-1.347, 1.233e-4
-1.346, 1.195e-4
-1.345, 1.156e-4
-1.344, 1.126e-4
-1.343, 1.081e-4
-1.342, 1.038e-4
-1.341, 9.986e-5
-1.340, 9.688e-5
-1.339, 9.405e-5
-1.338, 8.999e-5
-1.337, 8.619e-5
-1.336, 8.275e-5
-1.335, 8.002e-5
-1.334, 7.695e-5
-1.333, 7.401e-5
-1.332, 7.000e-5
-1.331, 6.701e-5
-1.330, 6.473e-5
-1.329, 6.242e-5
-1.328, 5.953e-5
-1.327, 5.623e-5
-1.326, 5.310e-5
-1.325, 5.132e-5
-1.324, 4.925e-5
-1.323, 4.624e-5
-1.322, 4.361e-5
-1.321, 4.086e-5
-1.320, 3.948e-5
-1.319, 3.745e-5
-1.318, 3.486e-5
-1.317, 3.241e-5
-1.316, 3.007e-5
-1.315, 2.846e-5
-1.314, 2.726e-5
-1.313, 2.478e-5
-1.312, 2.243e-5
-1.311, 2.035e-5
-1.310, 1.880e-5
-1.309, 1.803e-5
-1.308, 1.585e-5
-1.307, 1.346e-5
-1.306, 1.177e-5
-1.305, 1.036e-5
-1.304, 9.660e-6
-1.303, 7.860e-6
-1.302, 5.639e-6
-1.301, 4.242e-6
-1.300, 3.021e-6
-1.299, 2.027e-6
-1.298, 9.016e-7
-1.297, -1.476e-6
-1.296, -2.688e-6
-1.295, -3.544e-6
-1.294, -4.450e-6
-1.293, -5.710e-6
-1.292, -7.465e-6
-1.291, -8.816e-6
-1.290, -9.454e-6
-1.289, -1.002e-5
-1.288, -1.122e-5
-1.287, -1.282e-5
-1.286, -1.418e-5
-1.285, -1.459e-5
-1.284, -1.488e-5
-1.283, -1.637e-5
-1.282, -1.762e-5
-1.281, -1.889e-5
-1.280, -1.959e-5
-1.279, -1.937e-5
-1.278, -2.062e-5
-1.277, -2.182e-5
-1.276, -2.285e-5
-1.275, -2.348e-5
-1.274, -2.324e-5
-1.273, -2.443e-5
-1.272, -2.579e-5
-1.271, -2.664e-5
-1.270, -2.702e-5
-1.269, -2.673e-5
-1.268, -2.771e-5
-1.267, -2.895e-5
-1.266, -2.974e-5
-1.265, -3.003e-5
-1.264, -2.978e-5
-1.263, -3.056e-5
-1.262, -3.201e-5
-1.261, -3.237e-5
-1.260, -3.256e-5
-1.259, -3.284e-5
-1.258, -3.300e-5
-1.257, -3.446e-5
-1.256, -3.478e-5
-1.255, -3.529e-5
-1.254, -3.519e-5
-1.253, -3.532e-5
-1.252, -3.647e-5
-1.251, -3.732e-5
-1.250, -3.699e-5
-1.249, -3.726e-5
-1.248, -3.741e-5
-1.247, -3.849e-5
-1.246, -3.914e-5
-1.245, -3.898e-5
-1.244, -3.891e-5
-1.243, -3.927e-5
-1.242, -4.019e-5
-1.241, -4.087e-5
-1.240, -4.067e-5
-1.239, -4.017e-5
-1.238, -4.094e-5
-1.237, -4.136e-5
-1.236, -4.223e-5
-1.235, -4.221e-5
-1.234, -4.169e-5
-1.233, -4.220e-5
-1.232, -4.276e-5
-1.231, -4.337e-5
-1.230, -4.359e-5
-1.229, -4.391e-5
-1.228, -4.338e-5
-1.227, -4.420e-5
-1.226, -4.451e-5
-1.225, -4.477e-5
-1.224, -4.421e-5
-1.223, -4.392e-5
-1.222, -4.553e-5
-1.221, -4.543e-5
-1.220, -4.536e-5
-1.219, -4.534e-5
-1.218, -4.512e-5
-1.217, -4.626e-5
-1.216, -4.632e-5
-1.215, -4.626e-5
-1.214, -4.603e-5
-1.213, -4.611e-5
-1.212, -4.687e-5
-1.211, -4.747e-5
-1.210, -4.710e-5
-1.209, -4.682e-5
-1.208, -4.662e-5
-1.207, -4.740e-5
-1.206, -4.812e-5
-1.205, -4.766e-5
-1.204, -4.720e-5
-1.203, -4.749e-5
-1.202, -4.818e-5
-1.201, -4.854e-5
-1.200, -4.833e-5
-1.199, -4.775e-5
-1.198, -4.824e-5
-1.197, -4.847e-5
-1.196, -4.920e-5
-1.195, -4.900e-5
-1.194, -4.811e-5
-1.193, -4.886e-5
-1.192, -4.874e-5
-1.191, -4.967e-5
-1.190, -4.972e-5
-1.189, -4.875e-5
-1.188, -4.906e-5
-1.187, -4.973e-5
-1.186, -4.984e-5
-1.185, -5.005e-5
-1.184, -4.911e-5
-1.183, -4.943e-5
-1.182, -5.005e-5
-1.181, -5.053e-5
-1.180, -5.018e-5
-1.179, -4.987e-5
-1.178, -5.020e-5
-1.177, -5.087e-5
-1.176, -5.107e-5
-1.175, -5.043e-5
-1.174, -5.049e-5
-1.173, -4.991e-5
-1.172, -5.089e-5
-1.171, -5.144e-5
-1.170, -5.096e-5
-1.169, -5.070e-5
-1.168, -5.059e-5
-1.167, -5.105e-5
-1.166, -5.212e-5
-1.165, -5.125e-5
-1.164, -5.105e-5
-1.163, -5.101e-5
-1.162, -5.142e-5
-1.161, -5.238e-5
-1.160, -5.169e-5
-1.159, -5.137e-5
-1.158, -5.144e-5
-1.157, -5.184e-5
-1.156, -5.226e-5
-1.155, -5.239e-5
-1.154, -5.176e-5
-1.153, -5.175e-5
-1.152, -5.230e-5
-1.151, -5.277e-5
-1.150, -5.283e-5
-1.149, -5.221e-5
-1.148, -5.194e-5
-1.147, -5.286e-5
-1.146, -5.312e-5
-1.145, -5.323e-5
-1.144, -5.244e-5
-1.143, -5.240e-5
-1.142, -5.326e-5
-1.141, -5.364e-5
-1.140, -5.331e-5
-1.139, -5.323e-5
-1.138, -5.276e-5
-1.137, -5.361e-5
-1.136, -5.391e-5
-1.135, -5.396e-5
-1.134, -5.359e-5
-1.133, -5.323e-5
-1.132, -5.396e-5
-1.131, -5.470e-5
-1.130, -5.431e-5
-1.129, -5.423e-5
-1.128, -5.363e-5
-1.127, -5.435e-5
-1.126, -5.539e-5
-1.125, -5.493e-5
-1.124, -5.439e-5
-1.123, -5.443e-5
-1.122, -5.512e-5
-1.121, -5.550e-5
-1.120, -5.556e-5
-1.119, -5.516e-5
-1.118, -5.513e-5
-1.117, -5.541e-5
-1.116, -5.603e-5
-1.115, -5.635e-5
-1.114, -5.553e-5
-1.113, -5.572e-5
-1.112, -5.621e-5
-1.111, -5.693e-5
-1.110, -5.688e-5
-1.109, -5.638e-5
-1.108, -5.625e-5
-1.107, -5.710e-5
-1.106, -5.735e-5
-1.105, -5.784e-5
-1.104, -5.706e-5
-1.103, -5.691e-5
-1.102, -5.769e-5
-1.101, -5.849e-5
-1.100, -5.839e-5
-1.099, -5.811e-5
-1.098, -5.776e-5
-1.097, -5.880e-5
-1.096, -5.910e-5
-1.095, -5.933e-5
-1.094, -5.914e-5
-1.093, -5.856e-5
-1.092, -5.949e-5
-1.091, -6.041e-5
-1.090, -6.005e-5
-1.089, -6.009e-5
-1.088, -5.991e-5
-1.087, -6.051e-5
-1.086, -6.164e-5
-1.085, -6.124e-5
-1.084, -6.097e-5
-1.083, -6.132e-5
-1.082, -6.157e-5
-1.081, -6.265e-5
-1.080, -6.249e-5
-1.079, -6.254e-5
-1.078, -6.231e-5
-1.077, -6.288e-5
-1.076, -6.419e-5
-1.075, -6.437e-5
-1.074, -6.375e-5
-1.073, -6.404e-5
-1.072, -6.435e-5
-1.071, -6.527e-5
-1.070, -6.569e-5
-1.069, -6.509e-5
-1.068, -6.548e-5
-1.067, -6.631e-5
-1.066, -6.694e-5
-1.065, -6.738e-5
-1.064, -6.683e-5
-1.063, -6.714e-5
-1.062, -6.804e-5
-1.061, -6.854e-5
-1.060, -6.916e-5
-1.059, -6.906e-5
-1.058, -6.893e-5
-1.057, -7.003e-5
-1.056, -7.096e-5
-1.055, -7.137e-5
-1.054, -7.129e-5
-1.053, -7.114e-5
-1.052, -7.215e-5
-1.051, -7.301e-5
-1.050, -7.343e-5
-1.049, -7.411e-5
-1.048, -7.327e-5
-1.047, -7.453e-5
-1.046, -7.579e-5
-1.045, -7.625e-5
-1.044, -7.625e-5
-1.043, -7.646e-5
-1.042, -7.736e-5
-1.041, -7.864e-5
-1.040, -7.902e-5
-1.039, -7.919e-5
-1.038, -7.947e-5
-1.037, -8.032e-5
-1.036, -8.196e-5
-1.035, -8.252e-5
-1.034, -8.277e-5
-1.033, -8.308e-5
-1.032, -8.375e-5
-1.031, -8.536e-5
-1.030, -8.623e-5
-1.029, -8.627e-5
-1.028, -8.688e-5
-1.027, -8.785e-5
-1.026, -8.963e-5
-1.025, -9.069e-5
-1.024, -9.098e-5
-1.023, -9.119e-5
-1.022, -9.267e-5
-1.021, -9.402e-5
-1.020, -9.523e-5
-1.019, -9.585e-5
-1.018, -9.626e-5
-1.017, -9.786e-5
-1.016, -9.936e-5
-1.015, -1.004e-4
-1.014, -1.013e-4
-1.013, -1.018e-4
-1.012, -1.036e-4
-1.011, -1.055e-4
-1.010, -1.068e-4
-1.009, -1.076e-4
-1.008, -1.084e-4
-1.007, -1.101e-4
-1.006, -1.123e-4
-1.005, -1.135e-4
-1.004, -1.148e-4
-1.003, -1.162e-4
-1.002, -1.175e-4
-1.001, -1.201e-4
