Potential V vs RHE, Current mA cm-2
0.013299999999999867,-0.48199213986401795
0.012299999999999978,-2.1828995356917518
0.011299999999999866,-3.5353635383627267
0.010299999999999976,-4.712403339850438
0.009299999999999864,-5.672992312458796
0.008299999999999974,-6.500598422879844
0.007299999999999862,-7.199465805013171
0.006299999999999972,-7.809206375255003
0.00529999999999986,-8.288793505909249
0.0042999999999999705,-8.769795347863363
0.0032999999999998586,-9.11781432763016
0.0022999999999999687,-9.467248018696827
0.0012999999999998568,-9.772825659467674
0.00029999999999996696,-10.034547249942705
-0.000700000000000145,-10.25241279012192
-0.0017000000000000348,-10.42642228000532
-0.0027000000000001467,-10.601846481188586
-0.0037000000000000366,-10.819712021367803
-0.0047000000000001485,-10.993721511251199
-0.005700000000000038,-11.123874950838783
-0.00670000000000015,-11.299299152022046
-0.00770000000000004,-11.42945259160963
-0.008700000000000152,-11.517164692201263
-0.009700000000000042,-11.604876792792895
-0.010700000000000154,-11.73503023238048
-0.011700000000000044,-11.778886282676295
-0.012700000000000156,-11.82274233297211
-0.013700000000000045,-11.86659838326793
-0.014700000000000157,-11.952895772559694
-0.015700000000000047,-11.996751822855511
-0.01670000000000016,-12.084463923447142
-0.01770000000000005,-12.12831997374296
-0.01870000000000016,-12.170761312738911
-0.01970000000000005,-12.258473413330542
-0.020700000000000163,-12.302329463626359
-0.021700000000000053,-12.390041564217992
-0.022700000000000164,-12.432482903213943
-0.023700000000000054,-12.476338953509758
-0.024700000000000166,-12.476338953509758
-0.025700000000000056,-12.520195003805576
-0.026700000000000168,-12.520195003805576
-0.027700000000000058,-12.520195003805576
-0.02870000000000017,-12.520195003805576
-0.02970000000000006,-12.56405105410139
-0.03070000000000017,-12.56405105410139
-0.03170000000000006,-12.56405105410139
-0.03270000000000017,-12.607907104397206
-0.03370000000000006,-12.607907104397206
-0.034700000000000175,-12.651763154693022
-0.035700000000000065,-12.651763154693022
-0.03670000000000018,-12.694204493688973
-0.03770000000000007,-12.694204493688973
-0.03870000000000018,-12.73806054398479
-0.03970000000000007,-12.73806054398479
-0.04070000000000018,-12.73806054398479
-0.04170000000000007,-12.781916594280606
-0.04270000000000018,-12.781916594280606
-0.04370000000000007,-12.781916594280606
-0.044700000000000184,-12.781916594280606
-0.045700000000000074,-12.781916594280606
-0.046700000000000186,-12.781916594280606
-0.047700000000000076,-12.825772644576423
-0.04870000000000019,-12.825772644576423
-0.04970000000000008,-12.869628694872238
-0.05070000000000019,-12.913484745168056
-0.05170000000000008,-12.99978213445982
-0.05270000000000019,-12.99978213445982
-0.05370000000000008,-13.043638184755638
-0.05470000000000019,-13.087494235051453
-0.05570000000000008,-13.087494235051453
-0.056700000000000195,-13.087494235051453
-0.057700000000000085,-13.087494235051453
-0.058700000000000196,-13.043638184755638
-0.059700000000000086,-13.043638184755638
-0.0607000000000002,-13.043638184755638
-0.06170000000000009,-13.087494235051453
-0.0627000000000002,-13.13135028534727
-0.06370000000000009,-13.13135028534727
-0.0647000000000002,-13.217647674639037
-0.06570000000000009,-13.217647674639037
-0.0667000000000002,-13.261503724934855
-0.0677000000000001,-13.261503724934855
-0.0687000000000002,-13.30535977523067
-0.0697000000000001,-13.30535977523067
-0.07070000000000021,-13.30535977523067
-0.0717000000000001,-13.30535977523067
-0.07270000000000021,-13.261503724934855
-0.0737000000000001,-13.30535977523067
-0.07470000000000021,-13.30535977523067
-0.0757000000000001,-13.30535977523067
-0.07670000000000021,-13.30535977523067
-0.0777000000000001,-13.349215825526485
-0.07870000000000021,-13.3930718758223
-0.0797000000000001,-13.349215825526485
-0.08070000000000022,-13.3930718758223
-0.0817000000000001,-13.3930718758223
-0.08270000000000022,-13.3930718758223
-0.08370000000000011,-13.3930718758223
-0.08470000000000022,-13.3930718758223
-0.08570000000000011,-13.3930718758223
-0.08670000000000022,-13.349215825526485
-0.08770000000000011,-13.349215825526485
-0.08870000000000022,-13.30535977523067
-0.08970000000000011,-13.30535977523067
-0.09070000000000022,-13.30535977523067
-0.09170000000000011,-13.30535977523067
-0.09270000000000023,-13.30535977523067
-0.09370000000000012,-13.30535977523067
-0.09470000000000023,-13.349215825526485
-0.09570000000000012,-13.3930718758223
-0.09670000000000023,-13.436927926118118
-0.09770000000000012,-13.47936926511407
-0.09870000000000023,-13.47936926511407
-0.09970000000000012,-13.47936926511407
-0.10070000000000023,-13.47936926511407
-0.10170000000000012,-13.47936926511407
-0.10270000000000024,-13.436927926118118
-0.10370000000000013,-13.436927926118118
-0.10470000000000024,-13.3930718758223
-0.10570000000000013,-13.3930718758223
-0.10670000000000024,-13.3930718758223
-0.10770000000000013,-13.3930718758223
-0.10870000000000024,-13.436927926118118
-0.10970000000000013,-13.3930718758223
-0.11070000000000024,-13.436927926118118
-0.11170000000000013,-13.436927926118118
-0.11270000000000002,-13.436927926118118
-0.11370000000000013,-13.436927926118118
-0.11470000000000002,-13.436927926118118
-0.11570000000000014,-13.436927926118118
-0.11670000000000003,-13.3930718758223
-0.11770000000000014,-13.349215825526485
-0.11870000000000003,-13.349215825526485
-0.11970000000000014,-13.30535977523067
-0.12070000000000003,-13.30535977523067
-0.12170000000000014,-13.30535977523067
-0.12270000000000003,-13.30535977523067
-0.12370000000000014,-13.30535977523067
-0.12470000000000003,-13.349215825526485
-0.12570000000000014,-13.3930718758223
-0.12670000000000003,-13.3930718758223
-0.12770000000000015,-13.3930718758223
-0.12870000000000004,-13.3930718758223
-0.12970000000000015,-13.3930718758223
-0.13070000000000004,-13.3930718758223
-0.13170000000000015,-13.3930718758223
-0.13270000000000004,-13.3930718758223
-0.13370000000000015,-13.3930718758223
-0.13470000000000004,-13.3930718758223
-0.13570000000000015,-13.3930718758223
-0.13670000000000004,-13.3930718758223
-0.13770000000000016,-13.3930718758223
-0.13870000000000005,-13.436927926118118
-0.13970000000000016,-13.436927926118118
-0.14070000000000005,-13.436927926118118
-0.14170000000000016,-13.47936926511407
-0.14270000000000005,-13.47936926511407
-0.14370000000000016,-13.47936926511407
-0.14470000000000005,-13.47936926511407
-0.14570000000000016,-13.436927926118118
-0.14670000000000005,-13.3930718758223
-0.14770000000000016,-13.3930718758223
-0.14870000000000005,-13.30535977523067
-0.14970000000000017,-13.261503724934855
-0.15070000000000006,-13.261503724934855
-0.15170000000000017,-13.217647674639037
-0.15270000000000006,-13.261503724934855
-0.15370000000000017,-13.261503724934855
-0.15470000000000006,-13.261503724934855
-0.15570000000000017,-13.261503724934855
-0.15670000000000006,-13.261503724934855
-0.15770000000000017,-13.261503724934855
-0.15870000000000006,-13.261503724934855
-0.15970000000000018,-13.261503724934855
-0.16070000000000007,-13.261503724934855
-0.16170000000000018,-13.261503724934855
-0.16270000000000007,-13.261503724934855
-0.16370000000000018,-13.261503724934855
-0.16470000000000007,-13.261503724934855
-0.16570000000000018,-13.261503724934855
-0.16670000000000007,-13.261503724934855
-0.16770000000000018,-13.261503724934855
-0.16870000000000007,-13.30535977523067
-0.16970000000000018,-13.30535977523067
-0.17070000000000007,-13.30535977523067
-0.17170000000000019,-13.349215825526485
-0.17270000000000008,-13.349215825526485
-0.1737000000000002,-13.3930718758223
-0.17470000000000008,-13.349215825526485
-0.1757000000000002,-13.349215825526485
-0.17670000000000008,-13.349215825526485
-0.1777000000000002,-13.349215825526485
-0.17870000000000008,-13.30535977523067
-0.1797000000000002,-13.261503724934855
-0.18070000000000008,-13.261503724934855
-0.1817000000000002,-13.217647674639037
-0.18270000000000008,-13.261503724934855
-0.1837000000000002,-13.261503724934855
-0.1847000000000001,-13.30535977523067
-0.1857000000000002,-13.349215825526485
-0.1867000000000001,-13.349215825526485
-0.1877000000000002,-13.3930718758223
-0.1887000000000001,-13.3930718758223
-0.1897000000000002,-13.3930718758223
-0.1907000000000001,-13.3930718758223
-0.1917000000000001,-13.349215825526485
-0.19269999999999998,-13.349215825526485
-0.1937000000000001,-13.349215825526485
-0.19469999999999998,-13.349215825526485
-0.1957000000000001,-13.349215825526485
-0.19669999999999999,-13.349215825526485
-0.1977000000000001,-13.349215825526485
-0.1987,-13.3930718758223
-0.1997000000000001,-13.3930718758223
-0.2007,-13.3930718758223
-0.2017000000000001,-13.3930718758223
-0.2027,-13.3930718758223
-0.2037000000000001,-13.3930718758223
-0.2047,-13.3930718758223
-0.2057000000000001,-13.349215825526485
-0.2067,-13.349215825526485
-0.2077000000000001,-13.30535977523067
-0.2087,-13.30535977523067
-0.2097000000000001,-13.261503724934855
-0.2107,-13.261503724934855
-0.2117000000000001,-13.261503724934855
-0.2127,-13.217647674639037
-0.2137000000000001,-13.261503724934855
-0.2147,-13.261503724934855
-0.2157000000000001,-13.30535977523067
-0.2167,-13.349215825526485
-0.21770000000000012,-13.349215825526485
-0.2187,-13.349215825526485
-0.21970000000000012,-13.349215825526485
-0.2207,-13.349215825526485
-0.22170000000000012,-13.3930718758223
-0.2227,-13.3930718758223
-0.22370000000000012,-13.349215825526485
-0.2247,-13.349215825526485
-0.22570000000000012,-13.3930718758223
-0.2267,-13.349215825526485
-0.22770000000000012,-13.3930718758223
-0.22870000000000001,-13.436927926118118
-0.22970000000000013,-13.436927926118118
-0.23070000000000002,-13.47936926511407
-0.23170000000000013,-13.47936926511407
-0.23270000000000002,-13.523225315409885
-0.23370000000000013,-13.567081365705702
-0.23470000000000002,-13.567081365705702
-0.23570000000000013,-13.567081365705702
-0.23670000000000002,-13.567081365705702
-0.2376999999999999,-13.523225315409885
-0.23870000000000002,-13.567081365705702
-0.2396999999999999,-13.523225315409885
-0.24070000000000003,-13.523225315409885
-0.24169999999999991,-13.567081365705702
-0.24270000000000003,-13.523225315409885
-0.24369999999999992,-13.567081365705702
-0.24470000000000003,-13.567081365705702
-0.24569999999999992,-13.610937416001518
-0.24670000000000003,-13.610937416001518
-0.24769999999999992,-13.610937416001518
-0.24870000000000003,-13.610937416001518
-0.24969999999999992,-13.610937416001518
-0.25070000000000003,-13.610937416001518
-0.2516999999999999,-13.567081365705702
-0.25270000000000004,-13.567081365705702
-0.2536999999999999,-13.523225315409885
-0.25470000000000004,-13.523225315409885
-0.2556999999999999,-13.523225315409885
-0.25670000000000004,-13.523225315409885
-0.25769999999999993,-13.523225315409885
-0.25870000000000004,-13.523225315409885
-0.25969999999999993,-13.567081365705702
-0.26070000000000004,-13.567081365705702
-0.26169999999999993,-13.610937416001518
-0.26270000000000004,-13.610937416001518
-0.26369999999999993,-13.610937416001518
-0.26470000000000005,-13.610937416001518
-0.26569999999999994,-13.610937416001518
-0.26670000000000005,-13.610937416001518
-0.26769999999999994,-13.610937416001518
-0.26870000000000005,-13.567081365705702
-0.26969999999999994,-13.610937416001518
-0.27070000000000005,-13.610937416001518
-0.27169999999999994,-13.610937416001518
-0.27270000000000005,-13.610937416001518
-0.27369999999999994,-13.654793466297335
-0.27470000000000006,-13.698649516593148
-0.27569999999999995,-13.741090855589102
-0.27670000000000006,-13.784946905884919
-0.27769999999999995,-13.784946905884919
-0.27870000000000006,-13.828802956180734
-0.27969999999999995,-13.828802956180734
-0.28070000000000006,-13.828802956180734
-0.28169999999999995,-13.872659006476551
-0.28270000000000006,-13.872659006476551
-0.28369999999999995,-13.916515056772363
-0.28470000000000006,-13.916515056772363
-0.28569999999999995,-14.002812446064135
-0.28670000000000007,-14.046668496359947
-0.28769999999999996,-14.090524546655764
-0.28870000000000007,-14.13438059695158
-0.28969999999999996,-14.175407224647667
-0.29070000000000007,-14.217848563643619
-0.29169999999999996,-14.26028990263957
-0.29270000000000007,-14.30273124163552
-0.29369999999999996,-14.30273124163552
-0.2947000000000001,-14.30273124163552
-0.29569999999999996,-14.30273124163552
-0.2967000000000001,-14.30273124163552
-0.29769999999999996,-14.26028990263957
-0.2987000000000001,-14.217848563643619
-0.29969999999999997,-14.26028990263957
-0.3007000000000001,-14.26028990263957
-0.30169999999999997,-14.26028990263957
-0.3027000000000001,-14.26028990263957
-0.30369999999999997,-14.30273124163552
-0.3047000000000001,-14.30273124163552
-0.30569999999999997,-14.345172580631472
-0.3067000000000001,-14.401761032626075
-0.3077,-14.444202371622024
-0.3087000000000001,-14.444202371622024
-0.3097,-14.486643710617974
-0.3107000000000001,-14.486643710617974
-0.3117,-14.486643710617974
-0.3127000000000001,-14.57152638860988
-0.3137,-14.57152638860988
-0.3147000000000001,-14.61396772760583
-0.3157,-14.69885040559773
-0.3167000000000001,-14.741291744593681
-0.3177,-14.826174422585586
-0.3187000000000001,-14.925204213576137
-0.3197,-15.01008689156804
-0.3207000000000001,-15.094969569559943
-0.3217,-15.222293586547794
-0.3227000000000001,-15.307176264539699
-0.3237,-15.3920589425316
-0.3247000000000001,-15.448647394526201
-0.3257,-15.533530072518102
-0.3267000000000001,-15.575971411514052
-0.3277,-15.575971411514052
-0.3287000000000001,-15.660854089505953
-0.3297,-15.70329542850191
-0.3307000000000001,-15.74573676749786
-0.3317,-15.78817810649381
-0.3327000000000001,-15.830619445489761
-0.3337,-15.87306078448571
-0.3347000000000001,-15.972090575476265
-0.3357,-16.056973253468165
-0.3367000000000001,-16.099414592464115
-0.3377,-16.141855931460068
-0.3387000000000001,-16.184297270456018
-0.3397,-16.22673860945197
-0.3407000000000001,-16.269179948447924
-0.3417,-16.311621287443874
-0.3427000000000001,-16.354062626439823
-0.3437,-16.396503965435777
-0.3447000000000001,-16.495533756426326
-0.3457,-16.580416434418233
-0.3467000000000001,-16.622857773414182
-0.3477,-16.70774045140608
-0.3487000000000001,-16.835064468393938
-0.3497,-16.962388485381787
-0.3507000000000001,-17.103859615368293
-0.3517,-17.188742293360193
-0.3527000000000001,-17.316066310348052
-0.3537,-17.4433903273359
-0.3547000000000001,-17.584861457322408
-0.3557,-17.75462681330621
-0.35670000000000013,-17.881950830294063
-0.3577,-17.966833508285966
-0.35870000000000013,-18.15074597726842
-0.3597,-18.27806999425627
-0.36070000000000013,-18.40539401124413
-0.3617,-18.53271802823198
-0.3626999999999999,-18.674189158218486
-0.3637,-18.843954514202288
-0.3646999999999999,-18.97127853119014
-0.3657,-19.155191000172596
-0.3666999999999999,-19.28251501716045
-0.3677,-19.409839034148305
-0.3686999999999999,-19.579604390132108
-0.36970000000000003,-19.721075520118614
-0.3706999999999999,-19.848399537106463
-0.37170000000000003,-19.97572355409432
-0.3726999999999999,-20.06060623208622
-0.37370000000000003,-20.202077362072725
-0.3746999999999999,-20.329401379060574
-0.37570000000000003,-20.414284057052477
-0.3766999999999999,-20.541608074040333
-0.37770000000000004,-20.72552054302279
-0.3786999999999999,-20.89528589900659
-0.37970000000000004,-21.065051254990397
-0.3806999999999999,-21.248963723972853
-0.38170000000000004,-21.461170418952605
-0.38269999999999993,-21.58849443594046
-0.38370000000000004,-21.772406904922917
-0.38469999999999993,-21.98461359990267
-0.38570000000000004,-22.069496277894572
-0.38669999999999993,-22.253408746877028
-0.38770000000000004,-22.42317410286083
-0.38869999999999993,-22.550498119848687
-0.38970000000000005,-22.72026347583249
-0.39069999999999994,-22.946617283810895
-0.39170000000000005,-23.1163826397947
-0.39269999999999994,-23.342736447773106
-0.39370000000000005,-23.597384481748815
-0.39469999999999994,-23.823738289727217
-0.39570000000000005,-24.078386323702922
-0.39669999999999994,-24.34718147067728
-0.39770000000000005,-24.601829504652986
-0.39869999999999994,-24.870624651627345
-0.39970000000000006,-25.12527268560305
-0.40069999999999995,-25.337479380582806
-0.40170000000000006,-25.60627452755716
-0.40269999999999995,-25.81848122253692
-0.40370000000000006,-26.087276369511276
-0.40469999999999995,-26.29948306449103
-0.40570000000000006,-26.568278211465387
-0.40669999999999995,-26.822926245441096
-0.40770000000000006,-27.091721392415455
-0.40869999999999995,-27.38881076538711
-0.40970000000000006,-27.65760591236147
-0.41069999999999995,-27.912253946337174
-0.41170000000000007,-28.22349043230748
-0.41269999999999996,-28.435697127287238
-0.41370000000000007,-28.746933613257543
-0.41469999999999996,-29.001581647233255
-0.41570000000000007,-29.27037679420761
-0.41669999999999996,-29.525024828183312
-0.41770000000000007,-29.836261314153624
-0.41869999999999996,-30.147497800123933
-0.4197000000000001,-30.487028512091538
-0.42069999999999996,-30.8407063370578
-0.4217000000000001,-31.137795710029454
-0.42269999999999996,-31.533914873991666
-0.4237000000000001,-31.887592698957924
-0.42469999999999997,-32.24127052392419
-0.4257000000000001,-32.62324257488775
-0.42669999999999997,-33.06180307784591
-0.4277000000000001,-33.45792224180811
-0.42869999999999997,-33.85404140577033
-0.4297000000000001,-34.236013456733886
-0.43069999999999997,-34.632132620696105
-0.4317000000000001,-35.02825178465831
-0.4327,-35.42437094862052
-0.4337000000000001,-35.806342999584075
-0.4347,-36.16002082455034
-0.4357000000000001,-36.55613998851254
-0.4367,-36.89567070048016
-0.4377000000000001,-37.334231203438314
-0.4387,-37.73035036740053
-0.4397000000000001,-38.08402819236679
-0.4407,-38.522588695324956
-0.4417000000000001,-38.90456074628851
-0.4427,-39.34312124924667
-0.4437000000000001,-39.739240413208876
-0.4447,-40.135359577171094
-0.4457000000000001,-40.616361419125205
-0.4467,-41.04077480908471
-0.4477000000000001,-41.47933531204288
-0.4487,-41.91789581500104
-0.4497000000000001,-42.39889765695515
-0.4507,-42.87989949890926
-0.4517000000000001,-43.36090134086337
-0.4527,-43.88434452181344
-0.4537000000000001,-44.45022904175945
-0.4547,-44.97367222270952
-0.4557000000000001,-45.53955674265553
-0.4567,-46.147882601597495
-0.4577000000000001,-46.713767121543505
-0.4587,-47.32209298048547
-0.4597000000000001,-47.8879775004315
-0.4607,-48.45386202037751
-0.4617000000000001,-49.03389365332217
-0.4627,-49.557336834272235
-0.4637000000000001,-50.12322135421825
-0.4647,-50.68910587416426
-0.4657000000000001,-51.25499039411028
-0.4667,-51.86331625305225
-0.4677000000000001,-52.42920077299826
-0.4687,-52.995085292944275
-0.4697000000000001,-53.56096981289029
-0.4707,-54.1268543328363
-0.4717000000000001,-54.791768643772876
-0.4727,-55.31521182472294
-0.4737000000000001,-55.9235376836649
-0.4747,-56.489422203610914
-0.4757000000000001,-57.097748062552874
-0.4767,-57.66363258249889
-0.4777000000000001,-58.31439978043681
-0.4787,-58.92272563937878
-0.4797000000000001,-59.54519861131939
-0.4807,-60.19596580925731
-0.48170000000000013,-60.84673300719523
-0.4827,-61.49750020513315
-0.48370000000000013,-62.16241451606972
-0.4847,-62.81318171400764
-0.48570000000000013,-63.54883158993744
-0.4867,-64.29862857886593
-0.4876999999999999,-64.99183711579978
-0.4887,-65.76992833072556
-0.4896999999999999,-66.51972531965401
-0.4907,-67.2978165345798
-0.4916999999999999,-68.13249620150016
-0.4927,-68.86814607742998
-0.4936999999999999,-69.6603844053544
-0.49470000000000003,-70.48091695927613
-0.4956999999999999,-71.27315528720055
-0.49670000000000003,-72.15027629311687
-0.4976999999999999,-72.97080884703858
-0.49870000000000003,-73.89037119195086
-0.4996999999999999,-74.80993353686314
-0.5007,-75.6729074297808
-0.5016999999999999,-76.5924697746931
-0.5027,-77.51203211960537
-0.5036999999999999,-78.38915312552167
-0.5047,-79.25212701843935
-0.5056999999999999,-80.08680668535972
-0.5067,-80.9497805782774
