Potential V vs RHE, Current mA cm-2
0.013299999999999867,-0.48199213986401795
0.012299999999999978,-2.052746096104168
0.011299999999999866,-3.1859298472960624
0.010299999999999976,-4.102662769608606
0.009299999999999864,-4.843971490737885
0.008299999999999974,-5.453712060979717
0.007299999999999862,-5.9347139029338285
0.006299999999999972,-6.326588932996443
0.00529999999999986,-6.632166573767292
0.0042999999999999705,-6.850032113946507
0.0032999999999998586,-7.067897654125724
0.0022999999999999687,-7.243321855308987
0.0012999999999998568,-7.4173313451923875
0.00029999999999996696,-7.5474847847799715
-0.000700000000000145,-7.679052935667419
-0.0017000000000000348,-7.809206375255003
-0.0027000000000001467,-7.940774526142452
-0.0037000000000000366,-8.070927965730034
-0.0047000000000001485,-8.158640066321666
-0.005700000000000038,-8.202496116617484
-0.00670000000000015,-8.246352166913299
-0.00770000000000004,-8.288793505909249
-0.008700000000000152,-8.332649556205066
-0.009700000000000042,-8.376505606500881
-0.010700000000000154,-8.464217707092514
-0.011700000000000044,-8.508073757388331
-0.012700000000000156,-8.594371146680096
-0.013700000000000045,-8.638227196975913
-0.014700000000000157,-8.638227196975913
-0.015700000000000047,-8.638227196975913
-0.01670000000000016,-8.638227196975913
-0.01770000000000005,-8.638227196975913
-0.01870000000000016,-8.638227196975913
-0.01970000000000005,-8.638227196975913
-0.020700000000000163,-8.638227196975913
-0.021700000000000053,-8.725939297567548
-0.022700000000000164,-8.769795347863363
-0.023700000000000054,-8.769795347863363
-0.024700000000000166,-8.769795347863363
-0.025700000000000056,-8.769795347863363
-0.026700000000000168,-8.725939297567548
-0.027700000000000058,-8.725939297567548
-0.02870000000000017,-8.725939297567548
-0.02970000000000006,-8.725939297567548
-0.03070000000000017,-8.769795347863363
-0.03170000000000006,-8.769795347863363
-0.03270000000000017,-8.812236686859313
-0.03370000000000006,-8.85609273715513
-0.034700000000000175,-8.85609273715513
-0.035700000000000065,-8.899948787450944
-0.03670000000000018,-8.85609273715513
-0.03770000000000007,-8.812236686859313
-0.03870000000000018,-8.85609273715513
-0.03970000000000007,-8.812236686859313
-0.04070000000000018,-8.899948787450944
-0.04170000000000007,-8.899948787450944
-0.04270000000000018,-8.943804837746763
-0.04370000000000007,-8.987660888042578
-0.044700000000000184,-8.987660888042578
-0.045700000000000074,-8.987660888042578
-0.046700000000000186,-8.987660888042578
-0.047700000000000076,-8.987660888042578
-0.04870000000000019,-8.987660888042578
-0.04970000000000008,-8.987660888042578
-0.05070000000000019,-9.031516938338395
-0.05170000000000008,-9.031516938338395
-0.05270000000000019,-9.073958277334345
-0.05370000000000008,-9.073958277334345
-0.05470000000000019,-9.073958277334345
-0.05570000000000008,-9.073958277334345
-0.056700000000000195,-9.031516938338395
-0.057700000000000085,-9.031516938338395
-0.058700000000000196,-8.987660888042578
-0.059700000000000086,-8.987660888042578
-0.0607000000000002,-9.031516938338395
-0.06170000000000009,-9.031516938338395
-0.0627000000000002,-9.073958277334345
-0.06370000000000009,-9.11781432763016
-0.0647000000000002,-9.11781432763016
-0.06570000000000009,-9.073958277334345
-0.0667000000000002,-9.031516938338395
-0.0677000000000001,-8.987660888042578
-0.0687000000000002,-8.987660888042578
-0.0697000000000001,-8.987660888042578
-0.07070000000000021,-8.987660888042578
-0.0717000000000001,-9.031516938338395
-0.07270000000000021,-9.073958277334345
-0.0737000000000001,-9.073958277334345
-0.07470000000000021,-9.073958277334345
-0.0757000000000001,-9.073958277334345
-0.07670000000000021,-9.073958277334345
-0.0777000000000001,-9.073958277334345
-0.07870000000000021,-9.073958277334345
-0.0797000000000001,-9.073958277334345
-0.08070000000000022,-9.11781432763016
-0.0817000000000001,-9.161670377925978
-0.08270000000000022,-9.205526428221793
-0.08370000000000011,-9.24938247851761
-0.08470000000000022,-9.293238528813426
-0.08570000000000011,-9.24938247851761
-0.08670000000000022,-9.24938247851761
-0.08770000000000011,-9.205526428221793
-0.08870000000000022,-9.205526428221793
-0.08970000000000011,-9.205526428221793
-0.09070000000000022,-9.205526428221793
-0.09170000000000011,-9.205526428221793
-0.09270000000000023,-9.24938247851761
-0.09370000000000012,-9.24938247851761
-0.09470000000000023,-9.205526428221793
-0.09570000000000012,-9.161670377925978
-0.09670000000000023,-9.11781432763016
-0.09770000000000012,-9.073958277334345
-0.09870000000000023,-9.073958277334345
-0.09970000000000012,-9.073958277334345
-0.10070000000000023,-9.073958277334345
-0.10170000000000012,-9.11781432763016
-0.10270000000000024,-9.161670377925978
-0.10370000000000013,-9.161670377925978
-0.10470000000000024,-9.161670377925978
-0.10570000000000013,-9.161670377925978
-0.10670000000000024,-9.11781432763016
-0.10770000000000013,-9.11781432763016
-0.10870000000000024,-9.11781432763016
-0.10970000000000013,-9.11781432763016
-0.11070000000000024,-9.161670377925978
-0.11170000000000013,-9.205526428221793
-0.11270000000000002,-9.24938247851761
-0.11370000000000013,-9.24938247851761
-0.11470000000000002,-9.24938247851761
-0.11570000000000014,-9.24938247851761
-0.11670000000000003,-9.24938247851761
-0.11770000000000014,-9.24938247851761
-0.11870000000000003,-9.24938247851761
-0.11970000000000014,-9.24938247851761
-0.12070000000000003,-9.293238528813426
-0.12170000000000014,-9.293238528813426
-0.12270000000000003,-9.335679867809377
-0.12370000000000014,-9.379535918105192
-0.12470000000000003,-9.335679867809377
-0.12570000000000014,-9.335679867809377
-0.12670000000000003,-9.293238528813426
-0.12770000000000015,-9.24938247851761
-0.12870000000000004,-9.205526428221793
-0.12970000000000015,-9.161670377925978
-0.13070000000000004,-9.161670377925978
-0.13170000000000015,-9.161670377925978
-0.13270000000000004,-9.161670377925978
-0.13370000000000015,-9.161670377925978
-0.13470000000000004,-9.11781432763016
-0.13570000000000015,-9.073958277334345
-0.13670000000000004,-9.073958277334345
-0.13770000000000016,-9.031516938338395
-0.13870000000000005,-9.031516938338395
-0.13970000000000016,-9.031516938338395
-0.14070000000000005,-9.073958277334345
-0.14170000000000016,-9.11781432763016
-0.14270000000000005,-9.161670377925978
-0.14370000000000016,-9.205526428221793
-0.14470000000000005,-9.24938247851761
-0.14570000000000016,-9.24938247851761
-0.14670000000000005,-9.293238528813426
-0.14770000000000016,-9.293238528813426
-0.14870000000000005,-9.293238528813426
-0.14970000000000017,-9.293238528813426
-0.15070000000000006,-9.335679867809377
-0.15170000000000017,-9.335679867809377
-0.15270000000000006,-9.379535918105192
-0.15370000000000017,-9.379535918105192
-0.15470000000000006,-9.335679867809377
-0.15570000000000017,-9.293238528813426
-0.15670000000000006,-9.24938247851761
-0.15770000000000017,-9.161670377925978
-0.15870000000000006,-9.161670377925978
-0.15970000000000018,-9.11781432763016
-0.16070000000000007,-9.073958277334345
-0.16170000000000018,-9.073958277334345
-0.16270000000000007,-9.073958277334345
-0.16370000000000018,-9.073958277334345
-0.16470000000000007,-9.073958277334345
-0.16570000000000018,-9.073958277334345
-0.16670000000000007,-9.031516938338395
-0.16770000000000018,-8.987660888042578
-0.16870000000000007,-8.987660888042578
-0.16970000000000018,-9.031516938338395
-0.17070000000000007,-9.031516938338395
-0.17170000000000019,-9.073958277334345
-0.17270000000000008,-9.161670377925978
-0.1737000000000002,-9.205526428221793
-0.17470000000000008,-9.205526428221793
-0.1757000000000002,-9.205526428221793
-0.17670000000000008,-9.205526428221793
-0.1777000000000002,-9.161670377925978
-0.17870000000000008,-9.161670377925978
-0.1797000000000002,-9.161670377925978
-0.18070000000000008,-9.161670377925978
-0.1817000000000002,-9.205526428221793
-0.18270000000000008,-9.205526428221793
-0.1837000000000002,-9.205526428221793
-0.1847000000000001,-9.205526428221793
-0.1857000000000002,-9.161670377925978
-0.1867000000000001,-9.11781432763016
-0.1877000000000002,-9.073958277334345
-0.1887000000000001,-9.031516938338395
-0.1897000000000002,-9.031516938338395
-0.1907000000000001,-9.031516938338395
-0.1917000000000001,-9.031516938338395
-0.19269999999999998,-9.073958277334345
-0.1937000000000001,-9.073958277334345
-0.19469999999999998,-9.031516938338395
-0.1957000000000001,-9.073958277334345
-0.19669999999999999,-9.031516938338395
-0.1977000000000001,-9.031516938338395
-0.1987,-9.031516938338395
-0.1997000000000001,-9.031516938338395
-0.2007,-9.031516938338395
-0.2017000000000001,-9.11781432763016
-0.2027,-9.11781432763016
-0.2037000000000001,-9.161670377925978
-0.2047,-9.161670377925978
-0.2057000000000001,-9.11781432763016
-0.2067,-9.11781432763016
-0.2077000000000001,-9.073958277334345
-0.2087,-9.031516938338395
-0.2097000000000001,-9.031516938338395
-0.2107,-9.031516938338395
-0.2117000000000001,-9.073958277334345
-0.2127,-9.073958277334345
-0.2137000000000001,-9.073958277334345
-0.2147,-9.073958277334345
-0.2157000000000001,-9.11781432763016
-0.2167,-9.073958277334345
-0.21770000000000012,-9.073958277334345
-0.2187,-9.031516938338395
-0.21970000000000012,-9.073958277334345
-0.2207,-9.11781432763016
-0.22170000000000012,-9.161670377925978
-0.2227,-9.205526428221793
-0.22370000000000012,-9.24938247851761
-0.2247,-9.293238528813426
-0.22570000000000012,-9.24938247851761
-0.2267,-9.24938247851761
-0.22770000000000012,-9.24938247851761
-0.22870000000000001,-9.24938247851761
-0.22970000000000013,-9.205526428221793
-0.23070000000000002,-9.24938247851761
-0.23170000000000013,-9.24938247851761
-0.23270000000000002,-9.293238528813426
-0.23370000000000013,-9.293238528813426
-0.23470000000000002,-9.293238528813426
-0.23570000000000013,-9.293238528813426
-0.23670000000000002,-9.205526428221793
-0.2376999999999999,-9.205526428221793
-0.23870000000000002,-9.205526428221793
-0.2396999999999999,-9.205526428221793
-0.24070000000000003,-9.205526428221793
-0.24169999999999991,-9.24938247851761
-0.24270000000000003,-9.24938247851761
-0.24369999999999992,-9.24938247851761
-0.24470000000000003,-9.293238528813426
-0.24569999999999992,-9.24938247851761
-0.24670000000000003,-9.205526428221793
-0.24769999999999992,-9.161670377925978
-0.24870000000000003,-9.161670377925978
-0.24969999999999992,-9.205526428221793
-0.25070000000000003,-9.205526428221793
-0.2516999999999999,-9.24938247851761
-0.25270000000000004,-9.293238528813426
-0.2536999999999999,-9.293238528813426
-0.25470000000000004,-9.335679867809377
-0.2556999999999999,-9.335679867809377
-0.25670000000000004,-9.335679867809377
-0.25769999999999993,-9.379535918105192
-0.25870000000000004,-9.379535918105192
-0.25969999999999993,-9.423391968401008
-0.26070000000000004,-9.467248018696827
-0.26169999999999993,-9.511104068992642
-0.26270000000000004,-9.55496011928846
-0.26369999999999993,-9.55496011928846
-0.26470000000000005,-9.55496011928846
-0.26569999999999994,-9.55496011928846
-0.26670000000000005,-9.55496011928846
-0.26769999999999994,-9.511104068992642
-0.26870000000000005,-9.511104068992642
-0.26969999999999994,-9.467248018696827
-0.27070000000000005,-9.467248018696827
-0.27169999999999994,-9.467248018696827
-0.27270000000000005,-9.511104068992642
-0.27369999999999994,-9.511104068992642
-0.27470000000000006,-9.511104068992642
-0.27569999999999995,-9.511104068992642
-0.27670000000000006,-9.511104068992642
-0.27769999999999995,-9.467248018696827
-0.27870000000000006,-9.467248018696827
-0.27969999999999995,-9.511104068992642
-0.28070000000000006,-9.55496011928846
-0.28169999999999995,-9.59740145828441
-0.28270000000000006,-9.685113558876042
-0.28369999999999995,-9.728969609171857
-0.28470000000000006,-9.772825659467674
-0.28569999999999995,-9.81668170976349
-0.28670000000000007,-9.81668170976349
-0.28769999999999996,-9.81668170976349
-0.28870000000000007,-9.81668170976349
-0.28969999999999996,-9.81668170976349
-0.29070000000000007,-9.85912304875944
-0.29169999999999996,-9.902979099055257
-0.29270000000000007,-9.946835149351072
-0.29369999999999996,-9.99069119964689
-0.2947000000000001,-9.99069119964689
-0.29569999999999996,-9.99069119964689
-0.2967000000000001,-9.99069119964689
-0.29769999999999996,-9.99069119964689
-0.2987000000000001,-9.946835149351072
-0.29969999999999997,-9.99069119964689
-0.3007000000000001,-10.034547249942705
-0.30169999999999997,-10.078403300238522
-0.3027000000000001,-10.164700689530287
-0.30369999999999997,-10.208556739826104
-0.3047000000000001,-10.25241279012192
-0.30569999999999997,-10.296268840417738
-0.3067000000000001,-10.25241279012192
-0.3077,-10.296268840417738
-0.3087000000000001,-10.296268840417738
-0.3097,-10.382566229709504
-0.3107000000000001,-10.42642228000532
-0.3117,-10.514134380596953
-0.3127000000000001,-10.601846481188586
-0.3137,-10.644287820184536
-0.3147000000000001,-10.731999920776168
-0.3157,-10.775855971071984
-0.3167000000000001,-10.819712021367803
-0.3177,-10.819712021367803
-0.3187000000000001,-10.906009410659568
-0.3197,-10.949865460955383
-0.3207000000000001,-10.993721511251199
-0.3217,-11.081433611842833
-0.3227000000000001,-11.123874950838783
-0.3237,-11.1677310011346
-0.3247000000000001,-11.255443101726232
-0.3257,-11.255443101726232
-0.3267000000000001,-11.299299152022046
-0.3277,-11.299299152022046
-0.3287000000000001,-11.343155202317865
-0.3297,-11.385596541313816
-0.3307000000000001,-11.473308641905447
-0.3317,-11.56102074249708
-0.3327000000000001,-11.691174182084664
-0.3337,-11.778886282676295
-0.3347000000000001,-11.86659838326793
-0.3357,-11.909039722263879
-0.3367000000000001,-11.952895772559694
-0.3377,-11.996751822855511
-0.3387000000000001,-12.084463923447142
-0.3397,-12.170761312738911
-0.3407000000000001,-12.258473413330542
-0.3417,-12.390041564217992
-0.3427000000000001,-12.520195003805576
-0.3437,-12.607907104397206
-0.3447000000000001,-12.73806054398479
-0.3457,-12.781916594280606
-0.3467000000000001,-12.869628694872238
-0.3477,-12.955926084164007
-0.3487000000000001,-13.043638184755638
-0.3497,-13.13135028534727
-0.3507000000000001,-13.261503724934855
-0.3517,-13.3930718758223
-0.3527000000000001,-13.523225315409885
-0.3537,-13.654793466297335
-0.3547000000000001,-13.741090855589102
-0.3557,-13.872659006476551
-0.35670000000000013,-13.960371107068182
-0.3577,-14.046668496359947
-0.35870000000000013,-14.13438059695158
-0.3597,-14.217848563643619
-0.36070000000000013,-14.30273124163552
-0.3617,-14.444202371622024
-0.3626999999999999,-14.61396772760583
-0.3637,-14.741291744593681
-0.3646999999999999,-14.868615761581536
-0.3657,-14.967645552572087
-0.3666999999999999,-15.137410908555893
-0.3677,-15.264734925543747
-0.3686999999999999,-15.448647394526201
-0.36970000000000003,-15.575971411514052
-0.3706999999999999,-15.78817810649381
-0.37170000000000003,-16.014531914472215
-0.3726999999999999,-16.184297270456018
-0.37370000000000003,-16.354062626439823
-0.3746999999999999,-16.580416434418233
-0.37570000000000003,-16.70774045140608
-0.3766999999999999,-16.877505807389888
-0.37770000000000004,-17.061418276372343
-0.3786999999999999,-17.188742293360193
-0.37970000000000004,-17.358507649344002
-0.3806999999999999,-17.542420118326454
-0.38170000000000004,-17.71218547431026
-0.38269999999999993,-17.924392169290012
-0.38370000000000004,-18.06586329927652
-0.38469999999999993,-18.27806999425627
-0.38570000000000004,-18.40539401124413
-0.38669999999999993,-18.53271802823198
-0.38770000000000004,-18.716630497214435
-0.38869999999999993,-18.88639585319824
-0.38970000000000005,-19.112749661176647
-0.39069999999999994,-19.367397695152352
-0.39170000000000005,-19.579604390132108
-0.39269999999999994,-19.848399537106463
-0.39370000000000005,-20.06060623208622
-0.39469999999999994,-20.286960040064624
-0.39570000000000005,-20.541608074040333
-0.39669999999999994,-20.72552054302279
-0.39770000000000005,-20.93772723800254
-0.39869999999999994,-21.149933932982297
-0.39970000000000006,-21.418729079956652
-0.40069999999999995,-21.67337711393236
-0.40170000000000006,-21.94217226090672
-0.40269999999999995,-22.196820294882425
-0.40370000000000006,-22.46561544185678
-0.40469999999999995,-22.72026347583249
-0.40570000000000006,-22.989058622806844
-0.40669999999999995,-23.300295108777156
-0.40770000000000006,-23.55494314275286
-0.40869999999999995,-23.908620967719123
-0.40970000000000006,-24.20571034069078
-0.41069999999999995,-24.516946826661083
-0.41170000000000007,-24.870624651627345
-0.41269999999999996,-25.252596702590903
-0.41370000000000007,-25.563833188561212
-0.41469999999999996,-25.91751101352747
-0.41570000000000007,-26.21460038649913
-0.41669999999999996,-26.525836872469437
-0.41770000000000007,-26.822926245441096
-0.41869999999999996,-27.134162731411404
-0.4197000000000001,-27.487840556377662
-0.42069999999999996,-27.78492992934932
-0.4217000000000001,-28.18104909331153
-0.42269999999999996,-28.53472691827779
-0.4237000000000001,-28.8742576302454
-0.42469999999999997,-29.18549411621571
-0.4257000000000001,-29.525024828183312
-0.42669999999999997,-29.878702653149578
-0.4277000000000001,-30.232380478115836
-0.42869999999999997,-30.614352529079397
-0.4297000000000001,-31.010471693041605
-0.43069999999999997,-31.40659085700382
-0.4317000000000001,-31.84515135996197
-0.4327,-32.24127052392419
-0.4337000000000001,-32.62324257488775
-0.4347,-33.06180307784591
-0.4357000000000001,-33.50036358080407
-0.4367,-33.93892408376223
-0.4377000000000001,-34.377484586720385
-0.4387,-34.8018979766799
-0.4397000000000001,-35.282899818634014
-0.4407,-35.763901660588125
-0.4417000000000001,-36.20246216354629
-0.4427,-36.6834640055004
-0.4437000000000001,-37.164465847454515
-0.4447,-37.645467689408626
-0.4457000000000001,-38.08402819236679
-0.4467,-38.5650300343209
-0.4477000000000001,-38.98944342428042
-0.4487,-39.47044526623452
-0.4497000000000001,-39.95144710818864
-0.4507,-40.43244895014274
-0.4517000000000001,-40.99833347008877
-0.4527,-41.52177665103883
-0.4537000000000001,-42.04521983198889
-0.4547,-42.6111043519349
-0.4557000000000001,-43.134547532884966
-0.4567,-43.75702050482558
-0.4577000000000001,-44.36534636376755
-0.4587,-44.97367222270952
-0.4597000000000001,-45.666880759643384
-0.4607,-46.3176479575813
-0.4617000000000001,-46.982562268517874
-0.4627,-47.67577080545174
-0.4637000000000001,-48.2840966643937
-0.4647,-48.89242252333566
-0.4657000000000001,-49.557336834272235
-0.4667,-50.12322135421825
-0.4677000000000001,-50.73154721316022
-0.4687,-51.33987307210218
-0.4697000000000001,-51.90575759204819
-0.4707,-52.55652478998611
-0.4717000000000001,-53.22143910092268
-0.4727,-53.872206298860604
-0.4737000000000001,-54.43809081880661
-0.4747,-55.003975338752625
-0.4757000000000001,-55.56985985869864
-0.4767,-56.13574437864466
-0.4777000000000001,-56.70162889859067
-0.4787,-57.352396096528594
-0.4797000000000001,-58.017310407465146
-0.4807,-58.75296028339497
-0.48170000000000013,-59.44616882032884
-0.4827,-60.19596580925731
-0.48370000000000013,-61.01649836317903
-0.4847,-61.80873669110345
-0.48570000000000013,-62.58682790602922
-0.4867,-63.5063902509415
-0.4876999999999999,-64.38351125685783
-0.4887,-65.3030736017701
-0.4896999999999999,-66.12360615569182
-0.4907,-66.9582858226122
-0.4916999999999999,-67.82125971552985
-0.4927,-68.69838072144618
-0.4936999999999999,-69.53306038836655
-0.49470000000000003,-70.39603428128423
-0.4956999999999999,-71.27315528720055
-0.49670000000000003,-72.05124650212633
-0.4976999999999999,-72.84348483005074
-0.49870000000000003,-73.57913470598055
-0.4996999999999999,-74.37137303390499
-0.5007,-75.19190558782671
-0.5016999999999999,-76.06902659374302
-0.5027,-76.98858893865528
-0.5036999999999999,-77.80912149257702
-0.5047,-78.64380115949739
-0.5056999999999999,-79.47848082641775
-0.5067,-80.21413070234757
-0.5076999999999999,-81.04881036926795
-0.5087,-81.91178426218562
-0.5096999999999999,-82.8313466070979
-0.5107,-83.75090895201016
-0.5116999999999999,-84.6563241839238
-0.5127,-85.57588652883607
