Potential V vs RHE, Current mA cm-2
0.4132999999999999,0.0032976920399854
0.4122999999999999,0.001231364715402528
0.4112999999999999,0.0006715634540459329
0.4102999999999999,0.0003645711019752199
0.4092999999999999,0.0001706141827637234
0.4082999999999999,7.257468968307638e-06
0.4072999999999999,-0.00016028679027470865
0.4062999999999999,-0.0003361354048479327
0.4052999999999999,-0.0005063251742216966
0.4042999999999999,-0.0006402983343189156
0.4032999999999999,-0.0007366401738397246
0.4022999999999999,-0.0008567491631982661
0.4012999999999999,-0.0010088306279337576
0.4002999999999999,-0.0011596388524993705
0.3992999999999999,-0.001255839220890193
0.3982999999999999,-0.0013605278570802057
0.3972999999999999,-0.0014316878354634173
0.3962999999999999,-0.0015929649236480314
0.3952999999999999,-0.0017188742293360194
0.3942999999999999,-0.0017853656604296764
0.39329999999999987,-0.0018603453593225234
0.39229999999999987,-0.0019310809243157753
0.39129999999999987,-0.0020909433012005246
0.39029999999999987,-0.0021913878034909417
0.38929999999999987,-0.002246561544185678
0.38829999999999987,-0.0023257853769781205
0.38729999999999987,-0.002393691519371642
0.38629999999999987,-0.0025153566911600353
0.38529999999999986,-0.0026398512855481584
0.38429999999999986,-0.0026964397375427596
0.38329999999999986,-0.0027700047251357413
0.38229999999999986,-0.002816690198031288
0.38129999999999986,-0.0029326965246202212
0.38029999999999986,-0.0030685088094072645
0.37929999999999986,-0.0031109501484032154
0.37829999999999986,-0.0031717827342974125
0.37729999999999986,-0.0032212976297926886
0.37629999999999986,-0.0033090097303843206
0.37529999999999986,-0.003444822015171364
0.37429999999999986,-0.0034872633541673153
0.37329999999999985,-0.003542437094862052
0.37229999999999985,-0.003628734484153819
0.37129999999999985,-0.0037192760073451814
0.37029999999999985,-0.003825379354835059
0.36929999999999985,-0.003863576559931415
0.36829999999999985,-0.003907432610227231
0.36729999999999985,-0.003985241731719808
0.36629999999999985,-0.004078612677510901
0.36529999999999985,-0.004197448426699564
0.36429999999999985,-0.00423847505439565
0.36329999999999985,-0.00424413389959511
0.36229999999999984,-0.004312040041988632
0.36129999999999984,-0.0044308757911772955
0.36029999999999984,-0.004510099623969737
0.35929999999999984,-0.004565273364664473
0.35829999999999984,-0.004582249900262854
0.35729999999999984,-0.004647326620056645
0.35629999999999984,-0.0047520152562466585
0.35529999999999984,-0.004849630335937346
0.35429999999999984,-0.004873680428035051
0.35329999999999984,-0.004910462921831542
0.35229999999999984,-0.004975539641625334
0.35129999999999983,-0.005068910587416427
0.35029999999999983,-0.005141060863709543
0.34929999999999983,-0.005163696244507384
0.34829999999999983,-0.005231602386900905
0.34729999999999983,-0.005300923240594293
0.34629999999999983,-0.005358926403888758
0.34529999999999983,-0.005466444462678501
0.34429999999999983,-0.005465029751378637
0.3432999999999998,-0.005513129935574048
0.3422999999999998,-0.005555571274569999
0.3412999999999998,-0.005650356931660956
0.3402999999999998,-0.005762119124350294
0.3392999999999998,-0.00577202210344935
0.3382999999999998,-0.005804560463346245
0.3372999999999998,-0.005875296028339498
0.3362999999999998,-0.005933299191633964
0.3352999999999998,-0.0060408172504237065
0.3342999999999998,-0.006062037919921682
0.3332999999999998,-0.006086088012019387
0.3322999999999998,-0.006156823577012639
0.3312999999999998,-0.006224729719406161
0.3302999999999998,-0.006301124129598874
0.3292999999999998,-0.0063322477781959045
0.3282999999999998,-0.006356297870293609
0.3272999999999998,-0.006401568631889292
0.3262999999999998,-0.006479377753381868
0.3252999999999999,-0.0065670898539734995
0.3242999999999999,-0.006596798791270665
0.3232999999999999,-0.006609531192969452
0.3222999999999999,-0.0066491431093656725
0.3212999999999999,-0.0067410993438569
0.3202999999999999,-0.006835885000947857
0.3192999999999999,-0.006868423360844754
0.3182999999999999,-0.006858520381745698
0.3172999999999999,-0.006909449988540838
0.3162999999999999,-0.007019797469930313
0.3152999999999999,-0.007080630055824508
0.3142999999999999,-0.007101850725322484
0.3132999999999999,-0.0071202419722207295
0.3122999999999999,-0.00716834215641614
0.3112999999999999,-0.007265957236106829
0.3102999999999999,-0.0073296192446007545
0.3092999999999999,-0.007362157604497651
0.3082999999999999,-0.007407428366093332
0.3072999999999999,-0.0074244049016917125
0.3062999999999999,-0.007514946424883075
0.3052999999999999,-0.007589926123775921
0.3042999999999999,-0.0075955849689753815
0.3032999999999999,-0.007636611596671467
0.3022999999999999,-0.007653588132269849
0.3012999999999999,-0.007742714944161346
0.3002999999999999,-0.007833256467352709
0.2992999999999999,-0.007843159446451763
0.2982999999999999,-0.00786155069335001
0.2972999999999999,-0.00791248030014515
0.2962999999999999,-0.007984630576438266
0.2952999999999999,-0.008063854409230709
0.2942999999999999,-0.008079416233529224
0.2932999999999999,-0.008100636903027201
0.2922999999999999,-0.008155810643721936
0.2912999999999999,-0.008216643229616134
0.2902999999999999,-0.00829162292850898
0.2892999999999999,-0.008324161288405874
0.2882999999999999,-0.008343967246603986
0.2872999999999999,-0.008389238008199667
0.2862999999999999,-0.00845148530539373
0.2852999999999999,-0.008526465004286577
0.2842999999999999,-0.00852787971558644
0.2832999999999999,-0.008550515096384282
0.2822999999999999,-0.008602859414479289
0.2812999999999999,-0.00867642440207227
0.2802999999999999,-0.008733012854066871
0.2792999999999999,-0.008775454193062823
0.2782999999999999,-0.008779698326962418
0.2772999999999999,-0.008829213222457694
0.2762999999999999,-0.008904192921350541
0.2752999999999999,-0.008966440218544603
0.2742999999999999,-0.008990490310642309
0.2732999999999999,-0.009003222712341092
0.2722999999999999,-0.00903576107223799
0.2712999999999999,-0.009129132018029082
0.2702999999999999,-0.009212599984721119
0.2692999999999999,-0.00923240594291923
0.26829999999999987,-0.009242308922018284
0.26729999999999987,-0.00926635901411599
0.26629999999999987,-0.009338509290409108
0.26529999999999987,-0.00943470965879993
0.26429999999999987,-0.00944036850399939
0.26329999999999987,-0.009465833307396958
0.26229999999999987,-0.009488468688194801
0.26129999999999987,-0.0095775955000863
0.26029999999999986,-0.00966530760067793
0.25929999999999986,-0.009668137023277661
0.25829999999999986,-0.00970209009447442
0.25729999999999986,-0.009728969609171858
0.25629999999999986,-0.009802534596764839
0.25529999999999986,-0.009881758429557281
0.25429999999999986,-0.009869026027858496
0.25329999999999986,-0.009894490831256066
0.25229999999999986,-0.009953908705850398
0.25129999999999986,-0.010000594178745943
0.25029999999999986,-0.010072744455039062
0.24929999999999986,-0.010112356371435281
0.24829999999999985,-0.010109526948835552
0.24729999999999985,-0.010136406463532989
0.24629999999999985,-0.010208556739826105
0.24529999999999985,-0.010324563066415037
0.24429999999999985,-0.010338710179413688
0.24329999999999985,-0.010306171819516792
0.24229999999999985,-0.010359930848911663
0.24129999999999985,-0.01043491054780451
0.24029999999999985,-0.010491498999799113
0.23929999999999985,-0.010548087451793715
0.23829999999999985,-0.010536769761394792
0.23729999999999984,-0.010570722832591554
0.23629999999999984,-0.010665508489682512
0.23529999999999984,-0.010719267519077383
0.23429999999999984,-0.010736244054675765
0.23329999999999984,-0.010757464724173738
0.23229999999999984,-0.01078292952757131
0.23129999999999984,-0.010843762113465508
0.23029999999999984,-0.01092864479145741
0.22929999999999984,-0.01094562132705579
0.22829999999999984,-0.010959768440054439
0.22729999999999984,-0.01099655093385093
0.22629999999999983,-0.011071530632743777
0.22529999999999983,-0.011152169176836084
0.22429999999999983,-0.011169145712434464
0.22329999999999983,-0.011183292825433113
0.22229999999999983,-0.011194610515832037
0.22129999999999983,-0.011282322616423668
0.22029999999999983,-0.011382767118714086
0.21929999999999983,-0.011374278850914896
0.21829999999999983,-0.01140398778821206
0.21729999999999983,-0.011453502683707338
0.21629999999999983,-0.011505847001802343
0.21529999999999982,-0.011593559102393975
0.21429999999999982,-0.011599217947593436
0.21329999999999982,-0.011611950349292221
0.21229999999999982,-0.011671368223886553
0.21129999999999982,-0.011712394851582639
0.21029999999999982,-0.011795862818274676
0.20929999999999982,-0.011808595219973463
0.20829999999999982,-0.011822742332972112
0.20729999999999982,-0.011873671939767252
0.20629999999999982,-0.011952895772559695
0.20529999999999982,-0.012029290182752408
0.20429999999999982,-0.012037778450551597
0.20329999999999981,-0.012039193161851461
0.2022999999999998,-0.012094366902546198
0.2012999999999998,-0.012152370065840664
0.20029999999999992,-0.012223105630833916
0.19929999999999992,-0.012259888124630408
0.19829999999999992,-0.012264132258530003
0.19729999999999992,-0.012295255907127035
0.19629999999999992,-0.012374479739919475
0.19529999999999992,-0.012445215304912728
0.19429999999999992,-0.012532927405504359
0.19329999999999992,-0.012559806920201795
0.19229999999999992,-0.012537171539403955
0.19129999999999991,-0.012624883639995588
0.1902999999999999,-0.012685716225889784
0.1892999999999999,-0.012685716225889784
0.1882999999999999,-0.012716839874486815
0.1872999999999999,-0.012746548811783982
0.1862999999999999,-0.012827187355876287
0.1852999999999999,-0.012890849364370214
0.1842999999999999,-0.012903581766068999
0.1832999999999999,-0.012940364259865491
0.1822999999999999,-0.012948852527664681
0.1812999999999999,-0.013046467607355368
0.1802999999999999,-0.01312569144014781
0.1792999999999999,-0.013134179707946999
0.1782999999999999,-0.013172376913043356
0.1772999999999999,-0.013196427005141061
0.1762999999999999,-0.013238868344137013
0.1752999999999999,-0.013342142269027161
0.1742999999999999,-0.013344971691626892
0.1732999999999999,-0.013346386402926756
0.1722999999999999,-0.013394486587122167
0.1712999999999999,-0.01346239272951569
0.1702999999999999,-0.0135387871397084
0.1692999999999999,-0.013581228478704351
0.1682999999999999,-0.013605278570802059
0.1672999999999999,-0.013639231641998819
0.1662999999999999,-0.013691575960093825
0.1652999999999999,-0.013775043926785864
0.1642999999999999,-0.013794849884983973
0.1632999999999999,-0.013808996997982624
0.1622999999999999,-0.01385002362567871
0.1612999999999999,-0.013893879675974526
0.1602999999999999,-0.013970274086167238
0.1592999999999999,-0.01401554484776292
0.15829999999999989,-0.014014130136463054
0.15729999999999988,-0.014035350805961029
0.15629999999999988,-0.014134380596951582
0.15529999999999988,-0.014203701450644968
0.15429999999999988,-0.014203701450644968
0.15329999999999988,-0.01424614278964092
0.15229999999999988,-0.01427443701563822
0.15129999999999988,-0.014359319693630123
0.15029999999999988,-0.014430055258623373
0.14929999999999988,-0.014458349484620674
0.14829999999999988,-0.014486643710617976
0.14729999999999988,-0.014500790823616624
0.14629999999999987,-0.014585673501608528
0.14529999999999987,-0.014670556179600431
0.14429999999999987,-0.014670556179600431
0.14329999999999987,-0.014727144631595034
0.14229999999999987,-0.014783733083589632
0.14129999999999987,-0.014812027309586936
0.14029999999999987,-0.014911057100577486
0.13929999999999987,-0.014925204213576137
0.13829999999999987,-0.014939351326574786
0.13729999999999987,-0.014967645552572089
0.13629999999999987,-0.01505252823056399
0.13529999999999986,-0.015137410908555892
0.13429999999999986,-0.015151558021554544
0.13329999999999986,-0.015165705134553195
0.13229999999999986,-0.015208146473549147
0.13129999999999986,-0.015264734925543746
0.13029999999999986,-0.015377911829532949
0.12929999999999986,-0.015392058942531598
0.12829999999999986,-0.015392058942531598
0.12729999999999986,-0.015448647394526203
0.12629999999999986,-0.015491088733522153
0.12529999999999986,-0.015561824298515404
0.12429999999999986,-0.015604265637511355
0.12329999999999985,-0.015618412750510005
0.12229999999999985,-0.015646706976507305
0.12129999999999985,-0.01573158965449921
0.12029999999999985,-0.01578817810649381
0.11929999999999985,-0.01583061944548976
0.11829999999999985,-0.01584476655848841
0.11729999999999985,-0.01588720789748436
0.11629999999999985,-0.015957943462477614
0.11529999999999985,-0.016000384801473564
0.11429999999999985,-0.016056973253468165
0.11329999999999985,-0.016056973253468165
0.11229999999999984,-0.01608526747946547
0.11129999999999984,-0.016170150157457368
0.11029999999999984,-0.01625503283544927
0.10929999999999984,-0.01625503283544927
0.10829999999999984,-0.01629747417444522
0.10729999999999984,-0.016339915513441175
0.10629999999999984,-0.016410651078434424
0.10529999999999984,-0.01648138664342768
0.10429999999999984,-0.01650968086942498
0.10329999999999984,-0.016552122208420932
0.10229999999999984,-0.01658041643441823
0.10129999999999983,-0.016637004886412832
0.10029999999999983,-0.01673603467740338
0.09929999999999983,-0.01673603467740338
0.09829999999999983,-0.016764328903400686
0.09729999999999983,-0.016806770242396636
0.09629999999999983,-0.016863358694391237
0.09529999999999983,-0.01697653559838044
0.09429999999999983,-0.01699068271137909
0.09329999999999983,-0.017004829824377742
0.09229999999999983,-0.017075565389370995
0.09129999999999983,-0.017132153841365592
0.09029999999999982,-0.017217036519357496
0.08929999999999982,-0.017231183632356147
0.08829999999999982,-0.017231183632356147
0.08729999999999982,-0.01728777208435075
0.08629999999999982,-0.01734436053634535
0.08529999999999982,-0.017443390327335904
0.08429999999999982,-0.01748583166633185
0.08329999999999982,-0.017471684553333203
0.08229999999999982,-0.0175282730053278
0.08129999999999982,-0.017599008570321057
0.08029999999999982,-0.01768389124831296
0.07929999999999982,-0.01769803836131161
0.07829999999999981,-0.01774047970030756
0.07729999999999981,-0.01776877392630486
0.07629999999999981,-0.017839509491298113
0.07529999999999992,-0.017896097943292714
0.07429999999999992,-0.017952686395287316
0.07329999999999992,-0.017966833508285963
0.07229999999999992,-0.017995127734283266
0.07129999999999992,-0.018080010412275173
0.07029999999999992,-0.018150745977268422
0.06929999999999992,-0.01816489309026707
0.06829999999999992,-0.01820733442926302
0.06729999999999992,-0.018221481542261674
0.06629999999999991,-0.018320511333252226
0.06529999999999991,-0.018405394011244126
0.06429999999999991,-0.018419541124242777
0.06329999999999991,-0.018447835350240076
0.06229999999999991,-0.01849027668923603
0.06129999999999991,-0.018546865141230634
0.06029999999999991,-0.018660042045219833
0.05929999999999991,-0.018645894932221182
0.05829999999999991,-0.018688336271217135
0.05729999999999991,-0.018730777610213082
0.056299999999999906,-0.018801513175206338
0.055299999999999905,-0.018900542966196893
0.054299999999999904,-0.01891469007919554
0.0532999999999999,-0.018957131418191494
0.0522999999999999,-0.018999572757187444
0.0512999999999999,-0.019056161209182042
0.0502999999999999,-0.0191551910001726
0.0492999999999999,-0.019169338113171244
0.0482999999999999,-0.0191834852261699
0.0472999999999999,-0.019240073678164497
0.0462999999999999,-0.019310809243157753
0.045299999999999896,-0.019395691921149656
0.044299999999999895,-0.0194098390341483
0.043299999999999894,-0.019438133260145606
0.04229999999999989,-0.019494721712140204
0.04129999999999989,-0.019551310164134805
0.04029999999999989,-0.01967863418112266
0.03929999999999989,-0.01969278129412131
0.03829999999999989,-0.01967863418112266
0.03729999999999989,-0.01973522263311726
0.03629999999999989,-0.019834252424107815
0.03529999999999989,-0.019876693763103765
0.034299999999999886,-0.019933282215098366
0.033299999999999885,-0.019947429328097017
0.032299999999999884,-0.01997572355409432
0.031299999999999883,-0.02006060623208622
0.030299999999999883,-0.020145488910078124
0.02929999999999988,-0.020173783136075422
0.02829999999999988,-0.020216224475071376
0.02729999999999988,-0.020244518701068675
0.02629999999999988,-0.02032940137906058
0.025299999999999878,-0.020400136944053827
0.024299999999999877,-0.020400136944053827
0.023299999999999876,-0.020470872509047083
0.022299999999999875,-0.020499166735044382
0.021299999999999875,-0.020569902300037635
0.020299999999999874,-0.020683079204026837
0.019299999999999873,-0.020697226317025485
0.018299999999999872,-0.020725520543022787
0.01729999999999987,-0.02075381476902009
0.01629999999999987,-0.020810403221014687
0.01529999999999987,-0.020923580125003893
0.014299999999999868,-0.020966021463999843
0.013299999999999867,-0.020980168576998495
0.012299999999999978,-0.021022609915994445
0.011299999999999866,-0.021093345480987697
0.010299999999999976,-0.02119237527197825
0.009299999999999864,-0.02122066949797555
0.008299999999999974,-0.02124896372397285
0.007299999999999862,-0.021277257949970152
0.006299999999999972,-0.021362140627962056
0.00529999999999986,-0.021432876192955305
0.0042999999999999705,-0.021489464644949906
0.0032999999999998586,-0.02150361175794856
0.0022999999999999687,-0.021560200209943158
0.0012999999999998568,-0.02165923000093371
0.00029999999999996696,-0.021715818452928314
-0.000700000000000145,-0.021772406904922915
-0.0017000000000000348,-0.021786554017921567
-0.0027000000000001467,-0.021843142469916164
-0.0037000000000000366,-0.021928025147908068
-0.0047000000000001485,-0.022012907825899968
-0.005700000000000038,-0.02204120205189727
-0.00670000000000015,-0.02208364339089322
-0.00770000000000004,-0.022111937616890523
-0.008700000000000152,-0.022196820294882423
-0.009700000000000042,-0.022295850085872978
-0.010700000000000154,-0.022366585650866227
-0.011700000000000044,-0.02239487987686353
-0.012700000000000156,-0.02239487987686353
-0.013700000000000045,-0.022522203893851383
-0.014700000000000157,-0.022592939458844635
-0.015700000000000047,-0.022592939458844635
-0.01670000000000016,-0.02264952791083924
-0.01770000000000005,-0.022691969249835187
-0.01870000000000016,-0.02277685192782709
-0.01970000000000005,-0.02287588171881764
-0.020700000000000163,-0.022904175944814944
-0.021700000000000053,-0.022932470170812246
-0.022700000000000164,-0.022974911509808196
-0.023700000000000054,-0.023045647074801445
-0.024700000000000166,-0.023158823978790648
-0.025700000000000056,-0.023172971091789302
-0.026700000000000168,-0.0232012653177866
-0.027700000000000058,-0.023257853769781203
-0.02870000000000017,-0.023314442221775804
-0.02970000000000006,-0.023427619125765006
-0.03070000000000017,-0.023484207577759608
-0.03170000000000006,-0.02347006046476096
-0.03270000000000017,-0.02352664891675556
-0.03370000000000006,-0.02359738448174881
-0.034700000000000175,-0.023682267159740714
-0.035700000000000065,-0.023753002724733966
-0.03670000000000018,-0.02378129695073127
-0.03770000000000007,-0.023823738289727222
-0.03870000000000018,-0.02390862096771912
-0.03970000000000007,-0.02397935653271237
-0.04070000000000018,-0.024021797871708325
-0.04170000000000007,-0.024050092097705623
-0.04270000000000018,-0.024092533436701577
-0.04370000000000007,-0.02417741611469348
-0.044700000000000184,-0.02426229879268538
-0.045700000000000074,-0.024318887244679982
-0.046700000000000186,-0.02434718147067728
-0.047700000000000076,-0.02436132858367593
-0.04870000000000019,-0.02447450548766513
-0.04970000000000008,-0.024559388165657038
-0.05070000000000019,-0.024601829504652988
-0.05170000000000008,-0.024644270843648942
-0.05270000000000019,-0.024630123730650287
-0.05370000000000008,-0.024729153521640842
-0.05470000000000019,-0.024856477538628696
-0.05570000000000008,-0.024884771764625994
-0.056700000000000195,-0.024913065990623297
-0.057700000000000085,-0.0249413602166206
-0.058700000000000196,-0.025012095781613848
-0.059700000000000086,-0.02512527268560305
-0.0607000000000002,-0.02515356691160035
-0.06170000000000009,-0.025210155363594954
-0.0627000000000002,-0.025252596702590904
