Potential V vs RHE, Current mA cm-2
0.013299999999999867,22.239261633878378
0.012299999999999978,20.541608074040333
0.011299999999999866,18.88639585319824
0.010299999999999976,17.542420118326454
0.009299999999999864,16.02867902747086
0.008299999999999974,14.741291744593681
0.007299999999999862,13.469466286015015
0.006299999999999972,12.124075839843364
0.00529999999999986,11.0503099632458
0.0042999999999999705,9.769996236867943
0.0032999999999998586,8.68491266987146
0.0022999999999999687,7.629538040172143
0.0012999999999998568,6.462401217783487
0.00029999999999996696,5.558400697169729
-0.000700000000000145,4.457755305874731
-0.0017000000000000348,3.5240458479638064
-0.0027000000000001467,2.6030687917516673
-0.0037000000000000366,1.5745736767497858
-0.0047000000000001485,0.7837500601252303
-0.005700000000000038,-0.2242317410286083
-0.00670000000000015,-1.0536769761394795
-0.00770000000000004,-1.8858101627200938
-0.008700000000000152,-2.819519620631018
-0.009700000000000042,-3.522631136663941
-0.010700000000000154,-4.442193481576215
-0.011700000000000044,-5.180672780105764
-0.012700000000000156,-5.926225635134639
-0.013700000000000045,-6.7679788585543355
-0.014700000000000157,-7.384792985295491
-0.015700000000000047,-8.223716786115459
-0.01670000000000016,-8.89004580835189
-0.01770000000000005,-9.581839633985894
-0.01870000000000016,-10.347198447212879
-0.01970000000000005,-10.9088388332593
-0.020700000000000163,-11.681271202985608
-0.021700000000000053,-12.281108794128384
-0.022700000000000164,-12.896508209569674
-0.023700000000000054,-13.620840395100572
-0.024700000000000166,-14.141454153450907
-0.025700000000000056,-14.868615761581536
-0.026700000000000168,-15.448647394526201
-0.027700000000000058,-16.04282614046952
-0.02870000000000017,-16.736034677403385
-0.02970000000000006,-17.188742293360193
-0.03070000000000017,-17.881950830294063
-0.03170000000000006,-18.40539401124413
-0.03270000000000017,-18.92883719219419
-0.03370000000000006,-19.579604390132108
-0.034700000000000175,-19.98987066709297
-0.035700000000000065,-20.612343639033586
-0.03670000000000018,-21.079198367989047
-0.03770000000000007,-21.574347322941808
-0.03870000000000018,-22.196820294882425
-0.03970000000000007,-22.564645232847337
-0.04070000000000018,-23.187118204787954
-0.04170000000000007,-23.62567870774611
-0.04270000000000018,-24.092533436701576
-0.04370000000000007,-24.70085929564354
-0.044700000000000184,-25.06868423360845
-0.045700000000000074,-25.662862979551768
-0.046700000000000186,-26.11557059550858
-0.047700000000000076,-26.55413109846674
-0.04870000000000019,-27.134162731411404
-0.04970000000000008,-27.487840556377662
-0.05070000000000019,-28.05372507632368
-0.05170000000000008,-28.44984424028589
-0.05270000000000019,-28.8742576302454
-0.05370000000000008,-29.440142150191413
-0.05470000000000019,-29.779672862159025
-0.05570000000000008,-30.359704495103685
-0.056700000000000195,-30.769970772064546
-0.057700000000000085,-31.180237049025404
-0.058700000000000196,-31.703680229975475
-0.059700000000000086,-32.02906382894443
-0.0607000000000002,-32.56665412289314
-0.06170000000000009,-32.97692039985401
-0.0627000000000002,-33.38718667681487
-0.06370000000000009,-33.910629857764924
-0.0647000000000002,-34.236013456733886
-0.06570000000000009,-34.773603750682604
-0.0667000000000002,-35.183870027643465
-0.0677000000000001,-35.62243053060162
-0.0687000000000002,-36.16002082455034
-0.0697000000000001,-36.47125731052064
-0.07070000000000021,-36.99470049147071
-0.0717000000000001,-37.376672542434264
-0.07270000000000021,-37.78693881939513
-0.0737000000000001,-38.267940661349236
-0.07470000000000021,-38.49429446932764
-0.0757000000000001,-39.00359053727906
-0.07670000000000021,-39.37141547524397
-0.0777000000000001,-39.75338752620753
-0.07870000000000021,-40.27683070715759
-0.0797000000000001,-40.5880671931279
-0.08070000000000022,-41.15395171307392
-0.0817000000000001,-41.57836510303343
-0.08270000000000022,-41.97448426699564
-0.08370000000000011,-42.497927447945706
-0.08470000000000022,-42.80916393391601
-0.08570000000000011,-43.31846000186743
-0.08670000000000022,-43.68628493983233
-0.08770000000000011,-44.054109877797245
-0.08870000000000022,-44.591700171745956
-0.08970000000000011,-44.84634820572166
-0.09070000000000022,-45.35564427367308
-0.09170000000000011,-45.681027872642034
-0.09270000000000023,-46.062999923605595
-0.09370000000000012,-46.572295991557006
-0.09470000000000023,-46.88353247752732
-0.09570000000000012,-47.449416997473335
-0.09670000000000023,-47.84553616143554
-0.09770000000000012,-48.21336109940045
-0.09870000000000023,-48.75095139334916
-0.09970000000000012,-49.005599427324874
-0.10070000000000023,-49.458307043281685
-0.10170000000000012,-49.76954352925199
-0.10270000000000024,-50.1373684672169
-0.10370000000000013,-50.59007608317371
-0.10470000000000024,-50.87301834314672
-0.10570000000000013,-51.410608637095436
-0.10670000000000024,-51.792580688059
-0.10770000000000013,-52.17455273902255
-0.10870000000000024,-52.69799591997262
-0.10970000000000013,-52.980938179945625
-0.11070000000000024,-53.518528473894335
-0.11170000000000013,-53.9287947508552
-0.11270000000000002,-54.38150236681201
-0.11370000000000013,-54.919092660760725
-0.11470000000000002,-55.15959358173778
-0.11570000000000014,-55.626448310693235
-0.11670000000000003,-55.951831909662204
-0.11770000000000014,-56.34795107362442
-0.11870000000000003,-56.81480580257987
-0.11970000000000014,-57.04115961055828
-0.12070000000000003,-57.52216145251239
-0.12170000000000014,-57.86169216448
-0.12270000000000003,-58.30025266743816
-0.12370000000000014,-58.809548735389576
-0.12470000000000003,-59.10663810836124
-0.12570000000000014,-59.64422840230995
-0.12670000000000003,-60.02620045327351
-0.12770000000000015,-60.30914271324652
-0.12870000000000004,-60.79014455520062
-0.12970000000000015,-61.07308681517363
-0.13070000000000004,-61.5965299961237
-0.13170000000000015,-62.02094338608321
-0.13270000000000004,-62.38876832404812
-0.13370000000000015,-62.91221150499819
-0.13470000000000004,-63.22344799096849
-0.13570000000000015,-63.74689117191855
-0.13670000000000004,-64.08642188388616
-0.13770000000000016,-64.35521703086052
-0.13870000000000005,-64.77963042082003
-0.13970000000000016,-65.04842556779438
-0.14070000000000005,-65.5011331837512
-0.14170000000000016,-65.85481100871746
-0.14270000000000005,-66.22263594668237
-0.14370000000000016,-66.71778490163513
-0.14470000000000005,-67.01487427460678
-0.14570000000000016,-67.65149435954605
-0.14670000000000005,-67.99102507151366
-0.14770000000000016,-68.17493754049613
-0.14870000000000005,-68.59935093045563
-0.14970000000000017,-68.82570473843404
-0.15070000000000006,-69.30670658038814
-0.15170000000000017,-69.6320901793571
-0.15270000000000006,-70.05650356931662
-0.15370000000000017,-70.62238808926263
-0.15470000000000006,-70.93362457523294
-0.15570000000000017,-71.44292064318435
-0.15670000000000006,-71.8814811461425
-0.15770000000000017,-72.33418876209933
-0.15870000000000006,-72.8859261690467
-0.15970000000000018,-73.197162655017
-0.16070000000000007,-73.7347529489657
-0.16170000000000018,-74.14501922592657
-0.16270000000000007,-74.52699127689014
-0.16370000000000018,-75.06458157083884
-0.16470000000000007,-75.31922960481455
-0.16570000000000018,-75.78608433377002
-0.16670000000000007,-76.09732081974033
-0.16770000000000018,-76.36611596671467
-0.16870000000000007,-76.77638224367554
-0.16970000000000018,-77.05932450364854
-0.17070000000000007,-77.56862057159996
-0.17170000000000019,-77.95059262256353
-0.17270000000000008,-78.41744735151899
-0.1737000000000002,-79.02577321046095
-0.17470000000000008,-79.30871547043395
-0.1757000000000002,-79.81801153838538
-0.17670000000000008,-80.19998358934893
-0.1777000000000002,-80.58195564031249
-0.17870000000000008,-81.11954593426121
-0.1797000000000002,-81.43078242023151
-0.18070000000000008,-81.96837271418022
-0.1817000000000002,-82.35034476514379
-0.18270000000000008,-82.7747581551033
-0.1837000000000002,-83.28405422305471
-0.1847000000000001,-83.53870225703042
-0.1857000000000002,-84.01970409898453
-0.1867000000000001,-84.44411748894404
-0.1877000000000002,-84.84023665290624
-0.1887000000000001,-85.33538560785901
-0.1897000000000002,-85.63247498083066
-0.1907000000000001,-86.21250661377533
-0.1917000000000001,-86.69350845572944
-0.19269999999999998,-87.13206895868761
-0.1937000000000001,-87.71210059163228
-0.19469999999999998,-88.05163130359989
-0.1957000000000001,-88.57507448454994
-0.19669999999999999,-88.91460519651754
-0.1977000000000001,-89.35316569947572
-0.1987,-90.06052134940825
-0.1997000000000001,-90.48493473936773
-0.2007,-91.10740771130837
-0.2017000000000001,-91.57426244026381
-0.2027,-91.95623449122738
-0.2037000000000001,-92.50797189817473
-0.2047,-92.76261993215046
-0.2057000000000001,-93.24362177410455
-0.2067,-93.69632939006138
-0.2077000000000001,-94.09244855402359
-0.2087,-94.68662729996691
-0.2097000000000001,-95.06859935093047
-0.2107,-95.74766077486568
-0.2117000000000001,-96.2569568428171
-0.2127,-96.7662529107685
-0.2137000000000001,-97.38872588270912
-0.2147,-97.72825659467674
-0.2157000000000001,-98.33658245361869
-0.2167,-98.73270161758091
-0.21770000000000012,-99.10052655554581
-0.2187,-99.56738128450128
-0.21970000000000012,-99.89276488347024
-0.2207,-100.45864940341626
-0.22170000000000012,-100.99623969736497
-0.2227,-101.5338299913137
-0.22370000000000012,-102.17045007625295
-0.2247,-102.59486346621246
-0.22570000000000012,-103.24563066415038
-0.2267,-103.65589694111124
-0.22770000000000012,-104.12275167006669
-0.22870000000000001,-104.74522464200732
-0.22970000000000013,-104.98572556298437
-0.23070000000000002,-105.608198534925
-0.23170000000000013,-105.99017058588855
-0.23270000000000002,-106.4287310888467
-0.23370000000000013,-107.03705694778867
-0.23470000000000002,-107.4614703377482
-0.23570000000000013,-108.0556490836915
-0.23670000000000002,-108.5932393776402
-0.2376999999999999,-109.10253544559163
-0.23870000000000002,-109.69671419153494
-0.2396999999999999,-110.09283335549715
-0.24070000000000003,-110.68701210144046
-0.24169999999999991,-111.21045528239053
-0.24270000000000003,-111.74804557633925
-0.24369999999999992,-112.41295988727582
-0.24470000000000003,-112.78078482524072
-0.24569999999999992,-113.31837511918944
-0.24670000000000003,-113.70034717015301
-0.24769999999999992,-114.1813490121071
-0.24870000000000003,-114.78967487104907
-0.24969999999999992,-115.15749980901398
-0.25070000000000003,-115.87900257194515
-0.2516999999999999,-116.47318131788847
-0.25270000000000004,-116.91174182084664
-0.2536999999999999,-117.46347922779398
-0.25470000000000004,-117.78886282676295
-0.2556999999999999,-118.42548291170223
-0.25670000000000004,-118.96307320565093
-0.25769999999999993,-119.47236927360234
-0.25870000000000004,-120.15143069753758
-0.25969999999999993,-120.60413831349437
-0.26070000000000004,-121.19831705943768
-0.26169999999999993,-121.66517178839315
-0.26270000000000004,-122.1037322913513
-0.26369999999999993,-122.75449948928923
-0.26470000000000005,-123.17891287924873
-0.26569999999999994,-123.77309162519205
-0.26670000000000005,-124.25409346714616
-0.26769999999999994,-124.76338953509759
-0.26870000000000005,-125.35756828104091
-0.26969999999999994,-125.68295188000985
-0.27070000000000005,-126.17810083496262
-0.27169999999999994,-126.70154401591269
-0.27270000000000005,-127.25328142286004
-0.27369999999999994,-127.87575439480067
-0.27470000000000006,-128.28602067176152
-0.27569999999999995,-128.89434653070347
-0.27670000000000006,-129.40364259865493
-0.27769999999999995,-129.81390887561577
-0.27870000000000006,-130.39394050856043
-0.27969999999999995,-130.79005967252263
-0.28070000000000006,-131.34179707947
-0.28169999999999995,-131.75206335643085
-0.28270000000000006,-132.10574118139715
-0.28369999999999995,-132.7423612663364
-0.28470000000000006,-133.06774486530534
-0.28569999999999995,-133.67607072424732
-0.28670000000000007,-134.1995139051974
-0.28769999999999996,-134.66636863415286
-0.28870000000000007,-135.47275407507593
-0.28969999999999996,-135.93960880403137
-0.29070000000000007,-136.66111156696255
-0.29169999999999996,-137.22699608690854
-0.29270000000000007,-137.70799792886265
-0.29369999999999996,-138.13241131882216
-0.2947000000000001,-138.3587651268006
-0.29569999999999996,-138.71244295176686
-0.2967000000000001,-139.22173901971826
-0.29769999999999996,-139.73103508766968
-0.2987000000000001,-140.33936094661163
-0.29969999999999997,-140.76377433657117
-0.3007000000000001,-141.3721001955131
-0.30169999999999997,-141.89554337646317
-0.3027000000000001,-142.31995676642268
-0.30369999999999997,-142.7443701563822
-0.3047000000000001,-143.0273124163552
-0.30569999999999997,-143.5931969363012
-0.3067000000000001,-144.15908145624724
-0.3077,-144.72496597619326
-0.3087000000000001,-145.29085049613926
-0.3097,-145.7152638860988
-0.3107000000000001,-146.1396772760583
-0.3117,-146.4226195360313
-0.3127000000000001,-146.8470329259908
-0.3137,-147.55438857592333
-0.3147000000000001,-148.12027309586935
-0.3157,-148.68615761581535
-0.3167000000000001,-149.25204213576137
-0.3177,-149.8179266557074
-0.3187000000000001,-150.24234004566688
-0.3197,-150.5252823056399
-0.3207000000000001,-150.94969569559944
-0.3217,-151.37410908555893
-0.3227000000000001,-151.65705134553193
-0.3237,-152.36440699546444
-0.3247000000000001,-152.64734925543743
-0.3257,-153.21323377538346
-0.3267000000000001,-153.63764716534297
-0.3277,-153.920589425316
-0.3287000000000001,-154.486473945262
-0.3297,-154.9108873352215
-0.3307000000000001,-155.33530072518104
-0.3317,-155.75971411514055
-0.3327000000000001,-156.18412750510007
-0.3337,-156.89148315503257
-0.3347000000000001,-157.17442541500557
-0.3357,-157.7403099349516
-0.3367000000000001,-158.1647233249111
-0.3377,-158.5891367148706
-0.3387000000000001,-159.15502123481662
-0.3397,-159.57943462477613
-0.3407000000000001,-160.28679027470866
-0.3417,-160.8526747946547
-0.3427000000000001,-161.2770881846142
-0.3437,-161.70150157457368
-0.3447000000000001,-162.12591496453322
-0.3457,-162.5503283544927
-0.3467000000000001,-162.97474174445222
-0.3477,-163.39915513441173
-0.3487000000000001,-163.96503965435775
-0.3497,-164.10651078434424
-0.3507000000000001,-164.53092417430375
-0.3517,-164.9553375642633
-0.3527000000000001,-165.2382798242363
-0.3537,-165.8041643441823
-0.3547000000000001,-166.0871066041553
-0.3557,-166.65299112410133
-0.35670000000000013,-167.07740451406085
-0.3577,-167.50181790402033
-0.35870000000000013,-168.20917355395284
-0.3597,-168.63358694391238
-0.36070000000000013,-169.19947146385837
-0.3617,-169.7653559838044
-0.3626999999999999,-170.0482982437774
-0.3637,-170.47271163373694
-0.3646999999999999,-170.89712502369645
-0.3657,-171.32153841365593
-0.3666999999999999,-171.60448067362896
-0.3677,-172.17036519357498
-0.3686999999999999,-172.73624971352098
-0.36970000000000003,-173.16066310348046
-0.3706999999999999,-173.58507649344
-0.37170000000000003,-173.72654762342648
-0.3726999999999999,-174.0094898833995
-0.37370000000000003,-174.57537440334553
-0.3746999999999999,-175.14125892329156
-0.37570000000000003,-175.70714344323756
-0.3766999999999999,-176.13155683319707
-0.37770000000000004,-176.8389124831296
-0.3786999999999999,-177.2633258730891
-0.37970000000000004,-177.6877392630486
-0.3806999999999999,-178.25362378299462
-0.38170000000000004,-178.53656604296762
-0.38269999999999993,-178.67803717295413
-0.38370000000000004,-179.10245056291362
-0.38469999999999993,-179.10245056291362
-0.38570000000000004,-179.52686395287316
-0.38669999999999993,-178.3950949129811
-0.38570000000000004,-175.14125892329156
-0.38469999999999993,-172.31183632356147
-0.38370000000000004,-169.19947146385837
-0.38269999999999993,-166.93593338407433
-0.38170000000000004,-164.53092417430375
-0.3806999999999999,-161.9844438345467
-0.37970000000000004,-159.72090575476264
-0.3786999999999999,-157.03295428501906
-0.37770000000000004,-154.76941620523502
-0.3766999999999999,-152.36440699546444
-0.37570000000000003,-150.1008689156804
-0.3746999999999999,-147.83733083589632
-0.37370000000000003,-145.43232162612577
-0.3726999999999999,-143.3102546763282
-0.37170000000000003,-141.00427525754822
-0.3706999999999999,-138.7265900647655
-0.36970000000000003,-136.51964043697603
-0.3686999999999999,-134.11463122720548
-0.3677,-131.9642700514106
-0.3666999999999999,-129.72902619762385
-0.3657,-127.59281213482765
-0.3646999999999999,-125.79612878399907
-0.3637,-123.78723873819072
-0.3626999999999999,-121.96226116136481
-0.3617,-120.08069513254432
-0.36070000000000013,-118.0859521997346
-0.3597,-116.30341596190465
-0.35870000000000013,-114.26623169009903
-0.3577,-112.49784256526772
-0.35670000000000013,-110.6162765364472
-0.3557,-108.70641628162942
-0.3547000000000001,-106.98046849579409
-0.3537,-105.04231401497897
-0.3527000000000001,-103.24563066415038
-0.3517,-101.50553576531638
-0.3507000000000001,-99.62396973649588
-0.3497,-98.15266998463625
-0.3487000000000001,-96.44086931179956
-0.3477,-94.89883399494667
-0.3467000000000001,-93.32850445209648
-0.3457,-91.67329223125436
-0.3447000000000001,-90.32931649638259
-0.3437,-88.77313406653104
-0.3427000000000001,-87.30183431467142
-0.3417,-85.71735765882258
-0.3407000000000001,-84.10458677697642
-0.3397,-82.67572836411274
-0.3387000000000001,-81.04881036926795
-0.3377,-79.59165773040696
-0.3367000000000001,-78.06376952655272
-0.3357,-76.55002843569714
-0.3347000000000001,-75.220199813824
-0.3337,-73.66401738397246
-0.3327000000000001,-72.36248298809663
-0.3317,-71.04680147922215
-0.3307000000000001,-69.56135461436386
-0.3297,-68.28811444448532
-0.3287000000000001,-66.77437335362974
-0.3277,-65.52942740974851
-0.3267000000000001,-64.213745900874
-0.3257,-62.81318171400764
-0.3247000000000001,-61.63897133511965
-0.3237,-60.26670137425056
-0.3227000000000001,-59.13493233435853
-0.3217,-57.87583927747865
-0.3207000000000001,-56.560157768604164
-0.3197,-55.442535841710786
-0.3187000000000001,-54.08441299384035
-0.3177,-52.980938179945625
-0.3167000000000001,-51.7642864620617
-0.3157,-50.448604953187214
-0.3147000000000001,-49.373424365289786
-0.3137,-48.086037082412595
-0.3127000000000001,-47.01085649451517
-0.3117,-45.83664611562718
-0.3107000000000001,-44.591700171745956
-0.3097,-43.558960922844484
-0.3087000000000001,-42.3281620919619
-0.3077,-41.33786418205637
-0.3067000000000001,-40.26268359415894
-0.30569999999999997,-39.130914554266916
-0.3047000000000001,-38.16891087035869
-0.30369999999999997,-37.02299471746801
-0.3027000000000001,-36.07513814655844
-0.30169999999999997,-35.014104671659666
-0.3007000000000001,-33.86818851876898
-0.29969999999999997,-32.9486261738567
-0.2987000000000001,-31.83100424696332
-0.29769999999999996,-30.91144190205105
-0.2967000000000001,-29.864555540150924
-0.29569999999999996,-28.80352206525215
-0.2947000000000001,-27.954695285333123
-0.29369999999999996,-26.851220471438396
-0.29270000000000007,-25.931658126526123
-0.29169999999999996,-24.941360216620595
-0.29070000000000007,-23.93691519371642
-0.28969999999999996,-23.1163826397947
-0.28870000000000007,-22.04120205189727
-0.28769999999999996,-21.22066949797555
-0.28670000000000007,-20.301107153063278
-0.28569999999999995,-19.339103469155052
-0.28470000000000006,-18.561012254229283
-0.28369999999999995,-17.542420118326454
-0.28270000000000006,-16.778476016399335
-0.28169999999999995,-15.91550212348166
-0.28070000000000006,-14.939351326574789
-0.27969999999999995,-14.175407224647667
-0.27870000000000006,-13.153985666145111
-0.27769999999999995,-12.353259070421501
-0.27670000000000006,-11.483211621004504
-0.27569999999999995,-10.529696204895469
-0.27470000000000006,-9.835072956661735
-0.27369999999999994,-8.899948787450944
-0.27270000000000005,-8.165713622820993
-0.27169999999999994,-7.3649870270973805
-0.27070000000000005,-6.472304196882543
-0.26969999999999994,-5.80314575204638
-0.26870000000000005,-4.887827541033701
-0.26769999999999994,-4.157836510303343
-0.26670000000000005,-3.357109914579732
