Potential V vs RHE, Current mA cm-2
0.013299999999999867,11.904795588364284
0.012299999999999978,9.419147834501414
0.011299999999999866,7.15136562081776
0.010299999999999976,5.01373684672169
0.009299999999999864,2.8761080726256196
0.008299999999999974,0.8264743413811545
0.007299999999999862,-1.1798692240874404
0.006299999999999972,-2.968064307116847
0.00529999999999986,-4.626105950558669
0.0042999999999999705,-6.238876832404812
0.0032999999999998586,-7.853062425550818
0.0022999999999999687,-9.511104068992642
0.0012999999999998568,-11.123874950838783
0.00029999999999996696,-12.651763154693022
-0.000700000000000145,-14.046668496359947
-0.0017000000000000348,-15.349617603535648
-0.0027000000000001467,-16.622857773414182
-0.0037000000000000366,-17.966833508285966
-0.0047000000000001485,-19.367397695152352
-0.005700000000000038,-20.683079204026836
-0.00670000000000015,-21.94217226090672
-0.00770000000000004,-23.073941300798747
-0.008700000000000152,-24.16326900169483
-0.009700000000000042,-25.252596702590903
-0.010700000000000154,-26.440954194477534
-0.011700000000000044,-27.615164573365515
-0.012700000000000156,-28.704492274261593
-0.013700000000000045,-29.708937297165768
-0.014700000000000157,-30.614352529079397
-0.015700000000000047,-31.533914873991666
-0.01670000000000016,-32.49591855789989
-0.01770000000000005,-33.50036358080407
-0.01870000000000016,-34.5472499427042
-0.01970000000000005,-35.55169496560837
-0.020700000000000163,-36.47125731052064
-0.021700000000000053,-37.291789864442364
-0.022700000000000164,-38.16891087035869
-0.023700000000000054,-39.130914554266916
-0.024700000000000166,-40.092918238175145
-0.025700000000000056,-41.083216148080666
-0.026700000000000168,-42.00277849299294
-0.027700000000000058,-42.87989949890926
-0.02870000000000017,-43.657990713835034
-0.02970000000000006,-44.4926703807554
-0.03070000000000017,-45.412232725667685
-0.03170000000000006,-46.3176479575813
-0.03270000000000017,-47.23721030249357
-0.03370000000000006,-48.029448630417996
-0.034700000000000175,-48.76509850634781
-0.035700000000000065,-49.557336834272235
-0.03670000000000018,-50.335428049198
-0.03770000000000007,-51.25499039411028
-0.03870000000000018,-52.2169940780185
-0.03970000000000007,-53.079967970936174
-0.04070000000000018,-53.9570889768525
-0.04170000000000007,-54.73518019177827
-0.04270000000000018,-55.56985985869864
-0.04370000000000007,-56.489422203610914
-0.044700000000000184,-57.45142588751914
-0.045700000000000074,-58.35684111943277
-0.046700000000000186,-59.27640346434504
-0.047700000000000076,-60.02620045327351
-0.04870000000000019,-60.761850329203334
-0.04970000000000008,-61.53994154412909
-0.05070000000000019,-62.37462121104946
-0.05170000000000008,-63.15271242597524
-0.05270000000000019,-63.902509414903705
-0.05370000000000008,-64.68060062982947
-0.05470000000000019,-65.43039761875795
-0.05570000000000008,-66.08116481669586
-0.056700000000000195,-66.91584448361623
-0.057700000000000085,-67.73637703753796
-0.058700000000000196,-68.61349804345427
-0.059700000000000086,-69.53306038836655
-0.0607000000000002,-70.31115160329232
-0.06170000000000009,-71.06094859222078
-0.0627000000000002,-71.83903980714656
-0.06370000000000009,-72.67371947406694
-0.0647000000000002,-73.6781644969711
-0.06570000000000009,-74.58357972888473
-0.0667000000000002,-75.46070073480107
-0.0677000000000001,-76.33782174071737
-0.0687000000000002,-77.28567831162695
-0.0697000000000001,-78.20524065653922
-0.07070000000000021,-79.20968567944341
-0.0717000000000001,-80.21413070234757
-0.07270000000000021,-81.1761343862558
-0.0737000000000001,-81.99666694017753
-0.07470000000000021,-82.746463929106
-0.0757000000000001,-83.48211380503581
-0.07670000000000021,-84.31679347195619
-0.0777000000000001,-85.17976736487385
-0.07870000000000021,-85.97200569279828
-0.0797000000000001,-86.7076555687281
-0.08070000000000022,-87.41501121866061
-0.0817000000000001,-88.15066109459043
-0.08270000000000022,-88.9004580835189
-0.08370000000000011,-89.84831465442848
-0.08470000000000022,-90.85275967733266
-0.08570000000000011,-91.85720470023682
-0.08670000000000022,-92.7767670451491
-0.08770000000000011,-93.61144671206948
-0.08870000000000022,-94.38953792699526
-0.08970000000000011,-95.18177625491967
-0.09070000000000022,-95.95986746984543
-0.09170000000000011,-96.87942981475771
-0.09270000000000023,-97.69996236867944
-0.09370000000000012,-98.4497593576079
-0.09470000000000023,-99.10052655554581
-0.09570000000000012,-99.83617643147564
-0.09670000000000023,-100.71329743739196
-0.09770000000000012,-101.6753011213002
-0.09870000000000023,-102.72218748320032
-0.09970000000000012,-103.68419116710854
-0.10070000000000023,-104.50472372103027
-0.10170000000000012,-105.33940338795064
-0.10270000000000024,-106.11749460287639
-0.10370000000000013,-106.90973293080083
-0.10470000000000024,-107.78685393671715
-0.10570000000000013,-108.64982782963483
-0.10670000000000024,-109.44206615755924
-0.10770000000000013,-110.17771603348905
-0.10870000000000024,-110.87092457042293
-0.10970000000000013,-111.66316289834735
-0.11070000000000024,-112.58272524325962
-0.11170000000000013,-113.53058181416918
-0.11270000000000002,-114.45014415908147
-0.11370000000000013,-115.2423824870059
-0.11470000000000002,-115.97803236293572
-0.11570000000000014,-116.72782935186417
-0.11670000000000003,-117.46347922779398
-0.11770000000000014,-118.29815889471436
-0.11870000000000003,-119.20357412662798
-0.11970000000000014,-120.08069513254432
-0.12070000000000003,-120.85878634747009
-0.12170000000000014,-121.65102467539451
-0.12270000000000003,-122.48570434231489
-0.12370000000000014,-123.39111957422851
-0.12470000000000003,-124.35312325813672
-0.12570000000000014,-125.40000962003687
-0.12670000000000003,-126.3195719649491
-0.12770000000000015,-127.14010451887084
-0.12870000000000004,-127.84746016880335
-0.12970000000000015,-128.54066870573723
-0.13070000000000004,-129.2338772426711
-0.13170000000000015,-130.02611557059552
-0.13270000000000004,-130.7193241075294
-0.13370000000000015,-131.4266797574619
-0.13470000000000004,-132.03500561640385
-0.13570000000000015,-132.60089013634988
-0.13670000000000004,-133.29409867328377
-0.13770000000000016,-134.12877834020412
-0.13870000000000005,-134.94931089412586
-0.13970000000000016,-135.82643190004217
-0.14070000000000005,-136.51964043697603
-0.14170000000000016,-137.22699608690854
-0.14270000000000005,-137.92020462384244
-0.14370000000000016,-138.65585449977226
-0.14470000000000005,-139.53297550568857
-0.14570000000000016,-140.36765517260895
-0.14670000000000005,-141.14574638753473
-0.14770000000000016,-141.89554337646317
-0.14870000000000005,-142.6028990263957
-0.14970000000000017,-143.3102546763282
-0.15070000000000006,-144.15908145624724
-0.15170000000000017,-144.86643710617977
-0.15270000000000006,-145.7152638860988
-0.15370000000000017,-146.28114840604482
-0.15470000000000006,-146.9885040559773
-0.15570000000000017,-147.55438857592333
-0.15670000000000006,-148.26174422585584
-0.15770000000000017,-148.96909987578834
-0.15870000000000006,-149.6764555257209
-0.15970000000000018,-150.38381117565342
-0.16070000000000007,-151.09116682558593
-0.16170000000000018,-151.65705134553193
-0.16270000000000007,-152.22293586547795
-0.16370000000000018,-152.78882038542397
-0.16470000000000007,-153.49617603535648
-0.16570000000000018,-154.3450028152755
-0.16670000000000007,-155.33530072518104
-0.16770000000000018,-156.04265637511355
-0.16870000000000007,-156.60854089505958
-0.16970000000000018,-157.17442541500557
-0.17070000000000007,-157.88178106493808
-0.17170000000000019,-158.73060784485713
-0.17270000000000008,-159.29649236480313
-0.1737000000000002,-160.00384801473567
-0.17470000000000008,-160.5697325346817
-0.1757000000000002,-161.2770881846142
-0.17670000000000008,-162.12591496453322
-0.1777000000000002,-162.97474174445222
-0.17870000000000008,-164.10651078434424
-0.1797000000000002,-165.09680869424977
-0.18070000000000008,-165.94563547416882
-0.1817000000000002,-166.79446225408785
-0.18270000000000008,-167.50181790402033
-0.1837000000000002,-168.35064468393938
-0.1847000000000001,-169.19947146385837
-0.1857000000000002,-170.0482982437774
-0.1867000000000001,-170.75565389370993
-0.1877000000000002,-171.60448067362896
-0.1887000000000001,-172.31183632356147
-0.1897000000000002,-172.73624971352098
-0.1907000000000001,-173.44360536345349
-0.1917000000000001,-174.0094898833995
-0.19269999999999998,-174.71684553333202
-0.1937000000000001,-175.14125892329156
-0.19469999999999998,-175.56567231325104
-0.1957000000000001,-175.84861457322407
-0.19669999999999999,-176.13155683319707
-0.1977000000000001,-176.4144990931701
-0.1987,-176.8389124831296
-0.1997000000000001,-177.2633258730891
-0.2007,-177.6877392630486
-0.2017000000000001,-177.9706815230216
-0.2027,-178.25362378299462
-0.2037000000000001,-178.67803717295413
-0.2047,-179.24392169290016
-0.2057000000000001,-179.95127734283267
-0.2067,-180.65863299276518
-0.2077000000000001,-181.2245175127112
-0.2087,-181.93187316264374
-0.2097000000000001,-182.63922881257625
-0.2107,-183.34658446250873
-0.2117000000000001,-184.19541124242778
-0.2127,-184.9027668923603
-0.2137000000000001,-185.46865141230631
-0.2147,-186.03453593225234
-0.2157000000000001,-186.60042045219836
-0.2167,-187.16630497214436
-0.21770000000000012,-187.73218949209036
-0.2187,-188.29807401203638
-0.21970000000000012,-189.0054296619689
-0.2207,-189.42984305192843
-0.22170000000000012,-189.71278531190143
-0.2227,-190.27866983184742
-0.22370000000000012,-190.70308322180696
-0.2247,-191.268967741753
-0.22570000000000012,-191.83485226169896
-0.2267,-192.2592656516585
-0.22770000000000012,-192.683679041618
-0.22870000000000001,-193.10809243157752
-0.22970000000000013,-193.81544808151003
-0.23070000000000002,-194.66427486142905
-0.23170000000000013,-195.51310164134807
-0.23270000000000002,-196.3619284212671
-0.23370000000000013,-197.0692840711996
-0.23470000000000002,-197.63516859114563
-0.23570000000000013,-198.05958198110514
-0.23670000000000002,-198.76693763103765
-0.2376999999999999,-199.33282215098367
-0.23870000000000002,-200.04017780091618
-0.2396999999999999,-200.6060623208622
-0.24070000000000003,-201.17194684080823
-0.24169999999999991,-201.73783136075423
-0.24270000000000003,-202.16224475071377
-0.24369999999999992,-202.7281292706598
-0.24470000000000003,-203.43548492059227
-0.24569999999999992,-204.14284057052478
-0.24670000000000003,-204.7087250904708
-0.24769999999999992,-205.13313848043032
-0.24870000000000003,-205.55755187038983
-0.24969999999999992,-205.69902300037634
-0.25070000000000003,-206.12343639033585
-0.2516999999999999,-206.97226317025488
-0.25270000000000004,-207.8210899501739
-0.2536999999999999,-208.52844560010638
-0.25470000000000004,-208.95285899006592
-0.2556999999999999,-209.0943301200524
-0.25670000000000004,-209.51874351001192
-0.25769999999999993,-210.22609915994445
-0.25870000000000004,-210.93345480987696
-0.25969999999999993,-211.499339329823
-0.26070000000000004,-211.9237527197825
-0.26169999999999993,-212.34816610974204
-0.26270000000000004,-212.914050629688
-0.26369999999999993,-213.62140627962054
-0.26470000000000005,-214.18729079956654
-0.26569999999999994,-214.89464644949908
-0.26670000000000005,-215.31905983945856
-0.26769999999999994,-215.88494435940459
-0.26870000000000005,-216.4508288793506
-0.26969999999999994,-217.29965565926966
-0.27070000000000005,-218.28995356917517
-0.27169999999999994,-219.42172260906716
-0.27270000000000005,-220.41202051897272
-0.27369999999999994,-221.40231842887826
-0.27470000000000006,-222.3926163387838
-0.27569999999999995,-223.09997198871628
-0.27670000000000006,-223.80732763864881
-0.27769999999999995,-224.5146832885813
-0.27870000000000006,-225.22203893851383
-0.27969999999999995,-225.64645232847332
-0.28070000000000006,-225.92939458844637
-0.28169999999999995,-226.21233684841937
-0.28270000000000006,-226.35380797840588
-0.28369999999999995,-226.63675023837888
-0.28470000000000006,-226.77822136836537
-0.28569999999999995,-226.35380797840588
-0.28670000000000007,-226.49527910839237
-0.28769999999999996,-226.91969249835188
-0.28870000000000007,-227.4855770182979
-0.28969999999999996,-228.1929326682304
-0.29070000000000007,-228.75881718817644
-0.29169999999999996,-229.60764396809546
-0.29270000000000007,-230.31499961802797
-0.29369999999999996,-230.7394130079875
-0.2947000000000001,-231.163826397947
-0.29569999999999996,-231.5882397879065
-0.2967000000000001,-231.8711820478795
-0.29769999999999996,-232.43706656782552
-0.2987000000000001,-232.86147995778504
-0.29969999999999997,-233.1444222177581
-0.3007000000000001,-233.4273644777311
-0.30169999999999997,-233.71030673770406
-0.3027000000000001,-234.13472012766357
-0.30369999999999997,-234.84207577759608
-0.3047000000000001,-235.69090255751513
-0.30569999999999997,-236.6812004674206
-0.3067000000000001,-237.38855611735315
-0.3077,-238.2373828972722
-0.3087000000000001,-239.0862096771912
-0.3097,-239.93503645711021
-0.3107000000000001,-240.64239210704275
-0.3117,-241.34974775697523
-0.3127000000000001,-241.9156322769213
-0.3137,-242.34004566688077
-0.3147000000000001,-242.62298792685377
-0.3157,-243.04740131681334
-0.3167000000000001,-243.47181470677282
-0.3177,-244.17917035670533
-0.3187000000000001,-244.74505487665132
-0.3197,-245.31093939659738
-0.3207000000000001,-245.73535278655686
-0.3217,-246.01829504652986
-0.3227000000000001,-246.30123730650286
-0.3237,-246.5841795664759
-0.3247000000000001,-246.8671218264489
-0.3257,-247.2915352164084
-0.3267000000000001,-247.71594860636796
-0.3277,-247.99889086634093
-0.3287000000000001,-248.28183312631393
-0.3297,-248.56477538628693
-0.3307000000000001,-248.9891887762465
-0.3317,-249.41360216620598
-0.3327000000000001,-249.69654442617897
-0.3337,-249.83801555616546
-0.3347000000000001,-250.1209578161385
-0.3357,-250.262428946125
-0.3367000000000001,-250.6868423360845
-0.3377,-251.111255726044
-0.3387000000000001,-251.53566911600356
-0.3397,-251.96008250596302
-0.3407000000000001,-252.38449589592256
-0.3417,-252.66743815589555
-0.3427000000000001,-253.09185154585506
-0.3437,-253.51626493581452
-0.3447000000000001,-253.94067832577412
-0.3457,-254.50656284572008
-0.3467000000000001,-254.93097623567962
-0.3477,-255.35538962563913
-0.3487000000000001,-255.63833188561213
-0.3497,-256.0627452755717
-0.3507000000000001,-256.4871586655312
-0.3517,-257.0530431854772
-0.3527000000000001,-257.4774565754367
-0.3537,-257.76039883540966
-0.3547000000000001,-258.0433410953827
-0.3557,-258.18481222536917
-0.35670000000000013,-258.4677544853422
-0.3577,-258.7506967453152
-0.35870000000000013,-259.0336390052882
-0.3597,-259.3165812652612
-0.36070000000000013,-259.59952352523425
-0.3617,-259.7409946552208
-0.3626999999999999,-259.8824657852072
-0.3637,-260.16540804518024
-0.3646999999999999,-260.4483503051532
-0.3657,-260.73129256512624
-0.3666999999999999,-260.8727636951128
-0.3677,-261.01423482509927
-0.3686999999999999,-261.01423482509927
-0.36970000000000003,-261.1557059550858
-0.3706999999999999,-261.58011934504526
-0.37170000000000003,-261.8630616050183
-0.3726999999999999,-262.2874749949778
-0.37370000000000003,-262.42894612496434
-0.3746999999999999,-262.7118883849373
-0.37570000000000003,-262.9948306449103
-0.3766999999999999,-263.27777290488336
-0.37770000000000004,-263.7021862948428
-0.3786999999999999,-263.98512855481584
-0.37970000000000004,-264.40954194477536
-0.3806999999999999,-264.6924842047484
-0.38170000000000004,-265.11689759470784
-0.38269999999999993,-265.5413109846674
-0.38370000000000004,-265.82425324464043
-0.38469999999999993,-266.1071955046134
-0.38570000000000004,-266.3901377645864
-0.38669999999999993,-264.40954194477536
-0.38570000000000004,-259.17511013527474
-0.38469999999999993,-254.2236205857471
-0.38370000000000004,-249.5550732961925
-0.38269999999999993,-245.02799713662432
-0.38170000000000004,-240.78386323702924
-0.3806999999999999,-236.53972933743412
-0.37970000000000004,-232.29559543783904
-0.3786999999999999,-228.1929326682304
-0.37770000000000004,-224.09026989862178
-0.3766999999999999,-220.2705493889862
-0.37570000000000003,-216.4508288793506
-0.3746999999999999,-212.77257949970152
-0.37370000000000003,-209.0943301200524
-0.3726999999999999,-205.41608074040332
-0.37170000000000003,-201.59636023076774
-0.3706999999999999,-198.05958198110514
-0.36970000000000003,-194.66427486142905
-0.3686999999999999,-191.41043887173947
-0.3677,-188.01513175206335
-0.3666999999999999,-184.7612957623738
-0.3657,-181.5074597726842
-0.3646999999999999,-178.1121526530081
-0.3637,-174.85831666331853
-0.3626999999999999,-171.60448067362896
-0.3617,-168.35064468393938
-0.36070000000000013,-165.2382798242363
-0.3597,-161.9844438345467
-0.35870000000000013,-158.87207897484362
-0.3577,-155.61824298515404
-0.35670000000000013,-152.50587812545095
-0.3557,-149.53498439573437
-0.3547000000000001,-146.8470329259908
-0.3537,-144.01761032626072
-0.3527000000000001,-141.10330504853877
-0.3517,-138.17485265781812
-0.3507000000000001,-135.387871397084
-0.3497,-132.6857728143418
-0.3487000000000001,-129.98367423159957
-0.3477,-127.28157564885734
-0.3467000000000001,-124.57947706611512
-0.3457,-121.82079003137831
-0.3447000000000001,-119.1186914486361
-0.3437,-116.45903420488982
-0.3427000000000001,-113.92670097813141
-0.3417,-111.4509562033676
-0.3407000000000001,-108.96106431560513
-0.3397,-106.47117242784265
-0.3387000000000001,-103.89639786208829
-0.3377,-101.3640646353299
-0.3367000000000001,-99.05808521654988
-0.3357,-96.79454713676581
-0.3347000000000001,-94.55930328297906
-0.3337,-92.3806478811869
-0.3327000000000001,-90.07466846240689
-0.3317,-87.75454193062824
-0.3307000000000001,-85.53344518984011
-0.3297,-83.39723112704392
-0.3287000000000001,-81.30345840324367
-0.3277,-79.25212701843935
-0.3267000000000001,-77.11591295564315
-0.3257,-74.97969889284694
-0.3247000000000001,-72.80104349105478
-0.3237,-70.70727076725453
-0.3227000000000001,-68.69838072144618
-0.3217,-66.77437335362974
-0.3207000000000001,-64.90695443780788
-0.3197,-62.94050573099548
-0.3187000000000001,-60.93161568518713
-0.3177,-58.97931409137338
-0.3167000000000001,-57.097748062552874
-0.3157,-55.31521182472294
-0.3147000000000001,-53.56096981289029
-0.3137,-51.77843357506035
-0.3127000000000001,-49.939308885235796
-0.3117,-48.071889969413945
-0.3107000000000001,-46.27520661858535
-0.3097,-44.535111719751356
-0.3087000000000001,-42.92234083790521
-0.3077,-41.30956995605907
-0.3067000000000001,-39.696799074212926
-0.30569999999999997,-37.94255706238028
-0.3047000000000001,-36.244903502542236
-0.30369999999999997,-34.58969128170015
-0.3027000000000001,-32.97692039985401
-0.30169999999999997,-31.49147353499572
-0.3007000000000001,-30.00602667013743
-0.29969999999999997,-28.478138466283188
-0.2987000000000001,-26.86536758443705
-0.29769999999999996,-25.252596702590903
-0.2967000000000001,-23.767149837732617
-0.29569999999999996,-22.38073276386488
-0.2947000000000001,-20.980168576998494
-0.29369999999999996,-19.579604390132108
-0.29270000000000007,-18.15074597726842
-0.29169999999999996,-16.622857773414182
-0.29070000000000007,-15.179852247551842
-0.28969999999999996,-13.784946905884919
-0.28870000000000007,-12.520195003805576
-0.28769999999999996,-11.255443101726232
-0.28670000000000007,-9.902979099055257
-0.28569999999999995,-8.55051509638428
-0.28470000000000006,-7.111753704421539
-0.28369999999999995,-5.80314575204638
-0.28270000000000006,-4.582249900262854
-0.28169999999999995,-3.403795387475278
-0.28070000000000006,-2.1828995356917518
-0.27969999999999995,-0.9181476336124089
-0.27870000000000006,0.3903188476327636
-0.27769999999999995,1.655212220842093
-0.27670000000000006,2.8761080726256196
-0.27569999999999995,4.01070653511738
-0.27470000000000006,5.101448947313322
-0.27369999999999994,6.234632698505217
-0.27270000000000005,7.413087211292793
-0.27169999999999994,8.677839113372134
-0.27070000000000005,9.854878914859846
-0.26969999999999994,10.989477377351605
-0.26870000000000005,12.036363739251732
-0.26769999999999994,13.039394050856043
