Potential V vs RHE, Current mA cm-2
0.013299999999999867,12.036363739251732
0.012299999999999978,9.593157324384812
0.011299999999999866,7.456943261588608
0.010299999999999976,5.3631705377883545
0.009299999999999864,3.313253864283916
0.008299999999999974,1.4373466806628774
0.007299999999999862,-0.26384365742482935
0.006299999999999972,-1.8334658446250875
0.00529999999999986,-3.403795387475278
0.0042999999999999705,-5.0618370309171015
0.0032999999999998586,-6.588310523471475
0.0022999999999999687,-7.940774526142452
0.0012999999999998568,-9.161670377925978
0.00029999999999996696,-10.470278330301136
-0.000700000000000145,-11.86659838326793
-0.0017000000000000348,-13.175206335643086
-0.0027000000000001467,-14.30273124163552
-0.0037000000000000366,-15.349617603535648
-0.0047000000000001485,-16.495533756426326
-0.005700000000000038,-17.669744135314307
-0.00670000000000015,-18.843954514202288
-0.00770000000000004,-19.805958198110513
-0.008700000000000152,-20.72552054302279
-0.009700000000000042,-21.67337711393236
-0.010700000000000154,-22.776851927827092
-0.011700000000000044,-23.823738289727217
-0.012700000000000156,-24.64427084364894
-0.013700000000000045,-25.478950510569312
-0.014700000000000157,-26.34192440348698
-0.015700000000000047,-27.303928087395207
-0.01670000000000016,-28.22349043230748
-0.01770000000000005,-28.959140308237306
-0.01870000000000016,-29.66649595816982
-0.01970000000000005,-30.487028512091538
-0.020700000000000163,-31.36414951800786
-0.021700000000000053,-32.184682071929586
-0.022700000000000164,-32.93447906085806
-0.023700000000000054,-33.54280491980002
-0.024700000000000166,-34.377484586720385
-0.025700000000000056,-35.240458479638065
-0.026700000000000168,-36.11757948555439
-0.027700000000000058,-36.8532293614842
-0.02870000000000017,-37.47570233342482
-0.02970000000000006,-38.253793548350586
-0.03070000000000017,-39.08847321527096
-0.03170000000000006,-39.86656443019674
-0.03270000000000017,-40.559772967130606
-0.03370000000000006,-41.22468727806717
-0.034700000000000175,-42.00277849299294
-0.035700000000000065,-42.837458159913304
-0.03670000000000018,-43.657990713835034
-0.03770000000000007,-44.3229050247716
-0.03870000000000018,-45.01611356170547
-0.03970000000000007,-45.75176343763528
-0.04070000000000018,-46.586443104555656
-0.04170000000000007,-47.36453431948143
-0.04270000000000018,-48.029448630417996
-0.04370000000000007,-48.59533315036401
-0.044700000000000184,-49.28854168729788
-0.045700000000000074,-50.0807800152223
-0.046700000000000186,-50.85887123014807
-0.047700000000000076,-51.509638428085985
-0.04870000000000019,-52.11796428702795
-0.04970000000000008,-52.86776127595642
-0.05070000000000019,-53.68829382987814
-0.05170000000000008,-54.52297349679851
-0.05270000000000019,-55.21618203373238
-0.05370000000000008,-55.838655005673
-0.05470000000000019,-56.61674622059877
-0.05570000000000008,-57.53630856551105
-0.056700000000000195,-58.498312249419264
-0.057700000000000085,-59.23396212534908
-0.058700000000000196,-59.92717066228296
-0.059700000000000086,-60.761850329203334
-0.0607000000000002,-61.63897133511965
-0.06170000000000009,-62.41706255004542
-0.0627000000000002,-63.11027108697928
-0.06370000000000009,-63.77518539791585
-0.0647000000000002,-64.46839393484973
-0.06570000000000009,-65.16160247178358
-0.0667000000000002,-65.91139946071206
-0.0677000000000001,-66.43484264166212
-0.0687000000000002,-66.9582858226122
-0.0697000000000001,-67.56661168155415
-0.07070000000000021,-68.34470289647993
-0.0717000000000001,-69.0096172074165
-0.07270000000000021,-69.6603844053544
-0.0737000000000001,-70.26871026429637
-0.07470000000000021,-70.91947746223428
-0.0757000000000001,-71.66927445116276
-0.07670000000000021,-72.44736566608852
-0.0777000000000001,-73.09813286402644
-0.07870000000000021,-73.80548851395896
-0.0797000000000001,-74.62602106788069
-0.08070000000000022,-75.6729074297808
-0.0817000000000001,-76.67735245268499
-0.08270000000000022,-77.51203211960537
-0.08370000000000011,-78.29012333453113
-0.08470000000000022,-79.16724434044745
-0.08570000000000011,-80.08680668535972
-0.08670000000000022,-80.90733923928146
-0.08770000000000011,-81.57225355021802
-0.08870000000000022,-82.13813807016405
-0.08970000000000011,-82.746463929106
-0.09070000000000022,-83.43967246603985
-0.09170000000000011,-84.13288100297372
-0.09270000000000023,-84.6563241839238
-0.09370000000000012,-85.09488468688197
-0.09470000000000023,-85.66076920682796
-0.09570000000000012,-86.36812485676049
-0.09670000000000023,-87.06133339369435
-0.09770000000000012,-87.62721791364037
-0.09870000000000023,-88.15066109459043
-0.09970000000000012,-88.8438696315243
-0.10070000000000023,-89.67854929844468
-0.10170000000000012,-90.51322896536506
-0.10270000000000024,-91.24887884129487
-0.10370000000000013,-91.89964603923279
-0.10470000000000024,-92.6918843671572
-0.10570000000000013,-93.55485826007487
-0.10670000000000024,-94.4319792659912
-0.10770000000000013,-95.22421759391563
-0.10870000000000024,-95.91742613084948
-0.10970000000000013,-96.69551734577524
-0.11070000000000024,-97.57263835169158
-0.11170000000000013,-98.40731801861195
-0.11270000000000002,-99.14296789454177
-0.11370000000000013,-99.66641107549184
-0.11470000000000002,-100.23229559543785
-0.11570000000000014,-100.98209258436633
-0.11670000000000003,-101.6753011213002
-0.11770000000000014,-102.19874430225026
-0.11870000000000003,-102.63730480520842
-0.11970000000000014,-103.20318932515443
-0.12070000000000003,-103.85395652309235
-0.12170000000000014,-104.5471650600262
-0.12270000000000003,-105.07060824097626
-0.12370000000000014,-105.5516100829304
-0.12470000000000003,-105.86284656890071
-0.12570000000000014,-106.51361376683862
-0.12670000000000003,-107.34829343375898
-0.12770000000000015,-107.87173661470905
-0.12870000000000004,-108.3102971176672
-0.12970000000000015,-108.77715184662266
-0.13070000000000004,-109.4845074965552
-0.13170000000000015,-110.22015737248502
-0.13270000000000004,-110.78604189243102
-0.13370000000000015,-111.3094850733811
-0.13470000000000004,-112.05928206230955
-0.13570000000000015,-112.83737327723534
-0.13670000000000004,-113.67205294415571
-0.13770000000000016,-114.40770282008553
-0.13870000000000005,-115.01602867902749
-0.13970000000000016,-115.76582566795594
-0.14070000000000005,-116.58635822187767
-0.14170000000000016,-117.33615521080614
-0.14270000000000005,-117.98692240874406
-0.14370000000000016,-118.51036558969413
-0.14470000000000005,-119.16113278763203
-0.14570000000000016,-119.9109297765605
-0.14670000000000005,-120.56169697449842
-0.14770000000000016,-121.0851401554485
-0.14870000000000005,-121.65102467539451
-0.14970000000000017,-122.34423321232836
-0.15070000000000006,-123.1364715402528
-0.15170000000000017,-123.91456275517855
-0.15270000000000006,-124.48044727512458
-0.15370000000000017,-124.9614491170787
-0.15470000000000006,-125.5273336370247
-0.15570000000000017,-126.27713062595316
-0.15670000000000006,-126.80057380690324
-0.15770000000000017,-127.36645832684925
-0.15870000000000006,-127.93234284679528
-0.15970000000000018,-128.5831100447332
-0.16070000000000007,-129.2338772426711
-0.16170000000000018,-129.75732042362114
-0.16270000000000007,-130.23832226557528
-0.16370000000000018,-130.7193241075294
-0.16470000000000007,-131.1154432714916
-0.16570000000000018,-131.24276728847948
-0.16670000000000007,-131.15788461048754
-0.16770000000000018,-131.15788461048754
-0.16870000000000007,-131.46912109645783
-0.16970000000000018,-131.8510931474214
-0.17070000000000007,-132.41697766736743
-0.17170000000000019,-133.08189197830401
-0.17270000000000008,-133.64777649825
-0.1737000000000002,-134.12877834020412
-0.17470000000000008,-134.69466286015015
-0.1757000000000002,-135.34543005808808
-0.17670000000000008,-136.03863859502192
-0.1777000000000002,-136.60452311496792
-0.17870000000000008,-137.1845547479126
-0.1797000000000002,-137.9626459628384
-0.18070000000000008,-138.8397669687547
-0.1817000000000002,-139.6602995226764
-0.18270000000000008,-140.36765517260895
-0.1837000000000002,-140.9759810315509
-0.1847000000000001,-141.61260111649017
-0.1857000000000002,-142.4614278964092
-0.1867000000000001,-143.16878354634173
-0.1877000000000002,-143.5931969363012
-0.1887000000000001,-143.73466806628772
-0.1897000000000002,-143.87613919627424
-0.1907000000000001,-144.30055258623375
-0.1917000000000001,-144.72496597619326
-0.19269999999999998,-144.86643710617977
-0.1937000000000001,-145.00790823616626
-0.19469999999999998,-145.29085049613926
-0.1957000000000001,-145.9982061460718
-0.19669999999999999,-146.7055617960043
-0.1977000000000001,-147.1299751859638
-0.1987,-147.55438857592333
-0.1997000000000001,-148.12027309586935
-0.2007,-148.96909987578834
-0.2017000000000001,-149.6764555257209
-0.2027,-150.1008689156804
-0.2037000000000001,-150.66675343562642
-0.2047,-151.23263795557244
-0.2057000000000001,-151.93999360550492
-0.2067,-152.50587812545095
-0.2077000000000001,-152.93029151541046
-0.2087,-153.21323377538346
-0.2097000000000001,-153.63764716534297
-0.2107,-153.77911829532948
-0.2117000000000001,-154.203531685289
-0.2127,-154.3450028152755
-0.2137000000000001,-154.6279450752485
-0.2147,-155.05235846520802
-0.2157000000000001,-155.61824298515404
-0.2167,-156.32559863508658
-0.21770000000000012,-156.75001202504606
-0.2187,-157.31589654499206
-0.21970000000000012,-157.88178106493808
-0.2207,-158.5891367148706
-0.22170000000000012,-159.43796349478964
-0.2227,-160.14531914472215
-0.22370000000000012,-160.8526747946547
-0.2247,-161.5600304445872
-0.22570000000000012,-162.40885722450622
-0.2267,-163.11621287443873
-0.22770000000000012,-163.68209739438475
-0.22870000000000001,-164.10651078434424
-0.22970000000000013,-164.53092417430375
-0.23070000000000002,-165.09680869424977
-0.23170000000000013,-165.5212220842093
-0.23270000000000002,-165.94563547416882
-0.23370000000000013,-166.22857773414182
-0.23470000000000002,-166.65299112410133
-0.23570000000000013,-167.21887564404733
-0.23670000000000002,-167.6432890340068
-0.2376999999999999,-167.92623129397984
-0.23870000000000002,-168.20917355395284
-0.2396999999999999,-168.63358694391238
-0.24070000000000003,-169.19947146385837
-0.24169999999999991,-169.6238848538179
-0.24270000000000003,-170.0482982437774
-0.24369999999999992,-170.47271163373694
-0.24470000000000003,-171.03859615368293
-0.24569999999999992,-171.74595180361547
-0.24670000000000003,-172.31183632356147
-0.24769999999999992,-172.87772084350746
-0.24870000000000003,-173.44360536345349
-0.24969999999999992,-174.0094898833995
-0.25070000000000003,-174.71684553333202
-0.2516999999999999,-175.42420118326456
-0.25270000000000004,-175.99008570321055
-0.2536999999999999,-176.55597022315658
-0.25470000000000004,-176.98038361311612
-0.2556999999999999,-177.54626813306209
-0.25670000000000004,-178.1121526530081
-0.25769999999999993,-178.3950949129811
-0.25870000000000004,-178.3950949129811
-0.25969999999999993,-178.67803717295413
-0.26070000000000004,-178.81950830294062
-0.26169999999999993,-179.10245056291362
-0.26270000000000004,-179.38539282288664
-0.26369999999999993,-179.66833508285964
-0.26470000000000005,-180.09274847281918
-0.26569999999999994,-180.5171618627787
-0.26670000000000005,-181.08304638272472
-0.26769999999999994,-181.64893090267074
-0.26870000000000005,-182.21481542261674
-0.26969999999999994,-182.78069994256273
-0.27070000000000005,-183.77099785246824
-0.27169999999999994,-184.6198246323873
-0.27270000000000005,-185.6101225422928
-0.27369999999999994,-186.31747819222534
-0.27470000000000006,-186.88336271217133
-0.27569999999999995,-187.73218949209036
-0.27670000000000006,-188.4395451420229
-0.27769999999999995,-188.72248740199586
-0.27870000000000006,-188.72248740199586
-0.27969999999999995,-189.2883719219419
-0.28070000000000006,-190.27866983184742
-0.28169999999999995,-190.98602548177996
-0.28270000000000006,-191.551910001726
-0.28369999999999995,-192.11779452167198
-0.28470000000000006,-192.683679041618
-0.28569999999999995,-193.532505821537
-0.28670000000000007,-194.2398614714695
-0.28769999999999996,-194.80574599141553
-0.28870000000000007,-195.23015938137505
-0.28969999999999996,-195.65457277133459
-0.29070000000000007,-196.2204572912806
-0.29169999999999996,-196.7863418112266
-0.29270000000000007,-197.0692840711996
-0.29369999999999996,-196.92781294121312
-0.2947000000000001,-196.6448706812401
-0.29569999999999996,-196.6448706812401
-0.2967000000000001,-196.92781294121312
-0.29769999999999996,-197.21075520118612
-0.2987000000000001,-197.35222633117263
-0.29969999999999997,-197.35222633117263
-0.3007000000000001,-197.49369746115914
-0.30169999999999997,-197.77663972113214
-0.3027000000000001,-197.91811085111863
-0.30369999999999997,-197.91811085111863
-0.3047000000000001,-198.20105311109162
-0.30569999999999997,-198.90840876102413
-0.3067000000000001,-199.33282215098367
-0.3077,-199.75723554094319
-0.3087000000000001,-200.3231200608892
-0.3097,-200.88900458083523
-0.3107000000000001,-201.31341797079472
-0.3117,-201.73783136075423
-0.3127000000000001,-202.16224475071377
-0.3137,-202.58665814067325
-0.3147000000000001,-203.15254266061928
-0.3157,-203.85989831055176
-0.3167000000000001,-204.42578283049778
-0.3177,-204.9916673504438
-0.3187000000000001,-205.27460961041683
-0.3197,-205.41608074040332
-0.3207000000000001,-205.84049413036286
-0.3217,-206.12343639033585
-0.3227000000000001,-206.40637865030885
-0.3237,-206.54784978029537
-0.3247000000000001,-206.54784978029537
-0.3257,-206.83079204026836
-0.3267000000000001,-207.1137343002414
-0.3277,-207.25520543022787
-0.3287000000000001,-207.3966765602144
-0.3297,-207.67961882018741
-0.3307000000000001,-207.8210899501739
-0.3317,-208.1040322101469
-0.3327000000000001,-208.3869744701199
-0.3337,-208.8113878600794
-0.3347000000000001,-209.0943301200524
-0.3357,-209.66021463999843
-0.3367000000000001,-210.22609915994445
-0.3377,-210.79198367989048
-0.3387000000000001,-211.21639706985
-0.3397,-211.499339329823
-0.3407000000000001,-211.9237527197825
-0.3417,-212.34816610974204
-0.3427000000000001,-212.77257949970152
-0.3437,-212.914050629688
-0.3447000000000001,-212.914050629688
-0.3457,-213.19699288966103
-0.3467000000000001,-213.33846401964755
-0.3477,-213.19699288966103
-0.3487000000000001,-213.05552175967455
-0.3497,-213.05552175967455
-0.3507000000000001,-213.19699288966103
-0.3517,-213.33846401964755
-0.3527000000000001,-213.47993514963403
-0.3537,-213.47993514963403
-0.3547000000000001,-213.62140627962054
-0.3557,-213.90434853959354
-0.35670000000000013,-214.04581966958003
-0.3577,-214.18729079956654
-0.35870000000000013,-214.32876192955305
-0.3597,-214.75317531951256
-0.36070000000000013,-215.17758870947208
-0.3617,-215.6020020994316
-0.3626999999999999,-215.88494435940459
-0.3637,-215.88494435940459
-0.3646999999999999,-216.0264154893911
-0.3657,-216.0264154893911
-0.3666999999999999,-215.88494435940459
-0.3677,-215.7434732294181
-0.3686999999999999,-215.6020020994316
-0.36970000000000003,-215.4605309694451
-0.3706999999999999,-215.4605309694451
-0.37170000000000003,-215.6020020994316
-0.3726999999999999,-215.7434732294181
-0.37370000000000003,-215.7434732294181
-0.3746999999999999,-215.7434732294181
-0.37570000000000003,-216.0264154893911
-0.3766999999999999,-216.4508288793506
-0.37770000000000004,-216.87524226931012
-0.3786999999999999,-217.01671339929663
-0.37970000000000004,-217.29965565926966
-0.3806999999999999,-217.72406904922914
-0.38170000000000004,-218.28995356917517
-0.38269999999999993,-218.57289582914817
-0.38370000000000004,-218.71436695913465
-0.38469999999999993,-218.71436695913465
-0.38570000000000004,-218.71436695913465
-0.38669999999999993,-216.59230000933712
-0.38570000000000004,-211.21639706985
-0.38469999999999993,-205.98196526034934
-0.38370000000000004,-201.17194684080823
-0.38269999999999993,-196.6448706812401
-0.38170000000000004,-192.40073678164498
-0.3806999999999999,-188.01513175206335
-0.37970000000000004,-183.77099785246824
-0.3786999999999999,-179.80980621284618
-0.37770000000000004,-175.84861457322407
-0.3766999999999999,-172.17036519357498
-0.37570000000000003,-168.35064468393938
-0.3746999999999999,-164.81386643427678
-0.37370000000000003,-161.2770881846142
-0.3726999999999999,-158.02325219492457
-0.37170000000000003,-154.76941620523502
-0.3706999999999999,-151.37410908555893
-0.36970000000000003,-148.12027309586935
-0.3686999999999999,-145.00790823616626
-0.3677,-141.89554337646317
-0.3666999999999999,-138.92464964674662
-0.3657,-135.91131457803408
-0.3646999999999999,-132.7706554923337
-0.3637,-129.79976176261712
-0.3626999999999999,-127.012780501883
-0.3617,-124.22579924114888
-0.36070000000000013,-121.29734685042824
-0.3597,-118.38304157270628
-0.35870000000000013,-115.5819131989735
-0.3577,-113.00713863321914
-0.35670000000000013,-110.53139385845533
-0.3557,-107.914177953705
-0.3547000000000001,-105.33940338795064
-0.3537,-102.80707016119221
-0.3527000000000001,-100.45864940341626
-0.3517,-98.13852287163759
-0.3507000000000001,-95.69107232287108
-0.3497,-93.21532754810727
-0.3487000000000001,-90.85275967733266
-0.3477,-88.6741042755405
-0.3467000000000001,-86.58033155174023
-0.3457,-84.35923481095215
-0.3447000000000001,-82.03910827917348
-0.3437,-79.94533555537322
-0.3427000000000001,-77.95059262256353
-0.3417,-76.02658525474708
-0.3407000000000001,-73.97525386994278
-0.3397,-71.8814811461425
-0.3387000000000001,-69.91503243933012
-0.3377,-68.0900548625042
-0.3367000000000001,-66.25093017267966
-0.3357,-64.34106991786187
-0.3347000000000001,-62.33217987205352
-0.3337,-60.49305518222897
-0.3327000000000001,-58.71051894439902
-0.3317,-57.012865384560975
-0.3307000000000001,-55.17374069473642
-0.3297,-53.30632177891458
-0.3287000000000001,-51.594521106077885
-0.3277,-50.0807800152223
-0.3267000000000001,-48.51045047237211
-0.3257,-46.79864979953541
-0.3247000000000001,-45.01611356170547
-0.3237,-43.40334267985933
-0.3227000000000001,-41.96033715399699
-0.3217,-40.4748902891387
-0.3207000000000001,-38.86211940729255
-0.3197,-37.249348525446415
-0.3187000000000001,-35.721460321592176
-0.3177,-34.33504324772444
-0.3167000000000001,-32.93447906085806
-0.3157,-31.40659085700382
-0.3147000000000001,-29.921143992145527
-0.3137,-28.478138466283188
-0.3127000000000001,-27.261486748399253
-0.3117,-26.002393691519377
-0.3107000000000001,-24.64427084364894
-0.3097,-23.24370665678255
-0.3087000000000001,-21.94217226090672
-0.3077,-20.810403221014692
-0.3067000000000001,-19.636192842126707
-0.30569999999999997,-18.362952672248177
-0.3047000000000001,-16.962388485381787
-0.30369999999999997,-15.78817810649381
-0.3027000000000001,-14.65640906660178
-0.30169999999999997,-13.567081365705702
-0.3007000000000001,-12.346185513922174
-0.29969999999999997,-11.081433611842833
-0.2987000000000001,-9.902979099055257
-0.29769999999999996,-8.899948787450944
-0.2967000000000001,-7.896918475846635
-0.29569999999999996,-6.762320013354876
-0.2947000000000001,-5.585280211867165
-0.29369999999999996,-4.538393849967037
-0.29270000000000007,-3.579219588658543
-0.29169999999999996,-2.618630616050183
-0.29070000000000007,-1.5717442541500557
-0.28969999999999996,-0.4384190318281749
-0.28870000000000007,0.6084673300719523
-0.28769999999999996,1.4812027309586933
-0.28670000000000007,2.352664891675556
-0.28569999999999995,3.355695203279867
-0.28470000000000006,4.44643761547581
-0.28369999999999995,5.3631705377883545
-0.28270000000000006,6.1907766482094
-0.28169999999999995,7.063653520226129
-0.28070000000000006,8.022827781534623
-0.27969999999999995,9.025858093138934
-0.27870000000000006,9.942591015451477
-0.27769999999999995,10.727755786876573
-0.27670000000000006,11.556776608597485
-0.27569999999999995,12.472094819610163
-0.27470000000000006,13.388827741922707
-0.27369999999999994,14.26028990263957
-0.27270000000000005,14.995939778569388
-0.27169999999999994,15.74573676749786
-0.27070000000000005,16.665299112410132
-0.26969999999999994,17.613155683319707
-0.26870000000000005,18.40539401124413
-0.26769999999999994,19.056161209182044
-0.26670000000000005,19.749369746115914
