Potential V vs RHE, Current mA cm-2
0.013299999999999867,10.683899736580756
0.012299999999999978,8.022827781534623
0.011299999999999866,5.581036077967569
0.010299999999999976,3.225541763692284
0.009299999999999864,1.0010497157844997
0.008299999999999974,-1.1798692240874404
0.007299999999999862,-3.317497998183511
0.006299999999999972,-5.411270721983764
0.00529999999999986,-7.461187395488204
0.0042999999999999705,-9.467248018696827
0.0032999999999998586,-11.473308641905447
0.0022999999999999687,-13.3930718758223
0.0012999999999998568,-15.222293586547794
0.00029999999999996696,-17.018976937376394
-0.000700000000000145,-18.759071836210385
-0.0017000000000000348,-20.414284057052477
-0.0027000000000001467,-22.027054938898623
-0.0037000000000000366,-23.682267159740714
-0.0047000000000001485,-25.252596702590903
-0.005700000000000038,-26.822926245441096
-0.00670000000000015,-28.435697127287238
-0.00770000000000004,-30.00602667013743
-0.008700000000000152,-31.533914873991666
-0.009700000000000042,-33.06180307784591
-0.010700000000000154,-34.5472499427042
-0.011700000000000044,-35.94781412957058
-0.012700000000000156,-37.291789864442364
-0.013700000000000045,-38.6499127123128
-0.014700000000000157,-39.95144710818864
-0.015700000000000047,-41.267128617063115
-0.01670000000000016,-42.568663012938956
-0.01770000000000005,-43.92678586080939
-0.01870000000000016,-45.22832025668522
-0.01970000000000005,-46.544001765559706
-0.020700000000000163,-47.84553616143554
-0.021700000000000053,-49.118776331314066
-0.022700000000000164,-50.37786938819396
-0.023700000000000054,-51.55207976708194
-0.024700000000000166,-52.74043725896857
-0.025700000000000056,-53.872206298860604
-0.026700000000000168,-54.961533999756675
-0.027700000000000058,-56.093303039648696
-0.02870000000000017,-57.26751341853669
-0.02970000000000006,-58.39928245842871
-0.03070000000000017,-59.587639950315335
-0.03170000000000006,-60.71940899020737
-0.03270000000000017,-61.851178030099405
-0.03370000000000006,-62.98294706999144
-0.034700000000000175,-64.02983343189156
-0.035700000000000065,-65.11916113278764
-0.03670000000000018,-66.16604749468777
-0.03770000000000007,-67.17049251759194
-0.03870000000000018,-68.25982021848802
-0.03970000000000007,-69.30670658038814
-0.04070000000000018,-70.39603428128423
-0.04170000000000007,-71.52780332117625
-0.04270000000000018,-72.67371947406694
-0.04370000000000007,-73.80548851395896
-0.044700000000000184,-74.8523748758591
-0.045700000000000074,-75.8992612377592
-0.046700000000000186,-76.94614759965934
-0.047700000000000076,-77.95059262256353
-0.04870000000000019,-78.9550376454677
-0.04970000000000008,-79.94533555537322
-0.05070000000000019,-80.90733923928146
-0.05170000000000008,-81.95422560118158
-0.05270000000000019,-83.0011119630817
-0.05370000000000008,-84.04799832498183
-0.05470000000000019,-85.09488468688197
-0.05570000000000008,-86.14177104878208
-0.056700000000000195,-87.18865741068221
-0.057700000000000085,-88.23554377258235
-0.058700000000000196,-89.19754745649055
-0.059700000000000086,-90.20199247939475
-0.0607000000000002,-91.20643750229891
-0.06170000000000009,-92.25332386419905
-0.0627000000000002,-93.25776888710321
-0.06370000000000009,-94.26221391000739
-0.0647000000000002,-95.35154161090348
-0.06570000000000009,-96.4833106507955
-0.0667000000000002,-97.61507969068752
-0.0677000000000001,-98.7044073915836
-0.0687000000000002,-99.75129375348374
-0.0697000000000001,-100.79818011538387
-0.07070000000000021,-101.88750781627995
-0.0717000000000001,-102.89195283918411
-0.07270000000000021,-103.89639786208829
-0.0737000000000001,-104.90084288499246
-0.07470000000000021,-105.99017058588855
-0.0757000000000001,-107.07949828678463
-0.07670000000000021,-108.1688259876807
-0.0777000000000001,-109.30059502757274
-0.07870000000000021,-110.48895251945936
-0.0797000000000001,-111.66316289834735
-0.08070000000000022,-112.75249059924342
-0.0817000000000001,-113.84181830013951
-0.08270000000000022,-114.84626332304367
-0.08370000000000011,-115.85070834594785
-0.08470000000000022,-116.85515336885203
-0.08570000000000011,-117.85959839175621
-0.08670000000000022,-118.90648475365633
-0.08770000000000011,-119.99581245455242
-0.08870000000000022,-121.12758149444444
-0.08970000000000011,-122.21690919534053
-0.09070000000000022,-123.26379555724066
-0.09170000000000011,-124.35312325813672
-0.09270000000000023,-125.35756828104091
-0.09370000000000012,-126.40445464294103
-0.09470000000000023,-127.36645832684925
-0.09570000000000012,-128.37090334975343
-0.09670000000000023,-129.33290703366166
-0.09770000000000012,-130.32320494356716
-0.09870000000000023,-131.37009130546733
-0.09970000000000012,-132.47356611936203
-0.10070000000000023,-133.5628938202581
-0.10170000000000012,-134.73710419914607
-0.10270000000000024,-135.86887323903812
-0.10370000000000013,-136.91575960093826
-0.10470000000000024,-138.00508730183432
-0.10570000000000013,-139.05197366373446
-0.10670000000000024,-140.0988600256346
-0.10770000000000013,-141.14574638753473
-0.10870000000000024,-142.17848563643616
-0.10970000000000013,-143.16878354634173
-0.11070000000000024,-144.30055258623375
-0.11170000000000013,-145.43232162612577
-0.11270000000000002,-146.5640906660178
-0.11370000000000013,-147.6958597059098
-0.11470000000000002,-148.82762874580186
-0.11570000000000014,-149.95939778569388
-0.11670000000000003,-150.94969569559944
-0.11770000000000014,-152.0814647354914
-0.11870000000000003,-153.07176264539694
-0.11970000000000014,-154.203531685289
-0.12070000000000003,-155.19382959519453
-0.12170000000000014,-156.18412750510007
-0.12270000000000003,-157.31589654499206
-0.12370000000000014,-158.4476655848841
-0.12470000000000003,-159.57943462477613
-0.12570000000000014,-160.71120366466818
-0.12670000000000003,-161.84297270456022
-0.12770000000000015,-162.8332706144657
-0.12870000000000004,-163.96503965435775
-0.12970000000000015,-164.9553375642633
-0.13070000000000004,-165.94563547416882
-0.13170000000000015,-166.93593338407433
-0.13270000000000004,-168.06770242396635
-0.13370000000000015,-169.19947146385837
-0.13470000000000004,-170.33124050375042
-0.13570000000000015,-171.32153841365593
-0.13670000000000004,-172.59477858353446
-0.13770000000000016,-173.58507649344
-0.13870000000000005,-174.71684553333202
-0.13970000000000016,-175.84861457322407
-0.14070000000000005,-176.98038361311612
-0.14170000000000016,-178.1121526530081
-0.14270000000000005,-179.24392169290016
-0.14370000000000016,-180.37569073279218
-0.14470000000000005,-181.5074597726842
-0.14570000000000016,-182.49775768258974
-0.14670000000000005,-183.62952672248176
-0.14770000000000016,-184.6198246323873
-0.14870000000000005,-185.7515936722793
-0.14970000000000017,-186.74189158218485
-0.15070000000000006,-187.73218949209036
-0.15170000000000017,-188.72248740199586
-0.15270000000000006,-189.71278531190143
-0.15370000000000017,-190.70308322180696
-0.15470000000000006,-191.551910001726
-0.15570000000000017,-192.54220791163152
-0.15670000000000006,-193.532505821537
-0.15770000000000017,-194.66427486142905
-0.15870000000000006,-195.79604390132107
-0.15970000000000018,-196.92781294121312
-0.16070000000000007,-198.05958198110514
-0.16170000000000018,-199.19135102099716
-0.16270000000000007,-200.3231200608892
-0.16370000000000018,-201.31341797079472
-0.16470000000000007,-202.44518701068677
-0.16570000000000018,-203.43548492059227
-0.16670000000000007,-204.5672539604843
-0.16770000000000018,-205.69902300037634
-0.16870000000000007,-206.83079204026836
-0.16970000000000018,-207.96256108016038
-0.17070000000000007,-209.0943301200524
-0.17170000000000019,-210.36757028993094
-0.17270000000000008,-211.499339329823
-0.1737000000000002,-212.48963723972852
-0.17470000000000008,-213.47993514963403
-0.1757000000000002,-214.47023305953954
-0.17670000000000008,-215.4605309694451
-0.1777000000000002,-216.3093577493641
-0.17870000000000008,-217.29965565926966
-0.1797000000000002,-218.28995356917517
-0.18070000000000008,-219.42172260906716
-0.1817000000000002,-220.41202051897272
-0.18270000000000008,-221.54378955886475
-0.1837000000000002,-222.6755585987568
-0.1847000000000001,-223.80732763864881
-0.1857000000000002,-224.65615441856778
-0.1867000000000001,-225.64645232847332
-0.1877000000000002,-226.63675023837888
-0.1887000000000001,-227.4855770182979
-0.1897000000000002,-228.47587492820347
-0.1907000000000001,-229.32470170812243
-0.1917000000000001,-230.31499961802797
-0.19269999999999998,-231.163826397947
-0.1937000000000001,-232.15412430785253
-0.19469999999999998,-233.1444222177581
-0.1957000000000001,-233.99324899767706
-0.19669999999999999,-234.9835469075826
-0.1977000000000001,-235.83237368750162
-0.1987,-236.82267159740715
-0.1997000000000001,-237.53002724733966
-0.2007,-238.2373828972722
-0.2017000000000001,-239.0862096771912
-0.2027,-239.7935653271237
-0.2037000000000001,-240.64239210704275
-0.2047,-241.49121888696175
-0.2057000000000001,-242.34004566688077
-0.2067,-243.3303435767863
-0.2077000000000001,-244.17917035670533
-0.2087,-245.02799713662432
-0.2097000000000001,-245.87682391654337
-0.2107,-246.8671218264489
-0.2117000000000001,-247.71594860636796
-0.2127,-248.56477538628693
-0.2137000000000001,-249.5550732961925
-0.2147,-250.4039000761115
-0.2157000000000001,-251.39419798601702
-0.2167,-252.38449589592256
-0.21770000000000012,-253.37479380582806
-0.2187,-254.36509171573357
-0.21970000000000012,-255.49686075562562
-0.2207,-256.4871586655312
-0.22170000000000012,-257.33598544545015
-0.2227,-258.32628335535566
-0.22370000000000012,-259.17511013527474
-0.2247,-260.02393691519376
-0.22570000000000012,-260.8727636951128
-0.2267,-261.7215904750318
-0.22770000000000012,-262.57041725495077
-0.22870000000000001,-263.41924403486985
-0.22970000000000013,-264.40954194477536
-0.23070000000000002,-265.2583687246944
-0.23170000000000013,-266.2486666345999
-0.23270000000000002,-266.9560222845325
-0.23370000000000013,-267.80484906445145
-0.23470000000000002,-268.512204714384
-0.23570000000000013,-269.2195603643164
-0.23670000000000002,-269.926916014249
-0.2376999999999999,-270.775742794168
-0.23870000000000002,-271.4830984441005
-0.2396999999999999,-272.3319252240195
-0.24070000000000003,-273.1807520039386
-0.24169999999999991,-274.0295787838576
-0.24270000000000003,-274.87840556377665
-0.24369999999999992,-275.7272323436957
-0.24470000000000003,-276.5760591236147
-0.24569999999999992,-277.4248859035337
-0.24670000000000003,-278.1322415534662
-0.24769999999999992,-278.8395972033987
-0.24870000000000003,-279.5469528533313
-0.24969999999999992,-280.25430850326376
-0.25070000000000003,-280.9616641531963
-0.2516999999999999,-281.8104909331153
-0.25270000000000004,-282.65931771303434
-0.2536999999999999,-283.5081444929533
-0.25470000000000004,-284.35697127287233
-0.2556999999999999,-285.0643269228049
-0.25670000000000004,-285.7716825727374
-0.25769999999999993,-286.47903822266994
-0.25870000000000004,-287.1863938726024
-0.25969999999999993,-287.7522783925485
-0.26070000000000004,-288.45963404248096
-0.26169999999999993,-289.1669896924135
-0.26270000000000004,-289.87434534234603
-0.26369999999999993,-290.5817009922785
-0.26470000000000005,-291.28905664221105
-0.26569999999999994,-291.9964122921436
-0.26670000000000005,-292.8452390720626
-0.26769999999999994,-293.55259472199515
-0.26870000000000005,-294.2599503719276
-0.26969999999999994,-294.96730602186017
-0.27070000000000005,-295.67466167179265
-0.27169999999999994,-296.52348845171167
-0.27270000000000005,-297.23084410164427
-0.27369999999999994,-298.2211420115498
-0.27470000000000006,-299.06996879146874
-0.27569999999999995,-299.91879557138776
-0.27670000000000006,-300.9090934812933
-0.27769999999999995,-301.7579202612123
-0.27870000000000006,-302.74821817111786
-0.27969999999999995,-303.5970449510368
-0.28070000000000006,-304.1629294709828
-0.28169999999999995,-305.0117562509019
-0.28270000000000006,-305.71911190083443
-0.28369999999999995,-306.56793868075346
-0.28470000000000006,-307.27529433068594
-0.28569999999999995,-307.98264998061853
-0.28670000000000007,-308.8314767605375
-0.28769999999999996,-309.53883241047004
-0.28870000000000007,-310.2461880604026
-0.28969999999999996,-310.95354371033505
-0.29070000000000007,-311.5194282302811
-0.29169999999999996,-312.0853127502271
-0.29270000000000007,-312.79266840015964
-0.29369999999999996,-313.35855292010564
-0.2947000000000001,-314.0659085700381
-0.29569999999999996,-314.6317930899841
-0.2967000000000001,-315.19767760993017
-0.29769999999999996,-315.9050332598627
-0.2987000000000001,-316.6123889097952
-0.29969999999999997,-317.3197445597277
-0.3007000000000001,-318.02710020966026
-0.30169999999999997,-318.73445585959274
-0.3027000000000001,-319.4418115095253
-0.30369999999999997,-320.1491671594578
-0.3047000000000001,-320.8565228093903
-0.30569999999999997,-321.56387845932284
-0.3067000000000001,-322.2712341092554
-0.3077,-323.1200608891744
-0.3087000000000001,-323.8274165391069
-0.3097,-324.5347721890394
-0.3107000000000001,-325.1006567089854
-0.3117,-325.94948348890443
-0.3127000000000001,-326.656839138837
-0.3137,-327.3641947887695
-0.3147000000000001,-328.071550438702
-0.3157,-328.7789060886345
-0.3167000000000001,-329.0618483486075
-0.3177,-329.62773286855355
-0.3187000000000001,-330.19361738849955
-0.3197,-330.7595019084456
-0.3207000000000001,-331.3253864283916
-0.3217,-332.03274207832413
-0.3227000000000001,-332.8815688582431
-0.3237,-333.87186676814866
-0.3247000000000001,-335.00363580804066
-0.3257,-335.8524625879597
-0.3267000000000001,-336.5598182378922
-0.3277,-337.26717388782475
-0.3287000000000001,-337.9745295377573
-0.3297,-338.5404140577033
-0.3307000000000001,-339.2477697076358
-0.3317,-340.0965964875548
-0.3327000000000001,-340.80395213748733
-0.3337,-341.51130778741987
-0.3347000000000001,-342.3601345673389
-0.3357,-343.06749021727137
-0.3367000000000001,-343.9163169971904
-0.3377,-344.62367264712293
-0.3387000000000001,-345.1895571670689
-0.3397,-345.7554416870149
-0.3407000000000001,-346.3213262069609
-0.3417,-347.0286818568935
-0.3427000000000001,-347.59456637683957
-0.3437,-348.44339315675853
-0.3447000000000001,-349.2922199366776
-0.3457,-349.9995755866101
-0.3467000000000001,-350.7069312365426
-0.3477,-351.4142868864751
-0.3487000000000001,-351.9801714064211
-0.3497,-352.54605592636716
-0.3507000000000001,-353.11194044631316
-0.3517,-353.6778249662592
-0.3527000000000001,-354.2437094862052
-0.3537,-354.8095940061512
-0.3547000000000001,-355.3754785260972
-0.3557,-355.9413630460432
-0.35670000000000013,-356.50724756598925
-0.3577,-357.2146032159218
-0.35870000000000013,-358.0634299958408
-0.3597,-358.7707856457733
-0.36070000000000013,-359.4781412957058
-0.3617,-360.18549694563836
-0.3626999999999999,-360.89285259557084
-0.3637,-361.45873711551684
-0.3646999999999999,-362.0246216354629
-0.3657,-362.73197728539543
-0.3666999999999999,-363.2978618053415
-0.3677,-364.0052174552739
-0.3686999999999999,-364.57110197521996
-0.36970000000000003,-365.2784576251525
-0.3706999999999999,-365.985813275085
-0.37170000000000003,-366.83464005500406
-0.3726999999999999,-367.5419957049365
-0.37370000000000003,-368.10788022488254
-0.3746999999999999,-368.8152358748151
-0.37570000000000003,-369.3811203947611
-0.3766999999999999,-370.0884760446936
-0.37770000000000004,-370.6543605646396
-0.3786999999999999,-371.2202450845856
-0.37970000000000004,-372.0690718645047
-0.3806999999999999,-372.7764275144371
-0.38170000000000004,-373.34231203438316
-0.38269999999999993,-373.90819655432915
-0.38370000000000004,-374.4740810742752
-0.38469999999999993,-375.0399655942212
-0.38570000000000004,-375.60585011416725
-0.38669999999999993,-374.04966768431575
-0.38570000000000004,-369.09817813478804
-0.38469999999999993,-364.4296308452335
-0.38370000000000004,-359.90255468566534
-0.38269999999999993,-355.3754785260972
-0.38170000000000004,-351.2728157564886
-0.3806999999999999,-347.0286818568935
-0.37970000000000004,-342.92601908728494
-0.3786999999999999,-338.8233563176763
-0.37770000000000004,-334.86216467805417
-0.3766999999999999,-330.9009730384321
-0.37570000000000003,-326.93978139880994
-0.3746999999999999,-322.97858975918786
-0.37370000000000003,-319.15886924955225
-0.3726999999999999,-315.19767760993017
-0.37170000000000003,-311.3779571002945
-0.3706999999999999,-307.69970772064545
-0.36970000000000003,-303.87998721100985
-0.3686999999999999,-300.06026670137425
-0.3677,-296.2405461917387
-0.3666999999999999,-292.4208256821031
-0.3657,-288.6011051724675
-0.3646999999999999,-284.7813846628319
-0.3637,-280.9616641531963
-0.3626999999999999,-277.1419436435607
-0.3617,-273.4636942639116
-0.36070000000000013,-269.926916014249
-0.3597,-266.3901377645864
-0.35870000000000013,-262.8533595149238
-0.3577,-259.4580523952477
-0.35670000000000013,-255.92127414558513
-0.3557,-252.52596702590907
-0.3547000000000001,-249.13065990623298
-0.3537,-245.73535278655686
-0.3527000000000001,-242.19857453689428
-0.3517,-238.94473854720468
-0.3507000000000001,-235.54943142752862
-0.3497,-232.15412430785253
-0.3487000000000001,-228.90028831816295
-0.3477,-225.78792345845983
-0.3467000000000001,-222.53408746877028
-0.3457,-219.42172260906716
-0.3447000000000001,-216.3093577493641
-0.3437,-213.19699288966103
-0.3427000000000001,-210.08462802995794
-0.3417,-206.97226317025488
-0.3407000000000001,-203.71842718056527
-0.3397,-200.6060623208622
-0.3387000000000001,-197.49369746115914
-0.3377,-194.52280373144254
-0.3367000000000001,-191.551910001726
-0.3357,-188.72248740199586
-0.3347000000000001,-185.7515936722793
-0.3337,-182.92217107254925
-0.3327000000000001,-180.09274847281918
-0.3317,-177.2633258730891
-0.3307000000000001,-174.43390327335902
-0.3297,-171.60448067362896
-0.3287000000000001,-168.77505807389886
-0.3277,-165.94563547416882
-0.3267000000000001,-163.11621287443873
-0.3257,-160.28679027470866
-0.3247000000000001,-157.7403099349516
-0.3237,-154.9108873352215
-0.3227000000000001,-152.36440699546444
-0.3217,-149.6764555257209
-0.3207000000000001,-147.1299751859638
-0.3197,-144.44202371622026
-0.3187000000000001,-141.75407224647665
-0.3177,-139.13685634172634
-0.3167000000000001,-136.43475775898415
-0.3157,-133.77510051523788
-0.3147000000000001,-131.15788461048754
-0.3137,-128.5831100447332
-0.3127000000000001,-126.00833547897882
-0.3117,-123.532590704215
-0.3107000000000001,-121.00025747745659
-0.3097,-118.55280692869007
-0.3087000000000001,-116.10535637992358
-0.3077,-113.67205294415571
-0.3067000000000001,-111.18216105639323
-0.30569999999999997,-108.73471050762672
-0.3047000000000001,-106.2589657328629
-0.30369999999999997,-103.81151518409638
-0.3027000000000001,-101.3640646353299
-0.30169999999999997,-98.97320253855796
-0.3007000000000001,-96.65307600677932
-0.29969999999999997,-94.4319792659912
-0.2987000000000001,-92.2108825252031
-0.29769999999999996,-89.98978578441499
-0.2967000000000001,-87.75454193062824
-0.29569999999999996,-85.53344518984011
-0.2947000000000001,-83.31234844905201
-0.29369999999999996,-81.09125170826391
-0.29270000000000007,-78.8135665154812
-0.29169999999999996,-76.5924697746931
-0.29070000000000007,-74.41381437290093
-0.28969999999999996,-72.27760031010472
-0.28870000000000007,-70.18382758630447
-0.28769999999999996,-68.0900548625042
-0.28670000000000007,-66.03872347769992
-0.28569999999999995,-63.98739209289561
-0.28470000000000006,-61.936060708091304
-0.28369999999999995,-59.842287984291055
-0.28270000000000006,-57.79095659948675
-0.28169999999999995,-55.6971838756865
-0.28070000000000006,-53.603411151886235
-0.27969999999999995,-51.55207976708194
-0.27870000000000006,-49.557336834272235
-0.27769999999999995,-47.67577080545174
-0.27670000000000006,-45.70932209863933
-0.27569999999999995,-43.84190318281749
-0.27470000000000006,-41.96033715399699
-0.27369999999999994,-40.03632978618054
-0.27270000000000005,-38.16891087035869
-0.27169999999999994,-36.244903502542236
-0.27070000000000005,-34.33504324772444
-0.26969999999999994,-32.41103587990799
-0.26870000000000005,-30.529469851087494
-0.26769999999999994,-28.619609596269694
