Potential V vs RHE, Current mA cm-2
0.013299999999999867,11.295055018122452
0.012299999999999978,8.72169516366795
0.011299999999999866,6.278488748801033
0.010299999999999976,3.9668504848215624
0.009299999999999864,1.655212220842093
0.008299999999999974,-0.5255652478998613
0.007299999999999862,-2.576189277054232
0.006299999999999972,-4.538393849967037
0.00529999999999986,-6.458157083883892
0.0042999999999999705,-8.246352166913299
0.0032999999999998586,-10.034547249942705
0.0022999999999999687,-11.82274233297211
0.0012999999999998568,-13.610937416001518
0.00029999999999996696,-15.307176264539699
-0.000700000000000145,-17.061418276372343
-0.0017000000000000348,-18.716630497214435
-0.0027000000000001467,-20.286960040064624
-0.0037000000000000366,-21.857289582914817
-0.0047000000000001485,-23.342736447773106
-0.005700000000000038,-24.771594860636792
-0.00670000000000015,-26.17215904750318
-0.00770000000000004,-27.572723234369565
-0.008700000000000152,-29.001581647233255
-0.009700000000000042,-30.444587173095588
-0.010700000000000154,-31.84515135996197
-0.011700000000000044,-33.231568433829715
-0.012700000000000156,-34.5472499427042
-0.013700000000000045,-35.806342999584075
-0.014700000000000157,-37.037141830466666
-0.015700000000000047,-38.211352209354644
-0.01670000000000016,-39.38556258824262
-0.01770000000000005,-40.559772967130606
-0.01870000000000016,-41.74813045901723
-0.01970000000000005,-42.96478217690117
-0.020700000000000163,-44.181433894785094
-0.021700000000000053,-45.36979138667173
-0.022700000000000164,-46.501560426563756
-0.023700000000000054,-47.54844678846388
-0.024700000000000166,-48.59533315036401
-0.025700000000000056,-49.642219512264134
-0.026700000000000168,-50.68910587416426
-0.027700000000000058,-51.77843357506035
-0.02870000000000017,-52.86776127595642
-0.02970000000000006,-53.999530315848446
-0.03070000000000017,-55.17374069473642
-0.03170000000000006,-56.26306839563251
-0.03270000000000017,-57.352396096528594
-0.03370000000000006,-58.39928245842871
-0.034700000000000175,-59.36128614233694
-0.035700000000000065,-60.32328982624517
-0.03670000000000018,-61.28529351015339
-0.03770000000000007,-62.20485585506566
-0.03870000000000018,-63.251742216965795
-0.03970000000000007,-64.19959878787537
-0.04070000000000018,-65.2464851497755
-0.04170000000000007,-66.20848883368372
-0.04270000000000018,-67.21293385658788
-0.04370000000000007,-68.17493754049613
-0.044700000000000184,-69.0944998854084
-0.045700000000000074,-69.95747377832606
-0.046700000000000186,-70.87703612323833
-0.047700000000000076,-71.7965984681506
-0.04870000000000019,-72.80104349105478
-0.04970000000000008,-73.89037119195086
-0.05070000000000019,-74.93725755385098
-0.05170000000000008,-75.94170257675518
-0.05270000000000019,-76.94614759965934
-0.05370000000000008,-77.90815128356756
-0.05470000000000019,-78.85600785447714
-0.05570000000000008,-79.73312886039348
-0.056700000000000195,-80.69513254430169
-0.057700000000000085,-81.65713622820991
-0.058700000000000196,-82.61913991211814
-0.059700000000000086,-83.60943782202366
-0.0607000000000002,-84.6563241839238
-0.06170000000000009,-85.66076920682796
-0.0627000000000002,-86.7076555687281
-0.06370000000000009,-87.62721791364037
-0.0647000000000002,-88.54678025855264
-0.06570000000000009,-89.46634260346492
-0.0667000000000002,-90.41419917437449
-0.0677000000000001,-91.37620285828272
-0.0687000000000002,-92.3806478811869
-0.0697000000000001,-93.38509290409107
-0.07070000000000021,-94.4319792659912
-0.0717000000000001,-95.43642428889537
-0.07270000000000021,-96.44086931179956
-0.0737000000000001,-97.44531433470372
-0.07470000000000021,-98.40731801861195
-0.0757000000000001,-99.31273325052557
-0.07670000000000021,-100.2747369344338
-0.0777000000000001,-101.23674061834203
-0.07870000000000021,-102.24118564124619
-0.0797000000000001,-103.28807200314633
-0.08070000000000022,-104.3773997040424
-0.0817000000000001,-105.33940338795064
-0.08270000000000022,-106.34384841085482
-0.08370000000000011,-107.34829343375898
-0.08470000000000022,-108.3102971176672
-0.08570000000000011,-109.21571234958083
-0.08670000000000022,-110.17771603348905
-0.08770000000000011,-111.18216105639323
-0.08870000000000022,-112.22904741829338
-0.08970000000000011,-113.31837511918944
-0.09070000000000022,-114.45014415908147
-0.09170000000000011,-115.4970305209816
-0.09270000000000023,-116.50147554388576
-0.09370000000000012,-117.50592056678994
-0.09470000000000023,-118.51036558969413
-0.09570000000000012,-119.47236927360234
-0.09670000000000023,-120.47681429650652
-0.09770000000000012,-121.43881798041474
-0.09870000000000023,-122.48570434231489
-0.09970000000000012,-123.57503204321095
-0.10070000000000023,-124.62191840511109
-0.10170000000000012,-125.6688047670112
-0.10270000000000024,-126.61666133792076
-0.10370000000000013,-127.57866502182902
-0.10470000000000024,-128.54066870573723
-0.10570000000000013,-129.4602310506495
-0.10670000000000024,-130.46467607355368
-0.10770000000000013,-131.4266797574619
-0.10870000000000024,-132.47356611936203
-0.10970000000000013,-133.52045248126214
-0.11070000000000024,-134.6097801821582
-0.11170000000000013,-135.6142252050624
-0.11270000000000002,-136.51964043697603
-0.11370000000000013,-137.39676144289237
-0.11470000000000002,-138.40120646579655
-0.11570000000000014,-139.36321014970477
-0.11670000000000003,-140.325213833613
-0.11770000000000014,-141.3721001955131
-0.11870000000000003,-142.4614278964092
-0.11970000000000014,-143.5931969363012
-0.12070000000000003,-144.72496597619326
-0.12170000000000014,-145.7152638860988
-0.12270000000000003,-146.7055617960043
-0.12370000000000014,-147.83733083589632
-0.12470000000000003,-148.82762874580186
-0.12570000000000014,-149.6764555257209
-0.12670000000000003,-150.8082245656129
-0.12770000000000015,-151.7985224755184
-0.12870000000000004,-152.93029151541046
-0.12970000000000015,-154.0620605553025
-0.13070000000000004,-155.05235846520802
-0.13170000000000015,-156.04265637511355
-0.13270000000000004,-157.17442541500557
-0.13370000000000015,-158.02325219492457
-0.13470000000000004,-159.01355010483013
-0.13570000000000015,-159.86237688474912
-0.13670000000000004,-160.5697325346817
-0.13770000000000016,-161.41855931460069
-0.13870000000000005,-162.40885722450622
-0.13970000000000016,-163.39915513441173
-0.14070000000000005,-164.38945304431726
-0.14170000000000016,-165.5212220842093
-0.14270000000000005,-166.51151999411482
-0.14370000000000016,-167.6432890340068
-0.14470000000000005,-168.63358694391238
-0.14570000000000016,-169.48241372383137
-0.14670000000000005,-170.47271163373694
-0.14770000000000016,-171.60448067362896
-0.14870000000000005,-172.59477858353446
-0.14970000000000017,-173.58507649344
-0.15070000000000006,-174.71684553333202
-0.15170000000000017,-175.70714344323756
-0.15270000000000006,-176.6974413531431
-0.15370000000000017,-177.6877392630486
-0.15470000000000006,-178.53656604296762
-0.15570000000000017,-179.38539282288664
-0.15670000000000006,-180.23421960280567
-0.15770000000000017,-181.08304638272472
-0.15870000000000006,-182.07334429263022
-0.15970000000000018,-182.92217107254925
-0.16070000000000007,-183.91246898245475
-0.16170000000000018,-184.9027668923603
-0.16270000000000007,-185.7515936722793
-0.16370000000000018,-186.60042045219836
-0.16470000000000007,-187.59071836210387
-0.16570000000000018,-188.4395451420229
-0.16670000000000007,-189.2883719219419
-0.16770000000000018,-190.27866983184742
-0.16870000000000007,-191.268967741753
-0.16970000000000018,-192.2592656516585
-0.17070000000000007,-193.249563561564
-0.17170000000000019,-194.2398614714695
-0.17270000000000008,-195.08868825138856
-0.1737000000000002,-195.93751503130758
-0.17470000000000008,-196.6448706812401
-0.1757000000000002,-197.49369746115914
-0.17670000000000008,-198.3425242410781
-0.1777000000000002,-199.19135102099716
-0.17870000000000008,-200.18164893090267
-0.1797000000000002,-201.03047571082172
-0.18070000000000008,-201.87930249074074
-0.1817000000000002,-202.86960040064628
-0.18270000000000008,-203.71842718056527
-0.1837000000000002,-204.5672539604843
-0.1847000000000001,-205.41608074040332
-0.1857000000000002,-206.26490752032234
-0.1867000000000001,-207.1137343002414
-0.1877000000000002,-208.1040322101469
-0.1887000000000001,-208.95285899006592
-0.1897000000000002,-209.94315689997146
-0.1907000000000001,-210.79198367989048
-0.1917000000000001,-211.782281589796
-0.19269999999999998,-212.631108369715
-0.1937000000000001,-213.62140627962054
-0.19469999999999998,-214.32876192955305
-0.1957000000000001,-215.17758870947208
-0.19669999999999999,-216.0264154893911
-0.1977000000000001,-216.87524226931012
-0.1987,-217.72406904922914
-0.1997000000000001,-218.71436695913465
-0.2007,-219.7046648690402
-0.2017000000000001,-220.6949627789457
-0.2027,-221.54378955886475
-0.2037000000000001,-222.25114520879725
-0.2047,-222.9585008587298
-0.2057000000000001,-223.6658565086623
-0.2067,-224.37321215859478
-0.2077000000000001,-225.08056780852735
-0.2087,-225.78792345845983
-0.2097000000000001,-226.49527910839237
-0.2107,-227.34410588831142
-0.2117000000000001,-228.0514615382439
-0.2127,-228.90028831816295
-0.2137000000000001,-229.74911509808197
-0.2147,-230.45647074801445
-0.2157000000000001,-231.3052975279335
-0.2167,-232.01265317786604
-0.21770000000000012,-232.72000882779852
-0.2187,-233.56883560771757
-0.21970000000000012,-234.4176623876366
-0.2207,-235.26648916755556
-0.22170000000000012,-236.1153159474746
-0.2227,-236.82267159740715
-0.22370000000000012,-237.53002724733966
-0.2247,-238.2373828972722
-0.22570000000000012,-238.94473854720468
-0.2267,-239.65209419713722
-0.22770000000000012,-240.50092097705624
-0.22870000000000001,-241.20827662698875
-0.22970000000000013,-242.05710340690777
-0.23070000000000002,-242.90593018682682
-0.23170000000000013,-243.75475696674582
-0.23270000000000002,-244.46211261667833
-0.23370000000000013,-245.16946826661086
-0.23470000000000002,-245.87682391654337
-0.23570000000000013,-246.4427084364894
-0.23670000000000002,-247.0085929564354
-0.2376999999999999,-247.71594860636796
-0.23870000000000002,-248.42330425630044
-0.2396999999999999,-249.13065990623298
-0.24070000000000003,-249.83801555616546
-0.24169999999999991,-250.6868423360845
-0.24270000000000003,-251.39419798601702
-0.24369999999999992,-252.10155363594956
-0.24470000000000003,-252.80890928588207
-0.24569999999999992,-253.51626493581452
-0.24670000000000003,-254.2236205857471
-0.24769999999999992,-254.78950510569314
-0.24870000000000003,-255.49686075562562
-0.24969999999999992,-256.34568753554464
-0.25070000000000003,-257.0530431854772
-0.2516999999999999,-257.76039883540966
-0.25270000000000004,-258.4677544853422
-0.2536999999999999,-259.17511013527474
-0.25470000000000004,-259.8824657852072
-0.2556999999999999,-260.4483503051532
-0.25670000000000004,-261.1557059550858
-0.25769999999999993,-261.7215904750318
-0.25870000000000004,-262.57041725495077
-0.25969999999999993,-263.27777290488336
-0.26070000000000004,-264.12659968480233
-0.26169999999999993,-264.83395533473487
-0.26270000000000004,-265.6827821146539
-0.26369999999999993,-266.2486666345999
-0.26470000000000005,-266.9560222845325
-0.26569999999999994,-267.6633779344649
-0.26670000000000005,-268.37073358439744
-0.26769999999999994,-269.2195603643164
-0.26870000000000005,-269.926916014249
-0.26969999999999994,-270.775742794168
-0.27070000000000005,-271.62456957408705
-0.27169999999999994,-272.47339635400607
-0.27270000000000005,-273.1807520039386
-0.27369999999999994,-274.0295787838576
-0.27470000000000006,-274.5954633038036
-0.27569999999999995,-275.44429008372265
-0.27670000000000006,-276.29311686364167
-0.27769999999999995,-277.0004725135742
-0.27870000000000006,-277.84929929349323
-0.27969999999999995,-278.6981260734122
-0.28070000000000006,-279.5469528533313
-0.28169999999999995,-280.25430850326376
-0.28270000000000006,-280.9616641531963
-0.28369999999999995,-281.66901980312883
-0.28470000000000006,-282.3763754530613
-0.28569999999999995,-282.9422599730073
-0.28670000000000007,-283.64961562293985
-0.28769999999999996,-284.35697127287233
-0.28870000000000007,-285.0643269228049
-0.28969999999999996,-285.7716825727374
-0.29070000000000007,-286.6205093526564
-0.29169999999999996,-287.327865002589
-0.29270000000000007,-288.03522065252145
-0.29369999999999996,-288.742576302454
-0.2947000000000001,-289.3084608224
-0.29569999999999996,-289.87434534234603
-0.2967000000000001,-290.29875873230554
-0.29769999999999996,-290.86464325225154
-0.2987000000000001,-291.4305277721976
-0.29969999999999997,-291.9964122921436
-0.3007000000000001,-292.56229681208964
-0.30169999999999997,-293.1281813320356
-0.3027000000000001,-293.6940658519816
-0.30369999999999997,-294.4014215019141
-0.3047000000000001,-295.10877715184665
-0.30569999999999997,-295.67466167179265
-0.3067000000000001,-296.2405461917387
-0.3077,-296.94790184167124
-0.3087000000000001,-297.79672862159026
-0.3097,-298.3626131415362
-0.3107000000000001,-299.2114399214552
-0.3117,-299.91879557138776
-0.3127000000000001,-300.6261512213203
-0.3137,-301.33350687125284
-0.3147000000000001,-301.8993913911989
-0.3157,-302.6067470411313
-0.3167000000000001,-303.4555738210504
-0.3177,-304.4458717309559
-0.3187000000000001,-305.43616964086146
-0.3197,-306.1435252907939
-0.3207000000000001,-306.8508809407265
-0.3217,-307.55823659065896
-0.3227000000000001,-307.98264998061853
-0.3237,-308.54853450056453
-0.3247000000000001,-308.972947890524
-0.3257,-309.3973612804835
-0.3267000000000001,-309.9632458004295
-0.3277,-310.52913032037554
-0.3287000000000001,-311.3779571002945
-0.3297,-312.0853127502271
-0.3307000000000001,-312.79266840015964
-0.3317,-313.5000240500921
-0.3327000000000001,-314.0659085700381
-0.3337,-314.6317930899841
-0.3347000000000001,-315.3391487399167
-0.3357,-315.9050332598627
-0.3367000000000001,-316.6123889097952
-0.3377,-317.3197445597277
-0.3387000000000001,-318.02710020966026
-0.3397,-318.8759269895793
-0.3407000000000001,-319.58328263951176
-0.3417,-320.2906382894443
-0.3427000000000001,-320.9979939393768
-0.3437,-321.56387845932284
-0.3447000000000001,-321.98829184928235
-0.3457,-322.2712341092554
-0.3467000000000001,-322.5541763692284
-0.3477,-322.83711862920137
-0.3487000000000001,-323.1200608891744
-0.3497,-323.5444742791339
-0.3507000000000001,-324.1103587990799
-0.3517,-324.67624331902596
-0.3527000000000001,-325.24212783897195
-0.3537,-325.80801235891795
-0.3547000000000001,-326.23242574887746
-0.3557,-326.79831026882346
-0.35670000000000013,-327.222723658783
-0.3577,-327.788608178729
-0.35870000000000013,-328.4959638286615
-0.3597,-329.20331947859404
-0.36070000000000013,-329.76920399854004
-0.3617,-330.33508851848603
-0.3626999999999999,-330.9009730384321
-0.3637,-331.4668575583781
-0.3646999999999999,-332.03274207832413
-0.3657,-332.59862659827013
-0.3666999999999999,-333.02303998822964
-0.3677,-333.44745337818915
-0.3686999999999999,-334.01333789813515
-0.36970000000000003,-334.5792224180812
-0.3706999999999999,-335.2865780680136
-0.37170000000000003,-335.8524625879597
-0.3726999999999999,-336.4183471079057
-0.37370000000000003,-336.84276049786524
-0.3746999999999999,-337.40864501781124
-0.37570000000000003,-337.83305840777075
-0.3766999999999999,-338.39894292771675
-0.37770000000000004,-338.96482744766274
-0.3786999999999999,-339.5307119676088
-0.37970000000000004,-340.2380676175413
-0.3806999999999999,-340.80395213748733
-0.38170000000000004,-341.3698366574333
-0.38269999999999993,-341.7942500473929
-0.38370000000000004,-342.3601345673389
-0.38469999999999993,-342.92601908728494
-0.38570000000000004,-343.3504324772444
-0.38669999999999993,-342.07719230736586
-0.38570000000000004,-337.26717388782475
-0.38469999999999993,-332.59862659827013
-0.38370000000000004,-328.3544926986751
-0.38269999999999993,-323.9688876690934
-0.38170000000000004,-319.8662248994848
-0.3806999999999999,-315.76356212987616
-0.37970000000000004,-311.5194282302811
-0.3786999999999999,-307.4167654606725
-0.37770000000000004,-303.17263156107737
-0.3766999999999999,-299.06996879146874
-0.37570000000000003,-294.96730602186017
-0.3746999999999999,-291.0061143822381
-0.37370000000000003,-287.1863938726024
-0.3726999999999999,-283.5081444929533
-0.37170000000000003,-279.6884239833177
-0.3706999999999999,-276.01017460366864
-0.36970000000000003,-272.1904540940331
-0.3686999999999999,-268.512204714384
-0.3677,-264.6924842047484
-0.3666999999999999,-261.01423482509927
-0.3657,-257.33598544545015
-0.3646999999999999,-253.65773606580112
-0.3637,-250.1209578161385
-0.3626999999999999,-246.7256506964624
-0.3617,-243.18887244679982
-0.36070000000000013,-239.65209419713722
-0.3597,-236.53972933743412
-0.35870000000000013,-233.1444222177581
-0.3577,-229.60764396809546
-0.35670000000000013,-226.35380797840588
-0.3557,-222.9585008587298
-0.3547000000000001,-219.7046648690402
-0.3537,-216.4508288793506
-0.3527000000000001,-213.19699288966103
-0.3517,-210.08462802995794
-0.3507000000000001,-206.97226317025488
-0.3497,-203.85989831055176
-0.3487000000000001,-200.7475334508487
-0.3477,-197.63516859114563
-0.3467000000000001,-194.66427486142905
-0.3457,-191.551910001726
-0.3447000000000001,-188.58101627200938
-0.3437,-185.7515936722793
-0.3427000000000001,-182.78069994256273
-0.3417,-179.95127734283267
-0.3407000000000001,-176.98038361311612
-0.3397,-174.150961013386
-0.3387000000000001,-171.18006728366944
-0.3377,-168.20917355395284
-0.3367000000000001,-165.3797509542228
-0.3357,-162.5503283544927
-0.3347000000000001,-159.72090575476264
-0.3337,-157.03295428501906
-0.3327000000000001,-154.3450028152755
-0.3317,-151.5155802155454
-0.3307000000000001,-148.82762874580186
-0.3297,-146.1396772760583
-0.3287000000000001,-143.3102546763282
-0.3277,-140.5798618675887
-0.3267000000000001,-137.87776328484648
-0.3257,-135.26054738009617
-0.3247000000000001,-132.64333147534586
-0.3237,-130.11099824858744
-0.3227000000000001,-127.66354769982091
-0.3217,-125.18780292505707
-0.3207000000000001,-122.65546969829869
-0.3197,-120.16557781053622
-0.3187000000000001,-117.59080324478184
-0.3177,-115.10091135701937
-0.3167000000000001,-112.66760792125153
-0.3157,-110.26259871148096
-0.3147000000000001,-107.95661929270095
-0.3137,-105.63649276092228
-0.3127000000000001,-103.41539602013418
-0.3117,-101.19429927934607
-0.3107000000000001,-98.83173140857146
-0.3097,-96.4833106507955
-0.3087000000000001,-94.03586010202899
-0.3077,-91.72988068324898
-0.3067000000000001,-89.36731281247435
-0.30569999999999997,-87.01889205469841
-0.3047000000000001,-84.7977953139103
-0.30369999999999997,-82.61913991211814
-0.3027000000000001,-80.52536718831789
-0.30169999999999997,-78.38915312552167
-0.3007000000000001,-76.23879194972683
-0.29969999999999997,-74.10257788693062
-0.2987000000000001,-71.96636382413442
-0.29769999999999996,-69.78770842234226
-0.2967000000000001,-67.693935698542
-0.29569999999999996,-65.64260431373769
-0.2947000000000001,-63.59127292893339
-0.29369999999999996,-61.63897133511965
-0.29270000000000007,-59.7149639673032
-0.29169999999999996,-57.7485152604908
-0.29070000000000007,-55.73962521468245
-0.28969999999999996,-53.74488228187274
-0.28870000000000007,-51.73599223606439
-0.28769999999999996,-49.72710219025603
-0.28670000000000007,-47.71821214444768
-0.28569999999999995,-45.79420477663124
-0.28470000000000006,-43.88434452181344
-0.28369999999999995,-42.04521983198889
-0.28270000000000006,-40.26268359415894
-0.28169999999999995,-38.42355890433439
-0.28070000000000006,-36.5985813275085
-0.27969999999999995,-34.75945663768395
-0.27870000000000006,-32.892037721862096
-0.27769999999999995,-31.010471693041605
-0.27670000000000006,-29.22793545521166
-0.27569999999999995,-27.487840556377662
-0.27470000000000006,-25.73359854454502
-0.27369999999999994,-24.035944984706973
-0.27270000000000005,-22.38073276386488
-0.27169999999999994,-20.72552054302279
-0.27070000000000005,-19.01371987018609
-0.26969999999999994,-17.316066310348052
-0.26870000000000005,-15.575971411514052
-0.26769999999999994,-13.872659006476551
