Potential V vs RHE, Current mA cm-2
0.013299999999999867,-0.3947044526623452
0.012299999999999978,-1.7471684553333202
0.011299999999999866,-2.924208256821031
0.010299999999999976,-3.971094618721158
0.009299999999999864,-4.9302688800296535
0.008299999999999974,-5.759289701750564
0.007299999999999862,-6.500598422879844
0.006299999999999972,-7.199465805013171
0.00529999999999986,-7.853062425550818
0.0042999999999999705,-8.4203616567967
0.0032999999999998586,-8.943804837746763
0.0022999999999999687,-9.423391968401008
0.0012999999999998568,-9.902979099055257
0.00029999999999996696,-10.340124890713554
-0.000700000000000145,-10.731999920776168
-0.0017000000000000348,-11.081433611842833
-0.0027000000000001467,-11.42945259160963
-0.0037000000000000366,-11.73503023238048
-0.0047000000000001485,-12.040607873151327
-0.005700000000000038,-12.258473413330542
-0.00670000000000015,-12.520195003805576
-0.00770000000000004,-12.694204493688973
-0.008700000000000152,-12.913484745168056
-0.009700000000000042,-13.087494235051453
-0.010700000000000154,-13.261503724934855
-0.011700000000000044,-13.436927926118118
-0.012700000000000156,-13.567081365705702
-0.013700000000000045,-13.741090855589102
-0.014700000000000157,-13.872659006476551
-0.015700000000000047,-14.046668496359947
-0.01670000000000016,-14.13438059695158
-0.01770000000000005,-14.26028990263957
-0.01870000000000016,-14.345172580631472
-0.01970000000000005,-14.401761032626075
-0.020700000000000163,-14.444202371622024
-0.021700000000000053,-14.486643710617974
-0.022700000000000164,-14.529085049613924
-0.023700000000000054,-14.529085049613924
-0.024700000000000166,-14.61396772760583
-0.025700000000000056,-14.61396772760583
-0.026700000000000168,-14.69885040559773
-0.027700000000000058,-14.69885040559773
-0.02870000000000017,-14.783733083589633
-0.02970000000000006,-14.826174422585586
-0.03070000000000017,-14.868615761581536
-0.03170000000000006,-14.868615761581536
-0.03270000000000017,-14.925204213576137
-0.03370000000000006,-14.925204213576137
-0.034700000000000175,-14.925204213576137
-0.035700000000000065,-14.925204213576137
-0.03670000000000018,-14.967645552572087
-0.03770000000000007,-14.967645552572087
-0.03870000000000018,-15.01008689156804
-0.03970000000000007,-15.05252823056399
-0.04070000000000018,-15.094969569559943
-0.04170000000000007,-15.137410908555893
-0.04270000000000018,-15.179852247551842
-0.04370000000000007,-15.222293586547794
-0.044700000000000184,-15.264734925543747
-0.045700000000000074,-15.264734925543747
-0.046700000000000186,-15.264734925543747
-0.047700000000000076,-15.264734925543747
-0.04870000000000019,-15.264734925543747
-0.04970000000000008,-15.307176264539699
-0.05070000000000019,-15.307176264539699
-0.05170000000000008,-15.349617603535648
-0.05270000000000019,-15.349617603535648
-0.05370000000000008,-15.349617603535648
-0.05470000000000019,-15.349617603535648
-0.05570000000000008,-15.3920589425316
-0.056700000000000195,-15.3920589425316
-0.057700000000000085,-15.3920589425316
-0.058700000000000196,-15.349617603535648
-0.059700000000000086,-15.349617603535648
-0.0607000000000002,-15.349617603535648
-0.06170000000000009,-15.349617603535648
-0.0627000000000002,-15.349617603535648
-0.06370000000000009,-15.307176264539699
-0.0647000000000002,-15.307176264539699
-0.06570000000000009,-15.264734925543747
-0.0667000000000002,-15.264734925543747
-0.0677000000000001,-15.307176264539699
-0.0687000000000002,-15.307176264539699
-0.0697000000000001,-15.307176264539699
-0.07070000000000021,-15.349617603535648
-0.0717000000000001,-15.349617603535648
-0.07270000000000021,-15.349617603535648
-0.0737000000000001,-15.349617603535648
-0.07470000000000021,-15.349617603535648
-0.0757000000000001,-15.3920589425316
-0.07670000000000021,-15.3920589425316
-0.0777000000000001,-15.448647394526201
-0.07870000000000021,-15.491088733522153
-0.0797000000000001,-15.533530072518102
-0.08070000000000022,-15.533530072518102
-0.0817000000000001,-15.575971411514052
-0.08270000000000022,-15.575971411514052
-0.08370000000000011,-15.618412750510005
-0.08470000000000022,-15.618412750510005
-0.08570000000000011,-15.575971411514052
-0.08670000000000022,-15.533530072518102
-0.08770000000000011,-15.491088733522153
-0.08870000000000022,-15.491088733522153
-0.08970000000000011,-15.448647394526201
-0.09070000000000022,-15.448647394526201
-0.09170000000000011,-15.448647394526201
-0.09270000000000023,-15.448647394526201
-0.09370000000000012,-15.448647394526201
-0.09470000000000023,-15.3920589425316
-0.09570000000000012,-15.448647394526201
-0.09670000000000023,-15.448647394526201
-0.09770000000000012,-15.3920589425316
-0.09870000000000023,-15.349617603535648
-0.09970000000000012,-15.307176264539699
-0.10070000000000023,-15.264734925543747
-0.10170000000000012,-15.222293586547794
-0.10270000000000024,-15.179852247551842
-0.10370000000000013,-15.137410908555893
-0.10470000000000024,-15.094969569559943
-0.10570000000000013,-15.094969569559943
-0.10670000000000024,-15.094969569559943
-0.10770000000000013,-15.137410908555893
-0.10870000000000024,-15.179852247551842
-0.10970000000000013,-15.179852247551842
-0.11070000000000024,-15.222293586547794
-0.11170000000000013,-15.222293586547794
-0.11270000000000002,-15.222293586547794
-0.11370000000000013,-15.264734925543747
-0.11470000000000002,-15.264734925543747
-0.11570000000000014,-15.264734925543747
-0.11670000000000003,-15.264734925543747
-0.11770000000000014,-15.264734925543747
-0.11870000000000003,-15.307176264539699
-0.11970000000000014,-15.307176264539699
-0.12070000000000003,-15.349617603535648
-0.12170000000000014,-15.349617603535648
-0.12270000000000003,-15.3920589425316
-0.12370000000000014,-15.3920589425316
-0.12470000000000003,-15.3920589425316
-0.12570000000000014,-15.3920589425316
-0.12670000000000003,-15.3920589425316
-0.12770000000000015,-15.349617603535648
-0.12870000000000004,-15.349617603535648
-0.12970000000000015,-15.349617603535648
-0.13070000000000004,-15.349617603535648
-0.13170000000000015,-15.349617603535648
-0.13270000000000004,-15.349617603535648
-0.13370000000000015,-15.349617603535648
-0.13470000000000004,-15.349617603535648
-0.13570000000000015,-15.349617603535648
-0.13670000000000004,-15.349617603535648
-0.13770000000000016,-15.349617603535648
-0.13870000000000005,-15.307176264539699
-0.13970000000000016,-15.307176264539699
-0.14070000000000005,-15.264734925543747
-0.14170000000000016,-15.222293586547794
-0.14270000000000005,-15.222293586547794
-0.14370000000000016,-15.222293586547794
-0.14470000000000005,-15.222293586547794
-0.14570000000000016,-15.222293586547794
-0.14670000000000005,-15.264734925543747
-0.14770000000000016,-15.307176264539699
-0.14870000000000005,-15.349617603535648
-0.14970000000000017,-15.349617603535648
-0.15070000000000006,-15.3920589425316
-0.15170000000000017,-15.3920589425316
-0.15270000000000006,-15.3920589425316
-0.15370000000000017,-15.3920589425316
-0.15470000000000006,-15.3920589425316
-0.15570000000000017,-15.3920589425316
-0.15670000000000006,-15.3920589425316
-0.15770000000000017,-15.349617603535648
-0.15870000000000006,-15.3920589425316
-0.15970000000000018,-15.3920589425316
-0.16070000000000007,-15.448647394526201
-0.16170000000000018,-15.448647394526201
-0.16270000000000007,-15.491088733522153
-0.16370000000000018,-15.533530072518102
-0.16470000000000007,-15.575971411514052
-0.16570000000000018,-15.575971411514052
-0.16670000000000007,-15.575971411514052
-0.16770000000000018,-15.575971411514052
-0.16870000000000007,-15.575971411514052
-0.16970000000000018,-15.575971411514052
-0.17070000000000007,-15.575971411514052
-0.17170000000000019,-15.575971411514052
-0.17270000000000008,-15.575971411514052
-0.1737000000000002,-15.575971411514052
-0.17470000000000008,-15.618412750510005
-0.1757000000000002,-15.618412750510005
-0.17670000000000008,-15.618412750510005
-0.1777000000000002,-15.660854089505953
-0.17870000000000008,-15.660854089505953
-0.1797000000000002,-15.660854089505953
-0.18070000000000008,-15.660854089505953
-0.1817000000000002,-15.70329542850191
-0.18270000000000008,-15.70329542850191
-0.1837000000000002,-15.70329542850191
-0.1847000000000001,-15.74573676749786
-0.1857000000000002,-15.74573676749786
-0.1867000000000001,-15.74573676749786
-0.1877000000000002,-15.78817810649381
-0.1887000000000001,-15.78817810649381
-0.1897000000000002,-15.830619445489761
-0.1907000000000001,-15.78817810649381
-0.1917000000000001,-15.78817810649381
-0.19269999999999998,-15.74573676749786
-0.1937000000000001,-15.70329542850191
-0.19469999999999998,-15.70329542850191
-0.1957000000000001,-15.660854089505953
-0.19669999999999999,-15.660854089505953
-0.1977000000000001,-15.660854089505953
-0.1987,-15.70329542850191
-0.1997000000000001,-15.70329542850191
-0.2007,-15.74573676749786
-0.2017000000000001,-15.78817810649381
-0.2027,-15.830619445489761
-0.2037000000000001,-15.87306078448571
-0.2047,-15.91550212348166
-0.2057000000000001,-15.972090575476265
-0.2067,-15.972090575476265
-0.2077000000000001,-15.972090575476265
-0.2087,-15.972090575476265
-0.2097000000000001,-15.972090575476265
-0.2107,-15.972090575476265
-0.2117000000000001,-16.014531914472215
-0.2127,-16.014531914472215
-0.2137000000000001,-16.056973253468165
-0.2147,-16.099414592464115
-0.2157000000000001,-16.184297270456018
-0.2167,-16.22673860945197
-0.21770000000000012,-16.22673860945197
-0.2187,-16.22673860945197
-0.21970000000000012,-16.269179948447924
-0.2207,-16.22673860945197
-0.22170000000000012,-16.22673860945197
-0.2227,-16.22673860945197
-0.22370000000000012,-16.269179948447924
-0.2247,-16.269179948447924
-0.22570000000000012,-16.269179948447924
-0.2267,-16.311621287443874
-0.22770000000000012,-16.311621287443874
-0.22870000000000001,-16.311621287443874
-0.22970000000000013,-16.354062626439823
-0.23070000000000002,-16.354062626439823
-0.23170000000000013,-16.354062626439823
-0.23270000000000002,-16.396503965435777
-0.23370000000000013,-16.396503965435777
-0.23470000000000002,-16.396503965435777
-0.23570000000000013,-16.438945304431726
-0.23670000000000002,-16.495533756426326
-0.2376999999999999,-16.53797509542228
-0.23870000000000002,-16.580416434418233
-0.2396999999999999,-16.665299112410132
-0.24070000000000003,-16.750181790402035
-0.24169999999999991,-16.792623129397985
-0.24270000000000003,-16.877505807389888
-0.24369999999999992,-16.919947146385837
-0.24470000000000003,-16.919947146385837
-0.24569999999999992,-16.962388485381787
-0.24670000000000003,-16.962388485381787
-0.24769999999999992,-17.018976937376394
-0.24870000000000003,-16.962388485381787
-0.24969999999999992,-17.018976937376394
-0.25070000000000003,-17.018976937376394
-0.2516999999999999,-17.061418276372343
-0.25270000000000004,-17.103859615368293
-0.2536999999999999,-17.146300954364243
-0.25470000000000004,-17.188742293360193
-0.2556999999999999,-17.231183632356142
-0.25670000000000004,-17.2736249713521
-0.25769999999999993,-17.2736249713521
-0.25870000000000004,-17.316066310348052
-0.25969999999999993,-17.316066310348052
-0.26070000000000004,-17.358507649344002
-0.26169999999999993,-17.358507649344002
-0.26270000000000004,-17.40094898833995
-0.26369999999999993,-17.40094898833995
-0.26470000000000005,-17.4433903273359
-0.26569999999999994,-17.542420118326454
-0.26670000000000005,-17.584861457322408
-0.26769999999999994,-17.71218547431026
-0.26870000000000005,-17.797068152302163
-0.26969999999999994,-17.924392169290012
-0.27070000000000005,-18.06586329927652
-0.27169999999999994,-18.15074597726842
-0.27270000000000005,-18.27806999425627
-0.27369999999999994,-18.320511333252224
-0.27470000000000006,-18.40539401124413
-0.27569999999999995,-18.40539401124413
-0.27670000000000006,-18.49027668923603
-0.27769999999999995,-18.49027668923603
-0.27870000000000006,-18.53271802823198
-0.27969999999999995,-18.589306480226583
-0.28070000000000006,-18.631747819222536
-0.28169999999999995,-18.674189158218486
-0.28270000000000006,-18.716630497214435
-0.28369999999999995,-18.80151317520634
-0.28470000000000006,-18.88639585319824
-0.28569999999999995,-18.92883719219419
-0.28670000000000007,-19.01371987018609
-0.28769999999999996,-19.112749661176647
-0.28870000000000007,-19.197632339168546
-0.28969999999999996,-19.3249563561564
-0.29070000000000007,-19.409839034148305
-0.29169999999999996,-19.537163051136158
-0.29270000000000007,-19.721075520118614
-0.29369999999999996,-19.848399537106463
-0.2947000000000001,-19.97572355409432
-0.29569999999999996,-20.10304757108217
-0.2967000000000001,-20.244518701068674
-0.29769999999999996,-20.371842718056527
-0.2987000000000001,-20.456725396048434
-0.29969999999999997,-20.541608074040333
-0.3007000000000001,-20.626490752032236
-0.30169999999999997,-20.76796188201874
-0.3027000000000001,-20.85284456001064
-0.30369999999999997,-20.93772723800254
-0.3047000000000001,-21.065051254990397
-0.30569999999999997,-21.248963723972853
-0.3067000000000001,-21.376287740960702
-0.3077,-21.54605309694451
-0.3087000000000001,-21.729965565926964
-0.3097,-21.899730921910766
-0.3107000000000001,-22.069496277894572
-0.3117,-22.196820294882425
-0.3127000000000001,-22.38073276386488
-0.3137,-22.550498119848687
-0.3147000000000001,-22.72026347583249
-0.3157,-22.861734605818995
-0.3167000000000001,-23.031499961802798
-0.3177,-23.15882397879065
-0.3187000000000001,-23.385177786769056
-0.3197,-23.55494314275286
-0.3207000000000001,-23.767149837732617
-0.3217,-23.951062306715073
-0.3227000000000001,-24.20571034069078
-0.3237,-24.432064148669184
-0.3247000000000001,-24.64427084364894
-0.3257,-24.870624651627345
-0.3267000000000001,-25.0828313466071
-0.3277,-25.252596702590903
-0.3287000000000001,-25.478950510569312
-0.3297,-25.691157205549064
-0.3307000000000001,-25.91751101352747
-0.3317,-26.17215904750318
-0.3327000000000001,-26.440954194477534
-0.3337,-26.65316088945729
-0.3347000000000001,-26.9643973754276
-0.3357,-27.219045409403304
-0.3367000000000001,-27.487840556377662
-0.3377,-27.78492992934932
-0.3387000000000001,-28.05372507632368
-0.3397,-28.308373110299385
-0.3407000000000001,-28.577168257273744
-0.3417,-28.831816291249446
-0.3427000000000001,-29.100611438223805
-0.3437,-29.39770081119546
-0.3447000000000001,-29.66649595816982
-0.3457,-29.921143992145527
-0.3467000000000001,-30.232380478115836
-0.3477,-30.529469851087494
-0.3487000000000001,-30.8407063370578
-0.3497,-31.137795710029454
-0.3507000000000001,-31.449032195999767
-0.3517,-31.76026868197007
-0.3527000000000001,-32.05735805494172
-0.3537,-32.41103587990799
-0.3547000000000001,-32.66568391388369
-0.3557,-33.01936173884996
-0.35670000000000013,-33.373039563816214
-0.3577,-33.712570275783825
-0.35870000000000013,-34.06624810075008
-0.3597,-34.41992592571634
-0.36070000000000013,-34.8018979766799
-0.3617,-35.240458479638065
-0.3626999999999999,-35.636577643600276
-0.3637,-36.07513814655844
-0.3646999999999999,-36.5136986495166
-0.3657,-36.89567070048016
-0.3666999999999999,-37.291789864442364
-0.3677,-37.645467689408626
-0.3686999999999999,-37.99914551437489
-0.36970000000000003,-38.38111756533845
-0.3706999999999999,-38.777236729300654
-0.37170000000000003,-39.21579723225882
-0.3726999999999999,-39.61191639622103
-0.37370000000000003,-39.99388844718459
-0.3746999999999999,-40.4748902891387
-0.37570000000000003,-40.91345079209687
-0.3766999999999999,-41.39445263405098
-0.37770000000000004,-41.83301313700913
-0.3786999999999999,-42.2715736399673
-0.37970000000000004,-42.71013414292546
-0.3806999999999999,-43.23357732387552
-0.38170000000000004,-43.70043205283099
-0.38269999999999993,-44.223875233781044
-0.38370000000000004,-44.74731841473111
-0.38469999999999993,-45.27076159568118
-0.38570000000000004,-45.79420477663124
-0.38669999999999993,-46.37423640957591
-0.38770000000000004,-46.94012092952192
-0.38869999999999993,-47.46356411047198
-0.38970000000000005,-47.93041883942744
-0.39069999999999994,-48.41142068138156
-0.39170000000000005,-48.89242252333566
-0.39269999999999994,-49.41586570428573
-0.39370000000000005,-49.939308885235796
-0.39469999999999994,-50.42031072718991
-0.39570000000000005,-50.943753908139975
-0.39669999999999994,-51.46719708909004
-0.39770000000000005,-51.990640270040096
-0.39869999999999994,-52.55652478998611
-0.39970000000000006,-53.12240930993213
-0.40069999999999995,-53.68829382987814
-0.40170000000000006,-54.26832546282281
-0.40269999999999995,-54.834209982768826
-0.40370000000000006,-55.400094502714836
-0.40469999999999995,-56.008420361656796
-0.40570000000000006,-56.57430488160282
-0.40669999999999995,-57.14018940154883
-0.40770000000000006,-57.70607392149485
-0.40869999999999995,-58.22951710244491
-0.40970000000000006,-58.83784296138688
-0.41069999999999995,-59.403727481332886
-0.41170000000000007,-60.06864179226946
-0.41269999999999996,-60.761850329203334
-0.41370000000000007,-61.455058866137186
-0.41469999999999996,-62.11997317707376
-0.41570000000000007,-62.77074037501168
-0.41669999999999996,-63.421507572949594
-0.41770000000000007,-64.11471610988345
-0.41869999999999996,-64.72304196882543
-0.4197000000000001,-65.38795627976201
-0.42069999999999996,-66.03872347769992
-0.4217000000000001,-66.64704933664189
-0.42269999999999996,-67.2978165345798
-0.4237000000000001,-67.96273084551636
-0.42469999999999997,-68.61349804345427
-0.4257000000000001,-69.26426524139221
-0.42669999999999997,-69.95747377832606
-0.4277000000000001,-70.66482942825859
-0.42869999999999997,-71.4004793041884
-0.4297000000000001,-72.10783495412092
-0.43069999999999997,-72.84348483005074
-0.4317000000000001,-73.62157604497652
-0.4327,-74.32893169490903
-0.4337000000000001,-75.14946424883075
-0.4347,-75.94170257675518
-0.4357000000000001,-76.71979379168094
-0.4367,-77.46959078060941
-0.4377000000000001,-78.20524065653922
-0.4387,-78.9550376454677
-0.4397000000000001,-79.64824618240156
-0.4407,-80.34145471933543
-0.4417000000000001,-81.1761343862558
-0.4427,-83.04355330207765
-0.4437000000000001,-83.39723112704392
-0.4447,-83.87823296899803
-0.4457000000000001,-84.44411748894404
-0.4467,-85.13732602587791
-0.4477000000000001,-85.88712301480638
-0.4487,-86.6227728907362
-0.4497000000000001,-87.37256987966467
-0.4507,-88.10821975559449
-0.4517000000000001,-88.9004580835189
-0.4527,-89.67854929844468
-0.4537000000000001,-90.47078762636909
-0.4547,-91.29132018029082
-0.4557000000000001,-92.08355850821525
-0.4567,-92.90409106213696
-0.4577000000000001,-93.73877072905732
-0.4587,-94.55930328297906
-0.4597000000000001,-95.35154161090348
-0.4607,-96.12963282582925
-0.4617000000000001,-96.87942981475771
-0.4627,-97.69996236867944
-0.4637000000000001,-98.49220069660386
-0.4647,-99.35517458952152
-0.4657000000000001,-100.14741291744595
-0.4667,-100.92550413237171
-0.4677000000000001,-101.6753011213002
-0.4687,-102.5524221272165
-0.4697000000000001,-103.41539602013418
-0.4707,-104.16519300906265
-0.4717000000000001,-104.90084288499246
-0.4727,-105.69308121291688
-0.4737000000000001,-106.47117242784265
-0.4747,-107.26341075576708
-0.4757000000000001,-108.12638464868475
-0.4767,-108.91862297660917
-0.4777000000000001,-109.78159686952685
-0.4787,-110.65871787544317
-0.4797000000000001,-111.57828022035544
-0.4807,-112.48369545226906
-0.48170000000000013,-113.40325779718134
-0.4827,-114.40770282008553
-0.48370000000000013,-115.32726516499778
-0.4847,-116.24682750991008
-0.48570000000000013,-117.06736006383179
-0.4867,-116.85515336885203
-0.48570000000000013,-115.01602867902749
-0.4847,-113.48814047517324
-0.48370000000000013,-112.10172340130552
-0.4827,-110.70115921443913
-0.48170000000000013,-109.35718347956733
-0.4807,-108.12638464868475
-0.4797000000000001,-106.99461560879273
-0.4787,-105.90528790789664
-0.4777000000000001,-104.90084288499246
-0.4767,-103.98128054008019
-0.4757000000000001,-102.93439417818009
-0.4747,-101.92994915527588
-0.4737000000000001,-101.02453392336226
-0.4727,-100.02008890045809
-0.4717000000000001,-98.93076119956201
-0.4707,-97.84143349866595
-0.4697000000000001,-96.87942981475771
-0.4687,-96.12963282582925
-0.4677000000000001,-95.39398294989942
-0.4667,-94.6583330739696
