Aug. 8, 2024   15:15:50
Cyclic Voltammetry
File: c:/users/guazh/data/20240802_batch_500/2024-08-02-exp55\exp55-2024-08-08t14_56_08-arkoh\exp55_cv_sr_400mvs_efin_-1800mv.bin
Data Source:  Experiment
Instrument Model:  CHI760E
Header: CV ran at 400 mVs
Note: 

Init E (V) = -1
High E (V) = -1
Low E (V) = -1.8
Final E (V) = -1
Init P/N = N
Scan Rate (V/s) = 0.4
Segment = 3
Sample Interval (V) = 0.001
Quiet Time (sec) = 2
Sensitivity (A/V) = 0.01
Comp R (ohm) = 2.1

Results:

Channel 1:
Segment 1:

Segment 2:

Segment 3:

Potential/V, Current/A

-1.000, 3.239e-6
-1.001, 3.239e-6
-1.002, 3.239e-6
-1.003, 3.239e-6
-1.004, 3.239e-6
-1.005, 3.239e-6
-1.006, 3.239e-6
-1.007, 3.239e-6
-1.008, 3.239e-6
-1.009, 3.239e-6
-1.010, 3.239e-6
-1.011, 3.239e-6
-1.012, 3.239e-6
-1.013, 3.239e-6
-1.014, 3.239e-6
-1.015, 3.239e-6
-1.016, 3.239e-6
-1.017, 3.239e-6
-1.018, 3.239e-6
-1.019, 3.239e-6
-1.020, 3.239e-6
-1.021, 3.239e-6
-1.022, 3.239e-6
-1.023, 3.239e-6
-1.024, 3.239e-6
-1.025, 3.239e-6
-1.026, 3.239e-6
-1.027, 3.239e-6
-1.028, 3.239e-6
-1.029, 3.239e-6
-1.030, 3.239e-6
-1.031, 3.239e-6
-1.032, 3.239e-6
-1.033, 3.239e-6
-1.034, 3.239e-6
-1.035, 3.239e-6
-1.036, 3.239e-6
-1.037, 3.239e-6
-1.038, 3.239e-6
-1.039, 3.239e-6
-1.040, 3.239e-6
-1.041, 3.239e-6
-1.042, 3.239e-6
-1.043, 3.239e-6
-1.044, 3.239e-6
-1.045, 3.239e-6
-1.046, 3.239e-6
-1.047, 3.239e-6
-1.048, 3.239e-6
-1.049, 3.239e-6
-1.050, 3.239e-6
-1.051, 3.239e-6
-1.052, 3.239e-6
-1.053, 3.239e-6
-1.054, 3.239e-6
-1.055, 3.239e-6
-1.056, 3.239e-6
-1.057, 3.239e-6
-1.058, 6.322e-6
-1.059, 6.322e-6
-1.060, 3.239e-6
-1.061, 6.322e-6
-1.062, 6.322e-6
-1.063, 6.322e-6
-1.064, 6.322e-6
-1.065, 3.239e-6
-1.066, 3.239e-6
-1.067, 3.239e-6
-1.068, 6.322e-6
-1.069, 6.322e-6
-1.070, 3.239e-6
-1.071, 6.322e-6
-1.072, 6.322e-6
-1.073, 3.239e-6
-1.074, 6.322e-6
-1.075, 6.322e-6
-1.076, 6.322e-6
-1.077, 6.322e-6
-1.078, 3.239e-6
-1.079, 6.322e-6
-1.080, 3.239e-6
-1.081, 3.239e-6
-1.082, 6.322e-6
-1.083, 3.239e-6
-1.084, 3.239e-6
-1.085, 3.239e-6
-1.086, 3.239e-6
-1.087, 6.322e-6
-1.088, 6.322e-6
-1.089, 3.239e-6
-1.090, 3.239e-6
-1.091, 6.322e-6
-1.092, 3.239e-6
-1.093, 3.239e-6
-1.094, 3.239e-6
-1.095, 6.322e-6
-1.096, 6.322e-6
-1.097, 3.239e-6
-1.098, 6.322e-6
-1.099, 6.322e-6
-1.100, 6.322e-6
-1.101, 6.322e-6
-1.102, 6.322e-6
-1.103, 6.322e-6
-1.104, 6.322e-6
-1.105, 6.322e-6
-1.106, 6.322e-6
-1.107, 6.322e-6
-1.108, 6.322e-6
-1.109, 3.239e-6
-1.110, 6.322e-6
-1.111, 6.322e-6
-1.112, 6.322e-6
-1.113, 6.322e-6
-1.114, 6.322e-6
-1.115, 6.322e-6
-1.116, 6.322e-6
-1.117, 6.322e-6
-1.118, 6.322e-6
-1.119, 6.322e-6
-1.120, 6.322e-6
-1.121, 6.322e-6
-1.122, 6.322e-6
-1.123, 6.322e-6
-1.124, 6.322e-6
-1.125, 6.322e-6
-1.126, 6.322e-6
-1.127, 6.322e-6
-1.128, 6.322e-6
-1.129, 6.322e-6
-1.130, 6.322e-6
-1.131, 6.322e-6
-1.132, 6.322e-6
-1.133, 6.322e-6
-1.134, 6.322e-6
-1.135, 6.322e-6
-1.136, 6.322e-6
-1.137, 6.322e-6
-1.138, 6.322e-6
-1.139, 6.322e-6
-1.140, 6.322e-6
-1.141, 6.322e-6
-1.142, 6.322e-6
-1.143, 6.322e-6
-1.144, 6.322e-6
-1.145, 6.322e-6
-1.146, 6.322e-6
-1.147, 6.322e-6
-1.148, 6.322e-6
-1.149, 6.322e-6
-1.150, 6.322e-6
-1.151, 6.322e-6
-1.152, 6.322e-6
-1.153, 6.322e-6
-1.154, 6.322e-6
-1.155, 6.322e-6
-1.156, 6.322e-6
-1.157, 6.322e-6
-1.158, 6.322e-6
-1.159, 6.322e-6
-1.160, 6.322e-6
-1.161, 6.322e-6
-1.162, 6.322e-6
-1.163, 6.322e-6
-1.164, 6.322e-6
-1.165, 6.322e-6
-1.166, 6.322e-6
-1.167, 6.322e-6
-1.168, 6.322e-6
-1.169, 6.322e-6
-1.170, 6.322e-6
-1.171, 6.322e-6
-1.172, 6.322e-6
-1.173, 6.322e-6
-1.174, 6.322e-6
-1.175, 6.322e-6
-1.176, 6.322e-6
-1.177, 6.322e-6
-1.178, 6.322e-6
-1.179, 6.322e-6
-1.180, 6.322e-6
-1.181, 6.322e-6
-1.182, 6.322e-6
-1.183, 6.322e-6
-1.184, 6.322e-6
-1.185, 6.322e-6
-1.186, 6.322e-6
-1.187, 6.322e-6
-1.188, 6.322e-6
-1.189, 6.322e-6
-1.190, 6.322e-6
-1.191, 6.322e-6
-1.192, 6.322e-6
-1.193, 6.322e-6
-1.194, 6.322e-6
-1.195, 6.322e-6
-1.196, 6.322e-6
-1.197, 6.322e-6
-1.198, 6.322e-6
-1.199, 6.322e-6
-1.200, 6.322e-6
-1.201, 6.322e-6
-1.202, 6.322e-6
-1.203, 6.322e-6
-1.204, 6.322e-6
-1.205, 6.322e-6
-1.206, 6.322e-6
-1.207, 6.322e-6
-1.208, 6.322e-6
-1.209, 6.322e-6
-1.210, 6.322e-6
-1.211, 6.322e-6
-1.212, 6.322e-6
-1.213, 6.322e-6
-1.214, 6.322e-6
-1.215, 6.322e-6
-1.216, 6.322e-6
-1.217, 6.322e-6
-1.218, 6.322e-6
-1.219, 6.322e-6
-1.220, 6.322e-6
-1.221, 6.322e-6
-1.222, 6.322e-6
-1.223, 6.322e-6
-1.224, 6.322e-6
-1.225, 6.322e-6
-1.226, 6.322e-6
-1.227, 6.322e-6
-1.228, 6.322e-6
-1.229, 6.322e-6
-1.230, 9.405e-6
-1.231, 6.322e-6
-1.232, 6.322e-6
-1.233, 6.322e-6
-1.234, 6.322e-6
-1.235, 9.405e-6
-1.236, 9.405e-6
-1.237, 6.322e-6
-1.238, 9.405e-6
-1.239, 6.322e-6
-1.240, 6.322e-6
-1.241, 6.322e-6
-1.242, 9.405e-6
-1.243, 6.322e-6
-1.244, 6.322e-6
-1.245, 6.322e-6
-1.246, 6.322e-6
-1.247, 6.322e-6
-1.248, 9.405e-6
-1.249, 9.405e-6
-1.250, 9.405e-6
-1.251, 9.405e-6
-1.252, 9.405e-6
-1.253, 9.405e-6
-1.254, 6.322e-6
-1.255, 9.405e-6
-1.256, 9.405e-6
-1.257, 6.322e-6
-1.258, 9.405e-6
-1.259, 9.405e-6
-1.260, 6.322e-6
-1.261, 9.405e-6
-1.262, 9.405e-6
-1.263, 9.405e-6
-1.264, 9.405e-6
-1.265, 9.405e-6
-1.266, 9.405e-6
-1.267, 9.405e-6
-1.268, 9.405e-6
-1.269, 9.405e-6
-1.270, 9.405e-6
-1.271, 9.405e-6
-1.272, 9.405e-6
-1.273, 9.405e-6
-1.274, 9.405e-6
-1.275, 9.405e-6
-1.276, 9.405e-6
-1.277, 9.405e-6
-1.278, 9.405e-6
-1.279, 9.405e-6
-1.280, 9.405e-6
-1.281, 9.405e-6
-1.282, 9.405e-6
-1.283, 9.405e-6
-1.284, 9.405e-6
-1.285, 9.405e-6
-1.286, 9.405e-6
-1.287, 9.405e-6
-1.288, 9.405e-6
-1.289, 6.322e-6
-1.290, 9.405e-6
-1.291, 9.405e-6
-1.292, 9.405e-6
-1.293, 9.405e-6
-1.294, 9.405e-6
-1.295, 9.405e-6
-1.296, 9.405e-6
-1.297, 9.405e-6
-1.298, 9.405e-6
-1.299, 9.405e-6
-1.300, 9.405e-6
-1.301, 9.405e-6
-1.302, 9.405e-6
-1.303, 9.405e-6
-1.304, 9.405e-6
-1.305, 9.405e-6
-1.306, 9.405e-6
-1.307, 9.405e-6
-1.308, 9.405e-6
-1.309, 9.405e-6
-1.310, 9.405e-6
-1.311, 9.405e-6
-1.312, 9.405e-6
-1.313, 9.405e-6
-1.314, 9.405e-6
-1.315, 9.405e-6
-1.316, 9.405e-6
-1.317, 9.405e-6
-1.318, 9.405e-6
-1.319, 9.405e-6
-1.320, 9.405e-6
-1.321, 1.249e-5
-1.322, 1.249e-5
-1.323, 9.405e-6
-1.324, 9.405e-6
-1.325, 9.405e-6
-1.326, 9.405e-6
-1.327, 9.405e-6
-1.328, 9.405e-6
-1.329, 9.405e-6
-1.330, 1.249e-5
-1.331, 9.405e-6
-1.332, 1.249e-5
-1.333, 1.249e-5
-1.334, 1.249e-5
-1.335, 1.249e-5
-1.336, 1.249e-5
-1.337, 1.249e-5
-1.338, 1.249e-5
-1.339, 1.249e-5
-1.340, 1.249e-5
-1.341, 1.249e-5
-1.342, 1.249e-5
-1.343, 1.249e-5
-1.344, 1.249e-5
-1.345, 1.249e-5
-1.346, 1.249e-5
-1.347, 1.249e-5
-1.348, 1.249e-5
-1.349, 1.249e-5
-1.350, 1.249e-5
-1.351, 1.249e-5
-1.352, 1.249e-5
-1.353, 1.249e-5
-1.354, 1.249e-5
-1.355, 1.249e-5
-1.356, 1.249e-5
-1.357, 1.249e-5
-1.358, 1.249e-5
-1.359, 1.249e-5
-1.360, 1.249e-5
-1.361, 1.249e-5
-1.362, 1.557e-5
-1.363, 1.557e-5
-1.364, 1.557e-5
-1.365, 1.249e-5
-1.366, 1.557e-5
-1.367, 1.557e-5
-1.368, 1.557e-5
-1.369, 1.557e-5
-1.370, 1.557e-5
-1.371, 1.557e-5
-1.372, 1.557e-5
-1.373, 1.557e-5
-1.374, 1.557e-5
-1.375, 1.557e-5
-1.376, 1.557e-5
-1.377, 1.557e-5
-1.378, 1.557e-5
-1.379, 1.557e-5
-1.380, 1.557e-5
-1.381, 1.557e-5
-1.382, 1.557e-5
-1.383, 1.865e-5
-1.384, 1.865e-5
-1.385, 1.865e-5
-1.386, 1.865e-5
-1.387, 1.865e-5
-1.388, 1.865e-5
-1.389, 1.865e-5
-1.390, 1.865e-5
-1.391, 1.865e-5
-1.392, 1.865e-5
-1.393, 1.865e-5
-1.394, 1.865e-5
-1.395, 2.174e-5
-1.396, 1.865e-5
-1.397, 1.865e-5
-1.398, 2.174e-5
-1.399, 2.174e-5
-1.400, 2.174e-5
-1.401, 2.174e-5
-1.402, 2.174e-5
-1.403, 2.174e-5
-1.404, 2.174e-5
-1.405, 2.174e-5
-1.406, 2.174e-5
-1.407, 2.174e-5
-1.408, 2.482e-5
-1.409, 2.482e-5
-1.410, 2.482e-5
-1.411, 2.482e-5
-1.412, 2.482e-5
-1.413, 2.482e-5
-1.414, 2.482e-5
-1.415, 2.790e-5
-1.416, 2.482e-5
-1.417, 2.790e-5
-1.418, 2.790e-5
-1.419, 2.790e-5
-1.420, 2.790e-5
-1.421, 2.790e-5
-1.422, 2.790e-5
-1.423, 2.790e-5
-1.424, 3.099e-5
-1.425, 3.099e-5
-1.426, 3.099e-5
-1.427, 3.099e-5
-1.428, 3.099e-5
-1.429, 3.099e-5
-1.430, 3.407e-5
-1.431, 3.099e-5
-1.432, 3.099e-5
-1.433, 3.407e-5
-1.434, 3.407e-5
-1.435, 3.407e-5
-1.436, 3.407e-5
-1.437, 3.407e-5
-1.438, 3.407e-5
-1.439, 3.715e-5
-1.440, 3.715e-5
-1.441, 3.715e-5
-1.442, 4.024e-5
-1.443, 4.024e-5
-1.444, 4.024e-5
-1.445, 4.024e-5
-1.446, 4.024e-5
-1.447, 4.024e-5
-1.448, 4.332e-5
-1.449, 4.332e-5
-1.450, 4.332e-5
-1.451, 4.332e-5
-1.452, 4.640e-5
-1.453, 4.640e-5
-1.454, 4.640e-5
-1.455, 4.949e-5
-1.456, 4.640e-5
-1.457, 4.949e-5
-1.458, 4.949e-5
-1.459, 4.949e-5
-1.460, 4.949e-5
-1.461, 5.257e-5
-1.462, 5.257e-5
-1.463, 5.565e-5
-1.464, 5.565e-5
-1.465, 5.565e-5
-1.466, 5.565e-5
-1.467, 5.873e-5
-1.468, 5.873e-5
-1.469, 5.873e-5
-1.470, 6.182e-5
-1.471, 6.182e-5
-1.472, 6.182e-5
-1.473, 6.182e-5
-1.474, 6.490e-5
-1.475, 6.490e-5
-1.476, 6.798e-5
-1.477, 6.798e-5
-1.478, 6.798e-5
-1.479, 6.798e-5
-1.480, 7.107e-5
-1.481, 7.107e-5
-1.482, 7.415e-5
-1.483, 7.415e-5
-1.484, 7.415e-5
-1.485, 7.723e-5
-1.486, 7.723e-5
-1.487, 8.032e-5
-1.488, 8.032e-5
-1.489, 8.340e-5
-1.490, 8.340e-5
-1.491, 8.648e-5
-1.492, 8.648e-5
-1.493, 8.957e-5
-1.494, 8.957e-5
-1.495, 9.265e-5
-1.496, 9.265e-5
-1.497, 9.573e-5
-1.498, 9.573e-5
-1.499, 9.882e-5
-1.500, 9.882e-5
-1.501, 1.019e-4
-1.502, 1.019e-4
-1.503, 1.050e-4
-1.504, 1.081e-4
-1.505, 1.081e-4
-1.506, 1.111e-4
-1.507, 1.111e-4
-1.508, 1.142e-4
-1.509, 1.173e-4
-1.510, 1.173e-4
-1.511, 1.204e-4
-1.512, 1.204e-4
-1.513, 1.235e-4
-1.514, 1.266e-4
-1.515, 1.296e-4
-1.516, 1.327e-4
-1.517, 1.327e-4
-1.518, 1.358e-4
-1.519, 1.389e-4
-1.520, 1.420e-4
-1.521, 1.451e-4
-1.522, 1.481e-4
-1.523, 1.481e-4
-1.524, 1.512e-4
-1.525, 1.543e-4
-1.526, 1.574e-4
-1.527, 1.605e-4
-1.528, 1.636e-4
-1.529, 1.666e-4
-1.530, 1.697e-4
-1.531, 1.728e-4
-1.532, 1.759e-4
-1.533, 1.790e-4
-1.534, 1.821e-4
-1.535, 1.851e-4
-1.536, 1.882e-4
-1.537, 1.913e-4
-1.538, 1.975e-4
-1.539, 2.006e-4
-1.540, 2.036e-4
-1.541, 2.067e-4
-1.542, 2.129e-4
-1.543, 2.160e-4
-1.544, 2.191e-4
-1.545, 2.252e-4
-1.546, 2.283e-4
-1.547, 2.314e-4
-1.548, 2.376e-4
-1.549, 2.406e-4
-1.550, 2.468e-4
-1.551, 2.499e-4
-1.552, 2.530e-4
-1.553, 2.591e-4
-1.554, 2.622e-4
-1.555, 2.715e-4
-1.556, 2.746e-4
-1.557, 2.807e-4
-1.558, 2.869e-4
-1.559, 2.900e-4
-1.560, 2.931e-4
-1.561, 3.023e-4
-1.562, 3.085e-4
-1.563, 3.146e-4
-1.564, 3.177e-4
-1.565, 3.239e-4
-1.566, 3.300e-4
-1.567, 3.362e-4
-1.568, 3.424e-4
-1.569, 3.485e-4
-1.570, 3.547e-4
-1.571, 3.640e-4
-1.572, 3.701e-4
-1.573, 3.763e-4
-1.574, 3.825e-4
-1.575, 3.917e-4
-1.576, 3.979e-4
-1.577, 4.071e-4
-1.578, 4.133e-4
-1.579, 4.225e-4
-1.580, 4.287e-4
-1.581, 4.380e-4
-1.582, 4.472e-4
-1.583, 4.565e-4
-1.584, 4.626e-4
-1.585, 4.719e-4
-1.586, 4.811e-4
-1.587, 4.904e-4
-1.588, 4.996e-4
-1.589, 5.089e-4
-1.590, 5.181e-4
-1.591, 5.274e-4
-1.592, 5.366e-4
-1.593, 5.459e-4
-1.594, 5.582e-4
-1.595, 5.705e-4
-1.596, 5.798e-4
-1.597, 5.890e-4
-1.598, 6.014e-4
-1.599, 6.137e-4
-1.600, 6.229e-4
-1.601, 6.353e-4
-1.602, 6.476e-4
-1.603, 6.599e-4
-1.604, 6.723e-4
-1.605, 6.846e-4
-1.606, 6.969e-4
-1.607, 7.093e-4
-1.608, 7.216e-4
-1.609, 7.370e-4
-1.610, 7.494e-4
-1.611, 7.617e-4
-1.612, 7.771e-4
-1.613, 7.894e-4
-1.614, 8.048e-4
-1.615, 8.203e-4
-1.616, 8.357e-4
-1.617, 8.511e-4
-1.618, 8.665e-4
-1.619, 8.819e-4
-1.620, 8.973e-4
-1.621, 9.158e-4
-1.622, 9.313e-4
-1.623, 9.498e-4
-1.624, 9.652e-4
-1.625, 9.837e-4
-1.626, 9.991e-4
-1.627, 1.014e-3
-1.628, 1.033e-3
-1.629, 1.055e-3
-1.630, 1.073e-3
-1.631, 1.092e-3
-1.632, 1.110e-3
-1.633, 1.129e-3
-1.634, 1.147e-3
-1.635, 1.169e-3
-1.636, 1.190e-3
-1.637, 1.212e-3
-1.638, 1.230e-3
-1.639, 1.252e-3
-1.640, 1.270e-3
-1.641, 1.295e-3
-1.642, 1.317e-3
-1.643, 1.341e-3
-1.644, 1.366e-3
-1.645, 1.388e-3
-1.646, 1.409e-3
-1.647, 1.434e-3
-1.648, 1.458e-3
-1.649, 1.483e-3
-1.650, 1.508e-3
-1.651, 1.536e-3
-1.652, 1.560e-3
-1.653, 1.585e-3
-1.654, 1.610e-3
-1.655, 1.640e-3
-1.656, 1.668e-3
-1.657, 1.696e-3
-1.658, 1.724e-3
-1.659, 1.751e-3
-1.660, 1.779e-3
-1.661, 1.807e-3
-1.662, 1.838e-3
-1.663, 1.869e-3
-1.664, 1.899e-3
-1.665, 1.930e-3
-1.666, 1.958e-3
-1.667, 1.989e-3
-1.668, 2.023e-3
-1.669, 2.057e-3
-1.670, 2.087e-3
-1.671, 2.121e-3
-1.672, 2.152e-3
-1.673, 2.183e-3
-1.674, 2.217e-3
-1.675, 2.254e-3
-1.676, 2.291e-3
-1.677, 2.325e-3
-1.678, 2.359e-3
-1.679, 2.393e-3
-1.680, 2.427e-3
-1.681, 2.464e-3
-1.682, 2.504e-3
-1.683, 2.541e-3
-1.684, 2.581e-3
-1.685, 2.615e-3
-1.686, 2.652e-3
-1.687, 2.689e-3
-1.688, 2.729e-3
-1.689, 2.772e-3
-1.690, 2.812e-3
-1.691, 2.852e-3
-1.692, 2.892e-3
-1.693, 2.929e-3
-1.694, 2.969e-3
-1.695, 3.015e-3
-1.696, 3.059e-3
-1.697, 3.102e-3
-1.698, 3.145e-3
-1.699, 3.185e-3
-1.700, 3.231e-3
-1.701, 3.278e-3
-1.702, 3.327e-3
-1.703, 3.373e-3
-1.704, 3.419e-3
-1.705, 3.466e-3
-1.706, 3.509e-3
-1.707, 3.555e-3
-1.708, 3.607e-3
-1.709, 3.657e-3
-1.710, 3.706e-3
-1.711, 3.755e-3
-1.712, 3.802e-3
-1.713, 3.851e-3
-1.714, 3.900e-3
-1.715, 3.953e-3
-1.716, 4.008e-3
-1.717, 4.061e-3
-1.718, 4.110e-3
-1.719, 4.159e-3
-1.720, 4.212e-3
-1.721, 4.264e-3
-1.722, 4.323e-3
-1.723, 4.378e-3
-1.724, 4.434e-3
-1.725, 4.486e-3
-1.726, 4.542e-3
-1.727, 4.594e-3
-1.728, 4.653e-3
-1.729, 4.714e-3
-1.730, 4.773e-3
-1.731, 4.831e-3
-1.732, 4.884e-3
-1.733, 4.942e-3
-1.734, 4.998e-3
-1.735, 5.060e-3
-1.736, 5.121e-3
-1.737, 5.183e-3
-1.738, 5.241e-3
-1.739, 5.300e-3
-1.740, 5.356e-3
-1.741, 5.420e-3
-1.742, 5.485e-3
-1.743, 5.550e-3
-1.744, 5.618e-3
-1.745, 5.679e-3
-1.746, 5.741e-3
-1.747, 5.806e-3
-1.748, 5.873e-3
-1.749, 5.944e-3
-1.750, 6.012e-3
-1.751, 6.080e-3
-1.752, 6.139e-3
-1.753, 6.203e-3
-1.754, 6.268e-3
-1.755, 6.336e-3
-1.756, 6.407e-3
-1.757, 6.475e-3
-1.758, 6.543e-3
-1.759, 6.604e-3
-1.760, 6.669e-3
-1.761, 6.737e-3
-1.762, 6.808e-3
-1.763, 6.882e-3
-1.764, 6.949e-3
-1.765, 7.017e-3
-1.766, 7.085e-3
-1.767, 7.156e-3
-1.768, 7.233e-3
-1.769, 7.310e-3
-1.770, 7.387e-3
-1.771, 7.461e-3
-1.772, 7.529e-3
-1.773, 7.597e-3
-1.774, 7.671e-3
-1.775, 7.745e-3
-1.776, 7.825e-3
-1.777, 7.902e-3
-1.778, 7.976e-3
-1.779, 8.050e-3
-1.780, 8.121e-3
-1.781, 8.192e-3
-1.782, 8.269e-3
-1.783, 8.343e-3
-1.784, 8.420e-3
-1.785, 8.494e-3
-1.786, 8.571e-3
-1.787, 8.651e-3
-1.788, 8.738e-3
-1.789, 8.827e-3
-1.790, 8.913e-3
-1.791, 8.997e-3
-1.792, 9.074e-3
-1.793, 9.145e-3
-1.794, 9.225e-3
-1.795, 9.305e-3
-1.796, 9.385e-3
-1.797, 9.462e-3
-1.798, 9.539e-3
-1.799, 9.616e-3
-1.800, 9.641e-3
-1.799, 9.576e-3
-1.798, 9.512e-3
-1.797, 9.450e-3
-1.796, 9.382e-3
-1.795, 9.308e-3
-1.794, 9.234e-3
-1.793, 9.163e-3
-1.792, 9.098e-3
-1.791, 9.031e-3
-1.790, 8.966e-3
-1.789, 8.898e-3
-1.788, 8.824e-3
-1.787, 8.750e-3
-1.786, 8.682e-3
-1.785, 8.617e-3
-1.784, 8.556e-3
-1.783, 8.488e-3
-1.782, 8.417e-3
-1.781, 8.346e-3
-1.780, 8.275e-3
-1.779, 8.207e-3
-1.778, 8.143e-3
-1.777, 8.081e-3
-1.776, 8.013e-3
-1.775, 7.939e-3
-1.774, 7.868e-3
-1.773, 7.797e-3
-1.772, 7.730e-3
-1.771, 7.665e-3
-1.770, 7.600e-3
-1.769, 7.532e-3
-1.768, 7.464e-3
-1.767, 7.397e-3
-1.766, 7.329e-3
-1.765, 7.267e-3
-1.764, 7.205e-3
-1.763, 7.141e-3
-1.762, 7.076e-3
-1.761, 7.005e-3
-1.760, 6.937e-3
-1.759, 6.872e-3
-1.758, 6.814e-3
-1.757, 6.752e-3
-1.756, 6.687e-3
-1.755, 6.623e-3
-1.754, 6.555e-3
-1.753, 6.490e-3
-1.752, 6.428e-3
-1.751, 6.370e-3
-1.750, 6.311e-3
-1.749, 6.250e-3
-1.748, 6.182e-3
-1.747, 6.117e-3
-1.746, 6.055e-3
-1.745, 5.997e-3
-1.744, 5.941e-3
-1.743, 5.883e-3
-1.742, 5.821e-3
-1.741, 5.759e-3
-1.740, 5.698e-3
-1.739, 5.642e-3
-1.738, 5.587e-3
-1.737, 5.531e-3
-1.736, 5.473e-3
-1.735, 5.414e-3
-1.734, 5.352e-3
-1.733, 5.291e-3
-1.732, 5.235e-3
-1.731, 5.186e-3
-1.730, 5.134e-3
-1.729, 5.078e-3
-1.728, 5.019e-3
-1.727, 4.967e-3
-1.726, 4.915e-3
-1.725, 4.865e-3
-1.724, 4.813e-3
-1.723, 4.757e-3
-1.722, 4.699e-3
-1.721, 4.640e-3
-1.720, 4.585e-3
-1.719, 4.532e-3
-1.718, 4.486e-3
-1.717, 4.440e-3
-1.716, 4.394e-3
-1.715, 4.347e-3
-1.714, 4.295e-3
-1.713, 4.246e-3
-1.712, 4.199e-3
-1.711, 4.153e-3
-1.710, 4.104e-3
-1.709, 4.054e-3
-1.708, 4.008e-3
-1.707, 3.959e-3
-1.706, 3.913e-3
-1.705, 3.866e-3
-1.704, 3.826e-3
-1.703, 3.783e-3
-1.702, 3.737e-3
-1.701, 3.688e-3
-1.700, 3.638e-3
-1.699, 3.592e-3
-1.698, 3.549e-3
-1.697, 3.506e-3
-1.696, 3.462e-3
-1.695, 3.416e-3
-1.694, 3.370e-3
-1.693, 3.327e-3
-1.692, 3.284e-3
-1.691, 3.244e-3
-1.690, 3.204e-3
-1.689, 3.160e-3
-1.688, 3.117e-3
-1.687, 3.074e-3
-1.686, 3.034e-3
-1.685, 2.997e-3
-1.684, 2.960e-3
-1.683, 2.923e-3
-1.682, 2.883e-3
-1.681, 2.843e-3
-1.680, 2.806e-3
-1.679, 2.769e-3
-1.678, 2.735e-3
-1.677, 2.701e-3
-1.676, 2.664e-3
-1.675, 2.627e-3
-1.674, 2.590e-3
-1.673, 2.553e-3
-1.672, 2.519e-3
-1.671, 2.488e-3
-1.670, 2.454e-3
-1.669, 2.417e-3
-1.668, 2.383e-3
-1.667, 2.346e-3
-1.666, 2.312e-3
-1.665, 2.282e-3
-1.664, 2.251e-3
-1.663, 2.220e-3
-1.662, 2.189e-3
-1.661, 2.155e-3
-1.660, 2.124e-3
-1.659, 2.094e-3
-1.658, 2.066e-3
-1.657, 2.038e-3
-1.656, 2.007e-3
-1.655, 1.980e-3
-1.654, 1.946e-3
-1.653, 1.918e-3
-1.652, 1.890e-3
-1.651, 1.862e-3
-1.650, 1.838e-3
-1.649, 1.810e-3
-1.648, 1.782e-3
-1.647, 1.751e-3
-1.646, 1.727e-3
-1.645, 1.702e-3
-1.644, 1.677e-3
-1.643, 1.653e-3
-1.642, 1.625e-3
-1.641, 1.597e-3
-1.640, 1.573e-3
-1.639, 1.548e-3
-1.638, 1.523e-3
-1.637, 1.502e-3
-1.636, 1.477e-3
-1.635, 1.452e-3
-1.634, 1.431e-3
-1.633, 1.406e-3
-1.632, 1.384e-3
-1.631, 1.363e-3
-1.630, 1.344e-3
-1.629, 1.323e-3
-1.628, 1.301e-3
-1.627, 1.277e-3
-1.626, 1.258e-3
-1.625, 1.236e-3
-1.624, 1.218e-3
-1.623, 1.199e-3
-1.622, 1.181e-3
-1.621, 1.159e-3
-1.620, 1.141e-3
-1.619, 1.122e-3
-1.618, 1.104e-3
-1.617, 1.085e-3
-1.616, 1.067e-3
-1.615, 1.051e-3
-1.614, 1.030e-3
-1.613, 1.014e-3
-1.612, 9.960e-4
-1.611, 9.806e-4
-1.610, 9.652e-4
-1.609, 9.498e-4
-1.608, 9.313e-4
-1.607, 9.158e-4
-1.606, 8.973e-4
-1.605, 8.850e-4
-1.604, 8.696e-4
-1.603, 8.542e-4
-1.602, 8.388e-4
-1.601, 8.233e-4
-1.600, 8.079e-4
-1.599, 7.925e-4
-1.598, 7.802e-4
-1.597, 7.679e-4
-1.596, 7.555e-4
-1.595, 7.401e-4
-1.594, 7.278e-4
-1.593, 7.124e-4
-1.592, 7.000e-4
-1.591, 6.877e-4
-1.590, 6.754e-4
-1.589, 6.630e-4
-1.588, 6.507e-4
-1.587, 6.384e-4
-1.586, 6.291e-4
-1.585, 6.168e-4
-1.584, 6.075e-4
-1.583, 5.952e-4
-1.582, 5.859e-4
-1.581, 5.736e-4
-1.580, 5.613e-4
-1.579, 5.520e-4
-1.578, 5.428e-4
-1.577, 5.335e-4
-1.576, 5.243e-4
-1.575, 5.150e-4
-1.574, 5.027e-4
-1.573, 4.935e-4
-1.572, 4.842e-4
-1.571, 4.750e-4
-1.570, 4.657e-4
-1.569, 4.595e-4
-1.568, 4.503e-4
-1.567, 4.380e-4
-1.566, 4.318e-4
-1.565, 4.225e-4
-1.564, 4.164e-4
-1.563, 4.071e-4
-1.562, 4.010e-4
-1.561, 3.917e-4
-1.560, 3.855e-4
-1.559, 3.763e-4
-1.558, 3.701e-4
-1.557, 3.640e-4
-1.556, 3.547e-4
-1.555, 3.485e-4
-1.554, 3.424e-4
-1.553, 3.362e-4
-1.552, 3.300e-4
-1.551, 3.239e-4
-1.550, 3.177e-4
-1.549, 3.115e-4
-1.548, 3.054e-4
-1.547, 2.992e-4
-1.546, 2.931e-4
-1.545, 2.869e-4
-1.544, 2.807e-4
-1.543, 2.776e-4
-1.542, 2.715e-4
-1.541, 2.653e-4
-1.540, 2.591e-4
-1.539, 2.530e-4
-1.538, 2.499e-4
-1.537, 2.437e-4
-1.536, 2.406e-4
-1.535, 2.345e-4
-1.534, 2.314e-4
-1.533, 2.252e-4
-1.532, 2.221e-4
-1.531, 2.160e-4
-1.530, 2.129e-4
-1.529, 2.098e-4
-1.528, 2.036e-4
-1.527, 2.006e-4
-1.526, 1.975e-4
-1.525, 1.913e-4
-1.524, 1.913e-4
-1.523, 1.851e-4
-1.522, 1.821e-4
-1.521, 1.759e-4
-1.520, 1.728e-4
-1.519, 1.697e-4
-1.518, 1.666e-4
-1.517, 1.636e-4
-1.516, 1.605e-4
-1.515, 1.574e-4
-1.514, 1.543e-4
-1.513, 1.512e-4
-1.512, 1.481e-4
-1.511, 1.451e-4
-1.510, 1.420e-4
-1.509, 1.389e-4
-1.508, 1.358e-4
-1.507, 1.358e-4
-1.506, 1.296e-4
-1.505, 1.296e-4
-1.504, 1.266e-4
-1.503, 1.235e-4
-1.502, 1.204e-4
-1.501, 1.173e-4
-1.500, 1.173e-4
-1.499, 1.142e-4
-1.498, 1.111e-4
-1.497, 1.081e-4
-1.496, 1.081e-4
-1.495, 1.050e-4
-1.494, 1.019e-4
-1.493, 1.019e-4
-1.492, 9.882e-5
-1.491, 9.882e-5
-1.490, 9.573e-5
-1.489, 9.265e-5
-1.488, 8.957e-5
-1.487, 8.957e-5
-1.486, 8.648e-5
-1.485, 8.648e-5
-1.484, 8.340e-5
-1.483, 8.340e-5
-1.482, 8.032e-5
-1.481, 8.032e-5
-1.480, 7.723e-5
-1.479, 7.415e-5
-1.478, 7.415e-5
-1.477, 7.107e-5
-1.476, 7.107e-5
-1.475, 7.107e-5
-1.474, 6.798e-5
-1.473, 6.798e-5
-1.472, 6.490e-5
-1.471, 6.490e-5
-1.470, 6.182e-5
-1.469, 6.182e-5
-1.468, 6.182e-5
-1.467, 5.873e-5
-1.466, 5.873e-5
-1.465, 5.565e-5
-1.464, 5.565e-5
-1.463, 5.565e-5
-1.462, 5.257e-5
-1.461, 5.257e-5
-1.460, 4.949e-5
-1.459, 4.949e-5
-1.458, 4.949e-5
-1.457, 4.640e-5
-1.456, 4.640e-5
-1.455, 4.640e-5
-1.454, 4.332e-5
-1.453, 4.332e-5
-1.452, 4.332e-5
-1.451, 4.332e-5
-1.450, 4.024e-5
-1.449, 4.024e-5
-1.448, 4.024e-5
-1.447, 3.715e-5
-1.446, 3.715e-5
-1.445, 3.715e-5
-1.444, 3.715e-5
-1.443, 3.715e-5
-1.442, 3.407e-5
-1.441, 3.407e-5
-1.440, 3.407e-5
-1.439, 3.407e-5
-1.438, 3.099e-5
-1.437, 3.099e-5
-1.436, 3.099e-5
-1.435, 3.099e-5
-1.434, 2.790e-5
-1.433, 2.790e-5
-1.432, 2.790e-5
-1.431, 2.790e-5
-1.430, 2.790e-5
-1.429, 2.482e-5
-1.428, 2.482e-5
-1.427, 2.482e-5
-1.426, 2.482e-5
-1.425, 2.482e-5
-1.424, 2.174e-5
-1.423, 2.174e-5
-1.422, 2.174e-5
-1.421, 2.174e-5
-1.420, 2.174e-5
-1.419, 2.174e-5
-1.418, 2.174e-5
-1.417, 1.865e-5
-1.416, 1.865e-5
-1.415, 1.865e-5
-1.414, 1.865e-5
-1.413, 1.865e-5
-1.412, 1.865e-5
-1.411, 1.865e-5
-1.410, 1.557e-5
-1.409, 1.557e-5
-1.408, 1.557e-5
-1.407, 1.557e-5
-1.406, 1.557e-5
-1.405, 1.557e-5
-1.404, 1.557e-5
-1.403, 1.249e-5
-1.402, 1.249e-5
-1.401, 1.249e-5
-1.400, 1.249e-5
-1.399, 1.249e-5
-1.398, 1.249e-5
-1.397, 1.249e-5
-1.396, 9.405e-6
-1.395, 1.249e-5
-1.394, 9.405e-6
-1.393, 9.405e-6
-1.392, 9.405e-6
-1.391, 9.405e-6
-1.390, 9.405e-6
-1.389, 9.405e-6
-1.388, 9.405e-6
-1.387, 9.405e-6
-1.386, 9.405e-6
-1.385, 9.405e-6
-1.384, 9.405e-6
-1.383, 6.322e-6
-1.382, 6.322e-6
-1.381, 6.322e-6
-1.380, 6.322e-6
-1.379, 6.322e-6
-1.378, 6.322e-6
-1.377, 6.322e-6
-1.376, 6.322e-6
-1.375, 6.322e-6
-1.374, 6.322e-6
-1.373, 6.322e-6
-1.372, 6.322e-6
-1.371, 6.322e-6
-1.370, 6.322e-6
-1.369, 3.239e-6
-1.368, 6.322e-6
-1.367, 3.239e-6
-1.366, 3.239e-6
-1.365, 3.239e-6
-1.364, 3.239e-6
-1.363, 3.239e-6
-1.362, 3.239e-6
-1.361, 3.239e-6
-1.360, 3.239e-6
-1.359, 3.239e-6
-1.358, 3.239e-6
-1.357, 3.239e-6
-1.356, 3.239e-6
-1.355, 3.239e-6
-1.354, 1.559e-7
-1.353, 1.559e-7
-1.352, 1.559e-7
-1.351, 3.239e-6
-1.350, 1.559e-7
-1.349, 1.559e-7
-1.348, 1.559e-7
-1.347, 1.559e-7
-1.346, 1.559e-7
-1.345, 1.559e-7
-1.344, 1.559e-7
-1.343, 1.559e-7
-1.342, 1.559e-7
-1.341, 1.559e-7
-1.340, 1.559e-7
-1.339, 1.559e-7
-1.338, 1.559e-7
-1.337, 1.559e-7
-1.336, 1.559e-7
-1.335, 1.559e-7
-1.334, 1.559e-7
-1.333, 1.559e-7
-1.332, 1.559e-7
-1.331, 1.559e-7
-1.330, 1.559e-7
-1.329, 1.559e-7
-1.328, 1.559e-7
-1.327, 1.559e-7
-1.326, -2.927e-6
-1.325, 1.559e-7
-1.324, 1.559e-7
-1.323, -2.927e-6
-1.322, -2.927e-6
-1.321, -2.927e-6
-1.320, -2.927e-6
-1.319, -2.927e-6
-1.318, 1.559e-7
-1.317, -2.927e-6
-1.316, -2.927e-6
-1.315, -2.927e-6
-1.314, -2.927e-6
-1.313, -2.927e-6
-1.312, -2.927e-6
-1.311, -2.927e-6
-1.310, -2.927e-6
-1.309, -2.927e-6
-1.308, -2.927e-6
-1.307, -2.927e-6
-1.306, -2.927e-6
-1.305, -2.927e-6
-1.304, -2.927e-6
-1.303, -2.927e-6
-1.302, -2.927e-6
-1.301, -2.927e-6
-1.300, -2.927e-6
-1.299, -2.927e-6
-1.298, -2.927e-6
-1.297, -2.927e-6
-1.296, -2.927e-6
-1.295, -2.927e-6
-1.294, -2.927e-6
-1.293, -2.927e-6
-1.292, -2.927e-6
-1.291, -2.927e-6
-1.290, -2.927e-6
-1.289, -2.927e-6
-1.288, -2.927e-6
-1.287, -2.927e-6
-1.286, -2.927e-6
-1.285, -2.927e-6
-1.284, -2.927e-6
-1.283, -2.927e-6
-1.282, -2.927e-6
-1.281, -2.927e-6
-1.280, -2.927e-6
-1.279, -2.927e-6
-1.278, -2.927e-6
-1.277, -6.010e-6
-1.276, -2.927e-6
-1.275, -2.927e-6
-1.274, -2.927e-6
-1.273, -2.927e-6
-1.272, -2.927e-6
-1.271, -2.927e-6
-1.270, -2.927e-6
-1.269, -2.927e-6
-1.268, -2.927e-6
-1.267, -2.927e-6
-1.266, -6.010e-6
-1.265, -2.927e-6
-1.264, -6.010e-6
-1.263, -6.010e-6
-1.262, -2.927e-6
-1.261, -2.927e-6
-1.260, -6.010e-6
-1.259, -6.010e-6
-1.258, -2.927e-6
-1.257, -2.927e-6
-1.256, -2.927e-6
-1.255, -2.927e-6
-1.254, -6.010e-6
-1.253, -6.010e-6
-1.252, -6.010e-6
-1.251, -6.010e-6
-1.250, -2.927e-6
-1.249, -6.010e-6
-1.248, -6.010e-6
-1.247, -6.010e-6
-1.246, -2.927e-6
-1.245, -6.010e-6
-1.244, -6.010e-6
-1.243, -6.010e-6
-1.242, -6.010e-6
-1.241, -6.010e-6
-1.240, -2.927e-6
-1.239, -6.010e-6
-1.238, -6.010e-6
-1.237, -2.927e-6
-1.236, -2.927e-6
-1.235, -6.010e-6
-1.234, -6.010e-6
-1.233, -6.010e-6
-1.232, -6.010e-6
-1.231, -6.010e-6
-1.230, -6.010e-6
-1.229, -6.010e-6
-1.228, -6.010e-6
-1.227, -6.010e-6
-1.226, -6.010e-6
-1.225, -2.927e-6
-1.224, -6.010e-6
-1.223, -6.010e-6
-1.222, -6.010e-6
-1.221, -6.010e-6
-1.220, -6.010e-6
-1.219, -6.010e-6
-1.218, -6.010e-6
-1.217, -6.010e-6
-1.216, -6.010e-6
-1.215, -6.010e-6
-1.214, -6.010e-6
-1.213, -6.010e-6
-1.212, -6.010e-6
-1.211, -6.010e-6
-1.210, -6.010e-6
-1.209, -6.010e-6
-1.208, -6.010e-6
-1.207, -6.010e-6
-1.206, -6.010e-6
-1.205, -6.010e-6
-1.204, -6.010e-6
-1.203, -6.010e-6
-1.202, -6.010e-6
-1.201, -6.010e-6
-1.200, -6.010e-6
-1.199, -6.010e-6
-1.198, -6.010e-6
-1.197, -6.010e-6
-1.196, -6.010e-6
-1.195, -6.010e-6
-1.194, -6.010e-6
-1.193, -6.010e-6
-1.192, -6.010e-6
-1.191, -6.010e-6
-1.190, -6.010e-6
-1.189, -6.010e-6
-1.188, -6.010e-6
-1.187, -6.010e-6
-1.186, -6.010e-6
-1.185, -6.010e-6
-1.184, -6.010e-6
-1.183, -6.010e-6
-1.182, -6.010e-6
-1.181, -6.010e-6
-1.180, -6.010e-6
-1.179, -6.010e-6
-1.178, -6.010e-6
-1.177, -6.010e-6
-1.176, -6.010e-6
-1.175, -6.010e-6
-1.174, -6.010e-6
-1.173, -6.010e-6
-1.172, -6.010e-6
-1.171, -6.010e-6
-1.170, -6.010e-6
-1.169, -6.010e-6
-1.168, -6.010e-6
-1.167, -6.010e-6
-1.166, -6.010e-6
-1.165, -6.010e-6
-1.164, -6.010e-6
-1.163, -6.010e-6
-1.162, -6.010e-6
-1.161, -6.010e-6
-1.160, -6.010e-6
-1.159, -6.010e-6
-1.158, -6.010e-6
-1.157, -6.010e-6
-1.156, -6.010e-6
-1.155, -6.010e-6
-1.154, -6.010e-6
-1.153, -6.010e-6
-1.152, -6.010e-6
-1.151, -6.010e-6
-1.150, -6.010e-6
-1.149, -6.010e-6
-1.148, -6.010e-6
-1.147, -6.010e-6
-1.146, -6.010e-6
-1.145, -6.010e-6
-1.144, -6.010e-6
-1.143, -6.010e-6
-1.142, -6.010e-6
-1.141, -6.010e-6
-1.140, -6.010e-6
-1.139, -6.010e-6
-1.138, -6.010e-6
-1.137, -6.010e-6
-1.136, -6.010e-6
-1.135, -6.010e-6
-1.134, -6.010e-6
-1.133, -6.010e-6
-1.132, -6.010e-6
-1.131, -6.010e-6
-1.130, -6.010e-6
-1.129, -6.010e-6
-1.128, -6.010e-6
-1.127, -6.010e-6
-1.126, -6.010e-6
-1.125, -6.010e-6
-1.124, -6.010e-6
-1.123, -6.010e-6
-1.122, -6.010e-6
-1.121, -6.010e-6
-1.120, -6.010e-6
-1.119, -6.010e-6
-1.118, -6.010e-6
-1.117, -6.010e-6
-1.116, -6.010e-6
-1.115, -6.010e-6
-1.114, -6.010e-6
-1.113, -6.010e-6
-1.112, -6.010e-6
-1.111, -6.010e-6
-1.110, -6.010e-6
-1.109, -6.010e-6
-1.108, -6.010e-6
-1.107, -6.010e-6
-1.106, -6.010e-6
-1.105, -6.010e-6
-1.104, -6.010e-6
-1.103, -6.010e-6
-1.102, -6.010e-6
-1.101, -6.010e-6
-1.100, -6.010e-6
-1.099, -6.010e-6
-1.098, -6.010e-6
-1.097, -6.010e-6
-1.096, -6.010e-6
-1.095, -6.010e-6
-1.094, -6.010e-6
-1.093, -6.010e-6
-1.092, -6.010e-6
-1.091, -6.010e-6
-1.090, -6.010e-6
-1.089, -6.010e-6
-1.088, -6.010e-6
-1.087, -6.010e-6
-1.086, -9.093e-6
-1.085, -6.010e-6
-1.084, -6.010e-6
-1.083, -6.010e-6
-1.082, -6.010e-6
-1.081, -9.093e-6
-1.080, -6.010e-6
-1.079, -6.010e-6
-1.078, -6.010e-6
-1.077, -6.010e-6
-1.076, -6.010e-6
-1.075, -6.010e-6
-1.074, -9.093e-6
-1.073, -6.010e-6
-1.072, -9.093e-6
-1.071, -6.010e-6
-1.070, -6.010e-6
-1.069, -6.010e-6
-1.068, -9.093e-6
-1.067, -6.010e-6
-1.066, -9.093e-6
-1.065, -9.093e-6
-1.064, -6.010e-6
-1.063, -9.093e-6
-1.062, -9.093e-6
-1.061, -9.093e-6
-1.060, -6.010e-6
-1.059, -9.093e-6
-1.058, -6.010e-6
-1.057, -9.093e-6
-1.056, -6.010e-6
-1.055, -6.010e-6
-1.054, -9.093e-6
-1.053, -9.093e-6
-1.052, -6.010e-6
-1.051, -6.010e-6
-1.050, -6.010e-6
-1.049, -9.093e-6
-1.048, -9.093e-6
-1.047, -9.093e-6
-1.046, -9.093e-6
-1.045, -9.093e-6
-1.044, -6.010e-6
-1.043, -9.093e-6
-1.042, -9.093e-6
-1.041, -9.093e-6
-1.040, -9.093e-6
-1.039, -9.093e-6
-1.038, -9.093e-6
-1.037, -6.010e-6
-1.036, -9.093e-6
-1.035, -9.093e-6
-1.034, -9.093e-6
-1.033, -9.093e-6
-1.032, -9.093e-6
-1.031, -9.093e-6
-1.030, -9.093e-6
-1.029, -9.093e-6
-1.028, -9.093e-6
-1.027, -9.093e-6
-1.026, -9.093e-6
-1.025, -9.093e-6
-1.024, -9.093e-6
-1.023, -9.093e-6
-1.022, -9.093e-6
-1.021, -9.093e-6
-1.020, -9.093e-6
-1.019, -9.093e-6
-1.018, -9.093e-6
-1.017, -9.093e-6
-1.016, -9.093e-6
-1.015, -9.093e-6
-1.014, -9.093e-6
-1.013, -9.093e-6
-1.012, -9.093e-6
-1.011, -9.093e-6
-1.010, -9.093e-6
-1.009, -9.093e-6
-1.008, -9.093e-6
-1.007, -9.093e-6
-1.006, -9.093e-6
-1.005, -9.093e-6
-1.004, -9.093e-6
-1.003, -9.093e-6
-1.002, -9.093e-6
-1.001, -9.093e-6
