June 25, 2026   11:23:40
Cyclic Voltammetry
File: c:/users/guazh/data/20260623_doe_duplica2/2026-06-24-exp5\exp5-2026-06-25t10_53_10-h2koh\exp5_cv_sr_50mvs_efin_-2000mv.bin
Data Source:  Experiment
Instrument Model:  CHI760E
Header: CV ran at 50 mVs
Note: 

Init E (V) = -1
High E (V) = -1
Low E (V) = -2
Final E (V) = -1
Init P/N = N
Scan Rate (V/s) = 0.05
Segment = 3
Sample Interval (V) = 0.001
Quiet Time (sec) = 2
Sensitivity (A/V) = 0.01
Comp R (ohm) = 2.0

Results:

Channel 1:
Segment 1:

Segment 2:

Segment 3:

Potential/V, Current/A

-1.000, -3.406e-6
-1.001, -3.406e-6
-1.002, -3.307e-6
-1.003, -3.307e-6
-1.004, -3.208e-6
-1.005, -3.169e-6
-1.006, -3.149e-6
-1.007, -3.159e-6
-1.008, -3.070e-6
-1.009, -3.041e-6
-1.010, -3.110e-6
-1.011, -3.060e-6
-1.012, -2.922e-6
-1.013, -2.952e-6
-1.014, -2.893e-6
-1.015, -2.903e-6
-1.016, -2.962e-6
-1.017, -2.843e-6
-1.018, -2.814e-6
-1.019, -2.873e-6
-1.020, -2.814e-6
-1.021, -2.764e-6
-1.022, -2.705e-6
-1.023, -2.774e-6
-1.024, -2.725e-6
-1.025, -2.577e-6
-1.026, -2.656e-6
-1.027, -2.528e-6
-1.028, -2.528e-6
-1.029, -2.686e-6
-1.030, -2.508e-6
-1.031, -2.508e-6
-1.032, -2.409e-6
-1.033, -2.597e-6
-1.034, -2.567e-6
-1.035, -2.488e-6
-1.036, -2.508e-6
-1.037, -2.320e-6
-1.038, -2.459e-6
-1.039, -2.399e-6
-1.040, -2.370e-6
-1.041, -2.449e-6
-1.042, -2.429e-6
-1.043, -2.330e-6
-1.044, -2.360e-6
-1.045, -2.370e-6
-1.046, -2.370e-6
-1.047, -2.350e-6
-1.048, -2.311e-6
-1.049, -2.242e-6
-1.050, -2.281e-6
-1.051, -2.320e-6
-1.052, -2.222e-6
-1.053, -2.222e-6
-1.054, -2.182e-6
-1.055, -2.182e-6
-1.056, -2.301e-6
-1.057, -2.212e-6
-1.058, -2.192e-6
-1.059, -2.222e-6
-1.060, -2.153e-6
-1.061, -2.163e-6
-1.062, -2.103e-6
-1.063, -2.113e-6
-1.064, -1.985e-6
-1.065, -2.133e-6
-1.066, -2.143e-6
-1.067, -2.123e-6
-1.068, -2.103e-6
-1.069, -1.985e-6
-1.070, -2.163e-6
-1.071, -2.094e-6
-1.072, -2.015e-6
-1.073, -2.024e-6
-1.074, -2.044e-6
-1.075, -2.015e-6
-1.076, -1.936e-6
-1.077, -1.975e-6
-1.078, -1.995e-6
-1.079, -1.886e-6
-1.080, -1.906e-6
-1.081, -1.995e-6
-1.082, -1.946e-6
-1.083, -1.975e-6
-1.084, -1.936e-6
-1.085, -1.936e-6
-1.086, -1.965e-6
-1.087, -1.886e-6
-1.088, -1.916e-6
-1.089, -1.857e-6
-1.090, -1.857e-6
-1.091, -1.877e-6
-1.092, -1.798e-6
-1.093, -1.857e-6
-1.094, -1.817e-6
-1.095, -1.817e-6
-1.096, -1.827e-6
-1.097, -1.719e-6
-1.098, -1.916e-6
-1.099, -1.817e-6
-1.100, -1.857e-6
-1.101, -1.768e-6
-1.102, -1.679e-6
-1.103, -1.798e-6
-1.104, -1.699e-6
-1.105, -1.778e-6
-1.106, -1.798e-6
-1.107, -1.699e-6
-1.108, -1.709e-6
-1.109, -1.689e-6
-1.110, -1.847e-6
-1.111, -1.719e-6
-1.112, -1.709e-6
-1.113, -1.669e-6
-1.114, -1.630e-6
-1.115, -1.659e-6
-1.116, -1.699e-6
-1.117, -1.561e-6
-1.118, -1.679e-6
-1.119, -1.630e-6
-1.120, -1.689e-6
-1.121, -1.640e-6
-1.122, -1.571e-6
-1.123, -1.630e-6
-1.124, -1.571e-6
-1.125, -1.650e-6
-1.126, -1.561e-6
-1.127, -1.581e-6
-1.128, -1.551e-6
-1.129, -1.561e-6
-1.130, -1.581e-6
-1.131, -1.590e-6
-1.132, -1.521e-6
-1.133, -1.551e-6
-1.134, -1.511e-6
-1.135, -1.511e-6
-1.136, -1.590e-6
-1.137, -1.423e-6
-1.138, -1.600e-6
-1.139, -1.492e-6
-1.140, -1.531e-6
-1.141, -1.492e-6
-1.142, -1.502e-6
-1.143, -1.492e-6
-1.144, -1.561e-6
-1.145, -1.521e-6
-1.146, -1.482e-6
-1.147, -1.482e-6
-1.148, -1.482e-6
-1.149, -1.452e-6
-1.150, -1.561e-6
-1.151, -1.482e-6
-1.152, -1.462e-6
-1.153, -1.403e-6
-1.154, -1.383e-6
-1.155, -1.442e-6
-1.156, -1.363e-6
-1.157, -1.442e-6
-1.158, -1.502e-6
-1.159, -1.383e-6
-1.160, -1.452e-6
-1.161, -1.433e-6
-1.162, -1.314e-6
-1.163, -1.472e-6
-1.164, -1.373e-6
-1.165, -1.383e-6
-1.166, -1.403e-6
-1.167, -1.275e-6
-1.168, -1.285e-6
-1.169, -1.383e-6
-1.170, -1.403e-6
-1.171, -1.363e-6
-1.172, -1.285e-6
-1.173, -1.423e-6
-1.174, -1.265e-6
-1.175, -1.354e-6
-1.176, -1.334e-6
-1.177, -1.354e-6
-1.178, -1.285e-6
-1.179, -1.166e-6
-1.180, -1.294e-6
-1.181, -1.235e-6
-1.182, -1.186e-6
-1.183, -1.245e-6
-1.184, -1.206e-6
-1.185, -1.225e-6
-1.186, -1.373e-6
-1.187, -1.245e-6
-1.188, -1.255e-6
-1.189, -1.255e-6
-1.190, -1.206e-6
-1.191, -1.225e-6
-1.192, -1.225e-6
-1.193, -1.225e-6
-1.194, -1.028e-6
-1.195, -1.206e-6
-1.196, -1.275e-6
-1.197, -1.117e-6
-1.198, -1.166e-6
-1.199, -1.166e-6
-1.200, -1.146e-6
-1.201, -1.215e-6
-1.202, -1.137e-6
-1.203, -1.156e-6
-1.204, -1.067e-6
-1.205, -1.146e-6
-1.206, -1.087e-6
-1.207, -1.097e-6
-1.208, -1.166e-6
-1.209, -1.058e-6
-1.210, -1.097e-6
-1.211, -1.097e-6
-1.212, -1.058e-6
-1.213, -1.156e-6
-1.214, -1.048e-6
-1.215, -1.146e-6
-1.216, -1.028e-6
-1.217, -1.028e-6
-1.218, -1.058e-6
-1.219, -1.048e-6
-1.220, -1.137e-6
-1.221, -1.087e-6
-1.222, -1.087e-6
-1.223, -1.117e-6
-1.224, -1.018e-6
-1.225, -1.058e-6
-1.226, -1.008e-6
-1.227, -1.038e-6
-1.228, -1.077e-6
-1.229, -9.195e-7
-1.230, -8.899e-7
-1.231, -9.392e-7
-1.232, -9.590e-7
-1.233, -9.392e-7
-1.234, -9.195e-7
-1.235, -8.603e-7
-1.236, -8.603e-7
-1.237, -9.096e-7
-1.238, -8.800e-7
-1.239, -7.814e-7
-1.240, -8.603e-7
-1.241, -8.899e-7
-1.242, -8.110e-7
-1.243, -8.406e-7
-1.244, -8.603e-7
-1.245, -9.294e-7
-1.246, -9.294e-7
-1.247, -8.603e-7
-1.248, -7.715e-7
-1.249, -7.912e-7
-1.250, -7.814e-7
-1.251, -8.406e-7
-1.252, -8.603e-7
-1.253, -8.603e-7
-1.254, -7.518e-7
-1.255, -8.110e-7
-1.256, -7.321e-7
-1.257, -7.518e-7
-1.258, -8.011e-7
-1.259, -7.025e-7
-1.260, -8.504e-7
-1.261, -7.518e-7
-1.262, -6.926e-7
-1.263, -8.110e-7
-1.264, -7.419e-7
-1.265, -7.715e-7
-1.266, -6.926e-7
-1.267, -6.827e-7
-1.268, -7.025e-7
-1.269, -6.137e-7
-1.270, -6.729e-7
-1.271, -6.729e-7
-1.272, -6.038e-7
-1.273, -6.630e-7
-1.274, -6.729e-7
-1.275, -6.926e-7
-1.276, -6.334e-7
-1.277, -6.433e-7
-1.278, -7.025e-7
-1.279, -6.038e-7
-1.280, -6.137e-7
-1.281, -5.939e-7
-1.282, -5.446e-7
-1.283, -6.038e-7
-1.284, -5.643e-7
-1.285, -5.939e-7
-1.286, -5.051e-7
-1.287, -5.150e-7
-1.288, -5.939e-7
-1.289, -5.051e-7
-1.290, -5.841e-7
-1.291, -5.841e-7
-1.292, -4.657e-7
-1.293, -4.953e-7
-1.294, -5.051e-7
-1.295, -4.854e-7
-1.296, -4.262e-7
-1.297, -5.051e-7
-1.298, -5.347e-7
-1.299, -4.459e-7
-1.300, -4.953e-7
-1.301, -4.558e-7
-1.302, -4.459e-7
-1.303, -5.150e-7
-1.304, -4.361e-7
-1.305, -4.755e-7
-1.306, -3.078e-7
-1.307, -3.078e-7
-1.308, -4.262e-7
-1.309, -3.275e-7
-1.310, -3.670e-7
-1.311, -4.262e-7
-1.312, -2.684e-7
-1.313, -3.769e-7
-1.314, -3.473e-7
-1.315, -3.473e-7
-1.316, -3.275e-7
-1.317, -3.473e-7
-1.318, -2.782e-7
-1.319, -1.697e-7
-1.320, -2.486e-7
-1.321, -2.289e-7
-1.322, -3.275e-7
-1.323, -3.374e-7
-1.324, -2.092e-7
-1.325, -2.289e-7
-1.326, -2.486e-7
-1.327, -1.500e-7
-1.328, -2.782e-7
-1.329, -1.993e-7
-1.330, -2.388e-7
-1.331, -2.092e-7
-1.332, -7.103e-8
-1.333, -1.598e-7
-1.334, -1.204e-7
-1.335, -1.500e-7
-1.336, -1.105e-7
-1.337, -1.302e-7
-1.338, -8.090e-8
-1.339, -7.103e-8
-1.340, -5.130e-8
-1.341, -1.006e-7
-1.342, -1.204e-7
-1.343, -1.598e-7
-1.344, -1.184e-8
-1.345, -3.157e-8
-1.346, -4.144e-8
-1.347, 6.709e-8
-1.348, -1.184e-8
-1.349, 7.893e-9
-1.350, 7.893e-9
-1.351, 3.749e-8
-1.352, 4.736e-8
-1.353, 2.762e-8
-1.354, 1.164e-7
-1.355, 7.893e-9
-1.356, 5.722e-8
-1.357, 1.855e-7
-1.358, 1.362e-7
-1.359, 1.164e-7
-1.360, 1.559e-7
-1.361, 1.756e-7
-1.362, 1.460e-7
-1.363, 2.249e-7
-1.364, 1.657e-7
-1.365, 1.756e-7
-1.366, 2.151e-7
-1.367, 2.447e-7
-1.368, 1.953e-7
-1.369, 2.151e-7
-1.370, 1.460e-7
-1.371, 2.841e-7
-1.372, 2.447e-7
-1.373, 2.545e-7
-1.374, 2.447e-7
-1.375, 2.348e-7
-1.376, 3.828e-7
-1.377, 3.236e-7
-1.378, 2.644e-7
-1.379, 3.532e-7
-1.380, 2.743e-7
-1.381, 3.433e-7
-1.382, 4.716e-7
-1.383, 4.321e-7
-1.384, 5.407e-7
-1.385, 4.716e-7
-1.386, 5.209e-7
-1.387, 5.012e-7
-1.388, 5.308e-7
-1.389, 5.604e-7
-1.390, 5.407e-7
-1.391, 5.703e-7
-1.392, 5.308e-7
-1.393, 5.703e-7
-1.394, 5.900e-7
-1.395, 5.111e-7
-1.396, 6.492e-7
-1.397, 5.801e-7
-1.398, 6.985e-7
-1.399, 7.873e-7
-1.400, 6.492e-7
-1.401, 6.788e-7
-1.402, 7.380e-7
-1.403, 7.281e-7
-1.404, 8.366e-7
-1.405, 7.577e-7
-1.406, 7.182e-7
-1.407, 7.774e-7
-1.408, 8.465e-7
-1.409, 9.254e-7
-1.410, 8.564e-7
-1.411, 8.268e-7
-1.412, 9.254e-7
-1.413, 9.748e-7
-1.414, 1.004e-6
-1.415, 9.649e-7
-1.416, 9.945e-7
-1.417, 1.014e-6
-1.418, 1.004e-6
-1.419, 1.014e-6
-1.420, 1.064e-6
-1.421, 1.162e-6
-1.422, 1.073e-6
-1.423, 1.123e-6
-1.424, 1.113e-6
-1.425, 1.142e-6
-1.426, 1.192e-6
-1.427, 1.241e-6
-1.428, 1.281e-6
-1.429, 1.251e-6
-1.430, 1.241e-6
-1.431, 1.340e-6
-1.432, 1.330e-6
-1.433, 1.429e-6
-1.434, 1.438e-6
-1.435, 1.517e-6
-1.436, 1.616e-6
-1.437, 1.488e-6
-1.438, 1.675e-6
-1.439, 1.606e-6
-1.440, 1.695e-6
-1.441, 1.744e-6
-1.442, 1.695e-6
-1.443, 1.725e-6
-1.444, 1.794e-6
-1.445, 1.764e-6
-1.446, 1.882e-6
-1.447, 1.912e-6
-1.448, 1.892e-6
-1.449, 1.942e-6
-1.450, 2.011e-6
-1.451, 2.050e-6
-1.452, 2.011e-6
-1.453, 2.090e-6
-1.454, 2.188e-6
-1.455, 2.188e-6
-1.456, 2.188e-6
-1.457, 2.149e-6
-1.458, 2.257e-6
-1.459, 2.356e-6
-1.460, 2.366e-6
-1.461, 2.455e-6
-1.462, 2.455e-6
-1.463, 2.484e-6
-1.464, 2.524e-6
-1.465, 2.593e-6
-1.466, 2.701e-6
-1.467, 2.731e-6
-1.468, 2.652e-6
-1.469, 2.849e-6
-1.470, 2.810e-6
-1.471, 2.958e-6
-1.472, 2.938e-6
-1.473, 2.938e-6
-1.474, 3.056e-6
-1.475, 3.096e-6
-1.476, 3.145e-6
-1.477, 3.274e-6
-1.478, 3.165e-6
-1.479, 3.422e-6
-1.480, 3.422e-6
-1.481, 3.540e-6
-1.482, 3.491e-6
-1.483, 3.461e-6
-1.484, 3.668e-6
-1.485, 3.698e-6
-1.486, 3.856e-6
-1.487, 3.796e-6
-1.488, 3.875e-6
-1.489, 4.023e-6
-1.490, 3.964e-6
-1.491, 4.092e-6
-1.492, 4.221e-6
-1.493, 4.300e-6
-1.494, 4.329e-6
-1.495, 4.319e-6
-1.496, 4.467e-6
-1.497, 4.546e-6
-1.498, 4.694e-6
-1.499, 4.714e-6
-1.500, 4.852e-6
-1.501, 5.000e-6
-1.502, 5.040e-6
-1.503, 5.109e-6
-1.504, 5.217e-6
-1.505, 5.227e-6
-1.506, 5.414e-6
-1.507, 5.533e-6
-1.508, 5.602e-6
-1.509, 5.710e-6
-1.510, 5.750e-6
-1.511, 5.957e-6
-1.512, 6.016e-6
-1.513, 6.115e-6
-1.514, 6.293e-6
-1.515, 6.391e-6
-1.516, 6.431e-6
-1.517, 6.628e-6
-1.518, 6.727e-6
-1.519, 6.865e-6
-1.520, 6.963e-6
-1.521, 7.052e-6
-1.522, 7.190e-6
-1.523, 7.358e-6
-1.524, 7.457e-6
-1.525, 7.595e-6
-1.526, 7.772e-6
-1.527, 7.940e-6
-1.528, 8.029e-6
-1.529, 8.187e-6
-1.530, 8.384e-6
-1.531, 8.512e-6
-1.532, 8.670e-6
-1.533, 8.798e-6
-1.534, 8.946e-6
-1.535, 9.154e-6
-1.536, 9.430e-6
-1.537, 9.489e-6
-1.538, 9.706e-6
-1.539, 9.943e-6
-1.540, 1.010e-5
-1.541, 1.020e-5
-1.542, 1.046e-5
-1.543, 1.062e-5
-1.544, 1.075e-5
-1.545, 1.101e-5
-1.546, 1.127e-5
-1.547, 1.136e-5
-1.548, 1.164e-5
-1.549, 1.200e-5
-1.550, 1.209e-5
-1.551, 1.223e-5
-1.552, 1.250e-5
-1.553, 1.284e-5
-1.554, 1.301e-5
-1.555, 1.332e-5
-1.556, 1.355e-5
-1.557, 1.382e-5
-1.558, 1.406e-5
-1.559, 1.425e-5
-1.560, 1.453e-5
-1.561, 1.482e-5
-1.562, 1.507e-5
-1.563, 1.538e-5
-1.564, 1.567e-5
-1.565, 1.589e-5
-1.566, 1.628e-5
-1.567, 1.659e-5
-1.568, 1.688e-5
-1.569, 1.723e-5
-1.570, 1.756e-5
-1.571, 1.790e-5
-1.572, 1.825e-5
-1.573, 1.845e-5
-1.574, 1.883e-5
-1.575, 1.928e-5
-1.576, 1.961e-5
-1.577, 1.993e-5
-1.578, 2.033e-5
-1.579, 2.070e-5
-1.580, 2.107e-5
-1.581, 2.159e-5
-1.582, 2.187e-5
-1.583, 2.237e-5
-1.584, 2.261e-5
-1.585, 2.314e-5
-1.586, 2.356e-5
-1.587, 2.399e-5
-1.588, 2.450e-5
-1.589, 2.497e-5
-1.590, 2.551e-5
-1.591, 2.600e-5
-1.592, 2.645e-5
-1.593, 2.700e-5
-1.594, 2.747e-5
-1.595, 2.794e-5
-1.596, 2.854e-5
-1.597, 2.906e-5
-1.598, 2.955e-5
-1.599, 3.005e-5
-1.600, 3.069e-5
-1.601, 3.131e-5
-1.602, 3.182e-5
-1.603, 3.237e-5
-1.604, 3.305e-5
-1.605, 3.346e-5
-1.606, 3.431e-5
-1.607, 3.486e-5
-1.608, 3.551e-5
-1.609, 3.616e-5
-1.610, 3.688e-5
-1.611, 3.748e-5
-1.612, 3.813e-5
-1.613, 3.892e-5
-1.614, 3.964e-5
-1.615, 4.024e-5
-1.616, 4.110e-5
-1.617, 4.176e-5
-1.618, 4.257e-5
-1.619, 4.333e-5
-1.620, 4.403e-5
-1.621, 4.496e-5
-1.622, 4.567e-5
-1.623, 4.645e-5
-1.624, 4.731e-5
-1.625, 4.815e-5
-1.626, 4.916e-5
-1.627, 4.995e-5
-1.628, 5.092e-5
-1.629, 5.178e-5
-1.630, 5.276e-5
-1.631, 5.367e-5
-1.632, 5.457e-5
-1.633, 5.567e-5
-1.634, 5.659e-5
-1.635, 5.758e-5
-1.636, 5.865e-5
-1.637, 5.961e-5
-1.638, 6.087e-5
-1.639, 6.196e-5
-1.640, 6.305e-5
-1.641, 6.422e-5
-1.642, 6.533e-5
-1.643, 6.643e-5
-1.644, 6.759e-5
-1.645, 6.887e-5
-1.646, 7.005e-5
-1.647, 7.124e-5
-1.648, 7.254e-5
-1.649, 7.381e-5
-1.650, 7.508e-5
-1.651, 7.643e-5
-1.652, 7.776e-5
-1.653, 7.916e-5
-1.654, 8.056e-5
-1.655, 8.199e-5
-1.656, 8.337e-5
-1.657, 8.487e-5
-1.658, 8.640e-5
-1.659, 8.792e-5
-1.660, 8.938e-5
-1.661, 9.107e-5
-1.662, 9.254e-5
-1.663, 9.420e-5
-1.664, 9.592e-5
-1.665, 9.758e-5
-1.666, 9.943e-5
-1.667, 1.011e-4
-1.668, 1.029e-4
-1.669, 1.046e-4
-1.670, 1.065e-4
-1.671, 1.084e-4
-1.672, 1.102e-4
-1.673, 1.121e-4
-1.674, 1.140e-4
-1.675, 1.159e-4
-1.676, 1.179e-4
-1.677, 1.201e-4
-1.678, 1.222e-4
-1.679, 1.242e-4
-1.680, 1.264e-4
-1.681, 1.287e-4
-1.682, 1.308e-4
-1.683, 1.331e-4
-1.684, 1.354e-4
-1.685, 1.377e-4
-1.686, 1.401e-4
-1.687, 1.425e-4
-1.688, 1.449e-4
-1.689, 1.474e-4
-1.690, 1.500e-4
-1.691, 1.527e-4
-1.692, 1.554e-4
-1.693, 1.581e-4
-1.694, 1.607e-4
-1.695, 1.634e-4
-1.696, 1.663e-4
-1.697, 1.691e-4
-1.698, 1.721e-4
-1.699, 1.749e-4
-1.700, 1.779e-4
-1.701, 1.810e-4
-1.702, 1.841e-4
-1.703, 1.873e-4
-1.704, 1.904e-4
-1.705, 1.937e-4
-1.706, 1.970e-4
-1.707, 2.003e-4
-1.708, 2.038e-4
-1.709, 2.072e-4
-1.710, 2.107e-4
-1.711, 2.142e-4
-1.712, 2.178e-4
-1.713, 2.215e-4
-1.714, 2.251e-4
-1.715, 2.288e-4
-1.716, 2.328e-4
-1.717, 2.367e-4
-1.718, 2.407e-4
-1.719, 2.447e-4
-1.720, 2.487e-4
-1.721, 2.529e-4
-1.722, 2.573e-4
-1.723, 2.617e-4
-1.724, 2.660e-4
-1.725, 2.705e-4
-1.726, 2.751e-4
-1.727, 2.797e-4
-1.728, 2.844e-4
-1.729, 2.891e-4
-1.730, 2.939e-4
-1.731, 2.989e-4
-1.732, 3.040e-4
-1.733, 3.091e-4
-1.734, 3.143e-4
-1.735, 3.195e-4
-1.736, 3.247e-4
-1.737, 3.301e-4
-1.738, 3.358e-4
-1.739, 3.413e-4
-1.740, 3.469e-4
-1.741, 3.528e-4
-1.742, 3.586e-4
-1.743, 3.647e-4
-1.744, 3.708e-4
-1.745, 3.770e-4
-1.746, 3.832e-4
-1.747, 3.896e-4
-1.748, 3.961e-4
-1.749, 4.024e-4
-1.750, 4.091e-4
-1.751, 4.157e-4
-1.752, 4.223e-4
-1.753, 4.292e-4
-1.754, 4.363e-4
-1.755, 4.436e-4
-1.756, 4.510e-4
-1.757, 4.584e-4
-1.758, 4.659e-4
-1.759, 4.735e-4
-1.760, 4.814e-4
-1.761, 4.892e-4
-1.762, 4.972e-4
-1.763, 5.055e-4
-1.764, 5.138e-4
-1.765, 5.221e-4
-1.766, 5.307e-4
-1.767, 5.394e-4
-1.768, 5.483e-4
-1.769, 5.573e-4
-1.770, 5.663e-4
-1.771, 5.756e-4
-1.772, 5.849e-4
-1.773, 5.942e-4
-1.774, 6.038e-4
-1.775, 6.136e-4
-1.776, 6.233e-4
-1.777, 6.332e-4
-1.778, 6.435e-4
-1.779, 6.539e-4
-1.780, 6.645e-4
-1.781, 6.754e-4
-1.782, 6.861e-4
-1.783, 6.972e-4
-1.784, 7.081e-4
-1.785, 7.196e-4
-1.786, 7.309e-4
-1.787, 7.425e-4
-1.788, 7.543e-4
-1.789, 7.663e-4
-1.790, 7.785e-4
-1.791, 7.911e-4
-1.792, 8.038e-4
-1.793, 8.165e-4
-1.794, 8.296e-4
-1.795, 8.426e-4
-1.796, 8.561e-4
-1.797, 8.692e-4
-1.798, 8.830e-4
-1.799, 8.967e-4
-1.800, 9.108e-4
-1.801, 9.251e-4
-1.802, 9.391e-4
-1.803, 9.538e-4
-1.804, 9.685e-4
-1.805, 9.837e-4
-1.806, 9.987e-4
-1.807, 1.014e-3
-1.808, 1.029e-3
-1.809, 1.045e-3
-1.810, 1.061e-3
-1.811, 1.077e-3
-1.812, 1.093e-3
-1.813, 1.110e-3
-1.814, 1.127e-3
-1.815, 1.144e-3
-1.816, 1.161e-3
-1.817, 1.179e-3
-1.818, 1.196e-3
-1.819, 1.213e-3
-1.820, 1.231e-3
-1.821, 1.249e-3
-1.822, 1.267e-3
-1.823, 1.286e-3
-1.824, 1.306e-3
-1.825, 1.324e-3
-1.826, 1.344e-3
-1.827, 1.364e-3
-1.828, 1.384e-3
-1.829, 1.404e-3
-1.830, 1.424e-3
-1.831, 1.445e-3
-1.832, 1.465e-3
-1.833, 1.486e-3
-1.834, 1.508e-3
-1.835, 1.529e-3
-1.836, 1.551e-3
-1.837, 1.573e-3
-1.838, 1.596e-3
-1.839, 1.619e-3
-1.840, 1.642e-3
-1.841, 1.664e-3
-1.842, 1.687e-3
-1.843, 1.711e-3
-1.844, 1.734e-3
-1.845, 1.758e-3
-1.846, 1.782e-3
-1.847, 1.806e-3
-1.848, 1.830e-3
-1.849, 1.856e-3
-1.850, 1.880e-3
-1.851, 1.906e-3
-1.852, 1.932e-3
-1.853, 1.958e-3
-1.854, 1.984e-3
-1.855, 2.009e-3
-1.856, 2.035e-3
-1.857, 2.062e-3
-1.858, 2.089e-3
-1.859, 2.116e-3
-1.860, 2.143e-3
-1.861, 2.171e-3
-1.862, 2.199e-3
-1.863, 2.226e-3
-1.864, 2.254e-3
-1.865, 2.284e-3
-1.866, 2.312e-3
-1.867, 2.341e-3
-1.868, 2.370e-3
-1.869, 2.400e-3
-1.870, 2.430e-3
-1.871, 2.460e-3
-1.872, 2.490e-3
-1.873, 2.520e-3
-1.874, 2.550e-3
-1.875, 2.581e-3
-1.876, 2.612e-3
-1.877, 2.643e-3
-1.878, 2.675e-3
-1.879, 2.706e-3
-1.880, 2.738e-3
-1.881, 2.770e-3
-1.882, 2.801e-3
-1.883, 2.833e-3
-1.884, 2.867e-3
-1.885, 2.899e-3
-1.886, 2.931e-3
-1.887, 2.964e-3
-1.888, 2.998e-3
-1.889, 3.033e-3
-1.890, 3.067e-3
-1.891, 3.100e-3
-1.892, 3.134e-3
-1.893, 3.169e-3
-1.894, 3.205e-3
-1.895, 3.240e-3
-1.896, 3.274e-3
-1.897, 3.309e-3
-1.898, 3.344e-3
-1.899, 3.381e-3
-1.900, 3.418e-3
-1.901, 3.454e-3
-1.902, 3.490e-3
-1.903, 3.527e-3
-1.904, 3.564e-3
-1.905, 3.600e-3
-1.906, 3.635e-3
-1.907, 3.672e-3
-1.908, 3.710e-3
-1.909, 3.746e-3
-1.910, 3.786e-3
-1.911, 3.826e-3
-1.912, 3.866e-3
-1.913, 3.904e-3
-1.914, 3.939e-3
-1.915, 3.976e-3
-1.916, 4.014e-3
-1.917, 4.053e-3
-1.918, 4.092e-3
-1.919, 4.134e-3
-1.920, 4.173e-3
-1.921, 4.209e-3
-1.922, 4.246e-3
-1.923, 4.286e-3
-1.924, 4.326e-3
-1.925, 4.364e-3
-1.926, 4.405e-3
-1.927, 4.446e-3
-1.928, 4.485e-3
-1.929, 4.522e-3
-1.930, 4.559e-3
-1.931, 4.597e-3
-1.932, 4.636e-3
-1.933, 4.677e-3
-1.934, 4.721e-3
-1.935, 4.767e-3
-1.936, 4.807e-3
-1.937, 4.848e-3
-1.938, 4.886e-3
-1.939, 4.925e-3
-1.940, 4.963e-3
-1.941, 5.001e-3
-1.942, 5.044e-3
-1.943, 5.089e-3
-1.944, 5.128e-3
-1.945, 5.171e-3
-1.946, 5.216e-3
-1.947, 5.260e-3
-1.948, 5.303e-3
-1.949, 5.344e-3
-1.950, 5.393e-3
-1.951, 5.445e-3
-1.952, 5.500e-3
-1.953, 5.542e-3
-1.954, 5.583e-3
-1.955, 5.622e-3
-1.956, 5.666e-3
-1.957, 5.712e-3
-1.958, 5.759e-3
-1.959, 5.810e-3
-1.960, 5.857e-3
-1.961, 5.909e-3
-1.962, 5.957e-3
-1.963, 6.000e-3
-1.964, 6.045e-3
-1.965, 6.086e-3
-1.966, 6.130e-3
-1.967, 6.175e-3
-1.968, 6.218e-3
-1.969, 6.269e-3
-1.970, 6.317e-3
-1.971, 6.367e-3
-1.972, 6.409e-3
-1.973, 6.453e-3
-1.974, 6.501e-3
-1.975, 6.540e-3
-1.976, 6.582e-3
-1.977, 6.629e-3
-1.978, 6.679e-3
-1.979, 6.733e-3
-1.980, 6.773e-3
-1.981, 6.812e-3
-1.982, 6.857e-3
-1.983, 6.901e-3
-1.984, 6.937e-3
-1.985, 6.981e-3
-1.986, 7.034e-3
-1.987, 7.080e-3
-1.988, 7.116e-3
-1.989, 7.177e-3
-1.990, 7.227e-3
-1.991, 7.272e-3
-1.992, 7.321e-3
-1.993, 7.368e-3
-1.994, 7.410e-3
-1.995, 7.449e-3
-1.996, 7.478e-3
-1.997, 7.528e-3
-1.998, 7.587e-3
-1.999, 7.638e-3
-2.000, 7.653e-3
-1.999, 7.617e-3
-1.998, 7.569e-3
-1.997, 7.525e-3
-1.996, 7.479e-3
-1.995, 7.417e-3
-1.994, 7.358e-3
-1.993, 7.301e-3
-1.992, 7.256e-3
-1.991, 7.216e-3
-1.990, 7.160e-3
-1.989, 7.141e-3
-1.988, 7.099e-3
-1.987, 7.049e-3
-1.986, 6.997e-3
-1.985, 6.954e-3
-1.984, 6.922e-3
-1.983, 6.876e-3
-1.982, 6.842e-3
-1.981, 6.793e-3
-1.980, 6.738e-3
-1.979, 6.705e-3
-1.978, 6.673e-3
-1.977, 6.632e-3
-1.976, 6.624e-3
-1.975, 6.589e-3
-1.974, 6.548e-3
-1.973, 6.502e-3
-1.972, 6.461e-3
-1.971, 6.427e-3
-1.970, 6.393e-3
-1.969, 6.351e-3
-1.968, 6.314e-3
-1.967, 6.275e-3
-1.966, 6.219e-3
-1.965, 6.176e-3
-1.964, 6.125e-3
-1.963, 6.088e-3
-1.962, 6.053e-3
-1.961, 6.009e-3
-1.960, 5.991e-3
-1.959, 5.941e-3
-1.958, 5.887e-3
-1.957, 5.839e-3
-1.956, 5.797e-3
-1.955, 5.765e-3
-1.954, 5.720e-3
-1.953, 5.668e-3
-1.952, 5.611e-3
-1.951, 5.570e-3
-1.950, 5.536e-3
-1.949, 5.510e-3
-1.948, 5.475e-3
-1.947, 5.434e-3
-1.946, 5.379e-3
-1.945, 5.334e-3
-1.944, 5.307e-3
-1.943, 5.295e-3
-1.942, 5.253e-3
-1.941, 5.214e-3
-1.940, 5.183e-3
-1.939, 5.141e-3
-1.938, 5.096e-3
-1.937, 5.056e-3
-1.936, 5.017e-3
-1.935, 4.978e-3
-1.934, 4.951e-3
-1.933, 4.926e-3
-1.932, 4.900e-3
-1.931, 4.872e-3
-1.930, 4.834e-3
-1.929, 4.799e-3
-1.928, 4.768e-3
-1.927, 4.787e-3
-1.926, 4.753e-3
-1.925, 4.715e-3
-1.924, 4.681e-3
-1.923, 4.656e-3
-1.922, 4.635e-3
-1.921, 4.616e-3
-1.920, 4.583e-3
-1.919, 4.551e-3
-1.918, 4.523e-3
-1.917, 4.484e-3
-1.916, 4.446e-3
-1.915, 4.413e-3
-1.914, 4.384e-3
-1.913, 4.354e-3
-1.912, 4.319e-3
-1.911, 4.299e-3
-1.910, 4.278e-3
-1.909, 4.246e-3
-1.908, 4.227e-3
-1.907, 4.201e-3
-1.906, 4.166e-3
-1.905, 4.130e-3
-1.904, 4.090e-3
-1.903, 4.067e-3
-1.902, 4.040e-3
-1.901, 4.019e-3
-1.900, 3.993e-3
-1.899, 3.964e-3
-1.898, 3.932e-3
-1.897, 3.899e-3
-1.896, 3.863e-3
-1.895, 3.831e-3
-1.894, 3.801e-3
-1.893, 3.775e-3
-1.892, 3.745e-3
-1.891, 3.718e-3
-1.890, 3.692e-3
-1.889, 3.664e-3
-1.888, 3.633e-3
-1.887, 3.604e-3
-1.886, 3.576e-3
-1.885, 3.547e-3
-1.884, 3.520e-3
-1.883, 3.487e-3
-1.882, 3.460e-3
-1.881, 3.435e-3
-1.880, 3.406e-3
-1.879, 3.376e-3
-1.878, 3.345e-3
-1.877, 3.316e-3
-1.876, 3.284e-3
-1.875, 3.252e-3
-1.874, 3.227e-3
-1.873, 3.201e-3
-1.872, 3.172e-3
-1.871, 3.141e-3
-1.870, 3.106e-3
-1.869, 3.080e-3
-1.868, 3.052e-3
-1.867, 3.027e-3
-1.866, 2.999e-3
-1.865, 2.974e-3
-1.864, 2.951e-3
-1.863, 2.924e-3
-1.862, 2.899e-3
-1.861, 2.873e-3
-1.860, 2.848e-3
-1.859, 2.821e-3
-1.858, 2.796e-3
-1.857, 2.773e-3
-1.856, 2.745e-3
-1.855, 2.715e-3
-1.854, 2.691e-3
-1.853, 2.667e-3
-1.852, 2.640e-3
-1.851, 2.613e-3
-1.850, 2.588e-3
-1.849, 2.563e-3
-1.848, 2.537e-3
-1.847, 2.511e-3
-1.846, 2.486e-3
-1.845, 2.462e-3
-1.844, 2.436e-3
-1.843, 2.413e-3
-1.842, 2.388e-3
-1.841, 2.364e-3
-1.840, 2.343e-3
-1.839, 2.320e-3
-1.838, 2.296e-3
-1.837, 2.271e-3
-1.836, 2.247e-3
-1.835, 2.225e-3
-1.834, 2.202e-3
-1.833, 2.180e-3
-1.832, 2.158e-3
-1.831, 2.138e-3
-1.830, 2.115e-3
-1.829, 2.092e-3
-1.828, 2.070e-3
-1.827, 2.049e-3
-1.826, 2.027e-3
-1.825, 2.006e-3
-1.824, 1.985e-3
-1.823, 1.965e-3
-1.822, 1.943e-3
-1.821, 1.922e-3
-1.820, 1.902e-3
-1.819, 1.882e-3
-1.818, 1.862e-3
-1.817, 1.843e-3
-1.816, 1.823e-3
-1.815, 1.804e-3
-1.814, 1.785e-3
-1.813, 1.765e-3
-1.812, 1.746e-3
-1.811, 1.727e-3
-1.810, 1.708e-3
-1.809, 1.689e-3
-1.808, 1.670e-3
-1.807, 1.652e-3
-1.806, 1.634e-3
-1.805, 1.616e-3
-1.804, 1.597e-3
-1.803, 1.579e-3
-1.802, 1.561e-3
-1.801, 1.543e-3
-1.800, 1.526e-3
-1.799, 1.508e-3
-1.798, 1.491e-3
-1.797, 1.474e-3
-1.796, 1.457e-3
-1.795, 1.440e-3
-1.794, 1.423e-3
-1.793, 1.407e-3
-1.792, 1.390e-3
-1.791, 1.374e-3
-1.790, 1.358e-3
-1.789, 1.342e-3
-1.788, 1.327e-3
-1.787, 1.311e-3
-1.786, 1.295e-3
-1.785, 1.280e-3
-1.784, 1.264e-3
-1.783, 1.249e-3
-1.782, 1.234e-3
-1.781, 1.219e-3
-1.780, 1.205e-3
-1.779, 1.190e-3
-1.778, 1.177e-3
-1.777, 1.163e-3
-1.776, 1.148e-3
-1.775, 1.134e-3
-1.774, 1.120e-3
-1.773, 1.106e-3
-1.772, 1.093e-3
-1.771, 1.079e-3
-1.770, 1.066e-3
-1.769, 1.053e-3
-1.768, 1.039e-3
-1.767, 1.026e-3
-1.766, 1.015e-3
-1.765, 1.003e-3
-1.764, 9.910e-4
-1.763, 9.787e-4
-1.762, 9.665e-4
-1.761, 9.545e-4
-1.760, 9.424e-4
-1.759, 9.304e-4
-1.758, 9.185e-4
-1.757, 9.066e-4
-1.756, 8.948e-4
-1.755, 8.831e-4
-1.754, 8.718e-4
-1.753, 8.604e-4
-1.752, 8.493e-4
-1.751, 8.381e-4
-1.750, 8.272e-4
-1.749, 8.161e-4
-1.748, 8.052e-4
-1.747, 7.944e-4
-1.746, 7.836e-4
-1.745, 7.729e-4
-1.744, 7.626e-4
-1.743, 7.524e-4
-1.742, 7.421e-4
-1.741, 7.322e-4
-1.740, 7.225e-4
-1.739, 7.126e-4
-1.738, 7.027e-4
-1.737, 6.929e-4
-1.736, 6.836e-4
-1.735, 6.741e-4
-1.734, 6.647e-4
-1.733, 6.556e-4
-1.732, 6.466e-4
-1.731, 6.376e-4
-1.730, 6.285e-4
-1.729, 6.197e-4
-1.728, 6.112e-4
-1.727, 6.025e-4
-1.726, 5.940e-4
-1.725, 5.861e-4
-1.724, 5.777e-4
-1.723, 5.694e-4
-1.722, 5.611e-4
-1.721, 5.528e-4
-1.720, 5.452e-4
-1.719, 5.373e-4
-1.718, 5.296e-4
-1.717, 5.217e-4
-1.716, 5.139e-4
-1.715, 5.067e-4
-1.714, 4.994e-4
-1.713, 4.920e-4
-1.712, 4.846e-4
-1.711, 4.776e-4
-1.710, 4.707e-4
-1.709, 4.637e-4
-1.708, 4.568e-4
-1.707, 4.498e-4
-1.706, 4.432e-4
-1.705, 4.366e-4
-1.704, 4.301e-4
-1.703, 4.237e-4
-1.702, 4.173e-4
-1.701, 4.112e-4
-1.700, 4.051e-4
-1.699, 3.990e-4
-1.698, 3.930e-4
-1.697, 3.871e-4
-1.696, 3.811e-4
-1.695, 3.754e-4
-1.694, 3.694e-4
-1.693, 3.637e-4
-1.692, 3.581e-4
-1.691, 3.524e-4
-1.690, 3.471e-4
-1.689, 3.416e-4
-1.688, 3.363e-4
-1.687, 3.310e-4
-1.686, 3.259e-4
-1.685, 3.209e-4
-1.684, 3.159e-4
-1.683, 3.109e-4
-1.682, 3.058e-4
-1.681, 3.011e-4
-1.680, 2.963e-4
-1.679, 2.917e-4
-1.678, 2.871e-4
-1.677, 2.824e-4
-1.676, 2.778e-4
-1.675, 2.735e-4
-1.674, 2.690e-4
-1.673, 2.648e-4
-1.672, 2.605e-4
-1.671, 2.563e-4
-1.670, 2.522e-4
-1.669, 2.481e-4
-1.668, 2.441e-4
-1.667, 2.401e-4
-1.666, 2.363e-4
-1.665, 2.325e-4
-1.664, 2.286e-4
-1.663, 2.250e-4
-1.662, 2.212e-4
-1.661, 2.178e-4
-1.660, 2.143e-4
-1.659, 2.109e-4
-1.658, 2.074e-4
-1.657, 2.038e-4
-1.656, 2.005e-4
-1.655, 1.972e-4
-1.654, 1.939e-4
-1.653, 1.907e-4
-1.652, 1.875e-4
-1.651, 1.844e-4
-1.650, 1.813e-4
-1.649, 1.783e-4
-1.648, 1.753e-4
-1.647, 1.722e-4
-1.646, 1.694e-4
-1.645, 1.665e-4
-1.644, 1.637e-4
-1.643, 1.610e-4
-1.642, 1.583e-4
-1.641, 1.555e-4
-1.640, 1.529e-4
-1.639, 1.501e-4
-1.638, 1.474e-4
-1.637, 1.448e-4
-1.636, 1.425e-4
-1.635, 1.400e-4
-1.634, 1.375e-4
-1.633, 1.352e-4
-1.632, 1.328e-4
-1.631, 1.304e-4
-1.630, 1.283e-4
-1.629, 1.260e-4
-1.628, 1.239e-4
-1.627, 1.217e-4
-1.626, 1.195e-4
-1.625, 1.175e-4
-1.624, 1.154e-4
-1.623, 1.134e-4
-1.622, 1.114e-4
-1.621, 1.095e-4
-1.620, 1.076e-4
-1.619, 1.057e-4
-1.618, 1.039e-4
-1.617, 1.021e-4
-1.616, 1.002e-4
-1.615, 9.843e-5
-1.614, 9.664e-5
-1.613, 9.486e-5
-1.612, 9.302e-5
-1.611, 9.145e-5
-1.610, 8.979e-5
-1.609, 8.814e-5
-1.608, 8.667e-5
-1.607, 8.510e-5
-1.606, 8.348e-5
-1.605, 8.204e-5
-1.604, 8.044e-5
-1.603, 7.894e-5
-1.602, 7.759e-5
-1.601, 7.615e-5
-1.600, 7.472e-5
-1.599, 7.322e-5
-1.598, 7.195e-5
-1.597, 7.068e-5
-1.596, 6.943e-5
-1.595, 6.821e-5
-1.594, 6.689e-5
-1.593, 6.572e-5
-1.592, 6.449e-5
-1.591, 6.335e-5
-1.590, 6.210e-5
-1.589, 6.106e-5
-1.588, 5.984e-5
-1.587, 5.870e-5
-1.586, 5.763e-5
-1.585, 5.648e-5
-1.584, 5.534e-5
-1.583, 5.444e-5
-1.582, 5.339e-5
-1.581, 5.242e-5
-1.580, 5.130e-5
-1.579, 5.038e-5
-1.578, 4.946e-5
-1.577, 4.845e-5
-1.576, 4.755e-5
-1.575, 4.667e-5
-1.574, 4.573e-5
-1.573, 4.481e-5
-1.572, 4.394e-5
-1.571, 4.322e-5
-1.570, 4.232e-5
-1.569, 4.152e-5
-1.568, 4.067e-5
-1.567, 3.987e-5
-1.566, 3.910e-5
-1.565, 3.835e-5
-1.564, 3.756e-5
-1.563, 3.685e-5
-1.562, 3.604e-5
-1.561, 3.539e-5
-1.560, 3.469e-5
-1.559, 3.398e-5
-1.558, 3.334e-5
-1.557, 3.253e-5
-1.556, 3.195e-5
-1.555, 3.128e-5
-1.554, 3.062e-5
-1.553, 3.004e-5
-1.552, 2.944e-5
-1.551, 2.888e-5
-1.550, 2.819e-5
-1.549, 2.751e-5
-1.548, 2.702e-5
-1.547, 2.634e-5
-1.546, 2.583e-5
-1.545, 2.529e-5
-1.544, 2.475e-5
-1.543, 2.435e-5
-1.542, 2.361e-5
-1.541, 2.313e-5
-1.540, 2.266e-5
-1.539, 2.219e-5
-1.538, 2.176e-5
-1.537, 2.127e-5
-1.536, 2.071e-5
-1.535, 2.032e-5
-1.534, 1.980e-5
-1.533, 1.947e-5
-1.532, 1.889e-5
-1.531, 1.862e-5
-1.530, 1.814e-5
-1.529, 1.779e-5
-1.528, 1.741e-5
-1.527, 1.700e-5
-1.526, 1.653e-5
-1.525, 1.617e-5
-1.524, 1.580e-5
-1.523, 1.541e-5
-1.522, 1.506e-5
-1.521, 1.473e-5
-1.520, 1.442e-5
-1.519, 1.398e-5
-1.518, 1.376e-5
-1.517, 1.350e-5
-1.516, 1.312e-5
-1.515, 1.285e-5
-1.514, 1.258e-5
-1.513, 1.229e-5
-1.512, 1.199e-5
-1.511, 1.160e-5
-1.510, 1.131e-5
-1.509, 1.113e-5
-1.508, 1.089e-5
-1.507, 1.048e-5
-1.506, 1.031e-5
-1.505, 1.008e-5
-1.504, 9.746e-6
-1.503, 9.529e-6
-1.502, 9.213e-6
-1.501, 9.085e-6
-1.500, 8.818e-6
-1.499, 8.621e-6
-1.498, 8.384e-6
-1.497, 8.059e-6
-1.496, 7.980e-6
-1.495, 7.703e-6
-1.494, 7.486e-6
-1.493, 7.368e-6
-1.492, 7.151e-6
-1.491, 6.914e-6
-1.490, 6.727e-6
-1.489, 6.450e-6
-1.488, 6.401e-6
-1.487, 6.174e-6
-1.486, 6.105e-6
-1.485, 5.779e-6
-1.484, 5.631e-6
-1.483, 5.493e-6
-1.482, 5.266e-6
-1.481, 5.197e-6
-1.480, 4.911e-6
-1.479, 4.832e-6
-1.478, 4.744e-6
-1.477, 4.517e-6
-1.476, 4.448e-6
-1.475, 4.240e-6
-1.474, 4.171e-6
-1.473, 4.023e-6
-1.472, 3.727e-6
-1.471, 3.688e-6
-1.470, 3.599e-6
-1.469, 3.461e-6
-1.468, 3.323e-6
-1.467, 3.096e-6
-1.466, 3.066e-6
-1.465, 3.017e-6
-1.464, 2.889e-6
-1.463, 2.751e-6
-1.462, 2.583e-6
-1.461, 2.484e-6
-1.460, 2.386e-6
-1.459, 2.267e-6
-1.458, 2.149e-6
-1.457, 1.981e-6
-1.456, 1.971e-6
-1.455, 1.823e-6
-1.454, 1.764e-6
-1.453, 1.774e-6
-1.452, 1.626e-6
-1.451, 1.586e-6
-1.450, 1.330e-6
-1.449, 1.350e-6
-1.448, 1.310e-6
-1.447, 1.152e-6
-1.446, 1.113e-6
-1.445, 9.550e-7
-1.444, 8.860e-7
-1.443, 8.070e-7
-1.442, 7.873e-7
-1.441, 7.380e-7
-1.440, 6.097e-7
-1.439, 5.308e-7
-1.438, 5.308e-7
-1.437, 4.321e-7
-1.436, 4.025e-7
-1.435, 3.039e-7
-1.434, 9.669e-8
-1.433, 6.709e-8
-1.432, -2.171e-8
-1.431, -8.090e-8
-1.430, -1.598e-7
-1.429, -1.697e-7
-1.428, -1.993e-7
-1.427, -3.177e-7
-1.426, -3.177e-7
-1.425, -4.163e-7
-1.424, -4.262e-7
-1.423, -5.051e-7
-1.422, -5.150e-7
-1.421, -6.137e-7
-1.420, -7.025e-7
-1.419, -7.123e-7
-1.418, -8.110e-7
-1.417, -8.110e-7
-1.416, -7.814e-7
-1.415, -9.195e-7
-1.414, -9.688e-7
-1.413, -9.984e-7
-1.412, -1.077e-6
-1.411, -1.087e-6
-1.410, -1.137e-6
-1.409, -1.186e-6
-1.408, -1.265e-6
-1.407, -1.413e-6
-1.406, -1.363e-6
-1.405, -1.403e-6
-1.404, -1.354e-6
-1.403, -1.373e-6
-1.402, -1.521e-6
-1.401, -1.502e-6
-1.400, -1.511e-6
-1.399, -1.511e-6
-1.398, -1.650e-6
-1.397, -1.679e-6
-1.396, -1.640e-6
-1.395, -1.758e-6
-1.394, -1.788e-6
-1.393, -1.798e-6
-1.392, -1.827e-6
-1.391, -1.817e-6
-1.390, -1.827e-6
-1.389, -1.926e-6
-1.388, -1.837e-6
-1.387, -1.926e-6
-1.386, -1.995e-6
-1.385, -2.034e-6
-1.384, -1.955e-6
-1.383, -2.074e-6
-1.382, -2.143e-6
-1.381, -2.261e-6
-1.380, -2.202e-6
-1.379, -2.163e-6
-1.378, -2.222e-6
-1.377, -2.202e-6
-1.376, -2.320e-6
-1.375, -2.320e-6
-1.374, -2.320e-6
-1.373, -2.360e-6
-1.372, -2.330e-6
-1.371, -2.330e-6
-1.370, -2.399e-6
-1.369, -2.478e-6
-1.368, -2.459e-6
-1.367, -2.488e-6
-1.366, -2.459e-6
-1.365, -2.538e-6
-1.364, -2.449e-6
-1.363, -2.587e-6
-1.362, -2.528e-6
-1.361, -2.518e-6
-1.360, -2.607e-6
-1.359, -2.597e-6
-1.358, -2.656e-6
-1.357, -2.715e-6
-1.356, -2.784e-6
-1.355, -2.735e-6
-1.354, -2.686e-6
-1.353, -2.735e-6
-1.352, -2.784e-6
-1.351, -2.725e-6
-1.350, -2.883e-6
-1.349, -2.804e-6
-1.348, -2.853e-6
-1.347, -2.745e-6
-1.346, -2.834e-6
-1.345, -2.794e-6
-1.344, -2.932e-6
-1.343, -2.922e-6
-1.342, -2.893e-6
-1.341, -2.883e-6
-1.340, -2.981e-6
-1.339, -2.932e-6
-1.338, -2.991e-6
-1.337, -3.070e-6
-1.336, -2.922e-6
-1.335, -3.070e-6
-1.334, -3.031e-6
-1.333, -3.021e-6
-1.332, -3.080e-6
-1.331, -3.090e-6
-1.330, -3.199e-6
-1.329, -3.060e-6
-1.328, -3.149e-6
-1.327, -3.080e-6
-1.326, -3.090e-6
-1.325, -3.189e-6
-1.324, -3.189e-6
-1.323, -3.199e-6
-1.322, -3.139e-6
-1.321, -3.248e-6
-1.320, -3.277e-6
-1.319, -3.199e-6
-1.318, -3.248e-6
-1.317, -3.287e-6
-1.316, -3.317e-6
-1.315, -3.317e-6
-1.314, -3.238e-6
-1.313, -3.327e-6
-1.312, -3.386e-6
-1.311, -3.268e-6
-1.310, -3.376e-6
-1.309, -3.287e-6
-1.308, -3.307e-6
-1.307, -3.406e-6
-1.306, -3.366e-6
-1.305, -3.386e-6
-1.304, -3.297e-6
-1.303, -3.356e-6
-1.302, -3.514e-6
-1.301, -3.406e-6
-1.300, -3.416e-6
-1.299, -3.435e-6
-1.298, -3.465e-6
-1.297, -3.386e-6
-1.296, -3.396e-6
-1.295, -3.406e-6
-1.294, -3.435e-6
-1.293, -3.514e-6
-1.292, -3.524e-6
-1.291, -3.485e-6
-1.290, -3.504e-6
-1.289, -3.445e-6
-1.288, -3.465e-6
-1.287, -3.643e-6
-1.286, -3.495e-6
-1.285, -3.475e-6
-1.284, -3.554e-6
-1.283, -3.554e-6
-1.282, -3.504e-6
-1.281, -3.455e-6
-1.280, -3.712e-6
-1.279, -3.643e-6
-1.278, -3.652e-6
-1.277, -3.672e-6
-1.276, -3.554e-6
-1.275, -3.662e-6
-1.274, -3.652e-6
-1.273, -3.682e-6
-1.272, -3.573e-6
-1.271, -3.593e-6
-1.270, -3.712e-6
-1.269, -3.603e-6
-1.268, -3.623e-6
-1.267, -3.662e-6
-1.266, -3.652e-6
-1.265, -3.662e-6
-1.264, -3.603e-6
-1.263, -3.682e-6
-1.262, -3.751e-6
-1.261, -3.771e-6
-1.260, -3.633e-6
-1.259, -3.662e-6
-1.258, -3.672e-6
-1.257, -3.692e-6
-1.256, -3.702e-6
-1.255, -3.692e-6
-1.254, -3.702e-6
-1.253, -3.751e-6
-1.252, -3.741e-6
-1.251, -3.672e-6
-1.250, -3.731e-6
-1.249, -3.712e-6
-1.248, -3.860e-6
-1.247, -3.820e-6
-1.246, -3.741e-6
-1.245, -3.682e-6
-1.244, -3.761e-6
-1.243, -3.731e-6
-1.242, -3.889e-6
-1.241, -3.731e-6
-1.240, -3.889e-6
-1.239, -3.820e-6
-1.238, -3.840e-6
-1.237, -3.850e-6
-1.236, -3.820e-6
-1.235, -3.938e-6
-1.234, -3.781e-6
-1.233, -3.850e-6
-1.232, -3.899e-6
-1.231, -3.790e-6
-1.230, -3.850e-6
-1.229, -3.978e-6
-1.228, -3.968e-6
-1.227, -3.948e-6
-1.226, -3.968e-6
-1.225, -3.968e-6
-1.224, -3.899e-6
-1.223, -3.929e-6
-1.222, -4.047e-6
-1.221, -3.899e-6
-1.220, -3.958e-6
-1.219, -3.889e-6
-1.218, -4.027e-6
-1.217, -3.978e-6
-1.216, -4.027e-6
-1.215, -4.008e-6
-1.214, -3.958e-6
-1.213, -4.047e-6
-1.212, -4.136e-6
-1.211, -4.037e-6
-1.210, -4.017e-6
-1.209, -3.978e-6
-1.208, -4.047e-6
-1.207, -3.988e-6
-1.206, -3.958e-6
-1.205, -4.057e-6
-1.204, -3.968e-6
-1.203, -4.067e-6
-1.202, -4.077e-6
-1.201, -4.047e-6
-1.200, -4.086e-6
-1.199, -3.978e-6
-1.198, -4.156e-6
-1.197, -4.185e-6
-1.196, -4.047e-6
-1.195, -4.165e-6
-1.194, -4.096e-6
-1.193, -4.136e-6
-1.192, -4.037e-6
-1.191, -4.116e-6
-1.190, -4.205e-6
-1.189, -4.047e-6
-1.188, -4.067e-6
-1.187, -4.146e-6
-1.186, -4.185e-6
-1.185, -4.086e-6
-1.184, -4.008e-6
-1.183, -4.106e-6
-1.182, -4.215e-6
-1.181, -4.047e-6
-1.180, -4.195e-6
-1.179, -4.156e-6
-1.178, -4.264e-6
-1.177, -4.304e-6
-1.176, -4.264e-6
-1.175, -4.294e-6
-1.174, -4.136e-6
-1.173, -4.195e-6
-1.172, -4.264e-6
-1.171, -4.294e-6
-1.170, -4.313e-6
-1.169, -4.264e-6
-1.168, -4.225e-6
-1.167, -4.165e-6
-1.166, -4.264e-6
-1.165, -4.333e-6
-1.164, -4.323e-6
-1.163, -4.343e-6
-1.162, -4.304e-6
-1.161, -4.294e-6
-1.160, -4.412e-6
-1.159, -4.215e-6
-1.158, -4.313e-6
-1.157, -4.254e-6
-1.156, -4.234e-6
-1.155, -4.313e-6
-1.154, -4.294e-6
-1.153, -4.353e-6
-1.152, -4.353e-6
-1.151, -4.343e-6
-1.150, -4.442e-6
-1.149, -4.333e-6
-1.148, -4.442e-6
-1.147, -4.353e-6
-1.146, -4.432e-6
-1.145, -4.521e-6
-1.144, -4.294e-6
-1.143, -4.392e-6
-1.142, -4.491e-6
-1.141, -4.491e-6
-1.140, -4.412e-6
-1.139, -4.481e-6
-1.138, -4.471e-6
-1.137, -4.511e-6
-1.136, -4.521e-6
-1.135, -4.511e-6
-1.134, -4.452e-6
-1.133, -4.590e-6
-1.132, -4.511e-6
-1.131, -4.550e-6
-1.130, -4.511e-6
-1.129, -4.471e-6
-1.128, -4.501e-6
-1.127, -4.619e-6
-1.126, -4.580e-6
-1.125, -4.580e-6
-1.124, -4.570e-6
-1.123, -4.659e-6
-1.122, -4.590e-6
-1.121, -4.600e-6
-1.120, -4.609e-6
-1.119, -4.609e-6
-1.118, -4.688e-6
-1.117, -4.609e-6
-1.116, -4.639e-6
-1.115, -4.688e-6
-1.114, -4.688e-6
-1.113, -4.718e-6
-1.112, -4.747e-6
-1.111, -4.708e-6
-1.110, -4.787e-6
-1.109, -4.698e-6
-1.108, -4.817e-6
-1.107, -4.777e-6
-1.106, -4.767e-6
-1.105, -4.807e-6
-1.104, -4.866e-6
-1.103, -4.866e-6
-1.102, -4.807e-6
-1.101, -4.866e-6
-1.100, -4.915e-6
-1.099, -4.886e-6
-1.098, -4.945e-6
-1.097, -4.915e-6
-1.096, -4.856e-6
-1.095, -4.974e-6
-1.094, -4.925e-6
-1.093, -4.974e-6
-1.092, -5.014e-6
-1.091, -4.915e-6
-1.090, -4.945e-6
-1.089, -4.945e-6
-1.088, -5.103e-6
-1.087, -5.014e-6
-1.086, -5.024e-6
-1.085, -5.093e-6
-1.084, -5.103e-6
-1.083, -5.142e-6
-1.082, -5.083e-6
-1.081, -5.024e-6
-1.080, -5.132e-6
-1.079, -5.142e-6
-1.078, -5.113e-6
-1.077, -5.142e-6
-1.076, -5.132e-6
-1.075, -5.191e-6
-1.074, -5.270e-6
-1.073, -5.162e-6
-1.072, -5.270e-6
-1.071, -5.359e-6
-1.070, -5.270e-6
-1.069, -5.330e-6
-1.068, -5.339e-6
-1.067, -5.418e-6
-1.066, -5.418e-6
-1.065, -5.310e-6
-1.064, -5.339e-6
-1.063, -5.458e-6
-1.062, -5.448e-6
-1.061, -5.497e-6
-1.060, -5.428e-6
-1.059, -5.448e-6
-1.058, -5.497e-6
-1.057, -5.448e-6
-1.056, -5.616e-6
-1.055, -5.596e-6
-1.054, -5.537e-6
-1.053, -5.586e-6
-1.052, -5.566e-6
-1.051, -5.576e-6
-1.050, -5.606e-6
-1.049, -5.665e-6
-1.048, -5.665e-6
-1.047, -5.645e-6
-1.046, -5.774e-6
-1.045, -5.734e-6
-1.044, -5.685e-6
-1.043, -5.754e-6
-1.042, -5.744e-6
-1.041, -5.744e-6
-1.040, -5.734e-6
-1.039, -5.754e-6
-1.038, -5.793e-6
-1.037, -5.843e-6
-1.036, -5.774e-6
-1.035, -5.862e-6
-1.034, -5.744e-6
-1.033, -5.872e-6
-1.032, -5.774e-6
-1.031, -5.941e-6
-1.030, -5.961e-6
-1.029, -5.862e-6
-1.028, -5.813e-6
-1.027, -5.862e-6
-1.026, -5.931e-6
-1.025, -5.872e-6
-1.024, -5.951e-6
-1.023, -6.040e-6
-1.022, -5.951e-6
-1.021, -6.060e-6
-1.020, -6.020e-6
-1.019, -5.902e-6
-1.018, -6.050e-6
-1.017, -6.000e-6
-1.016, -5.981e-6
-1.015, -5.981e-6
-1.014, -5.981e-6
-1.013, -5.931e-6
-1.012, -5.922e-6
-1.011, -6.000e-6
-1.010, -6.070e-6
-1.009, -5.991e-6
-1.008, -5.981e-6
-1.007, -5.971e-6
-1.006, -5.912e-6
-1.005, -5.971e-6
-1.004, -5.922e-6
-1.003, -5.961e-6
-1.002, -5.951e-6
-1.001, -6.050e-6
