Sept. 7, 2024   16:47:06
Cyclic Voltammetry
File: c:/users/guazh/data/20240903_batch_252_500/2024-09-03-exp290\exp290-2024-09-07t16_30_36-h2koh\exp290_cv_50mvs_efin_-1700mv.bin
Data Source:  Experiment
Instrument Model:  CHI760E
Header: CV ran at 50 mVs
Note: 

Init E (V) = -1
High E (V) = -1
Low E (V) = -1.7
Final E (V) = -1
Init P/N = N
Scan Rate (V/s) = 0.05
Segment = 7
Sample Interval (V) = 0.001
Quiet Time (sec) = 60
Sensitivity (A/V) = 0.001
Comp R (ohm) = 2.0

Results:

Channel 1:
Segment 1:
Ep = -1.193V
ip = 3.201e-8A
Ah = 2.892e-7C

Segment 2:

Segment 3:

Segment 4:

Segment 5:

Segment 6:

Segment 7:

Potential/V, Current/A

-1.000, 5.878e-7
-1.001, 1.506e-6
-1.002, 2.065e-6
-1.003, 2.393e-6
-1.004, 2.653e-6
-1.005, 2.924e-6
-1.006, 3.124e-6
-1.007, 3.358e-6
-1.008, 3.525e-6
-1.009, 3.659e-6
-1.010, 3.815e-6
-1.011, 3.932e-6
-1.012, 4.102e-6
-1.013, 4.220e-6
-1.014, 4.276e-6
-1.015, 4.400e-6
-1.016, 4.481e-6
-1.017, 4.627e-6
-1.018, 4.727e-6
-1.019, 4.725e-6
-1.020, 4.879e-6
-1.021, 4.968e-6
-1.022, 5.072e-6
-1.023, 5.148e-6
-1.024, 5.194e-6
-1.025, 5.313e-6
-1.026, 5.329e-6
-1.027, 5.487e-6
-1.028, 5.577e-6
-1.029, 5.612e-6
-1.030, 5.675e-6
-1.031, 5.798e-6
-1.032, 5.878e-6
-1.033, 5.910e-6
-1.034, 5.982e-6
-1.035, 6.089e-6
-1.036, 6.182e-6
-1.037, 6.231e-6
-1.038, 6.294e-6
-1.039, 6.363e-6
-1.040, 6.432e-6
-1.041, 6.473e-6
-1.042, 6.557e-6
-1.043, 6.684e-6
-1.044, 6.743e-6
-1.045, 6.818e-6
-1.046, 6.861e-6
-1.047, 6.975e-6
-1.048, 7.035e-6
-1.049, 7.105e-6
-1.050, 7.189e-6
-1.051, 7.337e-6
-1.052, 7.489e-6
-1.053, 7.561e-6
-1.054, 7.497e-6
-1.055, 7.566e-6
-1.056, 7.626e-6
-1.057, 7.716e-6
-1.058, 7.818e-6
-1.059, 8.191e-6
-1.060, 8.266e-6
-1.061, 8.338e-6
-1.062, 8.404e-6
-1.063, 8.530e-6
-1.064, 8.591e-6
-1.065, 8.680e-6
-1.066, 8.760e-6
-1.067, 8.734e-6
-1.068, 8.780e-6
-1.069, 8.846e-6
-1.070, 8.900e-6
-1.071, 8.988e-6
-1.072, 9.094e-6
-1.073, 9.239e-6
-1.074, 9.283e-6
-1.075, 9.349e-6
-1.076, 9.491e-6
-1.077, 9.504e-6
-1.078, 9.569e-6
-1.079, 9.693e-6
-1.080, 9.709e-6
-1.081, 9.833e-6
-1.082, 9.894e-6
-1.083, 9.978e-6
-1.084, 9.982e-6
-1.085, 1.009e-5
-1.086, 1.033e-5
-1.087, 1.038e-5
-1.088, 1.039e-5
-1.089, 1.042e-5
-1.090, 1.049e-5
-1.091, 1.054e-5
-1.092, 1.065e-5
-1.093, 1.077e-5
-1.094, 1.084e-5
-1.095, 1.094e-5
-1.096, 1.104e-5
-1.097, 1.107e-5
-1.098, 1.118e-5
-1.099, 1.120e-5
-1.100, 1.129e-5
-1.101, 1.137e-5
-1.102, 1.141e-5
-1.103, 1.151e-5
-1.104, 1.157e-5
-1.105, 1.162e-5
-1.106, 1.168e-5
-1.107, 1.180e-5
-1.108, 1.194e-5
-1.109, 1.217e-5
-1.110, 1.226e-5
-1.111, 1.228e-5
-1.112, 1.237e-5
-1.113, 1.241e-5
-1.114, 1.245e-5
-1.115, 1.246e-5
-1.116, 1.254e-5
-1.117, 1.259e-5
-1.118, 1.260e-5
-1.119, 1.260e-5
-1.120, 1.249e-5
-1.121, 1.270e-5
-1.122, 1.278e-5
-1.123, 1.269e-5
-1.124, 1.268e-5
-1.125, 1.279e-5
-1.126, 1.281e-5
-1.127, 1.293e-5
-1.128, 1.297e-5
-1.129, 1.301e-5
-1.130, 1.304e-5
-1.131, 1.323e-5
-1.132, 1.340e-5
-1.133, 1.359e-5
-1.134, 1.362e-5
-1.135, 1.355e-5
-1.136, 1.372e-5
-1.137, 1.378e-5
-1.138, 1.383e-5
-1.139, 1.390e-5
-1.140, 1.403e-5
-1.141, 1.404e-5
-1.142, 1.407e-5
-1.143, 1.414e-5
-1.144, 1.417e-5
-1.145, 1.420e-5
-1.146, 1.435e-5
-1.147, 1.429e-5
-1.148, 1.423e-5
-1.149, 1.436e-5
-1.150, 1.444e-5
-1.151, 1.447e-5
-1.152, 1.465e-5
-1.153, 1.476e-5
-1.154, 1.487e-5
-1.155, 1.484e-5
-1.156, 1.489e-5
-1.157, 1.503e-5
-1.158, 1.505e-5
-1.159, 1.507e-5
-1.160, 1.509e-5
-1.161, 1.519e-5
-1.162, 1.530e-5
-1.163, 1.541e-5
-1.164, 1.554e-5
-1.165, 1.546e-5
-1.166, 1.546e-5
-1.167, 1.546e-5
-1.168, 1.553e-5
-1.169, 1.562e-5
-1.170, 1.563e-5
-1.171, 1.565e-5
-1.172, 1.576e-5
-1.173, 1.589e-5
-1.174, 1.591e-5
-1.175, 1.601e-5
-1.176, 1.605e-5
-1.177, 1.605e-5
-1.178, 1.623e-5
-1.179, 1.637e-5
-1.180, 1.651e-5
-1.181, 1.651e-5
-1.182, 1.656e-5
-1.183, 1.654e-5
-1.184, 1.653e-5
-1.185, 1.650e-5
-1.186, 1.655e-5
-1.187, 1.655e-5
-1.188, 1.661e-5
-1.189, 1.670e-5
-1.190, 1.677e-5
-1.191, 1.678e-5
-1.192, 1.680e-5
-1.193, 1.687e-5
-1.194, 1.689e-5
-1.195, 1.684e-5
-1.196, 1.685e-5
-1.197, 1.683e-5
-1.198, 1.693e-5
-1.199, 1.694e-5
-1.200, 1.690e-5
-1.201, 1.694e-5
-1.202, 1.701e-5
-1.203, 1.699e-5
-1.204, 1.702e-5
-1.205, 1.711e-5
-1.206, 1.709e-5
-1.207, 1.710e-5
-1.208, 1.714e-5
-1.209, 1.712e-5
-1.210, 1.719e-5
-1.211, 1.715e-5
-1.212, 1.714e-5
-1.213, 1.716e-5
-1.214, 1.710e-5
-1.215, 1.716e-5
-1.216, 1.709e-5
-1.217, 1.715e-5
-1.218, 1.708e-5
-1.219, 1.707e-5
-1.220, 1.713e-5
-1.221, 1.707e-5
-1.222, 1.701e-5
-1.223, 1.701e-5
-1.224, 1.691e-5
-1.225, 1.693e-5
-1.226, 1.680e-5
-1.227, 1.688e-5
-1.228, 1.699e-5
-1.229, 1.690e-5
-1.230, 1.684e-5
-1.231, 1.678e-5
-1.232, 1.690e-5
-1.233, 1.687e-5
-1.234, 1.679e-5
-1.235, 1.681e-5
-1.236, 1.671e-5
-1.237, 1.670e-5
-1.238, 1.674e-5
-1.239, 1.659e-5
-1.240, 1.656e-5
-1.241, 1.652e-5
-1.242, 1.661e-5
-1.243, 1.657e-5
-1.244, 1.661e-5
-1.245, 1.678e-5
-1.246, 1.678e-5
-1.247, 1.678e-5
-1.248, 1.664e-5
-1.249, 1.659e-5
-1.250, 1.661e-5
-1.251, 1.659e-5
-1.252, 1.660e-5
-1.253, 1.647e-5
-1.254, 1.660e-5
-1.255, 1.665e-5
-1.256, 1.660e-5
-1.257, 1.669e-5
-1.258, 1.671e-5
-1.259, 1.666e-5
-1.260, 1.673e-5
-1.261, 1.679e-5
-1.262, 1.679e-5
-1.263, 1.680e-5
-1.264, 1.677e-5
-1.265, 1.706e-5
-1.266, 1.701e-5
-1.267, 1.709e-5
-1.268, 1.708e-5
-1.269, 1.708e-5
-1.270, 1.690e-5
-1.271, 1.662e-5
-1.272, 1.682e-5
-1.273, 1.694e-5
-1.274, 1.702e-5
-1.275, 1.711e-5
-1.276, 1.728e-5
-1.277, 1.737e-5
-1.278, 1.747e-5
-1.279, 1.774e-5
-1.280, 1.747e-5
-1.281, 1.749e-5
-1.282, 1.774e-5
-1.283, 1.800e-5
-1.284, 1.796e-5
-1.285, 1.806e-5
-1.286, 1.820e-5
-1.287, 1.832e-5
-1.288, 1.839e-5
-1.289, 1.850e-5
-1.290, 1.863e-5
-1.291, 1.873e-5
-1.292, 1.882e-5
-1.293, 1.898e-5
-1.294, 1.911e-5
-1.295, 1.924e-5
-1.296, 1.947e-5
-1.297, 1.955e-5
-1.298, 1.974e-5
-1.299, 1.987e-5
-1.300, 2.005e-5
-1.301, 2.022e-5
-1.302, 2.032e-5
-1.303, 2.050e-5
-1.304, 2.057e-5
-1.305, 2.084e-5
-1.306, 2.091e-5
-1.307, 2.116e-5
-1.308, 2.146e-5
-1.309, 2.175e-5
-1.310, 2.191e-5
-1.311, 2.220e-5
-1.312, 2.232e-5
-1.313, 2.247e-5
-1.314, 2.272e-5
-1.315, 2.303e-5
-1.316, 2.323e-5
-1.317, 2.346e-5
-1.318, 2.378e-5
-1.319, 2.393e-5
-1.320, 2.435e-5
-1.321, 2.446e-5
-1.322, 2.492e-5
-1.323, 2.498e-5
-1.324, 2.524e-5
-1.325, 2.557e-5
-1.326, 2.579e-5
-1.327, 2.613e-5
-1.328, 2.635e-5
-1.329, 2.667e-5
-1.330, 2.685e-5
-1.331, 2.726e-5
-1.332, 2.754e-5
-1.333, 2.783e-5
-1.334, 2.811e-5
-1.335, 2.864e-5
-1.336, 2.890e-5
-1.337, 2.916e-5
-1.338, 2.942e-5
-1.339, 2.981e-5
-1.340, 3.013e-5
-1.341, 3.051e-5
-1.342, 3.079e-5
-1.343, 3.111e-5
-1.344, 3.144e-5
-1.345, 3.174e-5
-1.346, 3.218e-5
-1.347, 3.255e-5
-1.348, 3.278e-5
-1.349, 3.300e-5
-1.350, 3.347e-5
-1.351, 3.382e-5
-1.352, 3.425e-5
-1.353, 3.474e-5
-1.354, 3.510e-5
-1.355, 3.547e-5
-1.356, 3.587e-5
-1.357, 3.632e-5
-1.358, 3.679e-5
-1.359, 3.720e-5
-1.360, 3.771e-5
-1.361, 3.831e-5
-1.362, 3.866e-5
-1.363, 3.887e-5
-1.364, 3.933e-5
-1.365, 3.989e-5
-1.366, 4.039e-5
-1.367, 4.080e-5
-1.368, 4.110e-5
-1.369, 4.183e-5
-1.370, 4.204e-5
-1.371, 4.279e-5
-1.372, 4.320e-5
-1.373, 4.363e-5
-1.374, 4.405e-5
-1.375, 4.447e-5
-1.376, 4.515e-5
-1.377, 4.564e-5
-1.378, 4.595e-5
-1.379, 4.676e-5
-1.380, 4.721e-5
-1.381, 4.767e-5
-1.382, 4.811e-5
-1.383, 4.871e-5
-1.384, 4.926e-5
-1.385, 4.998e-5
-1.386, 5.053e-5
-1.387, 5.110e-5
-1.388, 5.150e-5
-1.389, 5.224e-5
-1.390, 5.268e-5
-1.391, 5.409e-5
-1.392, 5.605e-5
-1.393, 5.748e-5
-1.394, 5.753e-5
-1.395, 5.719e-5
-1.396, 5.733e-5
-1.397, 5.822e-5
-1.398, 5.930e-5
-1.399, 6.012e-5
-1.400, 6.089e-5
-1.401, 6.139e-5
-1.402, 6.222e-5
-1.403, 6.227e-5
-1.404, 6.300e-5
-1.405, 6.358e-5
-1.406, 6.403e-5
-1.407, 6.558e-5
-1.408, 6.540e-5
-1.409, 6.606e-5
-1.410, 6.706e-5
-1.411, 6.787e-5
-1.412, 6.827e-5
-1.413, 6.890e-5
-1.414, 6.980e-5
-1.415, 7.026e-5
-1.416, 7.146e-5
-1.417, 7.162e-5
-1.418, 7.243e-5
-1.419, 7.353e-5
-1.420, 7.425e-5
-1.421, 7.492e-5
-1.422, 7.547e-5
-1.423, 7.692e-5
-1.424, 7.658e-5
-1.425, 7.766e-5
-1.426, 7.879e-5
-1.427, 7.990e-5
-1.428, 8.031e-5
-1.429, 8.072e-5
-1.430, 8.142e-5
-1.431, 8.197e-5
-1.432, 8.276e-5
-1.433, 8.405e-5
-1.434, 8.498e-5
-1.435, 8.586e-5
-1.436, 8.678e-5
-1.437, 8.643e-5
-1.438, 8.799e-5
-1.439, 8.884e-5
-1.440, 9.016e-5
-1.441, 9.121e-5
-1.442, 9.179e-5
-1.443, 9.126e-5
-1.444, 9.286e-5
-1.445, 9.499e-5
-1.446, 9.467e-5
-1.447, 9.634e-5
-1.448, 9.711e-5
-1.449, 9.702e-5
-1.450, 9.857e-5
-1.451, 9.927e-5
-1.452, 1.002e-4
-1.453, 1.016e-4
-1.454, 1.027e-4
-1.455, 1.036e-4
-1.456, 1.049e-4
-1.457, 1.057e-4
-1.458, 1.060e-4
-1.459, 1.055e-4
-1.460, 1.070e-4
-1.461, 1.076e-4
-1.462, 1.091e-4
-1.463, 1.110e-4
-1.464, 1.121e-4
-1.465, 1.122e-4
-1.466, 1.134e-4
-1.467, 1.136e-4
-1.468, 1.151e-4
-1.469, 1.152e-4
-1.470, 1.166e-4
-1.471, 1.175e-4
-1.472, 1.206e-4
-1.473, 1.209e-4
-1.474, 1.213e-4
-1.475, 1.223e-4
-1.476, 1.243e-4
-1.477, 1.257e-4
-1.478, 1.248e-4
-1.479, 1.253e-4
-1.480, 1.261e-4
-1.481, 1.285e-4
-1.482, 1.291e-4
-1.483, 1.310e-4
-1.484, 1.311e-4
-1.485, 1.326e-4
-1.486, 1.339e-4
-1.487, 1.342e-4
-1.488, 1.358e-4
-1.489, 1.377e-4
-1.490, 1.378e-4
-1.491, 1.385e-4
-1.492, 1.393e-4
-1.493, 1.405e-4
-1.494, 1.421e-4
-1.495, 1.424e-4
-1.496, 1.443e-4
-1.497, 1.452e-4
-1.498, 1.458e-4
-1.499, 1.469e-4
-1.500, 1.483e-4
-1.501, 1.487e-4
-1.502, 1.483e-4
-1.503, 1.508e-4
-1.504, 1.515e-4
-1.505, 1.515e-4
-1.506, 1.534e-4
-1.507, 1.547e-4
-1.508, 1.555e-4
-1.509, 1.566e-4
-1.510, 1.565e-4
-1.511, 1.571e-4
-1.512, 1.586e-4
-1.513, 1.588e-4
-1.514, 1.608e-4
-1.515, 1.630e-4
-1.516, 1.633e-4
-1.517, 1.638e-4
-1.518, 1.629e-4
-1.519, 1.649e-4
-1.520, 1.662e-4
-1.521, 1.668e-4
-1.522, 1.690e-4
-1.523, 1.695e-4
-1.524, 1.718e-4
-1.525, 1.717e-4
-1.526, 1.711e-4
-1.527, 1.734e-4
-1.528, 1.753e-4
-1.529, 1.767e-4
-1.530, 1.788e-4
-1.531, 1.793e-4
-1.532, 1.804e-4
-1.533, 1.831e-4
-1.534, 1.840e-4
-1.535, 1.845e-4
-1.536, 1.874e-4
-1.537, 1.876e-4
-1.538, 1.861e-4
-1.539, 1.882e-4
-1.540, 1.883e-4
-1.541, 1.891e-4
-1.542, 1.928e-4
-1.543, 1.926e-4
-1.544, 1.958e-4
-1.545, 1.972e-4
-1.546, 1.994e-4
-1.547, 1.996e-4
-1.548, 2.015e-4
-1.549, 2.036e-4
-1.550, 2.053e-4
-1.551, 2.071e-4
-1.552, 2.083e-4
-1.553, 2.094e-4
-1.554, 2.088e-4
-1.555, 2.079e-4
-1.556, 2.132e-4
-1.557, 2.157e-4
-1.558, 2.177e-4
-1.559, 2.197e-4
-1.560, 2.208e-4
-1.561, 2.224e-4
-1.562, 2.220e-4
-1.563, 2.212e-4
-1.564, 2.224e-4
-1.565, 2.256e-4
-1.566, 2.259e-4
-1.567, 2.288e-4
-1.568, 2.290e-4
-1.569, 2.310e-4
-1.570, 2.348e-4
-1.571, 2.323e-4
-1.572, 2.350e-4
-1.573, 2.345e-4
-1.574, 2.373e-4
-1.575, 2.372e-4
-1.576, 2.395e-4
-1.577, 2.402e-4
-1.578, 2.417e-4
-1.579, 2.443e-4
-1.580, 2.455e-4
-1.581, 2.488e-4
-1.582, 2.459e-4
-1.583, 2.512e-4
-1.584, 2.510e-4
-1.585, 2.569e-4
-1.586, 2.592e-4
-1.587, 2.618e-4
-1.588, 2.646e-4
-1.589, 2.632e-4
-1.590, 2.686e-4
-1.591, 2.678e-4
-1.592, 2.743e-4
-1.593, 2.734e-4
-1.594, 2.779e-4
-1.595, 2.761e-4
-1.596, 2.809e-4
-1.597, 2.798e-4
-1.598, 2.814e-4
-1.599, 2.820e-4
-1.600, 2.815e-4
-1.601, 2.884e-4
-1.602, 2.952e-4
-1.603, 2.960e-4
-1.604, 3.002e-4
-1.605, 3.006e-4
-1.606, 3.045e-4
-1.607, 3.062e-4
-1.608, 3.106e-4
-1.609, 3.130e-4
-1.610, 3.138e-4
-1.611, 3.175e-4
-1.612, 3.198e-4
-1.613, 3.246e-4
-1.614, 3.272e-4
-1.615, 3.321e-4
-1.616, 3.349e-4
-1.617, 3.381e-4
-1.618, 3.389e-4
-1.619, 3.423e-4
-1.620, 3.422e-4
-1.621, 3.476e-4
-1.622, 3.487e-4
-1.623, 3.517e-4
-1.624, 3.513e-4
-1.625, 3.576e-4
-1.626, 3.577e-4
-1.627, 3.618e-4
-1.628, 3.651e-4
-1.629, 3.710e-4
-1.630, 3.733e-4
-1.631, 3.769e-4
-1.632, 3.820e-4
-1.633, 3.831e-4
-1.634, 3.866e-4
-1.635, 3.883e-4
-1.636, 3.896e-4
-1.637, 3.966e-4
-1.638, 4.013e-4
-1.639, 4.044e-4
-1.640, 4.083e-4
-1.641, 4.158e-4
-1.642, 4.185e-4
-1.643, 4.277e-4
-1.644, 4.246e-4
-1.645, 4.282e-4
-1.646, 4.293e-4
-1.647, 4.345e-4
-1.648, 4.430e-4
-1.649, 4.596e-4
-1.650, 4.645e-4
-1.651, 4.716e-4
-1.652, 4.781e-4
-1.653, 4.834e-4
-1.654, 4.919e-4
-1.655, 4.961e-4
-1.656, 4.993e-4
-1.657, 5.016e-4
-1.658, 5.093e-4
-1.659, 5.148e-4
-1.660, 5.226e-4
-1.661, 5.296e-4
-1.662, 5.380e-4
-1.663, 5.449e-4
-1.664, 5.486e-4
-1.665, 5.555e-4
-1.666, 5.659e-4
-1.667, 5.753e-4
-1.668, 5.868e-4
-1.669, 5.968e-4
-1.670, 6.061e-4
-1.671, 6.160e-4
-1.672, 6.225e-4
-1.673, 6.325e-4
-1.674, 6.451e-4
-1.675, 6.552e-4
-1.676, 6.712e-4
-1.677, 6.755e-4
-1.678, 6.759e-4
-1.679, 6.907e-4
-1.680, 6.969e-4
-1.681, 7.095e-4
-1.682, 7.188e-4
-1.683, 7.337e-4
-1.684, 7.482e-4
-1.685, 7.553e-4
-1.686, 7.656e-4
-1.687, 7.831e-4
-1.688, 7.964e-4
-1.689, 8.128e-4
-1.690, 8.196e-4
-1.691, 8.287e-4
-1.692, 8.352e-4
-1.693, 8.609e-4
-1.694, 8.652e-4
-1.695, 8.994e-4
-1.696, 9.050e-4
-1.697, 9.194e-4
-1.698, 9.416e-4
-1.699, 9.472e-4
-1.700, 9.365e-4
-1.699, 9.150e-4
-1.698, 9.027e-4
-1.697, 8.855e-4
-1.696, 8.714e-4
-1.695, 8.579e-4
-1.694, 8.446e-4
-1.693, 8.412e-4
-1.692, 8.288e-4
-1.691, 8.169e-4
-1.690, 8.049e-4
-1.689, 7.902e-4
-1.688, 7.740e-4
-1.687, 7.605e-4
-1.686, 7.440e-4
-1.685, 7.316e-4
-1.684, 7.158e-4
-1.683, 7.002e-4
-1.682, 6.868e-4
-1.681, 6.763e-4
-1.680, 6.675e-4
-1.679, 6.565e-4
-1.678, 6.484e-4
-1.677, 6.342e-4
-1.676, 6.176e-4
-1.675, 5.997e-4
-1.674, 5.761e-4
-1.673, 5.705e-4
-1.672, 5.588e-4
-1.671, 5.445e-4
-1.670, 5.315e-4
-1.669, 5.256e-4
-1.668, 5.168e-4
-1.667, 5.325e-4
-1.666, 5.081e-4
-1.665, 4.967e-4
-1.664, 4.818e-4
-1.663, 4.903e-4
-1.662, 4.611e-4
-1.661, 4.503e-4
-1.660, 4.463e-4
-1.659, 4.423e-4
-1.658, 4.263e-4
-1.657, 4.193e-4
-1.656, 4.162e-4
-1.655, 4.092e-4
-1.654, 4.005e-4
-1.653, 3.942e-4
-1.652, 3.892e-4
-1.651, 3.833e-4
-1.650, 3.735e-4
-1.649, 3.694e-4
-1.648, 3.604e-4
-1.647, 3.556e-4
-1.646, 3.449e-4
-1.645, 3.413e-4
-1.644, 3.321e-4
-1.643, 3.328e-4
-1.642, 3.294e-4
-1.641, 3.233e-4
-1.640, 3.188e-4
-1.639, 3.074e-4
-1.638, 3.031e-4
-1.637, 2.993e-4
-1.636, 2.955e-4
-1.635, 2.923e-4
-1.634, 2.898e-4
-1.633, 2.792e-4
-1.632, 2.766e-4
-1.631, 2.698e-4
-1.630, 2.700e-4
-1.629, 2.613e-4
-1.628, 2.596e-4
-1.627, 2.543e-4
-1.626, 2.436e-4
-1.625, 2.382e-4
-1.624, 2.331e-4
-1.623, 2.307e-4
-1.622, 2.273e-4
-1.621, 2.267e-4
-1.620, 2.237e-4
-1.619, 2.199e-4
-1.618, 2.176e-4
-1.617, 2.161e-4
-1.616, 2.115e-4
-1.615, 2.087e-4
-1.614, 2.038e-4
-1.613, 2.006e-4
-1.612, 2.034e-4
-1.611, 1.974e-4
-1.610, 1.963e-4
-1.609, 1.959e-4
-1.608, 1.908e-4
-1.607, 1.875e-4
-1.606, 1.884e-4
-1.605, 1.831e-4
-1.604, 1.801e-4
-1.603, 1.773e-4
-1.602, 1.732e-4
-1.601, 1.710e-4
-1.600, 1.686e-4
-1.599, 1.667e-4
-1.598, 1.646e-4
-1.597, 1.660e-4
-1.596, 1.618e-4
-1.595, 1.610e-4
-1.594, 1.587e-4
-1.593, 1.571e-4
-1.592, 1.536e-4
-1.591, 1.500e-4
-1.590, 1.493e-4
-1.589, 1.488e-4
-1.588, 1.404e-4
-1.587, 1.374e-4
-1.586, 1.388e-4
-1.585, 1.352e-4
-1.584, 1.325e-4
-1.583, 1.302e-4
-1.582, 1.294e-4
-1.581, 1.309e-4
-1.580, 1.266e-4
-1.579, 1.243e-4
-1.578, 1.239e-4
-1.577, 1.253e-4
-1.576, 1.238e-4
-1.575, 1.219e-4
-1.574, 1.222e-4
-1.573, 1.177e-4
-1.572, 1.171e-4
-1.571, 1.148e-4
-1.570, 1.145e-4
-1.569, 1.111e-4
-1.568, 1.030e-4
-1.567, 1.028e-4
-1.566, 9.812e-5
-1.565, 9.759e-5
-1.564, 9.724e-5
-1.563, 9.909e-5
-1.562, 9.694e-5
-1.561, 9.708e-5
-1.560, 9.197e-5
-1.559, 9.043e-5
-1.558, 9.216e-5
-1.557, 8.914e-5
-1.556, 8.803e-5
-1.555, 8.787e-5
-1.554, 8.311e-5
-1.553, 8.924e-5
-1.552, 8.665e-5
-1.551, 8.248e-5
-1.550, 8.292e-5
-1.549, 8.410e-5
-1.548, 8.328e-5
-1.547, 8.198e-5
-1.546, 7.835e-5
-1.545, 7.842e-5
-1.544, 7.774e-5
-1.543, 7.736e-5
-1.542, 7.756e-5
-1.541, 7.701e-5
-1.540, 7.353e-5
-1.539, 7.292e-5
-1.538, 7.193e-5
-1.537, 7.151e-5
-1.536, 7.120e-5
-1.535, 7.128e-5
-1.534, 7.060e-5
-1.533, 6.798e-5
-1.532, 6.705e-5
-1.531, 6.780e-5
-1.530, 6.676e-5
-1.529, 6.581e-5
-1.528, 6.567e-5
-1.527, 6.590e-5
-1.526, 6.300e-5
-1.525, 6.181e-5
-1.524, 6.172e-5
-1.523, 6.029e-5
-1.522, 5.938e-5
-1.521, 6.033e-5
-1.520, 6.064e-5
-1.519, 5.934e-5
-1.518, 5.859e-5
-1.517, 5.702e-5
-1.516, 5.677e-5
-1.515, 5.712e-5
-1.514, 5.584e-5
-1.513, 5.563e-5
-1.512, 5.632e-5
-1.511, 5.400e-5
-1.510, 5.300e-5
-1.509, 5.270e-5
-1.508, 5.210e-5
-1.507, 5.130e-5
-1.506, 5.057e-5
-1.505, 4.947e-5
-1.504, 5.029e-5
-1.503, 4.809e-5
-1.502, 4.654e-5
-1.501, 4.670e-5
-1.500, 4.688e-5
-1.499, 4.646e-5
-1.498, 4.593e-5
-1.497, 4.522e-5
-1.496, 4.467e-5
-1.495, 4.567e-5
-1.494, 4.576e-5
-1.493, 4.355e-5
-1.492, 4.314e-5
-1.491, 4.260e-5
-1.490, 4.174e-5
-1.489, 4.142e-5
-1.488, 4.113e-5
-1.487, 4.144e-5
-1.486, 4.177e-5
-1.485, 4.157e-5
-1.484, 3.879e-5
-1.483, 3.862e-5
-1.482, 3.856e-5
-1.481, 3.867e-5
-1.480, 4.025e-5
-1.479, 3.749e-5
-1.478, 3.780e-5
-1.477, 3.758e-5
-1.476, 3.687e-5
-1.475, 3.650e-5
-1.474, 3.456e-5
-1.473, 3.457e-5
-1.472, 3.470e-5
-1.471, 3.424e-5
-1.470, 3.303e-5
-1.469, 3.241e-5
-1.468, 3.210e-5
-1.467, 3.168e-5
-1.466, 3.134e-5
-1.465, 3.100e-5
-1.464, 3.193e-5
-1.463, 3.115e-5
-1.462, 3.080e-5
-1.461, 2.918e-5
-1.460, 2.906e-5
-1.459, 2.876e-5
-1.458, 2.805e-5
-1.457, 2.795e-5
-1.456, 2.795e-5
-1.455, 2.800e-5
-1.454, 2.749e-5
-1.453, 2.730e-5
-1.452, 2.637e-5
-1.451, 2.641e-5
-1.450, 2.623e-5
-1.449, 2.613e-5
-1.448, 2.598e-5
-1.447, 2.583e-5
-1.446, 2.516e-5
-1.445, 2.477e-5
-1.444, 2.483e-5
-1.443, 2.445e-5
-1.442, 2.412e-5
-1.441, 2.374e-5
-1.440, 2.348e-5
-1.439, 2.338e-5
-1.438, 2.320e-5
-1.437, 2.292e-5
-1.436, 2.257e-5
-1.435, 2.216e-5
-1.434, 2.248e-5
-1.433, 2.225e-5
-1.432, 2.194e-5
-1.431, 2.222e-5
-1.430, 2.145e-5
-1.429, 2.062e-5
-1.428, 2.064e-5
-1.427, 2.017e-5
-1.426, 1.995e-5
-1.425, 2.003e-5
-1.424, 2.011e-5
-1.423, 1.957e-5
-1.422, 1.927e-5
-1.421, 1.896e-5
-1.420, 1.847e-5
-1.419, 1.807e-5
-1.418, 1.785e-5
-1.417, 1.796e-5
-1.416, 1.776e-5
-1.415, 1.737e-5
-1.414, 1.707e-5
-1.413, 1.667e-5
-1.412, 1.648e-5
-1.411, 1.639e-5
-1.410, 1.640e-5
-1.409, 1.637e-5
-1.408, 1.616e-5
-1.407, 1.583e-5
-1.406, 1.486e-5
-1.405, 1.490e-5
-1.404, 1.476e-5
-1.403, 1.525e-5
-1.402, 1.502e-5
-1.401, 1.420e-5
-1.400, 1.407e-5
-1.399, 1.375e-5
-1.398, 1.341e-5
-1.397, 1.333e-5
-1.396, 1.325e-5
-1.395, 1.290e-5
-1.394, 1.248e-5
-1.393, 1.182e-5
-1.392, 1.185e-5
-1.391, 1.181e-5
-1.390, 1.164e-5
-1.389, 1.129e-5
-1.388, 1.122e-5
-1.387, 1.187e-5
-1.386, 1.158e-5
-1.385, 1.117e-5
-1.384, 1.085e-5
-1.383, 1.063e-5
-1.382, 1.052e-5
-1.381, 1.022e-5
-1.380, 1.019e-5
-1.379, 1.016e-5
-1.378, 9.799e-6
-1.377, 9.597e-6
-1.376, 9.692e-6
-1.375, 9.169e-6
-1.374, 8.950e-6
-1.373, 8.882e-6
-1.372, 8.835e-6
-1.371, 8.757e-6
-1.370, 8.400e-6
-1.369, 8.522e-6
-1.368, 8.959e-6
-1.367, 8.496e-6
-1.366, 8.342e-6
-1.365, 8.068e-6
-1.364, 7.963e-6
-1.363, 7.897e-6
-1.362, 7.737e-6
-1.361, 7.617e-6
-1.360, 7.573e-6
-1.359, 7.069e-6
-1.358, 6.447e-6
-1.357, 6.192e-6
-1.356, 6.131e-6
-1.355, 6.184e-6
-1.354, 5.841e-6
-1.353, 5.718e-6
-1.352, 5.780e-6
-1.351, 5.885e-6
-1.350, 5.718e-6
-1.349, 5.671e-6
-1.348, 5.618e-6
-1.347, 5.748e-6
-1.346, 5.795e-6
-1.345, 5.619e-6
-1.344, 5.533e-6
-1.343, 5.513e-6
-1.342, 5.176e-6
-1.341, 5.010e-6
-1.340, 4.733e-6
-1.339, 4.659e-6
-1.338, 4.622e-6
-1.337, 4.344e-6
-1.336, 4.116e-6
-1.335, 4.113e-6
-1.334, 3.929e-6
-1.333, 3.880e-6
-1.332, 3.801e-6
-1.331, 3.625e-6
-1.330, 3.703e-6
-1.329, 3.504e-6
-1.328, 3.535e-6
-1.327, 3.435e-6
-1.326, 3.391e-6
-1.325, 3.240e-6
-1.324, 3.198e-6
-1.323, 3.257e-6
-1.322, 3.167e-6
-1.321, 3.030e-6
-1.320, 2.965e-6
-1.319, 2.795e-6
-1.318, 2.687e-6
-1.317, 2.615e-6
-1.316, 2.557e-6
-1.315, 2.558e-6
-1.314, 2.502e-6
-1.313, 2.389e-6
-1.312, 2.284e-6
-1.311, 2.088e-6
-1.310, 2.086e-6
-1.309, 2.086e-6
-1.308, 1.932e-6
-1.307, 1.754e-6
-1.306, 1.590e-6
-1.305, 1.555e-6
-1.304, 1.452e-6
-1.303, 1.381e-6
-1.302, 1.332e-6
-1.301, 1.250e-6
-1.300, 1.251e-6
-1.299, 1.170e-6
-1.298, 1.100e-6
-1.297, 1.005e-6
-1.296, 1.043e-6
-1.295, 9.450e-7
-1.294, 8.611e-7
-1.293, 7.634e-7
-1.292, 7.378e-7
-1.291, 7.417e-7
-1.290, 6.519e-7
-1.289, 5.513e-7
-1.288, 5.010e-7
-1.287, 3.846e-7
-1.286, 4.349e-7
-1.285, 3.944e-7
-1.284, 2.622e-7
-1.283, 2.149e-7
-1.282, 1.596e-7
-1.281, 8.366e-8
-1.280, 8.070e-8
-1.279, -2.289e-8
-1.278, -9.787e-8
-1.277, -1.679e-7
-1.276, -1.965e-7
-1.275, -1.946e-7
-1.274, -2.873e-7
-1.273, -3.524e-7
-1.272, -4.333e-7
-1.271, -4.925e-7
-1.270, -5.310e-7
-1.269, -5.734e-7
-1.268, -6.622e-7
-1.267, -6.711e-7
-1.266, -7.678e-7
-1.265, -7.352e-7
-1.264, -8.062e-7
-1.263, -8.072e-7
-1.262, -8.911e-7
-1.261, -9.335e-7
-1.260, -9.621e-7
-1.259, -1.065e-6
-1.258, -1.088e-6
-1.257, -1.104e-6
-1.256, -1.165e-6
-1.255, -1.174e-6
-1.254, -1.234e-6
-1.253, -1.276e-6
-1.252, -1.317e-6
-1.251, -1.316e-6
-1.250, -1.346e-6
-1.249, -1.460e-6
-1.248, -1.464e-6
-1.247, -1.518e-6
-1.246, -1.561e-6
-1.245, -1.567e-6
-1.244, -1.636e-6
-1.243, -1.681e-6
-1.242, -1.758e-6
-1.241, -1.693e-6
-1.240, -1.751e-6
-1.239, -1.788e-6
-1.238, -1.800e-6
-1.237, -1.892e-6
-1.236, -1.904e-6
-1.235, -1.960e-6
-1.234, -1.982e-6
-1.233, -2.006e-6
-1.232, -2.034e-6
-1.231, -2.105e-6
-1.230, -2.146e-6
-1.229, -2.143e-6
-1.228, -2.185e-6
-1.227, -2.276e-6
-1.226, -2.299e-6
-1.225, -2.299e-6
-1.224, -2.357e-6
-1.223, -2.417e-6
-1.222, -2.533e-6
-1.221, -2.448e-6
-1.220, -2.451e-6
-1.219, -2.516e-6
-1.218, -2.502e-6
-1.217, -2.620e-6
-1.216, -2.578e-6
-1.215, -2.626e-6
-1.214, -2.723e-6
-1.213, -2.754e-6
-1.212, -2.809e-6
-1.211, -2.809e-6
-1.210, -2.781e-6
-1.209, -2.801e-6
-1.208, -2.796e-6
-1.207, -2.838e-6
-1.206, -2.942e-6
-1.205, -2.945e-6
-1.204, -3.070e-6
-1.203, -3.110e-6
-1.202, -3.010e-6
-1.201, -3.018e-6
-1.200, -3.027e-6
-1.199, -3.031e-6
-1.198, -3.094e-6
-1.197, -3.112e-6
-1.196, -3.160e-6
-1.195, -3.139e-6
-1.194, -3.255e-6
-1.193, -3.284e-6
-1.192, -3.321e-6
-1.191, -3.356e-6
-1.190, -3.365e-6
-1.189, -3.445e-6
-1.188, -3.491e-6
-1.187, -3.567e-6
-1.186, -3.543e-6
-1.185, -3.931e-6
-1.184, -4.494e-6
-1.183, -4.412e-6
-1.182, -4.312e-6
-1.181, -4.249e-6
-1.180, -4.247e-6
-1.179, -4.229e-6
-1.178, -4.125e-6
-1.177, -4.272e-6
-1.176, -4.264e-6
-1.175, -4.267e-6
-1.174, -4.289e-6
-1.173, -4.206e-6
-1.172, -4.149e-6
-1.171, -4.196e-6
-1.170, -4.179e-6
-1.169, -4.262e-6
-1.168, -4.302e-6
-1.167, -4.348e-6
-1.166, -4.270e-6
-1.165, -4.184e-6
-1.164, -4.345e-6
-1.163, -4.350e-6
-1.162, -4.395e-6
-1.161, -4.472e-6
-1.160, -4.535e-6
-1.159, -4.609e-6
-1.158, -4.647e-6
-1.157, -4.720e-6
-1.156, -4.690e-6
-1.155, -4.739e-6
-1.154, -4.820e-6
-1.153, -4.886e-6
-1.152, -5.023e-6
-1.151, -5.008e-6
-1.150, -4.949e-6
-1.149, -4.936e-6
-1.148, -5.172e-6
-1.147, -5.241e-6
-1.146, -5.118e-6
-1.145, -5.113e-6
-1.144, -5.079e-6
-1.143, -5.105e-6
-1.142, -5.274e-6
-1.141, -5.351e-6
-1.140, -5.350e-6
-1.139, -5.318e-6
-1.138, -5.470e-6
-1.137, -5.649e-6
-1.136, -5.656e-6
-1.135, -5.704e-6
-1.134, -5.762e-6
-1.133, -5.858e-6
-1.132, -5.884e-6
-1.131, -5.856e-6
-1.130, -5.892e-6
-1.129, -5.968e-6
-1.128, -5.866e-6
-1.127, -6.031e-6
-1.126, -5.879e-6
-1.125, -6.087e-6
-1.124, -6.161e-6
-1.123, -6.480e-6
-1.122, -6.535e-6
-1.121, -6.586e-6
-1.120, -6.739e-6
-1.119, -6.768e-6
-1.118, -6.823e-6
-1.117, -6.755e-6
-1.116, -7.196e-6
-1.115, -7.000e-6
-1.114, -7.152e-6
-1.113, -7.339e-6
-1.112, -7.421e-6
-1.111, -7.228e-6
-1.110, -7.190e-6
-1.109, -7.328e-6
-1.108, -7.275e-6
-1.107, -7.452e-6
-1.106, -8.011e-6
-1.105, -7.920e-6
-1.104, -7.797e-6
-1.103, -7.750e-6
-1.102, -7.782e-6
-1.101, -7.863e-6
-1.100, -8.135e-6
-1.099, -8.221e-6
-1.098, -8.192e-6
-1.097, -8.222e-6
-1.096, -8.307e-6
-1.095, -8.451e-6
-1.094, -8.406e-6
-1.093, -8.651e-6
-1.092, -8.829e-6
-1.091, -8.936e-6
-1.090, -8.941e-6
-1.089, -9.151e-6
-1.088, -9.195e-6
-1.087, -9.234e-6
-1.086, -9.592e-6
-1.085, -9.755e-6
-1.084, -1.013e-5
-1.083, -9.893e-6
-1.082, -9.638e-6
-1.081, -9.718e-6
-1.080, -9.908e-6
-1.079, -1.017e-5
-1.078, -1.016e-5
-1.077, -1.004e-5
-1.076, -1.020e-5
-1.075, -1.076e-5
-1.074, -1.096e-5
-1.073, -1.095e-5
-1.072, -1.090e-5
-1.071, -1.100e-5
-1.070, -1.118e-5
-1.069, -1.150e-5
-1.068, -1.153e-5
-1.067, -1.143e-5
-1.066, -1.158e-5
-1.065, -1.191e-5
-1.064, -1.203e-5
-1.063, -1.182e-5
-1.062, -1.165e-5
-1.061, -1.179e-5
-1.060, -1.195e-5
-1.059, -1.223e-5
-1.058, -1.274e-5
-1.057, -1.317e-5
-1.056, -1.302e-5
-1.055, -1.328e-5
-1.054, -1.309e-5
-1.053, -1.319e-5
-1.052, -1.331e-5
-1.051, -1.348e-5
-1.050, -1.333e-5
-1.049, -1.366e-5
-1.048, -1.396e-5
-1.047, -1.400e-5
-1.046, -1.423e-5
-1.045, -1.437e-5
-1.044, -1.434e-5
-1.043, -1.465e-5
-1.042, -1.470e-5
-1.041, -1.493e-5
-1.040, -1.460e-5
-1.039, -1.493e-5
-1.038, -1.499e-5
-1.037, -1.538e-5
-1.036, -1.577e-5
-1.035, -1.582e-5
-1.034, -1.608e-5
-1.033, -1.607e-5
-1.032, -1.603e-5
-1.031, -1.607e-5
-1.030, -1.634e-5
-1.029, -1.652e-5
-1.028, -1.666e-5
-1.027, -1.705e-5
-1.026, -1.734e-5
-1.025, -1.741e-5
-1.024, -1.735e-5
-1.023, -1.757e-5
-1.022, -1.765e-5
-1.021, -1.787e-5
-1.020, -1.817e-5
-1.019, -1.834e-5
-1.018, -1.860e-5
-1.017, -1.934e-5
-1.016, -1.932e-5
-1.015, -1.889e-5
-1.014, -1.939e-5
-1.013, -1.938e-5
-1.012, -1.949e-5
-1.011, -1.975e-5
-1.010, -1.998e-5
-1.009, -1.995e-5
-1.008, -2.026e-5
-1.007, -2.046e-5
-1.006, -2.147e-5
-1.005, -2.126e-5
-1.004, -2.121e-5
-1.003, -2.180e-5
-1.002, -2.211e-5
-1.001, -2.261e-5
-1.000, -2.065e-5
-1.001, -1.842e-5
-1.002, -1.736e-5
-1.003, -1.623e-5
-1.004, -1.541e-5
-1.005, -1.464e-5
-1.006, -1.359e-5
-1.007, -1.300e-5
-1.008, -1.255e-5
-1.009, -1.169e-5
-1.010, -1.067e-5
-1.011, -1.017e-5
-1.012, -9.729e-6
-1.013, -9.307e-6
-1.014, -9.370e-6
-1.015, -8.786e-6
-1.016, -8.159e-6
-1.017, -7.200e-6
-1.018, -6.791e-6
-1.019, -6.273e-6
-1.020, -5.997e-6
-1.021, -5.632e-6
-1.022, -5.233e-6
-1.023, -4.872e-6
-1.024, -4.661e-6
-1.025, -4.528e-6
-1.026, -4.316e-6
-1.027, -3.833e-6
-1.028, -3.612e-6
-1.029, -3.399e-6
-1.030, -3.095e-6
-1.031, -2.768e-6
-1.032, -2.669e-6
-1.033, -2.457e-6
-1.034, -2.243e-6
-1.035, -1.919e-6
-1.036, -1.691e-6
-1.037, -1.388e-6
-1.038, -1.156e-6
-1.039, -8.743e-7
-1.040, -6.040e-7
-1.041, -4.363e-7
-1.042, -1.807e-7
-1.043, -5.130e-9
-1.044, 1.182e-7
-1.045, 2.603e-7
-1.046, 3.570e-7
-1.047, 4.753e-7
-1.048, 6.026e-7
-1.049, 7.506e-7
-1.050, 9.361e-7
-1.051, 1.123e-6
-1.052, 1.239e-6
-1.053, 1.320e-6
-1.054, 1.514e-6
-1.055, 1.649e-6
-1.056, 1.689e-6
-1.057, 1.901e-6
-1.058, 2.017e-6
-1.059, 2.081e-6
-1.060, 2.248e-6
-1.061, 2.359e-6
-1.062, 2.401e-6
-1.063, 2.496e-6
-1.064, 2.640e-6
-1.065, 2.769e-6
-1.066, 2.833e-6
-1.067, 2.915e-6
-1.068, 3.009e-6
-1.069, 3.106e-6
-1.070, 3.214e-6
-1.071, 3.226e-6
-1.072, 3.363e-6
-1.073, 3.438e-6
-1.074, 3.572e-6
-1.075, 3.692e-6
-1.076, 3.768e-6
-1.077, 3.809e-6
-1.078, 3.850e-6
-1.079, 3.896e-6
-1.080, 3.999e-6
-1.081, 4.039e-6
-1.082, 4.118e-6
-1.083, 4.125e-6
-1.084, 4.182e-6
-1.085, 4.280e-6
-1.086, 4.328e-6
-1.087, 4.365e-6
-1.088, 4.418e-6
-1.089, 4.467e-6
-1.090, 4.560e-6
-1.091, 4.664e-6
-1.092, 4.627e-6
-1.093, 4.710e-6
-1.094, 4.806e-6
-1.095, 4.879e-6
-1.096, 4.861e-6
-1.097, 4.972e-6
-1.098, 4.981e-6
-1.099, 5.017e-6
-1.100, 4.966e-6
-1.101, 5.111e-6
-1.102, 5.237e-6
-1.103, 5.255e-6
-1.104, 5.302e-6
-1.105, 5.361e-6
-1.106, 5.397e-6
-1.107, 5.439e-6
-1.108, 5.497e-6
-1.109, 5.586e-6
-1.110, 5.602e-6
-1.111, 5.638e-6
-1.112, 5.676e-6
-1.113, 5.740e-6
-1.114, 5.742e-6
-1.115, 5.802e-6
-1.116, 5.762e-6
-1.117, 5.807e-6
-1.118, 5.778e-6
-1.119, 5.893e-6
-1.120, 5.899e-6
-1.121, 5.954e-6
-1.122, 6.009e-6
-1.123, 6.016e-6
-1.124, 6.024e-6
-1.125, 6.053e-6
-1.126, 6.093e-6
-1.127, 6.140e-6
-1.128, 6.222e-6
-1.129, 6.187e-6
-1.130, 6.210e-6
-1.131, 6.217e-6
-1.132, 6.291e-6
-1.133, 6.287e-6
-1.134, 6.299e-6
-1.135, 6.397e-6
-1.136, 6.420e-6
-1.137, 6.472e-6
-1.138, 6.449e-6
-1.139, 6.461e-6
-1.140, 6.522e-6
-1.141, 6.493e-6
-1.142, 6.492e-6
-1.143, 6.504e-6
-1.144, 6.558e-6
-1.145, 6.681e-6
-1.146, 6.644e-6
-1.147, 6.645e-6
-1.148, 6.668e-6
-1.149, 6.695e-6
-1.150, 6.764e-6
-1.151, 6.795e-6
-1.152, 6.757e-6
-1.153, 6.769e-6
-1.154, 6.777e-6
-1.155, 6.785e-6
-1.156, 6.942e-6
-1.157, 6.950e-6
-1.158, 6.989e-6
-1.159, 7.014e-6
-1.160, 7.005e-6
-1.161, 6.990e-6
-1.162, 6.936e-6
-1.163, 6.921e-6
-1.164, 6.913e-6
-1.165, 6.937e-6
-1.166, 7.048e-6
-1.167, 7.124e-6
-1.168, 7.056e-6
-1.169, 7.129e-6
-1.170, 7.124e-6
-1.171, 7.124e-6
-1.172, 7.172e-6
-1.173, 7.112e-6
-1.174, 7.116e-6
-1.175, 7.197e-6
-1.176, 7.130e-6
-1.177, 7.142e-6
-1.178, 7.170e-6
-1.179, 7.181e-6
-1.180, 7.262e-6
-1.181, 7.281e-6
-1.182, 7.237e-6
-1.183, 7.175e-6
-1.184, 7.218e-6
-1.185, 7.286e-6
-1.186, 7.256e-6
-1.187, 7.311e-6
-1.188, 7.218e-6
-1.189, 7.163e-6
-1.190, 7.200e-6
-1.191, 7.360e-6
-1.192, 7.373e-6
-1.193, 7.314e-6
-1.194, 7.285e-6
-1.195, 7.274e-6
-1.196, 7.274e-6
-1.197, 7.277e-6
-1.198, 7.229e-6
-1.199, 7.310e-6
-1.200, 7.338e-6
-1.201, 7.259e-6
-1.202, 7.226e-6
-1.203, 7.336e-6
-1.204, 7.394e-6
-1.205, 7.314e-6
-1.206, 7.263e-6
-1.207, 7.263e-6
-1.208, 7.195e-6
-1.209, 7.119e-6
-1.210, 7.171e-6
-1.211, 7.142e-6
-1.212, 7.161e-6
-1.213, 7.256e-6
-1.214, 7.264e-6
-1.215, 7.361e-6
-1.216, 7.368e-6
-1.217, 7.388e-6
-1.218, 7.328e-6
-1.219, 7.324e-6
-1.220, 7.328e-6
-1.221, 7.233e-6
-1.222, 7.254e-6
-1.223, 7.284e-6
-1.224, 7.226e-6
-1.225, 7.268e-6
-1.226, 7.210e-6
-1.227, 7.195e-6
-1.228, 7.134e-6
-1.229, 7.133e-6
-1.230, 7.143e-6
-1.231, 7.116e-6
-1.232, 7.152e-6
-1.233, 7.144e-6
-1.234, 7.165e-6
-1.235, 7.242e-6
-1.236, 7.217e-6
-1.237, 7.177e-6
-1.238, 7.297e-6
-1.239, 7.267e-6
-1.240, 7.219e-6
-1.241, 7.156e-6
-1.242, 7.163e-6
-1.243, 7.135e-6
-1.244, 7.151e-6
-1.245, 7.134e-6
-1.246, 7.191e-6
-1.247, 7.237e-6
-1.248, 7.313e-6
-1.249, 7.335e-6
-1.250, 7.359e-6
-1.251, 7.327e-6
-1.252, 7.381e-6
-1.253, 7.306e-6
-1.254, 7.304e-6
-1.255, 7.437e-6
-1.256, 7.435e-6
-1.257, 7.456e-6
-1.258, 7.391e-6
-1.259, 7.350e-6
-1.260, 7.568e-6
-1.261, 7.493e-6
-1.262, 7.448e-6
-1.263, 7.488e-6
-1.264, 7.544e-6
-1.265, 7.488e-6
-1.266, 7.498e-6
-1.267, 7.492e-6
-1.268, 7.603e-6
-1.269, 7.632e-6
-1.270, 7.693e-6
-1.271, 7.669e-6
-1.272, 7.673e-6
-1.273, 7.680e-6
-1.274, 7.701e-6
-1.275, 7.745e-6
-1.276, 7.783e-6
-1.277, 7.835e-6
-1.278, 7.833e-6
-1.279, 8.057e-6
-1.280, 7.994e-6
-1.281, 8.066e-6
-1.282, 8.176e-6
-1.283, 8.270e-6
-1.284, 8.435e-6
-1.285, 8.454e-6
-1.286, 8.559e-6
-1.287, 8.276e-6
-1.288, 8.369e-6
-1.289, 8.372e-6
-1.290, 8.628e-6
-1.291, 8.670e-6
-1.292, 8.875e-6
-1.293, 8.942e-6
-1.294, 8.830e-6
-1.295, 8.692e-6
-1.296, 8.684e-6
-1.297, 8.834e-6
-1.298, 8.927e-6
-1.299, 8.917e-6
-1.300, 8.981e-6
-1.301, 9.137e-6
-1.302, 9.208e-6
-1.303, 9.223e-6
-1.304, 9.205e-6
-1.305, 9.309e-6
-1.306, 9.490e-6
-1.307, 9.498e-6
-1.308, 9.504e-6
-1.309, 9.656e-6
-1.310, 9.813e-6
-1.311, 9.906e-6
-1.312, 9.866e-6
-1.313, 9.924e-6
-1.314, 1.008e-5
-1.315, 1.024e-5
-1.316, 1.024e-5
-1.317, 1.044e-5
-1.318, 1.041e-5
-1.319, 1.054e-5
-1.320, 1.063e-5
-1.321, 1.076e-5
-1.322, 1.086e-5
-1.323, 1.090e-5
-1.324, 1.095e-5
-1.325, 1.112e-5
-1.326, 1.119e-5
-1.327, 1.127e-5
-1.328, 1.141e-5
-1.329, 1.150e-5
-1.330, 1.173e-5
-1.331, 1.183e-5
-1.332, 1.193e-5
-1.333, 1.200e-5
-1.334, 1.218e-5
-1.335, 1.231e-5
-1.336, 1.248e-5
-1.337, 1.255e-5
-1.338, 1.260e-5
-1.339, 1.274e-5
-1.340, 1.289e-5
-1.341, 1.305e-5
-1.342, 1.311e-5
-1.343, 1.335e-5
-1.344, 1.356e-5
-1.345, 1.359e-5
-1.346, 1.361e-5
-1.347, 1.365e-5
-1.348, 1.391e-5
-1.349, 1.406e-5
-1.350, 1.420e-5
-1.351, 1.434e-5
-1.352, 1.464e-5
-1.353, 1.485e-5
-1.354, 1.480e-5
-1.355, 1.485e-5
-1.356, 1.500e-5
-1.357, 1.528e-5
-1.358, 1.562e-5
-1.359, 1.598e-5
-1.360, 1.603e-5
-1.361, 1.616e-5
-1.362, 1.629e-5
-1.363, 1.644e-5
-1.364, 1.672e-5
-1.365, 1.679e-5
-1.366, 1.706e-5
-1.367, 1.726e-5
-1.368, 1.749e-5
-1.369, 1.761e-5
-1.370, 1.782e-5
-1.371, 1.819e-5
-1.372, 1.835e-5
-1.373, 1.875e-5
-1.374, 1.915e-5
-1.375, 1.947e-5
-1.376, 1.958e-5
-1.377, 1.974e-5
-1.378, 2.001e-5
-1.379, 2.038e-5
-1.380, 2.063e-5
-1.381, 2.089e-5
-1.382, 2.109e-5
-1.383, 2.067e-5
-1.384, 2.142e-5
-1.385, 2.181e-5
-1.386, 2.233e-5
-1.387, 2.206e-5
-1.388, 2.252e-5
-1.389, 2.301e-5
-1.390, 2.308e-5
-1.391, 2.386e-5
-1.392, 2.327e-5
-1.393, 2.373e-5
-1.394, 2.390e-5
-1.395, 2.475e-5
-1.396, 2.446e-5
-1.397, 2.516e-5
-1.398, 2.613e-5
-1.399, 2.644e-5
-1.400, 2.702e-5
-1.401, 2.677e-5
-1.402, 2.752e-5
-1.403, 2.776e-5
-1.404, 2.831e-5
-1.405, 2.878e-5
-1.406, 2.925e-5
-1.407, 2.950e-5
-1.408, 2.925e-5
-1.409, 2.891e-5
-1.410, 2.967e-5
-1.411, 2.971e-5
-1.412, 3.030e-5
-1.413, 3.016e-5
-1.414, 3.098e-5
-1.415, 3.116e-5
-1.416, 3.170e-5
-1.417, 3.242e-5
-1.418, 3.217e-5
-1.419, 3.186e-5
-1.420, 3.198e-5
-1.421, 3.238e-5
-1.422, 3.295e-5
-1.423, 3.376e-5
-1.424, 3.381e-5
-1.425, 3.370e-5
-1.426, 3.449e-5
-1.427, 3.415e-5
-1.428, 3.530e-5
-1.429, 3.523e-5
-1.430, 3.521e-5
-1.431, 3.561e-5
-1.432, 3.674e-5
-1.433, 3.751e-5
-1.434, 3.757e-5
-1.435, 3.826e-5
-1.436, 3.901e-5
-1.437, 3.923e-5
-1.438, 3.954e-5
-1.439, 4.122e-5
-1.440, 4.195e-5
-1.441, 4.239e-5
-1.442, 4.282e-5
-1.443, 4.341e-5
-1.444, 4.418e-5
-1.445, 4.149e-5
-1.446, 4.165e-5
-1.447, 4.239e-5
-1.448, 4.341e-5
-1.449, 4.382e-5
-1.450, 4.528e-5
-1.451, 4.606e-5
-1.452, 4.592e-5
-1.453, 4.482e-5
-1.454, 4.554e-5
-1.455, 4.566e-5
-1.456, 4.616e-5
-1.457, 4.659e-5
-1.458, 4.689e-5
-1.459, 4.762e-5
-1.460, 4.757e-5
-1.461, 4.831e-5
-1.462, 4.929e-5
-1.463, 4.951e-5
-1.464, 4.998e-5
-1.465, 5.149e-5
-1.466, 5.182e-5
-1.467, 5.312e-5
-1.468, 5.356e-5
-1.469, 5.513e-5
-1.470, 5.611e-5
-1.471, 5.662e-5
-1.472, 5.803e-5
-1.473, 5.922e-5
-1.474, 5.812e-5
-1.475, 5.424e-5
-1.476, 5.527e-5
-1.477, 5.539e-5
-1.478, 5.563e-5
-1.479, 5.698e-5
-1.480, 5.858e-5
-1.481, 6.037e-5
-1.482, 6.209e-5
-1.483, 6.498e-5
-1.484, 6.522e-5
-1.485, 6.186e-5
-1.486, 6.118e-5
-1.487, 6.008e-5
-1.488, 6.096e-5
-1.489, 6.254e-5
-1.490, 6.346e-5
-1.491, 6.396e-5
-1.492, 6.386e-5
-1.493, 6.588e-5
-1.494, 6.683e-5
-1.495, 6.844e-5
-1.496, 6.989e-5
-1.497, 7.197e-5
-1.498, 7.243e-5
-1.499, 7.064e-5
-1.500, 6.889e-5
-1.501, 7.230e-5
-1.502, 7.304e-5
-1.503, 6.994e-5
-1.504, 7.003e-5
-1.505, 6.946e-5
-1.506, 7.158e-5
-1.507, 7.296e-5
-1.508, 7.491e-5
-1.509, 7.843e-5
-1.510, 7.946e-5
-1.511, 8.232e-5
-1.512, 8.425e-5
-1.513, 8.148e-5
-1.514, 7.955e-5
-1.515, 8.164e-5
-1.516, 8.220e-5
-1.517, 8.132e-5
-1.518, 8.172e-5
-1.519, 8.362e-5
-1.520, 8.467e-5
-1.521, 8.655e-5
-1.522, 8.814e-5
-1.523, 9.122e-5
-1.524, 8.876e-5
-1.525, 8.874e-5
-1.526, 8.791e-5
-1.527, 9.098e-5
-1.528, 9.069e-5
-1.529, 9.040e-5
-1.530, 8.936e-5
-1.531, 9.301e-5
-1.532, 9.778e-5
-1.533, 9.629e-5
-1.534, 9.155e-5
-1.535, 9.270e-5
-1.536, 9.450e-5
-1.537, 9.524e-5
-1.538, 9.530e-5
-1.539, 9.543e-5
-1.540, 1.004e-4
-1.541, 9.974e-5
-1.542, 1.009e-4
-1.543, 1.075e-4
-1.544, 1.105e-4
-1.545, 1.009e-4
-1.546, 1.025e-4
-1.547, 1.035e-4
-1.548, 1.044e-4
-1.549, 1.053e-4
-1.550, 1.070e-4
-1.551, 1.121e-4
-1.552, 1.145e-4
-1.553, 1.176e-4
-1.554, 1.098e-4
-1.555, 1.108e-4
-1.556, 1.135e-4
-1.557, 1.130e-4
-1.558, 1.162e-4
-1.559, 1.161e-4
-1.560, 1.166e-4
-1.561, 1.233e-4
-1.562, 1.255e-4
-1.563, 1.213e-4
-1.564, 1.186e-4
-1.565, 1.181e-4
-1.566, 1.204e-4
-1.567, 1.211e-4
-1.568, 1.270e-4
-1.569, 1.320e-4
-1.570, 1.344e-4
-1.571, 1.236e-4
-1.572, 1.250e-4
-1.573, 1.285e-4
-1.574, 1.313e-4
-1.575, 1.355e-4
-1.576, 1.430e-4
-1.577, 1.372e-4
-1.578, 1.340e-4
-1.579, 1.349e-4
-1.580, 1.370e-4
-1.581, 1.424e-4
-1.582, 1.439e-4
-1.583, 1.468e-4
-1.584, 1.381e-4
-1.585, 1.374e-4
-1.586, 1.397e-4
-1.587, 1.394e-4
-1.588, 1.431e-4
-1.589, 1.455e-4
-1.590, 1.484e-4
-1.591, 1.566e-4
-1.592, 1.589e-4
-1.593, 1.463e-4
-1.594, 1.474e-4
-1.595, 1.519e-4
-1.596, 1.550e-4
-1.597, 1.627e-4
-1.598, 1.711e-4
-1.599, 1.634e-4
-1.600, 1.549e-4
-1.601, 1.557e-4
-1.602, 1.630e-4
-1.603, 1.679e-4
-1.604, 1.778e-4
-1.605, 1.663e-4
-1.606, 1.671e-4
-1.607, 1.699e-4
-1.608, 1.751e-4
-1.609, 1.887e-4
-1.610, 1.887e-4
-1.611, 1.821e-4
-1.612, 1.834e-4
-1.613, 1.888e-4
-1.614, 1.928e-4
-1.615, 1.988e-4
-1.616, 2.000e-4
-1.617, 1.943e-4
-1.618, 1.921e-4
-1.619, 1.940e-4
-1.620, 1.982e-4
-1.621, 2.023e-4
-1.622, 1.980e-4
-1.623, 1.976e-4
-1.624, 1.966e-4
-1.625, 2.000e-4
-1.626, 2.060e-4
-1.627, 2.114e-4
-1.628, 2.221e-4
-1.629, 2.213e-4
-1.630, 2.126e-4
-1.631, 2.146e-4
-1.632, 2.209e-4
-1.633, 2.293e-4
-1.634, 2.423e-4
-1.635, 2.314e-4
-1.636, 2.336e-4
-1.637, 2.426e-4
-1.638, 2.499e-4
-1.639, 2.377e-4
-1.640, 2.427e-4
-1.641, 2.551e-4
-1.642, 2.649e-4
-1.643, 2.509e-4
-1.644, 2.510e-4
-1.645, 2.605e-4
-1.646, 2.748e-4
-1.647, 2.720e-4
-1.648, 2.638e-4
-1.649, 2.671e-4
-1.650, 2.714e-4
-1.651, 2.823e-4
-1.652, 2.912e-4
-1.653, 2.947e-4
-1.654, 2.865e-4
-1.655, 2.861e-4
-1.656, 2.951e-4
-1.657, 3.104e-4
-1.658, 3.229e-4
-1.659, 3.189e-4
-1.660, 3.224e-4
-1.661, 3.165e-4
-1.662, 3.266e-4
-1.663, 3.369e-4
-1.664, 3.542e-4
-1.665, 3.375e-4
-1.666, 3.461e-4
-1.667, 3.593e-4
-1.668, 3.734e-4
-1.669, 3.728e-4
-1.670, 3.766e-4
-1.671, 3.889e-4
-1.672, 4.037e-4
-1.673, 4.097e-4
-1.674, 4.084e-4
-1.675, 4.222e-4
-1.676, 4.364e-4
-1.677, 4.278e-4
-1.678, 4.392e-4
-1.679, 4.593e-4
-1.680, 4.573e-4
-1.681, 4.608e-4
-1.682, 4.727e-4
-1.683, 4.959e-4
-1.684, 5.168e-4
-1.685, 5.103e-4
-1.686, 5.216e-4
-1.687, 5.377e-4
-1.688, 5.584e-4
-1.689, 5.736e-4
-1.690, 5.730e-4
-1.691, 5.842e-4
-1.692, 6.004e-4
-1.693, 6.165e-4
-1.694, 6.297e-4
-1.695, 6.536e-4
-1.696, 6.746e-4
-1.697, 6.967e-4
-1.698, 6.921e-4
-1.699, 6.958e-4
-1.700, 7.011e-4
-1.699, 7.078e-4
-1.698, 6.719e-4
-1.697, 6.660e-4
-1.696, 6.706e-4
-1.695, 6.656e-4
-1.694, 6.446e-4
-1.693, 6.269e-4
-1.692, 6.262e-4
-1.691, 6.053e-4
-1.690, 5.894e-4
-1.689, 5.817e-4
-1.688, 5.861e-4
-1.687, 5.612e-4
-1.686, 5.477e-4
-1.685, 5.410e-4
-1.684, 5.451e-4
-1.683, 5.367e-4
-1.682, 5.204e-4
-1.681, 5.159e-4
-1.680, 5.530e-4
-1.679, 5.448e-4
-1.678, 4.920e-4
-1.677, 4.849e-4
-1.676, 4.777e-4
-1.675, 4.538e-4
-1.674, 4.461e-4
-1.673, 4.464e-4
-1.672, 4.270e-4
-1.671, 4.151e-4
-1.670, 4.113e-4
-1.669, 4.086e-4
-1.668, 3.999e-4
-1.667, 3.760e-4
-1.666, 3.694e-4
-1.665, 3.648e-4
-1.664, 3.618e-4
-1.663, 3.577e-4
-1.662, 3.420e-4
-1.661, 3.278e-4
-1.660, 3.323e-4
-1.659, 3.267e-4
-1.658, 3.078e-4
-1.657, 3.003e-4
-1.656, 2.966e-4
-1.655, 2.978e-4
-1.654, 2.985e-4
-1.653, 2.804e-4
-1.652, 2.711e-4
-1.651, 2.667e-4
-1.650, 2.642e-4
-1.649, 2.634e-4
-1.648, 2.635e-4
-1.647, 2.603e-4
-1.646, 2.458e-4
-1.645, 2.358e-4
-1.644, 2.342e-4
-1.643, 2.303e-4
-1.642, 2.306e-4
-1.641, 2.358e-4
-1.640, 2.363e-4
-1.639, 2.169e-4
-1.638, 2.159e-4
-1.637, 2.129e-4
-1.636, 2.104e-4
-1.635, 2.100e-4
-1.634, 2.043e-4
-1.633, 1.869e-4
-1.632, 1.845e-4
-1.631, 1.867e-4
-1.630, 1.907e-4
-1.629, 1.907e-4
-1.628, 1.790e-4
-1.627, 1.729e-4
-1.626, 1.705e-4
-1.625, 1.681e-4
-1.624, 1.676e-4
-1.623, 1.684e-4
-1.622, 1.691e-4
-1.621, 1.682e-4
-1.620, 1.674e-4
-1.619, 1.610e-4
-1.618, 1.531e-4
-1.617, 1.536e-4
-1.616, 1.520e-4
-1.615, 1.508e-4
-1.614, 1.542e-4
-1.613, 1.426e-4
-1.612, 1.374e-4
-1.611, 1.353e-4
-1.610, 1.345e-4
-1.609, 1.368e-4
-1.608, 1.314e-4
-1.607, 1.209e-4
-1.606, 1.203e-4
-1.605, 1.207e-4
-1.604, 1.233e-4
-1.603, 1.269e-4
-1.602, 1.279e-4
-1.601, 1.266e-4
-1.600, 1.116e-4
-1.599, 1.095e-4
-1.598, 1.069e-4
-1.597, 1.055e-4
-1.596, 1.078e-4
-1.595, 1.090e-4
-1.594, 1.149e-4
-1.593, 1.082e-4
-1.592, 9.636e-5
-1.591, 9.512e-5
-1.590, 9.663e-5
-1.589, 9.619e-5
-1.588, 9.674e-5
-1.587, 9.990e-5
-1.586, 9.730e-5
-1.585, 9.852e-5
-1.584, 9.655e-5
-1.583, 8.773e-5
-1.582, 8.789e-5
-1.581, 8.569e-5
-1.580, 8.583e-5
-1.579, 8.519e-5
-1.578, 8.409e-5
-1.577, 8.489e-5
-1.576, 8.604e-5
-1.575, 8.656e-5
-1.574, 8.493e-5
-1.573, 8.539e-5
-1.572, 8.040e-5
-1.571, 7.859e-5
-1.570, 7.216e-5
-1.569, 7.184e-5
-1.568, 7.719e-5
-1.567, 7.790e-5
-1.566, 7.215e-5
-1.565, 6.837e-5
-1.564, 6.773e-5
-1.563, 6.636e-5
-1.562, 6.588e-5
-1.561, 6.443e-5
-1.560, 6.396e-5
-1.559, 6.250e-5
-1.558, 6.444e-5
-1.557, 6.505e-5
-1.556, 6.267e-5
-1.555, 6.430e-5
-1.554, 6.453e-5
-1.553, 6.464e-5
-1.552, 6.496e-5
-1.551, 6.491e-5
-1.550, 5.571e-5
-1.549, 5.547e-5
-1.548, 5.515e-5
-1.547, 5.424e-5
-1.546, 5.356e-5
-1.545, 5.405e-5
-1.544, 5.482e-5
-1.543, 5.467e-5
-1.542, 5.462e-5
-1.541, 5.382e-5
-1.540, 5.415e-5
-1.539, 5.585e-5
-1.538, 5.162e-5
-1.537, 4.704e-5
-1.536, 4.702e-5
-1.535, 4.665e-5
-1.534, 4.616e-5
-1.533, 4.627e-5
-1.532, 4.572e-5
-1.531, 4.689e-5
-1.530, 4.644e-5
-1.529, 4.709e-5
-1.528, 4.702e-5
-1.527, 4.600e-5
-1.526, 4.310e-5
-1.525, 4.062e-5
-1.524, 3.874e-5
-1.523, 3.471e-5
-1.522, 3.389e-5
-1.521, 3.344e-5
-1.520, 3.327e-5
-1.519, 3.284e-5
-1.518, 3.180e-5
-1.517, 3.184e-5
-1.516, 3.170e-5
-1.515, 3.264e-5
-1.514, 3.207e-5
-1.513, 3.221e-5
-1.512, 3.208e-5
-1.511, 3.187e-5
-1.510, 3.228e-5
-1.509, 3.224e-5
-1.508, 2.957e-5
-1.507, 2.921e-5
-1.506, 2.726e-5
-1.505, 2.733e-5
-1.504, 2.534e-5
-1.503, 2.497e-5
-1.502, 2.456e-5
-1.501, 2.479e-5
-1.500, 2.472e-5
-1.499, 2.449e-5
-1.498, 2.464e-5
-1.497, 2.574e-5
-1.496, 2.513e-5
-1.495, 2.599e-5
-1.494, 2.594e-5
-1.493, 2.583e-5
-1.492, 2.584e-5
-1.491, 2.487e-5
-1.490, 2.478e-5
-1.489, 2.117e-5
-1.488, 2.045e-5
-1.487, 2.082e-5
-1.486, 2.011e-5
-1.485, 1.951e-5
-1.484, 1.990e-5
-1.483, 1.916e-5
-1.482, 1.886e-5
-1.481, 1.926e-5
-1.480, 1.923e-5
-1.479, 1.997e-5
-1.478, 1.983e-5
-1.477, 1.787e-5
-1.476, 1.721e-5
-1.475, 1.799e-5
-1.474, 1.836e-5
-1.473, 1.797e-5
-1.472, 1.719e-5
-1.471, 1.726e-5
-1.470, 1.830e-5
-1.469, 1.847e-5
-1.468, 1.756e-5
-1.467, 1.738e-5
-1.466, 1.675e-5
-1.465, 1.540e-5
-1.464, 1.511e-5
-1.463, 1.498e-5
-1.462, 1.473e-5
-1.461, 1.473e-5
-1.460, 1.454e-5
-1.459, 1.457e-5
-1.458, 1.457e-5
-1.457, 1.392e-5
-1.456, 1.314e-5
-1.455, 1.303e-5
-1.454, 1.325e-5
-1.453, 1.310e-5
-1.452, 1.262e-5
-1.451, 1.267e-5
-1.450, 1.210e-5
-1.449, 1.177e-5
-1.448, 1.207e-5
-1.447, 1.154e-5
-1.446, 1.140e-5
-1.445, 1.155e-5
-1.444, 1.144e-5
-1.443, 1.144e-5
-1.442, 1.112e-5
-1.441, 1.079e-5
-1.440, 1.093e-5
-1.439, 1.046e-5
-1.438, 1.047e-5
-1.437, 1.037e-5
-1.436, 9.872e-6
-1.435, 9.624e-6
-1.434, 9.505e-6
-1.433, 9.207e-6
-1.432, 9.157e-6
-1.431, 9.112e-6
-1.430, 9.281e-6
-1.429, 8.793e-6
-1.428, 8.657e-6
-1.427, 8.667e-6
-1.426, 8.909e-6
-1.425, 9.055e-6
-1.424, 8.861e-6
-1.423, 8.099e-6
-1.422, 8.153e-6
-1.421, 8.221e-6
-1.420, 7.665e-6
-1.419, 7.341e-6
-1.418, 7.300e-6
-1.417, 7.322e-6
-1.416, 7.271e-6
-1.415, 6.999e-6
-1.414, 7.108e-6
-1.413, 6.924e-6
-1.412, 6.398e-6
-1.411, 6.220e-6
-1.410, 6.281e-6
-1.409, 6.122e-6
-1.408, 5.905e-6
-1.407, 5.874e-6
-1.406, 5.745e-6
-1.405, 5.688e-6
-1.404, 5.832e-6
-1.403, 5.615e-6
-1.402, 5.531e-6
-1.401, 5.466e-6
-1.400, 5.712e-6
-1.399, 5.588e-6
-1.398, 5.017e-6
-1.397, 5.058e-6
-1.396, 5.039e-6
-1.395, 4.738e-6
-1.394, 4.715e-6
-1.393, 4.656e-6
-1.392, 4.576e-6
-1.391, 4.953e-6
-1.390, 4.618e-6
-1.389, 4.601e-6
-1.388, 4.402e-6
-1.387, 4.334e-6
-1.386, 3.839e-6
-1.385, 3.807e-6
-1.384, 3.667e-6
-1.383, 3.949e-6
-1.382, 3.523e-6
-1.381, 3.513e-6
-1.380, 3.524e-6
-1.379, 3.718e-6
-1.378, 3.477e-6
-1.377, 3.347e-6
-1.376, 3.475e-6
-1.375, 3.291e-6
-1.374, 3.216e-6
-1.373, 3.125e-6
-1.372, 3.260e-6
-1.371, 2.988e-6
-1.370, 2.951e-6
-1.369, 2.793e-6
-1.368, 2.674e-6
-1.367, 2.612e-6
-1.366, 2.521e-6
-1.365, 2.477e-6
-1.364, 2.508e-6
-1.363, 2.356e-6
-1.362, 2.404e-6
-1.361, 2.530e-6
-1.360, 2.289e-6
-1.359, 2.219e-6
-1.358, 2.255e-6
-1.357, 2.116e-6
-1.356, 1.977e-6
-1.355, 1.913e-6
-1.354, 1.894e-6
-1.353, 1.792e-6
-1.352, 1.745e-6
-1.351, 1.592e-6
-1.350, 1.567e-6
-1.349, 1.721e-6
-1.348, 1.715e-6
-1.347, 1.708e-6
-1.346, 1.604e-6
-1.345, 1.495e-6
-1.344, 1.357e-6
-1.343, 1.382e-6
-1.342, 1.333e-6
-1.341, 1.238e-6
-1.340, 1.170e-6
-1.339, 1.184e-6
-1.338, 1.054e-6
-1.337, 9.894e-7
-1.336, 1.007e-6
-1.335, 1.018e-6
-1.334, 9.085e-7
-1.333, 9.163e-7
-1.332, 9.894e-7
-1.331, 8.384e-7
-1.330, 8.433e-7
-1.329, 8.305e-7
-1.328, 7.289e-7
-1.327, 6.579e-7
-1.326, 5.365e-7
-1.325, 5.740e-7
-1.324, 3.984e-7
-1.323, 3.629e-7
-1.322, 2.908e-7
-1.321, 2.593e-7
-1.320, 2.247e-7
-1.319, 2.109e-7
-1.318, 1.843e-7
-1.317, 1.774e-7
-1.316, 1.172e-7
-1.315, 1.310e-7
-1.314, 2.090e-7
-1.313, 1.340e-7
-1.312, 6.689e-8
-1.311, -3.374e-8
-1.310, -1.146e-7
-1.309, -6.334e-8
-1.308, -1.018e-7
-1.307, -1.028e-7
-1.306, -2.113e-7
-1.305, -2.735e-7
-1.304, -2.528e-7
-1.303, -2.981e-7
-1.302, -3.060e-7
-1.301, -3.475e-7
-1.300, -3.721e-7
-1.299, -3.860e-7
-1.298, -4.185e-7
-1.297, -4.422e-7
-1.296, -4.955e-7
-1.295, -4.925e-7
-1.294, -5.547e-7
-1.293, -5.478e-7
-1.292, -5.783e-7
-1.291, -6.533e-7
-1.290, -6.356e-7
-1.289, -6.208e-7
-1.288, -6.287e-7
-1.287, -6.977e-7
-1.286, -7.776e-7
-1.285, -7.924e-7
-1.284, -8.132e-7
-1.283, -8.280e-7
-1.282, -8.625e-7
-1.281, -9.207e-7
-1.280, -9.365e-7
-1.279, -9.365e-7
-1.278, -9.365e-7
-1.277, -9.217e-7
-1.276, -1.017e-6
-1.275, -1.030e-6
-1.274, -1.007e-6
-1.273, -1.039e-6
-1.272, -1.039e-6
-1.271, -1.132e-6
-1.270, -1.110e-6
-1.269, -1.154e-6
-1.268, -1.156e-6
-1.267, -1.169e-6
-1.266, -1.205e-6
-1.265, -1.170e-6
-1.264, -1.210e-6
-1.263, -1.249e-6
-1.262, -1.285e-6
-1.261, -1.303e-6
-1.260, -1.334e-6
-1.259, -1.368e-6
-1.258, -1.366e-6
-1.257, -1.355e-6
-1.256, -1.435e-6
-1.255, -1.424e-6
-1.254, -1.433e-6
-1.253, -1.454e-6
-1.252, -1.524e-6
-1.251, -1.582e-6
-1.250, -1.556e-6
-1.249, -1.589e-6
-1.248, -1.605e-6
-1.247, -1.590e-6
-1.246, -1.643e-6
-1.245, -1.629e-6
-1.244, -1.612e-6
-1.243, -1.659e-6
-1.242, -1.702e-6
-1.241, -1.689e-6
-1.240, -1.674e-6
-1.239, -1.675e-6
-1.238, -1.683e-6
-1.237, -1.709e-6
-1.236, -1.762e-6
-1.235, -1.795e-6
-1.234, -1.772e-6
-1.233, -1.766e-6
-1.232, -1.762e-6
-1.231, -1.816e-6
-1.230, -1.848e-6
-1.229, -1.880e-6
-1.228, -1.838e-6
-1.227, -1.885e-6
-1.226, -1.976e-6
-1.225, -1.969e-6
-1.224, -2.029e-6
-1.223, -2.038e-6
-1.222, -2.051e-6
-1.221, -2.085e-6
-1.220, -2.004e-6
-1.219, -2.043e-6
-1.218, -2.112e-6
-1.217, -2.060e-6
-1.216, -2.121e-6
-1.215, -2.109e-6
-1.214, -2.214e-6
-1.213, -2.153e-6
-1.212, -2.135e-6
-1.211, -2.248e-6
-1.210, -2.251e-6
-1.209, -2.290e-6
-1.208, -2.254e-6
-1.207, -2.227e-6
-1.206, -2.245e-6
-1.205, -2.249e-6
-1.204, -2.218e-6
-1.203, -2.227e-6
-1.202, -2.271e-6
-1.201, -2.433e-6
-1.200, -2.365e-6
-1.199, -2.498e-6
-1.198, -2.652e-6
-1.197, -2.808e-6
-1.196, -2.732e-6
-1.195, -2.688e-6
-1.194, -2.567e-6
-1.193, -2.461e-6
-1.192, -2.537e-6
-1.191, -2.522e-6
-1.190, -2.649e-6
-1.189, -2.566e-6
-1.188, -2.670e-6
-1.187, -2.697e-6
-1.186, -2.775e-6
-1.185, -2.865e-6
-1.184, -2.849e-6
-1.183, -2.867e-6
-1.182, -2.847e-6
-1.181, -2.792e-6
-1.180, -2.753e-6
-1.179, -2.781e-6
-1.178, -2.868e-6
-1.177, -2.970e-6
-1.176, -2.969e-6
-1.175, -2.982e-6
-1.174, -3.102e-6
-1.173, -3.108e-6
-1.172, -3.020e-6
-1.171, -3.087e-6
-1.170, -3.043e-6
-1.169, -3.096e-6
-1.168, -3.152e-6
-1.167, -3.203e-6
-1.166, -3.146e-6
-1.165, -3.217e-6
-1.164, -3.233e-6
-1.163, -3.237e-6
-1.162, -3.162e-6
-1.161, -3.290e-6
-1.160, -3.267e-6
-1.159, -3.275e-6
-1.158, -3.301e-6
-1.157, -3.327e-6
-1.156, -3.390e-6
-1.155, -3.374e-6
-1.154, -3.464e-6
-1.153, -3.647e-6
-1.152, -3.543e-6
-1.151, -3.543e-6
-1.150, -3.474e-6
-1.149, -3.551e-6
-1.148, -3.627e-6
-1.147, -3.682e-6
-1.146, -3.759e-6
-1.145, -3.803e-6
-1.144, -3.913e-6
-1.143, -3.959e-6
-1.142, -4.072e-6
-1.141, -4.258e-6
-1.140, -4.255e-6
-1.139, -4.159e-6
-1.138, -4.163e-6
-1.137, -4.168e-6
-1.136, -4.225e-6
-1.135, -4.240e-6
-1.134, -4.139e-6
-1.133, -4.110e-6
-1.132, -4.116e-6
-1.131, -4.676e-6
-1.130, -4.789e-6
-1.129, -4.345e-6
-1.128, -4.544e-6
-1.127, -4.577e-6
-1.126, -4.646e-6
-1.125, -4.543e-6
-1.124, -4.597e-6
-1.123, -4.766e-6
-1.122, -4.880e-6
-1.121, -4.692e-6
-1.120, -4.601e-6
-1.119, -4.672e-6
-1.118, -4.964e-6
-1.117, -5.016e-6
-1.116, -4.924e-6
-1.115, -4.910e-6
-1.114, -4.998e-6
-1.113, -4.983e-6
-1.112, -5.043e-6
-1.111, -5.180e-6
-1.110, -5.117e-6
-1.109, -5.214e-6
-1.108, -5.302e-6
-1.107, -5.494e-6
-1.106, -5.516e-6
-1.105, -5.533e-6
-1.104, -5.700e-6
-1.103, -5.739e-6
-1.102, -5.864e-6
-1.101, -5.839e-6
-1.100, -5.906e-6
-1.099, -5.904e-6
-1.098, -6.035e-6
-1.097, -5.881e-6
-1.096, -6.059e-6
-1.095, -6.176e-6
-1.094, -6.183e-6
-1.093, -6.123e-6
-1.092, -6.118e-6
-1.091, -6.215e-6
-1.090, -6.221e-6
-1.089, -6.316e-6
-1.088, -6.381e-6
-1.087, -6.439e-6
-1.086, -6.511e-6
-1.085, -6.692e-6
-1.084, -6.772e-6
-1.083, -6.773e-6
-1.082, -6.894e-6
-1.081, -7.228e-6
-1.080, -7.560e-6
-1.079, -7.513e-6
-1.078, -7.845e-6
-1.077, -8.062e-6
-1.076, -8.107e-6
-1.075, -7.798e-6
-1.074, -7.922e-6
-1.073, -7.811e-6
-1.072, -7.817e-6
-1.071, -7.983e-6
-1.070, -8.221e-6
-1.069, -8.422e-6
-1.068, -8.668e-6
-1.067, -8.215e-6
-1.066, -8.464e-6
-1.065, -8.652e-6
-1.064, -8.847e-6
-1.063, -8.810e-6
-1.062, -8.898e-6
-1.061, -8.985e-6
-1.060, -9.233e-6
-1.059, -9.349e-6
-1.058, -9.676e-6
-1.057, -9.470e-6
-1.056, -9.497e-6
-1.055, -9.627e-6
-1.054, -1.004e-5
-1.053, -1.006e-5
-1.052, -1.030e-5
-1.051, -1.027e-5
-1.050, -1.009e-5
-1.049, -1.003e-5
-1.048, -1.018e-5
-1.047, -1.027e-5
-1.046, -1.051e-5
-1.045, -1.054e-5
-1.044, -1.088e-5
-1.043, -1.124e-5
-1.042, -1.150e-5
-1.041, -1.197e-5
-1.040, -1.157e-5
-1.039, -1.156e-5
-1.038, -1.158e-5
-1.037, -1.166e-5
-1.036, -1.188e-5
-1.035, -1.176e-5
-1.034, -1.225e-5
-1.033, -1.226e-5
-1.032, -1.242e-5
-1.031, -1.233e-5
-1.030, -1.250e-5
-1.029, -1.249e-5
-1.028, -1.264e-5
-1.027, -1.299e-5
-1.026, -1.328e-5
-1.025, -1.374e-5
-1.024, -1.445e-5
-1.023, -1.497e-5
-1.022, -1.472e-5
-1.021, -1.455e-5
-1.020, -1.470e-5
-1.019, -1.521e-5
-1.018, -1.533e-5
-1.017, -1.542e-5
-1.016, -1.486e-5
-1.015, -1.532e-5
-1.014, -1.515e-5
-1.013, -1.536e-5
-1.012, -1.577e-5
-1.011, -1.622e-5
-1.010, -1.618e-5
-1.009, -1.643e-5
-1.008, -1.684e-5
-1.007, -1.719e-5
-1.006, -1.744e-5
-1.005, -1.756e-5
-1.004, -1.808e-5
-1.003, -1.789e-5
-1.002, -1.812e-5
-1.001, -1.809e-5
-1.000, -1.629e-5
-1.001, -1.486e-5
-1.002, -1.445e-5
-1.003, -1.350e-5
-1.004, -1.268e-5
-1.005, -1.179e-5
-1.006, -1.103e-5
-1.007, -1.044e-5
-1.008, -9.820e-6
-1.009, -9.251e-6
-1.010, -8.522e-6
-1.011, -8.005e-6
-1.012, -7.688e-6
-1.013, -7.265e-6
-1.014, -6.737e-6
-1.015, -6.443e-6
-1.016, -6.336e-6
-1.017, -6.145e-6
-1.018, -5.711e-6
-1.019, -5.561e-6
-1.020, -5.272e-6
-1.021, -4.952e-6
-1.022, -4.855e-6
-1.023, -4.542e-6
-1.024, -4.236e-6
-1.025, -3.978e-6
-1.026, -3.631e-6
-1.027, -3.292e-6
-1.028, -3.032e-6
-1.029, -2.764e-6
-1.030, -2.582e-6
-1.031, -2.278e-6
-1.032, -1.765e-6
-1.033, -1.592e-6
-1.034, -1.489e-6
-1.035, -1.255e-6
-1.036, -1.251e-6
-1.037, -1.333e-6
-1.038, -1.246e-6
-1.039, -9.848e-7
-1.040, -8.230e-7
-1.041, -6.632e-7
-1.042, -2.587e-7
-1.043, -1.659e-7
-1.044, -7.025e-8
-1.045, 1.123e-7
-1.046, 1.685e-7
-1.047, 3.135e-7
-1.048, 4.171e-7
-1.049, 4.990e-7
-1.050, 6.184e-7
-1.051, 6.825e-7
-1.052, 8.295e-7
-1.053, 8.927e-7
-1.054, 9.815e-7
-1.055, 1.091e-6
-1.056, 1.110e-6
-1.057, 1.243e-6
-1.058, 1.313e-6
-1.059, 1.388e-6
-1.060, 1.465e-6
-1.061, 1.565e-6
-1.062, 1.667e-6
-1.063, 1.707e-6
-1.064, 1.761e-6
-1.065, 1.915e-6
-1.066, 1.919e-6
-1.067, 2.016e-6
-1.068, 2.048e-6
-1.069, 2.139e-6
-1.070, 2.210e-6
-1.071, 2.280e-6
-1.072, 2.334e-6
-1.073, 2.373e-6
-1.074, 2.439e-6
-1.075, 2.578e-6
-1.076, 2.663e-6
-1.077, 2.708e-6
-1.078, 2.703e-6
-1.079, 2.761e-6
-1.080, 2.801e-6
-1.081, 2.878e-6
-1.082, 2.947e-6
-1.083, 2.986e-6
-1.084, 3.074e-6
-1.085, 3.104e-6
-1.086, 3.121e-6
-1.087, 3.164e-6
-1.088, 3.168e-6
-1.089, 3.226e-6
-1.090, 3.320e-6
-1.091, 3.344e-6
-1.092, 3.397e-6
-1.093, 3.396e-6
-1.094, 3.440e-6
-1.095, 3.490e-6
-1.096, 3.517e-6
-1.097, 3.554e-6
-1.098, 3.556e-6
-1.099, 3.592e-6
-1.100, 3.606e-6
-1.101, 3.605e-6
-1.102, 3.629e-6
-1.103, 3.699e-6
-1.104, 3.697e-6
-1.105, 3.786e-6
-1.106, 3.789e-6
-1.107, 3.784e-6
-1.108, 3.784e-6
-1.109, 3.914e-6
-1.110, 3.902e-6
-1.111, 3.923e-6
-1.112, 3.903e-6
-1.113, 3.974e-6
-1.114, 3.966e-6
-1.115, 3.996e-6
-1.116, 4.063e-6
-1.117, 3.943e-6
-1.118, 3.994e-6
-1.119, 3.988e-6
-1.120, 4.069e-6
-1.121, 4.072e-6
-1.122, 4.079e-6
-1.123, 4.112e-6
-1.124, 4.089e-6
-1.125, 4.105e-6
-1.126, 4.102e-6
-1.127, 4.131e-6
-1.128, 4.148e-6
-1.129, 4.180e-6
-1.130, 4.223e-6
-1.131, 4.291e-6
-1.132, 4.342e-6
-1.133, 4.287e-6
-1.134, 4.260e-6
-1.135, 4.259e-6
-1.136, 4.274e-6
-1.137, 4.324e-6
-1.138, 4.333e-6
-1.139, 4.324e-6
-1.140, 4.352e-6
-1.141, 4.363e-6
-1.142, 4.430e-6
-1.143, 4.423e-6
-1.144, 4.477e-6
-1.145, 4.469e-6
-1.146, 4.528e-6
-1.147, 4.503e-6
-1.148, 4.395e-6
-1.149, 4.408e-6
-1.150, 4.435e-6
-1.151, 4.492e-6
-1.152, 4.442e-6
-1.153, 4.451e-6
-1.154, 4.485e-6
-1.155, 4.561e-6
-1.156, 4.583e-6
-1.157, 4.570e-6
-1.158, 4.521e-6
-1.159, 4.546e-6
-1.160, 4.543e-6
-1.161, 4.505e-6
-1.162, 4.567e-6
-1.163, 4.553e-6
-1.164, 4.540e-6
-1.165, 4.585e-6
-1.166, 4.608e-6
-1.167, 4.618e-6
-1.168, 4.663e-6
-1.169, 4.703e-6
-1.170, 4.574e-6
-1.171, 4.534e-6
-1.172, 4.552e-6
-1.173, 4.573e-6
-1.174, 4.602e-6
-1.175, 4.666e-6
-1.176, 4.686e-6
-1.177, 4.715e-6
-1.178, 4.748e-6
-1.179, 4.738e-6
-1.180, 4.684e-6
-1.181, 4.698e-6
-1.182, 4.675e-6
-1.183, 4.687e-6
-1.184, 4.733e-6
-1.185, 4.742e-6
-1.186, 4.765e-6
-1.187, 4.724e-6
-1.188, 4.733e-6
-1.189, 4.735e-6
-1.190, 4.740e-6
-1.191, 4.771e-6
-1.192, 4.700e-6
-1.193, 4.753e-6
-1.194, 4.834e-6
-1.195, 4.849e-6
-1.196, 4.880e-6
-1.197, 4.991e-6
-1.198, 4.821e-6
-1.199, 4.876e-6
-1.200, 4.849e-6
-1.201, 4.849e-6
-1.202, 4.826e-6
-1.203, 4.750e-6
-1.204, 4.870e-6
-1.205, 4.798e-6
-1.206, 4.818e-6
-1.207, 4.860e-6
-1.208, 4.758e-6
-1.209, 4.806e-6
-1.210, 4.781e-6
-1.211, 4.798e-6
-1.212, 4.792e-6
-1.213, 4.825e-6
-1.214, 4.794e-6
-1.215, 4.801e-6
-1.216, 4.825e-6
-1.217, 4.861e-6
-1.218, 4.751e-6
-1.219, 4.812e-6
-1.220, 4.823e-6
-1.221, 4.820e-6
-1.222, 4.820e-6
-1.223, 4.829e-6
-1.224, 4.819e-6
-1.225, 4.813e-6
-1.226, 4.868e-6
-1.227, 4.897e-6
-1.228, 4.907e-6
-1.229, 4.919e-6
-1.230, 4.899e-6
-1.231, 4.873e-6
-1.232, 4.831e-6
-1.233, 4.859e-6
-1.234, 4.915e-6
-1.235, 4.997e-6
-1.236, 4.953e-6
-1.237, 5.017e-6
-1.238, 5.079e-6
-1.239, 4.958e-6
-1.240, 5.002e-6
-1.241, 5.045e-6
-1.242, 5.089e-6
-1.243, 5.041e-6
-1.244, 5.027e-6
-1.245, 5.171e-6
-1.246, 5.115e-6
-1.247, 5.104e-6
-1.248, 5.150e-6
-1.249, 5.132e-6
-1.250, 5.176e-6
-1.251, 5.100e-6
-1.252, 5.104e-6
-1.253, 5.107e-6
-1.254, 5.116e-6
-1.255, 5.102e-6
-1.256, 5.097e-6
-1.257, 5.128e-6
-1.258, 5.133e-6
-1.259, 5.151e-6
-1.260, 5.219e-6
-1.261, 5.189e-6
-1.262, 5.181e-6
-1.263, 5.191e-6
-1.264, 5.194e-6
-1.265, 5.216e-6
-1.266, 5.233e-6
-1.267, 5.200e-6
-1.268, 5.226e-6
-1.269, 5.226e-6
-1.270, 5.268e-6
-1.271, 5.289e-6
-1.272, 5.256e-6
-1.273, 5.279e-6
-1.274, 5.339e-6
-1.275, 5.296e-6
-1.276, 5.298e-6
-1.277, 5.417e-6
-1.278, 5.449e-6
-1.279, 5.511e-6
-1.280, 5.464e-6
-1.281, 5.504e-6
-1.282, 5.624e-6
-1.283, 5.570e-6
-1.284, 5.642e-6
-1.285, 5.630e-6
-1.286, 5.679e-6
-1.287, 5.708e-6
-1.288, 5.744e-6
-1.289, 5.742e-6
-1.290, 5.773e-6
-1.291, 5.798e-6
-1.292, 5.813e-6
-1.293, 5.852e-6
-1.294, 5.862e-6
-1.295, 5.928e-6
-1.296, 5.936e-6
-1.297, 5.997e-6
-1.298, 6.051e-6
-1.299, 6.090e-6
-1.300, 6.077e-6
-1.301, 5.998e-6
-1.302, 6.021e-6
-1.303, 6.082e-6
-1.304, 6.088e-6
-1.305, 6.166e-6
-1.306, 6.187e-6
-1.307, 6.199e-6
-1.308, 6.368e-6
-1.309, 6.424e-6
-1.310, 6.383e-6
-1.311, 6.352e-6
-1.312, 6.276e-6
-1.313, 6.299e-6
-1.314, 6.443e-6
-1.315, 6.524e-6
-1.316, 6.604e-6
-1.317, 6.770e-6
-1.318, 6.969e-6
-1.319, 6.809e-6
-1.320, 6.826e-6
-1.321, 6.872e-6
-1.322, 6.962e-6
-1.323, 7.043e-6
-1.324, 7.078e-6
-1.325, 7.215e-6
-1.326, 7.305e-6
-1.327, 7.391e-6
-1.328, 7.423e-6
-1.329, 7.440e-6
-1.330, 7.531e-6
-1.331, 7.555e-6
-1.332, 7.650e-6
-1.333, 7.666e-6
-1.334, 7.707e-6
-1.335, 7.774e-6
-1.336, 7.792e-6
-1.337, 7.863e-6
-1.338, 7.889e-6
-1.339, 7.970e-6
-1.340, 8.035e-6
-1.341, 8.083e-6
-1.342, 8.191e-6
-1.343, 8.300e-6
-1.344, 8.479e-6
-1.345, 8.531e-6
-1.346, 8.649e-6
-1.347, 8.637e-6
-1.348, 8.709e-6
-1.349, 8.748e-6
-1.350, 8.783e-6
-1.351, 8.942e-6
-1.352, 8.960e-6
-1.353, 9.075e-6
-1.354, 9.354e-6
-1.355, 9.396e-6
-1.356, 9.444e-6
-1.357, 9.403e-6
-1.358, 9.417e-6
-1.359, 9.542e-6
-1.360, 9.977e-6
-1.361, 9.999e-6
-1.362, 1.016e-5
-1.363, 1.042e-5
-1.364, 1.080e-5
-1.365, 1.088e-5
-1.366, 1.057e-5
-1.367, 1.045e-5
-1.368, 1.095e-5
-1.369, 1.091e-5
-1.370, 1.107e-5
-1.371, 1.107e-5
-1.372, 1.122e-5
-1.373, 1.149e-5
-1.374, 1.156e-5
-1.375, 1.193e-5
-1.376, 1.189e-5
-1.377, 1.231e-5
-1.378, 1.254e-5
-1.379, 1.251e-5
-1.380, 1.270e-5
-1.381, 1.281e-5
-1.382, 1.301e-5
-1.383, 1.274e-5
-1.384, 1.208e-5
-1.385, 1.222e-5
-1.386, 1.269e-5
-1.387, 1.319e-5
-1.388, 1.362e-5
-1.389, 1.344e-5
-1.390, 1.372e-5
-1.391, 1.338e-5
-1.392, 1.375e-5
-1.393, 1.438e-5
-1.394, 1.405e-5
-1.395, 1.404e-5
-1.396, 1.436e-5
-1.397, 1.454e-5
-1.398, 1.507e-5
-1.399, 1.510e-5
-1.400, 1.484e-5
-1.401, 1.564e-5
-1.402, 1.574e-5
-1.403, 1.553e-5
-1.404, 1.524e-5
-1.405, 1.540e-5
-1.406, 1.559e-5
-1.407, 1.597e-5
-1.408, 1.603e-5
-1.409, 1.654e-5
-1.410, 1.685e-5
-1.411, 1.731e-5
-1.412, 1.759e-5
-1.413, 1.749e-5
-1.414, 1.748e-5
-1.415, 1.757e-5
-1.416, 1.872e-5
-1.417, 1.867e-5
-1.418, 2.022e-5
-1.419, 1.950e-5
-1.420, 1.984e-5
-1.421, 1.964e-5
-1.422, 2.099e-5
-1.423, 2.151e-5
-1.424, 2.136e-5
-1.425, 2.131e-5
-1.426, 2.234e-5
-1.427, 2.182e-5
-1.428, 2.076e-5
-1.429, 2.147e-5
-1.430, 2.207e-5
-1.431, 2.121e-5
-1.432, 2.093e-5
-1.433, 2.111e-5
-1.434, 2.154e-5
-1.435, 2.260e-5
-1.436, 2.257e-5
-1.437, 2.305e-5
-1.438, 2.252e-5
-1.439, 2.304e-5
-1.440, 2.393e-5
-1.441, 2.403e-5
-1.442, 2.335e-5
-1.443, 2.443e-5
-1.444, 2.613e-5
-1.445, 2.600e-5
-1.446, 2.653e-5
-1.447, 2.679e-5
-1.448, 2.848e-5
-1.449, 2.913e-5
-1.450, 2.940e-5
-1.451, 2.917e-5
-1.452, 2.656e-5
-1.453, 2.675e-5
-1.454, 2.742e-5
-1.455, 2.675e-5
-1.456, 2.748e-5
-1.457, 2.755e-5
-1.458, 2.856e-5
-1.459, 2.895e-5
-1.460, 2.902e-5
-1.461, 2.853e-5
-1.462, 2.893e-5
-1.463, 3.039e-5
-1.464, 2.992e-5
-1.465, 3.093e-5
-1.466, 3.188e-5
-1.467, 3.234e-5
-1.468, 3.192e-5
-1.469, 3.319e-5
-1.470, 3.448e-5
-1.471, 3.609e-5
-1.472, 3.745e-5
-1.473, 3.715e-5
-1.474, 3.912e-5
-1.475, 3.757e-5
-1.476, 3.478e-5
-1.477, 3.424e-5
-1.478, 3.480e-5
-1.479, 3.765e-5
-1.480, 3.569e-5
-1.481, 3.669e-5
-1.482, 3.758e-5
-1.483, 3.848e-5
-1.484, 3.736e-5
-1.485, 3.830e-5
-1.486, 3.951e-5
-1.487, 4.091e-5
-1.488, 3.707e-5
-1.489, 3.729e-5
-1.490, 3.880e-5
-1.491, 4.024e-5
-1.492, 4.059e-5
-1.493, 4.283e-5
-1.494, 4.398e-5
-1.495, 4.636e-5
-1.496, 4.789e-5
-1.497, 4.726e-5
-1.498, 4.887e-5
-1.499, 4.734e-5
-1.500, 4.233e-5
-1.501, 4.275e-5
-1.502, 4.344e-5
-1.503, 4.632e-5
-1.504, 4.626e-5
-1.505, 4.740e-5
-1.506, 4.909e-5
-1.507, 5.115e-5
-1.508, 5.447e-5
-1.509, 5.541e-5
-1.510, 5.059e-5
-1.511, 4.642e-5
-1.512, 4.780e-5
-1.513, 4.934e-5
-1.514, 5.156e-5
-1.515, 5.196e-5
-1.516, 5.168e-5
-1.517, 5.348e-5
-1.518, 5.697e-5
-1.519, 5.802e-5
-1.520, 6.124e-5
-1.521, 6.247e-5
-1.522, 5.727e-5
-1.523, 5.582e-5
-1.524, 5.562e-5
-1.525, 5.525e-5
-1.526, 5.539e-5
-1.527, 5.754e-5
-1.528, 5.898e-5
-1.529, 6.224e-5
-1.530, 6.666e-5
-1.531, 6.704e-5
-1.532, 6.999e-5
-1.533, 6.418e-5
-1.534, 6.226e-5
-1.535, 6.347e-5
-1.536, 6.419e-5
-1.537, 6.797e-5
-1.538, 7.100e-5
-1.539, 7.363e-5
-1.540, 7.398e-5
-1.541, 6.969e-5
-1.542, 6.778e-5
-1.543, 6.855e-5
-1.544, 7.109e-5
-1.545, 7.249e-5
-1.546, 7.480e-5
-1.547, 7.883e-5
-1.548, 8.016e-5
-1.549, 7.798e-5
-1.550, 7.306e-5
-1.551, 6.999e-5
-1.552, 7.249e-5
-1.553, 7.520e-5
-1.554, 8.158e-5
-1.555, 8.483e-5
-1.556, 8.313e-5
-1.557, 7.707e-5
-1.558, 7.639e-5
-1.559, 7.789e-5
-1.560, 7.904e-5
-1.561, 8.284e-5
-1.562, 9.536e-5
-1.563, 1.169e-4
-1.564, 1.089e-4
-1.565, 1.112e-4
-1.566, 9.131e-5
-1.567, 8.305e-5
-1.568, 8.373e-5
-1.569, 8.764e-5
-1.570, 8.964e-5
-1.571, 9.400e-5
-1.572, 9.987e-5
-1.573, 1.033e-4
-1.574, 9.437e-5
-1.575, 9.385e-5
-1.576, 9.825e-5
-1.577, 9.604e-5
-1.578, 1.006e-4
-1.579, 1.085e-4
-1.580, 9.851e-5
-1.581, 9.748e-5
-1.582, 9.865e-5
-1.583, 1.050e-4
-1.584, 1.145e-4
-1.585, 1.142e-4
-1.586, 1.026e-4
-1.587, 1.082e-4
-1.588, 1.099e-4
-1.589, 1.159e-4
-1.590, 1.187e-4
-1.591, 1.063e-4
-1.592, 1.059e-4
-1.593, 1.066e-4
-1.594, 1.108e-4
-1.595, 1.271e-4
-1.596, 1.296e-4
-1.597, 1.131e-4
-1.598, 1.126e-4
-1.599, 1.178e-4
-1.600, 1.267e-4
-1.601, 1.348e-4
-1.602, 1.236e-4
-1.603, 1.176e-4
-1.604, 1.185e-4
-1.605, 1.237e-4
-1.606, 1.330e-4
-1.607, 1.400e-4
-1.608, 1.323e-4
-1.609, 1.273e-4
-1.610, 1.277e-4
-1.611, 1.308e-4
-1.612, 1.337e-4
-1.613, 1.471e-4
-1.614, 1.552e-4
-1.615, 1.437e-4
-1.616, 1.413e-4
-1.617, 1.433e-4
-1.618, 1.491e-4
-1.619, 1.625e-4
-1.620, 1.510e-4
-1.621, 1.436e-4
-1.622, 1.599e-4
-1.623, 1.673e-4
-1.624, 1.492e-4
-1.625, 1.530e-4
-1.626, 1.729e-4
-1.627, 1.960e-4
-1.628, 1.610e-4
-1.629, 1.675e-4
-1.630, 1.869e-4
-1.631, 1.777e-4
-1.632, 1.712e-4
-1.633, 1.791e-4
-1.634, 1.882e-4
-1.635, 1.917e-4
-1.636, 1.786e-4
-1.637, 1.839e-4
-1.638, 1.883e-4
-1.639, 1.939e-4
-1.640, 2.077e-4
-1.641, 1.993e-4
-1.642, 1.947e-4
-1.643, 2.016e-4
-1.644, 2.235e-4
-1.645, 2.092e-4
-1.646, 2.567e-4
-1.647, 2.136e-4
-1.648, 2.161e-4
-1.649, 2.214e-4
-1.650, 2.405e-4
-1.651, 2.592e-4
-1.652, 2.354e-4
-1.653, 2.345e-4
-1.654, 2.440e-4
-1.655, 2.515e-4
-1.656, 2.690e-4
-1.657, 2.575e-4
-1.658, 2.628e-4
-1.659, 2.652e-4
-1.660, 2.672e-4
-1.661, 2.730e-4
-1.662, 2.846e-4
-1.663, 3.003e-4
-1.664, 3.014e-4
-1.665, 2.907e-4
-1.666, 2.990e-4
-1.667, 3.111e-4
-1.668, 3.351e-4
-1.669, 3.341e-4
-1.670, 3.776e-4
-1.671, 3.691e-4
-1.672, 3.847e-4
-1.673, 3.573e-4
-1.674, 3.659e-4
-1.675, 3.900e-4
-1.676, 3.837e-4
-1.677, 3.834e-4
-1.678, 3.944e-4
-1.679, 4.105e-4
-1.680, 4.291e-4
-1.681, 4.327e-4
-1.682, 4.254e-4
-1.683, 4.459e-4
-1.684, 4.649e-4
-1.685, 4.909e-4
-1.686, 4.916e-4
-1.687, 4.941e-4
-1.688, 5.272e-4
-1.689, 5.132e-4
-1.690, 5.270e-4
-1.691, 5.572e-4
-1.692, 5.440e-4
-1.693, 5.950e-4
-1.694, 5.920e-4
-1.695, 5.967e-4
-1.696, 6.303e-4
-1.697, 6.210e-4
-1.698, 6.404e-4
-1.699, 6.920e-4
-1.700, 6.564e-4
-1.699, 6.850e-4
-1.698, 6.267e-4
-1.697, 6.292e-4
-1.696, 6.403e-4
-1.695, 6.040e-4
-1.694, 5.978e-4
-1.693, 6.065e-4
-1.692, 5.928e-4
-1.691, 5.632e-4
-1.690, 5.609e-4
-1.689, 5.638e-4
-1.688, 5.473e-4
-1.687, 5.304e-4
-1.686, 5.246e-4
-1.685, 5.228e-4
-1.684, 5.197e-4
-1.683, 4.846e-4
-1.682, 4.869e-4
-1.681, 4.907e-4
-1.680, 4.739e-4
-1.679, 4.411e-4
-1.678, 4.532e-4
-1.677, 4.394e-4
-1.676, 4.415e-4
-1.675, 4.296e-4
-1.674, 4.447e-4
-1.673, 4.133e-4
-1.672, 4.285e-4
-1.671, 4.429e-4
-1.670, 3.964e-4
-1.669, 3.969e-4
-1.668, 3.832e-4
-1.667, 3.908e-4
-1.666, 3.755e-4
-1.665, 3.530e-4
-1.664, 3.319e-4
-1.663, 3.377e-4
-1.662, 3.289e-4
-1.661, 3.295e-4
-1.660, 3.223e-4
-1.659, 3.054e-4
-1.658, 3.112e-4
-1.657, 3.096e-4
-1.656, 3.252e-4
-1.655, 3.024e-4
-1.654, 3.035e-4
-1.653, 3.053e-4
-1.652, 2.825e-4
-1.651, 2.814e-4
-1.650, 2.959e-4
-1.649, 2.874e-4
-1.648, 2.627e-4
-1.647, 2.450e-4
-1.646, 2.421e-4
-1.645, 2.409e-4
-1.644, 2.574e-4
-1.643, 2.500e-4
-1.642, 2.386e-4
-1.641, 2.280e-4
-1.640, 2.275e-4
-1.639, 2.450e-4
-1.638, 2.334e-4
-1.637, 2.240e-4
-1.636, 2.156e-4
-1.635, 2.023e-4
-1.634, 1.991e-4
-1.633, 1.867e-4
-1.632, 1.839e-4
-1.631, 1.847e-4
-1.630, 1.810e-4
-1.629, 1.697e-4
-1.628, 1.801e-4
-1.627, 1.803e-4
-1.626, 1.827e-4
-1.625, 1.695e-4
-1.624, 1.660e-4
-1.623, 1.612e-4
-1.622, 1.872e-4
-1.621, 1.733e-4
-1.620, 1.784e-4
-1.619, 1.802e-4
-1.618, 1.496e-4
-1.617, 1.423e-4
-1.616, 1.581e-4
-1.615, 1.688e-4
-1.614, 1.525e-4
-1.613, 1.392e-4
-1.612, 1.496e-4
-1.611, 1.454e-4
-1.610, 1.447e-4
-1.609, 1.463e-4
-1.608, 1.486e-4
-1.607, 1.411e-4
-1.606, 1.347e-4
-1.605, 1.409e-4
-1.604, 1.338e-4
-1.603, 1.167e-4
-1.602, 1.263e-4
-1.601, 1.125e-4
-1.600, 1.129e-4
-1.599, 1.210e-4
-1.598, 1.297e-4
-1.597, 1.304e-4
-1.596, 1.188e-4
-1.595, 1.133e-4
-1.594, 1.109e-4
-1.593, 1.096e-4
-1.592, 1.085e-4
-1.591, 9.761e-5
-1.590, 1.092e-4
-1.589, 1.048e-4
-1.588, 9.934e-5
-1.587, 9.011e-5
-1.586, 9.844e-5
-1.585, 8.471e-5
-1.584, 8.466e-5
-1.583, 8.479e-5
-1.582, 8.382e-5
-1.581, 8.292e-5
-1.580, 7.972e-5
-1.579, 7.747e-5
-1.578, 7.450e-5
-1.577, 7.974e-5
-1.576, 7.936e-5
-1.575, 7.888e-5
-1.574, 7.852e-5
-1.573, 7.321e-5
-1.572, 7.239e-5
-1.571, 7.518e-5
-1.570, 7.364e-5
-1.569, 7.310e-5
-1.568, 8.767e-5
-1.567, 7.515e-5
-1.566, 6.707e-5
-1.565, 7.190e-5
-1.564, 7.030e-5
-1.563, 6.509e-5
-1.562, 5.876e-5
-1.561, 5.780e-5
-1.560, 5.912e-5
-1.559, 5.973e-5
-1.558, 5.687e-5
-1.557, 5.508e-5
-1.556, 5.511e-5
-1.555, 5.397e-5
-1.554, 5.243e-5
-1.553, 5.047e-5
-1.552, 4.744e-5
-1.551, 4.755e-5
-1.550, 4.521e-5
-1.549, 4.503e-5
-1.548, 4.369e-5
-1.547, 4.336e-5
-1.546, 4.425e-5
-1.545, 4.331e-5
-1.544, 4.343e-5
-1.543, 4.522e-5
-1.542, 4.481e-5
-1.541, 4.367e-5
-1.540, 4.243e-5
-1.539, 4.284e-5
-1.538, 4.191e-5
-1.537, 4.094e-5
-1.536, 4.785e-5
-1.535, 3.921e-5
-1.534, 4.489e-5
-1.533, 4.539e-5
-1.532, 4.009e-5
-1.531, 3.727e-5
-1.530, 3.706e-5
-1.529, 3.463e-5
-1.528, 3.388e-5
-1.527, 3.551e-5
-1.526, 3.528e-5
-1.525, 3.480e-5
-1.524, 3.390e-5
-1.523, 3.226e-5
-1.522, 3.055e-5
-1.521, 2.961e-5
-1.520, 3.639e-5
-1.519, 3.314e-5
-1.518, 3.010e-5
-1.517, 2.944e-5
-1.516, 2.939e-5
-1.515, 2.876e-5
-1.514, 2.874e-5
-1.513, 2.803e-5
-1.512, 2.844e-5
-1.511, 2.878e-5
-1.510, 2.796e-5
-1.509, 2.739e-5
-1.508, 2.678e-5
-1.507, 2.697e-5
-1.506, 2.753e-5
-1.505, 3.116e-5
-1.504, 2.601e-5
-1.503, 2.550e-5
-1.502, 2.507e-5
-1.501, 3.251e-5
-1.500, 2.617e-5
-1.499, 2.371e-5
-1.498, 2.166e-5
-1.497, 2.075e-5
-1.496, 1.947e-5
-1.495, 1.915e-5
-1.494, 1.897e-5
-1.493, 1.903e-5
-1.492, 1.874e-5
-1.491, 1.825e-5
-1.490, 1.822e-5
-1.489, 1.750e-5
-1.488, 1.741e-5
-1.487, 1.712e-5
-1.486, 1.676e-5
-1.485, 1.665e-5
-1.484, 1.665e-5
-1.483, 1.685e-5
-1.482, 2.355e-5
-1.481, 1.983e-5
-1.480, 1.789e-5
-1.479, 1.776e-5
-1.478, 1.730e-5
-1.477, 1.761e-5
-1.476, 1.673e-5
-1.475, 1.624e-5
-1.474, 1.597e-5
-1.473, 1.660e-5
-1.472, 1.467e-5
-1.471, 1.490e-5
-1.470, 1.401e-5
-1.469, 1.327e-5
-1.468, 1.355e-5
-1.467, 1.297e-5
-1.466, 1.342e-5
-1.465, 1.303e-5
-1.464, 1.370e-5
-1.463, 1.368e-5
-1.462, 1.342e-5
-1.461, 1.350e-5
-1.460, 1.315e-5
-1.459, 1.266e-5
-1.458, 1.270e-5
-1.457, 1.219e-5
-1.456, 1.214e-5
-1.455, 1.192e-5
-1.454, 1.184e-5
-1.453, 1.152e-5
-1.452, 1.079e-5
-1.451, 1.017e-5
-1.450, 1.005e-5
-1.449, 1.008e-5
-1.448, 9.405e-6
-1.447, 9.294e-6
-1.446, 9.183e-6
-1.445, 8.973e-6
-1.444, 8.951e-6
-1.443, 8.806e-6
-1.442, 8.466e-6
-1.441, 8.451e-6
-1.440, 8.645e-6
-1.439, 8.717e-6
-1.438, 8.768e-6
-1.437, 9.061e-6
-1.436, 8.998e-6
-1.435, 8.101e-6
-1.434, 8.157e-6
-1.433, 8.135e-6
-1.432, 7.747e-6
-1.431, 8.232e-6
-1.430, 7.951e-6
-1.429, 7.963e-6
-1.428, 7.264e-6
-1.427, 7.156e-6
-1.426, 7.703e-6
-1.425, 7.069e-6
-1.424, 7.068e-6
-1.423, 6.785e-6
-1.422, 8.984e-6
-1.421, 1.216e-5
-1.420, 8.331e-6
-1.419, 6.559e-6
-1.418, 8.055e-6
-1.417, 6.054e-6
-1.416, 6.100e-6
-1.415, 6.153e-6
-1.414, 5.923e-6
-1.413, 5.741e-6
-1.412, 5.492e-6
-1.411, 5.610e-6
-1.410, 5.371e-6
-1.409, 5.015e-6
-1.408, 4.859e-6
-1.407, 4.692e-6
-1.406, 4.701e-6
-1.405, 4.588e-6
-1.404, 4.529e-6
-1.403, 4.485e-6
-1.402, 4.358e-6
-1.401, 4.354e-6
-1.400, 4.295e-6
-1.399, 4.291e-6
-1.398, 4.198e-6
-1.397, 3.960e-6
-1.396, 3.764e-6
-1.395, 4.044e-6
-1.394, 3.605e-6
-1.393, 3.569e-6
-1.392, 3.777e-6
-1.391, 3.565e-6
-1.390, 3.509e-6
-1.389, 3.424e-6
-1.388, 3.460e-6
-1.387, 3.184e-6
-1.386, 3.087e-6
-1.385, 3.136e-6
-1.384, 3.109e-6
-1.383, 3.832e-6
-1.382, 3.395e-6
-1.381, 3.294e-6
-1.380, 3.056e-6
-1.379, 2.652e-6
-1.378, 2.690e-6
-1.377, 2.533e-6
-1.376, 2.552e-6
-1.375, 2.676e-6
-1.374, 2.582e-6
-1.373, 2.429e-6
-1.372, 2.527e-6
-1.371, 2.637e-6
-1.370, 2.167e-6
-1.369, 2.175e-6
-1.368, 2.086e-6
-1.367, 2.039e-6
-1.366, 1.908e-6
-1.365, 1.906e-6
-1.364, 1.775e-6
-1.363, 1.827e-6
-1.362, 1.828e-6
-1.361, 1.796e-6
-1.360, 1.706e-6
-1.359, 1.666e-6
-1.358, 1.605e-6
-1.357, 1.508e-6
-1.356, 1.575e-6
-1.355, 1.589e-6
-1.354, 1.383e-6
-1.353, 1.360e-6
-1.352, 1.338e-6
-1.351, 1.489e-6
-1.350, 1.417e-6
-1.349, 1.471e-6
-1.348, 1.409e-6
-1.347, 1.250e-6
-1.346, 1.303e-6
-1.345, 1.205e-6
-1.344, 1.150e-6
-1.343, 9.548e-7
-1.342, 9.065e-7
-1.341, 8.483e-7
-1.340, 7.851e-7
-1.339, 7.240e-7
-1.338, 6.431e-7
-1.337, 6.243e-7
-1.336, 5.927e-7
-1.335, 5.188e-7
-1.334, 5.158e-7
-1.333, 5.395e-7
-1.332, 5.089e-7
-1.331, 4.438e-7
-1.330, 4.339e-7
-1.329, 4.319e-7
-1.328, 3.500e-7
-1.327, 2.889e-7
-1.326, 2.573e-7
-1.325, 2.563e-7
-1.324, 2.889e-7
-1.323, 2.001e-7
-1.322, 1.656e-7
-1.321, 1.310e-7
-1.320, 1.300e-7
-1.319, 4.124e-8
-1.318, 6.492e-8
-1.317, 5.209e-8
-1.316, -2.585e-8
-1.315, -3.157e-9
-1.314, -3.867e-8
-1.313, -3.177e-8
-1.312, -9.392e-8
-1.311, -1.314e-7
-1.310, -1.827e-7
-1.309, -1.965e-7
-1.308, -2.133e-7
-1.307, -2.449e-7
-1.306, -2.912e-7
-1.305, -2.873e-7
-1.304, -3.317e-7
-1.303, -3.514e-7
-1.302, -3.643e-7
-1.301, -3.929e-7
-1.300, -4.373e-7
-1.299, -4.146e-7
-1.298, -4.392e-7
-1.297, -4.560e-7
-1.296, -5.379e-7
-1.295, -5.053e-7
-1.294, -6.099e-7
-1.293, -6.079e-7
-1.292, -6.484e-7
-1.291, -6.612e-7
-1.290, -6.681e-7
-1.289, -6.957e-7
-1.288, -7.165e-7
-1.287, -7.638e-7
-1.286, -7.411e-7
-1.285, -8.615e-7
-1.284, -8.329e-7
-1.283, -8.714e-7
-1.282, -8.408e-7
-1.281, -9.197e-7
-1.280, -9.444e-7
-1.279, -9.286e-7
-1.278, -9.286e-7
-1.277, -9.819e-7
-1.276, -1.025e-6
-1.275, -9.720e-7
-1.274, -1.009e-6
-1.273, -1.015e-6
-1.272, -1.097e-6
-1.271, -1.129e-6
-1.270, -1.148e-6
-1.269, -1.146e-6
-1.268, -1.163e-6
-1.267, -1.126e-6
-1.266, -1.130e-6
-1.265, -1.171e-6
-1.264, -1.222e-6
-1.263, -1.171e-6
-1.262, -1.196e-6
-1.261, -1.208e-6
-1.260, -1.222e-6
-1.259, -1.252e-6
-1.258, -1.258e-6
-1.257, -1.329e-6
-1.256, -1.364e-6
-1.255, -1.422e-6
-1.254, -1.464e-6
-1.253, -1.391e-6
-1.252, -1.441e-6
-1.251, -1.446e-6
-1.250, -1.465e-6
-1.249, -1.492e-6
-1.248, -1.406e-6
-1.247, -1.490e-6
-1.246, -1.462e-6
-1.245, -1.506e-6
-1.244, -1.497e-6
-1.243, -1.541e-6
-1.242, -1.592e-6
-1.241, -1.612e-6
-1.240, -1.622e-6
-1.239, -1.606e-6
-1.238, -1.644e-6
-1.237, -1.690e-6
-1.236, -1.715e-6
-1.235, -1.728e-6
-1.234, -1.797e-6
-1.233, -1.725e-6
-1.232, -1.719e-6
-1.231, -1.696e-6
-1.230, -1.702e-6
-1.229, -1.754e-6
-1.228, -1.760e-6
-1.227, -1.913e-6
-1.226, -1.915e-6
-1.225, -1.924e-6
-1.224, -1.904e-6
-1.223, -1.919e-6
-1.222, -2.076e-6
-1.221, -2.071e-6
-1.220, -2.128e-6
-1.219, -2.034e-6
-1.218, -2.044e-6
-1.217, -2.140e-6
-1.216, -2.185e-6
-1.215, -2.077e-6
-1.214, -2.046e-6
-1.213, -2.013e-6
-1.212, -2.073e-6
-1.211, -2.179e-6
-1.210, -2.307e-6
-1.209, -2.233e-6
-1.208, -2.043e-6
-1.207, -2.100e-6
-1.206, -2.121e-6
-1.205, -2.110e-6
-1.204, -2.128e-6
-1.203, -2.199e-6
-1.202, -2.210e-6
-1.201, -2.381e-6
-1.200, -2.431e-6
-1.199, -2.407e-6
-1.198, -2.478e-6
-1.197, -2.333e-6
-1.196, -2.293e-6
-1.195, -2.329e-6
-1.194, -2.347e-6
-1.193, -2.604e-6
-1.192, -2.564e-6
-1.191, -2.498e-6
-1.190, -2.499e-6
-1.189, -2.486e-6
-1.188, -2.565e-6
-1.187, -2.574e-6
-1.186, -2.660e-6
-1.185, -2.779e-6
-1.184, -2.833e-6
-1.183, -2.823e-6
-1.182, -2.529e-6
-1.181, -2.517e-6
-1.180, -2.539e-6
-1.179, -2.612e-6
-1.178, -2.599e-6
-1.177, -2.659e-6
-1.176, -2.684e-6
-1.175, -2.747e-6
-1.174, -2.801e-6
-1.173, -2.781e-6
-1.172, -2.794e-6
-1.171, -2.770e-6
-1.170, -2.775e-6
-1.169, -2.796e-6
-1.168, -2.837e-6
-1.167, -2.843e-6
-1.166, -2.991e-6
-1.165, -2.973e-6
-1.164, -3.005e-6
-1.163, -3.020e-6
-1.162, -3.010e-6
-1.161, -3.027e-6
-1.160, -3.092e-6
-1.159, -3.011e-6
-1.158, -3.032e-6
-1.157, -3.082e-6
-1.156, -3.173e-6
-1.155, -3.239e-6
-1.154, -3.190e-6
-1.153, -3.197e-6
-1.152, -3.217e-6
-1.151, -3.212e-6
-1.150, -3.309e-6
-1.149, -3.306e-6
-1.148, -3.384e-6
-1.147, -3.469e-6
-1.146, -3.521e-6
-1.145, -3.484e-6
-1.144, -3.525e-6
-1.143, -3.773e-6
-1.142, -3.824e-6
-1.141, -3.836e-6
-1.140, -3.793e-6
-1.139, -3.866e-6
-1.138, -3.808e-6
-1.137, -3.807e-6
-1.136, -3.869e-6
-1.135, -3.897e-6
-1.134, -3.945e-6
-1.133, -4.033e-6
-1.132, -4.101e-6
-1.131, -4.097e-6
-1.130, -4.179e-6
-1.129, -4.265e-6
-1.128, -4.291e-6
-1.127, -4.277e-6
-1.126, -4.315e-6
-1.125, -4.263e-6
-1.124, -4.357e-6
-1.123, -4.496e-6
-1.122, -4.501e-6
-1.121, -4.542e-6
-1.120, -4.656e-6
-1.119, -4.812e-6
-1.118, -5.028e-6
-1.117, -4.683e-6
-1.116, -4.808e-6
-1.115, -4.911e-6
-1.114, -4.910e-6
-1.113, -5.017e-6
-1.112, -5.270e-6
-1.111, -5.342e-6
-1.110, -5.411e-6
-1.109, -5.553e-6
-1.108, -5.839e-6
-1.107, -5.550e-6
-1.106, -5.203e-6
-1.105, -5.135e-6
-1.104, -5.193e-6
-1.103, -5.312e-6
-1.102, -5.396e-6
-1.101, -5.386e-6
-1.100, -5.430e-6
-1.099, -5.512e-6
-1.098, -5.555e-6
-1.097, -5.678e-6
-1.096, -5.800e-6
-1.095, -5.983e-6
-1.094, -6.053e-6
-1.093, -6.101e-6
-1.092, -6.128e-6
-1.091, -6.206e-6
-1.090, -6.094e-6
-1.089, -6.133e-6
-1.088, -6.245e-6
-1.087, -6.391e-6
-1.086, -6.515e-6
-1.085, -6.776e-6
-1.084, -7.559e-6
-1.083, -7.412e-6
-1.082, -7.321e-6
-1.081, -7.353e-6
-1.080, -7.412e-6
-1.079, -7.399e-6
-1.078, -7.413e-6
-1.077, -7.565e-6
-1.076, -7.596e-6
-1.075, -7.767e-6
-1.074, -7.780e-6
-1.073, -7.799e-6
-1.072, -7.857e-6
-1.071, -7.948e-6
-1.070, -7.956e-6
-1.069, -8.050e-6
-1.068, -8.128e-6
-1.067, -8.397e-6
-1.066, -8.397e-6
-1.065, -8.524e-6
-1.064, -8.605e-6
-1.063, -8.616e-6
-1.062, -8.727e-6
-1.061, -8.845e-6
-1.060, -8.885e-6
-1.059, -8.907e-6
-1.058, -9.100e-6
-1.057, -9.134e-6
-1.056, -9.336e-6
-1.055, -9.443e-6
-1.054, -9.507e-6
-1.053, -9.570e-6
-1.052, -9.820e-6
-1.051, -9.858e-6
-1.050, -1.019e-5
-1.049, -1.034e-5
-1.048, -1.057e-5
-1.047, -1.055e-5
-1.046, -1.058e-5
-1.045, -1.076e-5
-1.044, -1.083e-5
-1.043, -1.110e-5
-1.042, -1.121e-5
-1.041, -1.139e-5
-1.040, -1.166e-5
-1.039, -1.177e-5
-1.038, -1.153e-5
-1.037, -1.148e-5
-1.036, -1.189e-5
-1.035, -1.232e-5
-1.034, -1.287e-5
-1.033, -1.237e-5
-1.032, -1.270e-5
-1.031, -1.249e-5
-1.030, -1.270e-5
-1.029, -1.274e-5
-1.028, -1.284e-5
-1.027, -1.302e-5
-1.026, -1.325e-5
-1.025, -1.353e-5
-1.024, -1.402e-5
-1.023, -1.444e-5
-1.022, -1.454e-5
-1.021, -1.423e-5
-1.020, -1.430e-5
-1.019, -1.470e-5
-1.018, -1.483e-5
-1.017, -1.544e-5
-1.016, -1.562e-5
-1.015, -1.558e-5
-1.014, -1.636e-5
-1.013, -1.632e-5
-1.012, -1.600e-5
-1.011, -1.612e-5
-1.010, -1.634e-5
-1.009, -1.658e-5
-1.008, -1.671e-5
-1.007, -1.696e-5
-1.006, -1.724e-5
-1.005, -1.761e-5
-1.004, -1.816e-5
-1.003, -1.857e-5
-1.002, -1.881e-5
-1.001, -1.886e-5
