Dec. 29, 2024   07:19:41
Cyclic Voltammetry
File: c:/users/guazh/data/banditlqround7_x0exp136_r20/2024-12-24-exp775\exp775-2024-12-29t07_14_45-h2koh\exp775_cv_50mvs_efin_-1400mv.bin
Data Source:  Experiment
Instrument Model:  CHI760E
Header: CV ran at 50 mVs
Note: 

Init E (V) = -1
High E (V) = -1
Low E (V) = -1.4
Final E (V) = -1
Init P/N = N
Scan Rate (V/s) = 0.05
Segment = 7
Sample Interval (V) = 0.001
Quiet Time (sec) = 60
Sensitivity (A/V) = 0.001
Comp R (ohm) = 1.4

Results:

Channel 1:
Segment 1:
Ep = -1.297V
ip = 1.348e-3A
Ah = 1.745e-3C

Segment 2:
Ep = -1.120V
ip = -1.560e-4A
Ah = -1.572e-4C

Segment 3:
Ep = -1.238V
ip = 2.306e-4A
Ah = 2.926e-4C

Segment 4:
Ep = -1.120V
ip = -7.495e-5A
Ah = -8.182e-5C

Segment 5:
Ep = -1.228V
ip = 1.286e-4A
Ah = 1.706e-4C

Segment 6:
Ep = -1.131V
ip = -3.164e-5A
Ah = -3.181e-5C

Segment 7:

Potential/V, Current/A

-1.000, 1.106e-5
-1.001, 1.646e-5
-1.002, 1.873e-5
-1.003, 1.735e-5
-1.004, 1.526e-5
-1.005, 1.546e-5
-1.006, 1.764e-5
-1.007, 1.968e-5
-1.008, 1.826e-5
-1.009, 1.602e-5
-1.010, 1.623e-5
-1.011, 1.846e-5
-1.012, 2.029e-5
-1.013, 1.889e-5
-1.014, 1.667e-5
-1.015, 1.692e-5
-1.016, 1.894e-5
-1.017, 2.079e-5
-1.018, 1.947e-5
-1.019, 1.721e-5
-1.020, 1.727e-5
-1.021, 1.954e-5
-1.022, 2.139e-5
-1.023, 2.003e-5
-1.024, 1.775e-5
-1.025, 1.773e-5
-1.026, 2.026e-5
-1.027, 2.168e-5
-1.028, 2.050e-5
-1.029, 1.821e-5
-1.030, 1.812e-5
-1.031, 2.073e-5
-1.032, 2.221e-5
-1.033, 2.085e-5
-1.034, 1.874e-5
-1.035, 1.869e-5
-1.036, 2.114e-5
-1.037, 2.287e-5
-1.038, 2.137e-5
-1.039, 1.934e-5
-1.040, 1.920e-5
-1.041, 2.152e-5
-1.042, 2.344e-5
-1.043, 2.194e-5
-1.044, 1.972e-5
-1.045, 1.981e-5
-1.046, 2.212e-5
-1.047, 2.393e-5
-1.048, 2.241e-5
-1.049, 2.023e-5
-1.050, 2.036e-5
-1.051, 2.263e-5
-1.052, 2.446e-5
-1.053, 2.298e-5
-1.054, 2.072e-5
-1.055, 2.107e-5
-1.056, 2.316e-5
-1.057, 2.493e-5
-1.058, 2.367e-5
-1.059, 2.132e-5
-1.060, 2.155e-5
-1.061, 2.381e-5
-1.062, 2.565e-5
-1.063, 2.433e-5
-1.064, 2.197e-5
-1.065, 2.212e-5
-1.066, 2.463e-5
-1.067, 2.616e-5
-1.068, 2.497e-5
-1.069, 2.269e-5
-1.070, 2.279e-5
-1.071, 2.545e-5
-1.072, 2.690e-5
-1.073, 2.554e-5
-1.074, 2.352e-5
-1.075, 2.376e-5
-1.076, 2.609e-5
-1.077, 2.785e-5
-1.078, 2.634e-5
-1.079, 2.441e-5
-1.080, 2.440e-5
-1.081, 2.678e-5
-1.082, 2.880e-5
-1.083, 2.727e-5
-1.084, 2.530e-5
-1.085, 2.536e-5
-1.086, 2.777e-5
-1.087, 2.977e-5
-1.088, 2.814e-5
-1.089, 2.619e-5
-1.090, 2.647e-5
-1.091, 2.876e-5
-1.092, 3.082e-5
-1.093, 2.930e-5
-1.094, 2.731e-5
-1.095, 2.760e-5
-1.096, 3.005e-5
-1.097, 3.183e-5
-1.098, 3.082e-5
-1.099, 2.849e-5
-1.100, 2.894e-5
-1.101, 3.151e-5
-1.102, 3.318e-5
-1.103, 3.222e-5
-1.104, 3.010e-5
-1.105, 3.037e-5
-1.106, 3.312e-5
-1.107, 3.501e-5
-1.108, 3.400e-5
-1.109, 3.195e-5
-1.110, 3.221e-5
-1.111, 3.509e-5
-1.112, 3.708e-5
-1.113, 3.598e-5
-1.114, 3.420e-5
-1.115, 3.452e-5
-1.116, 3.729e-5
-1.117, 3.947e-5
-1.118, 3.845e-5
-1.119, 3.695e-5
-1.120, 3.711e-5
-1.121, 4.012e-5
-1.122, 4.258e-5
-1.123, 4.151e-5
-1.124, 4.001e-5
-1.125, 4.056e-5
-1.126, 4.347e-5
-1.127, 4.608e-5
-1.128, 4.528e-5
-1.129, 4.382e-5
-1.130, 4.474e-5
-1.131, 4.767e-5
-1.132, 5.056e-5
-1.133, 4.985e-5
-1.134, 4.851e-5
-1.135, 4.982e-5
-1.136, 5.275e-5
-1.137, 5.570e-5
-1.138, 5.539e-5
-1.139, 5.410e-5
-1.140, 5.523e-5
-1.141, 5.869e-5
-1.142, 6.183e-5
-1.143, 6.179e-5
-1.144, 6.080e-5
-1.145, 6.191e-5
-1.146, 6.579e-5
-1.147, 6.922e-5
-1.148, 6.948e-5
-1.149, 6.865e-5
-1.150, 7.013e-5
-1.151, 7.426e-5
-1.152, 7.794e-5
-1.153, 7.846e-5
-1.154, 7.820e-5
-1.155, 7.972e-5
-1.156, 8.428e-5
-1.157, 8.818e-5
-1.158, 8.921e-5
-1.159, 8.915e-5
-1.160, 9.120e-5
-1.161, 9.591e-5
-1.162, 1.006e-4
-1.163, 1.017e-4
-1.164, 1.021e-4
-1.165, 1.045e-4
-1.166, 1.095e-4
-1.167, 1.147e-4
-1.168, 1.164e-4
-1.169, 1.172e-4
-1.170, 1.200e-4
-1.171, 1.254e-4
-1.172, 1.310e-4
-1.173, 1.332e-4
-1.174, 1.345e-4
-1.175, 1.378e-4
-1.176, 1.436e-4
-1.177, 1.499e-4
-1.178, 1.532e-4
-1.179, 1.544e-4
-1.180, 1.583e-4
-1.181, 1.648e-4
-1.182, 1.715e-4
-1.183, 1.753e-4
-1.184, 1.773e-4
-1.185, 1.816e-4
-1.186, 1.890e-4
-1.187, 1.960e-4
-1.188, 2.005e-4
-1.189, 2.033e-4
-1.190, 2.083e-4
-1.191, 2.163e-4
-1.192, 2.243e-4
-1.193, 2.296e-4
-1.194, 2.331e-4
-1.195, 2.387e-4
-1.196, 2.477e-4
-1.197, 2.566e-4
-1.198, 2.627e-4
-1.199, 2.671e-4
-1.200, 2.734e-4
-1.201, 2.831e-4
-1.202, 2.931e-4
-1.203, 2.999e-4
-1.204, 3.056e-4
-1.205, 3.129e-4
-1.206, 3.237e-4
-1.207, 3.351e-4
-1.208, 3.423e-4
-1.209, 3.488e-4
-1.210, 3.571e-4
-1.211, 3.684e-4
-1.212, 3.807e-4
-1.213, 3.895e-4
-1.214, 3.969e-4
-1.215, 4.065e-4
-1.216, 4.186e-4
-1.217, 4.319e-4
-1.218, 4.418e-4
-1.219, 4.503e-4
-1.220, 4.608e-4
-1.221, 4.742e-4
-1.222, 4.884e-4
-1.223, 4.997e-4
-1.224, 5.089e-4
-1.225, 5.203e-4
-1.226, 5.350e-4
-1.227, 5.503e-4
-1.228, 5.626e-4
-1.229, 5.741e-4
-1.230, 5.858e-4
-1.231, 6.016e-4
-1.232, 6.175e-4
-1.233, 6.311e-4
-1.234, 6.428e-4
-1.235, 6.562e-4
-1.236, 6.730e-4
-1.237, 6.895e-4
-1.238, 7.038e-4
-1.239, 7.164e-4
-1.240, 7.299e-4
-1.241, 7.474e-4
-1.242, 7.658e-4
-1.243, 7.803e-4
-1.244, 7.931e-4
-1.245, 8.075e-4
-1.246, 8.250e-4
-1.247, 8.438e-4
-1.248, 8.588e-4
-1.249, 8.720e-4
-1.250, 8.871e-4
-1.251, 9.051e-4
-1.252, 9.240e-4
-1.253, 9.393e-4
-1.254, 9.529e-4
-1.255, 9.681e-4
-1.256, 9.858e-4
-1.257, 1.005e-3
-1.258, 1.020e-3
-1.259, 1.033e-3
-1.260, 1.047e-3
-1.261, 1.065e-3
-1.262, 1.083e-3
-1.263, 1.098e-3
-1.264, 1.110e-3
-1.265, 1.124e-3
-1.266, 1.141e-3
-1.267, 1.158e-3
-1.268, 1.171e-3
-1.269, 1.183e-3
-1.270, 1.195e-3
-1.271, 1.211e-3
-1.272, 1.227e-3
-1.273, 1.239e-3
-1.274, 1.249e-3
-1.275, 1.260e-3
-1.276, 1.274e-3
-1.277, 1.287e-3
-1.278, 1.297e-3
-1.279, 1.304e-3
-1.280, 1.316e-3
-1.281, 1.327e-3
-1.282, 1.336e-3
-1.283, 1.341e-3
-1.284, 1.346e-3
-1.285, 1.352e-3
-1.286, 1.361e-3
-1.287, 1.370e-3
-1.288, 1.374e-3
-1.289, 1.376e-3
-1.290, 1.380e-3
-1.291, 1.385e-3
-1.292, 1.391e-3
-1.293, 1.392e-3
-1.294, 1.390e-3
-1.295, 1.390e-3
-1.296, 1.393e-3
-1.297, 1.395e-3
-1.298, 1.394e-3
-1.299, 1.391e-3
-1.300, 1.387e-3
-1.301, 1.384e-3
-1.302, 1.380e-3
-1.303, 1.372e-3
-1.304, 1.361e-3
-1.305, 1.350e-3
-1.306, 1.343e-3
-1.307, 1.333e-3
-1.308, 1.317e-3
-1.309, 1.299e-3
-1.310, 1.281e-3
-1.311, 1.263e-3
-1.312, 1.243e-3
-1.313, 1.219e-3
-1.314, 1.191e-3
-1.315, 1.162e-3
-1.316, 1.135e-3
-1.317, 1.104e-3
-1.318, 1.072e-3
-1.319, 1.038e-3
-1.320, 1.006e-3
-1.321, 9.764e-4
-1.322, 9.485e-4
-1.323, 9.181e-4
-1.324, 8.877e-4
-1.325, 8.624e-4
-1.326, 8.399e-4
-1.327, 8.208e-4
-1.328, 8.000e-4
-1.329, 7.826e-4
-1.330, 7.713e-4
-1.331, 7.573e-4
-1.332, 7.451e-4
-1.333, 7.276e-4
-1.334, 7.162e-4
-1.335, 7.069e-4
-1.336, 7.008e-4
-1.337, 6.951e-4
-1.338, 6.876e-4
-1.339, 6.825e-4
-1.340, 6.848e-4
-1.341, 6.837e-4
-1.342, 6.862e-4
-1.343, 6.858e-4
-1.344, 6.806e-4
-1.345, 6.799e-4
-1.346, 6.812e-4
-1.347, 6.806e-4
-1.348, 6.789e-4
-1.349, 6.762e-4
-1.350, 6.714e-4
-1.351, 6.716e-4
-1.352, 6.701e-4
-1.353, 6.647e-4
-1.354, 6.599e-4
-1.355, 6.539e-4
-1.356, 6.536e-4
-1.357, 6.572e-4
-1.358, 6.537e-4
-1.359, 6.495e-4
-1.360, 6.462e-4
-1.361, 6.466e-4
-1.362, 6.460e-4
-1.363, 6.409e-4
-1.364, 6.364e-4
-1.365, 6.318e-4
-1.366, 6.351e-4
-1.367, 6.403e-4
-1.368, 6.340e-4
-1.369, 6.298e-4
-1.370, 6.244e-4
-1.371, 6.258e-4
-1.372, 6.322e-4
-1.373, 6.321e-4
-1.374, 6.323e-4
-1.375, 6.305e-4
-1.376, 6.343e-4
-1.377, 6.419e-4
-1.378, 6.514e-4
-1.379, 6.488e-4
-1.380, 6.440e-4
-1.381, 6.462e-4
-1.382, 6.647e-4
-1.383, 6.645e-4
-1.384, 6.724e-4
-1.385, 6.790e-4
-1.386, 6.860e-4
-1.387, 6.943e-4
-1.388, 7.000e-4
-1.389, 7.000e-4
-1.390, 7.041e-4
-1.391, 7.132e-4
-1.392, 7.227e-4
-1.393, 7.363e-4
-1.394, 7.444e-4
-1.395, 7.558e-4
-1.396, 7.688e-4
-1.397, 7.821e-4
-1.398, 7.937e-4
-1.399, 7.971e-4
-1.400, 7.701e-4
-1.399, 7.390e-4
-1.398, 7.181e-4
-1.397, 6.973e-4
-1.396, 6.737e-4
-1.395, 6.588e-4
-1.394, 6.434e-4
-1.393, 6.193e-4
-1.392, 6.032e-4
-1.391, 5.915e-4
-1.390, 5.835e-4
-1.389, 5.705e-4
-1.388, 5.576e-4
-1.387, 5.461e-4
-1.386, 5.309e-4
-1.385, 5.181e-4
-1.384, 5.086e-4
-1.383, 4.977e-4
-1.382, 4.872e-4
-1.381, 4.721e-4
-1.380, 4.620e-4
-1.379, 4.546e-4
-1.378, 4.527e-4
-1.377, 4.478e-4
-1.376, 4.397e-4
-1.375, 4.218e-4
-1.374, 4.111e-4
-1.373, 4.035e-4
-1.372, 3.917e-4
-1.371, 3.764e-4
-1.370, 3.662e-4
-1.369, 3.608e-4
-1.368, 3.546e-4
-1.367, 3.473e-4
-1.366, 3.341e-4
-1.365, 3.257e-4
-1.364, 3.208e-4
-1.363, 3.142e-4
-1.362, 3.046e-4
-1.361, 2.966e-4
-1.360, 2.863e-4
-1.359, 2.789e-4
-1.358, 2.741e-4
-1.357, 2.661e-4
-1.356, 2.573e-4
-1.355, 2.484e-4
-1.354, 2.440e-4
-1.353, 2.405e-4
-1.352, 2.347e-4
-1.351, 2.247e-4
-1.350, 2.153e-4
-1.349, 2.095e-4
-1.348, 2.057e-4
-1.347, 1.997e-4
-1.346, 1.906e-4
-1.345, 1.821e-4
-1.344, 1.781e-4
-1.343, 1.734e-4
-1.342, 1.671e-4
-1.341, 1.578e-4
-1.340, 1.499e-4
-1.339, 1.455e-4
-1.338, 1.416e-4
-1.337, 1.340e-4
-1.336, 1.275e-4
-1.335, 1.219e-4
-1.334, 1.188e-4
-1.333, 1.157e-4
-1.332, 1.089e-4
-1.331, 1.010e-4
-1.330, 9.525e-5
-1.329, 9.262e-5
-1.328, 9.014e-5
-1.327, 8.432e-5
-1.326, 7.795e-5
-1.325, 7.354e-5
-1.324, 7.198e-5
-1.323, 6.986e-5
-1.322, 6.542e-5
-1.321, 5.895e-5
-1.320, 5.445e-5
-1.319, 5.314e-5
-1.318, 5.114e-5
-1.317, 4.704e-5
-1.316, 4.061e-5
-1.315, 3.659e-5
-1.314, 3.553e-5
-1.313, 3.446e-5
-1.312, 3.075e-5
-1.311, 2.549e-5
-1.310, 2.206e-5
-1.309, 2.172e-5
-1.308, 2.116e-5
-1.307, 1.757e-5
-1.306, 1.227e-5
-1.305, 8.812e-6
-1.304, 8.943e-6
-1.303, 8.640e-6
-1.302, 5.367e-6
-1.301, 1.009e-6
-1.300, -1.791e-6
-1.299, -1.591e-6
-1.298, -1.300e-6
-1.297, -4.172e-6
-1.296, -8.350e-6
-1.295, -1.080e-5
-1.294, -1.025e-5
-1.293, -9.394e-6
-1.292, -1.188e-5
-1.291, -1.581e-5
-1.290, -1.775e-5
-1.289, -1.688e-5
-1.288, -1.599e-5
-1.287, -1.830e-5
-1.286, -2.229e-5
-1.285, -2.383e-5
-1.284, -2.293e-5
-1.283, -2.187e-5
-1.282, -2.354e-5
-1.281, -2.754e-5
-1.280, -2.926e-5
-1.279, -2.761e-5
-1.278, -2.653e-5
-1.277, -2.807e-5
-1.276, -3.161e-5
-1.275, -3.332e-5
-1.274, -3.163e-5
-1.273, -3.025e-5
-1.272, -3.187e-5
-1.271, -3.522e-5
-1.270, -3.677e-5
-1.269, -3.503e-5
-1.268, -3.347e-5
-1.267, -3.523e-5
-1.266, -3.823e-5
-1.265, -3.982e-5
-1.264, -3.811e-5
-1.263, -3.664e-5
-1.262, -3.814e-5
-1.261, -4.123e-5
-1.260, -4.268e-5
-1.259, -4.108e-5
-1.258, -3.929e-5
-1.257, -4.097e-5
-1.256, -4.405e-5
-1.255, -4.538e-5
-1.254, -4.410e-5
-1.253, -4.214e-5
-1.252, -4.377e-5
-1.251, -4.706e-5
-1.250, -4.831e-5
-1.249, -4.698e-5
-1.248, -4.509e-5
-1.247, -4.662e-5
-1.246, -5.011e-5
-1.245, -5.138e-5
-1.244, -5.005e-5
-1.243, -4.840e-5
-1.242, -4.981e-5
-1.241, -5.337e-5
-1.240, -5.473e-5
-1.239, -5.333e-5
-1.238, -5.196e-5
-1.237, -5.324e-5
-1.236, -5.662e-5
-1.235, -5.846e-5
-1.234, -5.705e-5
-1.233, -5.589e-5
-1.232, -5.724e-5
-1.231, -6.054e-5
-1.230, -6.268e-5
-1.229, -6.178e-5
-1.228, -5.990e-5
-1.227, -6.173e-5
-1.226, -6.500e-5
-1.225, -6.719e-5
-1.224, -6.591e-5
-1.223, -6.457e-5
-1.222, -6.660e-5
-1.221, -7.016e-5
-1.220, -7.219e-5
-1.219, -7.128e-5
-1.218, -6.999e-5
-1.217, -7.203e-5
-1.216, -7.554e-5
-1.215, -7.805e-5
-1.214, -7.747e-5
-1.213, -7.631e-5
-1.212, -7.827e-5
-1.211, -8.234e-5
-1.210, -8.475e-5
-1.209, -8.431e-5
-1.208, -8.309e-5
-1.207, -8.527e-5
-1.206, -8.968e-5
-1.205, -9.209e-5
-1.204, -9.186e-5
-1.203, -9.129e-5
-1.202, -9.344e-5
-1.201, -9.811e-5
-1.200, -1.007e-4
-1.199, -1.007e-4
-1.198, -1.001e-4
-1.197, -1.023e-4
-1.196, -1.070e-4
-1.195, -1.101e-4
-1.194, -1.102e-4
-1.193, -1.101e-4
-1.192, -1.123e-4
-1.191, -1.172e-4
-1.190, -1.207e-4
-1.189, -1.209e-4
-1.188, -1.208e-4
-1.187, -1.236e-4
-1.186, -1.285e-4
-1.185, -1.321e-4
-1.184, -1.325e-4
-1.183, -1.325e-4
-1.182, -1.356e-4
-1.181, -1.405e-4
-1.180, -1.441e-4
-1.179, -1.450e-4
-1.178, -1.454e-4
-1.177, -1.483e-4
-1.176, -1.534e-4
-1.175, -1.572e-4
-1.174, -1.582e-4
-1.173, -1.583e-4
-1.172, -1.613e-4
-1.171, -1.670e-4
-1.170, -1.708e-4
-1.169, -1.720e-4
-1.168, -1.719e-4
-1.167, -1.751e-4
-1.166, -1.807e-4
-1.165, -1.846e-4
-1.164, -1.856e-4
-1.163, -1.861e-4
-1.162, -1.891e-4
-1.161, -1.948e-4
-1.160, -1.985e-4
-1.159, -1.999e-4
-1.158, -2.003e-4
-1.157, -2.031e-4
-1.156, -2.087e-4
-1.155, -2.128e-4
-1.154, -2.137e-4
-1.153, -2.143e-4
-1.152, -2.172e-4
-1.151, -2.224e-4
-1.150, -2.266e-4
-1.149, -2.273e-4
-1.148, -2.276e-4
-1.147, -2.305e-4
-1.146, -2.356e-4
-1.145, -2.397e-4
-1.144, -2.405e-4
-1.143, -2.403e-4
-1.142, -2.431e-4
-1.141, -2.483e-4
-1.140, -2.518e-4
-1.139, -2.525e-4
-1.138, -2.521e-4
-1.137, -2.545e-4
-1.136, -2.590e-4
-1.135, -2.626e-4
-1.134, -2.631e-4
-1.133, -2.622e-4
-1.132, -2.643e-4
-1.131, -2.688e-4
-1.130, -2.714e-4
-1.129, -2.715e-4
-1.128, -2.701e-4
-1.127, -2.716e-4
-1.126, -2.757e-4
-1.125, -2.777e-4
-1.124, -2.769e-4
-1.123, -2.753e-4
-1.122, -2.760e-4
-1.121, -2.793e-4
-1.120, -2.807e-4
-1.119, -2.794e-4
-1.118, -2.771e-4
-1.117, -2.771e-4
-1.116, -2.796e-4
-1.115, -2.806e-4
-1.114, -2.782e-4
-1.113, -2.755e-4
-1.112, -2.748e-4
-1.111, -2.765e-4
-1.110, -2.768e-4
-1.109, -2.737e-4
-1.108, -2.700e-4
-1.107, -2.688e-4
-1.106, -2.698e-4
-1.105, -2.694e-4
-1.104, -2.654e-4
-1.103, -2.616e-4
-1.102, -2.603e-4
-1.101, -2.613e-4
-1.100, -2.606e-4
-1.099, -2.570e-4
-1.098, -2.520e-4
-1.097, -2.501e-4
-1.096, -2.500e-4
-1.095, -2.483e-4
-1.094, -2.439e-4
-1.093, -2.385e-4
-1.092, -2.362e-4
-1.091, -2.360e-4
-1.090, -2.339e-4
-1.089, -2.295e-4
-1.088, -2.244e-4
-1.087, -2.221e-4
-1.086, -2.223e-4
-1.085, -2.205e-4
-1.084, -2.159e-4
-1.083, -2.110e-4
-1.082, -2.087e-4
-1.081, -2.088e-4
-1.080, -2.070e-4
-1.079, -2.028e-4
-1.078, -1.985e-4
-1.077, -1.963e-4
-1.076, -1.968e-4
-1.075, -1.956e-4
-1.074, -1.913e-4
-1.073, -1.870e-4
-1.072, -1.852e-4
-1.071, -1.858e-4
-1.070, -1.848e-4
-1.069, -1.809e-4
-1.068, -1.767e-4
-1.067, -1.758e-4
-1.066, -1.768e-4
-1.065, -1.770e-4
-1.064, -1.739e-4
-1.063, -1.702e-4
-1.062, -1.694e-4
-1.061, -1.695e-4
-1.060, -1.687e-4
-1.059, -1.652e-4
-1.058, -1.610e-4
-1.057, -1.600e-4
-1.056, -1.609e-4
-1.055, -1.602e-4
-1.054, -1.571e-4
-1.053, -1.532e-4
-1.052, -1.524e-4
-1.051, -1.541e-4
-1.050, -1.533e-4
-1.049, -1.503e-4
-1.048, -1.465e-4
-1.047, -1.458e-4
-1.046, -1.475e-4
-1.045, -1.471e-4
-1.044, -1.445e-4
-1.043, -1.418e-4
-1.042, -1.410e-4
-1.041, -1.422e-4
-1.040, -1.415e-4
-1.039, -1.383e-4
-1.038, -1.351e-4
-1.037, -1.342e-4
-1.036, -1.357e-4
-1.035, -1.356e-4
-1.034, -1.324e-4
-1.033, -1.291e-4
-1.032, -1.282e-4
-1.031, -1.296e-4
-1.030, -1.294e-4
-1.029, -1.264e-4
-1.028, -1.229e-4
-1.027, -1.225e-4
-1.026, -1.239e-4
-1.025, -1.240e-4
-1.024, -1.209e-4
-1.023, -1.176e-4
-1.022, -1.172e-4
-1.021, -1.184e-4
-1.020, -1.185e-4
-1.019, -1.163e-4
-1.018, -1.130e-4
-1.017, -1.125e-4
-1.016, -1.139e-4
-1.015, -1.139e-4
-1.014, -1.112e-4
-1.013, -1.076e-4
-1.012, -1.073e-4
-1.011, -1.094e-4
-1.010, -1.094e-4
-1.009, -1.065e-4
-1.008, -1.031e-4
-1.007, -1.023e-4
-1.006, -1.043e-4
-1.005, -1.040e-4
-1.004, -1.011e-4
-1.003, -9.795e-5
-1.002, -9.732e-5
-1.001, -9.915e-5
-1.000, -7.060e-5
-1.001, -5.881e-5
-1.002, -5.359e-5
-1.003, -5.161e-5
-1.004, -5.178e-5
-1.005, -5.084e-5
-1.006, -4.718e-5
-1.007, -4.307e-5
-1.008, -4.212e-5
-1.009, -4.305e-5
-1.010, -4.240e-5
-1.011, -3.937e-5
-1.012, -3.576e-5
-1.013, -3.497e-5
-1.014, -3.652e-5
-1.015, -3.622e-5
-1.016, -3.330e-5
-1.017, -3.000e-5
-1.018, -2.924e-5
-1.019, -3.096e-5
-1.020, -3.108e-5
-1.021, -2.825e-5
-1.022, -2.510e-5
-1.023, -2.449e-5
-1.024, -2.621e-5
-1.025, -2.652e-5
-1.026, -2.379e-5
-1.027, -2.100e-5
-1.028, -2.042e-5
-1.029, -2.232e-5
-1.030, -2.271e-5
-1.031, -2.004e-5
-1.032, -1.719e-5
-1.033, -1.690e-5
-1.034, -1.862e-5
-1.035, -1.925e-5
-1.036, -1.671e-5
-1.037, -1.375e-5
-1.038, -1.352e-5
-1.039, -1.529e-5
-1.040, -1.587e-5
-1.041, -1.362e-5
-1.042, -1.063e-5
-1.043, -1.059e-5
-1.044, -1.248e-5
-1.045, -1.308e-5
-1.046, -1.067e-5
-1.047, -7.780e-6
-1.048, -7.703e-6
-1.049, -9.687e-6
-1.050, -1.039e-5
-1.051, -8.095e-6
-1.052, -5.186e-6
-1.053, -4.978e-6
-1.054, -7.082e-6
-1.055, -7.553e-6
-1.056, -5.331e-6
-1.057, -2.782e-6
-1.058, -2.291e-6
-1.059, -4.393e-6
-1.060, -5.085e-6
-1.061, -2.566e-6
-1.062, -1.117e-7
-1.063, 2.218e-7
-1.064, -2.144e-6
-1.065, -2.996e-6
-1.066, -3.376e-7
-1.067, 2.200e-6
-1.068, 2.594e-6
-1.069, 5.089e-7
-1.070, -2.528e-7
-1.071, 2.083e-6
-1.072, 4.648e-6
-1.073, 4.930e-6
-1.074, 3.040e-6
-1.075, 2.341e-6
-1.076, 4.478e-6
-1.077, 7.129e-6
-1.078, 7.381e-6
-1.079, 5.549e-6
-1.080, 4.617e-6
-1.081, 7.003e-6
-1.082, 9.740e-6
-1.083, 9.792e-6
-1.084, 8.079e-6
-1.085, 7.190e-6
-1.086, 9.434e-6
-1.087, 1.238e-5
-1.088, 1.258e-5
-1.089, 1.070e-5
-1.090, 1.001e-5
-1.091, 1.214e-5
-1.092, 1.517e-5
-1.093, 1.557e-5
-1.094, 1.354e-5
-1.095, 1.299e-5
-1.096, 1.533e-5
-1.097, 1.824e-5
-1.098, 1.881e-5
-1.099, 1.693e-5
-1.100, 1.636e-5
-1.101, 1.883e-5
-1.102, 2.185e-5
-1.103, 2.265e-5
-1.104, 2.074e-5
-1.105, 2.023e-5
-1.106, 2.295e-5
-1.107, 2.591e-5
-1.108, 2.687e-5
-1.109, 2.530e-5
-1.110, 2.469e-5
-1.111, 2.761e-5
-1.112, 3.084e-5
-1.113, 3.183e-5
-1.114, 3.074e-5
-1.115, 3.007e-5
-1.116, 3.313e-5
-1.117, 3.647e-5
-1.118, 3.787e-5
-1.119, 3.678e-5
-1.120, 3.639e-5
-1.121, 3.934e-5
-1.122, 4.311e-5
-1.123, 4.451e-5
-1.124, 4.370e-5
-1.125, 4.327e-5
-1.126, 4.652e-5
-1.127, 5.058e-5
-1.128, 5.209e-5
-1.129, 5.115e-5
-1.130, 5.144e-5
-1.131, 5.443e-5
-1.132, 5.889e-5
-1.133, 6.068e-5
-1.134, 6.003e-5
-1.135, 6.022e-5
-1.136, 6.346e-5
-1.137, 6.771e-5
-1.138, 7.001e-5
-1.139, 6.937e-5
-1.140, 6.965e-5
-1.141, 7.315e-5
-1.142, 7.734e-5
-1.143, 7.994e-5
-1.144, 7.953e-5
-1.145, 7.990e-5
-1.146, 8.355e-5
-1.147, 8.796e-5
-1.148, 9.048e-5
-1.149, 9.032e-5
-1.150, 9.072e-5
-1.151, 9.450e-5
-1.152, 9.914e-5
-1.153, 1.019e-4
-1.154, 1.020e-4
-1.155, 1.023e-4
-1.156, 1.063e-4
-1.157, 1.111e-4
-1.158, 1.140e-4
-1.159, 1.142e-4
-1.160, 1.146e-4
-1.161, 1.185e-4
-1.162, 1.237e-4
-1.163, 1.266e-4
-1.164, 1.269e-4
-1.165, 1.276e-4
-1.166, 1.316e-4
-1.167, 1.370e-4
-1.168, 1.399e-4
-1.169, 1.404e-4
-1.170, 1.413e-4
-1.171, 1.452e-4
-1.172, 1.507e-4
-1.173, 1.541e-4
-1.174, 1.546e-4
-1.175, 1.558e-4
-1.176, 1.599e-4
-1.177, 1.656e-4
-1.178, 1.693e-4
-1.179, 1.697e-4
-1.180, 1.708e-4
-1.181, 1.750e-4
-1.182, 1.806e-4
-1.183, 1.844e-4
-1.184, 1.852e-4
-1.185, 1.863e-4
-1.186, 1.909e-4
-1.187, 1.963e-4
-1.188, 2.004e-4
-1.189, 2.011e-4
-1.190, 2.023e-4
-1.191, 2.070e-4
-1.192, 2.124e-4
-1.193, 2.164e-4
-1.194, 2.175e-4
-1.195, 2.186e-4
-1.196, 2.230e-4
-1.197, 2.287e-4
-1.198, 2.326e-4
-1.199, 2.337e-4
-1.200, 2.346e-4
-1.201, 2.391e-4
-1.202, 2.450e-4
-1.203, 2.487e-4
-1.204, 2.498e-4
-1.205, 2.505e-4
-1.206, 2.549e-4
-1.207, 2.606e-4
-1.208, 2.641e-4
-1.209, 2.648e-4
-1.210, 2.656e-4
-1.211, 2.697e-4
-1.212, 2.752e-4
-1.213, 2.783e-4
-1.214, 2.788e-4
-1.215, 2.795e-4
-1.216, 2.831e-4
-1.217, 2.882e-4
-1.218, 2.915e-4
-1.219, 2.913e-4
-1.220, 2.916e-4
-1.221, 2.947e-4
-1.222, 2.992e-4
-1.223, 3.020e-4
-1.224, 3.014e-4
-1.225, 3.008e-4
-1.226, 3.037e-4
-1.227, 3.073e-4
-1.228, 3.096e-4
-1.229, 3.089e-4
-1.230, 3.072e-4
-1.231, 3.095e-4
-1.232, 3.123e-4
-1.233, 3.136e-4
-1.234, 3.119e-4
-1.235, 3.097e-4
-1.236, 3.112e-4
-1.237, 3.137e-4
-1.238, 3.138e-4
-1.239, 3.113e-4
-1.240, 3.085e-4
-1.241, 3.093e-4
-1.242, 3.109e-4
-1.243, 3.099e-4
-1.244, 3.068e-4
-1.245, 3.035e-4
-1.246, 3.033e-4
-1.247, 3.046e-4
-1.248, 3.033e-4
-1.249, 2.992e-4
-1.250, 2.953e-4
-1.251, 2.944e-4
-1.252, 2.948e-4
-1.253, 2.932e-4
-1.254, 2.887e-4
-1.255, 2.845e-4
-1.256, 2.832e-4
-1.257, 2.834e-4
-1.258, 2.814e-4
-1.259, 2.764e-4
-1.260, 2.721e-4
-1.261, 2.710e-4
-1.262, 2.710e-4
-1.263, 2.693e-4
-1.264, 2.643e-4
-1.265, 2.601e-4
-1.266, 2.591e-4
-1.267, 2.592e-4
-1.268, 2.577e-4
-1.269, 2.530e-4
-1.270, 2.490e-4
-1.271, 2.483e-4
-1.272, 2.489e-4
-1.273, 2.475e-4
-1.274, 2.436e-4
-1.275, 2.395e-4
-1.276, 2.393e-4
-1.277, 2.402e-4
-1.278, 2.390e-4
-1.279, 2.354e-4
-1.280, 2.321e-4
-1.281, 2.317e-4
-1.282, 2.331e-4
-1.283, 2.319e-4
-1.284, 2.283e-4
-1.285, 2.251e-4
-1.286, 2.251e-4
-1.287, 2.267e-4
-1.288, 2.257e-4
-1.289, 2.222e-4
-1.290, 2.191e-4
-1.291, 2.192e-4
-1.292, 2.207e-4
-1.293, 2.198e-4
-1.294, 2.163e-4
-1.295, 2.133e-4
-1.296, 2.132e-4
-1.297, 2.147e-4
-1.298, 2.144e-4
-1.299, 2.108e-4
-1.300, 2.081e-4
-1.301, 2.087e-4
-1.302, 2.103e-4
-1.303, 2.104e-4
-1.304, 2.073e-4
-1.305, 2.047e-4
-1.306, 2.059e-4
-1.307, 2.082e-4
-1.308, 2.083e-4
-1.309, 2.061e-4
-1.310, 2.045e-4
-1.311, 2.058e-4
-1.312, 2.087e-4
-1.313, 2.102e-4
-1.314, 2.085e-4
-1.315, 2.070e-4
-1.316, 2.097e-4
-1.317, 2.138e-4
-1.318, 2.162e-4
-1.319, 2.159e-4
-1.320, 2.156e-4
-1.321, 2.191e-4
-1.322, 2.238e-4
-1.323, 2.264e-4
-1.324, 2.274e-4
-1.325, 2.278e-4
-1.326, 2.317e-4
-1.327, 2.373e-4
-1.328, 2.411e-4
-1.329, 2.424e-4
-1.330, 2.436e-4
-1.331, 2.488e-4
-1.332, 2.554e-4
-1.333, 2.591e-4
-1.334, 2.614e-4
-1.335, 2.632e-4
-1.336, 2.686e-4
-1.337, 2.762e-4
-1.338, 2.809e-4
-1.339, 2.836e-4
-1.340, 2.866e-4
-1.341, 2.934e-4
-1.342, 3.010e-4
-1.343, 3.062e-4
-1.344, 3.078e-4
-1.345, 3.105e-4
-1.346, 3.169e-4
-1.347, 3.240e-4
-1.348, 3.303e-4
-1.349, 3.334e-4
-1.350, 3.365e-4
-1.351, 3.436e-4
-1.352, 3.511e-4
-1.353, 3.574e-4
-1.354, 3.610e-4
-1.355, 3.655e-4
-1.356, 3.726e-4
-1.357, 3.815e-4
-1.358, 3.896e-4
-1.359, 3.931e-4
-1.360, 3.962e-4
-1.361, 4.046e-4
-1.362, 4.148e-4
-1.363, 4.227e-4
-1.364, 4.287e-4
-1.365, 4.311e-4
-1.366, 4.372e-4
-1.367, 4.459e-4
-1.368, 4.530e-4
-1.369, 4.646e-4
-1.370, 4.711e-4
-1.371, 4.815e-4
-1.372, 4.920e-4
-1.373, 4.999e-4
-1.374, 5.030e-4
-1.375, 5.087e-4
-1.376, 5.191e-4
-1.377, 5.287e-4
-1.378, 5.359e-4
-1.379, 5.424e-4
-1.380, 5.505e-4
-1.381, 5.585e-4
-1.382, 5.748e-4
-1.383, 5.899e-4
-1.384, 5.949e-4
-1.385, 6.025e-4
-1.386, 6.128e-4
-1.387, 6.250e-4
-1.388, 6.386e-4
-1.389, 6.419e-4
-1.390, 6.455e-4
-1.391, 6.538e-4
-1.392, 6.609e-4
-1.393, 6.734e-4
-1.394, 6.878e-4
-1.395, 7.049e-4
-1.396, 7.145e-4
-1.397, 7.292e-4
-1.398, 7.375e-4
-1.399, 7.438e-4
-1.400, 7.116e-4
-1.399, 6.818e-4
-1.398, 6.681e-4
-1.397, 6.564e-4
-1.396, 6.398e-4
-1.395, 6.272e-4
-1.394, 6.148e-4
-1.393, 6.004e-4
-1.392, 5.878e-4
-1.391, 5.717e-4
-1.390, 5.513e-4
-1.389, 5.344e-4
-1.388, 5.245e-4
-1.387, 5.191e-4
-1.386, 5.059e-4
-1.385, 4.893e-4
-1.384, 4.699e-4
-1.383, 4.545e-4
-1.382, 4.452e-4
-1.381, 4.305e-4
-1.380, 4.194e-4
-1.379, 4.059e-4
-1.378, 3.969e-4
-1.377, 3.885e-4
-1.376, 3.772e-4
-1.375, 3.636e-4
-1.374, 3.497e-4
-1.373, 3.421e-4
-1.372, 3.334e-4
-1.371, 3.226e-4
-1.370, 3.119e-4
-1.369, 3.032e-4
-1.368, 2.955e-4
-1.367, 2.865e-4
-1.366, 2.754e-4
-1.365, 2.665e-4
-1.364, 2.582e-4
-1.363, 2.536e-4
-1.362, 2.476e-4
-1.361, 2.381e-4
-1.360, 2.291e-4
-1.359, 2.241e-4
-1.358, 2.188e-4
-1.357, 2.118e-4
-1.356, 2.024e-4
-1.355, 1.943e-4
-1.354, 1.897e-4
-1.353, 1.858e-4
-1.352, 1.790e-4
-1.351, 1.692e-4
-1.350, 1.602e-4
-1.349, 1.554e-4
-1.348, 1.525e-4
-1.347, 1.476e-4
-1.346, 1.396e-4
-1.345, 1.318e-4
-1.344, 1.268e-4
-1.343, 1.257e-4
-1.342, 1.211e-4
-1.341, 1.136e-4
-1.340, 1.075e-4
-1.339, 1.040e-4
-1.338, 1.016e-4
-1.337, 9.642e-5
-1.336, 8.978e-5
-1.335, 8.297e-5
-1.334, 7.973e-5
-1.333, 7.878e-5
-1.332, 7.518e-5
-1.331, 6.898e-5
-1.330, 6.340e-5
-1.329, 6.025e-5
-1.328, 5.983e-5
-1.327, 5.835e-5
-1.326, 5.251e-5
-1.325, 4.701e-5
-1.324, 4.466e-5
-1.323, 4.394e-5
-1.322, 4.167e-5
-1.321, 3.615e-5
-1.320, 3.144e-5
-1.319, 2.989e-5
-1.318, 2.976e-5
-1.317, 2.793e-5
-1.316, 2.308e-5
-1.315, 1.865e-5
-1.314, 1.681e-5
-1.313, 1.712e-5
-1.312, 1.609e-5
-1.311, 1.152e-5
-1.310, 6.543e-6
-1.309, 5.549e-6
-1.308, 6.032e-6
-1.307, 4.581e-6
-1.306, 6.786e-7
-1.305, -3.576e-6
-1.304, -4.226e-6
-1.303, -3.151e-6
-1.302, -4.251e-6
-1.301, -7.948e-6
-1.300, -1.177e-5
-1.299, -1.252e-5
-1.298, -1.099e-5
-1.297, -1.175e-5
-1.296, -1.516e-5
-1.295, -1.857e-5
-1.294, -1.914e-5
-1.293, -1.743e-5
-1.292, -1.777e-5
-1.291, -2.113e-5
-1.290, -2.433e-5
-1.289, -2.451e-5
-1.288, -2.266e-5
-1.287, -2.291e-5
-1.286, -2.635e-5
-1.285, -2.897e-5
-1.284, -2.897e-5
-1.283, -2.729e-5
-1.282, -2.706e-5
-1.281, -3.029e-5
-1.280, -3.330e-5
-1.279, -3.300e-5
-1.278, -3.118e-5
-1.277, -3.074e-5
-1.276, -3.368e-5
-1.275, -3.655e-5
-1.274, -3.612e-5
-1.273, -3.425e-5
-1.272, -3.381e-5
-1.271, -3.666e-5
-1.270, -3.947e-5
-1.269, -3.900e-5
-1.268, -3.684e-5
-1.267, -3.664e-5
-1.266, -3.920e-5
-1.265, -4.210e-5
-1.264, -4.143e-5
-1.263, -3.922e-5
-1.262, -3.908e-5
-1.261, -4.138e-5
-1.260, -4.420e-5
-1.259, -4.385e-5
-1.258, -4.140e-5
-1.257, -4.117e-5
-1.256, -4.376e-5
-1.255, -4.642e-5
-1.254, -4.592e-5
-1.253, -4.345e-5
-1.252, -4.313e-5
-1.251, -4.583e-5
-1.250, -4.831e-5
-1.249, -4.815e-5
-1.248, -4.555e-5
-1.247, -4.521e-5
-1.246, -4.801e-5
-1.245, -5.039e-5
-1.244, -5.004e-5
-1.243, -4.803e-5
-1.242, -4.732e-5
-1.241, -5.020e-5
-1.240, -5.260e-5
-1.239, -5.233e-5
-1.238, -5.020e-5
-1.237, -4.963e-5
-1.236, -5.244e-5
-1.235, -5.513e-5
-1.234, -5.480e-5
-1.233, -5.287e-5
-1.232, -5.216e-5
-1.231, -5.486e-5
-1.230, -5.800e-5
-1.229, -5.810e-5
-1.228, -5.547e-5
-1.227, -5.537e-5
-1.226, -5.784e-5
-1.225, -6.087e-5
-1.224, -6.051e-5
-1.223, -5.849e-5
-1.222, -5.838e-5
-1.221, -6.093e-5
-1.220, -6.385e-5
-1.219, -6.403e-5
-1.218, -6.175e-5
-1.217, -6.191e-5
-1.216, -6.440e-5
-1.215, -6.733e-5
-1.214, -6.760e-5
-1.213, -6.556e-5
-1.212, -6.542e-5
-1.211, -6.858e-5
-1.210, -7.150e-5
-1.209, -7.171e-5
-1.208, -6.979e-5
-1.207, -6.969e-5
-1.206, -7.280e-5
-1.205, -7.587e-5
-1.204, -7.618e-5
-1.203, -7.476e-5
-1.202, -7.451e-5
-1.201, -7.793e-5
-1.200, -8.098e-5
-1.199, -8.127e-5
-1.198, -7.995e-5
-1.197, -7.984e-5
-1.196, -8.314e-5
-1.195, -8.676e-5
-1.194, -8.718e-5
-1.193, -8.575e-5
-1.192, -8.566e-5
-1.191, -8.922e-5
-1.190, -9.295e-5
-1.189, -9.333e-5
-1.188, -9.204e-5
-1.187, -9.246e-5
-1.186, -9.579e-5
-1.185, -9.971e-5
-1.184, -1.001e-4
-1.183, -9.895e-5
-1.182, -9.962e-5
-1.181, -1.028e-4
-1.180, -1.068e-4
-1.179, -1.077e-4
-1.178, -1.068e-4
-1.177, -1.073e-4
-1.176, -1.104e-4
-1.175, -1.144e-4
-1.174, -1.155e-4
-1.173, -1.142e-4
-1.172, -1.148e-4
-1.171, -1.186e-4
-1.170, -1.223e-4
-1.169, -1.236e-4
-1.168, -1.223e-4
-1.167, -1.228e-4
-1.166, -1.266e-4
-1.165, -1.303e-4
-1.164, -1.315e-4
-1.163, -1.304e-4
-1.162, -1.308e-4
-1.161, -1.347e-4
-1.160, -1.384e-4
-1.159, -1.395e-4
-1.158, -1.385e-4
-1.157, -1.388e-4
-1.156, -1.423e-4
-1.155, -1.463e-4
-1.154, -1.471e-4
-1.153, -1.459e-4
-1.152, -1.463e-4
-1.151, -1.497e-4
-1.150, -1.538e-4
-1.149, -1.542e-4
-1.148, -1.530e-4
-1.147, -1.535e-4
-1.146, -1.567e-4
-1.145, -1.604e-4
-1.144, -1.608e-4
-1.143, -1.592e-4
-1.142, -1.595e-4
-1.141, -1.625e-4
-1.140, -1.660e-4
-1.139, -1.665e-4
-1.138, -1.647e-4
-1.137, -1.648e-4
-1.136, -1.675e-4
-1.135, -1.707e-4
-1.134, -1.710e-4
-1.133, -1.688e-4
-1.132, -1.686e-4
-1.131, -1.713e-4
-1.130, -1.741e-4
-1.129, -1.739e-4
-1.128, -1.716e-4
-1.127, -1.712e-4
-1.126, -1.738e-4
-1.125, -1.760e-4
-1.124, -1.756e-4
-1.123, -1.734e-4
-1.122, -1.724e-4
-1.121, -1.747e-4
-1.120, -1.768e-4
-1.119, -1.759e-4
-1.118, -1.733e-4
-1.117, -1.720e-4
-1.116, -1.738e-4
-1.115, -1.757e-4
-1.114, -1.743e-4
-1.113, -1.714e-4
-1.112, -1.697e-4
-1.111, -1.711e-4
-1.110, -1.728e-4
-1.109, -1.709e-4
-1.108, -1.675e-4
-1.107, -1.660e-4
-1.106, -1.670e-4
-1.105, -1.683e-4
-1.104, -1.661e-4
-1.103, -1.624e-4
-1.102, -1.606e-4
-1.101, -1.614e-4
-1.100, -1.624e-4
-1.099, -1.601e-4
-1.098, -1.559e-4
-1.097, -1.539e-4
-1.096, -1.545e-4
-1.095, -1.553e-4
-1.094, -1.532e-4
-1.093, -1.490e-4
-1.092, -1.466e-4
-1.091, -1.474e-4
-1.090, -1.475e-4
-1.089, -1.448e-4
-1.088, -1.405e-4
-1.087, -1.382e-4
-1.086, -1.391e-4
-1.085, -1.392e-4
-1.084, -1.367e-4
-1.083, -1.326e-4
-1.082, -1.302e-4
-1.081, -1.309e-4
-1.080, -1.312e-4
-1.079, -1.286e-4
-1.078, -1.244e-4
-1.077, -1.223e-4
-1.076, -1.231e-4
-1.075, -1.238e-4
-1.074, -1.209e-4
-1.073, -1.170e-4
-1.072, -1.150e-4
-1.071, -1.158e-4
-1.070, -1.165e-4
-1.069, -1.139e-4
-1.068, -1.101e-4
-1.067, -1.084e-4
-1.066, -1.092e-4
-1.065, -1.101e-4
-1.064, -1.075e-4
-1.063, -1.038e-4
-1.062, -1.022e-4
-1.061, -1.033e-4
-1.060, -1.042e-4
-1.059, -1.022e-4
-1.058, -9.842e-5
-1.057, -9.699e-5
-1.056, -9.840e-5
-1.055, -9.956e-5
-1.054, -9.795e-5
-1.053, -9.459e-5
-1.052, -9.328e-5
-1.051, -9.491e-5
-1.050, -9.581e-5
-1.049, -9.398e-5
-1.048, -9.026e-5
-1.047, -8.883e-5
-1.046, -9.041e-5
-1.045, -9.143e-5
-1.044, -8.938e-5
-1.043, -8.634e-5
-1.042, -8.505e-5
-1.041, -8.678e-5
-1.040, -8.790e-5
-1.039, -8.621e-5
-1.038, -8.298e-5
-1.037, -8.153e-5
-1.036, -8.311e-5
-1.035, -8.447e-5
-1.034, -8.247e-5
-1.033, -7.935e-5
-1.032, -7.806e-5
-1.031, -7.954e-5
-1.030, -8.115e-5
-1.029, -7.903e-5
-1.028, -7.592e-5
-1.027, -7.494e-5
-1.026, -7.650e-5
-1.025, -7.799e-5
-1.024, -7.606e-5
-1.023, -7.289e-5
-1.022, -7.194e-5
-1.021, -7.377e-5
-1.020, -7.526e-5
-1.019, -7.342e-5
-1.018, -7.012e-5
-1.017, -6.924e-5
-1.016, -7.094e-5
-1.015, -7.206e-5
-1.014, -7.051e-5
-1.013, -6.715e-5
-1.012, -6.617e-5
-1.011, -6.816e-5
-1.010, -6.940e-5
-1.009, -6.782e-5
-1.008, -6.443e-5
-1.007, -6.356e-5
-1.006, -6.556e-5
-1.005, -6.679e-5
-1.004, -6.507e-5
-1.003, -6.222e-5
-1.002, -6.114e-5
-1.001, -6.322e-5
-1.000, -3.576e-5
-1.001, -2.542e-5
-1.002, -2.049e-5
-1.003, -1.859e-5
-1.004, -1.939e-5
-1.005, -1.998e-5
-1.006, -1.772e-5
-1.007, -1.396e-5
-1.008, -1.275e-5
-1.009, -1.423e-5
-1.010, -1.511e-5
-1.011, -1.328e-5
-1.012, -9.789e-6
-1.013, -8.848e-6
-1.014, -1.046e-5
-1.015, -1.144e-5
-1.016, -9.565e-6
-1.017, -6.486e-6
-1.018, -5.424e-6
-1.019, -7.249e-6
-1.020, -8.487e-6
-1.021, -6.665e-6
-1.022, -3.562e-6
-1.023, -2.563e-6
-1.024, -4.457e-6
-1.025, -5.973e-6
-1.026, -3.992e-6
-1.027, -1.050e-6
-1.028, -2.567e-7
-1.029, -2.218e-6
-1.030, -3.521e-6
-1.031, -1.709e-6
-1.032, 1.245e-6
-1.033, 1.883e-6
-1.034, 1.557e-7
-1.035, -1.505e-6
-1.036, 4.053e-7
-1.037, 3.319e-6
-1.038, 3.968e-6
-1.039, 2.145e-6
-1.040, 3.017e-7
-1.041, 2.110e-6
-1.042, 5.127e-6
-1.043, 5.593e-6
-1.044, 3.660e-6
-1.045, 2.147e-6
-1.046, 3.850e-6
-1.047, 7.001e-6
-1.048, 7.244e-6
-1.049, 5.181e-6
-1.050, 3.723e-6
-1.051, 5.200e-6
-1.052, 8.084e-6
-1.053, 8.739e-6
-1.054, 6.621e-6
-1.055, 5.285e-6
-1.056, 6.751e-6
-1.057, 9.742e-6
-1.058, 1.039e-5
-1.059, 8.122e-6
-1.060, 6.708e-6
-1.061, 8.381e-6
-1.062, 1.114e-5
-1.063, 1.196e-5
-1.064, 9.514e-6
-1.065, 8.143e-6
-1.066, 9.946e-6
-1.067, 1.254e-5
-1.068, 1.319e-5
-1.069, 1.094e-5
-1.070, 9.402e-6
-1.071, 1.136e-5
-1.072, 1.406e-5
-1.073, 1.454e-5
-1.074, 1.261e-5
-1.075, 1.109e-5
-1.076, 1.290e-5
-1.077, 1.556e-5
-1.078, 1.608e-5
-1.079, 1.414e-5
-1.080, 1.245e-5
-1.081, 1.423e-5
-1.082, 1.725e-5
-1.083, 1.753e-5
-1.084, 1.564e-5
-1.085, 1.415e-5
-1.086, 1.602e-5
-1.087, 1.895e-5
-1.088, 1.945e-5
-1.089, 1.747e-5
-1.090, 1.610e-5
-1.091, 1.785e-5
-1.092, 2.074e-5
-1.093, 2.147e-5
-1.094, 1.941e-5
-1.095, 1.834e-5
-1.096, 1.985e-5
-1.097, 2.305e-5
-1.098, 2.404e-5
-1.099, 2.194e-5
-1.100, 2.073e-5
-1.101, 2.265e-5
-1.102, 2.559e-5
-1.103, 2.662e-5
-1.104, 2.450e-5
-1.105, 2.346e-5
-1.106, 2.573e-5
-1.107, 2.874e-5
-1.108, 2.968e-5
-1.109, 2.797e-5
-1.110, 2.678e-5
-1.111, 2.915e-5
-1.112, 3.232e-5
-1.113, 3.320e-5
-1.114, 3.198e-5
-1.115, 3.074e-5
-1.116, 3.318e-5
-1.117, 3.640e-5
-1.118, 3.765e-5
-1.119, 3.627e-5
-1.120, 3.528e-5
-1.121, 3.766e-5
-1.122, 4.132e-5
-1.123, 4.248e-5
-1.124, 4.130e-5
-1.125, 4.042e-5
-1.126, 4.309e-5
-1.127, 4.680e-5
-1.128, 4.803e-5
-1.129, 4.689e-5
-1.130, 4.634e-5
-1.131, 4.891e-5
-1.132, 5.281e-5
-1.133, 5.409e-5
-1.134, 5.312e-5
-1.135, 5.285e-5
-1.136, 5.536e-5
-1.137, 5.925e-5
-1.138, 6.113e-5
-1.139, 6.001e-5
-1.140, 5.963e-5
-1.141, 6.251e-5
-1.142, 6.652e-5
-1.143, 6.845e-5
-1.144, 6.737e-5
-1.145, 6.708e-5
-1.146, 7.002e-5
-1.147, 7.414e-5
-1.148, 7.618e-5
-1.149, 7.520e-5
-1.150, 7.494e-5
-1.151, 7.807e-5
-1.152, 8.210e-5
-1.153, 8.420e-5
-1.154, 8.360e-5
-1.155, 8.305e-5
-1.156, 8.647e-5
-1.157, 9.049e-5
-1.158, 9.252e-5
-1.159, 9.211e-5
-1.160, 9.171e-5
-1.161, 9.497e-5
-1.162, 9.938e-5
-1.163, 1.013e-4
-1.164, 1.008e-4
-1.165, 1.006e-4
-1.166, 1.038e-4
-1.167, 1.083e-4
-1.168, 1.102e-4
-1.169, 1.097e-4
-1.170, 1.097e-4
-1.171, 1.128e-4
-1.172, 1.172e-4
-1.173, 1.194e-4
-1.174, 1.189e-4
-1.175, 1.189e-4
-1.176, 1.221e-4
-1.177, 1.267e-4
-1.178, 1.288e-4
-1.179, 1.278e-4
-1.180, 1.279e-4
-1.181, 1.314e-4
-1.182, 1.354e-4
-1.183, 1.377e-4
-1.184, 1.369e-4
-1.185, 1.368e-4
-1.186, 1.400e-4
-1.187, 1.440e-4
-1.188, 1.462e-4
-1.189, 1.452e-4
-1.190, 1.452e-4
-1.191, 1.486e-4
-1.192, 1.524e-4
-1.193, 1.544e-4
-1.194, 1.537e-4
-1.195, 1.532e-4
-1.196, 1.565e-4
-1.197, 1.603e-4
-1.198, 1.621e-4
-1.199, 1.612e-4
-1.200, 1.606e-4
-1.201, 1.636e-4
-1.202, 1.676e-4
-1.203, 1.689e-4
-1.204, 1.682e-4
-1.205, 1.674e-4
-1.206, 1.701e-4
-1.207, 1.737e-4
-1.208, 1.749e-4
-1.209, 1.735e-4
-1.210, 1.728e-4
-1.211, 1.752e-4
-1.212, 1.786e-4
-1.213, 1.794e-4
-1.214, 1.777e-4
-1.215, 1.768e-4
-1.216, 1.790e-4
-1.217, 1.819e-4
-1.218, 1.828e-4
-1.219, 1.804e-4
-1.220, 1.794e-4
-1.221, 1.813e-4
-1.222, 1.839e-4
-1.223, 1.843e-4
-1.224, 1.817e-4
-1.225, 1.802e-4
-1.226, 1.818e-4
-1.227, 1.842e-4
-1.228, 1.846e-4
-1.229, 1.821e-4
-1.230, 1.796e-4
-1.231, 1.812e-4
-1.232, 1.829e-4
-1.233, 1.826e-4
-1.234, 1.795e-4
-1.235, 1.774e-4
-1.236, 1.786e-4
-1.237, 1.803e-4
-1.238, 1.793e-4
-1.239, 1.760e-4
-1.240, 1.734e-4
-1.241, 1.742e-4
-1.242, 1.760e-4
-1.243, 1.748e-4
-1.244, 1.712e-4
-1.245, 1.686e-4
-1.246, 1.694e-4
-1.247, 1.708e-4
-1.248, 1.694e-4
-1.249, 1.657e-4
-1.250, 1.633e-4
-1.251, 1.636e-4
-1.252, 1.652e-4
-1.253, 1.638e-4
-1.254, 1.600e-4
-1.255, 1.576e-4
-1.256, 1.580e-4
-1.257, 1.594e-4
-1.258, 1.583e-4
-1.259, 1.545e-4
-1.260, 1.521e-4
-1.261, 1.528e-4
-1.262, 1.544e-4
-1.263, 1.533e-4
-1.264, 1.497e-4
-1.265, 1.476e-4
-1.266, 1.485e-4
-1.267, 1.500e-4
-1.268, 1.491e-4
-1.269, 1.457e-4
-1.270, 1.434e-4
-1.271, 1.449e-4
-1.272, 1.465e-4
-1.273, 1.457e-4
-1.274, 1.425e-4
-1.275, 1.405e-4
-1.276, 1.420e-4
-1.277, 1.438e-4
-1.278, 1.431e-4
-1.279, 1.403e-4
-1.280, 1.387e-4
-1.281, 1.401e-4
-1.282, 1.424e-4
-1.283, 1.414e-4
-1.284, 1.387e-4
-1.285, 1.371e-4
-1.286, 1.387e-4
-1.287, 1.413e-4
-1.288, 1.407e-4
-1.289, 1.379e-4
-1.290, 1.368e-4
-1.291, 1.383e-4
-1.292, 1.410e-4
-1.293, 1.405e-4
-1.294, 1.379e-4
-1.295, 1.373e-4
-1.296, 1.392e-4
-1.297, 1.420e-4
-1.298, 1.424e-4
-1.299, 1.400e-4
-1.300, 1.394e-4
-1.301, 1.419e-4
-1.302, 1.451e-4
-1.303, 1.460e-4
-1.304, 1.438e-4
-1.305, 1.434e-4
-1.306, 1.463e-4
-1.307, 1.495e-4
-1.308, 1.506e-4
-1.309, 1.490e-4
-1.310, 1.490e-4
-1.311, 1.527e-4
-1.312, 1.565e-4
-1.313, 1.587e-4
-1.314, 1.576e-4
-1.315, 1.580e-4
-1.316, 1.623e-4
-1.317, 1.662e-4
-1.318, 1.678e-4
-1.319, 1.677e-4
-1.320, 1.688e-4
-1.321, 1.729e-4
-1.322, 1.777e-4
-1.323, 1.794e-4
-1.324, 1.795e-4
-1.325, 1.817e-4
-1.326, 1.861e-4
-1.327, 1.915e-4
-1.328, 1.932e-4
-1.329, 1.937e-4
-1.330, 1.955e-4
-1.331, 1.999e-4
-1.332, 2.055e-4
-1.333, 2.084e-4
-1.334, 2.081e-4
-1.335, 2.106e-4
-1.336, 2.150e-4
-1.337, 2.206e-4
-1.338, 2.238e-4
-1.339, 2.243e-4
-1.340, 2.262e-4
-1.341, 2.313e-4
-1.342, 2.371e-4
-1.343, 2.404e-4
-1.344, 2.405e-4
-1.345, 2.423e-4
-1.346, 2.475e-4
-1.347, 2.532e-4
-1.348, 2.564e-4
-1.349, 2.572e-4
-1.350, 2.602e-4
-1.351, 2.646e-4
-1.352, 2.700e-4
-1.353, 2.723e-4
-1.354, 2.720e-4
-1.355, 2.757e-4
-1.356, 2.804e-4
-1.357, 2.851e-4
-1.358, 2.880e-4
-1.359, 2.894e-4
-1.360, 2.911e-4
-1.361, 2.958e-4
-1.362, 3.021e-4
-1.363, 3.051e-4
-1.364, 3.060e-4
-1.365, 3.092e-4
-1.366, 3.181e-4
-1.367, 3.215e-4
-1.368, 3.247e-4
-1.369, 3.275e-4
-1.370, 3.309e-4
-1.371, 3.355e-4
-1.372, 3.417e-4
-1.373, 3.449e-4
-1.374, 3.464e-4
-1.375, 3.500e-4
-1.376, 3.538e-4
-1.377, 3.602e-4
-1.378, 3.656e-4
-1.379, 3.677e-4
-1.380, 3.721e-4
-1.381, 3.773e-4
-1.382, 3.839e-4
-1.383, 3.871e-4
-1.384, 3.898e-4
-1.385, 3.929e-4
-1.386, 3.979e-4
-1.387, 4.028e-4
-1.388, 4.043e-4
-1.389, 4.067e-4
-1.390, 4.086e-4
-1.391, 4.148e-4
-1.392, 4.211e-4
-1.393, 4.251e-4
-1.394, 4.271e-4
-1.395, 4.337e-4
-1.396, 4.433e-4
-1.397, 4.493e-4
-1.398, 4.565e-4
-1.399, 4.575e-4
-1.400, 4.208e-4
-1.399, 3.991e-4
-1.398, 3.831e-4
-1.397, 3.676e-4
-1.396, 3.546e-4
-1.395, 3.395e-4
-1.394, 3.319e-4
-1.393, 3.254e-4
-1.392, 3.116e-4
-1.391, 3.022e-4
-1.390, 2.931e-4
-1.389, 2.876e-4
-1.388, 2.763e-4
-1.387, 2.651e-4
-1.386, 2.546e-4
-1.385, 2.451e-4
-1.384, 2.398e-4
-1.383, 2.319e-4
-1.382, 2.246e-4
-1.381, 2.146e-4
-1.380, 2.084e-4
-1.379, 2.035e-4
-1.378, 1.992e-4
-1.377, 1.920e-4
-1.376, 1.828e-4
-1.375, 1.758e-4
-1.374, 1.709e-4
-1.373, 1.687e-4
-1.372, 1.632e-4
-1.371, 1.545e-4
-1.370, 1.503e-4
-1.369, 1.465e-4
-1.368, 1.429e-4
-1.367, 1.379e-4
-1.366, 1.313e-4
-1.365, 1.258e-4
-1.364, 1.231e-4
-1.363, 1.220e-4
-1.362, 1.169e-4
-1.361, 1.089e-4
-1.360, 1.049e-4
-1.359, 1.027e-4
-1.358, 1.004e-4
-1.357, 9.636e-5
-1.356, 9.020e-5
-1.355, 8.655e-5
-1.354, 8.562e-5
-1.353, 8.436e-5
-1.352, 8.069e-5
-1.351, 7.484e-5
-1.350, 7.090e-5
-1.349, 7.078e-5
-1.348, 7.093e-5
-1.347, 6.682e-5
-1.346, 6.086e-5
-1.345, 5.713e-5
-1.344, 5.778e-5
-1.343, 5.760e-5
-1.342, 5.303e-5
-1.341, 4.741e-5
-1.340, 4.417e-5
-1.339, 4.398e-5
-1.338, 4.380e-5
-1.337, 3.977e-5
-1.336, 3.492e-5
-1.335, 3.230e-5
-1.334, 3.247e-5
-1.333, 3.244e-5
-1.332, 2.909e-5
-1.331, 2.422e-5
-1.330, 2.193e-5
-1.329, 2.256e-5
-1.328, 2.289e-5
-1.327, 2.022e-5
-1.326, 1.516e-5
-1.325, 1.301e-5
-1.324, 1.366e-5
-1.323, 1.405e-5
-1.322, 1.146e-5
-1.321, 6.752e-6
-1.320, 4.746e-6
-1.319, 5.541e-6
-1.318, 5.871e-6
-1.317, 3.271e-6
-1.316, -1.018e-6
-1.315, -2.894e-6
-1.314, -1.685e-6
-1.313, -1.061e-6
-1.312, -3.301e-6
-1.311, -7.593e-6
-1.310, -9.462e-6
-1.309, -8.118e-6
-1.308, -7.182e-6
-1.307, -9.777e-6
-1.306, -1.352e-5
-1.305, -1.518e-5
-1.304, -1.382e-5
-1.303, -1.260e-5
-1.302, -1.532e-5
-1.301, -1.888e-5
-1.300, -2.010e-5
-1.299, -1.876e-5
-1.298, -1.752e-5
-1.297, -1.987e-5
-1.296, -2.322e-5
-1.295, -2.442e-5
-1.294, -2.315e-5
-1.293, -2.167e-5
-1.292, -2.392e-5
-1.291, -2.753e-5
-1.290, -2.825e-5
-1.289, -2.682e-5
-1.288, -2.511e-5
-1.287, -2.740e-5
-1.286, -3.099e-5
-1.285, -3.173e-5
-1.284, -3.001e-5
-1.283, -2.858e-5
-1.282, -3.064e-5
-1.281, -3.404e-5
-1.280, -3.506e-5
-1.279, -3.311e-5
-1.278, -3.167e-5
-1.277, -3.358e-5
-1.276, -3.653e-5
-1.275, -3.762e-5
-1.274, -3.548e-5
-1.273, -3.410e-5
-1.272, -3.592e-5
-1.271, -3.905e-5
-1.270, -3.982e-5
-1.269, -3.748e-5
-1.268, -3.608e-5
-1.267, -3.833e-5
-1.266, -4.107e-5
-1.265, -4.190e-5
-1.264, -3.962e-5
-1.263, -3.789e-5
-1.262, -4.033e-5
-1.261, -4.291e-5
-1.260, -4.341e-5
-1.259, -4.165e-5
-1.258, -3.969e-5
-1.257, -4.192e-5
-1.256, -4.462e-5
-1.255, -4.530e-5
-1.254, -4.318e-5
-1.253, -4.127e-5
-1.252, -4.342e-5
-1.251, -4.633e-5
-1.250, -4.679e-5
-1.249, -4.479e-5
-1.248, -4.293e-5
-1.247, -4.496e-5
-1.246, -4.812e-5
-1.245, -4.835e-5
-1.244, -4.615e-5
-1.243, -4.464e-5
-1.242, -4.660e-5
-1.241, -4.962e-5
-1.240, -4.993e-5
-1.239, -4.773e-5
-1.238, -4.644e-5
-1.237, -4.812e-5
-1.236, -5.121e-5
-1.235, -5.168e-5
-1.234, -4.944e-5
-1.233, -4.798e-5
-1.232, -4.992e-5
-1.231, -5.289e-5
-1.230, -5.349e-5
-1.229, -5.173e-5
-1.228, -4.988e-5
-1.227, -5.210e-5
-1.226, -5.473e-5
-1.225, -5.547e-5
-1.224, -5.314e-5
-1.223, -5.155e-5
-1.222, -5.421e-5
-1.221, -5.678e-5
-1.220, -5.730e-5
-1.219, -5.547e-5
-1.218, -5.376e-5
-1.217, -5.635e-5
-1.216, -5.906e-5
-1.215, -5.960e-5
-1.214, -5.772e-5
-1.213, -5.629e-5
-1.212, -5.858e-5
-1.211, -6.171e-5
-1.210, -6.205e-5
-1.209, -6.040e-5
-1.208, -5.889e-5
-1.207, -6.108e-5
-1.206, -6.446e-5
-1.205, -6.464e-5
-1.204, -6.291e-5
-1.203, -6.191e-5
-1.202, -6.413e-5
-1.201, -6.731e-5
-1.200, -6.796e-5
-1.199, -6.586e-5
-1.198, -6.517e-5
-1.197, -6.715e-5
-1.196, -7.044e-5
-1.195, -7.132e-5
-1.194, -6.924e-5
-1.193, -6.838e-5
-1.192, -7.073e-5
-1.191, -7.401e-5
-1.190, -7.488e-5
-1.189, -7.302e-5
-1.188, -7.189e-5
-1.187, -7.471e-5
-1.186, -7.774e-5
-1.185, -7.891e-5
-1.184, -7.695e-5
-1.183, -7.595e-5
-1.182, -7.881e-5
-1.181, -8.186e-5
-1.180, -8.275e-5
-1.179, -8.113e-5
-1.178, -8.047e-5
-1.177, -8.323e-5
-1.176, -8.630e-5
-1.175, -8.709e-5
-1.174, -8.557e-5
-1.173, -8.469e-5
-1.172, -8.736e-5
-1.171, -9.085e-5
-1.170, -9.141e-5
-1.169, -8.996e-5
-1.168, -8.908e-5
-1.167, -9.168e-5
-1.166, -9.524e-5
-1.165, -9.596e-5
-1.164, -9.404e-5
-1.163, -9.372e-5
-1.162, -9.588e-5
-1.161, -9.947e-5
-1.160, -1.000e-4
-1.159, -9.831e-5
-1.158, -9.766e-5
-1.157, -9.993e-5
-1.156, -1.034e-4
-1.155, -1.039e-4
-1.154, -1.020e-4
-1.153, -1.013e-4
-1.152, -1.035e-4
-1.151, -1.068e-4
-1.150, -1.074e-4
-1.149, -1.051e-4
-1.148, -1.044e-4
-1.147, -1.068e-4
-1.146, -1.097e-4
-1.145, -1.100e-4
-1.144, -1.078e-4
-1.143, -1.068e-4
-1.142, -1.092e-4
-1.141, -1.117e-4
-1.140, -1.120e-4
-1.139, -1.097e-4
-1.138, -1.084e-4
-1.137, -1.106e-4
-1.136, -1.130e-4
-1.135, -1.130e-4
-1.134, -1.106e-4
-1.133, -1.090e-4
-1.132, -1.109e-4
-1.131, -1.136e-4
-1.130, -1.130e-4
-1.129, -1.105e-4
-1.128, -1.089e-4
-1.127, -1.105e-4
-1.126, -1.131e-4
-1.125, -1.120e-4
-1.124, -1.095e-4
-1.123, -1.080e-4
-1.122, -1.093e-4
-1.121, -1.115e-4
-1.120, -1.107e-4
-1.119, -1.076e-4
-1.118, -1.061e-4
-1.117, -1.071e-4
-1.116, -1.091e-4
-1.115, -1.083e-4
-1.114, -1.049e-4
-1.113, -1.034e-4
-1.112, -1.044e-4
-1.111, -1.063e-4
-1.110, -1.053e-4
-1.109, -1.018e-4
-1.108, -1.000e-4
-1.107, -1.011e-4
-1.106, -1.027e-4
-1.105, -1.015e-4
-1.104, -9.790e-5
-1.103, -9.614e-5
-1.102, -9.749e-5
-1.101, -9.887e-5
-1.100, -9.747e-5
-1.099, -9.408e-5
-1.098, -9.211e-5
-1.097, -9.352e-5
-1.096, -9.498e-5
-1.095, -9.343e-5
-1.094, -9.006e-5
-1.093, -8.807e-5
-1.092, -8.925e-5
-1.091, -9.084e-5
-1.090, -8.923e-5
-1.089, -8.583e-5
-1.088, -8.402e-5
-1.087, -8.501e-5
-1.086, -8.676e-5
-1.085, -8.550e-5
-1.084, -8.189e-5
-1.083, -8.066e-5
-1.082, -8.167e-5
-1.081, -8.349e-5
-1.080, -8.188e-5
-1.079, -7.859e-5
-1.078, -7.710e-5
-1.077, -7.803e-5
-1.076, -7.992e-5
-1.075, -7.834e-5
-1.074, -7.459e-5
-1.073, -7.325e-5
-1.072, -7.443e-5
-1.071, -7.592e-5
-1.070, -7.474e-5
-1.069, -7.095e-5
-1.068, -6.969e-5
-1.067, -7.132e-5
-1.066, -7.294e-5
-1.065, -7.173e-5
-1.064, -6.825e-5
-1.063, -6.686e-5
-1.062, -6.852e-5
-1.061, -6.990e-5
-1.060, -6.839e-5
-1.059, -6.523e-5
-1.058, -6.371e-5
-1.057, -6.557e-5
-1.056, -6.704e-5
-1.055, -6.555e-5
-1.054, -6.256e-5
-1.053, -6.124e-5
-1.052, -6.302e-5
-1.051, -6.476e-5
-1.050, -6.319e-5
-1.049, -6.026e-5
-1.048, -5.906e-5
-1.047, -6.093e-5
-1.046, -6.281e-5
-1.045, -6.125e-5
-1.044, -5.829e-5
-1.043, -5.728e-5
-1.042, -5.910e-5
-1.041, -6.104e-5
-1.040, -5.959e-5
-1.039, -5.654e-5
-1.038, -5.575e-5
-1.037, -5.752e-5
-1.036, -5.924e-5
-1.035, -5.822e-5
-1.034, -5.513e-5
-1.033, -5.432e-5
-1.032, -5.624e-5
-1.031, -5.802e-5
-1.030, -5.676e-5
-1.029, -5.377e-5
-1.028, -5.282e-5
-1.027, -5.514e-5
-1.026, -5.669e-5
-1.025, -5.554e-5
-1.024, -5.250e-5
-1.023, -5.150e-5
-1.022, -5.369e-5
-1.021, -5.530e-5
-1.020, -5.392e-5
-1.019, -5.130e-5
-1.018, -5.037e-5
-1.017, -5.259e-5
-1.016, -5.410e-5
-1.015, -5.277e-5
-1.014, -4.998e-5
-1.013, -4.894e-5
-1.012, -5.099e-5
-1.011, -5.293e-5
-1.010, -5.133e-5
-1.009, -4.857e-5
-1.008, -4.773e-5
-1.007, -4.970e-5
-1.006, -5.177e-5
-1.005, -5.019e-5
-1.004, -4.711e-5
-1.003, -4.656e-5
-1.002, -4.850e-5
-1.001, -5.036e-5
