Potential V vs RHE, Current mA cm-2
0.013299999999999867,-3.447651437771094
0.012299999999999978,-4.538393849967037
0.011299999999999866,-5.105693081212917
0.010299999999999976,-5.497568111275533
0.009299999999999864,-5.80314575204638
0.008299999999999974,-6.021011292225596
0.007299999999999862,-6.238876832404812
0.006299999999999972,-6.414301033588076
0.00529999999999986,-6.588310523471475
0.0042999999999999705,-6.762320013354876
0.0032999999999998586,-6.893888164242324
0.0022999999999999687,-7.111753704421539
0.0012999999999998568,-7.243321855308987
0.00029999999999996696,-7.329619244600755
-0.000700000000000145,-7.461187395488204
-0.0017000000000000348,-7.591340835075788
-0.0027000000000001467,-7.679052935667419
-0.0037000000000000366,-7.809206375255003
-0.0047000000000001485,-7.896918475846635
-0.005700000000000038,-7.984630576438266
-0.00670000000000015,-8.070927965730034
-0.00770000000000004,-8.158640066321666
-0.008700000000000152,-8.288793505909249
-0.009700000000000042,-8.4203616567967
-0.010700000000000154,-8.55051509638428
-0.011700000000000044,-8.68208324727173
-0.012700000000000156,-8.725939297567548
-0.013700000000000045,-8.812236686859313
-0.014700000000000157,-8.899948787450944
-0.015700000000000047,-8.943804837746763
-0.01670000000000016,-9.031516938338395
-0.01770000000000005,-9.11781432763016
-0.01870000000000016,-9.161670377925978
-0.01970000000000005,-9.24938247851761
-0.020700000000000163,-9.335679867809377
-0.021700000000000053,-9.423391968401008
-0.022700000000000164,-9.511104068992642
-0.023700000000000054,-9.641257508580225
-0.024700000000000166,-9.728969609171857
-0.025700000000000056,-9.81668170976349
-0.026700000000000168,-9.85912304875944
-0.027700000000000058,-9.946835149351072
-0.02870000000000017,-10.034547249942705
-0.02970000000000006,-10.078403300238522
-0.03070000000000017,-10.120844639234473
-0.03170000000000006,-10.164700689530287
-0.03270000000000017,-10.25241279012192
-0.03370000000000006,-10.340124890713554
-0.034700000000000175,-10.382566229709504
-0.035700000000000065,-10.470278330301136
-0.03670000000000018,-10.557990430892769
-0.03770000000000007,-10.644287820184536
-0.03870000000000018,-10.731999920776168
-0.03970000000000007,-10.775855971071984
-0.04070000000000018,-10.863568071663616
-0.04170000000000007,-10.906009410659568
-0.04270000000000018,-10.949865460955383
-0.04370000000000007,-10.993721511251199
-0.044700000000000184,-11.037577561547016
-0.045700000000000074,-11.123874950838783
-0.046700000000000186,-11.1677310011346
-0.047700000000000076,-11.211587051430415
-0.04870000000000019,-11.299299152022046
-0.04970000000000008,-11.385596541313816
-0.05070000000000019,-11.473308641905447
-0.05170000000000008,-11.56102074249708
-0.05270000000000019,-11.604876792792895
-0.05370000000000008,-11.691174182084664
-0.05470000000000019,-11.73503023238048
-0.05570000000000008,-11.778886282676295
-0.056700000000000195,-11.82274233297211
-0.057700000000000085,-11.86659838326793
-0.058700000000000196,-11.86659838326793
-0.059700000000000086,-11.996751822855511
-0.0607000000000002,-12.040607873151327
-0.06170000000000009,-12.12831997374296
-0.0627000000000002,-12.170761312738911
-0.06370000000000009,-12.258473413330542
-0.0647000000000002,-12.346185513922174
-0.06570000000000009,-12.390041564217992
-0.0667000000000002,-12.432482903213943
-0.0677000000000001,-12.476338953509758
-0.0687000000000002,-12.56405105410139
-0.0697000000000001,-12.56405105410139
-0.07070000000000021,-12.607907104397206
-0.0717000000000001,-12.651763154693022
-0.07270000000000021,-12.73806054398479
-0.0737000000000001,-12.781916594280606
-0.07470000000000021,-12.869628694872238
-0.0757000000000001,-12.955926084164007
-0.07670000000000021,-12.99978213445982
-0.0777000000000001,-13.087494235051453
-0.07870000000000021,-13.175206335643086
-0.0797000000000001,-13.217647674639037
-0.08070000000000022,-13.261503724934855
-0.0817000000000001,-13.30535977523067
-0.08270000000000022,-13.349215825526485
-0.08370000000000011,-13.3930718758223
-0.08470000000000022,-13.436927926118118
-0.08570000000000011,-13.47936926511407
-0.08670000000000022,-13.567081365705702
-0.08770000000000011,-13.610937416001518
-0.08870000000000022,-13.698649516593148
-0.08970000000000011,-13.784946905884919
-0.09070000000000022,-13.828802956180734
-0.09170000000000011,-13.916515056772363
-0.09270000000000023,-13.960371107068182
-0.09370000000000012,-14.046668496359947
-0.09470000000000023,-14.090524546655764
-0.09570000000000012,-14.13438059695158
-0.09670000000000023,-14.175407224647667
-0.09770000000000012,-14.217848563643619
-0.09870000000000023,-14.26028990263957
-0.09970000000000012,-14.345172580631472
-0.10070000000000023,-14.401761032626075
-0.10170000000000012,-14.486643710617974
-0.10270000000000024,-14.529085049613924
-0.10370000000000013,-14.61396772760583
-0.10470000000000024,-14.69885040559773
-0.10570000000000013,-14.783733083589633
-0.10670000000000024,-14.826174422585586
-0.10770000000000013,-14.925204213576137
-0.10870000000000024,-14.925204213576137
-0.10970000000000013,-15.01008689156804
-0.11070000000000024,-15.05252823056399
-0.11170000000000013,-15.094969569559943
-0.11270000000000002,-15.179852247551842
-0.11370000000000013,-15.222293586547794
-0.11470000000000002,-15.264734925543747
-0.11570000000000014,-15.3920589425316
-0.11670000000000003,-15.491088733522153
-0.11770000000000014,-15.575971411514052
-0.11870000000000003,-15.660854089505953
-0.11970000000000014,-15.70329542850191
-0.12070000000000003,-15.78817810649381
-0.12170000000000014,-15.830619445489761
-0.12270000000000003,-15.87306078448571
-0.12370000000000014,-15.972090575476265
-0.12470000000000003,-16.056973253468165
-0.12570000000000014,-16.056973253468165
-0.12670000000000003,-16.184297270456018
-0.12770000000000015,-16.22673860945197
-0.12870000000000004,-16.311621287443874
-0.12970000000000015,-16.396503965435777
-0.13070000000000004,-16.53797509542228
-0.13170000000000015,-16.622857773414182
-0.13270000000000004,-16.70774045140608
-0.13370000000000015,-16.750181790402035
-0.13470000000000004,-16.835064468393938
-0.13570000000000015,-16.877505807389888
-0.13670000000000004,-16.962388485381787
-0.13770000000000016,-17.061418276372343
-0.13870000000000005,-17.103859615368293
-0.13970000000000016,-17.188742293360193
-0.14070000000000005,-17.231183632356142
-0.14170000000000016,-17.316066310348052
-0.14270000000000005,-17.4433903273359
-0.14370000000000016,-17.542420118326454
-0.14470000000000005,-17.627302796318357
-0.14570000000000016,-17.75462681330621
-0.14670000000000005,-17.797068152302163
-0.14770000000000016,-17.924392169290012
-0.14870000000000005,-17.966833508285966
-0.14970000000000017,-18.06586329927652
-0.15070000000000006,-18.15074597726842
-0.15170000000000017,-18.19318731626437
-0.15270000000000006,-18.27806999425627
-0.15370000000000017,-18.40539401124413
-0.15470000000000006,-18.49027668923603
-0.15570000000000017,-18.589306480226583
-0.15670000000000006,-18.716630497214435
-0.15770000000000017,-18.80151317520634
-0.15870000000000006,-18.92883719219419
-0.15970000000000018,-19.01371987018609
-0.16070000000000007,-19.112749661176647
-0.16170000000000018,-19.197632339168546
-0.16270000000000007,-19.28251501716045
-0.16370000000000018,-19.367397695152352
-0.16470000000000007,-19.452280373144255
-0.16570000000000018,-19.537163051136158
-0.16670000000000007,-19.678634181122664
-0.16770000000000018,-19.763516859114564
-0.16870000000000007,-19.848399537106463
-0.16970000000000018,-19.97572355409432
-0.17070000000000007,-20.10304757108217
-0.17170000000000019,-20.244518701068674
-0.17270000000000008,-20.329401379060574
-0.1737000000000002,-20.414284057052477
-0.17470000000000008,-20.541608074040333
-0.1757000000000002,-20.626490752032236
-0.17670000000000008,-20.72552054302279
-0.1777000000000002,-20.810403221014692
-0.17870000000000008,-20.89528589900659
-0.1797000000000002,-21.022609915994444
-0.18070000000000008,-21.107492593986347
-0.1817000000000002,-21.248963723972853
-0.18270000000000008,-21.376287740960702
-0.1837000000000002,-21.461170418952605
-0.1847000000000001,-21.58849443594046
-0.1857000000000002,-21.729965565926964
-0.1867000000000001,-21.814848243918867
-0.1877000000000002,-21.94217226090672
-0.1887000000000001,-22.069496277894572
-0.1897000000000002,-22.111937616890522
-0.1907000000000001,-22.253408746877028
-0.1917000000000001,-22.33829142486893
-0.19269999999999998,-22.42317410286083
-0.1937000000000001,-22.550498119848687
-0.19469999999999998,-22.63538079784059
-0.1957000000000001,-22.819293266823045
-0.19669999999999999,-22.904175944814945
-0.1977000000000001,-23.031499961802798
-0.1987,-23.2012653177866
-0.1997000000000001,-23.300295108777156
-0.2007,-23.427619125765005
-0.2017000000000001,-23.51250180375691
-0.2027,-23.597384481748815
-0.2037000000000001,-23.682267159740714
-0.2047,-23.823738289727217
-0.2057000000000001,-23.908620967719123
-0.2067,-24.035944984706973
-0.2077000000000001,-24.120827662698876
-0.2087,-24.24815167968673
-0.2097000000000001,-24.389622809673234
-0.2107,-24.516946826661083
-0.2117000000000001,-24.64427084364894
-0.2127,-24.729153521640843
-0.2137000000000001,-24.870624651627345
-0.2147,-24.997948668615198
-0.2157000000000001,-25.0828313466071
-0.2167,-25.210155363594954
-0.21770000000000012,-25.295038041586857
-0.2187,-25.39406783257741
-0.21970000000000012,-25.521391849565262
-0.2207,-25.60627452755716
-0.22170000000000012,-25.73359854454502
-0.2227,-25.86092256153287
-0.22370000000000012,-25.959952352523427
-0.2247,-26.087276369511276
-0.22570000000000012,-26.21460038649913
-0.2267,-26.29948306449103
-0.22770000000000012,-26.440954194477534
-0.22870000000000001,-26.525836872469437
-0.22970000000000013,-26.61071955046134
-0.23070000000000002,-26.69560222845324
-0.23170000000000013,-26.780484906445146
-0.23270000000000002,-26.907808923433
-0.23370000000000013,-27.00683871442355
-0.23470000000000002,-27.091721392415455
-0.23570000000000013,-27.261486748399253
-0.23670000000000002,-27.34636942639116
-0.2376999999999999,-27.43125210438306
-0.23870000000000002,-27.615164573365515
-0.2396999999999999,-27.65760591236147
-0.24070000000000003,-27.78492992934932
-0.24169999999999991,-27.869812607341224
-0.24270000000000003,-27.954695285333123
-0.24369999999999992,-28.05372507632368
-0.24470000000000003,-28.13860775431558
-0.24569999999999992,-28.22349043230748
-0.24670000000000003,-28.350814449295335
-0.24769999999999992,-28.435697127287238
-0.24870000000000003,-28.53472691827779
-0.24969999999999992,-28.662050935265643
-0.25070000000000003,-28.746933613257543
-0.2516999999999999,-28.8742576302454
-0.25270000000000004,-28.959140308237306
-0.2536999999999999,-29.058170099227848
-0.25470000000000004,-29.14305277721976
-0.2556999999999999,-29.22793545521166
-0.25670000000000004,-29.31281813320356
-0.25769999999999993,-29.35525947219951
-0.25870000000000004,-29.440142150191413
-0.25969999999999993,-29.525024828183312
-0.26070000000000004,-29.62405461917387
-0.26169999999999993,-29.708937297165768
-0.26270000000000004,-29.793819975157668
-0.26369999999999993,-29.878702653149578
-0.26470000000000005,-30.00602667013743
-0.26569999999999994,-30.10505646112798
-0.26670000000000005,-30.189939139119886
-0.26769999999999994,-30.274821817111786
-0.26870000000000005,-30.317263156107735
-0.26969999999999994,-30.359704495103685
-0.27070000000000005,-30.402145834099635
-0.27169999999999994,-30.444587173095588
-0.27270000000000005,-30.529469851087494
-0.27369999999999994,-30.614352529079397
-0.27470000000000006,-30.670940981073993
-0.27569999999999995,-30.7558236590659
-0.27670000000000006,-30.8407063370578
-0.27769999999999995,-30.925589015049702
-0.27870000000000006,-30.968030354045652
-0.27969999999999995,-31.052913032037555
-0.28070000000000006,-31.095354371033505
-0.28169999999999995,-31.137795710029454
-0.28270000000000006,-31.19438416202406
-0.28369999999999995,-31.23682550102001
-0.28470000000000006,-31.27926684001596
-0.28569999999999995,-31.321708179011907
-0.28670000000000007,-31.36414951800786
-0.28769999999999996,-31.40659085700382
-0.28870000000000007,-31.49147353499572
-0.28969999999999996,-31.57635621298762
-0.29070000000000007,-31.618797551983565
-0.29169999999999996,-31.717827342974125
-0.29270000000000007,-31.76026868197007
-0.29369999999999996,-31.802710020966025
-0.2947000000000001,-31.84515135996197
-0.29569999999999996,-31.84515135996197
-0.2967000000000001,-31.887592698957924
-0.29769999999999996,-31.930034037953877
-0.2987000000000001,-31.930034037953877
-0.29969999999999997,-32.01491671594578
-0.3007000000000001,-32.05735805494172
-0.30169999999999997,-32.09979939393769
-0.3027000000000001,-32.184682071929586
-0.30369999999999997,-32.184682071929586
-0.3047000000000001,-32.32615320191609
-0.30569999999999997,-32.32615320191609
-0.3067000000000001,-32.368594540912035
-0.3077,-32.41103587990799
-0.3087000000000001,-32.45347721890394
-0.3097,-32.45347721890394
-0.3107000000000001,-32.49591855789989
-0.3117,-32.53835989689585
-0.3127000000000001,-32.53835989689585
-0.3137,-32.58080123589179
-0.3147000000000001,-32.62324257488775
-0.3157,-32.70812525287965
-0.3167000000000001,-32.764713704874254
-0.3177,-32.807155043870196
-0.3187000000000001,-32.892037721862096
-0.3197,-32.93447906085806
-0.3207000000000001,-33.01936173884996
-0.3217,-33.01936173884996
-0.3227000000000001,-33.06180307784591
-0.3237,-33.10424441684186
-0.3247000000000001,-33.14668575583781
-0.3257,-33.18912709483376
-0.3267000000000001,-33.231568433829715
-0.3277,-33.330598224820264
-0.3287000000000001,-33.41548090281216
-0.3297,-33.50036358080407
-0.3307000000000001,-33.58524625879597
-0.3317,-33.670128936787876
-0.3327000000000001,-33.755011614779775
-0.3337,-33.81160006677438
-0.3347000000000001,-33.89648274476628
-0.3357,-33.98136542275818
-0.3367000000000001,-34.02380676175414
-0.3377,-34.10868943974604
-0.3387000000000001,-34.15113077874198
-0.3397,-34.278454795729836
-0.3407000000000001,-34.377484586720385
-0.3417,-34.462367264712285
-0.3427000000000001,-34.58969128170015
-0.3437,-34.67457395969205
-0.3447000000000001,-34.85848642867451
-0.3457,-34.94336910666641
-0.3467000000000001,-35.07069312365426
-0.3477,-35.198017140642115
-0.3487000000000001,-35.32534115762997
-0.3497,-35.38192960962457
-0.3507000000000001,-35.50925362661242
-0.3517,-35.594136304604326
-0.3527000000000001,-35.721460321592176
-0.3537,-35.848784338580025
-0.3547000000000001,-35.94781412957058
-0.3557,-36.11757948555439
-0.35670000000000013,-36.244903502542236
-0.3577,-36.4288159715247
-0.35870000000000013,-36.5985813275085
-0.3597,-36.6834640055004
-0.36070000000000013,-36.8532293614842
-0.3617,-36.99470049147071
-0.3626999999999999,-37.07958316946261
-0.3637,-37.249348525446415
-0.3646999999999999,-37.376672542434264
-0.3657,-37.51814367242077
-0.3666999999999999,-37.687909028404576
-0.3677,-37.81523304539243
-0.3686999999999999,-37.99914551437489
-0.36970000000000003,-38.211352209354644
-0.3706999999999999,-38.38111756533845
-0.37170000000000003,-38.5650300343209
-0.3726999999999999,-38.734795390304704
-0.37370000000000003,-38.86211940729255
-0.3746999999999999,-39.046031876275016
-0.37570000000000003,-39.173355893262865
-0.3766999999999999,-39.34312124924667
-0.37770000000000004,-39.47044526623452
-0.3786999999999999,-39.61191639622103
-0.37970000000000004,-39.82412309120078
-0.3806999999999999,-39.99388844718459
-0.38170000000000004,-40.177800916167044
-0.38269999999999993,-40.3900076111468
-0.38370000000000004,-40.559772967130606
-0.38469999999999993,-40.743685436113054
-0.38570000000000004,-40.95589213109281
-0.38669999999999993,-41.139804600075266
-0.38770000000000004,-41.352011295055014
-0.38869999999999993,-41.52177665103883
-0.38970000000000005,-41.66324778102533
-0.39069999999999994,-41.87545447600508
-0.39170000000000005,-42.00277849299294
-0.39269999999999994,-42.229132300971344
-0.39370000000000005,-42.39889765695515
-0.39469999999999994,-42.568663012938956
-0.39570000000000005,-42.79501682091736
-0.39669999999999994,-42.96478217690117
-0.39770000000000005,-43.17698887188092
-0.39869999999999994,-43.44578401885527
-0.39970000000000006,-43.61554937483908
-0.40069999999999995,-43.84190318281749
-0.40170000000000006,-44.011668538801295
-0.40269999999999995,-44.181433894785094
-0.40370000000000006,-44.36534636376755
-0.40469999999999995,-44.577553058747306
-0.40570000000000006,-44.74731841473111
-0.40669999999999995,-44.97367222270952
-0.40770000000000006,-45.143437578693316
-0.40869999999999995,-45.36979138667173
-0.40970000000000006,-45.624439420647434
-0.41069999999999995,-45.85079322862584
-0.41170000000000007,-46.062999923605595
-0.41269999999999996,-46.27520661858535
-0.41370000000000007,-46.45911908756781
-0.41469999999999996,-46.713767121543505
-0.41570000000000007,-46.88353247752732
-0.41669999999999996,-47.10988628550572
-0.41770000000000007,-47.27965164148953
-0.41869999999999996,-47.46356411047198
-0.4197000000000001,-47.67577080545174
-0.42069999999999996,-47.93041883942744
-0.4217000000000001,-48.156772647405845
-0.42269999999999996,-48.36897934238561
-0.4237000000000001,-48.59533315036401
-0.42469999999999997,-48.84998118433972
-0.4257000000000001,-49.076334992318124
-0.42669999999999997,-49.28854168729788
-0.4277000000000001,-49.50074838227763
-0.42869999999999997,-49.76954352925199
-0.4297000000000001,-49.939308885235796
-0.43069999999999997,-50.1656626932142
-0.4317000000000001,-50.37786938819396
-0.4327,-50.60422319617236
-0.4337000000000001,-50.81642989115212
-0.4347,-51.071077925127824
-0.4357000000000001,-51.33987307210218
-0.4367,-51.55207976708194
-0.4377000000000001,-51.77843357506035
-0.4387,-52.033081609036046
-0.4397000000000001,-52.25943541701445
-0.4407,-52.514083450990164
-0.4417000000000001,-52.74043725896857
-0.4427,-52.95264395394832
-0.4437000000000001,-53.16485064892808
-0.4447,-53.39120445690648
-0.4457000000000001,-53.603411151886235
-0.4467,-53.872206298860604
-0.4477000000000001,-54.08441299384035
-0.4487,-54.31076680181876
-0.4497000000000001,-54.60785617479041
-0.4507,-54.834209982768826
-0.4517000000000001,-55.088858016744524
-0.4527,-55.357653163718886
-0.4537000000000001,-55.612301197694585
-0.4547,-55.881096344668954
-0.4557000000000001,-56.05086170065276
-0.4567,-56.36209818662306
-0.4577000000000001,-56.57430488160282
-0.4587,-56.82895291557852
-0.4597000000000001,-57.05530672355693
-0.4607,-57.30995475753264
-0.4617000000000001,-57.57874990450699
-0.4627,-57.8333979384827
-0.4637000000000001,-58.10219308545706
-0.4647,-58.39928245842871
-0.4657000000000001,-58.66807760540307
-0.4667,-58.92272563937878
-0.4677000000000001,-59.19152078635314
-0.4687,-59.44616882032884
-0.4697000000000001,-59.7149639673032
-0.4707,-59.9696120012789
-0.4717000000000001,-60.19596580925731
-0.4727,-60.45061384323302
-0.4737000000000001,-60.71940899020737
-0.4747,-61.01649836317903
-0.4757000000000001,-61.327734849149344
-0.4767,-61.63897133511965
-0.4777000000000001,-61.89361936909536
-0.4787,-62.20485585506566
-0.4797000000000001,-62.459503889041365
-0.4807,-62.77074037501168
-0.48170000000000013,-63.06782974798333
-0.4827,-63.3366248949577
-0.48370000000000013,-63.59127292893339
-0.4847,-63.902509414903705
-0.48570000000000013,-64.15715744887942
-0.4867,-64.46839393484973
-0.4876999999999999,-64.77963042082003
-0.4887,-65.0767197937917
-0.4896999999999999,-65.43039761875795
-0.4907,-65.7274869917296
-0.4916999999999999,-66.08116481669586
-0.4927,-66.39240130266617
-0.4936999999999999,-66.68949067563783
-0.49470000000000003,-67.04316850060408
-0.4956999999999999,-67.34025787357575
-0.49670000000000003,-67.65149435954605
-0.4976999999999999,-67.96273084551636
-0.49870000000000003,-68.21737887949207
-0.4996999999999999,-68.57105670445833
-0.5007,-68.86814607742998
-0.5016999999999999,-69.22182390239624
-0.5027,-69.57550172736251
-0.5036999999999999,-69.91503243933012
-0.5047,-70.26871026429637
-0.5056999999999999,-70.66482942825859
-0.5067,-70.96191880123024
-0.5076999999999999,-71.35803796519245
