Aug. 11, 2024   08:37:04
Cyclic Voltammetry
File: c:/users/guazh/data/20240802_batch_500/2024-08-02-exp81\exp81-2024-08-11t08_24_42-h2koh\exp81_cv_50mvs_efin_-1600mv.bin
Data Source:  Experiment
Instrument Model:  CHI760E
Header: CV ran at 50 mVs
Note: 

Init E (V) = -1
High E (V) = -1
Low E (V) = -1.6
Final E (V) = -1
Init P/N = N
Scan Rate (V/s) = 0.05
Segment = 7
Sample Interval (V) = 0.001
Quiet Time (sec) = 60
Sensitivity (A/V) = 0.001
Comp R (ohm) = 1.9

Results:

Channel 1:
Segment 1:

Segment 2:

Segment 3:

Segment 4:

Segment 5:

Segment 6:

Segment 7:

Potential/V, Current/A

-1.000, 2.123e-6
-1.001, 2.665e-6
-1.002, 2.806e-6
-1.003, 3.269e-6
-1.004, 3.851e-6
-1.005, 3.874e-6
-1.006, 3.755e-6
-1.007, 3.750e-6
-1.008, 4.052e-6
-1.009, 4.541e-6
-1.010, 4.585e-6
-1.011, 4.347e-6
-1.012, 4.291e-6
-1.013, 4.641e-6
-1.014, 5.050e-6
-1.015, 4.977e-6
-1.016, 4.783e-6
-1.017, 4.616e-6
-1.018, 5.045e-6
-1.019, 5.366e-6
-1.020, 5.343e-6
-1.021, 5.134e-6
-1.022, 4.977e-6
-1.023, 5.303e-6
-1.024, 5.735e-6
-1.025, 5.616e-6
-1.026, 5.350e-6
-1.027, 5.244e-6
-1.028, 5.557e-6
-1.029, 5.939e-6
-1.030, 5.794e-6
-1.031, 5.570e-6
-1.032, 5.418e-6
-1.033, 5.710e-6
-1.034, 6.164e-6
-1.035, 5.983e-6
-1.036, 5.674e-6
-1.037, 5.646e-6
-1.038, 5.877e-6
-1.039, 6.259e-6
-1.040, 6.109e-6
-1.041, 5.874e-6
-1.042, 5.731e-6
-1.043, 5.993e-6
-1.044, 6.397e-6
-1.045, 6.216e-6
-1.046, 5.973e-6
-1.047, 5.849e-6
-1.048, 6.042e-6
-1.049, 6.425e-6
-1.050, 6.347e-6
-1.051, 6.025e-6
-1.052, 5.865e-6
-1.053, 6.173e-6
-1.054, 6.577e-6
-1.055, 6.425e-6
-1.056, 6.076e-6
-1.057, 5.937e-6
-1.058, 6.259e-6
-1.059, 6.593e-6
-1.060, 6.416e-6
-1.061, 6.168e-6
-1.062, 6.021e-6
-1.063, 6.283e-6
-1.064, 6.657e-6
-1.065, 6.525e-6
-1.066, 6.314e-6
-1.067, 6.070e-6
-1.068, 6.347e-6
-1.069, 6.707e-6
-1.070, 6.562e-6
-1.071, 6.247e-6
-1.072, 6.060e-6
-1.073, 6.338e-6
-1.074, 6.777e-6
-1.075, 6.607e-6
-1.076, 6.268e-6
-1.077, 6.103e-6
-1.078, 6.405e-6
-1.079, 6.744e-6
-1.080, 6.602e-6
-1.081, 6.295e-6
-1.082, 6.180e-6
-1.083, 6.405e-6
-1.084, 6.793e-6
-1.085, 6.655e-6
-1.086, 6.341e-6
-1.087, 6.208e-6
-1.088, 6.455e-6
-1.089, 6.785e-6
-1.090, 6.704e-6
-1.091, 6.343e-6
-1.092, 6.244e-6
-1.093, 6.492e-6
-1.094, 6.821e-6
-1.095, 6.761e-6
-1.096, 6.425e-6
-1.097, 6.249e-6
-1.098, 6.609e-6
-1.099, 6.897e-6
-1.100, 6.740e-6
-1.101, 6.457e-6
-1.102, 6.333e-6
-1.103, 6.647e-6
-1.104, 6.905e-6
-1.105, 6.839e-6
-1.106, 6.542e-6
-1.107, 6.388e-6
-1.108, 6.661e-6
-1.109, 7.046e-6
-1.110, 6.934e-6
-1.111, 6.635e-6
-1.112, 6.474e-6
-1.113, 6.793e-6
-1.114, 7.102e-6
-1.115, 6.996e-6
-1.116, 6.666e-6
-1.117, 6.556e-6
-1.118, 6.830e-6
-1.119, 7.229e-6
-1.120, 7.082e-6
-1.121, 6.718e-6
-1.122, 6.639e-6
-1.123, 6.911e-6
-1.124, 7.307e-6
-1.125, 7.202e-6
-1.126, 6.842e-6
-1.127, 6.753e-6
-1.128, 7.000e-6
-1.129, 7.400e-6
-1.130, 7.271e-6
-1.131, 6.989e-6
-1.132, 6.887e-6
-1.133, 7.145e-6
-1.134, 7.545e-6
-1.135, 7.403e-6
-1.136, 7.057e-6
-1.137, 6.923e-6
-1.138, 7.287e-6
-1.139, 7.660e-6
-1.140, 7.494e-6
-1.141, 7.221e-6
-1.142, 7.085e-6
-1.143, 7.403e-6
-1.144, 7.790e-6
-1.145, 7.633e-6
-1.146, 7.320e-6
-1.147, 7.236e-6
-1.148, 7.532e-6
-1.149, 7.961e-6
-1.150, 7.864e-6
-1.151, 7.522e-6
-1.152, 7.487e-6
-1.153, 7.724e-6
-1.154, 8.091e-6
-1.155, 7.941e-6
-1.156, 7.589e-6
-1.157, 7.560e-6
-1.158, 7.787e-6
-1.159, 8.181e-6
-1.160, 8.098e-6
-1.161, 7.784e-6
-1.162, 7.670e-6
-1.163, 7.920e-6
-1.164, 8.311e-6
-1.165, 8.281e-6
-1.166, 7.880e-6
-1.167, 7.822e-6
-1.168, 8.129e-6
-1.169, 8.465e-6
-1.170, 8.422e-6
-1.171, 8.055e-6
-1.172, 8.000e-6
-1.173, 8.288e-6
-1.174, 8.660e-6
-1.175, 8.560e-6
-1.176, 8.224e-6
-1.177, 8.133e-6
-1.178, 8.449e-6
-1.179, 8.830e-6
-1.180, 8.760e-6
-1.181, 8.423e-6
-1.182, 8.360e-6
-1.183, 8.710e-6
-1.184, 9.034e-6
-1.185, 8.977e-6
-1.186, 8.650e-6
-1.187, 8.579e-6
-1.188, 9.014e-6
-1.189, 9.370e-6
-1.190, 9.296e-6
-1.191, 8.923e-6
-1.192, 8.815e-6
-1.193, 9.166e-6
-1.194, 9.590e-6
-1.195, 9.497e-6
-1.196, 9.171e-6
-1.197, 9.149e-6
-1.198, 9.520e-6
-1.199, 9.898e-6
-1.200, 9.785e-6
-1.201, 9.480e-6
-1.202, 9.442e-6
-1.203, 9.788e-6
-1.204, 1.020e-5
-1.205, 1.011e-5
-1.206, 9.789e-6
-1.207, 9.790e-6
-1.208, 1.019e-5
-1.209, 1.051e-5
-1.210, 1.050e-5
-1.211, 1.011e-5
-1.212, 1.007e-5
-1.213, 1.050e-5
-1.214, 1.089e-5
-1.215, 1.091e-5
-1.216, 1.053e-5
-1.217, 1.058e-5
-1.218, 1.096e-5
-1.219, 1.133e-5
-1.220, 1.127e-5
-1.221, 1.098e-5
-1.222, 1.097e-5
-1.223, 1.138e-5
-1.224, 1.175e-5
-1.225, 1.172e-5
-1.226, 1.147e-5
-1.227, 1.143e-5
-1.228, 1.191e-5
-1.229, 1.232e-5
-1.230, 1.229e-5
-1.231, 1.196e-5
-1.232, 1.200e-5
-1.233, 1.240e-5
-1.234, 1.286e-5
-1.235, 1.281e-5
-1.236, 1.257e-5
-1.237, 1.257e-5
-1.238, 1.294e-5
-1.239, 1.346e-5
-1.240, 1.342e-5
-1.241, 1.315e-5
-1.242, 1.316e-5
-1.243, 1.360e-5
-1.244, 1.410e-5
-1.245, 1.411e-5
-1.246, 1.384e-5
-1.247, 1.388e-5
-1.248, 1.431e-5
-1.249, 1.479e-5
-1.250, 1.490e-5
-1.251, 1.461e-5
-1.252, 1.468e-5
-1.253, 1.524e-5
-1.254, 1.577e-5
-1.255, 1.587e-5
-1.256, 1.562e-5
-1.257, 1.570e-5
-1.258, 1.616e-5
-1.259, 1.666e-5
-1.260, 1.669e-5
-1.261, 1.647e-5
-1.262, 1.651e-5
-1.263, 1.716e-5
-1.264, 1.765e-5
-1.265, 1.768e-5
-1.266, 1.761e-5
-1.267, 1.768e-5
-1.268, 1.821e-5
-1.269, 1.880e-5
-1.270, 1.886e-5
-1.271, 1.877e-5
-1.272, 1.891e-5
-1.273, 1.942e-5
-1.274, 2.009e-5
-1.275, 2.021e-5
-1.276, 2.014e-5
-1.277, 2.031e-5
-1.278, 2.091e-5
-1.279, 2.153e-5
-1.280, 2.175e-5
-1.281, 2.161e-5
-1.282, 2.192e-5
-1.283, 2.251e-5
-1.284, 2.319e-5
-1.285, 2.345e-5
-1.286, 2.336e-5
-1.287, 2.363e-5
-1.288, 2.433e-5
-1.289, 2.496e-5
-1.290, 2.540e-5
-1.291, 2.531e-5
-1.292, 2.568e-5
-1.293, 2.645e-5
-1.294, 2.720e-5
-1.295, 2.754e-5
-1.296, 2.756e-5
-1.297, 2.797e-5
-1.298, 2.867e-5
-1.299, 2.951e-5
-1.300, 2.992e-5
-1.301, 2.998e-5
-1.302, 3.043e-5
-1.303, 3.136e-5
-1.304, 3.223e-5
-1.305, 3.265e-5
-1.306, 3.289e-5
-1.307, 3.327e-5
-1.308, 3.430e-5
-1.309, 3.522e-5
-1.310, 3.567e-5
-1.311, 3.596e-5
-1.312, 3.646e-5
-1.313, 3.744e-5
-1.314, 3.852e-5
-1.315, 3.900e-5
-1.316, 3.933e-5
-1.317, 3.997e-5
-1.318, 4.101e-5
-1.319, 4.220e-5
-1.320, 4.285e-5
-1.321, 4.324e-5
-1.322, 4.400e-5
-1.323, 4.507e-5
-1.324, 4.619e-5
-1.325, 4.700e-5
-1.326, 4.746e-5
-1.327, 4.829e-5
-1.328, 4.950e-5
-1.329, 5.081e-5
-1.330, 5.176e-5
-1.331, 5.228e-5
-1.332, 5.318e-5
-1.333, 5.454e-5
-1.334, 5.586e-5
-1.335, 5.683e-5
-1.336, 5.751e-5
-1.337, 5.854e-5
-1.338, 6.002e-5
-1.339, 6.148e-5
-1.340, 6.254e-5
-1.341, 6.329e-5
-1.342, 6.442e-5
-1.343, 6.611e-5
-1.344, 6.764e-5
-1.345, 6.888e-5
-1.346, 6.986e-5
-1.347, 7.102e-5
-1.348, 7.279e-5
-1.349, 7.445e-5
-1.350, 7.588e-5
-1.351, 7.694e-5
-1.352, 7.828e-5
-1.353, 8.009e-5
-1.354, 8.196e-5
-1.355, 8.346e-5
-1.356, 8.467e-5
-1.357, 8.626e-5
-1.358, 8.822e-5
-1.359, 9.028e-5
-1.360, 9.181e-5
-1.361, 9.314e-5
-1.362, 9.478e-5
-1.363, 9.680e-5
-1.364, 9.889e-5
-1.365, 1.006e-4
-1.366, 1.020e-4
-1.367, 1.037e-4
-1.368, 1.059e-4
-1.369, 1.081e-4
-1.370, 1.100e-4
-1.371, 1.113e-4
-1.372, 1.131e-4
-1.373, 1.153e-4
-1.374, 1.176e-4
-1.375, 1.194e-4
-1.376, 1.209e-4
-1.377, 1.226e-4
-1.378, 1.249e-4
-1.379, 1.272e-4
-1.380, 1.291e-4
-1.381, 1.306e-4
-1.382, 1.324e-4
-1.383, 1.348e-4
-1.384, 1.371e-4
-1.385, 1.391e-4
-1.386, 1.408e-4
-1.387, 1.426e-4
-1.388, 1.450e-4
-1.389, 1.475e-4
-1.390, 1.496e-4
-1.391, 1.514e-4
-1.392, 1.535e-4
-1.393, 1.561e-4
-1.394, 1.588e-4
-1.395, 1.610e-4
-1.396, 1.630e-4
-1.397, 1.653e-4
-1.398, 1.680e-4
-1.399, 1.709e-4
-1.400, 1.734e-4
-1.401, 1.756e-4
-1.402, 1.781e-4
-1.403, 1.811e-4
-1.404, 1.841e-4
-1.405, 1.868e-4
-1.406, 1.893e-4
-1.407, 1.919e-4
-1.408, 1.950e-4
-1.409, 1.984e-4
-1.410, 2.014e-4
-1.411, 2.039e-4
-1.412, 2.069e-4
-1.413, 2.103e-4
-1.414, 2.136e-4
-1.415, 2.167e-4
-1.416, 2.194e-4
-1.417, 2.223e-4
-1.418, 2.259e-4
-1.419, 2.296e-4
-1.420, 2.331e-4
-1.421, 2.360e-4
-1.422, 2.394e-4
-1.423, 2.433e-4
-1.424, 2.470e-4
-1.425, 2.506e-4
-1.426, 2.539e-4
-1.427, 2.574e-4
-1.428, 2.615e-4
-1.429, 2.656e-4
-1.430, 2.694e-4
-1.431, 2.729e-4
-1.432, 2.767e-4
-1.433, 2.808e-4
-1.434, 2.852e-4
-1.435, 2.893e-4
-1.436, 2.930e-4
-1.437, 2.969e-4
-1.438, 3.014e-4
-1.439, 3.062e-4
-1.440, 3.103e-4
-1.441, 3.143e-4
-1.442, 3.186e-4
-1.443, 3.233e-4
-1.444, 3.282e-4
-1.445, 3.330e-4
-1.446, 3.372e-4
-1.447, 3.417e-4
-1.448, 3.467e-4
-1.449, 3.522e-4
-1.450, 3.570e-4
-1.451, 3.612e-4
-1.452, 3.659e-4
-1.453, 3.711e-4
-1.454, 3.765e-4
-1.455, 3.818e-4
-1.456, 3.866e-4
-1.457, 3.917e-4
-1.458, 3.973e-4
-1.459, 4.033e-4
-1.460, 4.089e-4
-1.461, 4.138e-4
-1.462, 4.193e-4
-1.463, 4.254e-4
-1.464, 4.314e-4
-1.465, 4.372e-4
-1.466, 4.430e-4
-1.467, 4.487e-4
-1.468, 4.549e-4
-1.469, 4.615e-4
-1.470, 4.680e-4
-1.471, 4.738e-4
-1.472, 4.800e-4
-1.473, 4.869e-4
-1.474, 4.938e-4
-1.475, 5.002e-4
-1.476, 5.067e-4
-1.477, 5.130e-4
-1.478, 5.198e-4
-1.479, 5.273e-4
-1.480, 5.342e-4
-1.481, 5.406e-4
-1.482, 5.477e-4
-1.483, 5.551e-4
-1.484, 5.632e-4
-1.485, 5.705e-4
-1.486, 5.777e-4
-1.487, 5.852e-4
-1.488, 5.927e-4
-1.489, 6.007e-4
-1.490, 6.088e-4
-1.491, 6.164e-4
-1.492, 6.239e-4
-1.493, 6.326e-4
-1.494, 6.413e-4
-1.495, 6.493e-4
-1.496, 6.568e-4
-1.497, 6.652e-4
-1.498, 6.738e-4
-1.499, 6.828e-4
-1.500, 6.918e-4
-1.501, 7.005e-4
-1.502, 7.087e-4
-1.503, 7.183e-4
-1.504, 7.284e-4
-1.505, 7.374e-4
-1.506, 7.461e-4
-1.507, 7.554e-4
-1.508, 7.654e-4
-1.509, 7.750e-4
-1.510, 7.855e-4
-1.511, 7.951e-4
-1.512, 8.039e-4
-1.513, 8.141e-4
-1.514, 8.248e-4
-1.515, 8.348e-4
-1.516, 8.446e-4
-1.517, 8.552e-4
-1.518, 8.654e-4
-1.519, 8.764e-4
-1.520, 8.880e-4
-1.521, 8.990e-4
-1.522, 9.094e-4
-1.523, 9.212e-4
-1.524, 9.337e-4
-1.525, 9.450e-4
-1.526, 9.558e-4
-1.527, 9.678e-4
-1.528, 9.796e-4
-1.529, 9.920e-4
-1.530, 1.005e-3
-1.531, 1.017e-3
-1.532, 1.028e-3
-1.533, 1.041e-3
-1.534, 1.055e-3
-1.535, 1.067e-3
-1.536, 1.079e-3
-1.537, 1.091e-3
-1.538, 1.103e-3
-1.539, 1.116e-3
-1.540, 1.130e-3
-1.541, 1.143e-3
-1.542, 1.157e-3
-1.543, 1.172e-3
-1.544, 1.187e-3
-1.545, 1.201e-3
-1.546, 1.216e-3
-1.547, 1.230e-3
-1.548, 1.244e-3
-1.549, 1.259e-3
-1.550, 1.275e-3
-1.551, 1.290e-3
-1.552, 1.304e-3
-1.553, 1.321e-3
-1.554, 1.337e-3
-1.555, 1.352e-3
-1.556, 1.368e-3
-1.557, 1.383e-3
-1.558, 1.398e-3
-1.559, 1.414e-3
-1.560, 1.431e-3
-1.561, 1.447e-3
-1.562, 1.463e-3
-1.563, 1.481e-3
-1.564, 1.498e-3
-1.565, 1.514e-3
-1.566, 1.532e-3
-1.567, 1.549e-3
-1.568, 1.564e-3
-1.569, 1.583e-3
-1.570, 1.603e-3
-1.571, 1.619e-3
-1.572, 1.636e-3
-1.573, 1.655e-3
-1.574, 1.673e-3
-1.575, 1.690e-3
-1.576, 1.708e-3
-1.577, 1.725e-3
-1.578, 1.740e-3
-1.579, 1.759e-3
-1.580, 1.778e-3
-1.581, 1.795e-3
-1.582, 1.815e-3
-1.583, 1.837e-3
-1.584, 1.856e-3
-1.585, 1.875e-3
-1.586, 1.896e-3
-1.587, 1.915e-3
-1.588, 1.932e-3
-1.589, 1.953e-3
-1.590, 1.976e-3
-1.591, 1.994e-3
-1.592, 2.014e-3
-1.593, 2.035e-3
-1.594, 2.056e-3
-1.595, 2.074e-3
-1.596, 2.096e-3
-1.597, 2.116e-3
-1.598, 2.133e-3
-1.599, 2.154e-3
-1.600, 2.148e-3
-1.599, 2.112e-3
-1.598, 2.076e-3
-1.597, 2.045e-3
-1.596, 2.012e-3
-1.595, 1.978e-3
-1.594, 1.945e-3
-1.593, 1.914e-3
-1.592, 1.880e-3
-1.591, 1.850e-3
-1.590, 1.821e-3
-1.589, 1.788e-3
-1.588, 1.756e-3
-1.587, 1.727e-3
-1.586, 1.700e-3
-1.585, 1.672e-3
-1.584, 1.642e-3
-1.583, 1.615e-3
-1.582, 1.588e-3
-1.581, 1.557e-3
-1.580, 1.529e-3
-1.579, 1.501e-3
-1.578, 1.473e-3
-1.577, 1.450e-3
-1.576, 1.427e-3
-1.575, 1.403e-3
-1.574, 1.381e-3
-1.573, 1.359e-3
-1.572, 1.337e-3
-1.571, 1.314e-3
-1.570, 1.293e-3
-1.569, 1.271e-3
-1.568, 1.249e-3
-1.567, 1.230e-3
-1.566, 1.211e-3
-1.565, 1.191e-3
-1.564, 1.171e-3
-1.563, 1.152e-3
-1.562, 1.134e-3
-1.561, 1.116e-3
-1.560, 1.099e-3
-1.559, 1.081e-3
-1.558, 1.063e-3
-1.557, 1.047e-3
-1.556, 1.031e-3
-1.555, 1.014e-3
-1.554, 9.970e-4
-1.553, 9.815e-4
-1.552, 9.661e-4
-1.551, 9.501e-4
-1.550, 9.346e-4
-1.549, 9.186e-4
-1.548, 9.029e-4
-1.547, 8.887e-4
-1.546, 8.755e-4
-1.545, 8.619e-4
-1.544, 8.483e-4
-1.543, 8.355e-4
-1.542, 8.229e-4
-1.541, 8.101e-4
-1.540, 7.976e-4
-1.539, 7.854e-4
-1.538, 7.726e-4
-1.537, 7.609e-4
-1.536, 7.499e-4
-1.535, 7.381e-4
-1.534, 7.265e-4
-1.533, 7.154e-4
-1.532, 7.043e-4
-1.531, 6.937e-4
-1.530, 6.832e-4
-1.529, 6.721e-4
-1.528, 6.614e-4
-1.527, 6.516e-4
-1.526, 6.418e-4
-1.525, 6.318e-4
-1.524, 6.222e-4
-1.523, 6.124e-4
-1.522, 6.033e-4
-1.521, 5.944e-4
-1.520, 5.860e-4
-1.519, 5.765e-4
-1.518, 5.678e-4
-1.517, 5.598e-4
-1.516, 5.516e-4
-1.515, 5.433e-4
-1.514, 5.352e-4
-1.513, 5.269e-4
-1.512, 5.193e-4
-1.511, 5.119e-4
-1.510, 5.039e-4
-1.509, 4.954e-4
-1.508, 4.879e-4
-1.507, 4.808e-4
-1.506, 4.738e-4
-1.505, 4.670e-4
-1.504, 4.600e-4
-1.503, 4.532e-4
-1.502, 4.466e-4
-1.501, 4.406e-4
-1.500, 4.342e-4
-1.499, 4.274e-4
-1.498, 4.210e-4
-1.497, 4.152e-4
-1.496, 4.095e-4
-1.495, 4.035e-4
-1.494, 3.973e-4
-1.493, 3.915e-4
-1.492, 3.859e-4
-1.491, 3.807e-4
-1.490, 3.752e-4
-1.489, 3.692e-4
-1.488, 3.639e-4
-1.487, 3.588e-4
-1.486, 3.537e-4
-1.485, 3.484e-4
-1.484, 3.430e-4
-1.483, 3.377e-4
-1.482, 3.329e-4
-1.481, 3.282e-4
-1.480, 3.235e-4
-1.479, 3.184e-4
-1.478, 3.136e-4
-1.477, 3.092e-4
-1.476, 3.048e-4
-1.475, 3.000e-4
-1.474, 2.951e-4
-1.473, 2.904e-4
-1.472, 2.864e-4
-1.471, 2.825e-4
-1.470, 2.784e-4
-1.469, 2.738e-4
-1.468, 2.697e-4
-1.467, 2.659e-4
-1.466, 2.622e-4
-1.465, 2.582e-4
-1.464, 2.541e-4
-1.463, 2.500e-4
-1.462, 2.465e-4
-1.461, 2.432e-4
-1.460, 2.394e-4
-1.459, 2.354e-4
-1.458, 2.319e-4
-1.457, 2.287e-4
-1.456, 2.256e-4
-1.455, 2.222e-4
-1.454, 2.183e-4
-1.453, 2.149e-4
-1.452, 2.120e-4
-1.451, 2.091e-4
-1.450, 2.058e-4
-1.449, 2.023e-4
-1.448, 1.992e-4
-1.447, 1.964e-4
-1.446, 1.937e-4
-1.445, 1.908e-4
-1.444, 1.875e-4
-1.443, 1.844e-4
-1.442, 1.819e-4
-1.441, 1.794e-4
-1.440, 1.765e-4
-1.439, 1.733e-4
-1.438, 1.705e-4
-1.437, 1.682e-4
-1.436, 1.659e-4
-1.435, 1.632e-4
-1.434, 1.602e-4
-1.433, 1.574e-4
-1.432, 1.552e-4
-1.431, 1.530e-4
-1.430, 1.504e-4
-1.429, 1.478e-4
-1.428, 1.453e-4
-1.427, 1.432e-4
-1.426, 1.412e-4
-1.425, 1.388e-4
-1.424, 1.364e-4
-1.423, 1.339e-4
-1.422, 1.321e-4
-1.421, 1.303e-4
-1.420, 1.280e-4
-1.419, 1.256e-4
-1.418, 1.235e-4
-1.417, 1.217e-4
-1.416, 1.201e-4
-1.415, 1.180e-4
-1.414, 1.156e-4
-1.413, 1.137e-4
-1.412, 1.122e-4
-1.411, 1.105e-4
-1.410, 1.085e-4
-1.409, 1.064e-4
-1.408, 1.046e-4
-1.407, 1.031e-4
-1.406, 1.016e-4
-1.405, 9.974e-5
-1.404, 9.772e-5
-1.403, 9.591e-5
-1.402, 9.459e-5
-1.401, 9.323e-5
-1.400, 9.146e-5
-1.399, 8.958e-5
-1.398, 8.781e-5
-1.397, 8.661e-5
-1.396, 8.543e-5
-1.395, 8.369e-5
-1.394, 8.187e-5
-1.393, 8.031e-5
-1.392, 7.924e-5
-1.391, 7.807e-5
-1.390, 7.649e-5
-1.389, 7.481e-5
-1.388, 7.332e-5
-1.387, 7.230e-5
-1.386, 7.131e-5
-1.385, 6.982e-5
-1.384, 6.821e-5
-1.383, 6.679e-5
-1.382, 6.587e-5
-1.381, 6.490e-5
-1.380, 6.355e-5
-1.379, 6.199e-5
-1.378, 6.077e-5
-1.377, 5.994e-5
-1.376, 5.912e-5
-1.375, 5.778e-5
-1.374, 5.624e-5
-1.373, 5.509e-5
-1.372, 5.442e-5
-1.371, 5.356e-5
-1.370, 5.236e-5
-1.369, 5.097e-5
-1.368, 4.991e-5
-1.367, 4.923e-5
-1.366, 4.848e-5
-1.365, 4.734e-5
-1.364, 4.605e-5
-1.363, 4.502e-5
-1.362, 4.444e-5
-1.361, 4.374e-5
-1.360, 4.271e-5
-1.359, 4.150e-5
-1.358, 4.056e-5
-1.357, 4.003e-5
-1.356, 3.940e-5
-1.355, 3.837e-5
-1.354, 3.725e-5
-1.353, 3.630e-5
-1.352, 3.593e-5
-1.351, 3.537e-5
-1.350, 3.442e-5
-1.349, 3.339e-5
-1.348, 3.254e-5
-1.347, 3.208e-5
-1.346, 3.169e-5
-1.345, 3.078e-5
-1.344, 2.975e-5
-1.343, 2.900e-5
-1.342, 2.865e-5
-1.341, 2.819e-5
-1.340, 2.745e-5
-1.339, 2.639e-5
-1.338, 2.569e-5
-1.337, 2.545e-5
-1.336, 2.516e-5
-1.335, 2.435e-5
-1.334, 2.339e-5
-1.333, 2.280e-5
-1.332, 2.262e-5
-1.331, 2.224e-5
-1.330, 2.153e-5
-1.329, 2.063e-5
-1.328, 2.008e-5
-1.327, 2.000e-5
-1.326, 1.963e-5
-1.325, 1.901e-5
-1.324, 1.814e-5
-1.323, 1.759e-5
-1.322, 1.746e-5
-1.321, 1.723e-5
-1.320, 1.661e-5
-1.319, 1.582e-5
-1.318, 1.526e-5
-1.317, 1.521e-5
-1.316, 1.510e-5
-1.315, 1.440e-5
-1.314, 1.371e-5
-1.313, 1.314e-5
-1.312, 1.321e-5
-1.311, 1.301e-5
-1.310, 1.244e-5
-1.309, 1.176e-5
-1.308, 1.136e-5
-1.307, 1.135e-5
-1.306, 1.123e-5
-1.305, 1.068e-5
-1.304, 1.004e-5
-1.303, 9.640e-6
-1.302, 9.686e-6
-1.301, 9.593e-6
-1.300, 9.115e-6
-1.299, 8.468e-6
-1.298, 8.115e-6
-1.297, 8.180e-6
-1.296, 8.192e-6
-1.295, 7.663e-6
-1.294, 7.090e-6
-1.293, 6.726e-6
-1.292, 6.877e-6
-1.291, 6.769e-6
-1.290, 6.366e-6
-1.289, 5.775e-6
-1.288, 5.485e-6
-1.287, 5.619e-6
-1.286, 5.646e-6
-1.285, 5.174e-6
-1.284, 4.672e-6
-1.283, 4.358e-6
-1.282, 4.555e-6
-1.281, 4.514e-6
-1.280, 4.127e-6
-1.279, 3.587e-6
-1.278, 3.288e-6
-1.277, 3.583e-6
-1.276, 3.562e-6
-1.275, 3.115e-6
-1.274, 2.727e-6
-1.273, 2.407e-6
-1.272, 2.659e-6
-1.271, 2.716e-6
-1.270, 2.310e-6
-1.269, 1.841e-6
-1.268, 1.681e-6
-1.267, 1.863e-6
-1.266, 1.918e-6
-1.265, 1.561e-6
-1.264, 1.143e-6
-1.263, 8.986e-7
-1.262, 1.185e-6
-1.261, 1.236e-6
-1.260, 8.700e-7
-1.259, 3.639e-7
-1.258, 2.563e-7
-1.257, 5.365e-7
-1.256, 6.362e-7
-1.255, 2.603e-7
-1.254, -1.837e-7
-1.253, -2.804e-7
-1.252, 7.084e-8
-1.251, 7.577e-8
-1.250, -2.113e-7
-1.249, -6.691e-7
-1.248, -8.240e-7
-1.247, -4.807e-7
-1.246, -4.669e-7
-1.245, -7.411e-7
-1.244, -1.124e-6
-1.243, -1.294e-6
-1.242, -9.621e-7
-1.241, -9.108e-7
-1.240, -1.217e-6
-1.239, -1.617e-6
-1.238, -1.709e-6
-1.237, -1.408e-6
-1.236, -1.322e-6
-1.235, -1.652e-6
-1.234, -2.027e-6
-1.233, -2.118e-6
-1.232, -1.782e-6
-1.231, -1.682e-6
-1.230, -1.993e-6
-1.229, -2.401e-6
-1.228, -2.463e-6
-1.227, -2.140e-6
-1.226, -2.030e-6
-1.225, -2.285e-6
-1.224, -2.729e-6
-1.223, -2.766e-6
-1.222, -2.442e-6
-1.221, -2.346e-6
-1.220, -2.595e-6
-1.219, -3.038e-6
-1.218, -3.025e-6
-1.217, -2.720e-6
-1.216, -2.590e-6
-1.215, -2.891e-6
-1.214, -3.300e-6
-1.213, -3.248e-6
-1.212, -2.888e-6
-1.211, -2.798e-6
-1.210, -3.105e-6
-1.209, -3.458e-6
-1.208, -3.490e-6
-1.207, -3.163e-6
-1.206, -3.077e-6
-1.205, -3.336e-6
-1.204, -3.692e-6
-1.203, -3.735e-6
-1.202, -3.374e-6
-1.201, -3.329e-6
-1.200, -3.521e-6
-1.199, -3.869e-6
-1.198, -3.990e-6
-1.197, -3.555e-6
-1.196, -3.506e-6
-1.195, -3.726e-6
-1.194, -4.106e-6
-1.193, -4.172e-6
-1.192, -3.774e-6
-1.191, -3.736e-6
-1.190, -3.989e-6
-1.189, -4.296e-6
-1.188, -4.314e-6
-1.187, -4.056e-6
-1.186, -3.863e-6
-1.185, -4.193e-6
-1.184, -4.505e-6
-1.183, -4.493e-6
-1.182, -4.173e-6
-1.181, -4.100e-6
-1.180, -4.328e-6
-1.179, -4.709e-6
-1.178, -4.718e-6
-1.177, -4.374e-6
-1.176, -4.240e-6
-1.175, -4.531e-6
-1.174, -4.889e-6
-1.173, -4.867e-6
-1.172, -4.522e-6
-1.171, -4.467e-6
-1.170, -4.655e-6
-1.169, -5.078e-6
-1.168, -4.944e-6
-1.167, -4.710e-6
-1.166, -4.637e-6
-1.165, -4.864e-6
-1.164, -5.205e-6
-1.163, -5.238e-6
-1.162, -4.906e-6
-1.161, -4.808e-6
-1.160, -5.023e-6
-1.159, -5.415e-6
-1.158, -5.412e-6
-1.157, -5.072e-6
-1.156, -4.969e-6
-1.155, -5.210e-6
-1.154, -5.556e-6
-1.153, -5.582e-6
-1.152, -5.262e-6
-1.151, -5.177e-6
-1.150, -5.472e-6
-1.149, -5.797e-6
-1.148, -5.765e-6
-1.147, -5.519e-6
-1.146, -5.282e-6
-1.145, -5.686e-6
-1.144, -5.993e-6
-1.143, -5.894e-6
-1.142, -5.713e-6
-1.141, -5.511e-6
-1.140, -5.803e-6
-1.139, -6.238e-6
-1.138, -6.176e-6
-1.137, -5.909e-6
-1.136, -5.781e-6
-1.135, -6.057e-6
-1.134, -6.435e-6
-1.133, -6.347e-6
-1.132, -6.131e-6
-1.131, -6.016e-6
-1.130, -6.302e-6
-1.129, -6.697e-6
-1.128, -6.624e-6
-1.127, -6.403e-6
-1.126, -6.257e-6
-1.125, -6.552e-6
-1.124, -6.956e-6
-1.123, -6.899e-6
-1.122, -6.667e-6
-1.121, -6.528e-6
-1.120, -6.788e-6
-1.119, -7.227e-6
-1.118, -7.150e-6
-1.117, -6.934e-6
-1.116, -6.767e-6
-1.115, -7.135e-6
-1.114, -7.482e-6
-1.113, -7.441e-6
-1.112, -7.233e-6
-1.111, -7.099e-6
-1.110, -7.471e-6
-1.109, -7.837e-6
-1.108, -7.750e-6
-1.107, -7.615e-6
-1.106, -7.430e-6
-1.105, -7.776e-6
-1.104, -8.158e-6
-1.103, -8.134e-6
-1.102, -7.909e-6
-1.101, -7.818e-6
-1.100, -8.136e-6
-1.099, -8.585e-6
-1.098, -8.517e-6
-1.097, -8.323e-6
-1.096, -8.182e-6
-1.095, -8.534e-6
-1.094, -8.985e-6
-1.093, -8.928e-6
-1.092, -8.707e-6
-1.091, -8.675e-6
-1.090, -8.954e-6
-1.089, -9.403e-6
-1.088, -9.364e-6
-1.087, -9.218e-6
-1.086, -9.104e-6
-1.085, -9.482e-6
-1.084, -9.893e-6
-1.083, -9.843e-6
-1.082, -9.748e-6
-1.081, -9.664e-6
-1.080, -9.986e-6
-1.079, -1.042e-5
-1.078, -1.044e-5
-1.077, -1.024e-5
-1.076, -1.019e-5
-1.075, -1.057e-5
-1.074, -1.101e-5
-1.073, -1.104e-5
-1.072, -1.090e-5
-1.071, -1.079e-5
-1.070, -1.121e-5
-1.069, -1.164e-5
-1.068, -1.175e-5
-1.067, -1.162e-5
-1.066, -1.149e-5
-1.065, -1.190e-5
-1.064, -1.242e-5
-1.063, -1.240e-5
-1.062, -1.235e-5
-1.061, -1.228e-5
-1.060, -1.265e-5
-1.059, -1.320e-5
-1.058, -1.326e-5
-1.057, -1.321e-5
-1.056, -1.312e-5
-1.055, -1.360e-5
-1.054, -1.411e-5
-1.053, -1.415e-5
-1.052, -1.407e-5
-1.051, -1.410e-5
-1.050, -1.449e-5
-1.049, -1.511e-5
-1.048, -1.510e-5
-1.047, -1.507e-5
-1.046, -1.506e-5
-1.045, -1.549e-5
-1.044, -1.610e-5
-1.043, -1.625e-5
-1.042, -1.616e-5
-1.041, -1.624e-5
-1.040, -1.671e-5
-1.039, -1.732e-5
-1.038, -1.752e-5
-1.037, -1.749e-5
-1.036, -1.746e-5
-1.035, -1.801e-5
-1.034, -1.856e-5
-1.033, -1.876e-5
-1.032, -1.866e-5
-1.031, -1.872e-5
-1.030, -1.926e-5
-1.029, -1.991e-5
-1.028, -2.011e-5
-1.027, -2.010e-5
-1.026, -2.013e-5
-1.025, -2.072e-5
-1.024, -2.139e-5
-1.023, -2.157e-5
-1.022, -2.162e-5
-1.021, -2.167e-5
-1.020, -2.229e-5
-1.019, -2.302e-5
-1.018, -2.321e-5
-1.017, -2.321e-5
-1.016, -2.341e-5
-1.015, -2.397e-5
-1.014, -2.468e-5
-1.013, -2.488e-5
-1.012, -2.493e-5
-1.011, -2.516e-5
-1.010, -2.573e-5
-1.009, -2.649e-5
-1.008, -2.677e-5
-1.007, -2.686e-5
-1.006, -2.711e-5
-1.005, -2.772e-5
-1.004, -2.842e-5
-1.003, -2.879e-5
-1.002, -2.883e-5
-1.001, -2.912e-5
-1.000, -2.319e-5
-1.001, -2.054e-5
-1.002, -1.867e-5
-1.003, -1.684e-5
-1.004, -1.525e-5
-1.005, -1.433e-5
-1.006, -1.361e-5
-1.007, -1.245e-5
-1.008, -1.126e-5
-1.009, -1.017e-5
-1.010, -9.627e-6
-1.011, -9.301e-6
-1.012, -8.404e-6
-1.013, -7.367e-6
-1.014, -6.593e-6
-1.015, -6.271e-6
-1.016, -6.027e-6
-1.017, -5.412e-6
-1.018, -4.549e-6
-1.019, -4.023e-6
-1.020, -3.756e-6
-1.021, -3.568e-6
-1.022, -2.977e-6
-1.023, -2.174e-6
-1.024, -1.637e-6
-1.025, -1.584e-6
-1.026, -1.444e-6
-1.027, -1.085e-6
-1.028, -4.313e-7
-1.029, 6.788e-8
-1.030, 2.249e-8
-1.031, 1.389e-7
-1.032, 5.286e-7
-1.033, 1.139e-6
-1.034, 1.528e-6
-1.035, 1.460e-6
-1.036, 1.422e-6
-1.037, 1.781e-6
-1.038, 2.307e-6
-1.039, 2.739e-6
-1.040, 2.621e-6
-1.041, 2.528e-6
-1.042, 2.869e-6
-1.043, 3.362e-6
-1.044, 3.712e-6
-1.045, 3.580e-6
-1.046, 3.458e-6
-1.047, 3.758e-6
-1.048, 4.187e-6
-1.049, 4.529e-6
-1.050, 4.404e-6
-1.051, 4.231e-6
-1.052, 4.458e-6
-1.053, 4.914e-6
-1.054, 5.169e-6
-1.055, 5.005e-6
-1.056, 4.781e-6
-1.057, 5.050e-6
-1.058, 5.538e-6
-1.059, 5.684e-6
-1.060, 5.522e-6
-1.061, 5.359e-6
-1.062, 5.562e-6
-1.063, 6.014e-6
-1.064, 6.141e-6
-1.065, 5.945e-6
-1.066, 5.767e-6
-1.067, 5.882e-6
-1.068, 6.327e-6
-1.069, 6.536e-6
-1.070, 6.234e-6
-1.071, 6.104e-6
-1.072, 6.239e-6
-1.073, 6.600e-6
-1.074, 6.817e-6
-1.075, 6.516e-6
-1.076, 6.292e-6
-1.077, 6.505e-6
-1.078, 6.807e-6
-1.079, 6.999e-6
-1.080, 6.679e-6
-1.081, 6.441e-6
-1.082, 6.633e-6
-1.083, 6.972e-6
-1.084, 7.086e-6
-1.085, 6.807e-6
-1.086, 6.551e-6
-1.087, 6.703e-6
-1.088, 7.061e-6
-1.089, 7.167e-6
-1.090, 6.885e-6
-1.091, 6.588e-6
-1.092, 6.761e-6
-1.093, 7.085e-6
-1.094, 7.200e-6
-1.095, 6.862e-6
-1.096, 6.603e-6
-1.097, 6.755e-6
-1.098, 7.095e-6
-1.099, 7.180e-6
-1.100, 6.829e-6
-1.101, 6.567e-6
-1.102, 6.712e-6
-1.103, 7.066e-6
-1.104, 7.174e-6
-1.105, 6.728e-6
-1.106, 6.537e-6
-1.107, 6.690e-6
-1.108, 6.971e-6
-1.109, 7.041e-6
-1.110, 6.687e-6
-1.111, 6.477e-6
-1.112, 6.562e-6
-1.113, 6.847e-6
-1.114, 7.014e-6
-1.115, 6.584e-6
-1.116, 6.324e-6
-1.117, 6.558e-6
-1.118, 6.828e-6
-1.119, 6.956e-6
-1.120, 6.525e-6
-1.121, 6.269e-6
-1.122, 6.491e-6
-1.123, 6.688e-6
-1.124, 6.876e-6
-1.125, 6.429e-6
-1.126, 6.222e-6
-1.127, 6.420e-6
-1.128, 6.649e-6
-1.129, 6.770e-6
-1.130, 6.381e-6
-1.131, 6.117e-6
-1.132, 6.372e-6
-1.133, 6.627e-6
-1.134, 6.736e-6
-1.135, 6.329e-6
-1.136, 6.109e-6
-1.137, 6.244e-6
-1.138, 6.603e-6
-1.139, 6.662e-6
-1.140, 6.248e-6
-1.141, 6.119e-6
-1.142, 6.245e-6
-1.143, 6.520e-6
-1.144, 6.610e-6
-1.145, 6.219e-6
-1.146, 6.059e-6
-1.147, 6.229e-6
-1.148, 6.499e-6
-1.149, 6.643e-6
-1.150, 6.187e-6
-1.151, 6.042e-6
-1.152, 6.143e-6
-1.153, 6.505e-6
-1.154, 6.634e-6
-1.155, 6.219e-6
-1.156, 6.046e-6
-1.157, 6.197e-6
-1.158, 6.559e-6
-1.159, 6.655e-6
-1.160, 6.207e-6
-1.161, 6.064e-6
-1.162, 6.299e-6
-1.163, 6.570e-6
-1.164, 6.627e-6
-1.165, 6.263e-6
-1.166, 6.121e-6
-1.167, 6.366e-6
-1.168, 6.602e-6
-1.169, 6.735e-6
-1.170, 6.315e-6
-1.171, 6.159e-6
-1.172, 6.352e-6
-1.173, 6.714e-6
-1.174, 6.739e-6
-1.175, 6.400e-6
-1.176, 6.245e-6
-1.177, 6.474e-6
-1.178, 6.833e-6
-1.179, 6.835e-6
-1.180, 6.430e-6
-1.181, 6.386e-6
-1.182, 6.573e-6
-1.183, 6.906e-6
-1.184, 6.948e-6
-1.185, 6.517e-6
-1.186, 6.482e-6
-1.187, 6.694e-6
-1.188, 7.032e-6
-1.189, 7.045e-6
-1.190, 6.718e-6
-1.191, 6.642e-6
-1.192, 6.813e-6
-1.193, 7.131e-6
-1.194, 7.259e-6
-1.195, 6.843e-6
-1.196, 6.803e-6
-1.197, 7.094e-6
-1.198, 7.363e-6
-1.199, 7.460e-6
-1.200, 7.017e-6
-1.201, 6.941e-6
-1.202, 7.193e-6
-1.203, 7.459e-6
-1.204, 7.570e-6
-1.205, 7.229e-6
-1.206, 7.138e-6
-1.207, 7.410e-6
-1.208, 7.735e-6
-1.209, 7.733e-6
-1.210, 7.458e-6
-1.211, 7.296e-6
-1.212, 7.620e-6
-1.213, 7.935e-6
-1.214, 7.960e-6
-1.215, 7.681e-6
-1.216, 7.583e-6
-1.217, 7.840e-6
-1.218, 8.295e-6
-1.219, 8.250e-6
-1.220, 7.936e-6
-1.221, 7.870e-6
-1.222, 8.132e-6
-1.223, 8.569e-6
-1.224, 8.560e-6
-1.225, 8.296e-6
-1.226, 8.274e-6
-1.227, 8.479e-6
-1.228, 9.009e-6
-1.229, 8.895e-6
-1.230, 8.676e-6
-1.231, 8.645e-6
-1.232, 8.917e-6
-1.233, 9.330e-6
-1.234, 9.357e-6
-1.235, 9.102e-6
-1.236, 9.041e-6
-1.237, 9.377e-6
-1.238, 9.783e-6
-1.239, 9.842e-6
-1.240, 9.594e-6
-1.241, 9.526e-6
-1.242, 9.930e-6
-1.243, 1.029e-5
-1.244, 1.026e-5
-1.245, 1.018e-5
-1.246, 1.011e-5
-1.247, 1.051e-5
-1.248, 1.095e-5
-1.249, 1.088e-5
-1.250, 1.080e-5
-1.251, 1.070e-5
-1.252, 1.109e-5
-1.253, 1.156e-5
-1.254, 1.152e-5
-1.255, 1.146e-5
-1.256, 1.141e-5
-1.257, 1.185e-5
-1.258, 1.234e-5
-1.259, 1.230e-5
-1.260, 1.220e-5
-1.261, 1.226e-5
-1.262, 1.263e-5
-1.263, 1.316e-5
-1.264, 1.312e-5
-1.265, 1.310e-5
-1.266, 1.316e-5
-1.267, 1.354e-5
-1.268, 1.408e-5
-1.269, 1.409e-5
-1.270, 1.416e-5
-1.271, 1.419e-5
-1.272, 1.460e-5
-1.273, 1.516e-5
-1.274, 1.527e-5
-1.275, 1.526e-5
-1.276, 1.533e-5
-1.277, 1.587e-5
-1.278, 1.642e-5
-1.279, 1.660e-5
-1.280, 1.663e-5
-1.281, 1.679e-5
-1.282, 1.733e-5
-1.283, 1.795e-5
-1.284, 1.803e-5
-1.285, 1.809e-5
-1.286, 1.817e-5
-1.287, 1.877e-5
-1.288, 1.941e-5
-1.289, 1.957e-5
-1.290, 1.973e-5
-1.291, 1.985e-5
-1.292, 2.050e-5
-1.293, 2.118e-5
-1.294, 2.140e-5
-1.295, 2.156e-5
-1.296, 2.174e-5
-1.297, 2.243e-5
-1.298, 2.319e-5
-1.299, 2.343e-5
-1.300, 2.357e-5
-1.301, 2.395e-5
-1.302, 2.455e-5
-1.303, 2.537e-5
-1.304, 2.571e-5
-1.305, 2.590e-5
-1.306, 2.630e-5
-1.307, 2.699e-5
-1.308, 2.789e-5
-1.309, 2.824e-5
-1.310, 2.854e-5
-1.311, 2.895e-5
-1.312, 2.971e-5
-1.313, 3.061e-5
-1.314, 3.106e-5
-1.315, 3.134e-5
-1.316, 3.185e-5
-1.317, 3.272e-5
-1.318, 3.367e-5
-1.319, 3.426e-5
-1.320, 3.458e-5
-1.321, 3.515e-5
-1.322, 3.607e-5
-1.323, 3.700e-5
-1.324, 3.767e-5
-1.325, 3.802e-5
-1.326, 3.865e-5
-1.327, 3.973e-5
-1.328, 4.078e-5
-1.329, 4.142e-5
-1.330, 4.191e-5
-1.331, 4.252e-5
-1.332, 4.363e-5
-1.333, 4.477e-5
-1.334, 4.550e-5
-1.335, 4.603e-5
-1.336, 4.676e-5
-1.337, 4.797e-5
-1.338, 4.916e-5
-1.339, 4.995e-5
-1.340, 5.057e-5
-1.341, 5.150e-5
-1.342, 5.271e-5
-1.343, 5.397e-5
-1.344, 5.485e-5
-1.345, 5.552e-5
-1.346, 5.648e-5
-1.347, 5.779e-5
-1.348, 5.913e-5
-1.349, 6.017e-5
-1.350, 6.090e-5
-1.351, 6.196e-5
-1.352, 6.330e-5
-1.353, 6.475e-5
-1.354, 6.583e-5
-1.355, 6.664e-5
-1.356, 6.774e-5
-1.357, 6.926e-5
-1.358, 7.074e-5
-1.359, 7.193e-5
-1.360, 7.281e-5
-1.361, 7.398e-5
-1.362, 7.562e-5
-1.363, 7.715e-5
-1.364, 7.842e-5
-1.365, 7.944e-5
-1.366, 8.070e-5
-1.367, 8.240e-5
-1.368, 8.413e-5
-1.369, 8.540e-5
-1.370, 8.657e-5
-1.371, 8.790e-5
-1.372, 8.968e-5
-1.373, 9.145e-5
-1.374, 9.281e-5
-1.375, 9.403e-5
-1.376, 9.543e-5
-1.377, 9.741e-5
-1.378, 9.935e-5
-1.379, 1.008e-4
-1.380, 1.021e-4
-1.381, 1.036e-4
-1.382, 1.056e-4
-1.383, 1.075e-4
-1.384, 1.090e-4
-1.385, 1.104e-4
-1.386, 1.120e-4
-1.387, 1.140e-4
-1.388, 1.161e-4
-1.389, 1.177e-4
-1.390, 1.192e-4
-1.391, 1.209e-4
-1.392, 1.231e-4
-1.393, 1.252e-4
-1.394, 1.270e-4
-1.395, 1.285e-4
-1.396, 1.302e-4
-1.397, 1.325e-4
-1.398, 1.348e-4
-1.399, 1.366e-4
-1.400, 1.383e-4
-1.401, 1.402e-4
-1.402, 1.427e-4
-1.403, 1.449e-4
-1.404, 1.469e-4
-1.405, 1.487e-4
-1.406, 1.506e-4
-1.407, 1.532e-4
-1.408, 1.556e-4
-1.409, 1.576e-4
-1.410, 1.595e-4
-1.411, 1.615e-4
-1.412, 1.642e-4
-1.413, 1.667e-4
-1.414, 1.688e-4
-1.415, 1.709e-4
-1.416, 1.730e-4
-1.417, 1.757e-4
-1.418, 1.783e-4
-1.419, 1.805e-4
-1.420, 1.826e-4
-1.421, 1.849e-4
-1.422, 1.878e-4
-1.423, 1.904e-4
-1.424, 1.927e-4
-1.425, 1.948e-4
-1.426, 1.972e-4
-1.427, 2.001e-4
-1.428, 2.030e-4
-1.429, 2.054e-4
-1.430, 2.076e-4
-1.431, 2.102e-4
-1.432, 2.132e-4
-1.433, 2.159e-4
-1.434, 2.186e-4
-1.435, 2.209e-4
-1.436, 2.234e-4
-1.437, 2.265e-4
-1.438, 2.295e-4
-1.439, 2.323e-4
-1.440, 2.348e-4
-1.441, 2.377e-4
-1.442, 2.409e-4
-1.443, 2.438e-4
-1.444, 2.465e-4
-1.445, 2.490e-4
-1.446, 2.518e-4
-1.447, 2.550e-4
-1.448, 2.581e-4
-1.449, 2.610e-4
-1.450, 2.637e-4
-1.451, 2.666e-4
-1.452, 2.701e-4
-1.453, 2.734e-4
-1.454, 2.763e-4
-1.455, 2.791e-4
-1.456, 2.822e-4
-1.457, 2.857e-4
-1.458, 2.891e-4
-1.459, 2.923e-4
-1.460, 2.953e-4
-1.461, 2.986e-4
-1.462, 3.022e-4
-1.463, 3.057e-4
-1.464, 3.088e-4
-1.465, 3.119e-4
-1.466, 3.153e-4
-1.467, 3.189e-4
-1.468, 3.228e-4
-1.469, 3.261e-4
-1.470, 3.291e-4
-1.471, 3.328e-4
-1.472, 3.366e-4
-1.473, 3.404e-4
-1.474, 3.438e-4
-1.475, 3.472e-4
-1.476, 3.509e-4
-1.477, 3.548e-4
-1.478, 3.589e-4
-1.479, 3.626e-4
-1.480, 3.657e-4
-1.481, 3.697e-4
-1.482, 3.739e-4
-1.483, 3.779e-4
-1.484, 3.816e-4
-1.485, 3.853e-4
-1.486, 3.892e-4
-1.487, 3.934e-4
-1.488, 3.979e-4
-1.489, 4.017e-4
-1.490, 4.053e-4
-1.491, 4.096e-4
-1.492, 4.142e-4
-1.493, 4.185e-4
-1.494, 4.224e-4
-1.495, 4.264e-4
-1.496, 4.305e-4
-1.497, 4.350e-4
-1.498, 4.397e-4
-1.499, 4.435e-4
-1.500, 4.475e-4
-1.501, 4.519e-4
-1.502, 4.566e-4
-1.503, 4.613e-4
-1.504, 4.661e-4
-1.505, 4.702e-4
-1.506, 4.746e-4
-1.507, 4.793e-4
-1.508, 4.840e-4
-1.509, 4.881e-4
-1.510, 4.925e-4
-1.511, 4.976e-4
-1.512, 5.025e-4
-1.513, 5.078e-4
-1.514, 5.126e-4
-1.515, 5.173e-4
-1.516, 5.223e-4
-1.517, 5.279e-4
-1.518, 5.336e-4
-1.519, 5.386e-4
-1.520, 5.437e-4
-1.521, 5.493e-4
-1.522, 5.550e-4
-1.523, 5.607e-4
-1.524, 5.662e-4
-1.525, 5.714e-4
-1.526, 5.770e-4
-1.527, 5.829e-4
-1.528, 5.892e-4
-1.529, 5.946e-4
-1.530, 5.997e-4
-1.531, 6.054e-4
-1.532, 6.115e-4
-1.533, 6.177e-4
-1.534, 6.236e-4
-1.535, 6.292e-4
-1.536, 6.350e-4
-1.537, 6.415e-4
-1.538, 6.484e-4
-1.539, 6.547e-4
-1.540, 6.608e-4
-1.541, 6.671e-4
-1.542, 6.741e-4
-1.543, 6.807e-4
-1.544, 6.865e-4
-1.545, 6.928e-4
-1.546, 6.997e-4
-1.547, 7.068e-4
-1.548, 7.141e-4
-1.549, 7.209e-4
-1.550, 7.265e-4
-1.551, 7.327e-4
-1.552, 7.399e-4
-1.553, 7.474e-4
-1.554, 7.540e-4
-1.555, 7.617e-4
-1.556, 7.698e-4
-1.557, 7.776e-4
-1.558, 7.859e-4
-1.559, 7.939e-4
-1.560, 8.013e-4
-1.561, 8.090e-4
-1.562, 8.180e-4
-1.563, 8.268e-4
-1.564, 8.347e-4
-1.565, 8.430e-4
-1.566, 8.520e-4
-1.567, 8.609e-4
-1.568, 8.700e-4
-1.569, 8.793e-4
-1.570, 8.877e-4
-1.571, 8.961e-4
-1.572, 9.060e-4
-1.573, 9.153e-4
-1.574, 9.241e-4
-1.575, 9.336e-4
-1.576, 9.433e-4
-1.577, 9.528e-4
-1.578, 9.627e-4
-1.579, 9.728e-4
-1.580, 9.821e-4
-1.581, 9.917e-4
-1.582, 1.002e-3
-1.583, 1.013e-3
-1.584, 1.022e-3
-1.585, 1.033e-3
-1.586, 1.044e-3
-1.587, 1.055e-3
-1.588, 1.066e-3
-1.589, 1.078e-3
-1.590, 1.087e-3
-1.591, 1.099e-3
-1.592, 1.111e-3
-1.593, 1.122e-3
-1.594, 1.133e-3
-1.595, 1.145e-3
-1.596, 1.158e-3
-1.597, 1.170e-3
-1.598, 1.182e-3
-1.599, 1.196e-3
-1.600, 1.188e-3
-1.599, 1.166e-3
-1.598, 1.145e-3
-1.597, 1.125e-3
-1.596, 1.104e-3
-1.595, 1.084e-3
-1.594, 1.065e-3
-1.593, 1.045e-3
-1.592, 1.028e-3
-1.591, 1.010e-3
-1.590, 9.915e-4
-1.589, 9.741e-4
-1.588, 9.578e-4
-1.587, 9.407e-4
-1.586, 9.249e-4
-1.585, 9.100e-4
-1.584, 8.948e-4
-1.583, 8.802e-4
-1.582, 8.664e-4
-1.581, 8.521e-4
-1.580, 8.382e-4
-1.579, 8.255e-4
-1.578, 8.128e-4
-1.577, 7.996e-4
-1.576, 7.866e-4
-1.575, 7.739e-4
-1.574, 7.613e-4
-1.573, 7.496e-4
-1.572, 7.383e-4
-1.571, 7.264e-4
-1.570, 7.147e-4
-1.569, 7.036e-4
-1.568, 6.934e-4
-1.567, 6.824e-4
-1.566, 6.715e-4
-1.565, 6.611e-4
-1.564, 6.508e-4
-1.563, 6.410e-4
-1.562, 6.315e-4
-1.561, 6.216e-4
-1.560, 6.117e-4
-1.559, 6.025e-4
-1.558, 5.936e-4
-1.557, 5.846e-4
-1.556, 5.755e-4
-1.555, 5.667e-4
-1.554, 5.582e-4
-1.553, 5.505e-4
-1.552, 5.427e-4
-1.551, 5.343e-4
-1.550, 5.259e-4
-1.549, 5.183e-4
-1.548, 5.110e-4
-1.547, 5.032e-4
-1.546, 4.958e-4
-1.545, 4.883e-4
-1.544, 4.814e-4
-1.543, 4.749e-4
-1.542, 4.683e-4
-1.541, 4.612e-4
-1.540, 4.545e-4
-1.539, 4.481e-4
-1.538, 4.422e-4
-1.537, 4.357e-4
-1.536, 4.293e-4
-1.535, 4.230e-4
-1.534, 4.170e-4
-1.533, 4.117e-4
-1.532, 4.059e-4
-1.531, 3.998e-4
-1.530, 3.940e-4
-1.529, 3.887e-4
-1.528, 3.836e-4
-1.527, 3.782e-4
-1.526, 3.725e-4
-1.525, 3.669e-4
-1.524, 3.616e-4
-1.523, 3.567e-4
-1.522, 3.519e-4
-1.521, 3.467e-4
-1.520, 3.417e-4
-1.519, 3.372e-4
-1.518, 3.328e-4
-1.517, 3.281e-4
-1.516, 3.234e-4
-1.515, 3.187e-4
-1.514, 3.144e-4
-1.513, 3.104e-4
-1.512, 3.062e-4
-1.511, 3.016e-4
-1.510, 2.973e-4
-1.509, 2.936e-4
-1.508, 2.898e-4
-1.507, 2.858e-4
-1.506, 2.817e-4
-1.505, 2.777e-4
-1.504, 2.740e-4
-1.503, 2.707e-4
-1.502, 2.670e-4
-1.501, 2.631e-4
-1.500, 2.594e-4
-1.499, 2.561e-4
-1.498, 2.530e-4
-1.497, 2.493e-4
-1.496, 2.458e-4
-1.495, 2.423e-4
-1.494, 2.390e-4
-1.493, 2.362e-4
-1.492, 2.329e-4
-1.491, 2.294e-4
-1.490, 2.261e-4
-1.489, 2.233e-4
-1.488, 2.205e-4
-1.487, 2.174e-4
-1.486, 2.142e-4
-1.485, 2.111e-4
-1.484, 2.083e-4
-1.483, 2.058e-4
-1.482, 2.030e-4
-1.481, 1.998e-4
-1.480, 1.970e-4
-1.479, 1.944e-4
-1.478, 1.921e-4
-1.477, 1.895e-4
-1.476, 1.866e-4
-1.475, 1.838e-4
-1.474, 1.814e-4
-1.473, 1.791e-4
-1.472, 1.765e-4
-1.471, 1.736e-4
-1.470, 1.711e-4
-1.469, 1.689e-4
-1.468, 1.669e-4
-1.467, 1.644e-4
-1.466, 1.618e-4
-1.465, 1.594e-4
-1.464, 1.574e-4
-1.463, 1.554e-4
-1.462, 1.531e-4
-1.461, 1.506e-4
-1.460, 1.484e-4
-1.459, 1.465e-4
-1.458, 1.446e-4
-1.457, 1.425e-4
-1.456, 1.402e-4
-1.455, 1.381e-4
-1.454, 1.364e-4
-1.453, 1.348e-4
-1.452, 1.328e-4
-1.451, 1.304e-4
-1.450, 1.285e-4
-1.449, 1.270e-4
-1.448, 1.254e-4
-1.447, 1.236e-4
-1.446, 1.214e-4
-1.445, 1.197e-4
-1.444, 1.182e-4
-1.443, 1.167e-4
-1.442, 1.149e-4
-1.441, 1.129e-4
-1.440, 1.113e-4
-1.439, 1.099e-4
-1.438, 1.085e-4
-1.437, 1.069e-4
-1.436, 1.049e-4
-1.435, 1.032e-4
-1.434, 1.020e-4
-1.433, 1.007e-4
-1.432, 9.919e-5
-1.431, 9.735e-5
-1.430, 9.574e-5
-1.429, 9.464e-5
-1.428, 9.343e-5
-1.427, 9.178e-5
-1.426, 9.010e-5
-1.425, 8.863e-5
-1.424, 8.759e-5
-1.423, 8.657e-5
-1.422, 8.503e-5
-1.421, 8.342e-5
-1.420, 8.201e-5
-1.419, 8.107e-5
-1.418, 8.007e-5
-1.417, 7.858e-5
-1.416, 7.708e-5
-1.415, 7.579e-5
-1.414, 7.488e-5
-1.413, 7.398e-5
-1.412, 7.266e-5
-1.411, 7.117e-5
-1.410, 6.996e-5
-1.409, 6.915e-5
-1.408, 6.826e-5
-1.407, 6.704e-5
-1.406, 6.562e-5
-1.405, 6.446e-5
-1.404, 6.376e-5
-1.403, 6.292e-5
-1.402, 6.174e-5
-1.401, 6.034e-5
-1.400, 5.925e-5
-1.399, 5.872e-5
-1.398, 5.786e-5
-1.397, 5.674e-5
-1.396, 5.553e-5
-1.395, 5.445e-5
-1.394, 5.389e-5
-1.393, 5.317e-5
-1.392, 5.215e-5
-1.391, 5.097e-5
-1.390, 5.004e-5
-1.389, 4.959e-5
-1.388, 4.886e-5
-1.387, 4.778e-5
-1.386, 4.665e-5
-1.385, 4.569e-5
-1.384, 4.533e-5
-1.383, 4.465e-5
-1.382, 4.366e-5
-1.381, 4.262e-5
-1.380, 4.179e-5
-1.379, 4.142e-5
-1.378, 4.083e-5
-1.377, 3.984e-5
-1.376, 3.885e-5
-1.375, 3.809e-5
-1.374, 3.774e-5
-1.373, 3.723e-5
-1.372, 3.630e-5
-1.371, 3.531e-5
-1.370, 3.468e-5
-1.369, 3.436e-5
-1.368, 3.390e-5
-1.367, 3.306e-5
-1.366, 3.208e-5
-1.365, 3.147e-5
-1.364, 3.121e-5
-1.363, 3.068e-5
-1.362, 2.989e-5
-1.361, 2.900e-5
-1.360, 2.850e-5
-1.359, 2.826e-5
-1.358, 2.780e-5
-1.357, 2.710e-5
-1.356, 2.621e-5
-1.355, 2.569e-5
-1.354, 2.550e-5
-1.353, 2.513e-5
-1.352, 2.433e-5
-1.351, 2.360e-5
-1.350, 2.311e-5
-1.349, 2.293e-5
-1.348, 2.263e-5
-1.347, 2.191e-5
-1.346, 2.120e-5
-1.345, 2.080e-5
-1.344, 2.061e-5
-1.343, 2.038e-5
-1.342, 1.959e-5
-1.341, 1.886e-5
-1.340, 1.855e-5
-1.339, 1.835e-5
-1.338, 1.814e-5
-1.337, 1.742e-5
-1.336, 1.675e-5
-1.335, 1.643e-5
-1.334, 1.630e-5
-1.333, 1.614e-5
-1.332, 1.554e-5
-1.331, 1.471e-5
-1.330, 1.457e-5
-1.329, 1.444e-5
-1.328, 1.432e-5
-1.327, 1.371e-5
-1.326, 1.296e-5
-1.325, 1.282e-5
-1.324, 1.273e-5
-1.323, 1.256e-5
-1.322, 1.197e-5
-1.321, 1.132e-5
-1.320, 1.122e-5
-1.319, 1.117e-5
-1.318, 1.100e-5
-1.317, 1.048e-5
-1.316, 9.901e-6
-1.315, 9.740e-6
-1.314, 9.709e-6
-1.313, 9.568e-6
-1.312, 9.109e-6
-1.311, 8.514e-6
-1.310, 8.409e-6
-1.309, 8.371e-6
-1.308, 8.276e-6
-1.307, 7.749e-6
-1.306, 7.237e-6
-1.305, 7.124e-6
-1.304, 7.100e-6
-1.303, 7.103e-6
-1.302, 6.588e-6
-1.301, 6.100e-6
-1.300, 6.026e-6
-1.299, 5.985e-6
-1.298, 5.950e-6
-1.297, 5.481e-6
-1.296, 5.035e-6
-1.295, 4.947e-6
-1.294, 4.996e-6
-1.293, 4.939e-6
-1.292, 4.490e-6
-1.291, 4.018e-6
-1.290, 3.978e-6
-1.289, 4.056e-6
-1.288, 4.051e-6
-1.287, 3.627e-6
-1.286, 3.105e-6
-1.285, 3.111e-6
-1.284, 3.252e-6
-1.283, 3.239e-6
-1.282, 2.844e-6
-1.281, 2.432e-6
-1.280, 2.346e-6
-1.279, 2.513e-6
-1.278, 2.466e-6
-1.277, 2.020e-6
-1.276, 1.653e-6
-1.275, 1.570e-6
-1.274, 1.803e-6
-1.273, 1.746e-6
-1.272, 1.364e-6
-1.271, 9.834e-7
-1.270, 9.331e-7
-1.269, 1.175e-6
-1.268, 1.153e-6
-1.267, 7.397e-7
-1.266, 4.083e-7
-1.265, 3.846e-7
-1.264, 5.987e-7
-1.263, 5.997e-7
-1.262, 1.734e-7
-1.261, -1.571e-7
-1.260, -1.630e-7
-1.259, 4.025e-8
-1.258, 1.024e-7
-1.257, -3.416e-7
-1.256, -6.099e-7
-1.255, -5.971e-7
-1.254, -3.771e-7
-1.253, -3.820e-7
-1.252, -7.224e-7
-1.251, -1.116e-6
-1.250, -1.022e-6
-1.249, -8.151e-7
-1.248, -8.043e-7
-1.247, -1.176e-6
-1.246, -1.524e-6
-1.245, -1.426e-6
-1.244, -1.187e-6
-1.243, -1.214e-6
-1.242, -1.520e-6
-1.241, -1.897e-6
-1.240, -1.752e-6
-1.239, -1.497e-6
-1.238, -1.524e-6
-1.237, -1.869e-6
-1.236, -2.164e-6
-1.235, -2.094e-6
-1.234, -1.858e-6
-1.233, -1.745e-6
-1.232, -2.130e-6
-1.231, -2.451e-6
-1.230, -2.387e-6
-1.229, -2.189e-6
-1.228, -2.046e-6
-1.227, -2.535e-6
-1.226, -2.751e-6
-1.225, -2.647e-6
-1.224, -2.371e-6
-1.223, -2.299e-6
-1.222, -2.758e-6
-1.221, -2.979e-6
-1.220, -2.788e-6
-1.219, -2.591e-6
-1.218, -2.480e-6
-1.217, -2.978e-6
-1.216, -3.165e-6
-1.215, -3.036e-6
-1.214, -2.861e-6
-1.213, -2.780e-6
-1.212, -3.195e-6
-1.211, -3.404e-6
-1.210, -3.242e-6
-1.209, -3.029e-6
-1.208, -2.953e-6
-1.207, -3.397e-6
-1.206, -3.633e-6
-1.205, -3.495e-6
-1.204, -3.268e-6
-1.203, -3.201e-6
-1.202, -3.606e-6
-1.201, -3.789e-6
-1.200, -3.686e-6
-1.199, -3.452e-6
-1.198, -3.386e-6
-1.197, -3.773e-6
-1.196, -4.016e-6
-1.195, -3.928e-6
-1.194, -3.591e-6
-1.193, -3.565e-6
-1.192, -3.985e-6
-1.191, -4.171e-6
-1.190, -4.083e-6
-1.189, -3.805e-6
-1.188, -3.722e-6
-1.187, -4.214e-6
-1.186, -4.344e-6
-1.185, -4.243e-6
-1.184, -3.942e-6
-1.183, -3.918e-6
-1.182, -4.412e-6
-1.181, -4.483e-6
-1.180, -4.348e-6
-1.179, -4.198e-6
-1.178, -4.173e-6
-1.177, -4.569e-6
-1.176, -4.755e-6
-1.175, -4.568e-6
-1.174, -4.335e-6
-1.173, -4.335e-6
-1.172, -4.726e-6
-1.171, -4.895e-6
-1.170, -4.748e-6
-1.169, -4.490e-6
-1.168, -4.533e-6
-1.167, -4.934e-6
-1.166, -5.083e-6
-1.165, -4.939e-6
-1.164, -4.618e-6
-1.163, -4.782e-6
-1.162, -5.145e-6
-1.161, -5.365e-6
-1.160, -5.076e-6
-1.159, -4.863e-6
-1.158, -5.013e-6
-1.157, -5.301e-6
-1.156, -5.469e-6
-1.155, -5.351e-6
-1.154, -5.064e-6
-1.153, -5.191e-6
-1.152, -5.536e-6
-1.151, -5.707e-6
-1.150, -5.580e-6
-1.149, -5.297e-6
-1.148, -5.441e-6
-1.147, -5.763e-6
-1.146, -5.933e-6
-1.145, -5.790e-6
-1.144, -5.565e-6
-1.143, -5.666e-6
-1.142, -6.039e-6
-1.141, -6.230e-6
-1.140, -6.025e-6
-1.139, -5.830e-6
-1.138, -5.963e-6
-1.137, -6.321e-6
-1.136, -6.482e-6
-1.135, -6.278e-6
-1.134, -6.069e-6
-1.133, -6.231e-6
-1.132, -6.540e-6
-1.131, -6.780e-6
-1.130, -6.588e-6
-1.129, -6.315e-6
-1.128, -6.530e-6
-1.127, -6.830e-6
-1.126, -7.110e-6
-1.125, -6.838e-6
-1.124, -6.586e-6
-1.123, -6.908e-6
-1.122, -7.145e-6
-1.121, -7.376e-6
-1.120, -7.197e-6
-1.119, -6.953e-6
-1.118, -7.178e-6
-1.117, -7.432e-6
-1.116, -7.690e-6
-1.115, -7.560e-6
-1.114, -7.275e-6
-1.113, -7.502e-6
-1.112, -7.794e-6
-1.111, -8.000e-6
-1.110, -7.941e-6
-1.109, -7.693e-6
-1.108, -7.814e-6
-1.107, -8.175e-6
-1.106, -8.408e-6
-1.105, -8.317e-6
-1.104, -8.017e-6
-1.103, -8.228e-6
-1.102, -8.583e-6
-1.101, -8.818e-6
-1.100, -8.672e-6
-1.099, -8.453e-6
-1.098, -8.655e-6
-1.097, -9.016e-6
-1.096, -9.195e-6
-1.095, -9.104e-6
-1.094, -8.891e-6
-1.093, -9.003e-6
-1.092, -9.405e-6
-1.091, -9.642e-6
-1.090, -9.503e-6
-1.089, -9.305e-6
-1.088, -9.456e-6
-1.087, -9.906e-6
-1.086, -1.013e-5
-1.085, -1.000e-5
-1.084, -9.757e-6
-1.083, -9.967e-6
-1.082, -1.041e-5
-1.081, -1.058e-5
-1.080, -1.046e-5
-1.079, -1.023e-5
-1.078, -1.047e-5
-1.077, -1.086e-5
-1.076, -1.110e-5
-1.075, -1.102e-5
-1.074, -1.072e-5
-1.073, -1.098e-5
-1.072, -1.143e-5
-1.071, -1.160e-5
-1.070, -1.150e-5
-1.069, -1.127e-5
-1.068, -1.150e-5
-1.067, -1.202e-5
-1.066, -1.221e-5
-1.065, -1.204e-5
-1.064, -1.190e-5
-1.063, -1.208e-5
-1.062, -1.263e-5
-1.061, -1.282e-5
-1.060, -1.270e-5
-1.059, -1.254e-5
-1.058, -1.277e-5
-1.057, -1.325e-5
-1.056, -1.348e-5
-1.055, -1.334e-5
-1.054, -1.326e-5
-1.053, -1.346e-5
-1.052, -1.399e-5
-1.051, -1.422e-5
-1.050, -1.410e-5
-1.049, -1.399e-5
-1.048, -1.422e-5
-1.047, -1.473e-5
-1.046, -1.502e-5
-1.045, -1.489e-5
-1.044, -1.481e-5
-1.043, -1.513e-5
-1.042, -1.566e-5
-1.041, -1.596e-5
-1.040, -1.582e-5
-1.039, -1.567e-5
-1.038, -1.600e-5
-1.037, -1.647e-5
-1.036, -1.682e-5
-1.035, -1.676e-5
-1.034, -1.661e-5
-1.033, -1.700e-5
-1.032, -1.751e-5
-1.031, -1.783e-5
-1.030, -1.775e-5
-1.029, -1.766e-5
-1.028, -1.803e-5
-1.027, -1.864e-5
-1.026, -1.890e-5
-1.025, -1.885e-5
-1.024, -1.880e-5
-1.023, -1.918e-5
-1.022, -1.985e-5
-1.021, -2.013e-5
-1.020, -2.009e-5
-1.019, -2.006e-5
-1.018, -2.044e-5
-1.017, -2.104e-5
-1.016, -2.141e-5
-1.015, -2.129e-5
-1.014, -2.140e-5
-1.013, -2.178e-5
-1.012, -2.241e-5
-1.011, -2.285e-5
-1.010, -2.267e-5
-1.009, -2.279e-5
-1.008, -2.320e-5
-1.007, -2.389e-5
-1.006, -2.431e-5
-1.005, -2.420e-5
-1.004, -2.425e-5
-1.003, -2.471e-5
-1.002, -2.531e-5
-1.001, -2.576e-5
-1.000, -1.948e-5
-1.001, -1.652e-5
-1.002, -1.510e-5
-1.003, -1.418e-5
-1.004, -1.313e-5
-1.005, -1.169e-5
-1.006, -1.059e-5
-1.007, -9.858e-6
-1.008, -9.485e-6
-1.009, -8.858e-6
-1.010, -7.752e-6
-1.011, -6.958e-6
-1.012, -6.528e-6
-1.013, -6.222e-6
-1.014, -5.770e-6
-1.015, -4.908e-6
-1.016, -4.255e-6
-1.017, -4.043e-6
-1.018, -3.908e-6
-1.019, -3.516e-6
-1.020, -2.733e-6
-1.021, -2.143e-6
-1.022, -2.006e-6
-1.023, -1.904e-6
-1.024, -1.618e-6
-1.025, -9.888e-7
-1.026, -4.738e-7
-1.027, -4.343e-7
-1.028, -5.132e-7
-1.029, -1.511e-7
-1.030, 4.339e-7
-1.031, 8.690e-7
-1.032, 8.798e-7
-1.033, 8.345e-7
-1.034, 1.113e-6
-1.035, 1.610e-6
-1.036, 1.978e-6
-1.037, 1.949e-6
-1.038, 1.848e-6
-1.039, 2.074e-6
-1.040, 2.531e-6
-1.041, 2.870e-6
-1.042, 2.874e-6
-1.043, 2.687e-6
-1.044, 2.896e-6
-1.045, 3.403e-6
-1.046, 3.710e-6
-1.047, 3.643e-6
-1.048, 3.398e-6
-1.049, 3.560e-6
-1.050, 4.063e-6
-1.051, 4.319e-6
-1.052, 4.220e-6
-1.053, 4.063e-6
-1.054, 4.159e-6
-1.055, 4.612e-6
-1.056, 4.819e-6
-1.057, 4.784e-6
-1.058, 4.480e-6
-1.059, 4.644e-6
-1.060, 5.060e-6
-1.061, 5.331e-6
-1.062, 5.122e-6
-1.063, 4.952e-6
-1.064, 5.108e-6
-1.065, 5.415e-6
-1.066, 5.746e-6
-1.067, 5.483e-6
-1.068, 5.231e-6
-1.069, 5.485e-6
-1.070, 5.738e-6
-1.071, 6.032e-6
-1.072, 5.773e-6
-1.073, 5.516e-6
-1.074, 5.730e-6
-1.075, 6.030e-6
-1.076, 6.296e-6
-1.077, 6.030e-6
-1.078, 5.756e-6
-1.079, 5.976e-6
-1.080, 6.174e-6
-1.081, 6.419e-6
-1.082, 6.217e-6
-1.083, 5.955e-6
-1.084, 6.071e-6
-1.085, 6.369e-6
-1.086, 6.561e-6
-1.087, 6.382e-6
-1.088, 6.026e-6
-1.089, 6.238e-6
-1.090, 6.449e-6
-1.091, 6.658e-6
-1.092, 6.437e-6
-1.093, 6.131e-6
-1.094, 6.292e-6
-1.095, 6.573e-6
-1.096, 6.696e-6
-1.097, 6.463e-6
-1.098, 6.179e-6
-1.099, 6.319e-6
-1.100, 6.580e-6
-1.101, 6.737e-6
-1.102, 6.517e-6
-1.103, 6.194e-6
-1.104, 6.349e-6
-1.105, 6.561e-6
-1.106, 6.730e-6
-1.107, 6.450e-6
-1.108, 6.180e-6
-1.109, 6.332e-6
-1.110, 6.515e-6
-1.111, 6.696e-6
-1.112, 6.429e-6
-1.113, 6.115e-6
-1.114, 6.284e-6
-1.115, 6.522e-6
-1.116, 6.645e-6
-1.117, 6.407e-6
-1.118, 6.128e-6
-1.119, 6.244e-6
-1.120, 6.525e-6
-1.121, 6.595e-6
-1.122, 6.379e-6
-1.123, 6.046e-6
-1.124, 6.166e-6
-1.125, 6.480e-6
-1.126, 6.547e-6
-1.127, 6.313e-6
-1.128, 6.003e-6
-1.129, 6.095e-6
-1.130, 6.464e-6
-1.131, 6.489e-6
-1.132, 6.195e-6
-1.133, 5.987e-6
-1.134, 6.069e-6
-1.135, 6.394e-6
-1.136, 6.497e-6
-1.137, 6.155e-6
-1.138, 5.946e-6
-1.139, 6.071e-6
-1.140, 6.369e-6
-1.141, 6.440e-6
-1.142, 6.170e-6
-1.143, 5.944e-6
-1.144, 6.011e-6
-1.145, 6.334e-6
-1.146, 6.470e-6
-1.147, 6.144e-6
-1.148, 5.908e-6
-1.149, 6.063e-6
-1.150, 6.313e-6
-1.151, 6.425e-6
-1.152, 6.140e-6
-1.153, 5.888e-6
-1.154, 6.039e-6
-1.155, 6.321e-6
-1.156, 6.401e-6
-1.157, 6.145e-6
-1.158, 5.924e-6
-1.159, 6.122e-6
-1.160, 6.357e-6
-1.161, 6.458e-6
-1.162, 6.243e-6
-1.163, 5.983e-6
-1.164, 6.101e-6
-1.165, 6.426e-6
-1.166, 6.549e-6
-1.167, 6.223e-6
-1.168, 5.963e-6
-1.169, 6.135e-6
-1.170, 6.469e-6
-1.171, 6.556e-6
-1.172, 6.235e-6
-1.173, 6.022e-6
-1.174, 6.234e-6
-1.175, 6.580e-6
-1.176, 6.633e-6
-1.177, 6.339e-6
-1.178, 6.155e-6
-1.179, 6.322e-6
-1.180, 6.576e-6
-1.181, 6.696e-6
-1.182, 6.412e-6
-1.183, 6.225e-6
-1.184, 6.405e-6
-1.185, 6.739e-6
-1.186, 6.866e-6
-1.187, 6.494e-6
-1.188, 6.295e-6
-1.189, 6.539e-6
-1.190, 6.866e-6
-1.191, 7.016e-6
-1.192, 6.586e-6
-1.193, 6.476e-6
-1.194, 6.671e-6
-1.195, 6.970e-6
-1.196, 7.076e-6
-1.197, 6.706e-6
-1.198, 6.574e-6
-1.199, 6.770e-6
-1.200, 7.122e-6
-1.201, 7.176e-6
-1.202, 6.903e-6
-1.203, 6.702e-6
-1.204, 6.951e-6
-1.205, 7.285e-6
-1.206, 7.363e-6
-1.207, 7.063e-6
-1.208, 6.941e-6
-1.209, 7.132e-6
-1.210, 7.464e-6
-1.211, 7.539e-6
-1.212, 7.223e-6
-1.213, 7.153e-6
-1.214, 7.322e-6
-1.215, 7.666e-6
-1.216, 7.780e-6
-1.217, 7.416e-6
-1.218, 7.398e-6
-1.219, 7.585e-6
-1.220, 7.966e-6
-1.221, 8.056e-6
-1.222, 7.674e-6
-1.223, 7.648e-6
-1.224, 7.850e-6
-1.225, 8.233e-6
-1.226, 8.308e-6
-1.227, 8.010e-6
-1.228, 8.035e-6
-1.229, 8.300e-6
-1.230, 8.625e-6
-1.231, 8.701e-6
-1.232, 8.395e-6
-1.233, 8.383e-6
-1.234, 8.682e-6
-1.235, 9.039e-6
-1.236, 9.054e-6
-1.237, 8.835e-6
-1.238, 8.832e-6
-1.239, 9.122e-6
-1.240, 9.501e-6
-1.241, 9.513e-6
-1.242, 9.359e-6
-1.243, 9.327e-6
-1.244, 9.662e-6
-1.245, 1.012e-5
-1.246, 1.006e-5
-1.247, 9.891e-6
-1.248, 9.875e-6
-1.249, 1.015e-5
-1.250, 1.058e-5
-1.251, 1.060e-5
-1.252, 1.043e-5
-1.253, 1.042e-5
-1.254, 1.077e-5
-1.255, 1.119e-5
-1.256, 1.122e-5
-1.257, 1.103e-5
-1.258, 1.111e-5
-1.259, 1.141e-5
-1.260, 1.191e-5
-1.261, 1.191e-5
-1.262, 1.185e-5
-1.263, 1.183e-5
-1.264, 1.221e-5
-1.265, 1.272e-5
-1.266, 1.277e-5
-1.267, 1.268e-5
-1.268, 1.266e-5
-1.269, 1.308e-5
-1.270, 1.360e-5
-1.271, 1.367e-5
-1.272, 1.363e-5
-1.273, 1.368e-5
-1.274, 1.418e-5
-1.275, 1.468e-5
-1.276, 1.474e-5
-1.277, 1.480e-5
-1.278, 1.486e-5
-1.279, 1.530e-5
-1.280, 1.589e-5
-1.281, 1.594e-5
-1.282, 1.598e-5
-1.283, 1.602e-5
-1.284, 1.654e-5
-1.285, 1.716e-5
-1.286, 1.725e-5
-1.287, 1.735e-5
-1.288, 1.746e-5
-1.289, 1.795e-5
-1.290, 1.866e-5
-1.291, 1.874e-5
-1.292, 1.882e-5
-1.293, 1.906e-5
-1.294, 1.956e-5
-1.295, 2.029e-5
-1.296, 2.045e-5
-1.297, 2.064e-5
-1.298, 2.081e-5
-1.299, 2.139e-5
-1.300, 2.215e-5
-1.301, 2.237e-5
-1.302, 2.258e-5
-1.303, 2.293e-5
-1.304, 2.354e-5
-1.305, 2.425e-5
-1.306, 2.454e-5
-1.307, 2.472e-5
-1.308, 2.501e-5
-1.309, 2.571e-5
-1.310, 2.651e-5
-1.311, 2.692e-5
-1.312, 2.706e-5
-1.313, 2.755e-5
-1.314, 2.821e-5
-1.315, 2.904e-5
-1.316, 2.946e-5
-1.317, 2.973e-5
-1.318, 3.021e-5
-1.319, 3.101e-5
-1.320, 3.186e-5
-1.321, 3.236e-5
-1.322, 3.268e-5
-1.323, 3.317e-5
-1.324, 3.410e-5
-1.325, 3.500e-5
-1.326, 3.554e-5
-1.327, 3.589e-5
-1.328, 3.648e-5
-1.329, 3.743e-5
-1.330, 3.844e-5
-1.331, 3.906e-5
-1.332, 3.956e-5
-1.333, 4.024e-5
-1.334, 4.122e-5
-1.335, 4.230e-5
-1.336, 4.294e-5
-1.337, 4.338e-5
-1.338, 4.411e-5
-1.339, 4.518e-5
-1.340, 4.628e-5
-1.341, 4.711e-5
-1.342, 4.760e-5
-1.343, 4.840e-5
-1.344, 4.955e-5
-1.345, 5.066e-5
-1.346, 5.151e-5
-1.347, 5.208e-5
-1.348, 5.302e-5
-1.349, 5.428e-5
-1.350, 5.540e-5
-1.351, 5.641e-5
-1.352, 5.704e-5
-1.353, 5.795e-5
-1.354, 5.936e-5
-1.355, 6.054e-5
-1.356, 6.152e-5
-1.357, 6.234e-5
-1.358, 6.331e-5
-1.359, 6.472e-5
-1.360, 6.608e-5
-1.361, 6.712e-5
-1.362, 6.794e-5
-1.363, 6.906e-5
-1.364, 7.056e-5
-1.365, 7.202e-5
-1.366, 7.319e-5
-1.367, 7.416e-5
-1.368, 7.530e-5
-1.369, 7.680e-5
-1.370, 7.843e-5
-1.371, 7.948e-5
-1.372, 8.049e-5
-1.373, 8.172e-5
-1.374, 8.338e-5
-1.375, 8.505e-5
-1.376, 8.628e-5
-1.377, 8.737e-5
-1.378, 8.875e-5
-1.379, 9.046e-5
-1.380, 9.210e-5
-1.381, 9.348e-5
-1.382, 9.461e-5
-1.383, 9.601e-5
-1.384, 9.782e-5
-1.385, 9.956e-5
-1.386, 1.010e-4
-1.387, 1.023e-4
-1.388, 1.038e-4
-1.389, 1.057e-4
-1.390, 1.075e-4
-1.391, 1.089e-4
-1.392, 1.102e-4
-1.393, 1.117e-4
-1.394, 1.138e-4
-1.395, 1.157e-4
-1.396, 1.172e-4
-1.397, 1.186e-4
-1.398, 1.202e-4
-1.399, 1.223e-4
-1.400, 1.243e-4
-1.401, 1.260e-4
-1.402, 1.275e-4
-1.403, 1.291e-4
-1.404, 1.313e-4
-1.405, 1.333e-4
-1.406, 1.349e-4
-1.407, 1.365e-4
-1.408, 1.383e-4
-1.409, 1.406e-4
-1.410, 1.428e-4
-1.411, 1.445e-4
-1.412, 1.462e-4
-1.413, 1.480e-4
-1.414, 1.503e-4
-1.415, 1.525e-4
-1.416, 1.543e-4
-1.417, 1.560e-4
-1.418, 1.580e-4
-1.419, 1.605e-4
-1.420, 1.628e-4
-1.421, 1.648e-4
-1.422, 1.666e-4
-1.423, 1.686e-4
-1.424, 1.710e-4
-1.425, 1.733e-4
-1.426, 1.753e-4
-1.427, 1.770e-4
-1.428, 1.792e-4
-1.429, 1.818e-4
-1.430, 1.842e-4
-1.431, 1.862e-4
-1.432, 1.882e-4
-1.433, 1.905e-4
-1.434, 1.931e-4
-1.435, 1.956e-4
-1.436, 1.977e-4
-1.437, 1.997e-4
-1.438, 2.019e-4
-1.439, 2.047e-4
-1.440, 2.071e-4
-1.441, 2.094e-4
-1.442, 2.115e-4
-1.443, 2.140e-4
-1.444, 2.167e-4
-1.445, 2.194e-4
-1.446, 2.217e-4
-1.447, 2.238e-4
-1.448, 2.263e-4
-1.449, 2.292e-4
-1.450, 2.319e-4
-1.451, 2.341e-4
-1.452, 2.365e-4
-1.453, 2.390e-4
-1.454, 2.418e-4
-1.455, 2.448e-4
-1.456, 2.473e-4
-1.457, 2.495e-4
-1.458, 2.522e-4
-1.459, 2.552e-4
-1.460, 2.580e-4
-1.461, 2.605e-4
-1.462, 2.628e-4
-1.463, 2.657e-4
-1.464, 2.687e-4
-1.465, 2.717e-4
-1.466, 2.744e-4
-1.467, 2.768e-4
-1.468, 2.795e-4
-1.469, 2.827e-4
-1.470, 2.859e-4
-1.471, 2.887e-4
-1.472, 2.913e-4
-1.473, 2.941e-4
-1.474, 2.970e-4
-1.475, 3.001e-4
-1.476, 3.029e-4
-1.477, 3.054e-4
-1.478, 3.083e-4
-1.479, 3.118e-4
-1.480, 3.151e-4
-1.481, 3.179e-4
-1.482, 3.207e-4
-1.483, 3.239e-4
-1.484, 3.273e-4
-1.485, 3.307e-4
-1.486, 3.337e-4
-1.487, 3.365e-4
-1.488, 3.397e-4
-1.489, 3.433e-4
-1.490, 3.468e-4
-1.491, 3.498e-4
-1.492, 3.529e-4
-1.493, 3.563e-4
-1.494, 3.597e-4
-1.495, 3.633e-4
-1.496, 3.665e-4
-1.497, 3.695e-4
-1.498, 3.730e-4
-1.499, 3.767e-4
-1.500, 3.805e-4
-1.501, 3.837e-4
-1.502, 3.869e-4
-1.503, 3.906e-4
-1.504, 3.940e-4
-1.505, 3.980e-4
-1.506, 4.016e-4
-1.507, 4.047e-4
-1.508, 4.086e-4
-1.509, 4.125e-4
-1.510, 4.164e-4
-1.511, 4.197e-4
-1.512, 4.233e-4
-1.513, 4.273e-4
-1.514, 4.312e-4
-1.515, 4.353e-4
-1.516, 4.388e-4
-1.517, 4.419e-4
-1.518, 4.459e-4
-1.519, 4.503e-4
-1.520, 4.543e-4
-1.521, 4.582e-4
-1.522, 4.622e-4
-1.523, 4.664e-4
-1.524, 4.707e-4
-1.525, 4.753e-4
-1.526, 4.795e-4
-1.527, 4.832e-4
-1.528, 4.875e-4
-1.529, 4.925e-4
-1.530, 4.971e-4
-1.531, 5.013e-4
-1.532, 5.057e-4
-1.533, 5.101e-4
-1.534, 5.146e-4
-1.535, 5.197e-4
-1.536, 5.241e-4
-1.537, 5.282e-4
-1.538, 5.328e-4
-1.539, 5.381e-4
-1.540, 5.431e-4
-1.541, 5.477e-4
-1.542, 5.524e-4
-1.543, 5.570e-4
-1.544, 5.620e-4
-1.545, 5.673e-4
-1.546, 5.724e-4
-1.547, 5.771e-4
-1.548, 5.822e-4
-1.549, 5.878e-4
-1.550, 5.931e-4
-1.551, 5.983e-4
-1.552, 6.032e-4
-1.553, 6.086e-4
-1.554, 6.138e-4
-1.555, 6.193e-4
-1.556, 6.250e-4
-1.557, 6.301e-4
-1.558, 6.352e-4
-1.559, 6.419e-4
-1.560, 6.479e-4
-1.561, 6.531e-4
-1.562, 6.591e-4
-1.563, 6.652e-4
-1.564, 6.712e-4
-1.565, 6.778e-4
-1.566, 6.839e-4
-1.567, 6.888e-4
-1.568, 6.944e-4
-1.569, 7.008e-4
-1.570, 7.073e-4
-1.571, 7.139e-4
-1.572, 7.207e-4
-1.573, 7.275e-4
-1.574, 7.346e-4
-1.575, 7.424e-4
-1.576, 7.491e-4
-1.577, 7.552e-4
-1.578, 7.625e-4
-1.579, 7.706e-4
-1.580, 7.783e-4
-1.581, 7.856e-4
-1.582, 7.934e-4
-1.583, 8.013e-4
-1.584, 8.091e-4
-1.585, 8.179e-4
-1.586, 8.258e-4
-1.587, 8.333e-4
-1.588, 8.420e-4
-1.589, 8.514e-4
-1.590, 8.602e-4
-1.591, 8.688e-4
-1.592, 8.777e-4
-1.593, 8.868e-4
-1.594, 8.956e-4
-1.595, 9.051e-4
-1.596, 9.144e-4
-1.597, 9.230e-4
-1.598, 9.328e-4
-1.599, 9.436e-4
-1.600, 9.369e-4
-1.599, 9.167e-4
-1.598, 8.979e-4
-1.597, 8.796e-4
-1.596, 8.615e-4
-1.595, 8.447e-4
-1.594, 8.287e-4
-1.593, 8.123e-4
-1.592, 7.973e-4
-1.591, 7.833e-4
-1.590, 7.690e-4
-1.589, 7.545e-4
-1.588, 7.408e-4
-1.587, 7.279e-4
-1.586, 7.150e-4
-1.585, 7.026e-4
-1.584, 6.897e-4
-1.583, 6.764e-4
-1.582, 6.637e-4
-1.581, 6.525e-4
-1.580, 6.416e-4
-1.579, 6.303e-4
-1.578, 6.200e-4
-1.577, 6.100e-4
-1.576, 6.002e-4
-1.575, 5.907e-4
-1.574, 5.807e-4
-1.573, 5.708e-4
-1.572, 5.616e-4
-1.571, 5.530e-4
-1.570, 5.445e-4
-1.569, 5.353e-4
-1.568, 5.267e-4
-1.567, 5.183e-4
-1.566, 5.101e-4
-1.565, 5.021e-4
-1.564, 4.943e-4
-1.563, 4.866e-4
-1.562, 4.789e-4
-1.561, 4.716e-4
-1.560, 4.638e-4
-1.559, 4.558e-4
-1.558, 4.486e-4
-1.557, 4.420e-4
-1.556, 4.357e-4
-1.555, 4.294e-4
-1.554, 4.228e-4
-1.553, 4.162e-4
-1.552, 4.101e-4
-1.551, 4.045e-4
-1.550, 3.983e-4
-1.549, 3.920e-4
-1.548, 3.862e-4
-1.547, 3.807e-4
-1.546, 3.754e-4
-1.545, 3.701e-4
-1.544, 3.644e-4
-1.543, 3.587e-4
-1.542, 3.536e-4
-1.541, 3.489e-4
-1.540, 3.438e-4
-1.539, 3.386e-4
-1.538, 3.338e-4
-1.537, 3.292e-4
-1.536, 3.248e-4
-1.535, 3.202e-4
-1.534, 3.153e-4
-1.533, 3.106e-4
-1.532, 3.063e-4
-1.531, 3.025e-4
-1.530, 2.982e-4
-1.529, 2.937e-4
-1.528, 2.896e-4
-1.527, 2.857e-4
-1.526, 2.820e-4
-1.525, 2.781e-4
-1.524, 2.741e-4
-1.523, 2.699e-4
-1.522, 2.664e-4
-1.521, 2.632e-4
-1.520, 2.595e-4
-1.519, 2.557e-4
-1.518, 2.519e-4
-1.517, 2.485e-4
-1.516, 2.454e-4
-1.515, 2.419e-4
-1.514, 2.384e-4
-1.513, 2.348e-4
-1.512, 2.319e-4
-1.511, 2.291e-4
-1.510, 2.259e-4
-1.509, 2.226e-4
-1.508, 2.194e-4
-1.507, 2.166e-4
-1.506, 2.140e-4
-1.505, 2.110e-4
-1.504, 2.080e-4
-1.503, 2.049e-4
-1.502, 2.024e-4
-1.501, 2.000e-4
-1.500, 1.973e-4
-1.499, 1.943e-4
-1.498, 1.915e-4
-1.497, 1.891e-4
-1.496, 1.869e-4
-1.495, 1.842e-4
-1.494, 1.815e-4
-1.493, 1.789e-4
-1.492, 1.767e-4
-1.491, 1.747e-4
-1.490, 1.723e-4
-1.489, 1.696e-4
-1.488, 1.672e-4
-1.487, 1.651e-4
-1.486, 1.632e-4
-1.485, 1.609e-4
-1.484, 1.585e-4
-1.483, 1.562e-4
-1.482, 1.542e-4
-1.481, 1.524e-4
-1.480, 1.502e-4
-1.479, 1.478e-4
-1.478, 1.456e-4
-1.477, 1.439e-4
-1.476, 1.423e-4
-1.475, 1.403e-4
-1.474, 1.381e-4
-1.473, 1.360e-4
-1.472, 1.344e-4
-1.471, 1.328e-4
-1.470, 1.310e-4
-1.469, 1.288e-4
-1.468, 1.270e-4
-1.467, 1.255e-4
-1.466, 1.240e-4
-1.465, 1.222e-4
-1.464, 1.203e-4
-1.463, 1.185e-4
-1.462, 1.171e-4
-1.461, 1.159e-4
-1.460, 1.142e-4
-1.459, 1.122e-4
-1.458, 1.106e-4
-1.457, 1.092e-4
-1.456, 1.080e-4
-1.455, 1.065e-4
-1.454, 1.047e-4
-1.453, 1.032e-4
-1.452, 1.020e-4
-1.451, 1.008e-4
-1.450, 9.929e-5
-1.449, 9.751e-5
-1.448, 9.615e-5
-1.447, 9.505e-5
-1.446, 9.386e-5
-1.445, 9.250e-5
-1.444, 9.089e-5
-1.443, 8.954e-5
-1.442, 8.850e-5
-1.441, 8.754e-5
-1.440, 8.618e-5
-1.439, 8.466e-5
-1.438, 8.327e-5
-1.437, 8.241e-5
-1.436, 8.142e-5
-1.435, 8.011e-5
-1.434, 7.864e-5
-1.433, 7.740e-5
-1.432, 7.652e-5
-1.431, 7.573e-5
-1.430, 7.441e-5
-1.429, 7.303e-5
-1.428, 7.192e-5
-1.427, 7.122e-5
-1.426, 7.046e-5
-1.425, 6.916e-5
-1.424, 6.780e-5
-1.423, 6.667e-5
-1.422, 6.592e-5
-1.421, 6.518e-5
-1.420, 6.401e-5
-1.419, 6.272e-5
-1.418, 6.168e-5
-1.417, 6.105e-5
-1.416, 6.037e-5
-1.415, 5.935e-5
-1.414, 5.801e-5
-1.413, 5.708e-5
-1.412, 5.650e-5
-1.411, 5.575e-5
-1.410, 5.480e-5
-1.409, 5.361e-5
-1.408, 5.272e-5
-1.407, 5.219e-5
-1.406, 5.158e-5
-1.405, 5.064e-5
-1.404, 4.953e-5
-1.403, 4.865e-5
-1.402, 4.821e-5
-1.401, 4.754e-5
-1.400, 4.669e-5
-1.399, 4.565e-5
-1.398, 4.481e-5
-1.397, 4.447e-5
-1.396, 4.389e-5
-1.395, 4.299e-5
-1.394, 4.204e-5
-1.393, 4.120e-5
-1.392, 4.093e-5
-1.391, 4.042e-5
-1.390, 3.951e-5
-1.389, 3.861e-5
-1.388, 3.788e-5
-1.387, 3.759e-5
-1.386, 3.716e-5
-1.385, 3.632e-5
-1.384, 3.546e-5
-1.383, 3.476e-5
-1.382, 3.451e-5
-1.381, 3.412e-5
-1.380, 3.339e-5
-1.379, 3.242e-5
-1.378, 3.181e-5
-1.377, 3.162e-5
-1.376, 3.119e-5
-1.375, 3.047e-5
-1.374, 2.960e-5
-1.373, 2.905e-5
-1.372, 2.894e-5
-1.371, 2.846e-5
-1.370, 2.784e-5
-1.369, 2.699e-5
-1.368, 2.651e-5
-1.367, 2.641e-5
-1.366, 2.603e-5
-1.365, 2.535e-5
-1.364, 2.454e-5
-1.363, 2.404e-5
-1.362, 2.390e-5
-1.361, 2.362e-5
-1.360, 2.299e-5
-1.359, 2.219e-5
-1.358, 2.176e-5
-1.357, 2.164e-5
-1.356, 2.138e-5
-1.355, 2.070e-5
-1.354, 1.995e-5
-1.353, 1.954e-5
-1.352, 1.951e-5
-1.351, 1.925e-5
-1.350, 1.866e-5
-1.349, 1.796e-5
-1.348, 1.770e-5
-1.347, 1.758e-5
-1.346, 1.734e-5
-1.345, 1.674e-5
-1.344, 1.612e-5
-1.343, 1.576e-5
-1.342, 1.571e-5
-1.341, 1.554e-5
-1.340, 1.499e-5
-1.339, 1.427e-5
-1.338, 1.408e-5
-1.337, 1.404e-5
-1.336, 1.382e-5
-1.335, 1.336e-5
-1.334, 1.268e-5
-1.333, 1.253e-5
-1.332, 1.250e-5
-1.331, 1.232e-5
-1.330, 1.180e-5
-1.329, 1.115e-5
-1.328, 1.103e-5
-1.327, 1.105e-5
-1.326, 1.092e-5
-1.325, 1.044e-5
-1.324, 9.901e-6
-1.323, 9.714e-6
-1.322, 9.706e-6
-1.321, 9.639e-6
-1.320, 9.139e-6
-1.319, 8.634e-6
-1.318, 8.472e-6
-1.317, 8.487e-6
-1.316, 8.465e-6
-1.315, 7.908e-6
-1.314, 7.444e-6
-1.313, 7.333e-6
-1.312, 7.397e-6
-1.311, 7.302e-6
-1.310, 6.815e-6
-1.309, 6.358e-6
-1.308, 6.292e-6
-1.307, 6.268e-6
-1.306, 6.273e-6
-1.305, 5.803e-6
-1.304, 5.304e-6
-1.303, 5.275e-6
-1.302, 5.265e-6
-1.301, 5.297e-6
-1.300, 4.891e-6
-1.299, 4.359e-6
-1.298, 4.353e-6
-1.297, 4.474e-6
-1.296, 4.460e-6
-1.295, 4.048e-6
-1.294, 3.552e-6
-1.293, 3.561e-6
-1.292, 3.676e-6
-1.291, 3.576e-6
-1.290, 3.205e-6
-1.289, 2.754e-6
-1.288, 2.793e-6
-1.287, 2.882e-6
-1.286, 2.884e-6
-1.285, 2.508e-6
-1.284, 2.067e-6
-1.283, 2.051e-6
-1.282, 2.177e-6
-1.281, 2.181e-6
-1.280, 1.832e-6
-1.279, 1.364e-6
-1.278, 1.350e-6
-1.277, 1.577e-6
-1.276, 1.597e-6
-1.275, 1.192e-6
-1.274, 8.315e-7
-1.273, 7.871e-7
-1.272, 9.844e-7
-1.271, 9.755e-7
-1.270, 6.036e-7
-1.269, 2.632e-7
-1.268, 2.652e-7
-1.267, 4.951e-7
-1.266, 4.872e-7
-1.265, 1.340e-7
-1.264, -2.725e-7
-1.263, -2.182e-7
-1.262, -1.697e-8
-1.261, 5.703e-8
-1.260, -3.169e-7
-1.259, -6.800e-7
-1.258, -6.218e-7
-1.257, -4.017e-7
-1.256, -4.047e-7
-1.255, -7.530e-7
-1.254, -1.069e-6
-1.253, -1.022e-6
-1.252, -7.461e-7
-1.251, -7.540e-7
-1.250, -1.153e-6
-1.249, -1.378e-6
-1.248, -1.375e-6
-1.247, -1.102e-6
-1.246, -1.101e-6
-1.245, -1.440e-6
-1.244, -1.714e-6
-1.243, -1.652e-6
-1.242, -1.416e-6
-1.241, -1.431e-6
-1.240, -1.720e-6
-1.239, -2.006e-6
-1.238, -1.950e-6
-1.237, -1.668e-6
-1.236, -1.657e-6
-1.235, -2.038e-6
-1.234, -2.241e-6
-1.233, -2.229e-6
-1.232, -1.918e-6
-1.231, -1.898e-6
-1.230, -2.264e-6
-1.229, -2.570e-6
-1.228, -2.387e-6
-1.227, -2.160e-6
-1.226, -2.083e-6
-1.225, -2.488e-6
-1.224, -2.750e-6
-1.223, -2.636e-6
-1.222, -2.470e-6
-1.221, -2.393e-6
-1.220, -2.669e-6
-1.219, -3.046e-6
-1.218, -2.863e-6
-1.217, -2.657e-6
-1.216, -2.594e-6
-1.215, -2.933e-6
-1.214, -3.238e-6
-1.213, -3.089e-6
-1.212, -2.805e-6
-1.211, -2.830e-6
-1.210, -3.192e-6
-1.209, -3.438e-6
-1.208, -3.278e-6
-1.207, -3.040e-6
-1.206, -3.014e-6
-1.205, -3.363e-6
-1.204, -3.587e-6
-1.203, -3.539e-6
-1.202, -3.248e-6
-1.201, -3.203e-6
-1.200, -3.573e-6
-1.199, -3.806e-6
-1.198, -3.658e-6
-1.197, -3.430e-6
-1.196, -3.369e-6
-1.195, -3.833e-6
-1.194, -3.961e-6
-1.193, -3.897e-6
-1.192, -3.601e-6
-1.191, -3.597e-6
-1.190, -4.036e-6
-1.189, -4.188e-6
-1.188, -4.038e-6
-1.187, -3.840e-6
-1.186, -3.771e-6
-1.185, -4.218e-6
-1.184, -4.355e-6
-1.183, -4.233e-6
-1.182, -4.015e-6
-1.181, -3.918e-6
-1.180, -4.335e-6
-1.179, -4.572e-6
-1.178, -4.436e-6
-1.177, -4.221e-6
-1.176, -4.196e-6
-1.175, -4.581e-6
-1.174, -4.763e-6
-1.173, -4.612e-6
-1.172, -4.378e-6
-1.171, -4.408e-6
-1.170, -4.792e-6
-1.169, -5.006e-6
-1.168, -4.770e-6
-1.167, -4.589e-6
-1.166, -4.615e-6
-1.165, -4.993e-6
-1.164, -5.153e-6
-1.163, -5.058e-6
-1.162, -4.769e-6
-1.161, -4.797e-6
-1.160, -5.207e-6
-1.159, -5.401e-6
-1.158, -5.255e-6
-1.157, -4.970e-6
-1.156, -5.037e-6
-1.155, -5.455e-6
-1.154, -5.587e-6
-1.153, -5.491e-6
-1.152, -5.227e-6
-1.151, -5.297e-6
-1.150, -5.688e-6
-1.149, -5.864e-6
-1.148, -5.715e-6
-1.147, -5.471e-6
-1.146, -5.542e-6
-1.145, -5.943e-6
-1.144, -6.073e-6
-1.143, -5.948e-6
-1.142, -5.732e-6
-1.141, -5.798e-6
-1.140, -6.218e-6
-1.139, -6.373e-6
-1.138, -6.212e-6
-1.137, -5.985e-6
-1.136, -6.040e-6
-1.135, -6.475e-6
-1.134, -6.633e-6
-1.133, -6.490e-6
-1.132, -6.247e-6
-1.131, -6.431e-6
-1.130, -6.705e-6
-1.129, -6.961e-6
-1.128, -6.779e-6
-1.127, -6.540e-6
-1.126, -6.711e-6
-1.125, -7.048e-6
-1.124, -7.273e-6
-1.123, -7.142e-6
-1.122, -6.864e-6
-1.121, -7.047e-6
-1.120, -7.379e-6
-1.119, -7.638e-6
-1.118, -7.499e-6
-1.117, -7.228e-6
-1.116, -7.387e-6
-1.115, -7.762e-6
-1.114, -8.029e-6
-1.113, -7.831e-6
-1.112, -7.601e-6
-1.111, -7.807e-6
-1.110, -8.151e-6
-1.109, -8.374e-6
-1.108, -8.234e-6
-1.107, -8.005e-6
-1.106, -8.194e-6
-1.105, -8.540e-6
-1.104, -8.783e-6
-1.103, -8.610e-6
-1.102, -8.407e-6
-1.101, -8.633e-6
-1.100, -8.906e-6
-1.099, -9.239e-6
-1.098, -9.025e-6
-1.097, -8.830e-6
-1.096, -9.046e-6
-1.095, -9.370e-6
-1.094, -9.614e-6
-1.093, -9.482e-6
-1.092, -9.221e-6
-1.091, -9.542e-6
-1.090, -9.805e-6
-1.089, -1.006e-5
-1.088, -9.971e-6
-1.087, -9.678e-6
-1.086, -9.960e-6
-1.085, -1.022e-5
-1.084, -1.053e-5
-1.083, -1.044e-5
-1.082, -1.015e-5
-1.081, -1.037e-5
-1.080, -1.071e-5
-1.079, -1.098e-5
-1.078, -1.091e-5
-1.077, -1.066e-5
-1.076, -1.084e-5
-1.075, -1.126e-5
-1.074, -1.152e-5
-1.073, -1.143e-5
-1.072, -1.116e-5
-1.071, -1.134e-5
-1.070, -1.178e-5
-1.069, -1.198e-5
-1.068, -1.190e-5
-1.067, -1.167e-5
-1.066, -1.187e-5
-1.065, -1.231e-5
-1.064, -1.247e-5
-1.063, -1.242e-5
-1.062, -1.228e-5
-1.061, -1.247e-5
-1.060, -1.291e-5
-1.059, -1.318e-5
-1.058, -1.299e-5
-1.057, -1.281e-5
-1.056, -1.301e-5
-1.055, -1.348e-5
-1.054, -1.379e-5
-1.053, -1.353e-5
-1.052, -1.343e-5
-1.051, -1.368e-5
-1.050, -1.412e-5
-1.049, -1.439e-5
-1.048, -1.420e-5
-1.047, -1.404e-5
-1.046, -1.433e-5
-1.045, -1.480e-5
-1.044, -1.507e-5
-1.043, -1.495e-5
-1.042, -1.481e-5
-1.041, -1.506e-5
-1.040, -1.550e-5
-1.039, -1.580e-5
-1.038, -1.574e-5
-1.037, -1.562e-5
-1.036, -1.586e-5
-1.035, -1.642e-5
-1.034, -1.664e-5
-1.033, -1.659e-5
-1.032, -1.647e-5
-1.031, -1.672e-5
-1.030, -1.733e-5
-1.029, -1.755e-5
-1.028, -1.748e-5
-1.027, -1.741e-5
-1.026, -1.769e-5
-1.025, -1.826e-5
-1.024, -1.859e-5
-1.023, -1.845e-5
-1.022, -1.845e-5
-1.021, -1.875e-5
-1.020, -1.928e-5
-1.019, -1.962e-5
-1.018, -1.957e-5
-1.017, -1.950e-5
-1.016, -1.987e-5
-1.015, -2.041e-5
-1.014, -2.082e-5
-1.013, -2.069e-5
-1.012, -2.063e-5
-1.011, -2.106e-5
-1.010, -2.162e-5
-1.009, -2.205e-5
-1.008, -2.190e-5
-1.007, -2.192e-5
-1.006, -2.230e-5
-1.005, -2.286e-5
-1.004, -2.326e-5
-1.003, -2.321e-5
-1.002, -2.319e-5
-1.001, -2.361e-5
