Potential V vs RHE, Current mA cm-2
0.013299999999999867,-0.09153182110126787
0.012299999999999978,-0.5622062705663656
0.011299999999999866,-0.7971898174739481
0.010299999999999976,-0.9812437575863894
0.009299999999999864,-1.1353058181416917
0.008299999999999974,-1.2354673781721366
0.007299999999999862,-1.331667746562959
0.006299999999999972,-1.433102546763282
0.00529999999999986,-1.5094969569559942
0.0042999999999999705,-1.5646706976507305
0.0032999999999998586,-1.6382356852437125
0.0022999999999999687,-1.6990682711379093
0.0012999999999998568,-1.7372654762342652
0.00029999999999996696,-1.7867803717295414
-0.000700000000000145,-1.8391246898245475
-0.0017000000000000348,-1.8688336271217136
-0.0027000000000001467,-1.8999572757187444
-0.0037000000000000366,-1.9508868825138854
-0.0047000000000001485,-1.9820105311109162
-0.005700000000000038,-2.0004017780091616
-0.00670000000000015,-2.040013694405383
-0.00770000000000004,-2.072552054302279
-0.008700000000000152,-2.0881138786007942
-0.009700000000000042,-2.11782281589796
-0.010700000000000154,-2.158849443594046
-0.011700000000000044,-2.1729965565926963
-0.012700000000000156,-2.199876071290132
-0.013700000000000045,-2.235243853786758
-0.014700000000000157,-2.257879234584599
-0.015700000000000047,-2.2748557701829792
-0.01670000000000016,-2.3172971091789303
-0.01770000000000005,-2.355494314275286
-0.01870000000000016,-2.3710561385738016
-0.01970000000000005,-2.4106680549700226
-0.020700000000000163,-2.4587682391654337
-0.021700000000000053,-2.4884771764625997
-0.022700000000000164,-2.533747938058281
-0.023700000000000054,-2.587506967453152
-0.024700000000000166,-2.6327777290488332
-0.025700000000000056,-2.666730800245594
-0.026700000000000168,-2.7219045409403306
-0.027700000000000058,-2.7742488590353367
-0.02870000000000017,-2.8053725076323675
-0.02970000000000006,-2.8534726918277786
-0.03070000000000017,-2.9100611438223805
-0.03170000000000006,-2.932696524620221
-0.03270000000000017,-2.972308441016442
-0.03370000000000006,-3.0175792026121235
-0.034700000000000175,-3.050117562509019
-0.035700000000000065,-3.0727529433068597
-0.03670000000000018,-3.110950148403216
-0.03770000000000007,-3.1449032195999767
-0.03870000000000018,-3.160465043898492
-0.03970000000000007,-3.1774415794968722
-0.04070000000000018,-3.2099799393937682
-0.04170000000000007,-3.214224073293363
-0.04270000000000018,-3.225541763692284
-0.04370000000000007,-3.2510065670898545
-0.044700000000000184,-3.253835989689584
-0.045700000000000074,-3.2566654122893146
-0.046700000000000186,-3.27222723658783
-0.047700000000000076,-3.2849596382866153
-0.04870000000000019,-3.27788608178729
-0.04970000000000008,-3.28354492698675
-0.05070000000000019,-3.3019361738849957
-0.05170000000000008,-3.2920331947859403
-0.05270000000000019,-3.2906184834860754
-0.05370000000000008,-3.3019361738849957
-0.05470000000000019,-3.2991067512852656
-0.05570000000000008,-3.2892037721862106
-0.056700000000000195,-3.2948626173856703
-0.057700000000000085,-3.3047655964847262
-0.058700000000000196,-3.28354492698675
-0.059700000000000086,-3.28637434958648
-0.0607000000000002,-3.2906184834860754
-0.06170000000000009,-3.2821302156868852
-0.0627000000000002,-3.273641947887695
-0.06370000000000009,-3.276471370487425
-0.0647000000000002,-3.270812525287965
-0.06570000000000009,-3.249591855789989
-0.0667000000000002,-3.2524212783897193
-0.0677000000000001,-3.2524212783897193
-0.0687000000000002,-3.232615320191609
-0.0697000000000001,-3.225541763692284
-0.07070000000000021,-3.2297858975918787
-0.0717000000000001,-3.204321094194308
-0.07270000000000021,-3.1944181150952526
-0.0737000000000001,-3.200076960294713
-0.07470000000000021,-3.1831004246963324
-0.0757000000000001,-3.164709177798087
-0.07670000000000021,-3.1632944664982214
-0.0777000000000001,-3.153391487399167
-0.07870000000000021,-3.1364149518007864
-0.0797000000000001,-3.120853127502271
-0.08070000000000022,-3.123682550102001
-0.0817000000000001,-3.1024618806040256
-0.08270000000000022,-3.08407063370578
-0.08370000000000011,-3.082655922405915
-0.08470000000000022,-3.069923520707129
-0.08570000000000011,-3.047288139909289
-0.08670000000000022,-3.0458734286094242
-0.08770000000000011,-3.0373851608102336
-0.08870000000000022,-3.0147497800123935
-0.08970000000000011,-3.006261512213203
-0.09070000000000022,-3.000602667013743
-0.09170000000000011,-2.977967286215902
-0.09270000000000023,-2.9666495958169823
-0.09370000000000012,-2.9609907506175217
-0.09470000000000023,-2.9468436376188714
-0.09570000000000012,-2.924208256821031
-0.09670000000000023,-2.919964122921436
-0.09770000000000012,-2.91571998902184
-0.09870000000000023,-2.88742576302454
-0.09970000000000012,-2.8831816291249446
-0.10070000000000023,-2.8803522065252145
-0.10170000000000012,-2.8534726918277786
-0.10270000000000024,-2.840740290128994
-0.10370000000000013,-2.8379108675292635
-0.10470000000000024,-2.820934331930883
-0.10570000000000013,-2.798298951133043
-0.10670000000000024,-2.7926401059335824
-0.10770000000000013,-2.7869812607341222
-0.10870000000000024,-2.767175302536012
-0.10970000000000013,-2.7558576121370915
-0.11070000000000024,-2.7558576121370915
-0.11170000000000013,-2.7289780974396556
-0.11270000000000002,-2.719075118340601
-0.11370000000000013,-2.7176604070407357
-0.11470000000000002,-2.7049280053419507
-0.11570000000000014,-2.6865367584437045
-0.11670000000000003,-2.6837073358439745
-0.11770000000000014,-2.6723896454450546
-0.11870000000000003,-2.6539983985468085
-0.11970000000000014,-2.6469248420474836
-0.12070000000000003,-2.648339553347349
-0.12170000000000014,-2.627118883849373
-0.12270000000000003,-2.6143864821505876
-0.12370000000000014,-2.6172159047503176
-0.12470000000000003,-2.6044835030515325
-0.12570000000000014,-2.586092256153287
-0.12670000000000003,-2.588921678753017
-0.12770000000000015,-2.583262833553557
-0.12870000000000004,-2.5648715866553116
-0.12970000000000015,-2.5620421640555815
-0.13070000000000004,-2.5592127414558514
-0.13170000000000015,-2.543650917157336
-0.13270000000000004,-2.536577360658011
-0.13370000000000015,-2.5351626493581456
-0.13470000000000004,-2.5280890928588207
-0.13570000000000015,-2.512527268560305
-0.13670000000000004,-2.5139419798601703
-0.13770000000000016,-2.5111125572604402
-0.13870000000000005,-2.4927213103621946
-0.13970000000000016,-2.4927213103621946
-0.14070000000000005,-2.4955507329619246
-0.14170000000000016,-2.4771594860636794
-0.14270000000000005,-2.4743300634639493
-0.14370000000000016,-2.4743300634639493
-0.14470000000000005,-2.468671218264489
-0.14570000000000016,-2.4559388165657037
-0.14670000000000005,-2.457353527865569
-0.14770000000000016,-2.4587682391654337
-0.14870000000000005,-2.4502799713662435
-0.14970000000000017,-2.4446211261667834
-0.15070000000000006,-2.4531093939659736
-0.15170000000000017,-2.436132858367593
-0.15270000000000006,-2.433303435767863
-0.15370000000000017,-2.437547569667458
-0.15470000000000006,-2.436132858367593
-0.15570000000000017,-2.424815167968673
-0.15670000000000006,-2.430474013168133
-0.15770000000000017,-2.4347181470677284
-0.15870000000000006,-2.417741611469348
-0.15970000000000018,-2.4191563227692128
-0.16070000000000007,-2.4290593018682682
-0.16170000000000018,-2.420571034069078
-0.16270000000000007,-2.414912188869618
-0.16370000000000018,-2.424815167968673
-0.16470000000000007,-2.4234004566688077
-0.16570000000000018,-2.4092533436701573
-0.16670000000000007,-2.4219857453689424
-0.16770000000000018,-2.4234004566688077
-0.16870000000000007,-2.412082766269888
-0.16970000000000018,-2.417741611469348
-0.17070000000000007,-2.427644590568403
-0.17170000000000019,-2.4163269001694827
-0.17270000000000008,-2.4191563227692128
-0.1737000000000002,-2.424815167968673
-0.17470000000000008,-2.426229879268538
-0.1757000000000002,-2.4191563227692128
-0.17670000000000008,-2.427644590568403
-0.1777000000000002,-2.437547569667458
-0.17870000000000008,-2.424815167968673
-0.1797000000000002,-2.4318887244679983
-0.18070000000000008,-2.4474505487665135
-0.1817000000000002,-2.438962280967323
-0.18270000000000008,-2.4403769922671885
-0.1837000000000002,-2.451694682666109
-0.1847000000000001,-2.4502799713662435
-0.1857000000000002,-2.4446211261667834
-0.1867000000000001,-2.460182950465299
-0.1877000000000002,-2.465841795664759
-0.1887000000000001,-2.4587682391654337
-0.1897000000000002,-2.4700859295643536
-0.1907000000000001,-2.4814036199632743
-0.1917000000000001,-2.4771594860636794
-0.19269999999999998,-2.4743300634639493
-0.1937000000000001,-2.49413602166206
-0.19469999999999998,-2.4913065990623298
-0.1957000000000001,-2.4884771764625997
-0.19669999999999999,-2.506868423360845
-0.1977000000000001,-2.512527268560305
-0.1987,-2.5111125572604402
-0.1997000000000001,-2.518186113759765
-0.2007,-2.5280890928588207
-0.2017000000000001,-2.5309185154585507
-0.2027,-2.5309185154585507
-0.2037000000000001,-2.550724473656661
-0.2047,-2.549309762356796
-0.2057000000000001,-2.5478950510569307
-0.2067,-2.5677010092550416
-0.2077000000000001,-2.5747745657543666
-0.2087,-2.5719451431546365
-0.2097000000000001,-2.583262833553557
-0.2107,-2.600239369151937
-0.2117000000000001,-2.5959952352523423
-0.2127,-2.6016540804518025
-0.2137000000000001,-2.6172159047503176
-0.2147,-2.629948306449103
-0.2157000000000001,-2.634192440348698
-0.2167,-2.6469248420474836
-0.21770000000000012,-2.659657243746269
-0.2187,-2.6497542646472136
-0.21970000000000012,-2.661071955046134
-0.2207,-2.6822926245441097
-0.22170000000000012,-2.6766337793446495
-0.2227,-2.6879514697435702
-0.22370000000000012,-2.69643973754276
-0.2247,-2.7105868505414104
-0.22570000000000012,-2.709172139241545
-0.2267,-2.7261486748399255
-0.22770000000000012,-2.738881076538711
-0.22870000000000001,-2.741710499138441
-0.22970000000000013,-2.7516134782374966
-0.23070000000000002,-2.768590013835877
-0.23170000000000013,-2.768590013835877
-0.23270000000000002,-2.7742488590353367
-0.23370000000000013,-2.7968842398331777
-0.23470000000000002,-2.8011283737327726
-0.23570000000000013,-2.8039577963325026
-0.23670000000000002,-2.818104909331153
-0.2376999999999999,-2.8350814449295334
-0.23870000000000002,-2.8379108675292635
-0.2396999999999999,-2.842155001428859
-0.24070000000000003,-2.867619804826429
-0.24169999999999991,-2.8690345161262942
-0.24270000000000003,-2.874693361325755
-0.24369999999999992,-2.893084608224
-0.24470000000000003,-2.8987434534234597
-0.24569999999999992,-2.90157287602319
-0.24670000000000003,-2.924208256821031
-0.24769999999999992,-2.935525947219951
-0.24870000000000003,-2.932696524620221
-0.24969999999999992,-2.949673060218602
-0.25070000000000003,-2.968064307116847
-0.2516999999999999,-2.965234884517117
-0.25270000000000004,-2.9793819975157674
-0.2536999999999999,-2.996358533114148
-0.25470000000000004,-3.0076762235130676
-0.2556999999999999,-3.0076762235130676
-0.25670000000000004,-3.024652759111448
-0.25769999999999993,-3.0402145834099636
-0.25870000000000004,-3.0387998721100984
-0.25969999999999993,-3.0515322738088844
-0.26070000000000004,-3.0727529433068597
-0.26169999999999993,-3.0727529433068597
-0.26270000000000004,-3.082655922405915
-0.26369999999999993,-3.0996324580042955
-0.26470000000000005,-3.1095354371033506
-0.26569999999999994,-3.110950148403216
-0.26670000000000005,-3.135000240500921
-0.26769999999999994,-3.1477326421997063
-0.26870000000000005,-3.1463179308998415
-0.26969999999999994,-3.159050332598627
-0.27070000000000005,-3.1831004246963324
-0.27169999999999994,-3.1760268681970074
-0.27270000000000005,-3.1887592698957925
-0.27369999999999994,-3.211394650693633
-0.27470000000000006,-3.2128093619934983
-0.27569999999999995,-3.217053495893093
-0.27670000000000006,-3.2368594540912037
-0.27769999999999995,-3.2481771444901244
-0.27870000000000006,-3.2510065670898545
-0.27969999999999995,-3.265153680088505
-0.28070000000000006,-3.2821302156868852
-0.28169999999999995,-3.2849596382866153
-0.28270000000000006,-3.2920331947859403
-0.28369999999999995,-3.313253864283916
-0.28470000000000006,-3.3203274207832414
-0.28569999999999995,-3.321742132083106
-0.28670000000000007,-3.3415480902812167
-0.28769999999999996,-3.355695203279867
-0.28870000000000007,-3.355695203279867
-0.28969999999999996,-3.3698423162785174
-0.29070000000000007,-3.381160006677438
-0.29169999999999996,-3.386818851876898
-0.29270000000000007,-3.3967218309759533
-0.29369999999999996,-3.4165277891740633
-0.2947000000000001,-3.4236013456733887
-0.29569999999999996,-3.426430768273119
-0.2967000000000001,-3.4490661490709593
-0.29769999999999996,-3.4617985507697444
-0.2987000000000001,-3.4617985507697444
-0.29969999999999997,-3.4745309524685304
-0.3007000000000001,-3.4985810445662353
-0.30169999999999997,-3.492922199366775
-0.3027000000000001,-3.505654601065561
-0.30369999999999997,-3.525460559263671
-0.3047000000000001,-3.5353635383627267
-0.30569999999999997,-3.541022383562187
-0.3067000000000001,-3.557998919160567
-0.3077,-3.5707313208593527
-0.3087000000000001,-3.569316609559488
-0.3097,-3.5848784338580026
-0.3107000000000001,-3.6117579485554394
-0.3117,-3.608928525955709
-0.3127000000000001,-3.6216609276544935
-0.3137,-3.641466885852605
-0.3147000000000001,-3.6513698649516595
-0.3157,-3.6541992875513896
-0.3167000000000001,-3.681078802248825
-0.3177,-3.693811203947611
-0.3187000000000001,-3.700884760446936
-0.3197,-3.716446584745451
-0.3207000000000001,-3.7390819655432916
-0.3217,-3.7433260994428865
-0.3227000000000001,-3.7532290785419424
-0.3237,-3.7758644593397825
-0.3247000000000001,-3.791426283638298
-0.3257,-3.794255706238028
-0.3267000000000001,-3.821135220935464
-0.3277,-3.8395264678337093
-0.3287000000000001,-3.8437706017333046
-0.3297,-3.8649912712312804
-0.3307000000000001,-3.8904560746288515
-0.3317,-3.8947002085284463
-0.3327000000000001,-3.914506166726557
-0.3337,-3.9385562588242617
-0.3347000000000001,-3.958362217022373
-0.3357,-3.962606350921967
-0.3367000000000001,-3.9965594221187284
-0.3377,-4.017780091616704
-0.3387000000000001,-4.024853648116029
-0.3397,-4.050318451513601
-0.3407000000000001,-4.084271522710361
-0.3417,-4.088515656609956
-0.3427000000000001,-4.113980460007527
-0.3437,-4.142274686004828
-0.3447000000000001,-4.164910066802668
-0.3457,-4.177642468501453
-0.3467000000000001,-4.21018082839835
-0.3477,-4.2413044769953805
-0.3487000000000001,-4.254036878694166
-0.3497,-4.285160527291196
-0.3507000000000001,-4.321943021087687
-0.3517,-4.337504845386203
-0.3527000000000001,-4.3657990713835035
-0.3537,-4.402581565179994
-0.3547000000000001,-4.426631657277699
-0.3557,-4.447852326775675
-0.35670000000000013,-4.488878954471762
-0.3577,-4.522832025668523
-0.35870000000000013,-4.548296829066093
-0.3597,-4.580835188962989
-0.36070000000000013,-4.6289353731583995
-0.3617,-4.650156042656376
-0.3626999999999999,-4.682694402553271
-0.3637,-4.730794586748683
-0.3646999999999999,-4.766162369245309
-0.3657,-4.798700729142205
-0.3666999999999999,-4.843971490737885
-0.3677,-4.886412829733837
-0.3686999999999999,-4.926024746130058
-0.36970000000000003,-4.968466085126009
-0.3706999999999999,-5.01656626932142
-0.37170000000000003,-5.046275206618586
-0.3726999999999999,-5.097204813413727
-0.37370000000000003,-5.148134420208869
-0.3746999999999999,-5.196234604404279
-0.37570000000000003,-5.234431809500635
-0.3766999999999999,-5.2924349727951014
-0.37770000000000004,-5.349023424789703
-0.3786999999999999,-5.385805918586194
-0.37970000000000004,-5.443809081880661
-0.3806999999999999,-5.510300512974317
-0.38170000000000004,-5.5541565632701335
-0.38269999999999993,-5.609330303964871
-0.38370000000000004,-5.670162889859067
-0.38469999999999993,-5.732410187053128
-0.38570000000000004,-5.77768094864881
-0.38669999999999993,-5.848416513642062
-0.38770000000000004,-5.912078522135989
-0.38869999999999993,-5.968666974130589
-0.38970000000000005,-6.029499560024787
-0.39069999999999994,-6.110138104117093
-0.39170000000000005,-6.1624824222121
-0.39269999999999994,-6.234632698505217
-0.39370000000000005,-6.31385653129766
-0.39469999999999994,-6.381762673691181
-0.39570000000000005,-6.445424682185107
-0.39669999999999994,-6.527477937577279
-0.39770000000000005,-6.606701770369722
-0.39869999999999994,-6.678852046662837
-0.39970000000000006,-6.75807587945528
-0.40069999999999995,-6.850032113946507
-0.40170000000000006,-6.923597101539489
-0.40269999999999995,-7.001406223032068
-0.40370000000000006,-7.096191880123024
-0.40469999999999995,-7.182489269414792
-0.40570000000000006,-7.261713102207232
-0.40669999999999995,-7.363572315797517
-0.40770000000000006,-7.456943261588608
-0.40869999999999995,-7.540411228280647
-0.40970000000000006,-7.638026307971333
-0.41069999999999995,-7.744129655461211
-0.41170000000000007,-7.830427044752977
-0.41269999999999996,-7.929456835743531
-0.41370000000000007,-8.039804317133003
-0.41469999999999996,-8.145907664622882
-0.41570000000000007,-8.23786389911411
-0.41669999999999996,-8.358114359602638
-0.41770000000000007,-8.46846184099211
-0.41869999999999996,-8.563247498083067
-0.4197000000000001,-8.680668535971865
-0.42069999999999996,-8.80799255295972
-0.4217000000000001,-8.911266477849864
-0.42269999999999996,-9.031516938338395
-0.4237000000000001,-9.156011532726518
-0.42469999999999997,-9.276261993215044
-0.4257000000000001,-9.393683031103844
-0.42669999999999997,-9.529495315890887
-0.4277000000000001,-9.661063466778335
-0.42869999999999997,-9.782728638566729
-0.4297000000000001,-9.911467366854446
-0.43069999999999997,-10.060012053340275
-0.4317000000000001,-10.183091936428536
-0.4327,-10.324563066415037
-0.4337000000000001,-10.477351886800463
-0.4347,-10.61174946028764
-0.4357000000000001,-10.751805878974281
-0.4367,-10.907424121959433
-0.4377000000000001,-11.058798231044992
-0.4387,-11.205928206230956
-0.4397000000000001,-11.360131737916245
-0.4407,-11.532726516499778
-0.4417000000000001,-11.679856491685744
-0.4427,-11.838304157270626
-0.4437000000000001,-12.013728358453893
-0.4447,-12.17359073533864
-0.4457000000000001,-12.33628253482312
-0.4467,-12.520195003805576
-0.4477000000000001,-12.691375071089244
-0.4487,-12.854066870573723
-0.4497000000000001,-13.033735205656583
-0.4507,-13.226135942438228
-0.4517000000000001,-13.397316009721898
-0.4527,-13.579813767404486
-0.4537000000000001,-13.780702771985322
-0.4547,-13.968859374867373
-0.4557000000000001,-14.144283576050634
-0.4567,-14.345172580631472
-0.4577000000000001,-14.543232162612577
-0.4587,-14.727144631595033
-0.4597000000000001,-14.939351326574789
-0.4607,-15.151558021554543
-0.4617000000000001,-15.349617603535648
-0.4627,-15.561824298515406
-0.4637000000000001,-15.77403099349516
-0.4647,-16.000384801473565
-0.4657000000000001,-16.19844438345467
-0.4667,-16.424798191433077
-0.4677000000000001,-16.651151999411482
-0.4687,-16.863358694391238
-0.4697000000000001,-17.089712502369647
-0.4707,-17.3302134233467
-0.4717000000000001,-17.542420118326454
-0.4727,-17.76877392630486
-0.4737000000000001,-18.02342196028057
-0.4747,-18.249775768258974
-0.4757000000000001,-18.49027668923603
-0.4767,-18.744924723211735
-0.4777000000000001,-18.999572757187444
-0.4787,-19.2400736781645
-0.4797000000000001,-19.49472171214021
-0.4807,-19.763516859114564
-0.48170000000000013,-20.01816489309027
-0.4827,-20.25866581406732
-0.48370000000000013,-20.541608074040333
-0.4847,-20.810403221014692
-0.48570000000000013,-21.065051254990397
-0.4867,-21.362140627962056
-0.4876999999999999,-21.63093577493641
-0.4887,-21.899730921910766
-0.4896999999999999,-22.182673181883775
-0.4907,-22.479762554855434
-0.4916999999999999,-22.76270481482844
-0.4927,-23.059794187800097
-0.4936999999999999,-23.356883560771752
-0.49470000000000003,-23.653972933743415
-0.4956999999999999,-23.93691519371642
-0.49670000000000003,-24.24815167968673
-0.4976999999999999,-24.559388165657033
-0.49870000000000003,-24.856477538628695
-0.4996999999999999,-25.167714024599
-0.5007,-25.49309762356796
-0.5016999999999999,-25.790186996539617
-0.5027,-26.11557059550858
-0.5036999999999999,-26.440954194477534
-0.5047,-26.766337793446493
-0.5056999999999999,-27.0775742794168
-0.5067,-27.43125210438306
