Potential V vs RHE, Current mA cm-2
0.013299999999999867,-0.2202705493889862
0.012299999999999978,-1.0490084288499246
0.011299999999999866,-1.6156003044458718
0.010299999999999976,-2.095187435100119
0.009299999999999864,-2.532333226758415
0.008299999999999974,-2.8379108675292635
0.007299999999999862,-3.1420737970002466
0.006299999999999972,-3.403795387475278
0.00529999999999986,-3.623075638954359
0.0042999999999999705,-3.840941179133574
0.0032999999999998586,-4.014950669016974
0.0022999999999999687,-4.1889601589003735
0.0012999999999998568,-4.364384360083638
0.00029999999999996696,-4.538393849967037
-0.000700000000000145,-4.668547289554621
-0.0017000000000000348,-4.756259390146253
-0.0027000000000001467,-4.887827541033701
-0.0037000000000000366,-4.974124930325469
-0.0047000000000001485,-5.0618370309171015
-0.005700000000000038,-5.191990470504685
-0.00670000000000015,-5.279702571096316
-0.00770000000000004,-5.323558621392133
-0.008700000000000152,-5.411270721983764
-0.009700000000000042,-5.497568111275533
-0.010700000000000154,-5.585280211867165
-0.011700000000000044,-5.672992312458796
-0.012700000000000156,-5.715433651454749
-0.013700000000000045,-5.759289701750564
-0.014700000000000157,-5.847001802342197
-0.015700000000000047,-5.890857852638012
-0.01670000000000016,-5.9347139029338285
-0.01770000000000005,-5.977155241929781
-0.01870000000000016,-6.021011292225596
-0.01970000000000005,-6.108723392817228
-0.020700000000000163,-6.108723392817228
-0.021700000000000053,-6.152579443113044
-0.022700000000000164,-6.238876832404812
-0.023700000000000054,-6.282732882700628
-0.024700000000000166,-6.326588932996443
-0.025700000000000056,-6.37044498329226
-0.026700000000000168,-6.414301033588076
-0.027700000000000058,-6.500598422879844
-0.02870000000000017,-6.500598422879844
-0.02970000000000006,-6.54445447317566
-0.03070000000000017,-6.588310523471475
-0.03170000000000006,-6.6760226240631075
-0.03270000000000017,-6.762320013354876
-0.03370000000000006,-6.806176063650692
-0.034700000000000175,-6.850032113946507
-0.035700000000000065,-6.93774421453814
-0.03670000000000018,-7.024041603829907
-0.03770000000000007,-7.067897654125724
-0.03870000000000018,-7.155609754717355
-0.03970000000000007,-7.243321855308987
-0.04070000000000018,-7.329619244600755
-0.04170000000000007,-7.4173313451923875
-0.04270000000000018,-7.50504344578402
-0.04370000000000007,-7.5474847847799715
-0.044700000000000184,-7.679052935667419
-0.045700000000000074,-7.7653503249591855
-0.046700000000000186,-7.809206375255003
-0.047700000000000076,-7.896918475846635
-0.04870000000000019,-8.027071915434218
-0.04970000000000008,-8.070927965730034
-0.05070000000000019,-8.158640066321666
-0.05170000000000008,-8.202496116617484
-0.05270000000000019,-8.288793505909249
-0.05370000000000008,-8.332649556205066
-0.05470000000000019,-8.4203616567967
-0.05570000000000008,-8.4203616567967
-0.056700000000000195,-8.508073757388331
-0.057700000000000085,-8.55051509638428
-0.058700000000000196,-8.55051509638428
-0.059700000000000086,-8.594371146680096
-0.0607000000000002,-8.638227196975913
-0.06170000000000009,-8.725939297567548
-0.0627000000000002,-8.68208324727173
-0.06370000000000009,-8.725939297567548
-0.0647000000000002,-8.769795347863363
-0.06570000000000009,-8.769795347863363
-0.0667000000000002,-8.769795347863363
-0.0677000000000001,-8.812236686859313
-0.0687000000000002,-8.812236686859313
-0.0697000000000001,-8.85609273715513
-0.07070000000000021,-8.85609273715513
-0.0717000000000001,-8.812236686859313
-0.07270000000000021,-8.85609273715513
-0.0737000000000001,-8.899948787450944
-0.07470000000000021,-8.899948787450944
-0.0757000000000001,-8.899948787450944
-0.07670000000000021,-8.899948787450944
-0.0777000000000001,-8.899948787450944
-0.07870000000000021,-8.899948787450944
-0.0797000000000001,-8.899948787450944
-0.08070000000000022,-8.899948787450944
-0.0817000000000001,-8.899948787450944
-0.08270000000000022,-8.899948787450944
-0.08370000000000011,-8.899948787450944
-0.08470000000000022,-8.899948787450944
-0.08570000000000011,-8.899948787450944
-0.08670000000000022,-8.899948787450944
-0.08770000000000011,-8.85609273715513
-0.08870000000000022,-8.85609273715513
-0.08970000000000011,-8.85609273715513
-0.09070000000000022,-8.85609273715513
-0.09170000000000011,-8.85609273715513
-0.09270000000000023,-8.85609273715513
-0.09370000000000012,-8.812236686859313
-0.09470000000000023,-8.812236686859313
-0.09570000000000012,-8.812236686859313
-0.09670000000000023,-8.769795347863363
-0.09770000000000012,-8.769795347863363
-0.09870000000000023,-8.725939297567548
-0.09970000000000012,-8.725939297567548
-0.10070000000000023,-8.68208324727173
-0.10170000000000012,-8.68208324727173
-0.10270000000000024,-8.725939297567548
-0.10370000000000013,-8.68208324727173
-0.10470000000000024,-8.638227196975913
-0.10570000000000013,-8.638227196975913
-0.10670000000000024,-8.594371146680096
-0.10770000000000013,-8.594371146680096
-0.10870000000000024,-8.55051509638428
-0.10970000000000013,-8.55051509638428
-0.11070000000000024,-8.508073757388331
-0.11170000000000013,-8.464217707092514
-0.11270000000000002,-8.464217707092514
-0.11370000000000013,-8.4203616567967
-0.11470000000000002,-8.4203616567967
-0.11570000000000014,-8.376505606500881
-0.11670000000000003,-8.332649556205066
-0.11770000000000014,-8.332649556205066
-0.11870000000000003,-8.332649556205066
-0.11970000000000014,-8.288793505909249
-0.12070000000000003,-8.288793505909249
-0.12170000000000014,-8.246352166913299
-0.12270000000000003,-8.202496116617484
-0.12370000000000014,-8.202496116617484
-0.12470000000000003,-8.158640066321666
-0.12570000000000014,-8.11478401602585
-0.12670000000000003,-8.11478401602585
-0.12770000000000015,-8.070927965730034
-0.12870000000000004,-8.070927965730034
-0.12970000000000015,-8.027071915434218
-0.13070000000000004,-7.984630576438266
-0.13170000000000015,-7.984630576438266
-0.13270000000000004,-7.984630576438266
-0.13370000000000015,-7.940774526142452
-0.13470000000000004,-7.940774526142452
-0.13570000000000015,-7.896918475846635
-0.13670000000000004,-7.896918475846635
-0.13770000000000016,-7.853062425550818
-0.13870000000000005,-7.809206375255003
-0.13970000000000016,-7.809206375255003
-0.14070000000000005,-7.809206375255003
-0.14170000000000016,-7.7653503249591855
-0.14270000000000005,-7.722908985963235
-0.14370000000000016,-7.722908985963235
-0.14470000000000005,-7.722908985963235
-0.14570000000000016,-7.679052935667419
-0.14670000000000005,-7.679052935667419
-0.14770000000000016,-7.679052935667419
-0.14870000000000005,-7.635196885371603
-0.14970000000000017,-7.635196885371603
-0.15070000000000006,-7.591340835075788
-0.15170000000000017,-7.5474847847799715
-0.15270000000000006,-7.5474847847799715
-0.15370000000000017,-7.5474847847799715
-0.15470000000000006,-7.50504344578402
-0.15570000000000017,-7.50504344578402
-0.15670000000000006,-7.50504344578402
-0.15770000000000017,-7.50504344578402
-0.15870000000000006,-7.461187395488204
-0.15970000000000018,-7.461187395488204
-0.16070000000000007,-7.461187395488204
-0.16170000000000018,-7.4173313451923875
-0.16270000000000007,-7.4173313451923875
-0.16370000000000018,-7.4173313451923875
-0.16470000000000007,-7.4173313451923875
-0.16570000000000018,-7.4173313451923875
-0.16670000000000007,-7.37347529489657
-0.16770000000000018,-7.329619244600755
-0.16870000000000007,-7.37347529489657
-0.16970000000000018,-7.37347529489657
-0.17070000000000007,-7.37347529489657
-0.17170000000000019,-7.329619244600755
-0.17270000000000008,-7.329619244600755
-0.1737000000000002,-7.37347529489657
-0.17470000000000008,-7.329619244600755
-0.1757000000000002,-7.329619244600755
-0.17670000000000008,-7.329619244600755
-0.1777000000000002,-7.28576319430494
-0.17870000000000008,-7.28576319430494
-0.1797000000000002,-7.28576319430494
-0.18070000000000008,-7.28576319430494
-0.1817000000000002,-7.28576319430494
-0.18270000000000008,-7.28576319430494
-0.1837000000000002,-7.28576319430494
-0.1847000000000001,-7.28576319430494
-0.1857000000000002,-7.28576319430494
-0.1867000000000001,-7.28576319430494
-0.1877000000000002,-7.28576319430494
-0.1887000000000001,-7.28576319430494
-0.1897000000000002,-7.28576319430494
-0.1907000000000001,-7.28576319430494
-0.1917000000000001,-7.243321855308987
-0.19269999999999998,-7.28576319430494
-0.1937000000000001,-7.28576319430494
-0.19469999999999998,-7.28576319430494
-0.1957000000000001,-7.28576319430494
-0.19669999999999999,-7.243321855308987
-0.1977000000000001,-7.28576319430494
-0.1987,-7.28576319430494
-0.1997000000000001,-7.28576319430494
-0.2007,-7.329619244600755
-0.2017000000000001,-7.28576319430494
-0.2027,-7.329619244600755
-0.2037000000000001,-7.329619244600755
-0.2047,-7.329619244600755
-0.2057000000000001,-7.329619244600755
-0.2067,-7.37347529489657
-0.2077000000000001,-7.329619244600755
-0.2087,-7.37347529489657
-0.2097000000000001,-7.37347529489657
-0.2107,-7.37347529489657
-0.2117000000000001,-7.4173313451923875
-0.2127,-7.37347529489657
-0.2137000000000001,-7.4173313451923875
-0.2147,-7.4173313451923875
-0.2157000000000001,-7.461187395488204
-0.2167,-7.4173313451923875
-0.21770000000000012,-7.461187395488204
-0.2187,-7.461187395488204
-0.21970000000000012,-7.461187395488204
-0.2207,-7.461187395488204
-0.22170000000000012,-7.461187395488204
-0.2227,-7.50504344578402
-0.22370000000000012,-7.50504344578402
-0.2247,-7.5474847847799715
-0.22570000000000012,-7.50504344578402
-0.2267,-7.5474847847799715
-0.22770000000000012,-7.5474847847799715
-0.22870000000000001,-7.5474847847799715
-0.22970000000000013,-7.591340835075788
-0.23070000000000002,-7.5474847847799715
-0.23170000000000013,-7.591340835075788
-0.23270000000000002,-7.591340835075788
-0.23370000000000013,-7.591340835075788
-0.23470000000000002,-7.635196885371603
-0.23570000000000013,-7.635196885371603
-0.23670000000000002,-7.635196885371603
-0.2376999999999999,-7.679052935667419
-0.23870000000000002,-7.679052935667419
-0.2396999999999999,-7.722908985963235
-0.24070000000000003,-7.722908985963235
-0.24169999999999991,-7.722908985963235
-0.24270000000000003,-7.722908985963235
-0.24369999999999992,-7.7653503249591855
-0.24470000000000003,-7.7653503249591855
-0.24569999999999992,-7.7653503249591855
-0.24670000000000003,-7.809206375255003
-0.24769999999999992,-7.809206375255003
-0.24870000000000003,-7.853062425550818
-0.24969999999999992,-7.853062425550818
-0.25070000000000003,-7.853062425550818
-0.2516999999999999,-7.896918475846635
-0.25270000000000004,-7.896918475846635
-0.2536999999999999,-7.896918475846635
-0.25470000000000004,-7.896918475846635
-0.2556999999999999,-7.940774526142452
-0.25670000000000004,-7.984630576438266
-0.25769999999999993,-7.984630576438266
-0.25870000000000004,-7.984630576438266
-0.25969999999999993,-7.984630576438266
-0.26070000000000004,-7.984630576438266
-0.26169999999999993,-8.027071915434218
-0.26270000000000004,-8.027071915434218
-0.26369999999999993,-8.070927965730034
-0.26470000000000005,-8.11478401602585
-0.26569999999999994,-8.11478401602585
-0.26670000000000005,-8.158640066321666
-0.26769999999999994,-8.158640066321666
-0.26870000000000005,-8.158640066321666
-0.26969999999999994,-8.202496116617484
-0.27070000000000005,-8.158640066321666
-0.27169999999999994,-8.202496116617484
-0.27270000000000005,-8.202496116617484
-0.27369999999999994,-8.246352166913299
-0.27470000000000006,-8.246352166913299
-0.27569999999999995,-8.288793505909249
-0.27670000000000006,-8.288793505909249
-0.27769999999999995,-8.332649556205066
-0.27870000000000006,-8.332649556205066
-0.27969999999999995,-8.376505606500881
-0.28070000000000006,-8.376505606500881
-0.28169999999999995,-8.376505606500881
-0.28270000000000006,-8.376505606500881
-0.28369999999999995,-8.4203616567967
-0.28470000000000006,-8.4203616567967
-0.28569999999999995,-8.464217707092514
-0.28670000000000007,-8.464217707092514
-0.28769999999999996,-8.464217707092514
-0.28870000000000007,-8.508073757388331
-0.28969999999999996,-8.55051509638428
-0.29070000000000007,-8.55051509638428
-0.29169999999999996,-8.55051509638428
-0.29270000000000007,-8.594371146680096
-0.29369999999999996,-8.594371146680096
-0.2947000000000001,-8.594371146680096
-0.29569999999999996,-8.638227196975913
-0.2967000000000001,-8.638227196975913
-0.29769999999999996,-8.638227196975913
-0.2987000000000001,-8.68208324727173
-0.29969999999999997,-8.68208324727173
-0.3007000000000001,-8.68208324727173
-0.30169999999999997,-8.725939297567548
-0.3027000000000001,-8.769795347863363
-0.30369999999999997,-8.769795347863363
-0.3047000000000001,-8.769795347863363
-0.30569999999999997,-8.812236686859313
-0.3067000000000001,-8.812236686859313
-0.3077,-8.85609273715513
-0.3087000000000001,-8.85609273715513
-0.3097,-8.899948787450944
-0.3107000000000001,-8.899948787450944
-0.3117,-8.899948787450944
-0.3127000000000001,-8.899948787450944
-0.3137,-8.943804837746763
-0.3147000000000001,-8.943804837746763
-0.3157,-8.987660888042578
-0.3167000000000001,-8.987660888042578
-0.3177,-9.031516938338395
-0.3187000000000001,-9.073958277334345
-0.3197,-9.073958277334345
-0.3207000000000001,-9.11781432763016
-0.3217,-9.073958277334345
-0.3227000000000001,-9.11781432763016
-0.3237,-9.11781432763016
-0.3247000000000001,-9.161670377925978
-0.3257,-9.205526428221793
-0.3267000000000001,-9.205526428221793
-0.3277,-9.205526428221793
-0.3287000000000001,-9.24938247851761
-0.3297,-9.293238528813426
-0.3307000000000001,-9.293238528813426
-0.3317,-9.335679867809377
-0.3327000000000001,-9.335679867809377
-0.3337,-9.379535918105192
-0.3347000000000001,-9.379535918105192
-0.3357,-9.379535918105192
-0.3367000000000001,-9.423391968401008
-0.3377,-9.423391968401008
-0.3387000000000001,-9.467248018696827
-0.3397,-9.511104068992642
-0.3407000000000001,-9.511104068992642
-0.3417,-9.55496011928846
-0.3427000000000001,-9.59740145828441
-0.3437,-9.641257508580225
-0.3447000000000001,-9.641257508580225
-0.3457,-9.641257508580225
-0.3467000000000001,-9.685113558876042
-0.3477,-9.728969609171857
-0.3487000000000001,-9.728969609171857
-0.3497,-9.772825659467674
-0.3507000000000001,-9.772825659467674
-0.3517,-9.81668170976349
-0.3527000000000001,-9.85912304875944
-0.3537,-9.902979099055257
-0.3547000000000001,-9.902979099055257
-0.3557,-9.946835149351072
-0.35670000000000013,-9.99069119964689
-0.3577,-9.99069119964689
-0.35870000000000013,-10.078403300238522
-0.3597,-10.120844639234473
-0.36070000000000013,-10.164700689530287
-0.3617,-10.164700689530287
-0.3626999999999999,-10.164700689530287
-0.3637,-10.208556739826104
-0.3646999999999999,-10.25241279012192
-0.3657,-10.296268840417738
-0.3666999999999999,-10.340124890713554
-0.3677,-10.382566229709504
-0.3686999999999999,-10.42642228000532
-0.36970000000000003,-10.470278330301136
-0.3706999999999999,-10.514134380596953
-0.37170000000000003,-10.557990430892769
-0.3726999999999999,-10.601846481188586
-0.37370000000000003,-10.644287820184536
-0.3746999999999999,-10.688143870480351
-0.37570000000000003,-10.731999920776168
-0.3766999999999999,-10.775855971071984
-0.37770000000000004,-10.819712021367803
-0.3786999999999999,-10.863568071663616
-0.37970000000000004,-10.906009410659568
-0.3806999999999999,-10.993721511251199
-0.38170000000000004,-11.037577561547016
-0.38269999999999993,-11.081433611842833
-0.38370000000000004,-11.1677310011346
-0.38469999999999993,-11.211587051430415
-0.38570000000000004,-11.255443101726232
-0.38669999999999993,-11.299299152022046
-0.38770000000000004,-11.385596541313816
-0.38869999999999993,-11.42945259160963
-0.38970000000000005,-11.517164692201263
-0.39069999999999994,-11.56102074249708
-0.39170000000000005,-11.604876792792895
-0.39269999999999994,-11.691174182084664
-0.39370000000000005,-11.778886282676295
-0.39469999999999994,-11.82274233297211
-0.39570000000000005,-11.909039722263879
-0.39669999999999994,-11.952895772559694
-0.39770000000000005,-12.040607873151327
-0.39869999999999994,-12.12831997374296
-0.39970000000000006,-12.214617363034726
-0.40069999999999995,-12.302329463626359
-0.40170000000000006,-12.346185513922174
-0.40269999999999995,-12.432482903213943
-0.40370000000000006,-12.476338953509758
-0.40469999999999995,-12.607907104397206
-0.40570000000000006,-12.651763154693022
-0.40669999999999995,-12.781916594280606
-0.40770000000000006,-12.825772644576423
-0.40869999999999995,-12.955926084164007
-0.40970000000000006,-13.043638184755638
-0.41069999999999995,-13.13135028534727
-0.41170000000000007,-13.217647674639037
-0.41269999999999996,-13.349215825526485
-0.41370000000000007,-13.436927926118118
-0.41469999999999996,-13.523225315409885
-0.41570000000000007,-13.610937416001518
-0.41669999999999996,-13.741090855589102
-0.41770000000000007,-13.828802956180734
-0.41869999999999996,-13.916515056772363
-0.4197000000000001,-14.046668496359947
-0.42069999999999996,-14.13438059695158
-0.4217000000000001,-14.26028990263957
-0.42269999999999996,-14.401761032626075
-0.4237000000000001,-14.486643710617974
-0.42469999999999997,-14.61396772760583
-0.4257000000000001,-14.741291744593681
-0.42669999999999997,-14.826174422585586
-0.4277000000000001,-15.01008689156804
-0.42869999999999997,-15.094969569559943
-0.4297000000000001,-15.222293586547794
-0.43069999999999997,-15.349617603535648
-0.4317000000000001,-15.491088733522153
-0.4327,-15.618412750510005
-0.4337000000000001,-15.74573676749786
-0.4347,-15.87306078448571
-0.4357000000000001,-16.056973253468165
-0.4367,-16.141855931460068
-0.4377000000000001,-16.311621287443874
-0.4387,-16.495533756426326
-0.4397000000000001,-16.622857773414182
-0.4407,-16.750181790402035
-0.4417000000000001,-16.919947146385837
-0.4427,-17.061418276372343
-0.4437000000000001,-17.188742293360193
-0.4447,-17.358507649344002
-0.4457000000000001,-17.542420118326454
-0.4467,-17.71218547431026
-0.4477000000000001,-17.839509491298113
-0.4487,-18.009274847281915
-0.4497000000000001,-18.19318731626437
-0.4507,-18.362952672248177
-0.4517000000000001,-18.589306480226583
-0.4527,-18.759071836210385
-0.4537000000000001,-18.92883719219419
-0.4547,-19.112749661176647
-0.4557000000000001,-19.3249563561564
-0.4567,-19.49472171214021
-0.4577000000000001,-19.678634181122664
-0.4587,-19.890840876102416
-0.4597000000000001,-20.06060623208622
-0.4607,-20.244518701068674
-0.4617000000000001,-20.456725396048434
-0.4627,-20.683079204026836
-0.4637000000000001,-20.89528589900659
-0.4647,-21.107492593986347
-0.4657000000000001,-21.333846401964752
-0.4667,-21.54605309694451
-0.4677000000000001,-21.772406904922917
-0.4687,-21.98461359990267
-0.4697000000000001,-22.196820294882425
-0.4707,-22.42317410286083
-0.4717000000000001,-22.67782213683654
-0.4727,-22.904175944814945
-0.4737000000000001,-23.15882397879065
-0.4747,-23.385177786769056
-0.4757000000000001,-23.682267159740714
-0.4767,-23.908620967719123
-0.4777000000000001,-24.120827662698876
-0.4787,-24.389622809673234
-0.4797000000000001,-24.64427084364894
-0.4807,-24.95550732961925
-0.48170000000000013,-25.167714024599
-0.4827,-25.43650917157336
-0.48370000000000013,-25.73359854454502
-0.4847,-25.959952352523427
-0.48570000000000013,-26.257041725495082
-0.4867,-26.525836872469437
-0.4876999999999999,-26.780484906445146
-0.4887,-27.091721392415455
-0.4896999999999999,-27.34636942639116
-0.4907,-27.65760591236147
-0.4916999999999999,-27.954695285333123
-0.4927,-28.265931771303435
-0.4936999999999999,-28.577168257273744
-0.49470000000000003,-28.831816291249446
-0.4956999999999999,-29.14305277721976
-0.49670000000000003,-29.482583489187363
-0.4976999999999999,-29.751378636161718
-0.49870000000000003,-30.04846800913338
-0.4996999999999999,-30.402145834099635
-0.5007,-30.71338232006995
-0.5016999999999999,-31.010471693041605
-0.5027,-31.36414951800786
-0.5036999999999999,-31.717827342974125
-0.5047,-32.05735805494172
-0.5056999999999999,-32.41103587990799
-0.5067,-32.70812525287965
-0.5076999999999999,-33.06180307784591
-0.5087,-33.41548090281216
-0.5096999999999999,-33.755011614779775
-0.5107,-34.10868943974604
-0.5116999999999999,-34.462367264712285
-0.5127,-34.85848642867451
