Potential V vs RHE, Current mA cm-2
0.013299999999999867,-0.1766974413531431
0.012299999999999978,-0.8745745255765657
0.011299999999999866,-1.3543031273607997
0.010299999999999976,-1.7033124050375041
0.009299999999999864,-2.052746096104168
0.008299999999999974,-2.2706116362833835
0.007299999999999862,-2.4884771764625997
0.006299999999999972,-2.662486666345999
0.00529999999999986,-2.794054817233447
0.0042999999999999705,-2.924208256821031
0.0032999999999998586,-3.055776407708479
0.0022999999999999687,-3.1859298472960624
0.0012999999999998568,-3.317497998183511
0.00029999999999996696,-3.403795387475278
-0.000700000000000145,-3.4915074880669104
-0.0017000000000000348,-3.5353635383627267
-0.0027000000000001467,-3.623075638954359
-0.0037000000000000366,-3.6655169779503103
-0.0047000000000001485,-3.7532290785419424
-0.005700000000000038,-3.840941179133574
-0.00670000000000015,-3.884797229429391
-0.00770000000000004,-3.927238568425342
-0.008700000000000152,-3.971094618721158
-0.009700000000000042,-4.0588067193127895
-0.010700000000000154,-4.102662769608606
-0.011700000000000044,-4.102662769608606
-0.012700000000000156,-4.146518819904423
-0.013700000000000045,-4.1889601589003735
-0.014700000000000157,-4.23281620919619
-0.015700000000000047,-4.276672259492005
-0.01670000000000016,-4.3205283097878215
-0.01770000000000005,-4.364384360083638
-0.01870000000000016,-4.406825699079589
-0.01970000000000005,-4.450681749375406
-0.020700000000000163,-4.494537799671222
-0.021700000000000053,-4.494537799671222
-0.022700000000000164,-4.582249900262854
-0.023700000000000054,-4.626105950558669
-0.024700000000000166,-4.668547289554621
-0.025700000000000056,-4.712403339850438
-0.026700000000000168,-4.756259390146253
-0.027700000000000058,-4.800115440442069
-0.02870000000000017,-4.843971490737885
-0.02970000000000006,-4.9302688800296535
-0.03070000000000017,-4.974124930325469
-0.03170000000000006,-5.0618370309171015
-0.03270000000000017,-5.105693081212917
-0.03370000000000006,-5.191990470504685
-0.034700000000000175,-5.279702571096316
-0.035700000000000065,-5.323558621392133
-0.03670000000000018,-5.367414671687949
-0.03770000000000007,-5.453712060979717
-0.03870000000000018,-5.497568111275533
-0.03970000000000007,-5.585280211867165
-0.04070000000000018,-5.672992312458796
-0.04170000000000007,-5.759289701750564
-0.04270000000000018,-5.80314575204638
-0.04370000000000007,-5.847001802342197
-0.044700000000000184,-5.890857852638012
-0.045700000000000074,-5.9347139029338285
-0.046700000000000186,-5.977155241929781
-0.047700000000000076,-6.064867342521412
-0.04870000000000019,-6.108723392817228
-0.04970000000000008,-6.152579443113044
-0.05070000000000019,-6.152579443113044
-0.05170000000000008,-6.196435493408861
-0.05270000000000019,-6.196435493408861
-0.05370000000000008,-6.238876832404812
-0.05470000000000019,-6.238876832404812
-0.05570000000000008,-6.282732882700628
-0.056700000000000195,-6.326588932996443
-0.057700000000000085,-6.326588932996443
-0.058700000000000196,-6.37044498329226
-0.059700000000000086,-6.37044498329226
-0.0607000000000002,-6.326588932996443
-0.06170000000000009,-6.37044498329226
-0.0627000000000002,-6.37044498329226
-0.06370000000000009,-6.37044498329226
-0.0647000000000002,-6.414301033588076
-0.06570000000000009,-6.414301033588076
-0.0667000000000002,-6.414301033588076
-0.0677000000000001,-6.414301033588076
-0.0687000000000002,-6.414301033588076
-0.0697000000000001,-6.414301033588076
-0.07070000000000021,-6.414301033588076
-0.0717000000000001,-6.37044498329226
-0.07270000000000021,-6.414301033588076
-0.0737000000000001,-6.414301033588076
-0.07470000000000021,-6.37044498329226
-0.0757000000000001,-6.414301033588076
-0.07670000000000021,-6.37044498329226
-0.0777000000000001,-6.37044498329226
-0.07870000000000021,-6.37044498329226
-0.0797000000000001,-6.326588932996443
-0.08070000000000022,-6.326588932996443
-0.0817000000000001,-6.326588932996443
-0.08270000000000022,-6.326588932996443
-0.08370000000000011,-6.326588932996443
-0.08470000000000022,-6.282732882700628
-0.08570000000000011,-6.282732882700628
-0.08670000000000022,-6.282732882700628
-0.08770000000000011,-6.282732882700628
-0.08870000000000022,-6.238876832404812
-0.08970000000000011,-6.238876832404812
-0.09070000000000022,-6.238876832404812
-0.09170000000000011,-6.196435493408861
-0.09270000000000023,-6.196435493408861
-0.09370000000000012,-6.152579443113044
-0.09470000000000023,-6.152579443113044
-0.09570000000000012,-6.108723392817228
-0.09670000000000023,-6.108723392817228
-0.09770000000000012,-6.108723392817228
-0.09870000000000023,-6.064867342521412
-0.09970000000000012,-6.064867342521412
-0.10070000000000023,-6.064867342521412
-0.10170000000000012,-6.021011292225596
-0.10270000000000024,-6.021011292225596
-0.10370000000000013,-5.977155241929781
-0.10470000000000024,-5.977155241929781
-0.10570000000000013,-5.977155241929781
-0.10670000000000024,-5.9347139029338285
-0.10770000000000013,-5.9347139029338285
-0.10870000000000024,-5.890857852638012
-0.10970000000000013,-5.847001802342197
-0.11070000000000024,-5.847001802342197
-0.11170000000000013,-5.80314575204638
-0.11270000000000002,-5.80314575204638
-0.11370000000000013,-5.759289701750564
-0.11470000000000002,-5.759289701750564
-0.11570000000000014,-5.759289701750564
-0.11670000000000003,-5.715433651454749
-0.11770000000000014,-5.715433651454749
-0.11870000000000003,-5.672992312458796
-0.11970000000000014,-5.629136262162981
-0.12070000000000003,-5.629136262162981
-0.12170000000000014,-5.585280211867165
-0.12270000000000003,-5.585280211867165
-0.12370000000000014,-5.585280211867165
-0.12470000000000003,-5.585280211867165
-0.12570000000000014,-5.5414241615713475
-0.12670000000000003,-5.497568111275533
-0.12770000000000015,-5.497568111275533
-0.12870000000000004,-5.453712060979717
-0.12970000000000015,-5.453712060979717
-0.13070000000000004,-5.411270721983764
-0.13170000000000015,-5.453712060979717
-0.13270000000000004,-5.411270721983764
-0.13370000000000015,-5.411270721983764
-0.13470000000000004,-5.411270721983764
-0.13570000000000015,-5.367414671687949
-0.13670000000000004,-5.367414671687949
-0.13770000000000016,-5.323558621392133
-0.13870000000000005,-5.323558621392133
-0.13970000000000016,-5.323558621392133
-0.14070000000000005,-5.323558621392133
-0.14170000000000016,-5.279702571096316
-0.14270000000000005,-5.279702571096316
-0.14370000000000016,-5.279702571096316
-0.14470000000000005,-5.235846520800501
-0.14570000000000016,-5.235846520800501
-0.14670000000000005,-5.191990470504685
-0.14770000000000016,-5.191990470504685
-0.14870000000000005,-5.191990470504685
-0.14970000000000017,-5.191990470504685
-0.15070000000000006,-5.191990470504685
-0.15170000000000017,-5.191990470504685
-0.15270000000000006,-5.149549131508733
-0.15370000000000017,-5.149549131508733
-0.15470000000000006,-5.149549131508733
-0.15570000000000017,-5.149549131508733
-0.15670000000000006,-5.149549131508733
-0.15770000000000017,-5.105693081212917
-0.15870000000000006,-5.105693081212917
-0.15970000000000018,-5.105693081212917
-0.16070000000000007,-5.105693081212917
-0.16170000000000018,-5.0618370309171015
-0.16270000000000007,-5.0618370309171015
-0.16370000000000018,-5.105693081212917
-0.16470000000000007,-5.0618370309171015
-0.16570000000000018,-5.105693081212917
-0.16670000000000007,-5.105693081212917
-0.16770000000000018,-5.0618370309171015
-0.16870000000000007,-5.0618370309171015
-0.16970000000000018,-5.0618370309171015
-0.17070000000000007,-5.0618370309171015
-0.17170000000000019,-5.0618370309171015
-0.17270000000000008,-5.0618370309171015
-0.1737000000000002,-5.0618370309171015
-0.17470000000000008,-5.0618370309171015
-0.1757000000000002,-5.0618370309171015
-0.17670000000000008,-5.017980980621284
-0.1777000000000002,-5.0618370309171015
-0.17870000000000008,-5.017980980621284
-0.1797000000000002,-5.0618370309171015
-0.18070000000000008,-5.0618370309171015
-0.1817000000000002,-5.0618370309171015
-0.18270000000000008,-5.0618370309171015
-0.1837000000000002,-5.0618370309171015
-0.1847000000000001,-5.0618370309171015
-0.1857000000000002,-5.0618370309171015
-0.1867000000000001,-5.017980980621284
-0.1877000000000002,-5.0618370309171015
-0.1887000000000001,-5.0618370309171015
-0.1897000000000002,-5.0618370309171015
-0.1907000000000001,-5.0618370309171015
-0.1917000000000001,-5.0618370309171015
-0.19269999999999998,-5.105693081212917
-0.1937000000000001,-5.105693081212917
-0.19469999999999998,-5.0618370309171015
-0.1957000000000001,-5.105693081212917
-0.19669999999999999,-5.0618370309171015
-0.1977000000000001,-5.105693081212917
-0.1987,-5.105693081212917
-0.1997000000000001,-5.105693081212917
-0.2007,-5.149549131508733
-0.2017000000000001,-5.105693081212917
-0.2027,-5.149549131508733
-0.2037000000000001,-5.105693081212917
-0.2047,-5.149549131508733
-0.2057000000000001,-5.149549131508733
-0.2067,-5.149549131508733
-0.2077000000000001,-5.149549131508733
-0.2087,-5.191990470504685
-0.2097000000000001,-5.191990470504685
-0.2107,-5.191990470504685
-0.2117000000000001,-5.191990470504685
-0.2127,-5.191990470504685
-0.2137000000000001,-5.191990470504685
-0.2147,-5.235846520800501
-0.2157000000000001,-5.279702571096316
-0.2167,-5.279702571096316
-0.21770000000000012,-5.279702571096316
-0.2187,-5.279702571096316
-0.21970000000000012,-5.279702571096316
-0.2207,-5.279702571096316
-0.22170000000000012,-5.279702571096316
-0.2227,-5.323558621392133
-0.22370000000000012,-5.323558621392133
-0.2247,-5.367414671687949
-0.22570000000000012,-5.367414671687949
-0.2267,-5.367414671687949
-0.22770000000000012,-5.367414671687949
-0.22870000000000001,-5.367414671687949
-0.22970000000000013,-5.367414671687949
-0.23070000000000002,-5.411270721983764
-0.23170000000000013,-5.411270721983764
-0.23270000000000002,-5.411270721983764
-0.23370000000000013,-5.453712060979717
-0.23470000000000002,-5.453712060979717
-0.23570000000000013,-5.453712060979717
-0.23670000000000002,-5.453712060979717
-0.2376999999999999,-5.497568111275533
-0.23870000000000002,-5.497568111275533
-0.2396999999999999,-5.497568111275533
-0.24070000000000003,-5.5414241615713475
-0.24169999999999991,-5.5414241615713475
-0.24270000000000003,-5.585280211867165
-0.24369999999999992,-5.585280211867165
-0.24470000000000003,-5.585280211867165
-0.24569999999999992,-5.585280211867165
-0.24670000000000003,-5.629136262162981
-0.24769999999999992,-5.629136262162981
-0.24870000000000003,-5.629136262162981
-0.24969999999999992,-5.672992312458796
-0.25070000000000003,-5.672992312458796
-0.2516999999999999,-5.672992312458796
-0.25270000000000004,-5.672992312458796
-0.2536999999999999,-5.672992312458796
-0.25470000000000004,-5.715433651454749
-0.2556999999999999,-5.715433651454749
-0.25670000000000004,-5.759289701750564
-0.25769999999999993,-5.759289701750564
-0.25870000000000004,-5.80314575204638
-0.25969999999999993,-5.80314575204638
-0.26070000000000004,-5.80314575204638
-0.26169999999999993,-5.80314575204638
-0.26270000000000004,-5.847001802342197
-0.26369999999999993,-5.847001802342197
-0.26470000000000005,-5.847001802342197
-0.26569999999999994,-5.890857852638012
-0.26670000000000005,-5.890857852638012
-0.26769999999999994,-5.9347139029338285
-0.26870000000000005,-5.9347139029338285
-0.26969999999999994,-5.9347139029338285
-0.27070000000000005,-5.977155241929781
-0.27169999999999994,-5.977155241929781
-0.27270000000000005,-5.977155241929781
-0.27369999999999994,-6.021011292225596
-0.27470000000000006,-6.021011292225596
-0.27569999999999995,-6.064867342521412
-0.27670000000000006,-6.064867342521412
-0.27769999999999995,-6.064867342521412
-0.27870000000000006,-6.064867342521412
-0.27969999999999995,-6.064867342521412
-0.28070000000000006,-6.108723392817228
-0.28169999999999995,-6.108723392817228
-0.28270000000000006,-6.152579443113044
-0.28369999999999995,-6.152579443113044
-0.28470000000000006,-6.152579443113044
-0.28569999999999995,-6.196435493408861
-0.28670000000000007,-6.196435493408861
-0.28769999999999996,-6.196435493408861
-0.28870000000000007,-6.238876832404812
-0.28969999999999996,-6.238876832404812
-0.29070000000000007,-6.282732882700628
-0.29169999999999996,-6.282732882700628
-0.29270000000000007,-6.282732882700628
-0.29369999999999996,-6.282732882700628
-0.2947000000000001,-6.326588932996443
-0.29569999999999996,-6.326588932996443
-0.2967000000000001,-6.326588932996443
-0.29769999999999996,-6.37044498329226
-0.2987000000000001,-6.37044498329226
-0.29969999999999997,-6.37044498329226
-0.3007000000000001,-6.414301033588076
-0.30169999999999997,-6.414301033588076
-0.3027000000000001,-6.458157083883892
-0.30369999999999997,-6.414301033588076
-0.3047000000000001,-6.458157083883892
-0.30569999999999997,-6.458157083883892
-0.3067000000000001,-6.500598422879844
-0.3077,-6.54445447317566
-0.3087000000000001,-6.54445447317566
-0.3097,-6.54445447317566
-0.3107000000000001,-6.54445447317566
-0.3117,-6.54445447317566
-0.3127000000000001,-6.588310523471475
-0.3137,-6.588310523471475
-0.3147000000000001,-6.588310523471475
-0.3157,-6.632166573767292
-0.3167000000000001,-6.6760226240631075
-0.3177,-6.6760226240631075
-0.3187000000000001,-6.719878674358924
-0.3197,-6.719878674358924
-0.3207000000000001,-6.719878674358924
-0.3217,-6.719878674358924
-0.3227000000000001,-6.762320013354876
-0.3237,-6.762320013354876
-0.3247000000000001,-6.806176063650692
-0.3257,-6.806176063650692
-0.3267000000000001,-6.806176063650692
-0.3277,-6.850032113946507
-0.3287000000000001,-6.850032113946507
-0.3297,-6.893888164242324
-0.3307000000000001,-6.893888164242324
-0.3317,-6.93774421453814
-0.3327000000000001,-6.93774421453814
-0.3337,-6.981600264833956
-0.3347000000000001,-6.981600264833956
-0.3357,-6.981600264833956
-0.3367000000000001,-7.024041603829907
-0.3377,-7.024041603829907
-0.3387000000000001,-7.067897654125724
-0.3397,-7.067897654125724
-0.3407000000000001,-7.111753704421539
-0.3417,-7.111753704421539
-0.3427000000000001,-7.155609754717355
-0.3437,-7.199465805013171
-0.3447000000000001,-7.199465805013171
-0.3457,-7.243321855308987
-0.3467000000000001,-7.243321855308987
-0.3477,-7.28576319430494
-0.3487000000000001,-7.28576319430494
-0.3497,-7.329619244600755
-0.3507000000000001,-7.37347529489657
-0.3517,-7.37347529489657
-0.3527000000000001,-7.4173313451923875
-0.3537,-7.4173313451923875
-0.3547000000000001,-7.461187395488204
-0.3557,-7.50504344578402
-0.35670000000000013,-7.5474847847799715
-0.3577,-7.5474847847799715
-0.35870000000000013,-7.635196885371603
-0.3597,-7.635196885371603
-0.36070000000000013,-7.679052935667419
-0.3617,-7.679052935667419
-0.3626999999999999,-7.722908985963235
-0.3637,-7.7653503249591855
-0.3646999999999999,-7.809206375255003
-0.3657,-7.853062425550818
-0.3666999999999999,-7.896918475846635
-0.3677,-7.940774526142452
-0.3686999999999999,-7.984630576438266
-0.36970000000000003,-7.984630576438266
-0.3706999999999999,-8.027071915434218
-0.37170000000000003,-8.070927965730034
-0.3726999999999999,-8.158640066321666
-0.37370000000000003,-8.158640066321666
-0.3746999999999999,-8.202496116617484
-0.37570000000000003,-8.288793505909249
-0.3766999999999999,-8.332649556205066
-0.37770000000000004,-8.376505606500881
-0.3786999999999999,-8.376505606500881
-0.37970000000000004,-8.464217707092514
-0.3806999999999999,-8.508073757388331
-0.38170000000000004,-8.55051509638428
-0.38269999999999993,-8.638227196975913
-0.38370000000000004,-8.68208324727173
-0.38469999999999993,-8.725939297567548
-0.38570000000000004,-8.812236686859313
-0.38669999999999993,-8.85609273715513
-0.38770000000000004,-8.899948787450944
-0.38869999999999993,-8.987660888042578
-0.38970000000000005,-9.031516938338395
-0.39069999999999994,-9.11781432763016
-0.39170000000000005,-9.161670377925978
-0.39269999999999994,-9.24938247851761
-0.39370000000000005,-9.293238528813426
-0.39469999999999994,-9.379535918105192
-0.39570000000000005,-9.467248018696827
-0.39669999999999994,-9.511104068992642
-0.39770000000000005,-9.59740145828441
-0.39869999999999994,-9.685113558876042
-0.39970000000000006,-9.772825659467674
-0.40069999999999995,-9.85912304875944
-0.40170000000000006,-9.902979099055257
-0.40269999999999995,-9.99069119964689
-0.40370000000000006,-10.078403300238522
-0.40469999999999995,-10.164700689530287
-0.40570000000000006,-10.25241279012192
-0.40669999999999995,-10.340124890713554
-0.40770000000000006,-10.42642228000532
-0.40869999999999995,-10.514134380596953
-0.40970000000000006,-10.644287820184536
-0.41069999999999995,-10.731999920776168
-0.41170000000000007,-10.819712021367803
-0.41269999999999996,-10.906009410659568
-0.41370000000000007,-10.993721511251199
-0.41469999999999996,-11.123874950838783
-0.41570000000000007,-11.211587051430415
-0.41669999999999996,-11.343155202317865
-0.41770000000000007,-11.42945259160963
-0.41869999999999996,-11.56102074249708
-0.4197000000000001,-11.647318131788847
-0.42069999999999996,-11.778886282676295
-0.4217000000000001,-11.86659838326793
-0.42269999999999996,-11.996751822855511
-0.4237000000000001,-12.170761312738911
-0.42469999999999997,-12.258473413330542
-0.4257000000000001,-12.390041564217992
-0.42669999999999997,-12.520195003805576
-0.4277000000000001,-12.651763154693022
-0.42869999999999997,-12.73806054398479
-0.4297000000000001,-12.913484745168056
-0.43069999999999997,-13.043638184755638
-0.4317000000000001,-13.175206335643086
-0.4327,-13.30535977523067
-0.4337000000000001,-13.47936926511407
-0.4347,-13.610937416001518
-0.4357000000000001,-13.741090855589102
-0.4367,-13.872659006476551
-0.4377000000000001,-14.046668496359947
-0.4387,-14.175407224647667
-0.4397000000000001,-14.345172580631472
-0.4407,-14.529085049613924
-0.4417000000000001,-14.65640906660178
-0.4427,-14.826174422585586
-0.4437000000000001,-15.01008689156804
-0.4447,-15.137410908555893
-0.4457000000000001,-15.307176264539699
-0.4467,-15.491088733522153
-0.4477000000000001,-15.660854089505953
-0.4487,-15.87306078448571
-0.4497000000000001,-16.056973253468165
-0.4507,-16.22673860945197
-0.4517000000000001,-16.396503965435777
-0.4527,-16.580416434418233
-0.4537000000000001,-16.750181790402035
-0.4547,-16.962388485381787
-0.4557000000000001,-17.146300954364243
-0.4567,-17.358507649344002
-0.4577000000000001,-17.542420118326454
-0.4587,-17.75462681330621
-0.4597000000000001,-17.966833508285966
-0.4607,-18.19318731626437
-0.4617000000000001,-18.362952672248177
-0.4627,-18.589306480226583
-0.4637000000000001,-18.80151317520634
-0.4647,-19.01371987018609
-0.4657000000000001,-19.28251501716045
-0.4667,-19.452280373144255
-0.4677000000000001,-19.721075520118614
-0.4687,-19.93328221509837
-0.4697000000000001,-20.159636023076775
-0.4707,-20.414284057052477
-0.4717000000000001,-20.626490752032236
-0.4727,-20.89528589900659
-0.4737000000000001,-21.149933932982297
-0.4747,-21.376287740960702
-0.4757000000000001,-21.63093577493641
-0.4767,-21.899730921910766
-0.4777000000000001,-22.15437895588647
-0.4787,-22.38073276386488
-0.4797000000000001,-22.67782213683654
-0.4807,-22.946617283810895
-0.48170000000000013,-23.2012653177866
-0.4827,-23.51250180375691
-0.48370000000000013,-23.767149837732617
-0.4847,-24.035944984706973
-0.48570000000000013,-24.34718147067728
-0.4867,-24.601829504652986
-0.4876999999999999,-24.870624651627345
-0.4887,-25.167714024599
-0.4896999999999999,-25.478950510569312
-0.4907,-25.77603988354097
-0.4916999999999999,-26.087276369511276
-0.4927,-26.38436574248293
-0.4936999999999999,-26.65316088945729
-0.49470000000000003,-27.00683871442355
-0.4956999999999999,-27.303928087395207
-0.49670000000000003,-27.615164573365515
-0.4976999999999999,-27.954695285333123
-0.49870000000000003,-28.265931771303435
-0.4996999999999999,-28.619609596269694
-0.5007,-28.91669896924135
-0.5016999999999999,-29.27037679420761
-0.5027,-29.581613280177915
-0.5036999999999999,-29.921143992145527
-0.5047,-30.274821817111786
-0.5056999999999999,-30.614352529079397
-0.5067,-30.968030354045652
-0.5076999999999999,-31.321708179011907
-0.5087,-31.661238890979522
-0.5096999999999999,-32.05735805494172
-0.5107,-32.41103587990799
-0.5116999999999999,-32.764713704874254
