Potential V vs RHE, Current mA cm-2
0.4132999999999999,-0.002573359854454502
0.4122999999999999,-0.014812027309586936
0.4112999999999999,-0.021319699288966102
0.4102999999999999,-0.025747745657543668
0.4092999999999999,-0.029383553698196813
0.4082999999999999,-0.03235444742791339
0.4072999999999999,-0.03507069312365426
0.4062999999999999,-0.03753229078541943
0.4052999999999999,-0.039795828865203484
0.4042999999999999,-0.04204521983198889
0.4032999999999999,-0.04408240410379454
0.4022999999999999,-0.046147882601597495
0.4012999999999999,-0.04812847842140855
0.4002999999999999,-0.04998175022423174
0.3992999999999999,-0.0518491691400536
0.3982999999999999,-0.05360341115188624
0.3972999999999999,-0.05517374069473643
0.3962999999999999,-0.056800658689581215
0.3952999999999999,-0.05825781132844222
0.3942999999999999,-0.059757405306299145
0.39329999999999987,-0.06124285217115744
0.39229999999999987,-0.06278488748801032
0.39129999999999987,-0.06446839393484971
0.39029999999999987,-0.06606701770369722
0.38929999999999987,-0.06776467126353526
0.38829999999999987,-0.0693491479193841
0.38729999999999987,-0.07082044767124374
0.38629999999999987,-0.07240492432709257
0.38529999999999986,-0.07396110675694412
0.38429999999999986,-0.07551728918679566
0.38329999999999986,-0.0770734716166472
0.38229999999999986,-0.07853062425550819
0.38129999999999986,-0.08011510091135703
0.38029999999999986,-0.08178446024519778
0.37929999999999986,-0.08343967246603987
0.37829999999999986,-0.0850807375738833
0.37729999999999986,-0.0867359497947254
0.37629999999999986,-0.08836286778957018
0.37529999999999986,-0.09013125691440148
0.37429999999999986,-0.09182891047423952
0.37329999999999985,-0.09345582846908432
0.37229999999999985,-0.09505445223793182
0.37129999999999985,-0.096624781780782
0.37029999999999985,-0.09827999400162409
0.36929999999999985,-0.09989276488347024
0.36829999999999985,-0.10143480020032314
0.36729999999999985,-0.10310415953416388
0.36629999999999985,-0.10477351886800461
0.36529999999999985,-0.10661264355782916
0.36429999999999985,-0.10846591536065237
0.36329999999999985,-0.11022015737248501
0.36229999999999984,-0.11186122248032847
0.36129999999999984,-0.11348814047517325
0.36029999999999984,-0.11511505847001803
0.35929999999999984,-0.11686930048185068
0.35829999999999984,-0.11845377713769951
0.35729999999999984,-0.12005240090654701
0.35629999999999984,-0.1216793189013918
0.35529999999999984,-0.12340526668722714
0.35429999999999984,-0.12528683271604765
0.35329999999999984,-0.12722498719686276
0.35229999999999984,-0.12895093498269808
0.35129999999999983,-0.13059200009054156
0.35029999999999983,-0.1322896536503796
0.34929999999999983,-0.13398730721021762
0.34829999999999983,-0.13551519541407187
0.34729999999999983,-0.1369582009399342
0.34629999999999983,-0.1384153535787952
0.34529999999999983,-0.14009886002563457
0.34429999999999983,-0.14161260111649018
0.3432999999999998,-0.1434517258063147
0.3422999999999998,-0.14500790823616627
0.3412999999999998,-0.1465640906660178
0.3402999999999998,-0.14826174422585583
0.3392999999999998,-0.1496764555257209
0.3382999999999998,-0.1512326379555724
0.3372999999999998,-0.15278882038542396
0.3362999999999998,-0.1543450028152755
0.3352999999999998,-0.15575971411514053
0.3342999999999998,-0.15731589654499206
0.3332999999999998,-0.1588720789748436
0.3322999999999998,-0.16042826140469515
0.3312999999999998,-0.1619844438345467
0.3302999999999998,-0.16368209739438472
0.3292999999999998,-0.16537975095422278
0.3282999999999998,-0.1669359333840743
0.3272999999999998,-0.16849211581392587
0.3262999999999998,-0.16990682711379093
0.3252999999999999,-0.17103859615368294
0.3242999999999999,-0.17245330745354798
0.3232999999999999,-0.173868018753413
0.3222999999999999,-0.17528273005327805
0.3212999999999999,-0.1766974413531431
0.3202999999999999,-0.17811215265300812
0.3192999999999999,-0.17980980621284617
0.3182999999999999,-0.18136598864269768
0.3172999999999999,-0.18278069994256274
0.3162999999999999,-0.1843368823724143
0.3152999999999999,-0.1857515936722793
0.3142999999999999,-0.18702483384215784
0.3132999999999999,-0.18829807401203638
0.3122999999999999,-0.18971278531190142
0.3112999999999999,-0.19098602548177993
0.3102999999999999,-0.192400736781645
0.3092999999999999,-0.19381544808151
0.3082999999999999,-0.19523015938137506
0.3072999999999999,-0.1970692840711996
0.3062999999999999,-0.19834252424107812
0.3052999999999999,-0.19947429328097016
0.3042999999999999,-0.2007475334508487
0.3032999999999999,-0.20202077362072723
0.3022999999999999,-0.20315254266061927
0.3012999999999999,-0.20428431170051128
0.3002999999999999,-0.20555755187038985
0.2992999999999999,-0.20683079204026839
0.2982999999999999,-0.2081040322101469
0.2972999999999999,-0.20937727238002546
0.2962999999999999,-0.21093345480987696
0.2952999999999999,-0.21234816610974203
0.2942999999999999,-0.21362140627962053
0.2932999999999999,-0.21475317531951257
0.2922999999999999,-0.2157434732294181
0.2912999999999999,-0.21687524226931013
0.2902999999999999,-0.21800701130920216
0.2892999999999999,-0.21913878034909418
0.2882999999999999,-0.22012907825899972
0.2872999999999999,-0.22111937616890526
0.2862999999999999,-0.22239261633878374
0.2852999999999999,-0.22366585650866228
0.2842999999999999,-0.2250805678085273
0.2832999999999999,-0.22621233684841938
0.2822999999999999,-0.22720263475832486
0.2812999999999999,-0.22833440379821693
0.2802999999999999,-0.2293247017081224
0.2792999999999999,-0.23045647074801448
0.2782999999999999,-0.23144676865792
0.2772999999999999,-0.23229559543783898
0.2762999999999999,-0.23328589334774452
0.2752999999999999,-0.23413472012766354
0.2742999999999999,-0.23526648916755558
0.2732999999999999,-0.23639825820744764
0.2722999999999999,-0.23767149837732615
0.2712999999999999,-0.2389447385472047
0.2702999999999999,-0.24007650758709673
0.2692999999999999,-0.24092533436701574
0.26829999999999987,-0.24191563227692126
0.26729999999999987,-0.24276445905684027
0.26629999999999987,-0.2437547569667458
0.26529999999999987,-0.2446035837466648
0.26429999999999987,-0.24531093939659734
0.26329999999999987,-0.24615976617651636
0.26229999999999987,-0.24700859295643537
0.26129999999999987,-0.24814036199632744
0.26029999999999986,-0.24969654442617895
0.25929999999999986,-0.25068684233608446
0.25829999999999986,-0.2515356691160035
0.25729999999999986,-0.252243024765936
0.25629999999999986,-0.25295038041586854
0.25529999999999986,-0.2535162649358146
0.25429999999999986,-0.25422362058574705
0.25329999999999986,-0.25507244736566614
0.25229999999999986,-0.25592127414558513
0.25129999999999986,-0.25691157205549064
0.25029999999999986,-0.25790186996539616
0.24929999999999986,-0.2586092256153287
0.24829999999999985,-0.25931658126526125
0.24729999999999985,-0.25988246578520724
0.24629999999999985,-0.26044835030515323
0.24529999999999985,-0.2611557059550858
0.24429999999999985,-0.2618630616050183
0.24329999999999985,-0.2622874749949778
0.24229999999999985,-0.2628533595149239
0.24129999999999985,-0.2637021862948429
0.24029999999999985,-0.26455101307476186
0.23929999999999985,-0.2653998398546809
0.23829999999999985,-0.2662486666345999
0.23729999999999984,-0.26681455115454594
0.23629999999999984,-0.26738043567449193
0.23529999999999984,-0.267946320194438
0.23429999999999984,-0.2686536758443705
0.23329999999999984,-0.2692195603643165
0.23229999999999984,-0.269643973754276
0.23129999999999984,-0.270209858274222
0.23029999999999984,-0.27077574279416805
0.22929999999999984,-0.27134162731411404
0.22829999999999984,-0.27204898296404656
0.22729999999999984,-0.2724733963540061
0.22629999999999983,-0.2731807520039386
0.22529999999999983,-0.2740295787838576
0.22429999999999983,-0.27473693443379016
0.22329999999999983,-0.2754442900837227
0.22229999999999983,-0.27615164573365514
0.22129999999999983,-0.2767175302536012
0.22029999999999983,-0.2772834147735472
0.21929999999999983,-0.27784929929349317
0.21829999999999983,-0.27827371268345275
0.21729999999999983,-0.27869812607341227
0.21629999999999983,-0.27912253946337173
0.21529999999999982,-0.27982989511330425
0.21429999999999982,-0.2806787218932233
0.21329999999999982,-0.2813860775431558
0.21229999999999982,-0.2819519620631018
0.21129999999999982,-0.28223490432307485
0.21029999999999982,-0.28251784658304785
0.20929999999999982,-0.28308373110299384
0.20829999999999982,-0.28350814449295336
0.20729999999999982,-0.2839325578829129
0.20629999999999982,-0.2842155001428859
0.20529999999999982,-0.28478138466283187
0.20429999999999982,-0.2856302114427509
0.20329999999999981,-0.2866205093526564
0.2022999999999998,-0.28732786500258894
0.2012999999999998,-0.28775227839254847
0.20029999999999992,-0.288176691782508
0.19929999999999992,-0.2886011051724675
0.19829999999999992,-0.289025518562427
0.19729999999999992,-0.28930846082239997
0.19629999999999992,-0.28959140308237297
0.19529999999999992,-0.29001581647233254
0.19429999999999992,-0.29086464325225153
0.19329999999999992,-0.2915719989021841
0.19229999999999992,-0.29199641229214357
0.19129999999999991,-0.29256229681208956
0.1902999999999999,-0.2932696524620221
0.1892999999999999,-0.2938355369819681
0.1882999999999999,-0.2944014215019141
0.1872999999999999,-0.2946843637618871
0.1862999999999999,-0.29510877715184664
0.1852999999999999,-0.2956746616717927
0.1842999999999999,-0.2960990750617522
0.1832999999999999,-0.2966649595816982
0.1822999999999999,-0.2972308441016442
0.1812999999999999,-0.29779672862159023
0.1802999999999999,-0.29878702653149575
0.1792999999999999,-0.29977732444140126
0.1782999999999999,-0.3006261512213203
0.1772999999999999,-0.30105056461127977
0.1762999999999999,-0.3016164491312258
0.1752999999999999,-0.3021823336511718
0.1742999999999999,-0.3024652759111448
0.1732999999999999,-0.3028896893011043
0.1722999999999999,-0.3031726315610774
0.1712999999999999,-0.3035970449510369
0.1702999999999999,-0.30458734286094236
0.1692999999999999,-0.30529469851087493
0.1682999999999999,-0.30571911190083445
0.1672999999999999,-0.3064264675507669
0.1662999999999999,-0.3067094098107399
0.1652999999999999,-0.30727529433068596
0.1642999999999999,-0.30784117885063195
0.1632999999999999,-0.30826559224059147
0.1622999999999999,-0.30854853450056446
0.1612999999999999,-0.3091144190205105
0.1602999999999999,-0.3096803035404565
0.1592999999999999,-0.3102461880604025
0.15829999999999989,-0.3108120725803486
0.15729999999999988,-0.31151942823028106
0.15629999999999988,-0.31236825501020005
0.15529999999999988,-0.31293413953014615
0.15429999999999988,-0.3136414951800786
0.15329999999999988,-0.3142073797000246
0.15229999999999988,-0.31477326421997065
0.15129999999999988,-0.31519767760993017
0.15029999999999988,-0.31576356212987616
0.14929999999999988,-0.3161879755198357
0.14829999999999988,-0.3166123889097952
0.14729999999999988,-0.3171782734297412
0.14629999999999987,-0.31802710020966024
0.14529999999999987,-0.31901739811956575
0.14429999999999987,-0.32000769602947127
0.14329999999999987,-0.3205735805494173
0.14229999999999987,-0.3211394650693633
0.14129999999999987,-0.3215638784593228
0.14029999999999987,-0.3219882918492823
0.13929999999999987,-0.32255417636922834
0.13829999999999987,-0.32326153201916086
0.13729999999999987,-0.3236859454091204
0.13629999999999987,-0.32425182992906637
0.13529999999999986,-0.3249591855789989
0.13429999999999986,-0.3256665412289314
0.13329999999999986,-0.32651536800885045
0.13229999999999986,-0.32722272365878297
0.13129999999999986,-0.32778860817872896
0.13029999999999986,-0.32849596382866153
0.12929999999999986,-0.328920377218621
0.12829999999999986,-0.32948626173856704
0.12729999999999986,-0.33019361738849956
0.12629999999999986,-0.33075950190844555
0.12529999999999986,-0.3311839152984051
0.12429999999999986,-0.3318912709483376
0.12329999999999985,-0.33259862659827016
0.12229999999999985,-0.33344745337818915
0.12129999999999985,-0.3344377512880947
0.12029999999999985,-0.3354280491980002
0.11929999999999985,-0.3362768759779193
0.11829999999999985,-0.33670128936787874
0.11729999999999985,-0.33726717388782473
0.11629999999999985,-0.33811600066774383
0.11529999999999985,-0.3386818851876898
0.11429999999999985,-0.3392477697076358
0.11329999999999985,-0.34009659648755486
0.11229999999999984,-0.3408039521374874
0.11129999999999984,-0.3416527789174064
0.11029999999999984,-0.3426430768273119
0.10929999999999984,-0.34363337473721745
0.10829999999999984,-0.34462367264712296
0.10729999999999984,-0.3453310282970554
0.10629999999999984,-0.346038383946988
0.10529999999999984,-0.3467457395969205
0.10429999999999984,-0.347453095246853
0.10329999999999984,-0.34816045089678554
0.10229999999999984,-0.34872633541673154
0.10129999999999983,-0.3492922199366776
0.10029999999999983,-0.3502825178465831
0.09929999999999983,-0.3511313446265021
0.09829999999999983,-0.35212164253640765
0.09729999999999983,-0.3528289981863401
0.09629999999999983,-0.3536778249662592
0.09529999999999983,-0.3545266517461782
0.09429999999999983,-0.3552340073961107
0.09329999999999983,-0.35608283417602976
0.09229999999999983,-0.3567901898259622
0.09129999999999983,-0.3574975454758948
0.09029999999999982,-0.3583463722558138
0.08929999999999982,-0.35933667016571935
0.08829999999999982,-0.3603269680756248
0.08729999999999982,-0.3613172659855304
0.08629999999999982,-0.36244903502542236
0.08529999999999982,-0.36358080406531446
0.08429999999999982,-0.3645711019752199
0.08329999999999982,-0.365702871015112
0.08229999999999982,-0.366551697795031
0.08129999999999982,-0.36740052457495004
0.08029999999999982,-0.368249351354869
0.07929999999999982,-0.3692396492647746
0.07829999999999981,-0.37022994717468005
0.07729999999999981,-0.37136171621457215
0.07629999999999981,-0.3723520141244776
0.07529999999999992,-0.3734837831643697
0.07429999999999992,-0.37461555220426174
0.07329999999999992,-0.3757473212441537
0.07229999999999992,-0.3770205614140323
0.07129999999999992,-0.37829380158391085
0.07029999999999992,-0.3792840994938163
0.06929999999999992,-0.3802743974037219
0.06829999999999992,-0.38140616644361386
0.06729999999999992,-0.3823964643535194
0.06629999999999991,-0.38366970452339794
0.06529999999999991,-0.38494294469327645
0.06429999999999991,-0.385933242603182
0.06329999999999991,-0.3872064827730605
0.06229999999999991,-0.38833825181295256
0.06129999999999991,-0.38961149198283107
0.06029999999999991,-0.3907432610227231
0.05929999999999991,-0.3920165011926017
0.05829999999999991,-0.3932897413624802
0.05729999999999991,-0.3941385681423992
0.056299999999999906,-0.3949873949223182
0.055299999999999905,-0.39611916396221025
0.054299999999999904,-0.39710946187211577
0.0532999999999999,-0.39809975978202133
0.0522999999999999,-0.3992315288219133
0.0512999999999999,-0.40022182673181883
0.0502999999999999,-0.4016365380316839
0.0492999999999999,-0.4027683070715759
0.0482999999999999,-0.40404154724145447
0.0472999999999999,-0.4051733162813465
0.0462999999999999,-0.406163614191252
0.045299999999999896,-0.40701244097117106
0.044299999999999895,-0.4078612677510901
0.043299999999999894,-0.4084271522710361
0.04229999999999989,-0.40927597905095514
0.04129999999999989,-0.40998333470088766
0.04029999999999989,-0.41083216148080665
0.03929999999999989,-0.4119639305206987
0.03829999999999989,-0.41295422843060425
0.03729999999999989,-0.41408599747049624
0.03629999999999989,-0.41465188199044223
0.03529999999999989,-0.4149348242504153
0.034299999999999886,-0.4153592376403748
0.033299999999999885,-0.4157836510303343
0.032299999999999884,-0.4162080644202938
0.031299999999999883,-0.4164910066802668
0.030299999999999883,-0.41691542007022636
0.02929999999999988,-0.41748130459017235
0.02829999999999988,-0.41804718911011834
0.02729999999999988,-0.41847160250007787
0.02629999999999988,-0.4187545447600509
0.025299999999999878,-0.4190374870200239
0.024299999999999877,-0.4196033715399699
0.023299999999999876,-0.4198863137999429
0.022299999999999875,-0.4198863137999429
0.021299999999999875,-0.4198863137999429
0.020299999999999874,-0.42002778492992937
0.019299999999999873,-0.42002778492992937
0.018299999999999872,-0.4201692560599159
0.01729999999999987,-0.4201692560599159
0.01629999999999987,-0.4201692560599159
0.01529999999999987,-0.4204521983198889
0.014299999999999868,-0.4205936694498755
0.013299999999999867,-0.42031072718990237
0.012299999999999978,-0.42031072718990237
0.011299999999999866,-0.42031072718990237
0.010299999999999976,-0.42031072718990237
0.009299999999999864,-0.4204521983198889
0.008299999999999974,-0.4204521983198889
0.007299999999999862,-0.4204521983198889
0.006299999999999972,-0.42031072718990237
0.00529999999999986,-0.42031072718990237
0.0042999999999999705,-0.4201692560599159
0.0032999999999998586,-0.42002778492992937
0.0022999999999999687,-0.4198863137999429
0.0012999999999998568,-0.4194619004099834
0.00029999999999996696,-0.4194619004099834
-0.000700000000000145,-0.4193204292799969
-0.0017000000000000348,-0.4190374870200239
-0.0027000000000001467,-0.4190374870200239
-0.0037000000000000366,-0.4193204292799969
-0.0047000000000001485,-0.4194619004099834
-0.005700000000000038,-0.4193204292799969
-0.00670000000000015,-0.4194619004099834
-0.00770000000000004,-0.4193204292799969
-0.008700000000000152,-0.4190374870200239
-0.009700000000000042,-0.4188960158900374
-0.010700000000000154,-0.4186130736300644
-0.011700000000000044,-0.4186130736300644
-0.012700000000000156,-0.4186130736300644
-0.013700000000000045,-0.41833013137009134
-0.014700000000000157,-0.41833013137009134
-0.015700000000000047,-0.4188960158900374
-0.01670000000000016,-0.4191789581500104
-0.01770000000000005,-0.4193204292799969
-0.01870000000000016,-0.4194619004099834
-0.01970000000000005,-0.4197448426699564
-0.020700000000000163,-0.4196033715399699
-0.021700000000000053,-0.4197448426699564
-0.022700000000000164,-0.4201692560599159
-0.023700000000000054,-0.42031072718990237
-0.024700000000000166,-0.4201692560599159
-0.025700000000000056,-0.42031072718990237
-0.026700000000000168,-0.42087661170984847
-0.027700000000000058,-0.42144249622979446
-0.02870000000000017,-0.4221498518797269
-0.02970000000000006,-0.4225742652696865
-0.03070000000000017,-0.4231401497896325
-0.03170000000000006,-0.4237060343095785
-0.03270000000000017,-0.4245548610894975
-0.03370000000000006,-0.4251207456094435
-0.034700000000000175,-0.42582810125937604
-0.035700000000000065,-0.4266769280392951
-0.03670000000000018,-0.42752575481921407
-0.03770000000000007,-0.42837458159913316
-0.03870000000000018,-0.4293648795090386
-0.03970000000000007,-0.4309210619388902
-0.04070000000000018,-0.4321943021087687
-0.04170000000000007,-0.4336090134086337
-0.04270000000000018,-0.43516519583848523
-0.04370000000000007,-0.43672137826833685
-0.044700000000000184,-0.43827756069818835
-0.045700000000000074,-0.44039962764798596
-0.046700000000000186,-0.442097281207824
-0.047700000000000076,-0.4442193481576215
-0.04870000000000019,-0.44662435736739203
-0.04970000000000008,-0.44931230883713563
-0.05070000000000019,-0.4522832025668522
-0.05170000000000008,-0.4556785096865283
-0.05270000000000019,-0.45879087454623135
-0.05370000000000008,-0.46232765279589394
-0.05470000000000019,-0.46600590217554305
-0.05570000000000008,-0.47010856494515163
-0.056700000000000195,-0.47435269884474673
-0.057700000000000085,-0.4787383038743284
-0.058700000000000196,-0.4832653800338965
-0.059700000000000086,-0.48835834071341067
-0.0607000000000002,-0.49401718591287075
-0.06170000000000009,-0.5001004445022904
-0.0627000000000002,-0.5064666453516832
-0.06370000000000009,-0.5132572595910353
-0.0647000000000002,-0.52075522948032
-0.06570000000000009,-0.5285361416295777
-0.0667000000000002,-0.5365999960388084
-0.0677000000000001,-0.5452297349679852
-0.0687000000000002,-0.5537180027671754
-0.0697000000000001,-0.5631965684762711
-0.07070000000000021,-0.5732410187053129
-0.0717000000000001,-0.5839928245842871
-0.07270000000000021,-0.5950275727232345
-0.0737000000000001,-0.6066282053821278
-0.07470000000000021,-0.6189361936909535
-0.0757000000000001,-0.6322344799096848
-0.07670000000000021,-0.6459571795183757
-0.0777000000000001,-0.6603872347769991
