Potential V vs RHE, Current mA cm-2
0.013299999999999867,-0.8099222191727334
0.012299999999999978,-3.1038765919038904
0.011299999999999866,-4.655814887855835
0.010299999999999976,-5.735239609652858
0.009299999999999864,-6.54728389577539
0.008299999999999974,-7.165512733816411
0.007299999999999862,-7.70734716166472
0.006299999999999972,-8.178446024519777
0.00529999999999986,-8.512317891287925
0.0042999999999999705,-8.795260151260933
0.0032999999999998586,-9.065470009535154
0.0022999999999999687,-9.344168135608566
0.0012999999999998568,-9.60306030348387
0.00029999999999996696,-9.772825659467674
-0.000700000000000145,-9.925614479853097
-0.0017000000000000348,-10.08689156803771
-0.0027000000000001467,-10.256656924021515
-0.0037000000000000366,-10.425007568705455
-0.0047000000000001485,-10.526866782295738
-0.005700000000000038,-10.60892003768791
-0.00670000000000015,-10.747561745074684
-0.00770000000000004,-10.900350565460107
-0.008700000000000152,-11.064457076244452
-0.009700000000000042,-11.154998599435814
-0.010700000000000154,-11.265346080825287
-0.011700000000000044,-11.35588760401665
-0.012700000000000156,-11.500188156602883
-0.013700000000000045,-11.628926884890602
-0.014700000000000157,-11.740689077579939
-0.015700000000000047,-11.795862818274676
-0.01670000000000016,-11.900551454464688
-0.01770000000000005,-12.049096140950518
-0.01870000000000016,-12.167931890139181
-0.01970000000000005,-12.306573597525954
-0.020700000000000163,-12.391456275517855
-0.021700000000000053,-12.511706736006385
-0.022700000000000164,-12.648933732093294
-0.023700000000000054,-12.776257749081147
-0.024700000000000166,-12.888019941770485
-0.025700000000000056,-12.978561464961846
-0.026700000000000168,-13.070517699453074
-0.027700000000000058,-13.211988829439576
-0.02870000000000017,-13.370436495024462
-0.02970000000000006,-13.49351637811272
-0.03070000000000017,-13.589716746503543
-0.03170000000000006,-13.705723073092477
-0.03270000000000017,-13.882561985575606
-0.03370000000000006,-14.05798618675887
-0.034700000000000175,-14.161260111649016
-0.035700000000000065,-14.231995676642269
-0.03670000000000018,-14.359319693630123
-0.03770000000000007,-14.472496597619326
-0.03870000000000018,-14.642261953603128
-0.03970000000000007,-14.755438857592333
-0.04070000000000018,-14.896909987578834
-0.04170000000000007,-15.01008689156804
-0.04270000000000018,-15.179852247551842
-0.04370000000000007,-15.349617603535648
-0.044700000000000184,-15.4769416205235
-0.045700000000000074,-15.575971411514052
-0.046700000000000186,-15.717442541500558
-0.047700000000000076,-15.858913671487063
-0.04870000000000019,-16.014531914472215
-0.04970000000000008,-16.15600304445872
-0.05070000000000019,-16.25503283544927
-0.05170000000000008,-16.410651078434423
-0.05270000000000019,-16.59456354741688
-0.05370000000000008,-16.806770242396635
-0.05470000000000019,-16.97653559838044
-0.05570000000000008,-17.061418276372343
-0.056700000000000195,-17.2453307453548
-0.057700000000000085,-17.40094898833995
-0.058700000000000196,-17.570714344323754
-0.059700000000000086,-17.627302796318357
-0.0607000000000002,-17.698038361311607
-0.06170000000000009,-17.881950830294063
-0.0627000000000002,-18.09415752527382
-0.06370000000000009,-18.263922881257624
-0.0647000000000002,-18.391246898245473
-0.06570000000000009,-18.53271802823198
-0.0667000000000002,-18.645894932221182
-0.0677000000000001,-18.843954514202288
-0.0687000000000002,-18.999572757187444
-0.0697000000000001,-19.112749661176647
-0.07070000000000021,-19.22592656516585
-0.0717000000000001,-19.353250582153702
-0.07270000000000021,-19.551310164134804
-0.0737000000000001,-19.73522263311726
-0.07470000000000021,-19.890840876102416
-0.0757000000000001,-20.03231200608892
-0.07670000000000021,-20.202077362072725
-0.0777000000000001,-20.38598983105518
-0.07870000000000021,-20.541608074040333
-0.0797000000000001,-20.683079204026836
-0.08070000000000022,-20.824550334013338
-0.0817000000000001,-20.95187435100119
-0.08270000000000022,-21.107492593986347
-0.08370000000000011,-21.30555217596745
-0.08470000000000022,-21.47531753195126
-0.08570000000000011,-21.58849443594046
-0.08670000000000022,-21.758259791924264
-0.08770000000000011,-21.92802514790807
-0.08870000000000022,-22.111937616890522
-0.08970000000000011,-22.239261633878378
-0.09070000000000022,-22.352438537867577
-0.09170000000000011,-22.522203893851387
-0.09270000000000023,-22.706116362833843
-0.09370000000000012,-22.904175944814945
-0.09470000000000023,-23.045647074801447
-0.09570000000000012,-23.1729710917893
-0.09670000000000023,-23.300295108777156
-0.09770000000000012,-23.49835469075826
-0.09870000000000023,-23.682267159740714
-0.09970000000000012,-23.83788540272587
-0.10070000000000023,-23.96520941971372
-0.10170000000000012,-24.092533436701576
-0.10270000000000024,-24.31888724467998
-0.10370000000000013,-24.474505487665134
-0.10470000000000024,-24.630123730650286
-0.10570000000000013,-24.74330063463949
-0.10670000000000024,-24.898918877624645
-0.10770000000000013,-25.09697845960575
-0.10870000000000024,-25.280890928588207
-0.10970000000000013,-25.42236205857471
-0.11070000000000024,-25.549686075562565
-0.11170000000000013,-25.705304318547718
-0.11270000000000002,-25.889216787530174
-0.11370000000000013,-26.087276369511276
-0.11470000000000002,-26.20045327350048
-0.11570000000000014,-26.34192440348698
-0.11670000000000003,-26.483395533473487
-0.11770000000000014,-26.681455115454593
-0.11870000000000003,-26.86536758443705
-0.11970000000000014,-26.992691601424898
-0.12070000000000003,-27.120015618412754
-0.12170000000000014,-27.275633861397907
-0.12270000000000003,-27.445399217381713
-0.12370000000000014,-27.65760591236147
-0.12470000000000003,-27.813224155346617
-0.12570000000000014,-27.912253946337174
-0.12670000000000003,-28.06787218932233
-0.12770000000000015,-28.237637545306132
-0.12870000000000004,-28.421550014288584
-0.12970000000000015,-28.56302114427509
-0.13070000000000004,-28.676198048264297
-0.13170000000000015,-28.8176691782508
-0.13270000000000004,-29.001581647233255
-0.13370000000000015,-29.171347003217054
-0.13470000000000004,-29.31281813320356
-0.13570000000000015,-29.411847924194117
-0.13670000000000004,-29.539171941181966
-0.13770000000000016,-29.73723152316307
-0.13870000000000005,-29.906996879146874
-0.13970000000000016,-30.03432089613473
-0.14070000000000005,-30.147497800123933
-0.14170000000000016,-30.288968930110435
-0.14270000000000005,-30.45873428609424
-0.14370000000000016,-30.62849964207804
-0.14470000000000005,-30.7558236590659
-0.14570000000000016,-30.8690005630551
-0.14670000000000005,-30.99632458004295
-0.14770000000000016,-31.16608993602676
-0.14870000000000005,-31.350002405009217
-0.14970000000000017,-31.47732642199707
-0.15070000000000006,-31.604650438984915
-0.15170000000000017,-31.717827342974125
-0.15270000000000006,-31.873445585959274
-0.15370000000000017,-32.04321094194308
-0.15470000000000006,-32.170534958930936
-0.15570000000000017,-32.269564749921486
-0.15670000000000006,-32.41103587990799
-0.15770000000000017,-32.56665412289314
-0.15870000000000006,-32.7505665918756
-0.15970000000000018,-32.8637434958648
-0.16070000000000007,-33.21742132083106
-0.16170000000000018,-33.38718667681487
-0.16270000000000007,-33.54280491980002
-0.16370000000000018,-33.64183471079057
-0.16470000000000007,-33.712570275783825
-0.16570000000000018,-33.740864501781125
-0.16670000000000007,-33.88233563176763
-0.16770000000000018,-33.93892408376223
-0.16870000000000007,-34.08039521374873
-0.16970000000000018,-34.26430768273119
-0.17070000000000007,-34.377484586720385
-0.17170000000000019,-34.5755441687015
-0.17270000000000008,-34.731162411686654
-0.1737000000000002,-34.8867806546718
-0.17470000000000008,-34.98581044566235
-0.1757000000000002,-35.04239889765696
-0.17670000000000008,-35.183870027643465
-0.1777000000000002,-35.339488270628614
-0.17870000000000008,-35.52340073961108
-0.1797000000000002,-35.707313208593526
-0.18070000000000008,-35.93366701657193
-0.1817000000000002,-36.13172659855304
-0.18270000000000008,-36.25905061554089
-0.1837000000000002,-36.44296308452335
-0.1847000000000001,-36.584434214509855
-0.1857000000000002,-36.78249379649095
-0.1867000000000001,-36.89567070048016
-0.1877000000000002,-37.122024508458566
-0.1887000000000001,-37.376672542434264
-0.1897000000000002,-37.51814367242077
-0.1907000000000001,-37.60302635041268
-0.1917000000000001,-37.716203254401876
-0.19269999999999998,-37.94255706238028
-0.1937000000000001,-38.197205096355994
-0.19469999999999998,-38.29623488734655
-0.1957000000000001,-38.5084415823263
-0.19669999999999999,-38.678206938310105
-0.1977000000000001,-38.91870785928716
-0.1987,-39.173355893262865
-0.1997000000000001,-39.35726836224533
-0.2007,-39.52703371822913
-0.2017000000000001,-39.72509330021023
-0.2027,-39.95144710818864
-0.2037000000000001,-40.220242255162994
-0.2047,-40.4748902891387
-0.2057000000000001,-40.729538323114404
-0.2067,-41.05492192208336
-0.2077000000000001,-41.30956995605907
-0.2087,-41.53592376403748
-0.2097000000000001,-41.80471891101183
-0.2107,-42.05936694498754
-0.2117000000000001,-42.29986786596459
-0.2127,-42.554515899940306
-0.2137000000000001,-42.87989949890926
-0.2147,-43.23357732387552
-0.2157000000000001,-43.544813809845834
-0.2167,-43.84190318281749
-0.21770000000000012,-44.153139668787794
-0.2187,-44.45022904175945
-0.21970000000000012,-44.775612640728404
-0.2207,-45.044407787702774
-0.22170000000000012,-45.36979138667173
-0.2227,-45.73761632463664
-0.22370000000000012,-46.091294149602895
-0.2247,-46.43082486157051
-0.22570000000000012,-46.75620846053947
-0.2267,-47.13818051150302
-0.22770000000000012,-47.506005449467935
-0.22870000000000001,-47.91627172642879
-0.22970000000000013,-48.26994955139505
-0.23070000000000002,-48.65192160235861
-0.23170000000000013,-48.991452314326224
-0.23270000000000002,-49.458307043281685
-0.23370000000000013,-49.9110146592385
-0.23470000000000002,-50.2788395972034
-0.23570000000000013,-50.68910587416426
-0.23670000000000002,-51.05693081212917
-0.2376999999999999,-51.53793265408329
-0.23870000000000002,-52.00478738303875
-0.2396999999999999,-52.42920077299826
-0.24070000000000003,-52.82531993696047
-0.24169999999999991,-53.27802755291728
-0.24270000000000003,-53.75902939487139
-0.24369999999999992,-54.25417834982416
-0.24470000000000003,-54.72103307877962
-0.24569999999999992,-55.11715224274183
-0.24670000000000003,-55.626448310693235
-0.24769999999999992,-56.10745015264736
-0.24870000000000003,-56.64504044659606
-0.24969999999999992,-57.097748062552874
-0.25070000000000003,-57.564602791508335
-0.2516999999999999,-58.05975174646111
-0.25270000000000004,-58.583194927411164
-0.2536999999999999,-59.17737367335449
-0.25470000000000004,-59.7149639673032
-0.2556999999999999,-60.18181869625866
-0.25670000000000004,-60.691114764210084
-0.25769999999999993,-61.27114639715474
-0.25870000000000004,-61.8228838041021
-0.25969999999999993,-62.33217987205352
-0.26070000000000004,-62.855623053003576
-0.26169999999999993,-63.40736045995095
-0.26270000000000004,-64.01568631889292
-0.26369999999999993,-64.59571795183757
-0.26470000000000005,-65.14745535878494
-0.26569999999999994,-65.68504565273366
-0.26670000000000005,-66.26507728567832
-0.26769999999999994,-66.87340314462028
-0.26870000000000005,-67.48172900356225
-0.26969999999999994,-68.06176063650692
-0.27070000000000005,-68.64179226945159
-0.27169999999999994,-69.23597101539488
-0.27270000000000005,-69.88673821333282
-0.27369999999999994,-70.52335829827209
-0.27470000000000006,-71.10338993121674
-0.27569999999999995,-71.69756867716005
-0.27670000000000006,-72.34833587509796
-0.27769999999999995,-72.9991030730359
-0.27870000000000006,-73.6781644969711
-0.27969999999999995,-74.30063746891172
-0.28070000000000006,-74.86652198885774
-0.28169999999999995,-75.96999680275246
-0.28270000000000006,-76.86126492166746
-0.28369999999999995,-77.51203211960537
-0.28470000000000006,-78.12035797854733
-0.28569999999999995,-78.57306559450414
-0.28670000000000007,-79.1530972274488
-0.28769999999999996,-79.81801153838538
-0.28870000000000007,-80.42633739732734
-0.28969999999999996,-80.93563346527876
-0.29070000000000007,-81.71372468020452
-0.29169999999999996,-82.54840434712489
-0.29270000000000007,-83.32649556205067
-0.29369999999999996,-84.13288100297372
-0.2947000000000001,-84.769501087913
-0.29569999999999996,-85.43441539884957
-0.2967000000000001,-86.00029991879558
-0.29769999999999996,-86.75009690772404
-0.2987000000000001,-87.48574678365387
-0.29969999999999997,-88.17895532058775
-0.3007000000000001,-89.01363498750811
-0.30169999999999997,-89.87660888042578
-0.3027000000000001,-90.89520101632861
-0.30369999999999997,-91.68743934425302
-0.3047000000000001,-92.33820654219093
-0.30569999999999997,-93.15873909611267
-0.3067000000000001,-93.89438897204248
-0.3077,-94.71492152596421
-0.3087000000000001,-95.43642428889537
-0.3097,-96.2852510688144
-0.3107000000000001,-97.33213743071452
-0.3117,-98.09608153264163
-0.3127000000000001,-99.07223232954851
-0.3137,-99.92105910946754
-0.3147000000000001,-100.78403300238521
-0.3157,-101.59041844330828
-0.3167000000000001,-102.46753944922462
-0.3177,-103.48613158512744
-0.3187000000000001,-104.56131217302486
-0.3197,-105.63649276092228
-0.3207000000000001,-106.54190799283592
-0.3217,-107.5746472417374
-0.3227000000000001,-108.39517979565912
-0.3237,-109.17327101058488
-0.3247000000000001,-110.12112758149446
-0.3257,-111.22460239538917
-0.3267000000000001,-112.21490030529472
-0.3277,-113.20519821520024
-0.3287000000000001,-114.37940859408822
-0.3297,-115.39800072999103
-0.3307000000000001,-116.45903420488982
-0.3317,-117.4917734537913
-0.3327000000000001,-118.56695404168872
-0.3337,-119.52895772559695
-0.3347000000000001,-120.64657965249035
-0.3357,-121.77834869238235
-0.3367000000000001,-122.8535292802798
-0.3377,-124.19750501515158
-0.3387000000000001,-125.49903941102741
-0.3397,-126.97033916288706
-0.3407000000000001,-128.1304024287764
-0.3417,-129.19143590367514
-0.3427000000000001,-130.62029431653886
-0.3437,-131.92182871241468
-0.3447000000000001,-133.43556980327025
-0.3457,-134.69466286015015
-0.3467000000000001,-136.0103443690246
-0.3477,-137.56652679887617
-0.3487000000000001,-138.7548842907628
-0.3497,-139.68859374867372
-0.3507000000000001,-141.04671659654417
-0.3517,-142.4614278964092
-0.3527000000000001,-143.0273124163552
-0.3537,-143.0273124163552
-0.3547000000000001,-143.0273124163552
-0.3557,-143.0273124163552
-0.35670000000000013,-143.0273124163552
-0.3577,-143.0273124163552
-0.35870000000000013,-143.0273124163552
-0.3597,-143.0273124163552
-0.36070000000000013,-143.0273124163552
-0.3617,-143.0273124163552
-0.3626999999999999,-143.0273124163552
-0.3637,-143.0273124163552
-0.3646999999999999,-143.0273124163552
-0.3657,-143.0273124163552
-0.3666999999999999,-143.0273124163552
-0.3677,-143.0273124163552
-0.3686999999999999,-143.0273124163552
-0.36970000000000003,-143.0273124163552
-0.3706999999999999,-143.0273124163552
-0.37170000000000003,-143.0273124163552
-0.3726999999999999,-143.0273124163552
-0.37370000000000003,-143.0273124163552
-0.3746999999999999,-143.0273124163552
-0.37570000000000003,-143.0273124163552
-0.3766999999999999,-143.0273124163552
-0.37770000000000004,-143.0273124163552
-0.3786999999999999,-143.0273124163552
-0.37970000000000004,-143.0273124163552
-0.3806999999999999,-143.0273124163552
-0.38170000000000004,-143.0273124163552
-0.38269999999999993,-143.0273124163552
-0.38370000000000004,-143.0273124163552
-0.38469999999999993,-143.0273124163552
-0.38570000000000004,-143.0273124163552
-0.38669999999999993,-143.0273124163552
-0.38570000000000004,-143.0273124163552
-0.38469999999999993,-143.0273124163552
-0.38370000000000004,-143.0273124163552
-0.38269999999999993,-143.0273124163552
-0.38170000000000004,-143.0273124163552
-0.3806999999999999,-143.0273124163552
-0.37970000000000004,-143.0273124163552
-0.3786999999999999,-143.0273124163552
-0.37770000000000004,-143.0273124163552
-0.3766999999999999,-143.0273124163552
-0.37570000000000003,-143.0273124163552
-0.3746999999999999,-143.0273124163552
-0.37370000000000003,-143.0273124163552
-0.3726999999999999,-143.0273124163552
-0.37170000000000003,-143.0273124163552
-0.3706999999999999,-143.0273124163552
-0.36970000000000003,-143.0273124163552
-0.3686999999999999,-143.0273124163552
-0.3677,-143.0273124163552
-0.3666999999999999,-143.0273124163552
-0.3657,-143.0273124163552
-0.3646999999999999,-143.0273124163552
-0.3637,-143.0273124163552
-0.3626999999999999,-143.0273124163552
-0.3617,-142.8858412863687
-0.36070000000000013,-141.61260111649017
-0.3597,-139.67444663567508
-0.35870000000000013,-137.6231152508708
-0.3577,-135.65666654405837
-0.35670000000000013,-133.64777649825
-0.3557,-131.75206335643085
-0.3547000000000001,-130.02611557059552
-0.3537,-128.10210820277908
-0.3527000000000001,-126.20639506095993
-0.3517,-124.36727037113538
-0.3507000000000001,-122.52814568131083
-0.3497,-120.77390366947817
-0.3487000000000001,-118.92063186665499
-0.3477,-117.0390658378345
-0.3467000000000001,-115.29897093900047
-0.3457,-113.58717026616378
-0.3447000000000001,-111.88951670632574
-0.3437,-110.16356892049039
-0.3427000000000001,-108.40932690865776
-0.3417,-106.72582046181837
-0.3407000000000001,-105.07060824097626
-0.3397,-103.48613158512744
-0.3387000000000001,-101.84506647728399
-0.3377,-100.18985425644189
-0.3367000000000001,-98.5629362615971
-0.3357,-96.99260671874691
-0.3347000000000001,-95.43642428889537
-0.3337,-93.86609474604518
-0.3327000000000001,-92.26747097719769
-0.3317,-90.6971414343475
-0.3307000000000001,-89.21169456948921
-0.3297,-87.71210059163228
-0.3287000000000001,-86.19835950077669
-0.3277,-84.69876552291974
-0.3267000000000001,-83.1708773190655
-0.3257,-81.74201890620182
-0.3247000000000001,-80.29901338033947
-0.3237,-78.79941940248254
-0.3227000000000001,-77.85156283157298
-0.3217,-76.71979379168094
-0.3207000000000001,-75.2484940398213
-0.3197,-73.79134140096032
-0.3187000000000001,-72.37663010109527
-0.3177,-70.82044767124374
-0.3167000000000001,-69.41988348437735
-0.3157,-67.96273084551636
-0.3147000000000001,-66.64704933664189
-0.3137,-65.37380916676335
-0.3127000000000001,-64.17130456187807
-0.3117,-62.98294706999144
-0.3107000000000001,-61.72385401311155
-0.3097,-60.521349408226264
-0.3087000000000001,-59.21981501235043
-0.3077,-57.93242772947325
-0.3067000000000001,-56.63089333359741
-0.30569999999999997,-55.456682954709436
-0.3047000000000001,-54.31076680181876
-0.30369999999999997,-53.15070353592942
-0.3027000000000001,-52.1038171740293
-0.30169999999999997,-51.014489473133224
-0.3007000000000001,-49.98175022423175
-0.29969999999999997,-48.84998118433972
-0.2987000000000001,-47.689917918450384
-0.29769999999999996,-46.628884443551605
-0.2967000000000001,-45.53955674265553
-0.29569999999999996,-44.520964606752706
-0.2947000000000001,-43.51651958384853
-0.29369999999999996,-42.554515899940306
-0.29270000000000007,-41.49348242504152
-0.29169999999999996,-40.40415472414545
-0.29070000000000007,-39.34312124924667
-0.28969999999999996,-38.42355890433439
-0.28870000000000007,-37.50399655942213
-0.28769999999999996,-36.47125731052064
-0.28670000000000007,-35.56584207860703
-0.28569999999999995,-34.6604268466934
-0.28470000000000006,-33.76915872777842
-0.28369999999999995,-32.87789060886345
-0.28270000000000006,-31.95832826395118
-0.28169999999999995,-31.067060145036205
-0.28070000000000006,-30.189939139119886
-0.27969999999999995,-29.369406585198163
-0.27870000000000006,-28.52057980527914
-0.27769999999999995,-27.685900138358768
-0.27670000000000006,-26.921956036431645
-0.27569999999999995,-26.14386482150588
-0.27470000000000006,-25.40821494557606
-0.27369999999999994,-24.587682391654337
-0.27270000000000005,-23.767149837732617
-0.27169999999999994,-23.031499961802798
-0.27070000000000005,-22.267555859875678
-0.26969999999999994,-21.560200209943158
-0.26870000000000005,-20.838697447011988
-0.26769999999999994,-20.13134179707947
-0.26670000000000005,-19.381544808151002
