May 2, 2025   07:58:57
Cyclic Voltammetry
File: c:/users/guazh/data/banditlqround7_x0exp1108_r5/2025-04-30-exp1215\exp1215-2025-05-02t07_50_46-arkoh\exp1215_cv_sr_700mvs_efin_-1400mv.bin
Data Source:  Experiment
Instrument Model:  CHI760E
Header: CV ran at 700 mVs
Note: 

Init E (V) = -1
High E (V) = -1
Low E (V) = -1.4
Final E (V) = -1
Init P/N = N
Scan Rate (V/s) = 0.7
Segment = 3
Sample Interval (V) = 0.001
Quiet Time (sec) = 2
Sensitivity (A/V) = 0.01
Comp R (ohm) = 0.9

Results:

Channel 1:
Segment 1:

Segment 2:

Segment 3:

Potential/V, Current/A

-1.000, -2.588e-4
-1.001, -9.093e-6
-1.002, 2.160e-4
-1.003, 4.349e-4
-1.004, 6.414e-4
-1.005, 8.357e-4
-1.006, 1.021e-3
-1.007, 1.203e-3
-1.008, 1.375e-3
-1.009, 1.548e-3
-1.010, 1.721e-3
-1.011, 1.887e-3
-1.012, 2.054e-3
-1.013, 2.214e-3
-1.014, 2.365e-3
-1.015, 2.516e-3
-1.016, 2.655e-3
-1.017, 2.790e-3
-1.018, 2.920e-3
-1.019, 3.046e-3
-1.020, 3.173e-3
-1.021, 3.299e-3
-1.022, 3.429e-3
-1.023, 3.555e-3
-1.024, 3.678e-3
-1.025, 3.802e-3
-1.026, 3.919e-3
-1.027, 4.027e-3
-1.028, 4.135e-3
-1.029, 4.236e-3
-1.030, 4.332e-3
-1.031, 4.428e-3
-1.032, 4.526e-3
-1.033, 4.628e-3
-1.034, 4.730e-3
-1.035, 4.828e-3
-1.036, 4.930e-3
-1.037, 5.023e-3
-1.038, 5.115e-3
-1.039, 5.198e-3
-1.040, 5.282e-3
-1.041, 5.362e-3
-1.042, 5.439e-3
-1.043, 5.522e-3
-1.044, 5.605e-3
-1.045, 5.688e-3
-1.046, 5.772e-3
-1.047, 5.858e-3
-1.048, 5.941e-3
-1.049, 6.018e-3
-1.050, 6.095e-3
-1.051, 6.166e-3
-1.052, 6.234e-3
-1.053, 6.299e-3
-1.054, 6.367e-3
-1.055, 6.432e-3
-1.056, 6.499e-3
-1.057, 6.573e-3
-1.058, 6.644e-3
-1.059, 6.718e-3
-1.060, 6.789e-3
-1.061, 6.857e-3
-1.062, 6.922e-3
-1.063, 6.980e-3
-1.064, 7.039e-3
-1.065, 7.094e-3
-1.066, 7.153e-3
-1.067, 7.212e-3
-1.068, 7.273e-3
-1.069, 7.338e-3
-1.070, 7.403e-3
-1.071, 7.471e-3
-1.072, 7.532e-3
-1.073, 7.594e-3
-1.074, 7.649e-3
-1.075, 7.705e-3
-1.076, 7.763e-3
-1.077, 7.816e-3
-1.078, 7.868e-3
-1.079, 7.927e-3
-1.080, 7.988e-3
-1.081, 8.050e-3
-1.082, 8.112e-3
-1.083, 8.173e-3
-1.084, 8.232e-3
-1.085, 8.284e-3
-1.086, 8.334e-3
-1.087, 8.383e-3
-1.088, 8.429e-3
-1.089, 8.482e-3
-1.090, 8.528e-3
-1.091, 8.584e-3
-1.092, 8.639e-3
-1.093, 8.695e-3
-1.094, 8.756e-3
-1.095, 8.812e-3
-1.096, 8.864e-3
-1.097, 8.913e-3
-1.098, 8.957e-3
-1.099, 9.000e-3
-1.100, 9.040e-3
-1.101, 9.089e-3
-1.102, 9.132e-3
-1.103, 9.182e-3
-1.104, 9.234e-3
-1.105, 9.290e-3
-1.106, 9.345e-3
-1.107, 9.401e-3
-1.108, 9.453e-3
-1.109, 9.496e-3
-1.110, 9.545e-3
-1.111, 9.589e-3
-1.112, 9.632e-3
-1.113, 9.678e-3
-1.114, 9.724e-3
-1.115, 9.774e-3
-1.116, 9.826e-3
-1.117, 9.875e-3
-1.118, 9.928e-3
-1.119, 9.974e-3
-1.120, 1.002e-2
-1.121, 1.006e-2
-1.122, 1.010e-2
-1.123, 1.014e-2
-1.124, 1.018e-2
-1.125, 1.022e-2
-1.126, 1.026e-2
-1.127, 1.031e-2
-1.128, 1.036e-2
-1.129, 1.041e-2
-1.130, 1.045e-2
-1.131, 1.049e-2
-1.132, 1.053e-2
-1.133, 1.057e-2
-1.134, 1.061e-2
-1.135, 1.064e-2
-1.136, 1.067e-2
-1.137, 1.071e-2
-1.138, 1.075e-2
-1.139, 1.080e-2
-1.140, 1.084e-2
-1.141, 1.089e-2
-1.142, 1.093e-2
-1.143, 1.096e-2
-1.144, 1.100e-2
-1.145, 1.103e-2
-1.146, 1.106e-2
-1.147, 1.108e-2
-1.148, 1.111e-2
-1.149, 1.115e-2
-1.150, 1.118e-2
-1.151, 1.122e-2
-1.152, 1.126e-2
-1.153, 1.130e-2
-1.154, 1.133e-2
-1.155, 1.136e-2
-1.156, 1.140e-2
-1.157, 1.142e-2
-1.158, 1.144e-2
-1.159, 1.147e-2
-1.160, 1.149e-2
-1.161, 1.152e-2
-1.162, 1.155e-2
-1.163, 1.158e-2
-1.164, 1.162e-2
-1.165, 1.165e-2
-1.166, 1.168e-2
-1.167, 1.170e-2
-1.168, 1.172e-2
-1.169, 1.173e-2
-1.170, 1.176e-2
-1.171, 1.178e-2
-1.172, 1.181e-2
-1.173, 1.185e-2
-1.174, 1.188e-2
-1.175, 1.191e-2
-1.176, 1.194e-2
-1.177, 1.197e-2
-1.178, 1.200e-2
-1.179, 1.202e-2
-1.180, 1.204e-2
-1.181, 1.206e-2
-1.182, 1.208e-2
-1.183, 1.210e-2
-1.184, 1.212e-2
-1.185, 1.215e-2
-1.186, 1.218e-2
-1.187, 1.221e-2
-1.188, 1.224e-2
-1.189, 1.227e-2
-1.190, 1.229e-2
-1.191, 1.231e-2
-1.192, 1.233e-2
-1.193, 1.235e-2
-1.194, 1.237e-2
-1.195, 1.239e-2
-1.196, 1.242e-2
-1.197, 1.245e-2
-1.198, 1.247e-2
-1.199, 1.250e-2
-1.200, 1.253e-2
-1.201, 1.255e-2
-1.202, 1.257e-2
-1.203, 1.259e-2
-1.204, 1.261e-2
-1.205, 1.262e-2
-1.206, 1.264e-2
-1.207, 1.265e-2
-1.208, 1.267e-2
-1.209, 1.270e-2
-1.210, 1.272e-2
-1.211, 1.275e-2
-1.212, 1.277e-2
-1.213, 1.279e-2
-1.214, 1.281e-2
-1.215, 1.282e-2
-1.216, 1.284e-2
-1.217, 1.285e-2
-1.218, 1.286e-2
-1.219, 1.288e-2
-1.220, 1.290e-2
-1.221, 1.292e-2
-1.222, 1.294e-2
-1.223, 1.296e-2
-1.224, 1.298e-2
-1.225, 1.300e-2
-1.226, 1.301e-2
-1.227, 1.303e-2
-1.228, 1.304e-2
-1.229, 1.306e-2
-1.230, 1.307e-2
-1.231, 1.309e-2
-1.232, 1.311e-2
-1.233, 1.313e-2
-1.234, 1.315e-2
-1.235, 1.317e-2
-1.236, 1.319e-2
-1.237, 1.320e-2
-1.238, 1.321e-2
-1.239, 1.323e-2
-1.240, 1.323e-2
-1.241, 1.325e-2
-1.242, 1.326e-2
-1.243, 1.328e-2
-1.244, 1.330e-2
-1.245, 1.332e-2
-1.246, 1.334e-2
-1.247, 1.336e-2
-1.248, 1.338e-2
-1.249, 1.339e-2
-1.250, 1.341e-2
-1.251, 1.341e-2
-1.252, 1.342e-2
-1.253, 1.343e-2
-1.254, 1.345e-2
-1.255, 1.347e-2
-1.256, 1.348e-2
-1.257, 1.351e-2
-1.258, 1.353e-2
-1.259, 1.354e-2
-1.260, 1.355e-2
-1.261, 1.356e-2
-1.262, 1.357e-2
-1.263, 1.358e-2
-1.264, 1.358e-2
-1.265, 1.359e-2
-1.266, 1.360e-2
-1.267, 1.362e-2
-1.268, 1.364e-2
-1.269, 1.366e-2
-1.270, 1.367e-2
-1.271, 1.369e-2
-1.272, 1.370e-2
-1.273, 1.371e-2
-1.274, 1.371e-2
-1.275, 1.372e-2
-1.276, 1.373e-2
-1.277, 1.374e-2
-1.278, 1.375e-2
-1.279, 1.377e-2
-1.280, 1.379e-2
-1.281, 1.381e-2
-1.282, 1.382e-2
-1.283, 1.384e-2
-1.284, 1.385e-2
-1.285, 1.386e-2
-1.286, 1.386e-2
-1.287, 1.387e-2
-1.288, 1.388e-2
-1.289, 1.389e-2
-1.290, 1.391e-2
-1.291, 1.393e-2
-1.292, 1.395e-2
-1.293, 1.396e-2
-1.294, 1.398e-2
-1.295, 1.399e-2
-1.296, 1.400e-2
-1.297, 1.401e-2
-1.298, 1.402e-2
-1.299, 1.403e-2
-1.300, 1.404e-2
-1.301, 1.406e-2
-1.302, 1.408e-2
-1.303, 1.410e-2
-1.304, 1.412e-2
-1.305, 1.415e-2
-1.306, 1.417e-2
-1.307, 1.418e-2
-1.308, 1.419e-2
-1.309, 1.420e-2
-1.310, 1.422e-2
-1.311, 1.423e-2
-1.312, 1.425e-2
-1.313, 1.427e-2
-1.314, 1.429e-2
-1.315, 1.432e-2
-1.316, 1.434e-2
-1.317, 1.437e-2
-1.318, 1.439e-2
-1.319, 1.441e-2
-1.320, 1.442e-2
-1.321, 1.444e-2
-1.322, 1.446e-2
-1.323, 1.448e-2
-1.324, 1.450e-2
-1.325, 1.452e-2
-1.326, 1.455e-2
-1.327, 1.457e-2
-1.328, 1.460e-2
-1.329, 1.462e-2
-1.330, 1.464e-2
-1.331, 1.465e-2
-1.332, 1.467e-2
-1.333, 1.469e-2
-1.334, 1.471e-2
-1.335, 1.473e-2
-1.336, 1.476e-2
-1.337, 1.479e-2
-1.338, 1.483e-2
-1.339, 1.487e-2
-1.340, 1.491e-2
-1.341, 1.494e-2
-1.342, 1.497e-2
-1.343, 1.500e-2
-1.344, 1.502e-2
-1.345, 1.505e-2
-1.346, 1.509e-2
-1.347, 1.511e-2
-1.348, 1.515e-2
-1.349, 1.519e-2
-1.350, 1.523e-2
-1.351, 1.527e-2
-1.352, 1.532e-2
-1.353, 1.536e-2
-1.354, 1.539e-2
-1.355, 1.543e-2
-1.356, 1.547e-2
-1.357, 1.550e-2
-1.358, 1.555e-2
-1.359, 1.559e-2
-1.360, 1.564e-2
-1.361, 1.569e-2
-1.362, 1.574e-2
-1.363, 1.579e-2
-1.364, 1.584e-2
-1.365, 1.589e-2
-1.366, 1.594e-2
-1.367, 1.598e-2
-1.368, 1.603e-2
-1.369, 1.608e-2
-1.370, 1.613e-2
-1.371, 1.619e-2
-1.372, 1.625e-2
-1.373, 1.632e-2
-1.374, 1.638e-2
-1.375, 1.645e-2
-1.376, 1.651e-2
-1.377, 1.657e-2
-1.378, 1.663e-2
-1.379, 1.668e-2
-1.380, 1.674e-2
-1.381, 1.680e-2
-1.382, 1.686e-2
-1.383, 1.693e-2
-1.384, 1.700e-2
-1.385, 1.708e-2
-1.386, 1.715e-2
-1.387, 1.723e-2
-1.388, 1.731e-2
-1.389, 1.739e-2
-1.390, 1.747e-2
-1.391, 1.754e-2
-1.392, 1.761e-2
-1.393, 1.769e-2
-1.394, 1.776e-2
-1.395, 1.784e-2
-1.396, 1.793e-2
-1.397, 1.801e-2
-1.398, 1.810e-2
-1.399, 1.818e-2
-1.400, 1.809e-2
-1.399, 1.768e-2
-1.398, 1.731e-2
-1.397, 1.696e-2
-1.396, 1.662e-2
-1.395, 1.630e-2
-1.394, 1.600e-2
-1.393, 1.572e-2
-1.392, 1.544e-2
-1.391, 1.518e-2
-1.390, 1.491e-2
-1.389, 1.466e-2
-1.388, 1.441e-2
-1.387, 1.416e-2
-1.386, 1.392e-2
-1.385, 1.367e-2
-1.384, 1.345e-2
-1.383, 1.321e-2
-1.382, 1.300e-2
-1.381, 1.279e-2
-1.380, 1.258e-2
-1.379, 1.238e-2
-1.378, 1.218e-2
-1.377, 1.197e-2
-1.376, 1.177e-2
-1.375, 1.157e-2
-1.374, 1.136e-2
-1.373, 1.117e-2
-1.372, 1.097e-2
-1.371, 1.078e-2
-1.370, 1.060e-2
-1.369, 1.042e-2
-1.368, 1.025e-2
-1.367, 1.007e-2
-1.366, 9.891e-3
-1.365, 9.718e-3
-1.364, 9.536e-3
-1.363, 9.360e-3
-1.362, 9.185e-3
-1.361, 9.012e-3
-1.360, 8.846e-3
-1.359, 8.679e-3
-1.358, 8.522e-3
-1.357, 8.365e-3
-1.356, 8.210e-3
-1.355, 8.053e-3
-1.354, 7.896e-3
-1.353, 7.736e-3
-1.352, 7.575e-3
-1.351, 7.415e-3
-1.350, 7.255e-3
-1.349, 7.101e-3
-1.348, 6.943e-3
-1.347, 6.798e-3
-1.346, 6.650e-3
-1.345, 6.509e-3
-1.344, 6.370e-3
-1.343, 6.225e-3
-1.342, 6.080e-3
-1.341, 5.935e-3
-1.340, 5.787e-3
-1.339, 5.639e-3
-1.338, 5.491e-3
-1.337, 5.349e-3
-1.336, 5.211e-3
-1.335, 5.075e-3
-1.334, 4.942e-3
-1.333, 4.816e-3
-1.332, 4.683e-3
-1.331, 4.557e-3
-1.330, 4.424e-3
-1.329, 4.292e-3
-1.328, 4.156e-3
-1.327, 4.021e-3
-1.326, 3.891e-3
-1.325, 3.762e-3
-1.324, 3.635e-3
-1.323, 3.515e-3
-1.322, 3.398e-3
-1.321, 3.284e-3
-1.320, 3.167e-3
-1.319, 3.049e-3
-1.318, 2.929e-3
-1.317, 2.806e-3
-1.316, 2.682e-3
-1.315, 2.559e-3
-1.314, 2.439e-3
-1.313, 2.322e-3
-1.312, 2.211e-3
-1.311, 2.103e-3
-1.310, 1.995e-3
-1.309, 1.890e-3
-1.308, 1.782e-3
-1.307, 1.677e-3
-1.306, 1.563e-3
-1.305, 1.449e-3
-1.304, 1.338e-3
-1.303, 1.224e-3
-1.302, 1.119e-3
-1.301, 1.014e-3
-1.300, 9.128e-4
-1.299, 8.141e-4
-1.298, 7.185e-4
-1.297, 6.229e-4
-1.296, 5.243e-4
-1.295, 4.256e-4
-1.294, 3.239e-4
-1.293, 2.191e-4
-1.292, 1.142e-4
-1.291, 1.557e-5
-1.290, -8.617e-5
-1.289, -1.787e-4
-1.288, -2.681e-4
-1.287, -3.575e-4
-1.286, -4.407e-4
-1.285, -5.301e-4
-1.284, -6.165e-4
-1.283, -7.090e-4
-1.282, -8.045e-4
-1.281, -9.001e-4
-1.280, -9.988e-4
-1.279, -1.088e-3
-1.278, -1.178e-3
-1.277, -1.261e-3
-1.276, -1.341e-3
-1.275, -1.421e-3
-1.274, -1.495e-3
-1.273, -1.578e-3
-1.272, -1.659e-3
-1.271, -1.742e-3
-1.270, -1.828e-3
-1.269, -1.911e-3
-1.268, -2.001e-3
-1.267, -2.081e-3
-1.266, -2.158e-3
-1.265, -2.235e-3
-1.264, -2.306e-3
-1.263, -2.377e-3
-1.262, -2.448e-3
-1.261, -2.519e-3
-1.260, -2.596e-3
-1.259, -2.673e-3
-1.258, -2.753e-3
-1.257, -2.836e-3
-1.256, -2.910e-3
-1.255, -2.987e-3
-1.254, -3.058e-3
-1.253, -3.123e-3
-1.252, -3.191e-3
-1.251, -3.253e-3
-1.250, -3.320e-3
-1.249, -3.385e-3
-1.248, -3.456e-3
-1.247, -3.527e-3
-1.246, -3.601e-3
-1.245, -3.675e-3
-1.244, -3.746e-3
-1.243, -3.814e-3
-1.242, -3.875e-3
-1.241, -3.937e-3
-1.240, -3.996e-3
-1.239, -4.051e-3
-1.238, -4.110e-3
-1.237, -4.174e-3
-1.236, -4.239e-3
-1.235, -4.304e-3
-1.234, -4.372e-3
-1.233, -4.440e-3
-1.232, -4.501e-3
-1.231, -4.563e-3
-1.230, -4.621e-3
-1.229, -4.677e-3
-1.228, -4.732e-3
-1.227, -4.782e-3
-1.226, -4.837e-3
-1.225, -4.896e-3
-1.224, -4.954e-3
-1.223, -5.016e-3
-1.222, -5.078e-3
-1.221, -5.136e-3
-1.220, -5.195e-3
-1.219, -5.247e-3
-1.218, -5.297e-3
-1.217, -5.343e-3
-1.216, -5.389e-3
-1.215, -5.438e-3
-1.214, -5.488e-3
-1.213, -5.543e-3
-1.212, -5.599e-3
-1.211, -5.651e-3
-1.210, -5.713e-3
-1.209, -5.765e-3
-1.208, -5.818e-3
-1.207, -5.864e-3
-1.206, -5.907e-3
-1.205, -5.947e-3
-1.204, -5.990e-3
-1.203, -6.030e-3
-1.202, -6.080e-3
-1.201, -6.126e-3
-1.200, -6.178e-3
-1.199, -6.231e-3
-1.198, -6.283e-3
-1.197, -6.333e-3
-1.196, -6.379e-3
-1.195, -6.422e-3
-1.194, -6.462e-3
-1.193, -6.502e-3
-1.192, -6.542e-3
-1.191, -6.585e-3
-1.190, -6.632e-3
-1.189, -6.681e-3
-1.188, -6.730e-3
-1.187, -6.783e-3
-1.186, -6.829e-3
-1.185, -6.878e-3
-1.184, -6.918e-3
-1.183, -6.962e-3
-1.182, -6.999e-3
-1.181, -7.032e-3
-1.180, -7.076e-3
-1.179, -7.113e-3
-1.178, -7.159e-3
-1.177, -7.205e-3
-1.176, -7.254e-3
-1.175, -7.304e-3
-1.174, -7.344e-3
-1.173, -7.387e-3
-1.172, -7.424e-3
-1.171, -7.455e-3
-1.170, -7.492e-3
-1.169, -7.526e-3
-1.168, -7.560e-3
-1.167, -7.597e-3
-1.166, -7.640e-3
-1.165, -7.683e-3
-1.164, -7.729e-3
-1.163, -7.775e-3
-1.162, -7.819e-3
-1.161, -7.859e-3
-1.160, -7.896e-3
-1.159, -7.930e-3
-1.158, -7.964e-3
-1.157, -7.994e-3
-1.156, -8.028e-3
-1.155, -8.068e-3
-1.154, -8.108e-3
-1.153, -8.152e-3
-1.152, -8.198e-3
-1.151, -8.238e-3
-1.150, -8.281e-3
-1.149, -8.315e-3
-1.148, -8.349e-3
-1.147, -8.380e-3
-1.146, -8.407e-3
-1.145, -8.444e-3
-1.144, -8.472e-3
-1.143, -8.512e-3
-1.142, -8.549e-3
-1.141, -8.592e-3
-1.140, -8.636e-3
-1.139, -8.673e-3
-1.138, -8.710e-3
-1.137, -8.744e-3
-1.136, -8.774e-3
-1.135, -8.805e-3
-1.134, -8.833e-3
-1.133, -8.867e-3
-1.132, -8.901e-3
-1.131, -8.944e-3
-1.130, -8.993e-3
-1.129, -9.036e-3
-1.128, -9.077e-3
-1.127, -9.114e-3
-1.126, -9.147e-3
-1.125, -9.175e-3
-1.124, -9.206e-3
-1.123, -9.231e-3
-1.122, -9.258e-3
-1.121, -9.289e-3
-1.120, -9.320e-3
-1.119, -9.357e-3
-1.118, -9.397e-3
-1.117, -9.437e-3
-1.116, -9.474e-3
-1.115, -9.508e-3
-1.114, -9.536e-3
-1.113, -9.567e-3
-1.112, -9.588e-3
-1.111, -9.613e-3
-1.110, -9.641e-3
-1.109, -9.665e-3
-1.108, -9.699e-3
-1.107, -9.733e-3
-1.106, -9.767e-3
-1.105, -9.807e-3
-1.104, -9.838e-3
-1.103, -9.872e-3
-1.102, -9.903e-3
-1.101, -9.927e-3
-1.100, -9.955e-3
-1.099, -9.983e-3
-1.098, -1.001e-2
-1.097, -1.004e-2
-1.096, -1.007e-2
-1.095, -1.011e-2
-1.094, -1.015e-2
-1.093, -1.018e-2
-1.092, -1.021e-2
-1.091, -1.025e-2
-1.090, -1.027e-2
-1.089, -1.030e-2
-1.088, -1.032e-2
-1.087, -1.035e-2
-1.086, -1.037e-2
-1.085, -1.041e-2
-1.084, -1.044e-2
-1.083, -1.047e-2
-1.082, -1.051e-2
-1.081, -1.054e-2
-1.080, -1.057e-2
-1.079, -1.060e-2
-1.078, -1.062e-2
-1.077, -1.065e-2
-1.076, -1.067e-2
-1.075, -1.070e-2
-1.074, -1.072e-2
-1.073, -1.075e-2
-1.072, -1.079e-2
-1.071, -1.082e-2
-1.070, -1.086e-2
-1.069, -1.089e-2
-1.068, -1.092e-2
-1.067, -1.094e-2
-1.066, -1.097e-2
-1.065, -1.099e-2
-1.064, -1.100e-2
-1.063, -1.103e-2
-1.062, -1.106e-2
-1.061, -1.108e-2
-1.060, -1.111e-2
-1.059, -1.115e-2
-1.058, -1.118e-2
-1.057, -1.121e-2
-1.056, -1.123e-2
-1.055, -1.126e-2
-1.054, -1.128e-2
-1.053, -1.130e-2
-1.052, -1.132e-2
-1.051, -1.134e-2
-1.050, -1.137e-2
-1.049, -1.140e-2
-1.048, -1.143e-2
-1.047, -1.146e-2
-1.046, -1.149e-2
-1.045, -1.152e-2
-1.044, -1.155e-2
-1.043, -1.157e-2
-1.042, -1.159e-2
-1.041, -1.161e-2
-1.040, -1.163e-2
-1.039, -1.166e-2
-1.038, -1.169e-2
-1.037, -1.172e-2
-1.036, -1.176e-2
-1.035, -1.179e-2
-1.034, -1.182e-2
-1.033, -1.185e-2
-1.032, -1.187e-2
-1.031, -1.189e-2
-1.030, -1.192e-2
-1.029, -1.194e-2
-1.028, -1.197e-2
-1.027, -1.199e-2
-1.026, -1.202e-2
-1.025, -1.205e-2
-1.024, -1.209e-2
-1.023, -1.212e-2
-1.022, -1.215e-2
-1.021, -1.218e-2
-1.020, -1.221e-2
-1.019, -1.222e-2
-1.018, -1.225e-2
-1.017, -1.227e-2
-1.016, -1.229e-2
-1.015, -1.232e-2
-1.014, -1.235e-2
-1.013, -1.239e-2
-1.012, -1.242e-2
-1.011, -1.245e-2
-1.010, -1.248e-2
-1.009, -1.251e-2
-1.008, -1.254e-2
-1.007, -1.256e-2
-1.006, -1.258e-2
-1.005, -1.261e-2
-1.004, -1.263e-2
-1.003, -1.266e-2
-1.002, -1.269e-2
-1.001, -1.273e-2
