Potential V vs RHE, Current mA cm-2
0.013299999999999867,4.323357732387552
0.012299999999999978,1.3654793466297335
0.011299999999999866,-1.5943796349478963
0.010299999999999976,-4.050318451513601
0.009299999999999864,-6.090332145918983
0.008299999999999974,-8.298696485008303
0.007299999999999862,-10.345783735913013
0.006299999999999972,-11.93167510306172
0.00529999999999986,-13.629328662899765
0.0042999999999999705,-15.448647394526201
0.0032999999999998586,-16.778476016399335
0.0022999999999999687,-18.02342196028057
0.0012999999999998568,-19.565457277133458
0.00029999999999996696,-20.78210899501739
-0.000700000000000145,-21.758259791924264
-0.0017000000000000348,-23.045647074801447
-0.0027000000000001467,-24.24815167968673
-0.0037000000000000366,-25.04039000761115
-0.0047000000000001485,-26.016540804518023
-0.005700000000000038,-27.162456957408708
-0.00670000000000015,-27.898106833338524
-0.00770000000000004,-28.577168257273744
-0.008700000000000152,-29.581613280177915
-0.009700000000000042,-30.359704495103685
-0.010700000000000154,-30.939736128048356
-0.011700000000000044,-31.85929847296063
-0.012700000000000156,-32.70812525287965
-0.013700000000000045,-33.160832868836465
-0.014700000000000157,-33.825747179773025
-0.015700000000000047,-34.632132620696105
-0.01670000000000016,-35.04239889765696
-0.01770000000000005,-35.46681228761647
-0.01870000000000016,-36.25905061554089
-0.01970000000000005,-36.81078802248826
-0.020700000000000163,-37.122024508458566
-0.021700000000000053,-37.81523304539243
-0.022700000000000164,-38.5084415823263
-0.023700000000000054,-38.791383842299304
-0.024700000000000166,-39.28653279725207
-0.025700000000000056,-39.99388844718459
-0.026700000000000168,-40.31927204615355
-0.027700000000000058,-40.6729498711198
-0.02870000000000017,-41.36615840805367
-0.02970000000000006,-41.80471891101183
-0.03070000000000017,-42.01692560599159
-0.03170000000000006,-42.568663012938956
-0.03270000000000017,-43.077959080890366
-0.03370000000000006,-43.19113598487957
-0.034700000000000175,-43.53066669684718
-0.035700000000000065,-44.124845442790495
-0.03670000000000018,-44.3511992507689
-0.03770000000000007,-44.619994397743255
-0.03870000000000018,-45.25661448268253
-0.03970000000000007,-45.624439420647434
-0.04070000000000018,-45.82249900262854
-0.04170000000000007,-46.30350084458265
-0.04270000000000018,-46.72791423454216
-0.04370000000000007,-46.82694402553272
-0.044700000000000184,-47.15232762450167
-0.045700000000000074,-47.70406503144903
-0.046700000000000186,-47.91627172642879
-0.047700000000000076,-48.12847842140855
-0.04870000000000019,-48.72265716735186
-0.04970000000000008,-49.005599427324874
-0.05070000000000019,-49.03389365332217
-0.05170000000000008,-49.458307043281685
-0.05270000000000019,-49.86857332024254
-0.05370000000000008,-49.939308885235796
-0.05470000000000019,-50.2788395972034
-0.05570000000000008,-50.80228277815347
-0.056700000000000195,-50.92960679514132
-0.057700000000000085,-51.085225038126474
-0.058700000000000196,-51.566226880080585
-0.059700000000000086,-51.82087491405629
-0.0607000000000002,-51.82087491405629
-0.06170000000000009,-52.2735825300131
-0.0627000000000002,-52.68384880697396
-0.06370000000000009,-52.71214303297127
-0.0647000000000002,-53.009232405942925
-0.06570000000000009,-53.50438136089569
-0.0667000000000002,-53.58926403888759
-0.0677000000000001,-53.7307351688741
-0.0687000000000002,-54.19758989782956
-0.0697000000000001,-54.38150236681201
-0.07070000000000021,-54.35320814081471
-0.0717000000000001,-54.72103307877962
-0.07270000000000021,-55.10300512974318
-0.0737000000000001,-55.13129935574048
-0.07470000000000021,-55.400094502714836
-0.0757000000000001,-55.90939057066625
-0.07670000000000021,-55.994273248658146
-0.0777000000000001,-56.06500881365141
-0.07870000000000021,-56.44698086461496
-0.0797000000000001,-56.58845199460147
-0.08070000000000022,-56.57430488160282
-0.0817000000000001,-56.998718271562325
-0.08270000000000022,-57.408984548523186
-0.08370000000000011,-57.45142588751914
-0.08470000000000022,-57.70607392149485
-0.08570000000000011,-58.13048731145436
-0.08670000000000022,-58.17292865045031
-0.08770000000000011,-58.21536998944626
-0.08870000000000022,-58.583194927411164
-0.08970000000000011,-58.72466605739767
-0.09070000000000022,-58.66807760540307
-0.09170000000000011,-59.00760831737068
-0.09270000000000023,-59.290550577343694
-0.09370000000000012,-59.21981501235043
-0.09470000000000023,-59.403727481332886
-0.09570000000000012,-59.72911108030185
-0.09670000000000023,-59.72911108030185
-0.09770000000000012,-59.7432581933005
-0.09870000000000023,-60.08278890526811
-0.09970000000000012,-60.21011292225596
-0.10070000000000023,-60.13937735726271
-0.10170000000000012,-60.45061384323302
-0.10270000000000024,-60.71940899020737
-0.10370000000000013,-60.63452631221547
-0.10470000000000024,-60.775997442201984
-0.10570000000000013,-61.10138104117093
-0.10670000000000024,-61.03064547617768
-0.10770000000000013,-61.04479258917633
-0.10870000000000024,-61.384323301143944
-0.10970000000000013,-61.46920597913584
-0.11070000000000024,-61.37017618814529
-0.11170000000000013,-61.5965299961237
-0.11270000000000002,-61.851178030099405
-0.11370000000000013,-61.794589578104805
-0.11470000000000002,-61.95020782108996
-0.11570000000000014,-62.31803275905487
-0.11670000000000003,-62.30388564605621
-0.11770000000000014,-62.31803275905487
-0.11870000000000003,-62.67171058402113
-0.11970000000000014,-62.72829903601572
-0.12070000000000003,-62.60097501902788
-0.12170000000000014,-62.88391727900089
-0.12270000000000003,-63.13856531297658
-0.12370000000000014,-63.05368263498469
-0.12470000000000003,-63.19515376497119
-0.12570000000000014,-63.5063902509415
-0.12670000000000003,-63.43565468594825
-0.12770000000000015,-63.39321334695229
-0.12870000000000004,-63.71859694592126
-0.12970000000000015,-63.77518539791585
-0.13070000000000004,-63.66200849392664
-0.13170000000000015,-63.91665652790236
-0.13270000000000004,-64.14301033588076
-0.13370000000000015,-64.02983343189156
-0.13470000000000004,-64.18545167487672
-0.13570000000000015,-64.46839393484973
-0.13670000000000004,-64.41180548285512
-0.13770000000000016,-64.39765836985646
-0.13870000000000005,-64.72304196882543
-0.13970000000000016,-64.76548330782138
-0.14070000000000005,-64.63815929083353
-0.14170000000000016,-64.89280732480923
-0.14270000000000005,-65.14745535878494
-0.14370000000000016,-65.00598422879844
-0.14470000000000005,-65.16160247178358
-0.14570000000000016,-65.52942740974851
-0.14670000000000005,-65.5011331837512
-0.14770000000000016,-65.4728389577539
-0.14870000000000005,-65.7557812177269
-0.14970000000000017,-65.79822255672285
-0.15070000000000006,-65.68504565273366
-0.15170000000000017,-65.93969368670936
-0.15270000000000006,-66.18019460768642
-0.15370000000000017,-66.05287059069857
-0.15470000000000006,-66.19434172068507
-0.15570000000000017,-66.51972531965401
-0.15670000000000006,-66.44898975466076
-0.15770000000000017,-66.42069552866347
-0.15870000000000006,-66.73193201463377
-0.15970000000000018,-66.7885204666284
-0.16070000000000007,-66.68949067563783
-0.16170000000000018,-66.94413870961354
-0.16270000000000007,-67.1563454045933
-0.16370000000000018,-67.04316850060408
-0.16470000000000007,-67.17049251759194
-0.16570000000000018,-67.4675818905636
-0.16670000000000007,-67.3826992125717
-0.16770000000000018,-67.31196364757845
-0.16870000000000007,-67.63734724654739
-0.16970000000000018,-67.693935698542
-0.17070000000000007,-67.55246456855551
-0.17170000000000019,-67.8071126025312
-0.17270000000000008,-68.0051721845123
-0.1737000000000002,-67.84955394152715
-0.17470000000000008,-67.97687795851502
-0.1757000000000002,-68.24567310548937
-0.17670000000000008,-68.16079042749746
-0.1777000000000002,-68.13249620150016
-0.17870000000000008,-68.44373268747047
-0.1797000000000002,-68.50032113946509
-0.18070000000000008,-68.37299712247722
-0.1817000000000002,-68.62764515645293
-0.18270000000000008,-68.8115576254354
-0.1837000000000002,-68.64179226945159
-0.1847000000000001,-68.71252783444483
-0.1857000000000002,-68.99547009441784
-0.1867000000000001,-68.91058741642594
-0.1877000000000002,-68.86814607742998
-0.1887000000000001,-69.16523545040164
-0.1897000000000002,-69.20767678939758
-0.1907000000000001,-69.0944998854084
-0.1917000000000001,-69.2925594673895
-0.19269999999999998,-69.4906190493706
-0.1937000000000001,-69.3208536933868
-0.19469999999999998,-69.41988348437735
-0.1957000000000001,-69.71697285734902
-0.19669999999999999,-69.61794306635846
-0.1977000000000001,-69.56135461436386
-0.1987,-69.88673821333282
-0.1997000000000001,-69.92917955232878
-0.2007,-69.8018555353409
-0.2017000000000001,-70.01406223032066
-0.2027,-70.16968047330582
-0.2037000000000001,-70.01406223032066
-0.2047,-70.11309202131122
-0.2057000000000001,-70.36774005528693
-0.2067,-70.28285737729502
-0.2077000000000001,-70.22626892530042
-0.2087,-70.53750541127073
-0.2097000000000001,-70.57994675026669
-0.2107,-70.43847562028017
-0.2117000000000001,-70.69312365425588
-0.2127,-70.89118323623698
-0.2137000000000001,-70.73556499325183
-0.2147,-70.87703612323833
-0.2157000000000001,-71.2307139482046
-0.2167,-71.15997838321134
-0.21770000000000012,-71.17412549621
-0.2187,-71.57024466017221
-0.21970000000000012,-71.74001001615602
-0.2207,-71.6268331121668
-0.22170000000000012,-71.90977537213982
-0.2227,-72.17857051911416
-0.22370000000000012,-72.10783495412092
-0.2247,-72.34833587509796
-0.22570000000000012,-72.71616081306288
-0.2267,-72.65957236106827
-0.22770000000000012,-72.65957236106827
-0.22870000000000001,-72.97080884703858
-0.22970000000000013,-73.0273972990332
-0.23070000000000002,-72.95666173403994
-0.23170000000000013,-73.2254568810143
-0.23270000000000002,-73.45181068899271
-0.23370000000000013,-72.8576319430494
-0.23470000000000002,-72.58883679607503
-0.23570000000000013,-72.77274926505748
-0.23670000000000002,-72.50395411808313
-0.2376999999999999,-72.33418876209933
-0.23870000000000002,-72.60298390907369
-0.2396999999999999,-72.65957236106827
-0.24070000000000003,-72.61713102207234
-0.24169999999999991,-72.95666173403994
-0.24270000000000003,-73.26789822001024
-0.24369999999999992,-73.21130976801565
-0.24470000000000003,-73.3952222369981
-0.24569999999999992,-73.7064587229684
-0.24670000000000003,-73.6498702709738
-0.24769999999999992,-73.6781644969711
-0.24870000000000003,-74.06013654793468
-0.24969999999999992,-74.15916633892522
-0.25070000000000003,-74.11672499992927
-0.2516999999999999,-74.48454993789417
-0.25270000000000004,-74.75334508486853
-0.2536999999999999,-74.7109037458726
-0.25470000000000004,-74.97969889284694
-0.2556999999999999,-75.4465536218024
-0.25670000000000004,-75.5880247517889
-0.25769999999999993,-75.80023144676866
-0.25870000000000004,-76.33782174071737
-0.25969999999999993,-76.5924697746931
-0.26070000000000004,-76.69149956568363
-0.26169999999999993,-77.08761872964584
-0.26270000000000004,-77.46959078060941
-0.26369999999999993,-77.51203211960537
-0.26470000000000005,-77.87985705757028
-0.26569999999999994,-78.41744735151899
-0.26670000000000005,-78.62965404649873
-0.26769999999999994,-78.91259630647174
-0.26870000000000005,-79.52092216541372
-0.26969999999999994,-79.7755701993894
-0.27070000000000005,-79.87459999037998
-0.27169999999999994,-80.38389605833139
-0.27270000000000005,-80.90733923928146
-0.27369999999999994,-81.11954593426121
-0.27470000000000006,-81.60054777621531
-0.27569999999999995,-82.27960920015053
-0.27670000000000006,-82.56255146012353
-0.27769999999999995,-82.88793505909248
-0.27870000000000006,-83.52455514403178
-0.27969999999999995,-83.80749740400476
-0.28070000000000006,-84.01970409898453
-0.28169999999999995,-84.6563241839238
-0.28270000000000006,-85.2222087038698
-0.28369999999999995,-85.51929807684147
-0.28470000000000006,-86.05688837079018
-0.28569999999999995,-86.79253824672
-0.28670000000000007,-87.11792184568897
-0.28769999999999996,-87.49989389665252
-0.28870000000000007,-88.23554377258235
-0.28969999999999996,-88.71654561453644
-0.29070000000000007,-89.02778210050676
-0.29169999999999996,-89.79172620243388
-0.29270000000000007,-90.4990818523664
-0.29369999999999996,-90.8669067903313
-0.2947000000000001,-91.54596821426652
-0.29569999999999996,-92.35235365518959
-0.2967000000000001,-92.8050612711464
-0.29769999999999996,-93.34265156509512
-0.2987000000000001,-94.14903700601819
-0.29969999999999997,-94.72906863896286
-0.3007000000000001,-95.16762914192103
-0.30169999999999997,-96.01645592184003
-0.3027000000000001,-96.89357692775637
-0.30369999999999997,-97.44531433470372
-0.3047000000000001,-98.3082882276214
-0.30569999999999997,-99.32688036352423
-0.3067000000000001,-99.90691199646888
-0.3077,-100.51523785541086
-0.3087000000000001,-101.40650597432582
-0.3097,-102.11386162425833
-0.3107000000000001,-102.82121727419087
-0.3117,-103.92469208808559
-0.3127000000000001,-104.98572556298437
-0.3137,-105.70722832591555
-0.3147000000000001,-106.61264355782916
-0.3157,-107.67367703272794
-0.3167000000000001,-108.32444423066585
-0.3177,-109.08838833259297
-0.3187000000000001,-110.16356892049039
-0.3197,-110.99824858741079
-0.3207000000000001,-111.71975135034194
-0.3217,-112.82322616423666
-0.3227000000000001,-113.85596541313815
-0.3237,-114.64820374106257
-0.3247000000000001,-115.70923721596135
-0.3257,-116.89759470784797
-0.3267000000000001,-117.67568592277377
-0.3277,-118.51036558969413
-0.3287000000000001,-119.85434132456592
-0.3297,-120.98611036445794
-0.3307000000000001,-122.01884961335942
-0.3317,-123.34867823523254
-0.3327000000000001,-124.52288861412055
-0.3337,-125.31512694204494
-0.3347000000000001,-126.39030752994238
-0.3357,-127.64940058682225
-0.3367000000000001,-128.56896293173452
-0.3377,-129.55926084164005
-0.3387000000000001,-130.9173836895105
-0.3397,-131.92182871241468
-0.3407000000000001,-132.798949718331
-0.3417,-134.00145432321628
-0.3427000000000001,-135.17566470210423
-0.3437,-136.1801097250084
-0.3447000000000001,-137.5806739118748
-0.3457,-139.10856211572906
-0.3467000000000001,-140.19788981662515
-0.3477,-141.41454153450906
-0.3487000000000001,-142.8858412863687
-0.3497,-144.01761032626072
-0.3507000000000001,-145.00790823616626
-0.3517,-146.28114840604482
-0.3527000000000001,-147.6958597059098
-0.3537,-148.82762874580186
-0.3547000000000001,-150.24234004566688
-0.3557,-151.7985224755184
-0.35670000000000013,-152.93029151541046
-0.3577,-154.3450028152755
-0.35870000000000013,-156.04265637511355
-0.3597,-157.45736767497857
-0.36070000000000013,-158.73060784485713
-0.3617,-160.28679027470866
-0.3626999999999999,-161.84297270456022
-0.3637,-162.97474174445222
-0.3646999999999999,-164.38945304431726
-0.3657,-165.94563547416882
-0.3666999999999999,-167.07740451406085
-0.3677,-168.63358694391238
-0.3686999999999999,-170.47271163373694
-0.36970000000000003,-172.0288940635885
-0.3706999999999999,-173.44360536345349
-0.37170000000000003,-175.28273005327804
-0.3726999999999999,-176.8389124831296
-0.37370000000000003,-178.1121526530081
-0.3746999999999999,-179.66833508285964
-0.37570000000000003,-181.5074597726842
-0.3766999999999999,-183.06364220253573
-0.37770000000000004,-184.6198246323873
-0.3786999999999999,-186.60042045219836
-0.37970000000000004,-188.29807401203638
-0.3806999999999999,-189.71278531190143
-0.38170000000000004,-191.69338113171247
-0.38269999999999993,-193.3910346915505
-0.38370000000000004,-194.80574599141553
-0.38469999999999993,-196.50339955125358
-0.38570000000000004,-198.48399537106465
-0.38669999999999993,-197.0692840711996
-0.38570000000000004,-192.82515017160452
-0.38469999999999993,-189.2883719219419
-0.38370000000000004,-186.03453593225234
-0.38269999999999993,-182.78069994256273
-0.38170000000000004,-180.09274847281918
-0.3806999999999999,-177.2633258730891
-0.37970000000000004,-174.2924321433725
-0.3786999999999999,-171.88742293360195
-0.37770000000000004,-169.7653559838044
-0.3766999999999999,-167.21887564404733
-0.37570000000000003,-164.9553375642633
-0.3746999999999999,-162.8332706144657
-0.37370000000000003,-160.5697325346817
-0.3726999999999999,-158.1647233249111
-0.37170000000000003,-156.04265637511355
-0.3706999999999999,-154.0620605553025
-0.36970000000000003,-151.65705134553193
-0.3686999999999999,-149.6764555257209
-0.3677,-147.97880196588284
-0.3666999999999999,-145.85673501608528
-0.3657,-143.87613919627424
-0.3646999999999999,-142.17848563643616
-0.3637,-140.11300713863324
-0.3626999999999999,-137.93435173684108
-0.3617,-136.09522704701655
-0.36070000000000013,-134.11463122720548
-0.3597,-131.90768159941604
-0.35870000000000013,-130.04026268359416
-0.3577,-128.3001677847602
-0.35670000000000013,-126.19224794796128
-0.3557,-124.14091656315696
-0.3547000000000001,-122.4149687773216
-0.3537,-120.36363739251732
-0.3527000000000001,-118.18498199072516
-0.3517,-116.41659286589388
-0.3507000000000001,-114.4642912720801
-0.3497,-112.28563587028796
-0.3487000000000001,-110.53139385845533
-0.3477,-108.94691720260647
-0.3467000000000001,-107.00876272179138
-0.3457,-105.08475535397493
-0.3447000000000001,-103.28807200314633
-0.3437,-101.29332907033663
-0.3427000000000001,-99.22785057253368
-0.3417,-97.53019701269562
-0.3407000000000001,-95.81839633985894
-0.3397,-93.83780052004788
-0.3387000000000001,-92.25332386419905
-0.3377,-90.76787699934074
-0.3367000000000001,-88.95704653551351
-0.3357,-87.25939297567547
-0.3347000000000001,-85.84468167581042
-0.3337,-84.13288100297372
-0.3327000000000001,-82.36449187814243
-0.3317,-80.96392769127604
-0.3307000000000001,-79.53506927841237
-0.3297,-77.73838592758376
-0.3287000000000001,-76.29538040172143
-0.3277,-74.96555177984828
-0.3267000000000001,-73.23960399401295
-0.3257,-71.55609754717355
-0.3247000000000001,-70.18382758630447
-0.3237,-68.57105670445833
-0.3227000000000001,-66.90169737061757
-0.3217,-65.61431008774039
-0.3207000000000001,-64.28448146586726
-0.3197,-62.65756347102247
-0.3187000000000001,-61.35602907514664
-0.3177,-60.054494679270796
-0.3167000000000001,-58.41342957142736
-0.3157,-56.88554136757313
-0.3147000000000001,-55.7254781016838
-0.3137,-54.2966196888201
-0.3127000000000001,-52.79702571096317
-0.3117,-51.63696244507384
-0.3107000000000001,-50.37786938819396
-0.3097,-48.80753984534376
-0.3087000000000001,-47.520152562466585
-0.3077,-46.41667774857186
-0.3067000000000001,-44.95952510971087
-0.30569999999999997,-43.57310803584313
-0.3047000000000001,-42.554515899940306
-0.30369999999999997,-41.267128617063115
-0.3027000000000001,-39.86656443019674
-0.30169999999999997,-38.84797229429391
-0.3007000000000001,-37.744497480399176
-0.29969999999999997,-36.30149195453684
-0.2987000000000001,-35.198017140642115
-0.29769999999999996,-34.179425004739294
-0.2967000000000001,-32.807155043870196
-0.29569999999999996,-31.590503325986273
-0.2947000000000001,-30.71338232006995
-0.29369999999999996,-29.55331905418062
-0.29270000000000007,-28.294225997300735
-0.29169999999999996,-27.38881076538711
-0.29070000000000007,-26.398512855481584
-0.28969999999999996,-25.111125572604404
-0.28870000000000007,-24.106680549700226
-0.28769999999999996,-23.257853769781203
-0.28670000000000007,-22.027054938898623
-0.28569999999999995,-20.923580125003895
-0.28470000000000006,-20.159636023076775
-0.28369999999999995,-19.098602548177997
-0.28270000000000006,-17.966833508285966
-0.28169999999999995,-17.174595180361546
-0.28070000000000006,-16.325768400442524
-0.27969999999999995,-15.151558021554543
-0.27870000000000006,-14.274437015638219
-0.27769999999999995,-13.535957717108671
-0.27670000000000006,-12.440971171013134
-0.27569999999999995,-11.450673261107607
-0.27470000000000006,-10.815467887468206
-0.27369999999999994,-9.85629362615971
-0.27270000000000005,-8.81931024335864
-0.27169999999999994,-8.151566509822342
-0.27070000000000005,-7.36781644969711
-0.26969999999999994,-6.289806439199953
-0.26870000000000005,-5.524447625972968
-0.26769999999999994,-4.876509850634781
-0.26670000000000005,-3.85367358083236
-0.26569999999999994,-2.994943821814283
-0.26470000000000005,-2.4134974775697526
