Dec. 11, 2024   04:24:21
Cyclic Voltammetry
File: c:/users/guazh/data/banditlqround7_x0exp59_r20/2024-12-09-exp624\exp624-2024-12-11t04_12_43-h2koh\exp624_cv_sr_600mvs_efin_-1500mv.bin
Data Source:  Experiment
Instrument Model:  CHI760E
Header: CV ran at 600 mVs
Note: 

Init E (V) = -1
High E (V) = -1
Low E (V) = -1.5
Final E (V) = -1
Init P/N = N
Scan Rate (V/s) = 0.6
Segment = 3
Sample Interval (V) = 0.001
Quiet Time (sec) = 2
Sensitivity (A/V) = 0.01
Comp R (ohm) = 1.2

Results:

Channel 1:
Segment 1:

Segment 2:

Segment 3:

Potential/V, Current/A

-1.000, -7.028e-4
-1.001, -6.103e-4
-1.002, -5.301e-4
-1.003, -4.500e-4
-1.004, -3.760e-4
-1.005, -3.082e-4
-1.006, -2.342e-4
-1.007, -1.632e-4
-1.008, -9.234e-5
-1.009, -2.143e-5
-1.010, 4.640e-5
-1.011, 1.142e-4
-1.012, 1.759e-4
-1.013, 2.345e-4
-1.014, 2.931e-4
-1.015, 3.455e-4
-1.016, 4.010e-4
-1.017, 4.565e-4
-1.018, 5.120e-4
-1.019, 5.705e-4
-1.020, 6.291e-4
-1.021, 6.846e-4
-1.022, 7.401e-4
-1.023, 7.894e-4
-1.024, 8.388e-4
-1.025, 8.850e-4
-1.026, 9.313e-4
-1.027, 9.744e-4
-1.028, 1.024e-3
-1.029, 1.070e-3
-1.030, 1.119e-3
-1.031, 1.166e-3
-1.032, 1.206e-3
-1.033, 1.246e-3
-1.034, 1.283e-3
-1.035, 1.320e-3
-1.036, 1.360e-3
-1.037, 1.400e-3
-1.038, 1.446e-3
-1.039, 1.492e-3
-1.040, 1.542e-3
-1.041, 1.588e-3
-1.042, 1.634e-3
-1.043, 1.677e-3
-1.044, 1.717e-3
-1.045, 1.761e-3
-1.046, 1.798e-3
-1.047, 1.835e-3
-1.048, 1.875e-3
-1.049, 1.915e-3
-1.050, 1.952e-3
-1.051, 1.983e-3
-1.052, 2.013e-3
-1.053, 2.041e-3
-1.054, 2.066e-3
-1.055, 2.091e-3
-1.056, 2.115e-3
-1.057, 2.143e-3
-1.058, 2.168e-3
-1.059, 2.201e-3
-1.060, 2.235e-3
-1.061, 2.272e-3
-1.062, 2.309e-3
-1.063, 2.353e-3
-1.064, 2.390e-3
-1.065, 2.430e-3
-1.066, 2.473e-3
-1.067, 2.513e-3
-1.068, 2.556e-3
-1.069, 2.602e-3
-1.070, 2.649e-3
-1.071, 2.686e-3
-1.072, 2.723e-3
-1.073, 2.756e-3
-1.074, 2.790e-3
-1.075, 2.815e-3
-1.076, 2.846e-3
-1.077, 2.871e-3
-1.078, 2.901e-3
-1.079, 2.932e-3
-1.080, 2.966e-3
-1.081, 2.997e-3
-1.082, 3.031e-3
-1.083, 3.065e-3
-1.084, 3.096e-3
-1.085, 3.130e-3
-1.086, 3.163e-3
-1.087, 3.204e-3
-1.088, 3.250e-3
-1.089, 3.299e-3
-1.090, 3.348e-3
-1.091, 3.398e-3
-1.092, 3.441e-3
-1.093, 3.481e-3
-1.094, 3.515e-3
-1.095, 3.549e-3
-1.096, 3.580e-3
-1.097, 3.614e-3
-1.098, 3.647e-3
-1.099, 3.684e-3
-1.100, 3.721e-3
-1.101, 3.752e-3
-1.102, 3.786e-3
-1.103, 3.820e-3
-1.104, 3.851e-3
-1.105, 3.885e-3
-1.106, 3.922e-3
-1.107, 3.965e-3
-1.108, 4.008e-3
-1.109, 4.051e-3
-1.110, 4.098e-3
-1.111, 4.138e-3
-1.112, 4.178e-3
-1.113, 4.215e-3
-1.114, 4.249e-3
-1.115, 4.283e-3
-1.116, 4.317e-3
-1.117, 4.350e-3
-1.118, 4.387e-3
-1.119, 4.428e-3
-1.120, 4.468e-3
-1.121, 4.511e-3
-1.122, 4.551e-3
-1.123, 4.591e-3
-1.124, 4.628e-3
-1.125, 4.668e-3
-1.126, 4.708e-3
-1.127, 4.748e-3
-1.128, 4.785e-3
-1.129, 4.822e-3
-1.130, 4.853e-3
-1.131, 4.881e-3
-1.132, 4.912e-3
-1.133, 4.936e-3
-1.134, 4.964e-3
-1.135, 4.989e-3
-1.136, 5.013e-3
-1.137, 5.041e-3
-1.138, 5.069e-3
-1.139, 5.106e-3
-1.140, 5.149e-3
-1.141, 5.198e-3
-1.142, 5.254e-3
-1.143, 5.315e-3
-1.144, 5.374e-3
-1.145, 5.433e-3
-1.146, 5.488e-3
-1.147, 5.547e-3
-1.148, 5.605e-3
-1.149, 5.658e-3
-1.150, 5.710e-3
-1.151, 5.756e-3
-1.152, 5.793e-3
-1.153, 5.827e-3
-1.154, 5.852e-3
-1.155, 5.873e-3
-1.156, 5.895e-3
-1.157, 5.917e-3
-1.158, 5.944e-3
-1.159, 5.972e-3
-1.160, 6.006e-3
-1.161, 6.040e-3
-1.162, 6.071e-3
-1.163, 6.102e-3
-1.164, 6.136e-3
-1.165, 6.176e-3
-1.166, 6.222e-3
-1.167, 6.268e-3
-1.168, 6.324e-3
-1.169, 6.379e-3
-1.170, 6.435e-3
-1.171, 6.490e-3
-1.172, 6.543e-3
-1.173, 6.589e-3
-1.174, 6.638e-3
-1.175, 6.681e-3
-1.176, 6.728e-3
-1.177, 6.768e-3
-1.178, 6.811e-3
-1.179, 6.854e-3
-1.180, 6.894e-3
-1.181, 6.931e-3
-1.182, 6.968e-3
-1.183, 6.999e-3
-1.184, 7.033e-3
-1.185, 7.064e-3
-1.186, 7.094e-3
-1.187, 7.131e-3
-1.188, 7.171e-3
-1.189, 7.218e-3
-1.190, 7.267e-3
-1.191, 7.316e-3
-1.192, 7.366e-3
-1.193, 7.409e-3
-1.194, 7.446e-3
-1.195, 7.477e-3
-1.196, 7.511e-3
-1.197, 7.545e-3
-1.198, 7.585e-3
-1.199, 7.628e-3
-1.200, 7.674e-3
-1.201, 7.720e-3
-1.202, 7.763e-3
-1.203, 7.810e-3
-1.204, 7.850e-3
-1.205, 7.887e-3
-1.206, 7.927e-3
-1.207, 7.970e-3
-1.208, 8.013e-3
-1.209, 8.062e-3
-1.210, 8.109e-3
-1.211, 8.155e-3
-1.212, 8.195e-3
-1.213, 8.226e-3
-1.214, 8.254e-3
-1.215, 8.281e-3
-1.216, 8.312e-3
-1.217, 8.349e-3
-1.218, 8.395e-3
-1.219, 8.445e-3
-1.220, 8.497e-3
-1.221, 8.540e-3
-1.222, 8.584e-3
-1.223, 8.614e-3
-1.224, 8.648e-3
-1.225, 8.691e-3
-1.226, 8.741e-3
-1.227, 8.799e-3
-1.228, 8.864e-3
-1.229, 8.926e-3
-1.230, 8.981e-3
-1.231, 9.028e-3
-1.232, 9.068e-3
-1.233, 9.105e-3
-1.234, 9.145e-3
-1.235, 9.185e-3
-1.236, 9.234e-3
-1.237, 9.283e-3
-1.238, 9.330e-3
-1.239, 9.373e-3
-1.240, 9.410e-3
-1.241, 9.444e-3
-1.242, 9.481e-3
-1.243, 9.521e-3
-1.244, 9.570e-3
-1.245, 9.626e-3
-1.246, 9.681e-3
-1.247, 9.734e-3
-1.248, 9.780e-3
-1.249, 9.832e-3
-1.250, 9.882e-3
-1.251, 9.931e-3
-1.252, 9.983e-3
-1.253, 1.004e-2
-1.254, 1.009e-2
-1.255, 1.013e-2
-1.256, 1.017e-2
-1.257, 1.020e-2
-1.258, 1.023e-2
-1.259, 1.026e-2
-1.260, 1.030e-2
-1.261, 1.033e-2
-1.262, 1.037e-2
-1.263, 1.041e-2
-1.264, 1.044e-2
-1.265, 1.047e-2
-1.266, 1.051e-2
-1.267, 1.055e-2
-1.268, 1.060e-2
-1.269, 1.065e-2
-1.270, 1.071e-2
-1.271, 1.078e-2
-1.272, 1.084e-2
-1.273, 1.091e-2
-1.274, 1.096e-2
-1.275, 1.101e-2
-1.276, 1.105e-2
-1.277, 1.108e-2
-1.278, 1.113e-2
-1.279, 1.117e-2
-1.280, 1.122e-2
-1.281, 1.127e-2
-1.282, 1.131e-2
-1.283, 1.135e-2
-1.284, 1.138e-2
-1.285, 1.140e-2
-1.286, 1.143e-2
-1.287, 1.145e-2
-1.288, 1.149e-2
-1.289, 1.154e-2
-1.290, 1.159e-2
-1.291, 1.165e-2
-1.292, 1.169e-2
-1.293, 1.173e-2
-1.294, 1.177e-2
-1.295, 1.181e-2
-1.296, 1.186e-2
-1.297, 1.192e-2
-1.298, 1.199e-2
-1.299, 1.206e-2
-1.300, 1.214e-2
-1.301, 1.221e-2
-1.302, 1.226e-2
-1.303, 1.231e-2
-1.304, 1.236e-2
-1.305, 1.241e-2
-1.306, 1.246e-2
-1.307, 1.251e-2
-1.308, 1.256e-2
-1.309, 1.260e-2
-1.310, 1.264e-2
-1.311, 1.266e-2
-1.312, 1.268e-2
-1.313, 1.269e-2
-1.314, 1.270e-2
-1.315, 1.271e-2
-1.316, 1.274e-2
-1.317, 1.276e-2
-1.318, 1.280e-2
-1.319, 1.285e-2
-1.320, 1.289e-2
-1.321, 1.294e-2
-1.322, 1.300e-2
-1.323, 1.307e-2
-1.324, 1.313e-2
-1.325, 1.320e-2
-1.326, 1.326e-2
-1.327, 1.333e-2
-1.328, 1.340e-2
-1.329, 1.347e-2
-1.330, 1.355e-2
-1.331, 1.362e-2
-1.332, 1.370e-2
-1.333, 1.376e-2
-1.334, 1.382e-2
-1.335, 1.386e-2
-1.336, 1.390e-2
-1.337, 1.394e-2
-1.338, 1.396e-2
-1.339, 1.399e-2
-1.340, 1.403e-2
-1.341, 1.406e-2
-1.342, 1.409e-2
-1.343, 1.411e-2
-1.344, 1.412e-2
-1.345, 1.414e-2
-1.346, 1.415e-2
-1.347, 1.416e-2
-1.348, 1.420e-2
-1.349, 1.424e-2
-1.350, 1.430e-2
-1.351, 1.436e-2
-1.352, 1.441e-2
-1.353, 1.446e-2
-1.354, 1.452e-2
-1.355, 1.458e-2
-1.356, 1.465e-2
-1.357, 1.473e-2
-1.358, 1.482e-2
-1.359, 1.490e-2
-1.360, 1.497e-2
-1.361, 1.502e-2
-1.362, 1.506e-2
-1.363, 1.509e-2
-1.364, 1.510e-2
-1.365, 1.512e-2
-1.366, 1.513e-2
-1.367, 1.514e-2
-1.368, 1.516e-2
-1.369, 1.520e-2
-1.370, 1.524e-2
-1.371, 1.529e-2
-1.372, 1.535e-2
-1.373, 1.541e-2
-1.374, 1.547e-2
-1.375, 1.553e-2
-1.376, 1.561e-2
-1.377, 1.569e-2
-1.378, 1.579e-2
-1.379, 1.588e-2
-1.380, 1.596e-2
-1.381, 1.603e-2
-1.382, 1.608e-2
-1.383, 1.611e-2
-1.384, 1.613e-2
-1.385, 1.614e-2
-1.386, 1.616e-2
-1.387, 1.616e-2
-1.388, 1.618e-2
-1.389, 1.619e-2
-1.390, 1.620e-2
-1.391, 1.621e-2
-1.392, 1.623e-2
-1.393, 1.625e-2
-1.394, 1.627e-2
-1.395, 1.632e-2
-1.396, 1.637e-2
-1.397, 1.644e-2
-1.398, 1.653e-2
-1.399, 1.661e-2
-1.400, 1.669e-2
-1.401, 1.676e-2
-1.402, 1.682e-2
-1.403, 1.687e-2
-1.404, 1.693e-2
-1.405, 1.699e-2
-1.406, 1.706e-2
-1.407, 1.712e-2
-1.408, 1.717e-2
-1.409, 1.719e-2
-1.410, 1.719e-2
-1.411, 1.719e-2
-1.412, 1.719e-2
-1.413, 1.720e-2
-1.414, 1.723e-2
-1.415, 1.727e-2
-1.416, 1.731e-2
-1.417, 1.736e-2
-1.418, 1.740e-2
-1.419, 1.743e-2
-1.420, 1.747e-2
-1.421, 1.751e-2
-1.422, 1.757e-2
-1.423, 1.764e-2
-1.424, 1.772e-2
-1.425, 1.779e-2
-1.426, 1.786e-2
-1.427, 1.791e-2
-1.428, 1.796e-2
-1.429, 1.800e-2
-1.430, 1.805e-2
-1.431, 1.810e-2
-1.432, 1.815e-2
-1.433, 1.819e-2
-1.434, 1.822e-2
-1.435, 1.823e-2
-1.436, 1.824e-2
-1.437, 1.824e-2
-1.438, 1.826e-2
-1.439, 1.829e-2
-1.440, 1.833e-2
-1.441, 1.838e-2
-1.442, 1.841e-2
-1.443, 1.844e-2
-1.444, 1.846e-2
-1.445, 1.847e-2
-1.446, 1.849e-2
-1.447, 1.851e-2
-1.448, 1.855e-2
-1.449, 1.859e-2
-1.450, 1.864e-2
-1.451, 1.868e-2
-1.452, 1.871e-2
-1.453, 1.874e-2
-1.454, 1.876e-2
-1.455, 1.879e-2
-1.456, 1.883e-2
-1.457, 1.887e-2
-1.458, 1.892e-2
-1.459, 1.896e-2
-1.460, 1.900e-2
-1.461, 1.901e-2
-1.462, 1.903e-2
-1.463, 1.903e-2
-1.464, 1.904e-2
-1.465, 1.906e-2
-1.466, 1.910e-2
-1.467, 1.915e-2
-1.468, 1.920e-2
-1.469, 1.925e-2
-1.470, 1.928e-2
-1.471, 1.931e-2
-1.472, 1.932e-2
-1.473, 1.933e-2
-1.474, 1.936e-2
-1.475, 1.941e-2
-1.476, 1.946e-2
-1.477, 1.950e-2
-1.478, 1.953e-2
-1.479, 1.956e-2
-1.480, 1.957e-2
-1.481, 1.959e-2
-1.482, 1.960e-2
-1.483, 1.962e-2
-1.484, 1.962e-2
-1.485, 1.961e-2
-1.486, 1.957e-2
-1.487, 1.952e-2
-1.488, 1.947e-2
-1.489, 1.942e-2
-1.490, 1.940e-2
-1.491, 1.940e-2
-1.492, 1.943e-2
-1.493, 1.949e-2
-1.494, 1.954e-2
-1.495, 1.959e-2
-1.496, 1.963e-2
-1.497, 1.966e-2
-1.498, 1.970e-2
-1.499, 1.974e-2
-1.500, 1.973e-2
-1.499, 1.959e-2
-1.498, 1.945e-2
-1.497, 1.928e-2
-1.496, 1.910e-2
-1.495, 1.890e-2
-1.494, 1.868e-2
-1.493, 1.846e-2
-1.492, 1.823e-2
-1.491, 1.801e-2
-1.490, 1.781e-2
-1.489, 1.761e-2
-1.488, 1.741e-2
-1.487, 1.721e-2
-1.486, 1.701e-2
-1.485, 1.682e-2
-1.484, 1.664e-2
-1.483, 1.647e-2
-1.482, 1.633e-2
-1.481, 1.620e-2
-1.480, 1.608e-2
-1.479, 1.596e-2
-1.478, 1.583e-2
-1.477, 1.569e-2
-1.476, 1.555e-2
-1.475, 1.542e-2
-1.474, 1.529e-2
-1.473, 1.515e-2
-1.472, 1.501e-2
-1.471, 1.485e-2
-1.470, 1.469e-2
-1.469, 1.451e-2
-1.468, 1.432e-2
-1.467, 1.414e-2
-1.466, 1.396e-2
-1.465, 1.381e-2
-1.464, 1.366e-2
-1.463, 1.353e-2
-1.462, 1.341e-2
-1.461, 1.328e-2
-1.460, 1.315e-2
-1.459, 1.301e-2
-1.458, 1.288e-2
-1.457, 1.275e-2
-1.456, 1.262e-2
-1.455, 1.250e-2
-1.454, 1.239e-2
-1.453, 1.226e-2
-1.452, 1.214e-2
-1.451, 1.202e-2
-1.450, 1.189e-2
-1.449, 1.177e-2
-1.448, 1.166e-2
-1.447, 1.155e-2
-1.446, 1.143e-2
-1.445, 1.131e-2
-1.444, 1.116e-2
-1.443, 1.100e-2
-1.442, 1.083e-2
-1.441, 1.066e-2
-1.440, 1.050e-2
-1.439, 1.036e-2
-1.438, 1.024e-2
-1.437, 1.013e-2
-1.436, 1.001e-2
-1.435, 9.891e-3
-1.434, 9.764e-3
-1.433, 9.632e-3
-1.432, 9.502e-3
-1.431, 9.382e-3
-1.430, 9.271e-3
-1.429, 9.166e-3
-1.428, 9.071e-3
-1.427, 8.966e-3
-1.426, 8.852e-3
-1.425, 8.725e-3
-1.424, 8.596e-3
-1.423, 8.463e-3
-1.422, 8.337e-3
-1.421, 8.220e-3
-1.420, 8.112e-3
-1.419, 8.007e-3
-1.418, 7.902e-3
-1.417, 7.794e-3
-1.416, 7.674e-3
-1.415, 7.551e-3
-1.414, 7.427e-3
-1.413, 7.313e-3
-1.412, 7.205e-3
-1.411, 7.110e-3
-1.410, 7.017e-3
-1.409, 6.931e-3
-1.408, 6.842e-3
-1.407, 6.746e-3
-1.406, 6.650e-3
-1.405, 6.552e-3
-1.404, 6.462e-3
-1.403, 6.376e-3
-1.402, 6.293e-3
-1.401, 6.210e-3
-1.400, 6.126e-3
-1.399, 6.037e-3
-1.398, 5.944e-3
-1.397, 5.846e-3
-1.396, 5.744e-3
-1.395, 5.645e-3
-1.394, 5.547e-3
-1.393, 5.457e-3
-1.392, 5.374e-3
-1.391, 5.297e-3
-1.390, 5.223e-3
-1.389, 5.149e-3
-1.388, 5.072e-3
-1.387, 4.992e-3
-1.386, 4.908e-3
-1.385, 4.825e-3
-1.384, 4.739e-3
-1.383, 4.649e-3
-1.382, 4.560e-3
-1.381, 4.471e-3
-1.380, 4.384e-3
-1.379, 4.301e-3
-1.378, 4.221e-3
-1.377, 4.147e-3
-1.376, 4.070e-3
-1.375, 3.990e-3
-1.374, 3.910e-3
-1.373, 3.829e-3
-1.372, 3.749e-3
-1.371, 3.672e-3
-1.370, 3.601e-3
-1.369, 3.533e-3
-1.368, 3.462e-3
-1.367, 3.392e-3
-1.366, 3.314e-3
-1.365, 3.231e-3
-1.364, 3.148e-3
-1.363, 3.068e-3
-1.362, 2.994e-3
-1.361, 2.923e-3
-1.360, 2.855e-3
-1.359, 2.790e-3
-1.358, 2.726e-3
-1.357, 2.655e-3
-1.356, 2.578e-3
-1.355, 2.504e-3
-1.354, 2.427e-3
-1.353, 2.353e-3
-1.352, 2.285e-3
-1.351, 2.217e-3
-1.350, 2.152e-3
-1.349, 2.091e-3
-1.348, 2.023e-3
-1.347, 1.949e-3
-1.346, 1.869e-3
-1.345, 1.785e-3
-1.344, 1.705e-3
-1.343, 1.634e-3
-1.342, 1.573e-3
-1.341, 1.523e-3
-1.340, 1.486e-3
-1.339, 1.452e-3
-1.338, 1.418e-3
-1.337, 1.372e-3
-1.336, 1.317e-3
-1.335, 1.249e-3
-1.334, 1.181e-3
-1.333, 1.107e-3
-1.332, 1.033e-3
-1.331, 9.621e-4
-1.330, 8.912e-4
-1.329, 8.233e-4
-1.328, 7.586e-4
-1.327, 7.000e-4
-1.326, 6.384e-4
-1.325, 5.829e-4
-1.324, 5.335e-4
-1.323, 4.842e-4
-1.322, 4.380e-4
-1.321, 3.917e-4
-1.320, 3.485e-4
-1.319, 3.023e-4
-1.318, 2.530e-4
-1.317, 1.975e-4
-1.316, 1.389e-4
-1.315, 7.723e-5
-1.314, 1.249e-5
-1.313, -4.609e-5
-1.312, -1.016e-4
-1.311, -1.540e-4
-1.310, -2.002e-4
-1.309, -2.465e-4
-1.308, -2.958e-4
-1.307, -3.452e-4
-1.306, -3.976e-4
-1.305, -4.500e-4
-1.304, -4.993e-4
-1.303, -5.486e-4
-1.302, -5.918e-4
-1.301, -6.380e-4
-1.300, -6.843e-4
-1.299, -7.305e-4
-1.298, -7.830e-4
-1.297, -8.354e-4
-1.296, -8.909e-4
-1.295, -9.433e-4
-1.294, -9.926e-4
-1.293, -1.039e-3
-1.292, -1.085e-3
-1.291, -1.131e-3
-1.290, -1.175e-3
-1.289, -1.221e-3
-1.288, -1.264e-3
-1.287, -1.310e-3
-1.286, -1.359e-3
-1.285, -1.403e-3
-1.284, -1.449e-3
-1.283, -1.495e-3
-1.282, -1.535e-3
-1.281, -1.575e-3
-1.280, -1.615e-3
-1.279, -1.646e-3
-1.278, -1.683e-3
-1.277, -1.720e-3
-1.276, -1.763e-3
-1.275, -1.810e-3
-1.274, -1.862e-3
-1.273, -1.914e-3
-1.272, -1.964e-3
-1.271, -2.016e-3
-1.270, -2.066e-3
-1.269, -2.112e-3
-1.268, -2.158e-3
-1.267, -2.207e-3
-1.266, -2.257e-3
-1.265, -2.306e-3
-1.264, -2.355e-3
-1.263, -2.402e-3
-1.262, -2.436e-3
-1.261, -2.469e-3
-1.260, -2.500e-3
-1.259, -2.528e-3
-1.258, -2.559e-3
-1.257, -2.590e-3
-1.256, -2.624e-3
-1.255, -2.657e-3
-1.254, -2.691e-3
-1.253, -2.722e-3
-1.252, -2.756e-3
-1.251, -2.787e-3
-1.250, -2.821e-3
-1.249, -2.861e-3
-1.248, -2.904e-3
-1.247, -2.950e-3
-1.246, -3.000e-3
-1.245, -3.049e-3
-1.244, -3.098e-3
-1.243, -3.148e-3
-1.242, -3.188e-3
-1.241, -3.231e-3
-1.240, -3.268e-3
-1.239, -3.305e-3
-1.238, -3.339e-3
-1.237, -3.373e-3
-1.236, -3.404e-3
-1.235, -3.431e-3
-1.234, -3.459e-3
-1.233, -3.484e-3
-1.232, -3.508e-3
-1.231, -3.530e-3
-1.230, -3.552e-3
-1.229, -3.576e-3
-1.228, -3.604e-3
-1.227, -3.632e-3
-1.226, -3.663e-3
-1.225, -3.700e-3
-1.224, -3.743e-3
-1.223, -3.789e-3
-1.222, -3.838e-3
-1.221, -3.885e-3
-1.220, -3.928e-3
-1.219, -3.971e-3
-1.218, -4.008e-3
-1.217, -4.048e-3
-1.216, -4.091e-3
-1.215, -4.131e-3
-1.214, -4.168e-3
-1.213, -4.205e-3
-1.212, -4.236e-3
-1.211, -4.261e-3
-1.210, -4.282e-3
-1.209, -4.301e-3
-1.208, -4.322e-3
-1.207, -4.347e-3
-1.206, -4.381e-3
-1.205, -4.415e-3
-1.204, -4.449e-3
-1.203, -4.486e-3
-1.202, -4.520e-3
-1.201, -4.557e-3
-1.200, -4.594e-3
-1.199, -4.631e-3
-1.198, -4.674e-3
-1.197, -4.720e-3
-1.196, -4.763e-3
-1.195, -4.806e-3
-1.194, -4.846e-3
-1.193, -4.883e-3
-1.192, -4.914e-3
-1.191, -4.948e-3
-1.190, -4.979e-3
-1.189, -5.010e-3
-1.188, -5.038e-3
-1.187, -5.072e-3
-1.186, -5.099e-3
-1.185, -5.130e-3
-1.184, -5.161e-3
-1.183, -5.192e-3
-1.182, -5.226e-3
-1.181, -5.257e-3
-1.180, -5.290e-3
-1.179, -5.324e-3
-1.178, -5.355e-3
-1.177, -5.389e-3
-1.176, -5.423e-3
-1.175, -5.460e-3
-1.174, -5.500e-3
-1.173, -5.543e-3
-1.172, -5.590e-3
-1.171, -5.636e-3
-1.170, -5.676e-3
-1.169, -5.713e-3
-1.168, -5.747e-3
-1.167, -5.784e-3
-1.166, -5.818e-3
-1.165, -5.855e-3
-1.164, -5.895e-3
-1.163, -5.935e-3
-1.162, -5.972e-3
-1.161, -6.006e-3
-1.160, -6.033e-3
-1.159, -6.058e-3
-1.158, -6.086e-3
-1.157, -6.117e-3
-1.156, -6.157e-3
-1.155, -6.206e-3
-1.154, -6.252e-3
-1.153, -6.299e-3
-1.152, -6.336e-3
-1.151, -6.366e-3
-1.150, -6.394e-3
-1.149, -6.425e-3
-1.148, -6.459e-3
-1.147, -6.499e-3
-1.146, -6.545e-3
-1.145, -6.588e-3
-1.144, -6.632e-3
-1.143, -6.672e-3
-1.142, -6.706e-3
-1.141, -6.736e-3
-1.140, -6.773e-3
-1.139, -6.810e-3
-1.138, -6.847e-3
-1.137, -6.888e-3
-1.136, -6.934e-3
-1.135, -6.980e-3
-1.134, -7.023e-3
-1.133, -7.069e-3
-1.132, -7.116e-3
-1.131, -7.156e-3
-1.130, -7.196e-3
-1.129, -7.239e-3
-1.128, -7.279e-3
-1.127, -7.322e-3
-1.126, -7.362e-3
-1.125, -7.405e-3
-1.124, -7.446e-3
-1.123, -7.486e-3
-1.122, -7.523e-3
-1.121, -7.557e-3
-1.120, -7.594e-3
-1.119, -7.627e-3
-1.118, -7.661e-3
-1.117, -7.692e-3
-1.116, -7.723e-3
-1.115, -7.757e-3
-1.114, -7.788e-3
-1.113, -7.828e-3
-1.112, -7.871e-3
-1.111, -7.920e-3
-1.110, -7.970e-3
-1.109, -8.019e-3
-1.108, -8.062e-3
-1.107, -8.105e-3
-1.106, -8.152e-3
-1.105, -8.201e-3
-1.104, -8.256e-3
-1.103, -8.315e-3
-1.102, -8.370e-3
-1.101, -8.420e-3
-1.100, -8.463e-3
-1.099, -8.494e-3
-1.098, -8.522e-3
-1.097, -8.546e-3
-1.096, -8.577e-3
-1.095, -8.614e-3
-1.094, -8.651e-3
-1.093, -8.688e-3
-1.092, -8.722e-3
-1.091, -8.747e-3
-1.090, -8.768e-3
-1.089, -8.790e-3
-1.088, -8.808e-3
-1.087, -8.836e-3
-1.086, -8.879e-3
-1.085, -8.932e-3
-1.084, -8.996e-3
-1.083, -9.058e-3
-1.082, -9.120e-3
-1.081, -9.178e-3
-1.080, -9.237e-3
-1.079, -9.292e-3
-1.078, -9.354e-3
-1.077, -9.425e-3
-1.076, -9.496e-3
-1.075, -9.564e-3
-1.074, -9.616e-3
-1.073, -9.659e-3
-1.072, -9.690e-3
-1.071, -9.712e-3
-1.070, -9.736e-3
-1.069, -9.764e-3
-1.068, -9.795e-3
-1.067, -9.832e-3
-1.066, -9.866e-3
-1.065, -9.900e-3
-1.064, -9.924e-3
-1.063, -9.952e-3
-1.062, -9.983e-3
-1.061, -1.002e-2
-1.060, -1.006e-2
-1.059, -1.011e-2
-1.058, -1.016e-2
-1.057, -1.021e-2
-1.056, -1.026e-2
-1.055, -1.032e-2
-1.054, -1.037e-2
-1.053, -1.043e-2
-1.052, -1.049e-2
-1.051, -1.054e-2
-1.050, -1.059e-2
-1.049, -1.063e-2
-1.048, -1.066e-2
-1.047, -1.069e-2
-1.046, -1.072e-2
-1.045, -1.075e-2
-1.044, -1.077e-2
-1.043, -1.080e-2
-1.042, -1.082e-2
-1.041, -1.084e-2
-1.040, -1.085e-2
-1.039, -1.086e-2
-1.038, -1.087e-2
-1.037, -1.089e-2
-1.036, -1.091e-2
-1.035, -1.096e-2
-1.034, -1.101e-2
-1.033, -1.107e-2
-1.032, -1.113e-2
-1.031, -1.119e-2
-1.030, -1.123e-2
-1.029, -1.128e-2
-1.028, -1.134e-2
-1.027, -1.140e-2
-1.026, -1.146e-2
-1.025, -1.152e-2
-1.024, -1.159e-2
-1.023, -1.164e-2
-1.022, -1.167e-2
-1.021, -1.169e-2
-1.020, -1.171e-2
-1.019, -1.174e-2
-1.018, -1.177e-2
-1.017, -1.181e-2
-1.016, -1.186e-2
-1.015, -1.190e-2
-1.014, -1.193e-2
-1.013, -1.196e-2
-1.012, -1.198e-2
-1.011, -1.201e-2
-1.010, -1.205e-2
-1.009, -1.209e-2
-1.008, -1.215e-2
-1.007, -1.222e-2
-1.006, -1.226e-2
-1.005, -1.231e-2
-1.004, -1.235e-2
-1.003, -1.239e-2
-1.002, -1.244e-2
-1.001, -1.249e-2
