Apr. 22, 2025   09:57:35
Cyclic Voltammetry
File: c:/users/guazh/data/banditlqround7_x0exp590_r20/2025-04-16-exp1155\exp1155-2025-04-22t09_46_37-h2koh\exp1155_cv_sr_500mvs_efin_-1500mv.bin
Data Source:  Experiment
Instrument Model:  CHI760E
Header: CV ran at 500 mVs
Note: 

Init E (V) = -1
High E (V) = -1
Low E (V) = -1.5
Final E (V) = -1
Init P/N = N
Scan Rate (V/s) = 0.5
Segment = 3
Sample Interval (V) = 0.001
Quiet Time (sec) = 2
Sensitivity (A/V) = 0.01
Comp R (ohm) = 1.4

Results:

Channel 1:
Segment 1:

Segment 2:

Segment 3:

Potential/V, Current/A

-1.000, -1.381e-3
-1.001, -1.230e-3
-1.002, -1.097e-3
-1.003, -9.679e-4
-1.004, -8.508e-4
-1.005, -7.336e-4
-1.006, -6.257e-4
-1.007, -5.147e-4
-1.008, -4.068e-4
-1.009, -3.020e-4
-1.010, -2.002e-4
-1.011, -1.016e-4
-1.012, -6.010e-6
-1.013, 8.340e-5
-1.014, 1.728e-4
-1.015, 2.622e-4
-1.016, 3.516e-4
-1.017, 4.410e-4
-1.018, 5.305e-4
-1.019, 6.168e-4
-1.020, 7.000e-4
-1.021, 7.771e-4
-1.022, 8.542e-4
-1.023, 9.343e-4
-1.024, 1.011e-3
-1.025, 1.092e-3
-1.026, 1.169e-3
-1.027, 1.246e-3
-1.028, 1.317e-3
-1.029, 1.391e-3
-1.030, 1.458e-3
-1.031, 1.529e-3
-1.032, 1.600e-3
-1.033, 1.674e-3
-1.034, 1.745e-3
-1.035, 1.816e-3
-1.036, 1.884e-3
-1.037, 1.952e-3
-1.038, 2.017e-3
-1.039, 2.081e-3
-1.040, 2.146e-3
-1.041, 2.211e-3
-1.042, 2.279e-3
-1.043, 2.346e-3
-1.044, 2.411e-3
-1.045, 2.473e-3
-1.046, 2.531e-3
-1.047, 2.587e-3
-1.048, 2.645e-3
-1.049, 2.710e-3
-1.050, 2.772e-3
-1.051, 2.840e-3
-1.052, 2.904e-3
-1.053, 2.966e-3
-1.054, 3.028e-3
-1.055, 3.080e-3
-1.056, 3.136e-3
-1.057, 3.197e-3
-1.058, 3.259e-3
-1.059, 3.324e-3
-1.060, 3.385e-3
-1.061, 3.441e-3
-1.062, 3.493e-3
-1.063, 3.549e-3
-1.064, 3.598e-3
-1.065, 3.654e-3
-1.066, 3.715e-3
-1.067, 3.783e-3
-1.068, 3.848e-3
-1.069, 3.910e-3
-1.070, 3.965e-3
-1.071, 4.021e-3
-1.072, 4.079e-3
-1.073, 4.141e-3
-1.074, 4.206e-3
-1.075, 4.270e-3
-1.076, 4.332e-3
-1.077, 4.391e-3
-1.078, 4.446e-3
-1.079, 4.492e-3
-1.080, 4.542e-3
-1.081, 4.594e-3
-1.082, 4.649e-3
-1.083, 4.708e-3
-1.084, 4.767e-3
-1.085, 4.825e-3
-1.086, 4.884e-3
-1.087, 4.942e-3
-1.088, 4.998e-3
-1.089, 5.056e-3
-1.090, 5.118e-3
-1.091, 5.180e-3
-1.092, 5.245e-3
-1.093, 5.309e-3
-1.094, 5.371e-3
-1.095, 5.426e-3
-1.096, 5.482e-3
-1.097, 5.537e-3
-1.098, 5.593e-3
-1.099, 5.651e-3
-1.100, 5.713e-3
-1.101, 5.772e-3
-1.102, 5.830e-3
-1.103, 5.886e-3
-1.104, 5.938e-3
-1.105, 5.997e-3
-1.106, 6.052e-3
-1.107, 6.114e-3
-1.108, 6.173e-3
-1.109, 6.234e-3
-1.110, 6.299e-3
-1.111, 6.361e-3
-1.112, 6.422e-3
-1.113, 6.484e-3
-1.114, 6.539e-3
-1.115, 6.595e-3
-1.116, 6.660e-3
-1.117, 6.721e-3
-1.118, 6.786e-3
-1.119, 6.848e-3
-1.120, 6.906e-3
-1.121, 6.965e-3
-1.122, 7.017e-3
-1.123, 7.070e-3
-1.124, 7.128e-3
-1.125, 7.190e-3
-1.126, 7.252e-3
-1.127, 7.313e-3
-1.128, 7.369e-3
-1.129, 7.421e-3
-1.130, 7.471e-3
-1.131, 7.517e-3
-1.132, 7.575e-3
-1.133, 7.643e-3
-1.134, 7.714e-3
-1.135, 7.782e-3
-1.136, 7.850e-3
-1.137, 7.918e-3
-1.138, 7.979e-3
-1.139, 8.038e-3
-1.140, 8.093e-3
-1.141, 8.149e-3
-1.142, 8.201e-3
-1.143, 8.247e-3
-1.144, 8.297e-3
-1.145, 8.355e-3
-1.146, 8.408e-3
-1.147, 8.466e-3
-1.148, 8.537e-3
-1.149, 8.608e-3
-1.150, 8.673e-3
-1.151, 8.738e-3
-1.152, 8.799e-3
-1.153, 8.861e-3
-1.154, 8.920e-3
-1.155, 8.972e-3
-1.156, 9.018e-3
-1.157, 9.068e-3
-1.158, 9.123e-3
-1.159, 9.185e-3
-1.160, 9.243e-3
-1.161, 9.299e-3
-1.162, 9.345e-3
-1.163, 9.391e-3
-1.164, 9.441e-3
-1.165, 9.493e-3
-1.166, 9.552e-3
-1.167, 9.610e-3
-1.168, 9.672e-3
-1.169, 9.727e-3
-1.170, 9.774e-3
-1.171, 9.826e-3
-1.172, 9.869e-3
-1.173, 9.922e-3
-1.174, 9.968e-3
-1.175, 1.001e-2
-1.176, 1.006e-2
-1.177, 1.011e-2
-1.178, 1.016e-2
-1.179, 1.020e-2
-1.180, 1.024e-2
-1.181, 1.028e-2
-1.182, 1.032e-2
-1.183, 1.036e-2
-1.184, 1.040e-2
-1.185, 1.045e-2
-1.186, 1.050e-2
-1.187, 1.054e-2
-1.188, 1.059e-2
-1.189, 1.064e-2
-1.190, 1.068e-2
-1.191, 1.074e-2
-1.192, 1.080e-2
-1.193, 1.087e-2
-1.194, 1.093e-2
-1.195, 1.099e-2
-1.196, 1.104e-2
-1.197, 1.109e-2
-1.198, 1.114e-2
-1.199, 1.119e-2
-1.200, 1.124e-2
-1.201, 1.130e-2
-1.202, 1.136e-2
-1.203, 1.142e-2
-1.204, 1.148e-2
-1.205, 1.153e-2
-1.206, 1.159e-2
-1.207, 1.165e-2
-1.208, 1.170e-2
-1.209, 1.176e-2
-1.210, 1.181e-2
-1.211, 1.186e-2
-1.212, 1.191e-2
-1.213, 1.195e-2
-1.214, 1.199e-2
-1.215, 1.203e-2
-1.216, 1.209e-2
-1.217, 1.215e-2
-1.218, 1.221e-2
-1.219, 1.227e-2
-1.220, 1.233e-2
-1.221, 1.238e-2
-1.222, 1.243e-2
-1.223, 1.247e-2
-1.224, 1.251e-2
-1.225, 1.256e-2
-1.226, 1.261e-2
-1.227, 1.265e-2
-1.228, 1.270e-2
-1.229, 1.275e-2
-1.230, 1.280e-2
-1.231, 1.283e-2
-1.232, 1.288e-2
-1.233, 1.294e-2
-1.234, 1.300e-2
-1.235, 1.306e-2
-1.236, 1.312e-2
-1.237, 1.316e-2
-1.238, 1.321e-2
-1.239, 1.325e-2
-1.240, 1.330e-2
-1.241, 1.334e-2
-1.242, 1.339e-2
-1.243, 1.344e-2
-1.244, 1.349e-2
-1.245, 1.353e-2
-1.246, 1.356e-2
-1.247, 1.359e-2
-1.248, 1.364e-2
-1.249, 1.369e-2
-1.250, 1.374e-2
-1.251, 1.379e-2
-1.252, 1.383e-2
-1.253, 1.388e-2
-1.254, 1.393e-2
-1.255, 1.397e-2
-1.256, 1.401e-2
-1.257, 1.404e-2
-1.258, 1.408e-2
-1.259, 1.413e-2
-1.260, 1.419e-2
-1.261, 1.423e-2
-1.262, 1.427e-2
-1.263, 1.431e-2
-1.264, 1.434e-2
-1.265, 1.437e-2
-1.266, 1.440e-2
-1.267, 1.444e-2
-1.268, 1.448e-2
-1.269, 1.453e-2
-1.270, 1.458e-2
-1.271, 1.462e-2
-1.272, 1.466e-2
-1.273, 1.471e-2
-1.274, 1.476e-2
-1.275, 1.482e-2
-1.276, 1.487e-2
-1.277, 1.492e-2
-1.278, 1.497e-2
-1.279, 1.501e-2
-1.280, 1.506e-2
-1.281, 1.511e-2
-1.282, 1.516e-2
-1.283, 1.521e-2
-1.284, 1.526e-2
-1.285, 1.530e-2
-1.286, 1.534e-2
-1.287, 1.538e-2
-1.288, 1.541e-2
-1.289, 1.544e-2
-1.290, 1.545e-2
-1.291, 1.545e-2
-1.292, 1.548e-2
-1.293, 1.551e-2
-1.294, 1.555e-2
-1.295, 1.559e-2
-1.296, 1.562e-2
-1.297, 1.565e-2
-1.298, 1.569e-2
-1.299, 1.574e-2
-1.300, 1.578e-2
-1.301, 1.582e-2
-1.302, 1.586e-2
-1.303, 1.590e-2
-1.304, 1.593e-2
-1.305, 1.597e-2
-1.306, 1.601e-2
-1.307, 1.606e-2
-1.308, 1.611e-2
-1.309, 1.615e-2
-1.310, 1.620e-2
-1.311, 1.623e-2
-1.312, 1.625e-2
-1.313, 1.629e-2
-1.314, 1.633e-2
-1.315, 1.637e-2
-1.316, 1.641e-2
-1.317, 1.645e-2
-1.318, 1.649e-2
-1.319, 1.652e-2
-1.320, 1.656e-2
-1.321, 1.660e-2
-1.322, 1.663e-2
-1.323, 1.666e-2
-1.324, 1.668e-2
-1.325, 1.670e-2
-1.326, 1.672e-2
-1.327, 1.675e-2
-1.328, 1.679e-2
-1.329, 1.683e-2
-1.330, 1.688e-2
-1.331, 1.691e-2
-1.332, 1.695e-2
-1.333, 1.700e-2
-1.334, 1.704e-2
-1.335, 1.709e-2
-1.336, 1.714e-2
-1.337, 1.718e-2
-1.338, 1.723e-2
-1.339, 1.728e-2
-1.340, 1.734e-2
-1.341, 1.739e-2
-1.342, 1.744e-2
-1.343, 1.748e-2
-1.344, 1.750e-2
-1.345, 1.752e-2
-1.346, 1.753e-2
-1.347, 1.754e-2
-1.348, 1.756e-2
-1.349, 1.760e-2
-1.350, 1.765e-2
-1.351, 1.769e-2
-1.352, 1.772e-2
-1.353, 1.776e-2
-1.354, 1.780e-2
-1.355, 1.784e-2
-1.356, 1.787e-2
-1.357, 1.790e-2
-1.358, 1.793e-2
-1.359, 1.797e-2
-1.360, 1.800e-2
-1.361, 1.803e-2
-1.362, 1.805e-2
-1.363, 1.809e-2
-1.364, 1.814e-2
-1.365, 1.820e-2
-1.366, 1.825e-2
-1.367, 1.831e-2
-1.368, 1.836e-2
-1.369, 1.841e-2
-1.370, 1.846e-2
-1.371, 1.850e-2
-1.372, 1.853e-2
-1.373, 1.856e-2
-1.374, 1.861e-2
-1.375, 1.866e-2
-1.376, 1.870e-2
-1.377, 1.874e-2
-1.378, 1.878e-2
-1.379, 1.880e-2
-1.380, 1.881e-2
-1.381, 1.882e-2
-1.382, 1.883e-2
-1.383, 1.881e-2
-1.384, 1.881e-2
-1.385, 1.883e-2
-1.386, 1.885e-2
-1.387, 1.887e-2
-1.388, 1.889e-2
-1.389, 1.892e-2
-1.390, 1.895e-2
-1.391, 1.899e-2
-1.392, 1.903e-2
-1.393, 1.908e-2
-1.394, 1.912e-2
-1.395, 1.916e-2
-1.396, 1.920e-2
-1.397, 1.924e-2
-1.398, 1.928e-2
-1.399, 1.932e-2
-1.400, 1.937e-2
-1.401, 1.942e-2
-1.402, 1.946e-2
-1.403, 1.950e-2
-1.404, 1.954e-2
-1.405, 1.958e-2
-1.406, 1.961e-2
-1.407, 1.964e-2
-1.408, 1.966e-2
-1.409, 1.968e-2
-1.410, 1.970e-2
-1.411, 1.972e-2
-1.412, 1.975e-2
-1.413, 1.977e-2
-1.414, 1.976e-2
-1.415, 1.980e-2
-1.416, 1.984e-2
-1.417, 1.988e-2
-1.418, 1.992e-2
-1.419, 1.995e-2
-1.420, 1.998e-2
-1.421, 2.000e-2
-1.422, 2.004e-2
-1.423, 2.008e-2
-1.424, 2.013e-2
-1.425, 2.018e-2
-1.426, 2.026e-2
-1.427, 2.032e-2
-1.428, 2.036e-2
-1.429, 2.039e-2
-1.430, 2.042e-2
-1.431, 2.044e-2
-1.432, 2.050e-2
-1.433, 2.056e-2
-1.434, 2.062e-2
-1.435, 2.064e-2
-1.436, 2.067e-2
-1.437, 2.068e-2
-1.438, 2.070e-2
-1.439, 2.070e-2
-1.440, 2.071e-2
-1.441, 2.072e-2
-1.442, 2.072e-2
-1.443, 2.070e-2
-1.444, 2.068e-2
-1.445, 2.067e-2
-1.446, 2.068e-2
-1.447, 2.069e-2
-1.448, 2.071e-2
-1.449, 2.073e-2
-1.450, 2.076e-2
-1.451, 2.079e-2
-1.452, 2.083e-2
-1.453, 2.087e-2
-1.454, 2.091e-2
-1.455, 2.094e-2
-1.456, 2.099e-2
-1.457, 2.105e-2
-1.458, 2.112e-2
-1.459, 2.118e-2
-1.460, 2.122e-2
-1.461, 2.125e-2
-1.462, 2.127e-2
-1.463, 2.130e-2
-1.464, 2.134e-2
-1.465, 2.136e-2
-1.466, 2.136e-2
-1.467, 2.134e-2
-1.468, 2.134e-2
-1.469, 2.135e-2
-1.470, 2.137e-2
-1.471, 2.140e-2
-1.472, 2.142e-2
-1.473, 2.145e-2
-1.474, 2.147e-2
-1.475, 2.150e-2
-1.476, 2.153e-2
-1.477, 2.155e-2
-1.478, 2.156e-2
-1.479, 2.158e-2
-1.480, 2.160e-2
-1.481, 2.163e-2
-1.482, 2.167e-2
-1.483, 2.171e-2
-1.484, 2.176e-2
-1.485, 2.182e-2
-1.486, 2.188e-2
-1.487, 2.192e-2
-1.488, 2.195e-2
-1.489, 2.197e-2
-1.490, 2.199e-2
-1.491, 2.201e-2
-1.492, 2.204e-2
-1.493, 2.206e-2
-1.494, 2.208e-2
-1.495, 2.209e-2
-1.496, 2.210e-2
-1.497, 2.212e-2
-1.498, 2.214e-2
-1.499, 2.216e-2
-1.500, 2.208e-2
-1.499, 2.180e-2
-1.498, 2.155e-2
-1.497, 2.130e-2
-1.496, 2.106e-2
-1.495, 2.082e-2
-1.494, 2.058e-2
-1.493, 2.034e-2
-1.492, 2.011e-2
-1.491, 1.990e-2
-1.490, 1.970e-2
-1.489, 1.950e-2
-1.488, 1.932e-2
-1.487, 1.913e-2
-1.486, 1.893e-2
-1.485, 1.873e-2
-1.484, 1.855e-2
-1.483, 1.837e-2
-1.482, 1.818e-2
-1.481, 1.799e-2
-1.480, 1.781e-2
-1.479, 1.762e-2
-1.478, 1.744e-2
-1.477, 1.725e-2
-1.476, 1.706e-2
-1.475, 1.687e-2
-1.474, 1.667e-2
-1.473, 1.647e-2
-1.472, 1.628e-2
-1.471, 1.608e-2
-1.470, 1.589e-2
-1.469, 1.570e-2
-1.468, 1.552e-2
-1.467, 1.535e-2
-1.466, 1.515e-2
-1.465, 1.498e-2
-1.464, 1.484e-2
-1.463, 1.470e-2
-1.462, 1.455e-2
-1.461, 1.440e-2
-1.460, 1.424e-2
-1.459, 1.410e-2
-1.458, 1.395e-2
-1.457, 1.381e-2
-1.456, 1.366e-2
-1.455, 1.350e-2
-1.454, 1.335e-2
-1.453, 1.320e-2
-1.452, 1.305e-2
-1.451, 1.291e-2
-1.450, 1.278e-2
-1.449, 1.264e-2
-1.448, 1.251e-2
-1.447, 1.237e-2
-1.446, 1.223e-2
-1.445, 1.207e-2
-1.444, 1.191e-2
-1.443, 1.177e-2
-1.442, 1.164e-2
-1.441, 1.150e-2
-1.440, 1.137e-2
-1.439, 1.124e-2
-1.438, 1.110e-2
-1.437, 1.097e-2
-1.436, 1.084e-2
-1.435, 1.071e-2
-1.434, 1.058e-2
-1.433, 1.045e-2
-1.432, 1.033e-2
-1.431, 1.021e-2
-1.430, 1.008e-2
-1.429, 9.952e-3
-1.428, 9.832e-3
-1.427, 9.718e-3
-1.426, 9.610e-3
-1.425, 9.499e-3
-1.424, 9.388e-3
-1.423, 9.274e-3
-1.422, 9.160e-3
-1.421, 9.049e-3
-1.420, 8.932e-3
-1.419, 8.815e-3
-1.418, 8.704e-3
-1.417, 8.590e-3
-1.416, 8.482e-3
-1.415, 8.368e-3
-1.414, 8.257e-3
-1.413, 8.143e-3
-1.412, 8.029e-3
-1.411, 7.918e-3
-1.410, 7.810e-3
-1.409, 7.711e-3
-1.408, 7.622e-3
-1.407, 7.529e-3
-1.406, 7.437e-3
-1.405, 7.332e-3
-1.404, 7.212e-3
-1.403, 7.079e-3
-1.402, 6.956e-3
-1.401, 6.851e-3
-1.400, 6.752e-3
-1.399, 6.650e-3
-1.398, 6.552e-3
-1.397, 6.456e-3
-1.396, 6.361e-3
-1.395, 6.259e-3
-1.394, 6.160e-3
-1.393, 6.055e-3
-1.392, 5.957e-3
-1.391, 5.858e-3
-1.390, 5.753e-3
-1.389, 5.648e-3
-1.388, 5.550e-3
-1.387, 5.451e-3
-1.386, 5.352e-3
-1.385, 5.263e-3
-1.384, 5.180e-3
-1.383, 5.097e-3
-1.382, 5.016e-3
-1.381, 4.936e-3
-1.380, 4.850e-3
-1.379, 4.760e-3
-1.378, 4.668e-3
-1.377, 4.579e-3
-1.376, 4.495e-3
-1.375, 4.406e-3
-1.374, 4.323e-3
-1.373, 4.236e-3
-1.372, 4.147e-3
-1.371, 4.054e-3
-1.370, 3.962e-3
-1.369, 3.866e-3
-1.368, 3.780e-3
-1.367, 3.694e-3
-1.366, 3.614e-3
-1.365, 3.533e-3
-1.364, 3.444e-3
-1.363, 3.355e-3
-1.362, 3.265e-3
-1.361, 3.179e-3
-1.360, 3.096e-3
-1.359, 3.019e-3
-1.358, 2.938e-3
-1.357, 2.858e-3
-1.356, 2.781e-3
-1.355, 2.698e-3
-1.354, 2.621e-3
-1.353, 2.538e-3
-1.352, 2.457e-3
-1.351, 2.383e-3
-1.350, 2.306e-3
-1.349, 2.232e-3
-1.348, 2.161e-3
-1.347, 2.087e-3
-1.346, 2.010e-3
-1.345, 1.933e-3
-1.344, 1.856e-3
-1.343, 1.782e-3
-1.342, 1.708e-3
-1.341, 1.637e-3
-1.340, 1.566e-3
-1.339, 1.495e-3
-1.338, 1.425e-3
-1.337, 1.347e-3
-1.336, 1.273e-3
-1.335, 1.203e-3
-1.334, 1.135e-3
-1.333, 1.070e-3
-1.332, 1.002e-3
-1.331, 9.343e-4
-1.330, 8.665e-4
-1.329, 7.925e-4
-1.328, 7.216e-4
-1.327, 6.507e-4
-1.326, 5.859e-4
-1.325, 5.212e-4
-1.324, 4.565e-4
-1.323, 3.948e-4
-1.322, 3.270e-4
-1.321, 2.591e-4
-1.320, 1.913e-4
-1.319, 1.235e-4
-1.318, 5.873e-5
-1.317, -2.927e-6
-1.316, -6.459e-5
-1.315, -1.263e-4
-1.314, -1.879e-4
-1.313, -2.527e-4
-1.312, -3.174e-4
-1.311, -3.821e-4
-1.310, -4.469e-4
-1.309, -5.055e-4
-1.308, -5.641e-4
-1.307, -6.226e-4
-1.306, -6.843e-4
-1.305, -7.521e-4
-1.304, -8.169e-4
-1.303, -8.816e-4
-1.302, -9.464e-4
-1.301, -1.005e-3
-1.300, -1.067e-3
-1.299, -1.119e-3
-1.298, -1.175e-3
-1.297, -1.233e-3
-1.296, -1.292e-3
-1.295, -1.353e-3
-1.294, -1.412e-3
-1.293, -1.470e-3
-1.292, -1.529e-3
-1.291, -1.581e-3
-1.290, -1.637e-3
-1.289, -1.696e-3
-1.288, -1.754e-3
-1.287, -1.813e-3
-1.286, -1.868e-3
-1.285, -1.924e-3
-1.284, -1.976e-3
-1.283, -2.029e-3
-1.282, -2.084e-3
-1.281, -2.140e-3
-1.280, -2.198e-3
-1.279, -2.257e-3
-1.278, -2.315e-3
-1.277, -2.374e-3
-1.276, -2.426e-3
-1.275, -2.479e-3
-1.274, -2.528e-3
-1.273, -2.577e-3
-1.272, -2.633e-3
-1.271, -2.688e-3
-1.270, -2.744e-3
-1.269, -2.796e-3
-1.268, -2.852e-3
-1.267, -2.904e-3
-1.266, -2.953e-3
-1.265, -3.006e-3
-1.264, -3.061e-3
-1.263, -3.114e-3
-1.262, -3.169e-3
-1.261, -3.222e-3
-1.260, -3.274e-3
-1.259, -3.323e-3
-1.258, -3.373e-3
-1.257, -3.416e-3
-1.256, -3.465e-3
-1.255, -3.512e-3
-1.254, -3.561e-3
-1.253, -3.607e-3
-1.252, -3.656e-3
-1.251, -3.703e-3
-1.250, -3.749e-3
-1.249, -3.795e-3
-1.248, -3.848e-3
-1.247, -3.897e-3
-1.246, -3.952e-3
-1.245, -4.008e-3
-1.244, -4.063e-3
-1.243, -4.116e-3
-1.242, -4.162e-3
-1.241, -4.208e-3
-1.240, -4.255e-3
-1.239, -4.307e-3
-1.238, -4.359e-3
-1.237, -4.412e-3
-1.236, -4.467e-3
-1.235, -4.520e-3
-1.234, -4.572e-3
-1.233, -4.621e-3
-1.232, -4.671e-3
-1.231, -4.723e-3
-1.230, -4.779e-3
-1.229, -4.840e-3
-1.228, -4.896e-3
-1.227, -4.951e-3
-1.226, -5.004e-3
-1.225, -5.053e-3
-1.224, -5.102e-3
-1.223, -5.155e-3
-1.222, -5.210e-3
-1.221, -5.260e-3
-1.220, -5.312e-3
-1.219, -5.368e-3
-1.218, -5.417e-3
-1.217, -5.463e-3
-1.216, -5.509e-3
-1.215, -5.556e-3
-1.214, -5.605e-3
-1.213, -5.657e-3
-1.212, -5.710e-3
-1.211, -5.759e-3
-1.210, -5.808e-3
-1.209, -5.849e-3
-1.208, -5.892e-3
-1.207, -5.944e-3
-1.206, -5.993e-3
-1.205, -6.049e-3
-1.204, -6.107e-3
-1.203, -6.166e-3
-1.202, -6.222e-3
-1.201, -6.271e-3
-1.200, -6.326e-3
-1.199, -6.376e-3
-1.198, -6.425e-3
-1.197, -6.477e-3
-1.196, -6.530e-3
-1.195, -6.588e-3
-1.194, -6.647e-3
-1.193, -6.703e-3
-1.192, -6.758e-3
-1.191, -6.814e-3
-1.190, -6.869e-3
-1.189, -6.928e-3
-1.188, -6.989e-3
-1.187, -7.054e-3
-1.186, -7.116e-3
-1.185, -7.174e-3
-1.184, -7.230e-3
-1.183, -7.288e-3
-1.182, -7.338e-3
-1.181, -7.384e-3
-1.180, -7.436e-3
-1.179, -7.489e-3
-1.178, -7.544e-3
-1.177, -7.597e-3
-1.176, -7.643e-3
-1.175, -7.686e-3
-1.174, -7.732e-3
-1.173, -7.779e-3
-1.172, -7.831e-3
-1.171, -7.883e-3
-1.170, -7.939e-3
-1.169, -7.994e-3
-1.168, -8.044e-3
-1.167, -8.096e-3
-1.166, -8.145e-3
-1.165, -8.198e-3
-1.164, -8.253e-3
-1.163, -8.309e-3
-1.162, -8.374e-3
-1.161, -8.435e-3
-1.160, -8.481e-3
-1.159, -8.534e-3
-1.158, -8.589e-3
-1.157, -8.651e-3
-1.156, -8.710e-3
-1.155, -8.765e-3
-1.154, -8.821e-3
-1.153, -8.882e-3
-1.152, -8.941e-3
-1.151, -8.999e-3
-1.150, -9.052e-3
-1.149, -9.104e-3
-1.148, -9.163e-3
-1.147, -9.218e-3
-1.146, -9.268e-3
-1.145, -9.320e-3
-1.144, -9.369e-3
-1.143, -9.422e-3
-1.142, -9.471e-3
-1.141, -9.517e-3
-1.140, -9.561e-3
-1.139, -9.601e-3
-1.138, -9.644e-3
-1.137, -9.696e-3
-1.136, -9.746e-3
-1.135, -9.795e-3
-1.134, -9.838e-3
-1.133, -9.881e-3
-1.132, -9.927e-3
-1.131, -9.977e-3
-1.130, -1.003e-2
-1.129, -1.008e-2
-1.128, -1.013e-2
-1.127, -1.018e-2
-1.126, -1.025e-2
-1.125, -1.031e-2
-1.124, -1.036e-2
-1.123, -1.041e-2
-1.122, -1.045e-2
-1.121, -1.049e-2
-1.120, -1.054e-2
-1.119, -1.059e-2
-1.118, -1.064e-2
-1.117, -1.069e-2
-1.116, -1.073e-2
-1.115, -1.078e-2
-1.114, -1.082e-2
-1.113, -1.087e-2
-1.112, -1.093e-2
-1.111, -1.099e-2
-1.110, -1.105e-2
-1.109, -1.110e-2
-1.108, -1.115e-2
-1.107, -1.121e-2
-1.106, -1.127e-2
-1.105, -1.134e-2
-1.104, -1.140e-2
-1.103, -1.144e-2
-1.102, -1.149e-2
-1.101, -1.154e-2
-1.100, -1.160e-2
-1.099, -1.164e-2
-1.098, -1.168e-2
-1.097, -1.173e-2
-1.096, -1.177e-2
-1.095, -1.182e-2
-1.094, -1.186e-2
-1.093, -1.191e-2
-1.092, -1.195e-2
-1.091, -1.200e-2
-1.090, -1.204e-2
-1.089, -1.209e-2
-1.088, -1.213e-2
-1.087, -1.218e-2
-1.086, -1.223e-2
-1.085, -1.229e-2
-1.084, -1.234e-2
-1.083, -1.238e-2
-1.082, -1.242e-2
-1.081, -1.247e-2
-1.080, -1.252e-2
-1.079, -1.258e-2
-1.078, -1.264e-2
-1.077, -1.270e-2
-1.076, -1.275e-2
-1.075, -1.279e-2
-1.074, -1.284e-2
-1.073, -1.288e-2
-1.072, -1.292e-2
-1.071, -1.297e-2
-1.070, -1.302e-2
-1.069, -1.308e-2
-1.068, -1.313e-2
-1.067, -1.320e-2
-1.066, -1.325e-2
-1.065, -1.331e-2
-1.064, -1.336e-2
-1.063, -1.341e-2
-1.062, -1.345e-2
-1.061, -1.350e-2
-1.060, -1.355e-2
-1.059, -1.359e-2
-1.058, -1.363e-2
-1.057, -1.367e-2
-1.056, -1.371e-2
-1.055, -1.376e-2
-1.054, -1.379e-2
-1.053, -1.384e-2
-1.052, -1.388e-2
-1.051, -1.393e-2
-1.050, -1.398e-2
-1.049, -1.402e-2
-1.048, -1.405e-2
-1.047, -1.409e-2
-1.046, -1.413e-2
-1.045, -1.417e-2
-1.044, -1.421e-2
-1.043, -1.424e-2
-1.042, -1.427e-2
-1.041, -1.429e-2
-1.040, -1.432e-2
-1.039, -1.436e-2
-1.038, -1.439e-2
-1.037, -1.444e-2
-1.036, -1.449e-2
-1.035, -1.453e-2
-1.034, -1.457e-2
-1.033, -1.461e-2
-1.032, -1.465e-2
-1.031, -1.469e-2
-1.030, -1.474e-2
-1.029, -1.479e-2
-1.028, -1.483e-2
-1.027, -1.486e-2
-1.026, -1.488e-2
-1.025, -1.491e-2
-1.024, -1.493e-2
-1.023, -1.495e-2
-1.022, -1.498e-2
-1.021, -1.501e-2
-1.020, -1.505e-2
-1.019, -1.509e-2
-1.018, -1.513e-2
-1.017, -1.517e-2
-1.016, -1.520e-2
-1.015, -1.524e-2
-1.014, -1.528e-2
-1.013, -1.533e-2
-1.012, -1.538e-2
-1.011, -1.545e-2
-1.010, -1.551e-2
-1.009, -1.558e-2
-1.008, -1.563e-2
-1.007, -1.567e-2
-1.006, -1.571e-2
-1.005, -1.574e-2
-1.004, -1.577e-2
-1.003, -1.580e-2
-1.002, -1.581e-2
-1.001, -1.582e-2
