Potential V vs RHE, Current mA cm-2
0.4132999999999999,-0.00904990818523664
0.4122999999999999,-0.010777270682371849
0.4112999999999999,-0.011423793746410171
0.4102999999999999,-0.01178878926177535
0.4092999999999999,-0.012077390366947818
0.4082999999999999,-0.012286767639327845
0.4072999999999999,-0.012473509530910027
0.4062999999999999,-0.012617810083496262
0.4052999999999999,-0.012759281213482765
0.4042999999999999,-0.012906411188668731
0.4032999999999999,-0.013002611557059552
0.4022999999999999,-0.01312569144014781
0.4012999999999999,-0.013223306519838498
0.4002999999999999,-0.013312433331729994
0.3992999999999999,-0.013439757348717848
0.3982999999999999,-0.01351332233631083
0.3972999999999999,-0.01358688732390381
0.3962999999999999,-0.01366752586799612
0.3952999999999999,-0.0137410908555891
0.3942999999999999,-0.013821729399681406
0.39329999999999987,-0.01387831785167601
0.39229999999999987,-0.013939150437570205
0.39129999999999987,-0.013995738889564808
0.39029999999999987,-0.01407213329975752
0.38929999999999987,-0.014118818772653067
0.38829999999999987,-0.014189554337646317
0.38729999999999987,-0.014231995676642267
0.38629999999999987,-0.01430273124163552
0.38529999999999986,-0.014345172580631472
0.38429999999999986,-0.014401761032626074
0.38329999999999986,-0.014458349484620674
0.38229999999999986,-0.014486643710617976
0.38129999999999986,-0.014529085049613928
0.38029999999999986,-0.014599820614607179
0.37929999999999986,-0.01465640906660178
0.37829999999999986,-0.014727144631595034
0.37729999999999986,-0.014769585970590984
0.37629999999999986,-0.014812027309586936
0.37529999999999986,-0.014868615761581536
0.37429999999999986,-0.014911057100577486
0.37329999999999985,-0.014967645552572089
0.37229999999999985,-0.01501008689156804
0.37129999999999985,-0.01503838111756534
0.37029999999999985,-0.015109116682558592
0.36929999999999985,-0.015151558021554544
0.36829999999999985,-0.015179852247551842
0.36729999999999985,-0.015236440699546445
0.36629999999999985,-0.015264734925543746
0.36529999999999985,-0.015307176264539698
0.36429999999999985,-0.015349617603535646
0.36329999999999985,-0.0153637647165343
0.36229999999999984,-0.015420353168528897
0.36129999999999984,-0.015476941620523503
0.36029999999999984,-0.015519382959519455
0.35929999999999984,-0.015575971411514053
0.35829999999999984,-0.015590118524512706
0.35729999999999984,-0.015646706976507305
0.35629999999999984,-0.015675001202504608
0.35529999999999984,-0.01568914831550326
0.35429999999999984,-0.01573158965449921
0.35329999999999984,-0.015774030993495156
0.35229999999999984,-0.01581647233249111
0.35129999999999983,-0.01584476655848841
0.35029999999999983,-0.01588720789748436
0.34929999999999983,-0.01591550212348166
0.34829999999999983,-0.01597209057547626
0.34729999999999983,-0.016042826140469518
0.34629999999999983,-0.016056973253468165
0.34529999999999983,-0.01608526747946547
0.34429999999999983,-0.01611356170546277
0.3432999999999998,-0.016170150157457368
0.3422999999999998,-0.01619844438345467
0.3412999999999998,-0.016226738609451972
0.3402999999999998,-0.01629747417444522
0.3392999999999998,-0.016311621287443873
0.3382999999999998,-0.016354062626439823
0.3372999999999998,-0.016396503965435776
0.3362999999999998,-0.016410651078434424
0.3352999999999998,-0.01646723953042903
0.3342999999999998,-0.01650968086942498
0.3332999999999998,-0.016537975095422278
0.3322999999999998,-0.01659456354741688
0.3312999999999998,-0.01660871066041553
0.3302999999999998,-0.01665115199941148
0.3292999999999998,-0.016679446225408782
0.3282999999999998,-0.016721887564404736
0.3272999999999998,-0.016764328903400686
0.3262999999999998,-0.016778476016399334
0.3252999999999999,-0.016820917355395284
0.3242999999999999,-0.01687750580738989
0.3232999999999999,-0.01690580003338719
0.3222999999999999,-0.016962388485381792
0.3212999999999999,-0.017004829824377742
0.3202999999999999,-0.01703312405037504
0.3192999999999999,-0.01706141827637234
0.3182999999999999,-0.017103859615368294
0.3172999999999999,-0.017146300954364244
0.3162999999999999,-0.017160448067362895
0.3152999999999999,-0.017202889406358845
0.3142999999999999,-0.017217036519357496
0.3132999999999999,-0.01728777208435075
0.3122999999999999,-0.01731606631034805
0.3112999999999999,-0.017358507649344
0.3102999999999999,-0.0173868018753413
0.3092999999999999,-0.017429243214337253
0.3082999999999999,-0.017471684553333203
0.3072999999999999,-0.01748583166633185
0.3062999999999999,-0.017514125892329157
0.3052999999999999,-0.017556567231325104
0.3042999999999999,-0.017584861457322406
0.3032999999999999,-0.017627302796318356
0.3022999999999999,-0.017641449909317007
0.3012999999999999,-0.01766974413531431
0.3002999999999999,-0.01771218547431026
0.2992999999999999,-0.01772633258730891
0.2982999999999999,-0.017782921039303512
0.2972999999999999,-0.017825362378299462
0.2962999999999999,-0.01785365660429676
0.2952999999999999,-0.017881950830294063
0.2942999999999999,-0.017896097943292714
0.2932999999999999,-0.017952686395287316
0.2922999999999999,-0.017980980621284618
0.2912999999999999,-0.018009274847281917
0.2902999999999999,-0.018051716186277867
0.2892999999999999,-0.018108304638272472
0.2882999999999999,-0.018108304638272472
0.2872999999999999,-0.01816489309026707
0.2862999999999999,-0.01817904020326572
0.2852999999999999,-0.018235628655260322
0.2842999999999999,-0.018263922881257624
0.2832999999999999,-0.018306364220253574
0.2822999999999999,-0.018334658446250877
0.2812999999999999,-0.018348805559249524
0.2802999999999999,-0.018377099785246823
0.2792999999999999,-0.018433688237241428
0.2782999999999999,-0.018461982463238727
0.2772999999999999,-0.01850442380223468
0.2762999999999999,-0.01856101225422928
0.2752999999999999,-0.018575159367227933
0.2742999999999999,-0.018617600706223883
0.2732999999999999,-0.018660042045219833
0.2722999999999999,-0.018702483384215783
0.2712999999999999,-0.018744924723211737
0.2702999999999999,-0.018787366062207687
0.2692999999999999,-0.018801513175206338
0.26829999999999987,-0.01882980740120364
0.26729999999999987,-0.01887224874019959
0.26629999999999987,-0.018900542966196893
0.26529999999999987,-0.01892883719219419
0.26429999999999987,-0.01897127853119014
0.26329999999999987,-0.018999572757187444
0.26229999999999987,-0.019042014096183394
0.26129999999999987,-0.019084455435179344
0.26029999999999986,-0.019126896774175294
0.25929999999999986,-0.019112749661176646
0.25829999999999986,-0.0191834852261699
0.25729999999999986,-0.01922592656516585
0.25629999999999986,-0.019254220791163148
0.25529999999999986,-0.0192966621301591
0.25429999999999986,-0.0193249563561564
0.25329999999999986,-0.019353250582153703
0.25229999999999986,-0.019395691921149656
0.25129999999999986,-0.019423986147146955
0.25029999999999986,-0.019466427486142905
0.24929999999999986,-0.019494721712140204
0.24829999999999985,-0.019537163051136158
0.24729999999999985,-0.019579604390132108
0.24629999999999985,-0.01959375150313076
0.24529999999999985,-0.019664487068124008
0.24429999999999985,-0.01970692840711996
0.24329999999999985,-0.019721075520118612
0.24229999999999985,-0.019763516859114563
0.24129999999999985,-0.019777663972113214
0.24029999999999985,-0.019805958198110513
0.23929999999999985,-0.019862546650105117
0.23829999999999985,-0.019919135102099715
0.23729999999999984,-0.019961576441095665
0.23629999999999984,-0.020018164893090266
0.23529999999999984,-0.020018164893090266
0.23429999999999984,-0.02006060623208622
0.23329999999999984,-0.020103047571082173
0.23229999999999984,-0.020131341797079472
0.23129999999999984,-0.020145488910078124
0.23029999999999984,-0.020173783136075422
0.22929999999999984,-0.020230371588070024
0.22829999999999984,-0.020272812927065977
0.22729999999999984,-0.020286960040064625
0.22629999999999983,-0.020343548492059226
0.22529999999999983,-0.020371842718056525
0.22429999999999983,-0.02038598983105518
0.22329999999999983,-0.02042843117005113
0.22229999999999983,-0.02045672539604843
0.22129999999999983,-0.020499166735044382
0.22029999999999983,-0.020569902300037635
0.21929999999999983,-0.020569902300037635
0.21829999999999983,-0.020612343639033585
0.21729999999999983,-0.020668932091028186
0.21629999999999983,-0.020683079204026837
0.21529999999999982,-0.020725520543022787
0.21429999999999982,-0.020767961882018737
0.21329999999999982,-0.02079625610801604
0.21229999999999982,-0.02085284456001064
0.21129999999999982,-0.02085284456001064
0.21029999999999982,-0.020909433012005242
0.20929999999999982,-0.020937727238002544
0.20829999999999982,-0.020966021463999843
0.20729999999999982,-0.021022609915994445
0.20629999999999982,-0.021065051254990398
0.20529999999999982,-0.021093345480987697
0.20429999999999982,-0.021135786819983647
0.20329999999999981,-0.021164081045980946
0.2022999999999998,-0.0212065223849769
0.2012999999999998,-0.0212348166109742
0.20029999999999992,-0.0212631108369715
0.19929999999999992,-0.021305552175967454
0.19829999999999992,-0.021347993514963404
0.19729999999999992,-0.021390434853959358
0.19629999999999992,-0.021418729079956657
0.19529999999999992,-0.021461170418952607
0.19429999999999992,-0.021560200209943158
0.19329999999999992,-0.021602641548939108
0.19229999999999992,-0.02161678866193776
0.19129999999999991,-0.02163093577493641
0.1902999999999999,-0.02167337711393236
0.1892999999999999,-0.021715818452928314
0.1882999999999999,-0.021758259791924264
0.1872999999999999,-0.021828995356917517
0.1862999999999999,-0.021843142469916164
0.1852999999999999,-0.021885583808912118
0.1842999999999999,-0.021913878034909417
0.1832999999999999,-0.021956319373905367
0.1822999999999999,-0.02198461359990267
0.1812999999999999,-0.022027054938898623
0.1802999999999999,-0.02208364339089322
0.1792999999999999,-0.022111937616890523
0.1782999999999999,-0.022154378955886473
0.1772999999999999,-0.022196820294882423
0.1762999999999999,-0.022225114520879725
0.1752999999999999,-0.022281702972874327
0.1742999999999999,-0.022295850085872978
0.1732999999999999,-0.022338291424868928
0.1722999999999999,-0.022366585650866227
0.1712999999999999,-0.02239487987686353
0.1702999999999999,-0.022479762554855433
0.1692999999999999,-0.022479762554855433
0.1682999999999999,-0.022550498119848682
0.1672999999999999,-0.022578792345845984
0.1662999999999999,-0.022607086571843286
0.1652999999999999,-0.02264952791083924
0.1642999999999999,-0.02270611636283384
0.1632999999999999,-0.02273441058883114
0.1622999999999999,-0.02277685192782709
0.1612999999999999,-0.02280514615382439
0.1602999999999999,-0.022847587492820343
0.1592999999999999,-0.022904175944814944
0.15829999999999989,-0.022946617283810897
0.15729999999999988,-0.022946617283810897
0.15629999999999988,-0.022989058622806844
0.15529999999999988,-0.023045647074801445
0.15429999999999988,-0.0230880884137974
0.15329999999999988,-0.023144676865792004
0.15229999999999988,-0.023172971091789302
0.15129999999999988,-0.0232012653177866
0.15029999999999988,-0.02324370665678255
0.14929999999999988,-0.023286147995778505
0.14829999999999988,-0.023328589334774455
0.14729999999999988,-0.023371030673770405
0.14629999999999987,-0.02341347201276636
0.14529999999999987,-0.023441766238763657
0.14429999999999987,-0.023484207577759608
0.14329999999999987,-0.02355494314275286
0.14229999999999987,-0.02359738448174881
0.14129999999999987,-0.023625678707746112
0.14029999999999987,-0.023668120046742062
0.13929999999999987,-0.023696414272739365
0.13829999999999987,-0.023767149837732617
0.13729999999999987,-0.023795444063729916
0.13629999999999987,-0.023837885402725866
0.13529999999999986,-0.02389447385472047
0.13429999999999986,-0.02393691519371642
0.13329999999999986,-0.02397935653271237
0.13229999999999986,-0.024035944984706972
0.13129999999999986,-0.024064239210704275
0.13029999999999986,-0.024134974775697527
0.12929999999999986,-0.024191563227692125
0.12829999999999986,-0.024219857453689427
0.12729999999999986,-0.02427644590568403
0.12629999999999986,-0.02429059301868268
0.12529999999999986,-0.02433303435767863
0.12429999999999986,-0.02438962280967323
0.12329999999999985,-0.024432064148669184
0.12229999999999985,-0.024516946826661085
0.12129999999999985,-0.024587682391654337
0.12029999999999985,-0.02467256506964624
0.11929999999999985,-0.02471500640864219
0.11829999999999985,-0.024729153521640842
0.11729999999999985,-0.024771594860636792
0.11629999999999985,-0.02479988908663409
0.11529999999999985,-0.024856477538628696
0.11429999999999985,-0.024898918877624646
0.11329999999999985,-0.024969654442617898
0.11229999999999984,-0.0250262428946125
0.11129999999999984,-0.0250545371206098
0.11029999999999984,-0.0251111255726044
0.10929999999999984,-0.02515356691160035
0.10829999999999984,-0.025210155363594954
0.10729999999999984,-0.025224302476593602
0.10629999999999984,-0.025266743815589552
0.10529999999999984,-0.025323332267584157
0.10429999999999984,-0.02540821494557606
0.10329999999999984,-0.02545065628457201
0.10229999999999984,-0.025493097623567964
0.10129999999999983,-0.02553553896256391
0.10029999999999983,-0.025606274527557166
0.09929999999999983,-0.02562042164055581
0.09829999999999983,-0.025691157205549067
0.09729999999999983,-0.025747745657543668
0.09629999999999983,-0.02577603988354097
0.09529999999999983,-0.025860922561532867
0.09429999999999983,-0.025889216787530173
0.09329999999999983,-0.025959952352523425
0.09229999999999983,-0.02600239369151937
0.09129999999999983,-0.026044835030515325
0.09029999999999982,-0.02612971770850723
0.08929999999999982,-0.026172159047503182
0.08829999999999982,-0.02622874749949778
0.08729999999999982,-0.02628533595149238
0.08629999999999982,-0.02632777729048833
0.08529999999999982,-0.026384365742482933
0.08429999999999982,-0.026440954194477534
0.08329999999999982,-0.02649754264647214
0.08229999999999982,-0.026539983985468085
0.08129999999999982,-0.02661071955046134
0.08029999999999982,-0.02668145511545459
0.07929999999999982,-0.02673804356744919
0.07829999999999981,-0.02682292624544109
0.07729999999999981,-0.026865367584437045
0.07629999999999981,-0.02695025026242895
0.07529999999999992,-0.0270209858274222
0.07429999999999992,-0.027063427166418155
0.07329999999999992,-0.027120015618412752
0.07229999999999992,-0.027162456957408702
0.07129999999999992,-0.02723319252240196
0.07029999999999992,-0.02730392808739521
0.06929999999999992,-0.02736051653938981
0.06829999999999992,-0.02743125210438306
0.06729999999999992,-0.027473693443379014
0.06629999999999991,-0.02755857612137091
0.06529999999999991,-0.02762931168636417
0.06429999999999991,-0.02764345879936281
0.06329999999999991,-0.02772834147735472
0.06229999999999991,-0.027770782816350672
0.06129999999999991,-0.02782737126834527
0.06029999999999991,-0.027898106833338522
0.05929999999999991,-0.027954695285333123
0.05829999999999991,-0.02802543085032638
0.05729999999999991,-0.02806787218932233
0.056299999999999906,-0.02811031352831828
0.055299999999999905,-0.028166901980312884
0.054299999999999904,-0.028223490432307482
0.0532999999999999,-0.02829422599730073
0.0522999999999999,-0.028379108675292634
0.0512999999999999,-0.028407402901289937
0.0502999999999999,-0.02849228557928184
0.0492999999999999,-0.02854887403127644
0.0482999999999999,-0.02860546248327104
0.0472999999999999,-0.028690345161262943
0.0462999999999999,-0.028718639387260245
0.045299999999999896,-0.02880352206525215
0.044299999999999895,-0.02888840474324405
0.043299999999999894,-0.0289591403082373
0.04229999999999989,-0.029044022986229205
0.04129999999999989,-0.029100611438223806
0.04029999999999989,-0.029171347003217055
0.03929999999999989,-0.029242082568210308
0.03829999999999989,-0.029298671020204912
0.03729999999999989,-0.029369406585198165
0.03629999999999989,-0.029440142150191414
0.03529999999999989,-0.029482583489187364
0.034299999999999886,-0.029553319054180613
0.033299999999999885,-0.029652348845171168
0.032299999999999884,-0.02970893729716577
0.031299999999999883,-0.029807967088156324
0.030299999999999883,-0.029878702653149573
0.02929999999999988,-0.029921143992145526
0.02829999999999988,-0.03000602667013743
0.02729999999999988,-0.030048468009133376
0.02629999999999988,-0.03011920357412663
0.025299999999999878,-0.030204086252118532
0.024299999999999877,-0.030260674704113137
0.023299999999999876,-0.030345557382105034
0.022299999999999875,-0.03040214583409964
0.021299999999999875,-0.03047288139909289
0.020299999999999874,-0.03058605830308209
0.019299999999999873,-0.030642646755076695
0.018299999999999872,-0.030713382320069947
0.01729999999999987,-0.030769970772064545
0.01629999999999987,-0.03082655922405915
0.01529999999999987,-0.0309255890150497
0.014299999999999868,-0.030953883241047007
0.013299999999999867,-0.031024618806040256
0.012299999999999978,-0.031081207258034853
0.011299999999999866,-0.031137795710029458
0.010299999999999976,-0.03123682550102001
0.009299999999999864,-0.03129341395301461
0.008299999999999974,-0.031350002405009215
0.007299999999999862,-0.031420737970002464
0.006299999999999972,-0.03147732642199706
0.00529999999999986,-0.03154806198699031
0.0042999999999999705,-0.03161879755198357
0.0032999999999998586,-0.03168953311697682
0.0022999999999999687,-0.03176026868197007
0.0012999999999998568,-0.03183100424696332
0.00029999999999996696,-0.03190173981195658
-0.000700000000000145,-0.03195832826395118
-0.0017000000000000348,-0.03202906382894443
-0.0027000000000001467,-0.03211394650693633
-0.0037000000000000366,-0.03217053495893094
-0.0047000000000001485,-0.032255417636922835
-0.005700000000000038,-0.03235444742791339
-0.00670000000000015,-0.032425182992906636
-0.00770000000000004,-0.03248177144490124
-0.008700000000000152,-0.032524212783897194
-0.009700000000000042,-0.03259494834889044
-0.010700000000000154,-0.032693978139880994
-0.011700000000000044,-0.0327788608178729
-0.012700000000000156,-0.03282130215686885
-0.013700000000000045,-0.03290618483486075
-0.014700000000000157,-0.03296277328685536
-0.015700000000000047,-0.03304765596484726
-0.01670000000000016,-0.03316083286883646
-0.01770000000000005,-0.03323156843382971
-0.01870000000000016,-0.03330230399882296
-0.01970000000000005,-0.033358892450817565
-0.020700000000000163,-0.03340133378981351
-0.021700000000000053,-0.03347206935480676
-0.022700000000000164,-0.03352865780680137
-0.023700000000000054,-0.03359939337179463
-0.024700000000000166,-0.03368427604978652
-0.025700000000000056,-0.03375501161477978
-0.026700000000000168,-0.03383989429277168
-0.027700000000000058,-0.033896482744766275
-0.02870000000000017,-0.03393892408376223
-0.02970000000000006,-0.034009659648755484
-0.03070000000000017,-0.03408039521374873
-0.03170000000000006,-0.03413698366574334
-0.03270000000000017,-0.034193572117737936
-0.03370000000000006,-0.034278454795729836
-0.034700000000000175,-0.03436333747372174
-0.035700000000000065,-0.03443407303871499
-0.03670000000000018,-0.03451895571670689
-0.03770000000000007,-0.0345755441687015
-0.03870000000000018,-0.034617985507697444
-0.03970000000000007,-0.0346887210726907
-0.04070000000000018,-0.03475945663768395
-0.04170000000000007,-0.0348301922026772
-0.04270000000000018,-0.03490092776767045
-0.04370000000000007,-0.0349716633326637
-0.044700000000000184,-0.03504239889765696
-0.045700000000000074,-0.03509898734965156
-0.046700000000000186,-0.03514142868864751
-0.047700000000000076,-0.03518387002764346
-0.04870000000000019,-0.03526875270563536
-0.04970000000000008,-0.03533948827062862
-0.05070000000000019,-0.03542437094862052
-0.05170000000000008,-0.03549510651361377
-0.05270000000000019,-0.035551694965608366
-0.05370000000000008,-0.035594136304604326
-0.05470000000000019,-0.035650724756598924
-0.05570000000000008,-0.03570731320859352
-0.056700000000000195,-0.03579219588658543
-0.057700000000000085,-0.03583463722558138
-0.058700000000000196,-0.035947814129570585
-0.059700000000000086,-0.036018549694563834
-0.0607000000000002,-0.03606099103355979
-0.06170000000000009,-0.03617416793754899
-0.0627000000000002,-0.036230756389543595
-0.06370000000000009,-0.03624490350254224
-0.0647000000000002,-0.03632978618053414
-0.06570000000000009,-0.036400521745527395
