Potential V vs RHE, Current mA cm-2
0.4132999999999999,-0.0211782281589796
0.4122999999999999,-0.023625678707746112
0.4112999999999999,-0.024403769922671882
0.4102999999999999,-0.024785741973635443
0.4092999999999999,-0.0250262428946125
0.4082999999999999,-0.025224302476593602
0.4072999999999999,-0.02539406783257741
0.4062999999999999,-0.025507244736566608
0.4052999999999999,-0.025662862979551764
0.4042999999999999,-0.02580433410953827
0.4032999999999999,-0.02590336390052882
0.4022999999999999,-0.026030687917516674
0.4012999999999999,-0.026101423482509926
0.4002999999999999,-0.026186306160501827
0.3992999999999999,-0.02629948306449103
0.3982999999999999,-0.026412659968480235
0.3972999999999999,-0.02649754264647214
0.3962999999999999,-0.02658242532446404
0.3952999999999999,-0.02661071955046134
0.3942999999999999,-0.02668145511545459
0.39329999999999987,-0.026766337793446494
0.39229999999999987,-0.026851220471438397
0.39129999999999987,-0.026907808923433
0.39029999999999987,-0.0269643973754276
0.38929999999999987,-0.02703513294042085
0.38829999999999987,-0.027105868505414105
0.38729999999999987,-0.027162456957408702
0.38629999999999987,-0.027204898296404656
0.38529999999999986,-0.02727563386139791
0.38429999999999986,-0.02734636942639116
0.38329999999999986,-0.02740295787838576
0.38229999999999986,-0.027473693443379014
0.38129999999999986,-0.027516134782374965
0.38029999999999986,-0.027586870347368214
0.37929999999999986,-0.02764345879936281
0.37829999999999986,-0.02770004725135742
0.37729999999999986,-0.027770782816350672
0.37629999999999986,-0.027799077042347967
0.37529999999999986,-0.027855665494342572
0.37429999999999986,-0.027912253946337173
0.37329999999999985,-0.027954695285333123
0.37229999999999985,-0.02806787218932233
0.37129999999999985,-0.02809616641531963
0.37029999999999985,-0.02813860775431558
0.36929999999999985,-0.02811031352831828
0.36829999999999985,-0.028181049093311532
0.36729999999999985,-0.028265931771303435
0.36629999999999985,-0.02829422599730073
0.36529999999999985,-0.028364961562293983
0.36429999999999985,-0.028449844240285887
0.36329999999999985,-0.02852057980527914
0.36229999999999984,-0.028591315370272388
0.36129999999999984,-0.02861960959626969
0.36029999999999984,-0.028676198048264292
0.35929999999999984,-0.028732786500258897
0.35829999999999984,-0.02880352206525215
0.35729999999999984,-0.028860110517246747
0.35629999999999984,-0.0289025518562427
0.35529999999999984,-0.02894499319523865
0.35429999999999984,-0.029001581647233248
0.35329999999999984,-0.029044022986229205
0.35229999999999984,-0.029100611438223806
0.35129999999999983,-0.029157199890218404
0.35029999999999983,-0.029199641229214358
0.34929999999999983,-0.029256229681208955
0.34829999999999983,-0.029326965246202208
0.34729999999999983,-0.02941184792419411
0.34629999999999983,-0.02945428926319007
0.34529999999999983,-0.029482583489187364
0.34429999999999983,-0.029525024828183317
0.3432999999999998,-0.02959576039317657
0.3422999999999998,-0.029652348845171168
0.3412999999999998,-0.02969479018416712
0.3402999999999998,-0.029751378636161722
0.3392999999999998,-0.02979381997515767
0.3382999999999998,-0.02986455554015093
0.3372999999999998,-0.029921143992145526
0.3362999999999998,-0.029935291105144177
0.3352999999999998,-0.03000602667013743
0.3342999999999998,-0.03006261512213203
0.3332999999999998,-0.030090909348129333
0.3322999999999998,-0.03018993913911988
0.3312999999999998,-0.030204086252118532
0.3302999999999998,-0.030232380478115835
0.3292999999999998,-0.030303116043109087
0.3282999999999998,-0.03033141026910639
0.3272999999999998,-0.030416292947098293
0.3262999999999998,-0.03044458717309559
0.3252999999999999,-0.030501175625090193
0.3242999999999999,-0.030543616964086147
0.3232999999999999,-0.030600205416080745
0.3222999999999999,-0.030670940981073994
0.3212999999999999,-0.030713382320069947
0.3202999999999999,-0.030755823659065897
0.3192999999999999,-0.030812412111060502
0.3182999999999999,-0.03085485345005645
0.3172999999999999,-0.0309255890150497
0.3162999999999999,-0.030968030354045658
0.3152999999999999,-0.03099632458004295
0.3142999999999999,-0.031067060145036202
0.3132999999999999,-0.031123648597030807
0.3122999999999999,-0.031194384162024056
0.3112999999999999,-0.03123682550102001
0.3102999999999999,-0.03126511972701731
0.3092999999999999,-0.03132170817901191
0.3082999999999999,-0.03140659085700381
0.3072999999999999,-0.031434885083001116
0.3062999999999999,-0.03146317930899842
0.3052999999999999,-0.03151976776099302
0.3042999999999999,-0.03154806198699031
0.3032999999999999,-0.03157635621298762
0.3022999999999999,-0.03164709177798087
0.3012999999999999,-0.03167538600397817
0.3002999999999999,-0.031731974455972776
0.2992999999999999,-0.03177441579496872
0.2982999999999999,-0.03183100424696332
0.2972999999999999,-0.031887592698957926
0.2962999999999999,-0.03190173981195658
0.2952999999999999,-0.031972475376949826
0.2942999999999999,-0.03200076960294713
0.2932999999999999,-0.032057358054941726
0.2922999999999999,-0.03212809361993498
0.2912999999999999,-0.03212809361993498
0.2902999999999999,-0.03219882918492823
0.2892999999999999,-0.03224127052392419
0.2882999999999999,-0.03231200608891744
0.2872999999999999,-0.03236859454091204
0.2862999999999999,-0.03241103587990799
0.2852999999999999,-0.032453477218903945
0.2842999999999999,-0.032524212783897194
0.2832999999999999,-0.03258080123589179
0.2822999999999999,-0.032637389687886396
0.2812999999999999,-0.032693978139880994
0.2802999999999999,-0.032722272365878304
0.2792999999999999,-0.0327788608178729
0.2782999999999999,-0.03282130215686885
0.2772999999999999,-0.03287789060886345
0.2762999999999999,-0.0329203319478594
0.2752999999999999,-0.03294862617385671
0.2742999999999999,-0.03301936173884996
0.2732999999999999,-0.033090097303843206
0.2722999999999999,-0.033146685755837804
0.2712999999999999,-0.03320327420783241
0.2702999999999999,-0.03324571554682836
0.2692999999999999,-0.03330230399882296
0.26829999999999987,-0.033358892450817565
0.26729999999999987,-0.03342962801581082
0.26629999999999987,-0.03344377512880947
0.26529999999999987,-0.03351451069380272
0.26429999999999987,-0.03357109914579732
0.26329999999999987,-0.033627687597791917
0.26229999999999987,-0.03368427604978652
0.26129999999999987,-0.033726717388782475
0.26029999999999986,-0.03378330584077707
0.25929999999999986,-0.03385404140577032
0.25829999999999986,-0.033910629857764926
0.25729999999999986,-0.03398136542275818
0.25629999999999986,-0.03402380676175413
0.25529999999999986,-0.034094542326747385
0.25429999999999986,-0.03412283655274468
0.25329999999999986,-0.034193572117737936
0.25229999999999986,-0.034264307682731185
0.25129999999999986,-0.034264307682731185
0.25029999999999986,-0.034377484586720394
0.24929999999999986,-0.03443407303871499
0.24829999999999985,-0.0344906614907096
0.24729999999999985,-0.034561397055702846
0.24629999999999985,-0.034561397055702846
0.24529999999999985,-0.0346321326206961
0.24429999999999985,-0.03467457395969205
0.24329999999999985,-0.034717015298688
0.24229999999999985,-0.03481604508967855
0.24129999999999985,-0.03487263354167316
0.24029999999999985,-0.034915074880669104
0.23929999999999985,-0.0349716633326637
0.23829999999999985,-0.03501410467165966
0.23729999999999984,-0.0350565460106556
0.23629999999999984,-0.03511313446265021
0.23529999999999984,-0.03515557580164616
0.23429999999999984,-0.03522631136663941
0.23329999999999984,-0.035282899818634014
0.23229999999999984,-0.03535363538362727
0.23129999999999984,-0.03539607672262322
0.23029999999999984,-0.03539607672262322
0.22929999999999984,-0.03548095940061512
0.22829999999999984,-0.035551694965608366
0.22729999999999984,-0.03560828341760297
0.22629999999999983,-0.035664871869597575
0.22529999999999983,-0.03573560743459083
0.22429999999999983,-0.03576390166058813
0.22329999999999983,-0.03586293145157868
0.22229999999999983,-0.03590537279057463
0.22129999999999983,-0.03597610835556788
0.22029999999999983,-0.03604684392056113
0.21929999999999983,-0.03607513814655844
0.21829999999999983,-0.036131726598553036
0.21729999999999983,-0.036216609276544943
0.21629999999999983,-0.03627319772853954
0.21529999999999982,-0.03632978618053414
0.21429999999999982,-0.03641466885852604
0.21329999999999982,-0.036457110197522
0.21229999999999982,-0.03652784576251525
0.21129999999999982,-0.036570287101511195
0.21029999999999982,-0.0366268755535058
0.20929999999999982,-0.03669761111849905
0.20829999999999982,-0.036768346683492305
0.20729999999999982,-0.036867376474482856
0.20629999999999982,-0.03689567070048015
0.20529999999999982,-0.0369664062654734
0.20429999999999982,-0.03703714183046666
0.20329999999999981,-0.03707958316946261
0.2022999999999998,-0.03717861296045316
0.2012999999999998,-0.037221054299449115
0.20029999999999992,-0.03726349563844507
0.19929999999999992,-0.03736252542943562
0.19829999999999992,-0.037419113881430224
0.19729999999999992,-0.03747570233342482
0.19629999999999992,-0.03753229078541943
0.19529999999999992,-0.03758887923741403
0.19429999999999992,-0.03771620325440188
0.19329999999999992,-0.037801085932393785
0.19229999999999992,-0.037801085932393785
0.19129999999999991,-0.03785767438438838
0.1902999999999999,-0.03790011572338433
0.1892999999999999,-0.037970851288377586
0.1882999999999999,-0.038041586853370835
0.1872999999999999,-0.03809817530536544
0.1862999999999999,-0.03814061664436139
0.1852999999999999,-0.03821135220935464
0.1842999999999999,-0.03828208777434789
0.1832999999999999,-0.03832452911334384
0.1822999999999999,-0.03839526467833709
0.1812999999999999,-0.0384518531303317
0.1802999999999999,-0.038494294469327645
0.1792999999999999,-0.03857917714731955
0.1782999999999999,-0.0386782069383101
0.1772999999999999,-0.03874894250330335
0.1762999999999999,-0.038777236729300654
0.1752999999999999,-0.03886211940729256
0.1742999999999999,-0.03890456074628851
0.1732999999999999,-0.03897529631128176
0.1722999999999999,-0.039046031876275006
0.1712999999999999,-0.03910262032826961
0.1702999999999999,-0.039173355893262866
0.1692999999999999,-0.03925823857125477
0.1682999999999999,-0.03935726836224532
0.1672999999999999,-0.03947044526623452
0.1662999999999999,-0.039456298153235876
0.1652999999999999,-0.03954118083122777
0.1642999999999999,-0.03965435773521698
0.1632999999999999,-0.03965435773521698
0.1622999999999999,-0.03973924041320888
0.1612999999999999,-0.039824123091200786
0.1602999999999999,-0.03988071154319539
0.1592999999999999,-0.03999388844718459
0.15829999999999989,-0.04006462401217784
0.15729999999999988,-0.04010706535117379
0.15629999999999988,-0.04017780091616704
0.15529999999999988,-0.04020609514216435
0.15429999999999988,-0.04029097782015625
0.15329999999999988,-0.0403900076111468
0.15229999999999988,-0.04048903740213735
0.15129999999999988,-0.040545625854131954
0.15029999999999988,-0.04060221430612655
0.14929999999999988,-0.04068709698411845
0.14829999999999988,-0.04075783254911171
0.14729999999999988,-0.04078612677510901
0.14629999999999987,-0.040885156566099555
0.14529999999999987,-0.04094174501809417
0.14429999999999987,-0.041012480583087416
0.14329999999999987,-0.04111151037407796
0.14229999999999987,-0.04121054016506852
0.14129999999999987,-0.04122468727806717
0.14029999999999987,-0.04130956995605907
0.13929999999999987,-0.041380305521052325
0.13829999999999987,-0.04147933531204288
0.13729999999999987,-0.041578365103033435
0.13629999999999987,-0.041620806442029375
0.13529999999999986,-0.04169154200702263
0.13429999999999986,-0.04173398334601858
0.13329999999999986,-0.04180471891101184
0.13229999999999986,-0.041917895815001036
0.13129999999999986,-0.04193204292799969
0.13029999999999986,-0.042016925605991594
0.12929999999999986,-0.04210180828398349
0.12829999999999986,-0.04215839673597809
0.12729999999999986,-0.04222913230097135
0.12629999999999986,-0.042299867865964604
0.12529999999999986,-0.04237060343095785
0.12429999999999986,-0.0424413389959511
0.12329999999999985,-0.0424979274479457
0.12229999999999985,-0.042568663012938955
0.12129999999999985,-0.042653545690930855
0.12029999999999985,-0.04268183991692816
0.11929999999999985,-0.04276672259492006
0.11829999999999985,-0.042837458159913314
0.11729999999999985,-0.042936487950903865
0.11629999999999985,-0.043021370628895765
0.11529999999999985,-0.04303551774189441
0.11429999999999985,-0.04313454753288497
0.11329999999999985,-0.043205283097878217
0.11229999999999984,-0.04326187154987282
0.11129999999999984,-0.04333260711486608
0.11029999999999984,-0.043389195566860675
0.10929999999999984,-0.043474078244852575
0.10829999999999984,-0.04357310803584313
0.10729999999999984,-0.04364384360083638
0.10629999999999984,-0.04371457916582964
0.10529999999999984,-0.04378531473082289
0.10429999999999984,-0.043841903182817485
0.10329999999999984,-0.04389849163481209
0.10229999999999984,-0.04396922719980534
0.10129999999999983,-0.044025815651799936
0.10029999999999983,-0.044124845442790495
0.09929999999999983,-0.0442097281207824
0.09829999999999983,-0.044308757911772946
0.09729999999999983,-0.044393640589764846
0.09629999999999983,-0.04443608192876081
0.09529999999999983,-0.044492670380755404
0.09429999999999983,-0.04454925883275
0.09329999999999983,-0.04463414151074191
0.09229999999999983,-0.04474731841473111
0.09129999999999983,-0.04480390686672571
0.09029999999999982,-0.04491708377071492
0.08929999999999982,-0.04497367222270952
0.08829999999999982,-0.04501611356170547
0.08729999999999982,-0.04508684912669872
0.08629999999999982,-0.045143437578693324
0.08529999999999982,-0.04522832025668522
0.08429999999999982,-0.04529905582167848
0.08329999999999982,-0.04538393849967037
0.08229999999999982,-0.04546882117766228
0.08129999999999982,-0.04549711540365958
0.08029999999999982,-0.04552540962965688
0.07929999999999982,-0.04559614519465013
0.07829999999999981,-0.045666880759643376
0.07729999999999981,-0.04578005766363259
0.07629999999999981,-0.04585079322862584
0.07529999999999992,-0.04586494034162449
0.07429999999999992,-0.04592152879361909
0.07329999999999992,-0.04599226435861234
0.07229999999999992,-0.04609129414960289
0.07129999999999992,-0.046162029714596146
0.07029999999999992,-0.04621861816659075
0.06929999999999992,-0.04628935373158401
0.06829999999999992,-0.046331795070579954
0.06729999999999992,-0.046416677748571854
0.06629999999999991,-0.0464874133135651
0.06529999999999991,-0.046529854652561056
0.06429999999999991,-0.04662888444355161
0.06329999999999991,-0.04674206134754081
0.06229999999999991,-0.04681279691253406
0.06129999999999991,-0.046869385364528664
0.06029999999999991,-0.04691182670352462
0.05929999999999991,-0.046968415155519215
0.05829999999999991,-0.04705329783351112
0.05729999999999991,-0.04712403339850437
0.056299999999999906,-0.04722306318949493
0.055299999999999905,-0.04729379875448818
0.054299999999999904,-0.04736453431948143
0.0532999999999999,-0.04746356411047198
0.0522999999999999,-0.047520152562466576
0.0512999999999999,-0.04756259390146254
0.0502999999999999,-0.047647476579454444
0.0492999999999999,-0.04771821214444769
0.0482999999999999,-0.04780309482243959
0.0472999999999999,-0.047916271726428795
0.0462999999999999,-0.04794456595242609
0.045299999999999896,-0.04797286017842339
0.044299999999999895,-0.04805774285641529
0.043299999999999894,-0.0481426255344072
0.04229999999999989,-0.0482558024383964
0.04129999999999989,-0.0483406851163883
0.04029999999999989,-0.048439714907378854
0.03929999999999989,-0.0485104504723721
0.03829999999999989,-0.0485104504723721
0.03729999999999989,-0.04862362737636131
0.03629999999999989,-0.04870851005435321
0.03529999999999989,-0.048736804280350515
0.034299999999999886,-0.04883583407134107
0.033299999999999885,-0.04893486386233162
0.032299999999999884,-0.04896315808832892
0.031299999999999883,-0.04906218787931948
0.030299999999999883,-0.04910462921831542
0.02929999999999988,-0.049175364783308674
0.02829999999999988,-0.049274394574299225
0.02729999999999988,-0.04935927725229113
0.02629999999999988,-0.04941586570428573
0.025299999999999878,-0.04948660126927898
0.024299999999999877,-0.04955733683427224
0.023299999999999876,-0.04962807239926549
0.022299999999999875,-0.04969880796425874
0.021299999999999875,-0.04976954352925199
0.020299999999999874,-0.049826131981246594
0.019299999999999873,-0.0498827204332412
0.018299999999999872,-0.04996760311123309
0.01729999999999987,-0.050052485789225
0.01629999999999987,-0.05012322135421825
0.01529999999999987,-0.0501656626932142
0.014299999999999868,-0.05027883959720341
0.013299999999999867,-0.05034957516219666
0.012299999999999978,-0.05042031072718991
0.011299999999999866,-0.050476899179184506
0.010299999999999976,-0.05054763474417776
0.009299999999999864,-0.05063251742216966
0.008299999999999974,-0.050731547213160214
0.007299999999999862,-0.05078813566515482
0.006299999999999972,-0.05085887123014807
0.00529999999999986,-0.05095790102113862
0.0042999999999999705,-0.051014489473133216
0.0032999999999998586,-0.05108522503812647
0.0022999999999999687,-0.05117010771611837
0.0012999999999998568,-0.05124084328111162
0.00029999999999996696,-0.05122669616811298
-0.000700000000000145,-0.051396461524096784
-0.0017000000000000348,-0.051495491315087336
-0.0027000000000001467,-0.05159452110607789
-0.0037000000000000366,-0.051665256671071136
-0.0047000000000001485,-0.051693550897068445
-0.005700000000000038,-0.05180672780105764
-0.00670000000000015,-0.05189161047904954
-0.00770000000000004,-0.0519906402700401
-0.008700000000000152,-0.052075522948032
-0.009700000000000042,-0.052117964287027946
-0.010700000000000154,-0.0522169940780185
-0.011700000000000044,-0.052316023869009055
-0.012700000000000156,-0.05237261232100365
-0.013700000000000045,-0.05249993633799151
-0.014700000000000157,-0.052584819015983414
-0.015700000000000047,-0.05262726035497937
-0.01670000000000016,-0.05274043725896857
-0.01770000000000005,-0.052782878597964523
-0.01870000000000016,-0.05285361416295777
-0.01970000000000005,-0.052966791066946975
-0.020700000000000163,-0.053037526631940224
-0.021700000000000053,-0.05316485064892808
-0.022700000000000164,-0.053235586213921327
-0.023700000000000054,-0.05330632177891458
-0.024700000000000166,-0.05339120445690649
-0.025700000000000056,-0.053433645795902436
-0.026700000000000168,-0.053518528473894336
-0.027700000000000058,-0.053631705377883546
-0.02870000000000017,-0.05367414671687949
-0.02970000000000006,-0.053815617846866
-0.03070000000000017,-0.0538439120728633
-0.03170000000000006,-0.05391464763785655
-0.03270000000000017,-0.0540419716548444
-0.03370000000000006,-0.05409856010683901
-0.034700000000000175,-0.05421173701082821
-0.035700000000000065,-0.05428247257582146
-0.03670000000000018,-0.054367355253813365
-0.03770000000000007,-0.05446638504480392
-0.03870000000000018,-0.05450882638379986
-0.03970000000000007,-0.05456541483579446
-0.04070000000000018,-0.05469273885278232
-0.04170000000000007,-0.05476347441777557
-0.04270000000000018,-0.05490494554776207
-0.04370000000000007,-0.054975681112755324
-0.044700000000000184,-0.054975681112755324
-0.045700000000000074,-0.054975681112755324
-0.046700000000000186,-0.05510300512974318
-0.047700000000000076,-0.055202034920733736
-0.04870000000000019,-0.05531521182472293
-0.04970000000000008,-0.05515959358173778
-0.05070000000000019,-0.05538594738971618
-0.05170000000000008,-0.055527418519702686
-0.05270000000000019,-0.055569859858698646
-0.05370000000000008,-0.055711330988685144
-0.05470000000000019,-0.05578206655367839
-0.05570000000000008,-0.05585280211867165
-0.056700000000000195,-0.05595183190966221
-0.057700000000000085,-0.0560650088136514
-0.058700000000000196,-0.05613574437864466
-0.059700000000000086,-0.056178185717640605
-0.0607000000000002,-0.05626306839563251
-0.06170000000000009,-0.05643283375161631
-0.0627000000000002,-0.056546010655605515
-0.06370000000000009,-0.05661674622059877
-0.0647000000000002,-0.05670162889859067
-0.06570000000000009,-0.05675821735058527
-0.0667000000000002,-0.056843100028577176
-0.0677000000000001,-0.05697042404556502
-0.0687000000000002,-0.057069453836555574
