May 4, 2025   21:23:11
Linear Sweep Voltammetry
File: c:/users/guazh/data/banditlqround7_x0exp1108_r5/2025-04-30-exp1241\1acid_3ac-2025-05-04t21_19_57-lsvinphos\1acid_3ac_lsv_50mvs_efin_-2300mv.bin
Data Source:  Experiment
Instrument Model:  CHI760E
Header: LSV ran at 50 mVs with Efin at -2300mV
Note: 

Init E (V) = -0.6
Final E (V) = -2.3
Scan Rate (V/s) = 0.05
Sample Interval (V) = 0.001
Quiet Time (sec) = 2
Sensitivity (A/V) = 1e-4
Comp R (ohm) = 188.7

Results:

Channel 1:
Ep = -1.123V
ip = 3.185e-4A
Ah = 1.592e-4C

Potential/V, Current/A

-0.600, 1.976e-4
-0.601, 1.989e-4
-0.602, 2.000e-4
-0.603, 2.004e-4
-0.604, 2.012e-4
-0.605, 2.013e-4
-0.606, 2.016e-4
-0.607, 2.024e-4
-0.608, 2.026e-4
-0.609, 2.026e-4
-0.610, 2.028e-4
-0.611, 2.032e-4
-0.612, 2.036e-4
-0.613, 2.040e-4
-0.614, 2.043e-4
-0.615, 2.045e-4
-0.616, 2.041e-4
-0.617, 2.037e-4
-0.618, 2.043e-4
-0.619, 2.044e-4
-0.620, 2.043e-4
-0.621, 2.046e-4
-0.622, 2.050e-4
-0.623, 2.053e-4
-0.624, 2.062e-4
-0.625, 2.066e-4
-0.626, 2.064e-4
-0.627, 2.065e-4
-0.628, 2.065e-4
-0.629, 2.062e-4
-0.630, 2.067e-4
-0.631, 2.067e-4
-0.632, 2.068e-4
-0.633, 2.066e-4
-0.634, 2.068e-4
-0.635, 2.073e-4
-0.636, 2.080e-4
-0.637, 2.078e-4
-0.638, 2.080e-4
-0.639, 2.084e-4
-0.640, 2.079e-4
-0.641, 2.077e-4
-0.642, 2.080e-4
-0.643, 2.079e-4
-0.644, 2.080e-4
-0.645, 2.079e-4
-0.646, 2.085e-4
-0.647, 2.088e-4
-0.648, 2.085e-4
-0.649, 2.086e-4
-0.650, 2.087e-4
-0.651, 2.087e-4
-0.652, 2.085e-4
-0.653, 2.094e-4
-0.654, 2.095e-4
-0.655, 2.098e-4
-0.656, 2.101e-4
-0.657, 2.103e-4
-0.658, 2.099e-4
-0.659, 2.102e-4
-0.660, 2.101e-4
-0.661, 2.096e-4
-0.662, 2.096e-4
-0.663, 2.096e-4
-0.664, 2.094e-4
-0.665, 2.090e-4
-0.666, 2.091e-4
-0.667, 2.092e-4
-0.668, 2.094e-4
-0.669, 2.095e-4
-0.670, 2.097e-4
-0.671, 2.100e-4
-0.672, 2.095e-4
-0.673, 2.094e-4
-0.674, 2.098e-4
-0.675, 2.096e-4
-0.676, 2.094e-4
-0.677, 2.097e-4
-0.678, 2.101e-4
-0.679, 2.106e-4
-0.680, 2.108e-4
-0.681, 2.104e-4
-0.682, 2.100e-4
-0.683, 2.105e-4
-0.684, 2.102e-4
-0.685, 2.097e-4
-0.686, 2.100e-4
-0.687, 2.101e-4
-0.688, 2.101e-4
-0.689, 2.102e-4
-0.690, 2.106e-4
-0.691, 2.097e-4
-0.692, 2.097e-4
-0.693, 2.099e-4
-0.694, 2.109e-4
-0.695, 2.109e-4
-0.696, 2.107e-4
-0.697, 2.109e-4
-0.698, 2.110e-4
-0.699, 2.114e-4
-0.700, 2.115e-4
-0.701, 2.117e-4
-0.702, 2.111e-4
-0.703, 2.120e-4
-0.704, 2.129e-4
-0.705, 2.128e-4
-0.706, 2.126e-4
-0.707, 2.127e-4
-0.708, 2.128e-4
-0.709, 2.119e-4
-0.710, 2.121e-4
-0.711, 2.129e-4
-0.712, 2.129e-4
-0.713, 2.131e-4
-0.714, 2.131e-4
-0.715, 2.141e-4
-0.716, 2.146e-4
-0.717, 2.143e-4
-0.718, 2.138e-4
-0.719, 2.146e-4
-0.720, 2.152e-4
-0.721, 2.152e-4
-0.722, 2.153e-4
-0.723, 2.154e-4
-0.724, 2.163e-4
-0.725, 2.165e-4
-0.726, 2.165e-4
-0.727, 2.165e-4
-0.728, 2.170e-4
-0.729, 2.176e-4
-0.730, 2.175e-4
-0.731, 2.174e-4
-0.732, 2.173e-4
-0.733, 2.174e-4
-0.734, 2.177e-4
-0.735, 2.178e-4
-0.736, 2.186e-4
-0.737, 2.187e-4
-0.738, 2.186e-4
-0.739, 2.195e-4
-0.740, 2.206e-4
-0.741, 2.207e-4
-0.742, 2.205e-4
-0.743, 2.202e-4
-0.744, 2.208e-4
-0.745, 2.217e-4
-0.746, 2.222e-4
-0.747, 2.227e-4
-0.748, 2.227e-4
-0.749, 2.226e-4
-0.750, 2.267e-4
-0.751, 2.293e-4
-0.752, 2.289e-4
-0.753, 2.293e-4
-0.754, 2.298e-4
-0.755, 2.299e-4
-0.756, 2.299e-4
-0.757, 2.297e-4
-0.758, 2.299e-4
-0.759, 2.297e-4
-0.760, 2.303e-4
-0.761, 2.312e-4
-0.762, 2.325e-4
-0.763, 2.328e-4
-0.764, 2.335e-4
-0.765, 2.341e-4
-0.766, 2.350e-4
-0.767, 2.352e-4
-0.768, 2.358e-4
-0.769, 2.366e-4
-0.770, 2.374e-4
-0.771, 2.395e-4
-0.772, 2.396e-4
-0.773, 2.393e-4
-0.774, 2.399e-4
-0.775, 2.405e-4
-0.776, 2.408e-4
-0.777, 2.419e-4
-0.778, 2.431e-4
-0.779, 2.446e-4
-0.780, 2.454e-4
-0.781, 2.456e-4
-0.782, 2.462e-4
-0.783, 2.472e-4
-0.784, 2.482e-4
-0.785, 2.492e-4
-0.786, 2.499e-4
-0.787, 2.508e-4
-0.788, 2.516e-4
-0.789, 2.524e-4
-0.790, 2.523e-4
-0.791, 2.538e-4
-0.792, 2.541e-4
-0.793, 2.548e-4
-0.794, 2.560e-4
-0.795, 2.569e-4
-0.796, 2.580e-4
-0.797, 2.590e-4
-0.798, 2.601e-4
-0.799, 2.616e-4
-0.800, 2.621e-4
-0.801, 2.622e-4
-0.802, 2.635e-4
-0.803, 2.650e-4
-0.804, 2.662e-4
-0.805, 2.668e-4
-0.806, 2.678e-4
-0.807, 2.688e-4
-0.808, 2.698e-4
-0.809, 2.713e-4
-0.810, 2.725e-4
-0.811, 2.725e-4
-0.812, 2.738e-4
-0.813, 2.756e-4
-0.814, 2.763e-4
-0.815, 2.776e-4
-0.816, 2.788e-4
-0.817, 2.804e-4
-0.818, 2.808e-4
-0.819, 2.821e-4
-0.820, 2.838e-4
-0.821, 2.847e-4
-0.822, 2.859e-4
-0.823, 2.870e-4
-0.824, 2.878e-4
-0.825, 2.885e-4
-0.826, 2.903e-4
-0.827, 2.925e-4
-0.828, 2.931e-4
-0.829, 2.942e-4
-0.830, 2.948e-4
-0.831, 2.965e-4
-0.832, 2.976e-4
-0.833, 2.995e-4
-0.834, 3.017e-4
-0.835, 3.035e-4
-0.836, 3.038e-4
-0.837, 3.051e-4
-0.838, 3.071e-4
-0.839, 3.087e-4
-0.840, 3.105e-4
-0.841, 3.111e-4
-0.842, 3.127e-4
-0.843, 3.146e-4
-0.844, 3.163e-4
-0.845, 3.172e-4
-0.846, 3.181e-4
-0.847, 3.206e-4
-0.848, 3.227e-4
-0.849, 3.244e-4
-0.850, 3.262e-4
-0.851, 3.282e-4
-0.852, 3.298e-4
-0.853, 3.304e-4
-0.854, 3.308e-4
-0.855, 3.322e-4
-0.856, 3.341e-4
-0.857, 3.360e-4
-0.858, 3.380e-4
-0.859, 3.407e-4
-0.860, 3.427e-4
-0.861, 3.447e-4
-0.862, 3.465e-4
-0.863, 3.484e-4
-0.864, 3.501e-4
-0.865, 3.511e-4
-0.866, 3.524e-4
-0.867, 3.542e-4
-0.868, 3.554e-4
-0.869, 3.572e-4
-0.870, 3.598e-4
-0.871, 3.616e-4
-0.872, 3.634e-4
-0.873, 3.656e-4
-0.874, 3.681e-4
-0.875, 3.695e-4
-0.876, 3.712e-4
-0.877, 3.728e-4
-0.878, 3.744e-4
-0.879, 3.762e-4
-0.880, 3.785e-4
-0.881, 3.804e-4
-0.882, 3.821e-4
-0.883, 3.832e-4
-0.884, 3.846e-4
-0.885, 3.864e-4
-0.886, 3.891e-4
-0.887, 3.916e-4
-0.888, 3.936e-4
-0.889, 3.952e-4
-0.890, 3.967e-4
-0.891, 3.978e-4
-0.892, 3.989e-4
-0.893, 4.007e-4
-0.894, 4.030e-4
-0.895, 4.054e-4
-0.896, 4.066e-4
-0.897, 4.079e-4
-0.898, 4.102e-4
-0.899, 4.125e-4
-0.900, 4.146e-4
-0.901, 4.166e-4
-0.902, 4.184e-4
-0.903, 4.200e-4
-0.904, 4.214e-4
-0.905, 4.227e-4
-0.906, 4.233e-4
-0.907, 4.259e-4
-0.908, 4.279e-4
-0.909, 4.295e-4
-0.910, 4.312e-4
-0.911, 4.333e-4
-0.912, 4.372e-4
-0.913, 4.388e-4
-0.914, 4.393e-4
-0.915, 4.424e-4
-0.916, 4.429e-4
-0.917, 4.444e-4
-0.918, 4.464e-4
-0.919, 4.484e-4
-0.920, 4.510e-4
-0.921, 4.518e-4
-0.922, 4.533e-4
-0.923, 4.562e-4
-0.924, 4.585e-4
-0.925, 4.595e-4
-0.926, 4.606e-4
-0.927, 4.607e-4
-0.928, 4.627e-4
-0.929, 4.648e-4
-0.930, 4.651e-4
-0.931, 4.684e-4
-0.932, 4.722e-4
-0.933, 4.736e-4
-0.934, 4.752e-4
-0.935, 4.766e-4
-0.936, 4.772e-4
-0.937, 4.780e-4
-0.938, 4.806e-4
-0.939, 4.829e-4
-0.940, 4.835e-4
-0.941, 4.834e-4
-0.942, 4.862e-4
-0.943, 4.870e-4
-0.944, 4.882e-4
-0.945, 4.885e-4
-0.946, 4.908e-4
-0.947, 4.926e-4
-0.948, 4.926e-4
-0.949, 4.948e-4
-0.950, 4.964e-4
-0.951, 4.955e-4
-0.952, 4.966e-4
-0.953, 4.978e-4
-0.954, 4.992e-4
-0.955, 5.019e-4
-0.956, 5.019e-4
-0.957, 5.023e-4
-0.958, 5.031e-4
-0.959, 5.046e-4
-0.960, 5.063e-4
-0.961, 5.086e-4
-0.962, 5.102e-4
-0.963, 5.103e-4
-0.964, 5.102e-4
-0.965, 5.109e-4
-0.966, 5.120e-4
-0.967, 5.130e-4
-0.968, 5.144e-4
-0.969, 5.153e-4
-0.970, 5.172e-4
-0.971, 5.189e-4
-0.972, 5.205e-4
-0.973, 5.207e-4
-0.974, 5.205e-4
-0.975, 5.218e-4
-0.976, 5.235e-4
-0.977, 5.251e-4
-0.978, 5.257e-4
-0.979, 5.267e-4
-0.980, 5.284e-4
-0.981, 5.312e-4
-0.982, 5.318e-4
-0.983, 5.322e-4
-0.984, 5.354e-4
-0.985, 5.375e-4
-0.986, 5.367e-4
-0.987, 5.386e-4
-0.988, 5.395e-4
-0.989, 5.411e-4
-0.990, 5.426e-4
-0.991, 5.444e-4
-0.992, 5.452e-4
-0.993, 5.471e-4
-0.994, 5.488e-4
-0.995, 5.498e-4
-0.996, 5.508e-4
-0.997, 5.526e-4
-0.998, 5.552e-4
-0.999, 5.578e-4
-1.000, 5.582e-4
-1.001, 5.585e-4
-1.002, 5.612e-4
-1.003, 5.638e-4
-1.004, 5.662e-4
-1.005, 5.667e-4
-1.006, 5.669e-4
-1.007, 5.672e-4
-1.008, 5.685e-4
-1.009, 5.691e-4
-1.010, 5.711e-4
-1.011, 5.733e-4
-1.012, 5.757e-4
-1.013, 5.754e-4
-1.014, 5.757e-4
-1.015, 5.763e-4
-1.016, 5.765e-4
-1.017, 5.795e-4
-1.018, 5.799e-4
-1.019, 5.808e-4
-1.020, 5.823e-4
-1.021, 5.836e-4
-1.022, 5.838e-4
-1.023, 5.856e-4
-1.024, 5.852e-4
-1.025, 5.877e-4
-1.026, 5.902e-4
-1.027, 5.911e-4
-1.028, 5.904e-4
-1.029, 5.922e-4
-1.030, 5.936e-4
-1.031, 5.954e-4
-1.032, 5.954e-4
-1.033, 5.936e-4
-1.034, 5.953e-4
-1.035, 5.983e-4
-1.036, 5.992e-4
-1.037, 5.994e-4
-1.038, 6.009e-4
-1.039, 6.017e-4
-1.040, 6.036e-4
-1.041, 6.070e-4
-1.042, 6.059e-4
-1.043, 6.075e-4
-1.044, 6.101e-4
-1.045, 6.121e-4
-1.046, 6.131e-4
-1.047, 6.152e-4
-1.048, 6.169e-4
-1.049, 6.189e-4
-1.050, 6.220e-4
-1.051, 6.230e-4
-1.052, 6.236e-4
-1.053, 6.247e-4
-1.054, 6.268e-4
-1.055, 6.295e-4
-1.056, 6.299e-4
-1.057, 6.308e-4
-1.058, 6.343e-4
-1.059, 6.372e-4
-1.060, 6.388e-4
-1.061, 6.410e-4
-1.062, 6.442e-4
-1.063, 6.481e-4
-1.064, 6.500e-4
-1.065, 6.488e-4
-1.066, 6.520e-4
-1.067, 6.548e-4
-1.068, 6.579e-4
-1.069, 6.596e-4
-1.070, 6.612e-4
-1.071, 6.639e-4
-1.072, 6.680e-4
-1.073, 6.711e-4
-1.074, 6.724e-4
-1.075, 6.750e-4
-1.076, 6.816e-4
-1.077, 6.880e-4
-1.078, 6.915e-4
-1.079, 6.933e-4
-1.080, 6.978e-4
-1.081, 7.026e-4
-1.082, 7.067e-4
-1.083, 7.101e-4
-1.084, 7.157e-4
-1.085, 7.203e-4
-1.086, 7.260e-4
-1.087, 7.302e-4
-1.088, 7.344e-4
-1.089, 7.394e-4
-1.090, 7.451e-4
-1.091, 7.505e-4
-1.092, 7.562e-4
-1.093, 7.621e-4
-1.094, 7.684e-4
-1.095, 7.794e-4
-1.096, 7.883e-4
-1.097, 7.943e-4
-1.098, 8.009e-4
-1.099, 8.060e-4
-1.100, 8.110e-4
-1.101, 8.176e-4
-1.102, 8.230e-4
-1.103, 8.292e-4
-1.104, 8.381e-4
-1.105, 8.491e-4
-1.106, 8.596e-4
-1.107, 8.687e-4
-1.108, 8.750e-4
-1.109, 8.809e-4
-1.110, 8.908e-4
-1.111, 9.008e-4
-1.112, 9.112e-4
-1.113, 9.210e-4
-1.114, 9.295e-4
-1.115, 9.389e-4
-1.116, 9.455e-4
-1.117, 9.558e-4
-1.118, 9.689e-4
-1.119, 9.822e-4
-1.120, 9.922e-4
-1.121, 1.002e-3
-1.122, 1.010e-3
-1.123, 1.011e-3
-1.124, 1.011e-3
-1.125, 1.011e-3
-1.126, 1.011e-3
-1.127, 1.011e-3
-1.128, 1.011e-3
-1.129, 1.011e-3
-1.130, 1.011e-3
-1.131, 1.011e-3
-1.132, 1.011e-3
-1.133, 1.011e-3
-1.134, 1.011e-3
-1.135, 1.011e-3
-1.136, 1.011e-3
-1.137, 1.011e-3
-1.138, 1.011e-3
-1.139, 1.011e-3
-1.140, 1.011e-3
-1.141, 1.011e-3
-1.142, 1.011e-3
-1.143, 1.011e-3
-1.144, 1.011e-3
-1.145, 1.011e-3
-1.146, 1.011e-3
-1.147, 1.011e-3
-1.148, 1.011e-3
-1.149, 1.011e-3
-1.150, 1.011e-3
-1.151, 1.011e-3
-1.152, 1.011e-3
-1.153, 1.011e-3
-1.154, 1.011e-3
-1.155, 1.011e-3
-1.156, 1.011e-3
-1.157, 1.011e-3
-1.158, 1.011e-3
-1.159, 1.011e-3
-1.160, 1.011e-3
-1.161, 1.011e-3
-1.162, 1.011e-3
-1.163, 1.011e-3
-1.164, 1.011e-3
-1.165, 1.011e-3
-1.166, 1.011e-3
-1.167, 1.011e-3
-1.168, 1.011e-3
-1.169, 1.011e-3
-1.170, 1.011e-3
-1.171, 1.011e-3
-1.172, 1.011e-3
-1.173, 1.011e-3
-1.174, 1.011e-3
-1.175, 1.011e-3
-1.176, 1.011e-3
-1.177, 1.011e-3
-1.178, 1.011e-3
-1.179, 1.011e-3
-1.180, 1.011e-3
-1.181, 1.011e-3
-1.182, 1.011e-3
-1.183, 1.011e-3
-1.184, 1.011e-3
-1.185, 1.011e-3
-1.186, 1.011e-3
-1.187, 1.011e-3
-1.188, 1.011e-3
-1.189, 1.011e-3
-1.190, 1.011e-3
-1.191, 1.011e-3
-1.192, 1.011e-3
-1.193, 1.011e-3
-1.194, 1.011e-3
-1.195, 1.011e-3
-1.196, 1.011e-3
-1.197, 1.011e-3
-1.198, 1.011e-3
-1.199, 1.011e-3
-1.200, 1.011e-3
-1.201, 1.011e-3
-1.202, 1.011e-3
-1.203, 1.011e-3
-1.204, 1.011e-3
-1.205, 1.011e-3
-1.206, 1.011e-3
-1.207, 1.011e-3
-1.208, 1.011e-3
-1.209, 1.011e-3
-1.210, 1.011e-3
-1.211, 1.011e-3
-1.212, 1.011e-3
-1.213, 1.011e-3
-1.214, 1.011e-3
-1.215, 1.011e-3
-1.216, 1.011e-3
-1.217, 1.011e-3
-1.218, 1.011e-3
-1.219, 1.011e-3
-1.220, 1.011e-3
-1.221, 1.011e-3
-1.222, 1.011e-3
-1.223, 1.011e-3
-1.224, 1.011e-3
-1.225, 1.011e-3
-1.226, 1.011e-3
-1.227, 1.011e-3
-1.228, 1.011e-3
-1.229, 1.011e-3
-1.230, 1.011e-3
-1.231, 1.011e-3
-1.232, 1.011e-3
-1.233, 1.011e-3
-1.234, 1.011e-3
-1.235, 1.011e-3
-1.236, 1.011e-3
-1.237, 1.011e-3
-1.238, 1.011e-3
-1.239, 1.011e-3
-1.240, 1.011e-3
-1.241, 1.011e-3
-1.242, 1.011e-3
-1.243, 1.011e-3
-1.244, 1.011e-3
-1.245, 1.011e-3
-1.246, 1.011e-3
-1.247, 1.011e-3
-1.248, 1.011e-3
-1.249, 1.011e-3
-1.250, 1.011e-3
-1.251, 1.011e-3
-1.252, 1.011e-3
-1.253, 1.011e-3
-1.254, 1.011e-3
-1.255, 1.011e-3
-1.256, 1.011e-3
-1.257, 1.011e-3
-1.258, 1.011e-3
-1.259, 1.011e-3
-1.260, 1.011e-3
-1.261, 1.011e-3
-1.262, 1.011e-3
-1.263, 1.011e-3
-1.264, 1.011e-3
-1.265, 1.011e-3
-1.266, 1.011e-3
-1.267, 1.011e-3
-1.268, 1.011e-3
-1.269, 1.011e-3
-1.270, 1.011e-3
-1.271, 1.011e-3
-1.272, 1.011e-3
-1.273, 1.011e-3
-1.274, 1.011e-3
-1.275, 1.011e-3
-1.276, 1.011e-3
-1.277, 1.011e-3
-1.278, 1.011e-3
-1.279, 1.011e-3
-1.280, 1.011e-3
-1.281, 1.011e-3
-1.282, 1.011e-3
-1.283, 1.011e-3
-1.284, 1.011e-3
-1.285, 1.011e-3
-1.286, 1.011e-3
-1.287, 1.011e-3
-1.288, 1.011e-3
-1.289, 1.011e-3
-1.290, 1.011e-3
-1.291, 1.011e-3
-1.292, 1.011e-3
-1.293, 1.011e-3
-1.294, 1.011e-3
-1.295, 1.011e-3
-1.296, 1.011e-3
-1.297, 1.011e-3
-1.298, 1.011e-3
-1.299, 1.011e-3
-1.300, 1.011e-3
-1.301, 1.011e-3
-1.302, 1.011e-3
-1.303, 1.011e-3
-1.304, 1.011e-3
-1.305, 1.011e-3
-1.306, 1.011e-3
-1.307, 1.011e-3
-1.308, 1.011e-3
-1.309, 1.011e-3
-1.310, 1.011e-3
-1.311, 1.011e-3
-1.312, 1.011e-3
-1.313, 1.011e-3
-1.314, 1.011e-3
-1.315, 1.011e-3
-1.316, 1.011e-3
-1.317, 1.011e-3
-1.318, 1.011e-3
-1.319, 1.011e-3
-1.320, 1.011e-3
-1.321, 1.011e-3
-1.322, 1.011e-3
-1.323, 1.011e-3
-1.324, 1.011e-3
-1.325, 1.011e-3
-1.326, 1.011e-3
-1.327, 1.011e-3
-1.328, 1.011e-3
-1.329, 1.011e-3
-1.330, 1.011e-3
-1.331, 1.011e-3
-1.332, 1.011e-3
-1.333, 1.011e-3
-1.334, 1.011e-3
-1.335, 1.011e-3
-1.336, 1.011e-3
-1.337, 1.011e-3
-1.338, 1.011e-3
-1.339, 1.011e-3
-1.340, 1.011e-3
-1.341, 1.011e-3
-1.342, 1.011e-3
-1.343, 1.011e-3
-1.344, 1.011e-3
-1.345, 1.011e-3
-1.346, 1.011e-3
-1.347, 1.011e-3
-1.348, 1.011e-3
-1.349, 1.011e-3
-1.350, 1.011e-3
-1.351, 1.011e-3
-1.352, 1.011e-3
-1.353, 1.011e-3
-1.354, 1.011e-3
-1.355, 1.011e-3
-1.356, 1.011e-3
-1.357, 1.011e-3
-1.358, 1.011e-3
-1.359, 1.011e-3
-1.360, 1.011e-3
-1.361, 1.011e-3
-1.362, 1.011e-3
-1.363, 1.011e-3
-1.364, 1.011e-3
-1.365, 1.011e-3
-1.366, 1.011e-3
-1.367, 1.011e-3
-1.368, 1.011e-3
-1.369, 1.011e-3
-1.370, 1.011e-3
-1.371, 1.011e-3
-1.372, 1.011e-3
-1.373, 1.011e-3
-1.374, 1.011e-3
-1.375, 1.011e-3
-1.376, 1.011e-3
-1.377, 1.011e-3
-1.378, 1.011e-3
-1.379, 1.011e-3
-1.380, 1.011e-3
-1.381, 1.011e-3
-1.382, 1.011e-3
-1.383, 1.011e-3
-1.384, 1.011e-3
-1.385, 1.011e-3
-1.386, 1.011e-3
-1.387, 1.011e-3
-1.388, 1.011e-3
-1.389, 1.011e-3
-1.390, 1.011e-3
-1.391, 1.011e-3
-1.392, 1.011e-3
-1.393, 1.011e-3
-1.394, 1.011e-3
-1.395, 1.011e-3
-1.396, 1.011e-3
-1.397, 1.011e-3
-1.398, 1.011e-3
-1.399, 1.011e-3
-1.400, 1.011e-3
-1.401, 1.011e-3
-1.402, 1.011e-3
-1.403, 1.011e-3
-1.404, 1.011e-3
-1.405, 1.011e-3
-1.406, 1.011e-3
-1.407, 1.011e-3
-1.408, 1.011e-3
-1.409, 1.011e-3
-1.410, 1.011e-3
-1.411, 1.011e-3
-1.412, 1.011e-3
-1.413, 1.011e-3
-1.414, 1.011e-3
-1.415, 1.011e-3
-1.416, 1.011e-3
-1.417, 1.011e-3
-1.418, 1.011e-3
-1.419, 1.011e-3
-1.420, 1.011e-3
-1.421, 1.011e-3
-1.422, 1.011e-3
-1.423, 1.011e-3
-1.424, 1.011e-3
-1.425, 1.011e-3
-1.426, 1.011e-3
-1.427, 1.011e-3
-1.428, 1.011e-3
-1.429, 1.011e-3
-1.430, 1.011e-3
-1.431, 1.011e-3
-1.432, 1.011e-3
-1.433, 1.011e-3
-1.434, 1.011e-3
-1.435, 1.011e-3
-1.436, 1.011e-3
-1.437, 1.011e-3
-1.438, 1.011e-3
-1.439, 1.011e-3
-1.440, 1.011e-3
-1.441, 1.011e-3
-1.442, 1.011e-3
-1.443, 1.011e-3
-1.444, 1.011e-3
-1.445, 1.011e-3
-1.446, 1.011e-3
-1.447, 1.011e-3
-1.448, 1.011e-3
-1.449, 1.011e-3
-1.450, 1.011e-3
-1.451, 1.011e-3
-1.452, 1.011e-3
-1.453, 1.011e-3
-1.454, 1.011e-3
-1.455, 1.011e-3
-1.456, 1.011e-3
-1.457, 1.011e-3
-1.458, 1.011e-3
-1.459, 1.011e-3
-1.460, 1.011e-3
-1.461, 1.011e-3
-1.462, 1.011e-3
-1.463, 1.011e-3
-1.464, 1.011e-3
-1.465, 1.011e-3
-1.466, 1.011e-3
-1.467, 1.011e-3
-1.468, 1.011e-3
-1.469, 1.011e-3
-1.470, 1.011e-3
-1.471, 1.011e-3
-1.472, 1.011e-3
-1.473, 1.011e-3
-1.474, 1.011e-3
-1.475, 1.011e-3
-1.476, 1.011e-3
-1.477, 1.011e-3
-1.478, 1.011e-3
-1.479, 1.011e-3
-1.480, 1.011e-3
-1.481, 1.011e-3
-1.482, 1.011e-3
-1.483, 1.011e-3
-1.484, 1.011e-3
-1.485, 1.011e-3
-1.486, 1.011e-3
-1.487, 1.011e-3
-1.488, 1.011e-3
-1.489, 1.011e-3
-1.490, 1.011e-3
-1.491, 1.011e-3
-1.492, 1.011e-3
-1.493, 1.011e-3
-1.494, 1.011e-3
-1.495, 1.011e-3
-1.496, 1.011e-3
-1.497, 1.011e-3
-1.498, 1.011e-3
-1.499, 1.011e-3
-1.500, 1.011e-3
-1.501, 1.011e-3
-1.502, 1.011e-3
-1.503, 1.011e-3
-1.504, 1.011e-3
-1.505, 1.011e-3
-1.506, 1.011e-3
-1.507, 1.011e-3
-1.508, 1.011e-3
-1.509, 1.011e-3
-1.510, 1.011e-3
-1.511, 1.011e-3
-1.512, 1.011e-3
-1.513, 1.011e-3
-1.514, 1.011e-3
-1.515, 1.011e-3
-1.516, 1.011e-3
-1.517, 1.011e-3
-1.518, 1.011e-3
-1.519, 1.011e-3
-1.520, 1.011e-3
-1.521, 1.011e-3
-1.522, 1.011e-3
-1.523, 1.011e-3
-1.524, 1.011e-3
-1.525, 1.011e-3
-1.526, 1.011e-3
-1.527, 1.011e-3
-1.528, 1.011e-3
-1.529, 1.011e-3
-1.530, 1.011e-3
-1.531, 1.011e-3
-1.532, 1.011e-3
-1.533, 1.011e-3
-1.534, 1.011e-3
-1.535, 1.011e-3
-1.536, 1.011e-3
-1.537, 1.011e-3
-1.538, 1.011e-3
-1.539, 1.011e-3
-1.540, 1.011e-3
-1.541, 1.011e-3
-1.542, 1.011e-3
-1.543, 1.011e-3
-1.544, 1.011e-3
-1.545, 1.011e-3
-1.546, 1.011e-3
-1.547, 1.011e-3
-1.548, 1.011e-3
-1.549, 1.011e-3
-1.550, 1.011e-3
-1.551, 1.011e-3
-1.552, 1.011e-3
-1.553, 1.011e-3
-1.554, 1.011e-3
-1.555, 1.011e-3
-1.556, 1.011e-3
-1.557, 1.011e-3
-1.558, 1.011e-3
-1.559, 1.011e-3
-1.560, 1.011e-3
-1.561, 1.011e-3
-1.562, 1.011e-3
-1.563, 1.011e-3
-1.564, 1.011e-3
-1.565, 1.011e-3
-1.566, 1.011e-3
-1.567, 1.011e-3
-1.568, 1.011e-3
-1.569, 1.011e-3
-1.570, 1.011e-3
-1.571, 1.011e-3
-1.572, 1.011e-3
-1.573, 1.011e-3
-1.574, 1.011e-3
-1.575, 1.011e-3
-1.576, 1.011e-3
-1.577, 1.011e-3
-1.578, 1.011e-3
-1.579, 1.011e-3
-1.580, 1.011e-3
-1.581, 1.011e-3
-1.582, 1.011e-3
-1.583, 1.011e-3
-1.584, 1.011e-3
-1.585, 1.011e-3
-1.586, 1.011e-3
-1.587, 1.011e-3
-1.588, 1.011e-3
-1.589, 1.011e-3
-1.590, 1.011e-3
-1.591, 1.011e-3
-1.592, 1.011e-3
-1.593, 1.011e-3
-1.594, 1.011e-3
-1.595, 1.011e-3
-1.596, 1.011e-3
-1.597, 1.011e-3
-1.598, 1.011e-3
-1.599, 1.011e-3
-1.600, 1.011e-3
-1.601, 1.011e-3
-1.602, 1.011e-3
-1.603, 1.011e-3
-1.604, 1.011e-3
-1.605, 1.011e-3
-1.606, 1.011e-3
-1.607, 1.011e-3
-1.608, 1.011e-3
-1.609, 1.011e-3
-1.610, 1.011e-3
-1.611, 1.011e-3
-1.612, 1.011e-3
-1.613, 1.011e-3
-1.614, 1.011e-3
-1.615, 1.011e-3
-1.616, 1.011e-3
-1.617, 1.011e-3
-1.618, 1.011e-3
-1.619, 1.011e-3
-1.620, 1.011e-3
-1.621, 1.011e-3
-1.622, 1.011e-3
-1.623, 1.011e-3
-1.624, 1.011e-3
-1.625, 1.011e-3
-1.626, 1.011e-3
-1.627, 1.011e-3
-1.628, 1.011e-3
-1.629, 1.011e-3
-1.630, 1.011e-3
-1.631, 1.011e-3
-1.632, 1.011e-3
-1.633, 1.011e-3
-1.634, 1.011e-3
-1.635, 1.011e-3
-1.636, 1.011e-3
-1.637, 1.011e-3
-1.638, 1.011e-3
-1.639, 1.011e-3
-1.640, 1.011e-3
-1.641, 1.011e-3
-1.642, 1.011e-3
-1.643, 1.011e-3
-1.644, 1.011e-3
-1.645, 1.011e-3
-1.646, 1.011e-3
-1.647, 1.011e-3
-1.648, 1.011e-3
-1.649, 1.011e-3
-1.650, 1.011e-3
-1.651, 1.011e-3
-1.652, 1.011e-3
-1.653, 1.011e-3
-1.654, 1.011e-3
-1.655, 1.011e-3
-1.656, 1.011e-3
-1.657, 1.011e-3
-1.658, 1.011e-3
-1.659, 1.011e-3
-1.660, 1.011e-3
-1.661, 1.011e-3
-1.662, 1.011e-3
-1.663, 1.011e-3
-1.664, 1.011e-3
-1.665, 1.011e-3
-1.666, 1.011e-3
-1.667, 1.011e-3
-1.668, 1.011e-3
-1.669, 1.011e-3
-1.670, 1.011e-3
-1.671, 1.011e-3
-1.672, 1.011e-3
-1.673, 1.011e-3
-1.674, 1.011e-3
-1.675, 1.011e-3
-1.676, 1.011e-3
-1.677, 1.011e-3
-1.678, 1.011e-3
-1.679, 1.011e-3
-1.680, 1.011e-3
-1.681, 1.011e-3
-1.682, 1.011e-3
-1.683, 1.011e-3
-1.684, 1.011e-3
-1.685, 1.011e-3
-1.686, 1.011e-3
-1.687, 1.011e-3
-1.688, 1.011e-3
-1.689, 1.011e-3
-1.690, 1.011e-3
-1.691, 1.011e-3
-1.692, 1.011e-3
-1.693, 1.011e-3
-1.694, 1.011e-3
-1.695, 1.011e-3
-1.696, 1.011e-3
-1.697, 1.011e-3
-1.698, 1.011e-3
-1.699, 1.011e-3
-1.700, 1.011e-3
-1.701, 1.011e-3
-1.702, 1.011e-3
-1.703, 1.011e-3
-1.704, 1.011e-3
-1.705, 1.011e-3
-1.706, 1.011e-3
-1.707, 1.011e-3
-1.708, 1.011e-3
-1.709, 1.011e-3
-1.710, 1.011e-3
-1.711, 1.011e-3
-1.712, 1.011e-3
-1.713, 1.011e-3
-1.714, 1.011e-3
-1.715, 1.011e-3
-1.716, 1.011e-3
-1.717, 1.011e-3
-1.718, 1.011e-3
-1.719, 1.011e-3
-1.720, 1.011e-3
-1.721, 1.011e-3
-1.722, 1.011e-3
-1.723, 1.011e-3
-1.724, 1.011e-3
-1.725, 1.011e-3
-1.726, 1.011e-3
-1.727, 1.011e-3
-1.728, 1.011e-3
-1.729, 1.011e-3
-1.730, 1.011e-3
-1.731, 1.011e-3
-1.732, 1.011e-3
-1.733, 1.011e-3
-1.734, 1.011e-3
-1.735, 1.011e-3
-1.736, 1.011e-3
-1.737, 1.011e-3
-1.738, 1.011e-3
-1.739, 1.011e-3
-1.740, 1.011e-3
-1.741, 1.011e-3
-1.742, 1.011e-3
-1.743, 1.011e-3
-1.744, 1.011e-3
-1.745, 1.011e-3
-1.746, 1.011e-3
-1.747, 1.011e-3
-1.748, 1.011e-3
-1.749, 1.011e-3
-1.750, 1.011e-3
-1.751, 1.011e-3
-1.752, 1.011e-3
-1.753, 1.011e-3
-1.754, 1.011e-3
-1.755, 1.011e-3
-1.756, 1.011e-3
-1.757, 1.011e-3
-1.758, 1.011e-3
-1.759, 1.011e-3
-1.760, 1.011e-3
-1.761, 1.011e-3
-1.762, 1.011e-3
-1.763, 1.011e-3
-1.764, 1.011e-3
-1.765, 1.011e-3
-1.766, 1.011e-3
-1.767, 1.011e-3
-1.768, 1.011e-3
-1.769, 1.011e-3
-1.770, 1.011e-3
-1.771, 1.011e-3
-1.772, 1.011e-3
-1.773, 1.011e-3
-1.774, 1.011e-3
-1.775, 1.011e-3
-1.776, 1.011e-3
-1.777, 1.011e-3
-1.778, 1.011e-3
-1.779, 1.011e-3
-1.780, 1.011e-3
-1.781, 1.011e-3
-1.782, 1.011e-3
-1.783, 1.011e-3
-1.784, 1.011e-3
-1.785, 1.011e-3
-1.786, 1.011e-3
-1.787, 1.011e-3
-1.788, 1.011e-3
-1.789, 1.011e-3
-1.790, 1.011e-3
-1.791, 1.011e-3
-1.792, 1.011e-3
-1.793, 1.011e-3
-1.794, 1.011e-3
-1.795, 1.011e-3
-1.796, 1.011e-3
-1.797, 1.011e-3
-1.798, 1.011e-3
-1.799, 1.011e-3
-1.800, 1.011e-3
-1.801, 1.011e-3
-1.802, 1.011e-3
-1.803, 1.011e-3
-1.804, 1.011e-3
-1.805, 1.011e-3
-1.806, 1.011e-3
-1.807, 1.011e-3
-1.808, 1.011e-3
-1.809, 1.011e-3
-1.810, 1.011e-3
-1.811, 1.011e-3
-1.812, 1.011e-3
-1.813, 1.011e-3
-1.814, 1.011e-3
-1.815, 1.011e-3
-1.816, 1.011e-3
-1.817, 1.011e-3
-1.818, 1.011e-3
-1.819, 1.011e-3
-1.820, 1.011e-3
-1.821, 1.011e-3
-1.822, 1.011e-3
-1.823, 1.011e-3
-1.824, 1.011e-3
-1.825, 1.011e-3
-1.826, 1.011e-3
-1.827, 1.011e-3
-1.828, 1.011e-3
-1.829, 1.011e-3
-1.830, 1.011e-3
-1.831, 1.011e-3
-1.832, 1.011e-3
-1.833, 1.011e-3
-1.834, 1.011e-3
-1.835, 1.011e-3
-1.836, 1.011e-3
-1.837, 1.011e-3
-1.838, 1.011e-3
-1.839, 1.011e-3
-1.840, 1.011e-3
-1.841, 1.011e-3
-1.842, 1.011e-3
-1.843, 1.011e-3
-1.844, 1.011e-3
-1.845, 1.011e-3
-1.846, 1.011e-3
-1.847, 1.011e-3
-1.848, 1.011e-3
-1.849, 1.011e-3
-1.850, 1.011e-3
-1.851, 1.011e-3
-1.852, 1.011e-3
-1.853, 1.011e-3
-1.854, 1.011e-3
-1.855, 1.011e-3
-1.856, 1.011e-3
-1.857, 1.011e-3
-1.858, 1.011e-3
-1.859, 1.011e-3
-1.860, 1.011e-3
-1.861, 1.011e-3
-1.862, 1.011e-3
-1.863, 1.011e-3
-1.864, 1.011e-3
-1.865, 1.011e-3
-1.866, 1.011e-3
-1.867, 1.011e-3
-1.868, 1.011e-3
-1.869, 1.011e-3
-1.870, 1.011e-3
-1.871, 1.011e-3
-1.872, 1.011e-3
-1.873, 1.011e-3
-1.874, 1.011e-3
-1.875, 1.011e-3
-1.876, 1.011e-3
-1.877, 1.011e-3
-1.878, 1.011e-3
-1.879, 1.011e-3
-1.880, 1.011e-3
-1.881, 1.011e-3
-1.882, 1.011e-3
-1.883, 1.011e-3
-1.884, 1.011e-3
-1.885, 1.011e-3
-1.886, 1.011e-3
-1.887, 1.011e-3
-1.888, 1.011e-3
-1.889, 1.011e-3
-1.890, 1.011e-3
-1.891, 1.011e-3
-1.892, 1.011e-3
-1.893, 1.011e-3
-1.894, 1.011e-3
-1.895, 1.011e-3
-1.896, 1.011e-3
-1.897, 1.011e-3
-1.898, 1.011e-3
-1.899, 1.011e-3
-1.900, 1.011e-3
-1.901, 1.011e-3
-1.902, 1.011e-3
-1.903, 1.011e-3
-1.904, 1.011e-3
-1.905, 1.011e-3
-1.906, 1.011e-3
-1.907, 1.011e-3
-1.908, 1.011e-3
-1.909, 1.011e-3
-1.910, 1.011e-3
-1.911, 1.011e-3
-1.912, 1.011e-3
-1.913, 1.011e-3
-1.914, 1.011e-3
-1.915, 1.011e-3
-1.916, 1.011e-3
-1.917, 1.011e-3
-1.918, 1.011e-3
-1.919, 1.011e-3
-1.920, 1.011e-3
-1.921, 1.011e-3
-1.922, 1.011e-3
-1.923, 1.011e-3
-1.924, 1.011e-3
-1.925, 1.011e-3
-1.926, 1.011e-3
-1.927, 1.011e-3
-1.928, 1.011e-3
-1.929, 1.011e-3
-1.930, 1.011e-3
-1.931, 1.011e-3
-1.932, 1.011e-3
-1.933, 1.011e-3
-1.934, 1.011e-3
-1.935, 1.011e-3
-1.936, 1.011e-3
-1.937, 1.011e-3
-1.938, 1.011e-3
-1.939, 1.011e-3
-1.940, 1.011e-3
-1.941, 1.011e-3
-1.942, 1.011e-3
-1.943, 1.011e-3
-1.944, 1.011e-3
-1.945, 1.011e-3
-1.946, 1.011e-3
-1.947, 1.011e-3
-1.948, 1.011e-3
-1.949, 1.011e-3
-1.950, 1.011e-3
-1.951, 1.011e-3
-1.952, 1.011e-3
-1.953, 1.011e-3
-1.954, 1.011e-3
-1.955, 1.011e-3
-1.956, 1.011e-3
-1.957, 1.011e-3
-1.958, 1.011e-3
-1.959, 1.011e-3
-1.960, 1.011e-3
-1.961, 1.011e-3
-1.962, 1.011e-3
-1.963, 1.011e-3
-1.964, 1.011e-3
-1.965, 1.011e-3
-1.966, 1.011e-3
-1.967, 1.011e-3
-1.968, 1.011e-3
-1.969, 1.011e-3
-1.970, 1.011e-3
-1.971, 1.011e-3
-1.972, 1.011e-3
-1.973, 1.011e-3
-1.974, 1.011e-3
-1.975, 1.011e-3
-1.976, 1.011e-3
-1.977, 1.011e-3
-1.978, 1.011e-3
-1.979, 1.011e-3
-1.980, 1.011e-3
-1.981, 1.011e-3
-1.982, 1.011e-3
-1.983, 1.011e-3
-1.984, 1.011e-3
-1.985, 1.011e-3
-1.986, 1.011e-3
-1.987, 1.011e-3
-1.988, 1.011e-3
-1.989, 1.011e-3
-1.990, 1.011e-3
-1.991, 1.011e-3
-1.992, 1.011e-3
-1.993, 1.011e-3
-1.994, 1.011e-3
-1.995, 1.011e-3
-1.996, 1.011e-3
-1.997, 1.011e-3
-1.998, 1.011e-3
-1.999, 1.011e-3
-2.000, 1.011e-3
-2.001, 1.011e-3
-2.002, 1.011e-3
-2.003, 1.011e-3
-2.004, 1.011e-3
-2.005, 1.011e-3
-2.006, 1.011e-3
-2.007, 1.011e-3
-2.008, 1.011e-3
-2.009, 1.011e-3
-2.010, 1.011e-3
-2.011, 1.011e-3
-2.012, 1.011e-3
-2.013, 1.011e-3
-2.014, 1.011e-3
-2.015, 1.011e-3
-2.016, 1.011e-3
-2.017, 1.011e-3
-2.018, 1.011e-3
-2.019, 1.011e-3
-2.020, 1.011e-3
-2.021, 1.011e-3
-2.022, 1.011e-3
-2.023, 1.011e-3
-2.024, 1.011e-3
-2.025, 1.011e-3
-2.026, 1.011e-3
-2.027, 1.011e-3
-2.028, 1.011e-3
-2.029, 1.011e-3
-2.030, 1.011e-3
-2.031, 1.011e-3
-2.032, 1.011e-3
-2.033, 1.011e-3
-2.034, 1.011e-3
-2.035, 1.011e-3
-2.036, 1.011e-3
-2.037, 1.011e-3
-2.038, 1.011e-3
-2.039, 1.011e-3
-2.040, 1.011e-3
-2.041, 1.011e-3
-2.042, 1.011e-3
-2.043, 1.011e-3
-2.044, 1.011e-3
-2.045, 1.011e-3
-2.046, 1.011e-3
-2.047, 1.011e-3
-2.048, 1.011e-3
-2.049, 1.011e-3
-2.050, 1.011e-3
-2.051, 1.011e-3
-2.052, 1.011e-3
-2.053, 1.011e-3
-2.054, 1.011e-3
-2.055, 1.011e-3
-2.056, 1.011e-3
-2.057, 1.011e-3
-2.058, 1.011e-3
-2.059, 1.011e-3
-2.060, 1.011e-3
-2.061, 1.011e-3
-2.062, 1.011e-3
-2.063, 1.011e-3
-2.064, 1.011e-3
-2.065, 1.011e-3
-2.066, 1.011e-3
-2.067, 1.011e-3
-2.068, 1.011e-3
-2.069, 1.011e-3
-2.070, 1.011e-3
-2.071, 1.011e-3
-2.072, 1.011e-3
-2.073, 1.011e-3
-2.074, 1.011e-3
-2.075, 1.011e-3
-2.076, 1.011e-3
-2.077, 1.011e-3
-2.078, 1.011e-3
-2.079, 1.011e-3
-2.080, 1.011e-3
-2.081, 1.011e-3
-2.082, 1.011e-3
-2.083, 1.011e-3
-2.084, 1.011e-3
-2.085, 1.011e-3
-2.086, 1.011e-3
-2.087, 1.011e-3
-2.088, 1.011e-3
-2.089, 1.011e-3
-2.090, 1.011e-3
-2.091, 1.011e-3
-2.092, 1.011e-3
-2.093, 1.011e-3
-2.094, 1.011e-3
-2.095, 1.011e-3
-2.096, 1.011e-3
-2.097, 1.011e-3
-2.098, 1.011e-3
-2.099, 1.011e-3
-2.100, 1.011e-3
-2.101, 1.011e-3
-2.102, 1.011e-3
-2.103, 1.011e-3
-2.104, 1.011e-3
-2.105, 1.011e-3
-2.106, 1.011e-3
-2.107, 1.011e-3
-2.108, 1.011e-3
-2.109, 1.011e-3
-2.110, 1.011e-3
-2.111, 1.011e-3
-2.112, 1.011e-3
-2.113, 1.011e-3
-2.114, 1.011e-3
-2.115, 1.011e-3
-2.116, 1.011e-3
-2.117, 1.011e-3
-2.118, 1.011e-3
-2.119, 1.011e-3
-2.120, 1.011e-3
-2.121, 1.011e-3
-2.122, 1.011e-3
-2.123, 1.011e-3
-2.124, 1.011e-3
-2.125, 1.011e-3
-2.126, 1.011e-3
-2.127, 1.011e-3
-2.128, 1.011e-3
-2.129, 1.011e-3
-2.130, 1.011e-3
-2.131, 1.011e-3
-2.132, 1.011e-3
-2.133, 1.011e-3
-2.134, 1.011e-3
-2.135, 1.011e-3
-2.136, 1.011e-3
-2.137, 1.011e-3
-2.138, 1.011e-3
-2.139, 1.011e-3
-2.140, 1.011e-3
-2.141, 1.011e-3
-2.142, 1.011e-3
-2.143, 1.011e-3
-2.144, 1.011e-3
-2.145, 1.011e-3
-2.146, 1.011e-3
-2.147, 1.011e-3
-2.148, 1.011e-3
-2.149, 1.011e-3
-2.150, 1.011e-3
-2.151, 1.011e-3
-2.152, 1.011e-3
-2.153, 1.011e-3
-2.154, 1.011e-3
-2.155, 1.011e-3
-2.156, 1.011e-3
-2.157, 1.011e-3
-2.158, 1.011e-3
-2.159, 1.011e-3
-2.160, 1.011e-3
-2.161, 1.011e-3
-2.162, 1.011e-3
-2.163, 1.011e-3
-2.164, 1.011e-3
-2.165, 1.011e-3
-2.166, 1.011e-3
-2.167, 1.011e-3
-2.168, 1.011e-3
-2.169, 1.011e-3
-2.170, 1.011e-3
-2.171, 1.011e-3
-2.172, 1.011e-3
-2.173, 1.011e-3
-2.174, 1.011e-3
-2.175, 1.011e-3
-2.176, 1.011e-3
-2.177, 1.011e-3
-2.178, 1.011e-3
-2.179, 1.011e-3
-2.180, 1.011e-3
-2.181, 1.011e-3
-2.182, 1.011e-3
-2.183, 1.011e-3
-2.184, 1.011e-3
-2.185, 1.011e-3
-2.186, 1.011e-3
-2.187, 1.011e-3
-2.188, 1.011e-3
-2.189, 1.011e-3
-2.190, 1.011e-3
-2.191, 1.011e-3
-2.192, 1.011e-3
-2.193, 1.011e-3
-2.194, 1.011e-3
-2.195, 1.011e-3
-2.196, 1.011e-3
-2.197, 1.011e-3
-2.198, 1.011e-3
-2.199, 1.011e-3
-2.200, 1.011e-3
-2.201, 1.011e-3
-2.202, 1.011e-3
-2.203, 1.011e-3
-2.204, 1.011e-3
-2.205, 1.011e-3
-2.206, 1.011e-3
-2.207, 1.011e-3
-2.208, 1.011e-3
-2.209, 1.011e-3
-2.210, 1.011e-3
-2.211, 1.011e-3
-2.212, 1.011e-3
-2.213, 1.011e-3
-2.214, 1.011e-3
-2.215, 1.011e-3
-2.216, 1.011e-3
-2.217, 1.011e-3
-2.218, 1.011e-3
-2.219, 1.011e-3
-2.220, 1.011e-3
-2.221, 1.011e-3
-2.222, 1.011e-3
-2.223, 1.011e-3
-2.224, 1.011e-3
-2.225, 1.011e-3
-2.226, 1.011e-3
-2.227, 1.011e-3
-2.228, 1.011e-3
-2.229, 1.011e-3
-2.230, 1.011e-3
-2.231, 1.011e-3
-2.232, 1.011e-3
-2.233, 1.011e-3
-2.234, 1.011e-3
-2.235, 1.011e-3
-2.236, 1.011e-3
-2.237, 1.011e-3
-2.238, 1.011e-3
-2.239, 1.011e-3
-2.240, 1.011e-3
-2.241, 1.011e-3
-2.242, 1.011e-3
-2.243, 1.011e-3
-2.244, 1.011e-3
-2.245, 1.011e-3
-2.246, 1.011e-3
-2.247, 1.011e-3
-2.248, 1.011e-3
-2.249, 1.011e-3
-2.250, 1.011e-3
-2.251, 1.011e-3
-2.252, 1.011e-3
-2.253, 1.011e-3
-2.254, 1.011e-3
-2.255, 1.011e-3
-2.256, 1.011e-3
-2.257, 1.011e-3
-2.258, 1.011e-3
-2.259, 1.011e-3
-2.260, 1.011e-3
-2.261, 1.011e-3
-2.262, 1.011e-3
-2.263, 1.011e-3
-2.264, 1.011e-3
-2.265, 1.011e-3
-2.266, 1.011e-3
-2.267, 1.011e-3
-2.268, 1.011e-3
-2.269, 1.011e-3
-2.270, 1.011e-3
-2.271, 1.011e-3
-2.272, 1.011e-3
-2.273, 1.011e-3
-2.274, 1.011e-3
-2.275, 1.011e-3
-2.276, 1.011e-3
-2.277, 1.011e-3
-2.278, 1.011e-3
-2.279, 1.011e-3
-2.280, 1.011e-3
-2.281, 1.011e-3
-2.282, 1.011e-3
-2.283, 1.011e-3
-2.284, 1.011e-3
-2.285, 1.011e-3
-2.286, 1.011e-3
-2.287, 1.011e-3
-2.288, 1.011e-3
-2.289, 1.011e-3
-2.290, 1.011e-3
-2.291, 1.011e-3
-2.292, 1.011e-3
-2.293, 1.011e-3
-2.294, 1.011e-3
-2.295, 1.011e-3
-2.296, 1.011e-3
-2.297, 1.011e-3
-2.298, 1.011e-3
-2.299, 1.011e-3
