Dec. 18, 2024   20:53:00
Cyclic Voltammetry
File: c:/users/guazh/data/banditlqround7_x0exp667_r5/2024-12-16-exp694\exp694-2024-12-18t20_40_44-arkoh\exp694_cv_sr_700mvs_efin_-1500mv.bin
Data Source:  Experiment
Instrument Model:  CHI760E
Header: CV ran at 700 mVs
Note: 

Init E (V) = -1
High E (V) = -1
Low E (V) = -1.5
Final E (V) = -1
Init P/N = N
Scan Rate (V/s) = 0.7
Segment = 3
Sample Interval (V) = 0.001
Quiet Time (sec) = 2
Sensitivity (A/V) = 0.01
Comp R (ohm) = 1.1

Results:

Channel 1:
Segment 1:

Segment 2:

Segment 3:

Potential/V, Current/A

-1.000, -2.451e-5
-1.001, 1.249e-5
-1.002, 4.332e-5
-1.003, 7.107e-5
-1.004, 9.573e-5
-1.005, 1.204e-4
-1.006, 1.389e-4
-1.007, 1.574e-4
-1.008, 1.728e-4
-1.009, 1.851e-4
-1.010, 1.975e-4
-1.011, 2.098e-4
-1.012, 2.221e-4
-1.013, 2.314e-4
-1.014, 2.437e-4
-1.015, 2.561e-4
-1.016, 2.653e-4
-1.017, 2.776e-4
-1.018, 2.869e-4
-1.019, 2.961e-4
-1.020, 3.023e-4
-1.021, 3.115e-4
-1.022, 3.146e-4
-1.023, 3.239e-4
-1.024, 3.300e-4
-1.025, 3.393e-4
-1.026, 3.485e-4
-1.027, 3.547e-4
-1.028, 3.640e-4
-1.029, 3.732e-4
-1.030, 3.794e-4
-1.031, 3.886e-4
-1.032, 3.917e-4
-1.033, 3.979e-4
-1.034, 4.040e-4
-1.035, 4.102e-4
-1.036, 4.164e-4
-1.037, 4.225e-4
-1.038, 4.318e-4
-1.039, 4.410e-4
-1.040, 4.472e-4
-1.041, 4.534e-4
-1.042, 4.595e-4
-1.043, 4.688e-4
-1.044, 4.719e-4
-1.045, 4.780e-4
-1.046, 4.842e-4
-1.047, 4.904e-4
-1.048, 4.965e-4
-1.049, 5.058e-4
-1.050, 5.150e-4
-1.051, 5.212e-4
-1.052, 5.305e-4
-1.053, 5.366e-4
-1.054, 5.428e-4
-1.055, 5.520e-4
-1.056, 5.582e-4
-1.057, 5.644e-4
-1.058, 5.674e-4
-1.059, 5.767e-4
-1.060, 5.829e-4
-1.061, 5.890e-4
-1.062, 6.014e-4
-1.063, 6.106e-4
-1.064, 6.199e-4
-1.065, 6.291e-4
-1.066, 6.353e-4
-1.067, 6.445e-4
-1.068, 6.507e-4
-1.069, 6.569e-4
-1.070, 6.630e-4
-1.071, 6.692e-4
-1.072, 6.754e-4
-1.073, 6.846e-4
-1.074, 6.939e-4
-1.075, 7.031e-4
-1.076, 7.124e-4
-1.077, 7.247e-4
-1.078, 7.309e-4
-1.079, 7.401e-4
-1.080, 7.463e-4
-1.081, 7.555e-4
-1.082, 7.648e-4
-1.083, 7.740e-4
-1.084, 7.863e-4
-1.085, 7.956e-4
-1.086, 8.048e-4
-1.087, 8.141e-4
-1.088, 8.203e-4
-1.089, 8.295e-4
-1.090, 8.357e-4
-1.091, 8.449e-4
-1.092, 8.511e-4
-1.093, 8.603e-4
-1.094, 8.696e-4
-1.095, 8.788e-4
-1.096, 8.881e-4
-1.097, 9.004e-4
-1.098, 9.097e-4
-1.099, 9.220e-4
-1.100, 9.313e-4
-1.101, 9.405e-4
-1.102, 9.498e-4
-1.103, 9.559e-4
-1.104, 9.621e-4
-1.105, 9.713e-4
-1.106, 9.806e-4
-1.107, 9.898e-4
-1.108, 1.002e-3
-1.109, 1.011e-3
-1.110, 1.021e-3
-1.111, 1.030e-3
-1.112, 1.042e-3
-1.113, 1.048e-3
-1.114, 1.058e-3
-1.115, 1.064e-3
-1.116, 1.070e-3
-1.117, 1.079e-3
-1.118, 1.088e-3
-1.119, 1.098e-3
-1.120, 1.107e-3
-1.121, 1.116e-3
-1.122, 1.129e-3
-1.123, 1.135e-3
-1.124, 1.144e-3
-1.125, 1.153e-3
-1.126, 1.162e-3
-1.127, 1.169e-3
-1.128, 1.178e-3
-1.129, 1.187e-3
-1.130, 1.196e-3
-1.131, 1.209e-3
-1.132, 1.218e-3
-1.133, 1.227e-3
-1.134, 1.236e-3
-1.135, 1.246e-3
-1.136, 1.249e-3
-1.137, 1.258e-3
-1.138, 1.264e-3
-1.139, 1.270e-3
-1.140, 1.280e-3
-1.141, 1.286e-3
-1.142, 1.295e-3
-1.143, 1.307e-3
-1.144, 1.317e-3
-1.145, 1.326e-3
-1.146, 1.335e-3
-1.147, 1.344e-3
-1.148, 1.351e-3
-1.149, 1.360e-3
-1.150, 1.366e-3
-1.151, 1.372e-3
-1.152, 1.378e-3
-1.153, 1.388e-3
-1.154, 1.397e-3
-1.155, 1.406e-3
-1.156, 1.418e-3
-1.157, 1.428e-3
-1.158, 1.437e-3
-1.159, 1.446e-3
-1.160, 1.455e-3
-1.161, 1.465e-3
-1.162, 1.471e-3
-1.163, 1.480e-3
-1.164, 1.489e-3
-1.165, 1.495e-3
-1.166, 1.505e-3
-1.167, 1.514e-3
-1.168, 1.526e-3
-1.169, 1.536e-3
-1.170, 1.545e-3
-1.171, 1.554e-3
-1.172, 1.563e-3
-1.173, 1.566e-3
-1.174, 1.573e-3
-1.175, 1.582e-3
-1.176, 1.588e-3
-1.177, 1.600e-3
-1.178, 1.613e-3
-1.179, 1.622e-3
-1.180, 1.634e-3
-1.181, 1.640e-3
-1.182, 1.653e-3
-1.183, 1.662e-3
-1.184, 1.668e-3
-1.185, 1.674e-3
-1.186, 1.680e-3
-1.187, 1.690e-3
-1.188, 1.696e-3
-1.189, 1.708e-3
-1.190, 1.717e-3
-1.191, 1.730e-3
-1.192, 1.739e-3
-1.193, 1.748e-3
-1.194, 1.758e-3
-1.195, 1.767e-3
-1.196, 1.776e-3
-1.197, 1.782e-3
-1.198, 1.791e-3
-1.199, 1.801e-3
-1.200, 1.813e-3
-1.201, 1.822e-3
-1.202, 1.835e-3
-1.203, 1.847e-3
-1.204, 1.856e-3
-1.205, 1.862e-3
-1.206, 1.875e-3
-1.207, 1.887e-3
-1.208, 1.899e-3
-1.209, 1.909e-3
-1.210, 1.918e-3
-1.211, 1.927e-3
-1.212, 1.936e-3
-1.213, 1.946e-3
-1.214, 1.958e-3
-1.215, 1.967e-3
-1.216, 1.976e-3
-1.217, 1.983e-3
-1.218, 1.992e-3
-1.219, 1.998e-3
-1.220, 2.010e-3
-1.221, 2.020e-3
-1.222, 2.029e-3
-1.223, 2.044e-3
-1.224, 2.057e-3
-1.225, 2.075e-3
-1.226, 2.091e-3
-1.227, 2.103e-3
-1.228, 2.118e-3
-1.229, 2.131e-3
-1.230, 2.143e-3
-1.231, 2.152e-3
-1.232, 2.161e-3
-1.233, 2.171e-3
-1.234, 2.177e-3
-1.235, 2.186e-3
-1.236, 2.192e-3
-1.237, 2.201e-3
-1.238, 2.208e-3
-1.239, 2.217e-3
-1.240, 2.229e-3
-1.241, 2.238e-3
-1.242, 2.248e-3
-1.243, 2.260e-3
-1.244, 2.272e-3
-1.245, 2.285e-3
-1.246, 2.300e-3
-1.247, 2.312e-3
-1.248, 2.325e-3
-1.249, 2.337e-3
-1.250, 2.353e-3
-1.251, 2.365e-3
-1.252, 2.386e-3
-1.253, 2.402e-3
-1.254, 2.411e-3
-1.255, 2.420e-3
-1.256, 2.430e-3
-1.257, 2.442e-3
-1.258, 2.451e-3
-1.259, 2.460e-3
-1.260, 2.473e-3
-1.261, 2.482e-3
-1.262, 2.491e-3
-1.263, 2.501e-3
-1.264, 2.510e-3
-1.265, 2.519e-3
-1.266, 2.531e-3
-1.267, 2.544e-3
-1.268, 2.556e-3
-1.269, 2.568e-3
-1.270, 2.587e-3
-1.271, 2.599e-3
-1.272, 2.615e-3
-1.273, 2.633e-3
-1.274, 2.645e-3
-1.275, 2.658e-3
-1.276, 2.670e-3
-1.277, 2.682e-3
-1.278, 2.689e-3
-1.279, 2.701e-3
-1.280, 2.707e-3
-1.281, 2.716e-3
-1.282, 2.726e-3
-1.283, 2.738e-3
-1.284, 2.750e-3
-1.285, 2.763e-3
-1.286, 2.778e-3
-1.287, 2.787e-3
-1.288, 2.800e-3
-1.289, 2.812e-3
-1.290, 2.821e-3
-1.291, 2.830e-3
-1.292, 2.843e-3
-1.293, 2.855e-3
-1.294, 2.871e-3
-1.295, 2.880e-3
-1.296, 2.895e-3
-1.297, 2.908e-3
-1.298, 2.920e-3
-1.299, 2.929e-3
-1.300, 2.941e-3
-1.301, 2.951e-3
-1.302, 2.963e-3
-1.303, 2.975e-3
-1.304, 2.985e-3
-1.305, 2.997e-3
-1.306, 3.009e-3
-1.307, 3.019e-3
-1.308, 3.034e-3
-1.309, 3.043e-3
-1.310, 3.056e-3
-1.311, 3.068e-3
-1.312, 3.077e-3
-1.313, 3.089e-3
-1.314, 3.099e-3
-1.315, 3.108e-3
-1.316, 3.117e-3
-1.317, 3.130e-3
-1.318, 3.142e-3
-1.319, 3.154e-3
-1.320, 3.163e-3
-1.321, 3.176e-3
-1.322, 3.185e-3
-1.323, 3.194e-3
-1.324, 3.200e-3
-1.325, 3.210e-3
-1.326, 3.216e-3
-1.327, 3.225e-3
-1.328, 3.237e-3
-1.329, 3.250e-3
-1.330, 3.265e-3
-1.331, 3.274e-3
-1.332, 3.284e-3
-1.333, 3.296e-3
-1.334, 3.302e-3
-1.335, 3.311e-3
-1.336, 3.318e-3
-1.337, 3.321e-3
-1.338, 3.327e-3
-1.339, 3.330e-3
-1.340, 3.336e-3
-1.341, 3.345e-3
-1.342, 3.351e-3
-1.343, 3.361e-3
-1.344, 3.373e-3
-1.345, 3.385e-3
-1.346, 3.395e-3
-1.347, 3.401e-3
-1.348, 3.410e-3
-1.349, 3.413e-3
-1.350, 3.422e-3
-1.351, 3.429e-3
-1.352, 3.432e-3
-1.353, 3.438e-3
-1.354, 3.447e-3
-1.355, 3.450e-3
-1.356, 3.456e-3
-1.357, 3.459e-3
-1.358, 3.459e-3
-1.359, 3.462e-3
-1.360, 3.462e-3
-1.361, 3.466e-3
-1.362, 3.466e-3
-1.363, 3.472e-3
-1.364, 3.481e-3
-1.365, 3.487e-3
-1.366, 3.493e-3
-1.367, 3.499e-3
-1.368, 3.503e-3
-1.369, 3.506e-3
-1.370, 3.506e-3
-1.371, 3.509e-3
-1.372, 3.509e-3
-1.373, 3.509e-3
-1.374, 3.512e-3
-1.375, 3.512e-3
-1.376, 3.512e-3
-1.377, 3.515e-3
-1.378, 3.518e-3
-1.379, 3.521e-3
-1.380, 3.524e-3
-1.381, 3.524e-3
-1.382, 3.524e-3
-1.383, 3.524e-3
-1.384, 3.518e-3
-1.385, 3.518e-3
-1.386, 3.518e-3
-1.387, 3.518e-3
-1.388, 3.521e-3
-1.389, 3.524e-3
-1.390, 3.524e-3
-1.391, 3.524e-3
-1.392, 3.524e-3
-1.393, 3.524e-3
-1.394, 3.518e-3
-1.395, 3.515e-3
-1.396, 3.506e-3
-1.397, 3.496e-3
-1.398, 3.493e-3
-1.399, 3.490e-3
-1.400, 3.487e-3
-1.401, 3.481e-3
-1.402, 3.478e-3
-1.403, 3.475e-3
-1.404, 3.469e-3
-1.405, 3.459e-3
-1.406, 3.456e-3
-1.407, 3.450e-3
-1.408, 3.441e-3
-1.409, 3.438e-3
-1.410, 3.438e-3
-1.411, 3.438e-3
-1.412, 3.441e-3
-1.413, 3.441e-3
-1.414, 3.441e-3
-1.415, 3.435e-3
-1.416, 3.425e-3
-1.417, 3.416e-3
-1.418, 3.401e-3
-1.419, 3.382e-3
-1.420, 3.367e-3
-1.421, 3.351e-3
-1.422, 3.339e-3
-1.423, 3.327e-3
-1.424, 3.314e-3
-1.425, 3.305e-3
-1.426, 3.296e-3
-1.427, 3.290e-3
-1.428, 3.281e-3
-1.429, 3.274e-3
-1.430, 3.265e-3
-1.431, 3.259e-3
-1.432, 3.253e-3
-1.433, 3.250e-3
-1.434, 3.247e-3
-1.435, 3.244e-3
-1.436, 3.241e-3
-1.437, 3.231e-3
-1.438, 3.225e-3
-1.439, 3.213e-3
-1.440, 3.200e-3
-1.441, 3.188e-3
-1.442, 3.176e-3
-1.443, 3.167e-3
-1.444, 3.160e-3
-1.445, 3.160e-3
-1.446, 3.157e-3
-1.447, 3.157e-3
-1.448, 3.157e-3
-1.449, 3.154e-3
-1.450, 3.151e-3
-1.451, 3.145e-3
-1.452, 3.142e-3
-1.453, 3.136e-3
-1.454, 3.130e-3
-1.455, 3.126e-3
-1.456, 3.123e-3
-1.457, 3.120e-3
-1.458, 3.117e-3
-1.459, 3.114e-3
-1.460, 3.111e-3
-1.461, 3.108e-3
-1.462, 3.105e-3
-1.463, 3.102e-3
-1.464, 3.099e-3
-1.465, 3.099e-3
-1.466, 3.093e-3
-1.467, 3.089e-3
-1.468, 3.089e-3
-1.469, 3.089e-3
-1.470, 3.086e-3
-1.471, 3.086e-3
-1.472, 3.083e-3
-1.473, 3.083e-3
-1.474, 3.083e-3
-1.475, 3.080e-3
-1.476, 3.077e-3
-1.477, 3.074e-3
-1.478, 3.071e-3
-1.479, 3.068e-3
-1.480, 3.065e-3
-1.481, 3.065e-3
-1.482, 3.065e-3
-1.483, 3.068e-3
-1.484, 3.068e-3
-1.485, 3.071e-3
-1.486, 3.071e-3
-1.487, 3.071e-3
-1.488, 3.071e-3
-1.489, 3.071e-3
-1.490, 3.068e-3
-1.491, 3.068e-3
-1.492, 3.074e-3
-1.493, 3.077e-3
-1.494, 3.080e-3
-1.495, 3.083e-3
-1.496, 3.083e-3
-1.497, 3.083e-3
-1.498, 3.086e-3
-1.499, 3.080e-3
-1.500, 3.037e-3
-1.499, 2.945e-3
-1.498, 2.864e-3
-1.497, 2.790e-3
-1.496, 2.723e-3
-1.495, 2.661e-3
-1.494, 2.602e-3
-1.493, 2.550e-3
-1.492, 2.497e-3
-1.491, 2.445e-3
-1.490, 2.390e-3
-1.489, 2.337e-3
-1.488, 2.291e-3
-1.487, 2.242e-3
-1.486, 2.195e-3
-1.485, 2.149e-3
-1.484, 2.106e-3
-1.483, 2.063e-3
-1.482, 2.020e-3
-1.481, 1.980e-3
-1.480, 1.939e-3
-1.479, 1.896e-3
-1.478, 1.853e-3
-1.477, 1.813e-3
-1.476, 1.776e-3
-1.475, 1.739e-3
-1.474, 1.705e-3
-1.473, 1.671e-3
-1.472, 1.637e-3
-1.471, 1.603e-3
-1.470, 1.573e-3
-1.469, 1.536e-3
-1.468, 1.505e-3
-1.467, 1.471e-3
-1.466, 1.437e-3
-1.465, 1.406e-3
-1.464, 1.372e-3
-1.463, 1.341e-3
-1.462, 1.310e-3
-1.461, 1.280e-3
-1.460, 1.249e-3
-1.459, 1.224e-3
-1.458, 1.193e-3
-1.457, 1.166e-3
-1.456, 1.141e-3
-1.455, 1.113e-3
-1.454, 1.085e-3
-1.453, 1.058e-3
-1.452, 1.030e-3
-1.451, 1.002e-3
-1.450, 9.775e-4
-1.449, 9.528e-4
-1.448, 9.282e-4
-1.447, 9.066e-4
-1.446, 8.819e-4
-1.445, 8.603e-4
-1.444, 8.388e-4
-1.443, 8.141e-4
-1.442, 7.894e-4
-1.441, 7.648e-4
-1.440, 7.401e-4
-1.439, 7.154e-4
-1.438, 6.939e-4
-1.437, 6.723e-4
-1.436, 6.538e-4
-1.435, 6.353e-4
-1.434, 6.168e-4
-1.433, 5.983e-4
-1.432, 5.798e-4
-1.431, 5.582e-4
-1.430, 5.397e-4
-1.429, 5.181e-4
-1.428, 4.996e-4
-1.427, 4.811e-4
-1.426, 4.657e-4
-1.425, 4.503e-4
-1.424, 4.349e-4
-1.423, 4.195e-4
-1.422, 4.040e-4
-1.421, 3.855e-4
-1.420, 3.640e-4
-1.419, 3.485e-4
-1.418, 3.300e-4
-1.417, 3.115e-4
-1.416, 2.961e-4
-1.415, 2.807e-4
-1.414, 2.684e-4
-1.413, 2.530e-4
-1.412, 2.406e-4
-1.411, 2.283e-4
-1.410, 2.129e-4
-1.409, 1.975e-4
-1.408, 1.821e-4
-1.407, 1.697e-4
-1.406, 1.512e-4
-1.405, 1.358e-4
-1.404, 1.235e-4
-1.403, 1.111e-4
-1.402, 9.573e-5
-1.401, 8.648e-5
-1.400, 7.415e-5
-1.399, 6.490e-5
-1.398, 5.257e-5
-1.397, 3.715e-5
-1.396, 2.482e-5
-1.395, 9.405e-6
-1.394, -2.927e-6
-1.393, -1.526e-5
-1.392, -2.759e-5
-1.391, -3.684e-5
-1.390, -4.609e-5
-1.389, -5.534e-5
-1.388, -6.767e-5
-1.387, -7.692e-5
-1.386, -8.617e-5
-1.385, -9.850e-5
-1.384, -1.108e-4
-1.383, -1.232e-4
-1.382, -1.324e-4
-1.381, -1.448e-4
-1.380, -1.540e-4
-1.379, -1.602e-4
-1.378, -1.694e-4
-1.377, -1.756e-4
-1.376, -1.848e-4
-1.375, -1.941e-4
-1.374, -2.033e-4
-1.373, -2.157e-4
-1.372, -2.249e-4
-1.371, -2.372e-4
-1.370, -2.465e-4
-1.369, -2.557e-4
-1.368, -2.619e-4
-1.367, -2.712e-4
-1.366, -2.773e-4
-1.365, -2.835e-4
-1.364, -2.927e-4
-1.363, -2.989e-4
-1.362, -3.082e-4
-1.361, -3.174e-4
-1.360, -3.267e-4
-1.359, -3.359e-4
-1.358, -3.421e-4
-1.357, -3.513e-4
-1.356, -3.575e-4
-1.355, -3.637e-4
-1.354, -3.667e-4
-1.353, -3.760e-4
-1.352, -3.821e-4
-1.351, -3.883e-4
-1.350, -3.976e-4
-1.349, -4.037e-4
-1.348, -4.130e-4
-1.347, -4.191e-4
-1.346, -4.284e-4
-1.345, -4.346e-4
-1.344, -4.376e-4
-1.343, -4.438e-4
-1.342, -4.469e-4
-1.341, -4.531e-4
-1.340, -4.592e-4
-1.339, -4.654e-4
-1.338, -4.746e-4
-1.337, -4.808e-4
-1.336, -4.901e-4
-1.335, -4.962e-4
-1.334, -5.024e-4
-1.333, -5.086e-4
-1.332, -5.116e-4
-1.331, -5.147e-4
-1.330, -5.209e-4
-1.329, -5.240e-4
-1.328, -5.301e-4
-1.327, -5.363e-4
-1.326, -5.425e-4
-1.325, -5.486e-4
-1.324, -5.548e-4
-1.323, -5.610e-4
-1.322, -5.641e-4
-1.321, -5.702e-4
-1.320, -5.733e-4
-1.319, -5.795e-4
-1.318, -5.826e-4
-1.317, -5.856e-4
-1.316, -5.918e-4
-1.315, -5.980e-4
-1.314, -6.041e-4
-1.313, -6.103e-4
-1.312, -6.134e-4
-1.311, -6.195e-4
-1.310, -6.226e-4
-1.309, -6.226e-4
-1.308, -6.257e-4
-1.307, -6.288e-4
-1.306, -6.350e-4
-1.305, -6.380e-4
-1.304, -6.442e-4
-1.303, -6.473e-4
-1.302, -6.535e-4
-1.301, -6.627e-4
-1.300, -6.658e-4
-1.299, -6.750e-4
-1.298, -6.781e-4
-1.297, -6.843e-4
-1.296, -6.874e-4
-1.295, -6.905e-4
-1.294, -6.935e-4
-1.293, -6.966e-4
-1.292, -6.997e-4
-1.291, -7.059e-4
-1.290, -7.120e-4
-1.289, -7.182e-4
-1.288, -7.244e-4
-1.287, -7.275e-4
-1.286, -7.336e-4
-1.285, -7.367e-4
-1.284, -7.429e-4
-1.283, -7.460e-4
-1.282, -7.460e-4
-1.281, -7.490e-4
-1.280, -7.552e-4
-1.279, -7.583e-4
-1.278, -7.614e-4
-1.277, -7.675e-4
-1.276, -7.737e-4
-1.275, -7.799e-4
-1.274, -7.799e-4
-1.273, -7.830e-4
-1.272, -7.860e-4
-1.271, -7.860e-4
-1.270, -7.891e-4
-1.269, -7.891e-4
-1.268, -7.922e-4
-1.267, -7.953e-4
-1.266, -7.984e-4
-1.265, -8.015e-4
-1.264, -8.045e-4
-1.263, -8.107e-4
-1.262, -8.138e-4
-1.261, -8.169e-4
-1.260, -8.200e-4
-1.259, -8.230e-4
-1.258, -8.261e-4
-1.257, -8.323e-4
-1.256, -8.385e-4
-1.255, -8.446e-4
-1.254, -8.508e-4
-1.253, -8.569e-4
-1.252, -8.631e-4
-1.251, -8.662e-4
-1.250, -8.693e-4
-1.249, -8.693e-4
-1.248, -8.754e-4
-1.247, -8.785e-4
-1.246, -8.847e-4
-1.245, -8.909e-4
-1.244, -8.970e-4
-1.243, -9.063e-4
-1.242, -9.124e-4
-1.241, -9.217e-4
-1.240, -9.279e-4
-1.239, -9.340e-4
-1.238, -9.402e-4
-1.237, -9.464e-4
-1.236, -9.556e-4
-1.235, -9.649e-4
-1.234, -9.741e-4
-1.233, -9.834e-4
-1.232, -9.926e-4
-1.231, -1.002e-3
-1.230, -1.008e-3
-1.229, -1.017e-3
-1.228, -1.023e-3
-1.227, -1.030e-3
-1.226, -1.036e-3
-1.225, -1.042e-3
-1.224, -1.048e-3
-1.223, -1.054e-3
-1.222, -1.064e-3
-1.221, -1.073e-3
-1.220, -1.085e-3
-1.219, -1.094e-3
-1.218, -1.104e-3
-1.217, -1.113e-3
-1.216, -1.119e-3
-1.215, -1.125e-3
-1.214, -1.134e-3
-1.213, -1.141e-3
-1.212, -1.150e-3
-1.211, -1.159e-3
-1.210, -1.168e-3
-1.209, -1.181e-3
-1.208, -1.190e-3
-1.207, -1.202e-3
-1.206, -1.212e-3
-1.205, -1.221e-3
-1.204, -1.227e-3
-1.203, -1.233e-3
-1.202, -1.236e-3
-1.201, -1.245e-3
-1.200, -1.252e-3
-1.199, -1.258e-3
-1.198, -1.264e-3
-1.197, -1.273e-3
-1.196, -1.279e-3
-1.195, -1.289e-3
-1.194, -1.298e-3
-1.193, -1.307e-3
-1.192, -1.313e-3
-1.191, -1.322e-3
-1.190, -1.332e-3
-1.189, -1.341e-3
-1.188, -1.350e-3
-1.187, -1.363e-3
-1.186, -1.372e-3
-1.185, -1.384e-3
-1.184, -1.396e-3
-1.183, -1.409e-3
-1.182, -1.421e-3
-1.181, -1.430e-3
-1.180, -1.440e-3
-1.179, -1.443e-3
-1.178, -1.452e-3
-1.177, -1.458e-3
-1.176, -1.467e-3
-1.175, -1.480e-3
-1.174, -1.489e-3
-1.173, -1.501e-3
-1.172, -1.514e-3
-1.171, -1.526e-3
-1.170, -1.535e-3
-1.169, -1.548e-3
-1.168, -1.557e-3
-1.167, -1.566e-3
-1.166, -1.578e-3
-1.165, -1.591e-3
-1.164, -1.606e-3
-1.163, -1.625e-3
-1.162, -1.643e-3
-1.161, -1.662e-3
-1.160, -1.680e-3
-1.159, -1.696e-3
-1.158, -1.708e-3
-1.157, -1.717e-3
-1.156, -1.729e-3
-1.155, -1.736e-3
-1.154, -1.745e-3
-1.153, -1.754e-3
-1.152, -1.766e-3
-1.151, -1.782e-3
-1.150, -1.794e-3
-1.149, -1.807e-3
-1.148, -1.816e-3
-1.147, -1.828e-3
-1.146, -1.837e-3
-1.145, -1.850e-3
-1.144, -1.862e-3
-1.143, -1.877e-3
-1.142, -1.893e-3
-1.141, -1.905e-3
-1.140, -1.921e-3
-1.139, -1.936e-3
-1.138, -1.945e-3
-1.137, -1.958e-3
-1.136, -1.967e-3
-1.135, -1.979e-3
-1.134, -1.988e-3
-1.133, -1.998e-3
-1.132, -2.007e-3
-1.131, -2.016e-3
-1.130, -2.029e-3
-1.129, -2.044e-3
-1.128, -2.059e-3
-1.127, -2.075e-3
-1.126, -2.093e-3
-1.125, -2.109e-3
-1.124, -2.121e-3
-1.123, -2.133e-3
-1.122, -2.146e-3
-1.121, -2.155e-3
-1.120, -2.164e-3
-1.119, -2.177e-3
-1.118, -2.189e-3
-1.117, -2.201e-3
-1.116, -2.214e-3
-1.115, -2.226e-3
-1.114, -2.238e-3
-1.113, -2.254e-3
-1.112, -2.263e-3
-1.111, -2.275e-3
-1.110, -2.284e-3
-1.109, -2.291e-3
-1.108, -2.300e-3
-1.107, -2.309e-3
-1.106, -2.318e-3
-1.105, -2.331e-3
-1.104, -2.343e-3
-1.103, -2.355e-3
-1.102, -2.368e-3
-1.101, -2.377e-3
-1.100, -2.386e-3
-1.099, -2.395e-3
-1.098, -2.402e-3
-1.097, -2.411e-3
-1.096, -2.417e-3
-1.095, -2.426e-3
-1.094, -2.439e-3
-1.093, -2.448e-3
-1.092, -2.460e-3
-1.091, -2.472e-3
-1.090, -2.482e-3
-1.089, -2.491e-3
-1.088, -2.500e-3
-1.087, -2.506e-3
-1.086, -2.516e-3
-1.085, -2.525e-3
-1.084, -2.531e-3
-1.083, -2.540e-3
-1.082, -2.550e-3
-1.081, -2.562e-3
-1.080, -2.571e-3
-1.079, -2.583e-3
-1.078, -2.593e-3
-1.077, -2.602e-3
-1.076, -2.611e-3
-1.075, -2.617e-3
-1.074, -2.627e-3
-1.073, -2.633e-3
-1.072, -2.642e-3
-1.071, -2.648e-3
-1.070, -2.657e-3
-1.069, -2.667e-3
-1.068, -2.676e-3
-1.067, -2.685e-3
-1.066, -2.694e-3
-1.065, -2.704e-3
-1.064, -2.710e-3
-1.063, -2.716e-3
-1.062, -2.722e-3
-1.061, -2.728e-3
-1.060, -2.735e-3
-1.059, -2.741e-3
-1.058, -2.747e-3
-1.057, -2.753e-3
-1.056, -2.762e-3
-1.055, -2.772e-3
-1.054, -2.778e-3
-1.053, -2.784e-3
-1.052, -2.787e-3
-1.051, -2.790e-3
-1.050, -2.796e-3
-1.049, -2.799e-3
-1.048, -2.805e-3
-1.047, -2.812e-3
-1.046, -2.821e-3
-1.045, -2.827e-3
-1.044, -2.836e-3
-1.043, -2.839e-3
-1.042, -2.846e-3
-1.041, -2.846e-3
-1.040, -2.849e-3
-1.039, -2.852e-3
-1.038, -2.855e-3
-1.037, -2.861e-3
-1.036, -2.867e-3
-1.035, -2.873e-3
-1.034, -2.876e-3
-1.033, -2.886e-3
-1.032, -2.889e-3
-1.031, -2.895e-3
-1.030, -2.901e-3
-1.029, -2.907e-3
-1.028, -2.913e-3
-1.027, -2.913e-3
-1.026, -2.920e-3
-1.025, -2.923e-3
-1.024, -2.929e-3
-1.023, -2.932e-3
-1.022, -2.938e-3
-1.021, -2.941e-3
-1.020, -2.944e-3
-1.019, -2.947e-3
-1.018, -2.950e-3
-1.017, -2.950e-3
-1.016, -2.947e-3
-1.015, -2.947e-3
-1.014, -2.947e-3
-1.013, -2.947e-3
-1.012, -2.953e-3
-1.011, -2.953e-3
-1.010, -2.957e-3
-1.009, -2.957e-3
-1.008, -2.960e-3
-1.007, -2.963e-3
-1.006, -2.963e-3
-1.005, -2.966e-3
-1.004, -2.966e-3
-1.003, -2.969e-3
-1.002, -2.969e-3
-1.001, -2.972e-3
