Potential V vs RHE, Current mA cm-2
0.013299999999999867,-0.22989058622806843
0.012299999999999978,-0.7492311044085235
0.011299999999999866,-1.0320318932515442
0.010299999999999976,-1.2058999120049574
0.009299999999999864,-1.3169547490443627
0.008299999999999974,-1.3862756027377494
0.007299999999999862,-1.4557379275611226
0.006299999999999972,-1.5335470490536998
0.00529999999999986,-1.6014531914472214
0.0042999999999999705,-1.6481386643427678
0.0032999999999998586,-1.6778476016399335
0.0022999999999999687,-1.7202889406358846
0.0012999999999998568,-1.781121526530081
0.00029999999999996696,-1.8320511333252225
-0.000700000000000145,-1.8702483384215782
-0.0017000000000000348,-1.897127853119014
-0.0027000000000001467,-1.9310809243157752
-0.0037000000000000366,-1.9862546650105113
-0.0047000000000001485,-2.042843117005113
-0.005700000000000038,-2.076796188201874
-0.00670000000000015,-2.105090414199175
-0.00770000000000004,-2.1347993514963406
-0.008700000000000152,-2.1899730921910767
-0.009700000000000042,-2.249390966785408
-0.010700000000000154,-2.2890028831816296
-0.011700000000000044,-2.3144676865791998
-0.012700000000000156,-2.348420757775961
-0.013700000000000045,-2.4050092097705624
-0.014700000000000157,-2.4700859295643536
-0.015700000000000047,-2.50828313466071
-0.01670000000000016,-2.539406783257741
-0.01770000000000005,-2.583262833553557
-0.01870000000000016,-2.637021862948428
-0.01970000000000005,-2.7077574279416803
-0.020700000000000163,-2.7558576121370915
-0.021700000000000053,-2.785566549434257
-0.022700000000000164,-2.836496156229398
-0.023700000000000054,-2.90157287602319
-0.024700000000000166,-2.973723152316307
-0.025700000000000056,-3.028896893011044
-0.026700000000000168,-3.0642646755076695
-0.027700000000000058,-3.1180237049025408
-0.02870000000000017,-3.1873445585959277
-0.02970000000000006,-3.265153680088505
-0.03070000000000017,-3.325986265982701
-0.03170000000000006,-3.368427604978652
-0.03270000000000017,-3.4236013456733887
-0.03370000000000006,-3.504239889765696
-0.034700000000000175,-3.5848784338580026
-0.035700000000000065,-3.6527845762515243
-0.03670000000000018,-3.7051288943465317
-0.03770000000000007,-3.7631320576409975
-0.03870000000000018,-3.8466000243330347
-0.03970000000000007,-3.934312124924667
-0.04070000000000018,-4.006462401217783
-0.04170000000000007,-4.067294987111981
-0.04270000000000018,-4.125298150406447
-0.04370000000000007,-4.214424962297944
-0.044700000000000184,-4.307795908089036
-0.045700000000000074,-4.384190318281749
-0.046700000000000186,-4.44643761547581
-0.047700000000000076,-4.511514335269602
-0.04870000000000019,-4.604885281060694
-0.04970000000000008,-4.702500360751382
-0.05070000000000019,-4.77748005964423
-0.05170000000000008,-4.8453862020377505
-0.05270000000000019,-4.9175364783308675
-0.05370000000000008,-5.012322135421825
-0.05470000000000019,-5.115596060311972
-0.05570000000000008,-5.197649315704145
-0.056700000000000195,-5.271214303297127
-0.057700000000000085,-5.344779290890109
-0.058700000000000196,-5.428247257582146
-0.059700000000000086,-5.534350605072024
-0.0607000000000002,-5.622062705663656
-0.06170000000000009,-5.6984571158563675
-0.0627000000000002,-5.77768094864881
-0.06370000000000009,-5.873881317039633
-0.0647000000000002,-5.98281408712924
-0.06570000000000009,-6.0719408990207375
-0.0667000000000002,-6.135602907514665
-0.0677000000000001,-6.214826740307106
-0.0687000000000002,-6.309612397398063
-0.0697000000000001,-6.417130456187806
-0.07070000000000021,-6.509086690679034
-0.0717000000000001,-6.578407544372421
-0.07270000000000021,-6.659046088464728
-0.0737000000000001,-6.7609053020550105
-0.07470000000000021,-6.865593938245023
-0.0757000000000001,-6.961794306635846
-0.07670000000000021,-7.032529871629097
-0.0777000000000001,-7.101850725322484
-0.07870000000000021,-7.203709938912767
-0.0797000000000001,-7.306983863802915
-0.08070000000000022,-7.398940098294142
-0.0817000000000001,-7.473919797186989
-0.08270000000000022,-7.5474847847799715
-0.08370000000000011,-7.649343998370253
-0.08470000000000022,-7.755447345860131
-0.08570000000000011,-7.845988869051494
-0.08670000000000022,-7.916724434044746
-0.08770000000000011,-7.983215865138402
-0.08870000000000022,-8.079416233529225
-0.08970000000000011,-8.191178426218563
-0.09070000000000022,-8.277475815510329
-0.09170000000000011,-8.349626091803447
-0.09270000000000023,-8.424605790696294
-0.09370000000000012,-8.51656202518752
-0.09470000000000023,-8.6226653726774
-0.09570000000000012,-8.708962761969165
-0.09670000000000023,-8.774039481762957
-0.09770000000000012,-8.846189758056074
-0.09870000000000023,-8.93531656994757
-0.09970000000000012,-9.042834628737316
-0.10070000000000023,-9.130546729328946
-0.10170000000000012,-9.202697005622065
-0.10270000000000024,-9.27484728191518
-0.10370000000000013,-9.361144671206947
-0.10470000000000024,-9.464418596097095
-0.10570000000000013,-9.55496011928846
-0.10670000000000024,-9.62003683908225
-0.10770000000000013,-9.697845960574826
-0.10870000000000024,-9.779899215967
-0.10970000000000013,-9.876099584357823
-0.11070000000000024,-9.969470530148914
-0.11170000000000013,-10.037376672542434
-0.11270000000000002,-10.105282814935956
-0.11370000000000013,-10.188750781627995
-0.11470000000000002,-10.292024706518141
-0.11570000000000014,-10.392469208808558
-0.11670000000000003,-10.450472372103025
-0.11770000000000014,-10.509890246697358
-0.11870000000000003,-10.601846481188586
-0.11970000000000014,-10.698046849579406
-0.12070000000000003,-10.78858837277077
-0.12170000000000014,-10.850835669964832
-0.12270000000000003,-10.910253544559163
-0.12370000000000014,-11.003624490350255
-0.12470000000000003,-11.104068992640675
-0.12570000000000014,-11.194610515832036
-0.12670000000000003,-11.262516658225557
-0.12770000000000015,-11.329008089319213
-0.12870000000000004,-11.416720189910846
-0.12970000000000015,-11.517164692201263
-0.13070000000000004,-11.604876792792895
-0.13170000000000015,-11.674197646486283
-0.13270000000000004,-11.739274366280075
-0.13370000000000015,-11.824157044271978
-0.13470000000000004,-11.93167510306172
-0.13570000000000015,-12.023631337552947
-0.13670000000000004,-12.098611036445792
-0.13770000000000016,-12.170761312738911
-0.13870000000000005,-12.25988812463041
-0.13970000000000016,-12.36174733822069
-0.14070000000000005,-12.45653299531165
-0.14170000000000016,-12.525853849005037
-0.14270000000000005,-12.596589413998286
-0.14370000000000016,-12.685716225889784
-0.14470000000000005,-12.804551975078448
-0.14570000000000016,-12.906411188668729
-0.14670000000000005,-12.977146753661982
-0.14770000000000016,-13.056370586454424
-0.14870000000000005,-13.149741532245516
-0.14970000000000017,-13.258674302335123
-0.15070000000000006,-13.353459959426083
-0.15170000000000017,-13.424195524419334
-0.15270000000000006,-13.50766349111137
-0.15370000000000017,-13.616596261200979
-0.15470000000000006,-13.725529031290584
-0.15570000000000017,-13.831632378780464
-0.15670000000000006,-13.923588613271692
-0.15770000000000017,-13.994324178264941
-0.15870000000000006,-14.10325694835455
-0.15970000000000018,-14.217848563643619
-0.16070000000000007,-14.331025467632822
-0.16170000000000018,-14.415908145624723
-0.16270000000000007,-14.500790823616628
-0.16370000000000018,-14.61396772760583
-0.16470000000000007,-14.741291744593681
-0.16570000000000018,-14.854468648582884
-0.16670000000000007,-14.953498439573437
-0.16770000000000018,-15.03838111756534
-0.16870000000000007,-15.151558021554543
-0.16970000000000018,-15.293029151541045
-0.17070000000000007,-15.4203531685289
-0.17170000000000019,-15.533530072518102
-0.17270000000000008,-15.632559863508657
-0.1737000000000002,-15.731589654499205
-0.17470000000000008,-15.858913671487063
-0.1757000000000002,-15.986237688474914
-0.17670000000000008,-16.099414592464115
-0.1777000000000002,-16.21259149645332
-0.17870000000000008,-16.325768400442524
-0.1797000000000002,-16.46723953042903
-0.18070000000000008,-16.59456354741688
-0.1817000000000002,-16.721887564404735
-0.18270000000000008,-16.835064468393938
-0.1837000000000002,-16.962388485381787
-0.1847000000000001,-17.103859615368293
-0.1857000000000002,-17.2453307453548
-0.1867000000000001,-17.37265476234265
-0.1877000000000002,-17.48583166633185
-0.1887000000000001,-17.613155683319707
-0.1897000000000002,-17.797068152302163
-0.1907000000000001,-17.938539282288666
-0.1917000000000001,-18.06586329927652
-0.19269999999999998,-18.19318731626437
-0.1937000000000001,-18.348805559249524
-0.19469999999999998,-18.504423802234676
-0.1957000000000001,-18.674189158218486
-0.19669999999999999,-18.80151317520634
-0.1977000000000001,-18.92883719219419
-0.1987,-19.070308322180697
-0.1997000000000001,-19.2400736781645
-0.2007,-19.409839034148305
-0.2017000000000001,-19.551310164134804
-0.2027,-19.69278129412131
-0.2037000000000001,-19.848399537106463
-0.2047,-20.03231200608892
-0.2057000000000001,-20.21622447507137
-0.2067,-20.371842718056527
-0.2077000000000001,-20.48501962204573
-0.2087,-20.640637865030882
-0.2097000000000001,-20.810403221014692
-0.2107,-21.008462802995794
-0.2117000000000001,-21.16408104598095
-0.2127,-21.319699288966106
-0.2137000000000001,-21.489464644949905
-0.2147,-21.67337711393236
-0.2157000000000001,-21.885583808912116
-0.2167,-22.027054938898623
-0.21770000000000012,-22.182673181883775
-0.2187,-22.33829142486893
-0.21970000000000012,-22.522203893851387
-0.2207,-22.734410588831135
-0.22170000000000012,-22.904175944814945
-0.2227,-23.045647074801447
-0.22370000000000012,-23.2012653177866
-0.2247,-23.399324899767706
-0.22570000000000012,-23.58323736875016
-0.2267,-23.767149837732617
-0.22770000000000012,-23.92276808071777
-0.22870000000000001,-24.092533436701576
-0.22970000000000013,-24.290593018682678
-0.23070000000000002,-24.488652600663784
-0.23170000000000013,-24.65841795664759
-0.23270000000000002,-24.799889086634096
-0.23370000000000013,-24.983801555616548
-0.23470000000000002,-25.167714024599
-0.23570000000000013,-25.36577360658011
-0.23670000000000002,-25.535538962563912
-0.2376999999999999,-25.691157205549064
-0.23870000000000002,-25.875069674531517
-0.2396999999999999,-26.044835030515326
-0.24070000000000003,-26.242894612496432
-0.24169999999999991,-26.398512855481584
-0.24270000000000003,-26.55413109846674
-0.24369999999999992,-26.723896454450543
-0.24470000000000003,-26.907808923433
-0.24569999999999992,-27.06342716641815
-0.24670000000000003,-27.219045409403304
-0.24769999999999992,-27.36051653938981
-0.24870000000000003,-27.516134782374962
-0.24969999999999992,-27.671753025360115
-0.25070000000000003,-27.827371268345274
-0.2516999999999999,-27.968842398331773
-0.25270000000000004,-28.15275486731423
-0.2536999999999999,-28.251784658304786
-0.25470000000000004,-28.364961562293985
-0.2556999999999999,-28.506432692280487
-0.25670000000000004,-28.647903822266994
-0.25769999999999993,-28.775227839254843
-0.25870000000000004,-28.9025518562427
-0.25969999999999993,-29.058170099227848
-0.26070000000000004,-29.171347003217054
-0.26169999999999993,-29.242082568210304
-0.26270000000000004,-29.31281813320356
-0.26369999999999993,-29.38355369819681
-0.26470000000000005,-29.496730602186016
-0.26569999999999994,-29.59576039317657
-0.26670000000000005,-29.708937297165768
-0.26769999999999994,-29.779672862159025
-0.26870000000000005,-29.822114201154974
-0.26969999999999994,-29.906996879146874
-0.27070000000000005,-29.977732444140123
-0.27169999999999994,-30.00602667013743
-0.27270000000000005,-30.02017378313608
-0.27369999999999994,-30.06261512213203
-0.27470000000000006,-30.10505646112798
-0.27569999999999995,-30.13335068712528
-0.27670000000000006,-30.13335068712528
-0.27769999999999995,-30.13335068712528
-0.27870000000000006,-30.11920357412663
-0.27969999999999995,-30.11920357412663
-0.28070000000000006,-30.11920357412663
-0.28169999999999995,-30.07676223513068
-0.28270000000000006,-30.02017378313608
-0.28369999999999995,-29.96358533114148
-0.28470000000000006,-29.921143992145527
-0.28569999999999995,-29.878702653149578
-0.28670000000000007,-29.822114201154974
-0.28769999999999996,-29.751378636161718
-0.28870000000000007,-29.63820173217252
-0.28969999999999996,-29.539171941181966
-0.29070000000000007,-29.440142150191413
-0.29169999999999996,-29.32696524620221
-0.29270000000000007,-29.199641229214354
-0.29369999999999996,-29.086464325225155
-0.2947000000000001,-28.97328742123595
-0.29569999999999996,-28.8459634042481
-0.2967000000000001,-28.718639387260247
-0.29769999999999996,-28.56302114427509
-0.2987000000000001,-28.393255788291288
-0.29969999999999997,-28.251784658304786
-0.3007000000000001,-28.11031352831828
-0.30169999999999997,-27.926401059335824
-0.3027000000000001,-27.756635703352025
-0.30369999999999997,-27.572723234369565
-0.3047000000000001,-27.40295787838576
-0.30569999999999997,-27.247339635400607
-0.3067000000000001,-27.06342716641815
-0.3077,-26.86536758443705
-0.3087000000000001,-26.667308002455943
-0.3097,-26.483395533473487
-0.3107000000000001,-26.29948306449103
-0.3117,-26.11557059550858
-0.3127000000000001,-25.94580523952477
-0.3137,-25.747745657543668
-0.3147000000000001,-25.563833188561212
-0.3157,-25.42236205857471
-0.3167000000000001,-25.238449589592253
-0.3177,-25.04039000761115
-0.3187000000000001,-24.842330425630045
-0.3197,-24.67256506964624
-0.3207000000000001,-24.545241052658387
-0.3217,-24.40376992267188
-0.3227000000000001,-24.21985745368943
-0.3237,-24.078386323702922
-0.3247000000000001,-23.951062306715073
-0.3257,-23.83788540272587
-0.3267000000000001,-23.738855611735314
-0.3277,-23.61153159474746
-0.3287000000000001,-23.47006046476096
-0.3297,-23.371030673770406
-0.3307000000000001,-23.272000882779853
-0.3317,-23.2012653177866
-0.3327000000000001,-23.088088413797397
-0.3337,-23.017352848804148
-0.3347000000000001,-22.989058622806844
-0.3357,-22.946617283810895
-0.3367000000000001,-22.946617283810895
-0.3377,-22.87588171881764
-0.3387000000000001,-22.819293266823045
-0.3397,-22.790999040825742
-0.3407000000000001,-22.790999040825742
-0.3417,-22.790999040825742
-0.3427000000000001,-22.776851927827092
-0.3437,-22.76270481482844
-0.3447000000000001,-22.80514615382439
-0.3457,-22.84758749282034
-0.3467000000000001,-22.87588171881764
-0.3477,-22.904175944814945
-0.3487000000000001,-22.91832305781359
-0.3497,-22.960764396809545
-0.3507000000000001,-23.031499961802798
-0.3517,-23.088088413797397
-0.3527000000000001,-23.1163826397947
-0.3537,-23.15882397879065
-0.3547000000000001,-23.215412430785253
-0.3557,-23.314442221775803
-0.35670000000000013,-23.385177786769056
-0.3577,-23.44176623876366
-0.35870000000000013,-23.49835469075826
-0.3597,-23.56909025575151
-0.36070000000000013,-23.66812004674206
-0.3617,-23.738855611735314
-0.3626999999999999,-23.795444063729917
-0.3637,-23.852032515724517
-0.3646999999999999,-23.951062306715073
-0.3657,-24.050092097705623
-0.3666999999999999,-24.120827662698876
-0.3677,-24.17741611469348
-0.3686999999999999,-24.23400456668808
-0.36970000000000003,-24.27644590568403
-0.3706999999999999,-24.34718147067728
-0.37170000000000003,-24.417917035670534
-0.3726999999999999,-24.460358374666487
-0.37370000000000003,-24.516946826661083
-0.3746999999999999,-24.57353527865569
-0.37570000000000003,-24.630123730650286
-0.3766999999999999,-24.686712182644893
-0.37770000000000004,-24.70085929564354
-0.3786999999999999,-24.729153521640843
-0.37970000000000004,-24.785741973635442
-0.3806999999999999,-24.828183312631392
-0.38170000000000004,-24.870624651627345
-0.38269999999999993,-24.870624651627345
-0.38370000000000004,-24.856477538628695
-0.38469999999999993,-24.870624651627345
-0.38570000000000004,-24.898918877624645
-0.38669999999999993,-23.852032515724517
-0.38570000000000004,-22.126084729889175
-0.38469999999999993,-20.86699167300929
-0.38370000000000004,-19.890840876102416
-0.38269999999999993,-19.01371987018609
-0.38170000000000004,-18.221481542261674
-0.3806999999999999,-17.471684553333205
-0.37970000000000004,-16.778476016399335
-0.3786999999999999,-16.15600304445872
-0.37770000000000004,-15.561824298515406
-0.3766999999999999,-14.995939778569388
-0.37570000000000003,-14.430055258623375
-0.3746999999999999,-13.871244295176684
-0.37370000000000003,-13.367607072424732
-0.3726999999999999,-12.916314167767784
-0.37170000000000003,-12.449459438812323
-0.3706999999999999,-11.998166534155375
-0.36970000000000003,-11.532726516499778
-0.3686999999999999,-11.118216105639322
-0.3677,-10.739073477275493
-0.3666999999999999,-10.36417498281126
-0.3657,-9.982202931847699
-0.3646999999999999,-9.604475014783732
-0.3637,-9.257870746316799
-0.3626999999999999,-8.950878394246088
-0.3617,-8.641056619575643
-0.36070000000000013,-8.315673020606686
-0.3597,-8.005851245936244
-0.35870000000000013,-7.722908985963235
-0.3577,-7.456943261588608
-0.35670000000000013,-7.188148114614252
-0.3557,-6.9052058546412445
-0.3547000000000001,-6.639240130266617
-0.3537,-6.39590978668983
-0.3527000000000001,-6.175214823910885
-0.3517,-5.964422840230995
-0.3507000000000001,-5.7309954757532635
-0.3497,-5.497568111275533
-0.3487000000000001,-5.289605550195372
-0.3477,-5.100034236013457
-0.3467000000000001,-4.923195323530328
-0.3457,-4.716647473750032
-0.3447000000000001,-4.512929046569467
-0.3437,-4.334675422786473
-0.3427000000000001,-4.170568912002128
-0.3417,-4.017780091616704
-0.3407000000000001,-3.8466000243330347
-0.3397,-3.6655169779503103
-0.3387000000000001,-3.509898734965156
-0.3377,-3.3769158727778423
-0.3367000000000001,-3.2396888766909337
-0.3357,-3.08690005630551
-0.3347000000000001,-2.922793545521166
-0.3337,-2.788395972033987
-0.3327000000000001,-2.6723896454450546
-0.3317,-2.549309762356796
-0.3307000000000001,-2.417741611469348
-0.3297,-2.272026347583249
-0.3287000000000001,-2.1461170418952604
-0.3277,-2.049916673504438
-0.3267000000000001,-1.9395691921149654
-0.3257,-1.8193187316264372
-0.3247000000000001,-1.6891652920388538
-0.3237,-1.5745736767497858
-0.3227000000000001,-1.4882762874580184
-0.3217,-1.3917929768072232
-0.3207000000000001,-1.2793234284679527
-0.3197,-1.1628926884890602
-0.3187000000000001,-1.0576381677791014
-0.3177,-0.9775655082067403
-0.3167000000000001,-0.869905978287011
-0.3157,-0.7725738408562965
-0.3147000000000001,-0.6760905302055011
-0.3137,-0.5817292865045031
-0.3127000000000001,-0.5063251742216967
-0.3117,-0.43940932973808033
-0.3107000000000001,-0.34122836552744684
-0.3097,-0.23837885402725867
-0.3087000000000001,-0.14925204213576138
-0.3077,-0.08116198727325716
-0.3067000000000001,-0.01816489309026707
-0.30569999999999997,0.07649343998370253
-0.3047000000000001,0.17966833508285968
-0.30369999999999997,0.26058982143513976
-0.3027000000000001,0.32679831026882344
-0.30169999999999997,0.39088473215270964
-0.3007000000000001,0.47463564110471984
-0.29969999999999997,0.5749386722651508
-0.2987000000000001,0.6541625050575929
-0.29769999999999996,0.7192392248513847
-0.2967000000000001,0.7838915312552168
-0.29569999999999996,0.8641056619575644
-0.2947000000000001,0.9581839633985894
-0.29369999999999996,1.0408031033107075
-0.29270000000000007,1.0986647954751876
-0.29169999999999996,1.160629150409276
-0.29070000000000007,1.2358917915620962
-0.28969999999999996,1.3312433331729996
-0.28870000000000007,1.4137210019551312
-0.28769999999999996,1.471299751859638
-0.28670000000000007,1.5349617603535646
-0.28569999999999995,1.6113561705462767
-0.28470000000000006,1.6990682711379093
-0.28369999999999995,1.7825362378299463
-0.28270000000000006,1.8348805559249526
-0.28169999999999995,1.895713141819149
-0.28070000000000006,1.9763516859114565
-0.27969999999999995,2.0640637865030884
-0.27870000000000006,2.1432876192955304
-0.27769999999999995,2.202705493889862
-0.27670000000000006,2.263538079784059
-0.27569999999999995,2.3455913351762305
-0.27470000000000006,2.4347181470677284
-0.27369999999999994,2.5196008250596305
-0.27270000000000005,2.581848122253692
-0.27169999999999994,2.6327777290488332
-0.27070000000000005,2.712001561841275
-0.26969999999999994,2.8067872189322327
-0.26870000000000005,2.8860110517246746
-0.26769999999999994,2.9539171941181968
