Potential V vs RHE, Current mA cm-2
0.013299999999999867,1.3063444142953748
0.012299999999999978,-0.48199213986401795
0.011299999999999866,-1.92117794521672
0.010299999999999976,-3.1859298472960624
0.009299999999999864,-4.364384360083638
0.008299999999999974,-5.323558621392133
0.007299999999999862,-6.238876832404812
0.006299999999999972,-7.067897654125724
0.00529999999999986,-7.896918475846635
0.0042999999999999705,-8.638227196975913
0.0032999999999998586,-9.379535918105192
0.0022999999999999687,-10.078403300238522
0.0012999999999998568,-10.775855971071984
0.00029999999999996696,-11.42945259160963
-0.000700000000000145,-11.996751822855511
-0.0017000000000000348,-12.56405105410139
-0.0027000000000001467,-13.043638184755638
-0.0037000000000000366,-13.523225315409885
-0.0047000000000001485,-14.002812446064135
-0.005700000000000038,-14.486643710617974
-0.00670000000000015,-14.967645552572087
-0.00770000000000004,-15.448647394526201
-0.008700000000000152,-15.91550212348166
-0.009700000000000042,-16.354062626439823
-0.010700000000000154,-16.835064468393938
-0.011700000000000044,-17.188742293360193
-0.012700000000000156,-17.542420118326454
-0.013700000000000045,-17.881950830294063
-0.014700000000000157,-18.23562865526032
-0.015700000000000047,-18.589306480226583
-0.01670000000000016,-19.01371987018609
-0.01770000000000005,-19.409839034148305
-0.01870000000000016,-19.805958198110513
-0.01970000000000005,-20.202077362072725
-0.020700000000000163,-20.541608074040333
-0.021700000000000053,-20.89528589900659
-0.022700000000000164,-21.248963723972853
-0.023700000000000054,-21.54605309694451
-0.024700000000000166,-21.899730921910766
-0.025700000000000056,-22.253408746877028
-0.026700000000000168,-22.592939458844636
-0.027700000000000058,-23.031499961802798
-0.02870000000000017,-23.427619125765005
-0.02970000000000006,-23.767149837732617
-0.03070000000000017,-24.16326900169483
-0.03170000000000006,-24.516946826661083
-0.03270000000000017,-24.814036199632742
-0.03370000000000006,-25.167714024599
-0.034700000000000175,-25.478950510569312
-0.035700000000000065,-25.86092256153287
-0.03670000000000018,-26.257041725495082
-0.03770000000000007,-26.65316088945729
-0.03870000000000018,-27.049280053419505
-0.03970000000000007,-27.43125210438306
-0.04070000000000018,-27.827371268345274
-0.04170000000000007,-28.18104909331153
-0.04270000000000018,-28.53472691827779
-0.04370000000000007,-28.8742576302454
-0.044700000000000184,-29.22793545521166
-0.045700000000000074,-29.581613280177915
-0.046700000000000186,-30.00602667013743
-0.047700000000000076,-30.402145834099635
-0.04870000000000019,-30.8407063370578
-0.04970000000000008,-31.23682550102001
-0.05070000000000019,-31.661238890979522
-0.05170000000000008,-32.01491671594578
-0.05270000000000019,-32.368594540912035
-0.05370000000000008,-32.70812525287965
-0.05470000000000019,-33.10424441684186
-0.05570000000000008,-33.50036358080407
-0.056700000000000195,-33.93892408376223
-0.057700000000000085,-34.377484586720385
-0.058700000000000196,-34.8018979766799
-0.059700000000000086,-35.240458479638065
-0.0607000000000002,-35.636577643600276
-0.06170000000000009,-36.03269680756248
-0.0627000000000002,-36.4288159715247
-0.06370000000000009,-36.768346683492304
-0.0647000000000002,-37.164465847454515
-0.06570000000000009,-37.56058501141672
-0.0667000000000002,-37.94255706238028
-0.0677000000000001,-38.38111756533845
-0.0687000000000002,-38.86211940729255
-0.0697000000000001,-39.258238571254765
-0.07070000000000021,-39.696799074212926
-0.0717000000000001,-40.03632978618054
-0.07270000000000021,-40.43244895014274
-0.0737000000000001,-40.78612677510901
-0.07470000000000021,-41.139804600075266
-0.0757000000000001,-41.52177665103883
-0.07670000000000021,-41.96033715399699
-0.0777000000000001,-42.39889765695515
-0.07870000000000021,-42.837458159913304
-0.0797000000000001,-43.27601866287147
-0.08070000000000022,-43.70043205283099
-0.0817000000000001,-44.096551216793195
-0.08270000000000022,-44.4077877027635
-0.08370000000000011,-44.74731841473111
-0.08470000000000022,-45.143437578693316
-0.08570000000000011,-45.53955674265553
-0.08670000000000022,-45.93567590661774
-0.08770000000000011,-46.41667774857186
-0.08870000000000022,-46.79864979953541
-0.08970000000000011,-47.23721030249357
-0.09070000000000022,-47.633329466455784
-0.09170000000000011,-48.029448630417996
-0.09270000000000023,-48.36897934238561
-0.09370000000000012,-48.72265716735186
-0.09470000000000023,-49.076334992318124
-0.09570000000000012,-49.458307043281685
-0.09670000000000023,-49.85442620724389
-0.09770000000000012,-50.2505453712061
-0.09870000000000023,-50.64666453516831
-0.09970000000000012,-51.071077925127824
-0.10070000000000023,-51.46719708909004
-0.10170000000000012,-51.82087491405629
-0.10270000000000024,-52.17455273902255
-0.10370000000000013,-52.514083450990164
-0.10470000000000024,-52.86776127595642
-0.10570000000000013,-53.22143910092268
-0.10670000000000024,-53.56096981289029
-0.10770000000000013,-53.9570889768525
-0.10870000000000024,-54.35320814081471
-0.10970000000000013,-54.73518019177827
-0.11070000000000024,-55.17374069473642
-0.11170000000000013,-55.527418519702685
-0.11270000000000002,-55.838655005673
-0.11370000000000013,-56.13574437864466
-0.11470000000000002,-56.489422203610914
-0.11570000000000014,-56.82895291557852
-0.11670000000000003,-57.22507207954074
-0.11770000000000014,-57.62119124350295
-0.11870000000000003,-58.017310407465146
-0.11970000000000014,-58.39928245842871
-0.12070000000000003,-58.75296028339497
-0.12170000000000014,-59.10663810836124
-0.12270000000000003,-59.403727481332886
-0.12370000000000014,-59.757405306299155
-0.12470000000000003,-60.02620045327351
-0.12570000000000014,-60.36573116524111
-0.12670000000000003,-60.761850329203334
-0.12770000000000015,-61.15796949316553
-0.12870000000000004,-61.49750020513315
-0.12970000000000015,-61.851178030099405
-0.13070000000000004,-62.16241451606972
-0.13170000000000015,-62.459503889041365
-0.13270000000000004,-62.68585769701977
-0.13370000000000015,-62.94050573099548
-0.13470000000000004,-63.20930087796983
-0.13570000000000015,-63.46394891194555
-0.13670000000000004,-63.77518539791585
-0.13770000000000016,-64.11471610988345
-0.13870000000000005,-64.46839393484973
-0.13970000000000016,-64.77963042082003
-0.14070000000000005,-65.0767197937917
-0.14170000000000016,-65.34551494076604
-0.14270000000000005,-65.64260431373769
-0.14370000000000016,-65.82651678272015
-0.14470000000000005,-66.08116481669586
-0.14570000000000016,-66.39240130266617
-0.14670000000000005,-66.68949067563783
-0.14770000000000016,-67.00072716160814
-0.14870000000000005,-67.2978165345798
-0.14970000000000017,-67.6090530205501
-0.15070000000000006,-67.9202895065204
-0.15170000000000017,-68.21737887949207
-0.15270000000000006,-68.38714423547587
-0.15370000000000017,-68.61349804345427
-0.15470000000000006,-68.82570473843404
-0.15570000000000017,-69.0944998854084
-0.15670000000000006,-69.39158925838004
-0.15770000000000017,-69.70282574435035
-0.15870000000000006,-70.01406223032066
-0.15970000000000018,-70.26871026429637
-0.16070000000000007,-70.53750541127073
-0.16170000000000018,-70.74971210625048
-0.16270000000000007,-70.96191880123024
-0.16370000000000018,-71.2307139482046
-0.16470000000000007,-71.44292064318435
-0.16570000000000018,-71.7117157901587
-0.16670000000000007,-72.00880516313036
-0.16770000000000018,-72.27760031010472
-0.16870000000000007,-72.57468968307639
-0.16970000000000018,-72.84348483005074
-0.17070000000000007,-73.09813286402644
-0.17170000000000019,-73.32448667200485
-0.17270000000000008,-73.53669336698461
-0.1737000000000002,-73.76304717496302
-0.17470000000000008,-73.97525386994278
-0.1757000000000002,-74.14501922592657
-0.17670000000000008,-74.45625571189689
-0.1777000000000002,-74.76749219786718
-0.17870000000000008,-75.02214023184291
-0.1797000000000002,-75.29093537881725
-0.18070000000000008,-75.50314207379701
-0.1817000000000002,-75.77193722077136
-0.18270000000000008,-75.94170257675518
-0.1837000000000002,-76.06902659374302
-0.1847000000000001,-76.23879194972683
-0.1857000000000002,-76.46514575770523
-0.1867000000000001,-76.67735245268499
-0.1877000000000002,-76.98858893865528
-0.1887000000000001,-77.243236972631
-0.1897000000000002,-77.51203211960537
-0.1907000000000001,-77.7242388145851
-0.1917000000000001,-77.86570994457162
-0.19269999999999998,-78.07791663955136
-0.1937000000000001,-78.24768199553519
-0.19469999999999998,-78.38915312552167
-0.1957000000000001,-78.51647714250953
-0.19669999999999999,-78.68624249849334
-0.1977000000000001,-78.9550376454677
-0.1987,-79.20968567944341
-0.1997000000000001,-79.37945103542721
-0.2007,-79.56336350440966
-0.2017000000000001,-79.73312886039348
-0.2027,-79.86045287738132
-0.2037000000000001,-80.00192400736783
-0.2047,-80.12924802435568
-0.2057000000000001,-80.25657204134353
-0.2067,-80.34145471933543
-0.2077000000000001,-80.52536718831789
-0.2087,-80.86489790028548
-0.2097000000000001,-81.21857572525175
-0.2107,-81.38834108123557
-0.2117000000000001,-81.30345840324367
-0.2127,-81.26101706424771
-0.2137000000000001,-81.43078242023151
-0.2147,-81.57225355021802
-0.2157000000000001,-81.69957756720586
-0.2167,-81.78446024519776
-0.21770000000000012,-81.91178426218562
-0.2187,-81.99666694017753
-0.21970000000000012,-82.09569673116808
-0.2207,-82.18057940915998
-0.22170000000000012,-82.22302074815593
-0.2227,-82.22302074815593
-0.22370000000000012,-82.22302074815593
-0.2247,-82.26546208715187
-0.22570000000000012,-82.30790342614785
-0.2267,-82.35034476514379
-0.22770000000000012,-82.47766878213164
-0.22870000000000001,-82.61913991211814
-0.22970000000000013,-82.6615812511141
-0.23070000000000002,-82.70402259011003
-0.23170000000000013,-82.6615812511141
-0.23270000000000002,-82.6615812511141
-0.23370000000000013,-82.70402259011003
-0.23470000000000002,-82.70402259011003
-0.23570000000000013,-82.70402259011003
-0.23670000000000002,-82.78890526810196
-0.2376999999999999,-82.8313466070979
-0.23870000000000002,-82.9162292850898
-0.2396999999999999,-82.95867062408576
-0.24070000000000003,-82.95867062408576
-0.24169999999999991,-82.9162292850898
-0.24270000000000003,-82.9162292850898
-0.24369999999999992,-82.9162292850898
-0.24470000000000003,-82.87378794609386
-0.24569999999999992,-82.87378794609386
-0.24670000000000003,-82.87378794609386
-0.24769999999999992,-82.8313466070979
-0.24870000000000003,-82.8313466070979
-0.24969999999999992,-82.8313466070979
-0.25070000000000003,-82.746463929106
-0.2516999999999999,-82.70402259011003
-0.25270000000000004,-82.56255146012353
-0.2536999999999999,-82.43522744313569
-0.25470000000000004,-82.35034476514379
-0.2556999999999999,-82.22302074815593
-0.25670000000000004,-82.13813807016405
-0.25769999999999993,-82.03910827917348
-0.25870000000000004,-81.95422560118158
-0.25969999999999993,-81.91178426218562
-0.26070000000000004,-81.78446024519776
-0.26169999999999993,-81.61469488921396
-0.26270000000000004,-81.43078242023151
-0.26369999999999993,-81.21857572525175
-0.26470000000000005,-81.04881036926795
-0.26569999999999994,-80.82245656128954
-0.26670000000000005,-80.65269120530574
-0.26769999999999994,-80.52536718831789
-0.26870000000000005,-80.38389605833139
-0.26969999999999994,-80.21413070234757
-0.27070000000000005,-80.04436534636378
-0.27169999999999994,-79.7755701993894
-0.27270000000000005,-79.52092216541372
-0.27369999999999994,-79.20968567944341
-0.27470000000000006,-78.9550376454677
-0.27569999999999995,-78.72868383748929
-0.27670000000000006,-78.51647714250953
-0.27769999999999995,-78.33256467352709
-0.27870000000000006,-78.20524065653922
-0.27969999999999995,-78.03547530055542
-0.28070000000000006,-77.86570994457162
-0.28169999999999995,-77.59691479759726
-0.28270000000000006,-77.28567831162695
-0.28369999999999995,-77.03103027765125
-0.28470000000000006,-76.7622351306769
-0.28569999999999995,-76.55002843569714
-0.28670000000000007,-76.38026307971333
-0.28769999999999996,-76.19635061073087
-0.28870000000000007,-76.02658525474708
-0.28969999999999996,-75.81437855976732
-0.29070000000000007,-75.63046609078486
-0.29169999999999996,-75.4182593958051
-0.29270000000000007,-75.14946424883075
-0.29369999999999996,-74.89481621485504
-0.2947000000000001,-74.66846240687663
-0.29569999999999996,-74.45625571189689
-0.2967000000000001,-74.24404901691713
-0.29769999999999996,-74.06013654793468
-0.2987000000000001,-73.89037119195086
-0.29969999999999997,-73.6781644969711
-0.3007000000000001,-73.45181068899271
-0.30169999999999997,-73.197162655017
-0.3027000000000001,-72.8859261690467
-0.30369999999999997,-72.63127813507097
-0.3047000000000001,-72.36248298809663
-0.30569999999999997,-72.15027629311687
-0.3067000000000001,-71.8814811461425
-0.3077,-71.7117157901587
-0.3087000000000001,-71.48536198218031
-0.3097,-71.27315528720055
-0.3107000000000001,-71.06094859222078
-0.3117,-70.8345947842424
-0.3127000000000001,-70.57994675026669
-0.3137,-70.26871026429637
-0.3147000000000001,-70.05650356931662
-0.3157,-69.8301497613382
-0.3167000000000001,-69.70282574435035
-0.3177,-69.4906190493706
-0.3187000000000001,-69.3491479193841
-0.3197,-69.13694122440434
-0.3207000000000001,-68.86814607742998
-0.3217,-68.52861536546239
-0.3227000000000001,-68.34470289647993
-0.3237,-68.25982021848802
-0.3247000000000001,-68.21737887949207
-0.3257,-68.0900548625042
-0.3267000000000001,-67.9202895065204
-0.3277,-67.73637703753796
-0.3287000000000001,-67.6090530205501
-0.3297,-67.52417034255821
-0.3307000000000001,-67.39684632557035
-0.3317,-67.2978165345798
-0.3327000000000001,-67.128051178596
-0.3337,-66.9582858226122
-0.3347000000000001,-66.81681469262568
-0.3357,-66.68949067563783
-0.3367000000000001,-66.60460799764593
-0.3377,-66.56216665864997
-0.3387000000000001,-66.56216665864997
-0.3397,-66.51972531965401
-0.3407000000000001,-66.43484264166212
-0.3417,-66.39240130266617
-0.3427000000000001,-66.29337151167562
-0.3437,-66.20848883368372
-0.3447000000000001,-66.16604749468777
-0.3457,-66.08116481669586
-0.3467000000000001,-66.12360615569182
-0.3477,-66.16604749468777
-0.3487000000000001,-66.16604749468777
-0.3497,-66.20848883368372
-0.3507000000000001,-66.25093017267966
-0.3517,-66.20848883368372
-0.3527000000000001,-66.25093017267966
-0.3537,-66.25093017267966
-0.3547000000000001,-66.25093017267966
-0.3557,-66.25093017267966
-0.35670000000000013,-66.34995996367022
-0.3577,-66.47728398065809
-0.35870000000000013,-66.56216665864997
-0.3597,-66.64704933664189
-0.36070000000000013,-66.68949067563783
-0.3617,-66.73193201463377
-0.3626999999999999,-66.77437335362974
-0.3637,-66.81681469262568
-0.3646999999999999,-66.87340314462028
-0.3657,-66.91584448361623
-0.3666999999999999,-67.04316850060408
-0.3677,-67.17049251759194
-0.3686999999999999,-67.2978165345798
-0.36970000000000003,-67.43928766456631
-0.3706999999999999,-67.52417034255821
-0.37170000000000003,-67.6090530205501
-0.3726999999999999,-67.693935698542
-0.37370000000000003,-67.73637703753796
-0.3746999999999999,-67.82125971552985
-0.37570000000000003,-67.96273084551636
-0.3766999999999999,-68.0900548625042
-0.37770000000000004,-68.30226155748396
-0.3786999999999999,-68.48617402646643
-0.37970000000000004,-68.65593938245023
-0.3806999999999999,-68.82570473843404
-0.38170000000000004,-68.96717586842054
-0.38269999999999993,-69.0944998854084
-0.38370000000000004,-69.22182390239624
-0.38469999999999993,-69.39158925838004
-0.38570000000000004,-69.57550172736251
-0.38669999999999993,-68.21737887949207
-0.38570000000000004,-64.59571795183757
-0.38469999999999993,-61.5965299961237
-0.38370000000000004,-58.880284300382826
-0.38269999999999993,-56.36209818662306
-0.38170000000000004,-54.0419716548444
-0.3806999999999999,-51.86331625305225
-0.37970000000000004,-49.85442620724389
-0.3786999999999999,-47.987007291422046
-0.37770000000000004,-46.147882601597495
-0.3766999999999999,-44.4926703807554
-0.37570000000000003,-42.92234083790521
-0.3746999999999999,-41.47933531204288
-0.37370000000000003,-40.03632978618054
-0.3726999999999999,-38.692354051308754
-0.37170000000000003,-37.334231203438314
-0.3706999999999999,-36.07513814655844
-0.36970000000000003,-34.75945663768395
-0.3686999999999999,-33.45792224180811
-0.3677,-32.184682071929586
-0.3666999999999999,-31.052913032037555
-0.3657,-30.04846800913338
-0.3646999999999999,-29.100611438223805
-0.3637,-28.13860775431558
-0.3626999999999999,-27.134162731411404
-0.3617,-26.129717708507226
-0.36070000000000013,-25.12527268560305
-0.3597,-24.120827662698876
-0.35870000000000013,-23.2012653177866
-0.3577,-22.33829142486893
-0.35670000000000013,-21.503611757948562
-0.3557,-20.683079204026836
-0.3547000000000001,-19.93328221509837
-0.3537,-19.155191000172596
-0.3527000000000001,-18.362952672248177
-0.3517,-17.584861457322408
-0.3507000000000001,-16.792623129397985
-0.3497,-16.099414592464115
-0.3487000000000001,-15.349617603535648
-0.3477,-14.61396772760583
-0.3467000000000001,-13.960371107068182
-0.3457,-13.30535977523067
-0.3447000000000001,-12.694204493688973
-0.3437,-12.084463923447142
-0.3427000000000001,-11.473308641905447
-0.3417,-10.819712021367803
-0.3407000000000001,-10.208556739826104
-0.3397,-9.55496011928846
-0.3387000000000001,-8.943804837746763
-0.3377,-8.332649556205066
-0.3367000000000001,-7.7653503249591855
-0.3357,-7.28576319430494
-0.3347000000000001,-6.806176063650692
-0.3337,-6.326588932996443
-0.3327000000000001,-5.80314575204638
-0.3317,-5.279702571096316
-0.3307000000000001,-4.712403339850438
-0.3297,-4.146518819904423
-0.3287000000000001,-3.623075638954359
-0.3277,-3.1859298472960624
-0.3267000000000001,-2.706342716641815
-0.3257,-2.3144676865791998
-0.3247000000000001,-1.8773218949209036
-0.3237,-1.4854468648582886
-0.3227000000000001,-1.0490084288499246
-0.3217,-0.6128529351015338
-0.3207000000000001,-0.1330535977523067
-0.3197,0.3467457395969205
-0.3187000000000001,0.7829012333453113
-0.3177,1.219056727093702
-0.3167000000000001,1.5675001202504606
-0.3157,1.9169338113171246
-0.3147000000000001,2.2663675023837886
-0.3137,2.6143864821505876
-0.3127000000000001,2.963820173217252
-0.3117,3.355695203279867
-0.3107000000000001,3.748984944642347
-0.3097,4.140859974704963
-0.3087000000000001,4.534149716067443
-0.3077,4.883583407134107
-0.3067000000000001,5.18774633660509
-0.30569999999999997,5.493323977375938
-0.3047000000000001,5.75504556785097
-0.30369999999999997,6.060623208621817
-0.3027000000000001,6.410056899688482
-0.30169999999999997,6.714219829159464
-0.3007000000000001,7.063653520226129
-0.29969999999999997,7.413087211292793
-0.2987000000000001,7.761106191059591
-0.29769999999999996,8.066683831830439
-0.2967000000000001,8.372261472601286
-0.29569999999999996,8.590127012780503
-0.2947000000000001,8.851848603255535
-0.29369999999999996,9.113570193730567
-0.29270000000000007,9.375291784205599
-0.29169999999999996,9.680869424976446
-0.29070000000000007,9.986447065747294
-0.28969999999999996,10.292024706518141
-0.28870000000000007,10.596187635989125
-0.28769999999999996,10.857909226464155
-0.28670000000000007,11.119630816939189
-0.28569999999999995,11.33891106841827
-0.28470000000000006,11.51292055830167
-0.28369999999999995,11.774642148776701
-0.28270000000000006,11.9486516386601
-0.28169999999999995,12.210373229135131
-0.28070000000000006,12.515950869905978
-0.27969999999999995,12.77767246038101
-0.27870000000000006,13.039394050856043
-0.27769999999999995,13.301115641331073
-0.27670000000000006,13.475125131214474
-0.27569999999999995,13.69299067139369
-0.27470000000000006,13.824558822281137
-0.27369999999999994,14.08628041275617
-0.27270000000000005,14.217848563643619
-0.27169999999999994,14.472496597619326
-0.27070000000000005,14.741291744593681
-0.26969999999999994,14.995939778569388
-0.26870000000000005,15.222293586547794
-0.26769999999999994,15.43450028152755
-0.26670000000000005,15.660854089505953
-0.26569999999999994,15.830619445489761
-0.26470000000000005,16.000384801473565
-0.26369999999999993,16.141855931460068
-0.26270000000000004,16.311621287443874
-0.26169999999999993,16.52382798242363
