Potential V vs RHE, Current mA cm-2
0.013299999999999867,1.3934906303670611
0.012299999999999978,-0.1766974413531431
0.011299999999999866,-1.4854468648582886
0.010299999999999976,-2.618630616050183
0.009299999999999864,-3.623075638954359
0.008299999999999974,-4.538393849967037
0.007299999999999862,-5.323558621392133
0.006299999999999972,-5.977155241929781
0.00529999999999986,-6.588310523471475
0.0042999999999999705,-7.199465805013171
0.0032999999999998586,-7.809206375255003
0.0022999999999999687,-8.4203616567967
0.0012999999999998568,-8.943804837746763
0.00029999999999996696,-9.379535918105192
-0.000700000000000145,-9.772825659467674
-0.0017000000000000348,-10.164700689530287
-0.0027000000000001467,-10.557990430892769
-0.0037000000000000366,-10.993721511251199
-0.0047000000000001485,-11.42945259160963
-0.005700000000000038,-11.82274233297211
-0.00670000000000015,-12.12831997374296
-0.00770000000000004,-12.390041564217992
-0.008700000000000152,-12.694204493688973
-0.009700000000000042,-13.087494235051453
-0.010700000000000154,-13.436927926118118
-0.011700000000000044,-13.784946905884919
-0.012700000000000156,-14.090524546655764
-0.013700000000000045,-14.345172580631472
-0.014700000000000157,-14.57152638860988
-0.015700000000000047,-14.868615761581536
-0.01670000000000016,-15.222293586547794
-0.01770000000000005,-15.575971411514052
-0.01870000000000016,-15.830619445489761
-0.01970000000000005,-16.141855931460068
-0.020700000000000163,-16.354062626439823
-0.021700000000000053,-16.580416434418233
-0.022700000000000164,-16.877505807389888
-0.023700000000000054,-17.188742293360193
-0.024700000000000166,-17.542420118326454
-0.025700000000000056,-17.839509491298113
-0.026700000000000168,-18.06586329927652
-0.027700000000000058,-18.320511333252224
-0.02870000000000017,-18.53271802823198
-0.02970000000000006,-18.88639585319824
-0.03070000000000017,-19.2400736781645
-0.03170000000000006,-19.537163051136158
-0.03270000000000017,-19.848399537106463
-0.03370000000000006,-20.10304757108217
-0.034700000000000175,-20.329401379060574
-0.035700000000000065,-20.626490752032236
-0.03670000000000018,-20.980168576998494
-0.03770000000000007,-21.333846401964752
-0.03870000000000018,-21.67337711393236
-0.03970000000000007,-21.94217226090672
-0.04070000000000018,-22.15437895588647
-0.04170000000000007,-22.46561544185678
-0.04270000000000018,-22.776851927827092
-0.04370000000000007,-23.15882397879065
-0.044700000000000184,-23.51250180375691
-0.045700000000000074,-23.86617962872317
-0.046700000000000186,-24.120827662698876
-0.047700000000000076,-24.34718147067728
-0.04870000000000019,-24.64427084364894
-0.04970000000000008,-24.997948668615198
-0.05070000000000019,-25.337479380582806
-0.05170000000000008,-25.691157205549064
-0.05270000000000019,-26.002393691519377
-0.05370000000000008,-26.257041725495082
-0.05470000000000019,-26.525836872469437
-0.05570000000000008,-26.86536758443705
-0.056700000000000195,-27.219045409403304
-0.057700000000000085,-27.615164573365515
-0.058700000000000196,-27.912253946337174
-0.059700000000000086,-28.22349043230748
-0.0607000000000002,-28.478138466283188
-0.06170000000000009,-28.789374952253496
-0.0627000000000002,-29.14305277721976
-0.06370000000000009,-29.482583489187363
-0.0647000000000002,-29.836261314153624
-0.06570000000000009,-30.189939139119886
-0.0667000000000002,-30.444587173095588
-0.0677000000000001,-30.71338232006995
-0.0687000000000002,-30.88314767605375
-0.0697000000000001,-31.19438416202406
-0.07070000000000021,-31.618797551983565
-0.0717000000000001,-32.01491671594578
-0.07270000000000021,-32.283711862920136
-0.0737000000000001,-32.53835989689585
-0.07470000000000021,-32.807155043870196
-0.0757000000000001,-33.10424441684186
-0.07670000000000021,-33.45792224180811
-0.0777000000000001,-33.85404140577033
-0.07870000000000021,-34.15113077874198
-0.0797000000000001,-34.462367264712285
-0.08070000000000022,-34.717015298688004
-0.0817000000000001,-35.02825178465831
-0.08270000000000022,-35.32534115762997
-0.08370000000000011,-35.679018982596226
-0.08470000000000022,-36.07513814655844
-0.08570000000000011,-36.47125731052064
-0.08670000000000022,-36.725905344496354
-0.08770000000000011,-36.99470049147071
-0.08870000000000022,-37.291789864442364
-0.08970000000000011,-37.60302635041268
-0.09070000000000022,-37.90011572338433
-0.09170000000000011,-38.253793548350586
-0.09270000000000023,-38.522588695324956
-0.09370000000000012,-38.777236729300654
-0.09470000000000023,-39.046031876275016
-0.09570000000000012,-39.258238571254765
-0.09670000000000023,-39.56947505722508
-0.09770000000000012,-39.86656443019674
-0.09870000000000023,-40.177800916167044
-0.09970000000000012,-40.43244895014274
-0.10070000000000023,-40.616361419125205
-0.10170000000000012,-40.87100945310091
-0.10270000000000024,-41.139804600075266
-0.10370000000000013,-41.39445263405098
-0.10470000000000024,-41.79057179801318
-0.10570000000000013,-42.04521983198889
-0.10670000000000024,-42.2715736399673
-0.10770000000000013,-42.4413389959511
-0.10870000000000024,-42.653545690930855
-0.10970000000000013,-42.92234083790521
-0.11070000000000024,-43.23357732387552
-0.11170000000000013,-43.53066669684718
-0.11270000000000002,-43.75702050482558
-0.11370000000000013,-43.92678586080939
-0.11470000000000002,-44.054109877797245
-0.11570000000000014,-44.36534636376755
-0.11670000000000003,-44.66243573673921
-0.11770000000000014,-44.97367222270952
-0.11870000000000003,-45.18587891768927
-0.11970000000000014,-45.412232725667685
-0.12070000000000003,-45.581998081651484
-0.12170000000000014,-45.79420477663124
-0.12270000000000003,-46.10544126260155
-0.12370000000000014,-46.37423640957591
-0.12470000000000003,-46.628884443551605
-0.12570000000000014,-46.84109113853137
-0.12670000000000003,-47.02500360751382
-0.12770000000000015,-47.10988628550572
-0.12870000000000004,-47.23721030249357
-0.12970000000000015,-47.46356411047198
-0.13070000000000004,-47.71821214444768
-0.13170000000000015,-47.987007291422046
-0.13270000000000004,-48.156772647405845
-0.13370000000000015,-48.2840966643937
-0.13470000000000004,-48.41142068138156
-0.13570000000000015,-48.59533315036401
-0.13670000000000004,-48.84998118433972
-0.13770000000000016,-49.16121767031002
-0.13870000000000005,-49.373424365289786
-0.13970000000000016,-49.557336834272235
-0.14070000000000005,-49.642219512264134
-0.14170000000000016,-49.76954352925199
-0.14270000000000005,-50.024191563227696
-0.14370000000000016,-50.2505453712061
-0.14470000000000005,-50.50519340518181
-0.14570000000000016,-50.77398855215617
-0.14670000000000005,-50.943753908139975
-0.14770000000000016,-51.071077925127824
-0.14870000000000005,-51.21254905511432
-0.14970000000000017,-51.424755750094086
-0.15070000000000006,-51.69355089706845
-0.15170000000000017,-51.86331625305225
-0.15270000000000006,-52.033081609036046
-0.15370000000000017,-52.17455273902255
-0.15470000000000006,-52.30187675601041
-0.15570000000000017,-52.471642111994214
-0.15670000000000006,-52.74043725896857
-0.15770000000000017,-52.995085292944275
-0.15870000000000006,-53.26388043991864
-0.15970000000000018,-53.433645795902436
-0.16070000000000007,-53.603411151886235
-0.16170000000000018,-53.74488228187274
-0.16270000000000007,-53.91464763785655
-0.16370000000000018,-54.2117370108282
-0.16470000000000007,-54.43809081880661
-0.16570000000000018,-54.56541483579447
-0.16670000000000007,-54.69273885278232
-0.16770000000000018,-54.791768643772876
-0.16870000000000007,-54.876651321764776
-0.16970000000000018,-55.088858016744524
-0.17070000000000007,-55.31521182472294
-0.17170000000000019,-55.527418519702685
-0.17270000000000008,-55.65474253669055
-0.1737000000000002,-55.73962521468245
-0.17470000000000008,-55.881096344668954
-0.1757000000000002,-56.008420361656796
-0.17670000000000008,-56.1781857176406
-0.1777000000000002,-56.44698086461496
-0.17870000000000008,-56.57430488160282
-0.1797000000000002,-56.70162889859067
-0.18070000000000008,-56.786511576582576
-0.1817000000000002,-56.927982706569075
-0.18270000000000008,-57.05530672355693
-0.1837000000000002,-57.22507207954074
-0.1847000000000001,-57.45142588751914
-0.1857000000000002,-57.62119124350295
-0.1867000000000001,-57.66363258249889
-0.1877000000000002,-57.7485152604908
-0.1887000000000001,-57.8333979384827
-0.1897000000000002,-57.974869068469204
-0.1907000000000001,-58.18707576344896
-0.1917000000000001,-58.31439978043681
-0.19269999999999998,-58.39928245842871
-0.1937000000000001,-58.39928245842871
-0.19469999999999998,-58.45587091042332
-0.1957000000000001,-58.498312249419264
-0.19669999999999999,-58.583194927411164
-0.1977000000000001,-58.75296028339497
-0.1987,-58.83784296138688
-0.1997000000000001,-58.880284300382826
-0.2007,-58.880284300382826
-0.2017000000000001,-58.83784296138688
-0.2027,-58.92272563937878
-0.2037000000000001,-59.06419676936528
-0.2047,-59.14907944735718
-0.2057000000000001,-59.19152078635314
-0.2067,-59.14907944735718
-0.2077000000000001,-59.10663810836124
-0.2087,-59.10663810836124
-0.2097000000000001,-59.19152078635314
-0.2107,-59.23396212534908
-0.2117000000000001,-59.31884480334099
-0.2127,-59.31884480334099
-0.2137000000000001,-59.27640346434504
-0.2147,-59.27640346434504
-0.2157000000000001,-59.27640346434504
-0.2167,-59.27640346434504
-0.21770000000000012,-59.36128614233694
-0.2187,-59.36128614233694
-0.21970000000000012,-59.31884480334099
-0.2207,-59.19152078635314
-0.22170000000000012,-59.10663810836124
-0.2227,-59.10663810836124
-0.22370000000000012,-59.10663810836124
-0.2247,-59.14907944735718
-0.22570000000000012,-59.14907944735718
-0.2267,-59.02175543036933
-0.22770000000000012,-58.880284300382826
-0.22870000000000001,-58.83784296138688
-0.22970000000000013,-58.83784296138688
-0.23070000000000002,-58.83784296138688
-0.23170000000000013,-58.79540162239092
-0.23270000000000002,-58.75296028339497
-0.23370000000000013,-58.62563626640712
-0.23470000000000002,-58.45587091042332
-0.23570000000000013,-58.35684111943277
-0.23670000000000002,-58.31439978043681
-0.2376999999999999,-58.27195844144086
-0.23870000000000002,-58.18707576344896
-0.2396999999999999,-58.05975174646111
-0.24070000000000003,-57.8333979384827
-0.24169999999999991,-57.70607392149485
-0.24270000000000003,-57.62119124350295
-0.24369999999999992,-57.53630856551105
-0.24470000000000003,-57.45142588751914
-0.24569999999999992,-57.352396096528594
-0.24670000000000003,-57.182630740544774
-0.24769999999999992,-56.927982706569075
-0.24870000000000003,-56.786511576582576
-0.24969999999999992,-56.65918755959472
-0.25070000000000003,-56.53186354260687
-0.2516999999999999,-56.404539525619015
-0.25270000000000004,-56.26306839563251
-0.2536999999999999,-56.05086170065276
-0.25470000000000004,-55.7820665536784
-0.2556999999999999,-55.612301197694585
-0.25670000000000004,-55.484977180706736
-0.25769999999999993,-55.357653163718886
-0.25870000000000004,-55.21618203373238
-0.25969999999999993,-55.046416677748574
-0.26070000000000004,-54.791768643772876
-0.26169999999999993,-54.56541483579447
-0.26270000000000004,-54.39564947981066
-0.26369999999999993,-54.26832546282281
-0.26470000000000005,-54.08441299384035
-0.26569999999999994,-53.872206298860604
-0.26670000000000005,-53.64585249088219
-0.26769999999999994,-53.348763117910536
-0.26870000000000005,-53.12240930993213
-0.26969999999999994,-52.995085292944275
-0.27070000000000005,-52.86776127595642
-0.27169999999999994,-52.69799591997262
-0.27270000000000005,-52.471642111994214
-0.27369999999999994,-52.25943541701445
-0.27470000000000006,-51.948198931044146
-0.27569999999999995,-51.77843357506035
-0.27670000000000006,-51.594521106077885
-0.27769999999999995,-51.509638428085985
-0.27870000000000006,-51.33987307210218
-0.27969999999999995,-51.127666377122424
-0.28070000000000006,-50.90131256914402
-0.28169999999999995,-50.68910587416426
-0.28270000000000006,-50.50519340518181
-0.28369999999999995,-50.42031072718991
-0.28470000000000006,-50.29298671020206
-0.28569999999999995,-50.12322135421825
-0.28670000000000007,-49.89686754623985
-0.28769999999999996,-49.68466085126009
-0.28870000000000007,-49.458307043281685
-0.28969999999999996,-49.28854168729788
-0.29070000000000007,-49.20365900930597
-0.29169999999999996,-49.118776331314066
-0.29270000000000007,-48.97730520132757
-0.29369999999999996,-48.80753984534376
-0.2947000000000001,-48.59533315036401
-0.29569999999999996,-48.45386202037751
-0.2967000000000001,-48.36897934238561
-0.29769999999999996,-48.36897934238561
-0.2987000000000001,-48.24165532539775
-0.29969999999999997,-48.114331308409895
-0.3007000000000001,-47.93041883942744
-0.30169999999999997,-47.80309482243959
-0.3027000000000001,-47.71821214444768
-0.30369999999999997,-47.633329466455784
-0.3047000000000001,-47.46356411047198
-0.30569999999999997,-47.40697565847737
-0.3067000000000001,-47.36453431948143
-0.3077,-47.23721030249357
-0.3087000000000001,-47.02500360751382
-0.3097,-46.94012092952192
-0.3107000000000001,-46.982562268517874
-0.3117,-46.982562268517874
-0.3127000000000001,-46.94012092952192
-0.3137,-46.79864979953541
-0.3147000000000001,-46.713767121543505
-0.3157,-46.713767121543505
-0.3167000000000001,-46.67132578254756
-0.3177,-46.75620846053947
-0.3187000000000001,-46.713767121543505
-0.3197,-46.628884443551605
-0.3207000000000001,-46.586443104555656
-0.3217,-46.586443104555656
-0.3227000000000001,-46.67132578254756
-0.3237,-46.713767121543505
-0.3247000000000001,-46.75620846053947
-0.3257,-46.79864979953541
-0.3267000000000001,-46.75620846053947
-0.3277,-46.713767121543505
-0.3287000000000001,-46.713767121543505
-0.3297,-46.75620846053947
-0.3307000000000001,-46.84109113853137
-0.3317,-46.982562268517874
-0.3327000000000001,-47.02500360751382
-0.3337,-46.982562268517874
-0.3347000000000001,-46.94012092952192
-0.3357,-46.982562268517874
-0.3367000000000001,-47.067444946509774
-0.3377,-47.15232762450167
-0.3387000000000001,-47.23721030249357
-0.3397,-47.32209298048547
-0.3407000000000001,-47.32209298048547
-0.3417,-47.32209298048547
-0.3427000000000001,-47.46356411047198
-0.3437,-47.633329466455784
-0.3447000000000001,-47.80309482243959
-0.3457,-47.93041883942744
-0.3467000000000001,-48.029448630417996
-0.3477,-48.029448630417996
-0.3487000000000001,-48.114331308409895
-0.3497,-48.2840966643937
-0.3507000000000001,-48.41142068138156
-0.3517,-48.59533315036401
-0.3527000000000001,-48.72265716735186
-0.3537,-48.84998118433972
-0.3547000000000001,-48.89242252333566
-0.3557,-49.03389365332217
-0.35670000000000013,-49.24610034830193
-0.3577,-49.458307043281685
-0.35870000000000013,-49.642219512264134
-0.3597,-49.72710219025603
-0.36070000000000013,-49.89686754623985
-0.3617,-49.98175022423175
-0.3626999999999999,-50.1656626932142
-0.3637,-50.42031072718991
-0.3646999999999999,-50.64666453516831
-0.3657,-50.85887123014807
-0.3666999999999999,-50.98619524713592
-0.3677,-51.071077925127824
-0.3686999999999999,-51.21254905511432
-0.36970000000000003,-51.509638428085985
-0.3706999999999999,-51.73599223606439
-0.37170000000000003,-51.948198931044146
-0.3726999999999999,-52.075522948032
-0.37370000000000003,-52.25943541701445
-0.3746999999999999,-52.34431809500636
-0.37570000000000003,-52.55652478998611
-0.3766999999999999,-52.82531993696047
-0.37770000000000004,-53.12240930993213
-0.3786999999999999,-53.348763117910536
-0.37970000000000004,-53.56096981289029
-0.3806999999999999,-53.7873236208687
-0.38170000000000004,-53.9570889768525
-0.38269999999999993,-54.2117370108282
-0.38370000000000004,-54.52297349679851
-0.38469999999999993,-54.876651321764776
-0.38570000000000004,-55.13129935574048
-0.38669999999999993,-53.872206298860604
-0.38570000000000004,-50.46275206618586
-0.38469999999999993,-47.76065348344364
-0.38370000000000004,-45.45467406466363
-0.38269999999999993,-43.44578401885527
-0.38170000000000004,-41.66324778102533
-0.3806999999999999,-39.95144710818864
-0.37970000000000004,-38.33867622634249
-0.3786999999999999,-36.8532293614842
-0.37770000000000004,-35.46681228761647
-0.3766999999999999,-34.236013456733886
-0.37570000000000003,-33.14668575583781
-0.3746999999999999,-31.972475376949827
-0.37370000000000003,-30.8407063370578
-0.3726999999999999,-29.751378636161718
-0.37170000000000003,-28.704492274261593
-0.3706999999999999,-27.78492992934932
-0.36970000000000003,-26.86536758443705
-0.3686999999999999,-26.002393691519377
-0.3677,-25.167714024599
-0.3666999999999999,-24.24815167968673
-0.3657,-23.385177786769056
-0.3646999999999999,-22.592939458844636
-0.3637,-21.857289582914817
-0.3626999999999999,-21.149933932982297
-0.3617,-20.499166735044383
-0.36070000000000013,-19.763516859114564
-0.3597,-19.01371987018609
-0.35870000000000013,-18.27806999425627
-0.3577,-17.627302796318357
-0.35670000000000013,-17.018976937376394
-0.3557,-16.495533756426326
-0.3547000000000001,-15.91550212348166
-0.3537,-15.264734925543747
-0.3527000000000001,-14.61396772760583
-0.3517,-14.002812446064135
-0.3507000000000001,-13.436927926118118
-0.3497,-12.955926084164007
-0.3487000000000001,-12.476338953509758
-0.3477,-11.952895772559694
-0.3467000000000001,-11.42945259160963
-0.3457,-10.819712021367803
-0.3447000000000001,-10.340124890713554
-0.3437,-9.85912304875944
-0.3427000000000001,-9.467248018696827
-0.3417,-9.031516938338395
-0.3407000000000001,-8.55051509638428
-0.3397,-8.070927965730034
-0.3387000000000001,-7.591340835075788
-0.3377,-7.155609754717355
-0.3367000000000001,-6.762320013354876
-0.3357,-6.414301033588076
-0.3347000000000001,-6.021011292225596
-0.3337,-5.629136262162981
-0.3327000000000001,-5.149549131508733
-0.3317,-4.712403339850438
-0.3307000000000001,-4.364384360083638
-0.3297,-4.014950669016974
-0.3287000000000001,-3.7532290785419424
-0.3277,-3.403795387475278
-0.3267000000000001,-2.968064307116847
-0.3257,-2.576189277054232
-0.3247000000000001,-2.226755585987568
-0.3237,-1.92117794521672
-0.3227000000000001,-1.6594563547416883
-0.3217,-1.3980177065266295
-0.3207000000000001,-1.0054353208140816
-0.3197,-0.7001406223032067
-0.3187000000000001,-0.30755823659065895
-0.3177,-0.04582249900262853
-0.3167000000000001,0.21588494435940458
-0.3157,0.4776065348344364
-0.3147000000000001,0.6956135461436386
-0.3137,1.0010497157844997
-0.3127000000000001,1.349917522331218
-0.3117,1.655212220842093
-0.3107000000000001,1.9169338113171246
-0.3097,2.1347993514963406
-0.3087000000000001,2.30880884137974
-0.3077,2.5280890928588207
-0.3067000000000001,2.8322520223298033
-0.30569999999999997,3.1816857133964676
-0.3047000000000001,3.3995512535756833
-0.30369999999999997,3.6174167937548987
-0.3027000000000001,3.7928409949381634
-0.30169999999999997,3.9668504848215624
-0.3007000000000001,4.2285720752965945
-0.29969999999999997,4.490293665771627
-0.2987000000000001,4.752015256246658
-0.29769999999999996,4.9698807964258735
-0.2967000000000001,5.145304997609139
-0.29569999999999996,5.275458437196722
-0.2947000000000001,5.449467927080121
-0.29369999999999996,5.667333467259336
-0.29270000000000007,5.929055057734368
-0.29169999999999996,6.1907766482094
-0.29070000000000007,6.366200849392665
-0.28969999999999996,6.496354288980249
-0.28870000000000007,6.627922439867697
-0.28769999999999996,6.801931929751096
-0.28670000000000007,7.063653520226129
-0.28569999999999995,7.281519060405343
-0.28470000000000006,7.49938460058456
-0.28369999999999995,7.630952751472008
-0.28270000000000006,7.761106191059591
-0.28169999999999995,7.892674341947039
-0.28070000000000006,8.022827781534623
-0.27969999999999995,8.284549372009655
-0.27870000000000006,8.503829623488736
-0.27769999999999995,8.677839113372134
-0.27670000000000006,8.764136502663902
-0.27569999999999995,8.89570465355135
-0.27470000000000006,9.025858093138934
-0.27369999999999994,9.201282294322198
-0.27270000000000005,9.419147834501414
-0.27169999999999994,9.593157324384812
-0.27070000000000005,9.768581525568079
-0.26969999999999994,9.854878914859846
-0.26870000000000005,9.942591015451477
-0.26769999999999994,10.07274445503906
-0.26670000000000005,10.248168656222326
-0.26569999999999994,10.46603419640154
-0.26470000000000005,10.64004368628494
