Apr. 5, 2025   03:33:39
Cyclic Voltammetry
File: c:/users/guazh/data/banditlqround7_x0exp994_r5/2025-03-28-exp986\exp986-2025-04-05t03_25_10-h2koh\exp986_cv_sr_800mvs_efin_-1400mv.bin
Data Source:  Experiment
Instrument Model:  CHI760E
Header: CV ran at 800 mVs
Note: 

Init E (V) = -1
High E (V) = -1
Low E (V) = -1.4
Final E (V) = -1
Init P/N = N
Scan Rate (V/s) = 0.8
Segment = 3
Sample Interval (V) = 0.001
Quiet Time (sec) = 2
Sensitivity (A/V) = 0.01
Comp R (ohm) = 1.9

Results:

Channel 1:
Segment 1:

Segment 2:

Segment 3:

Potential/V, Current/A

-1.000, -7.692e-5
-1.001, 5.257e-5
-1.002, 1.574e-4
-1.003, 2.530e-4
-1.004, 3.393e-4
-1.005, 4.164e-4
-1.006, 4.904e-4
-1.007, 5.582e-4
-1.008, 6.229e-4
-1.009, 6.877e-4
-1.010, 7.463e-4
-1.011, 8.079e-4
-1.012, 8.634e-4
-1.013, 9.128e-4
-1.014, 9.652e-4
-1.015, 1.011e-3
-1.016, 1.055e-3
-1.017, 1.098e-3
-1.018, 1.135e-3
-1.019, 1.175e-3
-1.020, 1.212e-3
-1.021, 1.249e-3
-1.022, 1.286e-3
-1.023, 1.323e-3
-1.024, 1.363e-3
-1.025, 1.400e-3
-1.026, 1.434e-3
-1.027, 1.468e-3
-1.028, 1.502e-3
-1.029, 1.532e-3
-1.030, 1.563e-3
-1.031, 1.591e-3
-1.032, 1.622e-3
-1.033, 1.650e-3
-1.034, 1.680e-3
-1.035, 1.708e-3
-1.036, 1.742e-3
-1.037, 1.773e-3
-1.038, 1.804e-3
-1.039, 1.835e-3
-1.040, 1.865e-3
-1.041, 1.893e-3
-1.042, 1.924e-3
-1.043, 1.952e-3
-1.044, 1.983e-3
-1.045, 2.007e-3
-1.046, 2.035e-3
-1.047, 2.063e-3
-1.048, 2.091e-3
-1.049, 2.124e-3
-1.050, 2.155e-3
-1.051, 2.186e-3
-1.052, 2.220e-3
-1.053, 2.251e-3
-1.054, 2.282e-3
-1.055, 2.309e-3
-1.056, 2.340e-3
-1.057, 2.371e-3
-1.058, 2.399e-3
-1.059, 2.427e-3
-1.060, 2.457e-3
-1.061, 2.488e-3
-1.062, 2.522e-3
-1.063, 2.556e-3
-1.064, 2.587e-3
-1.065, 2.621e-3
-1.066, 2.655e-3
-1.067, 2.689e-3
-1.068, 2.719e-3
-1.069, 2.753e-3
-1.070, 2.781e-3
-1.071, 2.812e-3
-1.072, 2.840e-3
-1.073, 2.877e-3
-1.074, 2.904e-3
-1.075, 2.941e-3
-1.076, 2.978e-3
-1.077, 3.012e-3
-1.078, 3.049e-3
-1.079, 3.086e-3
-1.080, 3.117e-3
-1.081, 3.154e-3
-1.082, 3.185e-3
-1.083, 3.219e-3
-1.084, 3.250e-3
-1.085, 3.284e-3
-1.086, 3.311e-3
-1.087, 3.345e-3
-1.088, 3.376e-3
-1.089, 3.410e-3
-1.090, 3.447e-3
-1.091, 3.487e-3
-1.092, 3.521e-3
-1.093, 3.549e-3
-1.094, 3.580e-3
-1.095, 3.620e-3
-1.096, 3.663e-3
-1.097, 3.691e-3
-1.098, 3.715e-3
-1.099, 3.743e-3
-1.100, 3.777e-3
-1.101, 3.808e-3
-1.102, 3.842e-3
-1.103, 3.876e-3
-1.104, 3.913e-3
-1.105, 3.950e-3
-1.106, 3.987e-3
-1.107, 4.021e-3
-1.108, 4.054e-3
-1.109, 4.085e-3
-1.110, 4.119e-3
-1.111, 4.150e-3
-1.112, 4.178e-3
-1.113, 4.212e-3
-1.114, 4.243e-3
-1.115, 4.276e-3
-1.116, 4.313e-3
-1.117, 4.347e-3
-1.118, 4.378e-3
-1.119, 4.415e-3
-1.120, 4.446e-3
-1.121, 4.480e-3
-1.122, 4.508e-3
-1.123, 4.538e-3
-1.124, 4.569e-3
-1.125, 4.600e-3
-1.126, 4.628e-3
-1.127, 4.659e-3
-1.128, 4.690e-3
-1.129, 4.720e-3
-1.130, 4.754e-3
-1.131, 4.788e-3
-1.132, 4.822e-3
-1.133, 4.853e-3
-1.134, 4.884e-3
-1.135, 4.915e-3
-1.136, 4.942e-3
-1.137, 4.970e-3
-1.138, 4.998e-3
-1.139, 5.029e-3
-1.140, 5.056e-3
-1.141, 5.084e-3
-1.142, 5.115e-3
-1.143, 5.143e-3
-1.144, 5.177e-3
-1.145, 5.208e-3
-1.146, 5.238e-3
-1.147, 5.263e-3
-1.148, 5.291e-3
-1.149, 5.315e-3
-1.150, 5.343e-3
-1.151, 5.371e-3
-1.152, 5.399e-3
-1.153, 5.426e-3
-1.154, 5.454e-3
-1.155, 5.479e-3
-1.156, 5.507e-3
-1.157, 5.534e-3
-1.158, 5.562e-3
-1.159, 5.593e-3
-1.160, 5.621e-3
-1.161, 5.648e-3
-1.162, 5.676e-3
-1.163, 5.698e-3
-1.164, 5.725e-3
-1.165, 5.750e-3
-1.166, 5.775e-3
-1.167, 5.796e-3
-1.168, 5.818e-3
-1.169, 5.843e-3
-1.170, 5.870e-3
-1.171, 5.895e-3
-1.172, 5.920e-3
-1.173, 5.944e-3
-1.174, 5.969e-3
-1.175, 5.994e-3
-1.176, 6.018e-3
-1.177, 6.040e-3
-1.178, 6.062e-3
-1.179, 6.083e-3
-1.180, 6.105e-3
-1.181, 6.123e-3
-1.182, 6.148e-3
-1.183, 6.169e-3
-1.184, 6.197e-3
-1.185, 6.222e-3
-1.186, 6.250e-3
-1.187, 6.271e-3
-1.188, 6.296e-3
-1.189, 6.314e-3
-1.190, 6.336e-3
-1.191, 6.358e-3
-1.192, 6.376e-3
-1.193, 6.398e-3
-1.194, 6.419e-3
-1.195, 6.444e-3
-1.196, 6.465e-3
-1.197, 6.487e-3
-1.198, 6.512e-3
-1.199, 6.539e-3
-1.200, 6.561e-3
-1.201, 6.583e-3
-1.202, 6.601e-3
-1.203, 6.620e-3
-1.204, 6.641e-3
-1.205, 6.660e-3
-1.206, 6.678e-3
-1.207, 6.700e-3
-1.208, 6.718e-3
-1.209, 6.740e-3
-1.210, 6.755e-3
-1.211, 6.771e-3
-1.212, 6.786e-3
-1.213, 6.798e-3
-1.214, 6.691e-3
-1.215, 6.687e-3
-1.216, 6.703e-3
-1.217, 6.728e-3
-1.218, 6.734e-3
-1.219, 6.749e-3
-1.220, 6.764e-3
-1.221, 6.780e-3
-1.222, 6.798e-3
-1.223, 6.817e-3
-1.224, 6.842e-3
-1.225, 6.860e-3
-1.226, 6.879e-3
-1.227, 6.891e-3
-1.228, 6.903e-3
-1.229, 6.922e-3
-1.230, 6.931e-3
-1.231, 6.943e-3
-1.232, 6.953e-3
-1.233, 6.968e-3
-1.234, 6.977e-3
-1.235, 6.993e-3
-1.236, 7.008e-3
-1.237, 7.020e-3
-1.238, 7.036e-3
-1.239, 7.051e-3
-1.240, 7.067e-3
-1.241, 7.079e-3
-1.242, 7.088e-3
-1.243, 7.094e-3
-1.244, 7.104e-3
-1.245, 7.107e-3
-1.246, 7.122e-3
-1.247, 7.131e-3
-1.248, 7.144e-3
-1.249, 7.159e-3
-1.250, 7.171e-3
-1.251, 7.181e-3
-1.252, 7.193e-3
-1.253, 7.199e-3
-1.254, 7.208e-3
-1.255, 7.215e-3
-1.256, 7.221e-3
-1.257, 7.224e-3
-1.258, 7.233e-3
-1.259, 7.236e-3
-1.260, 7.245e-3
-1.261, 7.249e-3
-1.262, 7.252e-3
-1.263, 7.258e-3
-1.264, 7.261e-3
-1.265, 7.270e-3
-1.266, 7.276e-3
-1.267, 7.289e-3
-1.268, 7.298e-3
-1.269, 7.301e-3
-1.270, 7.301e-3
-1.271, 7.307e-3
-1.272, 7.304e-3
-1.273, 7.304e-3
-1.274, 7.298e-3
-1.275, 7.298e-3
-1.276, 7.301e-3
-1.277, 7.301e-3
-1.278, 7.301e-3
-1.279, 7.304e-3
-1.280, 7.301e-3
-1.281, 7.301e-3
-1.282, 7.298e-3
-1.283, 7.295e-3
-1.284, 7.292e-3
-1.285, 7.286e-3
-1.286, 7.276e-3
-1.287, 7.270e-3
-1.288, 7.261e-3
-1.289, 7.258e-3
-1.290, 7.245e-3
-1.291, 7.236e-3
-1.292, 7.227e-3
-1.293, 7.218e-3
-1.294, 7.208e-3
-1.295, 7.199e-3
-1.296, 7.190e-3
-1.297, 7.178e-3
-1.298, 7.165e-3
-1.299, 7.147e-3
-1.300, 7.138e-3
-1.301, 7.119e-3
-1.302, 7.104e-3
-1.303, 7.085e-3
-1.304, 7.073e-3
-1.305, 7.057e-3
-1.306, 7.045e-3
-1.307, 7.036e-3
-1.308, 7.027e-3
-1.309, 7.014e-3
-1.310, 6.999e-3
-1.311, 6.986e-3
-1.312, 6.968e-3
-1.313, 6.953e-3
-1.314, 6.937e-3
-1.315, 6.922e-3
-1.316, 6.909e-3
-1.317, 6.897e-3
-1.318, 6.879e-3
-1.319, 6.863e-3
-1.320, 6.845e-3
-1.321, 6.835e-3
-1.322, 6.817e-3
-1.323, 6.798e-3
-1.324, 6.777e-3
-1.325, 6.758e-3
-1.326, 6.743e-3
-1.327, 6.728e-3
-1.328, 6.712e-3
-1.329, 6.697e-3
-1.330, 6.684e-3
-1.331, 6.672e-3
-1.332, 6.657e-3
-1.333, 6.638e-3
-1.334, 6.617e-3
-1.335, 6.598e-3
-1.336, 6.583e-3
-1.337, 6.561e-3
-1.338, 6.539e-3
-1.339, 6.521e-3
-1.340, 6.509e-3
-1.341, 6.493e-3
-1.342, 6.478e-3
-1.343, 6.465e-3
-1.344, 6.450e-3
-1.345, 6.444e-3
-1.346, 6.438e-3
-1.347, 6.428e-3
-1.348, 6.416e-3
-1.349, 6.404e-3
-1.350, 6.391e-3
-1.351, 6.376e-3
-1.352, 6.361e-3
-1.353, 6.348e-3
-1.354, 6.336e-3
-1.355, 6.327e-3
-1.356, 6.314e-3
-1.357, 6.305e-3
-1.358, 6.293e-3
-1.359, 6.280e-3
-1.360, 6.265e-3
-1.361, 6.259e-3
-1.362, 6.243e-3
-1.363, 6.228e-3
-1.364, 6.216e-3
-1.365, 6.203e-3
-1.366, 6.191e-3
-1.367, 6.185e-3
-1.368, 6.179e-3
-1.369, 6.173e-3
-1.370, 6.169e-3
-1.371, 6.166e-3
-1.372, 6.169e-3
-1.373, 6.169e-3
-1.374, 6.166e-3
-1.375, 6.160e-3
-1.376, 6.154e-3
-1.377, 6.145e-3
-1.378, 6.142e-3
-1.379, 6.129e-3
-1.380, 6.123e-3
-1.381, 6.117e-3
-1.382, 6.114e-3
-1.383, 6.111e-3
-1.384, 6.111e-3
-1.385, 6.111e-3
-1.386, 6.111e-3
-1.387, 6.111e-3
-1.388, 6.108e-3
-1.389, 6.105e-3
-1.390, 6.105e-3
-1.391, 6.105e-3
-1.392, 6.105e-3
-1.393, 6.108e-3
-1.394, 6.111e-3
-1.395, 6.114e-3
-1.396, 6.117e-3
-1.397, 6.120e-3
-1.398, 6.129e-3
-1.399, 6.136e-3
-1.400, 6.034e-3
-1.399, 5.766e-3
-1.398, 5.525e-3
-1.397, 5.309e-3
-1.396, 5.103e-3
-1.395, 4.912e-3
-1.394, 4.733e-3
-1.393, 4.563e-3
-1.392, 4.406e-3
-1.391, 4.255e-3
-1.390, 4.113e-3
-1.389, 3.971e-3
-1.388, 3.839e-3
-1.387, 3.712e-3
-1.386, 3.589e-3
-1.385, 3.466e-3
-1.384, 3.348e-3
-1.383, 3.231e-3
-1.382, 3.117e-3
-1.381, 3.012e-3
-1.380, 2.908e-3
-1.379, 2.809e-3
-1.378, 2.713e-3
-1.377, 2.624e-3
-1.376, 2.534e-3
-1.375, 2.448e-3
-1.374, 2.362e-3
-1.373, 2.282e-3
-1.372, 2.198e-3
-1.371, 2.118e-3
-1.370, 2.041e-3
-1.369, 1.961e-3
-1.368, 1.881e-3
-1.367, 1.807e-3
-1.366, 1.736e-3
-1.365, 1.668e-3
-1.364, 1.600e-3
-1.363, 1.536e-3
-1.362, 1.474e-3
-1.361, 1.415e-3
-1.360, 1.351e-3
-1.359, 1.289e-3
-1.358, 1.230e-3
-1.357, 1.169e-3
-1.356, 1.110e-3
-1.355, 1.048e-3
-1.354, 9.929e-4
-1.353, 9.374e-4
-1.352, 8.850e-4
-1.351, 8.295e-4
-1.350, 7.802e-4
-1.349, 7.309e-4
-1.348, 6.846e-4
-1.347, 6.384e-4
-1.346, 5.890e-4
-1.345, 5.428e-4
-1.344, 4.935e-4
-1.343, 4.472e-4
-1.342, 4.010e-4
-1.341, 3.516e-4
-1.340, 3.085e-4
-1.339, 2.653e-4
-1.338, 2.252e-4
-1.337, 1.851e-4
-1.336, 1.481e-4
-1.335, 1.081e-4
-1.334, 7.107e-5
-1.333, 3.407e-5
-1.332, -6.010e-6
-1.331, -4.301e-5
-1.330, -8.309e-5
-1.329, -1.201e-4
-1.328, -1.571e-4
-1.327, -1.941e-4
-1.326, -2.280e-4
-1.325, -2.650e-4
-1.324, -2.958e-4
-1.323, -3.267e-4
-1.322, -3.575e-4
-1.321, -3.883e-4
-1.320, -4.161e-4
-1.319, -4.469e-4
-1.318, -4.777e-4
-1.317, -5.116e-4
-1.316, -5.425e-4
-1.315, -5.733e-4
-1.314, -6.072e-4
-1.313, -6.350e-4
-1.312, -6.627e-4
-1.311, -6.905e-4
-1.310, -7.151e-4
-1.309, -7.398e-4
-1.308, -7.645e-4
-1.307, -7.922e-4
-1.306, -8.138e-4
-1.305, -8.415e-4
-1.304, -8.693e-4
-1.303, -8.970e-4
-1.302, -9.217e-4
-1.301, -9.494e-4
-1.300, -9.741e-4
-1.299, -9.988e-4
-1.298, -1.020e-3
-1.297, -1.042e-3
-1.296, -1.064e-3
-1.295, -1.085e-3
-1.294, -1.104e-3
-1.293, -1.125e-3
-1.292, -1.147e-3
-1.291, -1.168e-3
-1.290, -1.190e-3
-1.289, -1.215e-3
-1.288, -1.239e-3
-1.287, -1.261e-3
-1.286, -1.282e-3
-1.285, -1.301e-3
-1.284, -1.319e-3
-1.283, -1.338e-3
-1.282, -1.353e-3
-1.281, -1.372e-3
-1.280, -1.390e-3
-1.279, -1.409e-3
-1.278, -1.427e-3
-1.277, -1.449e-3
-1.276, -1.467e-3
-1.275, -1.489e-3
-1.274, -1.507e-3
-1.273, -1.529e-3
-1.272, -1.544e-3
-1.271, -1.563e-3
-1.270, -1.578e-3
-1.269, -1.594e-3
-1.268, -1.609e-3
-1.267, -1.625e-3
-1.266, -1.637e-3
-1.265, -1.655e-3
-1.264, -1.674e-3
-1.263, -1.692e-3
-1.262, -1.708e-3
-1.261, -1.729e-3
-1.260, -1.745e-3
-1.259, -1.763e-3
-1.258, -1.779e-3
-1.257, -1.791e-3
-1.256, -1.803e-3
-1.255, -1.819e-3
-1.254, -1.834e-3
-1.253, -1.850e-3
-1.252, -1.862e-3
-1.251, -1.877e-3
-1.250, -1.896e-3
-1.249, -1.914e-3
-1.248, -1.930e-3
-1.247, -1.945e-3
-1.246, -1.961e-3
-1.245, -1.973e-3
-1.244, -1.988e-3
-1.243, -1.998e-3
-1.242, -2.013e-3
-1.241, -2.022e-3
-1.240, -2.038e-3
-1.239, -2.050e-3
-1.238, -2.066e-3
-1.237, -2.081e-3
-1.236, -2.099e-3
-1.235, -2.115e-3
-1.234, -2.130e-3
-1.233, -2.143e-3
-1.232, -2.155e-3
-1.231, -2.167e-3
-1.230, -2.180e-3
-1.229, -2.195e-3
-1.228, -2.207e-3
-1.227, -2.220e-3
-1.226, -2.229e-3
-1.225, -2.244e-3
-1.224, -2.257e-3
-1.223, -2.272e-3
-1.222, -2.288e-3
-1.221, -2.303e-3
-1.220, -2.315e-3
-1.219, -2.331e-3
-1.218, -2.343e-3
-1.217, -2.355e-3
-1.216, -2.365e-3
-1.215, -2.377e-3
-1.214, -2.386e-3
-1.213, -2.399e-3
-1.212, -2.411e-3
-1.211, -2.423e-3
-1.210, -2.439e-3
-1.209, -2.454e-3
-1.208, -2.469e-3
-1.207, -2.482e-3
-1.206, -2.497e-3
-1.205, -2.509e-3
-1.204, -2.519e-3
-1.203, -2.531e-3
-1.202, -2.540e-3
-1.201, -2.553e-3
-1.200, -2.565e-3
-1.199, -2.574e-3
-1.198, -2.587e-3
-1.197, -2.602e-3
-1.196, -2.617e-3
-1.195, -2.630e-3
-1.194, -2.648e-3
-1.193, -2.661e-3
-1.192, -2.673e-3
-1.191, -2.688e-3
-1.190, -2.698e-3
-1.189, -2.707e-3
-1.188, -2.716e-3
-1.187, -2.735e-3
-1.186, -2.747e-3
-1.185, -2.762e-3
-1.184, -2.775e-3
-1.183, -2.790e-3
-1.182, -2.802e-3
-1.181, -2.821e-3
-1.180, -2.833e-3
-1.179, -2.846e-3
-1.178, -2.861e-3
-1.177, -2.873e-3
-1.176, -2.886e-3
-1.175, -2.898e-3
-1.174, -2.913e-3
-1.173, -2.926e-3
-1.172, -2.938e-3
-1.171, -2.953e-3
-1.170, -2.972e-3
-1.169, -2.987e-3
-1.168, -3.000e-3
-1.167, -3.015e-3
-1.166, -3.031e-3
-1.165, -3.046e-3
-1.164, -3.061e-3
-1.163, -3.071e-3
-1.162, -3.083e-3
-1.161, -3.098e-3
-1.160, -3.111e-3
-1.159, -3.126e-3
-1.158, -3.145e-3
-1.157, -3.160e-3
-1.156, -3.182e-3
-1.155, -3.200e-3
-1.154, -3.219e-3
-1.153, -3.234e-3
-1.152, -3.253e-3
-1.151, -3.271e-3
-1.150, -3.283e-3
-1.149, -3.299e-3
-1.148, -3.311e-3
-1.147, -3.327e-3
-1.146, -3.345e-3
-1.145, -3.364e-3
-1.144, -3.379e-3
-1.143, -3.397e-3
-1.142, -3.416e-3
-1.141, -3.434e-3
-1.140, -3.453e-3
-1.139, -3.471e-3
-1.138, -3.490e-3
-1.137, -3.508e-3
-1.136, -3.524e-3
-1.135, -3.539e-3
-1.134, -3.552e-3
-1.133, -3.567e-3
-1.132, -3.582e-3
-1.131, -3.601e-3
-1.130, -3.622e-3
-1.129, -3.647e-3
-1.128, -3.669e-3
-1.127, -3.693e-3
-1.126, -3.715e-3
-1.125, -3.733e-3
-1.124, -3.749e-3
-1.123, -3.764e-3
-1.122, -3.780e-3
-1.121, -3.795e-3
-1.120, -3.814e-3
-1.119, -3.832e-3
-1.118, -3.851e-3
-1.117, -3.875e-3
-1.116, -3.897e-3
-1.115, -3.918e-3
-1.114, -3.934e-3
-1.113, -3.952e-3
-1.112, -3.968e-3
-1.111, -3.992e-3
-1.110, -4.017e-3
-1.109, -4.036e-3
-1.108, -4.054e-3
-1.107, -4.073e-3
-1.106, -4.091e-3
-1.105, -4.113e-3
-1.104, -4.134e-3
-1.103, -4.156e-3
-1.102, -4.181e-3
-1.101, -4.202e-3
-1.100, -4.227e-3
-1.099, -4.248e-3
-1.098, -4.270e-3
-1.097, -4.288e-3
-1.096, -4.304e-3
-1.095, -4.322e-3
-1.094, -4.341e-3
-1.093, -4.359e-3
-1.092, -4.384e-3
-1.091, -4.406e-3
-1.090, -4.430e-3
-1.089, -4.455e-3
-1.088, -4.483e-3
-1.087, -4.504e-3
-1.086, -4.526e-3
-1.085, -4.547e-3
-1.084, -4.569e-3
-1.083, -4.591e-3
-1.082, -4.609e-3
-1.081, -4.628e-3
-1.080, -4.649e-3
-1.079, -4.671e-3
-1.078, -4.692e-3
-1.077, -4.717e-3
-1.076, -4.742e-3
-1.075, -4.766e-3
-1.074, -4.791e-3
-1.073, -4.813e-3
-1.072, -4.834e-3
-1.071, -4.856e-3
-1.070, -4.877e-3
-1.069, -4.896e-3
-1.068, -4.914e-3
-1.067, -4.933e-3
-1.066, -4.954e-3
-1.065, -4.976e-3
-1.064, -4.998e-3
-1.063, -5.019e-3
-1.062, -5.044e-3
-1.061, -5.068e-3
-1.060, -5.087e-3
-1.059, -5.109e-3
-1.058, -5.127e-3
-1.057, -5.149e-3
-1.056, -5.167e-3
-1.055, -5.186e-3
-1.054, -5.204e-3
-1.053, -5.226e-3
-1.052, -5.244e-3
-1.051, -5.266e-3
-1.050, -5.287e-3
-1.049, -5.312e-3
-1.048, -5.337e-3
-1.047, -5.361e-3
-1.046, -5.380e-3
-1.045, -5.401e-3
-1.044, -5.423e-3
-1.043, -5.442e-3
-1.042, -5.460e-3
-1.041, -5.475e-3
-1.040, -5.494e-3
-1.039, -5.516e-3
-1.038, -5.534e-3
-1.037, -5.559e-3
-1.036, -5.580e-3
-1.035, -5.605e-3
-1.034, -5.627e-3
-1.033, -5.648e-3
-1.032, -5.670e-3
-1.031, -5.691e-3
-1.030, -5.710e-3
-1.029, -5.728e-3
-1.028, -5.750e-3
-1.027, -5.765e-3
-1.026, -5.787e-3
-1.025, -5.805e-3
-1.024, -5.824e-3
-1.023, -5.845e-3
-1.022, -5.870e-3
-1.021, -5.895e-3
-1.020, -5.916e-3
-1.019, -5.935e-3
-1.018, -5.956e-3
-1.017, -5.972e-3
-1.016, -5.990e-3
-1.015, -6.009e-3
-1.014, -6.027e-3
-1.013, -6.046e-3
-1.012, -6.064e-3
-1.011, -6.080e-3
-1.010, -6.101e-3
-1.009, -6.120e-3
-1.008, -6.141e-3
-1.007, -6.163e-3
-1.006, -6.185e-3
-1.005, -6.203e-3
-1.004, -6.218e-3
-1.003, -6.237e-3
-1.002, -6.252e-3
-1.001, -6.268e-3
