Sept. 27, 2024   16:23:13
Cyclic Voltammetry
File: c:/users/guazh/data/20240922_batch_417_500/2024-09-22-exp464\exp464-2024-09-27t16_04_14-arkoh\exp464_cv_sr_100mvs_efin_-1900mv.bin
Data Source:  Experiment
Instrument Model:  CHI760E
Header: CV ran at 100 mVs
Note: 

Init E (V) = -1
High E (V) = -1
Low E (V) = -1.9
Final E (V) = -1
Init P/N = N
Scan Rate (V/s) = 0.1
Segment = 3
Sample Interval (V) = 0.001
Quiet Time (sec) = 2
Sensitivity (A/V) = 0.01
Comp R (ohm) = 2.2

Results:

Channel 1:
Segment 1:

Segment 2:

Segment 3:

Potential/V, Current/A

-1.000, -1.038e-6
-1.001, -9.590e-7
-1.002, -8.208e-7
-1.003, -9.688e-7
-1.004, -8.307e-7
-1.005, -6.827e-7
-1.006, -8.011e-7
-1.007, -8.011e-7
-1.008, -7.715e-7
-1.009, -8.406e-7
-1.010, -7.222e-7
-1.011, -5.939e-7
-1.012, -6.433e-7
-1.013, -6.630e-7
-1.014, -7.715e-7
-1.015, -6.926e-7
-1.016, -6.235e-7
-1.017, -5.545e-7
-1.018, -6.334e-7
-1.019, -6.433e-7
-1.020, -6.630e-7
-1.021, -6.038e-7
-1.022, -5.446e-7
-1.023, -4.854e-7
-1.024, -3.966e-7
-1.025, -4.163e-7
-1.026, -5.643e-7
-1.027, -4.361e-7
-1.028, -3.867e-7
-1.029, -5.841e-7
-1.030, -3.867e-7
-1.031, -3.078e-7
-1.032, -4.361e-7
-1.033, -2.980e-7
-1.034, -3.769e-7
-1.035, -3.275e-7
-1.036, -2.486e-7
-1.037, -1.598e-7
-1.038, -1.697e-7
-1.039, -2.289e-7
-1.040, -2.684e-7
-1.041, -2.092e-7
-1.042, -2.289e-7
-1.043, -1.204e-7
-1.044, -1.894e-7
-1.045, -2.486e-7
-1.046, -2.289e-7
-1.047, -1.204e-7
-1.048, -4.144e-8
-1.049, -3.157e-8
-1.050, -7.103e-8
-1.051, -1.302e-7
-1.052, -1.302e-7
-1.053, -6.117e-8
-1.054, -1.204e-7
-1.055, -5.130e-8
-1.056, 2.762e-8
-1.057, 6.709e-8
-1.058, 5.722e-8
-1.059, -1.204e-7
-1.060, -1.973e-9
-1.061, -6.117e-8
-1.062, 1.460e-7
-1.063, 9.669e-8
-1.064, -4.144e-8
-1.065, -1.204e-7
-1.066, -7.103e-8
-1.067, -2.171e-8
-1.068, 1.164e-7
-1.069, 5.722e-8
-1.070, 1.776e-8
-1.071, 1.756e-7
-1.072, 1.657e-7
-1.073, 8.682e-8
-1.074, 1.164e-7
-1.075, 2.052e-7
-1.076, 1.855e-7
-1.077, 2.348e-7
-1.078, 2.940e-7
-1.079, 2.151e-7
-1.080, 2.348e-7
-1.081, 1.855e-7
-1.082, 2.447e-7
-1.083, 2.545e-7
-1.084, 1.164e-7
-1.085, 2.545e-7
-1.086, 2.447e-7
-1.087, 2.151e-7
-1.088, 2.545e-7
-1.089, 2.940e-7
-1.090, 4.025e-7
-1.091, 4.025e-7
-1.092, 3.532e-7
-1.093, 3.039e-7
-1.094, 3.039e-7
-1.095, 2.841e-7
-1.096, 3.927e-7
-1.097, 3.433e-7
-1.098, 4.716e-7
-1.099, 2.151e-7
-1.100, 3.236e-7
-1.101, 4.124e-7
-1.102, 4.815e-7
-1.103, 5.111e-7
-1.104, 4.617e-7
-1.105, 4.420e-7
-1.106, 3.828e-7
-1.107, 5.012e-7
-1.108, 5.308e-7
-1.109, 5.209e-7
-1.110, 4.321e-7
-1.111, 5.703e-7
-1.112, 5.407e-7
-1.113, 5.308e-7
-1.114, 5.111e-7
-1.115, 4.223e-7
-1.116, 6.294e-7
-1.117, 7.182e-7
-1.118, 6.393e-7
-1.119, 5.703e-7
-1.120, 4.223e-7
-1.121, 5.111e-7
-1.122, 6.196e-7
-1.123, 5.801e-7
-1.124, 5.998e-7
-1.125, 6.196e-7
-1.126, 5.209e-7
-1.127, 7.281e-7
-1.128, 7.478e-7
-1.129, 6.886e-7
-1.130, 6.294e-7
-1.131, 6.294e-7
-1.132, 6.097e-7
-1.133, 6.590e-7
-1.134, 6.393e-7
-1.135, 7.084e-7
-1.136, 6.393e-7
-1.137, 7.182e-7
-1.138, 7.084e-7
-1.139, 7.281e-7
-1.140, 8.465e-7
-1.141, 8.564e-7
-1.142, 8.366e-7
-1.143, 7.577e-7
-1.144, 8.268e-7
-1.145, 7.577e-7
-1.146, 8.070e-7
-1.147, 7.972e-7
-1.148, 8.465e-7
-1.149, 7.478e-7
-1.150, 8.366e-7
-1.151, 8.662e-7
-1.152, 8.564e-7
-1.153, 9.452e-7
-1.154, 8.860e-7
-1.155, 7.972e-7
-1.156, 8.268e-7
-1.157, 8.958e-7
-1.158, 9.057e-7
-1.159, 7.577e-7
-1.160, 9.057e-7
-1.161, 8.958e-7
-1.162, 8.268e-7
-1.163, 8.761e-7
-1.164, 9.254e-7
-1.165, 9.550e-7
-1.166, 8.268e-7
-1.167, 1.024e-6
-1.168, 9.254e-7
-1.169, 9.649e-7
-1.170, 9.550e-7
-1.171, 1.083e-6
-1.172, 9.254e-7
-1.173, 9.353e-7
-1.174, 8.860e-7
-1.175, 9.057e-7
-1.176, 9.057e-7
-1.177, 9.945e-7
-1.178, 1.123e-6
-1.179, 1.142e-6
-1.180, 1.113e-6
-1.181, 9.945e-7
-1.182, 1.202e-6
-1.183, 1.004e-6
-1.184, 1.152e-6
-1.185, 1.142e-6
-1.186, 1.083e-6
-1.187, 1.073e-6
-1.188, 1.172e-6
-1.189, 1.024e-6
-1.190, 1.142e-6
-1.191, 1.133e-6
-1.192, 1.133e-6
-1.193, 1.212e-6
-1.194, 1.300e-6
-1.195, 1.142e-6
-1.196, 1.212e-6
-1.197, 1.133e-6
-1.198, 1.251e-6
-1.199, 1.271e-6
-1.200, 1.281e-6
-1.201, 1.202e-6
-1.202, 1.172e-6
-1.203, 1.281e-6
-1.204, 1.261e-6
-1.205, 1.261e-6
-1.206, 1.261e-6
-1.207, 1.409e-6
-1.208, 1.251e-6
-1.209, 1.142e-6
-1.210, 1.202e-6
-1.211, 1.290e-6
-1.212, 1.409e-6
-1.213, 1.281e-6
-1.214, 1.103e-6
-1.215, 1.241e-6
-1.216, 1.369e-6
-1.217, 1.300e-6
-1.218, 1.360e-6
-1.219, 1.330e-6
-1.220, 1.360e-6
-1.221, 1.330e-6
-1.222, 1.448e-6
-1.223, 1.379e-6
-1.224, 1.192e-6
-1.225, 1.389e-6
-1.226, 1.379e-6
-1.227, 1.468e-6
-1.228, 1.478e-6
-1.229, 1.488e-6
-1.230, 1.517e-6
-1.231, 1.438e-6
-1.232, 1.547e-6
-1.233, 1.537e-6
-1.234, 1.468e-6
-1.235, 1.586e-6
-1.236, 1.458e-6
-1.237, 1.429e-6
-1.238, 1.429e-6
-1.239, 1.478e-6
-1.240, 1.547e-6
-1.241, 1.567e-6
-1.242, 1.586e-6
-1.243, 1.675e-6
-1.244, 1.596e-6
-1.245, 1.557e-6
-1.246, 1.537e-6
-1.247, 1.577e-6
-1.248, 1.646e-6
-1.249, 1.616e-6
-1.250, 1.567e-6
-1.251, 1.577e-6
-1.252, 1.675e-6
-1.253, 1.725e-6
-1.254, 1.586e-6
-1.255, 1.646e-6
-1.256, 1.517e-6
-1.257, 1.774e-6
-1.258, 1.586e-6
-1.259, 1.567e-6
-1.260, 1.656e-6
-1.261, 1.636e-6
-1.262, 1.774e-6
-1.263, 1.715e-6
-1.264, 1.498e-6
-1.265, 1.725e-6
-1.266, 1.586e-6
-1.267, 1.922e-6
-1.268, 1.734e-6
-1.269, 1.626e-6
-1.270, 1.794e-6
-1.271, 1.705e-6
-1.272, 1.675e-6
-1.273, 1.764e-6
-1.274, 1.734e-6
-1.275, 1.784e-6
-1.276, 1.823e-6
-1.277, 1.863e-6
-1.278, 1.784e-6
-1.279, 1.774e-6
-1.280, 1.823e-6
-1.281, 2.021e-6
-1.282, 1.932e-6
-1.283, 1.863e-6
-1.284, 1.991e-6
-1.285, 1.794e-6
-1.286, 1.922e-6
-1.287, 2.030e-6
-1.288, 1.902e-6
-1.289, 1.853e-6
-1.290, 1.961e-6
-1.291, 1.695e-6
-1.292, 1.961e-6
-1.293, 2.030e-6
-1.294, 1.961e-6
-1.295, 1.991e-6
-1.296, 1.932e-6
-1.297, 1.961e-6
-1.298, 2.021e-6
-1.299, 1.853e-6
-1.300, 1.902e-6
-1.301, 1.902e-6
-1.302, 1.961e-6
-1.303, 2.119e-6
-1.304, 1.961e-6
-1.305, 1.942e-6
-1.306, 1.981e-6
-1.307, 2.021e-6
-1.308, 2.178e-6
-1.309, 2.001e-6
-1.310, 2.090e-6
-1.311, 2.080e-6
-1.312, 2.149e-6
-1.313, 2.208e-6
-1.314, 2.021e-6
-1.315, 2.287e-6
-1.316, 2.080e-6
-1.317, 2.060e-6
-1.318, 2.030e-6
-1.319, 2.080e-6
-1.320, 2.267e-6
-1.321, 2.139e-6
-1.322, 2.228e-6
-1.323, 2.139e-6
-1.324, 2.109e-6
-1.325, 2.326e-6
-1.326, 2.139e-6
-1.327, 2.238e-6
-1.328, 2.159e-6
-1.329, 2.188e-6
-1.330, 2.208e-6
-1.331, 2.119e-6
-1.332, 2.287e-6
-1.333, 2.297e-6
-1.334, 2.336e-6
-1.335, 2.386e-6
-1.336, 2.277e-6
-1.337, 2.425e-6
-1.338, 2.395e-6
-1.339, 2.218e-6
-1.340, 2.366e-6
-1.341, 2.238e-6
-1.342, 2.346e-6
-1.343, 2.307e-6
-1.344, 2.415e-6
-1.345, 2.425e-6
-1.346, 2.247e-6
-1.347, 2.465e-6
-1.348, 2.366e-6
-1.349, 2.317e-6
-1.350, 2.317e-6
-1.351, 2.534e-6
-1.352, 2.415e-6
-1.353, 2.504e-6
-1.354, 2.366e-6
-1.355, 2.445e-6
-1.356, 2.494e-6
-1.357, 2.573e-6
-1.358, 2.474e-6
-1.359, 2.573e-6
-1.360, 2.415e-6
-1.361, 2.494e-6
-1.362, 2.504e-6
-1.363, 2.504e-6
-1.364, 2.652e-6
-1.365, 2.484e-6
-1.366, 2.622e-6
-1.367, 2.622e-6
-1.368, 2.543e-6
-1.369, 2.524e-6
-1.370, 2.672e-6
-1.371, 2.593e-6
-1.372, 2.662e-6
-1.373, 2.741e-6
-1.374, 2.573e-6
-1.375, 2.622e-6
-1.376, 2.543e-6
-1.377, 2.573e-6
-1.378, 2.613e-6
-1.379, 2.642e-6
-1.380, 2.622e-6
-1.381, 2.691e-6
-1.382, 2.632e-6
-1.383, 2.751e-6
-1.384, 2.672e-6
-1.385, 2.810e-6
-1.386, 2.830e-6
-1.387, 2.849e-6
-1.388, 2.800e-6
-1.389, 2.790e-6
-1.390, 2.928e-6
-1.391, 2.830e-6
-1.392, 2.849e-6
-1.393, 2.928e-6
-1.394, 2.908e-6
-1.395, 2.810e-6
-1.396, 2.859e-6
-1.397, 2.928e-6
-1.398, 2.899e-6
-1.399, 2.889e-6
-1.400, 2.839e-6
-1.401, 2.849e-6
-1.402, 3.017e-6
-1.403, 2.968e-6
-1.404, 2.839e-6
-1.405, 2.928e-6
-1.406, 2.859e-6
-1.407, 3.007e-6
-1.408, 3.096e-6
-1.409, 3.165e-6
-1.410, 3.037e-6
-1.411, 3.096e-6
-1.412, 3.066e-6
-1.413, 3.007e-6
-1.414, 3.027e-6
-1.415, 3.056e-6
-1.416, 3.204e-6
-1.417, 3.244e-6
-1.418, 3.313e-6
-1.419, 3.096e-6
-1.420, 3.145e-6
-1.421, 3.214e-6
-1.422, 3.214e-6
-1.423, 3.313e-6
-1.424, 3.204e-6
-1.425, 3.204e-6
-1.426, 3.412e-6
-1.427, 3.382e-6
-1.428, 3.382e-6
-1.429, 3.352e-6
-1.430, 3.382e-6
-1.431, 3.382e-6
-1.432, 3.422e-6
-1.433, 3.352e-6
-1.434, 3.471e-6
-1.435, 3.599e-6
-1.436, 3.441e-6
-1.437, 3.599e-6
-1.438, 3.639e-6
-1.439, 3.579e-6
-1.440, 3.619e-6
-1.441, 3.698e-6
-1.442, 3.757e-6
-1.443, 3.678e-6
-1.444, 3.599e-6
-1.445, 3.678e-6
-1.446, 3.717e-6
-1.447, 3.777e-6
-1.448, 3.747e-6
-1.449, 3.717e-6
-1.450, 3.688e-6
-1.451, 3.737e-6
-1.452, 3.895e-6
-1.453, 3.856e-6
-1.454, 3.727e-6
-1.455, 3.787e-6
-1.456, 3.885e-6
-1.457, 3.865e-6
-1.458, 4.013e-6
-1.459, 4.004e-6
-1.460, 4.043e-6
-1.461, 4.023e-6
-1.462, 4.033e-6
-1.463, 4.142e-6
-1.464, 4.073e-6
-1.465, 4.211e-6
-1.466, 4.112e-6
-1.467, 4.092e-6
-1.468, 4.161e-6
-1.469, 4.211e-6
-1.470, 4.240e-6
-1.471, 4.309e-6
-1.472, 4.448e-6
-1.473, 4.448e-6
-1.474, 4.329e-6
-1.475, 4.536e-6
-1.476, 4.448e-6
-1.477, 4.388e-6
-1.478, 4.576e-6
-1.479, 4.418e-6
-1.480, 4.507e-6
-1.481, 4.526e-6
-1.482, 4.596e-6
-1.483, 4.566e-6
-1.484, 4.615e-6
-1.485, 4.803e-6
-1.486, 4.783e-6
-1.487, 4.921e-6
-1.488, 4.921e-6
-1.489, 4.753e-6
-1.490, 4.901e-6
-1.491, 4.901e-6
-1.492, 5.040e-6
-1.493, 5.089e-6
-1.494, 5.079e-6
-1.495, 5.178e-6
-1.496, 5.247e-6
-1.497, 5.197e-6
-1.498, 5.355e-6
-1.499, 5.217e-6
-1.500, 5.424e-6
-1.501, 5.414e-6
-1.502, 5.375e-6
-1.503, 5.543e-6
-1.504, 5.562e-6
-1.505, 5.483e-6
-1.506, 5.681e-6
-1.507, 5.701e-6
-1.508, 5.681e-6
-1.509, 5.651e-6
-1.510, 5.760e-6
-1.511, 5.878e-6
-1.512, 5.908e-6
-1.513, 6.095e-6
-1.514, 5.947e-6
-1.515, 6.164e-6
-1.516, 6.184e-6
-1.517, 6.223e-6
-1.518, 6.371e-6
-1.519, 6.253e-6
-1.520, 6.283e-6
-1.521, 6.500e-6
-1.522, 6.480e-6
-1.523, 6.746e-6
-1.524, 6.598e-6
-1.525, 6.707e-6
-1.526, 6.825e-6
-1.527, 6.776e-6
-1.528, 6.884e-6
-1.529, 6.934e-6
-1.530, 7.092e-6
-1.531, 7.111e-6
-1.532, 7.269e-6
-1.533, 7.358e-6
-1.534, 7.358e-6
-1.535, 7.486e-6
-1.536, 7.624e-6
-1.537, 7.832e-6
-1.538, 7.763e-6
-1.539, 7.802e-6
-1.540, 7.930e-6
-1.541, 8.009e-6
-1.542, 8.137e-6
-1.543, 8.374e-6
-1.544, 8.404e-6
-1.545, 8.493e-6
-1.546, 8.710e-6
-1.547, 8.759e-6
-1.548, 8.828e-6
-1.549, 8.966e-6
-1.550, 9.025e-6
-1.551, 9.193e-6
-1.552, 9.282e-6
-1.553, 9.430e-6
-1.554, 9.361e-6
-1.555, 9.627e-6
-1.556, 9.775e-6
-1.557, 9.874e-6
-1.558, 1.010e-5
-1.559, 1.012e-5
-1.560, 1.033e-5
-1.561, 1.057e-5
-1.562, 1.072e-5
-1.563, 1.084e-5
-1.564, 1.092e-5
-1.565, 1.098e-5
-1.566, 1.135e-5
-1.567, 1.139e-5
-1.568, 1.168e-5
-1.569, 1.169e-5
-1.570, 1.201e-5
-1.571, 1.210e-5
-1.572, 1.239e-5
-1.573, 1.265e-5
-1.574, 1.273e-5
-1.575, 1.308e-5
-1.576, 1.328e-5
-1.577, 1.351e-5
-1.578, 1.378e-5
-1.579, 1.388e-5
-1.580, 1.404e-5
-1.581, 1.435e-5
-1.582, 1.463e-5
-1.583, 1.496e-5
-1.584, 1.495e-5
-1.585, 1.546e-5
-1.586, 1.567e-5
-1.587, 1.598e-5
-1.588, 1.641e-5
-1.589, 1.658e-5
-1.590, 1.694e-5
-1.591, 1.725e-5
-1.592, 1.751e-5
-1.593, 1.795e-5
-1.594, 1.815e-5
-1.595, 1.852e-5
-1.596, 1.887e-5
-1.597, 1.937e-5
-1.598, 1.966e-5
-1.599, 1.989e-5
-1.600, 2.042e-5
-1.601, 2.095e-5
-1.602, 2.135e-5
-1.603, 2.170e-5
-1.604, 2.206e-5
-1.605, 2.253e-5
-1.606, 2.306e-5
-1.607, 2.350e-5
-1.608, 2.414e-5
-1.609, 2.447e-5
-1.610, 2.507e-5
-1.611, 2.557e-5
-1.612, 2.616e-5
-1.613, 2.672e-5
-1.614, 2.726e-5
-1.615, 2.785e-5
-1.616, 2.844e-5
-1.617, 2.903e-5
-1.618, 2.976e-5
-1.619, 3.035e-5
-1.620, 3.092e-5
-1.621, 3.182e-5
-1.622, 3.240e-5
-1.623, 3.318e-5
-1.624, 3.390e-5
-1.625, 3.471e-5
-1.626, 3.556e-5
-1.627, 3.636e-5
-1.628, 3.733e-5
-1.629, 3.798e-5
-1.630, 3.892e-5
-1.631, 3.992e-5
-1.632, 4.080e-5
-1.633, 4.190e-5
-1.634, 4.274e-5
-1.635, 4.378e-5
-1.636, 4.481e-5
-1.637, 4.593e-5
-1.638, 4.713e-5
-1.639, 4.816e-5
-1.640, 4.940e-5
-1.641, 5.065e-5
-1.642, 5.187e-5
-1.643, 5.319e-5
-1.644, 5.441e-5
-1.645, 5.572e-5
-1.646, 5.709e-5
-1.647, 5.846e-5
-1.648, 5.993e-5
-1.649, 6.143e-5
-1.650, 6.281e-5
-1.651, 6.463e-5
-1.652, 6.619e-5
-1.653, 6.793e-5
-1.654, 6.943e-5
-1.655, 7.126e-5
-1.656, 7.317e-5
-1.657, 7.492e-5
-1.658, 7.700e-5
-1.659, 7.878e-5
-1.660, 8.085e-5
-1.661, 8.299e-5
-1.662, 8.504e-5
-1.663, 8.730e-5
-1.664, 8.955e-5
-1.665, 9.184e-5
-1.666, 9.429e-5
-1.667, 9.669e-5
-1.668, 9.921e-5
-1.669, 1.018e-4
-1.670, 1.044e-4
-1.671, 1.071e-4
-1.672, 1.098e-4
-1.673, 1.128e-4
-1.674, 1.156e-4
-1.675, 1.188e-4
-1.676, 1.221e-4
-1.677, 1.252e-4
-1.678, 1.287e-4
-1.679, 1.319e-4
-1.680, 1.353e-4
-1.681, 1.390e-4
-1.682, 1.426e-4
-1.683, 1.466e-4
-1.684, 1.503e-4
-1.685, 1.545e-4
-1.686, 1.585e-4
-1.687, 1.627e-4
-1.688, 1.672e-4
-1.689, 1.715e-4
-1.690, 1.762e-4
-1.691, 1.810e-4
-1.692, 1.857e-4
-1.693, 1.908e-4
-1.694, 1.958e-4
-1.695, 2.009e-4
-1.696, 2.064e-4
-1.697, 2.119e-4
-1.698, 2.175e-4
-1.699, 2.231e-4
-1.700, 2.291e-4
-1.701, 2.351e-4
-1.702, 2.413e-4
-1.703, 2.479e-4
-1.704, 2.543e-4
-1.705, 2.611e-4
-1.706, 2.681e-4
-1.707, 2.751e-4
-1.708, 2.826e-4
-1.709, 2.899e-4
-1.710, 2.977e-4
-1.711, 3.055e-4
-1.712, 3.134e-4
-1.713, 3.218e-4
-1.714, 3.301e-4
-1.715, 3.389e-4
-1.716, 3.479e-4
-1.717, 3.570e-4
-1.718, 3.663e-4
-1.719, 3.757e-4
-1.720, 3.854e-4
-1.721, 3.955e-4
-1.722, 4.056e-4
-1.723, 4.162e-4
-1.724, 4.265e-4
-1.725, 4.374e-4
-1.726, 4.485e-4
-1.727, 4.600e-4
-1.728, 4.719e-4
-1.729, 4.837e-4
-1.730, 4.959e-4
-1.731, 5.084e-4
-1.732, 5.212e-4
-1.733, 5.344e-4
-1.734, 5.475e-4
-1.735, 5.611e-4
-1.736, 5.751e-4
-1.737, 5.893e-4
-1.738, 6.036e-4
-1.739, 6.181e-4
-1.740, 6.333e-4
-1.741, 6.485e-4
-1.742, 6.642e-4
-1.743, 6.804e-4
-1.744, 6.965e-4
-1.745, 7.131e-4
-1.746, 7.298e-4
-1.747, 7.470e-4
-1.748, 7.647e-4
-1.749, 7.823e-4
-1.750, 8.009e-4
-1.751, 8.194e-4
-1.752, 8.385e-4
-1.753, 8.580e-4
-1.754, 8.772e-4
-1.755, 8.972e-4
-1.756, 9.173e-4
-1.757, 9.378e-4
-1.758, 9.588e-4
-1.759, 9.797e-4
-1.760, 1.002e-3
-1.761, 1.023e-3
-1.762, 1.045e-3
-1.763, 1.068e-3
-1.764, 1.090e-3
-1.765, 1.114e-3
-1.766, 1.137e-3
-1.767, 1.161e-3
-1.768, 1.185e-3
-1.769, 1.209e-3
-1.770, 1.233e-3
-1.771, 1.258e-3
-1.772, 1.284e-3
-1.773, 1.310e-3
-1.774, 1.336e-3
-1.775, 1.363e-3
-1.776, 1.389e-3
-1.777, 1.417e-3
-1.778, 1.444e-3
-1.779, 1.472e-3
-1.780, 1.501e-3
-1.781, 1.529e-3
-1.782, 1.558e-3
-1.783, 1.588e-3
-1.784, 1.617e-3
-1.785, 1.648e-3
-1.786, 1.677e-3
-1.787, 1.708e-3
-1.788, 1.739e-3
-1.789, 1.770e-3
-1.790, 1.802e-3
-1.791, 1.833e-3
-1.792, 1.865e-3
-1.793, 1.898e-3
-1.794, 1.930e-3
-1.795, 1.964e-3
-1.796, 1.996e-3
-1.797, 2.030e-3
-1.798, 2.064e-3
-1.799, 2.098e-3
-1.800, 2.132e-3
-1.801, 2.167e-3
-1.802, 2.202e-3
-1.803, 2.237e-3
-1.804, 2.272e-3
-1.805, 2.308e-3
-1.806, 2.344e-3
-1.807, 2.381e-3
-1.808, 2.418e-3
-1.809, 2.454e-3
-1.810, 2.492e-3
-1.811, 2.529e-3
-1.812, 2.567e-3
-1.813, 2.605e-3
-1.814, 2.642e-3
-1.815, 2.682e-3
-1.816, 2.720e-3
-1.817, 2.759e-3
-1.818, 2.797e-3
-1.819, 2.836e-3
-1.820, 2.876e-3
-1.821, 2.915e-3
-1.822, 2.956e-3
-1.823, 2.997e-3
-1.824, 3.037e-3
-1.825, 3.078e-3
-1.826, 3.119e-3
-1.827, 3.160e-3
-1.828, 3.203e-3
-1.829, 3.244e-3
-1.830, 3.287e-3
-1.831, 3.328e-3
-1.832, 3.371e-3
-1.833, 3.413e-3
-1.834, 3.455e-3
-1.835, 3.498e-3
-1.836, 3.542e-3
-1.837, 3.585e-3
-1.838, 3.629e-3
-1.839, 3.672e-3
-1.840, 3.717e-3
-1.841, 3.760e-3
-1.842, 3.804e-3
-1.843, 3.849e-3
-1.844, 3.893e-3
-1.845, 3.938e-3
-1.846, 3.983e-3
-1.847, 4.029e-3
-1.848, 4.074e-3
-1.849, 4.118e-3
-1.850, 4.165e-3
-1.851, 4.209e-3
-1.852, 4.256e-3
-1.853, 4.302e-3
-1.854, 4.347e-3
-1.855, 4.393e-3
-1.856, 4.439e-3
-1.857, 4.486e-3
-1.858, 4.533e-3
-1.859, 4.578e-3
-1.860, 4.626e-3
-1.861, 4.672e-3
-1.862, 4.721e-3
-1.863, 4.768e-3
-1.864, 4.815e-3
-1.865, 4.864e-3
-1.866, 4.911e-3
-1.867, 4.960e-3
-1.868, 5.007e-3
-1.869, 5.056e-3
-1.870, 5.104e-3
-1.871, 5.152e-3
-1.872, 5.201e-3
-1.873, 5.249e-3
-1.874, 5.298e-3
-1.875, 5.347e-3
-1.876, 5.395e-3
-1.877, 5.445e-3
-1.878, 5.494e-3
-1.879, 5.543e-3
-1.880, 5.593e-3
-1.881, 5.643e-3
-1.882, 5.692e-3
-1.883, 5.743e-3
-1.884, 5.791e-3
-1.885, 5.842e-3
-1.886, 5.892e-3
-1.887, 5.942e-3
-1.888, 5.992e-3
-1.889, 6.041e-3
-1.890, 6.093e-3
-1.891, 6.142e-3
-1.892, 6.194e-3
-1.893, 6.244e-3
-1.894, 6.295e-3
-1.895, 6.347e-3
-1.896, 6.398e-3
-1.897, 6.449e-3
-1.898, 6.500e-3
-1.899, 6.551e-3
-1.900, 6.566e-3
-1.899, 6.535e-3
-1.898, 6.503e-3
-1.897, 6.470e-3
-1.896, 6.433e-3
-1.895, 6.400e-3
-1.894, 6.362e-3
-1.893, 6.325e-3
-1.892, 6.288e-3
-1.891, 6.250e-3
-1.890, 6.213e-3
-1.889, 6.174e-3
-1.888, 6.137e-3
-1.887, 6.099e-3
-1.886, 6.060e-3
-1.885, 6.022e-3
-1.884, 5.982e-3
-1.883, 5.944e-3
-1.882, 5.906e-3
-1.881, 5.866e-3
-1.880, 5.828e-3
-1.879, 5.787e-3
-1.878, 5.748e-3
-1.877, 5.712e-3
-1.876, 5.673e-3
-1.875, 5.635e-3
-1.874, 5.595e-3
-1.873, 5.555e-3
-1.872, 5.516e-3
-1.871, 5.476e-3
-1.870, 5.437e-3
-1.869, 5.397e-3
-1.868, 5.359e-3
-1.867, 5.320e-3
-1.866, 5.281e-3
-1.865, 5.241e-3
-1.864, 5.201e-3
-1.863, 5.162e-3
-1.862, 5.124e-3
-1.861, 5.083e-3
-1.860, 5.045e-3
-1.859, 5.005e-3
-1.858, 4.966e-3
-1.857, 4.927e-3
-1.856, 4.888e-3
-1.855, 4.850e-3
-1.854, 4.810e-3
-1.853, 4.772e-3
-1.852, 4.732e-3
-1.851, 4.693e-3
-1.850, 4.655e-3
-1.849, 4.616e-3
-1.848, 4.578e-3
-1.847, 4.541e-3
-1.846, 4.502e-3
-1.845, 4.465e-3
-1.844, 4.426e-3
-1.843, 4.389e-3
-1.842, 4.360e-3
-1.841, 4.323e-3
-1.840, 4.286e-3
-1.839, 4.248e-3
-1.838, 4.211e-3
-1.837, 4.174e-3
-1.836, 4.137e-3
-1.835, 4.101e-3
-1.834, 4.064e-3
-1.833, 4.027e-3
-1.832, 3.991e-3
-1.831, 3.953e-3
-1.830, 3.918e-3
-1.829, 3.881e-3
-1.828, 3.846e-3
-1.827, 3.810e-3
-1.826, 3.774e-3
-1.825, 3.740e-3
-1.824, 3.704e-3
-1.823, 3.669e-3
-1.822, 3.635e-3
-1.821, 3.599e-3
-1.820, 3.565e-3
-1.819, 3.530e-3
-1.818, 3.496e-3
-1.817, 3.462e-3
-1.816, 3.428e-3
-1.815, 3.395e-3
-1.814, 3.361e-3
-1.813, 3.328e-3
-1.812, 3.299e-3
-1.811, 3.265e-3
-1.810, 3.233e-3
-1.809, 3.199e-3
-1.808, 3.166e-3
-1.807, 3.134e-3
-1.806, 3.102e-3
-1.805, 3.072e-3
-1.804, 3.039e-3
-1.803, 3.008e-3
-1.802, 2.977e-3
-1.801, 2.945e-3
-1.800, 2.914e-3
-1.799, 2.883e-3
-1.798, 2.853e-3
-1.797, 2.822e-3
-1.796, 2.792e-3
-1.795, 2.762e-3
-1.794, 2.732e-3
-1.793, 2.702e-3
-1.792, 2.672e-3
-1.791, 2.642e-3
-1.790, 2.613e-3
-1.789, 2.584e-3
-1.788, 2.555e-3
-1.787, 2.526e-3
-1.786, 2.497e-3
-1.785, 2.469e-3
-1.784, 2.440e-3
-1.783, 2.412e-3
-1.782, 2.384e-3
-1.781, 2.356e-3
-1.780, 2.329e-3
-1.779, 2.301e-3
-1.778, 2.274e-3
-1.777, 2.247e-3
-1.776, 2.220e-3
-1.775, 2.194e-3
-1.774, 2.168e-3
-1.773, 2.142e-3
-1.772, 2.116e-3
-1.771, 2.090e-3
-1.770, 2.064e-3
-1.769, 2.038e-3
-1.768, 2.014e-3
-1.767, 1.989e-3
-1.766, 1.964e-3
-1.765, 1.940e-3
-1.764, 1.915e-3
-1.763, 1.891e-3
-1.762, 1.867e-3
-1.761, 1.843e-3
-1.760, 1.820e-3
-1.759, 1.796e-3
-1.758, 1.773e-3
-1.757, 1.750e-3
-1.756, 1.727e-3
-1.755, 1.705e-3
-1.754, 1.682e-3
-1.753, 1.660e-3
-1.752, 1.638e-3
-1.751, 1.616e-3
-1.750, 1.594e-3
-1.749, 1.572e-3
-1.748, 1.551e-3
-1.747, 1.530e-3
-1.746, 1.509e-3
-1.745, 1.489e-3
-1.744, 1.468e-3
-1.743, 1.448e-3
-1.742, 1.428e-3
-1.741, 1.408e-3
-1.740, 1.389e-3
-1.739, 1.370e-3
-1.738, 1.351e-3
-1.737, 1.331e-3
-1.736, 1.312e-3
-1.735, 1.294e-3
-1.734, 1.275e-3
-1.733, 1.257e-3
-1.732, 1.239e-3
-1.731, 1.221e-3
-1.730, 1.204e-3
-1.729, 1.187e-3
-1.728, 1.170e-3
-1.727, 1.153e-3
-1.726, 1.135e-3
-1.725, 1.119e-3
-1.724, 1.102e-3
-1.723, 1.086e-3
-1.722, 1.070e-3
-1.721, 1.053e-3
-1.720, 1.038e-3
-1.719, 1.022e-3
-1.718, 1.007e-3
-1.717, 9.916e-4
-1.716, 9.762e-4
-1.715, 9.614e-4
-1.714, 9.462e-4
-1.713, 9.318e-4
-1.712, 9.173e-4
-1.711, 9.028e-4
-1.710, 8.890e-4
-1.709, 8.749e-4
-1.708, 8.612e-4
-1.707, 8.475e-4
-1.706, 8.337e-4
-1.705, 8.206e-4
-1.704, 8.071e-4
-1.703, 7.941e-4
-1.702, 7.810e-4
-1.701, 7.684e-4
-1.700, 7.559e-4
-1.699, 7.435e-4
-1.698, 7.315e-4
-1.697, 7.196e-4
-1.696, 7.077e-4
-1.695, 6.961e-4
-1.694, 6.845e-4
-1.693, 6.730e-4
-1.692, 6.619e-4
-1.691, 6.507e-4
-1.690, 6.398e-4
-1.689, 6.288e-4
-1.688, 6.183e-4
-1.687, 6.080e-4
-1.686, 5.978e-4
-1.685, 5.877e-4
-1.684, 5.775e-4
-1.683, 5.677e-4
-1.682, 5.580e-4
-1.681, 5.483e-4
-1.680, 5.388e-4
-1.679, 5.294e-4
-1.678, 5.202e-4
-1.677, 5.110e-4
-1.676, 5.019e-4
-1.675, 4.933e-4
-1.674, 4.845e-4
-1.673, 4.759e-4
-1.672, 4.675e-4
-1.671, 4.591e-4
-1.670, 4.510e-4
-1.669, 4.429e-4
-1.668, 4.350e-4
-1.667, 4.272e-4
-1.666, 4.196e-4
-1.665, 4.121e-4
-1.664, 4.046e-4
-1.663, 3.974e-4
-1.662, 3.899e-4
-1.661, 3.830e-4
-1.660, 3.761e-4
-1.659, 3.690e-4
-1.658, 3.622e-4
-1.657, 3.555e-4
-1.656, 3.489e-4
-1.655, 3.425e-4
-1.654, 3.360e-4
-1.653, 3.298e-4
-1.652, 3.237e-4
-1.651, 3.174e-4
-1.650, 3.115e-4
-1.649, 3.056e-4
-1.648, 2.998e-4
-1.647, 2.942e-4
-1.646, 2.886e-4
-1.645, 2.831e-4
-1.644, 2.777e-4
-1.643, 2.724e-4
-1.642, 2.671e-4
-1.641, 2.620e-4
-1.640, 2.571e-4
-1.639, 2.519e-4
-1.638, 2.469e-4
-1.637, 2.423e-4
-1.636, 2.375e-4
-1.635, 2.329e-4
-1.634, 2.284e-4
-1.633, 2.240e-4
-1.632, 2.197e-4
-1.631, 2.153e-4
-1.630, 2.111e-4
-1.629, 2.069e-4
-1.628, 2.029e-4
-1.627, 1.989e-4
-1.626, 1.949e-4
-1.625, 1.912e-4
-1.624, 1.872e-4
-1.623, 1.836e-4
-1.622, 1.799e-4
-1.621, 1.763e-4
-1.620, 1.727e-4
-1.619, 1.692e-4
-1.618, 1.657e-4
-1.617, 1.624e-4
-1.616, 1.591e-4
-1.615, 1.559e-4
-1.614, 1.527e-4
-1.613, 1.495e-4
-1.612, 1.465e-4
-1.611, 1.434e-4
-1.610, 1.405e-4
-1.609, 1.378e-4
-1.608, 1.349e-4
-1.607, 1.322e-4
-1.606, 1.294e-4
-1.605, 1.268e-4
-1.604, 1.242e-4
-1.603, 1.214e-4
-1.602, 1.191e-4
-1.601, 1.164e-4
-1.600, 1.141e-4
-1.599, 1.117e-4
-1.598, 1.093e-4
-1.597, 1.072e-4
-1.596, 1.048e-4
-1.595, 1.025e-4
-1.594, 1.004e-4
-1.593, 9.832e-5
-1.592, 9.631e-5
-1.591, 9.425e-5
-1.590, 9.238e-5
-1.589, 9.040e-5
-1.588, 8.838e-5
-1.587, 8.646e-5
-1.586, 8.450e-5
-1.585, 8.290e-5
-1.584, 8.106e-5
-1.583, 7.923e-5
-1.582, 7.757e-5
-1.581, 7.593e-5
-1.580, 7.433e-5
-1.579, 7.266e-5
-1.578, 7.112e-5
-1.577, 6.956e-5
-1.576, 6.816e-5
-1.575, 6.661e-5
-1.574, 6.511e-5
-1.573, 6.384e-5
-1.572, 6.232e-5
-1.571, 6.083e-5
-1.570, 5.970e-5
-1.569, 5.831e-5
-1.568, 5.706e-5
-1.567, 5.590e-5
-1.566, 5.443e-5
-1.565, 5.343e-5
-1.564, 5.223e-5
-1.563, 5.097e-5
-1.562, 4.988e-5
-1.561, 4.855e-5
-1.560, 4.762e-5
-1.559, 4.656e-5
-1.558, 4.543e-5
-1.557, 4.447e-5
-1.556, 4.337e-5
-1.555, 4.253e-5
-1.554, 4.166e-5
-1.553, 4.058e-5
-1.552, 3.961e-5
-1.551, 3.867e-5
-1.550, 3.789e-5
-1.549, 3.698e-5
-1.548, 3.617e-5
-1.547, 3.531e-5
-1.546, 3.433e-5
-1.545, 3.374e-5
-1.544, 3.289e-5
-1.543, 3.223e-5
-1.542, 3.138e-5
-1.541, 3.057e-5
-1.540, 2.994e-5
-1.539, 2.921e-5
-1.538, 2.848e-5
-1.537, 2.791e-5
-1.536, 2.711e-5
-1.535, 2.662e-5
-1.534, 2.590e-5
-1.533, 2.528e-5
-1.532, 2.461e-5
-1.531, 2.410e-5
-1.530, 2.359e-5
-1.529, 2.297e-5
-1.528, 2.250e-5
-1.527, 2.195e-5
-1.526, 2.132e-5
-1.525, 2.095e-5
-1.524, 2.039e-5
-1.523, 1.977e-5
-1.522, 1.939e-5
-1.521, 1.880e-5
-1.520, 1.848e-5
-1.519, 1.811e-5
-1.518, 1.765e-5
-1.517, 1.717e-5
-1.516, 1.666e-5
-1.515, 1.636e-5
-1.514, 1.588e-5
-1.513, 1.545e-5
-1.512, 1.522e-5
-1.511, 1.465e-5
-1.510, 1.445e-5
-1.509, 1.405e-5
-1.508, 1.378e-5
-1.507, 1.334e-5
-1.506, 1.308e-5
-1.505, 1.276e-5
-1.504, 1.233e-5
-1.503, 1.215e-5
-1.502, 1.162e-5
-1.501, 1.136e-5
-1.500, 1.119e-5
-1.499, 1.105e-5
-1.498, 1.053e-5
-1.497, 1.039e-5
-1.496, 9.943e-6
-1.495, 9.785e-6
-1.494, 9.568e-6
-1.493, 9.302e-6
-1.492, 8.996e-6
-1.491, 8.808e-6
-1.490, 8.670e-6
-1.489, 8.433e-6
-1.488, 8.216e-6
-1.487, 7.940e-6
-1.486, 7.644e-6
-1.485, 7.486e-6
-1.484, 7.338e-6
-1.483, 7.131e-6
-1.482, 6.934e-6
-1.481, 6.727e-6
-1.480, 6.391e-6
-1.479, 6.322e-6
-1.478, 6.135e-6
-1.477, 5.967e-6
-1.476, 5.691e-6
-1.475, 5.651e-6
-1.474, 5.592e-6
-1.473, 5.345e-6
-1.472, 5.109e-6
-1.471, 4.901e-6
-1.470, 4.744e-6
-1.469, 4.872e-6
-1.468, 4.724e-6
-1.467, 4.487e-6
-1.466, 4.201e-6
-1.465, 4.152e-6
-1.464, 4.122e-6
-1.463, 3.954e-6
-1.462, 3.816e-6
-1.461, 3.629e-6
-1.460, 3.589e-6
-1.459, 3.639e-6
-1.458, 3.283e-6
-1.457, 3.155e-6
-1.456, 3.056e-6
-1.455, 2.978e-6
-1.454, 2.928e-6
-1.453, 2.869e-6
-1.452, 2.731e-6
-1.451, 2.593e-6
-1.450, 2.583e-6
-1.449, 2.603e-6
-1.448, 2.386e-6
-1.447, 2.267e-6
-1.446, 2.198e-6
-1.445, 2.001e-6
-1.444, 2.208e-6
-1.443, 1.833e-6
-1.442, 1.961e-6
-1.441, 1.902e-6
-1.440, 1.715e-6
-1.439, 1.764e-6
-1.438, 1.695e-6
-1.437, 1.527e-6
-1.436, 1.369e-6
-1.435, 1.429e-6
-1.434, 1.379e-6
-1.433, 1.212e-6
-1.432, 1.083e-6
-1.431, 9.649e-7
-1.430, 9.748e-7
-1.429, 1.142e-6
-1.428, 9.550e-7
-1.427, 9.353e-7
-1.426, 7.281e-7
-1.425, 6.590e-7
-1.424, 8.169e-7
-1.423, 7.084e-7
-1.422, 7.084e-7
-1.421, 4.321e-7
-1.420, 6.097e-7
-1.419, 4.815e-7
-1.418, 4.025e-7
-1.417, 4.420e-7
-1.416, 3.729e-7
-1.415, 2.841e-7
-1.414, 1.657e-7
-1.413, 1.460e-7
-1.412, 1.362e-7
-1.411, 7.695e-8
-1.410, 1.066e-7
-1.409, 1.559e-7
-1.408, 7.893e-9
-1.407, 4.736e-8
-1.406, -2.092e-7
-1.405, -2.092e-7
-1.404, -1.006e-7
-1.403, -1.697e-7
-1.402, -2.585e-7
-1.401, -1.993e-7
-1.400, -3.078e-7
-1.399, -1.598e-7
-1.398, -4.657e-7
-1.397, -3.867e-7
-1.396, -4.163e-7
-1.395, -4.854e-7
-1.394, -2.486e-7
-1.393, -6.729e-7
-1.392, -6.038e-7
-1.391, -5.742e-7
-1.390, -5.545e-7
-1.389, -5.150e-7
-1.388, -5.446e-7
-1.387, -6.038e-7
-1.386, -6.827e-7
-1.385, -7.419e-7
-1.384, -7.025e-7
-1.383, -8.208e-7
-1.382, -8.504e-7
-1.381, -9.590e-7
-1.380, -9.392e-7
-1.379, -7.518e-7
-1.378, -9.195e-7
-1.377, -8.998e-7
-1.376, -9.491e-7
-1.375, -1.058e-6
-1.374, -8.899e-7
-1.373, -1.028e-6
-1.372, -1.067e-6
-1.371, -1.058e-6
-1.370, -1.038e-6
-1.369, -1.087e-6
-1.368, -1.117e-6
-1.367, -9.984e-7
-1.366, -1.156e-6
-1.365, -1.077e-6
-1.364, -1.077e-6
-1.363, -1.166e-6
-1.362, -1.186e-6
-1.361, -1.196e-6
-1.360, -1.146e-6
-1.359, -9.195e-7
-1.358, -1.176e-6
-1.357, -1.245e-6
-1.356, -1.344e-6
-1.355, -1.324e-6
-1.354, -1.117e-6
-1.353, -1.245e-6
-1.352, -1.255e-6
-1.351, -1.334e-6
-1.350, -1.403e-6
-1.349, -1.206e-6
-1.348, -1.275e-6
-1.347, -1.285e-6
-1.346, -1.373e-6
-1.345, -1.354e-6
-1.344, -1.354e-6
-1.343, -1.393e-6
-1.342, -1.363e-6
-1.341, -1.561e-6
-1.340, -1.413e-6
-1.339, -1.294e-6
-1.338, -1.314e-6
-1.337, -1.354e-6
-1.336, -1.433e-6
-1.335, -1.492e-6
-1.334, -1.393e-6
-1.333, -1.433e-6
-1.332, -1.433e-6
-1.331, -1.571e-6
-1.330, -1.531e-6
-1.329, -1.472e-6
-1.328, -1.452e-6
-1.327, -1.511e-6
-1.326, -1.610e-6
-1.325, -1.610e-6
-1.324, -1.541e-6
-1.323, -1.640e-6
-1.322, -1.590e-6
-1.321, -1.551e-6
-1.320, -1.363e-6
-1.319, -1.581e-6
-1.318, -1.630e-6
-1.317, -1.541e-6
-1.316, -1.817e-6
-1.315, -1.748e-6
-1.314, -1.462e-6
-1.313, -1.719e-6
-1.312, -1.511e-6
-1.311, -1.709e-6
-1.310, -1.699e-6
-1.309, -1.719e-6
-1.308, -1.709e-6
-1.307, -1.600e-6
-1.306, -1.758e-6
-1.305, -1.729e-6
-1.304, -1.640e-6
-1.303, -1.620e-6
-1.302, -1.807e-6
-1.301, -1.827e-6
-1.300, -1.768e-6
-1.299, -1.650e-6
-1.298, -1.827e-6
-1.297, -1.837e-6
-1.296, -1.837e-6
-1.295, -1.906e-6
-1.294, -1.709e-6
-1.293, -1.886e-6
-1.292, -1.788e-6
-1.291, -1.926e-6
-1.290, -1.886e-6
-1.289, -1.679e-6
-1.288, -1.896e-6
-1.287, -1.827e-6
-1.286, -1.936e-6
-1.285, -1.867e-6
-1.284, -1.689e-6
-1.283, -1.936e-6
-1.282, -1.847e-6
-1.281, -1.867e-6
-1.280, -1.975e-6
-1.279, -1.847e-6
-1.278, -2.074e-6
-1.277, -1.768e-6
-1.276, -1.906e-6
-1.275, -1.877e-6
-1.274, -1.758e-6
-1.273, -1.955e-6
-1.272, -1.985e-6
-1.271, -1.955e-6
-1.270, -1.896e-6
-1.269, -1.857e-6
-1.268, -1.955e-6
-1.267, -1.955e-6
-1.266, -1.926e-6
-1.265, -2.015e-6
-1.264, -1.877e-6
-1.263, -2.064e-6
-1.262, -2.034e-6
-1.261, -2.034e-6
-1.260, -2.074e-6
-1.259, -1.985e-6
-1.258, -1.926e-6
-1.257, -1.837e-6
-1.256, -2.044e-6
-1.255, -1.936e-6
-1.254, -1.975e-6
-1.253, -2.133e-6
-1.252, -2.044e-6
-1.251, -2.261e-6
-1.250, -2.054e-6
-1.249, -1.965e-6
-1.248, -2.074e-6
-1.247, -1.926e-6
-1.246, -2.074e-6
-1.245, -1.946e-6
-1.244, -1.965e-6
-1.243, -2.113e-6
-1.242, -2.133e-6
-1.241, -2.182e-6
-1.240, -2.103e-6
-1.239, -2.084e-6
-1.238, -2.202e-6
-1.237, -2.074e-6
-1.236, -2.133e-6
-1.235, -2.103e-6
-1.234, -2.044e-6
-1.233, -2.172e-6
-1.232, -2.103e-6
-1.231, -2.103e-6
-1.230, -2.153e-6
-1.229, -2.133e-6
-1.228, -2.271e-6
-1.227, -2.192e-6
-1.226, -2.242e-6
-1.225, -2.222e-6
-1.224, -2.163e-6
-1.223, -2.291e-6
-1.222, -2.251e-6
-1.221, -2.222e-6
-1.220, -2.281e-6
-1.219, -2.143e-6
-1.218, -2.202e-6
-1.217, -2.320e-6
-1.216, -2.340e-6
-1.215, -2.320e-6
-1.214, -2.242e-6
-1.213, -2.330e-6
-1.212, -2.222e-6
-1.211, -2.281e-6
-1.210, -2.271e-6
-1.209, -2.163e-6
-1.208, -2.212e-6
-1.207, -2.123e-6
-1.206, -2.281e-6
-1.205, -2.370e-6
-1.204, -2.320e-6
-1.203, -2.350e-6
-1.202, -2.488e-6
-1.201, -2.370e-6
-1.200, -2.449e-6
-1.199, -2.311e-6
-1.198, -2.222e-6
-1.197, -2.380e-6
-1.196, -2.380e-6
-1.195, -2.380e-6
-1.194, -2.222e-6
-1.193, -2.340e-6
-1.192, -2.360e-6
-1.191, -2.518e-6
-1.190, -2.478e-6
-1.189, -2.380e-6
-1.188, -2.488e-6
-1.187, -2.301e-6
-1.186, -2.508e-6
-1.185, -2.350e-6
-1.184, -2.360e-6
-1.183, -2.449e-6
-1.182, -2.399e-6
-1.181, -2.419e-6
-1.180, -2.468e-6
-1.179, -2.380e-6
-1.178, -2.488e-6
-1.177, -2.557e-6
-1.176, -2.508e-6
-1.175, -2.557e-6
-1.174, -2.429e-6
-1.173, -2.518e-6
-1.172, -2.626e-6
-1.171, -2.656e-6
-1.170, -2.715e-6
-1.169, -2.498e-6
-1.168, -2.597e-6
-1.167, -2.528e-6
-1.166, -2.577e-6
-1.165, -2.577e-6
-1.164, -2.538e-6
-1.163, -2.547e-6
-1.162, -2.498e-6
-1.161, -2.626e-6
-1.160, -2.636e-6
-1.159, -2.577e-6
-1.158, -2.705e-6
-1.157, -2.676e-6
-1.156, -2.567e-6
-1.155, -2.656e-6
-1.154, -2.409e-6
-1.153, -2.636e-6
-1.152, -2.656e-6
-1.151, -2.764e-6
-1.150, -2.715e-6
-1.149, -2.626e-6
-1.148, -2.597e-6
-1.147, -2.686e-6
-1.146, -2.804e-6
-1.145, -2.715e-6
-1.144, -2.567e-6
-1.143, -2.695e-6
-1.142, -2.676e-6
-1.141, -2.774e-6
-1.140, -2.774e-6
-1.139, -2.725e-6
-1.138, -2.843e-6
-1.137, -2.804e-6
-1.136, -2.903e-6
-1.135, -2.922e-6
-1.134, -2.705e-6
-1.133, -2.932e-6
-1.132, -2.824e-6
-1.131, -2.794e-6
-1.130, -2.912e-6
-1.129, -2.843e-6
-1.128, -2.863e-6
-1.127, -2.912e-6
-1.126, -2.903e-6
-1.125, -2.922e-6
-1.124, -2.843e-6
-1.123, -2.883e-6
-1.122, -2.883e-6
-1.121, -2.883e-6
-1.120, -2.991e-6
-1.119, -2.942e-6
-1.118, -3.060e-6
-1.117, -2.903e-6
-1.116, -2.932e-6
-1.115, -3.011e-6
-1.114, -2.843e-6
-1.113, -2.863e-6
-1.112, -3.060e-6
-1.111, -2.962e-6
-1.110, -3.001e-6
-1.109, -2.843e-6
-1.108, -2.972e-6
-1.107, -3.041e-6
-1.106, -2.952e-6
-1.105, -3.120e-6
-1.104, -2.922e-6
-1.103, -3.060e-6
-1.102, -3.041e-6
-1.101, -3.159e-6
-1.100, -3.199e-6
-1.099, -3.051e-6
-1.098, -3.139e-6
-1.097, -3.011e-6
-1.096, -3.011e-6
-1.095, -3.139e-6
-1.094, -3.001e-6
-1.093, -3.090e-6
-1.092, -3.110e-6
-1.091, -3.149e-6
-1.090, -3.159e-6
-1.089, -3.041e-6
-1.088, -3.228e-6
-1.087, -3.238e-6
-1.086, -3.347e-6
-1.085, -3.129e-6
-1.084, -3.051e-6
-1.083, -3.090e-6
-1.082, -3.149e-6
-1.081, -3.248e-6
-1.080, -3.189e-6
-1.079, -3.041e-6
-1.078, -3.287e-6
-1.077, -3.258e-6
-1.076, -3.199e-6
-1.075, -3.317e-6
-1.074, -3.129e-6
-1.073, -3.287e-6
-1.072, -3.228e-6
-1.071, -3.238e-6
-1.070, -3.317e-6
-1.069, -3.238e-6
-1.068, -3.317e-6
-1.067, -3.248e-6
-1.066, -3.297e-6
-1.065, -3.258e-6
-1.064, -3.169e-6
-1.063, -3.297e-6
-1.062, -3.386e-6
-1.061, -3.287e-6
-1.060, -3.366e-6
-1.059, -3.199e-6
-1.058, -3.327e-6
-1.057, -3.406e-6
-1.056, -3.307e-6
-1.055, -3.455e-6
-1.054, -3.208e-6
-1.053, -3.406e-6
-1.052, -3.287e-6
-1.051, -3.327e-6
-1.050, -3.416e-6
-1.049, -3.366e-6
-1.048, -3.396e-6
-1.047, -3.416e-6
-1.046, -3.337e-6
-1.045, -3.544e-6
-1.044, -3.366e-6
-1.043, -3.603e-6
-1.042, -3.386e-6
-1.041, -3.337e-6
-1.040, -3.386e-6
-1.039, -3.396e-6
-1.038, -3.465e-6
-1.037, -3.504e-6
-1.036, -3.455e-6
-1.035, -3.445e-6
-1.034, -3.248e-6
-1.033, -3.583e-6
-1.032, -3.327e-6
-1.031, -3.386e-6
-1.030, -3.416e-6
-1.029, -3.317e-6
-1.028, -3.485e-6
-1.027, -3.465e-6
-1.026, -3.435e-6
-1.025, -3.307e-6
-1.024, -3.455e-6
-1.023, -3.445e-6
-1.022, -3.455e-6
-1.021, -3.593e-6
-1.020, -3.475e-6
-1.019, -3.396e-6
-1.018, -3.583e-6
-1.017, -3.534e-6
-1.016, -3.613e-6
-1.015, -3.524e-6
-1.014, -3.475e-6
-1.013, -3.583e-6
-1.012, -3.583e-6
-1.011, -3.573e-6
-1.010, -3.682e-6
-1.009, -3.327e-6
-1.008, -3.504e-6
-1.007, -3.514e-6
-1.006, -3.544e-6
-1.005, -3.544e-6
-1.004, -3.445e-6
-1.003, -3.603e-6
-1.002, -3.544e-6
-1.001, -3.514e-6
