Sept. 27, 2024   16:09:10
Cyclic Voltammetry
File: c:/users/guazh/data/20240922_batch_417_500/2024-09-22-exp464\exp464-2024-09-27t16_04_14-arkoh\exp464_cv_50mvs_efin_-1400mv.bin
Data Source:  Experiment
Instrument Model:  CHI760E
Header: CV ran at 50 mVs
Note: 

Init E (V) = -1
High E (V) = -1
Low E (V) = -1.4
Final E (V) = -1
Init P/N = N
Scan Rate (V/s) = 0.05
Segment = 7
Sample Interval (V) = 0.001
Quiet Time (sec) = 60
Sensitivity (A/V) = 0.001
Comp R (ohm) = 2.2

Results:

Channel 1:
Segment 1:

Segment 2:

Segment 3:

Segment 4:

Segment 5:

Segment 6:

Segment 7:

Potential/V, Current/A

-1.000, 1.066e-6
-1.001, 1.171e-6
-1.002, 1.139e-6
-1.003, 1.170e-6
-1.004, 1.224e-6
-1.005, 1.236e-6
-1.006, 1.212e-6
-1.007, 1.294e-6
-1.008, 1.267e-6
-1.009, 1.243e-6
-1.010, 1.307e-6
-1.011, 1.313e-6
-1.012, 1.296e-6
-1.013, 1.323e-6
-1.014, 1.334e-6
-1.015, 1.382e-6
-1.016, 1.331e-6
-1.017, 1.411e-6
-1.018, 1.347e-6
-1.019, 1.327e-6
-1.020, 1.410e-6
-1.021, 1.446e-6
-1.022, 1.402e-6
-1.023, 1.427e-6
-1.024, 1.481e-6
-1.025, 1.494e-6
-1.026, 1.468e-6
-1.027, 1.541e-6
-1.028, 1.520e-6
-1.029, 1.491e-6
-1.030, 1.537e-6
-1.031, 1.545e-6
-1.032, 1.555e-6
-1.033, 1.501e-6
-1.034, 1.588e-6
-1.035, 1.550e-6
-1.036, 1.562e-6
-1.037, 1.617e-6
-1.038, 1.607e-6
-1.039, 1.622e-6
-1.040, 1.582e-6
-1.041, 1.683e-6
-1.042, 1.613e-6
-1.043, 1.668e-6
-1.044, 1.664e-6
-1.045, 1.653e-6
-1.046, 1.649e-6
-1.047, 1.685e-6
-1.048, 1.723e-6
-1.049, 1.690e-6
-1.050, 1.686e-6
-1.051, 1.762e-6
-1.052, 1.734e-6
-1.053, 1.734e-6
-1.054, 1.756e-6
-1.055, 1.733e-6
-1.056, 1.744e-6
-1.057, 1.788e-6
-1.058, 1.795e-6
-1.059, 1.767e-6
-1.060, 1.778e-6
-1.061, 1.810e-6
-1.062, 1.820e-6
-1.063, 1.812e-6
-1.064, 1.877e-6
-1.065, 1.834e-6
-1.066, 1.847e-6
-1.067, 1.859e-6
-1.068, 1.887e-6
-1.069, 1.896e-6
-1.070, 1.907e-6
-1.071, 1.944e-6
-1.072, 1.910e-6
-1.073, 1.894e-6
-1.074, 1.943e-6
-1.075, 1.926e-6
-1.076, 1.929e-6
-1.077, 1.931e-6
-1.078, 1.994e-6
-1.079, 1.987e-6
-1.080, 2.004e-6
-1.081, 2.009e-6
-1.082, 1.966e-6
-1.083, 1.999e-6
-1.084, 2.029e-6
-1.085, 2.059e-6
-1.086, 2.058e-6
-1.087, 2.054e-6
-1.088, 2.072e-6
-1.089, 2.084e-6
-1.090, 2.089e-6
-1.091, 2.124e-6
-1.092, 2.113e-6
-1.093, 2.097e-6
-1.094, 2.152e-6
-1.095, 2.139e-6
-1.096, 2.140e-6
-1.097, 2.184e-6
-1.098, 2.186e-6
-1.099, 2.185e-6
-1.100, 2.177e-6
-1.101, 2.242e-6
-1.102, 2.192e-6
-1.103, 2.201e-6
-1.104, 2.230e-6
-1.105, 2.245e-6
-1.106, 2.252e-6
-1.107, 2.254e-6
-1.108, 2.286e-6
-1.109, 2.278e-6
-1.110, 2.285e-6
-1.111, 2.308e-6
-1.112, 2.316e-6
-1.113, 2.281e-6
-1.114, 2.366e-6
-1.115, 2.336e-6
-1.116, 2.398e-6
-1.117, 2.352e-6
-1.118, 2.397e-6
-1.119, 2.382e-6
-1.120, 2.362e-6
-1.121, 2.434e-6
-1.122, 2.343e-6
-1.123, 2.445e-6
-1.124, 2.435e-6
-1.125, 2.427e-6
-1.126, 2.418e-6
-1.127, 2.443e-6
-1.128, 2.491e-6
-1.129, 2.486e-6
-1.130, 2.454e-6
-1.131, 2.488e-6
-1.132, 2.479e-6
-1.133, 2.487e-6
-1.134, 2.536e-6
-1.135, 2.547e-6
-1.136, 2.578e-6
-1.137, 2.552e-6
-1.138, 2.579e-6
-1.139, 2.581e-6
-1.140, 2.560e-6
-1.141, 2.609e-6
-1.142, 2.613e-6
-1.143, 2.583e-6
-1.144, 2.626e-6
-1.145, 2.682e-6
-1.146, 2.694e-6
-1.147, 2.580e-6
-1.148, 2.676e-6
-1.149, 2.701e-6
-1.150, 2.650e-6
-1.151, 2.725e-6
-1.152, 2.703e-6
-1.153, 2.736e-6
-1.154, 2.680e-6
-1.155, 2.802e-6
-1.156, 2.781e-6
-1.157, 2.714e-6
-1.158, 2.777e-6
-1.159, 2.821e-6
-1.160, 2.763e-6
-1.161, 2.815e-6
-1.162, 2.797e-6
-1.163, 2.820e-6
-1.164, 2.814e-6
-1.165, 2.883e-6
-1.166, 2.877e-6
-1.167, 2.785e-6
-1.168, 2.839e-6
-1.169, 2.886e-6
-1.170, 2.873e-6
-1.171, 2.871e-6
-1.172, 2.876e-6
-1.173, 2.896e-6
-1.174, 2.860e-6
-1.175, 2.958e-6
-1.176, 2.959e-6
-1.177, 2.915e-6
-1.178, 2.949e-6
-1.179, 3.000e-6
-1.180, 2.950e-6
-1.181, 3.024e-6
-1.182, 2.968e-6
-1.183, 3.027e-6
-1.184, 3.019e-6
-1.185, 3.011e-6
-1.186, 3.039e-6
-1.187, 3.019e-6
-1.188, 2.990e-6
-1.189, 3.052e-6
-1.190, 3.113e-6
-1.191, 3.086e-6
-1.192, 3.043e-6
-1.193, 3.093e-6
-1.194, 3.111e-6
-1.195, 3.069e-6
-1.196, 3.151e-6
-1.197, 3.126e-6
-1.198, 3.121e-6
-1.199, 3.121e-6
-1.200, 3.205e-6
-1.201, 3.170e-6
-1.202, 3.121e-6
-1.203, 3.195e-6
-1.204, 3.214e-6
-1.205, 3.166e-6
-1.206, 3.206e-6
-1.207, 3.248e-6
-1.208, 3.168e-6
-1.209, 3.281e-6
-1.210, 3.285e-6
-1.211, 3.288e-6
-1.212, 3.211e-6
-1.213, 3.263e-6
-1.214, 3.296e-6
-1.215, 3.240e-6
-1.216, 3.306e-6
-1.217, 3.379e-6
-1.218, 3.289e-6
-1.219, 3.311e-6
-1.220, 3.364e-6
-1.221, 3.369e-6
-1.222, 3.351e-6
-1.223, 3.360e-6
-1.224, 3.395e-6
-1.225, 3.337e-6
-1.226, 3.396e-6
-1.227, 3.395e-6
-1.228, 3.407e-6
-1.229, 3.417e-6
-1.230, 3.434e-6
-1.231, 3.457e-6
-1.232, 3.412e-6
-1.233, 3.462e-6
-1.234, 3.499e-6
-1.235, 3.456e-6
-1.236, 3.444e-6
-1.237, 3.484e-6
-1.238, 3.522e-6
-1.239, 3.528e-6
-1.240, 3.557e-6
-1.241, 3.573e-6
-1.242, 3.544e-6
-1.243, 3.508e-6
-1.244, 3.604e-6
-1.245, 3.579e-6
-1.246, 3.577e-6
-1.247, 3.633e-6
-1.248, 3.601e-6
-1.249, 3.620e-6
-1.250, 3.644e-6
-1.251, 3.625e-6
-1.252, 3.565e-6
-1.253, 3.601e-6
-1.254, 3.664e-6
-1.255, 3.704e-6
-1.256, 3.667e-6
-1.257, 3.682e-6
-1.258, 3.658e-6
-1.259, 3.679e-6
-1.260, 3.737e-6
-1.261, 3.749e-6
-1.262, 3.728e-6
-1.263, 3.716e-6
-1.264, 3.745e-6
-1.265, 3.773e-6
-1.266, 3.763e-6
-1.267, 3.776e-6
-1.268, 3.801e-6
-1.269, 3.796e-6
-1.270, 3.875e-6
-1.271, 3.829e-6
-1.272, 3.818e-6
-1.273, 3.833e-6
-1.274, 3.888e-6
-1.275, 3.861e-6
-1.276, 3.863e-6
-1.277, 3.892e-6
-1.278, 3.871e-6
-1.279, 3.914e-6
-1.280, 3.924e-6
-1.281, 3.936e-6
-1.282, 3.919e-6
-1.283, 3.937e-6
-1.284, 3.942e-6
-1.285, 3.981e-6
-1.286, 3.932e-6
-1.287, 3.995e-6
-1.288, 3.979e-6
-1.289, 4.027e-6
-1.290, 4.018e-6
-1.291, 4.052e-6
-1.292, 3.997e-6
-1.293, 4.043e-6
-1.294, 4.114e-6
-1.295, 4.067e-6
-1.296, 4.082e-6
-1.297, 4.149e-6
-1.298, 4.143e-6
-1.299, 4.124e-6
-1.300, 4.167e-6
-1.301, 4.196e-6
-1.302, 4.174e-6
-1.303, 4.203e-6
-1.304, 4.180e-6
-1.305, 4.222e-6
-1.306, 4.239e-6
-1.307, 4.318e-6
-1.308, 4.206e-6
-1.309, 4.249e-6
-1.310, 4.322e-6
-1.311, 4.278e-6
-1.312, 4.271e-6
-1.313, 4.332e-6
-1.314, 4.347e-6
-1.315, 4.343e-6
-1.316, 4.342e-6
-1.317, 4.408e-6
-1.318, 4.377e-6
-1.319, 4.322e-6
-1.320, 4.370e-6
-1.321, 4.410e-6
-1.322, 4.332e-6
-1.323, 4.358e-6
-1.324, 4.364e-6
-1.325, 4.336e-6
-1.326, 4.365e-6
-1.327, 4.437e-6
-1.328, 4.407e-6
-1.329, 4.372e-6
-1.330, 4.403e-6
-1.331, 4.391e-6
-1.332, 4.396e-6
-1.333, 4.387e-6
-1.334, 4.436e-6
-1.335, 4.381e-6
-1.336, 4.368e-6
-1.337, 4.437e-6
-1.338, 4.419e-6
-1.339, 4.420e-6
-1.340, 4.426e-6
-1.341, 4.432e-6
-1.342, 4.443e-6
-1.343, 4.416e-6
-1.344, 4.499e-6
-1.345, 4.415e-6
-1.346, 4.456e-6
-1.347, 4.441e-6
-1.348, 4.440e-6
-1.349, 4.411e-6
-1.350, 4.471e-6
-1.351, 4.474e-6
-1.352, 4.505e-6
-1.353, 4.429e-6
-1.354, 4.486e-6
-1.355, 4.531e-6
-1.356, 4.473e-6
-1.357, 4.518e-6
-1.358, 4.455e-6
-1.359, 4.501e-6
-1.360, 4.487e-6
-1.361, 4.578e-6
-1.362, 4.508e-6
-1.363, 4.465e-6
-1.364, 4.561e-6
-1.365, 4.478e-6
-1.366, 4.521e-6
-1.367, 4.611e-6
-1.368, 4.522e-6
-1.369, 4.534e-6
-1.370, 4.559e-6
-1.371, 4.592e-6
-1.372, 4.564e-6
-1.373, 4.529e-6
-1.374, 4.637e-6
-1.375, 4.575e-6
-1.376, 4.572e-6
-1.377, 4.655e-6
-1.378, 4.628e-6
-1.379, 4.573e-6
-1.380, 4.648e-6
-1.381, 4.668e-6
-1.382, 4.647e-6
-1.383, 4.675e-6
-1.384, 4.661e-6
-1.385, 4.687e-6
-1.386, 4.640e-6
-1.387, 4.682e-6
-1.388, 4.708e-6
-1.389, 4.693e-6
-1.390, 4.753e-6
-1.391, 4.732e-6
-1.392, 4.706e-6
-1.393, 4.751e-6
-1.394, 4.756e-6
-1.395, 4.794e-6
-1.396, 4.772e-6
-1.397, 4.798e-6
-1.398, 4.820e-6
-1.399, 4.788e-6
-1.400, 4.523e-6
-1.399, 4.291e-6
-1.398, 4.164e-6
-1.397, 4.119e-6
-1.396, 4.069e-6
-1.395, 3.937e-6
-1.394, 3.864e-6
-1.393, 3.837e-6
-1.392, 3.778e-6
-1.391, 3.745e-6
-1.390, 3.681e-6
-1.389, 3.668e-6
-1.388, 3.574e-6
-1.387, 3.579e-6
-1.386, 3.532e-6
-1.385, 3.540e-6
-1.384, 3.440e-6
-1.383, 3.436e-6
-1.382, 3.378e-6
-1.381, 3.361e-6
-1.380, 3.343e-6
-1.379, 3.322e-6
-1.378, 3.245e-6
-1.377, 3.248e-6
-1.376, 3.188e-6
-1.375, 3.228e-6
-1.374, 3.125e-6
-1.373, 3.138e-6
-1.372, 3.097e-6
-1.371, 3.089e-6
-1.370, 3.031e-6
-1.369, 3.021e-6
-1.368, 3.026e-6
-1.367, 2.973e-6
-1.366, 2.920e-6
-1.365, 2.959e-6
-1.364, 2.922e-6
-1.363, 2.862e-6
-1.362, 2.911e-6
-1.361, 2.842e-6
-1.360, 2.816e-6
-1.359, 2.760e-6
-1.358, 2.833e-6
-1.357, 2.788e-6
-1.356, 2.757e-6
-1.355, 2.712e-6
-1.354, 2.712e-6
-1.353, 2.673e-6
-1.352, 2.663e-6
-1.351, 2.669e-6
-1.350, 2.648e-6
-1.349, 2.576e-6
-1.348, 2.636e-6
-1.347, 2.578e-6
-1.346, 2.529e-6
-1.345, 2.550e-6
-1.344, 2.531e-6
-1.343, 2.548e-6
-1.342, 2.521e-6
-1.341, 2.492e-6
-1.340, 2.527e-6
-1.339, 2.468e-6
-1.338, 2.461e-6
-1.337, 2.473e-6
-1.336, 2.438e-6
-1.335, 2.386e-6
-1.334, 2.400e-6
-1.333, 2.402e-6
-1.332, 2.322e-6
-1.331, 2.358e-6
-1.330, 2.339e-6
-1.329, 2.298e-6
-1.328, 2.310e-6
-1.327, 2.298e-6
-1.326, 2.280e-6
-1.325, 2.235e-6
-1.324, 2.252e-6
-1.323, 2.295e-6
-1.322, 2.202e-6
-1.321, 2.283e-6
-1.320, 2.286e-6
-1.319, 2.227e-6
-1.318, 2.184e-6
-1.317, 2.187e-6
-1.316, 2.167e-6
-1.315, 2.131e-6
-1.314, 2.157e-6
-1.313, 2.173e-6
-1.312, 2.105e-6
-1.311, 2.080e-6
-1.310, 2.137e-6
-1.309, 2.142e-6
-1.308, 2.030e-6
-1.307, 2.075e-6
-1.306, 2.033e-6
-1.305, 2.056e-6
-1.304, 2.021e-6
-1.303, 2.044e-6
-1.302, 1.960e-6
-1.301, 2.004e-6
-1.300, 2.043e-6
-1.299, 2.045e-6
-1.298, 1.945e-6
-1.297, 1.955e-6
-1.296, 1.947e-6
-1.295, 1.962e-6
-1.294, 1.959e-6
-1.293, 1.960e-6
-1.292, 1.893e-6
-1.291, 1.934e-6
-1.290, 1.927e-6
-1.289, 1.906e-6
-1.288, 1.864e-6
-1.287, 1.881e-6
-1.286, 1.880e-6
-1.285, 1.857e-6
-1.284, 1.875e-6
-1.283, 1.871e-6
-1.282, 1.768e-6
-1.281, 1.788e-6
-1.280, 1.841e-6
-1.279, 1.761e-6
-1.278, 1.774e-6
-1.277, 1.816e-6
-1.276, 1.763e-6
-1.275, 1.710e-6
-1.274, 1.793e-6
-1.273, 1.794e-6
-1.272, 1.720e-6
-1.271, 1.701e-6
-1.270, 1.732e-6
-1.269, 1.717e-6
-1.268, 1.645e-6
-1.267, 1.671e-6
-1.266, 1.691e-6
-1.265, 1.642e-6
-1.264, 1.677e-6
-1.263, 1.674e-6
-1.262, 1.601e-6
-1.261, 1.651e-6
-1.260, 1.688e-6
-1.259, 1.636e-6
-1.258, 1.613e-6
-1.257, 1.644e-6
-1.256, 1.655e-6
-1.255, 1.586e-6
-1.254, 1.629e-6
-1.253, 1.625e-6
-1.252, 1.561e-6
-1.251, 1.494e-6
-1.250, 1.585e-6
-1.249, 1.527e-6
-1.248, 1.494e-6
-1.247, 1.571e-6
-1.246, 1.487e-6
-1.245, 1.440e-6
-1.244, 1.513e-6
-1.243, 1.513e-6
-1.242, 1.441e-6
-1.241, 1.419e-6
-1.240, 1.492e-6
-1.239, 1.442e-6
-1.238, 1.390e-6
-1.237, 1.467e-6
-1.236, 1.443e-6
-1.235, 1.382e-6
-1.234, 1.438e-6
-1.233, 1.420e-6
-1.232, 1.370e-6
-1.231, 1.372e-6
-1.230, 1.368e-6
-1.229, 1.387e-6
-1.228, 1.313e-6
-1.227, 1.315e-6
-1.226, 1.329e-6
-1.225, 1.303e-6
-1.224, 1.360e-6
-1.223, 1.309e-6
-1.222, 1.285e-6
-1.221, 1.288e-6
-1.220, 1.262e-6
-1.219, 1.279e-6
-1.218, 1.261e-6
-1.217, 1.231e-6
-1.216, 1.289e-6
-1.215, 1.251e-6
-1.214, 1.234e-6
-1.213, 1.290e-6
-1.212, 1.224e-6
-1.211, 1.192e-6
-1.210, 1.226e-6
-1.209, 1.245e-6
-1.208, 1.197e-6
-1.207, 1.182e-6
-1.206, 1.192e-6
-1.205, 1.179e-6
-1.204, 1.201e-6
-1.203, 1.183e-6
-1.202, 1.144e-6
-1.201, 1.096e-6
-1.200, 1.126e-6
-1.199, 1.159e-6
-1.198, 1.141e-6
-1.197, 1.141e-6
-1.196, 1.146e-6
-1.195, 1.122e-6
-1.194, 1.087e-6
-1.193, 1.070e-6
-1.192, 1.077e-6
-1.191, 1.060e-6
-1.190, 1.080e-6
-1.189, 1.138e-6
-1.188, 1.082e-6
-1.187, 1.055e-6
-1.186, 1.059e-6
-1.185, 1.001e-6
-1.184, 1.040e-6
-1.183, 1.050e-6
-1.182, 1.027e-6
-1.181, 1.027e-6
-1.180, 9.884e-7
-1.179, 1.006e-6
-1.178, 9.746e-7
-1.177, 1.035e-6
-1.176, 1.058e-6
-1.175, 9.844e-7
-1.174, 9.489e-7
-1.173, 9.864e-7
-1.172, 9.716e-7
-1.171, 9.479e-7
-1.170, 9.696e-7
-1.169, 9.894e-7
-1.168, 9.223e-7
-1.167, 9.321e-7
-1.166, 9.390e-7
-1.165, 9.420e-7
-1.164, 9.025e-7
-1.163, 8.789e-7
-1.162, 9.509e-7
-1.161, 8.917e-7
-1.160, 9.144e-7
-1.159, 9.134e-7
-1.158, 9.272e-7
-1.157, 8.483e-7
-1.156, 8.572e-7
-1.155, 9.045e-7
-1.154, 8.581e-7
-1.153, 8.572e-7
-1.152, 8.572e-7
-1.151, 8.325e-7
-1.150, 7.841e-7
-1.149, 9.183e-7
-1.148, 8.128e-7
-1.147, 8.276e-7
-1.146, 8.167e-7
-1.145, 7.999e-7
-1.144, 7.881e-7
-1.143, 7.871e-7
-1.142, 8.493e-7
-1.141, 8.039e-7
-1.140, 7.684e-7
-1.139, 7.989e-7
-1.138, 8.167e-7
-1.137, 7.506e-7
-1.136, 7.565e-7
-1.135, 8.019e-7
-1.134, 7.496e-7
-1.133, 7.467e-7
-1.132, 8.019e-7
-1.131, 6.796e-7
-1.130, 7.131e-7
-1.129, 7.476e-7
-1.128, 7.703e-7
-1.127, 6.973e-7
-1.126, 6.510e-7
-1.125, 7.467e-7
-1.124, 6.707e-7
-1.123, 6.450e-7
-1.122, 6.855e-7
-1.121, 6.539e-7
-1.120, 6.371e-7
-1.119, 6.608e-7
-1.118, 6.411e-7
-1.117, 6.559e-7
-1.116, 6.006e-7
-1.115, 6.371e-7
-1.114, 6.391e-7
-1.113, 6.243e-7
-1.112, 6.184e-7
-1.111, 5.987e-7
-1.110, 6.223e-7
-1.109, 5.681e-7
-1.108, 6.362e-7
-1.107, 5.888e-7
-1.106, 5.631e-7
-1.105, 5.720e-7
-1.104, 5.957e-7
-1.103, 5.868e-7
-1.102, 5.276e-7
-1.101, 5.641e-7
-1.100, 5.424e-7
-1.099, 5.109e-7
-1.098, 5.395e-7
-1.097, 5.770e-7
-1.096, 5.286e-7
-1.095, 4.901e-7
-1.094, 5.247e-7
-1.093, 5.286e-7
-1.092, 4.487e-7
-1.091, 4.931e-7
-1.090, 5.266e-7
-1.089, 4.536e-7
-1.088, 4.270e-7
-1.087, 4.773e-7
-1.086, 4.576e-7
-1.085, 4.704e-7
-1.084, 5.079e-7
-1.083, 4.734e-7
-1.082, 4.290e-7
-1.081, 4.132e-7
-1.080, 4.605e-7
-1.079, 3.935e-7
-1.078, 3.905e-7
-1.077, 4.152e-7
-1.076, 3.875e-7
-1.075, 3.984e-7
-1.074, 4.221e-7
-1.073, 4.221e-7
-1.072, 3.777e-7
-1.071, 3.471e-7
-1.070, 3.648e-7
-1.069, 3.589e-7
-1.068, 3.402e-7
-1.067, 3.500e-7
-1.066, 3.925e-7
-1.065, 3.589e-7
-1.064, 3.195e-7
-1.063, 3.471e-7
-1.062, 3.422e-7
-1.061, 2.711e-7
-1.060, 3.254e-7
-1.059, 3.629e-7
-1.058, 3.422e-7
-1.057, 2.494e-7
-1.056, 3.224e-7
-1.055, 3.195e-7
-1.054, 2.366e-7
-1.053, 2.899e-7
-1.052, 3.007e-7
-1.051, 2.731e-7
-1.050, 2.346e-7
-1.049, 3.145e-7
-1.048, 3.086e-7
-1.047, 2.376e-7
-1.046, 2.800e-7
-1.045, 2.839e-7
-1.044, 2.218e-7
-1.043, 2.287e-7
-1.042, 2.376e-7
-1.041, 2.405e-7
-1.040, 1.567e-7
-1.039, 2.721e-7
-1.038, 2.178e-7
-1.037, 1.596e-7
-1.036, 1.843e-7
-1.035, 1.932e-7
-1.034, 1.863e-7
-1.033, 1.429e-7
-1.032, 2.011e-7
-1.031, 1.951e-7
-1.030, 1.577e-7
-1.029, 1.557e-7
-1.028, 1.853e-7
-1.027, 1.162e-7
-1.026, 9.649e-8
-1.025, 1.784e-7
-1.024, 1.271e-7
-1.023, 1.162e-7
-1.022, 5.998e-8
-1.021, 1.054e-7
-1.020, 1.330e-7
-1.019, 9.748e-8
-1.018, 1.014e-7
-1.017, 9.353e-8
-1.016, 8.761e-8
-1.015, 7.478e-8
-1.014, 1.014e-7
-1.013, 6.393e-8
-1.012, 1.460e-8
-1.011, 9.550e-8
-1.010, 8.169e-8
-1.009, 1.559e-8
-1.008, 8.682e-9
-1.007, 2.052e-8
-1.006, -1.204e-8
-1.005, 2.762e-9
-1.004, 1.756e-8
-1.003, 7.695e-9
-1.002, -6.630e-8
-1.001, -5.130e-9
-1.000, 1.300e-7
-1.001, 1.537e-7
-1.002, 2.139e-7
-1.003, 2.869e-7
-1.004, 3.126e-7
-1.005, 2.701e-7
-1.006, 4.369e-7
-1.007, 3.777e-7
-1.008, 3.481e-7
-1.009, 4.102e-7
-1.010, 4.625e-7
-1.011, 4.369e-7
-1.012, 4.684e-7
-1.013, 4.783e-7
-1.014, 5.089e-7
-1.015, 5.128e-7
-1.016, 5.345e-7
-1.017, 5.987e-7
-1.018, 5.454e-7
-1.019, 5.474e-7
-1.020, 6.510e-7
-1.021, 6.440e-7
-1.022, 5.977e-7
-1.023, 6.233e-7
-1.024, 6.855e-7
-1.025, 7.052e-7
-1.026, 7.141e-7
-1.027, 7.575e-7
-1.028, 7.388e-7
-1.029, 7.486e-7
-1.030, 7.526e-7
-1.031, 8.414e-7
-1.032, 8.088e-7
-1.033, 7.802e-7
-1.034, 8.177e-7
-1.035, 8.631e-7
-1.036, 8.414e-7
-1.037, 8.088e-7
-1.038, 8.650e-7
-1.039, 8.759e-7
-1.040, 8.700e-7
-1.041, 9.173e-7
-1.042, 9.390e-7
-1.043, 9.016e-7
-1.044, 8.848e-7
-1.045, 9.716e-7
-1.046, 9.647e-7
-1.047, 9.864e-7
-1.048, 9.726e-7
-1.049, 9.923e-7
-1.050, 1.031e-6
-1.051, 1.012e-6
-1.052, 1.075e-6
-1.053, 1.050e-6
-1.054, 1.019e-6
-1.055, 1.052e-6
-1.056, 1.152e-6
-1.057, 1.103e-6
-1.058, 1.080e-6
-1.059, 1.144e-6
-1.060, 1.156e-6
-1.061, 1.128e-6
-1.062, 1.160e-6
-1.063, 1.222e-6
-1.064, 1.193e-6
-1.065, 1.148e-6
-1.066, 1.252e-6
-1.067, 1.212e-6
-1.068, 1.182e-6
-1.069, 1.201e-6
-1.070, 1.281e-6
-1.071, 1.260e-6
-1.072, 1.222e-6
-1.073, 1.220e-6
-1.074, 1.273e-6
-1.075, 1.274e-6
-1.076, 1.252e-6
-1.077, 1.304e-6
-1.078, 1.336e-6
-1.079, 1.292e-6
-1.080, 1.313e-6
-1.081, 1.401e-6
-1.082, 1.347e-6
-1.083, 1.308e-6
-1.084, 1.370e-6
-1.085, 1.396e-6
-1.086, 1.382e-6
-1.087, 1.408e-6
-1.088, 1.433e-6
-1.089, 1.413e-6
-1.090, 1.424e-6
-1.091, 1.410e-6
-1.092, 1.494e-6
-1.093, 1.496e-6
-1.094, 1.462e-6
-1.095, 1.459e-6
-1.096, 1.465e-6
-1.097, 1.436e-6
-1.098, 1.524e-6
-1.099, 1.506e-6
-1.100, 1.540e-6
-1.101, 1.494e-6
-1.102, 1.554e-6
-1.103, 1.582e-6
-1.104, 1.526e-6
-1.105, 1.541e-6
-1.106, 1.568e-6
-1.107, 1.556e-6
-1.108, 1.567e-6
-1.109, 1.574e-6
-1.110, 1.635e-6
-1.111, 1.576e-6
-1.112, 1.640e-6
-1.113, 1.638e-6
-1.114, 1.605e-6
-1.115, 1.647e-6
-1.116, 1.684e-6
-1.117, 1.627e-6
-1.118, 1.618e-6
-1.119, 1.645e-6
-1.120, 1.712e-6
-1.121, 1.644e-6
-1.122, 1.702e-6
-1.123, 1.706e-6
-1.124, 1.695e-6
-1.125, 1.718e-6
-1.126, 1.789e-6
-1.127, 1.755e-6
-1.128, 1.731e-6
-1.129, 1.724e-6
-1.130, 1.780e-6
-1.131, 1.803e-6
-1.132, 1.779e-6
-1.133, 1.776e-6
-1.134, 1.767e-6
-1.135, 1.815e-6
-1.136, 1.778e-6
-1.137, 1.816e-6
-1.138, 1.819e-6
-1.139, 1.774e-6
-1.140, 1.799e-6
-1.141, 1.860e-6
-1.142, 1.891e-6
-1.143, 1.834e-6
-1.144, 1.863e-6
-1.145, 1.888e-6
-1.146, 1.853e-6
-1.147, 1.915e-6
-1.148, 1.909e-6
-1.149, 1.934e-6
-1.150, 1.881e-6
-1.151, 1.895e-6
-1.152, 1.929e-6
-1.153, 1.930e-6
-1.154, 1.905e-6
-1.155, 1.970e-6
-1.156, 1.983e-6
-1.157, 1.954e-6
-1.158, 1.953e-6
-1.159, 1.986e-6
-1.160, 1.988e-6
-1.161, 1.930e-6
-1.162, 2.025e-6
-1.163, 2.058e-6
-1.164, 2.027e-6
-1.165, 2.007e-6
-1.166, 2.031e-6
-1.167, 2.028e-6
-1.168, 2.025e-6
-1.169, 2.070e-6
-1.170, 2.075e-6
-1.171, 2.077e-6
-1.172, 2.064e-6
-1.173, 2.102e-6
-1.174, 2.113e-6
-1.175, 2.080e-6
-1.176, 2.072e-6
-1.177, 2.116e-6
-1.178, 2.117e-6
-1.179, 2.102e-6
-1.180, 2.131e-6
-1.181, 2.125e-6
-1.182, 2.154e-6
-1.183, 2.095e-6
-1.184, 2.189e-6
-1.185, 2.156e-6
-1.186, 2.121e-6
-1.187, 2.177e-6
-1.188, 2.216e-6
-1.189, 2.151e-6
-1.190, 2.198e-6
-1.191, 2.262e-6
-1.192, 2.235e-6
-1.193, 2.191e-6
-1.194, 2.284e-6
-1.195, 2.263e-6
-1.196, 2.253e-6
-1.197, 2.264e-6
-1.198, 2.288e-6
-1.199, 2.276e-6
-1.200, 2.283e-6
-1.201, 2.302e-6
-1.202, 2.325e-6
-1.203, 2.264e-6
-1.204, 2.327e-6
-1.205, 2.330e-6
-1.206, 2.310e-6
-1.207, 2.324e-6
-1.208, 2.363e-6
-1.209, 2.332e-6
-1.210, 2.360e-6
-1.211, 2.358e-6
-1.212, 2.343e-6
-1.213, 2.322e-6
-1.214, 2.354e-6
-1.215, 2.387e-6
-1.216, 2.414e-6
-1.217, 2.320e-6
-1.218, 2.448e-6
-1.219, 2.400e-6
-1.220, 2.413e-6
-1.221, 2.413e-6
-1.222, 2.427e-6
-1.223, 2.484e-6
-1.224, 2.399e-6
-1.225, 2.466e-6
-1.226, 2.520e-6
-1.227, 2.448e-6
-1.228, 2.471e-6
-1.229, 2.512e-6
-1.230, 2.518e-6
-1.231, 2.487e-6
-1.232, 2.513e-6
-1.233, 2.504e-6
-1.234, 2.490e-6
-1.235, 2.483e-6
-1.236, 2.560e-6
-1.237, 2.489e-6
-1.238, 2.507e-6
-1.239, 2.534e-6
-1.240, 2.558e-6
-1.241, 2.540e-6
-1.242, 2.540e-6
-1.243, 2.568e-6
-1.244, 2.587e-6
-1.245, 2.555e-6
-1.246, 2.632e-6
-1.247, 2.621e-6
-1.248, 2.609e-6
-1.249, 2.534e-6
-1.250, 2.663e-6
-1.251, 2.629e-6
-1.252, 2.599e-6
-1.253, 2.638e-6
-1.254, 2.619e-6
-1.255, 2.668e-6
-1.256, 2.651e-6
-1.257, 2.638e-6
-1.258, 2.718e-6
-1.259, 2.628e-6
-1.260, 2.707e-6
-1.261, 2.718e-6
-1.262, 2.694e-6
-1.263, 2.653e-6
-1.264, 2.743e-6
-1.265, 2.692e-6
-1.266, 2.688e-6
-1.267, 2.754e-6
-1.268, 2.766e-6
-1.269, 2.751e-6
-1.270, 2.752e-6
-1.271, 2.826e-6
-1.272, 2.767e-6
-1.273, 2.749e-6
-1.274, 2.750e-6
-1.275, 2.804e-6
-1.276, 2.809e-6
-1.277, 2.778e-6
-1.278, 2.793e-6
-1.279, 2.806e-6
-1.280, 2.819e-6
-1.281, 2.819e-6
-1.282, 2.895e-6
-1.283, 2.899e-6
-1.284, 2.828e-6
-1.285, 2.860e-6
-1.286, 2.903e-6
-1.287, 2.890e-6
-1.288, 2.889e-6
-1.289, 2.897e-6
-1.290, 2.949e-6
-1.291, 2.874e-6
-1.292, 2.906e-6
-1.293, 2.958e-6
-1.294, 2.923e-6
-1.295, 2.889e-6
-1.296, 2.991e-6
-1.297, 2.975e-6
-1.298, 2.939e-6
-1.299, 2.969e-6
-1.300, 3.017e-6
-1.301, 2.984e-6
-1.302, 2.970e-6
-1.303, 3.017e-6
-1.304, 2.996e-6
-1.305, 3.015e-6
-1.306, 3.048e-6
-1.307, 3.033e-6
-1.308, 3.063e-6
-1.309, 3.006e-6
-1.310, 3.066e-6
-1.311, 3.043e-6
-1.312, 3.110e-6
-1.313, 3.080e-6
-1.314, 3.070e-6
-1.315, 3.077e-6
-1.316, 3.044e-6
-1.317, 3.144e-6
-1.318, 3.098e-6
-1.319, 3.082e-6
-1.320, 3.103e-6
-1.321, 3.165e-6
-1.322, 3.092e-6
-1.323, 3.169e-6
-1.324, 3.156e-6
-1.325, 3.157e-6
-1.326, 3.140e-6
-1.327, 3.227e-6
-1.328, 3.185e-6
-1.329, 3.186e-6
-1.330, 3.199e-6
-1.331, 3.241e-6
-1.332, 3.246e-6
-1.333, 3.169e-6
-1.334, 3.242e-6
-1.335, 3.243e-6
-1.336, 3.216e-6
-1.337, 3.214e-6
-1.338, 3.271e-6
-1.339, 3.262e-6
-1.340, 3.226e-6
-1.341, 3.259e-6
-1.342, 3.308e-6
-1.343, 3.284e-6
-1.344, 3.284e-6
-1.345, 3.280e-6
-1.346, 3.331e-6
-1.347, 3.298e-6
-1.348, 3.361e-6
-1.349, 3.337e-6
-1.350, 3.352e-6
-1.351, 3.321e-6
-1.352, 3.382e-6
-1.353, 3.386e-6
-1.354, 3.355e-6
-1.355, 3.432e-6
-1.356, 3.408e-6
-1.357, 3.444e-6
-1.358, 3.420e-6
-1.359, 3.399e-6
-1.360, 3.468e-6
-1.361, 3.449e-6
-1.362, 3.445e-6
-1.363, 3.455e-6
-1.364, 3.496e-6
-1.365, 3.470e-6
-1.366, 3.475e-6
-1.367, 3.522e-6
-1.368, 3.502e-6
-1.369, 3.495e-6
-1.370, 3.555e-6
-1.371, 3.541e-6
-1.372, 3.584e-6
-1.373, 3.515e-6
-1.374, 3.585e-6
-1.375, 3.563e-6
-1.376, 3.617e-6
-1.377, 3.600e-6
-1.378, 3.568e-6
-1.379, 3.681e-6
-1.380, 3.646e-6
-1.381, 3.645e-6
-1.382, 3.667e-6
-1.383, 3.709e-6
-1.384, 3.689e-6
-1.385, 3.670e-6
-1.386, 3.752e-6
-1.387, 3.738e-6
-1.388, 3.718e-6
-1.389, 3.756e-6
-1.390, 3.723e-6
-1.391, 3.800e-6
-1.392, 3.765e-6
-1.393, 3.840e-6
-1.394, 3.790e-6
-1.395, 3.802e-6
-1.396, 3.781e-6
-1.397, 3.857e-6
-1.398, 3.883e-6
-1.399, 3.841e-6
-1.400, 3.601e-6
-1.399, 3.473e-6
-1.398, 3.342e-6
-1.397, 3.253e-6
-1.396, 3.260e-6
-1.395, 3.133e-6
-1.394, 3.058e-6
-1.393, 3.122e-6
-1.392, 3.088e-6
-1.391, 2.998e-6
-1.390, 2.948e-6
-1.389, 2.922e-6
-1.388, 2.856e-6
-1.387, 2.820e-6
-1.386, 2.838e-6
-1.385, 2.773e-6
-1.384, 2.847e-6
-1.383, 2.751e-6
-1.382, 2.723e-6
-1.381, 2.697e-6
-1.380, 2.667e-6
-1.379, 2.601e-6
-1.378, 2.588e-6
-1.377, 2.626e-6
-1.376, 2.542e-6
-1.375, 2.541e-6
-1.374, 2.576e-6
-1.373, 2.538e-6
-1.372, 2.516e-6
-1.371, 2.494e-6
-1.370, 2.474e-6
-1.369, 2.419e-6
-1.368, 2.400e-6
-1.367, 2.390e-6
-1.366, 2.370e-6
-1.365, 2.326e-6
-1.364, 2.271e-6
-1.363, 2.321e-6
-1.362, 2.282e-6
-1.361, 2.216e-6
-1.360, 2.278e-6
-1.359, 2.282e-6
-1.358, 2.242e-6
-1.357, 2.207e-6
-1.356, 2.235e-6
-1.355, 2.171e-6
-1.354, 2.160e-6
-1.353, 2.149e-6
-1.352, 2.166e-6
-1.351, 2.158e-6
-1.350, 2.084e-6
-1.349, 2.146e-6
-1.348, 2.100e-6
-1.347, 2.080e-6
-1.346, 2.058e-6
-1.345, 2.103e-6
-1.344, 2.077e-6
-1.343, 2.000e-6
-1.342, 2.050e-6
-1.341, 2.059e-6
-1.340, 1.993e-6
-1.339, 1.958e-6
-1.338, 2.008e-6
-1.337, 1.958e-6
-1.336, 1.947e-6
-1.335, 1.964e-6
-1.334, 1.996e-6
-1.333, 1.928e-6
-1.332, 1.938e-6
-1.331, 1.915e-6
-1.330, 1.934e-6
-1.329, 1.862e-6
-1.328, 1.858e-6
-1.327, 1.895e-6
-1.326, 1.821e-6
-1.325, 1.823e-6
-1.324, 1.828e-6
-1.323, 1.821e-6
-1.322, 1.853e-6
-1.321, 1.723e-6
-1.320, 1.832e-6
-1.319, 1.821e-6
-1.318, 1.765e-6
-1.317, 1.735e-6
-1.316, 1.741e-6
-1.315, 1.746e-6
-1.314, 1.749e-6
-1.313, 1.718e-6
-1.312, 1.689e-6
-1.311, 1.677e-6
-1.310, 1.669e-6
-1.309, 1.676e-6
-1.308, 1.717e-6
-1.307, 1.697e-6
-1.306, 1.635e-6
-1.305, 1.670e-6
-1.304, 1.645e-6
-1.303, 1.581e-6
-1.302, 1.619e-6
-1.301, 1.638e-6
-1.300, 1.651e-6
-1.299, 1.596e-6
-1.298, 1.616e-6
-1.297, 1.617e-6
-1.296, 1.545e-6
-1.295, 1.523e-6
-1.294, 1.583e-6
-1.293, 1.587e-6
-1.292, 1.554e-6
-1.291, 1.494e-6
-1.290, 1.530e-6
-1.289, 1.553e-6
-1.288, 1.474e-6
-1.287, 1.482e-6
-1.286, 1.500e-6
-1.285, 1.499e-6
-1.284, 1.413e-6
-1.283, 1.475e-6
-1.282, 1.488e-6
-1.281, 1.459e-6
-1.280, 1.431e-6
-1.279, 1.433e-6
-1.278, 1.456e-6
-1.277, 1.449e-6
-1.276, 1.377e-6
-1.275, 1.407e-6
-1.274, 1.381e-6
-1.273, 1.349e-6
-1.272, 1.347e-6
-1.271, 1.375e-6
-1.270, 1.342e-6
-1.269, 1.297e-6
-1.268, 1.401e-6
-1.267, 1.337e-6
-1.266, 1.331e-6
-1.265, 1.330e-6
-1.264, 1.336e-6
-1.263, 1.345e-6
-1.262, 1.283e-6
-1.261, 1.280e-6
-1.260, 1.280e-6
-1.259, 1.310e-6
-1.258, 1.301e-6
-1.257, 1.256e-6
-1.256, 1.285e-6
-1.255, 1.226e-6
-1.254, 1.234e-6
-1.253, 1.290e-6
-1.252, 1.257e-6
-1.251, 1.163e-6
-1.250, 1.165e-6
-1.249, 1.248e-6
-1.248, 1.243e-6
-1.247, 1.195e-6
-1.246, 1.180e-6
-1.245, 1.199e-6
-1.244, 1.193e-6
-1.243, 1.161e-6
-1.242, 1.181e-6
-1.241, 1.177e-6
-1.240, 1.145e-6
-1.239, 1.146e-6
-1.238, 1.183e-6
-1.237, 1.147e-6
-1.236, 1.103e-6
-1.235, 1.086e-6
-1.234, 1.113e-6
-1.233, 1.135e-6
-1.232, 1.110e-6
-1.231, 1.067e-6
-1.230, 1.147e-6
-1.229, 1.087e-6
-1.228, 1.064e-6
-1.227, 1.067e-6
-1.226, 1.098e-6
-1.225, 1.001e-6
-1.224, 1.052e-6
-1.223, 1.074e-6
-1.222, 1.055e-6
-1.221, 1.005e-6
-1.220, 9.765e-7
-1.219, 1.023e-6
-1.218, 1.025e-6
-1.217, 1.020e-6
-1.216, 1.017e-6
-1.215, 1.020e-6
-1.214, 9.617e-7
-1.213, 9.755e-7
-1.212, 8.907e-7
-1.211, 1.020e-6
-1.210, 9.607e-7
-1.209, 9.311e-7
-1.208, 9.400e-7
-1.207, 9.923e-7
-1.206, 9.647e-7
-1.205, 9.469e-7
-1.204, 9.568e-7
-1.203, 9.459e-7
-1.202, 8.808e-7
-1.201, 8.927e-7
-1.200, 8.877e-7
-1.199, 9.173e-7
-1.198, 9.045e-7
-1.197, 8.641e-7
-1.196, 9.607e-7
-1.195, 8.502e-7
-1.194, 8.345e-7
-1.193, 8.769e-7
-1.192, 8.946e-7
-1.191, 8.118e-7
-1.190, 8.128e-7
-1.189, 8.650e-7
-1.188, 8.295e-7
-1.187, 8.009e-7
-1.186, 7.723e-7
-1.185, 8.128e-7
-1.184, 7.960e-7
-1.183, 7.289e-7
-1.182, 7.940e-7
-1.181, 8.206e-7
-1.180, 7.171e-7
-1.179, 7.437e-7
-1.178, 7.545e-7
-1.177, 7.526e-7
-1.176, 7.388e-7
-1.175, 6.786e-7
-1.174, 7.526e-7
-1.173, 7.447e-7
-1.172, 6.766e-7
-1.171, 6.954e-7
-1.170, 7.032e-7
-1.169, 7.358e-7
-1.168, 6.322e-7
-1.167, 6.835e-7
-1.166, 7.161e-7
-1.165, 6.214e-7
-1.164, 6.894e-7
-1.163, 6.036e-7
-1.162, 7.092e-7
-1.161, 7.161e-7
-1.160, 5.730e-7
-1.159, 6.095e-7
-1.158, 6.401e-7
-1.157, 6.174e-7
-1.156, 6.440e-7
-1.155, 5.898e-7
-1.154, 6.194e-7
-1.153, 6.184e-7
-1.152, 6.293e-7
-1.151, 5.740e-7
-1.150, 5.858e-7
-1.149, 5.997e-7
-1.148, 5.395e-7
-1.147, 5.750e-7
-1.146, 5.612e-7
-1.145, 5.740e-7
-1.144, 5.799e-7
-1.143, 5.010e-7
-1.142, 5.789e-7
-1.141, 6.164e-7
-1.140, 5.000e-7
-1.139, 5.493e-7
-1.138, 5.247e-7
-1.137, 5.336e-7
-1.136, 4.951e-7
-1.135, 5.434e-7
-1.134, 5.444e-7
-1.133, 5.079e-7
-1.132, 4.734e-7
-1.131, 4.813e-7
-1.130, 4.990e-7
-1.129, 4.961e-7
-1.128, 4.517e-7
-1.127, 5.059e-7
-1.126, 4.655e-7
-1.125, 4.418e-7
-1.124, 4.280e-7
-1.123, 4.438e-7
-1.122, 4.842e-7
-1.121, 4.448e-7
-1.120, 4.329e-7
-1.119, 4.161e-7
-1.118, 4.369e-7
-1.117, 4.309e-7
-1.116, 3.777e-7
-1.115, 4.083e-7
-1.114, 4.349e-7
-1.113, 3.925e-7
-1.112, 4.191e-7
-1.111, 4.102e-7
-1.110, 3.806e-7
-1.109, 3.974e-7
-1.108, 3.727e-7
-1.107, 3.747e-7
-1.106, 3.846e-7
-1.105, 3.076e-7
-1.104, 3.550e-7
-1.103, 3.698e-7
-1.102, 3.185e-7
-1.101, 3.412e-7
-1.100, 3.313e-7
-1.099, 3.471e-7
-1.098, 3.303e-7
-1.097, 2.899e-7
-1.096, 3.126e-7
-1.095, 3.047e-7
-1.094, 2.948e-7
-1.093, 3.165e-7
-1.092, 2.938e-7
-1.091, 3.155e-7
-1.090, 2.622e-7
-1.089, 2.800e-7
-1.088, 2.849e-7
-1.087, 2.583e-7
-1.086, 2.287e-7
-1.085, 2.129e-7
-1.084, 2.504e-7
-1.083, 2.494e-7
-1.082, 2.090e-7
-1.081, 2.178e-7
-1.080, 2.613e-7
-1.079, 1.794e-7
-1.078, 2.178e-7
-1.077, 1.942e-7
-1.076, 2.465e-7
-1.075, 2.080e-7
-1.074, 1.951e-7
-1.073, 2.159e-7
-1.072, 2.090e-7
-1.071, 1.557e-7
-1.070, 1.744e-7
-1.069, 1.221e-7
-1.068, 2.099e-7
-1.067, 1.271e-7
-1.066, 1.142e-7
-1.065, 1.685e-7
-1.064, 1.261e-7
-1.063, 1.290e-7
-1.062, 9.550e-8
-1.061, 1.448e-7
-1.060, 1.212e-7
-1.059, 1.123e-7
-1.058, 7.873e-8
-1.057, 1.409e-7
-1.056, 1.646e-7
-1.055, 6.196e-8
-1.054, 7.182e-8
-1.053, 1.192e-7
-1.052, 1.290e-7
-1.051, 7.380e-8
-1.050, 7.577e-8
-1.049, 2.940e-8
-1.048, 1.409e-7
-1.047, 5.604e-8
-1.046, 7.084e-8
-1.045, 5.998e-8
-1.044, 8.860e-8
-1.043, 2.545e-8
-1.042, 1.756e-8
-1.041, 4.913e-8
-1.040, 8.169e-8
-1.039, 2.447e-8
-1.038, -1.973e-10
-1.037, 4.420e-8
-1.036, 1.953e-8
-1.035, -6.038e-8
-1.034, -1.894e-8
-1.033, 3.039e-8
-1.032, 1.657e-8
-1.031, -5.446e-8
-1.030, 4.736e-9
-1.029, -3.157e-9
-1.028, -1.500e-8
-1.027, -1.993e-8
-1.026, -4.459e-8
-1.025, -1.973e-10
-1.024, -3.473e-8
-1.023, -7.912e-8
-1.022, -5.742e-8
-1.021, -4.854e-8
-1.020, -3.571e-8
-1.019, -3.769e-8
-1.018, -8.998e-8
-1.017, -4.065e-8
-1.016, -6.235e-8
-1.015, -1.206e-7
-1.014, -1.186e-7
-1.013, -2.980e-8
-1.012, -5.643e-8
-1.011, -1.166e-7
-1.010, -1.176e-7
-1.009, -1.097e-7
-1.008, -1.215e-7
-1.007, -1.610e-7
-1.006, -1.502e-7
-1.005, -1.206e-7
-1.004, -1.334e-7
-1.003, -1.729e-7
-1.002, -1.255e-7
-1.001, -1.620e-7
-1.000, -8.998e-8
-1.001, 1.362e-8
-1.002, 6.886e-8
-1.003, 1.498e-7
-1.004, 1.310e-7
-1.005, 1.310e-7
-1.006, 2.060e-7
-1.007, 2.228e-7
-1.008, 2.307e-7
-1.009, 2.405e-7
-1.010, 2.948e-7
-1.011, 3.195e-7
-1.012, 2.899e-7
-1.013, 3.471e-7
-1.014, 3.935e-7
-1.015, 3.481e-7
-1.016, 4.063e-7
-1.017, 3.816e-7
-1.018, 4.290e-7
-1.019, 4.418e-7
-1.020, 3.727e-7
-1.021, 4.773e-7
-1.022, 5.089e-7
-1.023, 5.148e-7
-1.024, 5.109e-7
-1.025, 5.178e-7
-1.026, 5.533e-7
-1.027, 5.523e-7
-1.028, 5.543e-7
-1.029, 5.839e-7
-1.030, 6.539e-7
-1.031, 5.987e-7
-1.032, 6.026e-7
-1.033, 6.342e-7
-1.034, 6.658e-7
-1.035, 6.806e-7
-1.036, 6.924e-7
-1.037, 7.240e-7
-1.038, 7.397e-7
-1.039, 7.309e-7
-1.040, 7.397e-7
-1.041, 7.713e-7
-1.042, 7.457e-7
-1.043, 7.920e-7
-1.044, 7.624e-7
-1.045, 7.605e-7
-1.046, 7.832e-7
-1.047, 8.256e-7
-1.048, 8.226e-7
-1.049, 8.739e-7
-1.050, 8.522e-7
-1.051, 9.065e-7
-1.052, 9.341e-7
-1.053, 8.641e-7
-1.054, 8.808e-7
-1.055, 9.154e-7
-1.056, 9.331e-7
-1.057, 8.946e-7
-1.058, 9.529e-7
-1.059, 9.637e-7
-1.060, 9.805e-7
-1.061, 9.657e-7
-1.062, 9.785e-7
-1.063, 1.011e-6
-1.064, 1.009e-6
-1.065, 9.805e-7
-1.066, 9.834e-7
-1.067, 1.043e-6
-1.068, 1.030e-6
-1.069, 1.030e-6
-1.070, 1.039e-6
-1.071, 1.061e-6
-1.072, 1.126e-6
-1.073, 1.088e-6
-1.074, 1.103e-6
-1.075, 1.139e-6
-1.076, 1.120e-6
-1.077, 1.103e-6
-1.078, 1.076e-6
-1.079, 1.141e-6
-1.080, 1.194e-6
-1.081, 1.167e-6
-1.082, 1.117e-6
-1.083, 1.190e-6
-1.084, 1.191e-6
-1.085, 1.200e-6
-1.086, 1.177e-6
-1.087, 1.219e-6
-1.088, 1.257e-6
-1.089, 1.226e-6
-1.090, 1.224e-6
-1.091, 1.245e-6
-1.092, 1.293e-6
-1.093, 1.236e-6
-1.094, 1.268e-6
-1.095, 1.307e-6
-1.096, 1.299e-6
-1.097, 1.314e-6
-1.098, 1.257e-6
-1.099, 1.282e-6
-1.100, 1.319e-6
-1.101, 1.337e-6
-1.102, 1.303e-6
-1.103, 1.365e-6
-1.104, 1.364e-6
-1.105, 1.320e-6
-1.106, 1.345e-6
-1.107, 1.412e-6
-1.108, 1.406e-6
-1.109, 1.365e-6
-1.110, 1.389e-6
-1.111, 1.417e-6
-1.112, 1.477e-6
-1.113, 1.377e-6
-1.114, 1.434e-6
-1.115, 1.456e-6
-1.116, 1.446e-6
-1.117, 1.426e-6
-1.118, 1.476e-6
-1.119, 1.486e-6
-1.120, 1.457e-6
-1.121, 1.482e-6
-1.122, 1.509e-6
-1.123, 1.549e-6
-1.124, 1.551e-6
-1.125, 1.466e-6
-1.126, 1.544e-6
-1.127, 1.579e-6
-1.128, 1.515e-6
-1.129, 1.545e-6
-1.130, 1.544e-6
-1.131, 1.551e-6
-1.132, 1.565e-6
-1.133, 1.555e-6
-1.134, 1.625e-6
-1.135, 1.622e-6
-1.136, 1.627e-6
-1.137, 1.579e-6
-1.138, 1.653e-6
-1.139, 1.653e-6
-1.140, 1.605e-6
-1.141, 1.633e-6
-1.142, 1.688e-6
-1.143, 1.657e-6
-1.144, 1.732e-6
-1.145, 1.642e-6
-1.146, 1.710e-6
-1.147, 1.732e-6
-1.148, 1.683e-6
-1.149, 1.732e-6
-1.150, 1.739e-6
-1.151, 1.746e-6
-1.152, 1.721e-6
-1.153, 1.718e-6
-1.154, 1.756e-6
-1.155, 1.794e-6
-1.156, 1.763e-6
-1.157, 1.781e-6
-1.158, 1.843e-6
-1.159, 1.784e-6
-1.160, 1.795e-6
-1.161, 1.792e-6
-1.162, 1.824e-6
-1.163, 1.839e-6
-1.164, 1.868e-6
-1.165, 1.770e-6
-1.166, 1.870e-6
-1.167, 1.903e-6
-1.168, 1.870e-6
-1.169, 1.860e-6
-1.170, 1.872e-6
-1.171, 1.887e-6
-1.172, 1.891e-6
-1.173, 1.875e-6
-1.174, 1.921e-6
-1.175, 1.899e-6
-1.176, 1.950e-6
-1.177, 1.903e-6
-1.178, 1.975e-6
-1.179, 1.962e-6
-1.180, 1.936e-6
-1.181, 1.911e-6
-1.182, 1.961e-6
-1.183, 2.004e-6
-1.184, 1.998e-6
-1.185, 1.957e-6
-1.186, 1.985e-6
-1.187, 2.007e-6
-1.188, 1.962e-6
-1.189, 1.985e-6
-1.190, 2.013e-6
-1.191, 2.036e-6
-1.192, 2.024e-6
-1.193, 1.995e-6
-1.194, 2.045e-6
-1.195, 2.047e-6
-1.196, 2.036e-6
-1.197, 2.035e-6
-1.198, 2.099e-6
-1.199, 2.079e-6
-1.200, 2.096e-6
-1.201, 2.063e-6
-1.202, 2.042e-6
-1.203, 2.150e-6
-1.204, 2.088e-6
-1.205, 2.098e-6
-1.206, 2.096e-6
-1.207, 2.181e-6
-1.208, 2.110e-6
-1.209, 2.139e-6
-1.210, 2.118e-6
-1.211, 2.143e-6
-1.212, 2.202e-6
-1.213, 2.124e-6
-1.214, 2.164e-6
-1.215, 2.167e-6
-1.216, 2.185e-6
-1.217, 2.208e-6
-1.218, 2.205e-6
-1.219, 2.186e-6
-1.220, 2.269e-6
-1.221, 2.178e-6
-1.222, 2.189e-6
-1.223, 2.287e-6
-1.224, 2.197e-6
-1.225, 2.236e-6
-1.226, 2.214e-6
-1.227, 2.235e-6
-1.228, 2.294e-6
-1.229, 2.297e-6
-1.230, 2.281e-6
-1.231, 2.274e-6
-1.232, 2.315e-6
-1.233, 2.353e-6
-1.234, 2.328e-6
-1.235, 2.291e-6
-1.236, 2.316e-6
-1.237, 2.342e-6
-1.238, 2.363e-6
-1.239, 2.375e-6
-1.240, 2.336e-6
-1.241, 2.404e-6
-1.242, 2.361e-6
-1.243, 2.398e-6
-1.244, 2.372e-6
-1.245, 2.411e-6
-1.246, 2.408e-6
-1.247, 2.409e-6
-1.248, 2.408e-6
-1.249, 2.413e-6
-1.250, 2.434e-6
-1.251, 2.416e-6
-1.252, 2.391e-6
-1.253, 2.398e-6
-1.254, 2.470e-6
-1.255, 2.471e-6
-1.256, 2.443e-6
-1.257, 2.458e-6
-1.258, 2.543e-6
-1.259, 2.432e-6
-1.260, 2.477e-6
-1.261, 2.484e-6
-1.262, 2.473e-6
-1.263, 2.514e-6
-1.264, 2.511e-6
-1.265, 2.470e-6
-1.266, 2.516e-6
-1.267, 2.532e-6
-1.268, 2.531e-6
-1.269, 2.502e-6
-1.270, 2.509e-6
-1.271, 2.515e-6
-1.272, 2.559e-6
-1.273, 2.497e-6
-1.274, 2.582e-6
-1.275, 2.584e-6
-1.276, 2.560e-6
-1.277, 2.544e-6
-1.278, 2.520e-6
-1.279, 2.595e-6
-1.280, 2.647e-6
-1.281, 2.564e-6
-1.282, 2.611e-6
-1.283, 2.627e-6
-1.284, 2.606e-6
-1.285, 2.650e-6
-1.286, 2.595e-6
-1.287, 2.622e-6
-1.288, 2.586e-6
-1.289, 2.646e-6
-1.290, 2.651e-6
-1.291, 2.637e-6
-1.292, 2.688e-6
-1.293, 2.704e-6
-1.294, 2.665e-6
-1.295, 2.709e-6
-1.296, 2.689e-6
-1.297, 2.670e-6
-1.298, 2.706e-6
-1.299, 2.717e-6
-1.300, 2.726e-6
-1.301, 2.744e-6
-1.302, 2.750e-6
-1.303, 2.741e-6
-1.304, 2.799e-6
-1.305, 2.830e-6
-1.306, 2.760e-6
-1.307, 2.759e-6
-1.308, 2.726e-6
-1.309, 2.824e-6
-1.310, 2.791e-6
-1.311, 2.760e-6
-1.312, 2.804e-6
-1.313, 2.800e-6
-1.314, 2.835e-6
-1.315, 2.848e-6
-1.316, 2.788e-6
-1.317, 2.899e-6
-1.318, 2.848e-6
-1.319, 2.878e-6
-1.320, 2.830e-6
-1.321, 2.884e-6
-1.322, 2.870e-6
-1.323, 2.866e-6
-1.324, 2.879e-6
-1.325, 2.886e-6
-1.326, 2.936e-6
-1.327, 2.922e-6
-1.328, 2.908e-6
-1.329, 2.936e-6
-1.330, 2.968e-6
-1.331, 2.959e-6
-1.332, 2.997e-6
-1.333, 2.951e-6
-1.334, 2.994e-6
-1.335, 2.997e-6
-1.336, 3.009e-6
-1.337, 3.038e-6
-1.338, 2.964e-6
-1.339, 3.003e-6
-1.340, 3.024e-6
-1.341, 2.988e-6
-1.342, 3.038e-6
-1.343, 3.079e-6
-1.344, 3.041e-6
-1.345, 3.063e-6
-1.346, 3.036e-6
-1.347, 3.082e-6
-1.348, 3.113e-6
-1.349, 3.103e-6
-1.350, 3.075e-6
-1.351, 3.115e-6
-1.352, 3.123e-6
-1.353, 3.156e-6
-1.354, 3.123e-6
-1.355, 3.125e-6
-1.356, 3.162e-6
-1.357, 3.162e-6
-1.358, 3.216e-6
-1.359, 3.163e-6
-1.360, 3.217e-6
-1.361, 3.215e-6
-1.362, 3.201e-6
-1.363, 3.207e-6
-1.364, 3.206e-6
-1.365, 3.258e-6
-1.366, 3.215e-6
-1.367, 3.217e-6
-1.368, 3.190e-6
-1.369, 3.302e-6
-1.370, 3.253e-6
-1.371, 3.248e-6
-1.372, 3.233e-6
-1.373, 3.305e-6
-1.374, 3.309e-6
-1.375, 3.314e-6
-1.376, 3.348e-6
-1.377, 3.290e-6
-1.378, 3.379e-6
-1.379, 3.287e-6
-1.380, 3.335e-6
-1.381, 3.360e-6
-1.382, 3.387e-6
-1.383, 3.392e-6
-1.384, 3.343e-6
-1.385, 3.393e-6
-1.386, 3.457e-6
-1.387, 3.437e-6
-1.388, 3.435e-6
-1.389, 3.450e-6
-1.390, 3.480e-6
-1.391, 3.432e-6
-1.392, 3.459e-6
-1.393, 3.528e-6
-1.394, 3.492e-6
-1.395, 3.498e-6
-1.396, 3.481e-6
-1.397, 3.484e-6
-1.398, 3.606e-6
-1.399, 3.554e-6
-1.400, 3.326e-6
-1.399, 3.125e-6
-1.398, 3.038e-6
-1.397, 3.057e-6
-1.396, 2.887e-6
-1.395, 2.864e-6
-1.394, 2.836e-6
-1.393, 2.770e-6
-1.392, 2.759e-6
-1.391, 2.737e-6
-1.390, 2.720e-6
-1.389, 2.655e-6
-1.388, 2.628e-6
-1.387, 2.635e-6
-1.386, 2.609e-6
-1.385, 2.554e-6
-1.384, 2.512e-6
-1.383, 2.529e-6
-1.382, 2.534e-6
-1.381, 2.471e-6
-1.380, 2.410e-6
-1.379, 2.472e-6
-1.378, 2.398e-6
-1.377, 2.343e-6
-1.376, 2.369e-6
-1.375, 2.340e-6
-1.374, 2.341e-6
-1.373, 2.313e-6
-1.372, 2.253e-6
-1.371, 2.297e-6
-1.370, 2.292e-6
-1.369, 2.170e-6
-1.368, 2.192e-6
-1.367, 2.180e-6
-1.366, 2.202e-6
-1.365, 2.230e-6
-1.364, 2.131e-6
-1.363, 2.168e-6
-1.362, 2.209e-6
-1.361, 2.107e-6
-1.360, 2.078e-6
-1.359, 2.101e-6
-1.358, 2.073e-6
-1.357, 2.049e-6
-1.356, 2.067e-6
-1.355, 2.019e-6
-1.354, 2.042e-6
-1.353, 2.047e-6
-1.352, 1.955e-6
-1.351, 2.006e-6
-1.350, 1.963e-6
-1.349, 1.978e-6
-1.348, 1.947e-6
-1.347, 1.869e-6
-1.346, 1.945e-6
-1.345, 1.870e-6
-1.344, 1.831e-6
-1.343, 1.843e-6
-1.342, 1.852e-6
-1.341, 1.884e-6
-1.340, 1.840e-6
-1.339, 1.829e-6
-1.338, 1.780e-6
-1.337, 1.818e-6
-1.336, 1.775e-6
-1.335, 1.776e-6
-1.334, 1.751e-6
-1.333, 1.729e-6
-1.332, 1.729e-6
-1.331, 1.691e-6
-1.330, 1.714e-6
-1.329, 1.727e-6
-1.328, 1.696e-6
-1.327, 1.643e-6
-1.326, 1.653e-6
-1.325, 1.714e-6
-1.324, 1.619e-6
-1.323, 1.611e-6
-1.322, 1.586e-6
-1.321, 1.620e-6
-1.320, 1.648e-6
-1.319, 1.606e-6
-1.318, 1.553e-6
-1.317, 1.540e-6
-1.316, 1.619e-6
-1.315, 1.586e-6
-1.314, 1.534e-6
-1.313, 1.532e-6
-1.312, 1.573e-6
-1.311, 1.565e-6
-1.310, 1.557e-6
-1.309, 1.458e-6
-1.308, 1.479e-6
-1.307, 1.464e-6
-1.306, 1.463e-6
-1.305, 1.469e-6
-1.304, 1.447e-6
-1.303, 1.483e-6
-1.302, 1.412e-6
-1.301, 1.420e-6
-1.300, 1.494e-6
-1.299, 1.417e-6
-1.298, 1.395e-6
-1.297, 1.393e-6
-1.296, 1.409e-6
-1.295, 1.408e-6
-1.294, 1.382e-6
-1.293, 1.382e-6
-1.292, 1.373e-6
-1.291, 1.357e-6
-1.290, 1.398e-6
-1.289, 1.318e-6
-1.288, 1.328e-6
-1.287, 1.340e-6
-1.286, 1.326e-6
-1.285, 1.279e-6
-1.284, 1.296e-6
-1.283, 1.282e-6
-1.282, 1.313e-6
-1.281, 1.261e-6
-1.280, 1.226e-6
-1.279, 1.314e-6
-1.278, 1.294e-6
-1.277, 1.263e-6
-1.276, 1.246e-6
-1.275, 1.231e-6
-1.274, 1.242e-6
-1.273, 1.188e-6
-1.272, 1.239e-6
-1.271, 1.192e-6
-1.270, 1.235e-6
-1.269, 1.203e-6
-1.268, 1.165e-6
-1.267, 1.179e-6
-1.266, 1.199e-6
-1.265, 1.187e-6
-1.264, 1.133e-6
-1.263, 1.087e-6
-1.262, 1.175e-6
-1.261, 1.187e-6
-1.260, 1.154e-6
-1.259, 1.149e-6
-1.258, 1.094e-6
-1.257, 1.138e-6
-1.256, 1.111e-6
-1.255, 1.130e-6
-1.254, 1.118e-6
-1.253, 1.077e-6
-1.252, 1.100e-6
-1.251, 1.024e-6
-1.250, 1.054e-6
-1.249, 1.088e-6
-1.248, 1.045e-6
-1.247, 1.016e-6
-1.246, 1.042e-6
-1.245, 1.056e-6
-1.244, 1.073e-6
-1.243, 9.746e-7
-1.242, 9.598e-7
-1.241, 1.027e-6
-1.240, 1.026e-6
-1.239, 9.578e-7
-1.238, 9.469e-7
-1.237, 9.696e-7
-1.236, 9.203e-7
-1.235, 9.469e-7
-1.234, 9.154e-7
-1.233, 9.617e-7
-1.232, 9.755e-7
-1.231, 9.035e-7
-1.230, 9.223e-7
-1.229, 8.956e-7
-1.228, 8.868e-7
-1.227, 9.252e-7
-1.226, 8.394e-7
-1.225, 8.868e-7
-1.224, 9.114e-7
-1.223, 8.512e-7
-1.222, 9.223e-7
-1.221, 8.384e-7
-1.220, 8.433e-7
-1.219, 8.907e-7
-1.218, 8.325e-7
-1.217, 7.999e-7
-1.216, 8.729e-7
-1.215, 7.940e-7
-1.214, 8.305e-7
-1.213, 7.950e-7
-1.212, 8.019e-7
-1.211, 8.552e-7
-1.210, 7.989e-7
-1.209, 7.881e-7
-1.208, 7.723e-7
-1.207, 8.078e-7
-1.206, 7.960e-7
-1.205, 7.891e-7
-1.204, 7.299e-7
-1.203, 7.743e-7
-1.202, 7.496e-7
-1.201, 7.526e-7
-1.200, 7.743e-7
-1.199, 7.437e-7
-1.198, 7.526e-7
-1.197, 7.319e-7
-1.196, 7.289e-7
-1.195, 7.822e-7
-1.194, 7.289e-7
-1.193, 7.496e-7
-1.192, 7.111e-7
-1.191, 7.072e-7
-1.190, 7.703e-7
-1.189, 6.806e-7
-1.188, 7.062e-7
-1.187, 6.658e-7
-1.186, 6.756e-7
-1.185, 6.954e-7
-1.184, 6.549e-7
-1.183, 6.934e-7
-1.182, 6.914e-7
-1.181, 6.381e-7
-1.180, 6.717e-7
-1.179, 6.174e-7
-1.178, 6.302e-7
-1.177, 6.233e-7
-1.176, 5.681e-7
-1.175, 6.579e-7
-1.174, 6.302e-7
-1.173, 6.371e-7
-1.172, 6.174e-7
-1.171, 5.513e-7
-1.170, 6.223e-7
-1.169, 5.839e-7
-1.168, 5.760e-7
-1.167, 5.257e-7
-1.166, 6.283e-7
-1.165, 6.174e-7
-1.164, 5.286e-7
-1.163, 5.671e-7
-1.162, 5.217e-7
-1.161, 5.927e-7
-1.160, 5.671e-7
-1.159, 5.188e-7
-1.158, 5.434e-7
-1.157, 5.592e-7
-1.156, 5.562e-7
-1.155, 5.306e-7
-1.154, 4.872e-7
-1.153, 5.375e-7
-1.152, 5.128e-7
-1.151, 4.398e-7
-1.150, 4.980e-7
-1.149, 4.872e-7
-1.148, 5.217e-7
-1.147, 4.822e-7
-1.146, 4.763e-7
-1.145, 4.980e-7
-1.144, 4.813e-7
-1.143, 4.379e-7
-1.142, 4.536e-7
-1.141, 4.576e-7
-1.140, 4.221e-7
-1.139, 3.688e-7
-1.138, 3.826e-7
-1.137, 4.083e-7
-1.136, 4.892e-7
-1.135, 4.161e-7
-1.134, 3.836e-7
-1.133, 4.004e-7
-1.132, 4.132e-7
-1.131, 4.073e-7
-1.130, 3.688e-7
-1.129, 3.481e-7
-1.128, 3.816e-7
-1.127, 3.737e-7
-1.126, 3.293e-7
-1.125, 3.352e-7
-1.124, 3.530e-7
-1.123, 3.570e-7
-1.122, 3.165e-7
-1.121, 3.076e-7
-1.120, 3.392e-7
-1.119, 3.027e-7
-1.118, 3.126e-7
-1.117, 2.573e-7
-1.116, 3.540e-7
-1.115, 3.116e-7
-1.114, 3.195e-7
-1.113, 2.563e-7
-1.112, 2.820e-7
-1.111, 3.195e-7
-1.110, 2.908e-7
-1.109, 2.593e-7
-1.108, 2.484e-7
-1.107, 2.524e-7
-1.106, 2.760e-7
-1.105, 2.336e-7
-1.104, 2.297e-7
-1.103, 2.455e-7
-1.102, 2.682e-7
-1.101, 1.774e-7
-1.100, 2.238e-7
-1.099, 2.435e-7
-1.098, 2.188e-7
-1.097, 2.198e-7
-1.096, 2.021e-7
-1.095, 2.030e-7
-1.094, 1.873e-7
-1.093, 2.139e-7
-1.092, 1.636e-7
-1.091, 1.882e-7
-1.090, 1.626e-7
-1.089, 1.774e-7
-1.088, 1.340e-7
-1.087, 1.577e-7
-1.086, 1.725e-7
-1.085, 1.241e-7
-1.084, 9.057e-8
-1.083, 1.024e-7
-1.082, 1.271e-7
-1.081, 1.448e-7
-1.080, 1.754e-7
-1.079, 1.034e-7
-1.078, 1.212e-7
-1.077, 1.488e-7
-1.076, 9.057e-8
-1.075, 7.281e-8
-1.074, 8.564e-8
-1.073, 7.676e-8
-1.072, 8.958e-8
-1.071, 8.169e-8
-1.070, 8.465e-8
-1.069, 8.169e-8
-1.068, 4.321e-8
-1.067, 8.268e-8
-1.066, 4.223e-8
-1.065, 5.604e-8
-1.064, 5.308e-8
-1.063, 4.815e-8
-1.062, -1.006e-8
-1.061, 4.420e-8
-1.060, 9.669e-9
-1.059, 7.478e-8
-1.058, 1.559e-8
-1.057, 1.066e-8
-1.056, 3.236e-8
-1.055, 1.362e-8
-1.054, 2.841e-8
-1.053, -2.782e-8
-1.052, -5.545e-8
-1.051, 1.657e-8
-1.050, 1.263e-8
-1.049, -5.249e-8
-1.048, -4.163e-8
-1.047, -5.545e-8
-1.046, -2.171e-9
-1.045, -3.374e-8
-1.044, -7.617e-8
-1.043, -5.939e-8
-1.042, -8.110e-8
-1.041, -2.388e-8
-1.040, -7.222e-8
-1.039, -7.617e-8
-1.038, -7.123e-8
-1.037, -5.841e-8
-1.036, -1.048e-7
-1.035, -4.459e-8
-1.034, -1.048e-7
-1.033, -8.110e-8
-1.032, -9.590e-8
-1.031, -9.688e-8
-1.030, -1.038e-7
-1.029, -1.314e-7
-1.028, -1.265e-7
-1.027, -1.561e-7
-1.026, -1.551e-7
-1.025, -1.650e-7
-1.024, -1.354e-7
-1.023, -1.423e-7
-1.022, -1.215e-7
-1.021, -1.502e-7
-1.020, -1.985e-7
-1.019, -1.531e-7
-1.018, -1.630e-7
-1.017, -1.600e-7
-1.016, -2.192e-7
-1.015, -2.054e-7
-1.014, -1.906e-7
-1.013, -2.281e-7
-1.012, -2.005e-7
-1.011, -2.370e-7
-1.010, -2.449e-7
-1.009, -2.094e-7
-1.008, -2.488e-7
-1.007, -2.498e-7
-1.006, -2.755e-7
-1.005, -2.399e-7
-1.004, -1.965e-7
-1.003, -2.380e-7
-1.002, -2.695e-7
-1.001, -2.962e-7
