Potential V vs RHE, Current mA cm-2
0.013299999999999867,-0.0007090533034923563
0.012299999999999978,-0.11412476056011249
0.011299999999999866,-0.17061418276372342
0.010299999999999976,-0.21008462802995795
0.009299999999999864,-0.2437547569667458
0.008299999999999974,-0.27035132940420853
0.007299999999999862,-0.2938355369819681
0.006299999999999972,-0.3173197445597277
0.00529999999999986,-0.3392477697076358
0.0042999999999999705,-0.3613172659855304
0.0032999999999998586,-0.38338676226342494
0.0022999999999999687,-0.40432448950142746
0.0012999999999998568,-0.42568663012938956
0.00029999999999996696,-0.44874642431718964
-0.000700000000000145,-0.47293798754488175
-0.0017000000000000348,-0.4981198486824793
-0.0027000000000001467,-0.5194819893104415
-0.0037000000000000366,-0.5429661968882011
-0.0047000000000001485,-0.5661674622059877
-0.005700000000000038,-0.5873881317039633
-0.00670000000000015,-0.6093161568518712
-0.00770000000000004,-0.6278488748801032
-0.008700000000000152,-0.6458157083883892
-0.009700000000000042,-0.6647728398065808
-0.010700000000000154,-0.6840129134847454
-0.011700000000000044,-0.7004235645631797
-0.012700000000000156,-0.7158439177317085
-0.013700000000000045,-0.7274445503906019
-0.014700000000000157,-0.7431478458191038
-0.015700000000000047,-0.7558802475178891
-0.01670000000000016,-0.7697444182565665
-0.01770000000000005,-0.7826182910853382
-0.01870000000000016,-0.7903992032345959
-0.01970000000000005,-0.8018583647635027
-0.020700000000000163,-0.8137419396823691
-0.021700000000000053,-0.8236449187814244
-0.022700000000000164,-0.8310014175407225
-0.023700000000000054,-0.8392067430799398
-0.024700000000000166,-0.8478364820091164
-0.025700000000000056,-0.8575979899781853
-0.026700000000000168,-0.8650959598674699
-0.027700000000000058,-0.8707548050669301
-0.02870000000000017,-0.8774039481762959
-0.02970000000000006,-0.8827798511157828
-0.03070000000000017,-0.8918340034349193
-0.03170000000000006,-0.8959366662045278
-0.03270000000000017,-0.9020199247939473
-0.03370000000000006,-0.9056981741735964
-0.034700000000000175,-0.909800836943205
-0.035700000000000065,-0.9167329223125438
-0.03670000000000018,-0.9225332386419903
-0.03770000000000007,-0.9243723633318148
-0.03870000000000018,-0.9284750261014234
-0.03970000000000007,-0.9322947466110592
-0.04070000000000018,-0.9380950629405057
-0.04170000000000007,-0.9441783215299254
-0.04270000000000018,-0.9458759750897635
-0.04370000000000007,-0.9489883399494666
-0.044700000000000184,-0.9528080604591023
-0.045700000000000074,-0.9567692520987243
-0.046700000000000186,-0.9629939818181305
-0.047700000000000076,-0.965116048767928
-0.04870000000000019,-0.967662529107685
-0.04970000000000008,-0.9723310763972398
-0.05070000000000019,-0.9764337391668484
-0.05170000000000008,-0.9812437575863894
-0.05270000000000019,-0.983931709056133
-0.05370000000000008,-0.9859123048759442
-0.05470000000000019,-0.9908637944254716
-0.05570000000000008,-0.9958152839749993
-0.056700000000000195,-0.9989276488347025
-0.057700000000000085,-1.0040206095142166
-0.058700000000000196,-1.0030303116043109
-0.059700000000000086,-1.008689156803771
-0.0607000000000002,-1.0132162329633392
-0.06170000000000009,-1.0190165492927858
-0.0627000000000002,-1.0217045007625294
-0.06370000000000009,-1.0219874430225024
-0.0647000000000002,-1.0250998078822056
-0.06570000000000009,-1.0311830664716253
-0.0667000000000002,-1.0316074798615846
-0.0677000000000001,-1.0354272003712204
-0.0687000000000002,-1.0382566229709504
-0.0697000000000001,-1.040661632180721
-0.07070000000000021,-1.0458960639902217
-0.0717000000000001,-1.0475937175500596
-0.07270000000000021,-1.0507060824097627
-0.0737000000000001,-1.0535355050094928
-0.07470000000000021,-1.0556575719592904
-0.0757000000000001,-1.0613164171587506
-0.07670000000000021,-1.064853195408413
-0.0777000000000001,-1.066975262358211
-0.07870000000000021,-1.0698046849579408
-0.0797000000000001,-1.0727755786876572
-0.08070000000000022,-1.0784344238871173
-0.0817000000000001,-1.0833859134366453
-0.08270000000000022,-1.0848006247365103
-0.08370000000000011,-1.0864982782963482
-0.08470000000000022,-1.0908838833259298
-0.08570000000000011,-1.0959768440054438
-0.08670000000000022,-1.099655093385093
-0.08770000000000011,-1.1031918716347555
-0.08870000000000022,-1.1055968808445262
-0.08970000000000011,-1.1101239570040942
-0.09070000000000022,-1.11394367751373
-0.09170000000000011,-1.118470753673298
-0.09270000000000023,-1.1229978298328662
-0.09370000000000012,-1.1244125411327313
-0.09470000000000023,-1.1295055018122453
-0.09570000000000012,-1.1326178666719484
-0.09670000000000023,-1.138135240741422
-0.09770000000000012,-1.142379374641017
-0.09870000000000023,-1.1430867302909495
-0.09970000000000012,-1.1488870466203962
-0.10070000000000023,-1.153838536169924
-0.10170000000000012,-1.1573753144195864
-0.10270000000000024,-1.1602047370193165
-0.10370000000000013,-1.1611950349292222
-0.10470000000000024,-1.1638829863989655
-0.10570000000000013,-1.1718053696782098
-0.10670000000000024,-1.1733615521080614
-0.10770000000000013,-1.1773227437476836
-0.10870000000000024,-1.178878926177535
-0.10970000000000013,-1.1825571755571842
-0.11070000000000024,-1.1860939538068467
-0.11170000000000013,-1.1886404341466037
-0.11270000000000002,-1.1907625010964016
-0.11370000000000013,-1.1933089814361586
-0.11470000000000002,-1.195148106125983
-0.11570000000000014,-1.2000995956755107
-0.11670000000000003,-1.2036363739251732
-0.11770000000000014,-1.2034949027951867
-0.11870000000000003,-1.205475498614998
-0.11970000000000014,-1.2080219789547548
-0.12070000000000003,-1.2135393530242284
-0.12170000000000014,-1.216510246753945
-0.12270000000000003,-1.2173590735338642
-0.12370000000000014,-1.2186323137037425
-0.12470000000000003,-1.2223105630833917
-0.12570000000000014,-1.2255643990730813
-0.12670000000000003,-1.2276864660228788
-0.12770000000000015,-1.2291011773227438
-0.12870000000000004,-1.2295255907127036
-0.12970000000000015,-1.2337697246122985
-0.13070000000000004,-1.2374479739919477
-0.13170000000000015,-1.239852983201718
-0.13270000000000004,-1.2419750501515157
-0.13370000000000015,-1.2414091656315698
-0.13470000000000004,-1.246219184051111
-0.13570000000000015,-1.2490486066508408
-0.13670000000000004,-1.2520195003805574
-0.13770000000000016,-1.2542830384603414
-0.13870000000000005,-1.254141567330355
-0.13970000000000016,-1.2576783455800176
-0.14070000000000005,-1.2619224794796127
-0.14170000000000016,-1.2651763154693023
-0.14270000000000005,-1.2671569112891135
-0.14370000000000016,-1.267015440159127
-0.14470000000000005,-1.2698448627588568
-0.14570000000000016,-1.274654881178398
-0.14670000000000005,-1.2764940058682226
-0.14770000000000016,-1.279464899597939
-0.14870000000000005,-1.2807381397678177
-0.14970000000000017,-1.2820113799376962
-0.15070000000000006,-1.2886605230470618
-0.15170000000000017,-1.289792292086954
-0.15270000000000006,-1.292621714686684
-0.15370000000000017,-1.2944608393765085
-0.15470000000000006,-1.2985635021461173
-0.15570000000000017,-1.3032320494356717
-0.15670000000000006,-1.305495587515456
-0.15770000000000017,-1.3079005967252264
-0.15870000000000006,-1.3104470770649834
-0.15970000000000018,-1.3141253264446326
-0.16070000000000007,-1.3179450469542682
-0.16170000000000018,-1.3230380076337822
-0.16270000000000007,-1.3247356611936203
-0.16370000000000018,-1.3292627373531885
-0.16470000000000007,-1.333082457862824
-0.16570000000000018,-1.3381754185423382
-0.16670000000000007,-1.3427024947019062
-0.16770000000000018,-1.345673388431623
-0.16870000000000007,-1.3477954553814204
-0.16970000000000018,-1.3514737047610696
-0.17070000000000007,-1.3567081365705702
-0.17170000000000019,-1.3603863859502194
-0.17270000000000008,-1.3643475775898415
-0.1737000000000002,-1.367601413579531
-0.17470000000000008,-1.3736846721689506
-0.1757000000000002,-1.3790605751084377
-0.17670000000000008,-1.3834461801380193
-0.1777000000000002,-1.3888220830775064
-0.17870000000000008,-1.3902367943773717
-0.1797000000000002,-1.3966029952267642
-0.18070000000000008,-1.4031106672061433
-0.1817000000000002,-1.4073548011057386
-0.18270000000000008,-1.4124477617852527
-0.1837000000000002,-1.4161260111649017
-0.1847000000000001,-1.423199567664227
-0.1857000000000002,-1.431687835463417
-0.1867000000000001,-1.4345172580631471
-0.1877000000000002,-1.4415908145624723
-0.1887000000000001,-1.4486643710617975
-0.1897000000000002,-1.4529085049613928
-0.1907000000000001,-1.461396772760583
-0.1917000000000001,-1.4642261953603128
-0.19269999999999998,-1.472714463159503
-0.1937000000000001,-1.4783733083589634
-0.19469999999999998,-1.4840321535584236
-0.1957000000000001,-1.4925204213576138
-0.19669999999999999,-1.499593977856939
-0.1977000000000001,-1.506667534356264
-0.1987,-1.5137410908555893
-0.1997000000000001,-1.5193999360550492
-0.2007,-1.5278882038542394
-0.2017000000000001,-1.5363764716534298
-0.2027,-1.543450028152755
-0.2037000000000001,-1.55052358465208
-0.2047,-1.5575971411514054
-0.2057000000000001,-1.5689148315503256
-0.2067,-1.580232521949246
-0.2077000000000001,-1.587306078448571
-0.2087,-1.5943796349478963
-0.2097000000000001,-1.6042826140469515
-0.2107,-1.6156003044458718
-0.2117000000000001,-1.6240885722450622
-0.2127,-1.6339915513441174
-0.2137000000000001,-1.6396503965435776
-0.2147,-1.653797509542228
-0.2157000000000001,-1.6665299112410132
-0.2167,-1.6764328903400685
-0.21770000000000012,-1.6849211581392587
-0.2187,-1.693409425938449
-0.21970000000000012,-1.7033124050375041
-0.2207,-1.7146300954364246
-0.22170000000000012,-1.7245330745354797
-0.2227,-1.7358507649344
-0.22370000000000012,-1.7443390327335901
-0.2247,-1.7556567231325106
-0.22570000000000012,-1.769803836131161
-0.2267,-1.779706815230216
-0.22770000000000012,-1.7910245056291363
-0.22870000000000001,-1.8023421960280568
-0.22970000000000013,-1.815074597726842
-0.23070000000000002,-1.8320511333252225
-0.23170000000000013,-1.8433688237241426
-0.23270000000000002,-1.8532718028231983
-0.23370000000000013,-1.8674189158218486
-0.23470000000000002,-1.8801513175206337
-0.23570000000000013,-1.895713141819149
-0.23670000000000002,-1.9084455435179344
-0.2376999999999999,-1.92117794521672
-0.23870000000000002,-1.93532505821537
-0.2396999999999999,-1.9480574599141556
-0.24070000000000003,-1.9664487068124006
-0.24169999999999991,-1.9834252424107812
-0.24270000000000003,-1.993328221509837
-0.24369999999999992,-2.008890045808352
-0.24470000000000003,-2.023037158807002
-0.24569999999999992,-2.0414284057052483
-0.24670000000000003,-2.0584049413036287
-0.24769999999999992,-2.0753814769020087
-0.24870000000000003,-2.0881138786007942
-0.24969999999999992,-2.105090414199175
-0.25070000000000003,-2.124896372397285
-0.2516999999999999,-2.1404581966958003
-0.25270000000000004,-2.1574347322941807
-0.2536999999999999,-2.1729965565926963
-0.25470000000000004,-2.1956319373905373
-0.2556999999999999,-2.2140231842887825
-0.25670000000000004,-2.2324144311870278
-0.25769999999999993,-2.250805678085273
-0.25870000000000004,-2.2649527910839233
-0.25969999999999993,-2.286173460581899
-0.26070000000000004,-2.310223552679605
-0.26169999999999993,-2.33144422217758
-0.26270000000000004,-2.352664891675556
-0.26369999999999993,-2.3724708498736664
-0.26470000000000005,-2.3951062306715074
-0.26569999999999994,-2.4191563227692128
-0.26670000000000005,-2.4417917035670533
-0.26769999999999994,-2.461597661765164
-0.26870000000000005,-2.4842330425630044
-0.26969999999999994,-2.504039000761115
-0.27070000000000005,-2.5309185154585507
-0.27169999999999994,-2.554968607556256
-0.27270000000000005,-2.5804334109538267
-0.27369999999999994,-2.6016540804518025
-0.27470000000000006,-2.627118883849373
-0.27569999999999995,-2.655413109846674
-0.27670000000000006,-2.6808779132442444
-0.27769999999999995,-2.706342716641815
-0.27870000000000006,-2.734636942639116
-0.27969999999999995,-2.7629311686364164
-0.28070000000000006,-2.7898106833338523
-0.28169999999999995,-2.820934331930883
-0.28270000000000006,-2.846399135328454
-0.28369999999999995,-2.8761080726256196
-0.28470000000000006,-2.9044022986229203
-0.28569999999999995,-2.9369406585198163
-0.28670000000000007,-2.970893729716577
-0.28769999999999996,-3.000602667013743
-0.28870000000000007,-3.031726315610774
-0.28969999999999996,-3.0614352529079394
-0.29070000000000007,-3.0953883241047
-0.29169999999999996,-3.1321708179011907
-0.29270000000000007,-3.167538600397817
-0.29369999999999996,-3.201491671594578
-0.2947000000000001,-3.2396888766909337
-0.29569999999999996,-3.27505665918756
-0.2967000000000001,-3.313253864283916
-0.29769999999999996,-3.351451069380272
-0.2987000000000001,-3.3882335631767626
-0.29969999999999997,-3.426430768273119
-0.3007000000000001,-3.4660426846693397
-0.30169999999999997,-3.504239889765696
-0.3027000000000001,-3.546681228761647
-0.30369999999999997,-3.583463722558138
-0.3047000000000001,-3.608928525955709
-0.30569999999999997,-3.6527845762515243
-0.3067000000000001,-3.696640626547341
-0.3077,-3.744740810742752
-0.3087000000000001,-3.788596861038568
-0.3097,-3.835282333934114
-0.3107000000000001,-3.8862119407292557
-0.3117,-3.935726836224532
-0.3127000000000001,-3.9838270204199433
-0.3137,-4.033341915915219
-0.3147000000000001,-4.082856811410497
-0.3157,-4.139445263405097
-0.3167000000000001,-4.191789581500104
-0.3177,-4.2413044769953805
-0.3187000000000001,-4.292234083790521
-0.3197,-4.347407824485257
-0.3207000000000001,-4.406825699079589
-0.3217,-4.463414151074191
-0.3227000000000001,-4.520002603068792
-0.3237,-4.579420477663124
-0.3247000000000001,-4.638838352257455
-0.3257,-4.698256226851787
-0.3267000000000001,-4.763332946645578
-0.3277,-4.82275082123991
-0.3287000000000001,-4.883583407134107
-0.3297,-4.947245415628033
-0.3307000000000001,-5.01373684672169
-0.3317,-5.080228277815347
-0.3327000000000001,-5.1467197089090035
-0.3337,-5.214625851302525
-0.3347000000000001,-5.285361416295777
-0.3357,-5.354682269989163
-0.3367000000000001,-5.432491391481741
-0.3377,-5.507471090374587
-0.3387000000000001,-5.582450789267434
-0.3397,-5.656015776860417
-0.3407000000000001,-5.7309954757532635
-0.3417,-5.808804597245841
-0.3427000000000001,-5.885199007438552
-0.3437,-5.963008128931129
-0.3447000000000001,-6.045061384323302
-0.3457,-6.132773484914934
-0.3467000000000001,-6.213412029007241
-0.3477,-6.296879995699278
-0.3487000000000001,-6.384592096290911
-0.3497,-6.472304196882543
-0.3507000000000001,-6.565675142673635
-0.3517,-6.657631377164862
-0.3527000000000001,-6.745343477756495
-0.3537,-6.833055578348127
-0.3547000000000001,-6.9250118128393545
-0.3557,-7.025456315129772
-0.35670000000000013,-7.120241972220731
-0.3577,-7.210783495412092
-0.35870000000000013,-7.309813286402645
-0.3597,-7.414501922592657
-0.36070000000000013,-7.52484940398213
-0.3617,-7.625293906272548
-0.3626999999999999,-7.728567831162695
-0.3637,-7.833256467352707
-0.3646999999999999,-7.939359814842586
-0.3657,-8.049707296232057
-0.3666999999999999,-8.162884200221262
-0.3677,-8.276061104210465
-0.3686999999999999,-8.392067430799397
-0.36970000000000003,-8.509488468688197
-0.3706999999999999,-8.628324217876859
-0.37170000000000003,-8.742915833165926
-0.3726999999999999,-8.85609273715513
-0.37370000000000003,-8.979172620243387
-0.3746999999999999,-9.103667214631512
-0.37570000000000003,-9.22674709771977
-0.3766999999999999,-9.354071114707622
-0.37770000000000004,-9.484224554295206
-0.3786999999999999,-9.612963282582925
-0.37970000000000004,-9.745946144770238
-0.3806999999999999,-9.881758429557282
-0.38170000000000004,-10.014741291744594
-0.38269999999999993,-10.153382999131368
-0.38370000000000004,-10.283536438718953
-0.38469999999999993,-10.422178146105725
-0.38570000000000004,-10.562234564792364
-0.38669999999999993,-10.699461560879271
-0.38770000000000004,-10.846591536065237
-0.38869999999999993,-10.992306799951335
-0.38970000000000005,-11.138022063837434
-0.39069999999999994,-11.287981461623128
-0.39170000000000005,-11.442184993308418
-0.39269999999999994,-11.594973813693839
-0.39370000000000005,-11.750592056678995
-0.39469999999999994,-11.910454433563745
-0.39570000000000005,-12.075975655647953
-0.39669999999999994,-12.241496877732164
-0.39770000000000005,-12.411262233715968
-0.39869999999999994,-12.57536874450031
-0.39970000000000006,-12.735231121385059
-0.40069999999999995,-12.899337632169406
-0.40170000000000006,-13.07193241075294
-0.40269999999999995,-13.24028305543688
-0.40370000000000006,-13.417121967920007
-0.40469999999999995,-13.603863859502193
-0.40570000000000006,-13.792020462384242
-0.40669999999999995,-13.981591776566157
-0.40770000000000006,-14.161260111649016
-0.40869999999999995,-14.345172580631472
-0.40970000000000006,-14.500790823616628
-0.41069999999999995,-14.65640906660178
-0.41170000000000007,-14.854468648582884
-0.41269999999999996,-15.05252823056399
-0.41370000000000007,-15.250587812545096
-0.41469999999999996,-15.4203531685289
-0.41570000000000007,-15.618412750510005
-0.41669999999999996,-15.816472332491113
-0.41770000000000007,-16.014531914472215
-0.41869999999999996,-16.22673860945197
-0.4197000000000001,-16.438945304431726
-0.42069999999999996,-16.651151999411482
-0.4217000000000001,-16.877505807389888
-0.42269999999999996,-17.103859615368293
-0.4237000000000001,-17.301919197349395
-0.42469999999999997,-17.514125892329155
-0.4257000000000001,-17.72633258730891
-0.42669999999999997,-17.980980621284615
-0.4277000000000001,-18.207334429263025
-0.42869999999999997,-18.44783535024008
-0.4297000000000001,-18.688336271217132
-0.43069999999999997,-18.95713141819149
-0.4317000000000001,-19.211779452167196
-0.4327,-19.452280373144255
-0.4337000000000001,-19.65033995512536
-0.4347,-19.805958198110513
-0.4357000000000001,-20.088900458083522
-0.4367,-20.329401379060574
-0.4377000000000001,-20.584049413036283
-0.4387,-20.838697447011988
-0.4397000000000001,-21.107492593986347
-0.4407,-21.390434853959356
-0.4417000000000001,-21.645082887935057
-0.4427,-21.899730921910766
-0.4437000000000001,-22.168526068885125
-0.4447,-22.437321215859484
-0.4457000000000001,-22.734410588831135
-0.4467,-23.073941300798747
-0.4477000000000001,-23.371030673770406
-0.4487,-23.639825820744765
-0.4497000000000001,-23.823738289727217
-0.4507,-24.120827662698876
-0.4517000000000001,-24.40376992267188
-0.4527,-24.70085929564354
-0.4537000000000001,-24.983801555616548
-0.4547,-25.266743815589557
-0.4557000000000001,-25.535538962563912
-0.4567,-25.832628335535567
-0.4577000000000001,-26.14386482150588
-0.4587,-26.469248420474838
-0.4597000000000001,-26.837073358439746
-0.4607,-27.162456957408708
-0.4617000000000001,-27.36051653938981
-0.4627,-27.685900138358768
-0.4637000000000001,-28.011283737327723
-0.4647,-28.336667336296685
-0.4657000000000001,-28.633756709268344
-0.4667,-28.944993195238652
-0.4677000000000001,-29.31281813320356
-0.4687,-29.68064307116847
-0.4697000000000001,-30.03432089613473
-0.4707,-30.317263156107735
-0.4717000000000001,-30.62849964207804
-0.4727,-30.982177467044306
-0.4737000000000001,-31.30756106601326
-0.4747,-31.64709177798087
-0.4757000000000001,-32.00076960294713
-0.4767,-32.38274165391069
-0.4777000000000001,-32.79300793087155
-0.4787,-33.01936173884996
-0.4797000000000001,-33.330598224820264
-0.4807,-33.712570275783825
-0.48170000000000013,-34.09454232674739
-0.4827,-34.44822015171364
-0.48370000000000013,-34.8867806546718
-0.4847,-35.339488270628614
-0.48570000000000013,-35.62243053060162
-0.4867,-35.93366701657193
-0.4876999999999999,-36.27319772853954
-0.4887,-36.5985813275085
-0.4896999999999999,-37.037141830466666
-0.4907,-37.46155522042617
-0.4916999999999999,-37.73035036740053
-0.4927,-38.08402819236679
-0.4936999999999999,-38.43770601733305
-0.49470000000000003,-38.84797229429391
-0.4956999999999999,-39.272385684253415
-0.49670000000000003,-39.52703371822913
-0.4976999999999999,-39.83827020419943
-0.49870000000000003,-40.220242255162994
-0.4996999999999999,-40.559772967130606
-0.5007,-41.04077480908471
-0.5016999999999999,-41.267128617063115
-0.5027,-41.47933531204288
-0.5036999999999999,-41.56421799003478
-0.5047,-41.86130736300643
