Sept. 25, 2024   04:24:44
Cyclic Voltammetry
File: c:/users/guazh/data/20240922_batch_417_500/2024-09-22-exp441\exp441-2024-09-25t04_16_10-arkoh\exp441_cv_50mvs_efin_-1500mv.bin
Data Source:  Experiment
Instrument Model:  CHI760E
Header: CV ran at 50 mVs
Note: 

Init E (V) = -1
High E (V) = -1
Low E (V) = -1.5
Final E (V) = -1
Init P/N = N
Scan Rate (V/s) = 0.05
Segment = 7
Sample Interval (V) = 0.001
Quiet Time (sec) = 60
Sensitivity (A/V) = 0.001
Comp R (ohm) = 1.9

Results:

Channel 1:
Segment 1:

Segment 2:

Segment 3:

Segment 4:

Segment 5:

Segment 6:

Segment 7:

Potential/V, Current/A

-1.000, 1.333e-5
-1.001, 2.396e-5
-1.002, 2.590e-5
-1.003, 2.631e-5
-1.004, 2.683e-5
-1.005, 2.728e-5
-1.006, 2.779e-5
-1.007, 2.822e-5
-1.008, 2.822e-5
-1.009, 2.857e-5
-1.010, 2.892e-5
-1.011, 2.921e-5
-1.012, 2.957e-5
-1.013, 2.952e-5
-1.014, 2.966e-5
-1.015, 3.010e-5
-1.016, 3.031e-5
-1.017, 3.042e-5
-1.018, 3.051e-5
-1.019, 3.062e-5
-1.020, 3.105e-5
-1.021, 3.106e-5
-1.022, 3.140e-5
-1.023, 3.148e-5
-1.024, 3.157e-5
-1.025, 3.180e-5
-1.026, 3.206e-5
-1.027, 3.212e-5
-1.028, 3.222e-5
-1.029, 3.212e-5
-1.030, 3.249e-5
-1.031, 3.275e-5
-1.032, 3.274e-5
-1.033, 3.272e-5
-1.034, 3.293e-5
-1.035, 3.299e-5
-1.036, 3.336e-5
-1.037, 3.332e-5
-1.038, 3.337e-5
-1.039, 3.362e-5
-1.040, 3.347e-5
-1.041, 3.382e-5
-1.042, 3.390e-5
-1.043, 3.391e-5
-1.044, 3.409e-5
-1.045, 3.408e-5
-1.046, 3.423e-5
-1.047, 3.463e-5
-1.048, 3.439e-5
-1.049, 3.452e-5
-1.050, 3.463e-5
-1.051, 3.486e-5
-1.052, 3.500e-5
-1.053, 3.482e-5
-1.054, 3.489e-5
-1.055, 3.511e-5
-1.056, 3.514e-5
-1.057, 3.529e-5
-1.058, 3.547e-5
-1.059, 3.530e-5
-1.060, 3.565e-5
-1.061, 3.559e-5
-1.062, 3.569e-5
-1.063, 3.584e-5
-1.064, 3.551e-5
-1.065, 3.583e-5
-1.066, 3.610e-5
-1.067, 3.599e-5
-1.068, 3.621e-5
-1.069, 3.596e-5
-1.070, 3.611e-5
-1.071, 3.637e-5
-1.072, 3.637e-5
-1.073, 3.633e-5
-1.074, 3.627e-5
-1.075, 3.657e-5
-1.076, 3.670e-5
-1.077, 3.668e-5
-1.078, 3.665e-5
-1.079, 3.665e-5
-1.080, 3.666e-5
-1.081, 3.683e-5
-1.082, 3.705e-5
-1.083, 3.689e-5
-1.084, 3.699e-5
-1.085, 3.700e-5
-1.086, 3.713e-5
-1.087, 3.734e-5
-1.088, 3.717e-5
-1.089, 3.714e-5
-1.090, 3.742e-5
-1.091, 3.743e-5
-1.092, 3.761e-5
-1.093, 3.741e-5
-1.094, 3.739e-5
-1.095, 3.759e-5
-1.096, 3.775e-5
-1.097, 3.787e-5
-1.098, 3.791e-5
-1.099, 3.768e-5
-1.100, 3.808e-5
-1.101, 3.821e-5
-1.102, 3.812e-5
-1.103, 3.819e-5
-1.104, 3.810e-5
-1.105, 3.841e-5
-1.106, 3.944e-5
-1.107, 3.889e-5
-1.108, 3.875e-5
-1.109, 3.863e-5
-1.110, 3.879e-5
-1.111, 3.919e-5
-1.112, 3.907e-5
-1.113, 3.903e-5
-1.114, 3.917e-5
-1.115, 3.917e-5
-1.116, 3.951e-5
-1.117, 3.958e-5
-1.118, 3.955e-5
-1.119, 3.979e-5
-1.120, 3.982e-5
-1.121, 4.017e-5
-1.122, 4.020e-5
-1.123, 4.022e-5
-1.124, 4.033e-5
-1.125, 4.051e-5
-1.126, 4.085e-5
-1.127, 4.106e-5
-1.128, 4.088e-5
-1.129, 4.111e-5
-1.130, 4.124e-5
-1.131, 4.159e-5
-1.132, 4.191e-5
-1.133, 4.189e-5
-1.134, 4.193e-5
-1.135, 4.237e-5
-1.136, 4.248e-5
-1.137, 4.273e-5
-1.138, 4.292e-5
-1.139, 4.300e-5
-1.140, 4.348e-5
-1.141, 4.369e-5
-1.142, 4.388e-5
-1.143, 4.419e-5
-1.144, 4.419e-5
-1.145, 4.458e-5
-1.146, 4.504e-5
-1.147, 4.526e-5
-1.148, 4.557e-5
-1.149, 4.568e-5
-1.150, 4.611e-5
-1.151, 4.658e-5
-1.152, 4.685e-5
-1.153, 4.714e-5
-1.154, 4.756e-5
-1.155, 4.789e-5
-1.156, 4.843e-5
-1.157, 4.870e-5
-1.158, 4.900e-5
-1.159, 4.968e-5
-1.160, 5.001e-5
-1.161, 5.058e-5
-1.162, 5.226e-5
-1.163, 5.180e-5
-1.164, 5.248e-5
-1.165, 5.266e-5
-1.166, 5.299e-5
-1.167, 5.391e-5
-1.168, 5.404e-5
-1.169, 5.461e-5
-1.170, 5.530e-5
-1.171, 5.610e-5
-1.172, 5.681e-5
-1.173, 5.711e-5
-1.174, 5.782e-5
-1.175, 5.874e-5
-1.176, 5.930e-5
-1.177, 6.036e-5
-1.178, 6.125e-5
-1.179, 6.205e-5
-1.180, 6.273e-5
-1.181, 6.352e-5
-1.182, 6.442e-5
-1.183, 6.531e-5
-1.184, 6.606e-5
-1.185, 6.704e-5
-1.186, 6.793e-5
-1.187, 6.874e-5
-1.188, 6.989e-5
-1.189, 7.079e-5
-1.190, 7.204e-5
-1.191, 7.332e-5
-1.192, 7.427e-5
-1.193, 7.525e-5
-1.194, 7.647e-5
-1.195, 7.775e-5
-1.196, 7.939e-5
-1.197, 8.045e-5
-1.198, 8.165e-5
-1.199, 8.330e-5
-1.200, 8.466e-5
-1.201, 8.614e-5
-1.202, 8.757e-5
-1.203, 8.891e-5
-1.204, 9.039e-5
-1.205, 9.213e-5
-1.206, 9.373e-5
-1.207, 9.569e-5
-1.208, 9.712e-5
-1.209, 9.887e-5
-1.210, 1.009e-4
-1.211, 1.027e-4
-1.212, 1.048e-4
-1.213, 1.064e-4
-1.214, 1.085e-4
-1.215, 1.108e-4
-1.216, 1.127e-4
-1.217, 1.149e-4
-1.218, 1.171e-4
-1.219, 1.192e-4
-1.220, 1.217e-4
-1.221, 1.243e-4
-1.222, 1.266e-4
-1.223, 1.290e-4
-1.224, 1.314e-4
-1.225, 1.341e-4
-1.226, 1.370e-4
-1.227, 1.397e-4
-1.228, 1.424e-4
-1.229, 1.458e-4
-1.230, 1.483e-4
-1.231, 1.515e-4
-1.232, 1.547e-4
-1.233, 1.577e-4
-1.234, 1.613e-4
-1.235, 1.641e-4
-1.236, 1.675e-4
-1.237, 1.709e-4
-1.238, 1.744e-4
-1.239, 1.778e-4
-1.240, 1.813e-4
-1.241, 1.852e-4
-1.242, 1.889e-4
-1.243, 1.927e-4
-1.244, 1.964e-4
-1.245, 2.004e-4
-1.246, 2.044e-4
-1.247, 2.089e-4
-1.248, 2.129e-4
-1.249, 2.174e-4
-1.250, 2.224e-4
-1.251, 2.270e-4
-1.252, 2.312e-4
-1.253, 2.354e-4
-1.254, 2.402e-4
-1.255, 2.453e-4
-1.256, 2.503e-4
-1.257, 2.553e-4
-1.258, 2.604e-4
-1.259, 2.653e-4
-1.260, 2.708e-4
-1.261, 2.763e-4
-1.262, 2.816e-4
-1.263, 2.875e-4
-1.264, 2.933e-4
-1.265, 2.986e-4
-1.266, 3.049e-4
-1.267, 3.106e-4
-1.268, 3.166e-4
-1.269, 3.225e-4
-1.270, 3.288e-4
-1.271, 3.354e-4
-1.272, 3.421e-4
-1.273, 3.485e-4
-1.274, 3.554e-4
-1.275, 3.622e-4
-1.276, 3.691e-4
-1.277, 3.762e-4
-1.278, 3.830e-4
-1.279, 3.907e-4
-1.280, 3.982e-4
-1.281, 4.055e-4
-1.282, 4.131e-4
-1.283, 4.205e-4
-1.284, 4.286e-4
-1.285, 4.368e-4
-1.286, 4.451e-4
-1.287, 4.537e-4
-1.288, 4.615e-4
-1.289, 4.705e-4
-1.290, 4.785e-4
-1.291, 4.870e-4
-1.292, 4.966e-4
-1.293, 5.056e-4
-1.294, 5.146e-4
-1.295, 5.247e-4
-1.296, 5.330e-4
-1.297, 5.434e-4
-1.298, 5.531e-4
-1.299, 5.624e-4
-1.300, 5.728e-4
-1.301, 5.832e-4
-1.302, 5.936e-4
-1.303, 6.044e-4
-1.304, 6.149e-4
-1.305, 6.255e-4
-1.306, 6.369e-4
-1.307, 6.475e-4
-1.308, 6.583e-4
-1.309, 6.690e-4
-1.310, 6.810e-4
-1.311, 6.924e-4
-1.312, 7.042e-4
-1.313, 7.157e-4
-1.314, 7.273e-4
-1.315, 7.394e-4
-1.316, 7.526e-4
-1.317, 7.648e-4
-1.318, 7.766e-4
-1.319, 7.902e-4
-1.320, 8.045e-4
-1.321, 8.171e-4
-1.322, 8.300e-4
-1.323, 8.426e-4
-1.324, 8.558e-4
-1.325, 8.696e-4
-1.326, 8.834e-4
-1.327, 8.985e-4
-1.328, 9.123e-4
-1.329, 9.278e-4
-1.330, 9.405e-4
-1.331, 9.541e-4
-1.332, 9.684e-4
-1.333, 9.818e-4
-1.334, 9.966e-4
-1.335, 1.013e-3
-1.336, 1.028e-3
-1.337, 1.043e-3
-1.338, 1.058e-3
-1.339, 1.072e-3
-1.340, 1.089e-3
-1.341, 1.105e-3
-1.342, 1.120e-3
-1.343, 1.136e-3
-1.344, 1.153e-3
-1.345, 1.169e-3
-1.346, 1.185e-3
-1.347, 1.201e-3
-1.348, 1.218e-3
-1.349, 1.234e-3
-1.350, 1.250e-3
-1.351, 1.267e-3
-1.352, 1.285e-3
-1.353, 1.300e-3
-1.354, 1.316e-3
-1.355, 1.334e-3
-1.356, 1.353e-3
-1.357, 1.368e-3
-1.358, 1.387e-3
-1.359, 1.407e-3
-1.360, 1.423e-3
-1.361, 1.443e-3
-1.362, 1.461e-3
-1.363, 1.478e-3
-1.364, 1.498e-3
-1.365, 1.515e-3
-1.366, 1.535e-3
-1.367, 1.552e-3
-1.368, 1.571e-3
-1.369, 1.592e-3
-1.370, 1.610e-3
-1.371, 1.629e-3
-1.372, 1.649e-3
-1.373, 1.666e-3
-1.374, 1.688e-3
-1.375, 1.707e-3
-1.376, 1.725e-3
-1.377, 1.747e-3
-1.378, 1.768e-3
-1.379, 1.786e-3
-1.380, 1.807e-3
-1.381, 1.826e-3
-1.382, 1.846e-3
-1.383, 1.867e-3
-1.384, 1.886e-3
-1.385, 1.908e-3
-1.386, 1.925e-3
-1.387, 1.947e-3
-1.388, 1.966e-3
-1.389, 1.984e-3
-1.390, 2.005e-3
-1.391, 2.030e-3
-1.392, 2.054e-3
-1.393, 2.074e-3
-1.394, 2.097e-3
-1.395, 2.117e-3
-1.396, 2.139e-3
-1.397, 2.161e-3
-1.398, 2.183e-3
-1.399, 2.205e-3
-1.400, 2.229e-3
-1.401, 2.249e-3
-1.402, 2.270e-3
-1.403, 2.299e-3
-1.404, 2.321e-3
-1.405, 2.348e-3
-1.406, 2.366e-3
-1.407, 2.389e-3
-1.408, 2.412e-3
-1.409, 2.432e-3
-1.410, 2.451e-3
-1.411, 2.472e-3
-1.412, 2.499e-3
-1.413, 2.522e-3
-1.414, 2.543e-3
-1.415, 2.566e-3
-1.416, 2.592e-3
-1.417, 2.615e-3
-1.418, 2.641e-3
-1.419, 2.661e-3
-1.420, 2.693e-3
-1.421, 2.721e-3
-1.422, 2.738e-3
-1.423, 2.771e-3
-1.424, 2.791e-3
-1.425, 2.809e-3
-1.426, 2.839e-3
-1.427, 2.845e-3
-1.428, 2.844e-3
-1.429, 2.865e-3
-1.430, 2.858e-3
-1.431, 2.848e-3
-1.432, 2.871e-3
-1.433, 2.885e-3
-1.434, 2.915e-3
-1.435, 2.927e-3
-1.436, 2.949e-3
-1.437, 2.974e-3
-1.438, 2.993e-3
-1.439, 3.021e-3
-1.440, 3.043e-3
-1.441, 3.064e-3
-1.442, 3.083e-3
-1.443, 3.101e-3
-1.444, 3.123e-3
-1.445, 3.136e-3
-1.446, 3.171e-3
-1.447, 3.197e-3
-1.448, 3.215e-3
-1.449, 3.257e-3
-1.450, 3.272e-3
-1.451, 3.295e-3
-1.452, 3.321e-3
-1.453, 3.350e-3
-1.454, 3.380e-3
-1.455, 3.406e-3
-1.456, 3.419e-3
-1.457, 3.438e-3
-1.458, 3.449e-3
-1.459, 3.487e-3
-1.460, 3.498e-3
-1.461, 3.517e-3
-1.462, 3.533e-3
-1.463, 3.545e-3
-1.464, 3.560e-3
-1.465, 3.583e-3
-1.466, 3.610e-3
-1.467, 3.628e-3
-1.468, 3.644e-3
-1.469, 3.664e-3
-1.470, 3.694e-3
-1.471, 3.720e-3
-1.472, 3.743e-3
-1.473, 3.754e-3
-1.474, 3.796e-3
-1.475, 3.754e-3
-1.476, 3.765e-3
-1.477, 3.785e-3
-1.478, 3.799e-3
-1.479, 3.871e-3
-1.480, 3.876e-3
-1.481, 3.901e-3
-1.482, 3.921e-3
-1.483, 3.923e-3
-1.484, 3.936e-3
-1.485, 3.959e-3
-1.486, 3.982e-3
-1.487, 4.014e-3
-1.488, 4.035e-3
-1.489, 4.046e-3
-1.490, 4.064e-3
-1.491, 4.085e-3
-1.492, 4.108e-3
-1.493, 4.116e-3
-1.494, 4.166e-3
-1.495, 4.190e-3
-1.496, 4.192e-3
-1.497, 4.203e-3
-1.498, 4.214e-3
-1.499, 4.235e-3
-1.500, 4.232e-3
-1.499, 4.250e-3
-1.498, 4.191e-3
-1.497, 4.151e-3
-1.496, 4.109e-3
-1.495, 4.087e-3
-1.494, 4.049e-3
-1.493, 4.004e-3
-1.492, 3.959e-3
-1.491, 3.908e-3
-1.490, 3.869e-3
-1.489, 3.840e-3
-1.488, 3.798e-3
-1.487, 3.760e-3
-1.486, 3.725e-3
-1.485, 3.684e-3
-1.484, 3.651e-3
-1.483, 3.625e-3
-1.482, 3.582e-3
-1.481, 3.554e-3
-1.480, 3.524e-3
-1.479, 3.469e-3
-1.478, 3.423e-3
-1.477, 3.402e-3
-1.476, 3.373e-3
-1.475, 3.337e-3
-1.474, 3.323e-3
-1.473, 3.337e-3
-1.472, 3.288e-3
-1.471, 3.230e-3
-1.470, 3.198e-3
-1.469, 3.287e-3
-1.468, 3.203e-3
-1.467, 3.167e-3
-1.466, 3.135e-3
-1.465, 3.114e-3
-1.464, 3.086e-3
-1.463, 3.051e-3
-1.462, 3.024e-3
-1.461, 2.999e-3
-1.460, 3.057e-3
-1.459, 3.015e-3
-1.458, 2.995e-3
-1.457, 3.047e-3
-1.456, 2.947e-3
-1.455, 2.915e-3
-1.454, 2.887e-3
-1.453, 2.843e-3
-1.452, 2.815e-3
-1.451, 2.795e-3
-1.450, 2.777e-3
-1.449, 2.776e-3
-1.448, 2.888e-3
-1.447, 2.796e-3
-1.446, 2.758e-3
-1.445, 2.727e-3
-1.444, 2.690e-3
-1.443, 2.675e-3
-1.442, 2.666e-3
-1.441, 2.637e-3
-1.440, 2.611e-3
-1.439, 2.579e-3
-1.438, 2.552e-3
-1.437, 2.524e-3
-1.436, 2.506e-3
-1.435, 2.469e-3
-1.434, 2.440e-3
-1.433, 2.428e-3
-1.432, 2.409e-3
-1.431, 2.387e-3
-1.430, 2.346e-3
-1.429, 2.322e-3
-1.428, 2.292e-3
-1.427, 2.269e-3
-1.426, 2.245e-3
-1.425, 2.226e-3
-1.424, 2.203e-3
-1.423, 2.173e-3
-1.422, 2.148e-3
-1.421, 2.123e-3
-1.420, 2.102e-3
-1.419, 2.078e-3
-1.418, 2.055e-3
-1.417, 2.030e-3
-1.416, 2.002e-3
-1.415, 1.982e-3
-1.414, 1.954e-3
-1.413, 1.934e-3
-1.412, 1.915e-3
-1.411, 1.905e-3
-1.410, 1.877e-3
-1.409, 1.850e-3
-1.408, 1.831e-3
-1.407, 1.808e-3
-1.406, 1.792e-3
-1.405, 1.776e-3
-1.404, 1.756e-3
-1.403, 1.736e-3
-1.402, 1.717e-3
-1.401, 1.691e-3
-1.400, 1.699e-3
-1.399, 1.679e-3
-1.398, 1.668e-3
-1.397, 1.643e-3
-1.396, 1.621e-3
-1.395, 1.597e-3
-1.394, 1.576e-3
-1.393, 1.549e-3
-1.392, 1.542e-3
-1.391, 1.537e-3
-1.390, 1.535e-3
-1.389, 1.517e-3
-1.388, 1.478e-3
-1.387, 1.448e-3
-1.386, 1.423e-3
-1.385, 1.415e-3
-1.384, 1.393e-3
-1.383, 1.384e-3
-1.382, 1.374e-3
-1.381, 1.361e-3
-1.380, 1.348e-3
-1.379, 1.307e-3
-1.378, 1.299e-3
-1.377, 1.278e-3
-1.376, 1.270e-3
-1.375, 1.302e-3
-1.374, 1.246e-3
-1.373, 1.233e-3
-1.372, 1.213e-3
-1.371, 1.184e-3
-1.370, 1.174e-3
-1.369, 1.157e-3
-1.368, 1.146e-3
-1.367, 1.131e-3
-1.366, 1.127e-3
-1.365, 1.116e-3
-1.364, 1.099e-3
-1.363, 1.077e-3
-1.362, 1.063e-3
-1.361, 1.043e-3
-1.360, 1.029e-3
-1.359, 1.015e-3
-1.358, 1.014e-3
-1.357, 1.013e-3
-1.356, 1.002e-3
-1.355, 9.756e-4
-1.354, 9.611e-4
-1.353, 9.468e-4
-1.352, 9.314e-4
-1.351, 9.177e-4
-1.350, 9.025e-4
-1.349, 8.927e-4
-1.348, 8.834e-4
-1.347, 8.828e-4
-1.346, 8.543e-4
-1.345, 8.550e-4
-1.344, 8.430e-4
-1.343, 8.244e-4
-1.342, 8.081e-4
-1.341, 7.952e-4
-1.340, 7.978e-4
-1.339, 8.101e-4
-1.338, 7.871e-4
-1.337, 7.741e-4
-1.336, 7.618e-4
-1.335, 7.697e-4
-1.334, 7.531e-4
-1.333, 7.414e-4
-1.332, 7.283e-4
-1.331, 7.162e-4
-1.330, 7.021e-4
-1.329, 6.887e-4
-1.328, 6.774e-4
-1.327, 6.665e-4
-1.326, 6.568e-4
-1.325, 6.470e-4
-1.324, 6.368e-4
-1.323, 6.252e-4
-1.322, 6.144e-4
-1.321, 6.014e-4
-1.320, 5.897e-4
-1.319, 5.782e-4
-1.318, 5.703e-4
-1.317, 5.637e-4
-1.316, 5.519e-4
-1.315, 5.421e-4
-1.314, 5.312e-4
-1.313, 5.231e-4
-1.312, 5.132e-4
-1.311, 5.035e-4
-1.310, 4.953e-4
-1.309, 4.869e-4
-1.308, 4.784e-4
-1.307, 4.708e-4
-1.306, 4.613e-4
-1.305, 4.522e-4
-1.304, 4.438e-4
-1.303, 4.354e-4
-1.302, 4.272e-4
-1.301, 4.191e-4
-1.300, 4.121e-4
-1.299, 4.026e-4
-1.298, 3.956e-4
-1.297, 3.884e-4
-1.296, 3.801e-4
-1.295, 3.728e-4
-1.294, 3.659e-4
-1.293, 3.584e-4
-1.292, 3.512e-4
-1.291, 3.439e-4
-1.290, 3.356e-4
-1.289, 3.293e-4
-1.288, 3.229e-4
-1.287, 3.157e-4
-1.286, 3.093e-4
-1.285, 3.029e-4
-1.284, 2.952e-4
-1.283, 2.905e-4
-1.282, 2.823e-4
-1.281, 2.770e-4
-1.280, 2.694e-4
-1.279, 2.635e-4
-1.278, 2.570e-4
-1.277, 2.514e-4
-1.276, 2.458e-4
-1.275, 2.408e-4
-1.274, 2.342e-4
-1.273, 2.285e-4
-1.272, 2.232e-4
-1.271, 2.192e-4
-1.270, 2.124e-4
-1.269, 2.072e-4
-1.268, 2.013e-4
-1.267, 1.957e-4
-1.266, 1.909e-4
-1.265, 1.864e-4
-1.264, 1.823e-4
-1.263, 1.770e-4
-1.262, 1.712e-4
-1.261, 1.662e-4
-1.260, 1.618e-4
-1.259, 1.573e-4
-1.258, 1.525e-4
-1.257, 1.482e-4
-1.256, 1.438e-4
-1.255, 1.395e-4
-1.254, 1.349e-4
-1.253, 1.308e-4
-1.252, 1.266e-4
-1.251, 1.256e-4
-1.250, 1.200e-4
-1.249, 1.159e-4
-1.248, 1.115e-4
-1.247, 1.079e-4
-1.246, 1.035e-4
-1.245, 1.000e-4
-1.244, 9.650e-5
-1.243, 9.273e-5
-1.242, 8.915e-5
-1.241, 8.572e-5
-1.240, 8.261e-5
-1.239, 7.931e-5
-1.238, 7.601e-5
-1.237, 7.247e-5
-1.236, 6.952e-5
-1.235, 6.652e-5
-1.234, 6.344e-5
-1.233, 6.026e-5
-1.232, 5.808e-5
-1.231, 5.449e-5
-1.230, 5.169e-5
-1.229, 4.866e-5
-1.228, 4.607e-5
-1.227, 4.353e-5
-1.226, 4.107e-5
-1.225, 3.834e-5
-1.224, 3.601e-5
-1.223, 3.342e-5
-1.222, 3.094e-5
-1.221, 2.868e-5
-1.220, 2.660e-5
-1.219, 2.445e-5
-1.218, 2.221e-5
-1.217, 1.957e-5
-1.216, 1.752e-5
-1.215, 1.565e-5
-1.214, 1.361e-5
-1.213, 1.172e-5
-1.212, 9.729e-6
-1.211, 7.838e-6
-1.210, 6.142e-6
-1.209, 4.185e-6
-1.208, 2.491e-6
-1.207, 7.151e-7
-1.206, -1.059e-6
-1.205, -2.544e-6
-1.204, -4.119e-6
-1.203, -5.744e-6
-1.202, -7.248e-6
-1.201, -8.903e-6
-1.200, -9.964e-6
-1.199, -1.146e-5
-1.198, -1.309e-5
-1.197, -1.433e-5
-1.196, -1.575e-5
-1.195, -1.693e-5
-1.194, -1.812e-5
-1.193, -1.943e-5
-1.192, -2.053e-5
-1.191, -2.161e-5
-1.190, -2.280e-5
-1.189, -2.373e-5
-1.188, -2.506e-5
-1.187, -2.611e-5
-1.186, -2.706e-5
-1.185, -2.800e-5
-1.184, -2.878e-5
-1.183, -2.996e-5
-1.182, -3.085e-5
-1.181, -3.167e-5
-1.180, -3.238e-5
-1.179, -3.332e-5
-1.178, -3.431e-5
-1.177, -3.517e-5
-1.176, -3.584e-5
-1.175, -3.643e-5
-1.174, -3.714e-5
-1.173, -3.775e-5
-1.172, -3.854e-5
-1.171, -3.908e-5
-1.170, -3.994e-5
-1.169, -4.048e-5
-1.168, -4.098e-5
-1.167, -4.162e-5
-1.166, -4.262e-5
-1.165, -4.321e-5
-1.164, -4.346e-5
-1.163, -4.404e-5
-1.162, -4.422e-5
-1.161, -4.494e-5
-1.160, -4.523e-5
-1.159, -4.591e-5
-1.158, -4.654e-5
-1.157, -4.698e-5
-1.156, -4.763e-5
-1.155, -4.751e-5
-1.154, -4.764e-5
-1.153, -4.843e-5
-1.152, -4.874e-5
-1.151, -4.941e-5
-1.150, -4.980e-5
-1.149, -4.977e-5
-1.148, -5.029e-5
-1.147, -5.051e-5
-1.146, -5.094e-5
-1.145, -5.100e-5
-1.144, -5.124e-5
-1.143, -5.158e-5
-1.142, -5.208e-5
-1.141, -5.221e-5
-1.140, -5.244e-5
-1.139, -5.268e-5
-1.138, -5.279e-5
-1.137, -5.321e-5
-1.136, -5.359e-5
-1.135, -5.365e-5
-1.134, -5.402e-5
-1.133, -5.432e-5
-1.132, -6.289e-5
-1.131, -5.867e-5
-1.130, -5.740e-5
-1.129, -5.703e-5
-1.128, -5.708e-5
-1.127, -5.725e-5
-1.126, -5.749e-5
-1.125, -5.712e-5
-1.124, -5.710e-5
-1.123, -5.730e-5
-1.122, -5.741e-5
-1.121, -5.755e-5
-1.120, -5.748e-5
-1.119, -5.747e-5
-1.118, -5.756e-5
-1.117, -5.748e-5
-1.116, -5.775e-5
-1.115, -5.757e-5
-1.114, -5.750e-5
-1.113, -5.770e-5
-1.112, -5.802e-5
-1.111, -5.807e-5
-1.110, -5.801e-5
-1.109, -5.780e-5
-1.108, -5.800e-5
-1.107, -5.817e-5
-1.106, -5.826e-5
-1.105, -5.819e-5
-1.104, -5.817e-5
-1.103, -5.818e-5
-1.102, -5.846e-5
-1.101, -5.849e-5
-1.100, -5.842e-5
-1.099, -5.838e-5
-1.098, -5.846e-5
-1.097, -5.872e-5
-1.096, -5.868e-5
-1.095, -5.863e-5
-1.094, -5.860e-5
-1.093, -5.868e-5
-1.092, -5.889e-5
-1.091, -5.895e-5
-1.090, -5.890e-5
-1.089, -5.911e-5
-1.088, -5.894e-5
-1.087, -5.911e-5
-1.086, -5.912e-5
-1.085, -5.902e-5
-1.084, -5.893e-5
-1.083, -5.932e-5
-1.082, -5.942e-5
-1.081, -5.966e-5
-1.080, -5.946e-5
-1.079, -5.947e-5
-1.078, -5.966e-5
-1.077, -5.958e-5
-1.076, -5.982e-5
-1.075, -5.970e-5
-1.074, -5.958e-5
-1.073, -5.979e-5
-1.072, -5.972e-5
-1.071, -5.985e-5
-1.070, -5.983e-5
-1.069, -5.969e-5
-1.068, -5.987e-5
-1.067, -5.992e-5
-1.066, -5.998e-5
-1.065, -5.997e-5
-1.064, -6.003e-5
-1.063, -6.137e-5
-1.062, -6.211e-5
-1.061, -6.116e-5
-1.060, -6.081e-5
-1.059, -6.076e-5
-1.058, -6.076e-5
-1.057, -6.074e-5
-1.056, -6.075e-5
-1.055, -6.092e-5
-1.054, -6.096e-5
-1.053, -6.085e-5
-1.052, -6.076e-5
-1.051, -6.084e-5
-1.050, -6.058e-5
-1.049, -6.083e-5
-1.048, -6.067e-5
-1.047, -6.083e-5
-1.046, -6.099e-5
-1.045, -6.055e-5
-1.044, -6.066e-5
-1.043, -6.058e-5
-1.042, -6.067e-5
-1.041, -6.092e-5
-1.040, -6.056e-5
-1.039, -6.043e-5
-1.038, -6.069e-5
-1.037, -6.064e-5
-1.036, -6.066e-5
-1.035, -6.066e-5
-1.034, -6.042e-5
-1.033, -6.066e-5
-1.032, -6.060e-5
-1.031, -6.071e-5
-1.030, -6.080e-5
-1.029, -6.041e-5
-1.028, -6.060e-5
-1.027, -6.076e-5
-1.026, -6.071e-5
-1.025, -6.060e-5
-1.024, -6.063e-5
-1.023, -6.059e-5
-1.022, -6.077e-5
-1.021, -6.082e-5
-1.020, -6.075e-5
-1.019, -6.076e-5
-1.018, -6.086e-5
-1.017, -6.115e-5
-1.016, -6.100e-5
-1.015, -6.081e-5
-1.014, -6.090e-5
-1.013, -6.085e-5
-1.012, -6.107e-5
-1.011, -6.123e-5
-1.010, -6.111e-5
-1.009, -6.120e-5
-1.008, -6.112e-5
-1.007, -6.135e-5
-1.006, -6.138e-5
-1.005, -6.118e-5
-1.004, -6.127e-5
-1.003, -6.138e-5
-1.002, -6.153e-5
-1.001, -6.159e-5
-1.000, -3.613e-5
-1.001, -1.867e-5
-1.002, -1.542e-5
-1.003, -1.353e-5
-1.004, -1.194e-5
-1.005, -1.058e-5
-1.006, -9.479e-6
-1.007, -8.427e-6
-1.008, -7.799e-6
-1.009, -6.766e-6
-1.010, -5.857e-6
-1.011, -5.011e-6
-1.012, -4.231e-6
-1.013, -3.790e-6
-1.014, -2.923e-6
-1.015, -2.024e-6
-1.016, -1.405e-6
-1.017, -8.556e-7
-1.018, -3.830e-7
-1.019, 8.465e-8
-1.020, 9.016e-7
-1.021, 1.432e-6
-1.022, 1.839e-6
-1.023, 2.441e-6
-1.024, 2.897e-6
-1.025, 3.380e-6
-1.026, 3.984e-6
-1.027, 4.235e-6
-1.028, 4.871e-6
-1.029, 4.920e-6
-1.030, 5.629e-6
-1.031, 6.067e-6
-1.032, 6.314e-6
-1.033, 6.547e-6
-1.034, 7.123e-6
-1.035, 7.467e-6
-1.036, 8.009e-6
-1.037, 8.220e-6
-1.038, 8.432e-6
-1.039, 8.900e-6
-1.040, 9.221e-6
-1.041, 9.553e-6
-1.042, 9.920e-6
-1.043, 9.971e-6
-1.044, 1.047e-5
-1.045, 1.074e-5
-1.046, 1.118e-5
-1.047, 1.141e-5
-1.048, 1.157e-5
-1.049, 1.188e-5
-1.050, 1.233e-5
-1.051, 1.252e-5
-1.052, 1.285e-5
-1.053, 1.285e-5
-1.054, 1.306e-5
-1.055, 1.347e-5
-1.056, 1.376e-5
-1.057, 1.395e-5
-1.058, 1.412e-5
-1.059, 1.406e-5
-1.060, 1.466e-5
-1.061, 1.486e-5
-1.062, 1.508e-5
-1.063, 1.527e-5
-1.064, 1.525e-5
-1.065, 1.559e-5
-1.066, 1.600e-5
-1.067, 1.614e-5
-1.068, 1.626e-5
-1.069, 1.648e-5
-1.070, 1.648e-5
-1.071, 1.705e-5
-1.072, 1.727e-5
-1.073, 1.714e-5
-1.074, 1.748e-5
-1.075, 1.782e-5
-1.076, 1.795e-5
-1.077, 1.815e-5
-1.078, 1.808e-5
-1.079, 1.845e-5
-1.080, 1.853e-5
-1.081, 1.888e-5
-1.082, 1.908e-5
-1.083, 1.901e-5
-1.084, 1.933e-5
-1.085, 1.951e-5
-1.086, 1.971e-5
-1.087, 2.005e-5
-1.088, 1.989e-5
-1.089, 2.004e-5
-1.090, 2.044e-5
-1.091, 2.058e-5
-1.092, 2.090e-5
-1.093, 2.087e-5
-1.094, 2.099e-5
-1.095, 2.139e-5
-1.096, 2.132e-5
-1.097, 2.157e-5
-1.098, 2.182e-5
-1.099, 2.180e-5
-1.100, 2.211e-5
-1.101, 2.245e-5
-1.102, 2.255e-5
-1.103, 2.265e-5
-1.104, 2.261e-5
-1.105, 2.294e-5
-1.106, 2.323e-5
-1.107, 2.327e-5
-1.108, 2.341e-5
-1.109, 2.349e-5
-1.110, 2.383e-5
-1.111, 2.425e-5
-1.112, 2.433e-5
-1.113, 2.448e-5
-1.114, 2.456e-5
-1.115, 2.476e-5
-1.116, 2.523e-5
-1.117, 2.521e-5
-1.118, 2.532e-5
-1.119, 2.566e-5
-1.120, 2.585e-5
-1.121, 2.618e-5
-1.122, 2.642e-5
-1.123, 2.635e-5
-1.124, 2.669e-5
-1.125, 2.689e-5
-1.126, 2.737e-5
-1.127, 2.749e-5
-1.128, 2.751e-5
-1.129, 2.779e-5
-1.130, 2.826e-5
-1.131, 2.848e-5
-1.132, 2.885e-5
-1.133, 2.875e-5
-1.134, 2.904e-5
-1.135, 2.966e-5
-1.136, 2.980e-5
-1.137, 3.001e-5
-1.138, 3.031e-5
-1.139, 3.035e-5
-1.140, 3.097e-5
-1.141, 3.132e-5
-1.142, 3.166e-5
-1.143, 3.183e-5
-1.144, 3.196e-5
-1.145, 3.260e-5
-1.146, 3.305e-5
-1.147, 3.332e-5
-1.148, 3.357e-5
-1.149, 3.390e-5
-1.150, 3.437e-5
-1.151, 3.498e-5
-1.152, 3.517e-5
-1.153, 3.538e-5
-1.154, 3.596e-5
-1.155, 3.646e-5
-1.156, 3.704e-5
-1.157, 3.747e-5
-1.158, 3.782e-5
-1.159, 3.830e-5
-1.160, 3.877e-5
-1.161, 3.943e-5
-1.162, 3.994e-5
-1.163, 4.090e-5
-1.164, 4.114e-5
-1.165, 4.144e-5
-1.166, 4.226e-5
-1.167, 4.299e-5
-1.168, 4.321e-5
-1.169, 4.377e-5
-1.170, 4.461e-5
-1.171, 4.525e-5
-1.172, 4.613e-5
-1.173, 4.643e-5
-1.174, 4.697e-5
-1.175, 4.805e-5
-1.176, 4.872e-5
-1.177, 4.976e-5
-1.178, 5.042e-5
-1.179, 5.087e-5
-1.180, 5.197e-5
-1.181, 5.270e-5
-1.182, 5.377e-5
-1.183, 5.460e-5
-1.184, 5.578e-5
-1.185, 5.657e-5
-1.186, 5.736e-5
-1.187, 5.838e-5
-1.188, 5.934e-5
-1.189, 6.025e-5
-1.190, 6.139e-5
-1.191, 6.279e-5
-1.192, 6.367e-5
-1.193, 6.473e-5
-1.194, 6.584e-5
-1.195, 6.718e-5
-1.196, 6.857e-5
-1.197, 6.963e-5
-1.198, 7.080e-5
-1.199, 7.216e-5
-1.200, 7.351e-5
-1.201, 7.493e-5
-1.202, 7.645e-5
-1.203, 7.771e-5
-1.204, 7.911e-5
-1.205, 8.081e-5
-1.206, 8.232e-5
-1.207, 8.413e-5
-1.208, 8.531e-5
-1.209, 8.720e-5
-1.210, 8.890e-5
-1.211, 9.061e-5
-1.212, 9.242e-5
-1.213, 9.415e-5
-1.214, 9.595e-5
-1.215, 9.805e-5
-1.216, 9.993e-5
-1.217, 1.019e-4
-1.218, 1.040e-4
-1.219, 1.058e-4
-1.220, 1.082e-4
-1.221, 1.103e-4
-1.222, 1.125e-4
-1.223, 1.148e-4
-1.224, 1.169e-4
-1.225, 1.194e-4
-1.226, 1.220e-4
-1.227, 1.243e-4
-1.228, 1.270e-4
-1.229, 1.297e-4
-1.230, 1.322e-4
-1.231, 1.346e-4
-1.232, 1.375e-4
-1.233, 1.402e-4
-1.234, 1.430e-4
-1.235, 1.459e-4
-1.236, 1.490e-4
-1.237, 1.518e-4
-1.238, 1.549e-4
-1.239, 1.583e-4
-1.240, 1.612e-4
-1.241, 1.645e-4
-1.242, 1.681e-4
-1.243, 1.710e-4
-1.244, 1.745e-4
-1.245, 1.782e-4
-1.246, 1.818e-4
-1.247, 1.856e-4
-1.248, 1.890e-4
-1.249, 1.929e-4
-1.250, 1.968e-4
-1.251, 2.008e-4
-1.252, 2.049e-4
-1.253, 2.088e-4
-1.254, 2.127e-4
-1.255, 2.172e-4
-1.256, 2.215e-4
-1.257, 2.260e-4
-1.258, 2.305e-4
-1.259, 2.347e-4
-1.260, 2.395e-4
-1.261, 2.441e-4
-1.262, 2.487e-4
-1.263, 2.537e-4
-1.264, 2.583e-4
-1.265, 2.637e-4
-1.266, 2.689e-4
-1.267, 2.740e-4
-1.268, 2.796e-4
-1.269, 2.845e-4
-1.270, 2.901e-4
-1.271, 2.963e-4
-1.272, 3.009e-4
-1.273, 3.066e-4
-1.274, 3.127e-4
-1.275, 3.192e-4
-1.276, 3.252e-4
-1.277, 3.310e-4
-1.278, 3.374e-4
-1.279, 3.438e-4
-1.280, 3.505e-4
-1.281, 3.566e-4
-1.282, 3.635e-4
-1.283, 3.701e-4
-1.284, 3.772e-4
-1.285, 3.844e-4
-1.286, 3.913e-4
-1.287, 3.986e-4
-1.288, 4.054e-4
-1.289, 4.132e-4
-1.290, 4.208e-4
-1.291, 4.286e-4
-1.292, 4.362e-4
-1.293, 4.437e-4
-1.294, 4.518e-4
-1.295, 4.599e-4
-1.296, 4.680e-4
-1.297, 4.766e-4
-1.298, 4.852e-4
-1.299, 4.938e-4
-1.300, 5.030e-4
-1.301, 5.115e-4
-1.302, 5.205e-4
-1.303, 5.301e-4
-1.304, 5.391e-4
-1.305, 5.487e-4
-1.306, 5.580e-4
-1.307, 5.676e-4
-1.308, 5.768e-4
-1.309, 5.867e-4
-1.310, 5.971e-4
-1.311, 6.073e-4
-1.312, 6.181e-4
-1.313, 6.281e-4
-1.314, 6.390e-4
-1.315, 6.495e-4
-1.316, 6.601e-4
-1.317, 6.707e-4
-1.318, 6.815e-4
-1.319, 6.927e-4
-1.320, 7.045e-4
-1.321, 7.166e-4
-1.322, 7.288e-4
-1.323, 7.404e-4
-1.324, 7.529e-4
-1.325, 7.642e-4
-1.326, 7.777e-4
-1.327, 7.887e-4
-1.328, 8.019e-4
-1.329, 8.136e-4
-1.330, 8.274e-4
-1.331, 8.391e-4
-1.332, 8.518e-4
-1.333, 8.652e-4
-1.334, 8.775e-4
-1.335, 8.908e-4
-1.336, 9.027e-4
-1.337, 9.158e-4
-1.338, 9.297e-4
-1.339, 9.434e-4
-1.340, 9.567e-4
-1.341, 9.704e-4
-1.342, 9.847e-4
-1.343, 9.996e-4
-1.344, 1.014e-3
-1.345, 1.027e-3
-1.346, 1.042e-3
-1.347, 1.055e-3
-1.348, 1.069e-3
-1.349, 1.084e-3
-1.350, 1.098e-3
-1.351, 1.113e-3
-1.352, 1.129e-3
-1.353, 1.143e-3
-1.354, 1.156e-3
-1.355, 1.172e-3
-1.356, 1.188e-3
-1.357, 1.203e-3
-1.358, 1.219e-3
-1.359, 1.235e-3
-1.360, 1.249e-3
-1.361, 1.266e-3
-1.362, 1.282e-3
-1.363, 1.299e-3
-1.364, 1.316e-3
-1.365, 1.331e-3
-1.366, 1.346e-3
-1.367, 1.362e-3
-1.368, 1.379e-3
-1.369, 1.395e-3
-1.370, 1.412e-3
-1.371, 1.428e-3
-1.372, 1.446e-3
-1.373, 1.461e-3
-1.374, 1.478e-3
-1.375, 1.497e-3
-1.376, 1.511e-3
-1.377, 1.528e-3
-1.378, 1.549e-3
-1.379, 1.563e-3
-1.380, 1.582e-3
-1.381, 1.598e-3
-1.382, 1.615e-3
-1.383, 1.635e-3
-1.384, 1.654e-3
-1.385, 1.670e-3
-1.386, 1.688e-3
-1.387, 1.711e-3
-1.388, 1.727e-3
-1.389, 1.746e-3
-1.390, 1.762e-3
-1.391, 1.779e-3
-1.392, 1.806e-3
-1.393, 1.815e-3
-1.394, 1.839e-3
-1.395, 1.858e-3
-1.396, 1.876e-3
-1.397, 1.894e-3
-1.398, 1.912e-3
-1.399, 1.929e-3
-1.400, 1.945e-3
-1.401, 1.962e-3
-1.402, 1.979e-3
-1.403, 2.000e-3
-1.404, 2.022e-3
-1.405, 2.041e-3
-1.406, 2.074e-3
-1.407, 2.081e-3
-1.408, 2.098e-3
-1.409, 2.117e-3
-1.410, 2.132e-3
-1.411, 2.151e-3
-1.412, 2.174e-3
-1.413, 2.194e-3
-1.414, 2.214e-3
-1.415, 2.231e-3
-1.416, 2.258e-3
-1.417, 2.276e-3
-1.418, 2.295e-3
-1.419, 2.316e-3
-1.420, 2.335e-3
-1.421, 2.349e-3
-1.422, 2.372e-3
-1.423, 2.394e-3
-1.424, 2.423e-3
-1.425, 2.440e-3
-1.426, 2.458e-3
-1.427, 2.482e-3
-1.428, 2.493e-3
-1.429, 2.517e-3
-1.430, 2.540e-3
-1.431, 2.568e-3
-1.432, 2.549e-3
-1.433, 2.482e-3
-1.434, 2.473e-3
-1.435, 2.511e-3
-1.436, 2.528e-3
-1.437, 2.565e-3
-1.438, 2.607e-3
-1.439, 2.602e-3
-1.440, 2.605e-3
-1.441, 2.628e-3
-1.442, 2.640e-3
-1.443, 2.654e-3
-1.444, 2.673e-3
-1.445, 2.690e-3
-1.446, 2.722e-3
-1.447, 2.734e-3
-1.448, 2.743e-3
-1.449, 2.754e-3
-1.450, 2.774e-3
-1.451, 2.796e-3
-1.452, 2.813e-3
-1.453, 2.837e-3
-1.454, 2.859e-3
-1.455, 2.880e-3
-1.456, 2.905e-3
-1.457, 2.919e-3
-1.458, 2.944e-3
-1.459, 2.958e-3
-1.460, 2.971e-3
-1.461, 2.985e-3
-1.462, 3.006e-3
-1.463, 3.035e-3
-1.464, 3.073e-3
-1.465, 3.094e-3
-1.466, 3.100e-3
-1.467, 3.113e-3
-1.468, 3.137e-3
-1.469, 3.148e-3
-1.470, 3.179e-3
-1.471, 3.190e-3
-1.472, 3.206e-3
-1.473, 3.233e-3
-1.474, 3.242e-3
-1.475, 3.262e-3
-1.476, 3.280e-3
-1.477, 3.301e-3
-1.478, 3.316e-3
-1.479, 3.349e-3
-1.480, 3.394e-3
-1.481, 3.394e-3
-1.482, 3.418e-3
-1.483, 3.425e-3
-1.484, 3.438e-3
-1.485, 3.480e-3
-1.486, 3.509e-3
-1.487, 3.515e-3
-1.488, 3.555e-3
-1.489, 3.589e-3
-1.490, 3.602e-3
-1.491, 3.612e-3
-1.492, 3.616e-3
-1.493, 3.702e-3
-1.494, 3.738e-3
-1.495, 3.751e-3
-1.496, 3.848e-3
-1.497, 3.863e-3
-1.498, 3.873e-3
-1.499, 3.906e-3
-1.500, 3.891e-3
-1.499, 3.856e-3
-1.498, 3.824e-3
-1.497, 3.774e-3
-1.496, 3.733e-3
-1.495, 3.700e-3
-1.494, 3.664e-3
-1.493, 3.624e-3
-1.492, 3.610e-3
-1.491, 3.565e-3
-1.490, 3.524e-3
-1.489, 3.499e-3
-1.488, 3.462e-3
-1.487, 3.424e-3
-1.486, 3.384e-3
-1.485, 3.353e-3
-1.484, 3.316e-3
-1.483, 3.295e-3
-1.482, 3.253e-3
-1.481, 3.221e-3
-1.480, 3.193e-3
-1.479, 3.170e-3
-1.478, 3.149e-3
-1.477, 3.120e-3
-1.476, 3.090e-3
-1.475, 3.057e-3
-1.474, 3.068e-3
-1.473, 3.045e-3
-1.472, 3.013e-3
-1.471, 3.018e-3
-1.470, 2.977e-3
-1.469, 2.933e-3
-1.468, 2.891e-3
-1.467, 2.860e-3
-1.466, 2.830e-3
-1.465, 2.788e-3
-1.464, 2.768e-3
-1.463, 2.734e-3
-1.462, 2.722e-3
-1.461, 2.686e-3
-1.460, 2.658e-3
-1.459, 2.627e-3
-1.458, 2.597e-3
-1.457, 2.576e-3
-1.456, 2.550e-3
-1.455, 2.522e-3
-1.454, 2.498e-3
-1.453, 2.473e-3
-1.452, 2.459e-3
-1.451, 2.434e-3
-1.450, 2.407e-3
-1.449, 2.383e-3
-1.448, 2.361e-3
-1.447, 2.346e-3
-1.446, 2.324e-3
-1.445, 2.296e-3
-1.444, 2.266e-3
-1.443, 2.242e-3
-1.442, 2.227e-3
-1.441, 2.206e-3
-1.440, 2.242e-3
-1.439, 2.214e-3
-1.438, 2.184e-3
-1.437, 2.154e-3
-1.436, 2.129e-3
-1.435, 2.116e-3
-1.434, 2.094e-3
-1.433, 2.067e-3
-1.432, 2.051e-3
-1.431, 2.026e-3
-1.430, 2.004e-3
-1.429, 1.981e-3
-1.428, 1.959e-3
-1.427, 1.937e-3
-1.426, 1.910e-3
-1.425, 1.887e-3
-1.424, 1.864e-3
-1.423, 1.852e-3
-1.422, 1.841e-3
-1.421, 1.814e-3
-1.420, 1.799e-3
-1.419, 1.787e-3
-1.418, 1.760e-3
-1.417, 1.732e-3
-1.416, 1.720e-3
-1.415, 1.707e-3
-1.414, 1.689e-3
-1.413, 1.674e-3
-1.412, 1.660e-3
-1.411, 1.636e-3
-1.410, 1.616e-3
-1.409, 1.593e-3
-1.408, 1.573e-3
-1.407, 1.568e-3
-1.406, 1.564e-3
-1.405, 1.567e-3
-1.404, 1.543e-3
-1.403, 1.522e-3
-1.402, 1.503e-3
-1.401, 1.484e-3
-1.400, 1.471e-3
-1.399, 1.448e-3
-1.398, 1.434e-3
-1.397, 1.420e-3
-1.396, 1.402e-3
-1.395, 1.385e-3
-1.394, 1.368e-3
-1.393, 1.352e-3
-1.392, 1.332e-3
-1.391, 1.316e-3
-1.390, 1.304e-3
-1.389, 1.284e-3
-1.388, 1.267e-3
-1.387, 1.265e-3
-1.386, 1.243e-3
-1.385, 1.229e-3
-1.384, 1.214e-3
-1.383, 1.198e-3
-1.382, 1.183e-3
-1.381, 1.165e-3
-1.380, 1.151e-3
-1.379, 1.136e-3
-1.378, 1.121e-3
-1.377, 1.107e-3
-1.376, 1.091e-3
-1.375, 1.079e-3
-1.374, 1.062e-3
-1.373, 1.051e-3
-1.372, 1.037e-3
-1.371, 1.026e-3
-1.370, 1.011e-3
-1.369, 1.003e-3
-1.368, 9.907e-4
-1.367, 9.761e-4
-1.366, 9.617e-4
-1.365, 9.543e-4
-1.364, 9.398e-4
-1.363, 9.259e-4
-1.362, 9.111e-4
-1.361, 8.964e-4
-1.360, 8.839e-4
-1.359, 8.746e-4
-1.358, 8.618e-4
-1.357, 8.488e-4
-1.356, 8.368e-4
-1.355, 8.237e-4
-1.354, 8.126e-4
-1.353, 8.023e-4
-1.352, 7.911e-4
-1.351, 7.781e-4
-1.350, 7.658e-4
-1.349, 7.559e-4
-1.348, 7.434e-4
-1.347, 7.324e-4
-1.346, 7.207e-4
-1.345, 7.184e-4
-1.344, 7.181e-4
-1.343, 6.986e-4
-1.342, 6.880e-4
-1.341, 6.774e-4
-1.340, 6.653e-4
-1.339, 6.550e-4
-1.338, 6.447e-4
-1.337, 6.336e-4
-1.336, 6.260e-4
-1.335, 6.166e-4
-1.334, 6.093e-4
-1.333, 5.967e-4
-1.332, 5.875e-4
-1.331, 5.785e-4
-1.330, 5.682e-4
-1.329, 5.586e-4
-1.328, 5.493e-4
-1.327, 5.401e-4
-1.326, 5.310e-4
-1.325, 5.229e-4
-1.324, 5.131e-4
-1.323, 5.032e-4
-1.322, 4.950e-4
-1.321, 4.870e-4
-1.320, 4.793e-4
-1.319, 4.723e-4
-1.318, 4.634e-4
-1.317, 4.549e-4
-1.316, 4.459e-4
-1.315, 4.398e-4
-1.314, 4.317e-4
-1.313, 4.241e-4
-1.312, 4.172e-4
-1.311, 4.091e-4
-1.310, 4.014e-4
-1.309, 3.941e-4
-1.308, 3.865e-4
-1.307, 3.790e-4
-1.306, 3.713e-4
-1.305, 3.667e-4
-1.304, 3.598e-4
-1.303, 3.515e-4
-1.302, 3.446e-4
-1.301, 3.380e-4
-1.300, 3.312e-4
-1.299, 3.242e-4
-1.298, 3.183e-4
-1.297, 3.115e-4
-1.296, 3.056e-4
-1.295, 3.000e-4
-1.294, 2.934e-4
-1.293, 2.876e-4
-1.292, 2.807e-4
-1.291, 2.751e-4
-1.290, 2.694e-4
-1.289, 2.633e-4
-1.288, 2.581e-4
-1.287, 2.526e-4
-1.286, 2.477e-4
-1.285, 2.420e-4
-1.284, 2.434e-4
-1.283, 2.336e-4
-1.282, 2.266e-4
-1.281, 2.217e-4
-1.280, 2.166e-4
-1.279, 2.119e-4
-1.278, 2.066e-4
-1.277, 2.016e-4
-1.276, 1.977e-4
-1.275, 1.924e-4
-1.274, 1.877e-4
-1.273, 1.831e-4
-1.272, 1.786e-4
-1.271, 1.743e-4
-1.270, 1.699e-4
-1.269, 1.654e-4
-1.268, 1.631e-4
-1.267, 1.576e-4
-1.266, 1.532e-4
-1.265, 1.492e-4
-1.264, 1.452e-4
-1.263, 1.413e-4
-1.262, 1.377e-4
-1.261, 1.337e-4
-1.260, 1.297e-4
-1.259, 1.263e-4
-1.258, 1.228e-4
-1.257, 1.188e-4
-1.256, 1.155e-4
-1.255, 1.122e-4
-1.254, 1.088e-4
-1.253, 1.056e-4
-1.252, 1.023e-4
-1.251, 9.900e-5
-1.250, 9.599e-5
-1.249, 9.292e-5
-1.248, 8.999e-5
-1.247, 8.706e-5
-1.246, 8.398e-5
-1.245, 8.133e-5
-1.244, 7.863e-5
-1.243, 7.564e-5
-1.242, 7.293e-5
-1.241, 7.013e-5
-1.240, 6.777e-5
-1.239, 6.530e-5
-1.238, 6.272e-5
-1.237, 6.022e-5
-1.236, 5.781e-5
-1.235, 5.538e-5
-1.234, 5.333e-5
-1.233, 5.084e-5
-1.232, 4.862e-5
-1.231, 4.861e-5
-1.230, 4.686e-5
-1.229, 4.260e-5
-1.228, 4.056e-5
-1.227, 3.840e-5
-1.226, 3.646e-5
-1.225, 3.453e-5
-1.224, 3.293e-5
-1.223, 3.108e-5
-1.222, 2.894e-5
-1.221, 2.724e-5
-1.220, 2.551e-5
-1.219, 2.392e-5
-1.218, 2.229e-5
-1.217, 2.042e-5
-1.216, 1.898e-5
-1.215, 1.739e-5
-1.214, 1.590e-5
-1.213, 1.448e-5
-1.212, 1.291e-5
-1.211, 1.142e-5
-1.210, 1.018e-5
-1.209, 8.743e-6
-1.208, 7.552e-6
-1.207, 6.086e-6
-1.206, 4.652e-6
-1.205, 3.586e-6
-1.204, 2.414e-6
-1.203, 1.245e-6
-1.202, -4.144e-9
-1.201, -1.307e-6
-1.200, -2.067e-6
-1.199, -3.165e-6
-1.198, -4.344e-6
-1.197, -5.315e-6
-1.196, -6.381e-6
-1.195, -7.396e-6
-1.194, -8.171e-6
-1.193, -9.214e-6
-1.192, -1.003e-5
-1.191, -1.103e-5
-1.190, -1.194e-5
-1.189, -1.259e-5
-1.188, -1.341e-5
-1.187, -1.424e-5
-1.186, -1.504e-5
-1.185, -1.593e-5
-1.184, -1.635e-5
-1.183, -1.718e-5
-1.182, -1.802e-5
-1.181, -1.862e-5
-1.180, -1.931e-5
-1.179, -1.997e-5
-1.178, -2.066e-5
-1.177, -2.138e-5
-1.176, -2.187e-5
-1.175, -2.237e-5
-1.174, -2.325e-5
-1.173, -2.362e-5
-1.172, -2.409e-5
-1.171, -2.482e-5
-1.170, -2.518e-5
-1.169, -2.576e-5
-1.168, -2.614e-5
-1.167, -2.653e-5
-1.166, -2.727e-5
-1.165, -2.757e-5
-1.164, -2.789e-5
-1.163, -2.835e-5
-1.162, -2.882e-5
-1.161, -2.931e-5
-1.160, -2.954e-5
-1.159, -2.994e-5
-1.158, -3.049e-5
-1.157, -3.067e-5
-1.156, -3.133e-5
-1.155, -3.163e-5
-1.154, -3.168e-5
-1.153, -3.211e-5
-1.152, -3.247e-5
-1.151, -3.293e-5
-1.150, -3.330e-5
-1.149, -3.333e-5
-1.148, -3.374e-5
-1.147, -3.417e-5
-1.146, -3.434e-5
-1.145, -3.474e-5
-1.144, -3.483e-5
-1.143, -3.506e-5
-1.142, -3.558e-5
-1.141, -3.567e-5
-1.140, -3.605e-5
-1.139, -3.615e-5
-1.138, -3.638e-5
-1.137, -3.667e-5
-1.136, -3.697e-5
-1.135, -3.715e-5
-1.134, -3.739e-5
-1.133, -3.743e-5
-1.132, -3.779e-5
-1.131, -3.816e-5
-1.130, -3.817e-5
-1.129, -3.838e-5
-1.128, -3.848e-5
-1.127, -3.865e-5
-1.126, -3.931e-5
-1.125, -3.914e-5
-1.124, -3.936e-5
-1.123, -3.948e-5
-1.122, -3.970e-5
-1.121, -4.007e-5
-1.120, -3.990e-5
-1.119, -3.998e-5
-1.118, -4.040e-5
-1.117, -4.058e-5
-1.116, -4.094e-5
-1.115, -4.100e-5
-1.114, -4.095e-5
-1.113, -4.114e-5
-1.112, -4.125e-5
-1.111, -4.155e-5
-1.110, -4.189e-5
-1.109, -4.167e-5
-1.108, -4.191e-5
-1.107, -4.217e-5
-1.106, -4.230e-5
-1.105, -4.248e-5
-1.104, -4.226e-5
-1.103, -4.252e-5
-1.102, -4.282e-5
-1.101, -4.283e-5
-1.100, -4.302e-5
-1.099, -4.301e-5
-1.098, -4.315e-5
-1.097, -4.350e-5
-1.096, -4.375e-5
-1.095, -4.363e-5
-1.094, -4.373e-5
-1.093, -4.369e-5
-1.092, -4.403e-5
-1.091, -4.421e-5
-1.090, -4.419e-5
-1.089, -4.440e-5
-1.088, -4.418e-5
-1.087, -4.453e-5
-1.086, -4.480e-5
-1.085, -4.472e-5
-1.084, -4.476e-5
-1.083, -4.505e-5
-1.082, -4.506e-5
-1.081, -4.541e-5
-1.080, -4.521e-5
-1.079, -4.524e-5
-1.078, -4.547e-5
-1.077, -4.548e-5
-1.076, -4.591e-5
-1.075, -4.601e-5
-1.074, -4.586e-5
-1.073, -4.596e-5
-1.072, -4.604e-5
-1.071, -4.635e-5
-1.070, -4.637e-5
-1.069, -4.626e-5
-1.068, -4.637e-5
-1.067, -4.662e-5
-1.066, -4.661e-5
-1.065, -4.691e-5
-1.064, -4.689e-5
-1.063, -4.693e-5
-1.062, -4.708e-5
-1.061, -4.721e-5
-1.060, -4.726e-5
-1.059, -4.724e-5
-1.058, -4.733e-5
-1.057, -4.751e-5
-1.056, -4.754e-5
-1.055, -4.767e-5
-1.054, -4.773e-5
-1.053, -4.773e-5
-1.052, -4.791e-5
-1.051, -4.840e-5
-1.050, -4.815e-5
-1.049, -4.819e-5
-1.048, -4.826e-5
-1.047, -4.831e-5
-1.046, -4.857e-5
-1.045, -4.855e-5
-1.044, -4.859e-5
-1.043, -4.863e-5
-1.042, -4.870e-5
-1.041, -4.908e-5
-1.040, -4.897e-5
-1.039, -4.896e-5
-1.038, -4.908e-5
-1.037, -4.919e-5
-1.036, -4.938e-5
-1.035, -4.941e-5
-1.034, -4.932e-5
-1.033, -4.959e-5
-1.032, -4.961e-5
-1.031, -4.967e-5
-1.030, -5.003e-5
-1.029, -4.949e-5
-1.028, -4.984e-5
-1.027, -4.997e-5
-1.026, -5.031e-5
-1.025, -5.040e-5
-1.024, -5.021e-5
-1.023, -5.016e-5
-1.022, -5.054e-5
-1.021, -5.053e-5
-1.020, -5.068e-5
-1.019, -5.060e-5
-1.018, -5.068e-5
-1.017, -5.088e-5
-1.016, -5.093e-5
-1.015, -5.093e-5
-1.014, -5.101e-5
-1.013, -5.092e-5
-1.012, -5.123e-5
-1.011, -5.145e-5
-1.010, -5.159e-5
-1.009, -5.146e-5
-1.008, -5.148e-5
-1.007, -5.177e-5
-1.006, -5.198e-5
-1.005, -5.193e-5
-1.004, -5.182e-5
-1.003, -5.197e-5
-1.002, -5.206e-5
-1.001, -5.249e-5
-1.000, -2.858e-5
-1.001, -1.264e-5
-1.002, -9.698e-6
-1.003, -8.467e-6
-1.004, -7.164e-6
-1.005, -6.199e-6
-1.006, -5.197e-6
-1.007, -4.182e-6
-1.008, -3.651e-6
-1.009, -2.921e-6
-1.010, -2.163e-6
-1.011, -1.390e-6
-1.012, -7.549e-7
-1.013, -4.086e-7
-1.014, 2.021e-7
-1.015, 9.163e-7
-1.016, 1.510e-6
-1.017, 1.992e-6
-1.018, 2.435e-6
-1.019, 2.702e-6
-1.020, 3.378e-6
-1.021, 3.843e-6
-1.022, 4.426e-6
-1.023, 4.725e-6
-1.024, 5.074e-6
-1.025, 5.463e-6
-1.026, 5.964e-6
-1.027, 6.259e-6
-1.028, 6.712e-6
-1.029, 6.850e-6
-1.030, 7.144e-6
-1.031, 7.773e-6
-1.032, 7.968e-6
-1.033, 8.171e-6
-1.034, 8.543e-6
-1.035, 8.742e-6
-1.036, 9.243e-6
-1.037, 9.577e-6
-1.038, 9.635e-6
-1.039, 9.923e-6
-1.040, 1.013e-5
-1.041, 1.058e-5
-1.042, 1.084e-5
-1.043, 1.097e-5
-1.044, 1.119e-5
-1.045, 1.146e-5
-1.046, 1.178e-5
-1.047, 1.208e-5
-1.048, 1.214e-5
-1.049, 1.229e-5
-1.050, 1.261e-5
-1.051, 1.287e-5
-1.052, 1.322e-5
-1.053, 1.321e-5
-1.054, 1.338e-5
-1.055, 1.362e-5
-1.056, 1.385e-5
-1.057, 1.414e-5
-1.058, 1.427e-5
-1.059, 1.431e-5
-1.060, 1.466e-5
-1.061, 1.484e-5
-1.062, 1.511e-5
-1.063, 1.522e-5
-1.064, 1.511e-5
-1.065, 1.544e-5
-1.066, 1.578e-5
-1.067, 1.585e-5
-1.068, 1.602e-5
-1.069, 1.606e-5
-1.070, 1.615e-5
-1.071, 1.667e-5
-1.072, 1.658e-5
-1.073, 1.678e-5
-1.074, 1.689e-5
-1.075, 1.708e-5
-1.076, 1.734e-5
-1.077, 1.735e-5
-1.078, 1.742e-5
-1.079, 1.764e-5
-1.080, 1.763e-5
-1.081, 1.798e-5
-1.082, 1.820e-5
-1.083, 1.812e-5
-1.084, 1.832e-5
-1.085, 1.840e-5
-1.086, 1.875e-5
-1.087, 1.897e-5
-1.088, 1.890e-5
-1.089, 1.893e-5
-1.090, 1.919e-5
-1.091, 1.930e-5
-1.092, 1.951e-5
-1.093, 1.949e-5
-1.094, 1.962e-5
-1.095, 1.988e-5
-1.096, 2.012e-5
-1.097, 2.032e-5
-1.098, 2.028e-5
-1.099, 2.023e-5
-1.100, 2.058e-5
-1.101, 2.075e-5
-1.102, 2.089e-5
-1.103, 2.105e-5
-1.104, 2.093e-5
-1.105, 2.113e-5
-1.106, 2.143e-5
-1.107, 2.160e-5
-1.108, 2.178e-5
-1.109, 2.169e-5
-1.110, 2.185e-5
-1.111, 2.221e-5
-1.112, 2.228e-5
-1.113, 2.230e-5
-1.114, 2.256e-5
-1.115, 2.268e-5
-1.116, 2.294e-5
-1.117, 2.301e-5
-1.118, 2.315e-5
-1.119, 2.344e-5
-1.120, 2.341e-5
-1.121, 2.370e-5
-1.122, 2.401e-5
-1.123, 2.397e-5
-1.124, 2.427e-5
-1.125, 2.425e-5
-1.126, 2.455e-5
-1.127, 2.476e-5
-1.128, 2.488e-5
-1.129, 2.503e-5
-1.130, 2.524e-5
-1.131, 2.547e-5
-1.132, 2.584e-5
-1.133, 2.584e-5
-1.134, 2.601e-5
-1.135, 2.643e-5
-1.136, 2.651e-5
-1.137, 2.680e-5
-1.138, 2.698e-5
-1.139, 2.715e-5
-1.140, 2.741e-5
-1.141, 2.770e-5
-1.142, 2.815e-5
-1.143, 2.829e-5
-1.144, 2.834e-5
-1.145, 2.864e-5
-1.146, 2.896e-5
-1.147, 2.930e-5
-1.148, 2.963e-5
-1.149, 2.978e-5
-1.150, 3.001e-5
-1.151, 3.058e-5
-1.152, 3.081e-5
-1.153, 3.106e-5
-1.154, 3.131e-5
-1.155, 3.146e-5
-1.156, 3.209e-5
-1.157, 3.237e-5
-1.158, 3.274e-5
-1.159, 3.303e-5
-1.160, 3.334e-5
-1.161, 3.382e-5
-1.162, 3.434e-5
-1.163, 3.454e-5
-1.164, 3.510e-5
-1.165, 3.549e-5
-1.166, 3.597e-5
-1.167, 3.658e-5
-1.168, 3.670e-5
-1.169, 3.720e-5
-1.170, 3.782e-5
-1.171, 3.816e-5
-1.172, 3.897e-5
-1.173, 3.938e-5
-1.174, 3.971e-5
-1.175, 4.038e-5
-1.176, 4.097e-5
-1.177, 4.173e-5
-1.178, 4.234e-5
-1.179, 4.261e-5
-1.180, 4.341e-5
-1.181, 4.405e-5
-1.182, 4.480e-5
-1.183, 4.539e-5
-1.184, 4.590e-5
-1.185, 4.661e-5
-1.186, 4.755e-5
-1.187, 4.821e-5
-1.188, 4.903e-5
-1.189, 4.949e-5
-1.190, 5.040e-5
-1.191, 5.146e-5
-1.192, 5.225e-5
-1.193, 5.312e-5
-1.194, 5.392e-5
-1.195, 5.466e-5
-1.196, 5.589e-5
-1.197, 5.673e-5
-1.198, 5.762e-5
-1.199, 5.861e-5
-1.200, 5.958e-5
-1.201, 6.069e-5
-1.202, 6.189e-5
-1.203, 6.293e-5
-1.204, 6.402e-5
-1.205, 6.512e-5
-1.206, 6.636e-5
-1.207, 6.762e-5
-1.208, 6.873e-5
-1.209, 6.988e-5
-1.210, 7.119e-5
-1.211, 7.269e-5
-1.212, 7.410e-5
-1.213, 7.532e-5
-1.214, 7.660e-5
-1.215, 7.825e-5
-1.216, 7.962e-5
-1.217, 8.127e-5
-1.218, 8.279e-5
-1.219, 8.414e-5
-1.220, 8.588e-5
-1.221, 8.764e-5
-1.222, 8.920e-5
-1.223, 9.117e-5
-1.224, 9.265e-5
-1.225, 9.444e-5
-1.226, 9.638e-5
-1.227, 9.837e-5
-1.228, 1.004e-4
-1.229, 1.025e-4
-1.230, 1.043e-4
-1.231, 1.065e-4
-1.232, 1.084e-4
-1.233, 1.105e-4
-1.234, 1.126e-4
-1.235, 1.149e-4
-1.236, 1.174e-4
-1.237, 1.196e-4
-1.238, 1.219e-4
-1.239, 1.245e-4
-1.240, 1.266e-4
-1.241, 1.294e-4
-1.242, 1.321e-4
-1.243, 1.346e-4
-1.244, 1.372e-4
-1.245, 1.398e-4
-1.246, 1.429e-4
-1.247, 1.458e-4
-1.248, 1.487e-4
-1.249, 1.514e-4
-1.250, 1.547e-4
-1.251, 1.578e-4
-1.252, 1.610e-4
-1.253, 1.641e-4
-1.254, 1.674e-4
-1.255, 1.708e-4
-1.256, 1.743e-4
-1.257, 1.779e-4
-1.258, 1.812e-4
-1.259, 1.846e-4
-1.260, 1.884e-4
-1.261, 1.922e-4
-1.262, 1.960e-4
-1.263, 1.996e-4
-1.264, 2.030e-4
-1.265, 2.081e-4
-1.266, 2.121e-4
-1.267, 2.155e-4
-1.268, 2.199e-4
-1.269, 2.243e-4
-1.270, 2.289e-4
-1.271, 2.337e-4
-1.272, 2.383e-4
-1.273, 2.428e-4
-1.274, 2.469e-4
-1.275, 2.518e-4
-1.276, 2.574e-4
-1.277, 2.623e-4
-1.278, 2.675e-4
-1.279, 2.728e-4
-1.280, 2.779e-4
-1.281, 2.837e-4
-1.282, 2.888e-4
-1.283, 2.949e-4
-1.284, 2.998e-4
-1.285, 3.057e-4
-1.286, 3.126e-4
-1.287, 3.180e-4
-1.288, 3.244e-4
-1.289, 3.300e-4
-1.290, 3.368e-4
-1.291, 3.428e-4
-1.292, 3.494e-4
-1.293, 3.557e-4
-1.294, 3.629e-4
-1.295, 3.701e-4
-1.296, 3.775e-4
-1.297, 3.845e-4
-1.298, 3.912e-4
-1.299, 3.989e-4
-1.300, 4.054e-4
-1.301, 4.133e-4
-1.302, 4.211e-4
-1.303, 4.297e-4
-1.304, 4.374e-4
-1.305, 4.452e-4
-1.306, 4.545e-4
-1.307, 4.617e-4
-1.308, 4.699e-4
-1.309, 4.792e-4
-1.310, 4.868e-4
-1.311, 4.964e-4
-1.312, 5.053e-4
-1.313, 5.140e-4
-1.314, 5.237e-4
-1.315, 5.334e-4
-1.316, 5.434e-4
-1.317, 5.529e-4
-1.318, 5.613e-4
-1.319, 5.706e-4
-1.320, 5.803e-4
-1.321, 5.916e-4
-1.322, 6.018e-4
-1.323, 6.125e-4
-1.324, 6.233e-4
-1.325, 6.330e-4
-1.326, 6.467e-4
-1.327, 6.545e-4
-1.328, 6.641e-4
-1.329, 6.755e-4
-1.330, 6.865e-4
-1.331, 6.995e-4
-1.332, 7.110e-4
-1.333, 7.221e-4
-1.334, 7.337e-4
-1.335, 7.445e-4
-1.336, 7.561e-4
-1.337, 7.671e-4
-1.338, 7.795e-4
-1.339, 7.929e-4
-1.340, 8.048e-4
-1.341, 8.174e-4
-1.342, 8.304e-4
-1.343, 8.440e-4
-1.344, 8.556e-4
-1.345, 8.684e-4
-1.346, 8.808e-4
-1.347, 8.939e-4
-1.348, 9.075e-4
-1.349, 9.194e-4
-1.350, 9.333e-4
-1.351, 9.480e-4
-1.352, 9.599e-4
-1.353, 9.730e-4
-1.354, 9.871e-4
-1.355, 1.001e-3
-1.356, 1.015e-3
-1.357, 1.029e-3
-1.358, 1.042e-3
-1.359, 1.056e-3
-1.360, 1.069e-3
-1.361, 1.084e-3
-1.362, 1.099e-3
-1.363, 1.113e-3
-1.364, 1.128e-3
-1.365, 1.142e-3
-1.366, 1.168e-3
-1.367, 1.173e-3
-1.368, 1.188e-3
-1.369, 1.200e-3
-1.370, 1.215e-3
-1.371, 1.229e-3
-1.372, 1.244e-3
-1.373, 1.260e-3
-1.374, 1.278e-3
-1.375, 1.292e-3
-1.376, 1.305e-3
-1.377, 1.320e-3
-1.378, 1.337e-3
-1.379, 1.354e-3
-1.380, 1.369e-3
-1.381, 1.387e-3
-1.382, 1.402e-3
-1.383, 1.417e-3
-1.384, 1.430e-3
-1.385, 1.446e-3
-1.386, 1.460e-3
-1.387, 1.478e-3
-1.388, 1.495e-3
-1.389, 1.512e-3
-1.390, 1.526e-3
-1.391, 1.547e-3
-1.392, 1.561e-3
-1.393, 1.573e-3
-1.394, 1.590e-3
-1.395, 1.609e-3
-1.396, 1.627e-3
-1.397, 1.645e-3
-1.398, 1.663e-3
-1.399, 1.681e-3
-1.400, 1.696e-3
-1.401, 1.717e-3
-1.402, 1.731e-3
-1.403, 1.747e-3
-1.404, 1.766e-3
-1.405, 1.788e-3
-1.406, 1.804e-3
-1.407, 1.818e-3
-1.408, 1.837e-3
-1.409, 1.845e-3
-1.410, 1.865e-3
-1.411, 1.882e-3
-1.412, 1.901e-3
-1.413, 1.920e-3
-1.414, 1.937e-3
-1.415, 1.954e-3
-1.416, 1.972e-3
-1.417, 1.993e-3
-1.418, 2.009e-3
-1.419, 2.027e-3
-1.420, 2.039e-3
-1.421, 2.057e-3
-1.422, 2.072e-3
-1.423, 2.086e-3
-1.424, 2.101e-3
-1.425, 2.125e-3
-1.426, 2.144e-3
-1.427, 2.165e-3
-1.428, 2.175e-3
-1.429, 2.192e-3
-1.430, 2.205e-3
-1.431, 2.220e-3
-1.432, 2.238e-3
-1.433, 2.259e-3
-1.434, 2.275e-3
-1.435, 2.296e-3
-1.436, 2.310e-3
-1.437, 2.329e-3
-1.438, 2.350e-3
-1.439, 2.389e-3
-1.440, 2.406e-3
-1.441, 2.426e-3
-1.442, 2.440e-3
-1.443, 2.458e-3
-1.444, 2.475e-3
-1.445, 2.500e-3
-1.446, 2.533e-3
-1.447, 2.549e-3
-1.448, 2.557e-3
-1.449, 2.566e-3
-1.450, 2.578e-3
-1.451, 2.610e-3
-1.452, 2.620e-3
-1.453, 2.638e-3
-1.454, 2.660e-3
-1.455, 2.680e-3
-1.456, 2.693e-3
-1.457, 2.701e-3
-1.458, 2.723e-3
-1.459, 2.745e-3
-1.460, 2.759e-3
-1.461, 2.781e-3
-1.462, 2.794e-3
-1.463, 2.814e-3
-1.464, 2.834e-3
-1.465, 2.852e-3
-1.466, 2.882e-3
-1.467, 2.902e-3
-1.468, 2.932e-3
-1.469, 2.943e-3
-1.470, 2.977e-3
-1.471, 3.025e-3
-1.472, 3.047e-3
-1.473, 3.065e-3
-1.474, 3.160e-3
-1.475, 3.135e-3
-1.476, 3.142e-3
-1.477, 3.185e-3
-1.478, 3.197e-3
-1.479, 3.214e-3
-1.480, 3.227e-3
-1.481, 3.237e-3
-1.482, 3.271e-3
-1.483, 3.325e-3
-1.484, 3.365e-3
-1.485, 3.369e-3
-1.486, 3.399e-3
-1.487, 3.419e-3
-1.488, 3.434e-3
-1.489, 3.445e-3
-1.490, 3.458e-3
-1.491, 3.481e-3
-1.492, 3.505e-3
-1.493, 3.532e-3
-1.494, 3.549e-3
-1.495, 3.555e-3
-1.496, 3.567e-3
-1.497, 3.592e-3
-1.498, 3.592e-3
-1.499, 3.639e-3
-1.500, 3.627e-3
-1.499, 3.587e-3
-1.498, 3.544e-3
-1.497, 3.516e-3
-1.496, 3.480e-3
-1.495, 3.436e-3
-1.494, 3.397e-3
-1.493, 3.378e-3
-1.492, 3.359e-3
-1.491, 3.319e-3
-1.490, 3.287e-3
-1.489, 3.231e-3
-1.488, 3.205e-3
-1.487, 3.182e-3
-1.486, 3.170e-3
-1.485, 3.129e-3
-1.484, 3.079e-3
-1.483, 3.075e-3
-1.482, 3.025e-3
-1.481, 2.994e-3
-1.480, 2.964e-3
-1.479, 2.936e-3
-1.478, 2.903e-3
-1.477, 2.866e-3
-1.476, 2.844e-3
-1.475, 2.819e-3
-1.474, 2.807e-3
-1.473, 2.775e-3
-1.472, 2.754e-3
-1.471, 2.718e-3
-1.470, 2.703e-3
-1.469, 2.685e-3
-1.468, 2.656e-3
-1.467, 2.631e-3
-1.466, 2.601e-3
-1.465, 2.570e-3
-1.464, 2.548e-3
-1.463, 2.504e-3
-1.462, 2.504e-3
-1.461, 2.454e-3
-1.460, 2.486e-3
-1.459, 2.455e-3
-1.458, 2.431e-3
-1.457, 2.409e-3
-1.456, 2.379e-3
-1.455, 2.361e-3
-1.454, 2.340e-3
-1.453, 2.332e-3
-1.452, 2.299e-3
-1.451, 2.281e-3
-1.450, 2.254e-3
-1.449, 2.232e-3
-1.448, 2.216e-3
-1.447, 2.201e-3
-1.446, 2.189e-3
-1.445, 2.175e-3
-1.444, 2.160e-3
-1.443, 2.169e-3
-1.442, 2.139e-3
-1.441, 2.113e-3
-1.440, 2.091e-3
-1.439, 2.066e-3
-1.438, 2.042e-3
-1.437, 2.022e-3
-1.436, 2.002e-3
-1.435, 1.979e-3
-1.434, 1.956e-3
-1.433, 1.936e-3
-1.432, 1.917e-3
-1.431, 1.900e-3
-1.430, 1.881e-3
-1.429, 1.859e-3
-1.428, 1.835e-3
-1.427, 1.818e-3
-1.426, 1.792e-3
-1.425, 1.773e-3
-1.424, 1.753e-3
-1.423, 1.733e-3
-1.422, 1.710e-3
-1.421, 1.692e-3
-1.420, 1.676e-3
-1.419, 1.668e-3
-1.418, 1.637e-3
-1.417, 1.618e-3
-1.416, 1.602e-3
-1.415, 1.586e-3
-1.414, 1.565e-3
-1.413, 1.546e-3
-1.412, 1.530e-3
-1.411, 1.524e-3
-1.410, 1.501e-3
-1.409, 1.484e-3
-1.408, 1.468e-3
-1.407, 1.452e-3
-1.406, 1.435e-3
-1.405, 1.416e-3
-1.404, 1.401e-3
-1.403, 1.388e-3
-1.402, 1.371e-3
-1.401, 1.364e-3
-1.400, 1.353e-3
-1.399, 1.337e-3
-1.398, 1.317e-3
-1.397, 1.303e-3
-1.396, 1.292e-3
-1.395, 1.273e-3
-1.394, 1.259e-3
-1.393, 1.242e-3
-1.392, 1.229e-3
-1.391, 1.212e-3
-1.390, 1.202e-3
-1.389, 1.186e-3
-1.388, 1.173e-3
-1.387, 1.161e-3
-1.386, 1.139e-3
-1.385, 1.132e-3
-1.384, 1.119e-3
-1.383, 1.103e-3
-1.382, 1.099e-3
-1.381, 1.084e-3
-1.380, 1.070e-3
-1.379, 1.052e-3
-1.378, 1.050e-3
-1.377, 1.028e-3
-1.376, 1.014e-3
-1.375, 1.001e-3
-1.374, 1.005e-3
-1.373, 9.925e-4
-1.372, 9.832e-4
-1.371, 9.941e-4
-1.370, 9.644e-4
-1.369, 9.482e-4
-1.368, 9.347e-4
-1.367, 9.218e-4
-1.366, 9.091e-4
-1.365, 8.984e-4
-1.364, 8.880e-4
-1.363, 8.761e-4
-1.362, 8.638e-4
-1.361, 8.523e-4
-1.360, 8.428e-4
-1.359, 8.253e-4
-1.358, 8.110e-4
-1.357, 8.020e-4
-1.356, 7.873e-4
-1.355, 7.812e-4
-1.354, 7.639e-4
-1.353, 7.534e-4
-1.352, 7.447e-4
-1.351, 7.338e-4
-1.350, 7.213e-4
-1.349, 7.103e-4
-1.348, 6.979e-4
-1.347, 6.868e-4
-1.346, 6.772e-4
-1.345, 6.690e-4
-1.344, 6.596e-4
-1.343, 6.517e-4
-1.342, 6.395e-4
-1.341, 6.294e-4
-1.340, 6.211e-4
-1.339, 6.132e-4
-1.338, 5.996e-4
-1.337, 5.916e-4
-1.336, 5.822e-4
-1.335, 5.708e-4
-1.334, 5.629e-4
-1.333, 5.552e-4
-1.332, 5.474e-4
-1.331, 5.395e-4
-1.330, 5.317e-4
-1.329, 5.216e-4
-1.328, 5.098e-4
-1.327, 5.004e-4
-1.326, 4.933e-4
-1.325, 4.856e-4
-1.324, 4.750e-4
-1.323, 4.676e-4
-1.322, 4.602e-4
-1.321, 4.515e-4
-1.320, 4.475e-4
-1.319, 4.377e-4
-1.318, 4.307e-4
-1.317, 4.226e-4
-1.316, 4.139e-4
-1.315, 4.070e-4
-1.314, 4.025e-4
-1.313, 3.940e-4
-1.312, 3.915e-4
-1.311, 3.820e-4
-1.310, 3.716e-4
-1.309, 3.644e-4
-1.308, 3.592e-4
-1.307, 3.518e-4
-1.306, 3.463e-4
-1.305, 3.389e-4
-1.304, 3.323e-4
-1.303, 3.267e-4
-1.302, 3.206e-4
-1.301, 3.117e-4
-1.300, 3.054e-4
-1.299, 3.005e-4
-1.298, 2.944e-4
-1.297, 2.901e-4
-1.296, 2.830e-4
-1.295, 2.773e-4
-1.294, 2.706e-4
-1.293, 2.671e-4
-1.292, 2.607e-4
-1.291, 2.554e-4
-1.290, 2.487e-4
-1.289, 2.428e-4
-1.288, 2.382e-4
-1.287, 2.331e-4
-1.286, 2.273e-4
-1.285, 2.226e-4
-1.284, 2.202e-4
-1.283, 2.127e-4
-1.282, 2.080e-4
-1.281, 2.032e-4
-1.280, 1.986e-4
-1.279, 1.942e-4
-1.278, 1.892e-4
-1.277, 1.862e-4
-1.276, 1.825e-4
-1.275, 1.774e-4
-1.274, 1.727e-4
-1.273, 1.679e-4
-1.272, 1.640e-4
-1.271, 1.597e-4
-1.270, 1.561e-4
-1.269, 1.541e-4
-1.268, 1.507e-4
-1.267, 1.457e-4
-1.266, 1.404e-4
-1.265, 1.374e-4
-1.264, 1.351e-4
-1.263, 1.311e-4
-1.262, 1.280e-4
-1.261, 1.232e-4
-1.260, 1.211e-4
-1.259, 1.167e-4
-1.258, 1.133e-4
-1.257, 1.112e-4
-1.256, 1.071e-4
-1.255, 1.046e-4
-1.254, 1.018e-4
-1.253, 9.817e-5
-1.252, 9.475e-5
-1.251, 9.159e-5
-1.250, 8.883e-5
-1.249, 8.586e-5
-1.248, 8.365e-5
-1.247, 8.126e-5
-1.246, 7.823e-5
-1.245, 7.547e-5
-1.244, 7.290e-5
-1.243, 7.174e-5
-1.242, 7.048e-5
-1.241, 6.560e-5
-1.240, 6.334e-5
-1.239, 6.115e-5
-1.238, 5.904e-5
-1.237, 5.713e-5
-1.236, 5.455e-5
-1.235, 5.259e-5
-1.234, 5.062e-5
-1.233, 4.833e-5
-1.232, 4.655e-5
-1.231, 4.446e-5
-1.230, 4.239e-5
-1.229, 4.021e-5
-1.228, 3.875e-5
-1.227, 3.696e-5
-1.226, 3.519e-5
-1.225, 3.320e-5
-1.224, 3.177e-5
-1.223, 3.007e-5
-1.222, 2.836e-5
-1.221, 2.671e-5
-1.220, 2.510e-5
-1.219, 2.363e-5
-1.218, 2.235e-5
-1.217, 2.070e-5
-1.216, 1.926e-5
-1.215, 1.786e-5
-1.214, 1.632e-5
-1.213, 1.528e-5
-1.212, 1.394e-5
-1.211, 1.239e-5
-1.210, 1.129e-5
-1.209, 9.908e-6
-1.208, 8.957e-6
-1.207, 7.750e-6
-1.206, 6.414e-6
-1.205, 5.367e-6
-1.204, 4.254e-6
-1.203, 3.146e-6
-1.202, 2.226e-6
-1.201, 1.114e-6
-1.200, 7.676e-8
-1.199, -8.921e-7
-1.198, -1.875e-6
-1.197, -2.660e-6
-1.196, -3.738e-6
-1.195, -4.783e-6
-1.194, -5.473e-6
-1.193, -6.347e-6
-1.192, -7.105e-6
-1.191, -8.036e-6
-1.190, -8.889e-6
-1.189, -9.610e-6
-1.188, -1.030e-5
-1.187, -1.109e-5
-1.186, -1.182e-5
-1.185, -1.271e-5
-1.184, -1.326e-5
-1.183, -1.379e-5
-1.182, -1.456e-5
-1.181, -1.524e-5
-1.180, -1.591e-5
-1.179, -1.652e-5
-1.178, -1.717e-5
-1.177, -1.781e-5
-1.176, -1.821e-5
-1.175, -1.890e-5
-1.174, -1.949e-5
-1.173, -1.977e-5
-1.172, -2.038e-5
-1.171, -2.095e-5
-1.170, -2.145e-5
-1.169, -2.210e-5
-1.168, -2.231e-5
-1.167, -2.280e-5
-1.166, -2.337e-5
-1.165, -2.374e-5
-1.164, -2.434e-5
-1.163, -2.462e-5
-1.162, -2.495e-5
-1.161, -2.558e-5
-1.160, -2.592e-5
-1.159, -2.633e-5
-1.158, -2.661e-5
-1.157, -2.685e-5
-1.156, -2.740e-5
-1.155, -2.776e-5
-1.154, -2.816e-5
-1.153, -2.854e-5
-1.152, -2.871e-5
-1.151, -2.899e-5
-1.150, -2.942e-5
-1.149, -2.966e-5
-1.148, -2.984e-5
-1.147, -3.029e-5
-1.146, -3.060e-5
-1.145, -3.103e-5
-1.144, -3.121e-5
-1.143, -3.135e-5
-1.142, -3.274e-5
-1.141, -3.287e-5
-1.140, -3.262e-5
-1.139, -3.205e-5
-1.138, -3.167e-5
-1.137, -3.189e-5
-1.136, -3.209e-5
-1.135, -3.246e-5
-1.134, -3.266e-5
-1.133, -3.253e-5
-1.132, -3.254e-5
-1.131, -3.301e-5
-1.130, -3.321e-5
-1.129, -3.359e-5
-1.128, -3.343e-5
-1.127, -3.364e-5
-1.126, -3.385e-5
-1.125, -3.402e-5
-1.124, -3.409e-5
-1.123, -3.434e-5
-1.122, -3.431e-5
-1.121, -3.471e-5
-1.120, -3.485e-5
-1.119, -3.510e-5
-1.118, -3.534e-5
-1.117, -3.593e-5
-1.116, -3.565e-5
-1.115, -3.566e-5
-1.114, -3.571e-5
-1.113, -3.583e-5
-1.112, -3.583e-5
-1.111, -3.616e-5
-1.110, -3.646e-5
-1.109, -3.637e-5
-1.108, -3.642e-5
-1.107, -3.665e-5
-1.106, -3.663e-5
-1.105, -3.701e-5
-1.104, -3.715e-5
-1.103, -3.712e-5
-1.102, -3.724e-5
-1.101, -3.736e-5
-1.100, -3.766e-5
-1.099, -3.775e-5
-1.098, -3.756e-5
-1.097, -3.795e-5
-1.096, -3.783e-5
-1.095, -3.826e-5
-1.094, -3.846e-5
-1.093, -3.835e-5
-1.092, -3.835e-5
-1.091, -3.874e-5
-1.090, -3.885e-5
-1.089, -3.896e-5
-1.088, -3.885e-5
-1.087, -3.887e-5
-1.086, -3.928e-5
-1.085, -3.941e-5
-1.084, -3.953e-5
-1.083, -3.954e-5
-1.082, -3.946e-5
-1.081, -3.981e-5
-1.080, -3.988e-5
-1.079, -3.993e-5
-1.078, -4.002e-5
-1.077, -4.013e-5
-1.076, -4.037e-5
-1.075, -4.066e-5
-1.074, -4.054e-5
-1.073, -4.088e-5
-1.072, -4.043e-5
-1.071, -4.059e-5
-1.070, -4.115e-5
-1.069, -4.092e-5
-1.068, -4.112e-5
-1.067, -4.150e-5
-1.066, -4.112e-5
-1.065, -4.146e-5
-1.064, -4.151e-5
-1.063, -4.170e-5
-1.062, -4.183e-5
-1.061, -4.185e-5
-1.060, -4.196e-5
-1.059, -4.200e-5
-1.058, -4.197e-5
-1.057, -4.227e-5
-1.056, -4.224e-5
-1.055, -4.238e-5
-1.054, -4.285e-5
-1.053, -4.243e-5
-1.052, -4.243e-5
-1.051, -4.278e-5
-1.050, -4.300e-5
-1.049, -4.321e-5
-1.048, -4.296e-5
-1.047, -4.307e-5
-1.046, -4.330e-5
-1.045, -4.323e-5
-1.044, -4.346e-5
-1.043, -4.354e-5
-1.042, -4.349e-5
-1.041, -4.384e-5
-1.040, -4.372e-5
-1.039, -4.397e-5
-1.038, -4.391e-5
-1.037, -4.389e-5
-1.036, -4.426e-5
-1.035, -4.423e-5
-1.034, -4.441e-5
-1.033, -4.430e-5
-1.032, -4.420e-5
-1.031, -4.474e-5
-1.030, -4.482e-5
-1.029, -4.477e-5
-1.028, -4.484e-5
-1.027, -4.481e-5
-1.026, -4.505e-5
-1.025, -4.523e-5
-1.024, -4.542e-5
-1.023, -4.521e-5
-1.022, -4.541e-5
-1.021, -4.540e-5
-1.020, -4.559e-5
-1.019, -4.591e-5
-1.018, -4.558e-5
-1.017, -4.583e-5
-1.016, -4.588e-5
-1.015, -4.612e-5
-1.014, -4.621e-5
-1.013, -4.618e-5
-1.012, -4.635e-5
-1.011, -4.649e-5
-1.010, -4.645e-5
-1.009, -4.677e-5
-1.008, -4.670e-5
-1.007, -4.661e-5
-1.006, -4.708e-5
-1.005, -4.726e-5
-1.004, -4.729e-5
-1.003, -4.737e-5
-1.002, -4.717e-5
-1.001, -4.767e-5
