Dec. 12, 2024   16:36:30
Cyclic Voltammetry
File: c:/users/guazh/data/banditlqround7_x0exp59_r20/2024-12-09-exp639\exp639-2024-12-12t16_28_17-arkoh\exp639_cv_sr_700mvs_efin_-1400mv.bin
Data Source:  Experiment
Instrument Model:  CHI760E
Header: CV ran at 700 mVs
Note: 

Init E (V) = -1
High E (V) = -1
Low E (V) = -1.4
Final E (V) = -1
Init P/N = N
Scan Rate (V/s) = 0.7
Segment = 3
Sample Interval (V) = 0.001
Quiet Time (sec) = 2
Sensitivity (A/V) = 0.01
Comp R (ohm) = 1.2

Results:

Channel 1:
Segment 1:

Segment 2:

Segment 3:

Potential/V, Current/A

-1.000, 1.865e-5
-1.001, 1.389e-4
-1.002, 2.499e-4
-1.003, 3.578e-4
-1.004, 4.565e-4
-1.005, 5.459e-4
-1.006, 6.291e-4
-1.007, 7.062e-4
-1.008, 7.740e-4
-1.009, 8.418e-4
-1.010, 9.004e-4
-1.011, 9.590e-4
-1.012, 1.018e-3
-1.013, 1.073e-3
-1.014, 1.129e-3
-1.015, 1.181e-3
-1.016, 1.224e-3
-1.017, 1.270e-3
-1.018, 1.310e-3
-1.019, 1.347e-3
-1.020, 1.378e-3
-1.021, 1.409e-3
-1.022, 1.440e-3
-1.023, 1.471e-3
-1.024, 1.502e-3
-1.025, 1.532e-3
-1.026, 1.560e-3
-1.027, 1.588e-3
-1.028, 1.613e-3
-1.029, 1.634e-3
-1.030, 1.653e-3
-1.031, 1.668e-3
-1.032, 1.684e-3
-1.033, 1.696e-3
-1.034, 1.711e-3
-1.035, 1.727e-3
-1.036, 1.742e-3
-1.037, 1.761e-3
-1.038, 1.776e-3
-1.039, 1.791e-3
-1.040, 1.804e-3
-1.041, 1.816e-3
-1.042, 1.822e-3
-1.043, 1.828e-3
-1.044, 1.835e-3
-1.045, 1.838e-3
-1.046, 1.844e-3
-1.047, 1.853e-3
-1.048, 1.862e-3
-1.049, 1.872e-3
-1.050, 1.881e-3
-1.051, 1.890e-3
-1.052, 1.899e-3
-1.053, 1.902e-3
-1.054, 1.909e-3
-1.055, 1.909e-3
-1.056, 1.912e-3
-1.057, 1.915e-3
-1.058, 1.918e-3
-1.059, 1.924e-3
-1.060, 1.930e-3
-1.061, 1.936e-3
-1.062, 1.946e-3
-1.063, 1.952e-3
-1.064, 1.952e-3
-1.065, 1.955e-3
-1.066, 1.952e-3
-1.067, 1.949e-3
-1.068, 1.949e-3
-1.069, 1.946e-3
-1.070, 1.949e-3
-1.071, 1.955e-3
-1.072, 1.958e-3
-1.073, 1.964e-3
-1.074, 1.970e-3
-1.075, 1.976e-3
-1.076, 1.980e-3
-1.077, 1.980e-3
-1.078, 1.980e-3
-1.079, 1.976e-3
-1.080, 1.973e-3
-1.081, 1.973e-3
-1.082, 1.973e-3
-1.083, 1.976e-3
-1.084, 1.980e-3
-1.085, 1.983e-3
-1.086, 1.986e-3
-1.087, 1.989e-3
-1.088, 1.986e-3
-1.089, 1.986e-3
-1.090, 1.983e-3
-1.091, 1.980e-3
-1.092, 1.980e-3
-1.093, 1.980e-3
-1.094, 1.983e-3
-1.095, 1.989e-3
-1.096, 1.992e-3
-1.097, 1.995e-3
-1.098, 1.998e-3
-1.099, 2.001e-3
-1.100, 1.998e-3
-1.101, 1.995e-3
-1.102, 1.995e-3
-1.103, 1.992e-3
-1.104, 1.992e-3
-1.105, 1.992e-3
-1.106, 1.995e-3
-1.107, 1.998e-3
-1.108, 2.004e-3
-1.109, 2.007e-3
-1.110, 2.010e-3
-1.111, 2.007e-3
-1.112, 2.004e-3
-1.113, 2.001e-3
-1.114, 1.998e-3
-1.115, 1.992e-3
-1.116, 1.992e-3
-1.117, 1.992e-3
-1.118, 1.995e-3
-1.119, 1.998e-3
-1.120, 2.004e-3
-1.121, 2.007e-3
-1.122, 2.013e-3
-1.123, 2.017e-3
-1.124, 2.017e-3
-1.125, 2.020e-3
-1.126, 2.017e-3
-1.127, 2.017e-3
-1.128, 2.013e-3
-1.129, 2.013e-3
-1.130, 2.013e-3
-1.131, 2.013e-3
-1.132, 2.017e-3
-1.133, 2.017e-3
-1.134, 2.013e-3
-1.135, 2.010e-3
-1.136, 2.007e-3
-1.137, 2.001e-3
-1.138, 1.998e-3
-1.139, 1.995e-3
-1.140, 1.998e-3
-1.141, 2.001e-3
-1.142, 2.007e-3
-1.143, 2.013e-3
-1.144, 2.017e-3
-1.145, 2.023e-3
-1.146, 2.023e-3
-1.147, 2.020e-3
-1.148, 2.017e-3
-1.149, 2.013e-3
-1.150, 2.010e-3
-1.151, 2.007e-3
-1.152, 2.007e-3
-1.153, 2.007e-3
-1.154, 2.010e-3
-1.155, 2.013e-3
-1.156, 2.017e-3
-1.157, 2.023e-3
-1.158, 2.026e-3
-1.159, 2.023e-3
-1.160, 2.026e-3
-1.161, 2.023e-3
-1.162, 2.026e-3
-1.163, 2.029e-3
-1.164, 2.032e-3
-1.165, 2.035e-3
-1.166, 2.038e-3
-1.167, 2.044e-3
-1.168, 2.047e-3
-1.169, 2.047e-3
-1.170, 2.047e-3
-1.171, 2.044e-3
-1.172, 2.041e-3
-1.173, 2.038e-3
-1.174, 2.035e-3
-1.175, 2.038e-3
-1.176, 2.041e-3
-1.177, 2.047e-3
-1.178, 2.057e-3
-1.179, 2.060e-3
-1.180, 2.066e-3
-1.181, 2.069e-3
-1.182, 2.072e-3
-1.183, 2.069e-3
-1.184, 2.069e-3
-1.185, 2.069e-3
-1.186, 2.069e-3
-1.187, 2.072e-3
-1.188, 2.075e-3
-1.189, 2.078e-3
-1.190, 2.087e-3
-1.191, 2.091e-3
-1.192, 2.094e-3
-1.193, 2.094e-3
-1.194, 2.091e-3
-1.195, 2.087e-3
-1.196, 2.084e-3
-1.197, 2.081e-3
-1.198, 2.081e-3
-1.199, 2.084e-3
-1.200, 2.091e-3
-1.201, 2.094e-3
-1.202, 2.100e-3
-1.203, 2.106e-3
-1.204, 2.112e-3
-1.205, 2.112e-3
-1.206, 2.112e-3
-1.207, 2.112e-3
-1.208, 2.115e-3
-1.209, 2.115e-3
-1.210, 2.118e-3
-1.211, 2.121e-3
-1.212, 2.131e-3
-1.213, 2.137e-3
-1.214, 2.143e-3
-1.215, 2.149e-3
-1.216, 2.155e-3
-1.217, 2.161e-3
-1.218, 2.164e-3
-1.219, 2.168e-3
-1.220, 2.171e-3
-1.221, 2.174e-3
-1.222, 2.177e-3
-1.223, 2.180e-3
-1.224, 2.186e-3
-1.225, 2.189e-3
-1.226, 2.192e-3
-1.227, 2.198e-3
-1.228, 2.201e-3
-1.229, 2.201e-3
-1.230, 2.201e-3
-1.231, 2.198e-3
-1.232, 2.201e-3
-1.233, 2.205e-3
-1.234, 2.211e-3
-1.235, 2.220e-3
-1.236, 2.229e-3
-1.237, 2.238e-3
-1.238, 2.251e-3
-1.239, 2.260e-3
-1.240, 2.269e-3
-1.241, 2.282e-3
-1.242, 2.294e-3
-1.243, 2.309e-3
-1.244, 2.322e-3
-1.245, 2.334e-3
-1.246, 2.340e-3
-1.247, 2.346e-3
-1.248, 2.346e-3
-1.249, 2.346e-3
-1.250, 2.346e-3
-1.251, 2.346e-3
-1.252, 2.343e-3
-1.253, 2.343e-3
-1.254, 2.343e-3
-1.255, 2.349e-3
-1.256, 2.356e-3
-1.257, 2.371e-3
-1.258, 2.390e-3
-1.259, 2.408e-3
-1.260, 2.430e-3
-1.261, 2.445e-3
-1.262, 2.464e-3
-1.263, 2.479e-3
-1.264, 2.488e-3
-1.265, 2.497e-3
-1.266, 2.501e-3
-1.267, 2.507e-3
-1.268, 2.513e-3
-1.269, 2.519e-3
-1.270, 2.528e-3
-1.271, 2.538e-3
-1.272, 2.550e-3
-1.273, 2.562e-3
-1.274, 2.575e-3
-1.275, 2.587e-3
-1.276, 2.599e-3
-1.277, 2.612e-3
-1.278, 2.624e-3
-1.279, 2.636e-3
-1.280, 2.655e-3
-1.281, 2.673e-3
-1.282, 2.695e-3
-1.283, 2.716e-3
-1.284, 2.738e-3
-1.285, 2.756e-3
-1.286, 2.772e-3
-1.287, 2.784e-3
-1.288, 2.793e-3
-1.289, 2.806e-3
-1.290, 2.815e-3
-1.291, 2.830e-3
-1.292, 2.849e-3
-1.293, 2.867e-3
-1.294, 2.892e-3
-1.295, 2.914e-3
-1.296, 2.935e-3
-1.297, 2.957e-3
-1.298, 2.978e-3
-1.299, 2.994e-3
-1.300, 3.015e-3
-1.301, 3.031e-3
-1.302, 3.052e-3
-1.303, 3.077e-3
-1.304, 3.105e-3
-1.305, 3.133e-3
-1.306, 3.157e-3
-1.307, 3.188e-3
-1.308, 3.213e-3
-1.309, 3.234e-3
-1.310, 3.262e-3
-1.311, 3.284e-3
-1.312, 3.305e-3
-1.313, 3.330e-3
-1.314, 3.355e-3
-1.315, 3.382e-3
-1.316, 3.410e-3
-1.317, 3.438e-3
-1.318, 3.472e-3
-1.319, 3.499e-3
-1.320, 3.527e-3
-1.321, 3.552e-3
-1.322, 3.577e-3
-1.323, 3.601e-3
-1.324, 3.629e-3
-1.325, 3.657e-3
-1.326, 3.688e-3
-1.327, 3.728e-3
-1.328, 3.765e-3
-1.329, 3.805e-3
-1.330, 3.845e-3
-1.331, 3.885e-3
-1.332, 3.922e-3
-1.333, 3.956e-3
-1.334, 3.990e-3
-1.335, 4.021e-3
-1.336, 4.051e-3
-1.337, 4.085e-3
-1.338, 4.122e-3
-1.339, 4.159e-3
-1.340, 4.199e-3
-1.341, 4.243e-3
-1.342, 4.286e-3
-1.343, 4.329e-3
-1.344, 4.369e-3
-1.345, 4.409e-3
-1.346, 4.449e-3
-1.347, 4.489e-3
-1.348, 4.532e-3
-1.349, 4.572e-3
-1.350, 4.619e-3
-1.351, 4.665e-3
-1.352, 4.714e-3
-1.353, 4.764e-3
-1.354, 4.810e-3
-1.355, 4.856e-3
-1.356, 4.902e-3
-1.357, 4.945e-3
-1.358, 4.989e-3
-1.359, 5.032e-3
-1.360, 5.075e-3
-1.361, 5.121e-3
-1.362, 5.171e-3
-1.363, 5.220e-3
-1.364, 5.272e-3
-1.365, 5.325e-3
-1.366, 5.377e-3
-1.367, 5.430e-3
-1.368, 5.479e-3
-1.369, 5.531e-3
-1.370, 5.584e-3
-1.371, 5.636e-3
-1.372, 5.692e-3
-1.373, 5.750e-3
-1.374, 5.809e-3
-1.375, 5.867e-3
-1.376, 5.929e-3
-1.377, 5.984e-3
-1.378, 6.040e-3
-1.379, 6.092e-3
-1.380, 6.145e-3
-1.381, 6.194e-3
-1.382, 6.247e-3
-1.383, 6.302e-3
-1.384, 6.354e-3
-1.385, 6.413e-3
-1.386, 6.475e-3
-1.387, 6.536e-3
-1.388, 6.604e-3
-1.389, 6.669e-3
-1.390, 6.737e-3
-1.391, 6.798e-3
-1.392, 6.863e-3
-1.393, 6.925e-3
-1.394, 6.980e-3
-1.395, 7.042e-3
-1.396, 7.104e-3
-1.397, 7.168e-3
-1.398, 7.236e-3
-1.399, 7.304e-3
-1.400, 7.282e-3
-1.399, 7.113e-3
-1.398, 6.956e-3
-1.397, 6.811e-3
-1.396, 6.675e-3
-1.395, 6.549e-3
-1.394, 6.425e-3
-1.393, 6.311e-3
-1.392, 6.200e-3
-1.391, 6.099e-3
-1.390, 6.000e-3
-1.389, 5.907e-3
-1.388, 5.818e-3
-1.387, 5.729e-3
-1.386, 5.639e-3
-1.385, 5.553e-3
-1.384, 5.463e-3
-1.383, 5.380e-3
-1.382, 5.297e-3
-1.381, 5.214e-3
-1.380, 5.134e-3
-1.379, 5.063e-3
-1.378, 4.989e-3
-1.377, 4.915e-3
-1.376, 4.847e-3
-1.375, 4.773e-3
-1.374, 4.702e-3
-1.373, 4.625e-3
-1.372, 4.551e-3
-1.371, 4.474e-3
-1.370, 4.400e-3
-1.369, 4.329e-3
-1.368, 4.264e-3
-1.367, 4.196e-3
-1.366, 4.132e-3
-1.365, 4.070e-3
-1.364, 4.002e-3
-1.363, 3.940e-3
-1.362, 3.869e-3
-1.361, 3.799e-3
-1.360, 3.731e-3
-1.359, 3.657e-3
-1.358, 3.589e-3
-1.357, 3.521e-3
-1.356, 3.456e-3
-1.355, 3.392e-3
-1.354, 3.330e-3
-1.353, 3.268e-3
-1.352, 3.210e-3
-1.351, 3.142e-3
-1.350, 3.077e-3
-1.349, 3.012e-3
-1.348, 2.945e-3
-1.347, 2.880e-3
-1.346, 2.815e-3
-1.345, 2.756e-3
-1.344, 2.701e-3
-1.343, 2.645e-3
-1.342, 2.590e-3
-1.341, 2.534e-3
-1.340, 2.482e-3
-1.339, 2.423e-3
-1.338, 2.362e-3
-1.337, 2.300e-3
-1.336, 2.242e-3
-1.335, 2.180e-3
-1.334, 2.121e-3
-1.333, 2.066e-3
-1.332, 2.010e-3
-1.331, 1.958e-3
-1.330, 1.906e-3
-1.329, 1.853e-3
-1.328, 1.801e-3
-1.327, 1.745e-3
-1.326, 1.687e-3
-1.325, 1.631e-3
-1.324, 1.573e-3
-1.323, 1.520e-3
-1.322, 1.468e-3
-1.321, 1.418e-3
-1.320, 1.372e-3
-1.319, 1.323e-3
-1.318, 1.277e-3
-1.317, 1.230e-3
-1.316, 1.181e-3
-1.315, 1.132e-3
-1.314, 1.082e-3
-1.313, 1.030e-3
-1.312, 9.775e-4
-1.311, 9.282e-4
-1.310, 8.819e-4
-1.309, 8.357e-4
-1.308, 7.894e-4
-1.307, 7.494e-4
-1.306, 7.062e-4
-1.305, 6.630e-4
-1.304, 6.168e-4
-1.303, 5.705e-4
-1.302, 5.274e-4
-1.301, 4.780e-4
-1.300, 4.318e-4
-1.299, 3.886e-4
-1.298, 3.485e-4
-1.297, 3.085e-4
-1.296, 2.684e-4
-1.295, 2.345e-4
-1.294, 1.944e-4
-1.293, 1.543e-4
-1.292, 1.142e-4
-1.291, 7.415e-5
-1.290, 3.099e-5
-1.289, -1.218e-5
-1.288, -5.226e-5
-1.287, -9.234e-5
-1.286, -1.293e-4
-1.285, -1.602e-4
-1.284, -1.941e-4
-1.283, -2.280e-4
-1.282, -2.588e-4
-1.281, -2.958e-4
-1.280, -3.328e-4
-1.279, -3.698e-4
-1.278, -4.068e-4
-1.277, -4.438e-4
-1.276, -4.808e-4
-1.275, -5.116e-4
-1.274, -5.425e-4
-1.273, -5.733e-4
-1.272, -6.011e-4
-1.271, -6.288e-4
-1.270, -6.565e-4
-1.269, -6.874e-4
-1.268, -7.213e-4
-1.267, -7.552e-4
-1.266, -7.891e-4
-1.265, -8.200e-4
-1.264, -8.508e-4
-1.263, -8.785e-4
-1.262, -9.032e-4
-1.261, -9.279e-4
-1.260, -9.494e-4
-1.259, -9.741e-4
-1.258, -9.988e-4
-1.257, -1.027e-3
-1.256, -1.054e-3
-1.255, -1.085e-3
-1.254, -1.113e-3
-1.253, -1.138e-3
-1.252, -1.162e-3
-1.251, -1.184e-3
-1.250, -1.202e-3
-1.249, -1.224e-3
-1.248, -1.239e-3
-1.247, -1.261e-3
-1.246, -1.282e-3
-1.245, -1.307e-3
-1.244, -1.332e-3
-1.243, -1.353e-3
-1.242, -1.378e-3
-1.241, -1.403e-3
-1.240, -1.424e-3
-1.239, -1.443e-3
-1.238, -1.458e-3
-1.237, -1.474e-3
-1.236, -1.492e-3
-1.235, -1.507e-3
-1.234, -1.529e-3
-1.233, -1.548e-3
-1.232, -1.569e-3
-1.231, -1.591e-3
-1.230, -1.609e-3
-1.229, -1.631e-3
-1.228, -1.646e-3
-1.227, -1.662e-3
-1.226, -1.674e-3
-1.225, -1.683e-3
-1.224, -1.696e-3
-1.223, -1.708e-3
-1.222, -1.723e-3
-1.221, -1.739e-3
-1.220, -1.757e-3
-1.219, -1.773e-3
-1.218, -1.788e-3
-1.217, -1.803e-3
-1.216, -1.816e-3
-1.215, -1.825e-3
-1.214, -1.834e-3
-1.213, -1.844e-3
-1.212, -1.850e-3
-1.211, -1.865e-3
-1.210, -1.877e-3
-1.209, -1.893e-3
-1.208, -1.905e-3
-1.207, -1.921e-3
-1.206, -1.933e-3
-1.205, -1.942e-3
-1.204, -1.951e-3
-1.203, -1.955e-3
-1.202, -1.961e-3
-1.201, -1.967e-3
-1.200, -1.973e-3
-1.199, -1.985e-3
-1.198, -1.998e-3
-1.197, -2.010e-3
-1.196, -2.022e-3
-1.195, -2.035e-3
-1.194, -2.044e-3
-1.193, -2.053e-3
-1.192, -2.056e-3
-1.191, -2.062e-3
-1.190, -2.066e-3
-1.189, -2.069e-3
-1.188, -2.075e-3
-1.187, -2.081e-3
-1.186, -2.090e-3
-1.185, -2.099e-3
-1.184, -2.112e-3
-1.183, -2.121e-3
-1.182, -2.127e-3
-1.181, -2.133e-3
-1.180, -2.136e-3
-1.179, -2.140e-3
-1.178, -2.143e-3
-1.177, -2.149e-3
-1.176, -2.152e-3
-1.175, -2.161e-3
-1.174, -2.167e-3
-1.173, -2.177e-3
-1.172, -2.186e-3
-1.171, -2.195e-3
-1.170, -2.195e-3
-1.169, -2.201e-3
-1.168, -2.201e-3
-1.167, -2.201e-3
-1.166, -2.201e-3
-1.165, -2.201e-3
-1.164, -2.207e-3
-1.163, -2.210e-3
-1.162, -2.220e-3
-1.161, -2.226e-3
-1.160, -2.232e-3
-1.159, -2.238e-3
-1.158, -2.241e-3
-1.157, -2.244e-3
-1.156, -2.244e-3
-1.155, -2.241e-3
-1.154, -2.244e-3
-1.153, -2.247e-3
-1.152, -2.251e-3
-1.151, -2.257e-3
-1.150, -2.266e-3
-1.149, -2.272e-3
-1.148, -2.278e-3
-1.147, -2.281e-3
-1.146, -2.281e-3
-1.145, -2.281e-3
-1.144, -2.278e-3
-1.143, -2.278e-3
-1.142, -2.278e-3
-1.141, -2.278e-3
-1.140, -2.281e-3
-1.139, -2.284e-3
-1.138, -2.291e-3
-1.137, -2.297e-3
-1.136, -2.300e-3
-1.135, -2.303e-3
-1.134, -2.303e-3
-1.133, -2.300e-3
-1.132, -2.300e-3
-1.131, -2.297e-3
-1.130, -2.297e-3
-1.129, -2.300e-3
-1.128, -2.303e-3
-1.127, -2.306e-3
-1.126, -2.312e-3
-1.125, -2.318e-3
-1.124, -2.321e-3
-1.123, -2.321e-3
-1.122, -2.321e-3
-1.121, -2.318e-3
-1.120, -2.318e-3
-1.119, -2.318e-3
-1.118, -2.318e-3
-1.117, -2.321e-3
-1.116, -2.325e-3
-1.115, -2.331e-3
-1.114, -2.334e-3
-1.113, -2.340e-3
-1.112, -2.340e-3
-1.111, -2.340e-3
-1.110, -2.337e-3
-1.109, -2.331e-3
-1.108, -2.328e-3
-1.107, -2.325e-3
-1.106, -2.325e-3
-1.105, -2.328e-3
-1.104, -2.328e-3
-1.103, -2.334e-3
-1.102, -2.340e-3
-1.101, -2.343e-3
-1.100, -2.343e-3
-1.099, -2.340e-3
-1.098, -2.340e-3
-1.097, -2.334e-3
-1.096, -2.331e-3
-1.095, -2.331e-3
-1.094, -2.328e-3
-1.093, -2.331e-3
-1.092, -2.334e-3
-1.091, -2.337e-3
-1.090, -2.340e-3
-1.089, -2.340e-3
-1.088, -2.340e-3
-1.087, -2.340e-3
-1.086, -2.334e-3
-1.085, -2.331e-3
-1.084, -2.331e-3
-1.083, -2.328e-3
-1.082, -2.331e-3
-1.081, -2.334e-3
-1.080, -2.337e-3
-1.079, -2.343e-3
-1.078, -2.343e-3
-1.077, -2.343e-3
-1.076, -2.340e-3
-1.075, -2.337e-3
-1.074, -2.334e-3
-1.073, -2.331e-3
-1.072, -2.331e-3
-1.071, -2.331e-3
-1.070, -2.334e-3
-1.069, -2.337e-3
-1.068, -2.340e-3
-1.067, -2.343e-3
-1.066, -2.346e-3
-1.065, -2.343e-3
-1.064, -2.337e-3
-1.063, -2.334e-3
-1.062, -2.328e-3
-1.061, -2.325e-3
-1.060, -2.321e-3
-1.059, -2.318e-3
-1.058, -2.318e-3
-1.057, -2.321e-3
-1.056, -2.328e-3
-1.055, -2.331e-3
-1.054, -2.337e-3
-1.053, -2.337e-3
-1.052, -2.337e-3
-1.051, -2.334e-3
-1.050, -2.331e-3
-1.049, -2.331e-3
-1.048, -2.328e-3
-1.047, -2.331e-3
-1.046, -2.334e-3
-1.045, -2.337e-3
-1.044, -2.343e-3
-1.043, -2.346e-3
-1.042, -2.346e-3
-1.041, -2.343e-3
-1.040, -2.340e-3
-1.039, -2.337e-3
-1.038, -2.331e-3
-1.037, -2.328e-3
-1.036, -2.328e-3
-1.035, -2.328e-3
-1.034, -2.334e-3
-1.033, -2.340e-3
-1.032, -2.343e-3
-1.031, -2.349e-3
-1.030, -2.349e-3
-1.029, -2.349e-3
-1.028, -2.349e-3
-1.027, -2.346e-3
-1.026, -2.343e-3
-1.025, -2.343e-3
-1.024, -2.346e-3
-1.023, -2.349e-3
-1.022, -2.355e-3
-1.021, -2.358e-3
-1.020, -2.365e-3
-1.019, -2.368e-3
-1.018, -2.365e-3
-1.017, -2.365e-3
-1.016, -2.362e-3
-1.015, -2.358e-3
-1.014, -2.358e-3
-1.013, -2.358e-3
-1.012, -2.362e-3
-1.011, -2.365e-3
-1.010, -2.371e-3
-1.009, -2.377e-3
-1.008, -2.380e-3
-1.007, -2.383e-3
-1.006, -2.380e-3
-1.005, -2.380e-3
-1.004, -2.380e-3
-1.003, -2.377e-3
-1.002, -2.377e-3
-1.001, -2.377e-3
