Mar. 31, 2025   11:46:59
Cyclic Voltammetry
File: c:/users/guazh/data/banditlqround7_x0exp518_r20/2025-03-28-exp999\exp999-2025-03-31t11_35_05-h2koh\exp999_cv_sr_800mvs_efin_-1500mv.bin
Data Source:  Experiment
Instrument Model:  CHI760E
Header: CV ran at 800 mVs
Note: 

Init E (V) = -1
High E (V) = -1
Low E (V) = -1.5
Final E (V) = -1
Init P/N = N
Scan Rate (V/s) = 0.8
Segment = 3
Sample Interval (V) = 0.001
Quiet Time (sec) = 2
Sensitivity (A/V) = 0.01
Comp R (ohm) = 1.8

Results:

Channel 1:
Segment 1:

Segment 2:

Segment 3:

Potential/V, Current/A

-1.000, 2.790e-5
-1.001, 1.204e-4
-1.002, 1.913e-4
-1.003, 2.437e-4
-1.004, 2.900e-4
-1.005, 3.239e-4
-1.006, 3.547e-4
-1.007, 3.763e-4
-1.008, 3.948e-4
-1.009, 4.071e-4
-1.010, 4.195e-4
-1.011, 4.256e-4
-1.012, 4.349e-4
-1.013, 4.380e-4
-1.014, 4.441e-4
-1.015, 4.441e-4
-1.016, 4.503e-4
-1.017, 4.565e-4
-1.018, 4.626e-4
-1.019, 4.657e-4
-1.020, 4.688e-4
-1.021, 4.688e-4
-1.022, 4.719e-4
-1.023, 4.719e-4
-1.024, 4.719e-4
-1.025, 4.719e-4
-1.026, 4.688e-4
-1.027, 4.688e-4
-1.028, 4.688e-4
-1.029, 4.719e-4
-1.030, 4.719e-4
-1.031, 4.750e-4
-1.032, 4.750e-4
-1.033, 4.811e-4
-1.034, 4.811e-4
-1.035, 4.811e-4
-1.036, 4.811e-4
-1.037, 4.780e-4
-1.038, 4.780e-4
-1.039, 4.780e-4
-1.040, 4.780e-4
-1.041, 4.780e-4
-1.042, 4.780e-4
-1.043, 4.780e-4
-1.044, 4.780e-4
-1.045, 4.811e-4
-1.046, 4.842e-4
-1.047, 4.811e-4
-1.048, 4.811e-4
-1.049, 4.811e-4
-1.050, 4.811e-4
-1.051, 4.780e-4
-1.052, 4.780e-4
-1.053, 4.750e-4
-1.054, 4.750e-4
-1.055, 4.750e-4
-1.056, 4.750e-4
-1.057, 4.780e-4
-1.058, 4.811e-4
-1.059, 4.811e-4
-1.060, 4.842e-4
-1.061, 4.842e-4
-1.062, 4.842e-4
-1.063, 4.842e-4
-1.064, 4.811e-4
-1.065, 4.811e-4
-1.066, 4.780e-4
-1.067, 4.780e-4
-1.068, 4.780e-4
-1.069, 4.780e-4
-1.070, 4.780e-4
-1.071, 4.811e-4
-1.072, 4.811e-4
-1.073, 4.842e-4
-1.074, 4.842e-4
-1.075, 4.842e-4
-1.076, 4.842e-4
-1.077, 4.842e-4
-1.078, 4.811e-4
-1.079, 4.811e-4
-1.080, 4.780e-4
-1.081, 4.780e-4
-1.082, 4.780e-4
-1.083, 4.780e-4
-1.084, 4.780e-4
-1.085, 4.811e-4
-1.086, 4.811e-4
-1.087, 4.842e-4
-1.088, 4.842e-4
-1.089, 4.842e-4
-1.090, 4.811e-4
-1.091, 4.811e-4
-1.092, 4.811e-4
-1.093, 4.780e-4
-1.094, 4.780e-4
-1.095, 4.780e-4
-1.096, 4.780e-4
-1.097, 4.811e-4
-1.098, 4.811e-4
-1.099, 4.842e-4
-1.100, 4.842e-4
-1.101, 4.842e-4
-1.102, 4.842e-4
-1.103, 4.842e-4
-1.104, 4.811e-4
-1.105, 4.811e-4
-1.106, 4.780e-4
-1.107, 4.780e-4
-1.108, 4.780e-4
-1.109, 4.780e-4
-1.110, 4.811e-4
-1.111, 4.842e-4
-1.112, 4.842e-4
-1.113, 4.873e-4
-1.114, 4.873e-4
-1.115, 4.873e-4
-1.116, 4.873e-4
-1.117, 4.842e-4
-1.118, 4.842e-4
-1.119, 4.842e-4
-1.120, 4.811e-4
-1.121, 4.842e-4
-1.122, 4.811e-4
-1.123, 4.842e-4
-1.124, 4.842e-4
-1.125, 4.873e-4
-1.126, 4.873e-4
-1.127, 4.904e-4
-1.128, 4.904e-4
-1.129, 4.904e-4
-1.130, 4.873e-4
-1.131, 4.873e-4
-1.132, 4.873e-4
-1.133, 4.842e-4
-1.134, 4.842e-4
-1.135, 4.842e-4
-1.136, 4.842e-4
-1.137, 4.873e-4
-1.138, 4.873e-4
-1.139, 4.904e-4
-1.140, 4.904e-4
-1.141, 4.904e-4
-1.142, 4.904e-4
-1.143, 4.904e-4
-1.144, 4.873e-4
-1.145, 4.873e-4
-1.146, 4.873e-4
-1.147, 4.842e-4
-1.148, 4.842e-4
-1.149, 4.873e-4
-1.150, 4.873e-4
-1.151, 4.904e-4
-1.152, 4.904e-4
-1.153, 4.935e-4
-1.154, 4.935e-4
-1.155, 4.935e-4
-1.156, 4.935e-4
-1.157, 4.935e-4
-1.158, 4.935e-4
-1.159, 4.904e-4
-1.160, 4.904e-4
-1.161, 4.904e-4
-1.162, 4.904e-4
-1.163, 4.904e-4
-1.164, 4.935e-4
-1.165, 4.935e-4
-1.166, 4.965e-4
-1.167, 4.996e-4
-1.168, 4.996e-4
-1.169, 5.027e-4
-1.170, 4.996e-4
-1.171, 4.996e-4
-1.172, 4.996e-4
-1.173, 4.996e-4
-1.174, 4.996e-4
-1.175, 4.996e-4
-1.176, 5.027e-4
-1.177, 5.058e-4
-1.178, 5.089e-4
-1.179, 5.089e-4
-1.180, 5.120e-4
-1.181, 5.120e-4
-1.182, 5.120e-4
-1.183, 5.120e-4
-1.184, 5.120e-4
-1.185, 5.120e-4
-1.186, 5.089e-4
-1.187, 5.089e-4
-1.188, 5.089e-4
-1.189, 5.120e-4
-1.190, 5.150e-4
-1.191, 5.181e-4
-1.192, 5.212e-4
-1.193, 5.243e-4
-1.194, 5.274e-4
-1.195, 5.305e-4
-1.196, 5.305e-4
-1.197, 5.305e-4
-1.198, 5.305e-4
-1.199, 5.305e-4
-1.200, 5.305e-4
-1.201, 5.305e-4
-1.202, 5.335e-4
-1.203, 5.335e-4
-1.204, 5.366e-4
-1.205, 5.366e-4
-1.206, 5.428e-4
-1.207, 5.428e-4
-1.208, 5.459e-4
-1.209, 5.459e-4
-1.210, 5.459e-4
-1.211, 5.459e-4
-1.212, 5.489e-4
-1.213, 5.489e-4
-1.214, 5.489e-4
-1.215, 5.520e-4
-1.216, 5.551e-4
-1.217, 5.613e-4
-1.218, 5.644e-4
-1.219, 5.674e-4
-1.220, 5.736e-4
-1.221, 5.767e-4
-1.222, 5.767e-4
-1.223, 5.767e-4
-1.224, 5.798e-4
-1.225, 5.798e-4
-1.226, 5.798e-4
-1.227, 5.829e-4
-1.228, 5.829e-4
-1.229, 5.890e-4
-1.230, 5.921e-4
-1.231, 5.952e-4
-1.232, 5.983e-4
-1.233, 6.044e-4
-1.234, 6.075e-4
-1.235, 6.137e-4
-1.236, 6.168e-4
-1.237, 6.199e-4
-1.238, 6.199e-4
-1.239, 6.229e-4
-1.240, 6.229e-4
-1.241, 6.291e-4
-1.242, 6.322e-4
-1.243, 6.353e-4
-1.244, 6.414e-4
-1.245, 6.476e-4
-1.246, 6.538e-4
-1.247, 6.569e-4
-1.248, 6.630e-4
-1.249, 6.661e-4
-1.250, 6.692e-4
-1.251, 6.754e-4
-1.252, 6.784e-4
-1.253, 6.815e-4
-1.254, 6.877e-4
-1.255, 6.908e-4
-1.256, 6.969e-4
-1.257, 7.062e-4
-1.258, 7.093e-4
-1.259, 7.185e-4
-1.260, 7.247e-4
-1.261, 7.309e-4
-1.262, 7.370e-4
-1.263, 7.432e-4
-1.264, 7.463e-4
-1.265, 7.524e-4
-1.266, 7.586e-4
-1.267, 7.648e-4
-1.268, 7.709e-4
-1.269, 7.802e-4
-1.270, 7.894e-4
-1.271, 7.987e-4
-1.272, 8.079e-4
-1.273, 8.172e-4
-1.274, 8.264e-4
-1.275, 8.357e-4
-1.276, 8.449e-4
-1.277, 8.511e-4
-1.278, 8.603e-4
-1.279, 8.665e-4
-1.280, 8.758e-4
-1.281, 8.850e-4
-1.282, 8.943e-4
-1.283, 9.035e-4
-1.284, 9.158e-4
-1.285, 9.282e-4
-1.286, 9.436e-4
-1.287, 9.528e-4
-1.288, 9.652e-4
-1.289, 9.744e-4
-1.290, 9.837e-4
-1.291, 9.960e-4
-1.292, 1.005e-3
-1.293, 1.014e-3
-1.294, 1.024e-3
-1.295, 1.036e-3
-1.296, 1.051e-3
-1.297, 1.064e-3
-1.298, 1.079e-3
-1.299, 1.095e-3
-1.300, 1.107e-3
-1.301, 1.119e-3
-1.302, 1.135e-3
-1.303, 1.150e-3
-1.304, 1.162e-3
-1.305, 1.175e-3
-1.306, 1.187e-3
-1.307, 1.203e-3
-1.308, 1.215e-3
-1.309, 1.230e-3
-1.310, 1.249e-3
-1.311, 1.267e-3
-1.312, 1.286e-3
-1.313, 1.304e-3
-1.314, 1.323e-3
-1.315, 1.341e-3
-1.316, 1.360e-3
-1.317, 1.378e-3
-1.318, 1.394e-3
-1.319, 1.412e-3
-1.320, 1.431e-3
-1.321, 1.452e-3
-1.322, 1.474e-3
-1.323, 1.495e-3
-1.324, 1.517e-3
-1.325, 1.539e-3
-1.326, 1.563e-3
-1.327, 1.582e-3
-1.328, 1.606e-3
-1.329, 1.625e-3
-1.330, 1.647e-3
-1.331, 1.668e-3
-1.332, 1.690e-3
-1.333, 1.708e-3
-1.334, 1.733e-3
-1.335, 1.754e-3
-1.336, 1.776e-3
-1.337, 1.804e-3
-1.338, 1.828e-3
-1.339, 1.856e-3
-1.340, 1.884e-3
-1.341, 1.912e-3
-1.342, 1.939e-3
-1.343, 1.967e-3
-1.344, 1.995e-3
-1.345, 2.026e-3
-1.346, 2.050e-3
-1.347, 2.081e-3
-1.348, 2.109e-3
-1.349, 2.140e-3
-1.350, 2.171e-3
-1.351, 2.201e-3
-1.352, 2.229e-3
-1.353, 2.263e-3
-1.354, 2.291e-3
-1.355, 2.319e-3
-1.356, 2.346e-3
-1.357, 2.374e-3
-1.358, 2.402e-3
-1.359, 2.430e-3
-1.360, 2.454e-3
-1.361, 2.485e-3
-1.362, 2.519e-3
-1.363, 2.550e-3
-1.364, 2.584e-3
-1.365, 2.621e-3
-1.366, 2.658e-3
-1.367, 2.695e-3
-1.368, 2.735e-3
-1.369, 2.772e-3
-1.370, 2.806e-3
-1.371, 2.843e-3
-1.372, 2.883e-3
-1.373, 2.917e-3
-1.374, 2.957e-3
-1.375, 2.997e-3
-1.376, 3.040e-3
-1.377, 3.083e-3
-1.378, 3.126e-3
-1.379, 3.167e-3
-1.380, 3.210e-3
-1.381, 3.250e-3
-1.382, 3.290e-3
-1.383, 3.330e-3
-1.384, 3.370e-3
-1.385, 3.404e-3
-1.386, 3.444e-3
-1.387, 3.481e-3
-1.388, 3.521e-3
-1.389, 3.561e-3
-1.390, 3.604e-3
-1.391, 3.647e-3
-1.392, 3.694e-3
-1.393, 3.740e-3
-1.394, 3.783e-3
-1.395, 3.829e-3
-1.396, 3.876e-3
-1.397, 3.922e-3
-1.398, 3.971e-3
-1.399, 4.017e-3
-1.400, 4.064e-3
-1.401, 4.113e-3
-1.402, 4.162e-3
-1.403, 4.212e-3
-1.404, 4.264e-3
-1.405, 4.317e-3
-1.406, 4.369e-3
-1.407, 4.418e-3
-1.408, 4.471e-3
-1.409, 4.520e-3
-1.410, 4.569e-3
-1.411, 4.619e-3
-1.412, 4.668e-3
-1.413, 4.714e-3
-1.414, 4.764e-3
-1.415, 4.813e-3
-1.416, 4.859e-3
-1.417, 4.908e-3
-1.418, 4.958e-3
-1.419, 5.004e-3
-1.420, 5.053e-3
-1.421, 5.100e-3
-1.422, 5.146e-3
-1.423, 5.192e-3
-1.424, 5.241e-3
-1.425, 5.291e-3
-1.426, 5.340e-3
-1.427, 5.396e-3
-1.428, 5.454e-3
-1.429, 5.513e-3
-1.430, 5.574e-3
-1.431, 5.639e-3
-1.432, 5.704e-3
-1.433, 5.769e-3
-1.434, 5.833e-3
-1.435, 5.895e-3
-1.436, 5.954e-3
-1.437, 6.009e-3
-1.438, 6.065e-3
-1.439, 6.120e-3
-1.440, 6.173e-3
-1.441, 6.225e-3
-1.442, 6.280e-3
-1.443, 6.339e-3
-1.444, 6.398e-3
-1.445, 6.459e-3
-1.446, 6.521e-3
-1.447, 6.583e-3
-1.448, 6.644e-3
-1.449, 6.706e-3
-1.450, 6.771e-3
-1.451, 6.832e-3
-1.452, 6.894e-3
-1.453, 6.956e-3
-1.454, 7.020e-3
-1.455, 7.085e-3
-1.456, 7.153e-3
-1.457, 7.221e-3
-1.458, 7.289e-3
-1.459, 7.356e-3
-1.460, 7.427e-3
-1.461, 7.492e-3
-1.462, 7.560e-3
-1.463, 7.628e-3
-1.464, 7.696e-3
-1.465, 7.760e-3
-1.466, 7.825e-3
-1.467, 7.887e-3
-1.468, 7.951e-3
-1.469, 8.013e-3
-1.470, 8.078e-3
-1.471, 8.143e-3
-1.472, 8.207e-3
-1.473, 8.275e-3
-1.474, 8.340e-3
-1.475, 8.405e-3
-1.476, 8.469e-3
-1.477, 8.534e-3
-1.478, 8.596e-3
-1.479, 8.661e-3
-1.480, 8.722e-3
-1.481, 8.787e-3
-1.482, 8.855e-3
-1.483, 8.923e-3
-1.484, 8.994e-3
-1.485, 9.064e-3
-1.486, 9.132e-3
-1.487, 9.197e-3
-1.488, 9.265e-3
-1.489, 9.330e-3
-1.490, 9.397e-3
-1.491, 9.465e-3
-1.492, 9.536e-3
-1.493, 9.604e-3
-1.494, 9.675e-3
-1.495, 9.743e-3
-1.496, 9.814e-3
-1.497, 9.885e-3
-1.498, 9.959e-3
-1.499, 1.004e-2
-1.500, 1.004e-2
-1.499, 9.928e-3
-1.498, 9.845e-3
-1.497, 9.771e-3
-1.496, 9.709e-3
-1.495, 9.647e-3
-1.494, 9.579e-3
-1.493, 9.512e-3
-1.492, 9.438e-3
-1.491, 9.367e-3
-1.490, 9.293e-3
-1.489, 9.219e-3
-1.488, 9.142e-3
-1.487, 9.061e-3
-1.486, 8.978e-3
-1.485, 8.895e-3
-1.484, 8.812e-3
-1.483, 8.728e-3
-1.482, 8.642e-3
-1.481, 8.562e-3
-1.480, 8.488e-3
-1.479, 8.411e-3
-1.478, 8.325e-3
-1.477, 8.254e-3
-1.476, 8.186e-3
-1.475, 8.118e-3
-1.474, 8.053e-3
-1.473, 7.985e-3
-1.472, 7.921e-3
-1.471, 7.856e-3
-1.470, 7.794e-3
-1.469, 7.730e-3
-1.468, 7.665e-3
-1.467, 7.594e-3
-1.466, 7.526e-3
-1.465, 7.458e-3
-1.464, 7.397e-3
-1.463, 7.329e-3
-1.462, 7.264e-3
-1.461, 7.199e-3
-1.460, 7.134e-3
-1.459, 7.070e-3
-1.458, 7.008e-3
-1.457, 6.943e-3
-1.456, 6.882e-3
-1.455, 6.817e-3
-1.454, 6.752e-3
-1.453, 6.687e-3
-1.452, 6.620e-3
-1.451, 6.555e-3
-1.450, 6.490e-3
-1.449, 6.425e-3
-1.448, 6.364e-3
-1.447, 6.296e-3
-1.446, 6.231e-3
-1.445, 6.163e-3
-1.444, 6.099e-3
-1.443, 6.034e-3
-1.442, 5.972e-3
-1.441, 5.907e-3
-1.440, 5.849e-3
-1.439, 5.787e-3
-1.438, 5.729e-3
-1.437, 5.673e-3
-1.436, 5.618e-3
-1.435, 5.565e-3
-1.434, 5.507e-3
-1.433, 5.454e-3
-1.432, 5.399e-3
-1.431, 5.343e-3
-1.430, 5.285e-3
-1.429, 5.229e-3
-1.428, 5.167e-3
-1.427, 5.106e-3
-1.426, 5.047e-3
-1.425, 4.989e-3
-1.424, 4.933e-3
-1.423, 4.875e-3
-1.422, 4.816e-3
-1.421, 4.757e-3
-1.420, 4.702e-3
-1.419, 4.646e-3
-1.418, 4.588e-3
-1.417, 4.532e-3
-1.416, 4.477e-3
-1.415, 4.421e-3
-1.414, 4.369e-3
-1.413, 4.320e-3
-1.412, 4.267e-3
-1.411, 4.218e-3
-1.410, 4.172e-3
-1.409, 4.119e-3
-1.408, 4.070e-3
-1.407, 4.021e-3
-1.406, 3.968e-3
-1.405, 3.919e-3
-1.404, 3.866e-3
-1.403, 3.811e-3
-1.402, 3.758e-3
-1.401, 3.703e-3
-1.400, 3.651e-3
-1.399, 3.601e-3
-1.398, 3.549e-3
-1.397, 3.503e-3
-1.396, 3.453e-3
-1.395, 3.407e-3
-1.394, 3.364e-3
-1.393, 3.318e-3
-1.392, 3.271e-3
-1.391, 3.225e-3
-1.390, 3.179e-3
-1.389, 3.133e-3
-1.388, 3.083e-3
-1.387, 3.037e-3
-1.386, 2.988e-3
-1.385, 2.941e-3
-1.384, 2.898e-3
-1.383, 2.855e-3
-1.382, 2.812e-3
-1.381, 2.772e-3
-1.380, 2.726e-3
-1.379, 2.686e-3
-1.378, 2.639e-3
-1.377, 2.596e-3
-1.376, 2.553e-3
-1.375, 2.510e-3
-1.374, 2.467e-3
-1.373, 2.420e-3
-1.372, 2.377e-3
-1.371, 2.337e-3
-1.370, 2.297e-3
-1.369, 2.257e-3
-1.368, 2.220e-3
-1.367, 2.183e-3
-1.366, 2.143e-3
-1.365, 2.106e-3
-1.364, 2.069e-3
-1.363, 2.032e-3
-1.362, 1.998e-3
-1.361, 1.961e-3
-1.360, 1.924e-3
-1.359, 1.890e-3
-1.358, 1.850e-3
-1.357, 1.816e-3
-1.356, 1.779e-3
-1.355, 1.745e-3
-1.354, 1.708e-3
-1.353, 1.674e-3
-1.352, 1.640e-3
-1.351, 1.603e-3
-1.350, 1.569e-3
-1.349, 1.532e-3
-1.348, 1.499e-3
-1.347, 1.462e-3
-1.346, 1.428e-3
-1.345, 1.397e-3
-1.344, 1.366e-3
-1.343, 1.335e-3
-1.342, 1.304e-3
-1.341, 1.277e-3
-1.340, 1.249e-3
-1.339, 1.221e-3
-1.338, 1.193e-3
-1.337, 1.166e-3
-1.336, 1.135e-3
-1.335, 1.110e-3
-1.334, 1.079e-3
-1.333, 1.051e-3
-1.332, 1.021e-3
-1.331, 9.929e-4
-1.330, 9.652e-4
-1.329, 9.405e-4
-1.328, 9.128e-4
-1.327, 8.881e-4
-1.326, 8.603e-4
-1.325, 8.326e-4
-1.324, 8.048e-4
-1.323, 7.771e-4
-1.322, 7.524e-4
-1.321, 7.247e-4
-1.320, 7.000e-4
-1.319, 6.754e-4
-1.318, 6.507e-4
-1.317, 6.291e-4
-1.316, 6.075e-4
-1.315, 5.859e-4
-1.314, 5.674e-4
-1.313, 5.459e-4
-1.312, 5.274e-4
-1.311, 5.058e-4
-1.310, 4.842e-4
-1.309, 4.626e-4
-1.308, 4.410e-4
-1.307, 4.195e-4
-1.306, 3.979e-4
-1.305, 3.763e-4
-1.304, 3.578e-4
-1.303, 3.393e-4
-1.302, 3.208e-4
-1.301, 3.023e-4
-1.300, 2.869e-4
-1.299, 2.684e-4
-1.298, 2.499e-4
-1.297, 2.314e-4
-1.296, 2.129e-4
-1.295, 1.944e-4
-1.294, 1.759e-4
-1.293, 1.574e-4
-1.292, 1.420e-4
-1.291, 1.235e-4
-1.290, 1.111e-4
-1.289, 9.573e-5
-1.288, 8.032e-5
-1.287, 6.798e-5
-1.286, 5.257e-5
-1.285, 3.715e-5
-1.284, 2.174e-5
-1.283, 6.322e-6
-1.282, -9.093e-6
-1.281, -2.143e-5
-1.280, -3.992e-5
-1.279, -5.226e-5
-1.278, -6.767e-5
-1.277, -8.000e-5
-1.276, -9.234e-5
-1.275, -1.016e-4
-1.274, -1.108e-4
-1.273, -1.263e-4
-1.272, -1.355e-4
-1.271, -1.478e-4
-1.270, -1.602e-4
-1.269, -1.725e-4
-1.268, -1.848e-4
-1.267, -1.972e-4
-1.266, -2.095e-4
-1.265, -2.218e-4
-1.264, -2.311e-4
-1.263, -2.372e-4
-1.262, -2.465e-4
-1.261, -2.557e-4
-1.260, -2.650e-4
-1.259, -2.712e-4
-1.258, -2.804e-4
-1.257, -2.927e-4
-1.256, -3.020e-4
-1.255, -3.112e-4
-1.254, -3.236e-4
-1.253, -3.328e-4
-1.252, -3.421e-4
-1.251, -3.513e-4
-1.250, -3.575e-4
-1.249, -3.637e-4
-1.248, -3.698e-4
-1.247, -3.760e-4
-1.246, -3.821e-4
-1.245, -3.883e-4
-1.244, -3.976e-4
-1.243, -4.037e-4
-1.242, -4.130e-4
-1.241, -4.191e-4
-1.240, -4.253e-4
-1.239, -4.346e-4
-1.238, -4.407e-4
-1.237, -4.469e-4
-1.236, -4.500e-4
-1.235, -4.561e-4
-1.234, -4.592e-4
-1.233, -4.654e-4
-1.232, -4.685e-4
-1.231, -4.746e-4
-1.230, -4.839e-4
-1.229, -4.901e-4
-1.228, -4.993e-4
-1.227, -5.055e-4
-1.226, -5.086e-4
-1.225, -5.147e-4
-1.224, -5.178e-4
-1.223, -5.209e-4
-1.222, -5.240e-4
-1.221, -5.271e-4
-1.220, -5.301e-4
-1.219, -5.301e-4
-1.218, -5.332e-4
-1.217, -5.394e-4
-1.216, -5.456e-4
-1.215, -5.517e-4
-1.214, -5.548e-4
-1.213, -5.579e-4
-1.212, -5.641e-4
-1.211, -5.671e-4
-1.210, -5.702e-4
-1.209, -5.733e-4
-1.208, -5.764e-4
-1.207, -5.764e-4
-1.206, -5.795e-4
-1.205, -5.826e-4
-1.204, -5.856e-4
-1.203, -5.887e-4
-1.202, -5.949e-4
-1.201, -6.011e-4
-1.200, -6.041e-4
-1.199, -6.072e-4
-1.198, -6.103e-4
-1.197, -6.103e-4
-1.196, -6.134e-4
-1.195, -6.134e-4
-1.194, -6.134e-4
-1.193, -6.165e-4
-1.192, -6.165e-4
-1.191, -6.195e-4
-1.190, -6.226e-4
-1.189, -6.257e-4
-1.188, -6.288e-4
-1.187, -6.319e-4
-1.186, -6.350e-4
-1.185, -6.380e-4
-1.184, -6.411e-4
-1.183, -6.411e-4
-1.182, -6.411e-4
-1.181, -6.411e-4
-1.180, -6.442e-4
-1.179, -6.442e-4
-1.178, -6.473e-4
-1.177, -6.504e-4
-1.176, -6.504e-4
-1.175, -6.565e-4
-1.174, -6.596e-4
-1.173, -6.596e-4
-1.172, -6.627e-4
-1.171, -6.658e-4
-1.170, -6.658e-4
-1.169, -6.658e-4
-1.168, -6.658e-4
-1.167, -6.658e-4
-1.166, -6.658e-4
-1.165, -6.658e-4
-1.164, -6.689e-4
-1.163, -6.720e-4
-1.162, -6.750e-4
-1.161, -6.750e-4
-1.160, -6.781e-4
-1.159, -6.781e-4
-1.158, -6.781e-4
-1.157, -6.812e-4
-1.156, -6.781e-4
-1.155, -6.781e-4
-1.154, -6.781e-4
-1.153, -6.750e-4
-1.152, -6.781e-4
-1.151, -6.781e-4
-1.150, -6.812e-4
-1.149, -6.843e-4
-1.148, -6.874e-4
-1.147, -6.905e-4
-1.146, -6.905e-4
-1.145, -6.935e-4
-1.144, -6.935e-4
-1.143, -6.935e-4
-1.142, -6.935e-4
-1.141, -6.935e-4
-1.140, -6.905e-4
-1.139, -6.935e-4
-1.138, -6.905e-4
-1.137, -6.935e-4
-1.136, -6.966e-4
-1.135, -6.997e-4
-1.134, -7.028e-4
-1.133, -7.028e-4
-1.132, -7.059e-4
-1.131, -7.028e-4
-1.130, -7.059e-4
-1.129, -7.028e-4
-1.128, -7.028e-4
-1.127, -6.997e-4
-1.126, -6.997e-4
-1.125, -6.997e-4
-1.124, -6.997e-4
-1.123, -6.997e-4
-1.122, -7.028e-4
-1.121, -7.028e-4
-1.120, -7.059e-4
-1.119, -7.059e-4
-1.118, -7.059e-4
-1.117, -7.059e-4
-1.116, -7.059e-4
-1.115, -7.028e-4
-1.114, -7.028e-4
-1.113, -7.059e-4
-1.112, -7.059e-4
-1.111, -7.059e-4
-1.110, -7.090e-4
-1.109, -7.120e-4
-1.108, -7.151e-4
-1.107, -7.151e-4
-1.106, -7.182e-4
-1.105, -7.182e-4
-1.104, -7.182e-4
-1.103, -7.182e-4
-1.102, -7.182e-4
-1.101, -7.182e-4
-1.100, -7.182e-4
-1.099, -7.151e-4
-1.098, -7.151e-4
-1.097, -7.151e-4
-1.096, -7.151e-4
-1.095, -7.151e-4
-1.094, -7.182e-4
-1.093, -7.213e-4
-1.092, -7.213e-4
-1.091, -7.213e-4
-1.090, -7.213e-4
-1.089, -7.213e-4
-1.088, -7.182e-4
-1.087, -7.182e-4
-1.086, -7.182e-4
-1.085, -7.151e-4
-1.084, -7.182e-4
-1.083, -7.182e-4
-1.082, -7.213e-4
-1.081, -7.244e-4
-1.080, -7.244e-4
-1.079, -7.244e-4
-1.078, -7.275e-4
-1.077, -7.275e-4
-1.076, -7.275e-4
-1.075, -7.244e-4
-1.074, -7.244e-4
-1.073, -7.213e-4
-1.072, -7.213e-4
-1.071, -7.213e-4
-1.070, -7.244e-4
-1.069, -7.213e-4
-1.068, -7.244e-4
-1.067, -7.275e-4
-1.066, -7.275e-4
-1.065, -7.305e-4
-1.064, -7.275e-4
-1.063, -7.275e-4
-1.062, -7.244e-4
-1.061, -7.244e-4
-1.060, -7.244e-4
-1.059, -7.244e-4
-1.058, -7.244e-4
-1.057, -7.244e-4
-1.056, -7.244e-4
-1.055, -7.275e-4
-1.054, -7.305e-4
-1.053, -7.305e-4
-1.052, -7.336e-4
-1.051, -7.336e-4
-1.050, -7.305e-4
-1.049, -7.305e-4
-1.048, -7.305e-4
-1.047, -7.275e-4
-1.046, -7.275e-4
-1.045, -7.275e-4
-1.044, -7.275e-4
-1.043, -7.305e-4
-1.042, -7.305e-4
-1.041, -7.336e-4
-1.040, -7.367e-4
-1.039, -7.367e-4
-1.038, -7.398e-4
-1.037, -7.398e-4
-1.036, -7.398e-4
-1.035, -7.398e-4
-1.034, -7.367e-4
-1.033, -7.336e-4
-1.032, -7.336e-4
-1.031, -7.336e-4
-1.030, -7.336e-4
-1.029, -7.336e-4
-1.028, -7.367e-4
-1.027, -7.367e-4
-1.026, -7.367e-4
-1.025, -7.367e-4
-1.024, -7.367e-4
-1.023, -7.367e-4
-1.022, -7.336e-4
-1.021, -7.336e-4
-1.020, -7.336e-4
-1.019, -7.336e-4
-1.018, -7.367e-4
-1.017, -7.367e-4
-1.016, -7.367e-4
-1.015, -7.398e-4
-1.014, -7.398e-4
-1.013, -7.398e-4
-1.012, -7.429e-4
-1.011, -7.429e-4
-1.010, -7.429e-4
-1.009, -7.398e-4
-1.008, -7.367e-4
-1.007, -7.336e-4
-1.006, -7.336e-4
-1.005, -7.305e-4
-1.004, -7.336e-4
-1.003, -7.336e-4
-1.002, -7.336e-4
-1.001, -7.336e-4
