Potential V vs RHE, Current mA cm-2
0.05339999999999995,-0.0249413602166206
0.05239999999999995,-0.026101423482509926
0.051399999999999946,-0.02661071955046134
0.050399999999999945,-0.0269643973754276
0.049399999999999944,-0.027261486748399254
0.04839999999999994,-0.02755857612137091
0.04739999999999994,-0.027855665494342572
0.04639999999999994,-0.02820934331930883
0.04539999999999994,-0.02852057980527914
0.04439999999999994,-0.02880352206525215
0.04339999999999994,-0.0290723172122265
0.04239999999999994,-0.029369406585198165
0.04139999999999994,-0.02970893729716577
0.040399999999999936,-0.03000602667013743
0.039399999999999935,-0.030288968930110433
0.038399999999999934,-0.03058605830308209
0.03739999999999993,-0.03085485345005645
0.03639999999999993,-0.031194384162024056
0.03539999999999993,-0.03149147353499571
0.03439999999999993,-0.03176026868197007
0.03339999999999993,-0.03204321094194308
0.03239999999999993,-0.032340300314914736
0.03139999999999993,-0.032693978139880994
0.030399999999999927,-0.03301936173884996
0.029399999999999926,-0.03330230399882296
0.028399999999999925,-0.03358524625879597
0.027399999999999924,-0.03386818851876898
0.026399999999999924,-0.034264307682731185
0.025399999999999923,-0.0345755441687015
0.024399999999999922,-0.03485848642867451
0.02339999999999992,-0.03518387002764346
0.02239999999999992,-0.035466812287616466
0.02139999999999992,-0.03584878433858003
0.020399999999999918,-0.036202462163546285
0.019399999999999917,-0.0365136986495166
0.018399999999999916,-0.0368249351354869
0.017399999999999916,-0.03716446584745452
0.016399999999999915,-0.03753229078541943
0.015399999999999914,-0.03791426283638299
0.014399999999999913,-0.03821135220935464
0.013399999999999912,-0.0385367358083236
0.012399999999999911,-0.03887626652029121
0.01139999999999991,-0.03925823857125477
0.01039999999999991,-0.03964021062221833
0.009399999999999908,-0.039979741334185935
0.008399999999999908,-0.04031927204615354
0.007399999999999907,-0.04065880275812116
0.006399999999999906,-0.04106906903508201
0.005399999999999905,-0.041451041086045574
0.004399999999999904,-0.04180471891101184
0.003399999999999903,-0.04215839673597809
0.002399999999999902,-0.0424979274479457
0.0013999999999999013,-0.042922340837905214
0.00039999999999990044,-0.04333260711486608
-0.0006000000000001005,-0.04368628493983233
-0.0016000000000001013,-0.044054109877797246
-0.0026000000000001022,-0.044421934815762155
-0.003600000000000103,-0.044860495318720314
-0.004600000000000104,-0.04528490870867982
-0.005600000000000105,-0.04563858653364609
-0.006600000000000106,-0.04602055858460964
-0.007600000000000107,-0.04638838352257455
-0.008600000000000108,-0.04682694402553272
-0.009600000000000108,-0.047251357415492225
-0.01060000000000011,-0.047647476579454444
-0.01160000000000011,-0.04804359574341665
-0.012600000000000111,-0.04846800913337616
-0.013600000000000112,-0.048920716749332974
-0.014600000000000113,-0.04935927725229113
-0.015600000000000114,-0.049741249303254687
-0.016600000000000115,-0.05012322135421825
-0.017600000000000116,-0.050533487631179104
-0.018600000000000116,-0.05100034236013457
-0.019600000000000117,-0.051481344202088684
-0.020600000000000118,-0.05187746336605089
-0.02160000000000012,-0.05228772964301176
-0.02260000000000012,-0.05271214303297127
-0.02360000000000012,-0.05317899776192673
-0.024600000000000122,-0.05364585249088218
-0.025600000000000123,-0.0540702658808417
-0.026600000000000124,-0.05450882638379986
-0.027600000000000124,-0.05496153399975667
-0.028600000000000125,-0.055428388728712134
-0.029600000000000126,-0.05588109634466895
-0.030600000000000127,-0.05633380396062577
-0.03160000000000013,-0.05675821735058527
-0.03260000000000013,-0.05721092496654208
-0.03360000000000013,-0.05769192680849619
-0.03460000000000002,-0.058172928650450303
-0.03560000000000002,-0.05862563626640712
-0.03660000000000002,-0.059050049656366635
-0.03760000000000002,-0.059502757272323445
-0.03860000000000002,-0.05996961200127891
-0.039600000000000024,-0.06045061384323301
-0.040600000000000025,-0.06091746857218847
-0.041600000000000026,-0.06135602907514664
-0.04260000000000003,-0.06183703091710076
-0.04360000000000003,-0.062332179872053514
-0.04460000000000003,-0.06285562305300357
-0.04560000000000003,-0.06332247778195904
-0.04660000000000003,-0.06380347962391315
-0.04760000000000003,-0.06428448146586727
-0.04860000000000003,-0.06479377753381868
-0.04960000000000003,-0.0653030736017701
-0.050600000000000034,-0.06579822255672285
-0.051600000000000035,-0.06626507728567832
-0.052600000000000036,-0.06673193201463377
-0.053600000000000037,-0.06725537519558383
-0.05460000000000004,-0.0677788183765339
-0.05560000000000004,-0.06827396733148668
-0.05660000000000004,-0.06872667494744349
-0.05760000000000004,-0.0692076767893976
-0.05860000000000004,-0.06971697285734901
-0.05960000000000004,-0.07026871026429637
-0.06060000000000004,-0.07076385921924913
-0.061600000000000044,-0.07124486106120324
-0.06260000000000004,-0.07174001001615601
-0.06360000000000005,-0.07226345319710607
-0.06460000000000005,-0.07281519060405345
-0.06560000000000005,-0.0732820453330089
-0.06660000000000005,-0.07377719428796166
-0.06760000000000005,-0.07425819612991578
-0.06860000000000005,-0.07478163931086583
-0.06960000000000005,-0.07531922960481456
-0.07060000000000005,-0.07582852567276598
-0.07160000000000005,-0.07628123328872279
-0.07260000000000005,-0.07677638224367554
-0.07360000000000005,-0.07728567831162694
-0.07460000000000006,-0.07783741571857432
-0.07560000000000006,-0.07831841756052843
-0.07660000000000006,-0.07881356651548119
-0.07760000000000006,-0.0793228625834326
-0.07860000000000006,-0.07984630576438266
-0.07960000000000006,-0.08035560183233408
-0.08060000000000006,-0.08085075078728685
-0.08160000000000006,-0.08133175262924096
-0.08260000000000006,-0.08181275447119508
-0.08360000000000006,-0.08235034476514379
-0.08460000000000006,-0.08287378794609385
-0.08560000000000006,-0.08334064267504931
-0.08660000000000007,-0.08379335029100612
-0.08760000000000007,-0.08421776368096563
-0.08860000000000007,-0.0847412068619157
-0.08960000000000007,-0.08526465004286575
-0.09060000000000007,-0.08573150477182122
-0.09160000000000007,-0.08619835950077669
-0.09260000000000007,-0.0866510671167335
-0.09360000000000007,-0.08714621607168627
-0.09460000000000007,-0.08762721791364038
-0.09560000000000007,-0.08805163130359987
-0.09660000000000007,-0.0885043389195567
-0.09760000000000008,-0.08894289942251486
-0.09860000000000008,-0.08943804837746762
-0.09960000000000008,-0.08994734444541903
-0.10060000000000008,-0.09037175783537854
-0.10160000000000008,-0.090838612564334
-0.10260000000000008,-0.09127717306729217
-0.10360000000000008,-0.09172988068324898
-0.10460000000000008,-0.0922391767512004
-0.10560000000000008,-0.09264944302816126
-0.10660000000000008,-0.09307385641812077
-0.10760000000000008,-0.09349826980808028
-0.10860000000000009,-0.09395097742403709
-0.10960000000000009,-0.09441783215299256
-0.11060000000000009,-0.0948280984299534
-0.11160000000000009,-0.09521007048091697
-0.11260000000000009,-0.09562033675787783
-0.11360000000000009,-0.096058897260836
-0.11460000000000009,-0.09652575198979144
-0.11560000000000009,-0.09695016537975096
-0.11660000000000009,-0.09728969609171857
-0.1176000000000001,-0.09768581525568078
-0.1186000000000001,-0.098081934419643
-0.1196000000000001,-0.09849220069660385
-0.1206000000000001,-0.09886002563456876
-0.1216000000000001,-0.09921370345953502
-0.1226000000000001,-0.0995673812845013
-0.1236000000000001,-0.09994935333546484
-0.1246000000000001,-0.1003596196124257
-0.1256000000000001,-0.10071329743739196
-0.1266000000000001,-0.10103868103636092
-0.1276000000000001,-0.10137821174832852
-0.1286000000000001,-0.10173188957329479
-0.1296000000000001,-0.10209971451125968
-0.1306000000000001,-0.10242509811022867
-0.1316000000000001,-0.1027221874832003
-0.1326000000000001,-0.10301927685617196
-0.1336000000000001,-0.10337295468113822
-0.1346000000000001,-0.10371248539310583
-0.1356000000000001,-0.10399542765307884
-0.1366000000000001,-0.10427836991305185
-0.1376000000000001,-0.10456131217302486
-0.1386000000000001,-0.10484425443299787
-0.1396000000000001,-0.10518378514496549
-0.1406000000000001,-0.10545258029193984
-0.14160000000000011,-0.10573552255191283
-0.14260000000000012,-0.10599017058588855
-0.14360000000000012,-0.10625896573286289
-0.14460000000000012,-0.10655605510583457
-0.14560000000000012,-0.10679655602681161
-0.14660000000000012,-0.10700876272179137
-0.14760000000000012,-0.10726341075576709
-0.14860000000000012,-0.10750391167674413
-0.14960000000000012,-0.1078010010497158
-0.15060000000000012,-0.10801320774469556
-0.15160000000000012,-0.10816882598768068
-0.15260000000000012,-0.10839517979565912
-0.15360000000000013,-0.10864982782963481
-0.15460000000000013,-0.10889032875061187
-0.15560000000000013,-0.10907424121959435
-0.15660000000000013,-0.10925815368857679
-0.15760000000000013,-0.10944206615755923
-0.15860000000000013,-0.10964012573954035
-0.15960000000000002,-0.10985233243452008
-0.16060000000000002,-0.11002209779050391
-0.16160000000000002,-0.11016356892049041
-0.16260000000000002,-0.11031918716347557
-0.16360000000000002,-0.11050309963245801
-0.16460000000000002,-0.11068701210144047
-0.16560000000000002,-0.11087092457042293
-0.16660000000000003,-0.11104068992640674
-0.16760000000000003,-0.11113971971739729
-0.16860000000000003,-0.11130948507338108
-0.16960000000000003,-0.11145095620336758
-0.17060000000000003,-0.11156413310735679
-0.17160000000000003,-0.11166316289834735
-0.17260000000000003,-0.11177633980233655
-0.17360000000000003,-0.11191781093232304
-0.17460000000000003,-0.11204513494931091
-0.17560000000000003,-0.11214416474030146
-0.17660000000000003,-0.1122149003052947
-0.17760000000000004,-0.11228563587028798
-0.17860000000000004,-0.11242710700027447
-0.17960000000000004,-0.11254028390426365
-0.18060000000000004,-0.11262516658225558
-0.18160000000000004,-0.11268175503425018
-0.18260000000000004,-0.11272419637324613
-0.18360000000000004,-0.11283737327723532
-0.18460000000000004,-0.11295055018122453
-0.18560000000000004,-0.11299299152022048
-0.18660000000000004,-0.11302128574621777
-0.18760000000000004,-0.11306372708521374
-0.18860000000000005,-0.11313446265020698
-0.18960000000000005,-0.11321934532819887
-0.19060000000000005,-0.11327593378019349
-0.19160000000000005,-0.11329008089319213
-0.19260000000000005,-0.11331837511918944
-0.19360000000000005,-0.1133891106841827
-0.19460000000000005,-0.11345984624917593
-0.19560000000000005,-0.11347399336217459
-0.19660000000000005,-0.11347399336217459
-0.19760000000000005,-0.11347399336217459
-0.19860000000000005,-0.1135305818141692
-0.19960000000000006,-0.11357302315316514
-0.20060000000000006,-0.1135871702661638
-0.20160000000000006,-0.1135871702661638
-0.20260000000000006,-0.1135871702661638
-0.20360000000000006,-0.11360131737916243
-0.20460000000000006,-0.11365790583115705
-0.20560000000000006,-0.1136720529441557
-0.20660000000000006,-0.1136437587181584
-0.20760000000000006,-0.11362961160515975
-0.20860000000000006,-0.1136437587181584
-0.20960000000000006,-0.11368620005715435
-0.21060000000000006,-0.1136720529441557
-0.21160000000000007,-0.1136437587181584
-0.21260000000000007,-0.11362961160515975
-0.21360000000000007,-0.1136437587181584
-0.21460000000000007,-0.1136720529441557
-0.21560000000000007,-0.11362961160515975
-0.21660000000000007,-0.1136154644921611
-0.21760000000000007,-0.11360131737916243
-0.21860000000000007,-0.1135871702661638
-0.21960000000000007,-0.1136154644921611
-0.22060000000000007,-0.11357302315316514
-0.22160000000000007,-0.1135305818141692
-0.22260000000000008,-0.11348814047517325
-0.22360000000000008,-0.11348814047517325
-0.22460000000000008,-0.11351643470117054
-0.22560000000000008,-0.11347399336217459
-0.22660000000000008,-0.11341740491017999
-0.22760000000000008,-0.11337496357118404
-0.22860000000000008,-0.11336081645818537
-0.22960000000000008,-0.1133891106841827
-0.23060000000000008,-0.11336081645818537
-0.23160000000000008,-0.11329008089319213
-0.23260000000000008,-0.11326178666719483
-0.23360000000000009,-0.11323349244119754
-0.2346000000000001,-0.11324763955419619
-0.2356000000000001,-0.11320519821520024
-0.2366000000000001,-0.11314860976320563
-0.2376000000000001,-0.11309202131121103
-0.2386000000000001,-0.11307787419821237
-0.2396000000000001,-0.11307787419821237
-0.2406000000000001,-0.1130495799722151
-0.2416000000000001,-0.11299299152022048
-0.2426000000000001,-0.11293640306822587
-0.2436000000000001,-0.11292225595522724
-0.2446000000000001,-0.11292225595522724
-0.2456000000000001,-0.11289396172922993
-0.2466000000000001,-0.11282322616423668
-0.2476000000000001,-0.11276663771224207
-0.2486000000000001,-0.11275249059924342
-0.2496000000000001,-0.11273834348624477
-0.2506000000000001,-0.11271004926024747
-0.2516000000000001,-0.1126393136952542
-0.2526000000000001,-0.11258272524325963
-0.2536000000000001,-0.11255443101726233
-0.2546000000000001,-0.11255443101726233
-0.2556000000000001,-0.11251198967826637
-0.2566000000000001,-0.11246954833927042
-0.2576000000000001,-0.11239881277427716
-0.2586000000000001,-0.11238466566127853
-0.2596000000000001,-0.11238466566127853
-0.2606000000000001,-0.11234222432228257
-0.2616000000000001,-0.11229978298328659
-0.2626000000000001,-0.11222904741829336
-0.2636000000000001,-0.1122149003052947
-0.2646000000000001,-0.11220075319229607
-0.2656000000000001,-0.11218660607929741
-0.2666000000000001,-0.11211587051430415
-0.2676000000000001,-0.11205928206230956
-0.2686000000000001,-0.11203098783631225
-0.2696000000000001,-0.11204513494931091
-0.2706000000000001,-0.1119885464973163
-0.2716000000000001,-0.11191781093232304
-0.2726000000000001,-0.11188951670632576
-0.2736000000000001,-0.1118470753673298
-0.2746000000000001,-0.11187536959332708
-0.2756000000000001,-0.1118470753673298
-0.2766000000000001,-0.1117621926893379
-0.2776000000000001,-0.11173389846334059
-0.2786000000000001,-0.1117056042373433
-0.2796000000000001,-0.1117056042373433
-0.2806000000000001,-0.11169145712434464
-0.28160000000000013,-0.11163486867235005
-0.28260000000000013,-0.11159242733335409
-0.28360000000000013,-0.11157828022035543
-0.2846,-0.11156413310735679
-0.2856,-0.11154998599435814
-0.2866,-0.11149339754236354
-0.2876,-0.11145095620336758
-0.2886,-0.11145095620336758
-0.2896,-0.11143680909036893
-0.2906,-0.11140851486437164
-0.2916,-0.11138022063837434
-0.2926,-0.11132363218637975
-0.2936,-0.11130948507338108
-0.29460000000000003,-0.11133777929937837
-0.29560000000000003,-0.11130948507338108
-0.29660000000000003,-0.11128119084738379
-0.29760000000000003,-0.11121045528239053
-0.29860000000000003,-0.11119630816939187
-0.29960000000000003,-0.11122460239538919
-0.30060000000000003,-0.11118216105639324
-0.30160000000000003,-0.11115386683039592
-0.30260000000000004,-0.11109727837840132
-0.30360000000000004,-0.11108313126540269
-0.30460000000000004,-0.11111142549139998
-0.30560000000000004,-0.11106898415240402
-0.30660000000000004,-0.11105483703940537
-0.30760000000000004,-0.11102654281340808
-0.30860000000000004,-0.11101239570040942
-0.30960000000000004,-0.11102654281340808
-0.31060000000000004,-0.11101239570040942
-0.31160000000000004,-0.1109558072484148
-0.31260000000000004,-0.11092751302241752
-0.31360000000000005,-0.11091336590941887
-0.31460000000000005,-0.11094166013541619
-0.31560000000000005,-0.11092751302241752
-0.31660000000000005,-0.11087092457042293
-0.31760000000000005,-0.11084263034442562
-0.31860000000000005,-0.11085677745742427
-0.31960000000000005,-0.11091336590941887
-0.32060000000000005,-0.11088507168342157
-0.32160000000000005,-0.11084263034442562
-0.32260000000000005,-0.11080018900542968
-0.32360000000000005,-0.11081433611842831
-0.32460000000000006,-0.11082848323142698
-0.32560000000000006,-0.11082848323142698
-0.32660000000000006,-0.11080018900542968
-0.32760000000000006,-0.11075774766643375
-0.32860000000000006,-0.11077189477943236
-0.32960000000000006,-0.11077189477943236
-0.33060000000000006,-0.11078604189243102
-0.33160000000000006,-0.11075774766643375
-0.33260000000000006,-0.11074360055343507
-0.33360000000000006,-0.11072945344043642
-0.33460000000000006,-0.11075774766643375
-0.33560000000000006,-0.11074360055343507
-0.33660000000000007,-0.11072945344043642
-0.33760000000000007,-0.11068701210144047
-0.33860000000000007,-0.11068701210144047
-0.33960000000000007,-0.11074360055343507
-0.34060000000000007,-0.11072945344043642
-0.34160000000000007,-0.11070115921443913
-0.34260000000000007,-0.11068701210144047
-0.34360000000000007,-0.11067286498844181
-0.3446000000000001,-0.11072945344043642
-0.3456000000000001,-0.11074360055343507
-0.3466000000000001,-0.11070115921443913
-0.34759999999999996,-0.11070115921443913
-0.3486000000000001,-0.11068701210144047
-0.34959999999999997,-0.11072945344043642
-0.3506000000000001,-0.11071530632743777
-0.35159999999999997,-0.11068701210144047
-0.3526000000000001,-0.11068701210144047
-0.35359999999999997,-0.11067286498844181
-0.3546000000000001,-0.11074360055343507
-0.35559999999999997,-0.11075774766643375
-0.3566000000000001,-0.11068701210144047
-0.3576,-0.11070115921443913
-0.3586000000000001,-0.11070115921443913
-0.3596,-0.11074360055343507
-0.3606000000000001,-0.11075774766643375
-0.3616,-0.11072945344043642
-0.3626000000000001,-0.11072945344043642
-0.3636,-0.11072945344043642
-0.3646000000000001,-0.11077189477943236
-0.3656,-0.11077189477943236
-0.3666000000000001,-0.11075774766643375
-0.3676,-0.11075774766643375
-0.3686000000000001,-0.11075774766643375
-0.3696,-0.11080018900542968
-0.3706000000000001,-0.11084263034442562
-0.3716,-0.11081433611842831
-0.3726000000000001,-0.11080018900542968
-0.3736,-0.11081433611842831
-0.3746000000000001,-0.11084263034442562
-0.3756,-0.11085677745742427
-0.3766000000000001,-0.11084263034442562
-0.3776,-0.11084263034442562
-0.3786000000000001,-0.11085677745742427
-0.3796,-0.11088507168342157
-0.3806000000000001,-0.11091336590941887
-0.3816,-0.11088507168342157
-0.3826000000000001,-0.11088507168342157
-0.3836,-0.11089921879642024
-0.3846000000000001,-0.11094166013541619
-0.3856,-0.11096995436141348
-0.3866000000000001,-0.11094166013541619
-0.3876,-0.11094166013541619
-0.3886000000000001,-0.11094166013541619
-0.3896,-0.11099824858741078
-0.3906000000000001,-0.11104068992640674
-0.3916,-0.11099824858741078
-0.3926000000000001,-0.11099824858741078
-0.3936,-0.11101239570040942
-0.3946000000000001,-0.11105483703940537
-0.3956,-0.11109727837840132
-0.3966000000000001,-0.11105483703940537
-0.3976,-0.11108313126540269
-0.3986000000000001,-0.11108313126540269
-0.3996,-0.11112557260439863
-0.4006000000000001,-0.11115386683039592
-0.4016,-0.11115386683039592
-0.4026000000000001,-0.11113971971739729
-0.4036,-0.11115386683039592
-0.4046000000000001,-0.11119630816939187
-0.4056,-0.11122460239538919
-0.40660000000000013,-0.11119630816939187
-0.4076,-0.11118216105639324
-0.40860000000000013,-0.11122460239538919
-0.4096,-0.11128119084738379
-0.41060000000000013,-0.11130948507338108
-0.4116,-0.11129533796038243
-0.41260000000000013,-0.11129533796038243
-0.4136,-0.11129533796038243
-0.41460000000000014,-0.11135192641237703
-0.4156,-0.11138022063837434
-0.41660000000000014,-0.11138022063837434
-0.4176,-0.11138022063837434
-0.41860000000000014,-0.1113660735253757
-0.41960000000000003,-0.11143680909036893
-0.42060000000000014,-0.11145095620336758
-0.42160000000000003,-0.11145095620336758
-0.42260000000000014,-0.11146510331636625
-0.42360000000000003,-0.1114792504293649
-0.42460000000000014,-0.11152169176836085
-0.42560000000000003,-0.11154998599435814
-0.42660000000000015,-0.11153583888135948
-0.42760000000000004,-0.11153583888135948
-0.42860000000000015,-0.11154998599435814
-0.42960000000000004,-0.11160657444635275
-0.43060000000000015,-0.11163486867235005
-0.43160000000000004,-0.1116207215593514
-0.43260000000000015,-0.11163486867235005
-0.43360000000000004,-0.11163486867235005
-0.43460000000000015,-0.11169145712434464
-0.43560000000000004,-0.11173389846334059
