Aug. 31, 2024   19:35:50
Cyclic Voltammetry
File: c:/users/guazh/data/20240829_batch_215_500/2024-08-29-exp232\exp232-2024-08-31t19_09_12-h2koh\exp232_cv_sr_700mvs_efin_-2000mv.bin
Data Source:  Experiment
Instrument Model:  CHI760E
Header: CV ran at 700 mVs
Note: 

Init E (V) = -1
High E (V) = -1
Low E (V) = -2
Final E (V) = -1
Init P/N = N
Scan Rate (V/s) = 0.7
Segment = 3
Sample Interval (V) = 0.001
Quiet Time (sec) = 2
Sensitivity (A/V) = 0.01
Comp R (ohm) = 2.7

Results:

Channel 1:
Segment 1:
Ep = -1.386V
ip = 8.123e-6A
Ah = 3.123e-7C

Segment 2:

Segment 3:

Potential/V, Current/A

-1.000, 3.239e-6
-1.001, 1.559e-7
-1.002, 3.239e-6
-1.003, 3.239e-6
-1.004, 3.239e-6
-1.005, 3.239e-6
-1.006, 3.239e-6
-1.007, 3.239e-6
-1.008, 3.239e-6
-1.009, 3.239e-6
-1.010, 3.239e-6
-1.011, 3.239e-6
-1.012, 3.239e-6
-1.013, 3.239e-6
-1.014, 3.239e-6
-1.015, 3.239e-6
-1.016, 3.239e-6
-1.017, 3.239e-6
-1.018, 3.239e-6
-1.019, 3.239e-6
-1.020, 3.239e-6
-1.021, 3.239e-6
-1.022, 6.322e-6
-1.023, 6.322e-6
-1.024, 3.239e-6
-1.025, 3.239e-6
-1.026, 3.239e-6
-1.027, 3.239e-6
-1.028, 3.239e-6
-1.029, 3.239e-6
-1.030, 3.239e-6
-1.031, 3.239e-6
-1.032, 3.239e-6
-1.033, 6.322e-6
-1.034, 6.322e-6
-1.035, 3.239e-6
-1.036, 6.322e-6
-1.037, 3.239e-6
-1.038, 3.239e-6
-1.039, 3.239e-6
-1.040, 6.322e-6
-1.041, 6.322e-6
-1.042, 3.239e-6
-1.043, 6.322e-6
-1.044, 3.239e-6
-1.045, 6.322e-6
-1.046, 3.239e-6
-1.047, 6.322e-6
-1.048, 6.322e-6
-1.049, 3.239e-6
-1.050, 6.322e-6
-1.051, 6.322e-6
-1.052, 6.322e-6
-1.053, 6.322e-6
-1.054, 6.322e-6
-1.055, 6.322e-6
-1.056, 3.239e-6
-1.057, 6.322e-6
-1.058, 6.322e-6
-1.059, 6.322e-6
-1.060, 6.322e-6
-1.061, 6.322e-6
-1.062, 6.322e-6
-1.063, 6.322e-6
-1.064, 6.322e-6
-1.065, 6.322e-6
-1.066, 6.322e-6
-1.067, 6.322e-6
-1.068, 6.322e-6
-1.069, 6.322e-6
-1.070, 6.322e-6
-1.071, 6.322e-6
-1.072, 6.322e-6
-1.073, 6.322e-6
-1.074, 6.322e-6
-1.075, 6.322e-6
-1.076, 6.322e-6
-1.077, 6.322e-6
-1.078, 6.322e-6
-1.079, 6.322e-6
-1.080, 6.322e-6
-1.081, 6.322e-6
-1.082, 6.322e-6
-1.083, 6.322e-6
-1.084, 6.322e-6
-1.085, 6.322e-6
-1.086, 6.322e-6
-1.087, 6.322e-6
-1.088, 6.322e-6
-1.089, 6.322e-6
-1.090, 6.322e-6
-1.091, 6.322e-6
-1.092, 6.322e-6
-1.093, 6.322e-6
-1.094, 6.322e-6
-1.095, 6.322e-6
-1.096, 6.322e-6
-1.097, 6.322e-6
-1.098, 9.405e-6
-1.099, 6.322e-6
-1.100, 6.322e-6
-1.101, 6.322e-6
-1.102, 6.322e-6
-1.103, 6.322e-6
-1.104, 6.322e-6
-1.105, 6.322e-6
-1.106, 6.322e-6
-1.107, 9.405e-6
-1.108, 6.322e-6
-1.109, 9.405e-6
-1.110, 6.322e-6
-1.111, 6.322e-6
-1.112, 6.322e-6
-1.113, 6.322e-6
-1.114, 9.405e-6
-1.115, 6.322e-6
-1.116, 6.322e-6
-1.117, 6.322e-6
-1.118, 6.322e-6
-1.119, 6.322e-6
-1.120, 6.322e-6
-1.121, 6.322e-6
-1.122, 6.322e-6
-1.123, 6.322e-6
-1.124, 6.322e-6
-1.125, 6.322e-6
-1.126, 6.322e-6
-1.127, 6.322e-6
-1.128, 6.322e-6
-1.129, 6.322e-6
-1.130, 9.405e-6
-1.131, 6.322e-6
-1.132, 6.322e-6
-1.133, 6.322e-6
-1.134, 6.322e-6
-1.135, 6.322e-6
-1.136, 6.322e-6
-1.137, 9.405e-6
-1.138, 6.322e-6
-1.139, 9.405e-6
-1.140, 9.405e-6
-1.141, 9.405e-6
-1.142, 6.322e-6
-1.143, 6.322e-6
-1.144, 6.322e-6
-1.145, 9.405e-6
-1.146, 9.405e-6
-1.147, 9.405e-6
-1.148, 9.405e-6
-1.149, 6.322e-6
-1.150, 9.405e-6
-1.151, 9.405e-6
-1.152, 9.405e-6
-1.153, 9.405e-6
-1.154, 9.405e-6
-1.155, 9.405e-6
-1.156, 9.405e-6
-1.157, 9.405e-6
-1.158, 9.405e-6
-1.159, 9.405e-6
-1.160, 9.405e-6
-1.161, 9.405e-6
-1.162, 9.405e-6
-1.163, 9.405e-6
-1.164, 9.405e-6
-1.165, 9.405e-6
-1.166, 9.405e-6
-1.167, 9.405e-6
-1.168, 9.405e-6
-1.169, 9.405e-6
-1.170, 9.405e-6
-1.171, 9.405e-6
-1.172, 9.405e-6
-1.173, 9.405e-6
-1.174, 9.405e-6
-1.175, 9.405e-6
-1.176, 9.405e-6
-1.177, 6.322e-6
-1.178, 9.405e-6
-1.179, 9.405e-6
-1.180, 9.405e-6
-1.181, 9.405e-6
-1.182, 9.405e-6
-1.183, 9.405e-6
-1.184, 9.405e-6
-1.185, 9.405e-6
-1.186, 9.405e-6
-1.187, 9.405e-6
-1.188, 9.405e-6
-1.189, 9.405e-6
-1.190, 9.405e-6
-1.191, 9.405e-6
-1.192, 9.405e-6
-1.193, 9.405e-6
-1.194, 9.405e-6
-1.195, 9.405e-6
-1.196, 9.405e-6
-1.197, 9.405e-6
-1.198, 9.405e-6
-1.199, 9.405e-6
-1.200, 9.405e-6
-1.201, 9.405e-6
-1.202, 9.405e-6
-1.203, 9.405e-6
-1.204, 9.405e-6
-1.205, 9.405e-6
-1.206, 9.405e-6
-1.207, 9.405e-6
-1.208, 9.405e-6
-1.209, 9.405e-6
-1.210, 9.405e-6
-1.211, 9.405e-6
-1.212, 9.405e-6
-1.213, 9.405e-6
-1.214, 9.405e-6
-1.215, 9.405e-6
-1.216, 9.405e-6
-1.217, 9.405e-6
-1.218, 9.405e-6
-1.219, 9.405e-6
-1.220, 9.405e-6
-1.221, 9.405e-6
-1.222, 9.405e-6
-1.223, 9.405e-6
-1.224, 9.405e-6
-1.225, 9.405e-6
-1.226, 9.405e-6
-1.227, 9.405e-6
-1.228, 9.405e-6
-1.229, 9.405e-6
-1.230, 9.405e-6
-1.231, 9.405e-6
-1.232, 9.405e-6
-1.233, 1.249e-5
-1.234, 9.405e-6
-1.235, 1.249e-5
-1.236, 9.405e-6
-1.237, 1.249e-5
-1.238, 9.405e-6
-1.239, 1.249e-5
-1.240, 9.405e-6
-1.241, 9.405e-6
-1.242, 9.405e-6
-1.243, 9.405e-6
-1.244, 1.249e-5
-1.245, 1.249e-5
-1.246, 1.249e-5
-1.247, 9.405e-6
-1.248, 1.249e-5
-1.249, 1.249e-5
-1.250, 1.249e-5
-1.251, 1.249e-5
-1.252, 9.405e-6
-1.253, 1.249e-5
-1.254, 1.249e-5
-1.255, 1.249e-5
-1.256, 1.249e-5
-1.257, 1.249e-5
-1.258, 1.249e-5
-1.259, 1.249e-5
-1.260, 1.249e-5
-1.261, 1.249e-5
-1.262, 1.249e-5
-1.263, 1.249e-5
-1.264, 1.249e-5
-1.265, 1.249e-5
-1.266, 1.249e-5
-1.267, 1.249e-5
-1.268, 1.249e-5
-1.269, 1.249e-5
-1.270, 1.249e-5
-1.271, 1.249e-5
-1.272, 1.249e-5
-1.273, 1.249e-5
-1.274, 1.249e-5
-1.275, 1.249e-5
-1.276, 1.249e-5
-1.277, 1.249e-5
-1.278, 1.249e-5
-1.279, 1.249e-5
-1.280, 1.249e-5
-1.281, 1.249e-5
-1.282, 1.249e-5
-1.283, 1.249e-5
-1.284, 1.249e-5
-1.285, 1.249e-5
-1.286, 1.249e-5
-1.287, 1.249e-5
-1.288, 1.249e-5
-1.289, 1.249e-5
-1.290, 1.249e-5
-1.291, 1.249e-5
-1.292, 1.249e-5
-1.293, 1.249e-5
-1.294, 1.249e-5
-1.295, 1.249e-5
-1.296, 1.249e-5
-1.297, 1.249e-5
-1.298, 1.249e-5
-1.299, 1.249e-5
-1.300, 1.249e-5
-1.301, 1.249e-5
-1.302, 1.249e-5
-1.303, 1.249e-5
-1.304, 1.249e-5
-1.305, 1.249e-5
-1.306, 1.249e-5
-1.307, 1.249e-5
-1.308, 1.249e-5
-1.309, 1.249e-5
-1.310, 1.557e-5
-1.311, 1.249e-5
-1.312, 1.249e-5
-1.313, 1.249e-5
-1.314, 1.249e-5
-1.315, 1.249e-5
-1.316, 1.249e-5
-1.317, 1.249e-5
-1.318, 1.249e-5
-1.319, 1.249e-5
-1.320, 1.557e-5
-1.321, 1.249e-5
-1.322, 1.557e-5
-1.323, 1.249e-5
-1.324, 1.249e-5
-1.325, 1.249e-5
-1.326, 1.557e-5
-1.327, 1.249e-5
-1.328, 1.557e-5
-1.329, 1.249e-5
-1.330, 1.557e-5
-1.331, 1.557e-5
-1.332, 1.557e-5
-1.333, 1.557e-5
-1.334, 1.249e-5
-1.335, 1.557e-5
-1.336, 1.557e-5
-1.337, 1.557e-5
-1.338, 1.557e-5
-1.339, 1.557e-5
-1.340, 1.557e-5
-1.341, 1.557e-5
-1.342, 1.557e-5
-1.343, 1.557e-5
-1.344, 1.557e-5
-1.345, 1.557e-5
-1.346, 1.557e-5
-1.347, 1.557e-5
-1.348, 1.557e-5
-1.349, 1.557e-5
-1.350, 1.557e-5
-1.351, 1.557e-5
-1.352, 1.557e-5
-1.353, 1.557e-5
-1.354, 1.557e-5
-1.355, 1.557e-5
-1.356, 1.557e-5
-1.357, 1.557e-5
-1.358, 1.557e-5
-1.359, 1.557e-5
-1.360, 1.865e-5
-1.361, 1.557e-5
-1.362, 1.557e-5
-1.363, 1.865e-5
-1.364, 1.865e-5
-1.365, 1.865e-5
-1.366, 1.865e-5
-1.367, 1.865e-5
-1.368, 1.557e-5
-1.369, 1.865e-5
-1.370, 1.865e-5
-1.371, 1.865e-5
-1.372, 1.865e-5
-1.373, 1.865e-5
-1.374, 1.865e-5
-1.375, 1.865e-5
-1.376, 1.865e-5
-1.377, 1.865e-5
-1.378, 1.865e-5
-1.379, 1.865e-5
-1.380, 1.865e-5
-1.381, 1.865e-5
-1.382, 1.865e-5
-1.383, 1.865e-5
-1.384, 1.865e-5
-1.385, 1.865e-5
-1.386, 2.174e-5
-1.387, 2.174e-5
-1.388, 1.865e-5
-1.389, 1.865e-5
-1.390, 2.174e-5
-1.391, 1.865e-5
-1.392, 2.174e-5
-1.393, 1.865e-5
-1.394, 1.865e-5
-1.395, 2.174e-5
-1.396, 1.865e-5
-1.397, 2.174e-5
-1.398, 2.174e-5
-1.399, 2.174e-5
-1.400, 2.174e-5
-1.401, 2.174e-5
-1.402, 2.174e-5
-1.403, 2.174e-5
-1.404, 2.174e-5
-1.405, 2.174e-5
-1.406, 2.174e-5
-1.407, 2.174e-5
-1.408, 2.174e-5
-1.409, 2.174e-5
-1.410, 2.174e-5
-1.411, 2.174e-5
-1.412, 2.174e-5
-1.413, 2.174e-5
-1.414, 2.174e-5
-1.415, 2.174e-5
-1.416, 2.174e-5
-1.417, 2.174e-5
-1.418, 2.174e-5
-1.419, 2.174e-5
-1.420, 2.174e-5
-1.421, 1.865e-5
-1.422, 2.174e-5
-1.423, 1.865e-5
-1.424, 2.174e-5
-1.425, 2.174e-5
-1.426, 2.174e-5
-1.427, 2.174e-5
-1.428, 2.174e-5
-1.429, 2.174e-5
-1.430, 2.174e-5
-1.431, 2.174e-5
-1.432, 1.865e-5
-1.433, 1.865e-5
-1.434, 2.174e-5
-1.435, 2.174e-5
-1.436, 2.174e-5
-1.437, 1.865e-5
-1.438, 1.865e-5
-1.439, 1.865e-5
-1.440, 2.174e-5
-1.441, 2.174e-5
-1.442, 2.174e-5
-1.443, 2.174e-5
-1.444, 1.865e-5
-1.445, 1.865e-5
-1.446, 1.865e-5
-1.447, 2.174e-5
-1.448, 1.865e-5
-1.449, 1.865e-5
-1.450, 1.865e-5
-1.451, 2.174e-5
-1.452, 2.174e-5
-1.453, 1.865e-5
-1.454, 1.865e-5
-1.455, 1.865e-5
-1.456, 1.865e-5
-1.457, 1.865e-5
-1.458, 2.174e-5
-1.459, 1.865e-5
-1.460, 1.865e-5
-1.461, 2.174e-5
-1.462, 2.174e-5
-1.463, 1.865e-5
-1.464, 1.865e-5
-1.465, 2.174e-5
-1.466, 2.174e-5
-1.467, 2.174e-5
-1.468, 2.174e-5
-1.469, 2.174e-5
-1.470, 2.174e-5
-1.471, 2.174e-5
-1.472, 1.865e-5
-1.473, 1.865e-5
-1.474, 1.865e-5
-1.475, 2.174e-5
-1.476, 1.865e-5
-1.477, 2.174e-5
-1.478, 2.174e-5
-1.479, 2.174e-5
-1.480, 2.174e-5
-1.481, 1.865e-5
-1.482, 2.174e-5
-1.483, 1.865e-5
-1.484, 2.174e-5
-1.485, 2.174e-5
-1.486, 2.174e-5
-1.487, 1.865e-5
-1.488, 2.174e-5
-1.489, 1.865e-5
-1.490, 2.174e-5
-1.491, 2.174e-5
-1.492, 2.174e-5
-1.493, 1.865e-5
-1.494, 2.174e-5
-1.495, 2.174e-5
-1.496, 2.174e-5
-1.497, 2.174e-5
-1.498, 2.174e-5
-1.499, 1.865e-5
-1.500, 2.174e-5
-1.501, 2.174e-5
-1.502, 2.174e-5
-1.503, 2.174e-5
-1.504, 2.174e-5
-1.505, 1.865e-5
-1.506, 2.174e-5
-1.507, 2.174e-5
-1.508, 2.174e-5
-1.509, 2.174e-5
-1.510, 2.174e-5
-1.511, 2.174e-5
-1.512, 2.174e-5
-1.513, 2.174e-5
-1.514, 2.174e-5
-1.515, 2.174e-5
-1.516, 2.174e-5
-1.517, 2.174e-5
-1.518, 2.174e-5
-1.519, 2.174e-5
-1.520, 2.174e-5
-1.521, 2.174e-5
-1.522, 2.174e-5
-1.523, 2.174e-5
-1.524, 2.174e-5
-1.525, 2.174e-5
-1.526, 2.174e-5
-1.527, 2.174e-5
-1.528, 2.174e-5
-1.529, 2.174e-5
-1.530, 2.174e-5
-1.531, 2.174e-5
-1.532, 2.174e-5
-1.533, 2.174e-5
-1.534, 2.174e-5
-1.535, 2.174e-5
-1.536, 2.174e-5
-1.537, 2.174e-5
-1.538, 2.174e-5
-1.539, 2.174e-5
-1.540, 2.174e-5
-1.541, 2.174e-5
-1.542, 2.174e-5
-1.543, 2.174e-5
-1.544, 2.174e-5
-1.545, 2.174e-5
-1.546, 2.174e-5
-1.547, 2.174e-5
-1.548, 2.174e-5
-1.549, 2.174e-5
-1.550, 2.174e-5
-1.551, 2.174e-5
-1.552, 2.174e-5
-1.553, 2.174e-5
-1.554, 2.174e-5
-1.555, 2.174e-5
-1.556, 2.174e-5
-1.557, 2.174e-5
-1.558, 2.174e-5
-1.559, 2.174e-5
-1.560, 2.174e-5
-1.561, 2.174e-5
-1.562, 2.174e-5
-1.563, 2.174e-5
-1.564, 2.174e-5
-1.565, 2.174e-5
-1.566, 2.174e-5
-1.567, 2.174e-5
-1.568, 2.482e-5
-1.569, 2.174e-5
-1.570, 2.174e-5
-1.571, 2.174e-5
-1.572, 2.482e-5
-1.573, 2.174e-5
-1.574, 2.174e-5
-1.575, 2.174e-5
-1.576, 2.482e-5
-1.577, 2.174e-5
-1.578, 2.482e-5
-1.579, 2.482e-5
-1.580, 2.174e-5
-1.581, 2.174e-5
-1.582, 2.482e-5
-1.583, 2.482e-5
-1.584, 2.174e-5
-1.585, 2.174e-5
-1.586, 2.482e-5
-1.587, 2.174e-5
-1.588, 2.482e-5
-1.589, 2.482e-5
-1.590, 2.482e-5
-1.591, 2.174e-5
-1.592, 2.482e-5
-1.593, 2.482e-5
-1.594, 2.482e-5
-1.595, 2.482e-5
-1.596, 2.482e-5
-1.597, 2.482e-5
-1.598, 2.482e-5
-1.599, 2.482e-5
-1.600, 2.482e-5
-1.601, 2.482e-5
-1.602, 2.482e-5
-1.603, 2.482e-5
-1.604, 2.482e-5
-1.605, 2.482e-5
-1.606, 2.482e-5
-1.607, 2.482e-5
-1.608, 2.482e-5
-1.609, 2.482e-5
-1.610, 2.482e-5
-1.611, 2.482e-5
-1.612, 2.482e-5
-1.613, 2.482e-5
-1.614, 2.482e-5
-1.615, 2.482e-5
-1.616, 2.482e-5
-1.617, 2.482e-5
-1.618, 2.482e-5
-1.619, 2.482e-5
-1.620, 2.482e-5
-1.621, 2.482e-5
-1.622, 2.482e-5
-1.623, 2.482e-5
-1.624, 2.482e-5
-1.625, 2.482e-5
-1.626, 2.482e-5
-1.627, 2.482e-5
-1.628, 2.482e-5
-1.629, 2.482e-5
-1.630, 2.482e-5
-1.631, 2.482e-5
-1.632, 2.482e-5
-1.633, 2.482e-5
-1.634, 2.482e-5
-1.635, 2.482e-5
-1.636, 2.482e-5
-1.637, 2.482e-5
-1.638, 2.482e-5
-1.639, 2.482e-5
-1.640, 2.482e-5
-1.641, 2.790e-5
-1.642, 2.482e-5
-1.643, 2.482e-5
-1.644, 2.482e-5
-1.645, 2.482e-5
-1.646, 2.790e-5
-1.647, 2.482e-5
-1.648, 2.482e-5
-1.649, 2.482e-5
-1.650, 2.790e-5
-1.651, 2.482e-5
-1.652, 2.482e-5
-1.653, 2.790e-5
-1.654, 2.790e-5
-1.655, 2.790e-5
-1.656, 2.482e-5
-1.657, 2.790e-5
-1.658, 2.790e-5
-1.659, 2.790e-5
-1.660, 2.790e-5
-1.661, 2.482e-5
-1.662, 2.790e-5
-1.663, 2.790e-5
-1.664, 2.790e-5
-1.665, 2.790e-5
-1.666, 2.790e-5
-1.667, 2.790e-5
-1.668, 2.790e-5
-1.669, 2.790e-5
-1.670, 2.790e-5
-1.671, 2.790e-5
-1.672, 2.790e-5
-1.673, 2.790e-5
-1.674, 2.790e-5
-1.675, 2.790e-5
-1.676, 2.790e-5
-1.677, 2.790e-5
-1.678, 2.790e-5
-1.679, 2.790e-5
-1.680, 3.099e-5
-1.681, 2.790e-5
-1.682, 2.790e-5
-1.683, 2.790e-5
-1.684, 2.790e-5
-1.685, 2.790e-5
-1.686, 2.790e-5
-1.687, 3.099e-5
-1.688, 2.790e-5
-1.689, 2.790e-5
-1.690, 3.099e-5
-1.691, 3.099e-5
-1.692, 3.099e-5
-1.693, 3.099e-5
-1.694, 3.099e-5
-1.695, 3.099e-5
-1.696, 3.099e-5
-1.697, 3.099e-5
-1.698, 3.099e-5
-1.699, 3.099e-5
-1.700, 3.099e-5
-1.701, 3.099e-5
-1.702, 3.099e-5
-1.703, 3.099e-5
-1.704, 3.099e-5
-1.705, 3.099e-5
-1.706, 3.099e-5
-1.707, 3.099e-5
-1.708, 3.099e-5
-1.709, 3.099e-5
-1.710, 3.099e-5
-1.711, 3.407e-5
-1.712, 3.407e-5
-1.713, 3.407e-5
-1.714, 3.407e-5
-1.715, 3.407e-5
-1.716, 3.407e-5
-1.717, 3.407e-5
-1.718, 3.407e-5
-1.719, 3.407e-5
-1.720, 3.407e-5
-1.721, 3.407e-5
-1.722, 3.407e-5
-1.723, 3.407e-5
-1.724, 3.407e-5
-1.725, 3.407e-5
-1.726, 3.407e-5
-1.727, 3.407e-5
-1.728, 3.715e-5
-1.729, 3.407e-5
-1.730, 3.715e-5
-1.731, 3.715e-5
-1.732, 3.715e-5
-1.733, 3.715e-5
-1.734, 3.715e-5
-1.735, 3.715e-5
-1.736, 3.715e-5
-1.737, 3.715e-5
-1.738, 3.715e-5
-1.739, 4.024e-5
-1.740, 3.715e-5
-1.741, 4.024e-5
-1.742, 4.024e-5
-1.743, 4.024e-5
-1.744, 4.024e-5
-1.745, 4.024e-5
-1.746, 4.024e-5
-1.747, 4.024e-5
-1.748, 4.332e-5
-1.749, 4.024e-5
-1.750, 4.332e-5
-1.751, 4.332e-5
-1.752, 4.332e-5
-1.753, 4.332e-5
-1.754, 4.332e-5
-1.755, 4.332e-5
-1.756, 4.332e-5
-1.757, 4.640e-5
-1.758, 4.640e-5
-1.759, 4.640e-5
-1.760, 4.640e-5
-1.761, 4.640e-5
-1.762, 4.949e-5
-1.763, 4.949e-5
-1.764, 4.949e-5
-1.765, 4.949e-5
-1.766, 4.949e-5
-1.767, 5.257e-5
-1.768, 5.257e-5
-1.769, 5.257e-5
-1.770, 5.257e-5
-1.771, 5.257e-5
-1.772, 5.257e-5
-1.773, 5.257e-5
-1.774, 5.565e-5
-1.775, 5.565e-5
-1.776, 5.565e-5
-1.777, 5.873e-5
-1.778, 5.873e-5
-1.779, 5.873e-5
-1.780, 6.182e-5
-1.781, 6.182e-5
-1.782, 6.182e-5
-1.783, 6.182e-5
-1.784, 6.490e-5
-1.785, 6.490e-5
-1.786, 6.490e-5
-1.787, 6.798e-5
-1.788, 6.798e-5
-1.789, 6.798e-5
-1.790, 7.107e-5
-1.791, 7.415e-5
-1.792, 7.415e-5
-1.793, 7.415e-5
-1.794, 7.723e-5
-1.795, 7.723e-5
-1.796, 8.032e-5
-1.797, 8.032e-5
-1.798, 8.340e-5
-1.799, 8.340e-5
-1.800, 8.648e-5
-1.801, 8.957e-5
-1.802, 8.957e-5
-1.803, 9.265e-5
-1.804, 9.573e-5
-1.805, 9.573e-5
-1.806, 9.882e-5
-1.807, 1.019e-4
-1.808, 1.019e-4
-1.809, 1.081e-4
-1.810, 1.081e-4
-1.811, 1.081e-4
-1.812, 1.142e-4
-1.813, 1.173e-4
-1.814, 1.204e-4
-1.815, 1.235e-4
-1.816, 1.266e-4
-1.817, 1.266e-4
-1.818, 1.327e-4
-1.819, 1.358e-4
-1.820, 1.389e-4
-1.821, 1.420e-4
-1.822, 1.451e-4
-1.823, 1.512e-4
-1.824, 1.543e-4
-1.825, 1.574e-4
-1.826, 1.636e-4
-1.827, 1.666e-4
-1.828, 1.728e-4
-1.829, 1.759e-4
-1.830, 1.821e-4
-1.831, 1.882e-4
-1.832, 1.913e-4
-1.833, 1.975e-4
-1.834, 2.036e-4
-1.835, 2.098e-4
-1.836, 2.160e-4
-1.837, 2.221e-4
-1.838, 2.283e-4
-1.839, 2.376e-4
-1.840, 2.437e-4
-1.841, 2.499e-4
-1.842, 2.591e-4
-1.843, 2.653e-4
-1.844, 2.746e-4
-1.845, 2.838e-4
-1.846, 2.931e-4
-1.847, 3.023e-4
-1.848, 3.085e-4
-1.849, 3.208e-4
-1.850, 3.300e-4
-1.851, 3.424e-4
-1.852, 3.516e-4
-1.853, 3.640e-4
-1.854, 3.763e-4
-1.855, 3.855e-4
-1.856, 4.010e-4
-1.857, 4.133e-4
-1.858, 4.256e-4
-1.859, 4.380e-4
-1.860, 4.534e-4
-1.861, 4.688e-4
-1.862, 4.842e-4
-1.863, 4.996e-4
-1.864, 5.150e-4
-1.865, 5.335e-4
-1.866, 5.489e-4
-1.867, 5.674e-4
-1.868, 5.859e-4
-1.869, 6.044e-4
-1.870, 6.229e-4
-1.871, 6.445e-4
-1.872, 6.661e-4
-1.873, 6.877e-4
-1.874, 7.093e-4
-1.875, 7.309e-4
-1.876, 7.524e-4
-1.877, 7.771e-4
-1.878, 8.048e-4
-1.879, 8.295e-4
-1.880, 8.542e-4
-1.881, 8.819e-4
-1.882, 9.097e-4
-1.883, 9.374e-4
-1.884, 9.683e-4
-1.885, 9.960e-4
-1.886, 1.027e-3
-1.887, 1.058e-3
-1.888, 1.092e-3
-1.889, 1.122e-3
-1.890, 1.156e-3
-1.891, 1.190e-3
-1.892, 1.224e-3
-1.893, 1.258e-3
-1.894, 1.298e-3
-1.895, 1.335e-3
-1.896, 1.372e-3
-1.897, 1.412e-3
-1.898, 1.449e-3
-1.899, 1.492e-3
-1.900, 1.532e-3
-1.901, 1.576e-3
-1.902, 1.616e-3
-1.903, 1.659e-3
-1.904, 1.699e-3
-1.905, 1.739e-3
-1.906, 1.782e-3
-1.907, 1.822e-3
-1.908, 1.865e-3
-1.909, 1.909e-3
-1.910, 1.955e-3
-1.911, 2.001e-3
-1.912, 2.044e-3
-1.913, 2.094e-3
-1.914, 2.146e-3
-1.915, 2.201e-3
-1.916, 2.254e-3
-1.917, 2.306e-3
-1.918, 2.356e-3
-1.919, 2.405e-3
-1.920, 2.454e-3
-1.921, 2.504e-3
-1.922, 2.556e-3
-1.923, 2.608e-3
-1.924, 2.661e-3
-1.925, 2.716e-3
-1.926, 2.778e-3
-1.927, 2.837e-3
-1.928, 2.895e-3
-1.929, 2.957e-3
-1.930, 3.015e-3
-1.931, 3.071e-3
-1.932, 3.130e-3
-1.933, 3.185e-3
-1.934, 3.244e-3
-1.935, 3.302e-3
-1.936, 3.361e-3
-1.937, 3.422e-3
-1.938, 3.484e-3
-1.939, 3.549e-3
-1.940, 3.614e-3
-1.941, 3.678e-3
-1.942, 3.743e-3
-1.943, 3.811e-3
-1.944, 3.876e-3
-1.945, 3.940e-3
-1.946, 4.008e-3
-1.947, 4.079e-3
-1.948, 4.147e-3
-1.949, 4.215e-3
-1.950, 4.289e-3
-1.951, 4.360e-3
-1.952, 4.434e-3
-1.953, 4.511e-3
-1.954, 4.588e-3
-1.955, 4.662e-3
-1.956, 4.736e-3
-1.957, 4.810e-3
-1.958, 4.881e-3
-1.959, 4.949e-3
-1.960, 5.019e-3
-1.961, 5.093e-3
-1.962, 5.171e-3
-1.963, 5.251e-3
-1.964, 5.331e-3
-1.965, 5.411e-3
-1.966, 5.488e-3
-1.967, 5.562e-3
-1.968, 5.636e-3
-1.969, 5.710e-3
-1.970, 5.790e-3
-1.971, 5.870e-3
-1.972, 5.947e-3
-1.973, 6.025e-3
-1.974, 6.099e-3
-1.975, 6.173e-3
-1.976, 6.250e-3
-1.977, 6.324e-3
-1.978, 6.401e-3
-1.979, 6.478e-3
-1.980, 6.555e-3
-1.981, 6.632e-3
-1.982, 6.706e-3
-1.983, 6.783e-3
-1.984, 6.857e-3
-1.985, 6.928e-3
-1.986, 6.999e-3
-1.987, 7.067e-3
-1.988, 7.138e-3
-1.989, 7.212e-3
-1.990, 7.286e-3
-1.991, 7.363e-3
-1.992, 7.437e-3
-1.993, 7.514e-3
-1.994, 7.585e-3
-1.995, 7.665e-3
-1.996, 7.748e-3
-1.997, 7.828e-3
-1.998, 7.908e-3
-1.999, 7.985e-3
-2.000, 8.016e-3
-1.999, 7.967e-3
-1.998, 7.924e-3
-1.997, 7.878e-3
-1.996, 7.834e-3
-1.995, 7.788e-3
-1.994, 7.739e-3
-1.993, 7.686e-3
-1.992, 7.631e-3
-1.991, 7.572e-3
-1.990, 7.517e-3
-1.989, 7.467e-3
-1.988, 7.412e-3
-1.987, 7.356e-3
-1.986, 7.301e-3
-1.985, 7.245e-3
-1.984, 7.184e-3
-1.983, 7.122e-3
-1.982, 7.060e-3
-1.981, 7.002e-3
-1.980, 6.937e-3
-1.979, 6.879e-3
-1.978, 6.814e-3
-1.977, 6.749e-3
-1.976, 6.687e-3
-1.975, 6.623e-3
-1.974, 6.561e-3
-1.973, 6.499e-3
-1.972, 6.441e-3
-1.971, 6.376e-3
-1.970, 6.314e-3
-1.969, 6.256e-3
-1.968, 6.200e-3
-1.967, 6.145e-3
-1.966, 6.086e-3
-1.965, 6.031e-3
-1.964, 5.981e-3
-1.963, 5.926e-3
-1.962, 5.873e-3
-1.961, 5.818e-3
-1.960, 5.769e-3
-1.959, 5.716e-3
-1.958, 5.664e-3
-1.957, 5.614e-3
-1.956, 5.562e-3
-1.955, 5.510e-3
-1.954, 5.457e-3
-1.953, 5.405e-3
-1.952, 5.352e-3
-1.951, 5.303e-3
-1.950, 5.254e-3
-1.949, 5.204e-3
-1.948, 5.158e-3
-1.947, 5.109e-3
-1.946, 5.060e-3
-1.945, 5.007e-3
-1.944, 4.958e-3
-1.943, 4.905e-3
-1.942, 4.853e-3
-1.941, 4.801e-3
-1.940, 4.742e-3
-1.939, 4.686e-3
-1.938, 4.628e-3
-1.937, 4.579e-3
-1.936, 4.529e-3
-1.935, 4.483e-3
-1.934, 4.437e-3
-1.933, 4.387e-3
-1.932, 4.338e-3
-1.931, 4.283e-3
-1.930, 4.233e-3
-1.929, 4.184e-3
-1.928, 4.138e-3
-1.927, 4.095e-3
-1.926, 4.048e-3
-1.925, 4.005e-3
-1.924, 3.962e-3
-1.923, 3.919e-3
-1.922, 3.879e-3
-1.921, 3.839e-3
-1.920, 3.799e-3
-1.919, 3.758e-3
-1.918, 3.718e-3
-1.917, 3.678e-3
-1.916, 3.638e-3
-1.915, 3.601e-3
-1.914, 3.567e-3
-1.913, 3.530e-3
-1.912, 3.493e-3
-1.911, 3.456e-3
-1.910, 3.416e-3
-1.909, 3.379e-3
-1.908, 3.345e-3
-1.907, 3.305e-3
-1.906, 3.265e-3
-1.905, 3.225e-3
-1.904, 3.185e-3
-1.903, 3.145e-3
-1.902, 3.105e-3
-1.901, 3.068e-3
-1.900, 3.028e-3
-1.899, 2.988e-3
-1.898, 2.951e-3
-1.897, 2.911e-3
-1.896, 2.874e-3
-1.895, 2.834e-3
-1.894, 2.800e-3
-1.893, 2.763e-3
-1.892, 2.726e-3
-1.891, 2.689e-3
-1.890, 2.652e-3
-1.889, 2.615e-3
-1.888, 2.578e-3
-1.887, 2.544e-3
-1.886, 2.507e-3
-1.885, 2.473e-3
-1.884, 2.436e-3
-1.883, 2.399e-3
-1.882, 2.365e-3
-1.881, 2.331e-3
-1.880, 2.297e-3
-1.879, 2.263e-3
-1.878, 2.229e-3
-1.877, 2.195e-3
-1.876, 2.164e-3
-1.875, 2.134e-3
-1.874, 2.100e-3
-1.873, 2.066e-3
-1.872, 2.035e-3
-1.871, 2.004e-3
-1.870, 1.973e-3
-1.869, 1.946e-3
-1.868, 1.915e-3
-1.867, 1.884e-3
-1.866, 1.856e-3
-1.865, 1.828e-3
-1.864, 1.801e-3
-1.863, 1.773e-3
-1.862, 1.742e-3
-1.861, 1.714e-3
-1.860, 1.690e-3
-1.859, 1.662e-3
-1.858, 1.637e-3
-1.857, 1.610e-3
-1.856, 1.585e-3
-1.855, 1.560e-3
-1.854, 1.536e-3
-1.853, 1.511e-3
-1.852, 1.486e-3
-1.851, 1.458e-3
-1.850, 1.437e-3
-1.849, 1.412e-3
-1.848, 1.391e-3
-1.847, 1.366e-3
-1.846, 1.341e-3
-1.845, 1.314e-3
-1.844, 1.292e-3
-1.843, 1.267e-3
-1.842, 1.243e-3
-1.841, 1.221e-3
-1.840, 1.199e-3
-1.839, 1.178e-3
-1.838, 1.159e-3
-1.837, 1.138e-3
-1.836, 1.119e-3
-1.835, 1.101e-3
-1.834, 1.082e-3
-1.833, 1.064e-3
-1.832, 1.048e-3
-1.831, 1.027e-3
-1.830, 1.011e-3
-1.829, 9.929e-4
-1.828, 9.744e-4
-1.827, 9.590e-4
-1.826, 9.405e-4
-1.825, 9.251e-4
-1.824, 9.066e-4
-1.823, 8.912e-4
-1.822, 8.758e-4
-1.821, 8.603e-4
-1.820, 8.449e-4
-1.819, 8.295e-4
-1.818, 8.141e-4
-1.817, 7.987e-4
-1.816, 7.863e-4
-1.815, 7.709e-4
-1.814, 7.555e-4
-1.813, 7.432e-4
-1.812, 7.309e-4
-1.811, 7.154e-4
-1.810, 7.031e-4
-1.809, 6.908e-4
-1.808, 6.754e-4
-1.807, 6.661e-4
-1.806, 6.507e-4
-1.805, 6.414e-4
-1.804, 6.260e-4
-1.803, 6.168e-4
-1.802, 6.044e-4
-1.801, 5.921e-4
-1.800, 5.829e-4
-1.799, 5.705e-4
-1.798, 5.613e-4
-1.797, 5.489e-4
-1.796, 5.397e-4
-1.795, 5.274e-4
-1.794, 5.181e-4
-1.793, 5.089e-4
-1.792, 4.965e-4
-1.791, 4.873e-4
-1.790, 4.780e-4
-1.789, 4.688e-4
-1.788, 4.595e-4
-1.787, 4.503e-4
-1.786, 4.410e-4
-1.785, 4.318e-4
-1.784, 4.256e-4
-1.783, 4.164e-4
-1.782, 4.071e-4
-1.781, 4.010e-4
-1.780, 3.917e-4
-1.779, 3.825e-4
-1.778, 3.763e-4
-1.777, 3.701e-4
-1.776, 3.609e-4
-1.775, 3.547e-4
-1.774, 3.455e-4
-1.773, 3.393e-4
-1.772, 3.331e-4
-1.771, 3.270e-4
-1.770, 3.208e-4
-1.769, 3.115e-4
-1.768, 3.054e-4
-1.767, 2.992e-4
-1.766, 2.931e-4
-1.765, 2.900e-4
-1.764, 2.838e-4
-1.763, 2.746e-4
-1.762, 2.715e-4
-1.761, 2.653e-4
-1.760, 2.591e-4
-1.759, 2.530e-4
-1.758, 2.468e-4
-1.757, 2.406e-4
-1.756, 2.376e-4
-1.755, 2.345e-4
-1.754, 2.283e-4
-1.753, 2.252e-4
-1.752, 2.191e-4
-1.751, 2.129e-4
-1.750, 2.098e-4
-1.749, 2.067e-4
-1.748, 2.006e-4
-1.747, 1.975e-4
-1.746, 1.913e-4
-1.745, 1.882e-4
-1.744, 1.851e-4
-1.743, 1.790e-4
-1.742, 1.759e-4
-1.741, 1.728e-4
-1.740, 1.666e-4
-1.739, 1.666e-4
-1.738, 1.605e-4
-1.737, 1.574e-4
-1.736, 1.543e-4
-1.735, 1.512e-4
-1.734, 1.481e-4
-1.733, 1.451e-4
-1.732, 1.420e-4
-1.731, 1.389e-4
-1.730, 1.358e-4
-1.729, 1.327e-4
-1.728, 1.296e-4
-1.727, 1.266e-4
-1.726, 1.235e-4
-1.725, 1.204e-4
-1.724, 1.173e-4
-1.723, 1.173e-4
-1.722, 1.111e-4
-1.721, 1.111e-4
-1.720, 1.081e-4
-1.719, 1.050e-4
-1.718, 1.019e-4
-1.717, 1.019e-4
-1.716, 9.882e-5
-1.715, 9.573e-5
-1.714, 9.265e-5
-1.713, 8.957e-5
-1.712, 9.265e-5
-1.711, 8.957e-5
-1.710, 8.648e-5
-1.709, 8.340e-5
-1.708, 8.032e-5
-1.707, 8.032e-5
-1.706, 7.723e-5
-1.705, 7.723e-5
-1.704, 7.415e-5
-1.703, 7.107e-5
-1.702, 7.107e-5
-1.701, 6.798e-5
-1.700, 6.798e-5
-1.699, 6.490e-5
-1.698, 6.490e-5
-1.697, 6.182e-5
-1.696, 6.182e-5
-1.695, 6.182e-5
-1.694, 5.873e-5
-1.693, 5.873e-5
-1.692, 5.565e-5
-1.691, 5.565e-5
-1.690, 5.257e-5
-1.689, 5.257e-5
-1.688, 4.949e-5
-1.687, 4.949e-5
-1.686, 4.640e-5
-1.685, 4.640e-5
-1.684, 4.640e-5
-1.683, 4.332e-5
-1.682, 4.332e-5
-1.681, 4.024e-5
-1.680, 4.024e-5
-1.679, 4.024e-5
-1.678, 4.024e-5
-1.677, 4.024e-5
-1.676, 3.715e-5
-1.675, 3.715e-5
-1.674, 3.407e-5
-1.673, 3.407e-5
-1.672, 3.407e-5
-1.671, 3.099e-5
-1.670, 3.099e-5
-1.669, 3.099e-5
-1.668, 3.099e-5
-1.667, 3.099e-5
-1.666, 2.790e-5
-1.665, 2.482e-5
-1.664, 2.790e-5
-1.663, 2.482e-5
-1.662, 2.482e-5
-1.661, 2.482e-5
-1.660, 2.482e-5
-1.659, 2.174e-5
-1.658, 2.174e-5
-1.657, 2.174e-5
-1.656, 2.174e-5
-1.655, 2.174e-5
-1.654, 1.865e-5
-1.653, 1.865e-5
-1.652, 1.865e-5
-1.651, 1.865e-5
-1.650, 1.865e-5
-1.649, 1.557e-5
-1.648, 1.557e-5
-1.647, 1.557e-5
-1.646, 1.557e-5
-1.645, 1.557e-5
-1.644, 1.557e-5
-1.643, 1.557e-5
-1.642, 1.249e-5
-1.641, 1.249e-5
-1.640, 1.249e-5
-1.639, 1.249e-5
-1.638, 9.405e-6
-1.637, 9.405e-6
-1.636, 9.405e-6
-1.635, 9.405e-6
-1.634, 9.405e-6
-1.633, 9.405e-6
-1.632, 9.405e-6
-1.631, 9.405e-6
-1.630, 9.405e-6
-1.629, 6.322e-6
-1.628, 9.405e-6
-1.627, 6.322e-6
-1.626, 6.322e-6
-1.625, 6.322e-6
-1.624, 6.322e-6
-1.623, 6.322e-6
-1.622, 6.322e-6
-1.621, 3.239e-6
-1.620, 3.239e-6
-1.619, 6.322e-6
-1.618, 3.239e-6
-1.617, 3.239e-6
-1.616, 3.239e-6
-1.615, 3.239e-6
-1.614, 3.239e-6
-1.613, 3.239e-6
-1.612, 3.239e-6
-1.611, 3.239e-6
-1.610, 3.239e-6
-1.609, 3.239e-6
-1.608, 1.559e-7
-1.607, 3.239e-6
-1.606, 1.559e-7
-1.605, 1.559e-7
-1.604, 1.559e-7
-1.603, 1.559e-7
-1.602, 1.559e-7
-1.601, 1.559e-7
-1.600, 1.559e-7
-1.599, 1.559e-7
-1.598, 1.559e-7
-1.597, 1.559e-7
-1.596, 1.559e-7
-1.595, 1.559e-7
-1.594, 1.559e-7
-1.593, 1.559e-7
-1.592, -2.927e-6
-1.591, -2.927e-6
-1.590, -2.927e-6
-1.589, 1.559e-7
-1.588, -2.927e-6
-1.587, -2.927e-6
-1.586, -2.927e-6
-1.585, -2.927e-6
-1.584, -2.927e-6
-1.583, -2.927e-6
-1.582, -2.927e-6
-1.581, -2.927e-6
-1.580, -2.927e-6
-1.579, -2.927e-6
-1.578, -2.927e-6
-1.577, -2.927e-6
-1.576, -2.927e-6
-1.575, -2.927e-6
-1.574, -6.010e-6
-1.573, -2.927e-6
-1.572, -2.927e-6
-1.571, -2.927e-6
-1.570, -2.927e-6
-1.569, -6.010e-6
-1.568, -2.927e-6
-1.567, -6.010e-6
-1.566, -6.010e-6
-1.565, -6.010e-6
-1.564, -2.927e-6
-1.563, -6.010e-6
-1.562, -6.010e-6
-1.561, -6.010e-6
-1.560, -6.010e-6
-1.559, -6.010e-6
-1.558, -6.010e-6
-1.557, -6.010e-6
-1.556, -6.010e-6
-1.555, -6.010e-6
-1.554, -6.010e-6
-1.553, -6.010e-6
-1.552, -6.010e-6
-1.551, -6.010e-6
-1.550, -6.010e-6
-1.549, -6.010e-6
-1.548, -6.010e-6
-1.547, -6.010e-6
-1.546, -6.010e-6
-1.545, -6.010e-6
-1.544, -6.010e-6
-1.543, -6.010e-6
-1.542, -6.010e-6
-1.541, -6.010e-6
-1.540, -6.010e-6
-1.539, -6.010e-6
-1.538, -6.010e-6
-1.537, -6.010e-6
-1.536, -6.010e-6
-1.535, -6.010e-6
-1.534, -6.010e-6
-1.533, -9.093e-6
-1.532, -6.010e-6
-1.531, -6.010e-6
-1.530, -6.010e-6
-1.529, -6.010e-6
-1.528, -6.010e-6
-1.527, -6.010e-6
-1.526, -6.010e-6
-1.525, -6.010e-6
-1.524, -9.093e-6
-1.523, -9.093e-6
-1.522, -9.093e-6
-1.521, -9.093e-6
-1.520, -9.093e-6
-1.519, -9.093e-6
-1.518, -9.093e-6
-1.517, -9.093e-6
-1.516, -9.093e-6
-1.515, -9.093e-6
-1.514, -9.093e-6
-1.513, -9.093e-6
-1.512, -9.093e-6
-1.511, -9.093e-6
-1.510, -9.093e-6
-1.509, -9.093e-6
-1.508, -9.093e-6
-1.507, -9.093e-6
-1.506, -9.093e-6
-1.505, -9.093e-6
-1.504, -9.093e-6
-1.503, -9.093e-6
-1.502, -9.093e-6
-1.501, -9.093e-6
-1.500, -9.093e-6
-1.499, -9.093e-6
-1.498, -9.093e-6
-1.497, -9.093e-6
-1.496, -9.093e-6
-1.495, -9.093e-6
-1.494, -9.093e-6
-1.493, -9.093e-6
-1.492, -9.093e-6
-1.491, -9.093e-6
-1.490, -9.093e-6
-1.489, -9.093e-6
-1.488, -9.093e-6
-1.487, -9.093e-6
-1.486, -9.093e-6
-1.485, -9.093e-6
-1.484, -9.093e-6
-1.483, -9.093e-6
-1.482, -9.093e-6
-1.481, -9.093e-6
-1.480, -9.093e-6
-1.479, -9.093e-6
-1.478, -9.093e-6
-1.477, -9.093e-6
-1.476, -1.218e-5
-1.475, -9.093e-6
-1.474, -1.218e-5
-1.473, -9.093e-6
-1.472, -9.093e-6
-1.471, -9.093e-6
-1.470, -9.093e-6
-1.469, -9.093e-6
-1.468, -9.093e-6
-1.467, -9.093e-6
-1.466, -1.218e-5
-1.465, -9.093e-6
-1.464, -9.093e-6
-1.463, -9.093e-6
-1.462, -9.093e-6
-1.461, -9.093e-6
-1.460, -9.093e-6
-1.459, -1.218e-5
-1.458, -9.093e-6
-1.457, -9.093e-6
-1.456, -9.093e-6
-1.455, -9.093e-6
-1.454, -9.093e-6
-1.453, -9.093e-6
-1.452, -9.093e-6
-1.451, -9.093e-6
-1.450, -9.093e-6
-1.449, -9.093e-6
-1.448, -9.093e-6
-1.447, -9.093e-6
-1.446, -9.093e-6
-1.445, -9.093e-6
-1.444, -9.093e-6
-1.443, -9.093e-6
-1.442, -9.093e-6
-1.441, -9.093e-6
-1.440, -9.093e-6
-1.439, -9.093e-6
-1.438, -9.093e-6
-1.437, -9.093e-6
-1.436, -9.093e-6
-1.435, -9.093e-6
-1.434, -9.093e-6
-1.433, -9.093e-6
-1.432, -9.093e-6
-1.431, -9.093e-6
-1.430, -9.093e-6
-1.429, -9.093e-6
-1.428, -9.093e-6
-1.427, -9.093e-6
-1.426, -9.093e-6
-1.425, -9.093e-6
-1.424, -9.093e-6
-1.423, -9.093e-6
-1.422, -9.093e-6
-1.421, -9.093e-6
-1.420, -9.093e-6
-1.419, -9.093e-6
-1.418, -9.093e-6
-1.417, -9.093e-6
-1.416, -9.093e-6
-1.415, -9.093e-6
-1.414, -9.093e-6
-1.413, -9.093e-6
-1.412, -9.093e-6
-1.411, -9.093e-6
-1.410, -9.093e-6
-1.409, -9.093e-6
-1.408, -9.093e-6
-1.407, -9.093e-6
-1.406, -9.093e-6
-1.405, -9.093e-6
-1.404, -9.093e-6
-1.403, -9.093e-6
-1.402, -9.093e-6
-1.401, -9.093e-6
-1.400, -9.093e-6
-1.399, -9.093e-6
-1.398, -9.093e-6
-1.397, -9.093e-6
-1.396, -9.093e-6
-1.395, -9.093e-6
-1.394, -9.093e-6
-1.393, -9.093e-6
-1.392, -9.093e-6
-1.391, -9.093e-6
-1.390, -1.218e-5
-1.389, -9.093e-6
-1.388, -9.093e-6
-1.387, -9.093e-6
-1.386, -9.093e-6
-1.385, -9.093e-6
-1.384, -9.093e-6
-1.383, -9.093e-6
-1.382, -9.093e-6
-1.381, -9.093e-6
-1.380, -9.093e-6
-1.379, -9.093e-6
-1.378, -9.093e-6
-1.377, -9.093e-6
-1.376, -9.093e-6
-1.375, -9.093e-6
-1.374, -9.093e-6
-1.373, -9.093e-6
-1.372, -9.093e-6
-1.371, -9.093e-6
-1.370, -1.218e-5
-1.369, -9.093e-6
-1.368, -9.093e-6
-1.367, -9.093e-6
-1.366, -9.093e-6
-1.365, -9.093e-6
-1.364, -9.093e-6
-1.363, -1.218e-5
-1.362, -9.093e-6
-1.361, -9.093e-6
-1.360, -9.093e-6
-1.359, -9.093e-6
-1.358, -9.093e-6
-1.357, -9.093e-6
-1.356, -9.093e-6
-1.355, -9.093e-6
-1.354, -1.218e-5
-1.353, -9.093e-6
-1.352, -9.093e-6
-1.351, -9.093e-6
-1.350, -9.093e-6
-1.349, -9.093e-6
-1.348, -9.093e-6
-1.347, -9.093e-6
-1.346, -9.093e-6
-1.345, -9.093e-6
-1.344, -9.093e-6
-1.343, -9.093e-6
-1.342, -1.218e-5
-1.341, -9.093e-6
-1.340, -9.093e-6
-1.339, -9.093e-6
-1.338, -1.218e-5
-1.337, -9.093e-6
-1.336, -9.093e-6
-1.335, -9.093e-6
-1.334, -9.093e-6
-1.333, -9.093e-6
-1.332, -9.093e-6
-1.331, -9.093e-6
-1.330, -9.093e-6
-1.329, -9.093e-6
-1.328, -9.093e-6
-1.327, -9.093e-6
-1.326, -9.093e-6
-1.325, -9.093e-6
-1.324, -9.093e-6
-1.323, -9.093e-6
-1.322, -9.093e-6
-1.321, -9.093e-6
-1.320, -9.093e-6
-1.319, -9.093e-6
-1.318, -9.093e-6
-1.317, -9.093e-6
-1.316, -9.093e-6
-1.315, -9.093e-6
-1.314, -9.093e-6
-1.313, -9.093e-6
-1.312, -9.093e-6
-1.311, -9.093e-6
-1.310, -9.093e-6
-1.309, -9.093e-6
-1.308, -9.093e-6
-1.307, -9.093e-6
-1.306, -9.093e-6
-1.305, -9.093e-6
-1.304, -9.093e-6
-1.303, -9.093e-6
-1.302, -9.093e-6
-1.301, -9.093e-6
-1.300, -9.093e-6
-1.299, -9.093e-6
-1.298, -9.093e-6
-1.297, -9.093e-6
-1.296, -9.093e-6
-1.295, -9.093e-6
-1.294, -9.093e-6
-1.293, -9.093e-6
-1.292, -9.093e-6
-1.291, -9.093e-6
-1.290, -9.093e-6
-1.289, -9.093e-6
-1.288, -9.093e-6
-1.287, -9.093e-6
-1.286, -9.093e-6
-1.285, -9.093e-6
-1.284, -9.093e-6
-1.283, -9.093e-6
-1.282, -9.093e-6
-1.281, -9.093e-6
-1.280, -9.093e-6
-1.279, -9.093e-6
-1.278, -9.093e-6
-1.277, -9.093e-6
-1.276, -9.093e-6
-1.275, -9.093e-6
-1.274, -9.093e-6
-1.273, -9.093e-6
-1.272, -9.093e-6
-1.271, -9.093e-6
-1.270, -9.093e-6
-1.269, -9.093e-6
-1.268, -9.093e-6
-1.267, -9.093e-6
-1.266, -9.093e-6
-1.265, -9.093e-6
-1.264, -9.093e-6
-1.263, -9.093e-6
-1.262, -9.093e-6
-1.261, -9.093e-6
-1.260, -9.093e-6
-1.259, -9.093e-6
-1.258, -9.093e-6
-1.257, -9.093e-6
-1.256, -9.093e-6
-1.255, -9.093e-6
-1.254, -9.093e-6
-1.253, -9.093e-6
-1.252, -9.093e-6
-1.251, -9.093e-6
-1.250, -9.093e-6
-1.249, -9.093e-6
-1.248, -9.093e-6
-1.247, -9.093e-6
-1.246, -9.093e-6
-1.245, -9.093e-6
-1.244, -1.218e-5
-1.243, -9.093e-6
-1.242, -9.093e-6
-1.241, -9.093e-6
-1.240, -9.093e-6
-1.239, -9.093e-6
-1.238, -9.093e-6
-1.237, -9.093e-6
-1.236, -9.093e-6
-1.235, -9.093e-6
-1.234, -9.093e-6
-1.233, -1.218e-5
-1.232, -9.093e-6
-1.231, -9.093e-6
-1.230, -9.093e-6
-1.229, -9.093e-6
-1.228, -9.093e-6
-1.227, -9.093e-6
-1.226, -9.093e-6
-1.225, -9.093e-6
-1.224, -9.093e-6
-1.223, -1.218e-5
-1.222, -9.093e-6
-1.221, -9.093e-6
-1.220, -9.093e-6
-1.219, -9.093e-6
-1.218, -9.093e-6
-1.217, -9.093e-6
-1.216, -1.218e-5
-1.215, -9.093e-6
-1.214, -9.093e-6
-1.213, -9.093e-6
-1.212, -9.093e-6
-1.211, -9.093e-6
-1.210, -1.218e-5
-1.209, -9.093e-6
-1.208, -9.093e-6
-1.207, -9.093e-6
-1.206, -1.218e-5
-1.205, -9.093e-6
-1.204, -9.093e-6
-1.203, -9.093e-6
-1.202, -9.093e-6
-1.201, -1.218e-5
-1.200, -9.093e-6
-1.199, -9.093e-6
-1.198, -9.093e-6
-1.197, -9.093e-6
-1.196, -9.093e-6
-1.195, -1.218e-5
-1.194, -9.093e-6
-1.193, -9.093e-6
-1.192, -9.093e-6
-1.191, -9.093e-6
-1.190, -9.093e-6
-1.189, -9.093e-6
-1.188, -9.093e-6
-1.187, -9.093e-6
-1.186, -9.093e-6
-1.185, -9.093e-6
-1.184, -9.093e-6
-1.183, -9.093e-6
-1.182, -9.093e-6
-1.181, -9.093e-6
-1.180, -9.093e-6
-1.179, -1.218e-5
-1.178, -9.093e-6
-1.177, -9.093e-6
-1.176, -9.093e-6
-1.175, -9.093e-6
-1.174, -9.093e-6
-1.173, -9.093e-6
-1.172, -9.093e-6
-1.171, -9.093e-6
-1.170, -9.093e-6
-1.169, -9.093e-6
-1.168, -9.093e-6
-1.167, -9.093e-6
-1.166, -9.093e-6
-1.165, -9.093e-6
-1.164, -9.093e-6
-1.163, -9.093e-6
-1.162, -9.093e-6
-1.161, -9.093e-6
-1.160, -9.093e-6
-1.159, -9.093e-6
-1.158, -9.093e-6
-1.157, -1.218e-5
-1.156, -9.093e-6
-1.155, -9.093e-6
-1.154, -9.093e-6
-1.153, -9.093e-6
-1.152, -1.218e-5
-1.151, -1.218e-5
-1.150, -9.093e-6
-1.149, -9.093e-6
-1.148, -9.093e-6
-1.147, -9.093e-6
-1.146, -9.093e-6
-1.145, -1.218e-5
-1.144, -9.093e-6
-1.143, -9.093e-6
-1.142, -9.093e-6
-1.141, -9.093e-6
-1.140, -1.218e-5
-1.139, -9.093e-6
-1.138, -9.093e-6
-1.137, -9.093e-6
-1.136, -9.093e-6
-1.135, -9.093e-6
-1.134, -9.093e-6
-1.133, -9.093e-6
-1.132, -9.093e-6
-1.131, -9.093e-6
-1.130, -9.093e-6
-1.129, -1.218e-5
-1.128, -9.093e-6
-1.127, -9.093e-6
-1.126, -9.093e-6
-1.125, -9.093e-6
-1.124, -9.093e-6
-1.123, -9.093e-6
-1.122, -9.093e-6
-1.121, -9.093e-6
-1.120, -9.093e-6
-1.119, -1.218e-5
-1.118, -9.093e-6
-1.117, -9.093e-6
-1.116, -9.093e-6
-1.115, -9.093e-6
-1.114, -9.093e-6
-1.113, -9.093e-6
-1.112, -9.093e-6
-1.111, -9.093e-6
-1.110, -9.093e-6
-1.109, -9.093e-6
-1.108, -9.093e-6
-1.107, -9.093e-6
-1.106, -9.093e-6
-1.105, -9.093e-6
-1.104, -9.093e-6
-1.103, -9.093e-6
-1.102, -9.093e-6
-1.101, -9.093e-6
-1.100, -9.093e-6
-1.099, -9.093e-6
-1.098, -9.093e-6
-1.097, -9.093e-6
-1.096, -9.093e-6
-1.095, -9.093e-6
-1.094, -9.093e-6
-1.093, -9.093e-6
-1.092, -9.093e-6
-1.091, -9.093e-6
-1.090, -9.093e-6
-1.089, -9.093e-6
-1.088, -9.093e-6
-1.087, -9.093e-6
-1.086, -1.218e-5
-1.085, -9.093e-6
-1.084, -9.093e-6
-1.083, -9.093e-6
-1.082, -9.093e-6
-1.081, -1.218e-5
-1.080, -1.218e-5
-1.079, -9.093e-6
-1.078, -9.093e-6
-1.077, -9.093e-6
-1.076, -9.093e-6
-1.075, -9.093e-6
-1.074, -1.218e-5
-1.073, -9.093e-6
-1.072, -9.093e-6
-1.071, -9.093e-6
-1.070, -1.218e-5
-1.069, -1.218e-5
-1.068, -9.093e-6
-1.067, -9.093e-6
-1.066, -9.093e-6
-1.065, -9.093e-6
-1.064, -9.093e-6
-1.063, -1.218e-5
-1.062, -9.093e-6
-1.061, -9.093e-6
-1.060, -9.093e-6
-1.059, -9.093e-6
-1.058, -1.218e-5
-1.057, -9.093e-6
-1.056, -1.218e-5
-1.055, -9.093e-6
-1.054, -1.218e-5
-1.053, -9.093e-6
-1.052, -1.218e-5
-1.051, -9.093e-6
-1.050, -9.093e-6
-1.049, -1.218e-5
-1.048, -9.093e-6
-1.047, -9.093e-6
-1.046, -9.093e-6
-1.045, -1.218e-5
-1.044, -9.093e-6
-1.043, -1.218e-5
-1.042, -9.093e-6
-1.041, -9.093e-6
-1.040, -9.093e-6
-1.039, -9.093e-6
-1.038, -1.218e-5
-1.037, -1.218e-5
-1.036, -1.218e-5
-1.035, -1.218e-5
-1.034, -1.218e-5
-1.033, -9.093e-6
-1.032, -9.093e-6
-1.031, -1.218e-5
-1.030, -9.093e-6
-1.029, -9.093e-6
-1.028, -9.093e-6
-1.027, -1.218e-5
-1.026, -9.093e-6
-1.025, -1.218e-5
-1.024, -1.218e-5
-1.023, -1.218e-5
-1.022, -1.218e-5
-1.021, -9.093e-6
-1.020, -1.218e-5
-1.019, -9.093e-6
-1.018, -1.218e-5
-1.017, -9.093e-6
-1.016, -1.218e-5
-1.015, -1.218e-5
-1.014, -9.093e-6
-1.013, -1.218e-5
-1.012, -9.093e-6
-1.011, -1.218e-5
-1.010, -1.218e-5
-1.009, -1.218e-5
-1.008, -1.218e-5
-1.007, -9.093e-6
-1.006, -1.218e-5
-1.005, -1.218e-5
-1.004, -1.218e-5
-1.003, -9.093e-6
-1.002, -1.218e-5
-1.001, -9.093e-6
