Sept. 29, 2024   10:23:51
Linear Sweep Voltammetry
File: c:/users/guazh/data/20240922_batch_417_500/2024-09-22-exp480\1acid_3ac-2024-09-29t10_20_40-lsvinphos\1acid_3ac_lsv_50mvs_efin_-2300mv.bin
Data Source:  Experiment
Instrument Model:  CHI760E
Header: LSV ran at 50 mVs with Efin at -2300mV
Note: 

Init E (V) = -0.6
Final E (V) = -2.3
Scan Rate (V/s) = 0.05
Sample Interval (V) = 0.001
Quiet Time (sec) = 2
Sensitivity (A/V) = 1e-4
Comp R (ohm) = 14.1

Results:

Channel 1:
Ep = -1.867V
ip = 6.537e-4A
Ah = 8.323e-4C

Potential/V, Current/A

-0.600, 6.764e-6
-0.601, 6.900e-6
-0.602, 6.955e-6
-0.603, 7.001e-6
-0.604, 7.033e-6
-0.605, 7.071e-6
-0.606, 7.098e-6
-0.607, 7.119e-6
-0.608, 7.142e-6
-0.609, 7.171e-6
-0.610, 7.183e-6
-0.611, 7.200e-6
-0.612, 7.232e-6
-0.613, 7.260e-6
-0.614, 7.279e-6
-0.615, 7.298e-6
-0.616, 7.315e-6
-0.617, 7.334e-6
-0.618, 7.354e-6
-0.619, 7.368e-6
-0.620, 7.394e-6
-0.621, 7.406e-6
-0.622, 7.418e-6
-0.623, 7.443e-6
-0.624, 7.454e-6
-0.625, 7.468e-6
-0.626, 7.482e-6
-0.627, 7.498e-6
-0.628, 7.526e-6
-0.629, 7.547e-6
-0.630, 7.561e-6
-0.631, 7.563e-6
-0.632, 7.573e-6
-0.633, 7.590e-6
-0.634, 7.605e-6
-0.635, 7.614e-6
-0.636, 7.621e-6
-0.637, 7.632e-6
-0.638, 7.650e-6
-0.639, 7.665e-6
-0.640, 7.678e-6
-0.641, 7.685e-6
-0.642, 7.695e-6
-0.643, 7.720e-6
-0.644, 7.726e-6
-0.645, 7.736e-6
-0.646, 7.754e-6
-0.647, 7.767e-6
-0.648, 7.755e-6
-0.649, 7.760e-6
-0.650, 7.756e-6
-0.651, 7.778e-6
-0.652, 7.786e-6
-0.653, 7.791e-6
-0.654, 7.798e-6
-0.655, 7.804e-6
-0.656, 7.809e-6
-0.657, 7.811e-6
-0.658, 7.820e-6
-0.659, 7.836e-6
-0.660, 7.841e-6
-0.661, 7.839e-6
-0.662, 7.843e-6
-0.663, 7.851e-6
-0.664, 7.866e-6
-0.665, 7.864e-6
-0.666, 7.876e-6
-0.667, 7.879e-6
-0.668, 7.880e-6
-0.669, 7.875e-6
-0.670, 7.880e-6
-0.671, 7.879e-6
-0.672, 7.888e-6
-0.673, 7.891e-6
-0.674, 7.901e-6
-0.675, 7.896e-6
-0.676, 7.892e-6
-0.677, 7.899e-6
-0.678, 7.901e-6
-0.679, 7.903e-6
-0.680, 7.930e-6
-0.681, 7.941e-6
-0.682, 7.926e-6
-0.683, 7.926e-6
-0.684, 7.917e-6
-0.685, 7.932e-6
-0.686, 7.928e-6
-0.687, 7.926e-6
-0.688, 7.912e-6
-0.689, 7.909e-6
-0.690, 7.917e-6
-0.691, 7.907e-6
-0.692, 7.907e-6
-0.693, 7.906e-6
-0.694, 7.917e-6
-0.695, 7.912e-6
-0.696, 7.904e-6
-0.697, 7.907e-6
-0.698, 7.901e-6
-0.699, 7.906e-6
-0.700, 7.897e-6
-0.701, 7.897e-6
-0.702, 7.898e-6
-0.703, 7.887e-6
-0.704, 7.882e-6
-0.705, 7.882e-6
-0.706, 7.867e-6
-0.707, 7.871e-6
-0.708, 7.874e-6
-0.709, 7.871e-6
-0.710, 7.870e-6
-0.711, 7.867e-6
-0.712, 7.838e-6
-0.713, 7.834e-6
-0.714, 7.846e-6
-0.715, 7.850e-6
-0.716, 7.842e-6
-0.717, 7.842e-6
-0.718, 7.838e-6
-0.719, 7.839e-6
-0.720, 7.835e-6
-0.721, 7.812e-6
-0.722, 7.775e-6
-0.723, 7.781e-6
-0.724, 7.782e-6
-0.725, 7.796e-6
-0.726, 7.801e-6
-0.727, 7.802e-6
-0.728, 7.785e-6
-0.729, 7.793e-6
-0.730, 7.797e-6
-0.731, 7.788e-6
-0.732, 7.792e-6
-0.733, 7.781e-6
-0.734, 7.804e-6
-0.735, 7.785e-6
-0.736, 7.770e-6
-0.737, 7.760e-6
-0.738, 7.735e-6
-0.739, 7.759e-6
-0.740, 7.772e-6
-0.741, 7.760e-6
-0.742, 7.773e-6
-0.743, 7.785e-6
-0.744, 7.765e-6
-0.745, 7.742e-6
-0.746, 7.750e-6
-0.747, 7.752e-6
-0.748, 7.755e-6
-0.749, 7.728e-6
-0.750, 7.738e-6
-0.751, 7.736e-6
-0.752, 7.728e-6
-0.753, 7.737e-6
-0.754, 7.729e-6
-0.755, 7.723e-6
-0.756, 7.713e-6
-0.757, 7.699e-6
-0.758, 7.686e-6
-0.759, 7.662e-6
-0.760, 7.651e-6
-0.761, 7.629e-6
-0.762, 7.626e-6
-0.763, 7.624e-6
-0.764, 7.626e-6
-0.765, 7.615e-6
-0.766, 7.595e-6
-0.767, 7.593e-6
-0.768, 7.595e-6
-0.769, 7.571e-6
-0.770, 7.559e-6
-0.771, 7.557e-6
-0.772, 7.561e-6
-0.773, 7.567e-6
-0.774, 7.569e-6
-0.775, 7.557e-6
-0.776, 7.540e-6
-0.777, 7.550e-6
-0.778, 7.519e-6
-0.779, 7.506e-6
-0.780, 7.503e-6
-0.781, 7.481e-6
-0.782, 7.474e-6
-0.783, 7.465e-6
-0.784, 7.470e-6
-0.785, 7.476e-6
-0.786, 7.469e-6
-0.787, 7.466e-6
-0.788, 7.475e-6
-0.789, 7.478e-6
-0.790, 7.480e-6
-0.791, 7.467e-6
-0.792, 7.456e-6
-0.793, 7.463e-6
-0.794, 7.458e-6
-0.795, 7.462e-6
-0.796, 7.492e-6
-0.797, 7.508e-6
-0.798, 7.489e-6
-0.799, 7.485e-6
-0.800, 7.469e-6
-0.801, 7.461e-6
-0.802, 7.451e-6
-0.803, 7.450e-6
-0.804, 7.467e-6
-0.805, 7.466e-6
-0.806, 7.467e-6
-0.807, 7.461e-6
-0.808, 7.466e-6
-0.809, 7.477e-6
-0.810, 7.481e-6
-0.811, 7.464e-6
-0.812, 7.454e-6
-0.813, 7.455e-6
-0.814, 7.437e-6
-0.815, 7.441e-6
-0.816, 7.431e-6
-0.817, 7.426e-6
-0.818, 7.414e-6
-0.819, 7.411e-6
-0.820, 7.418e-6
-0.821, 7.421e-6
-0.822, 7.415e-6
-0.823, 7.396e-6
-0.824, 7.403e-6
-0.825, 7.386e-6
-0.826, 7.385e-6
-0.827, 7.379e-6
-0.828, 7.364e-6
-0.829, 7.354e-6
-0.830, 7.344e-6
-0.831, 7.349e-6
-0.832, 7.371e-6
-0.833, 7.413e-6
-0.834, 7.409e-6
-0.835, 7.394e-6
-0.836, 7.378e-6
-0.837, 7.375e-6
-0.838, 7.369e-6
-0.839, 7.355e-6
-0.840, 7.339e-6
-0.841, 7.351e-6
-0.842, 7.348e-6
-0.843, 7.355e-6
-0.844, 7.358e-6
-0.845, 7.360e-6
-0.846, 7.337e-6
-0.847, 7.345e-6
-0.848, 7.377e-6
-0.849, 7.382e-6
-0.850, 7.375e-6
-0.851, 7.372e-6
-0.852, 7.373e-6
-0.853, 7.397e-6
-0.854, 7.397e-6
-0.855, 7.402e-6
-0.856, 7.395e-6
-0.857, 7.388e-6
-0.858, 7.381e-6
-0.859, 7.378e-6
-0.860, 7.358e-6
-0.861, 7.351e-6
-0.862, 7.361e-6
-0.863, 7.367e-6
-0.864, 7.369e-6
-0.865, 7.374e-6
-0.866, 7.366e-6
-0.867, 7.379e-6
-0.868, 7.376e-6
-0.869, 7.376e-6
-0.870, 7.386e-6
-0.871, 7.385e-6
-0.872, 7.373e-6
-0.873, 7.373e-6
-0.874, 7.371e-6
-0.875, 7.373e-6
-0.876, 7.373e-6
-0.877, 7.375e-6
-0.878, 7.377e-6
-0.879, 7.366e-6
-0.880, 7.349e-6
-0.881, 7.332e-6
-0.882, 7.328e-6
-0.883, 7.334e-6
-0.884, 7.339e-6
-0.885, 7.357e-6
-0.886, 7.368e-6
-0.887, 7.379e-6
-0.888, 7.391e-6
-0.889, 7.421e-6
-0.890, 7.421e-6
-0.891, 7.425e-6
-0.892, 7.466e-6
-0.893, 7.468e-6
-0.894, 7.490e-6
-0.895, 7.496e-6
-0.896, 7.494e-6
-0.897, 7.515e-6
-0.898, 7.530e-6
-0.899, 7.537e-6
-0.900, 7.532e-6
-0.901, 7.512e-6
-0.902, 7.517e-6
-0.903, 7.529e-6
-0.904, 7.538e-6
-0.905, 7.551e-6
-0.906, 7.544e-6
-0.907, 7.567e-6
-0.908, 7.552e-6
-0.909, 7.522e-6
-0.910, 7.531e-6
-0.911, 7.547e-6
-0.912, 7.531e-6
-0.913, 7.507e-6
-0.914, 7.498e-6
-0.915, 7.475e-6
-0.916, 7.456e-6
-0.917, 7.487e-6
-0.918, 7.565e-6
-0.919, 7.595e-6
-0.920, 7.630e-6
-0.921, 7.655e-6
-0.922, 7.768e-6
-0.923, 7.852e-6
-0.924, 7.931e-6
-0.925, 7.950e-6
-0.926, 7.969e-6
-0.927, 8.003e-6
-0.928, 8.021e-6
-0.929, 8.020e-6
-0.930, 8.053e-6
-0.931, 8.046e-6
-0.932, 8.041e-6
-0.933, 8.050e-6
-0.934, 8.035e-6
-0.935, 8.000e-6
-0.936, 7.979e-6
-0.937, 7.932e-6
-0.938, 7.902e-6
-0.939, 7.916e-6
-0.940, 7.909e-6
-0.941, 7.867e-6
-0.942, 7.903e-6
-0.943, 7.894e-6
-0.944, 7.913e-6
-0.945, 7.919e-6
-0.946, 7.916e-6
-0.947, 7.961e-6
-0.948, 7.908e-6
-0.949, 7.807e-6
-0.950, 7.796e-6
-0.951, 7.797e-6
-0.952, 7.807e-6
-0.953, 7.852e-6
-0.954, 7.814e-6
-0.955, 7.808e-6
-0.956, 7.814e-6
-0.957, 7.814e-6
-0.958, 7.838e-6
-0.959, 7.794e-6
-0.960, 7.770e-6
-0.961, 7.741e-6
-0.962, 7.700e-6
-0.963, 7.676e-6
-0.964, 7.651e-6
-0.965, 7.616e-6
-0.966, 7.605e-6
-0.967, 7.577e-6
-0.968, 7.551e-6
-0.969, 7.532e-6
-0.970, 7.541e-6
-0.971, 7.533e-6
-0.972, 7.508e-6
-0.973, 7.507e-6
-0.974, 7.504e-6
-0.975, 7.506e-6
-0.976, 7.561e-6
-0.977, 7.634e-6
-0.978, 7.649e-6
-0.979, 7.633e-6
-0.980, 7.640e-6
-0.981, 7.632e-6
-0.982, 7.651e-6
-0.983, 7.654e-6
-0.984, 7.672e-6
-0.985, 7.616e-6
-0.986, 7.589e-6
-0.987, 7.592e-6
-0.988, 7.591e-6
-0.989, 7.596e-6
-0.990, 7.600e-6
-0.991, 7.579e-6
-0.992, 7.589e-6
-0.993, 7.589e-6
-0.994, 7.594e-6
-0.995, 7.613e-6
-0.996, 7.596e-6
-0.997, 7.586e-6
-0.998, 7.564e-6
-0.999, 7.542e-6
-1.000, 7.544e-6
-1.001, 7.574e-6
-1.002, 7.598e-6
-1.003, 7.602e-6
-1.004, 7.653e-6
-1.005, 7.699e-6
-1.006, 7.654e-6
-1.007, 7.642e-6
-1.008, 7.653e-6
-1.009, 7.660e-6
-1.010, 7.690e-6
-1.011, 7.698e-6
-1.012, 7.724e-6
-1.013, 7.725e-6
-1.014, 7.731e-6
-1.015, 7.730e-6
-1.016, 7.758e-6
-1.017, 7.777e-6
-1.018, 7.784e-6
-1.019, 7.792e-6
-1.020, 7.820e-6
-1.021, 7.828e-6
-1.022, 7.841e-6
-1.023, 7.855e-6
-1.024, 7.870e-6
-1.025, 7.894e-6
-1.026, 7.910e-6
-1.027, 7.917e-6
-1.028, 7.925e-6
-1.029, 7.932e-6
-1.030, 7.953e-6
-1.031, 7.986e-6
-1.032, 7.998e-6
-1.033, 7.999e-6
-1.034, 8.012e-6
-1.035, 8.031e-6
-1.036, 8.040e-6
-1.037, 8.046e-6
-1.038, 8.046e-6
-1.039, 8.062e-6
-1.040, 8.094e-6
-1.041, 8.085e-6
-1.042, 8.103e-6
-1.043, 8.142e-6
-1.044, 8.167e-6
-1.045, 8.186e-6
-1.046, 8.194e-6
-1.047, 8.207e-6
-1.048, 8.207e-6
-1.049, 8.231e-6
-1.050, 8.256e-6
-1.051, 8.272e-6
-1.052, 8.248e-6
-1.053, 8.276e-6
-1.054, 8.297e-6
-1.055, 8.285e-6
-1.056, 8.293e-6
-1.057, 8.314e-6
-1.058, 8.343e-6
-1.059, 8.372e-6
-1.060, 8.372e-6
-1.061, 8.392e-6
-1.062, 8.437e-6
-1.063, 8.564e-6
-1.064, 8.613e-6
-1.065, 8.642e-6
-1.066, 8.679e-6
-1.067, 8.778e-6
-1.068, 8.808e-6
-1.069, 8.808e-6
-1.070, 8.831e-6
-1.071, 8.867e-6
-1.072, 8.878e-6
-1.073, 8.947e-6
-1.074, 8.878e-6
-1.075, 8.904e-6
-1.076, 8.926e-6
-1.077, 8.947e-6
-1.078, 8.979e-6
-1.079, 9.133e-6
-1.080, 9.197e-6
-1.081, 9.241e-6
-1.082, 9.218e-6
-1.083, 9.208e-6
-1.084, 9.226e-6
-1.085, 9.210e-6
-1.086, 9.418e-6
-1.087, 9.754e-6
-1.088, 9.514e-6
-1.089, 9.367e-6
-1.090, 9.312e-6
-1.091, 9.302e-6
-1.092, 9.311e-6
-1.093, 9.313e-6
-1.094, 9.323e-6
-1.095, 9.368e-6
-1.096, 9.391e-6
-1.097, 9.416e-6
-1.098, 9.412e-6
-1.099, 9.449e-6
-1.100, 9.461e-6
-1.101, 9.460e-6
-1.102, 9.482e-6
-1.103, 9.505e-6
-1.104, 9.519e-6
-1.105, 9.539e-6
-1.106, 9.543e-6
-1.107, 9.561e-6
-1.108, 9.574e-6
-1.109, 9.598e-6
-1.110, 9.613e-6
-1.111, 9.619e-6
-1.112, 9.651e-6
-1.113, 9.711e-6
-1.114, 9.711e-6
-1.115, 9.735e-6
-1.116, 9.762e-6
-1.117, 9.814e-6
-1.118, 9.828e-6
-1.119, 9.817e-6
-1.120, 9.833e-6
-1.121, 9.858e-6
-1.122, 9.875e-6
-1.123, 9.897e-6
-1.124, 9.923e-6
-1.125, 9.938e-6
-1.126, 9.966e-6
-1.127, 9.990e-6
-1.128, 1.005e-5
-1.129, 1.006e-5
-1.130, 1.007e-5
-1.131, 1.010e-5
-1.132, 1.012e-5
-1.133, 1.015e-5
-1.134, 1.017e-5
-1.135, 1.019e-5
-1.136, 1.022e-5
-1.137, 1.023e-5
-1.138, 1.026e-5
-1.139, 1.028e-5
-1.140, 1.031e-5
-1.141, 1.032e-5
-1.142, 1.035e-5
-1.143, 1.038e-5
-1.144, 1.041e-5
-1.145, 1.045e-5
-1.146, 1.049e-5
-1.147, 1.052e-5
-1.148, 1.054e-5
-1.149, 1.057e-5
-1.150, 1.059e-5
-1.151, 1.064e-5
-1.152, 1.067e-5
-1.153, 1.069e-5
-1.154, 1.072e-5
-1.155, 1.074e-5
-1.156, 1.076e-5
-1.157, 1.080e-5
-1.158, 1.084e-5
-1.159, 1.086e-5
-1.160, 1.087e-5
-1.161, 1.090e-5
-1.162, 1.094e-5
-1.163, 1.096e-5
-1.164, 1.099e-5
-1.165, 1.101e-5
-1.166, 1.103e-5
-1.167, 1.107e-5
-1.168, 1.110e-5
-1.169, 1.114e-5
-1.170, 1.116e-5
-1.171, 1.120e-5
-1.172, 1.124e-5
-1.173, 1.127e-5
-1.174, 1.131e-5
-1.175, 1.134e-5
-1.176, 1.137e-5
-1.177, 1.140e-5
-1.178, 1.144e-5
-1.179, 1.147e-5
-1.180, 1.151e-5
-1.181, 1.155e-5
-1.182, 1.160e-5
-1.183, 1.171e-5
-1.184, 1.199e-5
-1.185, 1.210e-5
-1.186, 1.208e-5
-1.187, 1.201e-5
-1.188, 1.195e-5
-1.189, 1.196e-5
-1.190, 1.197e-5
-1.191, 1.199e-5
-1.192, 1.203e-5
-1.193, 1.207e-5
-1.194, 1.211e-5
-1.195, 1.216e-5
-1.196, 1.221e-5
-1.197, 1.226e-5
-1.198, 1.231e-5
-1.199, 1.237e-5
-1.200, 1.243e-5
-1.201, 1.249e-5
-1.202, 1.263e-5
-1.203, 1.270e-5
-1.204, 1.278e-5
-1.205, 1.286e-5
-1.206, 1.288e-5
-1.207, 1.292e-5
-1.208, 1.298e-5
-1.209, 1.305e-5
-1.210, 1.311e-5
-1.211, 1.316e-5
-1.212, 1.319e-5
-1.213, 1.322e-5
-1.214, 1.331e-5
-1.215, 1.336e-5
-1.216, 1.335e-5
-1.217, 1.332e-5
-1.218, 1.333e-5
-1.219, 1.338e-5
-1.220, 1.344e-5
-1.221, 1.350e-5
-1.222, 1.357e-5
-1.223, 1.363e-5
-1.224, 1.368e-5
-1.225, 1.374e-5
-1.226, 1.380e-5
-1.227, 1.386e-5
-1.228, 1.390e-5
-1.229, 1.392e-5
-1.230, 1.393e-5
-1.231, 1.392e-5
-1.232, 1.387e-5
-1.233, 1.391e-5
-1.234, 1.398e-5
-1.235, 1.405e-5
-1.236, 1.407e-5
-1.237, 1.413e-5
-1.238, 1.420e-5
-1.239, 1.424e-5
-1.240, 1.437e-5
-1.241, 1.445e-5
-1.242, 1.447e-5
-1.243, 1.443e-5
-1.244, 1.452e-5
-1.245, 1.458e-5
-1.246, 1.456e-5
-1.247, 1.459e-5
-1.248, 1.455e-5
-1.249, 1.458e-5
-1.250, 1.461e-5
-1.251, 1.463e-5
-1.252, 1.466e-5
-1.253, 1.469e-5
-1.254, 1.494e-5
-1.255, 1.482e-5
-1.256, 1.477e-5
-1.257, 1.482e-5
-1.258, 1.483e-5
-1.259, 1.485e-5
-1.260, 1.492e-5
-1.261, 1.493e-5
-1.262, 1.498e-5
-1.263, 1.508e-5
-1.264, 1.509e-5
-1.265, 1.518e-5
-1.266, 1.520e-5
-1.267, 1.522e-5
-1.268, 1.522e-5
-1.269, 1.525e-5
-1.270, 1.530e-5
-1.271, 1.532e-5
-1.272, 1.530e-5
-1.273, 1.528e-5
-1.274, 1.526e-5
-1.275, 1.523e-5
-1.276, 1.516e-5
-1.277, 1.519e-5
-1.278, 1.520e-5
-1.279, 1.522e-5
-1.280, 1.524e-5
-1.281, 1.527e-5
-1.282, 1.540e-5
-1.283, 1.539e-5
-1.284, 1.541e-5
-1.285, 1.546e-5
-1.286, 1.549e-5
-1.287, 1.554e-5
-1.288, 1.556e-5
-1.289, 1.560e-5
-1.290, 1.563e-5
-1.291, 1.566e-5
-1.292, 1.567e-5
-1.293, 1.569e-5
-1.294, 1.568e-5
-1.295, 1.568e-5
-1.296, 1.571e-5
-1.297, 1.574e-5
-1.298, 1.576e-5
-1.299, 1.579e-5
-1.300, 1.583e-5
-1.301, 1.594e-5
-1.302, 1.599e-5
-1.303, 1.606e-5
-1.304, 1.611e-5
-1.305, 1.617e-5
-1.306, 1.620e-5
-1.307, 1.621e-5
-1.308, 1.621e-5
-1.309, 1.621e-5
-1.310, 1.624e-5
-1.311, 1.630e-5
-1.312, 1.632e-5
-1.313, 1.637e-5
-1.314, 1.643e-5
-1.315, 1.650e-5
-1.316, 1.653e-5
-1.317, 1.651e-5
-1.318, 1.654e-5
-1.319, 1.653e-5
-1.320, 1.655e-5
-1.321, 1.663e-5
-1.322, 1.669e-5
-1.323, 1.672e-5
-1.324, 1.677e-5
-1.325, 1.681e-5
-1.326, 1.683e-5
-1.327, 1.686e-5
-1.328, 1.689e-5
-1.329, 1.694e-5
-1.330, 1.696e-5
-1.331, 1.697e-5
-1.332, 1.697e-5
-1.333, 1.696e-5
-1.334, 1.698e-5
-1.335, 1.701e-5
-1.336, 1.705e-5
-1.337, 1.704e-5
-1.338, 1.700e-5
-1.339, 1.700e-5
-1.340, 1.700e-5
-1.341, 1.699e-5
-1.342, 1.699e-5
-1.343, 1.699e-5
-1.344, 1.705e-5
-1.345, 1.706e-5
-1.346, 1.706e-5
-1.347, 1.707e-5
-1.348, 1.708e-5
-1.349, 1.711e-5
-1.350, 1.712e-5
-1.351, 1.715e-5
-1.352, 1.723e-5
-1.353, 1.726e-5
-1.354, 1.726e-5
-1.355, 1.721e-5
-1.356, 1.720e-5
-1.357, 1.720e-5
-1.358, 1.718e-5
-1.359, 1.722e-5
-1.360, 1.724e-5
-1.361, 1.729e-5
-1.362, 1.729e-5
-1.363, 1.730e-5
-1.364, 1.723e-5
-1.365, 1.717e-5
-1.366, 1.718e-5
-1.367, 1.719e-5
-1.368, 1.721e-5
-1.369, 1.722e-5
-1.370, 1.720e-5
-1.371, 1.721e-5
-1.372, 1.719e-5
-1.373, 1.718e-5
-1.374, 1.718e-5
-1.375, 1.718e-5
-1.376, 1.722e-5
-1.377, 1.726e-5
-1.378, 1.730e-5
-1.379, 1.735e-5
-1.380, 1.732e-5
-1.381, 1.729e-5
-1.382, 1.727e-5
-1.383, 1.733e-5
-1.384, 1.748e-5
-1.385, 1.754e-5
-1.386, 1.761e-5
-1.387, 1.743e-5
-1.388, 1.736e-5
-1.389, 1.731e-5
-1.390, 1.728e-5
-1.391, 1.731e-5
-1.392, 1.729e-5
-1.393, 1.729e-5
-1.394, 1.734e-5
-1.395, 1.740e-5
-1.396, 1.740e-5
-1.397, 1.743e-5
-1.398, 1.745e-5
-1.399, 1.743e-5
-1.400, 1.740e-5
-1.401, 1.745e-5
-1.402, 1.755e-5
-1.403, 1.756e-5
-1.404, 1.770e-5
-1.405, 1.768e-5
-1.406, 1.769e-5
-1.407, 1.769e-5
-1.408, 1.770e-5
-1.409, 1.775e-5
-1.410, 1.786e-5
-1.411, 1.789e-5
-1.412, 1.788e-5
-1.413, 1.791e-5
-1.414, 1.792e-5
-1.415, 1.788e-5
-1.416, 1.789e-5
-1.417, 1.798e-5
-1.418, 1.808e-5
-1.419, 1.809e-5
-1.420, 1.811e-5
-1.421, 1.814e-5
-1.422, 1.821e-5
-1.423, 1.823e-5
-1.424, 1.847e-5
-1.425, 1.857e-5
-1.426, 1.889e-5
-1.427, 1.866e-5
-1.428, 1.862e-5
-1.429, 1.865e-5
-1.430, 1.874e-5
-1.431, 1.873e-5
-1.432, 1.875e-5
-1.433, 1.883e-5
-1.434, 1.885e-5
-1.435, 1.885e-5
-1.436, 1.886e-5
-1.437, 1.891e-5
-1.438, 1.901e-5
-1.439, 1.913e-5
-1.440, 1.919e-5
-1.441, 1.926e-5
-1.442, 1.928e-5
-1.443, 1.936e-5
-1.444, 1.943e-5
-1.445, 1.949e-5
-1.446, 1.957e-5
-1.447, 1.972e-5
-1.448, 1.975e-5
-1.449, 1.979e-5
-1.450, 1.995e-5
-1.451, 2.000e-5
-1.452, 2.004e-5
-1.453, 2.019e-5
-1.454, 2.028e-5
-1.455, 2.035e-5
-1.456, 2.046e-5
-1.457, 2.054e-5
-1.458, 2.057e-5
-1.459, 2.063e-5
-1.460, 2.074e-5
-1.461, 2.083e-5
-1.462, 2.086e-5
-1.463, 2.097e-5
-1.464, 2.107e-5
-1.465, 2.112e-5
-1.466, 2.119e-5
-1.467, 2.133e-5
-1.468, 2.150e-5
-1.469, 2.153e-5
-1.470, 2.162e-5
-1.471, 2.174e-5
-1.472, 2.188e-5
-1.473, 2.205e-5
-1.474, 2.218e-5
-1.475, 2.228e-5
-1.476, 2.237e-5
-1.477, 2.243e-5
-1.478, 2.262e-5
-1.479, 2.275e-5
-1.480, 2.295e-5
-1.481, 2.307e-5
-1.482, 2.324e-5
-1.483, 2.337e-5
-1.484, 2.352e-5
-1.485, 2.360e-5
-1.486, 2.376e-5
-1.487, 2.385e-5
-1.488, 2.394e-5
-1.489, 2.407e-5
-1.490, 2.414e-5
-1.491, 2.415e-5
-1.492, 2.424e-5
-1.493, 2.440e-5
-1.494, 2.465e-5
-1.495, 2.472e-5
-1.496, 2.478e-5
-1.497, 2.492e-5
-1.498, 2.511e-5
-1.499, 2.512e-5
-1.500, 2.524e-5
-1.501, 2.542e-5
-1.502, 2.549e-5
-1.503, 2.568e-5
-1.504, 2.581e-5
-1.505, 2.672e-5
-1.506, 2.887e-5
-1.507, 2.904e-5
-1.508, 2.909e-5
-1.509, 2.946e-5
-1.510, 3.017e-5
-1.511, 3.057e-5
-1.512, 3.105e-5
-1.513, 3.081e-5
-1.514, 3.109e-5
-1.515, 3.146e-5
-1.516, 3.155e-5
-1.517, 3.161e-5
-1.518, 3.166e-5
-1.519, 3.166e-5
-1.520, 3.154e-5
-1.521, 3.132e-5
-1.522, 3.116e-5
-1.523, 3.130e-5
-1.524, 3.120e-5
-1.525, 3.108e-5
-1.526, 3.106e-5
-1.527, 3.106e-5
-1.528, 3.116e-5
-1.529, 3.128e-5
-1.530, 3.158e-5
-1.531, 3.170e-5
-1.532, 3.189e-5
-1.533, 3.227e-5
-1.534, 3.246e-5
-1.535, 3.267e-5
-1.536, 3.280e-5
-1.537, 3.315e-5
-1.538, 3.351e-5
-1.539, 3.377e-5
-1.540, 3.417e-5
-1.541, 3.444e-5
-1.542, 3.468e-5
-1.543, 3.471e-5
-1.544, 3.488e-5
-1.545, 3.512e-5
-1.546, 3.531e-5
-1.547, 3.561e-5
-1.548, 3.597e-5
-1.549, 3.632e-5
-1.550, 3.650e-5
-1.551, 3.672e-5
-1.552, 3.708e-5
-1.553, 3.738e-5
-1.554, 3.775e-5
-1.555, 3.823e-5
-1.556, 3.882e-5
-1.557, 3.903e-5
-1.558, 3.939e-5
-1.559, 3.988e-5
-1.560, 4.042e-5
-1.561, 4.133e-5
-1.562, 4.219e-5
-1.563, 4.263e-5
-1.564, 4.216e-5
-1.565, 4.261e-5
-1.566, 4.323e-5
-1.567, 4.346e-5
-1.568, 4.379e-5
-1.569, 4.425e-5
-1.570, 4.474e-5
-1.571, 4.519e-5
-1.572, 4.554e-5
-1.573, 4.598e-5
-1.574, 4.637e-5
-1.575, 4.688e-5
-1.576, 4.769e-5
-1.577, 4.935e-5
-1.578, 4.969e-5
-1.579, 4.935e-5
-1.580, 4.971e-5
-1.581, 5.050e-5
-1.582, 5.123e-5
-1.583, 5.200e-5
-1.584, 5.266e-5
-1.585, 5.291e-5
-1.586, 5.324e-5
-1.587, 5.393e-5
-1.588, 5.449e-5
-1.589, 5.513e-5
-1.590, 5.574e-5
-1.591, 5.618e-5
-1.592, 5.665e-5
-1.593, 5.710e-5
-1.594, 5.788e-5
-1.595, 5.858e-5
-1.596, 5.899e-5
-1.597, 5.958e-5
-1.598, 6.031e-5
-1.599, 6.123e-5
-1.600, 6.200e-5
-1.601, 6.283e-5
-1.602, 6.382e-5
-1.603, 6.445e-5
-1.604, 6.510e-5
-1.605, 6.590e-5
-1.606, 6.722e-5
-1.607, 6.798e-5
-1.608, 6.902e-5
-1.609, 6.984e-5
-1.610, 7.039e-5
-1.611, 7.127e-5
-1.612, 7.215e-5
-1.613, 7.317e-5
-1.614, 7.398e-5
-1.615, 7.492e-5
-1.616, 7.566e-5
-1.617, 7.647e-5
-1.618, 7.736e-5
-1.619, 7.829e-5
-1.620, 7.911e-5
-1.621, 8.015e-5
-1.622, 8.103e-5
-1.623, 8.209e-5
-1.624, 8.321e-5
-1.625, 8.432e-5
-1.626, 8.541e-5
-1.627, 8.620e-5
-1.628, 8.711e-5
-1.629, 8.812e-5
-1.630, 8.929e-5
-1.631, 9.100e-5
-1.632, 9.281e-5
-1.633, 9.367e-5
-1.634, 9.495e-5
-1.635, 9.594e-5
-1.636, 9.682e-5
-1.637, 9.768e-5
-1.638, 9.856e-5
-1.639, 9.980e-5
-1.640, 1.010e-4
-1.641, 1.020e-4
-1.642, 1.031e-4
-1.643, 1.042e-4
-1.644, 1.054e-4
-1.645, 1.067e-4
-1.646, 1.083e-4
-1.647, 1.093e-4
-1.648, 1.106e-4
-1.649, 1.118e-4
-1.650, 1.128e-4
-1.651, 1.140e-4
-1.652, 1.151e-4
-1.653, 1.164e-4
-1.654, 1.176e-4
-1.655, 1.189e-4
-1.656, 1.201e-4
-1.657, 1.213e-4
-1.658, 1.224e-4
-1.659, 1.235e-4
-1.660, 1.249e-4
-1.661, 1.260e-4
-1.662, 1.270e-4
-1.663, 1.282e-4
-1.664, 1.298e-4
-1.665, 1.309e-4
-1.666, 1.323e-4
-1.667, 1.341e-4
-1.668, 1.353e-4
-1.669, 1.371e-4
-1.670, 1.389e-4
-1.671, 1.401e-4
-1.672, 1.410e-4
-1.673, 1.420e-4
-1.674, 1.435e-4
-1.675, 1.453e-4
-1.676, 1.472e-4
-1.677, 1.489e-4
-1.678, 1.505e-4
-1.679, 1.524e-4
-1.680, 1.541e-4
-1.681, 1.553e-4
-1.682, 1.570e-4
-1.683, 1.585e-4
-1.684, 1.598e-4
-1.685, 1.610e-4
-1.686, 1.622e-4
-1.687, 1.634e-4
-1.688, 1.649e-4
-1.689, 1.665e-4
-1.690, 1.681e-4
-1.691, 1.697e-4
-1.692, 1.712e-4
-1.693, 1.730e-4
-1.694, 1.746e-4
-1.695, 1.761e-4
-1.696, 1.780e-4
-1.697, 1.798e-4
-1.698, 1.817e-4
-1.699, 1.834e-4
-1.700, 1.853e-4
-1.701, 1.872e-4
-1.702, 1.888e-4
-1.703, 1.902e-4
-1.704, 1.919e-4
-1.705, 1.937e-4
-1.706, 1.955e-4
-1.707, 1.974e-4
-1.708, 1.992e-4
-1.709, 2.012e-4
-1.710, 2.030e-4
-1.711, 2.048e-4
-1.712, 2.068e-4
-1.713, 2.087e-4
-1.714, 2.108e-4
-1.715, 2.130e-4
-1.716, 2.150e-4
-1.717, 2.169e-4
-1.718, 2.190e-4
-1.719, 2.210e-4
-1.720, 2.232e-4
-1.721, 2.255e-4
-1.722, 2.281e-4
-1.723, 2.304e-4
-1.724, 2.325e-4
-1.725, 2.348e-4
-1.726, 2.371e-4
-1.727, 2.395e-4
-1.728, 2.422e-4
-1.729, 2.446e-4
-1.730, 2.474e-4
-1.731, 2.496e-4
-1.732, 2.519e-4
-1.733, 2.546e-4
-1.734, 2.573e-4
-1.735, 2.603e-4
-1.736, 2.634e-4
-1.737, 2.664e-4
-1.738, 2.693e-4
-1.739, 2.725e-4
-1.740, 2.754e-4
-1.741, 2.784e-4
-1.742, 2.817e-4
-1.743, 2.849e-4
-1.744, 2.882e-4
-1.745, 2.916e-4
-1.746, 2.953e-4
-1.747, 2.989e-4
-1.748, 3.025e-4
-1.749, 3.060e-4
-1.750, 3.094e-4
-1.751, 3.130e-4
-1.752, 3.169e-4
-1.753, 3.206e-4
-1.754, 3.242e-4
-1.755, 3.283e-4
-1.756, 3.323e-4
-1.757, 3.362e-4
-1.758, 3.400e-4
-1.759, 3.440e-4
-1.760, 3.480e-4
-1.761, 3.523e-4
-1.762, 3.565e-4
-1.763, 3.608e-4
-1.764, 3.651e-4
-1.765, 3.694e-4
-1.766, 3.739e-4
-1.767, 3.781e-4
-1.768, 3.826e-4
-1.769, 3.873e-4
-1.770, 3.919e-4
-1.771, 3.969e-4
-1.772, 4.021e-4
-1.773, 4.065e-4
-1.774, 4.111e-4
-1.775, 4.158e-4
-1.776, 4.207e-4
-1.777, 4.261e-4
-1.778, 4.311e-4
-1.779, 4.357e-4
-1.780, 4.408e-4
-1.781, 4.459e-4
-1.782, 4.510e-4
-1.783, 4.561e-4
-1.784, 4.613e-4
-1.785, 4.666e-4
-1.786, 4.719e-4
-1.787, 4.773e-4
-1.788, 4.830e-4
-1.789, 4.890e-4
-1.790, 4.943e-4
-1.791, 4.998e-4
-1.792, 5.056e-4
-1.793, 5.113e-4
-1.794, 5.169e-4
-1.795, 5.229e-4
-1.796, 5.284e-4
-1.797, 5.343e-4
-1.798, 5.401e-4
-1.799, 5.457e-4
-1.800, 5.515e-4
-1.801, 5.576e-4
-1.802, 5.635e-4
-1.803, 5.694e-4
-1.804, 5.752e-4
-1.805, 5.812e-4
-1.806, 5.872e-4
-1.807, 5.934e-4
-1.808, 5.996e-4
-1.809, 6.059e-4
-1.810, 6.121e-4
-1.811, 6.184e-4
-1.812, 6.248e-4
-1.813, 6.310e-4
-1.814, 6.373e-4
-1.815, 6.441e-4
-1.816, 6.506e-4
-1.817, 6.572e-4
-1.818, 6.639e-4
-1.819, 6.705e-4
-1.820, 6.771e-4
-1.821, 6.837e-4
-1.822, 6.903e-4
-1.823, 6.970e-4
-1.824, 7.039e-4
-1.825, 7.108e-4
-1.826, 7.176e-4
-1.827, 7.245e-4
-1.828, 7.315e-4
-1.829, 7.384e-4
-1.830, 7.454e-4
-1.831, 7.523e-4
-1.832, 7.593e-4
-1.833, 7.661e-4
-1.834, 7.733e-4
-1.835, 7.804e-4
-1.836, 7.875e-4
-1.837, 7.946e-4
-1.838, 8.018e-4
-1.839, 8.091e-4
-1.840, 8.163e-4
-1.841, 8.235e-4
-1.842, 8.308e-4
-1.843, 8.382e-4
-1.844, 8.454e-4
-1.845, 8.528e-4
-1.846, 8.601e-4
-1.847, 8.674e-4
-1.848, 8.753e-4
-1.849, 8.830e-4
-1.850, 8.905e-4
-1.851, 8.979e-4
-1.852, 9.054e-4
-1.853, 9.131e-4
-1.854, 9.208e-4
-1.855, 9.285e-4
-1.856, 9.363e-4
-1.857, 9.440e-4
-1.858, 9.518e-4
-1.859, 9.595e-4
-1.860, 9.673e-4
-1.861, 9.750e-4
-1.862, 9.829e-4
-1.863, 9.907e-4
-1.864, 9.986e-4
-1.865, 1.007e-3
-1.866, 1.011e-3
-1.867, 1.011e-3
-1.868, 1.011e-3
-1.869, 1.011e-3
-1.870, 1.011e-3
-1.871, 1.011e-3
-1.872, 1.011e-3
-1.873, 1.011e-3
-1.874, 1.011e-3
-1.875, 1.011e-3
-1.876, 1.011e-3
-1.877, 1.011e-3
-1.878, 1.011e-3
-1.879, 1.011e-3
-1.880, 1.011e-3
-1.881, 1.011e-3
-1.882, 1.011e-3
-1.883, 1.011e-3
-1.884, 1.011e-3
-1.885, 1.011e-3
-1.886, 1.011e-3
-1.887, 1.011e-3
-1.888, 1.011e-3
-1.889, 1.011e-3
-1.890, 1.011e-3
-1.891, 1.011e-3
-1.892, 1.011e-3
-1.893, 1.011e-3
-1.894, 1.011e-3
-1.895, 1.011e-3
-1.896, 1.011e-3
-1.897, 1.011e-3
-1.898, 1.011e-3
-1.899, 1.011e-3
-1.900, 1.011e-3
-1.901, 1.011e-3
-1.902, 1.011e-3
-1.903, 1.011e-3
-1.904, 1.011e-3
-1.905, 1.011e-3
-1.906, 1.011e-3
-1.907, 1.011e-3
-1.908, 1.011e-3
-1.909, 1.011e-3
-1.910, 1.011e-3
-1.911, 1.011e-3
-1.912, 1.011e-3
-1.913, 1.011e-3
-1.914, 1.011e-3
-1.915, 1.011e-3
-1.916, 1.011e-3
-1.917, 1.011e-3
-1.918, 1.011e-3
-1.919, 1.011e-3
-1.920, 1.011e-3
-1.921, 1.011e-3
-1.922, 1.011e-3
-1.923, 1.011e-3
-1.924, 1.011e-3
-1.925, 1.011e-3
-1.926, 1.011e-3
-1.927, 1.011e-3
-1.928, 1.011e-3
-1.929, 1.011e-3
-1.930, 1.011e-3
-1.931, 1.011e-3
-1.932, 1.011e-3
-1.933, 1.011e-3
-1.934, 1.011e-3
-1.935, 1.011e-3
-1.936, 1.011e-3
-1.937, 1.011e-3
-1.938, 1.011e-3
-1.939, 1.011e-3
-1.940, 1.011e-3
-1.941, 1.011e-3
-1.942, 1.011e-3
-1.943, 1.011e-3
-1.944, 1.011e-3
-1.945, 1.011e-3
-1.946, 1.011e-3
-1.947, 1.011e-3
-1.948, 1.011e-3
-1.949, 1.011e-3
-1.950, 1.011e-3
-1.951, 1.011e-3
-1.952, 1.011e-3
-1.953, 1.011e-3
-1.954, 1.011e-3
-1.955, 1.011e-3
-1.956, 1.011e-3
-1.957, 1.011e-3
-1.958, 1.011e-3
-1.959, 1.011e-3
-1.960, 1.011e-3
-1.961, 1.011e-3
-1.962, 1.011e-3
-1.963, 1.011e-3
-1.964, 1.011e-3
-1.965, 1.011e-3
-1.966, 1.011e-3
-1.967, 1.011e-3
-1.968, 1.011e-3
-1.969, 1.011e-3
-1.970, 1.011e-3
-1.971, 1.011e-3
-1.972, 1.011e-3
-1.973, 1.011e-3
-1.974, 1.011e-3
-1.975, 1.011e-3
-1.976, 1.011e-3
-1.977, 1.011e-3
-1.978, 1.011e-3
-1.979, 1.011e-3
-1.980, 1.011e-3
-1.981, 1.011e-3
-1.982, 1.011e-3
-1.983, 1.011e-3
-1.984, 1.011e-3
-1.985, 1.011e-3
-1.986, 1.011e-3
-1.987, 1.011e-3
-1.988, 1.011e-3
-1.989, 1.011e-3
-1.990, 1.011e-3
-1.991, 1.011e-3
-1.992, 1.011e-3
-1.993, 1.011e-3
-1.994, 1.011e-3
-1.995, 1.011e-3
-1.996, 1.011e-3
-1.997, 1.011e-3
-1.998, 1.011e-3
-1.999, 1.011e-3
-2.000, 1.011e-3
-2.001, 1.011e-3
-2.002, 1.011e-3
-2.003, 1.011e-3
-2.004, 1.011e-3
-2.005, 1.011e-3
-2.006, 1.011e-3
-2.007, 1.011e-3
-2.008, 1.011e-3
-2.009, 1.011e-3
-2.010, 1.011e-3
-2.011, 1.011e-3
-2.012, 1.011e-3
-2.013, 1.011e-3
-2.014, 1.011e-3
-2.015, 1.011e-3
-2.016, 1.011e-3
-2.017, 1.011e-3
-2.018, 1.011e-3
-2.019, 1.011e-3
-2.020, 1.011e-3
-2.021, 1.011e-3
-2.022, 1.011e-3
-2.023, 1.011e-3
-2.024, 1.011e-3
-2.025, 1.011e-3
-2.026, 1.011e-3
-2.027, 1.011e-3
-2.028, 1.011e-3
-2.029, 1.011e-3
-2.030, 1.011e-3
-2.031, 1.011e-3
-2.032, 1.011e-3
-2.033, 1.011e-3
-2.034, 1.011e-3
-2.035, 1.011e-3
-2.036, 1.011e-3
-2.037, 1.011e-3
-2.038, 1.011e-3
-2.039, 1.011e-3
-2.040, 1.011e-3
-2.041, 1.011e-3
-2.042, 1.011e-3
-2.043, 1.011e-3
-2.044, 1.011e-3
-2.045, 1.011e-3
-2.046, 1.011e-3
-2.047, 1.011e-3
-2.048, 1.011e-3
-2.049, 1.011e-3
-2.050, 1.011e-3
-2.051, 1.011e-3
-2.052, 1.011e-3
-2.053, 1.011e-3
-2.054, 1.011e-3
-2.055, 1.011e-3
-2.056, 1.011e-3
-2.057, 1.011e-3
-2.058, 1.011e-3
-2.059, 1.011e-3
-2.060, 1.011e-3
-2.061, 1.011e-3
-2.062, 1.011e-3
-2.063, 1.011e-3
-2.064, 1.011e-3
-2.065, 1.011e-3
-2.066, 1.011e-3
-2.067, 1.011e-3
-2.068, 1.011e-3
-2.069, 1.011e-3
-2.070, 1.011e-3
-2.071, 1.011e-3
-2.072, 1.011e-3
-2.073, 1.011e-3
-2.074, 1.011e-3
-2.075, 1.011e-3
-2.076, 1.011e-3
-2.077, 1.011e-3
-2.078, 1.011e-3
-2.079, 1.011e-3
-2.080, 1.011e-3
-2.081, 1.011e-3
-2.082, 1.011e-3
-2.083, 1.011e-3
-2.084, 1.011e-3
-2.085, 1.011e-3
-2.086, 1.011e-3
-2.087, 1.011e-3
-2.088, 1.011e-3
-2.089, 1.011e-3
-2.090, 1.011e-3
-2.091, 1.011e-3
-2.092, 1.011e-3
-2.093, 1.011e-3
-2.094, 1.011e-3
-2.095, 1.011e-3
-2.096, 1.011e-3
-2.097, 1.011e-3
-2.098, 1.011e-3
-2.099, 1.011e-3
-2.100, 1.011e-3
-2.101, 1.011e-3
-2.102, 1.011e-3
-2.103, 1.011e-3
-2.104, 1.011e-3
-2.105, 1.011e-3
-2.106, 1.011e-3
-2.107, 1.011e-3
-2.108, 1.011e-3
-2.109, 1.011e-3
-2.110, 1.011e-3
-2.111, 1.011e-3
-2.112, 1.011e-3
-2.113, 1.011e-3
-2.114, 1.011e-3
-2.115, 1.011e-3
-2.116, 1.011e-3
-2.117, 1.011e-3
-2.118, 1.011e-3
-2.119, 1.011e-3
-2.120, 1.011e-3
-2.121, 1.011e-3
-2.122, 1.011e-3
-2.123, 1.011e-3
-2.124, 1.011e-3
-2.125, 1.011e-3
-2.126, 1.011e-3
-2.127, 1.011e-3
-2.128, 1.011e-3
-2.129, 1.011e-3
-2.130, 1.011e-3
-2.131, 1.011e-3
-2.132, 1.011e-3
-2.133, 1.011e-3
-2.134, 1.011e-3
-2.135, 1.011e-3
-2.136, 1.011e-3
-2.137, 1.011e-3
-2.138, 1.011e-3
-2.139, 1.011e-3
-2.140, 1.011e-3
-2.141, 1.011e-3
-2.142, 1.011e-3
-2.143, 1.011e-3
-2.144, 1.011e-3
-2.145, 1.011e-3
-2.146, 1.011e-3
-2.147, 1.011e-3
-2.148, 1.011e-3
-2.149, 1.011e-3
-2.150, 1.011e-3
-2.151, 1.011e-3
-2.152, 1.011e-3
-2.153, 1.011e-3
-2.154, 1.011e-3
-2.155, 1.011e-3
-2.156, 1.011e-3
-2.157, 1.011e-3
-2.158, 1.011e-3
-2.159, 1.011e-3
-2.160, 1.011e-3
-2.161, 1.011e-3
-2.162, 1.011e-3
-2.163, 1.011e-3
-2.164, 1.011e-3
-2.165, 1.011e-3
-2.166, 1.011e-3
-2.167, 1.011e-3
-2.168, 1.011e-3
-2.169, 1.011e-3
-2.170, 1.011e-3
-2.171, 1.011e-3
-2.172, 1.011e-3
-2.173, 1.011e-3
-2.174, 1.011e-3
-2.175, 1.011e-3
-2.176, 1.011e-3
-2.177, 1.011e-3
-2.178, 1.011e-3
-2.179, 1.011e-3
-2.180, 1.011e-3
-2.181, 1.011e-3
-2.182, 1.011e-3
-2.183, 1.011e-3
-2.184, 1.011e-3
-2.185, 1.011e-3
-2.186, 1.011e-3
-2.187, 1.011e-3
-2.188, 1.011e-3
-2.189, 1.011e-3
-2.190, 1.011e-3
-2.191, 1.011e-3
-2.192, 1.011e-3
-2.193, 1.011e-3
-2.194, 1.011e-3
-2.195, 1.011e-3
-2.196, 1.011e-3
-2.197, 1.011e-3
-2.198, 1.011e-3
-2.199, 1.011e-3
-2.200, 1.011e-3
-2.201, 1.011e-3
-2.202, 1.011e-3
-2.203, 1.011e-3
-2.204, 1.011e-3
-2.205, 1.011e-3
-2.206, 1.011e-3
-2.207, 1.011e-3
-2.208, 1.011e-3
-2.209, 1.011e-3
-2.210, 1.011e-3
-2.211, 1.011e-3
-2.212, 1.011e-3
-2.213, 1.011e-3
-2.214, 1.011e-3
-2.215, 1.011e-3
-2.216, 1.011e-3
-2.217, 1.011e-3
-2.218, 1.011e-3
-2.219, 1.011e-3
-2.220, 1.011e-3
-2.221, 1.011e-3
-2.222, 1.011e-3
-2.223, 1.011e-3
-2.224, 1.011e-3
-2.225, 1.011e-3
-2.226, 1.011e-3
-2.227, 1.011e-3
-2.228, 1.011e-3
-2.229, 1.011e-3
-2.230, 1.011e-3
-2.231, 1.011e-3
-2.232, 1.011e-3
-2.233, 1.011e-3
-2.234, 1.011e-3
-2.235, 1.011e-3
-2.236, 1.011e-3
-2.237, 1.011e-3
-2.238, 1.011e-3
-2.239, 1.011e-3
-2.240, 1.011e-3
-2.241, 1.011e-3
-2.242, 1.011e-3
-2.243, 1.011e-3
-2.244, 1.011e-3
-2.245, 1.011e-3
-2.246, 1.011e-3
-2.247, 1.011e-3
-2.248, 1.011e-3
-2.249, 1.011e-3
-2.250, 1.011e-3
-2.251, 1.011e-3
-2.252, 1.011e-3
-2.253, 1.011e-3
-2.254, 1.011e-3
-2.255, 1.011e-3
-2.256, 1.011e-3
-2.257, 1.011e-3
-2.258, 1.011e-3
-2.259, 1.011e-3
-2.260, 1.011e-3
-2.261, 1.011e-3
-2.262, 1.011e-3
-2.263, 1.011e-3
-2.264, 1.011e-3
-2.265, 1.011e-3
-2.266, 1.011e-3
-2.267, 1.011e-3
-2.268, 1.011e-3
-2.269, 1.011e-3
-2.270, 1.011e-3
-2.271, 1.011e-3
-2.272, 1.011e-3
-2.273, 1.011e-3
-2.274, 1.011e-3
-2.275, 1.011e-3
-2.276, 1.011e-3
-2.277, 1.011e-3
-2.278, 1.011e-3
-2.279, 1.011e-3
-2.280, 1.011e-3
-2.281, 1.011e-3
-2.282, 1.011e-3
-2.283, 1.011e-3
-2.284, 1.011e-3
-2.285, 1.011e-3
-2.286, 1.011e-3
-2.287, 1.011e-3
-2.288, 1.011e-3
-2.289, 1.011e-3
-2.290, 1.011e-3
-2.291, 1.011e-3
-2.292, 1.011e-3
-2.293, 1.011e-3
-2.294, 1.011e-3
-2.295, 1.011e-3
-2.296, 1.011e-3
-2.297, 1.011e-3
-2.298, 1.011e-3
-2.299, 1.011e-3
