Potential V vs RHE, Current mA cm-2
0.013299999999999867,0.5211796428702795
0.012299999999999978,-0.30755823659065895
0.011299999999999866,-0.9181476336124089
0.010299999999999976,-1.4415908145624723
0.009299999999999864,-1.8773218949209036
0.008299999999999974,-2.2706116362833835
0.007299999999999862,-2.618630616050183
0.006299999999999972,-3.0119203574126634
0.00529999999999986,-3.317497998183511
0.0042999999999999705,-3.623075638954359
0.0032999999999998586,-3.884797229429391
0.0022999999999999687,-4.146518819904423
0.0012999999999998568,-4.364384360083638
0.00029999999999996696,-4.538393849967037
-0.000700000000000145,-4.668547289554621
-0.0017000000000000348,-4.843971490737885
-0.0027000000000001467,-4.974124930325469
-0.0037000000000000366,-5.105693081212917
-0.0047000000000001485,-5.279702571096316
-0.005700000000000038,-5.453712060979717
-0.00670000000000015,-5.629136262162981
-0.00770000000000004,-5.759289701750564
-0.008700000000000152,-5.890857852638012
-0.009700000000000042,-6.064867342521412
-0.010700000000000154,-6.152579443113044
-0.011700000000000044,-6.238876832404812
-0.012700000000000156,-6.326588932996443
-0.013700000000000045,-6.37044498329226
-0.014700000000000157,-6.500598422879844
-0.015700000000000047,-6.54445447317566
-0.01670000000000016,-6.6760226240631075
-0.01770000000000005,-6.806176063650692
-0.01870000000000016,-6.93774421453814
-0.01970000000000005,-7.024041603829907
-0.020700000000000163,-7.155609754717355
-0.021700000000000053,-7.243321855308987
-0.022700000000000164,-7.329619244600755
-0.023700000000000054,-7.37347529489657
-0.024700000000000166,-7.4173313451923875
-0.025700000000000056,-7.461187395488204
-0.026700000000000168,-7.5474847847799715
-0.027700000000000058,-7.635196885371603
-0.02870000000000017,-7.722908985963235
-0.02970000000000006,-7.853062425550818
-0.03070000000000017,-7.940774526142452
-0.03170000000000006,-8.027071915434218
-0.03270000000000017,-8.11478401602585
-0.03370000000000006,-8.202496116617484
-0.034700000000000175,-8.288793505909249
-0.035700000000000065,-8.332649556205066
-0.03670000000000018,-8.376505606500881
-0.03770000000000007,-8.4203616567967
-0.03870000000000018,-8.464217707092514
-0.03970000000000007,-8.55051509638428
-0.04070000000000018,-8.638227196975913
-0.04170000000000007,-8.769795347863363
-0.04270000000000018,-8.85609273715513
-0.04370000000000007,-8.943804837746763
-0.044700000000000184,-9.031516938338395
-0.045700000000000074,-9.11781432763016
-0.046700000000000186,-9.161670377925978
-0.047700000000000076,-9.205526428221793
-0.04870000000000019,-9.205526428221793
-0.04970000000000008,-9.293238528813426
-0.05070000000000019,-9.379535918105192
-0.05170000000000008,-9.467248018696827
-0.05270000000000019,-9.55496011928846
-0.05370000000000008,-9.641257508580225
-0.05470000000000019,-9.772825659467674
-0.05570000000000008,-9.85912304875944
-0.056700000000000195,-9.902979099055257
-0.057700000000000085,-9.99069119964689
-0.058700000000000196,-10.034547249942705
-0.059700000000000086,-10.078403300238522
-0.0607000000000002,-10.120844639234473
-0.06170000000000009,-10.208556739826104
-0.0627000000000002,-10.296268840417738
-0.06370000000000009,-10.340124890713554
-0.0647000000000002,-10.470278330301136
-0.06570000000000009,-10.557990430892769
-0.0667000000000002,-10.644287820184536
-0.0677000000000001,-10.775855971071984
-0.0687000000000002,-10.819712021367803
-0.0697000000000001,-10.863568071663616
-0.07070000000000021,-10.906009410659568
-0.0717000000000001,-10.949865460955383
-0.07270000000000021,-11.037577561547016
-0.0737000000000001,-11.081433611842833
-0.07470000000000021,-11.1677310011346
-0.0757000000000001,-11.299299152022046
-0.07670000000000021,-11.385596541313816
-0.0777000000000001,-11.473308641905447
-0.07870000000000021,-11.604876792792895
-0.0797000000000001,-11.691174182084664
-0.08070000000000022,-11.73503023238048
-0.0817000000000001,-11.82274233297211
-0.08270000000000022,-11.86659838326793
-0.08370000000000011,-11.909039722263879
-0.08470000000000022,-11.952895772559694
-0.08570000000000011,-12.040607873151327
-0.08670000000000022,-12.12831997374296
-0.08770000000000011,-12.258473413330542
-0.08870000000000022,-12.346185513922174
-0.08970000000000011,-12.432482903213943
-0.09070000000000022,-12.520195003805576
-0.09170000000000011,-12.607907104397206
-0.09270000000000023,-12.651763154693022
-0.09370000000000012,-12.694204493688973
-0.09470000000000023,-12.781916594280606
-0.09570000000000012,-12.825772644576423
-0.09670000000000023,-12.869628694872238
-0.09770000000000012,-12.955926084164007
-0.09870000000000023,-13.043638184755638
-0.09970000000000012,-13.175206335643086
-0.10070000000000023,-13.261503724934855
-0.10170000000000012,-13.349215825526485
-0.10270000000000024,-13.436927926118118
-0.10370000000000013,-13.523225315409885
-0.10470000000000024,-13.610937416001518
-0.10570000000000013,-13.654793466297335
-0.10670000000000024,-13.698649516593148
-0.10770000000000013,-13.784946905884919
-0.10870000000000024,-13.828802956180734
-0.10970000000000013,-13.960371107068182
-0.11070000000000024,-14.046668496359947
-0.11170000000000013,-14.13438059695158
-0.11270000000000002,-14.26028990263957
-0.11370000000000013,-14.345172580631472
-0.11470000000000002,-14.444202371622024
-0.11570000000000014,-14.529085049613924
-0.11670000000000003,-14.57152638860988
-0.11770000000000014,-14.61396772760583
-0.11870000000000003,-14.69885040559773
-0.11970000000000014,-14.741291744593681
-0.12070000000000003,-14.826174422585586
-0.12170000000000014,-14.925204213576137
-0.12270000000000003,-15.01008689156804
-0.12370000000000014,-15.137410908555893
-0.12470000000000003,-15.264734925543747
-0.12570000000000014,-15.349617603535648
-0.12670000000000003,-15.448647394526201
-0.12770000000000015,-15.491088733522153
-0.12870000000000004,-15.533530072518102
-0.12970000000000015,-15.618412750510005
-0.13070000000000004,-15.660854089505953
-0.13170000000000015,-15.74573676749786
-0.13270000000000004,-15.830619445489761
-0.13370000000000015,-15.91550212348166
-0.13470000000000004,-16.056973253468165
-0.13570000000000015,-16.141855931460068
-0.13670000000000004,-16.269179948447924
-0.13770000000000016,-16.354062626439823
-0.13870000000000005,-16.438945304431726
-0.13970000000000016,-16.53797509542228
-0.14070000000000005,-16.580416434418233
-0.14170000000000016,-16.665299112410132
-0.14270000000000005,-16.70774045140608
-0.14370000000000016,-16.792623129397985
-0.14470000000000005,-16.877505807389888
-0.14570000000000016,-16.962388485381787
-0.14670000000000005,-17.061418276372343
-0.14770000000000016,-17.188742293360193
-0.14870000000000005,-17.2736249713521
-0.14970000000000017,-17.358507649344002
-0.15070000000000006,-17.4433903273359
-0.15170000000000017,-17.48583166633185
-0.15270000000000006,-17.584861457322408
-0.15370000000000017,-17.627302796318357
-0.15470000000000006,-17.71218547431026
-0.15570000000000017,-17.75462681330621
-0.15670000000000006,-17.839509491298113
-0.15770000000000017,-17.966833508285966
-0.15870000000000006,-18.10830463827247
-0.15970000000000018,-18.19318731626437
-0.16070000000000007,-18.27806999425627
-0.16170000000000018,-18.40539401124413
-0.16270000000000007,-18.44783535024008
-0.16370000000000018,-18.49027668923603
-0.16470000000000007,-18.589306480226583
-0.16570000000000018,-18.631747819222536
-0.16670000000000007,-18.716630497214435
-0.16770000000000018,-18.80151317520634
-0.16870000000000007,-18.88639585319824
-0.16970000000000018,-19.01371987018609
-0.17070000000000007,-19.112749661176647
-0.17170000000000019,-19.197632339168546
-0.17270000000000008,-19.3249563561564
-0.1737000000000002,-19.409839034148305
-0.17470000000000008,-19.452280373144255
-0.1757000000000002,-19.49472171214021
-0.17670000000000008,-19.579604390132108
-0.1777000000000002,-19.636192842126707
-0.17870000000000008,-19.678634181122664
-0.1797000000000002,-19.763516859114564
-0.18070000000000008,-19.890840876102416
-0.1817000000000002,-19.97572355409432
-0.18270000000000008,-20.10304757108217
-0.1837000000000002,-20.202077362072725
-0.1847000000000001,-20.286960040064624
-0.1857000000000002,-20.371842718056527
-0.1867000000000001,-20.414284057052477
-0.1877000000000002,-20.456725396048434
-0.1887000000000001,-20.499166735044383
-0.1897000000000002,-20.584049413036283
-0.1907000000000001,-20.626490752032236
-0.1917000000000001,-20.72552054302279
-0.19269999999999998,-20.85284456001064
-0.1937000000000001,-20.93772723800254
-0.19469999999999998,-21.065051254990397
-0.1957000000000001,-21.149933932982297
-0.19669999999999999,-21.248963723972853
-0.1977000000000001,-21.291405062968803
-0.1987,-21.333846401964752
-0.1997000000000001,-21.376287740960702
-0.2007,-21.461170418952605
-0.2017000000000001,-21.503611757948562
-0.2027,-21.58849443594046
-0.2037000000000001,-21.67337711393236
-0.2047,-21.772406904922917
-0.2057000000000001,-21.899730921910766
-0.2067,-21.98461359990267
-0.2077000000000001,-22.069496277894572
-0.2087,-22.111937616890522
-0.2097000000000001,-22.196820294882425
-0.2107,-22.253408746877028
-0.2117000000000001,-22.295850085872978
-0.2127,-22.38073276386488
-0.2137000000000001,-22.42317410286083
-0.2147,-22.508056780852733
-0.2157000000000001,-22.63538079784059
-0.2167,-22.72026347583249
-0.21770000000000012,-22.819293266823045
-0.2187,-22.904175944814945
-0.21970000000000012,-23.031499961802798
-0.2207,-23.073941300798747
-0.22170000000000012,-23.1163826397947
-0.2227,-23.15882397879065
-0.22370000000000012,-23.15882397879065
-0.2247,-23.24370665678255
-0.22570000000000012,-23.300295108777156
-0.2267,-23.385177786769056
-0.22770000000000012,-23.47006046476096
-0.22870000000000001,-23.55494314275286
-0.22970000000000013,-23.682267159740714
-0.23070000000000002,-23.767149837732617
-0.23170000000000013,-23.86617962872317
-0.23270000000000002,-23.908620967719123
-0.23370000000000013,-23.951062306715073
-0.23470000000000002,-23.993503645711023
-0.23570000000000013,-24.035944984706973
-0.23670000000000002,-24.120827662698876
-0.2376999999999999,-24.16326900169483
-0.23870000000000002,-24.24815167968673
-0.2396999999999999,-24.34718147067728
-0.24070000000000003,-24.432064148669184
-0.24169999999999991,-24.516946826661083
-0.24270000000000003,-24.601829504652986
-0.24369999999999992,-24.64427084364894
-0.24470000000000003,-24.686712182644893
-0.24569999999999992,-24.729153521640843
-0.24670000000000003,-24.771594860636792
-0.24769999999999992,-24.814036199632742
-0.24870000000000003,-24.870624651627345
-0.24969999999999992,-24.9130659906233
-0.25070000000000003,-24.997948668615198
-0.2516999999999999,-25.0828313466071
-0.25270000000000004,-25.167714024599
-0.2536999999999999,-25.252596702590903
-0.25470000000000004,-25.337479380582806
-0.2556999999999999,-25.337479380582806
-0.25670000000000004,-25.39406783257741
-0.25769999999999993,-25.43650917157336
-0.25870000000000004,-25.43650917157336
-0.25969999999999993,-25.478950510569312
-0.26070000000000004,-25.521391849565262
-0.26169999999999993,-25.60627452755716
-0.26270000000000004,-25.648715866553115
-0.26369999999999993,-25.73359854454502
-0.26470000000000005,-25.81848122253692
-0.26569999999999994,-25.91751101352747
-0.26670000000000005,-25.959952352523427
-0.26769999999999994,-26.002393691519377
-0.26870000000000005,-26.044835030515326
-0.26969999999999994,-26.044835030515326
-0.27070000000000005,-26.044835030515326
-0.27169999999999994,-26.087276369511276
-0.27270000000000005,-26.129717708507226
-0.27369999999999994,-26.21460038649913
-0.27470000000000006,-26.257041725495082
-0.27569999999999995,-26.29948306449103
-0.27670000000000006,-26.38436574248293
-0.27769999999999995,-26.483395533473487
-0.27870000000000006,-26.483395533473487
-0.27969999999999995,-26.525836872469437
-0.28070000000000006,-26.525836872469437
-0.28169999999999995,-26.525836872469437
-0.28270000000000006,-26.525836872469437
-0.28369999999999995,-26.568278211465387
-0.28470000000000006,-26.61071955046134
-0.28569999999999995,-26.65316088945729
-0.28670000000000007,-26.69560222845324
-0.28769999999999996,-26.780484906445146
-0.28870000000000007,-26.822926245441096
-0.28969999999999996,-26.86536758443705
-0.29070000000000007,-26.86536758443705
-0.29169999999999996,-26.86536758443705
-0.29270000000000007,-26.822926245441096
-0.29369999999999996,-26.822926245441096
-0.2947000000000001,-26.822926245441096
-0.29569999999999996,-26.822926245441096
-0.2967000000000001,-26.86536758443705
-0.29769999999999996,-26.907808923433
-0.2987000000000001,-26.9643973754276
-0.29969999999999997,-27.00683871442355
-0.3007000000000001,-27.00683871442355
-0.30169999999999997,-27.049280053419505
-0.3027000000000001,-27.049280053419505
-0.30369999999999997,-27.00683871442355
-0.3047000000000001,-27.00683871442355
-0.30569999999999997,-26.9643973754276
-0.3067000000000001,-26.907808923433
-0.3077,-26.9643973754276
-0.3087000000000001,-26.907808923433
-0.3097,-26.9643973754276
-0.3107000000000001,-27.00683871442355
-0.3117,-27.00683871442355
-0.3127000000000001,-27.00683871442355
-0.3137,-26.9643973754276
-0.3147000000000001,-26.9643973754276
-0.3157,-26.907808923433
-0.3167000000000001,-26.822926245441096
-0.3177,-26.822926245441096
-0.3187000000000001,-26.780484906445146
-0.3197,-26.738043567449193
-0.3207000000000001,-26.738043567449193
-0.3217,-26.780484906445146
-0.3227000000000001,-26.738043567449193
-0.3237,-26.738043567449193
-0.3247000000000001,-26.738043567449193
-0.3257,-26.69560222845324
-0.3267000000000001,-26.65316088945729
-0.3277,-26.568278211465387
-0.3287000000000001,-26.525836872469437
-0.3297,-26.483395533473487
-0.3307000000000001,-26.38436574248293
-0.3317,-26.34192440348698
-0.3327000000000001,-26.34192440348698
-0.3337,-26.34192440348698
-0.3347000000000001,-26.34192440348698
-0.3357,-26.29948306449103
-0.3367000000000001,-26.257041725495082
-0.3377,-26.21460038649913
-0.3387000000000001,-26.129717708507226
-0.3397,-26.087276369511276
-0.3407000000000001,-25.959952352523427
-0.3417,-25.91751101352747
-0.3427000000000001,-25.81848122253692
-0.3437,-25.81848122253692
-0.3447000000000001,-25.77603988354097
-0.3457,-25.73359854454502
-0.3467000000000001,-25.73359854454502
-0.3477,-25.691157205549064
-0.3487000000000001,-25.648715866553115
-0.3497,-25.563833188561212
-0.3507000000000001,-25.478950510569312
-0.3517,-25.39406783257741
-0.3527000000000001,-25.295038041586857
-0.3537,-25.210155363594954
-0.3547000000000001,-25.167714024599
-0.3557,-25.12527268560305
-0.35670000000000013,-25.0828313466071
-0.3577,-25.0828313466071
-0.35870000000000013,-25.04039000761115
-0.3597,-24.997948668615198
-0.36070000000000013,-24.9130659906233
-0.3617,-24.814036199632742
-0.3626999999999999,-24.771594860636792
-0.3637,-24.686712182644893
-0.3646999999999999,-24.601829504652986
-0.3657,-24.559388165657033
-0.3666999999999999,-24.516946826661083
-0.3677,-24.474505487665134
-0.3686999999999999,-24.474505487665134
-0.36970000000000003,-24.474505487665134
-0.3706999999999999,-24.432064148669184
-0.37170000000000003,-24.389622809673234
-0.3726999999999999,-24.290593018682678
-0.37370000000000003,-24.24815167968673
-0.3746999999999999,-24.20571034069078
-0.37570000000000003,-24.120827662698876
-0.3766999999999999,-24.078386323702922
-0.37770000000000004,-24.035944984706973
-0.3786999999999999,-23.993503645711023
-0.37970000000000004,-24.035944984706973
-0.3806999999999999,-24.035944984706973
-0.38170000000000004,-24.035944984706973
-0.38269999999999993,-23.993503645711023
-0.38370000000000004,-23.993503645711023
-0.38469999999999993,-23.951062306715073
-0.38570000000000004,-23.908620967719123
-0.38669999999999993,-23.86617962872317
-0.38770000000000004,-23.86617962872317
-0.38869999999999993,-23.823738289727217
-0.38970000000000005,-23.823738289727217
-0.39069999999999994,-23.823738289727217
-0.39170000000000005,-23.86617962872317
-0.39269999999999994,-23.951062306715073
-0.39370000000000005,-23.951062306715073
-0.39469999999999994,-23.951062306715073
-0.39570000000000005,-23.993503645711023
-0.39669999999999994,-23.951062306715073
-0.39770000000000005,-23.951062306715073
-0.39869999999999994,-23.951062306715073
-0.39970000000000006,-23.993503645711023
-0.40069999999999995,-23.993503645711023
-0.40170000000000006,-24.035944984706973
-0.40269999999999995,-24.120827662698876
-0.40370000000000006,-24.16326900169483
-0.40469999999999995,-24.24815167968673
-0.40570000000000006,-24.290593018682678
-0.40669999999999995,-24.34718147067728
-0.40770000000000006,-24.389622809673234
-0.40869999999999995,-24.432064148669184
-0.40970000000000006,-24.474505487665134
-0.41069999999999995,-24.516946826661083
-0.41170000000000007,-24.559388165657033
-0.41269999999999996,-24.64427084364894
-0.41370000000000007,-24.729153521640843
-0.41469999999999996,-24.870624651627345
-0.41570000000000007,-24.997948668615198
-0.41669999999999996,-25.0828313466071
-0.41770000000000007,-25.210155363594954
-0.41869999999999996,-25.295038041586857
-0.4197000000000001,-25.337479380582806
-0.42069999999999996,-25.43650917157336
-0.4217000000000001,-25.521391849565262
-0.42269999999999996,-25.60627452755716
-0.4237000000000001,-25.691157205549064
-0.42469999999999997,-25.86092256153287
-0.4257000000000001,-26.002393691519377
-0.42669999999999997,-26.129717708507226
-0.4277000000000001,-26.29948306449103
-0.42869999999999997,-26.483395533473487
-0.4297000000000001,-26.61071955046134
-0.43069999999999997,-26.738043567449193
-0.4317000000000001,-26.86536758443705
-0.4327,-27.049280053419505
-0.4337000000000001,-27.176604070407354
-0.4347,-27.303928087395207
-0.4357000000000001,-27.487840556377662
-0.4367,-27.700047251357418
-0.4377000000000001,-27.869812607341224
-0.4387,-28.09616641531963
-0.4397000000000001,-28.350814449295335
-0.4407,-28.53472691827779
-0.4417000000000001,-28.746933613257543
-0.4427,-28.91669896924135
-0.4437000000000001,-29.14305277721976
-0.4447,-29.31281813320356
-0.4457000000000001,-29.525024828183312
-0.4467,-29.751378636161718
-0.4477000000000001,-30.00602667013743
-0.4487,-30.274821817111786
-0.4497000000000001,-30.529469851087494
-0.4507,-30.79826499806185
-0.4517000000000001,-31.052913032037555
-0.4527,-31.321708179011907
-0.4537000000000001,-31.57635621298762
-0.4547,-31.84515135996197
-0.4557000000000001,-32.09979939393769
-0.4567,-32.32615320191609
-0.4577000000000001,-32.62324257488775
-0.4587,-32.892037721862096
-0.4597000000000001,-33.18912709483376
-0.4607,-33.50036358080407
-0.4617000000000001,-33.85404140577033
-0.4627,-34.193572117737936
-0.4637000000000001,-34.50480860370825
-0.4647,-34.85848642867451
-0.4657000000000001,-35.15557580164616
-0.4667,-35.50925362661242
-0.4677000000000001,-35.763901660588125
-0.4687,-36.07513814655844
-0.4697000000000001,-36.4288159715247
-0.4707,-36.725905344496354
-0.4717000000000001,-37.122024508458566
-0.4727,-37.51814367242077
-0.4737000000000001,-37.90011572338433
-0.4747,-38.29623488734655
-0.4757000000000001,-38.734795390304704
-0.4767,-39.130914554266916
-0.4777000000000001,-39.47044526623452
-0.4787,-39.86656443019674
-0.4797000000000001,-40.220242255162994
-0.4807,-40.616361419125205
-0.48170000000000013,-40.99833347008877
-0.4827,-41.352011295055014
-0.48370000000000013,-41.96033715399699
-0.4847,-42.31401497896325
-0.48570000000000013,-42.752575481921404
-0.4867,-43.17698887188092
-0.4876999999999999,-43.61554937483908
-0.4887,-44.054109877797245
-0.4896999999999999,-44.4926703807554
-0.4907,-44.93123088371356
-0.4916999999999999,-45.412232725667685
-0.4927,-45.85079322862584
-0.4936999999999999,-46.27520661858535
-0.49470000000000003,-46.75620846053947
-0.4956999999999999,-47.23721030249357
-0.49670000000000003,-47.71821214444768
-0.4976999999999999,-48.24165532539775
-0.49870000000000003,-48.76509850634781
-0.4996999999999999,-49.24610034830193
-0.5007,-49.72710219025603
-0.5016999999999999,-50.20810403221015
-0.5027,-50.68910587416426
-0.5036999999999999,-51.17010771611838
-0.5047,-51.69355089706845
-0.5056999999999999,-52.2169940780185
-0.5067,-52.74043725896857
