Jan. 15, 2025   10:51:23
Cyclic Voltammetry
File: c:/users/guazh/data/banditlqround7_x0exp772_r5/2025-01-10-exp852\exp852-2025-01-15t10_42_53-arkoh\exp852_cv_50mvs_efin_-1500mv.bin
Data Source:  Experiment
Instrument Model:  CHI760E
Header: CV ran at 50 mVs
Note: 

Init E (V) = -1
High E (V) = -1
Low E (V) = -1.5
Final E (V) = -1
Init P/N = N
Scan Rate (V/s) = 0.05
Segment = 7
Sample Interval (V) = 0.001
Quiet Time (sec) = 60
Sensitivity (A/V) = 0.001
Comp R (ohm) = 1.6

Results:

Channel 1:
Segment 1:
Ep = -1.247V
ip = 1.688e-4A
Ah = 3.007e-4C

Segment 2:

Segment 3:

Segment 4:

Segment 5:

Segment 6:

Segment 7:

Potential/V, Current/A

-1.000, 8.285e-6
-1.001, 2.143e-5
-1.002, 2.616e-5
-1.003, 2.812e-5
-1.004, 2.986e-5
-1.005, 3.204e-5
-1.006, 3.435e-5
-1.007, 3.608e-5
-1.008, 3.641e-5
-1.009, 3.700e-5
-1.010, 3.869e-5
-1.011, 4.042e-5
-1.012, 4.166e-5
-1.013, 4.176e-5
-1.014, 4.204e-5
-1.015, 4.356e-5
-1.016, 4.497e-5
-1.017, 4.594e-5
-1.018, 4.613e-5
-1.019, 4.625e-5
-1.020, 4.756e-5
-1.021, 4.896e-5
-1.022, 4.989e-5
-1.023, 5.011e-5
-1.024, 5.029e-5
-1.025, 5.132e-5
-1.026, 5.278e-5
-1.027, 5.362e-5
-1.028, 5.367e-5
-1.029, 5.374e-5
-1.030, 5.491e-5
-1.031, 5.643e-5
-1.032, 5.721e-5
-1.033, 5.726e-5
-1.034, 5.745e-5
-1.035, 5.843e-5
-1.036, 6.007e-5
-1.037, 6.100e-5
-1.038, 6.102e-5
-1.039, 6.106e-5
-1.040, 6.224e-5
-1.041, 6.374e-5
-1.042, 6.479e-5
-1.043, 6.481e-5
-1.044, 6.499e-5
-1.045, 6.607e-5
-1.046, 6.770e-5
-1.047, 6.870e-5
-1.048, 6.872e-5
-1.049, 6.897e-5
-1.050, 7.022e-5
-1.051, 7.178e-5
-1.052, 7.296e-5
-1.053, 7.302e-5
-1.054, 7.310e-5
-1.055, 7.453e-5
-1.056, 7.607e-5
-1.057, 7.725e-5
-1.058, 7.744e-5
-1.059, 7.759e-5
-1.060, 7.900e-5
-1.061, 8.073e-5
-1.062, 8.191e-5
-1.063, 8.239e-5
-1.064, 8.240e-5
-1.065, 8.373e-5
-1.066, 8.564e-5
-1.067, 8.680e-5
-1.068, 8.717e-5
-1.069, 8.746e-5
-1.070, 8.881e-5
-1.071, 9.088e-5
-1.072, 9.199e-5
-1.073, 9.238e-5
-1.074, 9.296e-5
-1.075, 9.449e-5
-1.076, 9.635e-5
-1.077, 9.767e-5
-1.078, 9.805e-5
-1.079, 9.862e-5
-1.080, 9.989e-5
-1.081, 1.020e-4
-1.082, 1.034e-4
-1.083, 1.038e-4
-1.084, 1.045e-4
-1.085, 1.059e-4
-1.086, 1.080e-4
-1.087, 1.096e-4
-1.088, 1.102e-4
-1.089, 1.107e-4
-1.090, 1.124e-4
-1.091, 1.143e-4
-1.092, 1.161e-4
-1.093, 1.166e-4
-1.094, 1.173e-4
-1.095, 1.190e-4
-1.096, 1.210e-4
-1.097, 1.227e-4
-1.098, 1.236e-4
-1.099, 1.242e-4
-1.100, 1.260e-4
-1.101, 1.281e-4
-1.102, 1.299e-4
-1.103, 1.307e-4
-1.104, 1.313e-4
-1.105, 1.332e-4
-1.106, 1.356e-4
-1.107, 1.373e-4
-1.108, 1.383e-4
-1.109, 1.390e-4
-1.110, 1.408e-4
-1.111, 1.432e-4
-1.112, 1.451e-4
-1.113, 1.461e-4
-1.114, 1.470e-4
-1.115, 1.487e-4
-1.116, 1.514e-4
-1.117, 1.532e-4
-1.118, 1.543e-4
-1.119, 1.553e-4
-1.120, 1.570e-4
-1.121, 1.597e-4
-1.122, 1.617e-4
-1.123, 1.626e-4
-1.124, 1.638e-4
-1.125, 1.657e-4
-1.126, 1.683e-4
-1.127, 1.705e-4
-1.128, 1.715e-4
-1.129, 1.726e-4
-1.130, 1.748e-4
-1.131, 1.772e-4
-1.132, 1.795e-4
-1.133, 1.806e-4
-1.134, 1.816e-4
-1.135, 1.838e-4
-1.136, 1.862e-4
-1.137, 1.886e-4
-1.138, 1.898e-4
-1.139, 1.909e-4
-1.140, 1.932e-4
-1.141, 1.958e-4
-1.142, 1.982e-4
-1.143, 1.995e-4
-1.144, 2.007e-4
-1.145, 2.026e-4
-1.146, 2.055e-4
-1.147, 2.077e-4
-1.148, 2.092e-4
-1.149, 2.103e-4
-1.150, 2.126e-4
-1.151, 2.156e-4
-1.152, 2.178e-4
-1.153, 2.194e-4
-1.154, 2.205e-4
-1.155, 2.226e-4
-1.156, 2.255e-4
-1.157, 2.279e-4
-1.158, 2.295e-4
-1.159, 2.308e-4
-1.160, 2.327e-4
-1.161, 2.358e-4
-1.162, 2.384e-4
-1.163, 2.397e-4
-1.164, 2.413e-4
-1.165, 2.434e-4
-1.166, 2.463e-4
-1.167, 2.490e-4
-1.168, 2.503e-4
-1.169, 2.518e-4
-1.170, 2.542e-4
-1.171, 2.571e-4
-1.172, 2.597e-4
-1.173, 2.611e-4
-1.174, 2.626e-4
-1.175, 2.651e-4
-1.176, 2.679e-4
-1.177, 2.707e-4
-1.178, 2.725e-4
-1.179, 2.735e-4
-1.180, 2.759e-4
-1.181, 2.789e-4
-1.182, 2.815e-4
-1.183, 2.833e-4
-1.184, 2.845e-4
-1.185, 2.868e-4
-1.186, 2.900e-4
-1.187, 2.924e-4
-1.188, 2.944e-4
-1.189, 2.956e-4
-1.190, 2.979e-4
-1.191, 3.012e-4
-1.192, 3.037e-4
-1.193, 3.054e-4
-1.194, 3.068e-4
-1.195, 3.090e-4
-1.196, 3.122e-4
-1.197, 3.149e-4
-1.198, 3.164e-4
-1.199, 3.181e-4
-1.200, 3.200e-4
-1.201, 3.231e-4
-1.202, 3.258e-4
-1.203, 3.274e-4
-1.204, 3.290e-4
-1.205, 3.310e-4
-1.206, 3.340e-4
-1.207, 3.367e-4
-1.208, 3.379e-4
-1.209, 3.392e-4
-1.210, 3.414e-4
-1.211, 3.442e-4
-1.212, 3.469e-4
-1.213, 3.482e-4
-1.214, 3.494e-4
-1.215, 3.515e-4
-1.216, 3.540e-4
-1.217, 3.566e-4
-1.218, 3.580e-4
-1.219, 3.588e-4
-1.220, 3.607e-4
-1.221, 3.633e-4
-1.222, 3.653e-4
-1.223, 3.667e-4
-1.224, 3.672e-4
-1.225, 3.688e-4
-1.226, 3.713e-4
-1.227, 3.732e-4
-1.228, 3.745e-4
-1.229, 3.753e-4
-1.230, 3.762e-4
-1.231, 3.786e-4
-1.232, 3.801e-4
-1.233, 3.807e-4
-1.234, 3.809e-4
-1.235, 3.817e-4
-1.236, 3.836e-4
-1.237, 3.847e-4
-1.238, 3.852e-4
-1.239, 3.850e-4
-1.240, 3.854e-4
-1.241, 3.868e-4
-1.242, 3.879e-4
-1.243, 3.874e-4
-1.244, 3.868e-4
-1.245, 3.867e-4
-1.246, 3.876e-4
-1.247, 3.881e-4
-1.248, 3.873e-4
-1.249, 3.863e-4
-1.250, 3.858e-4
-1.251, 3.862e-4
-1.252, 3.863e-4
-1.253, 3.851e-4
-1.254, 3.833e-4
-1.255, 3.826e-4
-1.256, 3.823e-4
-1.257, 3.817e-4
-1.258, 3.801e-4
-1.259, 3.778e-4
-1.260, 3.765e-4
-1.261, 3.759e-4
-1.262, 3.749e-4
-1.263, 3.728e-4
-1.264, 3.700e-4
-1.265, 3.682e-4
-1.266, 3.673e-4
-1.267, 3.660e-4
-1.268, 3.636e-4
-1.269, 3.603e-4
-1.270, 3.583e-4
-1.271, 3.571e-4
-1.272, 3.553e-4
-1.273, 3.526e-4
-1.274, 3.495e-4
-1.275, 3.468e-4
-1.276, 3.457e-4
-1.277, 3.439e-4
-1.278, 3.409e-4
-1.279, 3.376e-4
-1.280, 3.354e-4
-1.281, 3.336e-4
-1.282, 3.318e-4
-1.283, 3.288e-4
-1.284, 3.256e-4
-1.285, 3.230e-4
-1.286, 3.216e-4
-1.287, 3.201e-4
-1.288, 3.168e-4
-1.289, 3.137e-4
-1.290, 3.111e-4
-1.291, 3.098e-4
-1.292, 3.085e-4
-1.293, 3.056e-4
-1.294, 3.026e-4
-1.295, 3.006e-4
-1.296, 2.992e-4
-1.297, 2.980e-4
-1.298, 2.958e-4
-1.299, 2.929e-4
-1.300, 2.911e-4
-1.301, 2.902e-4
-1.302, 2.893e-4
-1.303, 2.872e-4
-1.304, 2.847e-4
-1.305, 2.833e-4
-1.306, 2.829e-4
-1.307, 2.823e-4
-1.308, 2.808e-4
-1.309, 2.787e-4
-1.310, 2.775e-4
-1.311, 2.775e-4
-1.312, 2.774e-4
-1.313, 2.761e-4
-1.314, 2.748e-4
-1.315, 2.741e-4
-1.316, 2.747e-4
-1.317, 2.748e-4
-1.318, 2.740e-4
-1.319, 2.733e-4
-1.320, 2.729e-4
-1.321, 2.741e-4
-1.322, 2.749e-4
-1.323, 2.747e-4
-1.324, 2.743e-4
-1.325, 2.747e-4
-1.326, 2.762e-4
-1.327, 2.778e-4
-1.328, 2.780e-4
-1.329, 2.783e-4
-1.330, 2.793e-4
-1.331, 2.815e-4
-1.332, 2.837e-4
-1.333, 2.845e-4
-1.334, 2.854e-4
-1.335, 2.873e-4
-1.336, 2.898e-4
-1.337, 2.926e-4
-1.338, 2.945e-4
-1.339, 2.958e-4
-1.340, 2.984e-4
-1.341, 3.018e-4
-1.342, 3.052e-4
-1.343, 3.078e-4
-1.344, 3.097e-4
-1.345, 3.128e-4
-1.346, 3.170e-4
-1.347, 3.211e-4
-1.348, 3.246e-4
-1.349, 3.273e-4
-1.350, 3.309e-4
-1.351, 3.359e-4
-1.352, 3.407e-4
-1.353, 3.446e-4
-1.354, 3.483e-4
-1.355, 3.529e-4
-1.356, 3.585e-4
-1.357, 3.641e-4
-1.358, 3.687e-4
-1.359, 3.730e-4
-1.360, 3.780e-4
-1.361, 3.845e-4
-1.362, 3.911e-4
-1.363, 3.964e-4
-1.364, 4.016e-4
-1.365, 4.074e-4
-1.366, 4.144e-4
-1.367, 4.219e-4
-1.368, 4.278e-4
-1.369, 4.338e-4
-1.370, 4.405e-4
-1.371, 4.486e-4
-1.372, 4.569e-4
-1.373, 4.636e-4
-1.374, 4.705e-4
-1.375, 4.782e-4
-1.376, 4.869e-4
-1.377, 4.960e-4
-1.378, 5.039e-4
-1.379, 5.113e-4
-1.380, 5.198e-4
-1.381, 5.295e-4
-1.382, 5.396e-4
-1.383, 5.485e-4
-1.384, 5.571e-4
-1.385, 5.666e-4
-1.386, 5.771e-4
-1.387, 5.878e-4
-1.388, 5.974e-4
-1.389, 6.067e-4
-1.390, 6.170e-4
-1.391, 6.287e-4
-1.392, 6.403e-4
-1.393, 6.509e-4
-1.394, 6.615e-4
-1.395, 6.725e-4
-1.396, 6.854e-4
-1.397, 6.983e-4
-1.398, 7.099e-4
-1.399, 7.217e-4
-1.400, 7.336e-4
-1.401, 7.472e-4
-1.402, 7.609e-4
-1.403, 7.733e-4
-1.404, 7.860e-4
-1.405, 7.991e-4
-1.406, 8.141e-4
-1.407, 8.293e-4
-1.408, 8.421e-4
-1.409, 8.556e-4
-1.410, 8.698e-4
-1.411, 8.855e-4
-1.412, 9.017e-4
-1.413, 9.165e-4
-1.414, 9.314e-4
-1.415, 9.470e-4
-1.416, 9.633e-4
-1.417, 9.793e-4
-1.418, 9.954e-4
-1.419, 1.011e-3
-1.420, 1.028e-3
-1.421, 1.046e-3
-1.422, 1.065e-3
-1.423, 1.082e-3
-1.424, 1.097e-3
-1.425, 1.115e-3
-1.426, 1.135e-3
-1.427, 1.153e-3
-1.428, 1.172e-3
-1.429, 1.191e-3
-1.430, 1.209e-3
-1.431, 1.229e-3
-1.432, 1.249e-3
-1.433, 1.267e-3
-1.434, 1.287e-3
-1.435, 1.305e-3
-1.436, 1.328e-3
-1.437, 1.348e-3
-1.438, 1.368e-3
-1.439, 1.389e-3
-1.440, 1.410e-3
-1.441, 1.431e-3
-1.442, 1.454e-3
-1.443, 1.475e-3
-1.444, 1.496e-3
-1.445, 1.518e-3
-1.446, 1.541e-3
-1.447, 1.564e-3
-1.448, 1.585e-3
-1.449, 1.607e-3
-1.450, 1.631e-3
-1.451, 1.653e-3
-1.452, 1.678e-3
-1.453, 1.701e-3
-1.454, 1.722e-3
-1.455, 1.743e-3
-1.456, 1.767e-3
-1.457, 1.792e-3
-1.458, 1.816e-3
-1.459, 1.840e-3
-1.460, 1.864e-3
-1.461, 1.890e-3
-1.462, 1.918e-3
-1.463, 1.943e-3
-1.464, 1.967e-3
-1.465, 1.992e-3
-1.466, 2.015e-3
-1.467, 2.043e-3
-1.468, 2.069e-3
-1.469, 2.095e-3
-1.470, 2.123e-3
-1.471, 2.147e-3
-1.472, 2.174e-3
-1.473, 2.199e-3
-1.474, 2.225e-3
-1.475, 2.254e-3
-1.476, 2.279e-3
-1.477, 2.306e-3
-1.478, 2.335e-3
-1.479, 2.360e-3
-1.480, 2.384e-3
-1.481, 2.413e-3
-1.482, 2.441e-3
-1.483, 2.468e-3
-1.484, 2.494e-3
-1.485, 2.519e-3
-1.486, 2.547e-3
-1.487, 2.579e-3
-1.488, 2.610e-3
-1.489, 2.636e-3
-1.490, 2.664e-3
-1.491, 2.688e-3
-1.492, 2.711e-3
-1.493, 2.737e-3
-1.494, 2.766e-3
-1.495, 2.798e-3
-1.496, 2.825e-3
-1.497, 2.848e-3
-1.498, 2.881e-3
-1.499, 2.908e-3
-1.500, 2.891e-3
-1.499, 2.845e-3
-1.498, 2.805e-3
-1.497, 2.763e-3
-1.496, 2.722e-3
-1.495, 2.676e-3
-1.494, 2.636e-3
-1.493, 2.601e-3
-1.492, 2.563e-3
-1.491, 2.524e-3
-1.490, 2.484e-3
-1.489, 2.449e-3
-1.488, 2.415e-3
-1.487, 2.376e-3
-1.486, 2.345e-3
-1.485, 2.314e-3
-1.484, 2.279e-3
-1.483, 2.244e-3
-1.482, 2.213e-3
-1.481, 2.181e-3
-1.480, 2.150e-3
-1.479, 2.121e-3
-1.478, 2.088e-3
-1.477, 2.061e-3
-1.476, 2.029e-3
-1.475, 1.995e-3
-1.474, 1.964e-3
-1.473, 1.936e-3
-1.472, 1.904e-3
-1.471, 1.882e-3
-1.470, 1.848e-3
-1.469, 1.817e-3
-1.468, 1.786e-3
-1.467, 1.757e-3
-1.466, 1.730e-3
-1.465, 1.702e-3
-1.464, 1.676e-3
-1.463, 1.648e-3
-1.462, 1.623e-3
-1.461, 1.595e-3
-1.460, 1.571e-3
-1.459, 1.548e-3
-1.458, 1.522e-3
-1.457, 1.496e-3
-1.456, 1.470e-3
-1.455, 1.445e-3
-1.454, 1.420e-3
-1.453, 1.399e-3
-1.452, 1.374e-3
-1.451, 1.350e-3
-1.450, 1.328e-3
-1.449, 1.305e-3
-1.448, 1.285e-3
-1.447, 1.262e-3
-1.446, 1.239e-3
-1.445, 1.218e-3
-1.444, 1.197e-3
-1.443, 1.178e-3
-1.442, 1.156e-3
-1.441, 1.136e-3
-1.440, 1.116e-3
-1.439, 1.099e-3
-1.438, 1.079e-3
-1.437, 1.061e-3
-1.436, 1.039e-3
-1.435, 1.021e-3
-1.434, 1.002e-3
-1.433, 9.841e-4
-1.432, 9.655e-4
-1.431, 9.475e-4
-1.430, 9.298e-4
-1.429, 9.136e-4
-1.428, 8.989e-4
-1.427, 8.832e-4
-1.426, 8.636e-4
-1.425, 8.470e-4
-1.424, 8.325e-4
-1.423, 8.171e-4
-1.422, 7.999e-4
-1.421, 7.840e-4
-1.420, 7.674e-4
-1.419, 7.528e-4
-1.418, 7.389e-4
-1.417, 7.256e-4
-1.416, 7.099e-4
-1.415, 6.960e-4
-1.414, 6.852e-4
-1.413, 6.707e-4
-1.412, 6.581e-4
-1.411, 6.442e-4
-1.410, 6.307e-4
-1.409, 6.183e-4
-1.408, 6.060e-4
-1.407, 5.937e-4
-1.406, 5.810e-4
-1.405, 5.683e-4
-1.404, 5.561e-4
-1.403, 5.453e-4
-1.402, 5.345e-4
-1.401, 5.225e-4
-1.400, 5.099e-4
-1.399, 4.998e-4
-1.398, 4.899e-4
-1.397, 4.806e-4
-1.396, 4.690e-4
-1.395, 4.583e-4
-1.394, 4.479e-4
-1.393, 4.387e-4
-1.392, 4.295e-4
-1.391, 4.197e-4
-1.390, 4.091e-4
-1.389, 4.009e-4
-1.388, 3.923e-4
-1.387, 3.839e-4
-1.386, 3.746e-4
-1.385, 3.648e-4
-1.384, 3.573e-4
-1.383, 3.494e-4
-1.382, 3.413e-4
-1.381, 3.330e-4
-1.380, 3.243e-4
-1.379, 3.171e-4
-1.378, 3.107e-4
-1.377, 3.030e-4
-1.376, 2.951e-4
-1.375, 2.873e-4
-1.374, 2.813e-4
-1.373, 2.753e-4
-1.372, 2.684e-4
-1.371, 2.608e-4
-1.370, 2.537e-4
-1.369, 2.478e-4
-1.368, 2.434e-4
-1.367, 2.372e-4
-1.366, 2.298e-4
-1.365, 2.236e-4
-1.364, 2.180e-4
-1.363, 2.131e-4
-1.362, 2.079e-4
-1.361, 2.015e-4
-1.360, 1.959e-4
-1.359, 1.912e-4
-1.358, 1.867e-4
-1.357, 1.821e-4
-1.356, 1.762e-4
-1.355, 1.709e-4
-1.354, 1.667e-4
-1.353, 1.625e-4
-1.352, 1.584e-4
-1.351, 1.531e-4
-1.350, 1.479e-4
-1.349, 1.445e-4
-1.348, 1.412e-4
-1.347, 1.370e-4
-1.346, 1.323e-4
-1.345, 1.279e-4
-1.344, 1.245e-4
-1.343, 1.217e-4
-1.342, 1.181e-4
-1.341, 1.138e-4
-1.340, 1.094e-4
-1.339, 1.066e-4
-1.338, 1.040e-4
-1.337, 1.006e-4
-1.336, 9.667e-5
-1.335, 9.309e-5
-1.334, 9.032e-5
-1.333, 8.796e-5
-1.332, 8.511e-5
-1.331, 8.152e-5
-1.330, 7.810e-5
-1.329, 7.569e-5
-1.328, 7.382e-5
-1.327, 7.128e-5
-1.326, 6.781e-5
-1.325, 6.473e-5
-1.324, 6.268e-5
-1.323, 6.096e-5
-1.322, 5.884e-5
-1.321, 5.542e-5
-1.320, 5.274e-5
-1.319, 5.081e-5
-1.318, 4.922e-5
-1.317, 4.765e-5
-1.316, 4.449e-5
-1.315, 4.180e-5
-1.314, 4.026e-5
-1.313, 3.901e-5
-1.312, 3.739e-5
-1.311, 3.462e-5
-1.310, 3.191e-5
-1.309, 3.074e-5
-1.308, 2.959e-5
-1.307, 2.814e-5
-1.306, 2.569e-5
-1.305, 2.315e-5
-1.304, 2.206e-5
-1.303, 2.117e-5
-1.302, 1.971e-5
-1.301, 1.761e-5
-1.300, 1.524e-5
-1.299, 1.421e-5
-1.298, 1.353e-5
-1.297, 1.224e-5
-1.296, 1.027e-5
-1.295, 8.080e-6
-1.294, 6.965e-6
-1.293, 6.650e-6
-1.292, 5.606e-6
-1.291, 3.455e-6
-1.290, 1.551e-6
-1.289, 5.849e-7
-1.288, 3.165e-7
-1.287, -5.517e-7
-1.286, -2.792e-6
-1.285, -4.336e-6
-1.284, -5.255e-6
-1.283, -5.567e-6
-1.282, -6.187e-6
-1.281, -8.347e-6
-1.280, -1.023e-5
-1.279, -1.065e-5
-1.278, -1.091e-5
-1.277, -1.142e-5
-1.276, -1.325e-5
-1.275, -1.489e-5
-1.274, -1.546e-5
-1.273, -1.578e-5
-1.272, -1.613e-5
-1.271, -1.784e-5
-1.270, -1.964e-5
-1.269, -1.997e-5
-1.268, -2.013e-5
-1.267, -2.074e-5
-1.266, -2.216e-5
-1.265, -2.390e-5
-1.264, -2.419e-5
-1.263, -2.431e-5
-1.262, -2.479e-5
-1.261, -2.612e-5
-1.260, -2.768e-5
-1.259, -2.836e-5
-1.258, -2.802e-5
-1.257, -2.854e-5
-1.256, -2.995e-5
-1.255, -3.143e-5
-1.254, -3.199e-5
-1.253, -3.166e-5
-1.252, -3.206e-5
-1.251, -3.347e-5
-1.250, -3.477e-5
-1.249, -3.536e-5
-1.248, -3.501e-5
-1.247, -3.542e-5
-1.246, -3.694e-5
-1.245, -3.815e-5
-1.244, -3.861e-5
-1.243, -3.848e-5
-1.242, -3.858e-5
-1.241, -4.015e-5
-1.240, -4.143e-5
-1.239, -4.164e-5
-1.238, -4.153e-5
-1.237, -4.166e-5
-1.236, -4.300e-5
-1.235, -4.438e-5
-1.234, -4.476e-5
-1.233, -4.461e-5
-1.232, -4.477e-5
-1.231, -4.601e-5
-1.230, -4.754e-5
-1.229, -4.845e-5
-1.228, -4.778e-5
-1.227, -4.790e-5
-1.226, -4.903e-5
-1.225, -5.054e-5
-1.224, -5.072e-5
-1.223, -5.047e-5
-1.222, -5.079e-5
-1.221, -5.180e-5
-1.220, -5.339e-5
-1.219, -5.379e-5
-1.218, -5.335e-5
-1.217, -5.370e-5
-1.216, -5.472e-5
-1.215, -5.620e-5
-1.214, -5.663e-5
-1.213, -5.610e-5
-1.212, -5.646e-5
-1.211, -5.782e-5
-1.210, -5.915e-5
-1.209, -5.959e-5
-1.208, -5.917e-5
-1.207, -5.937e-5
-1.206, -6.082e-5
-1.205, -6.199e-5
-1.204, -6.243e-5
-1.203, -6.216e-5
-1.202, -6.238e-5
-1.201, -6.382e-5
-1.200, -6.502e-5
-1.199, -6.537e-5
-1.198, -6.549e-5
-1.197, -6.546e-5
-1.196, -6.683e-5
-1.195, -6.834e-5
-1.194, -6.870e-5
-1.193, -6.872e-5
-1.192, -6.866e-5
-1.191, -7.003e-5
-1.190, -7.171e-5
-1.189, -7.209e-5
-1.188, -7.182e-5
-1.187, -7.229e-5
-1.186, -7.336e-5
-1.185, -7.513e-5
-1.184, -7.540e-5
-1.183, -7.527e-5
-1.182, -7.559e-5
-1.181, -7.687e-5
-1.180, -7.842e-5
-1.179, -7.914e-5
-1.178, -7.911e-5
-1.177, -7.949e-5
-1.176, -8.060e-5
-1.175, -8.232e-5
-1.174, -8.303e-5
-1.173, -8.276e-5
-1.172, -8.323e-5
-1.171, -8.477e-5
-1.170, -8.635e-5
-1.169, -8.716e-5
-1.168, -8.690e-5
-1.167, -8.738e-5
-1.166, -8.903e-5
-1.165, -9.072e-5
-1.164, -9.158e-5
-1.163, -9.163e-5
-1.162, -9.217e-5
-1.161, -9.379e-5
-1.160, -9.523e-5
-1.159, -9.614e-5
-1.158, -9.637e-5
-1.157, -9.677e-5
-1.156, -9.848e-5
-1.155, -1.004e-4
-1.154, -1.013e-4
-1.153, -1.016e-4
-1.152, -1.020e-4
-1.151, -1.038e-4
-1.150, -1.058e-4
-1.149, -1.068e-4
-1.148, -1.071e-4
-1.147, -1.077e-4
-1.146, -1.096e-4
-1.145, -1.118e-4
-1.144, -1.128e-4
-1.143, -1.132e-4
-1.142, -1.142e-4
-1.141, -1.158e-4
-1.140, -1.180e-4
-1.139, -1.196e-4
-1.138, -1.198e-4
-1.137, -1.209e-4
-1.136, -1.229e-4
-1.135, -1.248e-4
-1.134, -1.264e-4
-1.133, -1.270e-4
-1.132, -1.280e-4
-1.131, -1.303e-4
-1.130, -1.324e-4
-1.129, -1.340e-4
-1.128, -1.345e-4
-1.127, -1.357e-4
-1.126, -1.379e-4
-1.125, -1.403e-4
-1.124, -1.422e-4
-1.123, -1.432e-4
-1.122, -1.441e-4
-1.121, -1.466e-4
-1.120, -1.491e-4
-1.119, -1.509e-4
-1.118, -1.520e-4
-1.117, -1.532e-4
-1.116, -1.557e-4
-1.115, -1.584e-4
-1.114, -1.602e-4
-1.113, -1.616e-4
-1.112, -1.627e-4
-1.111, -1.651e-4
-1.110, -1.682e-4
-1.109, -1.701e-4
-1.108, -1.714e-4
-1.107, -1.730e-4
-1.106, -1.753e-4
-1.105, -1.784e-4
-1.104, -1.802e-4
-1.103, -1.814e-4
-1.102, -1.830e-4
-1.101, -1.857e-4
-1.100, -1.893e-4
-1.099, -1.911e-4
-1.098, -1.921e-4
-1.097, -1.937e-4
-1.096, -1.961e-4
-1.095, -1.992e-4
-1.094, -2.015e-4
-1.093, -2.027e-4
-1.092, -2.045e-4
-1.091, -2.073e-4
-1.090, -2.102e-4
-1.089, -2.124e-4
-1.088, -2.140e-4
-1.087, -2.155e-4
-1.086, -2.180e-4
-1.085, -2.208e-4
-1.084, -2.232e-4
-1.083, -2.246e-4
-1.082, -2.262e-4
-1.081, -2.290e-4
-1.080, -2.321e-4
-1.079, -2.342e-4
-1.078, -2.352e-4
-1.077, -2.366e-4
-1.076, -2.392e-4
-1.075, -2.424e-4
-1.074, -2.445e-4
-1.073, -2.460e-4
-1.072, -2.479e-4
-1.071, -2.505e-4
-1.070, -2.537e-4
-1.069, -2.558e-4
-1.068, -2.565e-4
-1.067, -2.580e-4
-1.066, -2.602e-4
-1.065, -2.631e-4
-1.064, -2.653e-4
-1.063, -2.665e-4
-1.062, -2.679e-4
-1.061, -2.703e-4
-1.060, -2.729e-4
-1.059, -2.749e-4
-1.058, -2.760e-4
-1.057, -2.775e-4
-1.056, -2.799e-4
-1.055, -2.822e-4
-1.054, -2.842e-4
-1.053, -2.849e-4
-1.052, -2.863e-4
-1.051, -2.887e-4
-1.050, -2.915e-4
-1.049, -2.940e-4
-1.048, -2.950e-4
-1.047, -2.963e-4
-1.046, -2.983e-4
-1.045, -3.002e-4
-1.044, -3.022e-4
-1.043, -3.028e-4
-1.042, -3.042e-4
-1.041, -3.063e-4
-1.040, -3.092e-4
-1.039, -3.104e-4
-1.038, -3.114e-4
-1.037, -3.120e-4
-1.036, -3.142e-4
-1.035, -3.167e-4
-1.034, -3.185e-4
-1.033, -3.193e-4
-1.032, -3.200e-4
-1.031, -3.219e-4
-1.030, -3.240e-4
-1.029, -3.252e-4
-1.028, -3.260e-4
-1.027, -3.267e-4
-1.026, -3.285e-4
-1.025, -3.310e-4
-1.024, -3.325e-4
-1.023, -3.331e-4
-1.022, -3.338e-4
-1.021, -3.351e-4
-1.020, -3.371e-4
-1.019, -3.387e-4
-1.018, -3.395e-4
-1.017, -3.403e-4
-1.016, -3.413e-4
-1.015, -3.433e-4
-1.014, -3.451e-4
-1.013, -3.452e-4
-1.012, -3.460e-4
-1.011, -3.477e-4
-1.010, -3.498e-4
-1.009, -3.515e-4
-1.008, -3.516e-4
-1.007, -3.522e-4
-1.006, -3.538e-4
-1.005, -3.558e-4
-1.004, -3.574e-4
-1.003, -3.578e-4
-1.002, -3.576e-4
-1.001, -3.595e-4
-1.000, -3.235e-4
-1.001, -2.819e-4
-1.002, -2.559e-4
-1.003, -2.343e-4
-1.004, -2.160e-4
-1.005, -2.004e-4
-1.006, -1.858e-4
-1.007, -1.712e-4
-1.008, -1.580e-4
-1.009, -1.469e-4
-1.010, -1.366e-4
-1.011, -1.267e-4
-1.012, -1.160e-4
-1.013, -1.065e-4
-1.014, -9.848e-5
-1.015, -9.128e-5
-1.016, -8.389e-5
-1.017, -7.585e-5
-1.018, -6.832e-5
-1.019, -6.245e-5
-1.020, -5.706e-5
-1.021, -5.159e-5
-1.022, -4.505e-5
-1.023, -3.916e-5
-1.024, -3.452e-5
-1.025, -3.051e-5
-1.026, -2.607e-5
-1.027, -2.110e-5
-1.028, -1.607e-5
-1.029, -1.261e-5
-1.030, -9.433e-6
-1.031, -5.959e-6
-1.032, -1.723e-6
-1.033, 2.514e-6
-1.034, 5.457e-6
-1.035, 7.757e-6
-1.036, 1.077e-5
-1.037, 1.442e-5
-1.038, 1.796e-5
-1.039, 2.030e-5
-1.040, 2.200e-5
-1.041, 2.443e-5
-1.042, 2.781e-5
-1.043, 3.079e-5
-1.044, 3.275e-5
-1.045, 3.415e-5
-1.046, 3.612e-5
-1.047, 3.904e-5
-1.048, 4.162e-5
-1.049, 4.330e-5
-1.050, 4.452e-5
-1.051, 4.608e-5
-1.052, 4.865e-5
-1.053, 5.105e-5
-1.054, 5.237e-5
-1.055, 5.332e-5
-1.056, 5.468e-5
-1.057, 5.708e-5
-1.058, 5.925e-5
-1.059, 6.048e-5
-1.060, 6.130e-5
-1.061, 6.247e-5
-1.062, 6.451e-5
-1.063, 6.684e-5
-1.064, 6.760e-5
-1.065, 6.836e-5
-1.066, 6.929e-5
-1.067, 7.140e-5
-1.068, 7.342e-5
-1.069, 7.409e-5
-1.070, 7.468e-5
-1.071, 7.583e-5
-1.072, 7.756e-5
-1.073, 7.970e-5
-1.074, 8.039e-5
-1.075, 8.093e-5
-1.076, 8.175e-5
-1.077, 8.324e-5
-1.078, 8.523e-5
-1.079, 8.605e-5
-1.080, 8.624e-5
-1.081, 8.716e-5
-1.082, 8.900e-5
-1.083, 9.061e-5
-1.084, 9.155e-5
-1.085, 9.157e-5
-1.086, 9.240e-5
-1.087, 9.429e-5
-1.088, 9.591e-5
-1.089, 9.653e-5
-1.090, 9.689e-5
-1.091, 9.749e-5
-1.092, 9.936e-5
-1.093, 1.008e-4
-1.094, 1.015e-4
-1.095, 1.017e-4
-1.096, 1.024e-4
-1.097, 1.042e-4
-1.098, 1.058e-4
-1.099, 1.064e-4
-1.100, 1.066e-4
-1.101, 1.073e-4
-1.102, 1.088e-4
-1.103, 1.107e-4
-1.104, 1.111e-4
-1.105, 1.114e-4
-1.106, 1.122e-4
-1.107, 1.136e-4
-1.108, 1.154e-4
-1.109, 1.160e-4
-1.110, 1.160e-4
-1.111, 1.167e-4
-1.112, 1.182e-4
-1.113, 1.200e-4
-1.114, 1.205e-4
-1.115, 1.204e-4
-1.116, 1.214e-4
-1.117, 1.228e-4
-1.118, 1.246e-4
-1.119, 1.253e-4
-1.120, 1.253e-4
-1.121, 1.259e-4
-1.122, 1.275e-4
-1.123, 1.291e-4
-1.124, 1.298e-4
-1.125, 1.298e-4
-1.126, 1.303e-4
-1.127, 1.322e-4
-1.128, 1.336e-4
-1.129, 1.345e-4
-1.130, 1.343e-4
-1.131, 1.348e-4
-1.132, 1.366e-4
-1.133, 1.382e-4
-1.134, 1.387e-4
-1.135, 1.389e-4
-1.136, 1.394e-4
-1.137, 1.410e-4
-1.138, 1.427e-4
-1.139, 1.432e-4
-1.140, 1.436e-4
-1.141, 1.439e-4
-1.142, 1.454e-4
-1.143, 1.474e-4
-1.144, 1.476e-4
-1.145, 1.478e-4
-1.146, 1.484e-4
-1.147, 1.498e-4
-1.148, 1.518e-4
-1.149, 1.521e-4
-1.150, 1.522e-4
-1.151, 1.530e-4
-1.152, 1.543e-4
-1.153, 1.562e-4
-1.154, 1.567e-4
-1.155, 1.565e-4
-1.156, 1.574e-4
-1.157, 1.587e-4
-1.158, 1.604e-4
-1.159, 1.612e-4
-1.160, 1.608e-4
-1.161, 1.614e-4
-1.162, 1.631e-4
-1.163, 1.650e-4
-1.164, 1.654e-4
-1.165, 1.651e-4
-1.166, 1.657e-4
-1.167, 1.673e-4
-1.168, 1.689e-4
-1.169, 1.694e-4
-1.170, 1.695e-4
-1.171, 1.697e-4
-1.172, 1.716e-4
-1.173, 1.730e-4
-1.174, 1.734e-4
-1.175, 1.736e-4
-1.176, 1.738e-4
-1.177, 1.757e-4
-1.178, 1.775e-4
-1.179, 1.776e-4
-1.180, 1.773e-4
-1.181, 1.776e-4
-1.182, 1.790e-4
-1.183, 1.808e-4
-1.184, 1.811e-4
-1.185, 1.809e-4
-1.186, 1.814e-4
-1.187, 1.826e-4
-1.188, 1.844e-4
-1.189, 1.848e-4
-1.190, 1.844e-4
-1.191, 1.849e-4
-1.192, 1.860e-4
-1.193, 1.874e-4
-1.194, 1.879e-4
-1.195, 1.874e-4
-1.196, 1.879e-4
-1.197, 1.889e-4
-1.198, 1.904e-4
-1.199, 1.906e-4
-1.200, 1.900e-4
-1.201, 1.903e-4
-1.202, 1.914e-4
-1.203, 1.927e-4
-1.204, 1.930e-4
-1.205, 1.923e-4
-1.206, 1.921e-4
-1.207, 1.934e-4
-1.208, 1.944e-4
-1.209, 1.944e-4
-1.210, 1.939e-4
-1.211, 1.938e-4
-1.212, 1.945e-4
-1.213, 1.956e-4
-1.214, 1.952e-4
-1.215, 1.946e-4
-1.216, 1.943e-4
-1.217, 1.951e-4
-1.218, 1.962e-4
-1.219, 1.956e-4
-1.220, 1.949e-4
-1.221, 1.943e-4
-1.222, 1.947e-4
-1.223, 1.956e-4
-1.224, 1.951e-4
-1.225, 1.942e-4
-1.226, 1.934e-4
-1.227, 1.939e-4
-1.228, 1.948e-4
-1.229, 1.946e-4
-1.230, 1.929e-4
-1.231, 1.920e-4
-1.232, 1.921e-4
-1.233, 1.926e-4
-1.234, 1.920e-4
-1.235, 1.907e-4
-1.236, 1.905e-4
-1.237, 1.900e-4
-1.238, 1.901e-4
-1.239, 1.891e-4
-1.240, 1.874e-4
-1.241, 1.866e-4
-1.242, 1.868e-4
-1.243, 1.868e-4
-1.244, 1.860e-4
-1.245, 1.842e-4
-1.246, 1.831e-4
-1.247, 1.831e-4
-1.248, 1.830e-4
-1.249, 1.821e-4
-1.250, 1.804e-4
-1.251, 1.790e-4
-1.252, 1.788e-4
-1.253, 1.788e-4
-1.254, 1.779e-4
-1.255, 1.762e-4
-1.256, 1.747e-4
-1.257, 1.747e-4
-1.258, 1.748e-4
-1.259, 1.735e-4
-1.260, 1.718e-4
-1.261, 1.704e-4
-1.262, 1.700e-4
-1.263, 1.704e-4
-1.264, 1.690e-4
-1.265, 1.669e-4
-1.266, 1.659e-4
-1.267, 1.660e-4
-1.268, 1.663e-4
-1.269, 1.647e-4
-1.270, 1.630e-4
-1.271, 1.622e-4
-1.272, 1.617e-4
-1.273, 1.617e-4
-1.274, 1.607e-4
-1.275, 1.592e-4
-1.276, 1.581e-4
-1.277, 1.578e-4
-1.278, 1.581e-4
-1.279, 1.573e-4
-1.280, 1.560e-4
-1.281, 1.550e-4
-1.282, 1.551e-4
-1.283, 1.550e-4
-1.284, 1.545e-4
-1.285, 1.531e-4
-1.286, 1.521e-4
-1.287, 1.526e-4
-1.288, 1.529e-4
-1.289, 1.524e-4
-1.290, 1.514e-4
-1.291, 1.506e-4
-1.292, 1.511e-4
-1.293, 1.516e-4
-1.294, 1.516e-4
-1.295, 1.506e-4
-1.296, 1.501e-4
-1.297, 1.508e-4
-1.298, 1.517e-4
-1.299, 1.516e-4
-1.300, 1.510e-4
-1.301, 1.506e-4
-1.302, 1.516e-4
-1.303, 1.529e-4
-1.304, 1.530e-4
-1.305, 1.526e-4
-1.306, 1.526e-4
-1.307, 1.536e-4
-1.308, 1.558e-4
-1.309, 1.560e-4
-1.310, 1.556e-4
-1.311, 1.559e-4
-1.312, 1.573e-4
-1.313, 1.590e-4
-1.314, 1.600e-4
-1.315, 1.599e-4
-1.316, 1.608e-4
-1.317, 1.623e-4
-1.318, 1.643e-4
-1.319, 1.655e-4
-1.320, 1.657e-4
-1.321, 1.669e-4
-1.322, 1.690e-4
-1.323, 1.712e-4
-1.324, 1.728e-4
-1.325, 1.735e-4
-1.326, 1.748e-4
-1.327, 1.774e-4
-1.328, 1.799e-4
-1.329, 1.817e-4
-1.330, 1.828e-4
-1.331, 1.844e-4
-1.332, 1.872e-4
-1.333, 1.901e-4
-1.334, 1.925e-4
-1.335, 1.944e-4
-1.336, 1.964e-4
-1.337, 1.992e-4
-1.338, 2.029e-4
-1.339, 2.052e-4
-1.340, 2.070e-4
-1.341, 2.098e-4
-1.342, 2.133e-4
-1.343, 2.173e-4
-1.344, 2.203e-4
-1.345, 2.227e-4
-1.346, 2.256e-4
-1.347, 2.295e-4
-1.348, 2.342e-4
-1.349, 2.376e-4
-1.350, 2.405e-4
-1.351, 2.441e-4
-1.352, 2.485e-4
-1.353, 2.535e-4
-1.354, 2.576e-4
-1.355, 2.609e-4
-1.356, 2.653e-4
-1.357, 2.701e-4
-1.358, 2.756e-4
-1.359, 2.806e-4
-1.360, 2.844e-4
-1.361, 2.890e-4
-1.362, 2.949e-4
-1.363, 3.009e-4
-1.364, 3.064e-4
-1.365, 3.108e-4
-1.366, 3.161e-4
-1.367, 3.226e-4
-1.368, 3.296e-4
-1.369, 3.360e-4
-1.370, 3.413e-4
-1.371, 3.468e-4
-1.372, 3.539e-4
-1.373, 3.614e-4
-1.374, 3.681e-4
-1.375, 3.743e-4
-1.376, 3.810e-4
-1.377, 3.891e-4
-1.378, 3.968e-4
-1.379, 4.042e-4
-1.380, 4.112e-4
-1.381, 4.186e-4
-1.382, 4.298e-4
-1.383, 4.389e-4
-1.384, 4.473e-4
-1.385, 4.546e-4
-1.386, 4.632e-4
-1.387, 4.729e-4
-1.388, 4.829e-4
-1.389, 4.925e-4
-1.390, 5.011e-4
-1.391, 5.103e-4
-1.392, 5.205e-4
-1.393, 5.314e-4
-1.394, 5.419e-4
-1.395, 5.519e-4
-1.396, 5.625e-4
-1.397, 5.727e-4
-1.398, 5.847e-4
-1.399, 5.957e-4
-1.400, 6.061e-4
-1.401, 6.179e-4
-1.402, 6.303e-4
-1.403, 6.432e-4
-1.404, 6.567e-4
-1.405, 6.677e-4
-1.406, 6.794e-4
-1.407, 6.932e-4
-1.408, 7.072e-4
-1.409, 7.208e-4
-1.410, 7.330e-4
-1.411, 7.465e-4
-1.412, 7.611e-4
-1.413, 7.751e-4
-1.414, 7.895e-4
-1.415, 8.039e-4
-1.416, 8.177e-4
-1.417, 8.334e-4
-1.418, 8.498e-4
-1.419, 8.642e-4
-1.420, 8.799e-4
-1.421, 8.942e-4
-1.422, 9.108e-4
-1.423, 9.291e-4
-1.424, 9.451e-4
-1.425, 9.605e-4
-1.426, 9.778e-4
-1.427, 9.955e-4
-1.428, 1.015e-3
-1.429, 1.032e-3
-1.430, 1.048e-3
-1.431, 1.067e-3
-1.432, 1.084e-3
-1.433, 1.104e-3
-1.434, 1.121e-3
-1.435, 1.140e-3
-1.436, 1.159e-3
-1.437, 1.178e-3
-1.438, 1.199e-3
-1.439, 1.219e-3
-1.440, 1.236e-3
-1.441, 1.257e-3
-1.442, 1.277e-3
-1.443, 1.299e-3
-1.444, 1.319e-3
-1.445, 1.339e-3
-1.446, 1.359e-3
-1.447, 1.380e-3
-1.448, 1.401e-3
-1.449, 1.424e-3
-1.450, 1.444e-3
-1.451, 1.465e-3
-1.452, 1.488e-3
-1.453, 1.511e-3
-1.454, 1.533e-3
-1.455, 1.553e-3
-1.456, 1.576e-3
-1.457, 1.601e-3
-1.458, 1.627e-3
-1.459, 1.650e-3
-1.460, 1.673e-3
-1.461, 1.695e-3
-1.462, 1.719e-3
-1.463, 1.745e-3
-1.464, 1.768e-3
-1.465, 1.793e-3
-1.466, 1.817e-3
-1.467, 1.842e-3
-1.468, 1.867e-3
-1.469, 1.891e-3
-1.470, 1.915e-3
-1.471, 1.942e-3
-1.472, 1.968e-3
-1.473, 1.991e-3
-1.474, 2.018e-3
-1.475, 2.042e-3
-1.476, 2.067e-3
-1.477, 2.090e-3
-1.478, 2.117e-3
-1.479, 2.144e-3
-1.480, 2.170e-3
-1.481, 2.197e-3
-1.482, 2.226e-3
-1.483, 2.251e-3
-1.484, 2.277e-3
-1.485, 2.303e-3
-1.486, 2.332e-3
-1.487, 2.359e-3
-1.488, 2.390e-3
-1.489, 2.419e-3
-1.490, 2.442e-3
-1.491, 2.467e-3
-1.492, 2.494e-3
-1.493, 2.523e-3
-1.494, 2.555e-3
-1.495, 2.578e-3
-1.496, 2.604e-3
-1.497, 2.632e-3
-1.498, 2.664e-3
-1.499, 2.696e-3
-1.500, 2.676e-3
-1.499, 2.632e-3
-1.498, 2.589e-3
-1.497, 2.550e-3
-1.496, 2.514e-3
-1.495, 2.476e-3
-1.494, 2.435e-3
-1.493, 2.404e-3
-1.492, 2.362e-3
-1.491, 2.328e-3
-1.490, 2.295e-3
-1.489, 2.257e-3
-1.488, 2.227e-3
-1.487, 2.195e-3
-1.486, 2.167e-3
-1.485, 2.135e-3
-1.484, 2.105e-3
-1.483, 2.072e-3
-1.482, 2.040e-3
-1.481, 2.010e-3
-1.480, 1.980e-3
-1.479, 1.953e-3
-1.478, 1.921e-3
-1.477, 1.893e-3
-1.476, 1.868e-3
-1.475, 1.840e-3
-1.474, 1.813e-3
-1.473, 1.781e-3
-1.472, 1.755e-3
-1.471, 1.728e-3
-1.470, 1.700e-3
-1.469, 1.671e-3
-1.468, 1.648e-3
-1.467, 1.628e-3
-1.466, 1.599e-3
-1.465, 1.571e-3
-1.464, 1.544e-3
-1.463, 1.517e-3
-1.462, 1.492e-3
-1.461, 1.467e-3
-1.460, 1.444e-3
-1.459, 1.420e-3
-1.458, 1.394e-3
-1.457, 1.374e-3
-1.456, 1.350e-3
-1.455, 1.327e-3
-1.454, 1.303e-3
-1.453, 1.281e-3
-1.452, 1.260e-3
-1.451, 1.238e-3
-1.450, 1.213e-3
-1.449, 1.192e-3
-1.448, 1.171e-3
-1.447, 1.151e-3
-1.446, 1.132e-3
-1.445, 1.110e-3
-1.444, 1.089e-3
-1.443, 1.069e-3
-1.442, 1.056e-3
-1.441, 1.033e-3
-1.440, 1.013e-3
-1.439, 9.948e-4
-1.438, 9.756e-4
-1.437, 9.579e-4
-1.436, 9.398e-4
-1.435, 9.234e-4
-1.434, 9.035e-4
-1.433, 8.866e-4
-1.432, 8.695e-4
-1.431, 8.540e-4
-1.430, 8.366e-4
-1.429, 8.209e-4
-1.428, 8.047e-4
-1.427, 7.916e-4
-1.426, 7.747e-4
-1.425, 7.583e-4
-1.424, 7.471e-4
-1.423, 7.272e-4
-1.422, 7.142e-4
-1.421, 7.010e-4
-1.420, 6.857e-4
-1.419, 6.708e-4
-1.418, 6.583e-4
-1.417, 6.454e-4
-1.416, 6.325e-4
-1.415, 6.192e-4
-1.414, 6.050e-4
-1.413, 5.924e-4
-1.412, 5.814e-4
-1.411, 5.692e-4
-1.410, 5.568e-4
-1.409, 5.444e-4
-1.408, 5.324e-4
-1.407, 5.217e-4
-1.406, 5.107e-4
-1.405, 4.999e-4
-1.404, 4.879e-4
-1.403, 4.774e-4
-1.402, 4.672e-4
-1.401, 4.572e-4
-1.400, 4.471e-4
-1.399, 4.360e-4
-1.398, 4.261e-4
-1.397, 4.180e-4
-1.396, 4.127e-4
-1.395, 3.975e-4
-1.394, 3.887e-4
-1.393, 3.805e-4
-1.392, 3.731e-4
-1.391, 3.643e-4
-1.390, 3.550e-4
-1.389, 3.462e-4
-1.388, 3.380e-4
-1.387, 3.307e-4
-1.386, 3.234e-4
-1.385, 3.164e-4
-1.384, 3.077e-4
-1.383, 3.001e-4
-1.382, 2.935e-4
-1.381, 2.867e-4
-1.380, 2.790e-4
-1.379, 2.712e-4
-1.378, 2.645e-4
-1.377, 2.589e-4
-1.376, 2.530e-4
-1.375, 2.461e-4
-1.374, 2.390e-4
-1.373, 2.328e-4
-1.372, 2.275e-4
-1.371, 2.220e-4
-1.370, 2.159e-4
-1.369, 2.095e-4
-1.368, 2.043e-4
-1.367, 1.994e-4
-1.366, 1.944e-4
-1.365, 1.890e-4
-1.364, 1.829e-4
-1.363, 1.778e-4
-1.362, 1.736e-4
-1.361, 1.693e-4
-1.360, 1.643e-4
-1.359, 1.590e-4
-1.358, 1.542e-4
-1.357, 1.509e-4
-1.356, 1.471e-4
-1.355, 1.424e-4
-1.354, 1.374e-4
-1.353, 1.334e-4
-1.352, 1.303e-4
-1.351, 1.268e-4
-1.350, 1.226e-4
-1.349, 1.182e-4
-1.348, 1.145e-4
-1.347, 1.118e-4
-1.346, 1.090e-4
-1.345, 1.049e-4
-1.344, 1.009e-4
-1.343, 9.755e-5
-1.342, 9.506e-5
-1.341, 9.271e-5
-1.340, 8.932e-5
-1.339, 8.528e-5
-1.338, 8.239e-5
-1.337, 8.021e-5
-1.336, 7.801e-5
-1.335, 7.483e-5
-1.334, 7.132e-5
-1.333, 6.870e-5
-1.332, 6.683e-5
-1.331, 6.489e-5
-1.330, 6.204e-5
-1.329, 5.872e-5
-1.328, 5.650e-5
-1.327, 5.485e-5
-1.326, 5.304e-5
-1.325, 5.056e-5
-1.324, 4.751e-5
-1.323, 4.535e-5
-1.322, 4.415e-5
-1.321, 4.257e-5
-1.320, 4.031e-5
-1.319, 3.763e-5
-1.318, 3.540e-5
-1.317, 3.451e-5
-1.316, 3.320e-5
-1.315, 3.097e-5
-1.314, 2.858e-5
-1.313, 2.660e-5
-1.312, 2.588e-5
-1.311, 2.481e-5
-1.310, 2.255e-5
-1.309, 2.049e-5
-1.308, 1.868e-5
-1.307, 1.783e-5
-1.306, 1.718e-5
-1.305, 1.519e-5
-1.304, 1.310e-5
-1.303, 1.158e-5
-1.302, 1.086e-5
-1.301, 1.037e-5
-1.300, 8.492e-6
-1.299, 6.325e-6
-1.298, 5.056e-6
-1.297, 4.517e-6
-1.296, 4.149e-6
-1.295, 2.411e-6
-1.294, 3.757e-7
-1.293, -7.234e-7
-1.292, -1.255e-6
-1.291, -1.605e-6
-1.290, -3.028e-6
-1.289, -5.014e-6
-1.288, -6.061e-6
-1.287, -6.372e-6
-1.286, -6.824e-6
-1.285, -7.968e-6
-1.284, -9.807e-6
-1.283, -1.100e-5
-1.282, -1.115e-5
-1.281, -1.143e-5
-1.280, -1.292e-5
-1.279, -1.438e-5
-1.278, -1.564e-5
-1.277, -1.551e-5
-1.276, -1.569e-5
-1.275, -1.698e-5
-1.274, -1.852e-5
-1.273, -1.972e-5
-1.272, -1.957e-5
-1.271, -1.947e-5
-1.270, -2.086e-5
-1.269, -2.228e-5
-1.268, -2.332e-5
-1.267, -2.336e-5
-1.266, -2.331e-5
-1.265, -2.446e-5
-1.264, -2.585e-5
-1.263, -2.678e-5
-1.262, -2.690e-5
-1.261, -2.670e-5
-1.260, -2.777e-5
-1.259, -2.927e-5
-1.258, -3.001e-5
-1.257, -3.034e-5
-1.256, -2.984e-5
-1.255, -3.090e-5
-1.254, -3.243e-5
-1.253, -3.321e-5
-1.252, -3.312e-5
-1.251, -3.310e-5
-1.250, -3.374e-5
-1.249, -3.540e-5
-1.248, -3.610e-5
-1.247, -3.605e-5
-1.246, -3.586e-5
-1.245, -3.663e-5
-1.244, -3.817e-5
-1.243, -3.900e-5
-1.242, -3.879e-5
-1.241, -3.865e-5
-1.240, -3.935e-5
-1.239, -4.086e-5
-1.238, -4.182e-5
-1.237, -4.147e-5
-1.236, -4.115e-5
-1.235, -4.222e-5
-1.234, -4.341e-5
-1.233, -4.440e-5
-1.232, -4.415e-5
-1.231, -4.382e-5
-1.230, -4.485e-5
-1.229, -4.664e-5
-1.228, -4.704e-5
-1.227, -4.682e-5
-1.226, -4.647e-5
-1.225, -4.736e-5
-1.224, -4.854e-5
-1.223, -4.937e-5
-1.222, -4.940e-5
-1.221, -4.904e-5
-1.220, -4.970e-5
-1.219, -5.128e-5
-1.218, -5.193e-5
-1.217, -5.196e-5
-1.216, -5.150e-5
-1.215, -5.229e-5
-1.214, -5.378e-5
-1.213, -5.439e-5
-1.212, -5.438e-5
-1.211, -5.415e-5
-1.210, -5.475e-5
-1.209, -5.643e-5
-1.208, -5.724e-5
-1.207, -5.710e-5
-1.206, -5.710e-5
-1.205, -5.737e-5
-1.204, -5.890e-5
-1.203, -5.986e-5
-1.202, -5.966e-5
-1.201, -5.973e-5
-1.200, -6.030e-5
-1.199, -6.177e-5
-1.198, -6.288e-5
-1.197, -6.272e-5
-1.196, -6.263e-5
-1.195, -6.346e-5
-1.194, -6.466e-5
-1.193, -6.572e-5
-1.192, -6.543e-5
-1.191, -6.534e-5
-1.190, -6.623e-5
-1.189, -6.755e-5
-1.188, -6.864e-5
-1.187, -6.861e-5
-1.186, -6.828e-5
-1.185, -6.934e-5
-1.184, -7.066e-5
-1.183, -7.163e-5
-1.182, -7.179e-5
-1.181, -7.148e-5
-1.180, -7.216e-5
-1.179, -7.388e-5
-1.178, -7.513e-5
-1.177, -7.524e-5
-1.176, -7.487e-5
-1.175, -7.573e-5
-1.174, -7.750e-5
-1.173, -7.854e-5
-1.172, -7.871e-5
-1.171, -7.855e-5
-1.170, -7.931e-5
-1.169, -8.125e-5
-1.168, -8.213e-5
-1.167, -8.237e-5
-1.166, -8.240e-5
-1.165, -8.311e-5
-1.164, -8.485e-5
-1.163, -8.634e-5
-1.162, -8.640e-5
-1.161, -8.657e-5
-1.160, -8.739e-5
-1.159, -8.919e-5
-1.158, -9.066e-5
-1.157, -9.079e-5
-1.156, -9.088e-5
-1.155, -9.206e-5
-1.154, -9.375e-5
-1.153, -9.524e-5
-1.152, -9.538e-5
-1.151, -9.573e-5
-1.150, -9.692e-5
-1.149, -9.877e-5
-1.148, -1.004e-4
-1.147, -1.008e-4
-1.146, -1.010e-4
-1.145, -1.023e-4
-1.144, -1.041e-4
-1.143, -1.057e-4
-1.142, -1.065e-4
-1.141, -1.065e-4
-1.140, -1.079e-4
-1.139, -1.101e-4
-1.138, -1.117e-4
-1.137, -1.126e-4
-1.136, -1.126e-4
-1.135, -1.141e-4
-1.134, -1.165e-4
-1.133, -1.180e-4
-1.132, -1.189e-4
-1.131, -1.197e-4
-1.130, -1.207e-4
-1.129, -1.233e-4
-1.128, -1.250e-4
-1.127, -1.260e-4
-1.126, -1.267e-4
-1.125, -1.281e-4
-1.124, -1.306e-4
-1.123, -1.326e-4
-1.122, -1.336e-4
-1.121, -1.343e-4
-1.120, -1.359e-4
-1.119, -1.384e-4
-1.118, -1.408e-4
-1.117, -1.416e-4
-1.116, -1.424e-4
-1.115, -1.442e-4
-1.114, -1.467e-4
-1.113, -1.490e-4
-1.112, -1.502e-4
-1.111, -1.512e-4
-1.110, -1.531e-4
-1.109, -1.556e-4
-1.108, -1.578e-4
-1.107, -1.594e-4
-1.106, -1.603e-4
-1.105, -1.623e-4
-1.104, -1.647e-4
-1.103, -1.672e-4
-1.102, -1.687e-4
-1.101, -1.697e-4
-1.100, -1.716e-4
-1.099, -1.744e-4
-1.098, -1.768e-4
-1.097, -1.784e-4
-1.096, -1.793e-4
-1.095, -1.812e-4
-1.094, -1.842e-4
-1.093, -1.866e-4
-1.092, -1.881e-4
-1.091, -1.893e-4
-1.090, -1.915e-4
-1.089, -1.944e-4
-1.088, -1.967e-4
-1.087, -1.983e-4
-1.086, -1.996e-4
-1.085, -2.013e-4
-1.084, -2.041e-4
-1.083, -2.066e-4
-1.082, -2.081e-4
-1.081, -2.094e-4
-1.080, -2.111e-4
-1.079, -2.142e-4
-1.078, -2.166e-4
-1.077, -2.179e-4
-1.076, -2.193e-4
-1.075, -2.215e-4
-1.074, -2.241e-4
-1.073, -2.267e-4
-1.072, -2.277e-4
-1.071, -2.290e-4
-1.070, -2.311e-4
-1.069, -2.337e-4
-1.068, -2.365e-4
-1.067, -2.383e-4
-1.066, -2.391e-4
-1.065, -2.411e-4
-1.064, -2.436e-4
-1.063, -2.462e-4
-1.062, -2.478e-4
-1.061, -2.484e-4
-1.060, -2.504e-4
-1.059, -2.529e-4
-1.058, -2.551e-4
-1.057, -2.571e-4
-1.056, -2.579e-4
-1.055, -2.596e-4
-1.054, -2.623e-4
-1.053, -2.647e-4
-1.052, -2.662e-4
-1.051, -2.673e-4
-1.050, -2.690e-4
-1.049, -2.717e-4
-1.048, -2.740e-4
-1.047, -2.754e-4
-1.046, -2.765e-4
-1.045, -2.784e-4
-1.044, -2.810e-4
-1.043, -2.831e-4
-1.042, -2.850e-4
-1.041, -2.862e-4
-1.040, -2.873e-4
-1.039, -2.891e-4
-1.038, -2.915e-4
-1.037, -2.930e-4
-1.036, -2.943e-4
-1.035, -2.961e-4
-1.034, -2.988e-4
-1.033, -3.011e-4
-1.032, -3.022e-4
-1.031, -3.031e-4
-1.030, -3.050e-4
-1.029, -3.076e-4
-1.028, -3.106e-4
-1.027, -3.119e-4
-1.026, -3.126e-4
-1.025, -3.140e-4
-1.024, -3.168e-4
-1.023, -3.193e-4
-1.022, -3.206e-4
-1.021, -3.213e-4
-1.020, -3.229e-4
-1.019, -3.252e-4
-1.018, -3.272e-4
-1.017, -3.286e-4
-1.016, -3.294e-4
-1.015, -3.312e-4
-1.014, -3.340e-4
-1.013, -3.366e-4
-1.012, -3.377e-4
-1.011, -3.392e-4
-1.010, -3.404e-4
-1.009, -3.431e-4
-1.008, -3.453e-4
-1.007, -3.467e-4
-1.006, -3.477e-4
-1.005, -3.489e-4
-1.004, -3.519e-4
-1.003, -3.543e-4
-1.002, -3.553e-4
-1.001, -3.566e-4
-1.000, -3.193e-4
-1.001, -2.778e-4
-1.002, -2.527e-4
-1.003, -2.315e-4
-1.004, -2.120e-4
-1.005, -1.958e-4
-1.006, -1.816e-4
-1.007, -1.685e-4
-1.008, -1.556e-4
-1.009, -1.429e-4
-1.010, -1.315e-4
-1.011, -1.221e-4
-1.012, -1.129e-4
-1.013, -1.037e-4
-1.014, -9.401e-5
-1.015, -8.562e-5
-1.016, -7.891e-5
-1.017, -7.237e-5
-1.018, -6.519e-5
-1.019, -5.797e-5
-1.020, -5.134e-5
-1.021, -4.641e-5
-1.022, -4.156e-5
-1.023, -3.582e-5
-1.024, -2.986e-5
-1.025, -2.483e-5
-1.026, -2.108e-5
-1.027, -1.745e-5
-1.028, -1.274e-5
-1.029, -8.014e-6
-1.030, -3.884e-6
-1.031, -7.342e-7
-1.032, 1.872e-6
-1.033, 5.746e-6
-1.034, 1.000e-5
-1.035, 1.327e-5
-1.036, 1.570e-5
-1.037, 1.773e-5
-1.038, 2.096e-5
-1.039, 2.464e-5
-1.040, 2.727e-5
-1.041, 2.925e-5
-1.042, 3.092e-5
-1.043, 3.357e-5
-1.044, 3.677e-5
-1.045, 3.916e-5
-1.046, 4.042e-5
-1.047, 4.201e-5
-1.048, 4.407e-5
-1.049, 4.686e-5
-1.050, 4.925e-5
-1.051, 5.002e-5
-1.052, 5.132e-5
-1.053, 5.327e-5
-1.054, 5.578e-5
-1.055, 5.781e-5
-1.056, 5.854e-5
-1.057, 5.922e-5
-1.058, 6.113e-5
-1.059, 6.339e-5
-1.060, 6.519e-5
-1.061, 6.587e-5
-1.062, 6.646e-5
-1.063, 6.826e-5
-1.064, 7.017e-5
-1.065, 7.183e-5
-1.066, 7.243e-5
-1.067, 7.286e-5
-1.068, 7.446e-5
-1.069, 7.636e-5
-1.070, 7.799e-5
-1.071, 7.839e-5
-1.072, 7.870e-5
-1.073, 8.021e-5
-1.074, 8.222e-5
-1.075, 8.404e-5
-1.076, 8.421e-5
-1.077, 8.422e-5
-1.078, 8.546e-5
-1.079, 8.740e-5
-1.080, 8.860e-5
-1.081, 8.901e-5
-1.082, 8.935e-5
-1.083, 9.077e-5
-1.084, 9.267e-5
-1.085, 9.381e-5
-1.086, 9.403e-5
-1.087, 9.412e-5
-1.088, 9.538e-5
-1.089, 9.723e-5
-1.090, 9.853e-5
-1.091, 9.851e-5
-1.092, 9.902e-5
-1.093, 1.000e-4
-1.094, 1.019e-4
-1.095, 1.031e-4
-1.096, 1.032e-4
-1.097, 1.034e-4
-1.098, 1.047e-4
-1.099, 1.063e-4
-1.100, 1.076e-4
-1.101, 1.079e-4
-1.102, 1.079e-4
-1.103, 1.090e-4
-1.104, 1.106e-4
-1.105, 1.117e-4
-1.106, 1.121e-4
-1.107, 1.120e-4
-1.108, 1.135e-4
-1.109, 1.149e-4
-1.110, 1.160e-4
-1.111, 1.163e-4
-1.112, 1.163e-4
-1.113, 1.175e-4
-1.114, 1.191e-4
-1.115, 1.201e-4
-1.116, 1.207e-4
-1.117, 1.204e-4
-1.118, 1.216e-4
-1.119, 1.234e-4
-1.120, 1.242e-4
-1.121, 1.245e-4
-1.122, 1.246e-4
-1.123, 1.254e-4
-1.124, 1.272e-4
-1.125, 1.283e-4
-1.126, 1.286e-4
-1.127, 1.285e-4
-1.128, 1.294e-4
-1.129, 1.312e-4
-1.130, 1.325e-4
-1.131, 1.324e-4
-1.132, 1.326e-4
-1.133, 1.335e-4
-1.134, 1.352e-4
-1.135, 1.364e-4
-1.136, 1.362e-4
-1.137, 1.363e-4
-1.138, 1.373e-4
-1.139, 1.388e-4
-1.140, 1.402e-4
-1.141, 1.402e-4
-1.142, 1.400e-4
-1.143, 1.412e-4
-1.144, 1.427e-4
-1.145, 1.438e-4
-1.146, 1.441e-4
-1.147, 1.440e-4
-1.148, 1.450e-4
-1.149, 1.464e-4
-1.150, 1.475e-4
-1.151, 1.477e-4
-1.152, 1.476e-4
-1.153, 1.484e-4
-1.154, 1.500e-4
-1.155, 1.512e-4
-1.156, 1.513e-4
-1.157, 1.512e-4
-1.158, 1.520e-4
-1.159, 1.537e-4
-1.160, 1.547e-4
-1.161, 1.548e-4
-1.162, 1.548e-4
-1.163, 1.554e-4
-1.164, 1.570e-4
-1.165, 1.583e-4
-1.166, 1.583e-4
-1.167, 1.583e-4
-1.168, 1.587e-4
-1.169, 1.606e-4
-1.170, 1.616e-4
-1.171, 1.615e-4
-1.172, 1.614e-4
-1.173, 1.621e-4
-1.174, 1.636e-4
-1.175, 1.648e-4
-1.176, 1.647e-4
-1.177, 1.646e-4
-1.178, 1.654e-4
-1.179, 1.669e-4
-1.180, 1.681e-4
-1.181, 1.679e-4
-1.182, 1.675e-4
-1.183, 1.682e-4
-1.184, 1.695e-4
-1.185, 1.705e-4
-1.186, 1.703e-4
-1.187, 1.699e-4
-1.188, 1.708e-4
-1.189, 1.722e-4
-1.190, 1.730e-4
-1.191, 1.731e-4
-1.192, 1.725e-4
-1.193, 1.729e-4
-1.194, 1.741e-4
-1.195, 1.749e-4
-1.196, 1.748e-4
-1.197, 1.744e-4
-1.198, 1.749e-4
-1.199, 1.763e-4
-1.200, 1.767e-4
-1.201, 1.766e-4
-1.202, 1.761e-4
-1.203, 1.763e-4
-1.204, 1.775e-4
-1.205, 1.780e-4
-1.206, 1.778e-4
-1.207, 1.770e-4
-1.208, 1.770e-4
-1.209, 1.782e-4
-1.210, 1.788e-4
-1.211, 1.781e-4
-1.212, 1.775e-4
-1.213, 1.776e-4
-1.214, 1.785e-4
-1.215, 1.792e-4
-1.216, 1.783e-4
-1.217, 1.774e-4
-1.218, 1.773e-4
-1.219, 1.779e-4
-1.220, 1.784e-4
-1.221, 1.778e-4
-1.222, 1.767e-4
-1.223, 1.766e-4
-1.224, 1.770e-4
-1.225, 1.772e-4
-1.226, 1.766e-4
-1.227, 1.753e-4
-1.228, 1.753e-4
-1.229, 1.763e-4
-1.230, 1.759e-4
-1.231, 1.750e-4
-1.232, 1.734e-4
-1.233, 1.730e-4
-1.234, 1.736e-4
-1.235, 1.733e-4
-1.236, 1.724e-4
-1.237, 1.708e-4
-1.238, 1.704e-4
-1.239, 1.707e-4
-1.240, 1.707e-4
-1.241, 1.696e-4
-1.242, 1.681e-4
-1.243, 1.673e-4
-1.244, 1.675e-4
-1.245, 1.673e-4
-1.246, 1.661e-4
-1.247, 1.645e-4
-1.248, 1.638e-4
-1.249, 1.641e-4
-1.250, 1.639e-4
-1.251, 1.625e-4
-1.252, 1.611e-4
-1.253, 1.601e-4
-1.254, 1.602e-4
-1.255, 1.600e-4
-1.256, 1.586e-4
-1.257, 1.570e-4
-1.258, 1.565e-4
-1.259, 1.564e-4
-1.260, 1.563e-4
-1.261, 1.550e-4
-1.262, 1.533e-4
-1.263, 1.525e-4
-1.264, 1.525e-4
-1.265, 1.523e-4
-1.266, 1.511e-4
-1.267, 1.495e-4
-1.268, 1.488e-4
-1.269, 1.487e-4
-1.270, 1.486e-4
-1.271, 1.476e-4
-1.272, 1.458e-4
-1.273, 1.450e-4
-1.274, 1.456e-4
-1.275, 1.454e-4
-1.276, 1.443e-4
-1.277, 1.428e-4
-1.278, 1.422e-4
-1.279, 1.427e-4
-1.280, 1.427e-4
-1.281, 1.416e-4
-1.282, 1.404e-4
-1.283, 1.397e-4
-1.284, 1.404e-4
-1.285, 1.406e-4
-1.286, 1.395e-4
-1.287, 1.384e-4
-1.288, 1.379e-4
-1.289, 1.386e-4
-1.290, 1.391e-4
-1.291, 1.382e-4
-1.292, 1.374e-4
-1.293, 1.371e-4
-1.294, 1.381e-4
-1.295, 1.387e-4
-1.296, 1.382e-4
-1.297, 1.373e-4
-1.298, 1.373e-4
-1.299, 1.383e-4
-1.300, 1.390e-4
-1.301, 1.387e-4
-1.302, 1.382e-4
-1.303, 1.387e-4
-1.304, 1.397e-4
-1.305, 1.407e-4
-1.306, 1.408e-4
-1.307, 1.406e-4
-1.308, 1.411e-4
-1.309, 1.421e-4
-1.310, 1.435e-4
-1.311, 1.439e-4
-1.312, 1.435e-4
-1.313, 1.444e-4
-1.314, 1.462e-4
-1.315, 1.475e-4
-1.316, 1.483e-4
-1.317, 1.483e-4
-1.318, 1.492e-4
-1.319, 1.513e-4
-1.320, 1.529e-4
-1.321, 1.538e-4
-1.322, 1.544e-4
-1.323, 1.554e-4
-1.324, 1.578e-4
-1.325, 1.600e-4
-1.326, 1.609e-4
-1.327, 1.618e-4
-1.328, 1.632e-4
-1.329, 1.659e-4
-1.330, 1.687e-4
-1.331, 1.701e-4
-1.332, 1.711e-4
-1.333, 1.728e-4
-1.334, 1.756e-4
-1.335, 1.785e-4
-1.336, 1.802e-4
-1.337, 1.817e-4
-1.338, 1.840e-4
-1.339, 1.872e-4
-1.340, 1.909e-4
-1.341, 1.928e-4
-1.342, 1.946e-4
-1.343, 1.972e-4
-1.344, 2.007e-4
-1.345, 2.046e-4
-1.346, 2.072e-4
-1.347, 2.094e-4
-1.348, 2.127e-4
-1.349, 2.167e-4
-1.350, 2.210e-4
-1.351, 2.240e-4
-1.352, 2.267e-4
-1.353, 2.303e-4
-1.354, 2.350e-4
-1.355, 2.396e-4
-1.356, 2.434e-4
-1.357, 2.466e-4
-1.358, 2.507e-4
-1.359, 2.562e-4
-1.360, 2.615e-4
-1.361, 2.652e-4
-1.362, 2.696e-4
-1.363, 2.741e-4
-1.364, 2.798e-4
-1.365, 2.855e-4
-1.366, 2.903e-4
-1.367, 2.950e-4
-1.368, 3.005e-4
-1.369, 3.070e-4
-1.370, 3.137e-4
-1.371, 3.193e-4
-1.372, 3.243e-4
-1.373, 3.300e-4
-1.374, 3.371e-4
-1.375, 3.444e-4
-1.376, 3.505e-4
-1.377, 3.566e-4
-1.378, 3.634e-4
-1.379, 3.710e-4
-1.380, 3.796e-4
-1.381, 3.867e-4
-1.382, 3.938e-4
-1.383, 4.013e-4
-1.384, 4.096e-4
-1.385, 4.186e-4
-1.386, 4.268e-4
-1.387, 4.339e-4
-1.388, 4.427e-4
-1.389, 4.523e-4
-1.390, 4.626e-4
-1.391, 4.716e-4
-1.392, 4.796e-4
-1.393, 4.890e-4
-1.394, 4.994e-4
-1.395, 5.099e-4
-1.396, 5.205e-4
-1.397, 5.304e-4
-1.398, 5.409e-4
-1.399, 5.522e-4
-1.400, 5.636e-4
-1.401, 5.749e-4
-1.402, 5.856e-4
-1.403, 5.969e-4
-1.404, 6.093e-4
-1.405, 6.221e-4
-1.406, 6.337e-4
-1.407, 6.455e-4
-1.408, 6.575e-4
-1.409, 6.702e-4
-1.410, 6.845e-4
-1.411, 6.969e-4
-1.412, 7.104e-4
-1.413, 7.246e-4
-1.414, 7.392e-4
-1.415, 7.532e-4
-1.416, 7.677e-4
-1.417, 7.810e-4
-1.418, 7.957e-4
-1.419, 8.118e-4
-1.420, 8.273e-4
-1.421, 8.415e-4
-1.422, 8.569e-4
-1.423, 8.718e-4
-1.424, 8.892e-4
-1.425, 9.073e-4
-1.426, 9.225e-4
-1.427, 9.382e-4
-1.428, 9.548e-4
-1.429, 9.717e-4
-1.430, 9.897e-4
-1.431, 1.007e-3
-1.432, 1.024e-3
-1.433, 1.041e-3
-1.434, 1.061e-3
-1.435, 1.079e-3
-1.436, 1.098e-3
-1.437, 1.114e-3
-1.438, 1.133e-3
-1.439, 1.153e-3
-1.440, 1.173e-3
-1.441, 1.193e-3
-1.442, 1.212e-3
-1.443, 1.232e-3
-1.444, 1.252e-3
-1.445, 1.273e-3
-1.446, 1.292e-3
-1.447, 1.313e-3
-1.448, 1.333e-3
-1.449, 1.355e-3
-1.450, 1.377e-3
-1.451, 1.398e-3
-1.452, 1.419e-3
-1.453, 1.440e-3
-1.454, 1.463e-3
-1.455, 1.486e-3
-1.456, 1.509e-3
-1.457, 1.531e-3
-1.458, 1.552e-3
-1.459, 1.575e-3
-1.460, 1.597e-3
-1.461, 1.621e-3
-1.462, 1.643e-3
-1.463, 1.666e-3
-1.464, 1.690e-3
-1.465, 1.714e-3
-1.466, 1.738e-3
-1.467, 1.761e-3
-1.468, 1.786e-3
-1.469, 1.813e-3
-1.470, 1.837e-3
-1.471, 1.859e-3
-1.472, 1.884e-3
-1.473, 1.906e-3
-1.474, 1.933e-3
-1.475, 1.961e-3
-1.476, 1.985e-3
-1.477, 2.012e-3
-1.478, 2.037e-3
-1.479, 2.064e-3
-1.480, 2.094e-3
-1.481, 2.118e-3
-1.482, 2.147e-3
-1.483, 2.169e-3
-1.484, 2.195e-3
-1.485, 2.222e-3
-1.486, 2.246e-3
-1.487, 2.268e-3
-1.488, 2.294e-3
-1.489, 2.322e-3
-1.490, 2.348e-3
-1.491, 2.379e-3
-1.492, 2.402e-3
-1.493, 2.429e-3
-1.494, 2.452e-3
-1.495, 2.483e-3
-1.496, 2.505e-3
-1.497, 2.532e-3
-1.498, 2.556e-3
-1.499, 2.589e-3
-1.500, 2.577e-3
-1.499, 2.534e-3
-1.498, 2.500e-3
-1.497, 2.463e-3
-1.496, 2.424e-3
-1.495, 2.388e-3
-1.494, 2.354e-3
-1.493, 2.321e-3
-1.492, 2.289e-3
-1.491, 2.257e-3
-1.490, 2.226e-3
-1.489, 2.186e-3
-1.488, 2.156e-3
-1.487, 2.127e-3
-1.486, 2.097e-3
-1.485, 2.064e-3
-1.484, 2.034e-3
-1.483, 2.001e-3
-1.482, 1.969e-3
-1.481, 1.941e-3
-1.480, 1.915e-3
-1.479, 1.882e-3
-1.478, 1.850e-3
-1.477, 1.821e-3
-1.476, 1.792e-3
-1.475, 1.768e-3
-1.474, 1.740e-3
-1.473, 1.715e-3
-1.472, 1.686e-3
-1.471, 1.663e-3
-1.470, 1.635e-3
-1.469, 1.609e-3
-1.468, 1.585e-3
-1.467, 1.561e-3
-1.466, 1.537e-3
-1.465, 1.509e-3
-1.464, 1.485e-3
-1.463, 1.459e-3
-1.462, 1.434e-3
-1.461, 1.412e-3
-1.460, 1.390e-3
-1.459, 1.363e-3
-1.458, 1.338e-3
-1.457, 1.314e-3
-1.456, 1.292e-3
-1.455, 1.270e-3
-1.454, 1.247e-3
-1.453, 1.226e-3
-1.452, 1.205e-3
-1.451, 1.186e-3
-1.450, 1.165e-3
-1.449, 1.145e-3
-1.448, 1.123e-3
-1.447, 1.101e-3
-1.446, 1.081e-3
-1.445, 1.063e-3
-1.444, 1.044e-3
-1.443, 1.023e-3
-1.442, 1.002e-3
-1.441, 9.865e-4
-1.440, 9.675e-4
-1.439, 9.508e-4
-1.438, 9.438e-4
-1.437, 9.187e-4
-1.436, 9.042e-4
-1.435, 8.880e-4
-1.434, 8.715e-4
-1.433, 8.535e-4
-1.432, 8.343e-4
-1.431, 8.207e-4
-1.430, 8.046e-4
-1.429, 7.883e-4
-1.428, 7.725e-4
-1.427, 7.569e-4
-1.426, 7.428e-4
-1.425, 7.287e-4
-1.424, 7.140e-4
-1.423, 6.991e-4
-1.422, 6.845e-4
-1.421, 6.716e-4
-1.420, 6.585e-4
-1.419, 6.437e-4
-1.418, 6.295e-4
-1.417, 6.165e-4
-1.416, 6.031e-4
-1.415, 5.908e-4
-1.414, 5.785e-4
-1.413, 5.658e-4
-1.412, 5.547e-4
-1.411, 5.422e-4
-1.410, 5.313e-4
-1.409, 5.194e-4
-1.408, 5.069e-4
-1.407, 4.956e-4
-1.406, 4.849e-4
-1.405, 4.758e-4
-1.404, 4.655e-4
-1.403, 4.541e-4
-1.402, 4.430e-4
-1.401, 4.337e-4
-1.400, 4.245e-4
-1.399, 4.157e-4
-1.398, 4.054e-4
-1.397, 3.953e-4
-1.396, 3.862e-4
-1.395, 3.784e-4
-1.394, 3.694e-4
-1.393, 3.602e-4
-1.392, 3.512e-4
-1.391, 3.432e-4
-1.390, 3.355e-4
-1.389, 3.277e-4
-1.388, 3.187e-4
-1.387, 3.106e-4
-1.386, 3.037e-4
-1.385, 2.970e-4
-1.384, 2.901e-4
-1.383, 2.821e-4
-1.382, 2.742e-4
-1.381, 2.676e-4
-1.380, 2.620e-4
-1.379, 2.556e-4
-1.378, 2.486e-4
-1.377, 2.413e-4
-1.376, 2.360e-4
-1.375, 2.303e-4
-1.374, 2.245e-4
-1.373, 2.182e-4
-1.372, 2.116e-4
-1.371, 2.063e-4
-1.370, 2.018e-4
-1.369, 1.963e-4
-1.368, 1.904e-4
-1.367, 1.847e-4
-1.366, 1.805e-4
-1.365, 1.762e-4
-1.364, 1.713e-4
-1.363, 1.656e-4
-1.362, 1.605e-4
-1.361, 1.564e-4
-1.360, 1.530e-4
-1.359, 1.487e-4
-1.358, 1.435e-4
-1.357, 1.385e-4
-1.356, 1.351e-4
-1.355, 1.318e-4
-1.354, 1.284e-4
-1.353, 1.236e-4
-1.352, 1.195e-4
-1.351, 1.161e-4
-1.350, 1.132e-4
-1.349, 1.099e-4
-1.348, 1.059e-4
-1.347, 1.017e-4
-1.346, 9.894e-5
-1.345, 9.650e-5
-1.344, 9.350e-5
-1.343, 8.995e-5
-1.342, 8.592e-5
-1.341, 8.362e-5
-1.340, 8.139e-5
-1.339, 7.879e-5
-1.338, 7.544e-5
-1.337, 7.204e-5
-1.336, 6.988e-5
-1.335, 6.802e-5
-1.334, 6.565e-5
-1.333, 6.254e-5
-1.332, 5.950e-5
-1.331, 5.742e-5
-1.330, 5.589e-5
-1.329, 5.388e-5
-1.328, 5.108e-5
-1.327, 4.827e-5
-1.326, 4.641e-5
-1.325, 4.525e-5
-1.324, 4.341e-5
-1.323, 4.068e-5
-1.322, 3.826e-5
-1.321, 3.645e-5
-1.320, 3.556e-5
-1.319, 3.397e-5
-1.318, 3.152e-5
-1.317, 2.927e-5
-1.316, 2.773e-5
-1.315, 2.695e-5
-1.314, 2.570e-5
-1.313, 2.327e-5
-1.312, 2.114e-5
-1.311, 1.996e-5
-1.310, 1.910e-5
-1.309, 1.813e-5
-1.308, 1.604e-5
-1.307, 1.372e-5
-1.306, 1.272e-5
-1.305, 1.211e-5
-1.304, 1.130e-5
-1.303, 9.422e-6
-1.302, 7.181e-6
-1.301, 6.436e-6
-1.300, 5.967e-6
-1.299, 5.025e-6
-1.298, 3.291e-6
-1.297, 1.369e-6
-1.296, 6.115e-7
-1.295, 2.376e-7
-1.294, -5.645e-7
-1.293, -2.095e-6
-1.292, -3.916e-6
-1.291, -4.817e-6
-1.290, -4.823e-6
-1.289, -5.731e-6
-1.288, -7.074e-6
-1.287, -8.770e-6
-1.286, -9.612e-6
-1.285, -9.614e-6
-1.284, -1.004e-5
-1.283, -1.165e-5
-1.282, -1.319e-5
-1.281, -1.406e-5
-1.280, -1.403e-5
-1.279, -1.437e-5
-1.278, -1.589e-5
-1.277, -1.714e-5
-1.276, -1.789e-5
-1.275, -1.788e-5
-1.274, -1.820e-5
-1.273, -1.963e-5
-1.272, -2.089e-5
-1.271, -2.149e-5
-1.270, -2.154e-5
-1.269, -2.170e-5
-1.268, -2.304e-5
-1.267, -2.450e-5
-1.266, -2.497e-5
-1.265, -2.496e-5
-1.264, -2.495e-5
-1.263, -2.626e-5
-1.262, -2.777e-5
-1.261, -2.814e-5
-1.260, -2.793e-5
-1.259, -2.818e-5
-1.258, -2.927e-5
-1.257, -3.080e-5
-1.256, -3.105e-5
-1.255, -3.086e-5
-1.254, -3.126e-5
-1.253, -3.214e-5
-1.252, -3.350e-5
-1.251, -3.381e-5
-1.250, -3.369e-5
-1.249, -3.396e-5
-1.248, -3.488e-5
-1.247, -3.621e-5
-1.246, -3.685e-5
-1.245, -3.632e-5
-1.244, -3.650e-5
-1.243, -3.759e-5
-1.242, -3.866e-5
-1.241, -3.928e-5
-1.240, -3.881e-5
-1.239, -3.891e-5
-1.238, -4.012e-5
-1.237, -4.121e-5
-1.236, -4.169e-5
-1.235, -4.134e-5
-1.234, -4.136e-5
-1.233, -4.244e-5
-1.232, -4.366e-5
-1.231, -4.412e-5
-1.230, -4.387e-5
-1.229, -4.447e-5
-1.228, -4.504e-5
-1.227, -4.627e-5
-1.226, -4.656e-5
-1.225, -4.638e-5
-1.224, -4.623e-5
-1.223, -4.728e-5
-1.222, -4.866e-5
-1.221, -4.894e-5
-1.220, -4.863e-5
-1.219, -4.868e-5
-1.218, -4.971e-5
-1.217, -5.100e-5
-1.216, -5.123e-5
-1.215, -5.097e-5
-1.214, -5.125e-5
-1.213, -5.202e-5
-1.212, -5.351e-5
-1.211, -5.384e-5
-1.210, -5.342e-5
-1.209, -5.365e-5
-1.208, -5.439e-5
-1.207, -5.573e-5
-1.206, -5.641e-5
-1.205, -5.588e-5
-1.204, -5.607e-5
-1.203, -5.706e-5
-1.202, -5.822e-5
-1.201, -5.883e-5
-1.200, -5.826e-5
-1.199, -5.854e-5
-1.198, -5.960e-5
-1.197, -6.095e-5
-1.196, -6.141e-5
-1.195, -6.113e-5
-1.194, -6.106e-5
-1.193, -6.229e-5
-1.192, -6.358e-5
-1.191, -6.417e-5
-1.190, -6.397e-5
-1.189, -6.384e-5
-1.188, -6.499e-5
-1.187, -6.652e-5
-1.186, -6.696e-5
-1.185, -6.681e-5
-1.184, -6.672e-5
-1.183, -6.782e-5
-1.182, -6.942e-5
-1.181, -6.983e-5
-1.180, -6.968e-5
-1.179, -6.997e-5
-1.178, -7.119e-5
-1.177, -7.265e-5
-1.176, -7.316e-5
-1.175, -7.302e-5
-1.174, -7.338e-5
-1.173, -7.436e-5
-1.172, -7.582e-5
-1.171, -7.655e-5
-1.170, -7.651e-5
-1.169, -7.681e-5
-1.168, -7.778e-5
-1.167, -7.942e-5
-1.166, -8.033e-5
-1.165, -8.025e-5
-1.164, -8.044e-5
-1.163, -8.189e-5
-1.162, -8.329e-5
-1.161, -8.436e-5
-1.160, -8.411e-5
-1.159, -8.467e-5
-1.158, -8.591e-5
-1.157, -8.753e-5
-1.156, -8.869e-5
-1.155, -8.878e-5
-1.154, -8.892e-5
-1.153, -9.030e-5
-1.152, -9.217e-5
-1.151, -9.314e-5
-1.150, -9.342e-5
-1.149, -9.356e-5
-1.148, -9.524e-5
-1.147, -9.739e-5
-1.146, -9.815e-5
-1.145, -9.847e-5
-1.144, -9.879e-5
-1.143, -1.003e-4
-1.142, -1.024e-4
-1.141, -1.035e-4
-1.140, -1.041e-4
-1.139, -1.045e-4
-1.138, -1.062e-4
-1.137, -1.081e-4
-1.136, -1.098e-4
-1.135, -1.108e-4
-1.134, -1.113e-4
-1.133, -1.131e-4
-1.132, -1.148e-4
-1.131, -1.162e-4
-1.130, -1.167e-4
-1.129, -1.175e-4
-1.128, -1.188e-4
-1.127, -1.213e-4
-1.126, -1.230e-4
-1.125, -1.235e-4
-1.124, -1.246e-4
-1.123, -1.265e-4
-1.122, -1.289e-4
-1.121, -1.309e-4
-1.120, -1.312e-4
-1.119, -1.322e-4
-1.118, -1.343e-4
-1.117, -1.364e-4
-1.116, -1.383e-4
-1.115, -1.392e-4
-1.114, -1.403e-4
-1.113, -1.423e-4
-1.112, -1.447e-4
-1.111, -1.467e-4
-1.110, -1.478e-4
-1.109, -1.486e-4
-1.108, -1.509e-4
-1.107, -1.536e-4
-1.106, -1.554e-4
-1.105, -1.564e-4
-1.104, -1.574e-4
-1.103, -1.595e-4
-1.102, -1.626e-4
-1.101, -1.646e-4
-1.100, -1.657e-4
-1.099, -1.669e-4
-1.098, -1.691e-4
-1.097, -1.720e-4
-1.096, -1.739e-4
-1.095, -1.751e-4
-1.094, -1.761e-4
-1.093, -1.784e-4
-1.092, -1.811e-4
-1.091, -1.832e-4
-1.090, -1.842e-4
-1.089, -1.857e-4
-1.088, -1.880e-4
-1.087, -1.907e-4
-1.086, -1.931e-4
-1.085, -1.938e-4
-1.084, -1.951e-4
-1.083, -1.973e-4
-1.082, -2.001e-4
-1.081, -2.025e-4
-1.080, -2.032e-4
-1.079, -2.045e-4
-1.078, -2.070e-4
-1.077, -2.094e-4
-1.076, -2.117e-4
-1.075, -2.131e-4
-1.074, -2.139e-4
-1.073, -2.163e-4
-1.072, -2.190e-4
-1.071, -2.213e-4
-1.070, -2.223e-4
-1.069, -2.230e-4
-1.068, -2.254e-4
-1.067, -2.282e-4
-1.066, -2.302e-4
-1.065, -2.315e-4
-1.064, -2.324e-4
-1.063, -2.347e-4
-1.062, -2.375e-4
-1.061, -2.395e-4
-1.060, -2.407e-4
-1.059, -2.417e-4
-1.058, -2.437e-4
-1.057, -2.466e-4
-1.056, -2.487e-4
-1.055, -2.499e-4
-1.054, -2.510e-4
-1.053, -2.530e-4
-1.052, -2.559e-4
-1.051, -2.577e-4
-1.050, -2.589e-4
-1.049, -2.602e-4
-1.048, -2.622e-4
-1.047, -2.651e-4
-1.046, -2.672e-4
-1.045, -2.681e-4
-1.044, -2.691e-4
-1.043, -2.715e-4
-1.042, -2.741e-4
-1.041, -2.764e-4
-1.040, -2.773e-4
-1.039, -2.782e-4
-1.038, -2.804e-4
-1.037, -2.829e-4
-1.036, -2.854e-4
-1.035, -2.869e-4
-1.034, -2.879e-4
-1.033, -2.903e-4
-1.032, -2.927e-4
-1.031, -2.950e-4
-1.030, -2.961e-4
-1.029, -2.970e-4
-1.028, -2.992e-4
-1.027, -3.019e-4
-1.026, -3.038e-4
-1.025, -3.051e-4
-1.024, -3.065e-4
-1.023, -3.087e-4
-1.022, -3.118e-4
-1.021, -3.138e-4
-1.020, -3.149e-4
-1.019, -3.157e-4
-1.018, -3.176e-4
-1.017, -3.207e-4
-1.016, -3.227e-4
-1.015, -3.239e-4
-1.014, -3.253e-4
-1.013, -3.275e-4
-1.012, -3.304e-4
-1.011, -3.326e-4
-1.010, -3.338e-4
-1.009, -3.350e-4
-1.008, -3.369e-4
-1.007, -3.398e-4
-1.006, -3.423e-4
-1.005, -3.434e-4
-1.004, -3.448e-4
-1.003, -3.470e-4
-1.002, -3.498e-4
-1.001, -3.524e-4
