Mar. 16, 2025   19:19:12
Linear Sweep Voltammetry
File: c:/users/guazh/data/banditlqround7_x0exp891_r5/2025-03-03-exp914\1acid_2ac-2025-03-16t19_15_59-lsvinphos\1acid_2ac_lsv_50mvs_efin_-2300mv.bin
Data Source:  Experiment
Instrument Model:  CHI760E
Header: LSV ran at 50 mVs with Efin at -2300mV
Note: 

Init E (V) = -0.6
Final E (V) = -2.3
Scan Rate (V/s) = 0.05
Sample Interval (V) = 0.001
Quiet Time (sec) = 2
Sensitivity (A/V) = 1e-4
Comp R (ohm) = 9.0

Results:

Channel 1:
Ep = -1.972V
ip = 9.302e-4A
Ah = 1.170e-3C

Potential/V, Current/A

-0.600, 2.869e-6
-0.601, 2.974e-6
-0.602, 3.018e-6
-0.603, 3.053e-6
-0.604, 3.089e-6
-0.605, 3.121e-6
-0.606, 3.153e-6
-0.607, 3.185e-6
-0.608, 3.216e-6
-0.609, 3.248e-6
-0.610, 3.276e-6
-0.611, 3.308e-6
-0.612, 3.339e-6
-0.613, 3.370e-6
-0.614, 3.404e-6
-0.615, 3.436e-6
-0.616, 3.466e-6
-0.617, 3.497e-6
-0.618, 3.527e-6
-0.619, 3.560e-6
-0.620, 3.589e-6
-0.621, 3.621e-6
-0.622, 3.653e-6
-0.623, 3.684e-6
-0.624, 3.718e-6
-0.625, 3.750e-6
-0.626, 3.779e-6
-0.627, 3.811e-6
-0.628, 3.844e-6
-0.629, 3.877e-6
-0.630, 3.909e-6
-0.631, 3.940e-6
-0.632, 3.971e-6
-0.633, 4.005e-6
-0.634, 4.038e-6
-0.635, 4.070e-6
-0.636, 4.101e-6
-0.637, 4.134e-6
-0.638, 4.167e-6
-0.639, 4.199e-6
-0.640, 4.230e-6
-0.641, 4.262e-6
-0.642, 4.294e-6
-0.643, 4.329e-6
-0.644, 4.363e-6
-0.645, 4.395e-6
-0.646, 4.429e-6
-0.647, 4.461e-6
-0.648, 4.495e-6
-0.649, 4.530e-6
-0.650, 4.564e-6
-0.651, 4.596e-6
-0.652, 4.629e-6
-0.653, 4.664e-6
-0.654, 4.698e-6
-0.655, 4.731e-6
-0.656, 4.763e-6
-0.657, 4.798e-6
-0.658, 4.831e-6
-0.659, 4.865e-6
-0.660, 4.898e-6
-0.661, 4.930e-6
-0.662, 4.964e-6
-0.663, 4.997e-6
-0.664, 5.033e-6
-0.665, 5.066e-6
-0.666, 5.100e-6
-0.667, 5.133e-6
-0.668, 5.165e-6
-0.669, 5.199e-6
-0.670, 5.232e-6
-0.671, 5.265e-6
-0.672, 5.298e-6
-0.673, 5.332e-6
-0.674, 5.365e-6
-0.675, 5.397e-6
-0.676, 5.428e-6
-0.677, 5.460e-6
-0.678, 5.493e-6
-0.679, 5.526e-6
-0.680, 5.559e-6
-0.681, 5.591e-6
-0.682, 5.622e-6
-0.683, 5.654e-6
-0.684, 5.686e-6
-0.685, 5.717e-6
-0.686, 5.749e-6
-0.687, 5.780e-6
-0.688, 5.812e-6
-0.689, 5.843e-6
-0.690, 5.873e-6
-0.691, 5.901e-6
-0.692, 5.930e-6
-0.693, 5.958e-6
-0.694, 5.990e-6
-0.695, 6.019e-6
-0.696, 6.048e-6
-0.697, 6.076e-6
-0.698, 6.105e-6
-0.699, 6.136e-6
-0.700, 6.162e-6
-0.701, 6.188e-6
-0.702, 6.214e-6
-0.703, 6.240e-6
-0.704, 6.269e-6
-0.705, 6.297e-6
-0.706, 6.321e-6
-0.707, 6.348e-6
-0.708, 6.374e-6
-0.709, 6.401e-6
-0.710, 6.427e-6
-0.711, 6.451e-6
-0.712, 6.475e-6
-0.713, 6.500e-6
-0.714, 6.524e-6
-0.715, 6.549e-6
-0.716, 6.572e-6
-0.717, 6.595e-6
-0.718, 6.618e-6
-0.719, 6.641e-6
-0.720, 6.663e-6
-0.721, 6.685e-6
-0.722, 6.704e-6
-0.723, 6.725e-6
-0.724, 6.747e-6
-0.725, 6.766e-6
-0.726, 6.786e-6
-0.727, 6.805e-6
-0.728, 6.825e-6
-0.729, 6.844e-6
-0.730, 6.862e-6
-0.731, 6.879e-6
-0.732, 6.895e-6
-0.733, 6.911e-6
-0.734, 6.930e-6
-0.735, 6.947e-6
-0.736, 6.961e-6
-0.737, 6.977e-6
-0.738, 6.990e-6
-0.739, 7.007e-6
-0.740, 7.021e-6
-0.741, 7.033e-6
-0.742, 7.047e-6
-0.743, 7.059e-6
-0.744, 7.074e-6
-0.745, 7.086e-6
-0.746, 7.096e-6
-0.747, 7.108e-6
-0.748, 7.119e-6
-0.749, 7.130e-6
-0.750, 7.141e-6
-0.751, 7.149e-6
-0.752, 7.158e-6
-0.753, 7.167e-6
-0.754, 7.176e-6
-0.755, 7.185e-6
-0.756, 7.192e-6
-0.757, 7.198e-6
-0.758, 7.207e-6
-0.759, 7.214e-6
-0.760, 7.219e-6
-0.761, 7.224e-6
-0.762, 7.228e-6
-0.763, 7.234e-6
-0.764, 7.240e-6
-0.765, 7.244e-6
-0.766, 7.248e-6
-0.767, 7.250e-6
-0.768, 7.255e-6
-0.769, 7.260e-6
-0.770, 7.261e-6
-0.771, 7.262e-6
-0.772, 7.264e-6
-0.773, 7.265e-6
-0.774, 7.269e-6
-0.775, 7.269e-6
-0.776, 7.268e-6
-0.777, 7.268e-6
-0.778, 7.269e-6
-0.779, 7.269e-6
-0.780, 7.269e-6
-0.781, 7.267e-6
-0.782, 7.267e-6
-0.783, 7.265e-6
-0.784, 7.264e-6
-0.785, 7.261e-6
-0.786, 7.258e-6
-0.787, 7.257e-6
-0.788, 7.254e-6
-0.789, 7.251e-6
-0.790, 7.248e-6
-0.791, 7.244e-6
-0.792, 7.240e-6
-0.793, 7.237e-6
-0.794, 7.234e-6
-0.795, 7.229e-6
-0.796, 7.225e-6
-0.797, 7.219e-6
-0.798, 7.214e-6
-0.799, 7.210e-6
-0.800, 7.204e-6
-0.801, 7.199e-6
-0.802, 7.194e-6
-0.803, 7.186e-6
-0.804, 7.181e-6
-0.805, 7.174e-6
-0.806, 7.168e-6
-0.807, 7.161e-6
-0.808, 7.153e-6
-0.809, 7.148e-6
-0.810, 7.140e-6
-0.811, 7.132e-6
-0.812, 7.126e-6
-0.813, 7.117e-6
-0.814, 7.111e-6
-0.815, 7.103e-6
-0.816, 7.094e-6
-0.817, 7.086e-6
-0.818, 7.078e-6
-0.819, 7.072e-6
-0.820, 7.067e-6
-0.821, 7.056e-6
-0.822, 7.048e-6
-0.823, 7.037e-6
-0.824, 7.030e-6
-0.825, 7.022e-6
-0.826, 7.012e-6
-0.827, 7.003e-6
-0.828, 6.994e-6
-0.829, 6.986e-6
-0.830, 6.977e-6
-0.831, 6.966e-6
-0.832, 6.957e-6
-0.833, 6.949e-6
-0.834, 6.941e-6
-0.835, 6.930e-6
-0.836, 6.921e-6
-0.837, 6.911e-6
-0.838, 6.902e-6
-0.839, 6.894e-6
-0.840, 6.885e-6
-0.841, 6.875e-6
-0.842, 6.865e-6
-0.843, 6.855e-6
-0.844, 6.847e-6
-0.845, 6.838e-6
-0.846, 6.828e-6
-0.847, 6.818e-6
-0.848, 6.807e-6
-0.849, 6.800e-6
-0.850, 6.789e-6
-0.851, 6.779e-6
-0.852, 6.768e-6
-0.853, 6.758e-6
-0.854, 6.751e-6
-0.855, 6.740e-6
-0.856, 6.730e-6
-0.857, 6.721e-6
-0.858, 6.711e-6
-0.859, 6.703e-6
-0.860, 6.692e-6
-0.861, 6.682e-6
-0.862, 6.673e-6
-0.863, 6.663e-6
-0.864, 6.656e-6
-0.865, 6.647e-6
-0.866, 6.635e-6
-0.867, 6.625e-6
-0.868, 6.616e-6
-0.869, 6.608e-6
-0.870, 6.599e-6
-0.871, 6.590e-6
-0.872, 6.580e-6
-0.873, 6.572e-6
-0.874, 6.561e-6
-0.875, 6.552e-6
-0.876, 6.544e-6
-0.877, 6.533e-6
-0.878, 6.525e-6
-0.879, 6.516e-6
-0.880, 6.507e-6
-0.881, 6.497e-6
-0.882, 6.487e-6
-0.883, 6.479e-6
-0.884, 6.473e-6
-0.885, 6.463e-6
-0.886, 6.454e-6
-0.887, 6.445e-6
-0.888, 6.436e-6
-0.889, 6.430e-6
-0.890, 6.420e-6
-0.891, 6.411e-6
-0.892, 6.403e-6
-0.893, 6.394e-6
-0.894, 6.387e-6
-0.895, 6.378e-6
-0.896, 6.369e-6
-0.897, 6.362e-6
-0.898, 6.353e-6
-0.899, 6.347e-6
-0.900, 6.339e-6
-0.901, 6.329e-6
-0.902, 6.321e-6
-0.903, 6.312e-6
-0.904, 6.305e-6
-0.905, 6.297e-6
-0.906, 6.289e-6
-0.907, 6.281e-6
-0.908, 6.273e-6
-0.909, 6.267e-6
-0.910, 6.259e-6
-0.911, 6.251e-6
-0.912, 6.243e-6
-0.913, 6.236e-6
-0.914, 6.230e-6
-0.915, 6.224e-6
-0.916, 6.215e-6
-0.917, 6.207e-6
-0.918, 6.202e-6
-0.919, 6.196e-6
-0.920, 6.188e-6
-0.921, 6.182e-6
-0.922, 6.176e-6
-0.923, 6.169e-6
-0.924, 6.163e-6
-0.925, 6.156e-6
-0.926, 6.150e-6
-0.927, 6.142e-6
-0.928, 6.136e-6
-0.929, 6.131e-6
-0.930, 6.124e-6
-0.931, 6.117e-6
-0.932, 6.111e-6
-0.933, 6.103e-6
-0.934, 6.099e-6
-0.935, 6.092e-6
-0.936, 6.085e-6
-0.937, 6.078e-6
-0.938, 6.072e-6
-0.939, 6.067e-6
-0.940, 6.061e-6
-0.941, 6.052e-6
-0.942, 6.047e-6
-0.943, 6.040e-6
-0.944, 6.035e-6
-0.945, 6.030e-6
-0.946, 6.024e-6
-0.947, 6.019e-6
-0.948, 6.013e-6
-0.949, 6.007e-6
-0.950, 6.001e-6
-0.951, 5.995e-6
-0.952, 5.988e-6
-0.953, 5.983e-6
-0.954, 5.979e-6
-0.955, 5.974e-6
-0.956, 5.966e-6
-0.957, 5.961e-6
-0.958, 5.956e-6
-0.959, 5.951e-6
-0.960, 5.946e-6
-0.961, 5.941e-6
-0.962, 5.937e-6
-0.963, 5.931e-6
-0.964, 5.927e-6
-0.965, 5.922e-6
-0.966, 5.918e-6
-0.967, 5.913e-6
-0.968, 5.908e-6
-0.969, 5.904e-6
-0.970, 5.899e-6
-0.971, 5.893e-6
-0.972, 5.889e-6
-0.973, 5.886e-6
-0.974, 5.883e-6
-0.975, 5.877e-6
-0.976, 5.871e-6
-0.977, 5.868e-6
-0.978, 5.862e-6
-0.979, 5.859e-6
-0.980, 5.854e-6
-0.981, 5.849e-6
-0.982, 5.846e-6
-0.983, 5.841e-6
-0.984, 5.836e-6
-0.985, 5.833e-6
-0.986, 5.827e-6
-0.987, 5.822e-6
-0.988, 5.818e-6
-0.989, 5.814e-6
-0.990, 5.811e-6
-0.991, 5.805e-6
-0.992, 5.801e-6
-0.993, 5.796e-6
-0.994, 5.792e-6
-0.995, 5.789e-6
-0.996, 5.784e-6
-0.997, 5.779e-6
-0.998, 5.777e-6
-0.999, 5.773e-6
-1.000, 5.770e-6
-1.001, 5.765e-6
-1.002, 5.760e-6
-1.003, 5.757e-6
-1.004, 5.753e-6
-1.005, 5.749e-6
-1.006, 5.745e-6
-1.007, 5.741e-6
-1.008, 5.736e-6
-1.009, 5.734e-6
-1.010, 5.729e-6
-1.011, 5.726e-6
-1.012, 5.721e-6
-1.013, 5.717e-6
-1.014, 5.715e-6
-1.015, 5.712e-6
-1.016, 5.707e-6
-1.017, 5.704e-6
-1.018, 5.699e-6
-1.019, 5.697e-6
-1.020, 5.694e-6
-1.021, 5.689e-6
-1.022, 5.685e-6
-1.023, 5.681e-6
-1.024, 5.682e-6
-1.025, 5.677e-6
-1.026, 5.672e-6
-1.027, 5.669e-6
-1.028, 5.667e-6
-1.029, 5.664e-6
-1.030, 5.662e-6
-1.031, 5.656e-6
-1.032, 5.654e-6
-1.033, 5.650e-6
-1.034, 5.649e-6
-1.035, 5.647e-6
-1.036, 5.642e-6
-1.037, 5.640e-6
-1.038, 5.637e-6
-1.039, 5.635e-6
-1.040, 5.631e-6
-1.041, 5.628e-6
-1.042, 5.624e-6
-1.043, 5.621e-6
-1.044, 5.619e-6
-1.045, 5.616e-6
-1.046, 5.614e-6
-1.047, 5.608e-6
-1.048, 5.605e-6
-1.049, 5.603e-6
-1.050, 5.603e-6
-1.051, 5.599e-6
-1.052, 5.595e-6
-1.053, 5.592e-6
-1.054, 5.592e-6
-1.055, 5.589e-6
-1.056, 5.585e-6
-1.057, 5.583e-6
-1.058, 5.579e-6
-1.059, 5.577e-6
-1.060, 5.576e-6
-1.061, 5.572e-6
-1.062, 5.570e-6
-1.063, 5.567e-6
-1.064, 5.565e-6
-1.065, 5.564e-6
-1.066, 5.560e-6
-1.067, 5.559e-6
-1.068, 5.555e-6
-1.069, 5.554e-6
-1.070, 5.552e-6
-1.071, 5.548e-6
-1.072, 5.545e-6
-1.073, 5.542e-6
-1.074, 5.541e-6
-1.075, 5.541e-6
-1.076, 5.539e-6
-1.077, 5.535e-6
-1.078, 5.533e-6
-1.079, 5.531e-6
-1.080, 5.528e-6
-1.081, 5.526e-6
-1.082, 5.524e-6
-1.083, 5.521e-6
-1.084, 5.521e-6
-1.085, 5.519e-6
-1.086, 5.516e-6
-1.087, 5.514e-6
-1.088, 5.512e-6
-1.089, 5.511e-6
-1.090, 5.509e-6
-1.091, 5.507e-6
-1.092, 5.505e-6
-1.093, 5.502e-6
-1.094, 5.502e-6
-1.095, 5.500e-6
-1.096, 5.496e-6
-1.097, 5.495e-6
-1.098, 5.492e-6
-1.099, 5.491e-6
-1.100, 5.491e-6
-1.101, 5.488e-6
-1.102, 5.486e-6
-1.103, 5.485e-6
-1.104, 5.485e-6
-1.105, 5.482e-6
-1.106, 5.479e-6
-1.107, 5.478e-6
-1.108, 5.477e-6
-1.109, 5.476e-6
-1.110, 5.474e-6
-1.111, 5.472e-6
-1.112, 5.470e-6
-1.113, 5.468e-6
-1.114, 5.469e-6
-1.115, 5.468e-6
-1.116, 5.465e-6
-1.117, 5.463e-6
-1.118, 5.462e-6
-1.119, 5.462e-6
-1.120, 5.462e-6
-1.121, 5.459e-6
-1.122, 5.457e-6
-1.123, 5.456e-6
-1.124, 5.455e-6
-1.125, 5.454e-6
-1.126, 5.453e-6
-1.127, 5.452e-6
-1.128, 5.450e-6
-1.129, 5.451e-6
-1.130, 5.450e-6
-1.131, 5.448e-6
-1.132, 5.447e-6
-1.133, 5.445e-6
-1.134, 5.444e-6
-1.135, 5.444e-6
-1.136, 5.442e-6
-1.137, 5.441e-6
-1.138, 5.439e-6
-1.139, 5.440e-6
-1.140, 5.440e-6
-1.141, 5.438e-6
-1.142, 5.438e-6
-1.143, 5.436e-6
-1.144, 5.436e-6
-1.145, 5.435e-6
-1.146, 5.434e-6
-1.147, 5.434e-6
-1.148, 5.432e-6
-1.149, 5.432e-6
-1.150, 5.432e-6
-1.151, 5.430e-6
-1.152, 5.430e-6
-1.153, 5.429e-6
-1.154, 5.428e-6
-1.155, 5.430e-6
-1.156, 5.428e-6
-1.157, 5.427e-6
-1.158, 5.427e-6
-1.159, 5.427e-6
-1.160, 5.427e-6
-1.161, 5.425e-6
-1.162, 5.425e-6
-1.163, 5.424e-6
-1.164, 5.424e-6
-1.165, 5.425e-6
-1.166, 5.424e-6
-1.167, 5.424e-6
-1.168, 5.422e-6
-1.169, 5.423e-6
-1.170, 5.423e-6
-1.171, 5.422e-6
-1.172, 5.421e-6
-1.173, 5.420e-6
-1.174, 5.422e-6
-1.175, 5.421e-6
-1.176, 5.420e-6
-1.177, 5.421e-6
-1.178, 5.421e-6
-1.179, 5.422e-6
-1.180, 5.421e-6
-1.181, 5.419e-6
-1.182, 5.421e-6
-1.183, 5.418e-6
-1.184, 5.420e-6
-1.185, 5.420e-6
-1.186, 5.418e-6
-1.187, 5.419e-6
-1.188, 5.418e-6
-1.189, 5.419e-6
-1.190, 5.419e-6
-1.191, 5.419e-6
-1.192, 5.419e-6
-1.193, 5.419e-6
-1.194, 5.420e-6
-1.195, 5.420e-6
-1.196, 5.419e-6
-1.197, 5.419e-6
-1.198, 5.419e-6
-1.199, 5.419e-6
-1.200, 5.421e-6
-1.201, 5.420e-6
-1.202, 5.419e-6
-1.203, 5.421e-6
-1.204, 5.421e-6
-1.205, 5.421e-6
-1.206, 5.421e-6
-1.207, 5.421e-6
-1.208, 5.421e-6
-1.209, 5.422e-6
-1.210, 5.421e-6
-1.211, 5.421e-6
-1.212, 5.423e-6
-1.213, 5.422e-6
-1.214, 5.423e-6
-1.215, 5.424e-6
-1.216, 5.425e-6
-1.217, 5.424e-6
-1.218, 5.423e-6
-1.219, 5.425e-6
-1.220, 5.425e-6
-1.221, 5.425e-6
-1.222, 5.427e-6
-1.223, 5.427e-6
-1.224, 5.427e-6
-1.225, 5.428e-6
-1.226, 5.428e-6
-1.227, 5.428e-6
-1.228, 5.428e-6
-1.229, 5.434e-6
-1.230, 5.434e-6
-1.231, 5.433e-6
-1.232, 5.433e-6
-1.233, 5.433e-6
-1.234, 5.434e-6
-1.235, 5.435e-6
-1.236, 5.435e-6
-1.237, 5.435e-6
-1.238, 5.435e-6
-1.239, 5.436e-6
-1.240, 5.438e-6
-1.241, 5.438e-6
-1.242, 5.440e-6
-1.243, 5.439e-6
-1.244, 5.440e-6
-1.245, 5.442e-6
-1.246, 5.442e-6
-1.247, 5.442e-6
-1.248, 5.442e-6
-1.249, 5.445e-6
-1.250, 5.444e-6
-1.251, 5.445e-6
-1.252, 5.446e-6
-1.253, 5.446e-6
-1.254, 5.448e-6
-1.255, 5.450e-6
-1.256, 5.450e-6
-1.257, 5.450e-6
-1.258, 5.449e-6
-1.259, 5.453e-6
-1.260, 5.455e-6
-1.261, 5.454e-6
-1.262, 5.455e-6
-1.263, 5.455e-6
-1.264, 5.457e-6
-1.265, 5.458e-6
-1.266, 5.458e-6
-1.267, 5.460e-6
-1.268, 5.460e-6
-1.269, 5.462e-6
-1.270, 5.465e-6
-1.271, 5.465e-6
-1.272, 5.465e-6
-1.273, 5.465e-6
-1.274, 5.466e-6
-1.275, 5.469e-6
-1.276, 5.469e-6
-1.277, 5.470e-6
-1.278, 5.471e-6
-1.279, 5.472e-6
-1.280, 5.477e-6
-1.281, 5.477e-6
-1.282, 5.477e-6
-1.283, 5.478e-6
-1.284, 5.480e-6
-1.285, 5.481e-6
-1.286, 5.482e-6
-1.287, 5.482e-6
-1.288, 5.483e-6
-1.289, 5.486e-6
-1.290, 5.487e-6
-1.291, 5.488e-6
-1.292, 5.488e-6
-1.293, 5.489e-6
-1.294, 5.492e-6
-1.295, 5.493e-6
-1.296, 5.494e-6
-1.297, 5.495e-6
-1.298, 5.496e-6
-1.299, 5.500e-6
-1.300, 5.500e-6
-1.301, 5.501e-6
-1.302, 5.503e-6
-1.303, 5.504e-6
-1.304, 5.505e-6
-1.305, 5.508e-6
-1.306, 5.509e-6
-1.307, 5.511e-6
-1.308, 5.511e-6
-1.309, 5.513e-6
-1.310, 5.517e-6
-1.311, 5.518e-6
-1.312, 5.519e-6
-1.313, 5.520e-6
-1.314, 5.522e-6
-1.315, 5.525e-6
-1.316, 5.526e-6
-1.317, 5.527e-6
-1.318, 5.527e-6
-1.319, 5.531e-6
-1.320, 5.534e-6
-1.321, 5.534e-6
-1.322, 5.535e-6
-1.323, 5.536e-6
-1.324, 5.539e-6
-1.325, 5.543e-6
-1.326, 5.544e-6
-1.327, 5.544e-6
-1.328, 5.545e-6
-1.329, 5.549e-6
-1.330, 5.552e-6
-1.331, 5.551e-6
-1.332, 5.554e-6
-1.333, 5.555e-6
-1.334, 5.558e-6
-1.335, 5.560e-6
-1.336, 5.563e-6
-1.337, 5.565e-6
-1.338, 5.566e-6
-1.339, 5.568e-6
-1.340, 5.571e-6
-1.341, 5.570e-6
-1.342, 5.574e-6
-1.343, 5.576e-6
-1.344, 5.578e-6
-1.345, 5.583e-6
-1.346, 5.583e-6
-1.347, 5.585e-6
-1.348, 5.586e-6
-1.349, 5.588e-6
-1.350, 5.593e-6
-1.351, 5.595e-6
-1.352, 5.597e-6
-1.353, 5.599e-6
-1.354, 5.600e-6
-1.355, 5.604e-6
-1.356, 5.606e-6
-1.357, 5.608e-6
-1.358, 5.612e-6
-1.359, 5.612e-6
-1.360, 5.617e-6
-1.361, 5.619e-6
-1.362, 5.621e-6
-1.363, 5.622e-6
-1.364, 5.626e-6
-1.365, 5.629e-6
-1.366, 5.632e-6
-1.367, 5.633e-6
-1.368, 5.635e-6
-1.369, 5.639e-6
-1.370, 5.643e-6
-1.371, 5.645e-6
-1.372, 5.646e-6
-1.373, 5.649e-6
-1.374, 5.652e-6
-1.375, 5.655e-6
-1.376, 5.658e-6
-1.377, 5.661e-6
-1.378, 5.662e-6
-1.379, 5.665e-6
-1.380, 5.669e-6
-1.381, 5.671e-6
-1.382, 5.674e-6
-1.383, 5.678e-6
-1.384, 5.681e-6
-1.385, 5.686e-6
-1.386, 5.687e-6
-1.387, 5.690e-6
-1.388, 5.691e-6
-1.389, 5.696e-6
-1.390, 5.700e-6
-1.391, 5.702e-6
-1.392, 5.704e-6
-1.393, 5.708e-6
-1.394, 5.712e-6
-1.395, 5.717e-6
-1.396, 5.720e-6
-1.397, 5.723e-6
-1.398, 5.726e-6
-1.399, 5.729e-6
-1.400, 5.734e-6
-1.401, 5.736e-6
-1.402, 5.740e-6
-1.403, 5.743e-6
-1.404, 5.747e-6
-1.405, 5.751e-6
-1.406, 5.756e-6
-1.407, 5.758e-6
-1.408, 5.762e-6
-1.409, 5.766e-6
-1.410, 5.770e-6
-1.411, 5.774e-6
-1.412, 5.778e-6
-1.413, 5.781e-6
-1.414, 5.785e-6
-1.415, 5.792e-6
-1.416, 5.795e-6
-1.417, 5.798e-6
-1.418, 5.801e-6
-1.419, 5.806e-6
-1.420, 5.812e-6
-1.421, 5.816e-6
-1.422, 5.820e-6
-1.423, 5.823e-6
-1.424, 5.828e-6
-1.425, 5.834e-6
-1.426, 5.837e-6
-1.427, 5.841e-6
-1.428, 5.846e-6
-1.429, 5.851e-6
-1.430, 5.857e-6
-1.431, 5.860e-6
-1.432, 5.865e-6
-1.433, 5.870e-6
-1.434, 5.874e-6
-1.435, 5.880e-6
-1.436, 5.884e-6
-1.437, 5.889e-6
-1.438, 5.893e-6
-1.439, 5.896e-6
-1.440, 5.903e-6
-1.441, 5.908e-6
-1.442, 5.911e-6
-1.443, 5.916e-6
-1.444, 5.920e-6
-1.445, 5.926e-6
-1.446, 5.931e-6
-1.447, 5.936e-6
-1.448, 5.941e-6
-1.449, 5.947e-6
-1.450, 5.953e-6
-1.451, 5.959e-6
-1.452, 5.963e-6
-1.453, 5.968e-6
-1.454, 5.975e-6
-1.455, 5.981e-6
-1.456, 5.988e-6
-1.457, 5.993e-6
-1.458, 5.998e-6
-1.459, 6.005e-6
-1.460, 6.014e-6
-1.461, 6.019e-6
-1.462, 6.026e-6
-1.463, 6.031e-6
-1.464, 6.037e-6
-1.465, 6.045e-6
-1.466, 6.051e-6
-1.467, 6.058e-6
-1.468, 6.064e-6
-1.469, 6.071e-6
-1.470, 6.080e-6
-1.471, 6.085e-6
-1.472, 6.093e-6
-1.473, 6.101e-6
-1.474, 6.106e-6
-1.475, 6.115e-6
-1.476, 6.122e-6
-1.477, 6.129e-6
-1.478, 6.137e-6
-1.479, 6.143e-6
-1.480, 6.151e-6
-1.481, 6.160e-6
-1.482, 6.166e-6
-1.483, 6.174e-6
-1.484, 6.182e-6
-1.485, 6.194e-6
-1.486, 6.200e-6
-1.487, 6.205e-6
-1.488, 6.213e-6
-1.489, 6.221e-6
-1.490, 6.232e-6
-1.491, 6.239e-6
-1.492, 6.247e-6
-1.493, 6.255e-6
-1.494, 6.265e-6
-1.495, 6.275e-6
-1.496, 6.283e-6
-1.497, 6.294e-6
-1.498, 6.302e-6
-1.499, 6.310e-6
-1.500, 6.322e-6
-1.501, 6.333e-6
-1.502, 6.342e-6
-1.503, 6.349e-6
-1.504, 6.362e-6
-1.505, 6.372e-6
-1.506, 6.383e-6
-1.507, 6.393e-6
-1.508, 6.403e-6
-1.509, 6.413e-6
-1.510, 6.426e-6
-1.511, 6.436e-6
-1.512, 6.447e-6
-1.513, 6.459e-6
-1.514, 6.466e-6
-1.515, 6.482e-6
-1.516, 6.492e-6
-1.517, 6.504e-6
-1.518, 6.516e-6
-1.519, 6.527e-6
-1.520, 6.540e-6
-1.521, 6.554e-6
-1.522, 6.563e-6
-1.523, 6.577e-6
-1.524, 6.591e-6
-1.525, 6.604e-6
-1.526, 6.618e-6
-1.527, 6.629e-6
-1.528, 6.642e-6
-1.529, 6.658e-6
-1.530, 6.671e-6
-1.531, 6.685e-6
-1.532, 6.697e-6
-1.533, 6.711e-6
-1.534, 6.726e-6
-1.535, 6.741e-6
-1.536, 6.755e-6
-1.537, 6.770e-6
-1.538, 6.784e-6
-1.539, 6.800e-6
-1.540, 6.816e-6
-1.541, 6.831e-6
-1.542, 6.846e-6
-1.543, 6.860e-6
-1.544, 6.876e-6
-1.545, 6.893e-6
-1.546, 6.908e-6
-1.547, 6.924e-6
-1.548, 6.940e-6
-1.549, 6.958e-6
-1.550, 6.977e-6
-1.551, 6.993e-6
-1.552, 7.008e-6
-1.553, 7.027e-6
-1.554, 7.042e-6
-1.555, 7.062e-6
-1.556, 7.081e-6
-1.557, 7.099e-6
-1.558, 7.120e-6
-1.559, 7.135e-6
-1.560, 7.156e-6
-1.561, 7.177e-6
-1.562, 7.194e-6
-1.563, 7.213e-6
-1.564, 7.232e-6
-1.565, 7.253e-6
-1.566, 7.275e-6
-1.567, 7.292e-6
-1.568, 7.312e-6
-1.569, 7.335e-6
-1.570, 7.355e-6
-1.571, 7.377e-6
-1.572, 7.397e-6
-1.573, 7.418e-6
-1.574, 7.441e-6
-1.575, 7.465e-6
-1.576, 7.488e-6
-1.577, 7.510e-6
-1.578, 7.531e-6
-1.579, 7.556e-6
-1.580, 7.579e-6
-1.581, 7.603e-6
-1.582, 7.627e-6
-1.583, 7.651e-6
-1.584, 7.676e-6
-1.585, 7.703e-6
-1.586, 7.728e-6
-1.587, 7.755e-6
-1.588, 7.781e-6
-1.589, 7.804e-6
-1.590, 7.832e-6
-1.591, 7.858e-6
-1.592, 7.884e-6
-1.593, 7.912e-6
-1.594, 7.940e-6
-1.595, 7.970e-6
-1.596, 7.997e-6
-1.597, 8.024e-6
-1.598, 8.053e-6
-1.599, 8.080e-6
-1.600, 8.112e-6
-1.601, 8.144e-6
-1.602, 8.171e-6
-1.603, 8.201e-6
-1.604, 8.233e-6
-1.605, 8.268e-6
-1.606, 8.301e-6
-1.607, 8.331e-6
-1.608, 8.362e-6
-1.609, 8.394e-6
-1.610, 8.428e-6
-1.611, 8.464e-6
-1.612, 8.497e-6
-1.613, 8.530e-6
-1.614, 8.565e-6
-1.615, 8.599e-6
-1.616, 8.633e-6
-1.617, 8.669e-6
-1.618, 8.703e-6
-1.619, 8.741e-6
-1.620, 8.779e-6
-1.621, 8.816e-6
-1.622, 8.852e-6
-1.623, 8.888e-6
-1.624, 8.925e-6
-1.625, 8.968e-6
-1.626, 9.007e-6
-1.627, 9.048e-6
-1.628, 9.088e-6
-1.629, 9.128e-6
-1.630, 9.172e-6
-1.631, 9.215e-6
-1.632, 9.258e-6
-1.633, 9.301e-6
-1.634, 9.344e-6
-1.635, 9.387e-6
-1.636, 9.432e-6
-1.637, 9.475e-6
-1.638, 9.524e-6
-1.639, 9.578e-6
-1.640, 9.619e-6
-1.641, 9.666e-6
-1.642, 9.712e-6
-1.643, 9.763e-6
-1.644, 9.811e-6
-1.645, 9.861e-6
-1.646, 9.914e-6
-1.647, 9.962e-6
-1.648, 1.001e-5
-1.649, 1.006e-5
-1.650, 1.012e-5
-1.651, 1.017e-5
-1.652, 1.022e-5
-1.653, 1.028e-5
-1.654, 1.033e-5
-1.655, 1.039e-5
-1.656, 1.045e-5
-1.657, 1.051e-5
-1.658, 1.056e-5
-1.659, 1.062e-5
-1.660, 1.069e-5
-1.661, 1.074e-5
-1.662, 1.081e-5
-1.663, 1.087e-5
-1.664, 1.093e-5
-1.665, 1.100e-5
-1.666, 1.106e-5
-1.667, 1.113e-5
-1.668, 1.120e-5
-1.669, 1.126e-5
-1.670, 1.134e-5
-1.671, 1.141e-5
-1.672, 1.148e-5
-1.673, 1.155e-5
-1.674, 1.162e-5
-1.675, 1.170e-5
-1.676, 1.177e-5
-1.677, 1.185e-5
-1.678, 1.192e-5
-1.679, 1.200e-5
-1.680, 1.207e-5
-1.681, 1.215e-5
-1.682, 1.223e-5
-1.683, 1.231e-5
-1.684, 1.240e-5
-1.685, 1.248e-5
-1.686, 1.257e-5
-1.687, 1.265e-5
-1.688, 1.274e-5
-1.689, 1.284e-5
-1.690, 1.294e-5
-1.691, 1.303e-5
-1.692, 1.313e-5
-1.693, 1.322e-5
-1.694, 1.332e-5
-1.695, 1.343e-5
-1.696, 1.353e-5
-1.697, 1.363e-5
-1.698, 1.373e-5
-1.699, 1.384e-5
-1.700, 1.395e-5
-1.701, 1.406e-5
-1.702, 1.417e-5
-1.703, 1.428e-5
-1.704, 1.440e-5
-1.705, 1.452e-5
-1.706, 1.464e-5
-1.707, 1.476e-5
-1.708, 1.489e-5
-1.709, 1.502e-5
-1.710, 1.515e-5
-1.711, 1.529e-5
-1.712, 1.542e-5
-1.713, 1.556e-5
-1.714, 1.570e-5
-1.715, 1.585e-5
-1.716, 1.600e-5
-1.717, 1.615e-5
-1.718, 1.630e-5
-1.719, 1.645e-5
-1.720, 1.661e-5
-1.721, 1.678e-5
-1.722, 1.693e-5
-1.723, 1.710e-5
-1.724, 1.727e-5
-1.725, 1.746e-5
-1.726, 1.764e-5
-1.727, 1.782e-5
-1.728, 1.800e-5
-1.729, 1.819e-5
-1.730, 1.838e-5
-1.731, 1.859e-5
-1.732, 1.879e-5
-1.733, 1.900e-5
-1.734, 1.921e-5
-1.735, 1.943e-5
-1.736, 1.965e-5
-1.737, 1.988e-5
-1.738, 2.011e-5
-1.739, 2.035e-5
-1.740, 2.059e-5
-1.741, 2.084e-5
-1.742, 2.110e-5
-1.743, 2.136e-5
-1.744, 2.162e-5
-1.745, 2.190e-5
-1.746, 2.218e-5
-1.747, 2.247e-5
-1.748, 2.276e-5
-1.749, 2.306e-5
-1.750, 2.337e-5
-1.751, 2.368e-5
-1.752, 2.401e-5
-1.753, 2.435e-5
-1.754, 2.468e-5
-1.755, 2.504e-5
-1.756, 2.540e-5
-1.757, 2.576e-5
-1.758, 2.613e-5
-1.759, 2.652e-5
-1.760, 2.692e-5
-1.761, 2.733e-5
-1.762, 2.774e-5
-1.763, 2.815e-5
-1.764, 2.859e-5
-1.765, 2.904e-5
-1.766, 2.951e-5
-1.767, 2.997e-5
-1.768, 3.046e-5
-1.769, 3.096e-5
-1.770, 3.147e-5
-1.771, 3.200e-5
-1.772, 3.253e-5
-1.773, 3.308e-5
-1.774, 3.365e-5
-1.775, 3.422e-5
-1.776, 3.483e-5
-1.777, 3.544e-5
-1.778, 3.606e-5
-1.779, 3.670e-5
-1.780, 3.737e-5
-1.781, 3.805e-5
-1.782, 3.874e-5
-1.783, 3.945e-5
-1.784, 4.019e-5
-1.785, 4.095e-5
-1.786, 4.172e-5
-1.787, 4.251e-5
-1.788, 4.332e-5
-1.789, 4.414e-5
-1.790, 4.500e-5
-1.791, 4.588e-5
-1.792, 4.678e-5
-1.793, 4.772e-5
-1.794, 4.867e-5
-1.795, 4.965e-5
-1.796, 5.065e-5
-1.797, 5.167e-5
-1.798, 5.272e-5
-1.799, 5.380e-5
-1.800, 5.491e-5
-1.801, 5.607e-5
-1.802, 5.724e-5
-1.803, 5.844e-5
-1.804, 5.965e-5
-1.805, 6.090e-5
-1.806, 6.219e-5
-1.807, 6.351e-5
-1.808, 6.486e-5
-1.809, 6.625e-5
-1.810, 6.768e-5
-1.811, 6.913e-5
-1.812, 7.062e-5
-1.813, 7.216e-5
-1.814, 7.372e-5
-1.815, 7.531e-5
-1.816, 7.696e-5
-1.817, 7.864e-5
-1.818, 8.036e-5
-1.819, 8.212e-5
-1.820, 8.391e-5
-1.821, 8.577e-5
-1.822, 8.766e-5
-1.823, 8.957e-5
-1.824, 9.153e-5
-1.825, 9.354e-5
-1.826, 9.562e-5
-1.827, 9.773e-5
-1.828, 9.987e-5
-1.829, 1.021e-4
-1.830, 1.043e-4
-1.831, 1.066e-4
-1.832, 1.089e-4
-1.833, 1.113e-4
-1.834, 1.137e-4
-1.835, 1.162e-4
-1.836, 1.188e-4
-1.837, 1.214e-4
-1.838, 1.240e-4
-1.839, 1.267e-4
-1.840, 1.294e-4
-1.841, 1.322e-4
-1.842, 1.351e-4
-1.843, 1.380e-4
-1.844, 1.410e-4
-1.845, 1.440e-4
-1.846, 1.471e-4
-1.847, 1.502e-4
-1.848, 1.534e-4
-1.849, 1.567e-4
-1.850, 1.600e-4
-1.851, 1.633e-4
-1.852, 1.668e-4
-1.853, 1.703e-4
-1.854, 1.738e-4
-1.855, 1.774e-4
-1.856, 1.810e-4
-1.857, 1.847e-4
-1.858, 1.884e-4
-1.859, 1.922e-4
-1.860, 1.961e-4
-1.861, 2.000e-4
-1.862, 2.039e-4
-1.863, 2.079e-4
-1.864, 2.120e-4
-1.865, 2.161e-4
-1.866, 2.202e-4
-1.867, 2.245e-4
-1.868, 2.287e-4
-1.869, 2.330e-4
-1.870, 2.374e-4
-1.871, 2.418e-4
-1.872, 2.463e-4
-1.873, 2.508e-4
-1.874, 2.554e-4
-1.875, 2.601e-4
-1.876, 2.648e-4
-1.877, 2.696e-4
-1.878, 2.744e-4
-1.879, 2.794e-4
-1.880, 2.843e-4
-1.881, 2.894e-4
-1.882, 2.945e-4
-1.883, 2.997e-4
-1.884, 3.049e-4
-1.885, 3.103e-4
-1.886, 3.157e-4
-1.887, 3.212e-4
-1.888, 3.267e-4
-1.889, 3.323e-4
-1.890, 3.380e-4
-1.891, 3.438e-4
-1.892, 3.496e-4
-1.893, 3.555e-4
-1.894, 3.614e-4
-1.895, 3.674e-4
-1.896, 3.736e-4
-1.897, 3.799e-4
-1.898, 3.862e-4
-1.899, 3.926e-4
-1.900, 3.991e-4
-1.901, 4.056e-4
-1.902, 4.122e-4
-1.903, 4.188e-4
-1.904, 4.256e-4
-1.905, 4.324e-4
-1.906, 4.393e-4
-1.907, 4.462e-4
-1.908, 4.533e-4
-1.909, 4.605e-4
-1.910, 4.677e-4
-1.911, 4.749e-4
-1.912, 4.823e-4
-1.913, 4.896e-4
-1.914, 4.971e-4
-1.915, 5.047e-4
-1.916, 5.122e-4
-1.917, 5.199e-4
-1.918, 5.276e-4
-1.919, 5.354e-4
-1.920, 5.432e-4
-1.921, 5.511e-4
-1.922, 5.591e-4
-1.923, 5.672e-4
-1.924, 5.752e-4
-1.925, 5.834e-4
-1.926, 5.916e-4
-1.927, 6.000e-4
-1.928, 6.083e-4
-1.929, 6.166e-4
-1.930, 6.251e-4
-1.931, 6.336e-4
-1.932, 6.422e-4
-1.933, 6.508e-4
-1.934, 6.595e-4
-1.935, 6.682e-4
-1.936, 6.770e-4
-1.937, 6.856e-4
-1.938, 6.942e-4
-1.939, 7.030e-4
-1.940, 7.119e-4
-1.941, 7.208e-4
-1.942, 7.299e-4
-1.943, 7.389e-4
-1.944, 7.481e-4
-1.945, 7.573e-4
-1.946, 7.665e-4
-1.947, 7.758e-4
-1.948, 7.851e-4
-1.949, 7.945e-4
-1.950, 8.038e-4
-1.951, 8.132e-4
-1.952, 8.227e-4
-1.953, 8.323e-4
-1.954, 8.419e-4
-1.955, 8.515e-4
-1.956, 8.612e-4
-1.957, 8.709e-4
-1.958, 8.807e-4
-1.959, 8.905e-4
-1.960, 9.003e-4
-1.961, 9.101e-4
-1.962, 9.200e-4
-1.963, 9.299e-4
-1.964, 9.400e-4
-1.965, 9.500e-4
-1.966, 9.600e-4
-1.967, 9.701e-4
-1.968, 9.803e-4
-1.969, 9.904e-4
-1.970, 1.001e-3
-1.971, 1.010e-3
-1.972, 1.011e-3
-1.973, 1.011e-3
-1.974, 1.011e-3
-1.975, 1.011e-3
-1.976, 1.011e-3
-1.977, 1.011e-3
-1.978, 1.011e-3
-1.979, 1.011e-3
-1.980, 1.011e-3
-1.981, 1.011e-3
-1.982, 1.011e-3
-1.983, 1.011e-3
-1.984, 1.011e-3
-1.985, 1.011e-3
-1.986, 1.011e-3
-1.987, 1.011e-3
-1.988, 1.011e-3
-1.989, 1.011e-3
-1.990, 1.011e-3
-1.991, 1.011e-3
-1.992, 1.011e-3
-1.993, 1.011e-3
-1.994, 1.011e-3
-1.995, 1.011e-3
-1.996, 1.011e-3
-1.997, 1.011e-3
-1.998, 1.011e-3
-1.999, 1.011e-3
-2.000, 1.011e-3
-2.001, 1.011e-3
-2.002, 1.011e-3
-2.003, 1.011e-3
-2.004, 1.011e-3
-2.005, 1.011e-3
-2.006, 1.011e-3
-2.007, 1.011e-3
-2.008, 1.011e-3
-2.009, 1.011e-3
-2.010, 1.011e-3
-2.011, 1.011e-3
-2.012, 1.011e-3
-2.013, 1.011e-3
-2.014, 1.011e-3
-2.015, 1.011e-3
-2.016, 1.011e-3
-2.017, 1.011e-3
-2.018, 1.011e-3
-2.019, 1.011e-3
-2.020, 1.011e-3
-2.021, 1.011e-3
-2.022, 1.011e-3
-2.023, 1.011e-3
-2.024, 1.011e-3
-2.025, 1.011e-3
-2.026, 1.011e-3
-2.027, 1.011e-3
-2.028, 1.011e-3
-2.029, 1.011e-3
-2.030, 1.011e-3
-2.031, 1.011e-3
-2.032, 1.011e-3
-2.033, 1.011e-3
-2.034, 1.011e-3
-2.035, 1.011e-3
-2.036, 1.011e-3
-2.037, 1.011e-3
-2.038, 1.011e-3
-2.039, 1.011e-3
-2.040, 1.011e-3
-2.041, 1.011e-3
-2.042, 1.011e-3
-2.043, 1.011e-3
-2.044, 1.011e-3
-2.045, 1.011e-3
-2.046, 1.011e-3
-2.047, 1.011e-3
-2.048, 1.011e-3
-2.049, 1.011e-3
-2.050, 1.011e-3
-2.051, 1.011e-3
-2.052, 1.011e-3
-2.053, 1.011e-3
-2.054, 1.011e-3
-2.055, 1.011e-3
-2.056, 1.011e-3
-2.057, 1.011e-3
-2.058, 1.011e-3
-2.059, 1.011e-3
-2.060, 1.011e-3
-2.061, 1.011e-3
-2.062, 1.011e-3
-2.063, 1.011e-3
-2.064, 1.011e-3
-2.065, 1.011e-3
-2.066, 1.011e-3
-2.067, 1.011e-3
-2.068, 1.011e-3
-2.069, 1.011e-3
-2.070, 1.011e-3
-2.071, 1.011e-3
-2.072, 1.011e-3
-2.073, 1.011e-3
-2.074, 1.011e-3
-2.075, 1.011e-3
-2.076, 1.011e-3
-2.077, 1.011e-3
-2.078, 1.011e-3
-2.079, 1.011e-3
-2.080, 1.011e-3
-2.081, 1.011e-3
-2.082, 1.011e-3
-2.083, 1.011e-3
-2.084, 1.011e-3
-2.085, 1.011e-3
-2.086, 1.011e-3
-2.087, 1.011e-3
-2.088, 1.011e-3
-2.089, 1.011e-3
-2.090, 1.011e-3
-2.091, 1.011e-3
-2.092, 1.011e-3
-2.093, 1.011e-3
-2.094, 1.011e-3
-2.095, 1.011e-3
-2.096, 1.011e-3
-2.097, 1.011e-3
-2.098, 1.011e-3
-2.099, 1.011e-3
-2.100, 1.011e-3
-2.101, 1.011e-3
-2.102, 1.011e-3
-2.103, 1.011e-3
-2.104, 1.011e-3
-2.105, 1.011e-3
-2.106, 1.011e-3
-2.107, 1.011e-3
-2.108, 1.011e-3
-2.109, 1.011e-3
-2.110, 1.011e-3
-2.111, 1.011e-3
-2.112, 1.011e-3
-2.113, 1.011e-3
-2.114, 1.011e-3
-2.115, 1.011e-3
-2.116, 1.011e-3
-2.117, 1.011e-3
-2.118, 1.011e-3
-2.119, 1.011e-3
-2.120, 1.011e-3
-2.121, 1.011e-3
-2.122, 1.011e-3
-2.123, 1.011e-3
-2.124, 1.011e-3
-2.125, 1.011e-3
-2.126, 1.011e-3
-2.127, 1.011e-3
-2.128, 1.011e-3
-2.129, 1.011e-3
-2.130, 1.011e-3
-2.131, 1.011e-3
-2.132, 1.011e-3
-2.133, 1.011e-3
-2.134, 1.011e-3
-2.135, 1.011e-3
-2.136, 1.011e-3
-2.137, 1.011e-3
-2.138, 1.011e-3
-2.139, 1.011e-3
-2.140, 1.011e-3
-2.141, 1.011e-3
-2.142, 1.011e-3
-2.143, 1.011e-3
-2.144, 1.011e-3
-2.145, 1.011e-3
-2.146, 1.011e-3
-2.147, 1.011e-3
-2.148, 1.011e-3
-2.149, 1.011e-3
-2.150, 1.011e-3
-2.151, 1.011e-3
-2.152, 1.011e-3
-2.153, 1.011e-3
-2.154, 1.011e-3
-2.155, 1.011e-3
-2.156, 1.011e-3
-2.157, 1.011e-3
-2.158, 1.011e-3
-2.159, 1.011e-3
-2.160, 1.011e-3
-2.161, 1.011e-3
-2.162, 1.011e-3
-2.163, 1.011e-3
-2.164, 1.011e-3
-2.165, 1.011e-3
-2.166, 1.011e-3
-2.167, 1.011e-3
-2.168, 1.011e-3
-2.169, 1.011e-3
-2.170, 1.011e-3
-2.171, 1.011e-3
-2.172, 1.011e-3
-2.173, 1.011e-3
-2.174, 1.011e-3
-2.175, 1.011e-3
-2.176, 1.011e-3
-2.177, 1.011e-3
-2.178, 1.011e-3
-2.179, 1.011e-3
-2.180, 1.011e-3
-2.181, 1.011e-3
-2.182, 1.011e-3
-2.183, 1.011e-3
-2.184, 1.011e-3
-2.185, 1.011e-3
-2.186, 1.011e-3
-2.187, 1.011e-3
-2.188, 1.011e-3
-2.189, 1.011e-3
-2.190, 1.011e-3
-2.191, 1.011e-3
-2.192, 1.011e-3
-2.193, 1.011e-3
-2.194, 1.011e-3
-2.195, 1.011e-3
-2.196, 1.011e-3
-2.197, 1.011e-3
-2.198, 1.011e-3
-2.199, 1.011e-3
-2.200, 1.011e-3
-2.201, 1.011e-3
-2.202, 1.011e-3
-2.203, 1.011e-3
-2.204, 1.011e-3
-2.205, 1.011e-3
-2.206, 1.011e-3
-2.207, 1.011e-3
-2.208, 1.011e-3
-2.209, 1.011e-3
-2.210, 1.011e-3
-2.211, 1.011e-3
-2.212, 1.011e-3
-2.213, 1.011e-3
-2.214, 1.011e-3
-2.215, 1.011e-3
-2.216, 1.011e-3
-2.217, 1.011e-3
-2.218, 1.011e-3
-2.219, 1.011e-3
-2.220, 1.011e-3
-2.221, 1.011e-3
-2.222, 1.011e-3
-2.223, 1.011e-3
-2.224, 1.011e-3
-2.225, 1.011e-3
-2.226, 1.011e-3
-2.227, 1.011e-3
-2.228, 1.011e-3
-2.229, 1.011e-3
-2.230, 1.011e-3
-2.231, 1.011e-3
-2.232, 1.011e-3
-2.233, 1.011e-3
-2.234, 1.011e-3
-2.235, 1.011e-3
-2.236, 1.011e-3
-2.237, 1.011e-3
-2.238, 1.011e-3
-2.239, 1.011e-3
-2.240, 1.011e-3
-2.241, 1.011e-3
-2.242, 1.011e-3
-2.243, 1.011e-3
-2.244, 1.011e-3
-2.245, 1.011e-3
-2.246, 1.011e-3
-2.247, 1.011e-3
-2.248, 1.011e-3
-2.249, 1.011e-3
-2.250, 1.011e-3
-2.251, 1.011e-3
-2.252, 1.011e-3
-2.253, 1.011e-3
-2.254, 1.011e-3
-2.255, 1.011e-3
-2.256, 1.011e-3
-2.257, 1.011e-3
-2.258, 1.011e-3
-2.259, 1.011e-3
-2.260, 1.011e-3
-2.261, 1.011e-3
-2.262, 1.011e-3
-2.263, 1.011e-3
-2.264, 1.011e-3
-2.265, 1.011e-3
-2.266, 1.011e-3
-2.267, 1.011e-3
-2.268, 1.011e-3
-2.269, 1.011e-3
-2.270, 1.011e-3
-2.271, 1.011e-3
-2.272, 1.011e-3
-2.273, 1.011e-3
-2.274, 1.011e-3
-2.275, 1.011e-3
-2.276, 1.011e-3
-2.277, 1.011e-3
-2.278, 1.011e-3
-2.279, 1.011e-3
-2.280, 1.011e-3
-2.281, 1.011e-3
-2.282, 1.011e-3
-2.283, 1.011e-3
-2.284, 1.011e-3
-2.285, 1.011e-3
-2.286, 1.011e-3
-2.287, 1.011e-3
-2.288, 1.011e-3
-2.289, 1.011e-3
-2.290, 1.011e-3
-2.291, 1.011e-3
-2.292, 1.011e-3
-2.293, 1.011e-3
-2.294, 1.011e-3
-2.295, 1.011e-3
-2.296, 1.011e-3
-2.297, 1.011e-3
-2.298, 1.011e-3
-2.299, 1.011e-3
