July 14, 2024   07:41:00
Cyclic Voltammetry
File: c:/users/guazh/data/20240709_batch67/2024-07-10-exp40\exp40-2024-07-14t07_27_25-h2koh\exp40_cv_sr_50mvs_efin_-1700mv.bin
Data Source:  Experiment
Instrument Model:  CHI760E
Header: CV ran at 50 mVs
Note: 

Init E (V) = -1
High E (V) = -1
Low E (V) = -1.7
Final E (V) = -1
Init P/N = N
Scan Rate (V/s) = 0.05
Segment = 3
Sample Interval (V) = 0.001
Quiet Time (sec) = 2
Sensitivity (A/V) = 0.01
Comp R (ohm) = 1.9

Results:

Channel 1:
Segment 1:

Segment 2:

Segment 3:

Potential/V, Current/A

-1.000, -6.827e-7
-1.001, -5.939e-7
-1.002, -3.769e-7
-1.003, -4.558e-7
-1.004, -4.262e-7
-1.005, -3.177e-7
-1.006, -3.177e-7
-1.007, -8.090e-8
-1.008, -1.796e-7
-1.009, -2.980e-7
-1.010, -2.486e-7
-1.011, -1.894e-7
-1.012, 7.893e-9
-1.013, 1.776e-8
-1.014, -9.077e-8
-1.015, 7.893e-9
-1.016, -9.077e-8
-1.017, 1.362e-7
-1.018, 1.776e-8
-1.019, 2.762e-8
-1.020, 6.709e-8
-1.021, 8.682e-8
-1.022, 1.559e-7
-1.023, 6.709e-8
-1.024, 1.066e-7
-1.025, 2.052e-7
-1.026, 2.052e-7
-1.027, 3.335e-7
-1.028, 2.348e-7
-1.029, 3.137e-7
-1.030, 2.249e-7
-1.031, 1.657e-7
-1.032, 4.420e-7
-1.033, 2.940e-7
-1.034, 3.335e-7
-1.035, 2.545e-7
-1.036, 3.631e-7
-1.037, 4.420e-7
-1.038, 4.025e-7
-1.039, 3.532e-7
-1.040, 4.223e-7
-1.041, 3.137e-7
-1.042, 4.815e-7
-1.043, 4.420e-7
-1.044, 3.433e-7
-1.045, 4.025e-7
-1.046, 4.913e-7
-1.047, 5.703e-7
-1.048, 5.209e-7
-1.049, 4.716e-7
-1.050, 4.913e-7
-1.051, 6.393e-7
-1.052, 5.998e-7
-1.053, 5.801e-7
-1.054, 4.617e-7
-1.055, 5.604e-7
-1.056, 5.998e-7
-1.057, 6.985e-7
-1.058, 5.801e-7
-1.059, 5.998e-7
-1.060, 5.900e-7
-1.061, 5.998e-7
-1.062, 7.577e-7
-1.063, 6.985e-7
-1.064, 5.407e-7
-1.065, 6.294e-7
-1.066, 6.393e-7
-1.067, 8.070e-7
-1.068, 6.196e-7
-1.069, 5.703e-7
-1.070, 6.689e-7
-1.071, 6.985e-7
-1.072, 7.478e-7
-1.073, 7.084e-7
-1.074, 6.788e-7
-1.075, 7.380e-7
-1.076, 7.873e-7
-1.077, 8.860e-7
-1.078, 9.353e-7
-1.079, 7.182e-7
-1.080, 7.281e-7
-1.081, 7.281e-7
-1.082, 9.748e-7
-1.083, 9.254e-7
-1.084, 7.281e-7
-1.085, 7.676e-7
-1.086, 9.156e-7
-1.087, 8.761e-7
-1.088, 9.550e-7
-1.089, 7.873e-7
-1.090, 8.564e-7
-1.091, 8.860e-7
-1.092, 9.649e-7
-1.093, 8.564e-7
-1.094, 7.676e-7
-1.095, 8.860e-7
-1.096, 8.465e-7
-1.097, 1.034e-6
-1.098, 9.550e-7
-1.099, 8.564e-7
-1.100, 8.662e-7
-1.101, 9.945e-7
-1.102, 1.014e-6
-1.103, 9.748e-7
-1.104, 8.465e-7
-1.105, 9.748e-7
-1.106, 9.452e-7
-1.107, 1.054e-6
-1.108, 1.054e-6
-1.109, 9.353e-7
-1.110, 8.564e-7
-1.111, 9.550e-7
-1.112, 1.083e-6
-1.113, 1.123e-6
-1.114, 1.004e-6
-1.115, 1.014e-6
-1.116, 9.649e-7
-1.117, 1.133e-6
-1.118, 1.083e-6
-1.119, 9.945e-7
-1.120, 9.748e-7
-1.121, 1.004e-6
-1.122, 1.133e-6
-1.123, 1.083e-6
-1.124, 1.083e-6
-1.125, 1.073e-6
-1.126, 1.192e-6
-1.127, 1.172e-6
-1.128, 1.182e-6
-1.129, 1.064e-6
-1.130, 1.113e-6
-1.131, 1.103e-6
-1.132, 1.231e-6
-1.133, 1.162e-6
-1.134, 1.044e-6
-1.135, 1.182e-6
-1.136, 1.162e-6
-1.137, 1.162e-6
-1.138, 1.172e-6
-1.139, 1.142e-6
-1.140, 1.182e-6
-1.141, 1.182e-6
-1.142, 1.241e-6
-1.143, 1.350e-6
-1.144, 1.142e-6
-1.145, 1.113e-6
-1.146, 1.172e-6
-1.147, 1.320e-6
-1.148, 1.241e-6
-1.149, 1.221e-6
-1.150, 1.152e-6
-1.151, 1.182e-6
-1.152, 1.438e-6
-1.153, 1.261e-6
-1.154, 1.281e-6
-1.155, 1.202e-6
-1.156, 1.290e-6
-1.157, 1.419e-6
-1.158, 1.379e-6
-1.159, 1.251e-6
-1.160, 1.290e-6
-1.161, 1.271e-6
-1.162, 1.389e-6
-1.163, 1.419e-6
-1.164, 1.281e-6
-1.165, 1.340e-6
-1.166, 1.340e-6
-1.167, 1.458e-6
-1.168, 1.468e-6
-1.169, 1.389e-6
-1.170, 1.360e-6
-1.171, 1.290e-6
-1.172, 1.488e-6
-1.173, 1.419e-6
-1.174, 1.488e-6
-1.175, 1.429e-6
-1.176, 1.360e-6
-1.177, 1.488e-6
-1.178, 1.586e-6
-1.179, 1.458e-6
-1.180, 1.547e-6
-1.181, 1.438e-6
-1.182, 1.695e-6
-1.183, 1.606e-6
-1.184, 1.606e-6
-1.185, 1.488e-6
-1.186, 1.488e-6
-1.187, 1.685e-6
-1.188, 1.695e-6
-1.189, 1.616e-6
-1.190, 1.626e-6
-1.191, 1.537e-6
-1.192, 1.725e-6
-1.193, 1.744e-6
-1.194, 1.577e-6
-1.195, 1.616e-6
-1.196, 1.586e-6
-1.197, 1.784e-6
-1.198, 1.725e-6
-1.199, 1.695e-6
-1.200, 1.715e-6
-1.201, 1.656e-6
-1.202, 1.774e-6
-1.203, 1.784e-6
-1.204, 1.794e-6
-1.205, 1.833e-6
-1.206, 1.754e-6
-1.207, 1.882e-6
-1.208, 1.922e-6
-1.209, 1.912e-6
-1.210, 1.932e-6
-1.211, 1.892e-6
-1.212, 2.011e-6
-1.213, 1.961e-6
-1.214, 1.961e-6
-1.215, 1.922e-6
-1.216, 2.050e-6
-1.217, 2.198e-6
-1.218, 2.139e-6
-1.219, 2.080e-6
-1.220, 2.070e-6
-1.221, 2.080e-6
-1.222, 2.119e-6
-1.223, 2.238e-6
-1.224, 2.188e-6
-1.225, 2.178e-6
-1.226, 2.188e-6
-1.227, 2.287e-6
-1.228, 2.336e-6
-1.229, 2.395e-6
-1.230, 2.356e-6
-1.231, 2.356e-6
-1.232, 2.484e-6
-1.233, 2.563e-6
-1.234, 2.425e-6
-1.235, 2.484e-6
-1.236, 2.553e-6
-1.237, 2.563e-6
-1.238, 2.613e-6
-1.239, 2.613e-6
-1.240, 2.563e-6
-1.241, 2.603e-6
-1.242, 2.849e-6
-1.243, 2.810e-6
-1.244, 2.741e-6
-1.245, 2.849e-6
-1.246, 2.830e-6
-1.247, 2.908e-6
-1.248, 3.066e-6
-1.249, 2.958e-6
-1.250, 2.968e-6
-1.251, 2.997e-6
-1.252, 3.135e-6
-1.253, 3.165e-6
-1.254, 3.175e-6
-1.255, 3.195e-6
-1.256, 3.303e-6
-1.257, 3.293e-6
-1.258, 3.491e-6
-1.259, 3.481e-6
-1.260, 3.422e-6
-1.261, 3.441e-6
-1.262, 3.530e-6
-1.263, 3.688e-6
-1.264, 3.599e-6
-1.265, 3.688e-6
-1.266, 3.708e-6
-1.267, 3.885e-6
-1.268, 4.023e-6
-1.269, 4.004e-6
-1.270, 3.935e-6
-1.271, 4.161e-6
-1.272, 4.250e-6
-1.273, 4.300e-6
-1.274, 4.280e-6
-1.275, 4.270e-6
-1.276, 4.329e-6
-1.277, 4.448e-6
-1.278, 4.625e-6
-1.279, 4.615e-6
-1.280, 4.684e-6
-1.281, 4.734e-6
-1.282, 4.892e-6
-1.283, 5.020e-6
-1.284, 5.030e-6
-1.285, 5.040e-6
-1.286, 5.207e-6
-1.287, 5.345e-6
-1.288, 5.474e-6
-1.289, 5.533e-6
-1.290, 5.474e-6
-1.291, 5.651e-6
-1.292, 5.720e-6
-1.293, 5.947e-6
-1.294, 5.977e-6
-1.295, 6.016e-6
-1.296, 6.154e-6
-1.297, 6.243e-6
-1.298, 6.490e-6
-1.299, 6.480e-6
-1.300, 6.460e-6
-1.301, 6.628e-6
-1.302, 6.766e-6
-1.303, 7.042e-6
-1.304, 7.013e-6
-1.305, 7.131e-6
-1.306, 7.269e-6
-1.307, 7.575e-6
-1.308, 7.624e-6
-1.309, 7.743e-6
-1.310, 7.802e-6
-1.311, 7.861e-6
-1.312, 8.147e-6
-1.313, 8.354e-6
-1.314, 8.364e-6
-1.315, 8.552e-6
-1.316, 8.631e-6
-1.317, 8.848e-6
-1.318, 8.937e-6
-1.319, 9.183e-6
-1.320, 9.134e-6
-1.321, 9.341e-6
-1.322, 9.627e-6
-1.323, 9.825e-6
-1.324, 9.834e-6
-1.325, 1.005e-5
-1.326, 1.019e-5
-1.327, 1.041e-5
-1.328, 1.058e-5
-1.329, 1.071e-5
-1.330, 1.088e-5
-1.331, 1.115e-5
-1.332, 1.137e-5
-1.333, 1.157e-5
-1.334, 1.175e-5
-1.335, 1.187e-5
-1.336, 1.202e-5
-1.337, 1.226e-5
-1.338, 1.257e-5
-1.339, 1.276e-5
-1.340, 1.282e-5
-1.341, 1.295e-5
-1.342, 1.337e-5
-1.343, 1.360e-5
-1.344, 1.372e-5
-1.345, 1.384e-5
-1.346, 1.414e-5
-1.347, 1.430e-5
-1.348, 1.471e-5
-1.349, 1.465e-5
-1.350, 1.501e-5
-1.351, 1.522e-5
-1.352, 1.554e-5
-1.353, 1.574e-5
-1.354, 1.590e-5
-1.355, 1.611e-5
-1.356, 1.630e-5
-1.357, 1.676e-5
-1.358, 1.706e-5
-1.359, 1.715e-5
-1.360, 1.736e-5
-1.361, 1.762e-5
-1.362, 1.788e-5
-1.363, 1.827e-5
-1.364, 1.838e-5
-1.365, 1.858e-5
-1.366, 1.882e-5
-1.367, 1.919e-5
-1.368, 1.953e-5
-1.369, 1.970e-5
-1.370, 1.990e-5
-1.371, 2.013e-5
-1.372, 2.054e-5
-1.373, 2.091e-5
-1.374, 2.099e-5
-1.375, 2.130e-5
-1.376, 2.151e-5
-1.377, 2.185e-5
-1.378, 2.225e-5
-1.379, 2.235e-5
-1.380, 2.267e-5
-1.381, 2.292e-5
-1.382, 2.326e-5
-1.383, 2.374e-5
-1.384, 2.385e-5
-1.385, 2.415e-5
-1.386, 2.428e-5
-1.387, 2.471e-5
-1.388, 2.508e-5
-1.389, 2.538e-5
-1.390, 2.565e-5
-1.391, 2.591e-5
-1.392, 2.621e-5
-1.393, 2.665e-5
-1.394, 2.680e-5
-1.395, 2.708e-5
-1.396, 2.735e-5
-1.397, 2.777e-5
-1.398, 2.821e-5
-1.399, 2.833e-5
-1.400, 2.860e-5
-1.401, 2.891e-5
-1.402, 2.933e-5
-1.403, 2.972e-5
-1.404, 2.988e-5
-1.405, 3.014e-5
-1.406, 3.040e-5
-1.407, 3.084e-5
-1.408, 3.129e-5
-1.409, 3.154e-5
-1.410, 3.186e-5
-1.411, 3.209e-5
-1.412, 3.242e-5
-1.413, 3.286e-5
-1.414, 3.309e-5
-1.415, 3.340e-5
-1.416, 3.354e-5
-1.417, 3.413e-5
-1.418, 3.438e-5
-1.419, 3.474e-5
-1.420, 3.491e-5
-1.421, 3.532e-5
-1.422, 3.574e-5
-1.423, 3.616e-5
-1.424, 3.645e-5
-1.425, 3.660e-5
-1.426, 3.692e-5
-1.427, 3.741e-5
-1.428, 3.780e-5
-1.429, 3.808e-5
-1.430, 3.826e-5
-1.431, 3.862e-5
-1.432, 3.900e-5
-1.433, 3.953e-5
-1.434, 3.986e-5
-1.435, 4.019e-5
-1.436, 4.038e-5
-1.437, 4.079e-5
-1.438, 4.125e-5
-1.439, 4.152e-5
-1.440, 4.189e-5
-1.441, 4.207e-5
-1.442, 4.247e-5
-1.443, 4.290e-5
-1.444, 4.328e-5
-1.445, 4.357e-5
-1.446, 4.384e-5
-1.447, 4.428e-5
-1.448, 4.482e-5
-1.449, 4.492e-5
-1.450, 4.529e-5
-1.451, 4.552e-5
-1.452, 4.599e-5
-1.453, 4.652e-5
-1.454, 4.678e-5
-1.455, 4.712e-5
-1.456, 4.746e-5
-1.457, 4.779e-5
-1.458, 4.839e-5
-1.459, 4.864e-5
-1.460, 4.902e-5
-1.461, 4.926e-5
-1.462, 4.969e-5
-1.463, 5.024e-5
-1.464, 5.045e-5
-1.465, 5.073e-5
-1.466, 5.122e-5
-1.467, 5.158e-5
-1.468, 5.209e-5
-1.469, 5.248e-5
-1.470, 5.277e-5
-1.471, 5.314e-5
-1.472, 5.356e-5
-1.473, 5.412e-5
-1.474, 5.451e-5
-1.475, 5.481e-5
-1.476, 5.521e-5
-1.477, 5.556e-5
-1.478, 5.612e-5
-1.479, 5.653e-5
-1.480, 5.693e-5
-1.481, 5.731e-5
-1.482, 5.773e-5
-1.483, 5.832e-5
-1.484, 5.878e-5
-1.485, 5.915e-5
-1.486, 5.965e-5
-1.487, 6.016e-5
-1.488, 6.064e-5
-1.489, 6.119e-5
-1.490, 6.157e-5
-1.491, 6.195e-5
-1.492, 6.249e-5
-1.493, 6.312e-5
-1.494, 6.349e-5
-1.495, 6.389e-5
-1.496, 6.445e-5
-1.497, 6.499e-5
-1.498, 6.569e-5
-1.499, 6.615e-5
-1.500, 6.650e-5
-1.501, 6.716e-5
-1.502, 6.760e-5
-1.503, 6.835e-5
-1.504, 6.885e-5
-1.505, 6.944e-5
-1.506, 6.987e-5
-1.507, 7.056e-5
-1.508, 7.129e-5
-1.509, 7.186e-5
-1.510, 7.249e-5
-1.511, 7.302e-5
-1.512, 7.370e-5
-1.513, 7.457e-5
-1.514, 7.514e-5
-1.515, 7.570e-5
-1.516, 7.644e-5
-1.517, 7.714e-5
-1.518, 7.803e-5
-1.519, 7.867e-5
-1.520, 7.933e-5
-1.521, 8.007e-5
-1.522, 8.084e-5
-1.523, 8.178e-5
-1.524, 8.261e-5
-1.525, 8.341e-5
-1.526, 8.412e-5
-1.527, 8.509e-5
-1.528, 8.606e-5
-1.529, 8.693e-5
-1.530, 8.771e-5
-1.531, 8.859e-5
-1.532, 8.960e-5
-1.533, 9.079e-5
-1.534, 9.165e-5
-1.535, 9.271e-5
-1.536, 9.369e-5
-1.537, 9.491e-5
-1.538, 9.607e-5
-1.539, 9.721e-5
-1.540, 9.829e-5
-1.541, 9.941e-5
-1.542, 1.006e-4
-1.543, 1.020e-4
-1.544, 1.033e-4
-1.545, 1.046e-4
-1.546, 1.058e-4
-1.547, 1.073e-4
-1.548, 1.087e-4
-1.549, 1.102e-4
-1.550, 1.117e-4
-1.551, 1.132e-4
-1.552, 1.147e-4
-1.553, 1.165e-4
-1.554, 1.181e-4
-1.555, 1.199e-4
-1.556, 1.215e-4
-1.557, 1.234e-4
-1.558, 1.253e-4
-1.559, 1.273e-4
-1.560, 1.292e-4
-1.561, 1.312e-4
-1.562, 1.333e-4
-1.563, 1.356e-4
-1.564, 1.378e-4
-1.565, 1.401e-4
-1.566, 1.423e-4
-1.567, 1.448e-4
-1.568, 1.475e-4
-1.569, 1.501e-4
-1.570, 1.527e-4
-1.571, 1.553e-4
-1.572, 1.582e-4
-1.573, 1.613e-4
-1.574, 1.643e-4
-1.575, 1.675e-4
-1.576, 1.705e-4
-1.577, 1.739e-4
-1.578, 1.775e-4
-1.579, 1.809e-4
-1.580, 1.846e-4
-1.581, 1.884e-4
-1.582, 1.923e-4
-1.583, 1.965e-4
-1.584, 2.005e-4
-1.585, 2.048e-4
-1.586, 2.090e-4
-1.587, 2.137e-4
-1.588, 2.186e-4
-1.589, 2.235e-4
-1.590, 2.285e-4
-1.591, 2.335e-4
-1.592, 2.389e-4
-1.593, 2.448e-4
-1.594, 2.505e-4
-1.595, 2.564e-4
-1.596, 2.625e-4
-1.597, 2.690e-4
-1.598, 2.758e-4
-1.599, 2.826e-4
-1.600, 2.898e-4
-1.601, 2.970e-4
-1.602, 3.046e-4
-1.603, 3.126e-4
-1.604, 3.209e-4
-1.605, 3.294e-4
-1.606, 3.377e-4
-1.607, 3.466e-4
-1.608, 3.564e-4
-1.609, 3.659e-4
-1.610, 3.757e-4
-1.611, 3.861e-4
-1.612, 3.966e-4
-1.613, 4.078e-4
-1.614, 4.190e-4
-1.615, 4.308e-4
-1.616, 4.427e-4
-1.617, 4.551e-4
-1.618, 4.684e-4
-1.619, 4.823e-4
-1.620, 4.965e-4
-1.621, 5.107e-4
-1.622, 5.258e-4
-1.623, 5.421e-4
-1.624, 5.583e-4
-1.625, 5.745e-4
-1.626, 5.913e-4
-1.627, 6.089e-4
-1.628, 6.273e-4
-1.629, 6.462e-4
-1.630, 6.662e-4
-1.631, 6.867e-4
-1.632, 7.071e-4
-1.633, 7.282e-4
-1.634, 7.509e-4
-1.635, 7.744e-4
-1.636, 7.981e-4
-1.637, 8.221e-4
-1.638, 8.483e-4
-1.639, 8.754e-4
-1.640, 9.020e-4
-1.641, 9.293e-4
-1.642, 9.584e-4
-1.643, 9.877e-4
-1.644, 1.017e-3
-1.645, 1.047e-3
-1.646, 1.080e-3
-1.647, 1.113e-3
-1.648, 1.147e-3
-1.649, 1.182e-3
-1.650, 1.217e-3
-1.651, 1.254e-3
-1.652, 1.291e-3
-1.653, 1.328e-3
-1.654, 1.370e-3
-1.655, 1.411e-3
-1.656, 1.452e-3
-1.657, 1.494e-3
-1.658, 1.540e-3
-1.659, 1.587e-3
-1.660, 1.633e-3
-1.661, 1.679e-3
-1.662, 1.729e-3
-1.663, 1.779e-3
-1.664, 1.828e-3
-1.665, 1.880e-3
-1.666, 1.934e-3
-1.667, 1.987e-3
-1.668, 2.041e-3
-1.669, 2.100e-3
-1.670, 2.159e-3
-1.671, 2.214e-3
-1.672, 2.271e-3
-1.673, 2.336e-3
-1.674, 2.398e-3
-1.675, 2.457e-3
-1.676, 2.521e-3
-1.677, 2.590e-3
-1.678, 2.656e-3
-1.679, 2.720e-3
-1.680, 2.787e-3
-1.681, 2.861e-3
-1.682, 2.932e-3
-1.683, 2.997e-3
-1.684, 3.069e-3
-1.685, 3.149e-3
-1.686, 3.223e-3
-1.687, 3.295e-3
-1.688, 3.376e-3
-1.689, 3.458e-3
-1.690, 3.528e-3
-1.691, 3.602e-3
-1.692, 3.688e-3
-1.693, 3.776e-3
-1.694, 3.858e-3
-1.695, 3.944e-3
-1.696, 4.036e-3
-1.697, 4.116e-3
-1.698, 4.196e-3
-1.699, 4.292e-3
-1.700, 4.336e-3
-1.699, 4.300e-3
-1.698, 4.265e-3
-1.697, 4.242e-3
-1.696, 4.213e-3
-1.695, 4.167e-3
-1.694, 4.121e-3
-1.693, 4.084e-3
-1.692, 4.043e-3
-1.691, 3.996e-3
-1.690, 3.957e-3
-1.689, 3.915e-3
-1.688, 3.861e-3
-1.687, 3.812e-3
-1.686, 3.776e-3
-1.685, 3.732e-3
-1.684, 3.677e-3
-1.683, 3.628e-3
-1.682, 3.588e-3
-1.681, 3.539e-3
-1.680, 3.486e-3
-1.679, 3.437e-3
-1.678, 3.396e-3
-1.677, 3.350e-3
-1.676, 3.299e-3
-1.675, 3.253e-3
-1.674, 3.211e-3
-1.673, 3.159e-3
-1.672, 3.107e-3
-1.671, 3.063e-3
-1.670, 3.022e-3
-1.669, 2.976e-3
-1.668, 2.927e-3
-1.667, 2.884e-3
-1.666, 2.842e-3
-1.665, 2.792e-3
-1.664, 2.742e-3
-1.663, 2.700e-3
-1.662, 2.662e-3
-1.661, 2.619e-3
-1.660, 2.574e-3
-1.659, 2.534e-3
-1.658, 2.491e-3
-1.657, 2.443e-3
-1.656, 2.401e-3
-1.655, 2.364e-3
-1.654, 2.324e-3
-1.653, 2.278e-3
-1.652, 2.235e-3
-1.651, 2.199e-3
-1.650, 2.162e-3
-1.649, 2.121e-3
-1.648, 2.082e-3
-1.647, 2.047e-3
-1.646, 2.009e-3
-1.645, 1.968e-3
-1.644, 1.931e-3
-1.643, 1.894e-3
-1.642, 1.856e-3
-1.641, 1.820e-3
-1.640, 1.788e-3
-1.639, 1.752e-3
-1.638, 1.714e-3
-1.637, 1.680e-3
-1.636, 1.648e-3
-1.635, 1.614e-3
-1.634, 1.579e-3
-1.633, 1.546e-3
-1.632, 1.517e-3
-1.631, 1.485e-3
-1.630, 1.453e-3
-1.629, 1.423e-3
-1.628, 1.394e-3
-1.627, 1.363e-3
-1.626, 1.334e-3
-1.625, 1.307e-3
-1.624, 1.279e-3
-1.623, 1.250e-3
-1.622, 1.223e-3
-1.621, 1.198e-3
-1.620, 1.173e-3
-1.619, 1.146e-3
-1.618, 1.120e-3
-1.617, 1.097e-3
-1.616, 1.072e-3
-1.615, 1.048e-3
-1.614, 1.025e-3
-1.613, 1.001e-3
-1.612, 9.785e-4
-1.611, 9.563e-4
-1.610, 9.353e-4
-1.609, 9.134e-4
-1.608, 8.912e-4
-1.607, 8.706e-4
-1.606, 8.514e-4
-1.605, 8.314e-4
-1.604, 8.111e-4
-1.603, 7.916e-4
-1.602, 7.736e-4
-1.601, 7.552e-4
-1.600, 7.368e-4
-1.599, 7.191e-4
-1.598, 7.020e-4
-1.597, 6.851e-4
-1.596, 6.683e-4
-1.595, 6.524e-4
-1.594, 6.367e-4
-1.593, 6.211e-4
-1.592, 6.063e-4
-1.591, 5.923e-4
-1.590, 5.778e-4
-1.589, 5.633e-4
-1.588, 5.492e-4
-1.587, 5.360e-4
-1.586, 5.233e-4
-1.585, 5.103e-4
-1.584, 4.976e-4
-1.583, 4.852e-4
-1.582, 4.732e-4
-1.581, 4.616e-4
-1.580, 4.502e-4
-1.579, 4.390e-4
-1.578, 4.282e-4
-1.577, 4.179e-4
-1.576, 4.083e-4
-1.575, 3.985e-4
-1.574, 3.886e-4
-1.573, 3.791e-4
-1.572, 3.700e-4
-1.571, 3.611e-4
-1.570, 3.521e-4
-1.569, 3.438e-4
-1.568, 3.353e-4
-1.567, 3.271e-4
-1.566, 3.193e-4
-1.565, 3.122e-4
-1.564, 3.040e-4
-1.563, 2.964e-4
-1.562, 2.895e-4
-1.561, 2.827e-4
-1.560, 2.760e-4
-1.559, 2.691e-4
-1.558, 2.626e-4
-1.557, 2.566e-4
-1.556, 2.506e-4
-1.555, 2.445e-4
-1.554, 2.386e-4
-1.553, 2.330e-4
-1.552, 2.275e-4
-1.551, 2.222e-4
-1.550, 2.169e-4
-1.549, 2.117e-4
-1.548, 2.067e-4
-1.547, 2.020e-4
-1.546, 1.975e-4
-1.545, 1.930e-4
-1.544, 1.886e-4
-1.543, 1.842e-4
-1.542, 1.798e-4
-1.541, 1.760e-4
-1.540, 1.718e-4
-1.539, 1.677e-4
-1.538, 1.639e-4
-1.537, 1.604e-4
-1.536, 1.568e-4
-1.535, 1.534e-4
-1.534, 1.498e-4
-1.533, 1.465e-4
-1.532, 1.434e-4
-1.531, 1.402e-4
-1.530, 1.371e-4
-1.529, 1.340e-4
-1.528, 1.311e-4
-1.527, 1.284e-4
-1.526, 1.258e-4
-1.525, 1.230e-4
-1.524, 1.204e-4
-1.523, 1.178e-4
-1.522, 1.153e-4
-1.521, 1.131e-4
-1.520, 1.108e-4
-1.519, 1.084e-4
-1.518, 1.060e-4
-1.517, 1.039e-4
-1.516, 1.019e-4
-1.515, 9.980e-5
-1.514, 9.769e-5
-1.513, 9.570e-5
-1.512, 9.392e-5
-1.511, 9.208e-5
-1.510, 9.014e-5
-1.509, 8.830e-5
-1.508, 8.661e-5
-1.507, 8.488e-5
-1.506, 8.335e-5
-1.505, 8.167e-5
-1.504, 7.998e-5
-1.503, 7.841e-5
-1.502, 7.694e-5
-1.501, 7.564e-5
-1.500, 7.413e-5
-1.499, 7.269e-5
-1.498, 7.117e-5
-1.497, 6.994e-5
-1.496, 6.871e-5
-1.495, 6.733e-5
-1.494, 6.608e-5
-1.493, 6.481e-5
-1.492, 6.364e-5
-1.491, 6.264e-5
-1.490, 6.130e-5
-1.489, 6.019e-5
-1.488, 5.896e-5
-1.487, 5.802e-5
-1.486, 5.703e-5
-1.485, 5.589e-5
-1.484, 5.482e-5
-1.483, 5.377e-5
-1.482, 5.296e-5
-1.481, 5.208e-5
-1.480, 5.103e-5
-1.479, 5.017e-5
-1.478, 4.922e-5
-1.477, 4.846e-5
-1.476, 4.769e-5
-1.475, 4.670e-5
-1.474, 4.590e-5
-1.473, 4.505e-5
-1.472, 4.433e-5
-1.471, 4.363e-5
-1.470, 4.281e-5
-1.469, 4.198e-5
-1.468, 4.123e-5
-1.467, 4.056e-5
-1.466, 3.994e-5
-1.465, 3.922e-5
-1.464, 3.847e-5
-1.463, 3.784e-5
-1.462, 3.735e-5
-1.461, 3.674e-5
-1.460, 3.612e-5
-1.459, 3.524e-5
-1.458, 3.466e-5
-1.457, 3.419e-5
-1.456, 3.366e-5
-1.455, 3.302e-5
-1.454, 3.233e-5
-1.453, 3.184e-5
-1.452, 3.133e-5
-1.451, 3.102e-5
-1.450, 3.036e-5
-1.449, 2.972e-5
-1.448, 2.928e-5
-1.447, 2.881e-5
-1.446, 2.843e-5
-1.445, 2.786e-5
-1.444, 2.737e-5
-1.443, 2.683e-5
-1.442, 2.646e-5
-1.441, 2.619e-5
-1.440, 2.565e-5
-1.439, 2.510e-5
-1.438, 2.470e-5
-1.437, 2.429e-5
-1.436, 2.397e-5
-1.435, 2.363e-5
-1.434, 2.305e-5
-1.433, 2.259e-5
-1.432, 2.218e-5
-1.431, 2.203e-5
-1.430, 2.158e-5
-1.429, 2.117e-5
-1.428, 2.086e-5
-1.427, 2.054e-5
-1.426, 2.030e-5
-1.425, 1.984e-5
-1.424, 1.945e-5
-1.423, 1.916e-5
-1.422, 1.886e-5
-1.421, 1.864e-5
-1.420, 1.819e-5
-1.419, 1.792e-5
-1.418, 1.753e-5
-1.417, 1.726e-5
-1.416, 1.714e-5
-1.415, 1.685e-5
-1.414, 1.638e-5
-1.413, 1.609e-5
-1.412, 1.591e-5
-1.411, 1.572e-5
-1.410, 1.553e-5
-1.409, 1.506e-5
-1.408, 1.481e-5
-1.407, 1.456e-5
-1.406, 1.438e-5
-1.405, 1.434e-5
-1.404, 1.386e-5
-1.403, 1.362e-5
-1.402, 1.342e-5
-1.401, 1.321e-5
-1.400, 1.291e-5
-1.399, 1.257e-5
-1.398, 1.240e-5
-1.397, 1.224e-5
-1.396, 1.220e-5
-1.395, 1.176e-5
-1.394, 1.163e-5
-1.393, 1.130e-5
-1.392, 1.123e-5
-1.391, 1.104e-5
-1.390, 1.082e-5
-1.389, 1.053e-5
-1.388, 1.029e-5
-1.387, 1.012e-5
-1.386, 1.012e-5
-1.385, 9.854e-6
-1.384, 9.588e-6
-1.383, 9.410e-6
-1.382, 9.213e-6
-1.381, 9.134e-6
-1.380, 8.848e-6
-1.379, 8.611e-6
-1.378, 8.453e-6
-1.377, 8.424e-6
-1.376, 8.266e-6
-1.375, 8.128e-6
-1.374, 7.891e-6
-1.373, 7.664e-6
-1.372, 7.545e-6
-1.371, 7.605e-6
-1.370, 7.309e-6
-1.369, 7.102e-6
-1.368, 6.894e-6
-1.367, 6.766e-6
-1.366, 6.736e-6
-1.365, 6.539e-6
-1.364, 6.342e-6
-1.363, 6.223e-6
-1.362, 6.105e-6
-1.361, 6.115e-6
-1.360, 5.878e-6
-1.359, 5.799e-6
-1.358, 5.641e-6
-1.357, 5.513e-6
-1.356, 5.572e-6
-1.355, 5.355e-6
-1.354, 5.128e-6
-1.353, 4.980e-6
-1.352, 5.000e-6
-1.351, 4.901e-6
-1.350, 4.655e-6
-1.349, 4.635e-6
-1.348, 4.438e-6
-1.347, 4.428e-6
-1.346, 4.398e-6
-1.345, 4.132e-6
-1.344, 4.013e-6
-1.343, 3.846e-6
-1.342, 3.826e-6
-1.341, 3.856e-6
-1.340, 3.639e-6
-1.339, 3.579e-6
-1.338, 3.372e-6
-1.337, 3.333e-6
-1.336, 3.382e-6
-1.335, 3.155e-6
-1.334, 3.195e-6
-1.333, 3.027e-6
-1.332, 2.948e-6
-1.331, 2.908e-6
-1.330, 2.790e-6
-1.329, 2.672e-6
-1.328, 2.524e-6
-1.327, 2.455e-6
-1.326, 2.504e-6
-1.325, 2.395e-6
-1.324, 2.277e-6
-1.323, 2.198e-6
-1.322, 2.090e-6
-1.321, 2.188e-6
-1.320, 2.070e-6
-1.319, 1.922e-6
-1.318, 1.764e-6
-1.317, 1.774e-6
-1.316, 1.833e-6
-1.315, 1.695e-6
-1.314, 1.636e-6
-1.313, 1.498e-6
-1.312, 1.537e-6
-1.311, 1.517e-6
-1.310, 1.369e-6
-1.309, 1.271e-6
-1.308, 1.221e-6
-1.307, 1.221e-6
-1.306, 1.221e-6
-1.305, 9.846e-7
-1.304, 9.550e-7
-1.303, 8.761e-7
-1.302, 9.254e-7
-1.301, 1.064e-6
-1.300, 8.366e-7
-1.299, 6.590e-7
-1.298, 6.097e-7
-1.297, 6.590e-7
-1.296, 7.577e-7
-1.295, 5.308e-7
-1.294, 4.815e-7
-1.293, 3.335e-7
-1.292, 4.716e-7
-1.291, 5.900e-7
-1.290, 4.223e-7
-1.289, 2.447e-7
-1.288, 2.447e-7
-1.287, 3.137e-7
-1.286, 3.433e-7
-1.285, 2.940e-7
-1.284, 1.657e-7
-1.283, 1.263e-7
-1.282, 2.052e-7
-1.281, 1.362e-7
-1.280, 5.722e-8
-1.279, -1.105e-7
-1.278, -1.697e-7
-1.277, -1.500e-7
-1.276, -7.103e-8
-1.275, -1.302e-7
-1.274, -2.486e-7
-1.273, -2.881e-7
-1.272, -2.980e-7
-1.271, -2.092e-7
-1.270, -3.078e-7
-1.269, -3.078e-7
-1.268, -4.065e-7
-1.267, -5.150e-7
-1.266, -3.078e-7
-1.265, -5.150e-7
-1.264, -5.742e-7
-1.263, -6.235e-7
-1.262, -5.347e-7
-1.261, -4.361e-7
-1.260, -5.545e-7
-1.259, -5.939e-7
-1.258, -5.545e-7
-1.257, -7.222e-7
-1.256, -6.433e-7
-1.255, -7.321e-7
-1.254, -8.307e-7
-1.253, -7.222e-7
-1.252, -7.321e-7
-1.251, -6.137e-7
-1.250, -7.321e-7
-1.249, -8.307e-7
-1.248, -8.406e-7
-1.247, -7.912e-7
-1.246, -7.912e-7
-1.245, -8.504e-7
-1.244, -9.491e-7
-1.243, -9.195e-7
-1.242, -1.048e-6
-1.241, -8.208e-7
-1.240, -9.787e-7
-1.239, -1.018e-6
-1.238, -1.008e-6
-1.237, -1.097e-6
-1.236, -8.998e-7
-1.235, -1.008e-6
-1.234, -1.087e-6
-1.233, -1.008e-6
-1.232, -1.097e-6
-1.231, -9.392e-7
-1.230, -9.787e-7
-1.229, -1.314e-6
-1.228, -1.215e-6
-1.227, -1.156e-6
-1.226, -1.206e-6
-1.225, -1.196e-6
-1.224, -1.225e-6
-1.223, -1.215e-6
-1.222, -1.275e-6
-1.221, -1.127e-6
-1.220, -1.206e-6
-1.219, -1.324e-6
-1.218, -1.294e-6
-1.217, -1.275e-6
-1.216, -1.294e-6
-1.215, -1.275e-6
-1.214, -1.383e-6
-1.213, -1.314e-6
-1.212, -1.354e-6
-1.211, -1.215e-6
-1.210, -1.225e-6
-1.209, -1.354e-6
-1.208, -1.393e-6
-1.207, -1.413e-6
-1.206, -1.304e-6
-1.205, -1.215e-6
-1.204, -1.393e-6
-1.203, -1.541e-6
-1.202, -1.403e-6
-1.201, -1.334e-6
-1.200, -1.383e-6
-1.199, -1.423e-6
-1.198, -1.413e-6
-1.197, -1.482e-6
-1.196, -1.403e-6
-1.195, -1.403e-6
-1.194, -1.403e-6
-1.193, -1.482e-6
-1.192, -1.521e-6
-1.191, -1.452e-6
-1.190, -1.492e-6
-1.189, -1.610e-6
-1.188, -1.541e-6
-1.187, -1.600e-6
-1.186, -1.462e-6
-1.185, -1.363e-6
-1.184, -1.511e-6
-1.183, -1.669e-6
-1.182, -1.521e-6
-1.181, -1.442e-6
-1.180, -1.531e-6
-1.179, -1.590e-6
-1.178, -1.669e-6
-1.177, -1.699e-6
-1.176, -1.600e-6
-1.175, -1.610e-6
-1.174, -1.768e-6
-1.173, -1.620e-6
-1.172, -1.640e-6
-1.171, -1.590e-6
-1.170, -1.581e-6
-1.169, -1.679e-6
-1.168, -1.758e-6
-1.167, -1.640e-6
-1.166, -1.581e-6
-1.165, -1.630e-6
-1.164, -1.689e-6
-1.163, -1.729e-6
-1.162, -1.729e-6
-1.161, -1.650e-6
-1.160, -1.630e-6
-1.159, -1.738e-6
-1.158, -1.699e-6
-1.157, -1.817e-6
-1.156, -1.581e-6
-1.155, -1.640e-6
-1.154, -1.738e-6
-1.153, -1.659e-6
-1.152, -1.837e-6
-1.151, -1.748e-6
-1.150, -1.729e-6
-1.149, -1.867e-6
-1.148, -1.867e-6
-1.147, -1.768e-6
-1.146, -1.719e-6
-1.145, -1.788e-6
-1.144, -1.778e-6
-1.143, -1.729e-6
-1.142, -1.857e-6
-1.141, -1.709e-6
-1.140, -1.729e-6
-1.139, -1.906e-6
-1.138, -1.936e-6
-1.137, -1.896e-6
-1.136, -1.738e-6
-1.135, -1.758e-6
-1.134, -1.965e-6
-1.133, -1.926e-6
-1.132, -1.916e-6
-1.131, -1.719e-6
-1.130, -1.817e-6
-1.129, -2.005e-6
-1.128, -1.886e-6
-1.127, -2.005e-6
-1.126, -1.896e-6
-1.125, -1.817e-6
-1.124, -1.965e-6
-1.123, -2.024e-6
-1.122, -2.034e-6
-1.121, -1.847e-6
-1.120, -1.946e-6
-1.119, -2.064e-6
-1.118, -2.064e-6
-1.117, -2.034e-6
-1.116, -1.965e-6
-1.115, -1.955e-6
-1.114, -2.015e-6
-1.113, -2.153e-6
-1.112, -2.103e-6
-1.111, -2.034e-6
-1.110, -1.995e-6
-1.109, -2.103e-6
-1.108, -2.123e-6
-1.107, -2.143e-6
-1.106, -2.024e-6
-1.105, -1.906e-6
-1.104, -2.103e-6
-1.103, -2.034e-6
-1.102, -2.182e-6
-1.101, -2.094e-6
-1.100, -2.094e-6
-1.099, -2.182e-6
-1.098, -2.242e-6
-1.097, -2.242e-6
-1.096, -2.133e-6
-1.095, -2.084e-6
-1.094, -2.212e-6
-1.093, -2.281e-6
-1.092, -2.242e-6
-1.091, -2.251e-6
-1.090, -2.212e-6
-1.089, -2.172e-6
-1.088, -2.340e-6
-1.087, -2.390e-6
-1.086, -2.301e-6
-1.085, -2.212e-6
-1.084, -2.311e-6
-1.083, -2.468e-6
-1.082, -2.281e-6
-1.081, -2.380e-6
-1.080, -2.281e-6
-1.079, -2.370e-6
-1.078, -2.399e-6
-1.077, -2.390e-6
-1.076, -2.350e-6
-1.075, -2.370e-6
-1.074, -2.459e-6
-1.073, -2.538e-6
-1.072, -2.557e-6
-1.071, -2.528e-6
-1.070, -2.301e-6
-1.069, -2.508e-6
-1.068, -2.616e-6
-1.067, -2.459e-6
-1.066, -2.488e-6
-1.065, -2.439e-6
-1.064, -2.567e-6
-1.063, -2.616e-6
-1.062, -2.646e-6
-1.061, -2.587e-6
-1.060, -2.557e-6
-1.059, -2.725e-6
-1.058, -2.686e-6
-1.057, -2.666e-6
-1.056, -2.705e-6
-1.055, -2.597e-6
-1.054, -2.735e-6
-1.053, -2.705e-6
-1.052, -2.755e-6
-1.051, -2.676e-6
-1.050, -2.646e-6
-1.049, -2.794e-6
-1.048, -2.893e-6
-1.047, -2.824e-6
-1.046, -2.843e-6
-1.045, -2.715e-6
-1.044, -2.774e-6
-1.043, -2.962e-6
-1.042, -2.873e-6
-1.041, -2.814e-6
-1.040, -2.824e-6
-1.039, -2.912e-6
-1.038, -2.903e-6
-1.037, -2.972e-6
-1.036, -2.972e-6
-1.035, -2.922e-6
-1.034, -3.021e-6
-1.033, -3.139e-6
-1.032, -3.090e-6
-1.031, -2.972e-6
-1.030, -2.962e-6
-1.029, -3.070e-6
-1.028, -3.129e-6
-1.027, -3.169e-6
-1.026, -2.981e-6
-1.025, -2.991e-6
-1.024, -3.248e-6
-1.023, -3.199e-6
-1.022, -3.238e-6
-1.021, -3.238e-6
-1.020, -3.189e-6
-1.019, -3.337e-6
-1.018, -3.376e-6
-1.017, -3.347e-6
-1.016, -3.277e-6
-1.015, -3.228e-6
-1.014, -3.416e-6
-1.013, -3.277e-6
-1.012, -3.347e-6
-1.011, -3.356e-6
-1.010, -3.366e-6
-1.009, -3.416e-6
-1.008, -3.544e-6
-1.007, -3.564e-6
-1.006, -3.564e-6
-1.005, -3.406e-6
-1.004, -3.583e-6
-1.003, -3.524e-6
-1.002, -3.593e-6
-1.001, -3.514e-6
